# Temperatura_=_25.1
# Concentracion g/m^3_=_1620.0
# C_Vs_to_Am_M_A/Vsm_=_65563218390.804596
# pendiente_HvsI_1/m_=_3716.3
# ordenada_HvsI_A/m_=_1297.0
# frecuencia_Hz_=_135107.8523337044

Tiempo_(s)	Campo_(V.s)	Magnetizacion_(V.s)	Campo_(kA/m)	Magnetizacion_(A/m)
0.000000e+00	-5.513282e-06	-1.320351e-09	-3.837603e+01	-8.589257e+01
1.000000e-08	-5.513685e-06	-1.319513e-09	-3.837884e+01	-8.583847e+01
2.000000e-08	-5.513838e-06	-1.318083e-09	-3.837990e+01	-8.578001e+01
3.000000e-08	-5.513584e-06	-1.317271e-09	-3.837813e+01	-8.571702e+01
4.000000e-08	-5.512890e-06	-1.315845e-09	-3.837331e+01	-8.564934e+01
5.000000e-08	-5.511588e-06	-1.313171e-09	-3.836424e+01	-8.557686e+01
6.000000e-08	-5.509559e-06	-1.309750e-09	-3.835012e+01	-8.549947e+01
7.000000e-08	-5.506949e-06	-1.309906e-09	-3.833195e+01	-8.541711e+01
8.000000e-08	-5.503905e-06	-1.323420e-09	-3.831076e+01	-8.532973e+01
9.000000e-08	-5.500454e-06	-1.309972e-09	-3.828674e+01	-8.523734e+01
1.000000e-07	-5.496547e-06	-1.263268e-09	-3.825954e+01	-8.513995e+01
1.100000e-07	-5.492292e-06	-1.272692e-09	-3.822993e+01	-8.503764e+01
1.200000e-07	-5.487861e-06	-1.330354e-09	-3.819909e+01	-8.493049e+01
1.300000e-07	-5.483140e-06	-1.316834e-09	-3.816622e+01	-8.481865e+01
1.400000e-07	-5.478000e-06	-1.291165e-09	-3.813045e+01	-8.470228e+01
1.500000e-07	-5.472481e-06	-1.281813e-09	-3.809203e+01	-8.458157e+01
1.600000e-07	-5.466667e-06	-1.343208e-09	-3.805156e+01	-8.445677e+01
1.700000e-07	-5.460499e-06	-1.315967e-09	-3.800863e+01	-8.432815e+01
1.800000e-07	-5.453800e-06	-1.238443e-09	-3.796200e+01	-8.419598e+01
1.900000e-07	-5.446713e-06	-1.228881e-09	-3.791267e+01	-8.406062e+01
2.000000e-07	-5.439384e-06	-1.271425e-09	-3.786165e+01	-8.392239e+01
2.100000e-07	-5.431818e-06	-1.294827e-09	-3.780899e+01	-8.378169e+01
2.200000e-07	-5.424000e-06	-1.250057e-09	-3.775457e+01	-8.363889e+01
2.300000e-07	-5.415943e-06	-1.234791e-09	-3.769849e+01	-8.349441e+01
2.400000e-07	-5.407548e-06	-1.245109e-09	-3.764005e+01	-8.334867e+01
2.500000e-07	-5.398523e-06	-1.248284e-09	-3.757724e+01	-8.320210e+01
2.600000e-07	-5.388779e-06	-1.204982e-09	-3.750941e+01	-8.305513e+01
2.700000e-07	-5.378415e-06	-1.222754e-09	-3.743727e+01	-8.290820e+01
2.800000e-07	-5.367499e-06	-1.258576e-09	-3.736129e+01	-8.276175e+01
2.900000e-07	-5.356106e-06	-1.273402e-09	-3.728198e+01	-8.261618e+01
3.000000e-07	-5.344346e-06	-1.228622e-09	-3.720013e+01	-8.247193e+01
3.100000e-07	-5.332205e-06	-1.235429e-09	-3.711562e+01	-8.232937e+01
3.200000e-07	-5.319616e-06	-1.258864e-09	-3.702799e+01	-8.218890e+01
3.300000e-07	-5.306612e-06	-1.258890e-09	-3.693747e+01	-8.205085e+01
3.400000e-07	-5.293250e-06	-1.220052e-09	-3.684447e+01	-8.191555e+01
3.500000e-07	-5.279538e-06	-1.233127e-09	-3.674902e+01	-8.178330e+01
3.600000e-07	-5.265347e-06	-1.274036e-09	-3.665024e+01	-8.165435e+01
3.700000e-07	-5.250593e-06	-1.256482e-09	-3.654755e+01	-8.152892e+01
3.800000e-07	-5.235251e-06	-1.217508e-09	-3.644076e+01	-8.140720e+01
3.900000e-07	-5.219443e-06	-1.239901e-09	-3.633072e+01	-8.128932e+01
4.000000e-07	-5.203187e-06	-1.255017e-09	-3.621757e+01	-8.117539e+01
4.100000e-07	-5.186532e-06	-1.197440e-09	-3.610164e+01	-8.106544e+01
4.200000e-07	-5.169609e-06	-1.209532e-09	-3.598385e+01	-8.095949e+01
4.300000e-07	-5.152339e-06	-1.276410e-09	-3.586364e+01	-8.085749e+01
4.400000e-07	-5.134787e-06	-1.246984e-09	-3.574146e+01	-8.075937e+01
4.500000e-07	-5.116901e-06	-1.176072e-09	-3.561697e+01	-8.066499e+01
4.600000e-07	-5.098499e-06	-1.233970e-09	-3.548887e+01	-8.057418e+01
4.700000e-07	-5.079674e-06	-1.257933e-09	-3.535784e+01	-8.048672e+01
4.800000e-07	-5.060563e-06	-1.186274e-09	-3.522482e+01	-8.040235e+01
4.900000e-07	-5.041141e-06	-1.195313e-09	-3.508963e+01	-8.032079e+01
5.000000e-07	-5.021528e-06	-1.264699e-09	-3.495311e+01	-8.024170e+01
5.100000e-07	-5.001765e-06	-1.205835e-09	-3.481554e+01	-8.016472e+01
5.200000e-07	-4.981613e-06	-1.176057e-09	-3.467527e+01	-8.008946e+01
5.300000e-07	-4.961090e-06	-1.242757e-09	-3.453242e+01	-8.001551e+01
5.400000e-07	-4.940295e-06	-1.225483e-09	-3.438767e+01	-7.994243e+01
5.500000e-07	-4.919093e-06	-1.151682e-09	-3.424009e+01	-7.986977e+01
5.600000e-07	-4.897518e-06	-1.201394e-09	-3.408992e+01	-7.979708e+01
5.700000e-07	-4.875660e-06	-1.234193e-09	-3.393777e+01	-7.972388e+01
5.800000e-07	-4.853442e-06	-1.175569e-09	-3.378311e+01	-7.964970e+01
5.900000e-07	-4.830891e-06	-1.179575e-09	-3.362615e+01	-7.957407e+01
6.000000e-07	-4.808088e-06	-1.219671e-09	-3.346743e+01	-7.949654e+01
6.100000e-07	-4.785009e-06	-1.178751e-09	-3.330678e+01	-7.941664e+01
6.200000e-07	-4.761608e-06	-1.165985e-09	-3.314389e+01	-7.933395e+01
6.300000e-07	-4.737959e-06	-1.206246e-09	-3.297928e+01	-7.924806e+01
6.400000e-07	-4.714083e-06	-1.193363e-09	-3.281309e+01	-7.915856e+01
6.500000e-07	-4.689850e-06	-1.170734e-09	-3.264441e+01	-7.906510e+01
6.600000e-07	-4.665132e-06	-1.191123e-09	-3.247236e+01	-7.896735e+01
6.700000e-07	-4.639798e-06	-1.181901e-09	-3.229602e+01	-7.886500e+01
6.800000e-07	-4.614025e-06	-1.157240e-09	-3.211662e+01	-7.875780e+01
6.900000e-07	-4.587903e-06	-1.169526e-09	-3.193479e+01	-7.864552e+01
7.000000e-07	-4.561262e-06	-1.167745e-09	-3.174935e+01	-7.852798e+01
7.100000e-07	-4.534139e-06	-1.154151e-09	-3.156056e+01	-7.840505e+01
7.200000e-07	-4.506740e-06	-1.168557e-09	-3.136985e+01	-7.827661e+01
7.300000e-07	-4.479182e-06	-1.179385e-09	-3.117802e+01	-7.814261e+01
7.400000e-07	-4.451448e-06	-1.161627e-09	-3.098498e+01	-7.800304e+01
7.500000e-07	-4.423490e-06	-1.160959e-09	-3.079037e+01	-7.785793e+01
7.600000e-07	-4.395227e-06	-1.158202e-09	-3.059364e+01	-7.770735e+01
7.700000e-07	-4.366649e-06	-1.144464e-09	-3.039472e+01	-7.755140e+01
7.800000e-07	-4.337833e-06	-1.145905e-09	-3.019414e+01	-7.739022e+01
7.900000e-07	-4.308729e-06	-1.157044e-09	-2.999156e+01	-7.722400e+01
8.000000e-07	-4.279294e-06	-1.145585e-09	-2.978667e+01	-7.705294e+01
8.100000e-07	-4.249589e-06	-1.142632e-09	-2.957990e+01	-7.687727e+01
8.200000e-07	-4.219576e-06	-1.150706e-09	-2.937099e+01	-7.669727e+01
8.300000e-07	-4.189119e-06	-1.142995e-09	-2.915900e+01	-7.651320e+01
8.400000e-07	-4.158240e-06	-1.126531e-09	-2.894406e+01	-7.632538e+01
8.500000e-07	-4.127174e-06	-1.131658e-09	-2.872782e+01	-7.613410e+01
8.600000e-07	-4.095975e-06	-1.134092e-09	-2.851065e+01	-7.593969e+01
8.700000e-07	-4.064599e-06	-1.124337e-09	-2.829226e+01	-7.574247e+01
8.800000e-07	-4.033043e-06	-1.122213e-09	-2.807261e+01	-7.554275e+01
8.900000e-07	-4.001311e-06	-1.126736e-09	-2.785173e+01	-7.534086e+01
9.000000e-07	-3.969389e-06	-1.116819e-09	-2.762953e+01	-7.513709e+01
9.100000e-07	-3.937186e-06	-1.109582e-09	-2.740538e+01	-7.493174e+01
9.200000e-07	-3.904618e-06	-1.115318e-09	-2.717869e+01	-7.472508e+01
9.300000e-07	-3.871713e-06	-1.114608e-09	-2.694964e+01	-7.451736e+01
9.400000e-07	-3.838428e-06	-1.105005e-09	-2.671796e+01	-7.430880e+01
9.500000e-07	-3.804648e-06	-1.103519e-09	-2.648283e+01	-7.409961e+01
9.600000e-07	-3.770385e-06	-1.101997e-09	-2.624434e+01	-7.388995e+01
9.700000e-07	-3.735717e-06	-1.089420e-09	-2.600302e+01	-7.367995e+01
9.800000e-07	-3.700763e-06	-1.081086e-09	-2.575972e+01	-7.346971e+01
9.900000e-07	-3.665587e-06	-1.078847e-09	-2.551487e+01	-7.325928e+01
1.000000e-06	-3.630130e-06	-1.074317e-09	-2.526807e+01	-7.304869e+01
1.010000e-06	-3.594440e-06	-1.069865e-09	-2.501964e+01	-7.283791e+01
1.020000e-06	-3.558636e-06	-1.074589e-09	-2.477043e+01	-7.262690e+01
1.030000e-06	-3.522723e-06	-1.074416e-09	-2.452045e+01	-7.241554e+01
1.040000e-06	-3.486661e-06	-1.068576e-09	-2.426943e+01	-7.220372e+01
1.050000e-06	-3.450419e-06	-1.063389e-09	-2.401717e+01	-7.199124e+01
1.060000e-06	-3.413879e-06	-1.057789e-09	-2.376282e+01	-7.177791e+01
1.070000e-06	-3.376982e-06	-1.045838e-09	-2.350599e+01	-7.156349e+01
1.080000e-06	-3.339881e-06	-1.038440e-09	-2.324775e+01	-7.134769e+01
1.090000e-06	-3.302585e-06	-1.037235e-09	-2.298815e+01	-7.113021e+01
1.100000e-06	-3.264964e-06	-1.036159e-09	-2.272628e+01	-7.091073e+01
1.110000e-06	-3.227079e-06	-1.034998e-09	-2.246257e+01	-7.068890e+01
1.120000e-06	-3.189003e-06	-1.034720e-09	-2.219754e+01	-7.046435e+01
1.130000e-06	-3.150751e-06	-1.026909e-09	-2.193128e+01	-7.023668e+01
1.140000e-06	-3.112289e-06	-1.017786e-09	-2.166356e+01	-7.000550e+01
1.150000e-06	-3.073573e-06	-1.010930e-09	-2.139407e+01	-6.977040e+01
1.160000e-06	-3.034610e-06	-1.005137e-09	-2.112286e+01	-6.953098e+01
1.170000e-06	-2.995461e-06	-1.000248e-09	-2.085036e+01	-6.928682e+01
1.180000e-06	-2.956171e-06	-9.980798e-10	-2.057687e+01	-6.903751e+01
1.190000e-06	-2.916749e-06	-9.960496e-10	-2.030247e+01	-6.878265e+01
1.200000e-06	-2.877217e-06	-9.924882e-10	-2.002730e+01	-6.852184e+01
1.210000e-06	-2.837515e-06	-9.870517e-10	-1.975096e+01	-6.825470e+01
1.220000e-06	-2.797600e-06	-9.818334e-10	-1.947312e+01	-6.798086e+01
1.230000e-06	-2.757536e-06	-9.765724e-10	-1.919424e+01	-6.769996e+01
1.240000e-06	-2.717336e-06	-9.700102e-10	-1.891443e+01	-6.741168e+01
1.250000e-06	-2.677014e-06	-9.629000e-10	-1.863376e+01	-6.711570e+01
1.260000e-06	-2.636512e-06	-9.583672e-10	-1.835184e+01	-6.681172e+01
1.270000e-06	-2.595661e-06	-9.535820e-10	-1.806749e+01	-6.649948e+01
1.280000e-06	-2.554517e-06	-9.481843e-10	-1.778110e+01	-6.617872e+01
1.290000e-06	-2.513134e-06	-9.436758e-10	-1.749305e+01	-6.584922e+01
1.300000e-06	-2.471518e-06	-9.361418e-10	-1.720338e+01	-6.551076e+01
1.310000e-06	-2.429602e-06	-9.263915e-10	-1.691161e+01	-6.516315e+01
1.320000e-06	-2.387378e-06	-9.184961e-10	-1.661770e+01	-6.480622e+01
1.330000e-06	-2.344914e-06	-9.154146e-10	-1.632213e+01	-6.443981e+01
1.340000e-06	-2.302175e-06	-9.119745e-10	-1.602464e+01	-6.406376e+01
1.350000e-06	-2.259136e-06	-9.069791e-10	-1.572506e+01	-6.367794e+01
1.360000e-06	-2.215929e-06	-8.992503e-10	-1.542431e+01	-6.328221e+01
1.370000e-06	-2.172615e-06	-8.905541e-10	-1.512282e+01	-6.287644e+01
1.380000e-06	-2.129138e-06	-8.828084e-10	-1.482019e+01	-6.246049e+01
1.390000e-06	-2.085555e-06	-8.776536e-10	-1.451682e+01	-6.203421e+01
1.400000e-06	-2.041869e-06	-8.711182e-10	-1.421274e+01	-6.159745e+01
1.410000e-06	-1.998061e-06	-8.646404e-10	-1.390781e+01	-6.115003e+01
1.420000e-06	-1.954189e-06	-8.581282e-10	-1.360243e+01	-6.069176e+01
1.430000e-06	-1.910286e-06	-8.529929e-10	-1.329684e+01	-6.022243e+01
1.440000e-06	-1.866226e-06	-8.483361e-10	-1.299015e+01	-5.974179e+01
1.450000e-06	-1.822018e-06	-8.409454e-10	-1.268243e+01	-5.924956e+01
1.460000e-06	-1.777787e-06	-8.317885e-10	-1.237455e+01	-5.874542e+01
1.470000e-06	-1.733490e-06	-8.236178e-10	-1.206622e+01	-5.822901e+01
1.480000e-06	-1.689028e-06	-8.140745e-10	-1.175673e+01	-5.769992e+01
1.490000e-06	-1.644443e-06	-8.058951e-10	-1.144640e+01	-5.715772e+01
1.500000e-06	-1.599771e-06	-8.007471e-10	-1.113545e+01	-5.660190e+01
1.510000e-06	-1.554923e-06	-7.942155e-10	-1.082328e+01	-5.603191e+01
1.520000e-06	-1.509908e-06	-7.844090e-10	-1.050994e+01	-5.544715e+01
1.530000e-06	-1.464756e-06	-7.743019e-10	-1.019566e+01	-5.484696e+01
1.540000e-06	-1.419518e-06	-7.663550e-10	-9.880771e+00	-5.423064e+01
1.550000e-06	-1.374236e-06	-7.577218e-10	-9.565577e+00	-5.359743e+01
1.560000e-06	-1.328854e-06	-7.474631e-10	-9.249690e+00	-5.294652e+01
1.570000e-06	-1.283346e-06	-7.353011e-10	-8.932922e+00	-5.227706e+01
1.580000e-06	-1.237759e-06	-7.216502e-10	-8.615610e+00	-5.158814e+01
1.590000e-06	-1.192020e-06	-7.078650e-10	-8.297237e+00	-5.087882e+01
1.600000e-06	-1.146153e-06	-6.958776e-10	-7.977972e+00	-5.014813e+01
1.610000e-06	-1.100323e-06	-6.833024e-10	-7.658961e+00	-4.939505e+01
1.620000e-06	-1.054385e-06	-6.705676e-10	-7.339204e+00	-4.861855e+01
1.630000e-06	-1.008284e-06	-6.586316e-10	-7.018313e+00	-4.781757e+01
1.640000e-06	-9.621356e-07	-6.445950e-10	-6.697091e+00	-4.699105e+01
1.650000e-06	-9.159284e-07	-6.295432e-10	-6.375458e+00	-4.613793e+01
1.660000e-06	-8.696901e-07	-6.134001e-10	-6.053609e+00	-4.525712e+01
1.670000e-06	-8.235121e-07	-5.958350e-10	-5.732180e+00	-4.434759e+01
1.680000e-06	-7.773674e-07	-5.796274e-10	-5.410983e+00	-4.340830e+01
1.690000e-06	-7.311487e-07	-5.660057e-10	-5.089271e+00	-4.243826e+01
1.700000e-06	-6.848191e-07	-5.519303e-10	-4.766787e+00	-4.143650e+01
1.710000e-06	-6.383064e-07	-5.337778e-10	-4.443028e+00	-4.040211e+01
1.720000e-06	-5.917111e-07	-5.181158e-10	-4.118695e+00	-3.933424e+01
1.730000e-06	-5.451066e-07	-5.013104e-10	-3.794297e+00	-3.823213e+01
1.740000e-06	-4.984679e-07	-4.877863e-10	-3.469662e+00	-3.709505e+01
1.750000e-06	-4.517930e-07	-4.768011e-10	-3.144773e+00	-3.592241e+01
1.760000e-06	-4.050479e-07	-4.615180e-10	-2.819397e+00	-3.471368e+01
1.770000e-06	-3.583049e-07	-4.406669e-10	-2.494035e+00	-3.346846e+01
1.780000e-06	-3.115192e-07	-4.179091e-10	-2.168377e+00	-3.218644e+01
1.790000e-06	-2.646527e-07	-3.977315e-10	-1.842155e+00	-3.086744e+01
1.800000e-06	-2.178460e-07	-3.807995e-10	-1.516350e+00	-2.951142e+01
1.810000e-06	-1.711011e-07	-3.651350e-10	-1.190975e+00	-2.811846e+01
1.820000e-06	-1.243616e-07	-3.498819e-10	-8.656380e-01	-2.668876e+01
1.830000e-06	-7.762994e-08	-3.338348e-10	-5.403549e-01	-2.522271e+01
1.840000e-06	-3.094494e-08	-3.112117e-10	-2.153969e-01	-2.372080e+01
1.850000e-06	1.568920e-08	-2.858473e-10	1.092071e-01	-2.218369e+01
1.860000e-06	6.231484e-08	-2.594881e-10	4.337519e-01	-2.061218e+01
1.870000e-06	1.089743e-07	-2.344302e-10	7.585322e-01	-1.900723e+01
1.880000e-06	1.556915e-07	-2.129709e-10	1.083714e+00	-1.736994e+01
1.890000e-06	2.023602e-07	-1.898877e-10	1.408559e+00	-1.570155e+01
1.900000e-06	2.490771e-07	-1.636608e-10	1.733739e+00	-1.400346e+01
1.910000e-06	2.958501e-07	-1.380847e-10	2.059309e+00	-1.227721e+01
1.920000e-06	3.425748e-07	-1.156274e-10	2.384544e+00	-1.052446e+01
1.930000e-06	3.892171e-07	-9.582092e-11	2.709205e+00	-8.747001e+00
1.940000e-06	4.357354e-07	-7.117248e-11	3.033002e+00	-6.946761e+00
1.950000e-06	4.822333e-07	-4.492964e-11	3.356658e+00	-5.125768e+00
1.960000e-06	5.287455e-07	-1.536520e-11	3.680413e+00	-3.286161e+00
1.970000e-06	5.752420e-07	1.514188e-11	4.004059e+00	-1.430172e+00
1.980000e-06	6.217292e-07	4.006538e-11	4.327640e+00	4.398802e-01
1.990000e-06	6.680886e-07	6.393588e-11	4.650331e+00	2.321602e+00
2.000000e-06	7.143350e-07	9.007702e-11	4.972237e+00	4.212540e+00
2.010000e-06	7.605765e-07	1.174000e-10	5.294108e+00	6.110185e+00
2.020000e-06	8.067558e-07	1.480775e-10	5.615546e+00	8.011996e+00
2.030000e-06	8.528506e-07	1.822200e-10	5.936395e+00	9.915401e+00
2.040000e-06	8.989268e-07	2.145531e-10	6.257116e+00	1.181782e+01
2.050000e-06	9.449782e-07	2.416373e-10	6.577664e+00	1.371666e+01
2.060000e-06	9.909461e-07	2.625650e-10	6.897630e+00	1.560937e+01
2.070000e-06	1.036858e-06	2.811801e-10	7.217209e+00	1.749340e+01
2.080000e-06	1.082715e-06	3.014000e-10	7.536401e+00	1.936624e+01
2.090000e-06	1.128457e-06	3.257893e-10	7.854796e+00	2.122545e+01
2.100000e-06	1.174105e-06	3.545873e-10	8.172532e+00	2.306864e+01
2.110000e-06	1.219736e-06	3.838289e-10	8.490156e+00	2.489348e+01
2.120000e-06	1.265264e-06	4.089360e-10	8.807062e+00	2.669776e+01
2.130000e-06	1.310628e-06	4.290353e-10	9.122823e+00	2.847934e+01
2.140000e-06	1.355882e-06	4.457958e-10	9.437821e+00	3.023619e+01
2.150000e-06	1.401080e-06	4.639252e-10	9.752427e+00	3.196640e+01
2.160000e-06	1.446229e-06	4.853520e-10	1.006670e+01	3.366819e+01
2.170000e-06	1.491231e-06	5.096858e-10	1.037994e+01	3.533988e+01
2.180000e-06	1.536141e-06	5.362016e-10	1.069254e+01	3.697995e+01
2.190000e-06	1.581009e-06	5.626488e-10	1.100485e+01	3.858702e+01
2.200000e-06	1.625765e-06	5.877127e-10	1.131639e+01	4.015983e+01
2.210000e-06	1.670390e-06	6.078025e-10	1.162700e+01	4.169729e+01
2.220000e-06	1.714842e-06	6.246921e-10	1.193642e+01	4.319844e+01
2.230000e-06	1.759134e-06	6.438467e-10	1.224472e+01	4.466250e+01
2.240000e-06	1.803318e-06	6.612538e-10	1.255227e+01	4.608880e+01
2.250000e-06	1.847391e-06	6.766667e-10	1.285904e+01	4.747684e+01
2.260000e-06	1.891391e-06	6.946824e-10	1.316531e+01	4.882626e+01
2.270000e-06	1.935293e-06	7.147301e-10	1.347090e+01	5.013685e+01
2.280000e-06	1.979073e-06	7.340219e-10	1.377563e+01	5.140852e+01
2.290000e-06	2.022780e-06	7.536438e-10	1.407986e+01	5.264133e+01
2.300000e-06	2.066450e-06	7.737389e-10	1.438384e+01	5.383546e+01
2.310000e-06	2.110092e-06	7.919482e-10	1.468761e+01	5.499122e+01
2.320000e-06	2.153626e-06	8.066603e-10	1.499064e+01	5.610903e+01
2.330000e-06	2.197019e-06	8.170067e-10	1.529268e+01	5.718940e+01
2.340000e-06	2.240317e-06	8.246465e-10	1.559407e+01	5.823296e+01
2.350000e-06	2.283488e-06	8.335182e-10	1.589457e+01	5.924043e+01
2.360000e-06	2.326389e-06	8.484953e-10	1.619319e+01	6.021261e+01
2.370000e-06	2.368986e-06	8.685310e-10	1.648969e+01	6.115036e+01
2.380000e-06	2.411286e-06	8.890012e-10	1.678412e+01	6.205461e+01
2.390000e-06	2.453295e-06	9.079723e-10	1.707653e+01	6.292635e+01
2.400000e-06	2.495036e-06	9.222049e-10	1.736708e+01	6.376662e+01
2.410000e-06	2.536530e-06	9.293416e-10	1.765590e+01	6.457648e+01
2.420000e-06	2.577713e-06	9.331352e-10	1.794256e+01	6.535703e+01
2.430000e-06	2.618548e-06	9.390003e-10	1.822680e+01	6.610937e+01
2.440000e-06	2.659126e-06	9.481648e-10	1.850925e+01	6.683464e+01
2.450000e-06	2.699509e-06	9.606970e-10	1.879034e+01	6.753396e+01
2.460000e-06	2.739644e-06	9.759232e-10	1.906971e+01	6.820844e+01
2.470000e-06	2.779572e-06	9.907643e-10	1.934763e+01	6.885920e+01
2.480000e-06	2.819437e-06	1.003384e-09	1.962512e+01	6.948731e+01
2.490000e-06	2.859178e-06	1.011476e-09	1.990174e+01	7.009385e+01
2.500000e-06	2.898798e-06	1.016688e-09	2.017752e+01	7.067985e+01
2.510000e-06	2.938349e-06	1.020164e-09	2.045282e+01	7.124629e+01
2.520000e-06	2.977666e-06	1.024774e-09	2.072650e+01	7.179413e+01
2.530000e-06	3.016739e-06	1.034209e-09	2.099847e+01	7.232429e+01
2.540000e-06	3.055683e-06	1.045458e-09	2.126954e+01	7.283763e+01
2.550000e-06	3.094420e-06	1.056457e-09	2.153918e+01	7.333496e+01
2.560000e-06	3.132896e-06	1.066092e-09	2.180700e+01	7.381705e+01
2.570000e-06	3.171109e-06	1.073244e-09	2.207298e+01	7.428462e+01
2.580000e-06	3.209070e-06	1.078398e-09	2.233722e+01	7.473832e+01
2.590000e-06	3.246885e-06	1.083101e-09	2.260043e+01	7.517878e+01
2.600000e-06	3.284544e-06	1.088921e-09	2.286256e+01	7.560654e+01
2.610000e-06	3.321998e-06	1.097274e-09	2.312327e+01	7.602212e+01
2.620000e-06	3.359270e-06	1.106218e-09	2.338271e+01	7.642599e+01
2.630000e-06	3.396265e-06	1.114713e-09	2.364022e+01	7.681855e+01
2.640000e-06	3.432907e-06	1.121160e-09	2.389527e+01	7.720019e+01
2.650000e-06	3.469271e-06	1.124042e-09	2.414839e+01	7.757123e+01
2.660000e-06	3.505385e-06	1.127794e-09	2.439977e+01	7.793197e+01
2.670000e-06	3.541305e-06	1.134260e-09	2.464979e+01	7.828267e+01
2.680000e-06	3.577105e-06	1.144507e-09	2.489898e+01	7.862356e+01
2.690000e-06	3.612793e-06	1.155102e-09	2.514739e+01	7.895483e+01
2.700000e-06	3.648355e-06	1.161919e-09	2.539493e+01	7.927667e+01
2.710000e-06	3.683768e-06	1.163425e-09	2.564142e+01	7.958922e+01
2.720000e-06	3.718941e-06	1.164121e-09	2.588625e+01	7.989263e+01
2.730000e-06	3.753809e-06	1.166648e-09	2.612896e+01	8.018702e+01
2.740000e-06	3.788302e-06	1.169995e-09	2.636905e+01	8.047251e+01
2.750000e-06	3.822361e-06	1.173916e-09	2.660612e+01	8.074920e+01
2.760000e-06	3.855915e-06	1.178763e-09	2.683968e+01	8.101719e+01
2.770000e-06	3.889005e-06	1.182555e-09	2.707001e+01	8.127658e+01
2.780000e-06	3.921769e-06	1.184412e-09	2.729807e+01	8.152747e+01
2.790000e-06	3.954166e-06	1.186471e-09	2.752357e+01	8.176996e+01
2.800000e-06	3.986205e-06	1.186609e-09	2.774658e+01	8.200417e+01
2.810000e-06	4.017984e-06	1.187719e-09	2.796778e+01	8.223020e+01
2.820000e-06	4.049653e-06	1.191937e-09	2.818823e+01	8.244817e+01
2.830000e-06	4.081132e-06	1.196427e-09	2.840734e+01	8.265822e+01
2.840000e-06	4.112325e-06	1.198839e-09	2.862446e+01	8.286047e+01
2.850000e-06	4.143236e-06	1.200447e-09	2.883962e+01	8.305509e+01
2.860000e-06	4.173854e-06	1.203768e-09	2.905274e+01	8.324222e+01
2.870000e-06	4.204234e-06	1.207784e-09	2.926421e+01	8.342203e+01
2.880000e-06	4.234382e-06	1.210882e-09	2.947405e+01	8.359470e+01
2.890000e-06	4.264227e-06	1.214382e-09	2.968180e+01	8.376041e+01
2.900000e-06	4.293771e-06	1.218926e-09	2.988744e+01	8.391935e+01
