# Temperatura_=_-0.22
# Concentracion g/m^3_=_1620.0
# C_Vs_to_Am_M_A/Vsm_=_65563218390.804596
# pendiente_HvsI_1/m_=_3716.3
# ordenada_HvsI_A/m_=_1297.0
# frecuencia_Hz_=_135111.33977867148

Tiempo_(s)	Campo_(V.s)	Magnetizacion_(V.s)	Campo_(kA/m)	Magnetizacion_(A/m)
0.000000e+00	-5.512892e-06	-1.168492e-09	-3.837163e+01	-7.676699e+01
1.000000e-08	-5.513019e-06	-1.169640e-09	-3.837252e+01	-7.677458e+01
2.000000e-08	-5.512889e-06	-1.170910e-09	-3.837161e+01	-7.678303e+01
3.000000e-08	-5.512318e-06	-1.169384e-09	-3.836764e+01	-7.679238e+01
4.000000e-08	-5.511254e-06	-1.164289e-09	-3.836023e+01	-7.680260e+01
5.000000e-08	-5.509666e-06	-1.157606e-09	-3.834918e+01	-7.681366e+01
6.000000e-08	-5.507399e-06	-1.145406e-09	-3.833341e+01	-7.682550e+01
7.000000e-08	-5.504565e-06	-1.152106e-09	-3.831368e+01	-7.683803e+01
8.000000e-08	-5.501283e-06	-1.186634e-09	-3.829083e+01	-7.685115e+01
9.000000e-08	-5.497484e-06	-1.188172e-09	-3.826439e+01	-7.686471e+01
1.000000e-07	-5.493235e-06	-1.114746e-09	-3.823482e+01	-7.687857e+01
1.100000e-07	-5.488767e-06	-1.098287e-09	-3.820371e+01	-7.689254e+01
1.200000e-07	-5.484181e-06	-1.135659e-09	-3.817180e+01	-7.690643e+01
1.300000e-07	-5.479262e-06	-1.207370e-09	-3.813756e+01	-7.692002e+01
1.400000e-07	-5.473860e-06	-1.140353e-09	-3.809996e+01	-7.693308e+01
1.500000e-07	-5.468053e-06	-1.077688e-09	-3.805954e+01	-7.694538e+01
1.600000e-07	-5.461927e-06	-1.118691e-09	-3.801690e+01	-7.695664e+01
1.700000e-07	-5.455425e-06	-1.211200e-09	-3.797165e+01	-7.696661e+01
1.800000e-07	-5.448449e-06	-1.206298e-09	-3.792309e+01	-7.697501e+01
1.900000e-07	-5.441148e-06	-1.102907e-09	-3.787227e+01	-7.698156e+01
2.000000e-07	-5.433568e-06	-1.107784e-09	-3.781952e+01	-7.698598e+01
2.100000e-07	-5.425696e-06	-1.196870e-09	-3.776472e+01	-7.698797e+01
2.200000e-07	-5.417602e-06	-1.239701e-09	-3.770838e+01	-7.698727e+01
2.300000e-07	-5.409161e-06	-1.173727e-09	-3.764963e+01	-7.698359e+01
2.400000e-07	-5.400167e-06	-1.163912e-09	-3.758703e+01	-7.697664e+01
2.500000e-07	-5.390583e-06	-1.198598e-09	-3.752032e+01	-7.696617e+01
2.600000e-07	-5.380343e-06	-1.206994e-09	-3.744905e+01	-7.695191e+01
2.700000e-07	-5.369483e-06	-1.146497e-09	-3.737346e+01	-7.693362e+01
2.800000e-07	-5.358208e-06	-1.150540e-09	-3.729498e+01	-7.691106e+01
2.900000e-07	-5.346551e-06	-1.185860e-09	-3.721385e+01	-7.688400e+01
3.000000e-07	-5.334506e-06	-1.202353e-09	-3.713000e+01	-7.685225e+01
3.100000e-07	-5.322040e-06	-1.162503e-09	-3.704324e+01	-7.681560e+01
3.200000e-07	-5.309133e-06	-1.176835e-09	-3.695340e+01	-7.677389e+01
3.300000e-07	-5.295872e-06	-1.203018e-09	-3.686110e+01	-7.672696e+01
3.400000e-07	-5.282231e-06	-1.186181e-09	-3.676616e+01	-7.667468e+01
3.500000e-07	-5.268101e-06	-1.133898e-09	-3.666780e+01	-7.661694e+01
3.600000e-07	-5.253581e-06	-1.147084e-09	-3.656674e+01	-7.655363e+01
3.700000e-07	-5.238738e-06	-1.168633e-09	-3.646343e+01	-7.648470e+01
3.800000e-07	-5.223337e-06	-1.162896e-09	-3.635623e+01	-7.641007e+01
3.900000e-07	-5.207262e-06	-1.165008e-09	-3.624434e+01	-7.632973e+01
4.000000e-07	-5.190688e-06	-1.178942e-09	-3.612898e+01	-7.624366e+01
4.100000e-07	-5.173837e-06	-1.151242e-09	-3.601169e+01	-7.615187e+01
4.200000e-07	-5.156726e-06	-1.122012e-09	-3.589260e+01	-7.605439e+01
4.300000e-07	-5.139273e-06	-1.154076e-09	-3.577112e+01	-7.595127e+01
4.400000e-07	-5.121478e-06	-1.160868e-09	-3.564726e+01	-7.584257e+01
4.500000e-07	-5.103297e-06	-1.131558e-09	-3.552071e+01	-7.572837e+01
4.600000e-07	-5.084652e-06	-1.128234e-09	-3.539094e+01	-7.560879e+01
4.700000e-07	-5.065582e-06	-1.156551e-09	-3.525821e+01	-7.548392e+01
4.800000e-07	-5.046270e-06	-1.134060e-09	-3.512379e+01	-7.535392e+01
4.900000e-07	-5.026735e-06	-1.123639e-09	-3.498781e+01	-7.521891e+01
5.000000e-07	-5.006988e-06	-1.130712e-09	-3.485037e+01	-7.507905e+01
5.100000e-07	-4.987057e-06	-1.121961e-09	-3.471164e+01	-7.493452e+01
5.200000e-07	-4.966794e-06	-1.099460e-09	-3.457060e+01	-7.478549e+01
5.300000e-07	-4.946160e-06	-1.129356e-09	-3.442698e+01	-7.463213e+01
5.400000e-07	-4.925209e-06	-1.135047e-09	-3.428116e+01	-7.447466e+01
5.500000e-07	-4.903869e-06	-1.107534e-09	-3.413263e+01	-7.431325e+01
5.600000e-07	-4.882104e-06	-1.096302e-09	-3.398113e+01	-7.414812e+01
5.700000e-07	-4.860090e-06	-1.117808e-09	-3.382791e+01	-7.397947e+01
5.800000e-07	-4.837725e-06	-1.107578e-09	-3.367224e+01	-7.380750e+01
5.900000e-07	-4.814870e-06	-1.098078e-09	-3.351316e+01	-7.363242e+01
6.000000e-07	-4.791751e-06	-1.101774e-09	-3.335225e+01	-7.345444e+01
6.100000e-07	-4.768381e-06	-1.102141e-09	-3.318958e+01	-7.327376e+01
6.200000e-07	-4.744736e-06	-1.086494e-09	-3.302501e+01	-7.309057e+01
6.300000e-07	-4.720926e-06	-1.085130e-09	-3.285928e+01	-7.290508e+01
6.400000e-07	-4.696844e-06	-1.087484e-09	-3.269166e+01	-7.271748e+01
6.500000e-07	-4.672382e-06	-1.087849e-09	-3.252139e+01	-7.252793e+01
6.600000e-07	-4.647486e-06	-1.088084e-09	-3.234811e+01	-7.233663e+01
6.700000e-07	-4.622107e-06	-1.085045e-09	-3.217147e+01	-7.214374e+01
6.800000e-07	-4.596210e-06	-1.077196e-09	-3.199121e+01	-7.194942e+01
6.900000e-07	-4.569760e-06	-1.073903e-09	-3.180711e+01	-7.175381e+01
7.000000e-07	-4.542805e-06	-1.072851e-09	-3.161950e+01	-7.155704e+01
7.100000e-07	-4.515475e-06	-1.064803e-09	-3.142927e+01	-7.135925e+01
7.200000e-07	-4.487917e-06	-1.061649e-09	-3.123746e+01	-7.116054e+01
7.300000e-07	-4.460206e-06	-1.060890e-09	-3.104458e+01	-7.096102e+01
7.400000e-07	-4.432311e-06	-1.063636e-09	-3.085042e+01	-7.076076e+01
7.500000e-07	-4.404193e-06	-1.063061e-09	-3.065470e+01	-7.055985e+01
7.600000e-07	-4.375798e-06	-1.059631e-09	-3.045706e+01	-7.035833e+01
7.700000e-07	-4.347042e-06	-1.046469e-09	-3.025692e+01	-7.015624e+01
7.800000e-07	-4.317953e-06	-1.041975e-09	-3.005445e+01	-6.995363e+01
7.900000e-07	-4.288575e-06	-1.038667e-09	-2.984997e+01	-6.975048e+01
8.000000e-07	-4.258915e-06	-1.035751e-09	-2.964352e+01	-6.954681e+01
8.100000e-07	-4.228984e-06	-1.028774e-09	-2.943519e+01	-6.934260e+01
8.200000e-07	-4.198758e-06	-1.034378e-09	-2.922481e+01	-6.913779e+01
8.300000e-07	-4.168184e-06	-1.033450e-09	-2.901200e+01	-6.893236e+01
8.400000e-07	-4.137309e-06	-1.028511e-09	-2.879710e+01	-6.872622e+01
8.500000e-07	-4.106169e-06	-1.021869e-09	-2.858036e+01	-6.851930e+01
8.600000e-07	-4.074773e-06	-1.018068e-09	-2.836183e+01	-6.831150e+01
8.700000e-07	-4.043190e-06	-1.006946e-09	-2.814200e+01	-6.810270e+01
8.800000e-07	-4.011498e-06	-1.002124e-09	-2.792141e+01	-6.789278e+01
8.900000e-07	-3.979696e-06	-1.000911e-09	-2.770006e+01	-6.768160e+01
9.000000e-07	-3.947611e-06	-9.981860e-10	-2.747674e+01	-6.746900e+01
9.100000e-07	-3.915227e-06	-9.914737e-10	-2.725133e+01	-6.725482e+01
9.200000e-07	-3.882551e-06	-9.894410e-10	-2.702390e+01	-6.703887e+01
9.300000e-07	-3.849434e-06	-9.850943e-10	-2.679339e+01	-6.682096e+01
9.400000e-07	-3.815837e-06	-9.784493e-10	-2.655954e+01	-6.660088e+01
9.500000e-07	-3.781717e-06	-9.742965e-10	-2.632206e+01	-6.637843e+01
9.600000e-07	-3.747165e-06	-9.721569e-10	-2.608156e+01	-6.615338e+01
9.700000e-07	-3.712312e-06	-9.674019e-10	-2.583898e+01	-6.592549e+01
9.800000e-07	-3.677124e-06	-9.631928e-10	-2.559405e+01	-6.569454e+01
9.900000e-07	-3.641648e-06	-9.623252e-10	-2.534713e+01	-6.546026e+01
1.000000e-06	-3.606010e-06	-9.567356e-10	-2.509908e+01	-6.522242e+01
1.010000e-06	-3.570285e-06	-9.507360e-10	-2.485042e+01	-6.498077e+01
1.020000e-06	-3.534405e-06	-9.470762e-10	-2.460068e+01	-6.473503e+01
1.030000e-06	-3.498311e-06	-9.448338e-10	-2.434945e+01	-6.448496e+01
1.040000e-06	-3.462056e-06	-9.388923e-10	-2.409711e+01	-6.423030e+01
1.050000e-06	-3.425603e-06	-9.338440e-10	-2.384339e+01	-6.397078e+01
1.060000e-06	-3.388846e-06	-9.264011e-10	-2.358754e+01	-6.370617e+01
1.070000e-06	-3.351712e-06	-9.207772e-10	-2.332907e+01	-6.343620e+01
1.080000e-06	-3.314309e-06	-9.157443e-10	-2.306874e+01	-6.316063e+01
1.090000e-06	-3.276736e-06	-9.129923e-10	-2.280722e+01	-6.287922e+01
1.100000e-06	-3.238929e-06	-9.058890e-10	-2.254407e+01	-6.259175e+01
1.110000e-06	-3.200904e-06	-8.982017e-10	-2.227940e+01	-6.229798e+01
1.120000e-06	-3.162600e-06	-8.901132e-10	-2.201279e+01	-6.199771e+01
1.130000e-06	-3.123999e-06	-8.856569e-10	-2.174411e+01	-6.169073e+01
1.140000e-06	-3.085286e-06	-8.797781e-10	-2.147466e+01	-6.137686e+01
1.150000e-06	-3.046515e-06	-8.751925e-10	-2.120480e+01	-6.105592e+01
1.160000e-06	-3.007557e-06	-8.693117e-10	-2.093364e+01	-6.072774e+01
1.170000e-06	-2.968312e-06	-8.640934e-10	-2.066048e+01	-6.039217e+01
1.180000e-06	-2.928823e-06	-8.577439e-10	-2.038562e+01	-6.004908e+01
1.190000e-06	-2.889218e-06	-8.519697e-10	-2.010996e+01	-5.969835e+01
1.200000e-06	-2.849540e-06	-8.468668e-10	-1.983379e+01	-5.933986e+01
1.210000e-06	-2.809718e-06	-8.426611e-10	-1.955661e+01	-5.897353e+01
1.220000e-06	-2.769775e-06	-8.373655e-10	-1.927859e+01	-5.859929e+01
1.230000e-06	-2.729751e-06	-8.335937e-10	-1.900001e+01	-5.821706e+01
1.240000e-06	-2.689567e-06	-8.285624e-10	-1.872032e+01	-5.782680e+01
1.250000e-06	-2.649163e-06	-8.212344e-10	-1.843909e+01	-5.742847e+01
1.260000e-06	-2.608475e-06	-8.161289e-10	-1.815589e+01	-5.702205e+01
1.270000e-06	-2.567463e-06	-8.117816e-10	-1.787043e+01	-5.660752e+01
1.280000e-06	-2.526154e-06	-8.052381e-10	-1.758291e+01	-5.618488e+01
1.290000e-06	-2.484534e-06	-7.965740e-10	-1.729322e+01	-5.575413e+01
1.300000e-06	-2.442589e-06	-7.894541e-10	-1.700127e+01	-5.531529e+01
1.310000e-06	-2.400381e-06	-7.823956e-10	-1.670748e+01	-5.486837e+01
1.320000e-06	-2.357931e-06	-7.756552e-10	-1.641202e+01	-5.441339e+01
1.330000e-06	-2.315225e-06	-7.693238e-10	-1.611477e+01	-5.395037e+01
1.340000e-06	-2.272210e-06	-7.642330e-10	-1.581537e+01	-5.347934e+01
1.350000e-06	-2.228925e-06	-7.556544e-10	-1.551409e+01	-5.300031e+01
1.360000e-06	-2.185466e-06	-7.451833e-10	-1.521160e+01	-5.251329e+01
1.370000e-06	-2.141858e-06	-7.352657e-10	-1.490807e+01	-5.201829e+01
1.380000e-06	-2.098173e-06	-7.271832e-10	-1.460401e+01	-5.151531e+01
1.390000e-06	-2.054425e-06	-7.181473e-10	-1.429951e+01	-5.100433e+01
1.400000e-06	-2.010634e-06	-7.108724e-10	-1.399471e+01	-5.048533e+01
1.410000e-06	-1.966798e-06	-7.030426e-10	-1.368960e+01	-4.995826e+01
1.420000e-06	-1.922888e-06	-6.952797e-10	-1.338397e+01	-4.942305e+01
1.430000e-06	-1.878901e-06	-6.883933e-10	-1.307780e+01	-4.887964e+01
1.440000e-06	-1.834742e-06	-6.817413e-10	-1.277044e+01	-4.832791e+01
1.450000e-06	-1.790463e-06	-6.697011e-10	-1.246224e+01	-4.776775e+01
1.460000e-06	-1.746158e-06	-6.561484e-10	-1.215387e+01	-4.719900e+01
1.470000e-06	-1.701790e-06	-6.451903e-10	-1.184505e+01	-4.662149e+01
1.480000e-06	-1.657309e-06	-6.352391e-10	-1.153544e+01	-4.603502e+01
1.490000e-06	-1.612585e-06	-6.240011e-10	-1.122415e+01	-4.543936e+01
1.500000e-06	-1.567659e-06	-6.147738e-10	-1.091145e+01	-4.483425e+01
1.510000e-06	-1.522611e-06	-6.070333e-10	-1.059790e+01	-4.421941e+01
1.520000e-06	-1.477431e-06	-5.977174e-10	-1.028343e+01	-4.359454e+01
1.530000e-06	-1.432166e-06	-5.839789e-10	-9.968373e+00	-4.295929e+01
1.540000e-06	-1.386882e-06	-5.703609e-10	-9.653182e+00	-4.231330e+01
1.550000e-06	-1.341546e-06	-5.609953e-10	-9.337623e+00	-4.165619e+01
1.560000e-06	-1.296082e-06	-5.502212e-10	-9.021182e+00	-4.098754e+01
1.570000e-06	-1.250532e-06	-5.393413e-10	-8.704132e+00	-4.030691e+01
1.580000e-06	-1.204937e-06	-5.277113e-10	-8.386780e+00	-3.961385e+01
1.590000e-06	-1.159318e-06	-5.153915e-10	-8.069257e+00	-3.890790e+01
1.600000e-06	-1.113602e-06	-5.043031e-10	-7.751057e+00	-3.818857e+01
1.610000e-06	-1.067733e-06	-4.950416e-10	-7.431794e+00	-3.745536e+01
1.620000e-06	-1.021714e-06	-4.847620e-10	-7.111483e+00	-3.670777e+01
1.630000e-06	-9.756238e-07	-4.725823e-10	-6.790679e+00	-3.594529e+01
1.640000e-06	-9.294501e-07	-4.574920e-10	-6.469294e+00	-3.516741e+01
1.650000e-06	-8.831943e-07	-4.410866e-10	-6.147338e+00	-3.437364e+01
1.660000e-06	-8.369594e-07	-4.242455e-10	-5.825527e+00	-3.356346e+01
1.670000e-06	-7.906625e-07	-4.120793e-10	-5.503285e+00	-3.273641e+01
1.680000e-06	-7.442880e-07	-4.020900e-10	-5.180502e+00	-3.189201e+01
1.690000e-06	-6.979114e-07	-3.918805e-10	-4.857705e+00	-3.102982e+01
1.700000e-06	-6.515398e-07	-3.802385e-10	-4.534942e+00	-3.014943e+01
1.710000e-06	-6.050965e-07	-3.651059e-10	-4.211681e+00	-2.925044e+01
1.720000e-06	-5.585257e-07	-3.483273e-10	-3.887532e+00	-2.833251e+01
1.730000e-06	-5.118883e-07	-3.310229e-10	-3.562919e+00	-2.739532e+01
1.740000e-06	-4.651849e-07	-3.147374e-10	-3.237848e+00	-2.643861e+01
1.750000e-06	-4.184644e-07	-3.011421e-10	-2.912657e+00	-2.546217e+01
1.760000e-06	-3.717263e-07	-2.888536e-10	-2.587343e+00	-2.446583e+01
1.770000e-06	-3.249375e-07	-2.778193e-10	-2.261677e+00	-2.344950e+01
1.780000e-06	-2.781463e-07	-2.658432e-10	-1.935994e+00	-2.241312e+01
1.790000e-06	-2.312961e-07	-2.491854e-10	-1.609901e+00	-2.135672e+01
1.800000e-06	-1.844019e-07	-2.291472e-10	-1.283501e+00	-2.028038e+01
1.810000e-06	-1.375506e-07	-2.089251e-10	-9.574000e-01	-1.918427e+01
1.820000e-06	-9.065264e-08	-1.906786e-10	-6.309737e-01	-1.806862e+01
1.830000e-06	-4.381280e-08	-1.733881e-10	-3.049523e-01	-1.693372e+01
1.840000e-06	2.883938e-09	-1.574646e-10	2.007321e-02	-1.577996e+01
1.850000e-06	4.965259e-08	-1.448602e-10	3.455992e-01	-1.460780e+01
1.860000e-06	9.645078e-08	-1.307006e-10	6.713308e-01	-1.341776e+01
1.870000e-06	1.432878e-07	-1.151585e-10	9.973330e-01	-1.221046e+01
1.880000e-06	1.901546e-07	-9.800462e-11	1.323542e+00	-1.098657e+01
1.890000e-06	2.368902e-07	-8.022372e-11	1.648838e+00	-9.746847e+00
1.900000e-06	2.835843e-07	-6.287658e-11	1.973845e+00	-8.492124e+00
1.910000e-06	3.302881e-07	-4.503407e-11	2.298920e+00	-7.223295e+00
1.920000e-06	3.769740e-07	-2.860565e-11	2.623870e+00	-5.941325e+00
1.930000e-06	4.236354e-07	-1.223021e-11	2.948649e+00	-4.647239e+00
1.940000e-06	4.702907e-07	2.027475e-12	3.273386e+00	-3.342126e+00
1.950000e-06	5.168583e-07	1.481255e-11	3.597513e+00	-2.027126e+00
1.960000e-06	5.632962e-07	2.793956e-11	3.920737e+00	-7.034318e-01
1.970000e-06	6.096892e-07	4.519072e-11	4.243648e+00	6.277189e-01
1.980000e-06	6.560433e-07	6.546345e-11	4.566288e+00	1.965049e+00
1.990000e-06	7.023985e-07	8.784770e-11	4.888937e+00	3.307246e+00
2.000000e-06	7.487260e-07	1.098865e-10	5.211392e+00	4.652970e+00
2.010000e-06	7.949971e-07	1.293091e-10	5.533455e+00	6.000860e+00
2.020000e-06	8.412015e-07	1.443852e-10	5.855054e+00	7.349538e+00
2.030000e-06	8.874185e-07	1.593393e-10	6.176740e+00	8.697619e+00
2.040000e-06	9.336515e-07	1.746190e-10	6.498537e+00	1.004371e+01
2.050000e-06	9.797703e-07	1.914522e-10	6.819540e+00	1.138644e+01
2.060000e-06	1.025783e-06	2.090248e-10	7.139804e+00	1.272442e+01
2.070000e-06	1.071693e-06	2.292943e-10	7.459353e+00	1.405631e+01
2.080000e-06	1.117506e-06	2.491038e-10	7.778228e+00	1.538077e+01
2.090000e-06	1.163246e-06	2.675007e-10	8.096592e+00	1.669651e+01
2.100000e-06	1.208945e-06	2.858891e-10	8.414673e+00	1.800226e+01
2.110000e-06	1.254554e-06	3.033417e-10	8.732129e+00	1.929680e+01
2.120000e-06	1.300033e-06	3.202633e-10	9.048680e+00	2.057896e+01
2.130000e-06	1.345433e-06	3.373625e-10	9.364678e+00	2.184762e+01
2.140000e-06	1.390775e-06	3.541329e-10	9.680278e+00	2.310173e+01
2.150000e-06	1.435927e-06	3.694727e-10	9.994549e+00	2.434028e+01
2.160000e-06	1.480930e-06	3.860628e-10	1.030778e+01	2.556233e+01
2.170000e-06	1.525905e-06	4.031977e-10	1.062083e+01	2.676704e+01
2.180000e-06	1.570761e-06	4.196309e-10	1.093304e+01	2.795361e+01
2.190000e-06	1.615454e-06	4.355671e-10	1.124412e+01	2.912132e+01
2.200000e-06	1.660033e-06	4.525045e-10	1.155440e+01	3.026954e+01
2.210000e-06	1.704546e-06	4.693544e-10	1.186423e+01	3.139771e+01
2.220000e-06	1.748925e-06	4.853829e-10	1.217312e+01	3.250534e+01
2.230000e-06	1.793173e-06	4.979480e-10	1.248110e+01	3.359204e+01
2.240000e-06	1.837312e-06	5.098942e-10	1.278833e+01	3.465747e+01
2.250000e-06	1.881314e-06	5.215976e-10	1.309459e+01	3.570140e+01
2.260000e-06	1.925230e-06	5.328440e-10	1.340026e+01	3.672364e+01
2.270000e-06	1.969130e-06	5.434521e-10	1.370582e+01	3.772410e+01
2.280000e-06	2.012996e-06	5.570844e-10	1.401115e+01	3.870275e+01
2.290000e-06	2.056771e-06	5.729762e-10	1.431584e+01	3.965964e+01
2.300000e-06	2.100432e-06	5.894074e-10	1.461974e+01	4.059487e+01
2.310000e-06	2.144030e-06	6.035989e-10	1.492319e+01	4.150861e+01
2.320000e-06	2.187577e-06	6.131479e-10	1.522629e+01	4.240109e+01
2.330000e-06	2.230992e-06	6.182168e-10	1.552848e+01	4.327257e+01
2.340000e-06	2.274156e-06	6.233022e-10	1.582891e+01	4.412339e+01
2.350000e-06	2.317118e-06	6.325885e-10	1.612794e+01	4.495391e+01
2.360000e-06	2.359825e-06	6.457206e-10	1.642520e+01	4.576455e+01
2.370000e-06	2.402203e-06	6.607007e-10	1.672017e+01	4.655573e+01
2.380000e-06	2.444288e-06	6.761711e-10	1.701309e+01	4.732793e+01
2.390000e-06	2.486085e-06	6.903528e-10	1.730401e+01	4.808164e+01
2.400000e-06	2.527599e-06	7.006178e-10	1.759296e+01	4.881736e+01
2.410000e-06	2.568696e-06	7.077115e-10	1.787901e+01	4.953561e+01
2.420000e-06	2.609515e-06	7.149039e-10	1.816313e+01	5.023692e+01
2.430000e-06	2.650157e-06	7.222413e-10	1.844601e+01	5.092182e+01
2.440000e-06	2.690532e-06	7.320359e-10	1.872703e+01	5.159083e+01
2.450000e-06	2.730658e-06	7.467465e-10	1.900633e+01	5.224447e+01
2.460000e-06	2.770627e-06	7.606680e-10	1.928452e+01	5.288325e+01
2.470000e-06	2.810562e-06	7.724483e-10	1.956248e+01	5.350767e+01
2.480000e-06	2.850454e-06	7.807205e-10	1.984014e+01	5.411819e+01
2.490000e-06	2.890230e-06	7.857971e-10	2.011700e+01	5.471528e+01
2.500000e-06	2.929806e-06	7.906035e-10	2.039246e+01	5.529937e+01
2.510000e-06	2.969176e-06	7.976218e-10	2.066649e+01	5.587086e+01
2.520000e-06	3.008388e-06	8.069822e-10	2.093942e+01	5.643012e+01
2.530000e-06	3.047364e-06	8.169701e-10	2.121071e+01	5.697751e+01
2.540000e-06	3.086074e-06	8.263538e-10	2.148015e+01	5.751334e+01
2.550000e-06	3.124553e-06	8.342137e-10	2.174797e+01	5.803790e+01
2.560000e-06	3.162838e-06	8.415683e-10	2.201445e+01	5.855145e+01
2.570000e-06	3.200938e-06	8.479856e-10	2.227964e+01	5.905420e+01
2.580000e-06	3.238846e-06	8.516369e-10	2.254349e+01	5.954636e+01
2.590000e-06	3.276527e-06	8.550451e-10	2.280576e+01	6.002809e+01
2.600000e-06	3.313957e-06	8.601203e-10	2.306629e+01	6.049953e+01
2.610000e-06	3.351218e-06	8.685418e-10	2.332564e+01	6.096078e+01
2.620000e-06	3.388197e-06	8.789945e-10	2.358302e+01	6.141195e+01
2.630000e-06	3.424893e-06	8.876074e-10	2.383844e+01	6.185308e+01
2.640000e-06	3.461352e-06	8.917801e-10	2.409221e+01	6.228424e+01
2.650000e-06	3.497557e-06	8.918753e-10	2.434421e+01	6.270545e+01
2.660000e-06	3.533599e-06	8.932480e-10	2.459507e+01	6.311673e+01
2.670000e-06	3.569483e-06	8.965440e-10	2.484484e+01	6.351808e+01
2.680000e-06	3.605238e-06	9.007321e-10	2.509371e+01	6.390951e+01
2.690000e-06	3.640894e-06	9.078987e-10	2.534188e+01	6.429101e+01
2.700000e-06	3.676352e-06	9.185554e-10	2.558868e+01	6.466258e+01
2.710000e-06	3.711554e-06	9.291145e-10	2.583370e+01	6.502420e+01
2.720000e-06	3.746507e-06	9.380044e-10	2.607698e+01	6.537588e+01
2.730000e-06	3.781065e-06	9.444467e-10	2.631752e+01	6.571762e+01
2.740000e-06	3.815157e-06	9.458119e-10	2.655481e+01	6.604945e+01
2.750000e-06	3.848835e-06	9.441822e-10	2.678922e+01	6.637140e+01
2.760000e-06	3.882091e-06	9.432479e-10	2.702069e+01	6.668351e+01
2.770000e-06	3.914931e-06	9.469208e-10	2.724928e+01	6.698585e+01
2.780000e-06	3.947392e-06	9.555396e-10	2.747522e+01	6.727849e+01
2.790000e-06	3.979597e-06	9.659266e-10	2.769937e+01	6.756155e+01
2.800000e-06	4.011616e-06	9.754362e-10	2.792224e+01	6.783514e+01
2.810000e-06	4.043383e-06	9.799651e-10	2.814335e+01	6.809943e+01
2.820000e-06	4.074969e-06	9.807308e-10	2.836319e+01	6.835457e+01
2.830000e-06	4.106374e-06	9.794050e-10	2.858178e+01	6.860078e+01
2.840000e-06	4.137430e-06	9.770868e-10	2.879794e+01	6.883826e+01
2.850000e-06	4.168159e-06	9.790786e-10	2.901183e+01	6.906726e+01
2.860000e-06	4.198644e-06	9.849370e-10	2.922401e+01	6.928804e+01
2.870000e-06	4.228850e-06	9.912560e-10	2.943426e+01	6.950091e+01
2.880000e-06	4.258740e-06	9.983707e-10	2.964230e+01	6.970616e+01
2.890000e-06	4.288332e-06	1.004210e-09	2.984827e+01	6.990412e+01
2.900000e-06	4.317679e-06	1.008538e-09	3.005254e+01	7.009513e+01
