# Temperatura_=_14.85
# Concentracion g/m^3_=_1620.0
# C_Vs_to_Am_M_A/Vsm_=_65563218390.804596
# pendiente_HvsI_1/m_=_3716.3
# ordenada_HvsI_A/m_=_1297.0
# frecuencia_Hz_=_135099.88986802558

Tiempo_(s)	Campo_(V.s)	Magnetizacion_(V.s)	Campo_(kA/m)	Magnetizacion_(A/m)
0.000000e+00	-5.548904e-06	-7.987028e-10	-3.837382e+01	-5.392894e+01
1.000000e-08	-5.549139e-06	-8.017501e-10	-3.837544e+01	-5.395641e+01
2.000000e-08	-5.549141e-06	-8.052900e-10	-3.837546e+01	-5.398236e+01
3.000000e-08	-5.548845e-06	-8.084883e-10	-3.837341e+01	-5.400658e+01
4.000000e-08	-5.548064e-06	-8.057255e-10	-3.836801e+01	-5.402884e+01
5.000000e-08	-5.546679e-06	-7.977326e-10	-3.835843e+01	-5.404892e+01
6.000000e-08	-5.544781e-06	-7.854273e-10	-3.834531e+01	-5.406661e+01
7.000000e-08	-5.542339e-06	-7.665660e-10	-3.832842e+01	-5.408171e+01
8.000000e-08	-5.539314e-06	-7.873595e-10	-3.830750e+01	-5.409401e+01
9.000000e-08	-5.535809e-06	-8.496118e-10	-3.828326e+01	-5.410333e+01
1.000000e-07	-5.531748e-06	-8.300464e-10	-3.825517e+01	-5.410951e+01
1.100000e-07	-5.527263e-06	-7.231281e-10	-3.822416e+01	-5.411239e+01
1.200000e-07	-5.522703e-06	-7.442424e-10	-3.819262e+01	-5.411182e+01
1.300000e-07	-5.517955e-06	-8.151372e-10	-3.815979e+01	-5.410768e+01
1.400000e-07	-5.512759e-06	-8.252829e-10	-3.812386e+01	-5.409988e+01
1.500000e-07	-5.507165e-06	-7.067968e-10	-3.808517e+01	-5.408834e+01
1.600000e-07	-5.501240e-06	-7.059012e-10	-3.804420e+01	-5.407298e+01
1.700000e-07	-5.494920e-06	-8.163502e-10	-3.800049e+01	-5.405378e+01
1.800000e-07	-5.488106e-06	-8.277240e-10	-3.795336e+01	-5.403071e+01
1.900000e-07	-5.480917e-06	-7.539499e-10	-3.790365e+01	-5.400379e+01
2.000000e-07	-5.473501e-06	-7.485923e-10	-3.785236e+01	-5.397304e+01
2.100000e-07	-5.465802e-06	-8.379106e-10	-3.779912e+01	-5.393851e+01
2.200000e-07	-5.457923e-06	-8.443989e-10	-3.774464e+01	-5.390028e+01
2.300000e-07	-5.449850e-06	-7.846424e-10	-3.768880e+01	-5.385843e+01
2.400000e-07	-5.441300e-06	-7.564962e-10	-3.762968e+01	-5.381307e+01
2.500000e-07	-5.432029e-06	-8.165838e-10	-3.756556e+01	-5.376435e+01
2.600000e-07	-5.421930e-06	-8.241932e-10	-3.749572e+01	-5.371239e+01
2.700000e-07	-5.411288e-06	-8.001956e-10	-3.742213e+01	-5.365736e+01
2.800000e-07	-5.400274e-06	-7.822327e-10	-3.734596e+01	-5.359944e+01
2.900000e-07	-5.388755e-06	-8.138313e-10	-3.726629e+01	-5.353880e+01
3.000000e-07	-5.376794e-06	-8.081910e-10	-3.718358e+01	-5.347565e+01
3.100000e-07	-5.364441e-06	-7.837616e-10	-3.709815e+01	-5.341018e+01
3.200000e-07	-5.351631e-06	-7.667735e-10	-3.700956e+01	-5.334258e+01
3.300000e-07	-5.338433e-06	-8.004744e-10	-3.691829e+01	-5.327308e+01
3.400000e-07	-5.324969e-06	-8.077296e-10	-3.682518e+01	-5.320187e+01
3.500000e-07	-5.311075e-06	-7.743915e-10	-3.672910e+01	-5.312916e+01
3.600000e-07	-5.296634e-06	-7.696649e-10	-3.662923e+01	-5.305513e+01
3.700000e-07	-5.281917e-06	-8.160595e-10	-3.652746e+01	-5.297999e+01
3.800000e-07	-5.266716e-06	-7.882117e-10	-3.642233e+01	-5.290390e+01
3.900000e-07	-5.250623e-06	-7.434328e-10	-3.631104e+01	-5.282704e+01
4.000000e-07	-5.234153e-06	-8.065943e-10	-3.619714e+01	-5.274956e+01
4.100000e-07	-5.217579e-06	-8.359714e-10	-3.608252e+01	-5.267160e+01
4.200000e-07	-5.200560e-06	-7.482409e-10	-3.596482e+01	-5.259327e+01
4.300000e-07	-5.183134e-06	-7.534290e-10	-3.584431e+01	-5.251468e+01
4.400000e-07	-5.165532e-06	-8.554448e-10	-3.572259e+01	-5.243591e+01
4.500000e-07	-5.147597e-06	-7.906763e-10	-3.559855e+01	-5.235703e+01
4.600000e-07	-5.129132e-06	-7.178527e-10	-3.547086e+01	-5.227807e+01
4.700000e-07	-5.110323e-06	-8.124020e-10	-3.534078e+01	-5.219906e+01
4.800000e-07	-5.091184e-06	-8.361022e-10	-3.520843e+01	-5.211998e+01
4.900000e-07	-5.071650e-06	-7.224930e-10	-3.507334e+01	-5.204083e+01
5.000000e-07	-5.051928e-06	-7.660281e-10	-3.493695e+01	-5.196155e+01
5.100000e-07	-5.032040e-06	-8.329626e-10	-3.479941e+01	-5.188208e+01
5.200000e-07	-5.011832e-06	-7.409705e-10	-3.465966e+01	-5.180233e+01
5.300000e-07	-4.991235e-06	-7.257256e-10	-3.451722e+01	-5.172220e+01
5.400000e-07	-4.970278e-06	-8.316309e-10	-3.437229e+01	-5.164157e+01
5.500000e-07	-4.948989e-06	-7.748958e-10	-3.422507e+01	-5.156031e+01
5.600000e-07	-4.927316e-06	-7.114277e-10	-3.407518e+01	-5.147826e+01
5.700000e-07	-4.905306e-06	-7.985453e-10	-3.392298e+01	-5.139526e+01
5.800000e-07	-4.883009e-06	-8.037154e-10	-3.376878e+01	-5.131115e+01
5.900000e-07	-4.860305e-06	-7.079643e-10	-3.361177e+01	-5.122574e+01
6.000000e-07	-4.837279e-06	-7.503140e-10	-3.345253e+01	-5.113885e+01
6.100000e-07	-4.813954e-06	-7.939869e-10	-3.329122e+01	-5.105031e+01
6.200000e-07	-4.790255e-06	-7.254103e-10	-3.312733e+01	-5.095991e+01
6.300000e-07	-4.766450e-06	-7.241881e-10	-3.296271e+01	-5.086747e+01
6.400000e-07	-4.742495e-06	-7.776977e-10	-3.279705e+01	-5.077282e+01
6.500000e-07	-4.718118e-06	-7.408104e-10	-3.262846e+01	-5.067578e+01
6.600000e-07	-4.693268e-06	-7.215026e-10	-3.245661e+01	-5.057618e+01
6.700000e-07	-4.668016e-06	-7.650650e-10	-3.228198e+01	-5.047388e+01
6.800000e-07	-4.642253e-06	-7.500093e-10	-3.210381e+01	-5.036872e+01
6.900000e-07	-4.615748e-06	-7.173753e-10	-3.192052e+01	-5.026059e+01
7.000000e-07	-4.588717e-06	-7.414968e-10	-3.173358e+01	-5.014936e+01
7.100000e-07	-4.561342e-06	-7.458868e-10	-3.154427e+01	-5.003496e+01
7.200000e-07	-4.533752e-06	-7.203145e-10	-3.135347e+01	-4.991730e+01
7.300000e-07	-4.506111e-06	-7.320297e-10	-3.116231e+01	-4.979632e+01
7.400000e-07	-4.478305e-06	-7.390086e-10	-3.097002e+01	-4.967199e+01
7.500000e-07	-4.450192e-06	-7.241482e-10	-3.077561e+01	-4.954430e+01
7.600000e-07	-4.421745e-06	-7.260203e-10	-3.057887e+01	-4.941325e+01
7.700000e-07	-4.393003e-06	-7.353454e-10	-3.038011e+01	-4.927887e+01
7.800000e-07	-4.363966e-06	-7.199136e-10	-3.017930e+01	-4.914120e+01
7.900000e-07	-4.334653e-06	-7.164055e-10	-2.997658e+01	-4.900031e+01
8.000000e-07	-4.305060e-06	-7.205672e-10	-2.977193e+01	-4.885628e+01
8.100000e-07	-4.275153e-06	-7.106123e-10	-2.956511e+01	-4.870921e+01
8.200000e-07	-4.244976e-06	-7.025202e-10	-2.935642e+01	-4.855921e+01
8.300000e-07	-4.214460e-06	-7.156168e-10	-2.914538e+01	-4.840642e+01
8.400000e-07	-4.183545e-06	-7.116535e-10	-2.893159e+01	-4.825097e+01
8.500000e-07	-4.152383e-06	-7.013310e-10	-2.871608e+01	-4.809302e+01
8.600000e-07	-4.121080e-06	-7.068185e-10	-2.849961e+01	-4.793272e+01
8.700000e-07	-4.089539e-06	-7.081497e-10	-2.828148e+01	-4.777024e+01
8.800000e-07	-4.057751e-06	-6.917071e-10	-2.806165e+01	-4.760574e+01
8.900000e-07	-4.025776e-06	-6.923461e-10	-2.784052e+01	-4.743939e+01
9.000000e-07	-3.993567e-06	-6.979625e-10	-2.761778e+01	-4.727135e+01
9.100000e-07	-3.961040e-06	-6.895841e-10	-2.739284e+01	-4.710179e+01
9.200000e-07	-3.928172e-06	-6.883638e-10	-2.716554e+01	-4.693086e+01
9.300000e-07	-3.894904e-06	-6.990422e-10	-2.693547e+01	-4.675869e+01
9.400000e-07	-3.861176e-06	-6.933073e-10	-2.670222e+01	-4.658543e+01
9.500000e-07	-3.826979e-06	-6.830544e-10	-2.646573e+01	-4.641118e+01
9.600000e-07	-3.792241e-06	-6.884113e-10	-2.622550e+01	-4.623604e+01
9.700000e-07	-3.757092e-06	-6.887154e-10	-2.598242e+01	-4.606011e+01
9.800000e-07	-3.721729e-06	-6.783518e-10	-2.573787e+01	-4.588343e+01
9.900000e-07	-3.686202e-06	-6.775302e-10	-2.549218e+01	-4.570606e+01
1.000000e-06	-3.650530e-06	-6.805561e-10	-2.524549e+01	-4.552800e+01
1.010000e-06	-3.614752e-06	-6.711208e-10	-2.499806e+01	-4.534926e+01
1.020000e-06	-3.578874e-06	-6.664136e-10	-2.474994e+01	-4.516980e+01
1.030000e-06	-3.542827e-06	-6.711006e-10	-2.450066e+01	-4.498957e+01
1.040000e-06	-3.506554e-06	-6.692323e-10	-2.424981e+01	-4.480848e+01
1.050000e-06	-3.469957e-06	-6.627131e-10	-2.399672e+01	-4.462643e+01
1.060000e-06	-3.433035e-06	-6.634490e-10	-2.374138e+01	-4.444330e+01
1.070000e-06	-3.395854e-06	-6.591404e-10	-2.348426e+01	-4.425893e+01
1.080000e-06	-3.358436e-06	-6.523461e-10	-2.322549e+01	-4.407314e+01
1.090000e-06	-3.320788e-06	-6.496225e-10	-2.296513e+01	-4.388573e+01
1.100000e-06	-3.282899e-06	-6.484013e-10	-2.270311e+01	-4.369649e+01
1.110000e-06	-3.244803e-06	-6.423386e-10	-2.243966e+01	-4.350518e+01
1.120000e-06	-3.206508e-06	-6.394034e-10	-2.217482e+01	-4.331154e+01
1.130000e-06	-3.167961e-06	-6.392386e-10	-2.190824e+01	-4.311532e+01
1.140000e-06	-3.129077e-06	-6.367708e-10	-2.163934e+01	-4.291621e+01
1.150000e-06	-3.089948e-06	-6.293951e-10	-2.136874e+01	-4.271395e+01
1.160000e-06	-3.050709e-06	-6.241648e-10	-2.109738e+01	-4.250822e+01
1.170000e-06	-3.011282e-06	-6.196920e-10	-2.082472e+01	-4.229872e+01
1.180000e-06	-2.971702e-06	-6.164613e-10	-2.055101e+01	-4.208515e+01
1.190000e-06	-2.932052e-06	-6.157535e-10	-2.027680e+01	-4.186720e+01
1.200000e-06	-2.892315e-06	-6.160623e-10	-2.000200e+01	-4.164457e+01
1.210000e-06	-2.852465e-06	-6.122957e-10	-1.972641e+01	-4.141694e+01
1.220000e-06	-2.812477e-06	-6.079574e-10	-1.944988e+01	-4.118404e+01
1.230000e-06	-2.772290e-06	-6.040563e-10	-1.917196e+01	-4.094556e+01
1.240000e-06	-2.731804e-06	-5.992077e-10	-1.889197e+01	-4.070125e+01
1.250000e-06	-2.691030e-06	-5.950591e-10	-1.861000e+01	-4.045084e+01
1.260000e-06	-2.650010e-06	-5.916277e-10	-1.832632e+01	-4.019408e+01
1.270000e-06	-2.608806e-06	-5.907893e-10	-1.804138e+01	-3.993074e+01
1.280000e-06	-2.567276e-06	-5.886072e-10	-1.775417e+01	-3.966060e+01
1.290000e-06	-2.525427e-06	-5.820207e-10	-1.746476e+01	-3.938347e+01
1.300000e-06	-2.483440e-06	-5.751540e-10	-1.717440e+01	-3.909917e+01
1.310000e-06	-2.441097e-06	-5.693392e-10	-1.688157e+01	-3.880753e+01
1.320000e-06	-2.398281e-06	-5.631268e-10	-1.658547e+01	-3.850841e+01
1.330000e-06	-2.355166e-06	-5.582587e-10	-1.628731e+01	-3.820169e+01
1.340000e-06	-2.311851e-06	-5.561323e-10	-1.598776e+01	-3.788725e+01
1.350000e-06	-2.268351e-06	-5.546132e-10	-1.568693e+01	-3.756500e+01
1.360000e-06	-2.224727e-06	-5.496798e-10	-1.538525e+01	-3.723487e+01
1.370000e-06	-2.181052e-06	-5.434791e-10	-1.508321e+01	-3.689678e+01
1.380000e-06	-2.137338e-06	-5.363083e-10	-1.478091e+01	-3.655069e+01
1.390000e-06	-2.093550e-06	-5.281598e-10	-1.447808e+01	-3.619654e+01
1.400000e-06	-2.049687e-06	-5.203006e-10	-1.417475e+01	-3.583431e+01
1.410000e-06	-2.005754e-06	-5.148330e-10	-1.387093e+01	-3.546396e+01
1.420000e-06	-1.961746e-06	-5.084177e-10	-1.356659e+01	-3.508546e+01
1.430000e-06	-1.917658e-06	-5.032534e-10	-1.326170e+01	-3.469879e+01
1.440000e-06	-1.873507e-06	-5.001658e-10	-1.295637e+01	-3.430391e+01
1.450000e-06	-1.829203e-06	-4.946026e-10	-1.264998e+01	-3.390078e+01
1.460000e-06	-1.784664e-06	-4.855127e-10	-1.234197e+01	-3.348936e+01
1.470000e-06	-1.739944e-06	-4.775327e-10	-1.203270e+01	-3.306960e+01
1.480000e-06	-1.695066e-06	-4.690990e-10	-1.172234e+01	-3.264144e+01
1.490000e-06	-1.650078e-06	-4.610787e-10	-1.141122e+01	-3.220478e+01
1.500000e-06	-1.604959e-06	-4.566935e-10	-1.109920e+01	-3.175954e+01
1.510000e-06	-1.559711e-06	-4.542222e-10	-1.078629e+01	-3.130559e+01
1.520000e-06	-1.514286e-06	-4.480112e-10	-1.047214e+01	-3.084280e+01
1.530000e-06	-1.468742e-06	-4.366724e-10	-1.015719e+01	-3.037101e+01
1.540000e-06	-1.423197e-06	-4.241803e-10	-9.842216e+00	-2.989003e+01
1.550000e-06	-1.377622e-06	-4.141947e-10	-9.527036e+00	-2.939967e+01
1.560000e-06	-1.331960e-06	-4.051874e-10	-9.211261e+00	-2.889969e+01
1.570000e-06	-1.286171e-06	-3.993443e-10	-8.894599e+00	-2.838985e+01
1.580000e-06	-1.240294e-06	-3.948232e-10	-8.577334e+00	-2.786986e+01
1.590000e-06	-1.194389e-06	-3.883381e-10	-8.259876e+00	-2.733942e+01
1.600000e-06	-1.148445e-06	-3.797020e-10	-7.942147e+00	-2.679823e+01
1.610000e-06	-1.102313e-06	-3.705990e-10	-7.623122e+00	-2.624593e+01
1.620000e-06	-1.056005e-06	-3.602585e-10	-7.302871e+00	-2.568217e+01
1.630000e-06	-1.009640e-06	-3.494981e-10	-6.982234e+00	-2.510659e+01
1.640000e-06	-9.632929e-07	-3.405542e-10	-6.661717e+00	-2.451879e+01
1.650000e-06	-9.168803e-07	-3.304401e-10	-6.340748e+00	-2.391839e+01
1.660000e-06	-8.703331e-07	-3.210918e-10	-6.018847e+00	-2.330499e+01
1.670000e-06	-8.237320e-07	-3.109889e-10	-5.696574e+00	-2.267819e+01
1.680000e-06	-7.771450e-07	-3.021783e-10	-5.374399e+00	-2.203759e+01
1.690000e-06	-7.305323e-07	-2.933128e-10	-5.052045e+00	-2.138281e+01
1.700000e-06	-6.838689e-07	-2.856397e-10	-4.729341e+00	-2.071348e+01
1.710000e-06	-6.371838e-07	-2.748579e-10	-4.406487e+00	-2.002922e+01
1.720000e-06	-5.904731e-07	-2.604796e-10	-4.083456e+00	-1.932972e+01
1.730000e-06	-5.436566e-07	-2.469950e-10	-3.759694e+00	-1.861465e+01
1.740000e-06	-4.966972e-07	-2.357370e-10	-3.434943e+00	-1.788374e+01
1.750000e-06	-4.497172e-07	-2.273664e-10	-3.110050e+00	-1.713675e+01
1.760000e-06	-4.027037e-07	-2.196935e-10	-2.784924e+00	-1.637348e+01
1.770000e-06	-3.556730e-07	-2.100835e-10	-2.459680e+00	-1.559378e+01
1.780000e-06	-3.086849e-07	-2.007396e-10	-2.134731e+00	-1.479754e+01
1.790000e-06	-2.616691e-07	-1.900942e-10	-1.809590e+00	-1.398473e+01
1.800000e-06	-2.146239e-07	-1.751361e-10	-1.484246e+00	-1.315535e+01
1.810000e-06	-1.675575e-07	-1.594688e-10	-1.158755e+00	-1.230949e+01
1.820000e-06	-1.205080e-07	-1.461764e-10	-8.333813e-01	-1.144729e+01
1.830000e-06	-7.346130e-08	-1.350380e-10	-5.080266e-01	-1.056896e+01
1.840000e-06	-2.635677e-08	-1.250146e-10	-1.822720e-01	-9.674783e+00
1.850000e-06	2.065566e-08	-1.156129e-10	1.428456e-01	-8.765128e+00
1.860000e-06	6.765794e-08	-1.080348e-10	4.678931e-01	-7.840425e+00
1.870000e-06	1.148206e-07	-9.803940e-11	7.940499e-01	-6.901186e+00
1.880000e-06	1.620248e-07	-8.352451e-11	1.120493e+00	-5.947996e+00
1.890000e-06	2.090968e-07	-6.624718e-11	1.446023e+00	-4.981519e+00
1.900000e-06	2.561153e-07	-4.830489e-11	1.771182e+00	-4.002490e+00
1.910000e-06	3.031845e-07	-3.337806e-11	2.096693e+00	-3.011721e+00
1.920000e-06	3.501769e-07	-2.006095e-11	2.421672e+00	-2.010090e+00
1.930000e-06	3.971694e-07	-9.283316e-12	2.746652e+00	-9.985471e-01
1.940000e-06	4.441612e-07	2.417624e-12	3.071627e+00	2.189568e-02
1.950000e-06	4.910527e-07	1.521031e-11	3.395908e+00	1.050165e+00
1.960000e-06	5.379329e-07	3.059293e-11	3.720111e+00	2.085133e+00
1.970000e-06	5.847930e-07	4.704706e-11	4.044175e+00	3.125620e+00
1.980000e-06	6.315785e-07	6.229390e-11	4.367724e+00	4.170400e+00
1.990000e-06	6.782925e-07	7.793562e-11	4.690777e+00	5.218212e+00
2.000000e-06	7.249337e-07	9.350065e-11	5.013328e+00	6.267758e+00
2.010000e-06	7.715056e-07	1.078664e-10	5.335399e+00	7.317717e+00
2.020000e-06	8.180087e-07	1.225907e-10	5.656994e+00	8.366748e+00
2.030000e-06	8.644926e-07	1.370993e-10	5.978457e+00	9.413497e+00
2.040000e-06	9.109872e-07	1.521263e-10	6.299993e+00	1.045661e+01
2.050000e-06	9.573907e-07	1.677494e-10	6.620900e+00	1.149473e+01
2.060000e-06	1.003710e-06	1.830712e-10	6.941224e+00	1.252651e+01
2.070000e-06	1.049966e-06	1.959391e-10	7.261108e+00	1.355063e+01
2.080000e-06	1.096087e-06	2.093484e-10	7.580063e+00	1.456580e+01
2.090000e-06	1.142063e-06	2.233389e-10	7.898012e+00	1.557074e+01
2.100000e-06	1.187917e-06	2.373960e-10	8.215122e+00	1.656423e+01
2.110000e-06	1.233672e-06	2.530642e-10	8.531544e+00	1.754509e+01
2.120000e-06	1.279401e-06	2.679201e-10	8.847781e+00	1.851219e+01
2.130000e-06	1.325105e-06	2.815232e-10	9.163854e+00	1.946448e+01
2.140000e-06	1.370748e-06	2.932024e-10	9.479502e+00	2.040094e+01
2.150000e-06	1.416269e-06	3.023870e-10	9.794301e+00	2.132065e+01
2.160000e-06	1.461693e-06	3.101853e-10	1.010844e+01	2.222275e+01
2.170000e-06	1.507066e-06	3.212780e-10	1.042222e+01	2.310646e+01
2.180000e-06	1.552394e-06	3.356825e-10	1.073568e+01	2.397110e+01
2.190000e-06	1.597550e-06	3.508892e-10	1.104796e+01	2.481605e+01
2.200000e-06	1.642461e-06	3.655569e-10	1.135855e+01	2.564079e+01
2.210000e-06	1.687289e-06	3.782997e-10	1.166856e+01	2.644489e+01
2.220000e-06	1.731996e-06	3.879361e-10	1.197773e+01	2.722801e+01
2.230000e-06	1.776513e-06	3.951083e-10	1.228559e+01	2.798990e+01
2.240000e-06	1.820936e-06	4.004179e-10	1.259281e+01	2.873039e+01
2.250000e-06	1.865216e-06	4.087459e-10	1.289902e+01	2.944941e+01
2.260000e-06	1.909350e-06	4.194894e-10	1.320424e+01	3.014698e+01
2.270000e-06	1.953430e-06	4.312064e-10	1.350908e+01	3.082318e+01
2.280000e-06	1.997427e-06	4.427635e-10	1.381334e+01	3.147821e+01
2.290000e-06	2.041353e-06	4.527516e-10	1.411712e+01	3.211232e+01
2.300000e-06	2.085179e-06	4.591982e-10	1.442019e+01	3.272584e+01
2.310000e-06	2.128949e-06	4.644821e-10	1.472289e+01	3.331917e+01
2.320000e-06	2.172687e-06	4.721206e-10	1.502536e+01	3.389277e+01
2.330000e-06	2.216354e-06	4.798135e-10	1.532735e+01	3.444718e+01
2.340000e-06	2.259910e-06	4.872790e-10	1.562856e+01	3.498295e+01
2.350000e-06	2.303334e-06	4.960262e-10	1.592886e+01	3.550072e+01
2.360000e-06	2.346646e-06	5.039953e-10	1.622839e+01	3.600115e+01
2.370000e-06	2.389778e-06	5.096061e-10	1.652667e+01	3.648495e+01
2.380000e-06	2.432744e-06	5.147236e-10	1.682380e+01	3.695283e+01
2.390000e-06	2.475494e-06	5.217627e-10	1.711945e+01	3.740554e+01
2.400000e-06	2.517906e-06	5.297454e-10	1.741275e+01	3.784385e+01
2.410000e-06	2.560010e-06	5.388172e-10	1.770392e+01	3.826853e+01
2.420000e-06	2.601654e-06	5.500653e-10	1.799191e+01	3.868035e+01
2.430000e-06	2.642808e-06	5.591384e-10	1.827651e+01	3.908008e+01
2.440000e-06	2.683681e-06	5.656573e-10	1.855918e+01	3.946848e+01
2.450000e-06	2.724229e-06	5.716005e-10	1.883959e+01	3.984630e+01
2.460000e-06	2.764631e-06	5.765623e-10	1.911899e+01	4.021425e+01
2.470000e-06	2.804925e-06	5.800343e-10	1.939765e+01	4.057304e+01
2.480000e-06	2.844960e-06	5.834764e-10	1.967451e+01	4.092333e+01
2.490000e-06	2.884835e-06	5.870285e-10	1.995027e+01	4.126575e+01
2.500000e-06	2.924677e-06	5.940653e-10	2.022580e+01	4.160091e+01
2.510000e-06	2.964428e-06	6.032647e-10	2.050070e+01	4.192936e+01
2.520000e-06	3.003976e-06	6.094461e-10	2.077420e+01	4.225160e+01
2.530000e-06	3.043297e-06	6.140606e-10	2.104612e+01	4.256810e+01
2.540000e-06	3.082351e-06	6.183987e-10	2.131621e+01	4.287929e+01
2.550000e-06	3.121220e-06	6.208451e-10	2.158501e+01	4.318553e+01
2.560000e-06	3.159911e-06	6.226637e-10	2.185258e+01	4.348714e+01
2.570000e-06	3.198304e-06	6.267083e-10	2.211809e+01	4.378440e+01
2.580000e-06	3.236519e-06	6.326791e-10	2.238237e+01	4.407754e+01
2.590000e-06	3.274571e-06	6.387323e-10	2.264552e+01	4.436672e+01
2.600000e-06	3.312323e-06	6.445523e-10	2.290659e+01	4.465209e+01
2.610000e-06	3.349906e-06	6.493743e-10	2.316650e+01	4.493373e+01
2.620000e-06	3.387310e-06	6.546910e-10	2.342517e+01	4.521169e+01
2.630000e-06	3.424461e-06	6.603710e-10	2.368209e+01	4.548598e+01
2.640000e-06	3.461382e-06	6.647763e-10	2.393742e+01	4.575656e+01
2.650000e-06	3.498060e-06	6.674824e-10	2.419107e+01	4.602338e+01
2.660000e-06	3.534455e-06	6.695318e-10	2.444276e+01	4.628635e+01
2.670000e-06	3.570622e-06	6.720947e-10	2.469288e+01	4.654534e+01
2.680000e-06	3.606618e-06	6.748199e-10	2.494181e+01	4.680022e+01
2.690000e-06	3.642430e-06	6.790061e-10	2.518947e+01	4.705083e+01
2.700000e-06	3.678121e-06	6.847070e-10	2.543629e+01	4.729699e+01
2.710000e-06	3.713721e-06	6.911864e-10	2.568249e+01	4.753852e+01
2.720000e-06	3.749226e-06	6.965354e-10	2.592802e+01	4.777522e+01
2.730000e-06	3.784390e-06	7.024812e-10	2.617120e+01	4.800690e+01
2.740000e-06	3.819050e-06	7.075035e-10	2.641090e+01	4.823337e+01
2.750000e-06	3.853294e-06	7.107966e-10	2.664771e+01	4.845443e+01
2.760000e-06	3.887186e-06	7.140712e-10	2.688210e+01	4.866990e+01
2.770000e-06	3.920605e-06	7.163283e-10	2.711321e+01	4.887959e+01
2.780000e-06	3.953548e-06	7.195478e-10	2.734103e+01	4.908335e+01
2.790000e-06	3.986142e-06	7.245459e-10	2.756644e+01	4.928103e+01
2.800000e-06	4.018366e-06	7.304115e-10	2.778928e+01	4.947249e+01
2.810000e-06	4.050339e-06	7.367516e-10	2.801040e+01	4.965763e+01
2.820000e-06	4.082147e-06	7.420493e-10	2.823036e+01	4.983636e+01
2.830000e-06	4.113770e-06	7.452869e-10	2.844905e+01	5.000860e+01
2.840000e-06	4.145211e-06	7.456941e-10	2.866648e+01	5.017432e+01
2.850000e-06	4.176438e-06	7.439328e-10	2.888244e+01	5.033349e+01
2.860000e-06	4.207308e-06	7.436049e-10	2.909592e+01	5.048610e+01
2.870000e-06	4.237829e-06	7.440045e-10	2.930699e+01	5.063220e+01
2.880000e-06	4.268084e-06	7.451189e-10	2.951622e+01	5.077184e+01
2.890000e-06	4.298009e-06	7.495257e-10	2.972317e+01	5.090507e+01
2.900000e-06	4.327691e-06	7.536058e-10	2.992844e+01	5.103201e+01
