# Temperatura_=_-0.3
# Concentracion g/m^3_=_1620.0
# C_Vs_to_Am_M_A/Vsm_=_65563218390.804596
# pendiente_HvsI_1/m_=_3716.3
# ordenada_HvsI_A/m_=_1297.0
# frecuencia_Hz_=_135109.53787050958

Tiempo_(s)	Campo_(V.s)	Magnetizacion_(V.s)	Campo_(kA/m)	Magnetizacion_(A/m)
0.000000e+00	-5.524030e-06	-1.222636e-09	-3.836767e+01	-8.036963e+01
1.000000e-08	-5.524297e-06	-1.218936e-09	-3.836952e+01	-8.039013e+01
2.000000e-08	-5.524325e-06	-1.216393e-09	-3.836972e+01	-8.040804e+01
3.000000e-08	-5.524117e-06	-1.215766e-09	-3.836827e+01	-8.042324e+01
4.000000e-08	-5.523521e-06	-1.214053e-09	-3.836414e+01	-8.043558e+01
5.000000e-08	-5.522309e-06	-1.210276e-09	-3.835571e+01	-8.044494e+01
6.000000e-08	-5.520437e-06	-1.203537e-09	-3.834272e+01	-8.045118e+01
7.000000e-08	-5.517889e-06	-1.185811e-09	-3.832501e+01	-8.045416e+01
8.000000e-08	-5.514795e-06	-1.174523e-09	-3.830353e+01	-8.045375e+01
9.000000e-08	-5.511334e-06	-1.213551e-09	-3.827948e+01	-8.044981e+01
1.000000e-07	-5.507438e-06	-1.274897e-09	-3.825243e+01	-8.044223e+01
1.100000e-07	-5.503093e-06	-1.255062e-09	-3.822225e+01	-8.043089e+01
1.200000e-07	-5.498461e-06	-1.188618e-09	-3.819008e+01	-8.041566e+01
1.300000e-07	-5.493696e-06	-1.134885e-09	-3.815698e+01	-8.039647e+01
1.400000e-07	-5.488655e-06	-1.206245e-09	-3.812197e+01	-8.037320e+01
1.500000e-07	-5.483239e-06	-1.203169e-09	-3.808435e+01	-8.034578e+01
1.600000e-07	-5.477487e-06	-1.149610e-09	-3.804440e+01	-8.031415e+01
1.700000e-07	-5.471430e-06	-1.144961e-09	-3.800233e+01	-8.027825e+01
1.800000e-07	-5.464897e-06	-1.212989e-09	-3.795696e+01	-8.023803e+01
1.900000e-07	-5.457818e-06	-1.271686e-09	-3.790778e+01	-8.019348e+01
2.000000e-07	-5.450414e-06	-1.193099e-09	-3.785636e+01	-8.014458e+01
2.100000e-07	-5.442781e-06	-1.180298e-09	-3.780335e+01	-8.009133e+01
2.200000e-07	-5.434837e-06	-1.210113e-09	-3.774817e+01	-8.003376e+01
2.300000e-07	-5.426623e-06	-1.274116e-09	-3.769112e+01	-7.997189e+01
2.400000e-07	-5.418157e-06	-1.234780e-09	-3.763232e+01	-7.990578e+01
2.500000e-07	-5.409223e-06	-1.226724e-09	-3.757027e+01	-7.983548e+01
2.600000e-07	-5.399607e-06	-1.228148e-09	-3.750348e+01	-7.976108e+01
2.700000e-07	-5.389239e-06	-1.250767e-09	-3.743146e+01	-7.968266e+01
2.800000e-07	-5.378252e-06	-1.218758e-09	-3.735515e+01	-7.960031e+01
2.900000e-07	-5.366863e-06	-1.221773e-09	-3.727605e+01	-7.951416e+01
3.000000e-07	-5.355148e-06	-1.234992e-09	-3.719469e+01	-7.942433e+01
3.100000e-07	-5.343069e-06	-1.233416e-09	-3.711079e+01	-7.933093e+01
3.200000e-07	-5.330517e-06	-1.200590e-09	-3.702361e+01	-7.923411e+01
3.300000e-07	-5.317442e-06	-1.189195e-09	-3.693279e+01	-7.913400e+01
3.400000e-07	-5.304026e-06	-1.208774e-09	-3.683961e+01	-7.903074e+01
3.500000e-07	-5.290261e-06	-1.200746e-09	-3.674400e+01	-7.892449e+01
3.600000e-07	-5.276016e-06	-1.182020e-09	-3.664507e+01	-7.881539e+01
3.700000e-07	-5.261371e-06	-1.183463e-09	-3.654334e+01	-7.870357e+01
3.800000e-07	-5.246306e-06	-1.209647e-09	-3.643871e+01	-7.858918e+01
3.900000e-07	-5.230652e-06	-1.192972e-09	-3.632998e+01	-7.847235e+01
4.000000e-07	-5.214386e-06	-1.184373e-09	-3.621701e+01	-7.835321e+01
4.100000e-07	-5.197747e-06	-1.198490e-09	-3.610144e+01	-7.823187e+01
4.200000e-07	-5.180878e-06	-1.209969e-09	-3.598427e+01	-7.810845e+01
4.300000e-07	-5.163694e-06	-1.169820e-09	-3.586492e+01	-7.798305e+01
4.400000e-07	-5.146157e-06	-1.178980e-09	-3.574312e+01	-7.785575e+01
4.500000e-07	-5.128284e-06	-1.195711e-09	-3.561898e+01	-7.772662e+01
4.600000e-07	-5.109965e-06	-1.189441e-09	-3.549174e+01	-7.759573e+01
4.700000e-07	-5.091150e-06	-1.153277e-09	-3.536106e+01	-7.746312e+01
4.800000e-07	-5.072015e-06	-1.179108e-09	-3.522816e+01	-7.732882e+01
4.900000e-07	-5.052672e-06	-1.182778e-09	-3.509381e+01	-7.719285e+01
5.000000e-07	-5.033137e-06	-1.171169e-09	-3.495812e+01	-7.705520e+01
5.100000e-07	-5.013373e-06	-1.159213e-09	-3.482086e+01	-7.691586e+01
5.200000e-07	-4.993309e-06	-1.172159e-09	-3.468150e+01	-7.677481e+01
5.300000e-07	-4.972921e-06	-1.148156e-09	-3.453989e+01	-7.663199e+01
5.400000e-07	-4.952064e-06	-1.150469e-09	-3.439503e+01	-7.648735e+01
5.500000e-07	-4.930764e-06	-1.163720e-09	-3.424708e+01	-7.634082e+01
5.600000e-07	-4.909161e-06	-1.158948e-09	-3.409703e+01	-7.619232e+01
5.700000e-07	-4.887308e-06	-1.132013e-09	-3.394525e+01	-7.604176e+01
5.800000e-07	-4.865231e-06	-1.143093e-09	-3.379192e+01	-7.588903e+01
5.900000e-07	-4.842667e-06	-1.148759e-09	-3.363520e+01	-7.573402e+01
6.000000e-07	-4.819677e-06	-1.136882e-09	-3.347552e+01	-7.557663e+01
6.100000e-07	-4.796425e-06	-1.134501e-09	-3.331402e+01	-7.541672e+01
6.200000e-07	-4.772875e-06	-1.140017e-09	-3.315045e+01	-7.525419e+01
6.300000e-07	-4.749164e-06	-1.123632e-09	-3.298576e+01	-7.508891e+01
6.400000e-07	-4.725311e-06	-1.109788e-09	-3.282009e+01	-7.492075e+01
6.500000e-07	-4.701137e-06	-1.115235e-09	-3.265219e+01	-7.474960e+01
6.600000e-07	-4.676498e-06	-1.110003e-09	-3.248106e+01	-7.457535e+01
6.700000e-07	-4.651402e-06	-1.105174e-09	-3.230675e+01	-7.439788e+01
6.800000e-07	-4.625798e-06	-1.105994e-09	-3.212891e+01	-7.421710e+01
6.900000e-07	-4.599563e-06	-1.108568e-09	-3.194670e+01	-7.403292e+01
7.000000e-07	-4.572780e-06	-1.097990e-09	-3.176067e+01	-7.384525e+01
7.100000e-07	-4.545627e-06	-1.099862e-09	-3.157208e+01	-7.365404e+01
7.200000e-07	-4.518200e-06	-1.093124e-09	-3.138158e+01	-7.345921e+01
7.300000e-07	-4.490587e-06	-1.087218e-09	-3.118979e+01	-7.326074e+01
7.400000e-07	-4.462879e-06	-1.078887e-09	-3.099734e+01	-7.305860e+01
7.500000e-07	-4.434997e-06	-1.082885e-09	-3.080369e+01	-7.285276e+01
7.600000e-07	-4.406780e-06	-1.075231e-09	-3.060770e+01	-7.264325e+01
7.700000e-07	-4.378155e-06	-1.075957e-09	-3.040889e+01	-7.243007e+01
7.800000e-07	-4.349209e-06	-1.072487e-09	-3.020784e+01	-7.221325e+01
7.900000e-07	-4.319977e-06	-1.072875e-09	-3.000481e+01	-7.199285e+01
8.000000e-07	-4.290491e-06	-1.066847e-09	-2.980001e+01	-7.176893e+01
8.100000e-07	-4.260755e-06	-1.066206e-09	-2.959347e+01	-7.154157e+01
8.200000e-07	-4.230719e-06	-1.057374e-09	-2.938486e+01	-7.131084e+01
8.300000e-07	-4.200424e-06	-1.054379e-09	-2.917444e+01	-7.107685e+01
8.400000e-07	-4.169778e-06	-1.050058e-09	-2.896159e+01	-7.083970e+01
8.500000e-07	-4.138773e-06	-1.049246e-09	-2.874624e+01	-7.059951e+01
8.600000e-07	-4.107474e-06	-1.043080e-09	-2.852885e+01	-7.035640e+01
8.700000e-07	-4.076007e-06	-1.041456e-09	-2.831029e+01	-7.011050e+01
8.800000e-07	-4.044435e-06	-1.039912e-09	-2.809100e+01	-6.986192e+01
8.900000e-07	-4.012705e-06	-1.038061e-09	-2.787062e+01	-6.961079e+01
9.000000e-07	-3.980829e-06	-1.033632e-09	-2.764922e+01	-6.935724e+01
9.100000e-07	-3.948710e-06	-1.030165e-09	-2.742613e+01	-6.910138e+01
9.200000e-07	-3.916198e-06	-1.025748e-09	-2.720032e+01	-6.884334e+01
9.300000e-07	-3.883260e-06	-1.021373e-09	-2.697154e+01	-6.858320e+01
9.400000e-07	-3.849876e-06	-1.020469e-09	-2.673967e+01	-6.832106e+01
9.500000e-07	-3.815939e-06	-1.016951e-09	-2.650396e+01	-6.805699e+01
9.600000e-07	-3.781489e-06	-1.012448e-09	-2.626469e+01	-6.779107e+01
9.700000e-07	-3.746633e-06	-1.006853e-09	-2.602259e+01	-6.752333e+01
9.800000e-07	-3.711432e-06	-1.004910e-09	-2.577810e+01	-6.725380e+01
9.900000e-07	-3.676033e-06	-9.994943e-10	-2.553223e+01	-6.698249e+01
1.000000e-06	-3.640499e-06	-9.974438e-10	-2.528542e+01	-6.670938e+01
1.010000e-06	-3.604849e-06	-9.920531e-10	-2.503782e+01	-6.643444e+01
1.020000e-06	-3.569075e-06	-9.884389e-10	-2.478934e+01	-6.615759e+01
1.030000e-06	-3.533120e-06	-9.832735e-10	-2.453961e+01	-6.587877e+01
1.040000e-06	-3.496994e-06	-9.816826e-10	-2.428870e+01	-6.559785e+01
1.050000e-06	-3.460592e-06	-9.753511e-10	-2.403586e+01	-6.531470e+01
1.060000e-06	-3.423875e-06	-9.684439e-10	-2.378084e+01	-6.502916e+01
1.070000e-06	-3.386922e-06	-9.589084e-10	-2.352418e+01	-6.474105e+01
1.080000e-06	-3.349697e-06	-9.559370e-10	-2.326564e+01	-6.445016e+01
1.090000e-06	-3.312175e-06	-9.548437e-10	-2.300503e+01	-6.415627e+01
1.100000e-06	-3.274423e-06	-9.560535e-10	-2.274281e+01	-6.385911e+01
1.110000e-06	-3.236496e-06	-9.514701e-10	-2.247939e+01	-6.355843e+01
1.120000e-06	-3.198351e-06	-9.451668e-10	-2.221444e+01	-6.325394e+01
1.130000e-06	-3.159982e-06	-9.351078e-10	-2.194795e+01	-6.294533e+01
1.140000e-06	-3.121385e-06	-9.279231e-10	-2.167987e+01	-6.263228e+01
1.150000e-06	-3.082549e-06	-9.196379e-10	-2.141013e+01	-6.231447e+01
1.160000e-06	-3.043547e-06	-9.114938e-10	-2.113924e+01	-6.199156e+01
1.170000e-06	-3.004403e-06	-9.048515e-10	-2.086736e+01	-6.166320e+01
1.180000e-06	-2.965058e-06	-9.020779e-10	-2.059409e+01	-6.132904e+01
1.190000e-06	-2.925562e-06	-8.999855e-10	-2.031976e+01	-6.098873e+01
1.200000e-06	-2.885935e-06	-8.987380e-10	-2.004454e+01	-6.064191e+01
1.210000e-06	-2.846181e-06	-8.962368e-10	-1.976841e+01	-6.028825e+01
1.220000e-06	-2.806355e-06	-8.898311e-10	-1.949180e+01	-5.992739e+01
1.230000e-06	-2.766373e-06	-8.807829e-10	-1.921410e+01	-5.955900e+01
1.240000e-06	-2.726187e-06	-8.714475e-10	-1.893498e+01	-5.918276e+01
1.250000e-06	-2.685799e-06	-8.643157e-10	-1.865447e+01	-5.879836e+01
1.260000e-06	-2.645113e-06	-8.564567e-10	-1.837188e+01	-5.840549e+01
1.270000e-06	-2.604097e-06	-8.524267e-10	-1.808700e+01	-5.800389e+01
1.280000e-06	-2.562720e-06	-8.484992e-10	-1.779961e+01	-5.759327e+01
1.290000e-06	-2.520963e-06	-8.438107e-10	-1.750958e+01	-5.717341e+01
1.300000e-06	-2.478962e-06	-8.369763e-10	-1.721786e+01	-5.674408e+01
1.310000e-06	-2.436695e-06	-8.301477e-10	-1.692430e+01	-5.630506e+01
1.320000e-06	-2.394121e-06	-8.206956e-10	-1.662859e+01	-5.585619e+01
1.330000e-06	-2.351356e-06	-8.129004e-10	-1.633157e+01	-5.539730e+01
1.340000e-06	-2.308389e-06	-8.068681e-10	-1.603313e+01	-5.492825e+01
1.350000e-06	-2.265221e-06	-8.008728e-10	-1.573330e+01	-5.444892e+01
1.360000e-06	-2.221883e-06	-7.918807e-10	-1.543230e+01	-5.395921e+01
1.370000e-06	-2.178413e-06	-7.833100e-10	-1.513037e+01	-5.345905e+01
1.380000e-06	-2.134859e-06	-7.739634e-10	-1.482786e+01	-5.294836e+01
1.390000e-06	-2.091213e-06	-7.650735e-10	-1.452471e+01	-5.242711e+01
1.400000e-06	-2.047464e-06	-7.561848e-10	-1.422085e+01	-5.189526e+01
1.410000e-06	-2.003645e-06	-7.501249e-10	-1.391650e+01	-5.135279e+01
1.420000e-06	-1.959837e-06	-7.422101e-10	-1.361223e+01	-5.079969e+01
1.430000e-06	-1.915981e-06	-7.338362e-10	-1.330763e+01	-5.023595e+01
1.440000e-06	-1.871941e-06	-7.256313e-10	-1.300174e+01	-4.966158e+01
1.450000e-06	-1.827739e-06	-7.173296e-10	-1.269474e+01	-4.907657e+01
1.460000e-06	-1.783455e-06	-7.048111e-10	-1.238715e+01	-4.848093e+01
1.470000e-06	-1.739004e-06	-6.911399e-10	-1.207842e+01	-4.787466e+01
1.480000e-06	-1.694340e-06	-6.797389e-10	-1.176820e+01	-4.725774e+01
1.490000e-06	-1.649547e-06	-6.698765e-10	-1.145708e+01	-4.663016e+01
1.500000e-06	-1.604620e-06	-6.609221e-10	-1.114504e+01	-4.599189e+01
1.510000e-06	-1.559531e-06	-6.532992e-10	-1.083187e+01	-4.534288e+01
1.520000e-06	-1.514321e-06	-6.442464e-10	-1.051786e+01	-4.468307e+01
1.530000e-06	-1.469040e-06	-6.311813e-10	-1.020335e+01	-4.401238e+01
1.540000e-06	-1.423700e-06	-6.164094e-10	-9.888442e+00	-4.333071e+01
1.550000e-06	-1.378274e-06	-6.020979e-10	-9.572928e+00	-4.263793e+01
1.560000e-06	-1.332759e-06	-5.891374e-10	-9.256803e+00	-4.193389e+01
1.570000e-06	-1.287134e-06	-5.758068e-10	-8.939909e+00	-4.121842e+01
1.580000e-06	-1.241400e-06	-5.653626e-10	-8.622259e+00	-4.049132e+01
1.590000e-06	-1.195612e-06	-5.575773e-10	-8.304232e+00	-3.975236e+01
1.600000e-06	-1.149797e-06	-5.477377e-10	-7.986026e+00	-3.900129e+01
1.610000e-06	-1.103948e-06	-5.361872e-10	-7.667576e+00	-3.823785e+01
1.620000e-06	-1.058003e-06	-5.253720e-10	-7.348460e+00	-3.746171e+01
1.630000e-06	-1.011937e-06	-5.133359e-10	-7.028500e+00	-3.667258e+01
1.640000e-06	-9.657622e-07	-4.985850e-10	-6.707792e+00	-3.587009e+01
1.650000e-06	-9.195221e-07	-4.811599e-10	-6.386627e+00	-3.505389e+01
1.660000e-06	-8.732959e-07	-4.660541e-10	-6.065559e+00	-3.422360e+01
1.670000e-06	-8.269879e-07	-4.508696e-10	-5.743922e+00	-3.337883e+01
1.680000e-06	-7.805719e-07	-4.387360e-10	-5.421536e+00	-3.251918e+01
1.690000e-06	-7.341314e-07	-4.265438e-10	-5.098979e+00	-3.164425e+01
1.700000e-06	-6.875913e-07	-4.174994e-10	-4.775730e+00	-3.075363e+01
1.710000e-06	-6.410447e-07	-4.078669e-10	-4.452436e+00	-2.984692e+01
1.720000e-06	-5.944839e-07	-3.950871e-10	-4.129044e+00	-2.892372e+01
1.730000e-06	-5.479034e-07	-3.787620e-10	-3.805515e+00	-2.798366e+01
1.740000e-06	-5.013531e-07	-3.617130e-10	-3.482195e+00	-2.702636e+01
1.750000e-06	-4.547334e-07	-3.442711e-10	-3.158393e+00	-2.605150e+01
1.760000e-06	-4.079863e-07	-3.281589e-10	-2.833707e+00	-2.505876e+01
1.770000e-06	-3.611500e-07	-3.143272e-10	-2.508401e+00	-2.404786e+01
1.780000e-06	-3.143143e-07	-3.024811e-10	-2.183099e+00	-2.301856e+01
1.790000e-06	-2.674888e-07	-2.910475e-10	-1.857868e+00	-2.197068e+01
1.800000e-06	-2.206477e-07	-2.744170e-10	-1.532529e+00	-2.090406e+01
1.810000e-06	-1.737721e-07	-2.552954e-10	-1.206950e+00	-1.981861e+01
1.820000e-06	-1.268319e-07	-2.357794e-10	-8.809230e-01	-1.871431e+01
1.830000e-06	-7.990593e-08	-2.180955e-10	-5.549941e-01	-1.759118e+01
1.840000e-06	-3.301000e-08	-2.026464e-10	-2.292741e-01	-1.644933e+01
1.850000e-06	1.391471e-08	-1.871827e-10	9.664590e-02	-1.528891e+01
1.860000e-06	6.081954e-08	-1.716113e-10	4.224278e-01	-1.411017e+01
1.870000e-06	1.077335e-07	-1.546378e-10	7.482730e-01	-1.291342e+01
1.880000e-06	1.546103e-07	-1.365101e-10	1.073860e+00	-1.169907e+01
1.890000e-06	2.014831e-07	-1.205533e-10	1.399420e+00	-1.046757e+01
1.900000e-06	2.483914e-07	-1.045626e-10	1.725225e+00	-9.219492e+00
1.910000e-06	2.953171e-07	-8.971303e-11	2.051152e+00	-7.955461e+00
1.920000e-06	3.422071e-07	-7.287596e-11	2.376832e+00	-6.676193e+00
1.930000e-06	3.889493e-07	-5.427056e-11	2.701484e+00	-5.382480e+00
1.940000e-06	4.356966e-07	-3.222797e-11	3.026172e+00	-4.075191e+00
1.950000e-06	4.824792e-07	-1.199161e-11	3.351104e+00	-2.755273e+00
1.960000e-06	5.290939e-07	6.714867e-12	3.674871e+00	-1.423743e+00
1.970000e-06	5.756082e-07	2.345203e-11	3.997941e+00	-8.168815e-02
1.980000e-06	6.221505e-07	4.040912e-11	4.321204e+00	1.269741e+00
1.990000e-06	6.686693e-07	6.073217e-11	4.644305e+00	2.629331e+00
2.000000e-06	7.150884e-07	8.202308e-11	4.966713e+00	3.995815e+00
2.010000e-06	7.613862e-07	1.039324e-10	5.288279e+00	5.367875e+00
2.020000e-06	8.076272e-07	1.219694e-10	5.609450e+00	6.744152e+00
2.030000e-06	8.538533e-07	1.371192e-10	5.930518e+00	8.123246e+00
2.040000e-06	9.000713e-07	1.547847e-10	6.251529e+00	9.503729e+00
2.050000e-06	9.462051e-07	1.735954e-10	6.571956e+00	1.088415e+01
2.060000e-06	9.922245e-07	1.946162e-10	6.891588e+00	1.226304e+01
2.070000e-06	1.038235e-06	2.160413e-10	7.211161e+00	1.363893e+01
2.080000e-06	1.084175e-06	2.380357e-10	7.530239e+00	1.501033e+01
2.090000e-06	1.130003e-06	2.582093e-10	7.848543e+00	1.637578e+01
2.100000e-06	1.175766e-06	2.764422e-10	8.166394e+00	1.773382e+01
2.110000e-06	1.221459e-06	2.931124e-10	8.483757e+00	1.908302e+01
2.120000e-06	1.267050e-06	3.081491e-10	8.800413e+00	2.042197e+01
2.130000e-06	1.312495e-06	3.242417e-10	9.116059e+00	2.174931e+01
2.140000e-06	1.357831e-06	3.418859e-10	9.430943e+00	2.306372e+01
2.150000e-06	1.403180e-06	3.622780e-10	9.745915e+00	2.436393e+01
2.160000e-06	1.448518e-06	3.823263e-10	1.006082e+01	2.564871e+01
2.170000e-06	1.493744e-06	4.027571e-10	1.037494e+01	2.691693e+01
2.180000e-06	1.538845e-06	4.219702e-10	1.068819e+01	2.816750e+01
2.190000e-06	1.583759e-06	4.368864e-10	1.100015e+01	2.939941e+01
2.200000e-06	1.628529e-06	4.504724e-10	1.131110e+01	3.061173e+01
2.210000e-06	1.673252e-06	4.632674e-10	1.162173e+01	3.180362e+01
2.220000e-06	1.717855e-06	4.778605e-10	1.193152e+01	3.297431e+01
2.230000e-06	1.762249e-06	4.954232e-10	1.223987e+01	3.412312e+01
2.240000e-06	1.806442e-06	5.124676e-10	1.254681e+01	3.524948e+01
2.250000e-06	1.850499e-06	5.298192e-10	1.285281e+01	3.635288e+01
2.260000e-06	1.894453e-06	5.452612e-10	1.315810e+01	3.743293e+01
2.270000e-06	1.938322e-06	5.594992e-10	1.346280e+01	3.848931e+01
2.280000e-06	1.982175e-06	5.713998e-10	1.376738e+01	3.952181e+01
2.290000e-06	2.025996e-06	5.816269e-10	1.407175e+01	4.053028e+01
2.300000e-06	2.069738e-06	5.917719e-10	1.437556e+01	4.151470e+01
2.310000e-06	2.113418e-06	6.044050e-10	1.467894e+01	4.247510e+01
2.320000e-06	2.157004e-06	6.192239e-10	1.498167e+01	4.341161e+01
2.330000e-06	2.200485e-06	6.332438e-10	1.528368e+01	4.432442e+01
2.340000e-06	2.243869e-06	6.458271e-10	1.558500e+01	4.521381e+01
2.350000e-06	2.287116e-06	6.572562e-10	1.588538e+01	4.608013e+01
2.360000e-06	2.330125e-06	6.667263e-10	1.618410e+01	4.692378e+01
2.370000e-06	2.372878e-06	6.767335e-10	1.648105e+01	4.774523e+01
2.380000e-06	2.415472e-06	6.881382e-10	1.677689e+01	4.854500e+01
2.390000e-06	2.457850e-06	7.010857e-10	1.707123e+01	4.932366e+01
2.400000e-06	2.499908e-06	7.151884e-10	1.736335e+01	5.008182e+01
2.410000e-06	2.541519e-06	7.284601e-10	1.765236e+01	5.082011e+01
2.420000e-06	2.582750e-06	7.398131e-10	1.793873e+01	5.153921e+01
2.430000e-06	2.623716e-06	7.501899e-10	1.822326e+01	5.223980e+01
2.440000e-06	2.664445e-06	7.603585e-10	1.850615e+01	5.292261e+01
2.450000e-06	2.704947e-06	7.716164e-10	1.878746e+01	5.358833e+01
2.460000e-06	2.745195e-06	7.837072e-10	1.906701e+01	5.423771e+01
2.470000e-06	2.785297e-06	7.941591e-10	1.934554e+01	5.487144e+01
2.480000e-06	2.825265e-06	8.036653e-10	1.962314e+01	5.549024e+01
2.490000e-06	2.865064e-06	8.122635e-10	1.989957e+01	5.609481e+01
2.500000e-06	2.904738e-06	8.222030e-10	2.017513e+01	5.668582e+01
2.510000e-06	2.944347e-06	8.329553e-10	2.045024e+01	5.726393e+01
2.520000e-06	2.983805e-06	8.406461e-10	2.072430e+01	5.782976e+01
2.530000e-06	3.023037e-06	8.462661e-10	2.099679e+01	5.838392e+01
2.540000e-06	3.062059e-06	8.520956e-10	2.126782e+01	5.892695e+01
2.550000e-06	3.100803e-06	8.579401e-10	2.153692e+01	5.945940e+01
2.560000e-06	3.139284e-06	8.646385e-10	2.180419e+01	5.998174e+01
2.570000e-06	3.177519e-06	8.742114e-10	2.206976e+01	6.049443e+01
2.580000e-06	3.215547e-06	8.849878e-10	2.233388e+01	6.099785e+01
2.590000e-06	3.253443e-06	8.929720e-10	2.259709e+01	6.149238e+01
2.600000e-06	3.291172e-06	8.986478e-10	2.285914e+01	6.197832e+01
2.610000e-06	3.328799e-06	9.043173e-10	2.312048e+01	6.245596e+01
2.620000e-06	3.366248e-06	9.110441e-10	2.338059e+01	6.292552e+01
2.630000e-06	3.403353e-06	9.170144e-10	2.363831e+01	6.338720e+01
2.640000e-06	3.440175e-06	9.220371e-10	2.389406e+01	6.384113e+01
2.650000e-06	3.476711e-06	9.265449e-10	2.414782e+01	6.428744e+01
2.660000e-06	3.512967e-06	9.318477e-10	2.439964e+01	6.472620e+01
2.670000e-06	3.549013e-06	9.385003e-10	2.465000e+01	6.515745e+01
2.680000e-06	3.584885e-06	9.465257e-10	2.489915e+01	6.558120e+01
2.690000e-06	3.620635e-06	9.537767e-10	2.514746e+01	6.599745e+01
2.700000e-06	3.656241e-06	9.592171e-10	2.539477e+01	6.640614e+01
2.710000e-06	3.691659e-06	9.645317e-10	2.564077e+01	6.680723e+01
2.720000e-06	3.726851e-06	9.697088e-10	2.588519e+01	6.720063e+01
2.730000e-06	3.761839e-06	9.774169e-10	2.612821e+01	6.758625e+01
2.740000e-06	3.796550e-06	9.860779e-10	2.636929e+01	6.796399e+01
2.750000e-06	3.830848e-06	9.913393e-10	2.660751e+01	6.833375e+01
2.760000e-06	3.864622e-06	9.937674e-10	2.684210e+01	6.869542e+01
2.770000e-06	3.897779e-06	9.968676e-10	2.707239e+01	6.904889e+01
2.780000e-06	3.930505e-06	1.003000e-09	2.729969e+01	6.939405e+01
2.790000e-06	3.962921e-06	1.010344e-09	2.752484e+01	6.973080e+01
2.800000e-06	3.995013e-06	1.016570e-09	2.774774e+01	7.005906e+01
2.810000e-06	4.026911e-06	1.022223e-09	2.796929e+01	7.037874e+01
2.820000e-06	4.058686e-06	1.026604e-09	2.818998e+01	7.068980e+01
2.830000e-06	4.090248e-06	1.028105e-09	2.840920e+01	7.099218e+01
2.840000e-06	4.121572e-06	1.027941e-09	2.862676e+01	7.128586e+01
2.850000e-06	4.152665e-06	1.029906e-09	2.884272e+01	7.157083e+01
2.860000e-06	4.183483e-06	1.034384e-09	2.905678e+01	7.184712e+01
2.870000e-06	4.214020e-06	1.038131e-09	2.926887e+01	7.211476e+01
2.880000e-06	4.244195e-06	1.041852e-09	2.947846e+01	7.237381e+01
2.890000e-06	4.274071e-06	1.048124e-09	2.968596e+01	7.262436e+01
2.900000e-06	4.303704e-06	1.053385e-09	2.989178e+01	7.286652e+01
