# Temperatura_=_-0.22
# Concentracion g/m^3_=_1620.0
# C_Vs_to_Am_M_A/Vsm_=_65563218390.804596
# pendiente_HvsI_1/m_=_3716.3
# ordenada_HvsI_A/m_=_1297.0
# frecuencia_Hz_=_135108.35652946463

Tiempo_(s)	Campo_(V.s)	Magnetizacion_(V.s)	Campo_(kA/m)	Magnetizacion_(A/m)
0.000000e+00	-5.517261e-06	-1.021644e-09	-3.837107e+01	-6.743464e+01
1.000000e-08	-5.517559e-06	-1.021683e-09	-3.837314e+01	-6.741292e+01
2.000000e-08	-5.517538e-06	-1.021217e-09	-3.837299e+01	-6.739034e+01
3.000000e-08	-5.517235e-06	-1.020828e-09	-3.837088e+01	-6.736693e+01
4.000000e-08	-5.516482e-06	-1.016492e-09	-3.836565e+01	-6.734273e+01
5.000000e-08	-5.515188e-06	-1.010198e-09	-3.835665e+01	-6.731775e+01
6.000000e-08	-5.513410e-06	-1.008594e-09	-3.834428e+01	-6.729198e+01
7.000000e-08	-5.511097e-06	-1.012739e-09	-3.832820e+01	-6.726542e+01
8.000000e-08	-5.508196e-06	-1.010075e-09	-3.830802e+01	-6.723806e+01
9.000000e-08	-5.504747e-06	-9.946938e-10	-3.828404e+01	-6.720985e+01
1.000000e-07	-5.500879e-06	-9.927071e-10	-3.825714e+01	-6.718077e+01
1.100000e-07	-5.496679e-06	-1.008606e-09	-3.822792e+01	-6.715077e+01
1.200000e-07	-5.492182e-06	-1.006106e-09	-3.819665e+01	-6.711981e+01
1.300000e-07	-5.487482e-06	-1.006093e-09	-3.816396e+01	-6.708784e+01
1.400000e-07	-5.482443e-06	-1.017754e-09	-3.812892e+01	-6.705481e+01
1.500000e-07	-5.476974e-06	-1.010267e-09	-3.809088e+01	-6.702065e+01
1.600000e-07	-5.471179e-06	-9.891705e-10	-3.805058e+01	-6.698531e+01
1.700000e-07	-5.465060e-06	-9.705479e-10	-3.800802e+01	-6.694873e+01
1.800000e-07	-5.458533e-06	-9.982024e-10	-3.796263e+01	-6.691087e+01
1.900000e-07	-5.451515e-06	-1.002683e-09	-3.791382e+01	-6.687167e+01
2.000000e-07	-5.444093e-06	-9.877940e-10	-3.786220e+01	-6.683108e+01
2.100000e-07	-5.436424e-06	-1.006453e-09	-3.780887e+01	-6.678905e+01
2.200000e-07	-5.428547e-06	-1.034993e-09	-3.775408e+01	-6.674555e+01
2.300000e-07	-5.420363e-06	-1.037476e-09	-3.769717e+01	-6.670053e+01
2.400000e-07	-5.411775e-06	-1.001787e-09	-3.763744e+01	-6.665397e+01
2.500000e-07	-5.402712e-06	-1.007975e-09	-3.757441e+01	-6.660585e+01
2.600000e-07	-5.392987e-06	-1.032444e-09	-3.750677e+01	-6.655612e+01
2.700000e-07	-5.382576e-06	-1.051021e-09	-3.743437e+01	-6.650479e+01
2.800000e-07	-5.371696e-06	-1.031248e-09	-3.735870e+01	-6.645184e+01
2.900000e-07	-5.360456e-06	-1.030114e-09	-3.728053e+01	-6.639726e+01
3.000000e-07	-5.348845e-06	-1.043724e-09	-3.719978e+01	-6.634104e+01
3.100000e-07	-5.336776e-06	-1.048008e-09	-3.711584e+01	-6.628319e+01
3.200000e-07	-5.324255e-06	-1.041170e-09	-3.702876e+01	-6.622369e+01
3.300000e-07	-5.311223e-06	-1.038200e-09	-3.693813e+01	-6.616256e+01
3.400000e-07	-5.297741e-06	-1.040463e-09	-3.684436e+01	-6.609980e+01
3.500000e-07	-5.283974e-06	-1.043883e-09	-3.674862e+01	-6.603540e+01
3.600000e-07	-5.269841e-06	-1.034183e-09	-3.665033e+01	-6.596936e+01
3.700000e-07	-5.255220e-06	-1.018631e-09	-3.654864e+01	-6.590169e+01
3.800000e-07	-5.240191e-06	-1.032016e-09	-3.644412e+01	-6.583237e+01
3.900000e-07	-5.224637e-06	-1.043420e-09	-3.633595e+01	-6.576141e+01
4.000000e-07	-5.208489e-06	-1.022413e-09	-3.622364e+01	-6.568877e+01
4.100000e-07	-5.191945e-06	-1.016382e-09	-3.610858e+01	-6.561445e+01
4.200000e-07	-5.175068e-06	-1.041080e-09	-3.599121e+01	-6.553842e+01
4.300000e-07	-5.157841e-06	-1.027021e-09	-3.587140e+01	-6.546064e+01
4.400000e-07	-5.140256e-06	-1.006415e-09	-3.574910e+01	-6.538108e+01
4.500000e-07	-5.122431e-06	-1.026764e-09	-3.562513e+01	-6.529969e+01
4.600000e-07	-5.104272e-06	-1.026223e-09	-3.549884e+01	-6.521642e+01
4.700000e-07	-5.085591e-06	-9.864678e-10	-3.536892e+01	-6.513120e+01
4.800000e-07	-5.066540e-06	-1.005546e-09	-3.523642e+01	-6.504397e+01
4.900000e-07	-5.047212e-06	-1.028402e-09	-3.510200e+01	-6.495465e+01
5.000000e-07	-5.027546e-06	-9.953471e-10	-3.496523e+01	-6.486316e+01
5.100000e-07	-5.007622e-06	-9.864810e-10	-3.482666e+01	-6.476942e+01
5.200000e-07	-4.987456e-06	-1.019590e-09	-3.468642e+01	-6.467334e+01
5.300000e-07	-4.967035e-06	-9.895034e-10	-3.454439e+01	-6.457481e+01
5.400000e-07	-4.946310e-06	-9.646848e-10	-3.440025e+01	-6.447374e+01
5.500000e-07	-4.925203e-06	-1.001883e-09	-3.425346e+01	-6.437003e+01
5.600000e-07	-4.903714e-06	-1.003784e-09	-3.410401e+01	-6.426359e+01
5.700000e-07	-4.881828e-06	-9.636143e-10	-3.395180e+01	-6.415431e+01
5.800000e-07	-4.859678e-06	-9.845384e-10	-3.379775e+01	-6.404209e+01
5.900000e-07	-4.837235e-06	-9.973344e-10	-3.364167e+01	-6.392685e+01
6.000000e-07	-4.814288e-06	-9.583266e-10	-3.348208e+01	-6.380850e+01
6.100000e-07	-4.791047e-06	-9.600579e-10	-3.332044e+01	-6.368695e+01
6.200000e-07	-4.767625e-06	-9.910473e-10	-3.315755e+01	-6.356214e+01
6.300000e-07	-4.743920e-06	-9.661880e-10	-3.299269e+01	-6.343400e+01
6.400000e-07	-4.719937e-06	-9.494221e-10	-3.282589e+01	-6.330248e+01
6.500000e-07	-4.695637e-06	-9.721348e-10	-3.265689e+01	-6.316755e+01
6.600000e-07	-4.670992e-06	-9.616568e-10	-3.248549e+01	-6.302918e+01
6.700000e-07	-4.645904e-06	-9.361859e-10	-3.231101e+01	-6.288736e+01
6.800000e-07	-4.620379e-06	-9.480675e-10	-3.213349e+01	-6.274210e+01
6.900000e-07	-4.594329e-06	-9.530708e-10	-3.195232e+01	-6.259342e+01
7.000000e-07	-4.567717e-06	-9.356482e-10	-3.176724e+01	-6.244135e+01
7.100000e-07	-4.540667e-06	-9.431450e-10	-3.157912e+01	-6.228595e+01
7.200000e-07	-4.513245e-06	-9.520918e-10	-3.138841e+01	-6.212729e+01
7.300000e-07	-4.485580e-06	-9.369045e-10	-3.119600e+01	-6.196547e+01
7.400000e-07	-4.457744e-06	-9.288935e-10	-3.100241e+01	-6.180058e+01
7.500000e-07	-4.429708e-06	-9.377784e-10	-3.080743e+01	-6.163274e+01
7.600000e-07	-4.401391e-06	-9.323648e-10	-3.061049e+01	-6.146210e+01
7.700000e-07	-4.372853e-06	-9.277346e-10	-3.041201e+01	-6.128879e+01
7.800000e-07	-4.344034e-06	-9.342353e-10	-3.021159e+01	-6.111299e+01
7.900000e-07	-4.314822e-06	-9.334515e-10	-3.000843e+01	-6.093485e+01
8.000000e-07	-4.285332e-06	-9.216379e-10	-2.980333e+01	-6.075456e+01
8.100000e-07	-4.255558e-06	-9.223150e-10	-2.959626e+01	-6.057230e+01
8.200000e-07	-4.225508e-06	-9.214068e-10	-2.938727e+01	-6.038827e+01
8.300000e-07	-4.195165e-06	-9.122717e-10	-2.917624e+01	-6.020265e+01
8.400000e-07	-4.164532e-06	-9.082659e-10	-2.896320e+01	-6.001564e+01
8.500000e-07	-4.133647e-06	-9.128356e-10	-2.874840e+01	-5.982742e+01
8.600000e-07	-4.102443e-06	-9.070907e-10	-2.853139e+01	-5.963819e+01
8.700000e-07	-4.071041e-06	-9.026722e-10	-2.831299e+01	-5.944810e+01
8.800000e-07	-4.039461e-06	-9.036197e-10	-2.809337e+01	-5.925734e+01
8.900000e-07	-4.007676e-06	-8.964495e-10	-2.787231e+01	-5.906604e+01
9.000000e-07	-3.975724e-06	-8.847690e-10	-2.765009e+01	-5.887434e+01
9.100000e-07	-3.943528e-06	-8.837197e-10	-2.742618e+01	-5.868236e+01
9.200000e-07	-3.910980e-06	-8.818262e-10	-2.719981e+01	-5.849018e+01
9.300000e-07	-3.878017e-06	-8.764810e-10	-2.697057e+01	-5.829788e+01
9.400000e-07	-3.844638e-06	-8.787474e-10	-2.673842e+01	-5.810551e+01
9.500000e-07	-3.810839e-06	-8.791355e-10	-2.650336e+01	-5.791307e+01
9.600000e-07	-3.776601e-06	-8.707024e-10	-2.626524e+01	-5.772056e+01
9.700000e-07	-3.742000e-06	-8.678273e-10	-2.602461e+01	-5.752794e+01
9.800000e-07	-3.707047e-06	-8.692195e-10	-2.578151e+01	-5.733513e+01
9.900000e-07	-3.671703e-06	-8.624922e-10	-2.553570e+01	-5.714202e+01
1.000000e-06	-3.636084e-06	-8.583738e-10	-2.528798e+01	-5.694848e+01
1.010000e-06	-3.600329e-06	-8.612893e-10	-2.503932e+01	-5.675434e+01
1.020000e-06	-3.564479e-06	-8.594899e-10	-2.478999e+01	-5.655938e+01
1.030000e-06	-3.528499e-06	-8.527226e-10	-2.453976e+01	-5.636338e+01
1.040000e-06	-3.492316e-06	-8.509040e-10	-2.428812e+01	-5.616608e+01
1.050000e-06	-3.455891e-06	-8.464469e-10	-2.403480e+01	-5.596717e+01
1.060000e-06	-3.419216e-06	-8.362304e-10	-2.377973e+01	-5.576633e+01
1.070000e-06	-3.382268e-06	-8.291660e-10	-2.352276e+01	-5.556321e+01
1.080000e-06	-3.345127e-06	-8.278954e-10	-2.326446e+01	-5.535745e+01
1.090000e-06	-3.307710e-06	-8.231444e-10	-2.300423e+01	-5.514864e+01
1.100000e-06	-3.269982e-06	-8.199674e-10	-2.274185e+01	-5.493638e+01
1.110000e-06	-3.232134e-06	-8.187072e-10	-2.247863e+01	-5.472024e+01
1.120000e-06	-3.194123e-06	-8.118653e-10	-2.221427e+01	-5.449978e+01
1.130000e-06	-3.155819e-06	-8.014008e-10	-2.194787e+01	-5.427456e+01
1.140000e-06	-3.117169e-06	-7.969244e-10	-2.167907e+01	-5.404412e+01
1.150000e-06	-3.078278e-06	-7.912393e-10	-2.140860e+01	-5.380801e+01
1.160000e-06	-3.039259e-06	-7.819554e-10	-2.113723e+01	-5.356579e+01
1.170000e-06	-3.000145e-06	-7.774102e-10	-2.086520e+01	-5.331701e+01
1.180000e-06	-2.960845e-06	-7.775744e-10	-2.059188e+01	-5.306123e+01
1.190000e-06	-2.921299e-06	-7.736373e-10	-2.031685e+01	-5.279804e+01
1.200000e-06	-2.881593e-06	-7.698742e-10	-2.004070e+01	-5.252703e+01
1.210000e-06	-2.841768e-06	-7.685306e-10	-1.976373e+01	-5.224783e+01
1.220000e-06	-2.801851e-06	-7.630165e-10	-1.948612e+01	-5.196007e+01
1.230000e-06	-2.761829e-06	-7.544268e-10	-1.920777e+01	-5.166343e+01
1.240000e-06	-2.721652e-06	-7.478420e-10	-1.892836e+01	-5.135759e+01
1.250000e-06	-2.681285e-06	-7.413403e-10	-1.864761e+01	-5.104229e+01
1.260000e-06	-2.640685e-06	-7.356333e-10	-1.836525e+01	-5.071729e+01
1.270000e-06	-2.599899e-06	-7.334269e-10	-1.808160e+01	-5.038239e+01
1.280000e-06	-2.558940e-06	-7.301536e-10	-1.779674e+01	-5.003740e+01
1.290000e-06	-2.517679e-06	-7.221484e-10	-1.750978e+01	-4.968221e+01
1.300000e-06	-2.476048e-06	-7.134773e-10	-1.722025e+01	-4.931672e+01
1.310000e-06	-2.434140e-06	-7.067790e-10	-1.692879e+01	-4.894086e+01
1.320000e-06	-2.391999e-06	-6.994160e-10	-1.663571e+01	-4.855461e+01
1.330000e-06	-2.349610e-06	-6.926858e-10	-1.634090e+01	-4.815798e+01
1.340000e-06	-2.306897e-06	-6.901842e-10	-1.604385e+01	-4.775101e+01
1.350000e-06	-2.263746e-06	-6.869523e-10	-1.574374e+01	-4.733377e+01
1.360000e-06	-2.220390e-06	-6.783702e-10	-1.544222e+01	-4.690638e+01
1.370000e-06	-2.176976e-06	-6.689488e-10	-1.514028e+01	-4.646894e+01
1.380000e-06	-2.133419e-06	-6.602983e-10	-1.483736e+01	-4.602162e+01
1.390000e-06	-2.089751e-06	-6.510094e-10	-1.453366e+01	-4.556458e+01
1.400000e-06	-2.045997e-06	-6.450793e-10	-1.422936e+01	-4.509801e+01
1.410000e-06	-2.002141e-06	-6.411356e-10	-1.392435e+01	-4.462209e+01
1.420000e-06	-1.958201e-06	-6.339047e-10	-1.361876e+01	-4.413704e+01
1.430000e-06	-1.914194e-06	-6.249482e-10	-1.331270e+01	-4.364305e+01
1.440000e-06	-1.870091e-06	-6.158021e-10	-1.300598e+01	-4.314033e+01
1.450000e-06	-1.825916e-06	-6.093263e-10	-1.269875e+01	-4.262907e+01
1.460000e-06	-1.781663e-06	-6.028535e-10	-1.239099e+01	-4.210945e+01
1.470000e-06	-1.737278e-06	-5.968250e-10	-1.208230e+01	-4.158165e+01
1.480000e-06	-1.692739e-06	-5.897351e-10	-1.177254e+01	-4.104581e+01
1.490000e-06	-1.648041e-06	-5.806500e-10	-1.146168e+01	-4.050205e+01
1.500000e-06	-1.603266e-06	-5.707099e-10	-1.115028e+01	-3.995048e+01
1.510000e-06	-1.558295e-06	-5.611881e-10	-1.083752e+01	-3.939114e+01
1.520000e-06	-1.513140e-06	-5.536758e-10	-1.052348e+01	-3.882408e+01
1.530000e-06	-1.468005e-06	-5.469515e-10	-1.020958e+01	-3.824928e+01
1.540000e-06	-1.422772e-06	-5.400117e-10	-9.894999e+00	-3.766669e+01
1.550000e-06	-1.377404e-06	-5.316739e-10	-9.579473e+00	-3.707622e+01
1.560000e-06	-1.331965e-06	-5.195810e-10	-9.263458e+00	-3.647772e+01
1.570000e-06	-1.286423e-06	-5.051209e-10	-8.946724e+00	-3.587102e+01
1.580000e-06	-1.240748e-06	-4.890799e-10	-8.629071e+00	-3.525588e+01
1.590000e-06	-1.194909e-06	-4.787748e-10	-8.310272e+00	-3.463203e+01
1.600000e-06	-1.148977e-06	-4.738974e-10	-7.990829e+00	-3.399915e+01
1.610000e-06	-1.103036e-06	-4.699243e-10	-7.671318e+00	-3.335687e+01
1.620000e-06	-1.057034e-06	-4.628655e-10	-7.351390e+00	-3.270479e+01
1.630000e-06	-1.010930e-06	-4.497258e-10	-7.030744e+00	-3.204246e+01
1.640000e-06	-9.648126e-07	-4.343375e-10	-6.710012e+00	-3.136940e+01
1.650000e-06	-9.186697e-07	-4.172768e-10	-6.389101e+00	-3.068509e+01
1.660000e-06	-8.724654e-07	-4.018855e-10	-6.067762e+00	-2.998900e+01
1.670000e-06	-8.261767e-07	-3.887207e-10	-5.745837e+00	-2.928056e+01
1.680000e-06	-7.798257e-07	-3.800476e-10	-5.423478e+00	-2.855919e+01
1.690000e-06	-7.334765e-07	-3.711845e-10	-5.101132e+00	-2.782428e+01
1.700000e-06	-6.870760e-07	-3.616404e-10	-4.778429e+00	-2.707525e+01
1.710000e-06	-6.406480e-07	-3.506534e-10	-4.455535e+00	-2.631149e+01
1.720000e-06	-5.941844e-07	-3.361793e-10	-4.132393e+00	-2.553240e+01
1.730000e-06	-5.476866e-07	-3.205444e-10	-3.809013e+00	-2.473741e+01
1.740000e-06	-5.011393e-07	-3.063427e-10	-3.485289e+00	-2.392596e+01
1.750000e-06	-4.545392e-07	-2.931828e-10	-3.161198e+00	-2.309752e+01
1.760000e-06	-4.078600e-07	-2.804351e-10	-2.836557e+00	-2.225158e+01
1.770000e-06	-3.610717e-07	-2.667800e-10	-2.511156e+00	-2.138770e+01
1.780000e-06	-3.142976e-07	-2.547789e-10	-2.185855e+00	-2.050548e+01
1.790000e-06	-2.675511e-07	-2.442048e-10	-1.860746e+00	-1.960456e+01
1.800000e-06	-2.207515e-07	-2.317666e-10	-1.535268e+00	-1.868467e+01
1.810000e-06	-1.739745e-07	-2.180068e-10	-1.209946e+00	-1.774558e+01
1.820000e-06	-1.272789e-07	-2.022646e-10	-8.851905e-01	-1.678715e+01
1.830000e-06	-8.057952e-08	-1.869233e-10	-5.604089e-01	-1.580931e+01
1.840000e-06	-3.381058e-08	-1.710388e-10	-2.351435e-01	-1.481209e+01
1.850000e-06	1.299570e-08	-1.554231e-10	9.038157e-02	-1.379560e+01
1.860000e-06	5.976549e-08	-1.434902e-10	4.156529e-01	-1.276003e+01
1.870000e-06	1.065267e-07	-1.324827e-10	7.408645e-01	-1.170567e+01
1.880000e-06	1.532990e-07	-1.195014e-10	1.066153e+00	-1.063292e+01
1.890000e-06	2.000721e-07	-1.031469e-10	1.391448e+00	-9.542255e+00
1.900000e-06	2.468462e-07	-8.441727e-11	1.716749e+00	-8.434260e+00
1.910000e-06	2.936478e-07	-6.658628e-11	2.042241e+00	-7.309615e+00
1.920000e-06	3.404120e-07	-4.983879e-11	2.367474e+00	-6.169092e+00
1.930000e-06	3.871425e-07	-3.649367e-11	2.692472e+00	-5.013561e+00
1.940000e-06	4.339079e-07	-2.368189e-11	3.017713e+00	-3.843980e+00
1.950000e-06	4.805387e-07	-1.249097e-11	3.342018e+00	-2.661393e+00
1.960000e-06	5.270631e-07	5.148671e-13	3.665582e+00	-1.466930e+00
1.970000e-06	5.736217e-07	1.717775e-11	3.989385e+00	-2.617942e-01
1.980000e-06	6.201341e-07	3.702214e-11	4.312866e+00	9.527361e-01
1.990000e-06	6.665940e-07	5.807241e-11	4.635982e+00	2.175319e+00
2.000000e-06	7.130417e-07	7.766889e-11	4.959013e+00	3.404555e+00
2.010000e-06	7.594109e-07	9.358339e-11	5.281498e+00	4.638992e+00
2.020000e-06	8.057338e-07	1.064552e-10	5.603662e+00	5.877139e+00
2.030000e-06	8.519900e-07	1.195734e-10	5.925362e+00	7.117467e+00
2.040000e-06	8.981166e-07	1.357826e-10	6.246159e+00	8.358425e+00
2.050000e-06	9.441788e-07	1.532314e-10	6.566510e+00	9.598445e+00
2.060000e-06	9.902061e-07	1.712988e-10	6.886617e+00	1.083595e+01
2.070000e-06	1.036171e-06	1.895675e-10	7.206287e+00	1.206937e+01
2.080000e-06	1.082047e-06	2.077080e-10	7.525347e+00	1.329715e+01
2.090000e-06	1.127809e-06	2.240027e-10	7.843610e+00	1.451774e+01
2.100000e-06	1.173532e-06	2.382811e-10	8.161598e+00	1.572963e+01
2.110000e-06	1.219217e-06	2.531541e-10	8.479330e+00	1.693136e+01
2.120000e-06	1.264782e-06	2.683050e-10	8.796221e+00	1.812150e+01
2.130000e-06	1.310276e-06	2.837956e-10	9.112620e+00	1.929869e+01
2.140000e-06	1.355664e-06	2.982281e-10	9.428277e+00	2.046163e+01
2.150000e-06	1.400878e-06	3.135347e-10	9.742727e+00	2.160907e+01
2.160000e-06	1.446066e-06	3.290708e-10	1.005700e+01	2.273988e+01
2.170000e-06	1.491227e-06	3.450681e-10	1.037108e+01	2.385297e+01
2.180000e-06	1.536260e-06	3.610024e-10	1.068427e+01	2.494736e+01
2.190000e-06	1.581070e-06	3.752304e-10	1.099591e+01	2.602218e+01
2.200000e-06	1.625719e-06	3.889366e-10	1.130644e+01	2.707661e+01
2.210000e-06	1.670373e-06	4.024311e-10	1.161699e+01	2.810999e+01
2.220000e-06	1.714944e-06	4.146483e-10	1.192698e+01	2.912170e+01
2.230000e-06	1.759350e-06	4.278371e-10	1.223580e+01	3.011128e+01
2.240000e-06	1.803547e-06	4.407505e-10	1.254318e+01	3.107833e+01
2.250000e-06	1.847644e-06	4.532109e-10	1.284986e+01	3.202258e+01
2.260000e-06	1.891660e-06	4.645404e-10	1.315599e+01	3.294386e+01
2.270000e-06	1.935531e-06	4.760934e-10	1.346110e+01	3.384208e+01
2.280000e-06	1.979352e-06	4.883935e-10	1.376586e+01	3.471728e+01
2.290000e-06	2.023141e-06	5.010293e-10	1.407040e+01	3.556956e+01
2.300000e-06	2.066871e-06	5.120472e-10	1.437453e+01	3.639914e+01
2.310000e-06	2.110533e-06	5.217116e-10	1.467819e+01	3.720631e+01
2.320000e-06	2.154122e-06	5.315917e-10	1.498134e+01	3.799143e+01
2.330000e-06	2.197655e-06	5.404148e-10	1.528410e+01	3.875496e+01
2.340000e-06	2.241052e-06	5.486986e-10	1.558591e+01	3.949740e+01
2.350000e-06	2.284276e-06	5.589603e-10	1.588652e+01	4.021934e+01
2.360000e-06	2.327314e-06	5.700372e-10	1.618584e+01	4.092138e+01
2.370000e-06	2.370112e-06	5.812826e-10	1.648349e+01	4.160422e+01
2.380000e-06	2.412628e-06	5.926792e-10	1.677918e+01	4.226854e+01
2.390000e-06	2.454763e-06	6.032770e-10	1.707222e+01	4.291510e+01
2.400000e-06	2.496573e-06	6.133990e-10	1.736299e+01	4.354464e+01
2.410000e-06	2.538055e-06	6.226280e-10	1.765149e+01	4.415796e+01
2.420000e-06	2.579162e-06	6.329910e-10	1.793738e+01	4.475582e+01
2.430000e-06	2.619986e-06	6.428153e-10	1.822130e+01	4.533902e+01
2.440000e-06	2.660585e-06	6.512257e-10	1.850366e+01	4.590831e+01
2.450000e-06	2.700944e-06	6.611106e-10	1.878434e+01	4.646446e+01
2.460000e-06	2.741125e-06	6.736413e-10	1.906379e+01	4.700821e+01
2.470000e-06	2.781179e-06	6.856155e-10	1.934236e+01	4.754026e+01
2.480000e-06	2.821106e-06	6.958027e-10	1.962003e+01	4.806129e+01
2.490000e-06	2.860911e-06	7.038428e-10	1.989687e+01	4.857193e+01
2.500000e-06	2.900614e-06	7.110573e-10	2.017299e+01	4.907278e+01
2.510000e-06	2.940174e-06	7.189327e-10	2.044812e+01	4.956438e+01
2.520000e-06	2.979506e-06	7.257160e-10	2.072166e+01	5.004723e+01
2.530000e-06	3.018688e-06	7.323898e-10	2.099417e+01	5.052178e+01
2.540000e-06	3.057658e-06	7.410406e-10	2.126519e+01	5.098842e+01
2.550000e-06	3.096372e-06	7.489114e-10	2.153444e+01	5.144748e+01
2.560000e-06	3.134918e-06	7.547087e-10	2.180251e+01	5.189925e+01
2.570000e-06	3.173312e-06	7.608517e-10	2.206953e+01	5.234394e+01
2.580000e-06	3.211490e-06	7.667408e-10	2.233505e+01	5.278172e+01
2.590000e-06	3.249357e-06	7.707536e-10	2.259841e+01	5.321272e+01
2.600000e-06	3.286997e-06	7.751274e-10	2.286018e+01	5.363699e+01
2.610000e-06	3.324433e-06	7.816622e-10	2.312054e+01	5.405454e+01
2.620000e-06	3.361627e-06	7.898654e-10	2.337921e+01	5.446536e+01
2.630000e-06	3.398583e-06	7.984126e-10	2.363623e+01	5.486936e+01
2.640000e-06	3.435312e-06	8.050109e-10	2.389167e+01	5.526643e+01
2.650000e-06	3.471774e-06	8.086449e-10	2.414525e+01	5.565642e+01
2.660000e-06	3.507982e-06	8.121995e-10	2.439707e+01	5.603917e+01
2.670000e-06	3.544042e-06	8.166005e-10	2.464786e+01	5.641447e+01
2.680000e-06	3.579926e-06	8.214457e-10	2.489743e+01	5.678209e+01
2.690000e-06	3.615654e-06	8.272706e-10	2.514590e+01	5.714182e+01
2.700000e-06	3.651264e-06	8.343019e-10	2.539356e+01	5.749340e+01
2.710000e-06	3.686726e-06	8.413916e-10	2.564019e+01	5.783660e+01
2.720000e-06	3.721990e-06	8.456675e-10	2.588544e+01	5.817115e+01
2.730000e-06	3.756926e-06	8.500833e-10	2.612841e+01	5.849684e+01
2.740000e-06	3.791436e-06	8.555445e-10	2.636842e+01	5.881343e+01
2.750000e-06	3.825446e-06	8.595575e-10	2.660495e+01	5.912071e+01
2.760000e-06	3.859025e-06	8.624761e-10	2.683848e+01	5.941849e+01
2.770000e-06	3.892247e-06	8.651227e-10	2.706953e+01	5.970661e+01
2.780000e-06	3.925068e-06	8.690661e-10	2.729779e+01	5.998494e+01
2.790000e-06	3.957532e-06	8.759126e-10	2.752357e+01	6.025336e+01
2.800000e-06	3.989686e-06	8.840127e-10	2.774720e+01	6.051180e+01
2.810000e-06	4.021624e-06	8.909150e-10	2.796932e+01	6.076025e+01
2.820000e-06	4.053425e-06	8.949391e-10	2.819048e+01	6.099869e+01
2.830000e-06	4.085064e-06	8.959317e-10	2.841052e+01	6.122717e+01
2.840000e-06	4.116440e-06	8.948949e-10	2.862873e+01	6.144579e+01
2.850000e-06	4.147531e-06	8.947684e-10	2.884496e+01	6.165467e+01
2.860000e-06	4.178373e-06	8.987853e-10	2.905946e+01	6.185397e+01
2.870000e-06	4.208897e-06	9.040636e-10	2.927175e+01	6.204391e+01
2.880000e-06	4.239050e-06	9.081125e-10	2.948145e+01	6.222473e+01
2.890000e-06	4.268965e-06	9.136572e-10	2.968950e+01	6.239673e+01
2.900000e-06	4.298638e-06	9.180813e-10	2.989587e+01	6.256022e+01
