# Temperatura_=_6.07
# Concentracion g/m^3_=_1620.0
# C_Vs_to_Am_M_A/Vsm_=_65563218390.804596
# pendiente_HvsI_1/m_=_3716.3
# ordenada_HvsI_A/m_=_1297.0
# frecuencia_Hz_=_135106.23493175427

Tiempo_(s)	Campo_(V.s)	Magnetizacion_(V.s)	Campo_(kA/m)	Magnetizacion_(A/m)
0.000000e+00	-5.515631e-06	-7.278190e-10	-3.837182e+01	-4.928457e+01
1.000000e-08	-5.515625e-06	-7.253386e-10	-3.837178e+01	-4.929689e+01
2.000000e-08	-5.515376e-06	-7.254455e-10	-3.837005e+01	-4.930984e+01
3.000000e-08	-5.514775e-06	-7.286158e-10	-3.836587e+01	-4.932328e+01
4.000000e-08	-5.513682e-06	-7.328042e-10	-3.835826e+01	-4.933703e+01
5.000000e-08	-5.512114e-06	-7.328413e-10	-3.834736e+01	-4.935093e+01
6.000000e-08	-5.509978e-06	-7.180567e-10	-3.833250e+01	-4.936477e+01
7.000000e-08	-5.507257e-06	-6.989799e-10	-3.831357e+01	-4.937837e+01
8.000000e-08	-5.504075e-06	-7.264522e-10	-3.829143e+01	-4.939150e+01
9.000000e-08	-5.500386e-06	-7.955615e-10	-3.826577e+01	-4.940396e+01
1.000000e-07	-5.496193e-06	-7.764394e-10	-3.823659e+01	-4.941555e+01
1.100000e-07	-5.491639e-06	-6.765620e-10	-3.820492e+01	-4.942603e+01
1.200000e-07	-5.486990e-06	-6.446491e-10	-3.817257e+01	-4.943522e+01
1.300000e-07	-5.482105e-06	-7.667266e-10	-3.813858e+01	-4.944289e+01
1.400000e-07	-5.476688e-06	-7.782482e-10	-3.810090e+01	-4.944885e+01
1.500000e-07	-5.470870e-06	-6.806106e-10	-3.806042e+01	-4.945291e+01
1.600000e-07	-5.464815e-06	-6.466595e-10	-3.801830e+01	-4.945489e+01
1.700000e-07	-5.458378e-06	-7.693311e-10	-3.797352e+01	-4.945462e+01
1.800000e-07	-5.451382e-06	-8.089111e-10	-3.792485e+01	-4.945194e+01
1.900000e-07	-5.443949e-06	-6.874527e-10	-3.787314e+01	-4.944673e+01
2.000000e-07	-5.436344e-06	-6.645811e-10	-3.782023e+01	-4.943886e+01
2.100000e-07	-5.428639e-06	-7.522195e-10	-3.776662e+01	-4.942821e+01
2.200000e-07	-5.420621e-06	-8.292947e-10	-3.771085e+01	-4.941471e+01
2.300000e-07	-5.412265e-06	-7.587322e-10	-3.765271e+01	-4.939828e+01
2.400000e-07	-5.403517e-06	-7.406166e-10	-3.759185e+01	-4.937888e+01
2.500000e-07	-5.393955e-06	-7.763764e-10	-3.752533e+01	-4.935647e+01
2.600000e-07	-5.383540e-06	-8.094437e-10	-3.745288e+01	-4.933104e+01
2.700000e-07	-5.372629e-06	-7.544945e-10	-3.737697e+01	-4.930260e+01
2.800000e-07	-5.361283e-06	-7.546457e-10	-3.729803e+01	-4.927115e+01
2.900000e-07	-5.349502e-06	-7.923026e-10	-3.721607e+01	-4.923674e+01
3.000000e-07	-5.337437e-06	-8.125667e-10	-3.713214e+01	-4.919943e+01
3.100000e-07	-5.325003e-06	-7.635375e-10	-3.704564e+01	-4.915927e+01
3.200000e-07	-5.312030e-06	-7.509365e-10	-3.695538e+01	-4.911633e+01
3.300000e-07	-5.298675e-06	-7.848589e-10	-3.686247e+01	-4.907072e+01
3.400000e-07	-5.285094e-06	-7.901873e-10	-3.676799e+01	-4.902252e+01
3.500000e-07	-5.271137e-06	-7.455320e-10	-3.667090e+01	-4.897183e+01
3.600000e-07	-5.256680e-06	-7.491990e-10	-3.657032e+01	-4.891876e+01
3.700000e-07	-5.241847e-06	-8.031998e-10	-3.646713e+01	-4.886342e+01
3.800000e-07	-5.226503e-06	-7.864104e-10	-3.636038e+01	-4.880593e+01
3.900000e-07	-5.210440e-06	-7.411879e-10	-3.624863e+01	-4.874638e+01
4.000000e-07	-5.193941e-06	-7.721643e-10	-3.613385e+01	-4.868489e+01
4.100000e-07	-5.177159e-06	-8.031626e-10	-3.601710e+01	-4.862156e+01
4.200000e-07	-5.159971e-06	-7.322000e-10	-3.589753e+01	-4.855648e+01
4.300000e-07	-5.142426e-06	-7.326017e-10	-3.577546e+01	-4.848976e+01
4.400000e-07	-5.124644e-06	-8.033710e-10	-3.565175e+01	-4.842145e+01
4.500000e-07	-5.106439e-06	-7.805676e-10	-3.552511e+01	-4.835165e+01
4.600000e-07	-5.087716e-06	-6.982391e-10	-3.539485e+01	-4.828041e+01
4.700000e-07	-5.068722e-06	-7.566924e-10	-3.526271e+01	-4.820777e+01
4.800000e-07	-5.049417e-06	-7.904492e-10	-3.512841e+01	-4.813378e+01
4.900000e-07	-5.029768e-06	-7.328037e-10	-3.499171e+01	-4.805845e+01
5.000000e-07	-5.009913e-06	-7.276026e-10	-3.485358e+01	-4.798181e+01
5.100000e-07	-4.989910e-06	-7.811886e-10	-3.471442e+01	-4.790384e+01
5.200000e-07	-4.969626e-06	-7.251373e-10	-3.457331e+01	-4.782454e+01
5.300000e-07	-4.948990e-06	-7.111775e-10	-3.442975e+01	-4.774388e+01
5.400000e-07	-4.928045e-06	-7.792267e-10	-3.428403e+01	-4.766183e+01
5.500000e-07	-4.906635e-06	-7.661556e-10	-3.413509e+01	-4.757834e+01
5.600000e-07	-4.884819e-06	-6.939223e-10	-3.398331e+01	-4.749336e+01
5.700000e-07	-4.862767e-06	-7.398815e-10	-3.382990e+01	-4.740683e+01
5.800000e-07	-4.840395e-06	-7.658283e-10	-3.367425e+01	-4.731869e+01
5.900000e-07	-4.817568e-06	-7.100033e-10	-3.351545e+01	-4.722886e+01
6.000000e-07	-4.794335e-06	-7.133419e-10	-3.335382e+01	-4.713728e+01
6.100000e-07	-4.770869e-06	-7.584581e-10	-3.319057e+01	-4.704387e+01
6.200000e-07	-4.747193e-06	-7.202700e-10	-3.302586e+01	-4.694855e+01
6.300000e-07	-4.723304e-06	-6.968243e-10	-3.285966e+01	-4.685127e+01
6.400000e-07	-4.699194e-06	-7.326262e-10	-3.269193e+01	-4.675196e+01
6.500000e-07	-4.674741e-06	-7.252831e-10	-3.252182e+01	-4.665056e+01
6.600000e-07	-4.649972e-06	-6.998110e-10	-3.234950e+01	-4.654702e+01
6.700000e-07	-4.624756e-06	-7.192420e-10	-3.217407e+01	-4.644130e+01
6.800000e-07	-4.598815e-06	-7.270802e-10	-3.199360e+01	-4.633338e+01
6.900000e-07	-4.572233e-06	-7.027718e-10	-3.180867e+01	-4.622324e+01
7.000000e-07	-4.545198e-06	-7.094221e-10	-3.162060e+01	-4.611087e+01
7.100000e-07	-4.517801e-06	-7.137276e-10	-3.143000e+01	-4.599630e+01
7.200000e-07	-4.490176e-06	-6.979721e-10	-3.123781e+01	-4.587954e+01
7.300000e-07	-4.462404e-06	-6.923983e-10	-3.104460e+01	-4.576064e+01
7.400000e-07	-4.434500e-06	-7.073900e-10	-3.085048e+01	-4.563966e+01
7.500000e-07	-4.406349e-06	-6.998268e-10	-3.065463e+01	-4.551667e+01
7.600000e-07	-4.377893e-06	-6.957176e-10	-3.045666e+01	-4.539176e+01
7.700000e-07	-4.349156e-06	-6.970038e-10	-3.025674e+01	-4.526503e+01
7.800000e-07	-4.320030e-06	-6.949850e-10	-3.005412e+01	-4.513661e+01
7.900000e-07	-4.290538e-06	-6.852221e-10	-2.984894e+01	-4.500662e+01
8.000000e-07	-4.260826e-06	-6.894376e-10	-2.964224e+01	-4.487520e+01
8.100000e-07	-4.230861e-06	-6.830108e-10	-2.943378e+01	-4.474250e+01
8.200000e-07	-4.200564e-06	-6.792815e-10	-2.922300e+01	-4.460869e+01
8.300000e-07	-4.169955e-06	-6.837631e-10	-2.901006e+01	-4.447392e+01
8.400000e-07	-4.139030e-06	-6.886421e-10	-2.879491e+01	-4.433837e+01
8.500000e-07	-4.107792e-06	-6.789996e-10	-2.857760e+01	-4.420220e+01
8.600000e-07	-4.076285e-06	-6.794851e-10	-2.835840e+01	-4.406558e+01
8.700000e-07	-4.044615e-06	-6.792389e-10	-2.813808e+01	-4.392868e+01
8.800000e-07	-4.012867e-06	-6.724149e-10	-2.791721e+01	-4.379164e+01
8.900000e-07	-3.981017e-06	-6.683228e-10	-2.769563e+01	-4.365463e+01
9.000000e-07	-3.948932e-06	-6.726456e-10	-2.747242e+01	-4.351777e+01
9.100000e-07	-3.916480e-06	-6.662982e-10	-2.724665e+01	-4.338119e+01
9.200000e-07	-3.883605e-06	-6.604458e-10	-2.701794e+01	-4.324499e+01
9.300000e-07	-3.850295e-06	-6.660274e-10	-2.678621e+01	-4.310925e+01
9.400000e-07	-3.816524e-06	-6.658396e-10	-2.655126e+01	-4.297405e+01
9.500000e-07	-3.782250e-06	-6.588186e-10	-2.631283e+01	-4.283941e+01
9.600000e-07	-3.747624e-06	-6.590105e-10	-2.607194e+01	-4.270536e+01
9.700000e-07	-3.712699e-06	-6.616138e-10	-2.582897e+01	-4.257188e+01
9.800000e-07	-3.677444e-06	-6.546357e-10	-2.558370e+01	-4.243893e+01
9.900000e-07	-3.641966e-06	-6.532883e-10	-2.533688e+01	-4.230643e+01
1.000000e-06	-3.606306e-06	-6.545162e-10	-2.508879e+01	-4.217429e+01
1.010000e-06	-3.570530e-06	-6.505064e-10	-2.483990e+01	-4.204238e+01
1.020000e-06	-3.534630e-06	-6.447237e-10	-2.459015e+01	-4.191052e+01
1.030000e-06	-3.498547e-06	-6.480652e-10	-2.433912e+01	-4.177853e+01
1.040000e-06	-3.462194e-06	-6.454146e-10	-2.408622e+01	-4.164618e+01
1.050000e-06	-3.425551e-06	-6.379690e-10	-2.383129e+01	-4.151322e+01
1.060000e-06	-3.388679e-06	-6.319473e-10	-2.357478e+01	-4.137937e+01
1.070000e-06	-3.351582e-06	-6.319563e-10	-2.331670e+01	-4.124432e+01
1.080000e-06	-3.314255e-06	-6.271386e-10	-2.305702e+01	-4.110774e+01
1.090000e-06	-3.276630e-06	-6.253661e-10	-2.279527e+01	-4.096928e+01
1.100000e-06	-3.238758e-06	-6.221261e-10	-2.253179e+01	-4.082857e+01
1.110000e-06	-3.200733e-06	-6.157557e-10	-2.226726e+01	-4.068522e+01
1.120000e-06	-3.162492e-06	-6.081148e-10	-2.200122e+01	-4.053883e+01
1.130000e-06	-3.123992e-06	-6.087122e-10	-2.173337e+01	-4.038899e+01
1.140000e-06	-3.085247e-06	-6.054638e-10	-2.146383e+01	-4.023528e+01
1.150000e-06	-3.046330e-06	-5.986831e-10	-2.119309e+01	-4.007728e+01
1.160000e-06	-3.007285e-06	-5.940172e-10	-2.092145e+01	-3.991458e+01
1.170000e-06	-2.968061e-06	-5.928799e-10	-2.064857e+01	-3.974675e+01
1.180000e-06	-2.928624e-06	-5.898954e-10	-2.037422e+01	-3.957339e+01
1.190000e-06	-2.888992e-06	-5.884467e-10	-2.009850e+01	-3.939410e+01
1.200000e-06	-2.849219e-06	-5.876999e-10	-1.982180e+01	-3.920851e+01
1.210000e-06	-2.809340e-06	-5.847164e-10	-1.954436e+01	-3.901624e+01
1.220000e-06	-2.769365e-06	-5.801181e-10	-1.926626e+01	-3.881696e+01
1.230000e-06	-2.729240e-06	-5.747598e-10	-1.898711e+01	-3.861035e+01
1.240000e-06	-2.688913e-06	-5.685057e-10	-1.870656e+01	-3.839612e+01
1.250000e-06	-2.648330e-06	-5.627678e-10	-1.842423e+01	-3.817400e+01
1.260000e-06	-2.607536e-06	-5.626804e-10	-1.814043e+01	-3.794377e+01
1.270000e-06	-2.566525e-06	-5.643708e-10	-1.785512e+01	-3.770522e+01
1.280000e-06	-2.525350e-06	-5.627648e-10	-1.756867e+01	-3.745819e+01
1.290000e-06	-2.484001e-06	-5.573038e-10	-1.728101e+01	-3.720256e+01
1.300000e-06	-2.442221e-06	-5.514610e-10	-1.699034e+01	-3.693822e+01
1.310000e-06	-2.400013e-06	-5.426958e-10	-1.669671e+01	-3.666512e+01
1.320000e-06	-2.357479e-06	-5.357657e-10	-1.640080e+01	-3.638323e+01
1.330000e-06	-2.314646e-06	-5.342131e-10	-1.610281e+01	-3.609256e+01
1.340000e-06	-2.271643e-06	-5.345915e-10	-1.580365e+01	-3.579316e+01
1.350000e-06	-2.228526e-06	-5.296915e-10	-1.550369e+01	-3.548507e+01
1.360000e-06	-2.185175e-06	-5.242187e-10	-1.520209e+01	-3.516842e+01
1.370000e-06	-2.141617e-06	-5.174757e-10	-1.489906e+01	-3.484332e+01
1.380000e-06	-2.097959e-06	-5.111246e-10	-1.459534e+01	-3.450990e+01
1.390000e-06	-2.054236e-06	-5.041557e-10	-1.429116e+01	-3.416835e+01
1.400000e-06	-2.010425e-06	-4.999272e-10	-1.398637e+01	-3.381883e+01
1.410000e-06	-1.966545e-06	-4.955931e-10	-1.368110e+01	-3.346153e+01
1.420000e-06	-1.922601e-06	-4.910646e-10	-1.337539e+01	-3.309666e+01
1.430000e-06	-1.878600e-06	-4.859987e-10	-1.306928e+01	-3.272440e+01
1.440000e-06	-1.834531e-06	-4.806132e-10	-1.276269e+01	-3.234495e+01
1.450000e-06	-1.790310e-06	-4.723688e-10	-1.245505e+01	-3.195851e+01
1.460000e-06	-1.745908e-06	-4.630082e-10	-1.214615e+01	-3.156526e+01
1.470000e-06	-1.701392e-06	-4.546788e-10	-1.183645e+01	-3.116534e+01
1.480000e-06	-1.656790e-06	-4.473431e-10	-1.152616e+01	-3.075892e+01
1.490000e-06	-1.612005e-06	-4.415286e-10	-1.121459e+01	-3.034611e+01
1.500000e-06	-1.567063e-06	-4.383564e-10	-1.090194e+01	-2.992700e+01
1.510000e-06	-1.522026e-06	-4.339830e-10	-1.058862e+01	-2.950164e+01
1.520000e-06	-1.476867e-06	-4.256863e-10	-1.027445e+01	-2.907008e+01
1.530000e-06	-1.431591e-06	-4.134684e-10	-9.959471e+00	-2.863228e+01
1.540000e-06	-1.386234e-06	-4.011297e-10	-9.643923e+00	-2.818821e+01
1.550000e-06	-1.340817e-06	-3.911640e-10	-9.327964e+00	-2.773775e+01
1.560000e-06	-1.295320e-06	-3.825111e-10	-9.011444e+00	-2.728078e+01
1.570000e-06	-1.249757e-06	-3.772795e-10	-8.694461e+00	-2.681711e+01
1.580000e-06	-1.204100e-06	-3.726708e-10	-8.376828e+00	-2.634651e+01
1.590000e-06	-1.158318e-06	-3.662216e-10	-8.058331e+00	-2.586869e+01
1.600000e-06	-1.112416e-06	-3.587247e-10	-7.738994e+00	-2.538335e+01
1.610000e-06	-1.066470e-06	-3.498008e-10	-7.419351e+00	-2.489011e+01
1.620000e-06	-1.020501e-06	-3.389932e-10	-7.099548e+00	-2.438857e+01
1.630000e-06	-9.744293e-07	-3.289799e-10	-6.779030e+00	-2.387828e+01
1.640000e-06	-9.282688e-07	-3.180639e-10	-6.457895e+00	-2.335877e+01
1.650000e-06	-8.820052e-07	-3.088670e-10	-6.136042e+00	-2.282953e+01
1.660000e-06	-8.356477e-07	-3.015850e-10	-5.813537e+00	-2.229001e+01
1.670000e-06	-7.893093e-07	-2.974013e-10	-5.491164e+00	-2.173965e+01
1.680000e-06	-7.429673e-07	-2.919711e-10	-5.168767e+00	-2.117788e+01
1.690000e-06	-6.965647e-07	-2.868380e-10	-4.845948e+00	-2.060409e+01
1.700000e-06	-6.501358e-07	-2.794869e-10	-4.522945e+00	-2.001770e+01
1.710000e-06	-6.036252e-07	-2.677002e-10	-4.199374e+00	-1.941811e+01
1.720000e-06	-5.570686e-07	-2.549204e-10	-3.875484e+00	-1.880472e+01
1.730000e-06	-5.104784e-07	-2.422805e-10	-3.551359e+00	-1.817697e+01
1.740000e-06	-4.637356e-07	-2.301332e-10	-3.226173e+00	-1.753430e+01
1.750000e-06	-4.169110e-07	-2.221506e-10	-2.900418e+00	-1.687619e+01
1.760000e-06	-3.701738e-07	-2.151751e-10	-2.575271e+00	-1.620215e+01
1.770000e-06	-3.234589e-07	-2.074985e-10	-2.250279e+00	-1.551172e+01
1.780000e-06	-2.767181e-07	-2.000078e-10	-1.925107e+00	-1.480452e+01
1.790000e-06	-2.299657e-07	-1.881233e-10	-1.599854e+00	-1.408020e+01
1.800000e-06	-1.831329e-07	-1.721495e-10	-1.274041e+00	-1.333848e+01
1.810000e-06	-1.363111e-07	-1.552658e-10	-9.483057e-01	-1.257916e+01
1.820000e-06	-8.957141e-08	-1.403613e-10	-6.231415e-01	-1.180209e+01
1.830000e-06	-4.280676e-08	-1.292072e-10	-2.978034e-01	-1.100722e+01
1.840000e-06	4.003671e-09	-1.209885e-10	2.785323e-02	-1.019457e+01
1.850000e-06	5.083030e-08	-1.148579e-10	3.536225e-01	-9.364252e+00
1.860000e-06	9.760580e-08	-1.074032e-10	6.790360e-01	-8.516471e+00
1.870000e-06	1.443607e-07	-9.514787e-11	1.004306e+00	-7.651520e+00
1.880000e-06	1.910861e-07	-7.946004e-11	1.329371e+00	-6.769789e+00
1.890000e-06	2.377997e-07	-6.260937e-11	1.654355e+00	-5.871762e+00
1.900000e-06	2.846401e-07	-4.810046e-11	1.980219e+00	-4.958018e+00
1.910000e-06	3.315055e-07	-3.508926e-11	2.306258e+00	-4.029231e+00
1.920000e-06	3.782933e-07	-2.471254e-11	2.631758e+00	-3.086170e+00
1.930000e-06	4.249780e-07	-1.416752e-11	2.956540e+00	-2.129692e+00
1.940000e-06	4.715304e-07	-4.926490e-12	3.280401e+00	-1.160744e+00
1.950000e-06	5.179907e-07	4.719568e-12	3.603622e+00	-1.803566e-01
1.960000e-06	5.644406e-07	1.749201e-11	3.926770e+00	8.103608e-01
1.970000e-06	6.108979e-07	3.345432e-11	4.249970e+00	1.810225e+00
1.980000e-06	6.573002e-07	5.053545e-11	4.572787e+00	2.817983e+00
1.990000e-06	7.036423e-07	6.668397e-11	4.895185e+00	3.832324e+00
2.000000e-06	7.499625e-07	8.032894e-11	5.217432e+00	4.851880e+00
2.010000e-06	7.962346e-07	9.267066e-11	5.539343e+00	5.875238e+00
2.020000e-06	8.424271e-07	1.045783e-10	5.860701e+00	6.900948e+00
2.030000e-06	8.885963e-07	1.174269e-10	6.181896e+00	7.927529e+00
2.040000e-06	9.347380e-07	1.314775e-10	6.502901e+00	8.953481e+00
2.050000e-06	9.808413e-07	1.459681e-10	6.823638e+00	9.977291e+00
2.060000e-06	1.026887e-06	1.602394e-10	7.143973e+00	1.099745e+01
2.070000e-06	1.072762e-06	1.745289e-10	7.463124e+00	1.201244e+01
2.080000e-06	1.118572e-06	1.876503e-10	7.781823e+00	1.302078e+01
2.090000e-06	1.164357e-06	1.994008e-10	8.100342e+00	1.402101e+01
2.100000e-06	1.210040e-06	2.120074e-10	8.418154e+00	1.501169e+01
2.110000e-06	1.255640e-06	2.247735e-10	8.735391e+00	1.599145e+01
2.120000e-06	1.301146e-06	2.387080e-10	9.051976e+00	1.695894e+01
2.130000e-06	1.346554e-06	2.527358e-10	9.367873e+00	1.791290e+01
2.140000e-06	1.391871e-06	2.657001e-10	9.683140e+00	1.885212e+01
2.150000e-06	1.437047e-06	2.773034e-10	9.997423e+00	1.977547e+01
2.160000e-06	1.482116e-06	2.895943e-10	1.031097e+01	2.068190e+01
2.170000e-06	1.527146e-06	3.019173e-10	1.062424e+01	2.157046e+01
2.180000e-06	1.572096e-06	3.135427e-10	1.093695e+01	2.244026e+01
2.190000e-06	1.616901e-06	3.240745e-10	1.124866e+01	2.329054e+01
2.200000e-06	1.661521e-06	3.343519e-10	1.155908e+01	2.412062e+01
2.210000e-06	1.705996e-06	3.457577e-10	1.186849e+01	2.492993e+01
2.220000e-06	1.750339e-06	3.582926e-10	1.217697e+01	2.571799e+01
2.230000e-06	1.794508e-06	3.686803e-10	1.248425e+01	2.648445e+01
2.240000e-06	1.838553e-06	3.781862e-10	1.279067e+01	2.722903e+01
2.250000e-06	1.882568e-06	3.880059e-10	1.309688e+01	2.795159e+01
2.260000e-06	1.926563e-06	3.968130e-10	1.340295e+01	2.865207e+01
2.270000e-06	1.970496e-06	4.052430e-10	1.370859e+01	2.933051e+01
2.280000e-06	2.014345e-06	4.147067e-10	1.401365e+01	2.998705e+01
2.290000e-06	2.058123e-06	4.231337e-10	1.431820e+01	3.062192e+01
2.300000e-06	2.101843e-06	4.307461e-10	1.462236e+01	3.123544e+01
2.310000e-06	2.145493e-06	4.403935e-10	1.492603e+01	3.182802e+01
2.320000e-06	2.189100e-06	4.511066e-10	1.522940e+01	3.240013e+01
2.330000e-06	2.232612e-06	4.588238e-10	1.553211e+01	3.295232e+01
2.340000e-06	2.276011e-06	4.666688e-10	1.583403e+01	3.348520e+01
2.350000e-06	2.319186e-06	4.750159e-10	1.613440e+01	3.399943e+01
2.360000e-06	2.361927e-06	4.819951e-10	1.643174e+01	3.449574e+01
2.370000e-06	2.404220e-06	4.877186e-10	1.672598e+01	3.497487e+01
2.380000e-06	2.446271e-06	4.924559e-10	1.701852e+01	3.543761e+01
2.390000e-06	2.488082e-06	4.992747e-10	1.730940e+01	3.588478e+01
2.400000e-06	2.529561e-06	5.076323e-10	1.759796e+01	3.631719e+01
2.410000e-06	2.570777e-06	5.190698e-10	1.788470e+01	3.673570e+01
2.420000e-06	2.611687e-06	5.284257e-10	1.816931e+01	3.714112e+01
2.430000e-06	2.652315e-06	5.352789e-10	1.845195e+01	3.753430e+01
2.440000e-06	2.692688e-06	5.408640e-10	1.873283e+01	3.791604e+01
2.450000e-06	2.732828e-06	5.476631e-10	1.901208e+01	3.828714e+01
2.460000e-06	2.772858e-06	5.541088e-10	1.929056e+01	3.864837e+01
2.470000e-06	2.812807e-06	5.613982e-10	1.956848e+01	3.900046e+01
2.480000e-06	2.852650e-06	5.671183e-10	1.984567e+01	3.934411e+01
2.490000e-06	2.892440e-06	5.718934e-10	2.012249e+01	3.967995e+01
2.500000e-06	2.932137e-06	5.781906e-10	2.039866e+01	4.000860e+01
2.510000e-06	2.971576e-06	5.849500e-10	2.067302e+01	4.033060e+01
2.520000e-06	3.010720e-06	5.903461e-10	2.094535e+01	4.064645e+01
2.530000e-06	3.049717e-06	5.939503e-10	2.121665e+01	4.095659e+01
2.540000e-06	3.088467e-06	5.980089e-10	2.148623e+01	4.126140e+01
2.550000e-06	3.126900e-06	6.017718e-10	2.175361e+01	4.156119e+01
2.560000e-06	3.165152e-06	6.061253e-10	2.201972e+01	4.185624e+01
2.570000e-06	3.203265e-06	6.095366e-10	2.228487e+01	4.214673e+01
2.580000e-06	3.241215e-06	6.114653e-10	2.254888e+01	4.243281e+01
2.590000e-06	3.278933e-06	6.141412e-10	2.281129e+01	4.271458e+01
2.600000e-06	3.316392e-06	6.199351e-10	2.307188e+01	4.299206e+01
2.610000e-06	3.353634e-06	6.275737e-10	2.333098e+01	4.326524e+01
2.620000e-06	3.390667e-06	6.346909e-10	2.358861e+01	4.353406e+01
2.630000e-06	3.427423e-06	6.368905e-10	2.384432e+01	4.379840e+01
2.640000e-06	3.463861e-06	6.374205e-10	2.409782e+01	4.405811e+01
2.650000e-06	3.500040e-06	6.395210e-10	2.434951e+01	4.431302e+01
2.660000e-06	3.536051e-06	6.429284e-10	2.460004e+01	4.456292e+01
2.670000e-06	3.571957e-06	6.461136e-10	2.484983e+01	4.480755e+01
2.680000e-06	3.607776e-06	6.510668e-10	2.509902e+01	4.504668e+01
2.690000e-06	3.643486e-06	6.569160e-10	2.534746e+01	4.528002e+01
2.700000e-06	3.679004e-06	6.614359e-10	2.559455e+01	4.550729e+01
2.710000e-06	3.714325e-06	6.648825e-10	2.584027e+01	4.572822e+01
2.720000e-06	3.749445e-06	6.704933e-10	2.608460e+01	4.594251e+01
2.730000e-06	3.784139e-06	6.747221e-10	2.632596e+01	4.614990e+01
2.740000e-06	3.818259e-06	6.768092e-10	2.656334e+01	4.635012e+01
2.750000e-06	3.851879e-06	6.783937e-10	2.679723e+01	4.654292e+01
2.760000e-06	3.885003e-06	6.825607e-10	2.702767e+01	4.672808e+01
2.770000e-06	3.917661e-06	6.875826e-10	2.725487e+01	4.690539e+01
2.780000e-06	3.949980e-06	6.921497e-10	2.747971e+01	4.707469e+01
2.790000e-06	3.982072e-06	6.952780e-10	2.770297e+01	4.723582e+01
2.800000e-06	4.014016e-06	6.969878e-10	2.792520e+01	4.738868e+01
2.810000e-06	4.045860e-06	6.989042e-10	2.814674e+01	4.753320e+01
2.820000e-06	4.077549e-06	7.015522e-10	2.836720e+01	4.766935e+01
2.830000e-06	4.108995e-06	7.048316e-10	2.858597e+01	4.779712e+01
2.840000e-06	4.140209e-06	7.057344e-10	2.880312e+01	4.791656e+01
2.850000e-06	4.171086e-06	7.060344e-10	2.901793e+01	4.802777e+01
2.860000e-06	4.201515e-06	7.067389e-10	2.922962e+01	4.813086e+01
2.870000e-06	4.231638e-06	7.055505e-10	2.943918e+01	4.822600e+01
2.880000e-06	4.261580e-06	7.041321e-10	2.964748e+01	4.831339e+01
2.890000e-06	4.291266e-06	7.049536e-10	2.985401e+01	4.839326e+01
2.900000e-06	4.320685e-06	7.068041e-10	3.005867e+01	4.846589e+01
