# Temperatura_=_-0.25
# Concentracion g/m^3_=_1620.0
# C_Vs_to_Am_M_A/Vsm_=_65563218390.804596
# pendiente_HvsI_1/m_=_3716.3
# ordenada_HvsI_A/m_=_1297.0
# frecuencia_Hz_=_135109.20872959925

Tiempo_(s)	Campo_(V.s)	Magnetizacion_(V.s)	Campo_(kA/m)	Magnetizacion_(A/m)
0.000000e+00	-5.515661e-06	-9.812213e-10	-3.837596e+01	-6.422833e+01
1.000000e-08	-5.515803e-06	-9.862698e-10	-3.837695e+01	-6.421917e+01
2.000000e-08	-5.515627e-06	-9.913536e-10	-3.837572e+01	-6.420955e+01
3.000000e-08	-5.515032e-06	-9.932887e-10	-3.837159e+01	-6.419944e+01
4.000000e-08	-5.513915e-06	-9.892375e-10	-3.836381e+01	-6.418881e+01
5.000000e-08	-5.512291e-06	-9.779464e-10	-3.835251e+01	-6.417759e+01
6.000000e-08	-5.510054e-06	-9.542108e-10	-3.833695e+01	-6.416572e+01
7.000000e-08	-5.507180e-06	-9.260348e-10	-3.831695e+01	-6.415313e+01
8.000000e-08	-5.503867e-06	-9.460897e-10	-3.829390e+01	-6.413971e+01
9.000000e-08	-5.500106e-06	-1.041754e-09	-3.826774e+01	-6.412538e+01
1.000000e-07	-5.495833e-06	-1.071383e-09	-3.823800e+01	-6.411003e+01
1.100000e-07	-5.491225e-06	-9.632474e-10	-3.820594e+01	-6.409356e+01
1.200000e-07	-5.486511e-06	-8.665343e-10	-3.817315e+01	-6.407583e+01
1.300000e-07	-5.481663e-06	-9.511365e-10	-3.813941e+01	-6.405673e+01
1.400000e-07	-5.476448e-06	-1.025152e-09	-3.810313e+01	-6.403615e+01
1.500000e-07	-5.470777e-06	-9.545721e-10	-3.806367e+01	-6.401395e+01
1.600000e-07	-5.464712e-06	-8.610831e-10	-3.802148e+01	-6.399001e+01
1.700000e-07	-5.458314e-06	-9.513247e-10	-3.797696e+01	-6.396422e+01
1.800000e-07	-5.451434e-06	-1.047818e-09	-3.792909e+01	-6.393646e+01
1.900000e-07	-5.444107e-06	-9.952207e-10	-3.787812e+01	-6.390661e+01
2.000000e-07	-5.436543e-06	-9.020075e-10	-3.782549e+01	-6.387457e+01
2.100000e-07	-5.428738e-06	-9.480039e-10	-3.777118e+01	-6.384024e+01
2.200000e-07	-5.420621e-06	-1.030560e-09	-3.771470e+01	-6.380353e+01
2.300000e-07	-5.412222e-06	-1.021359e-09	-3.765627e+01	-6.376436e+01
2.400000e-07	-5.403415e-06	-9.715241e-10	-3.759499e+01	-6.372265e+01
2.500000e-07	-5.393979e-06	-9.852826e-10	-3.752934e+01	-6.367834e+01
2.600000e-07	-5.383826e-06	-1.028663e-09	-3.745870e+01	-6.363139e+01
2.700000e-07	-5.373010e-06	-1.007489e-09	-3.738344e+01	-6.358174e+01
2.800000e-07	-5.361748e-06	-9.845957e-10	-3.730509e+01	-6.352937e+01
2.900000e-07	-5.350077e-06	-1.002010e-09	-3.722389e+01	-6.347425e+01
3.000000e-07	-5.338043e-06	-1.039763e-09	-3.714016e+01	-6.341638e+01
3.100000e-07	-5.325690e-06	-1.006101e-09	-3.705421e+01	-6.335575e+01
3.200000e-07	-5.312846e-06	-9.785932e-10	-3.696485e+01	-6.329238e+01
3.300000e-07	-5.299599e-06	-9.828189e-10	-3.687268e+01	-6.322628e+01
3.400000e-07	-5.286101e-06	-1.014775e-09	-3.677876e+01	-6.315747e+01
3.500000e-07	-5.272187e-06	-9.781506e-10	-3.668196e+01	-6.308600e+01
3.600000e-07	-5.257731e-06	-9.682599e-10	-3.658138e+01	-6.301190e+01
3.700000e-07	-5.242886e-06	-9.998783e-10	-3.647809e+01	-6.293522e+01
3.800000e-07	-5.227597e-06	-1.016237e-09	-3.637171e+01	-6.285600e+01
3.900000e-07	-5.211626e-06	-9.592459e-10	-3.626059e+01	-6.277429e+01
4.000000e-07	-5.195156e-06	-9.703036e-10	-3.614601e+01	-6.269017e+01
4.100000e-07	-5.178451e-06	-1.013046e-09	-3.602978e+01	-6.260367e+01
4.200000e-07	-5.161447e-06	-9.698580e-10	-3.591147e+01	-6.251485e+01
4.300000e-07	-5.144022e-06	-9.250863e-10	-3.579023e+01	-6.242378e+01
4.400000e-07	-5.126316e-06	-9.976440e-10	-3.566704e+01	-6.233049e+01
4.500000e-07	-5.108331e-06	-1.016992e-09	-3.554191e+01	-6.223505e+01
4.600000e-07	-5.089803e-06	-9.315160e-10	-3.541300e+01	-6.213750e+01
4.700000e-07	-5.070747e-06	-9.406336e-10	-3.528041e+01	-6.203787e+01
4.800000e-07	-5.051383e-06	-1.002394e-09	-3.514568e+01	-6.193620e+01
4.900000e-07	-5.031840e-06	-9.554119e-10	-3.500971e+01	-6.183254e+01
5.000000e-07	-5.012132e-06	-9.224789e-10	-3.487259e+01	-6.172688e+01
5.100000e-07	-4.992229e-06	-9.840231e-10	-3.473411e+01	-6.161926e+01
5.200000e-07	-4.972068e-06	-9.630194e-10	-3.459384e+01	-6.150969e+01
5.300000e-07	-4.951549e-06	-9.151821e-10	-3.445108e+01	-6.139815e+01
5.400000e-07	-4.930645e-06	-9.715837e-10	-3.430563e+01	-6.128466e+01
5.500000e-07	-4.909325e-06	-9.914448e-10	-3.415729e+01	-6.116921e+01
5.600000e-07	-4.887640e-06	-9.063956e-10	-3.400642e+01	-6.105176e+01
5.700000e-07	-4.865695e-06	-9.195083e-10	-3.385373e+01	-6.093230e+01
5.800000e-07	-4.843402e-06	-9.741818e-10	-3.369863e+01	-6.081081e+01
5.900000e-07	-4.820725e-06	-9.323573e-10	-3.354085e+01	-6.068724e+01
6.000000e-07	-4.797667e-06	-9.055290e-10	-3.338042e+01	-6.056156e+01
6.100000e-07	-4.774253e-06	-9.588500e-10	-3.321751e+01	-6.043374e+01
6.200000e-07	-4.750564e-06	-9.381340e-10	-3.305270e+01	-6.030372e+01
6.300000e-07	-4.726719e-06	-8.962837e-10	-3.288679e+01	-6.017146e+01
6.400000e-07	-4.702749e-06	-9.236331e-10	-3.272002e+01	-6.003691e+01
6.500000e-07	-4.678410e-06	-9.331000e-10	-3.255067e+01	-5.990005e+01
6.600000e-07	-4.653567e-06	-8.946811e-10	-3.237783e+01	-5.976081e+01
6.700000e-07	-4.628146e-06	-9.110717e-10	-3.220095e+01	-5.961916e+01
6.800000e-07	-4.602057e-06	-9.272147e-10	-3.201944e+01	-5.947506e+01
6.900000e-07	-4.575450e-06	-8.987990e-10	-3.183431e+01	-5.932849e+01
7.000000e-07	-4.548445e-06	-8.932894e-10	-3.164642e+01	-5.917941e+01
7.100000e-07	-4.521152e-06	-9.117913e-10	-3.145653e+01	-5.902780e+01
7.200000e-07	-4.493646e-06	-8.913325e-10	-3.126515e+01	-5.887365e+01
7.300000e-07	-4.465928e-06	-8.769862e-10	-3.107230e+01	-5.871695e+01
7.400000e-07	-4.438066e-06	-8.911798e-10	-3.087845e+01	-5.855770e+01
7.500000e-07	-4.409983e-06	-8.870476e-10	-3.068306e+01	-5.839591e+01
7.600000e-07	-4.381569e-06	-8.743340e-10	-3.048536e+01	-5.823159e+01
7.700000e-07	-4.352839e-06	-8.828919e-10	-3.028547e+01	-5.806476e+01
7.800000e-07	-4.323801e-06	-8.821647e-10	-3.008344e+01	-5.789547e+01
7.900000e-07	-4.294502e-06	-8.688999e-10	-2.987958e+01	-5.772374e+01
8.000000e-07	-4.264935e-06	-8.734088e-10	-2.967386e+01	-5.754962e+01
8.100000e-07	-4.235072e-06	-8.711117e-10	-2.946609e+01	-5.737317e+01
8.200000e-07	-4.204914e-06	-8.571283e-10	-2.925626e+01	-5.719444e+01
8.300000e-07	-4.174434e-06	-8.592772e-10	-2.904419e+01	-5.701349e+01
8.400000e-07	-4.143650e-06	-8.706779e-10	-2.883000e+01	-5.683040e+01
8.500000e-07	-4.112580e-06	-8.610057e-10	-2.861384e+01	-5.664523e+01
8.600000e-07	-4.081265e-06	-8.554502e-10	-2.839596e+01	-5.645806e+01
8.700000e-07	-4.049769e-06	-8.563676e-10	-2.817682e+01	-5.626896e+01
8.800000e-07	-4.018157e-06	-8.465102e-10	-2.795687e+01	-5.607799e+01
8.900000e-07	-3.986380e-06	-8.330490e-10	-2.773578e+01	-5.588523e+01
9.000000e-07	-3.954291e-06	-8.388003e-10	-2.751252e+01	-5.569074e+01
9.100000e-07	-3.921837e-06	-8.368914e-10	-2.728671e+01	-5.549459e+01
9.200000e-07	-3.889049e-06	-8.294174e-10	-2.705859e+01	-5.529682e+01
9.300000e-07	-3.855892e-06	-8.340826e-10	-2.682789e+01	-5.509748e+01
9.400000e-07	-3.822265e-06	-8.412790e-10	-2.659393e+01	-5.489661e+01
9.500000e-07	-3.788176e-06	-8.306236e-10	-2.635675e+01	-5.469423e+01
9.600000e-07	-3.753604e-06	-8.244868e-10	-2.611621e+01	-5.449036e+01
9.700000e-07	-3.718575e-06	-8.229937e-10	-2.587249e+01	-5.428499e+01
9.800000e-07	-3.683230e-06	-8.130614e-10	-2.562658e+01	-5.407812e+01
9.900000e-07	-3.647687e-06	-8.048143e-10	-2.537928e+01	-5.386971e+01
1.000000e-06	-3.612060e-06	-8.104326e-10	-2.513140e+01	-5.365972e+01
1.010000e-06	-3.576345e-06	-8.125435e-10	-2.488291e+01	-5.344809e+01
1.020000e-06	-3.540490e-06	-8.085204e-10	-2.463344e+01	-5.323474e+01
1.030000e-06	-3.504477e-06	-8.082639e-10	-2.438287e+01	-5.301957e+01
1.040000e-06	-3.468185e-06	-8.058049e-10	-2.413037e+01	-5.280248e+01
1.050000e-06	-3.431585e-06	-7.910369e-10	-2.387572e+01	-5.258333e+01
1.060000e-06	-3.394739e-06	-7.798664e-10	-2.361936e+01	-5.236199e+01
1.070000e-06	-3.357639e-06	-7.785321e-10	-2.336123e+01	-5.213828e+01
1.080000e-06	-3.320297e-06	-7.764510e-10	-2.310142e+01	-5.191204e+01
1.090000e-06	-3.282745e-06	-7.757865e-10	-2.284014e+01	-5.168307e+01
1.100000e-06	-3.244969e-06	-7.779094e-10	-2.257731e+01	-5.145118e+01
1.110000e-06	-3.206967e-06	-7.732206e-10	-2.231291e+01	-5.121614e+01
1.120000e-06	-3.168727e-06	-7.598687e-10	-2.204685e+01	-5.097773e+01
1.130000e-06	-3.130296e-06	-7.530117e-10	-2.177946e+01	-5.073571e+01
1.140000e-06	-3.091766e-06	-7.486884e-10	-2.151138e+01	-5.048984e+01
1.150000e-06	-3.052981e-06	-7.435935e-10	-2.124153e+01	-5.023986e+01
1.160000e-06	-3.013857e-06	-7.377917e-10	-2.096932e+01	-4.998554e+01
1.170000e-06	-2.974537e-06	-7.345448e-10	-2.069575e+01	-4.972660e+01
1.180000e-06	-2.935053e-06	-7.296827e-10	-2.042103e+01	-4.946280e+01
1.190000e-06	-2.895411e-06	-7.275060e-10	-2.014521e+01	-4.919387e+01
1.200000e-06	-2.855736e-06	-7.256254e-10	-1.986917e+01	-4.891957e+01
1.210000e-06	-2.815981e-06	-7.205177e-10	-1.959257e+01	-4.863964e+01
1.220000e-06	-2.776052e-06	-7.121600e-10	-1.931476e+01	-4.835385e+01
1.230000e-06	-2.735924e-06	-7.081003e-10	-1.903556e+01	-4.806195e+01
1.240000e-06	-2.695612e-06	-7.023939e-10	-1.875509e+01	-4.776373e+01
1.250000e-06	-2.655073e-06	-6.962247e-10	-1.847303e+01	-4.745896e+01
1.260000e-06	-2.614278e-06	-6.928991e-10	-1.818920e+01	-4.714746e+01
1.270000e-06	-2.573290e-06	-6.928126e-10	-1.790401e+01	-4.682902e+01
1.280000e-06	-2.531989e-06	-6.892889e-10	-1.761666e+01	-4.650346e+01
1.290000e-06	-2.490335e-06	-6.838772e-10	-1.732685e+01	-4.617063e+01
1.300000e-06	-2.448344e-06	-6.777439e-10	-1.703469e+01	-4.583038e+01
1.310000e-06	-2.406106e-06	-6.702050e-10	-1.674081e+01	-4.548257e+01
1.320000e-06	-2.363676e-06	-6.624656e-10	-1.644560e+01	-4.512707e+01
1.330000e-06	-2.320901e-06	-6.602402e-10	-1.614798e+01	-4.476379e+01
1.340000e-06	-2.277862e-06	-6.600876e-10	-1.584853e+01	-4.439261e+01
1.350000e-06	-2.234635e-06	-6.550025e-10	-1.554777e+01	-4.401347e+01
1.360000e-06	-2.191209e-06	-6.480143e-10	-1.524563e+01	-4.362629e+01
1.370000e-06	-2.147683e-06	-6.405157e-10	-1.494279e+01	-4.323101e+01
1.380000e-06	-2.104107e-06	-6.316580e-10	-1.463961e+01	-4.282756e+01
1.390000e-06	-2.060434e-06	-6.235771e-10	-1.433575e+01	-4.241591e+01
1.400000e-06	-2.016686e-06	-6.185606e-10	-1.403137e+01	-4.199600e+01
1.410000e-06	-1.972903e-06	-6.135382e-10	-1.372674e+01	-4.156779e+01
1.420000e-06	-1.929080e-06	-6.091586e-10	-1.342183e+01	-4.113125e+01
1.430000e-06	-1.885221e-06	-6.045823e-10	-1.311668e+01	-4.068633e+01
1.440000e-06	-1.841287e-06	-5.989028e-10	-1.281100e+01	-4.023297e+01
1.450000e-06	-1.797189e-06	-5.903900e-10	-1.250419e+01	-3.977114e+01
1.460000e-06	-1.752911e-06	-5.814228e-10	-1.219611e+01	-3.930075e+01
1.470000e-06	-1.708517e-06	-5.715302e-10	-1.188724e+01	-3.882174e+01
1.480000e-06	-1.663915e-06	-5.631886e-10	-1.157692e+01	-3.833402e+01
1.490000e-06	-1.619163e-06	-5.555279e-10	-1.126555e+01	-3.783748e+01
1.500000e-06	-1.574360e-06	-5.494299e-10	-1.095382e+01	-3.733201e+01
1.510000e-06	-1.529420e-06	-5.424213e-10	-1.064115e+01	-3.681747e+01
1.520000e-06	-1.484370e-06	-5.352127e-10	-1.032771e+01	-3.629369e+01
1.530000e-06	-1.439243e-06	-5.254306e-10	-1.001373e+01	-3.576050e+01
1.540000e-06	-1.393962e-06	-5.146514e-10	-9.698682e+00	-3.521770e+01
1.550000e-06	-1.348514e-06	-5.037890e-10	-9.382469e+00	-3.466506e+01
1.560000e-06	-1.303026e-06	-4.913594e-10	-9.065982e+00	-3.410232e+01
1.570000e-06	-1.257537e-06	-4.778635e-10	-8.749484e+00	-3.352922e+01
1.580000e-06	-1.211918e-06	-4.657674e-10	-8.432088e+00	-3.294545e+01
1.590000e-06	-1.166148e-06	-4.545100e-10	-8.113632e+00	-3.235071e+01
1.600000e-06	-1.120313e-06	-4.430344e-10	-7.794733e+00	-3.174464e+01
1.610000e-06	-1.074428e-06	-4.326382e-10	-7.475482e+00	-3.112689e+01
1.620000e-06	-1.028464e-06	-4.229214e-10	-7.155679e+00	-3.049708e+01
1.630000e-06	-9.823839e-07	-4.123651e-10	-6.835069e+00	-2.985482e+01
1.640000e-06	-9.362944e-07	-3.995134e-10	-6.514395e+00	-2.919969e+01
1.650000e-06	-8.901533e-07	-3.869152e-10	-6.193363e+00	-2.853128e+01
1.660000e-06	-8.439084e-07	-3.752161e-10	-5.871607e+00	-2.784916e+01
1.670000e-06	-7.976448e-07	-3.635211e-10	-5.549722e+00	-2.715291e+01
1.680000e-06	-7.513342e-07	-3.530504e-10	-5.227509e+00	-2.644209e+01
1.690000e-06	-7.049856e-07	-3.448632e-10	-4.905033e+00	-2.571629e+01
1.700000e-06	-6.585753e-07	-3.366848e-10	-4.582127e+00	-2.497509e+01
1.710000e-06	-6.120623e-07	-3.254268e-10	-4.258507e+00	-2.421808e+01
1.720000e-06	-5.654860e-07	-3.133598e-10	-3.934446e+00	-2.344489e+01
1.730000e-06	-5.188614e-07	-3.008589e-10	-3.610049e+00	-2.265516e+01
1.740000e-06	-4.722346e-07	-2.865175e-10	-3.285637e+00	-2.184855e+01
1.750000e-06	-4.256054e-07	-2.745980e-10	-2.961208e+00	-2.102477e+01
1.760000e-06	-3.789229e-07	-2.634163e-10	-2.636408e+00	-2.018356e+01
1.770000e-06	-3.321649e-07	-2.521398e-10	-2.311082e+00	-1.932470e+01
1.780000e-06	-2.853414e-07	-2.409075e-10	-1.985302e+00	-1.844803e+01
1.790000e-06	-2.385114e-07	-2.265316e-10	-1.659476e+00	-1.755342e+01
1.800000e-06	-1.917072e-07	-2.087295e-10	-1.333829e+00	-1.664081e+01
1.810000e-06	-1.449080e-07	-1.933013e-10	-1.008217e+00	-1.571021e+01
1.820000e-06	-9.804503e-08	-1.806729e-10	-6.821616e-01	-1.476168e+01
1.830000e-06	-5.118812e-08	-1.686069e-10	-3.561483e-01	-1.379535e+01
1.840000e-06	-4.407546e-09	-1.558156e-10	-3.066610e-02	-1.281141e+01
1.850000e-06	4.229325e-08	-1.439097e-10	2.942610e-01	-1.181015e+01
1.860000e-06	8.896664e-08	-1.307541e-10	6.189975e-01	-1.079191e+01
1.870000e-06	1.357101e-07	-1.140913e-10	9.442213e-01	-9.757110e+00
1.880000e-06	1.824419e-07	-9.708571e-11	1.269364e+00	-8.706258e+00
1.890000e-06	2.291412e-07	-8.143929e-11	1.594281e+00	-7.639930e+00
1.900000e-06	2.758586e-07	-6.572429e-11	1.919323e+00	-6.558779e+00
1.910000e-06	3.225634e-07	-5.063388e-11	2.244279e+00	-5.463537e+00
1.920000e-06	3.692196e-07	-3.794355e-11	2.568896e+00	-4.355009e+00
1.930000e-06	4.158709e-07	-2.436469e-11	2.893479e+00	-3.234073e+00
1.940000e-06	4.625244e-07	-1.043926e-11	3.218076e+00	-2.101677e+00
1.950000e-06	5.090696e-07	2.132083e-12	3.541921e+00	-9.588341e-01
1.960000e-06	5.555130e-07	1.561148e-11	3.865057e+00	1.933776e-01
1.970000e-06	6.020077e-07	3.156934e-11	4.188550e+00	1.353823e+00
1.980000e-06	6.485738e-07	4.864268e-11	4.512540e+00	2.521311e+00
1.990000e-06	6.950829e-07	6.746823e-11	4.836134e+00	3.694607e+00
2.000000e-06	7.414755e-07	8.800572e-11	5.158917e+00	4.872427e+00
2.010000e-06	7.877420e-07	1.067061e-10	5.480822e+00	6.053457e+00
2.020000e-06	8.338842e-07	1.219096e-10	5.801863e+00	7.236349e+00
2.030000e-06	8.800030e-07	1.350964e-10	6.122740e+00	8.419734e+00
2.040000e-06	9.261233e-07	1.484461e-10	6.443629e+00	9.602225e+00
2.050000e-06	9.721660e-07	1.640254e-10	6.763977e+00	1.078243e+01
2.060000e-06	1.018130e-06	1.823436e-10	7.083776e+00	1.195895e+01
2.070000e-06	1.064012e-06	2.035275e-10	7.403007e+00	1.313039e+01
2.080000e-06	1.109807e-06	2.249187e-10	7.721634e+00	1.429539e+01
2.090000e-06	1.155543e-06	2.443153e-10	8.039850e+00	1.545257e+01
2.100000e-06	1.201280e-06	2.611525e-10	8.358066e+00	1.660063e+01
2.110000e-06	1.246923e-06	2.744635e-10	8.675637e+00	1.773826e+01
2.120000e-06	1.292393e-06	2.858184e-10	8.992000e+00	1.886421e+01
2.130000e-06	1.337724e-06	2.978089e-10	9.307396e+00	1.997729e+01
2.140000e-06	1.383039e-06	3.115817e-10	9.622684e+00	2.107635e+01
2.150000e-06	1.428328e-06	3.277754e-10	9.937785e+00	2.216030e+01
2.160000e-06	1.473446e-06	3.454521e-10	1.025170e+01	2.322813e+01
2.170000e-06	1.518399e-06	3.629737e-10	1.056447e+01	2.427888e+01
2.180000e-06	1.563248e-06	3.780662e-10	1.087651e+01	2.531169e+01
2.190000e-06	1.607954e-06	3.908130e-10	1.118756e+01	2.632577e+01
2.200000e-06	1.652530e-06	4.028840e-10	1.149770e+01	2.732040e+01
2.210000e-06	1.697027e-06	4.158286e-10	1.180729e+01	2.829496e+01
2.220000e-06	1.741363e-06	4.303842e-10	1.211577e+01	2.924891e+01
2.230000e-06	1.785601e-06	4.436728e-10	1.242356e+01	3.018181e+01
2.240000e-06	1.829773e-06	4.558569e-10	1.273089e+01	3.109330e+01
2.250000e-06	1.873768e-06	4.678012e-10	1.303699e+01	3.198310e+01
2.260000e-06	1.917625e-06	4.786316e-10	1.334214e+01	3.285103e+01
2.270000e-06	1.961409e-06	4.888348e-10	1.364677e+01	3.369699e+01
2.280000e-06	2.005148e-06	4.994638e-10	1.395109e+01	3.452099e+01
2.290000e-06	2.048860e-06	5.108205e-10	1.425522e+01	3.532308e+01
2.300000e-06	2.092513e-06	5.224785e-10	1.455894e+01	3.610341e+01
2.310000e-06	2.136110e-06	5.335025e-10	1.486227e+01	3.686223e+01
2.320000e-06	2.179627e-06	5.429639e-10	1.516505e+01	3.759981e+01
2.330000e-06	2.223071e-06	5.503084e-10	1.546732e+01	3.831653e+01
2.340000e-06	2.266411e-06	5.575190e-10	1.576886e+01	3.901280e+01
2.350000e-06	2.309517e-06	5.673279e-10	1.606877e+01	3.968912e+01
2.360000e-06	2.352381e-06	5.792752e-10	1.636701e+01	4.034602e+01
2.370000e-06	2.395019e-06	5.910288e-10	1.666367e+01	4.098406e+01
2.380000e-06	2.437405e-06	6.027286e-10	1.695857e+01	4.160387e+01
2.390000e-06	2.479442e-06	6.146330e-10	1.725106e+01	4.220609e+01
2.400000e-06	2.521057e-06	6.255540e-10	1.754060e+01	4.279138e+01
2.410000e-06	2.562385e-06	6.342627e-10	1.782814e+01	4.336045e+01
2.420000e-06	2.603527e-06	6.416459e-10	1.811439e+01	4.391399e+01
2.430000e-06	2.644369e-06	6.491365e-10	1.839855e+01	4.445271e+01
2.440000e-06	2.684853e-06	6.575678e-10	1.868023e+01	4.497731e+01
2.450000e-06	2.725138e-06	6.666554e-10	1.896052e+01	4.548851e+01
2.460000e-06	2.765266e-06	6.766898e-10	1.923972e+01	4.598700e+01
2.470000e-06	2.805220e-06	6.851967e-10	1.951770e+01	4.647343e+01
2.480000e-06	2.845067e-06	6.921409e-10	1.979494e+01	4.694848e+01
2.490000e-06	2.884830e-06	6.994390e-10	2.007160e+01	4.741276e+01
2.500000e-06	2.924442e-06	7.043222e-10	2.034720e+01	4.786688e+01
2.510000e-06	2.963895e-06	7.099513e-10	2.062170e+01	4.831138e+01
2.520000e-06	3.003228e-06	7.161443e-10	2.089537e+01	4.874680e+01
2.530000e-06	3.042365e-06	7.226507e-10	2.116767e+01	4.917362e+01
2.540000e-06	3.081242e-06	7.275958e-10	2.143816e+01	4.959227e+01
2.550000e-06	3.119800e-06	7.328281e-10	2.170643e+01	5.000317e+01
2.560000e-06	3.158126e-06	7.384009e-10	2.197309e+01	5.040665e+01
2.570000e-06	3.196239e-06	7.435484e-10	2.223827e+01	5.080302e+01
2.580000e-06	3.234123e-06	7.485800e-10	2.250185e+01	5.119254e+01
2.590000e-06	3.271802e-06	7.540140e-10	2.276401e+01	5.157544e+01
2.600000e-06	3.309274e-06	7.621690e-10	2.302472e+01	5.195187e+01
2.610000e-06	3.346594e-06	7.704438e-10	2.328438e+01	5.232196e+01
2.620000e-06	3.383658e-06	7.770290e-10	2.354226e+01	5.268581e+01
2.630000e-06	3.420440e-06	7.816117e-10	2.379817e+01	5.304346e+01
2.640000e-06	3.456995e-06	7.835071e-10	2.405251e+01	5.339491e+01
2.650000e-06	3.493299e-06	7.853415e-10	2.430510e+01	5.374015e+01
2.660000e-06	3.529248e-06	7.899464e-10	2.455522e+01	5.407912e+01
2.670000e-06	3.564954e-06	7.974368e-10	2.480365e+01	5.441174e+01
2.680000e-06	3.600651e-06	8.053825e-10	2.505202e+01	5.473792e+01
2.690000e-06	3.636324e-06	8.103057e-10	2.530022e+01	5.505752e+01
2.700000e-06	3.671853e-06	8.164278e-10	2.554741e+01	5.537042e+01
2.710000e-06	3.707184e-06	8.212231e-10	2.579324e+01	5.567646e+01
2.720000e-06	3.742280e-06	8.248602e-10	2.603742e+01	5.597550e+01
2.730000e-06	3.776977e-06	8.288362e-10	2.627883e+01	5.626737e+01
2.740000e-06	3.811222e-06	8.315160e-10	2.651709e+01	5.655192e+01
2.750000e-06	3.845118e-06	8.331589e-10	2.675293e+01	5.682900e+01
2.760000e-06	3.878543e-06	8.356027e-10	2.698549e+01	5.709846e+01
2.770000e-06	3.911382e-06	8.396208e-10	2.721397e+01	5.736019e+01
2.780000e-06	3.943823e-06	8.443932e-10	2.743968e+01	5.761405e+01
2.790000e-06	3.976028e-06	8.490586e-10	2.766375e+01	5.785996e+01
2.800000e-06	4.007988e-06	8.535556e-10	2.788612e+01	5.809784e+01
2.810000e-06	4.039752e-06	8.568139e-10	2.810712e+01	5.832764e+01
2.820000e-06	4.071370e-06	8.604418e-10	2.832711e+01	5.854933e+01
2.830000e-06	4.102873e-06	8.630819e-10	2.854629e+01	5.876291e+01
2.840000e-06	4.134110e-06	8.636490e-10	2.876363e+01	5.896841e+01
2.850000e-06	4.164985e-06	8.646279e-10	2.897845e+01	5.916588e+01
2.860000e-06	4.195495e-06	8.665639e-10	2.919073e+01	5.935541e+01
2.870000e-06	4.225652e-06	8.700771e-10	2.940055e+01	5.953711e+01
2.880000e-06	4.255575e-06	8.749726e-10	2.960874e+01	5.971113e+01
2.890000e-06	4.285309e-06	8.813493e-10	2.981562e+01	5.987764e+01
2.900000e-06	4.314850e-06	8.876949e-10	3.002116e+01	6.003684e+01
