# Temperatura_=_-0.24
# Concentracion g/m^3_=_1620.0
# C_Vs_to_Am_M_A/Vsm_=_65563218390.804596
# pendiente_HvsI_1/m_=_3716.3
# ordenada_HvsI_A/m_=_1297.0
# frecuencia_Hz_=_135107.5590978531

Tiempo_(s)	Campo_(V.s)	Magnetizacion_(V.s)	Campo_(kA/m)	Magnetizacion_(A/m)
0.000000e+00	-5.523336e-06	-1.201154e-09	-3.836829e+01	-7.673253e+01
1.000000e-08	-5.523500e-06	-1.199511e-09	-3.836943e+01	-7.672314e+01
2.000000e-08	-5.523459e-06	-1.199815e-09	-3.836914e+01	-7.670986e+01
3.000000e-08	-5.522974e-06	-1.199184e-09	-3.836578e+01	-7.669252e+01
4.000000e-08	-5.521927e-06	-1.197317e-09	-3.835850e+01	-7.667095e+01
5.000000e-08	-5.520413e-06	-1.195261e-09	-3.834798e+01	-7.664502e+01
6.000000e-08	-5.518381e-06	-1.192391e-09	-3.833387e+01	-7.661457e+01
7.000000e-08	-5.515783e-06	-1.183953e-09	-3.831582e+01	-7.657950e+01
8.000000e-08	-5.512665e-06	-1.166071e-09	-3.829416e+01	-7.653968e+01
9.000000e-08	-5.509084e-06	-1.163033e-09	-3.826928e+01	-7.649504e+01
1.000000e-07	-5.505109e-06	-1.208300e-09	-3.824167e+01	-7.644551e+01
1.100000e-07	-5.500753e-06	-1.250631e-09	-3.821142e+01	-7.639104e+01
1.200000e-07	-5.496099e-06	-1.216301e-09	-3.817909e+01	-7.633162e+01
1.300000e-07	-5.491253e-06	-1.133680e-09	-3.814542e+01	-7.626723e+01
1.400000e-07	-5.486137e-06	-1.161767e-09	-3.810988e+01	-7.619792e+01
1.500000e-07	-5.480559e-06	-1.201377e-09	-3.807113e+01	-7.612372e+01
1.600000e-07	-5.474482e-06	-1.200684e-09	-3.802892e+01	-7.604472e+01
1.700000e-07	-5.467985e-06	-1.145004e-09	-3.798379e+01	-7.596103e+01
1.800000e-07	-5.461188e-06	-1.165513e-09	-3.793657e+01	-7.587276e+01
1.900000e-07	-5.453996e-06	-1.222603e-09	-3.788661e+01	-7.578007e+01
2.000000e-07	-5.446376e-06	-1.201261e-09	-3.783368e+01	-7.568313e+01
2.100000e-07	-5.438539e-06	-1.165310e-09	-3.777924e+01	-7.558214e+01
2.200000e-07	-5.430577e-06	-1.163450e-09	-3.772393e+01	-7.547732e+01
2.300000e-07	-5.422317e-06	-1.214501e-09	-3.766655e+01	-7.536889e+01
2.400000e-07	-5.413524e-06	-1.204889e-09	-3.760547e+01	-7.525712e+01
2.500000e-07	-5.404110e-06	-1.203581e-09	-3.754007e+01	-7.514226e+01
2.600000e-07	-5.394030e-06	-1.179808e-09	-3.747006e+01	-7.502460e+01
2.700000e-07	-5.383312e-06	-1.184880e-09	-3.739560e+01	-7.490440e+01
2.800000e-07	-5.372160e-06	-1.164719e-09	-3.731813e+01	-7.478198e+01
2.900000e-07	-5.360665e-06	-1.173138e-09	-3.723828e+01	-7.465760e+01
3.000000e-07	-5.348663e-06	-1.171679e-09	-3.715491e+01	-7.453158e+01
3.100000e-07	-5.336244e-06	-1.181379e-09	-3.706864e+01	-7.440420e+01
3.200000e-07	-5.323481e-06	-1.166761e-09	-3.697998e+01	-7.427573e+01
3.300000e-07	-5.310341e-06	-1.145874e-09	-3.688870e+01	-7.414646e+01
3.400000e-07	-5.296750e-06	-1.124677e-09	-3.679429e+01	-7.401663e+01
3.500000e-07	-5.282752e-06	-1.123920e-09	-3.669705e+01	-7.388651e+01
3.600000e-07	-5.268361e-06	-1.125084e-09	-3.659709e+01	-7.375631e+01
3.700000e-07	-5.253323e-06	-1.125656e-09	-3.649262e+01	-7.362624e+01
3.800000e-07	-5.237769e-06	-1.148768e-09	-3.638458e+01	-7.349648e+01
3.900000e-07	-5.221945e-06	-1.157013e-09	-3.627465e+01	-7.336719e+01
4.000000e-07	-5.205642e-06	-1.120982e-09	-3.616140e+01	-7.323851e+01
4.100000e-07	-5.188897e-06	-1.103280e-09	-3.604508e+01	-7.311053e+01
4.200000e-07	-5.171825e-06	-1.143965e-09	-3.592649e+01	-7.298332e+01
4.300000e-07	-5.154402e-06	-1.132613e-09	-3.580546e+01	-7.285693e+01
4.400000e-07	-5.136609e-06	-1.095897e-09	-3.568186e+01	-7.273137e+01
4.500000e-07	-5.118483e-06	-1.119967e-09	-3.555594e+01	-7.260662e+01
4.600000e-07	-5.100089e-06	-1.157791e-09	-3.542817e+01	-7.248262e+01
4.700000e-07	-5.081253e-06	-1.095651e-09	-3.529732e+01	-7.235929e+01
4.800000e-07	-5.062012e-06	-1.085267e-09	-3.516366e+01	-7.223652e+01
4.900000e-07	-5.042548e-06	-1.135102e-09	-3.502846e+01	-7.211417e+01
5.000000e-07	-5.022898e-06	-1.126845e-09	-3.489195e+01	-7.199207e+01
5.100000e-07	-5.002974e-06	-1.072869e-09	-3.475355e+01	-7.187002e+01
5.200000e-07	-4.982682e-06	-1.112190e-09	-3.461259e+01	-7.174780e+01
5.300000e-07	-4.962018e-06	-1.120577e-09	-3.446905e+01	-7.162518e+01
5.400000e-07	-4.941031e-06	-1.074590e-09	-3.432326e+01	-7.150190e+01
5.500000e-07	-4.919757e-06	-1.081216e-09	-3.417548e+01	-7.137769e+01
5.600000e-07	-4.898203e-06	-1.119918e-09	-3.402575e+01	-7.125226e+01
5.700000e-07	-4.876263e-06	-1.073023e-09	-3.387335e+01	-7.112532e+01
5.800000e-07	-4.853933e-06	-1.060707e-09	-3.371823e+01	-7.099656e+01
5.900000e-07	-4.831296e-06	-1.104066e-09	-3.356098e+01	-7.086570e+01
6.000000e-07	-4.808305e-06	-1.090285e-09	-3.340127e+01	-7.073242e+01
6.100000e-07	-4.784999e-06	-1.050163e-09	-3.323937e+01	-7.059644e+01
6.200000e-07	-4.761503e-06	-1.078729e-09	-3.307616e+01	-7.045746e+01
6.300000e-07	-4.737738e-06	-1.080012e-09	-3.291107e+01	-7.031521e+01
6.400000e-07	-4.713645e-06	-1.042797e-09	-3.274370e+01	-7.016943e+01
6.500000e-07	-4.689224e-06	-1.058422e-09	-3.257406e+01	-7.001987e+01
6.600000e-07	-4.664281e-06	-1.076537e-09	-3.240080e+01	-6.986631e+01
6.700000e-07	-4.638735e-06	-1.048446e-09	-3.222334e+01	-6.970854e+01
6.800000e-07	-4.612749e-06	-1.044626e-09	-3.204282e+01	-6.954639e+01
6.900000e-07	-4.586328e-06	-1.064877e-09	-3.185929e+01	-6.937971e+01
7.000000e-07	-4.559384e-06	-1.043552e-09	-3.167212e+01	-6.920838e+01
7.100000e-07	-4.532090e-06	-1.029701e-09	-3.148252e+01	-6.903230e+01
7.200000e-07	-4.504612e-06	-1.041253e-09	-3.129164e+01	-6.885141e+01
7.300000e-07	-4.476950e-06	-1.038039e-09	-3.109949e+01	-6.866568e+01
7.400000e-07	-4.449100e-06	-1.023123e-09	-3.090602e+01	-6.847512e+01
7.500000e-07	-4.420972e-06	-1.033317e-09	-3.071063e+01	-6.827975e+01
7.600000e-07	-4.392527e-06	-1.025453e-09	-3.051304e+01	-6.807964e+01
7.700000e-07	-4.363758e-06	-1.010535e-09	-3.031319e+01	-6.787487e+01
7.800000e-07	-4.334662e-06	-1.010035e-09	-3.011107e+01	-6.766556e+01
7.900000e-07	-4.305285e-06	-1.012521e-09	-2.990700e+01	-6.745186e+01
8.000000e-07	-4.275556e-06	-9.958878e-10	-2.970049e+01	-6.723393e+01
8.100000e-07	-4.245552e-06	-9.980075e-10	-2.949206e+01	-6.701196e+01
8.200000e-07	-4.215341e-06	-1.001151e-09	-2.928220e+01	-6.678617e+01
8.300000e-07	-4.184868e-06	-9.928257e-10	-2.907051e+01	-6.655676e+01
8.400000e-07	-4.154064e-06	-9.879019e-10	-2.885653e+01	-6.632398e+01
8.500000e-07	-4.122966e-06	-9.971572e-10	-2.864051e+01	-6.608807e+01
8.600000e-07	-4.091660e-06	-9.888876e-10	-2.842304e+01	-6.584927e+01
8.700000e-07	-4.060156e-06	-9.794668e-10	-2.820419e+01	-6.560784e+01
8.800000e-07	-4.028486e-06	-9.815662e-10	-2.798420e+01	-6.536402e+01
8.900000e-07	-3.996588e-06	-9.798875e-10	-2.776262e+01	-6.511806e+01
9.000000e-07	-3.964453e-06	-9.664448e-10	-2.753938e+01	-6.487019e+01
9.100000e-07	-3.932021e-06	-9.638694e-10	-2.731410e+01	-6.462062e+01
9.200000e-07	-3.899148e-06	-9.628065e-10	-2.708574e+01	-6.436956e+01
9.300000e-07	-3.865859e-06	-9.542638e-10	-2.685449e+01	-6.411719e+01
9.400000e-07	-3.832124e-06	-9.526339e-10	-2.662015e+01	-6.386367e+01
9.500000e-07	-3.797993e-06	-9.567961e-10	-2.638306e+01	-6.360913e+01
9.600000e-07	-3.763487e-06	-9.492135e-10	-2.614336e+01	-6.335368e+01
9.700000e-07	-3.728551e-06	-9.377166e-10	-2.590067e+01	-6.309739e+01
9.800000e-07	-3.693369e-06	-9.372410e-10	-2.565628e+01	-6.284029e+01
9.900000e-07	-3.658005e-06	-9.304902e-10	-2.541062e+01	-6.258240e+01
1.000000e-06	-3.622444e-06	-9.192601e-10	-2.516359e+01	-6.232369e+01
1.010000e-06	-3.586739e-06	-9.156456e-10	-2.491557e+01	-6.206408e+01
1.020000e-06	-3.550870e-06	-9.169175e-10	-2.466640e+01	-6.180348e+01
1.030000e-06	-3.514788e-06	-9.099795e-10	-2.441575e+01	-6.154175e+01
1.040000e-06	-3.478453e-06	-9.067191e-10	-2.416335e+01	-6.127872e+01
1.050000e-06	-3.441835e-06	-9.024521e-10	-2.390898e+01	-6.101416e+01
1.060000e-06	-3.405041e-06	-8.932443e-10	-2.365339e+01	-6.074784e+01
1.070000e-06	-3.368011e-06	-8.828868e-10	-2.339615e+01	-6.047949e+01
1.080000e-06	-3.330657e-06	-8.839416e-10	-2.313667e+01	-6.020879e+01
1.090000e-06	-3.292998e-06	-8.824539e-10	-2.287507e+01	-5.993542e+01
1.100000e-06	-3.255077e-06	-8.756036e-10	-2.261165e+01	-5.965902e+01
1.110000e-06	-3.217008e-06	-8.679742e-10	-2.234720e+01	-5.937920e+01
1.120000e-06	-3.178831e-06	-8.622264e-10	-2.208200e+01	-5.909557e+01
1.130000e-06	-3.140429e-06	-8.527561e-10	-2.181524e+01	-5.880771e+01
1.140000e-06	-3.101739e-06	-8.483384e-10	-2.154647e+01	-5.851522e+01
1.150000e-06	-3.062872e-06	-8.449842e-10	-2.127648e+01	-5.821764e+01
1.160000e-06	-3.023815e-06	-8.393535e-10	-2.100517e+01	-5.791457e+01
1.170000e-06	-2.984525e-06	-8.330369e-10	-2.073224e+01	-5.760555e+01
1.180000e-06	-2.945093e-06	-8.302119e-10	-2.045832e+01	-5.729016e+01
1.190000e-06	-2.905523e-06	-8.259151e-10	-2.018344e+01	-5.696799e+01
1.200000e-06	-2.865782e-06	-8.200727e-10	-1.990738e+01	-5.663863e+01
1.210000e-06	-2.825920e-06	-8.152185e-10	-1.963048e+01	-5.630169e+01
1.220000e-06	-2.785979e-06	-8.098763e-10	-1.935302e+01	-5.595681e+01
1.230000e-06	-2.745818e-06	-8.023115e-10	-1.907404e+01	-5.560362e+01
1.240000e-06	-2.705416e-06	-7.950570e-10	-1.879339e+01	-5.524181e+01
1.250000e-06	-2.664900e-06	-7.897441e-10	-1.851193e+01	-5.487109e+01
1.260000e-06	-2.624048e-06	-7.852358e-10	-1.822815e+01	-5.449120e+01
1.270000e-06	-2.582876e-06	-7.828835e-10	-1.794216e+01	-5.410189e+01
1.280000e-06	-2.541546e-06	-7.778114e-10	-1.765505e+01	-5.370297e+01
1.290000e-06	-2.499843e-06	-7.696148e-10	-1.736536e+01	-5.329428e+01
1.300000e-06	-2.457713e-06	-7.580341e-10	-1.707270e+01	-5.287567e+01
1.310000e-06	-2.415332e-06	-7.476528e-10	-1.677830e+01	-5.244707e+01
1.320000e-06	-2.372695e-06	-7.407958e-10	-1.648212e+01	-5.200839e+01
1.330000e-06	-2.329873e-06	-7.379191e-10	-1.618465e+01	-5.155962e+01
1.340000e-06	-2.286915e-06	-7.367725e-10	-1.588623e+01	-5.110074e+01
1.350000e-06	-2.243721e-06	-7.346414e-10	-1.558618e+01	-5.063179e+01
1.360000e-06	-2.200297e-06	-7.270004e-10	-1.528454e+01	-5.015283e+01
1.370000e-06	-2.156726e-06	-7.169340e-10	-1.498187e+01	-4.966393e+01
1.380000e-06	-2.113057e-06	-7.064457e-10	-1.467852e+01	-4.916519e+01
1.390000e-06	-2.069322e-06	-6.980027e-10	-1.437471e+01	-4.865673e+01
1.400000e-06	-2.025517e-06	-6.900551e-10	-1.407041e+01	-4.813869e+01
1.410000e-06	-1.981583e-06	-6.838053e-10	-1.376522e+01	-4.761121e+01
1.420000e-06	-1.937585e-06	-6.779062e-10	-1.345959e+01	-4.707443e+01
1.430000e-06	-1.893527e-06	-6.717368e-10	-1.315353e+01	-4.652849e+01
1.440000e-06	-1.849307e-06	-6.624309e-10	-1.284635e+01	-4.597356e+01
1.450000e-06	-1.804993e-06	-6.521980e-10	-1.253852e+01	-4.540975e+01
1.460000e-06	-1.760698e-06	-6.418825e-10	-1.223083e+01	-4.483721e+01
1.470000e-06	-1.716278e-06	-6.311381e-10	-1.192226e+01	-4.425603e+01
1.480000e-06	-1.671617e-06	-6.207106e-10	-1.161202e+01	-4.366632e+01
1.490000e-06	-1.626825e-06	-6.116391e-10	-1.130087e+01	-4.306812e+01
1.500000e-06	-1.581958e-06	-6.037602e-10	-1.098920e+01	-4.246147e+01
1.510000e-06	-1.537020e-06	-5.943676e-10	-1.067703e+01	-4.184639e+01
1.520000e-06	-1.491968e-06	-5.819096e-10	-1.036407e+01	-4.122284e+01
1.530000e-06	-1.446736e-06	-5.674461e-10	-1.004987e+01	-4.059074e+01
1.540000e-06	-1.401321e-06	-5.532729e-10	-9.734389e+00	-3.995000e+01
1.550000e-06	-1.355767e-06	-5.426396e-10	-9.417939e+00	-3.930046e+01
1.560000e-06	-1.310144e-06	-5.344611e-10	-9.101021e+00	-3.864192e+01
1.570000e-06	-1.264475e-06	-5.281840e-10	-8.783776e+00	-3.797416e+01
1.580000e-06	-1.218730e-06	-5.216638e-10	-8.466002e+00	-3.729689e+01
1.590000e-06	-1.172912e-06	-5.117321e-10	-8.147723e+00	-3.660978e+01
1.600000e-06	-1.127037e-06	-5.001315e-10	-7.829052e+00	-3.591247e+01
1.610000e-06	-1.081084e-06	-4.874302e-10	-7.509833e+00	-3.520456e+01
1.620000e-06	-1.035072e-06	-4.749997e-10	-7.190212e+00	-3.448560e+01
1.630000e-06	-9.890458e-07	-4.633061e-10	-6.870485e+00	-3.375511e+01
1.640000e-06	-9.429402e-07	-4.513458e-10	-6.550208e+00	-3.301258e+01
1.650000e-06	-8.967180e-07	-4.372417e-10	-6.229122e+00	-3.225747e+01
1.660000e-06	-8.503924e-07	-4.241967e-10	-5.907318e+00	-3.148921e+01
1.670000e-06	-8.040219e-07	-4.117705e-10	-5.585202e+00	-3.070723e+01
1.680000e-06	-7.576484e-07	-4.007995e-10	-5.263065e+00	-2.991094e+01
1.690000e-06	-7.111837e-07	-3.880450e-10	-4.940294e+00	-2.909972e+01
1.700000e-06	-6.646538e-07	-3.746929e-10	-4.617070e+00	-2.827298e+01
1.710000e-06	-6.180945e-07	-3.599355e-10	-4.293642e+00	-2.743012e+01
1.720000e-06	-5.714605e-07	-3.451457e-10	-3.969695e+00	-2.657056e+01
1.730000e-06	-5.248343e-07	-3.312129e-10	-3.645803e+00	-2.569372e+01
1.740000e-06	-4.782767e-07	-3.171014e-10	-3.322386e+00	-2.479908e+01
1.750000e-06	-4.316392e-07	-3.039963e-10	-2.998415e+00	-2.388612e+01
1.760000e-06	-3.848496e-07	-2.888572e-10	-2.673388e+00	-2.295438e+01
1.770000e-06	-3.380448e-07	-2.736118e-10	-2.348255e+00	-2.200343e+01
1.780000e-06	-2.912152e-07	-2.583178e-10	-2.022949e+00	-2.103291e+01
1.790000e-06	-2.443296e-07	-2.427315e-10	-1.697255e+00	-2.004251e+01
1.800000e-06	-1.974170e-07	-2.265640e-10	-1.371373e+00	-1.903199e+01
1.810000e-06	-1.505187e-07	-2.109966e-10	-1.045590e+00	-1.800117e+01
1.820000e-06	-1.036829e-07	-1.957329e-10	-7.202417e-01	-1.694996e+01
1.830000e-06	-5.685588e-08	-1.812455e-10	-3.949539e-01	-1.587835e+01
1.840000e-06	-1.002845e-08	-1.659464e-10	-6.966339e-02	-1.478640e+01
1.850000e-06	3.683916e-08	-1.507405e-10	2.559062e-01	-1.367427e+01
1.860000e-06	8.376054e-08	-1.352713e-10	5.818492e-01	-1.254222e+01
1.870000e-06	1.306360e-07	-1.187594e-10	9.074735e-01	-1.139058e+01
1.880000e-06	1.774802e-07	-1.022234e-10	1.232881e+00	-1.021980e+01
1.890000e-06	2.243587e-07	-8.589163e-11	1.558525e+00	-9.030408e+00
1.900000e-06	2.712491e-07	-7.041690e-11	1.884253e+00	-7.823032e+00
1.910000e-06	3.180911e-07	-5.372002e-11	2.209645e+00	-6.598397e+00
1.920000e-06	3.648389e-07	-3.559144e-11	2.534382e+00	-5.357318e+00
1.930000e-06	4.115614e-07	-1.768174e-11	2.858943e+00	-4.100702e+00
1.940000e-06	4.583121e-07	-9.686092e-13	3.183701e+00	-2.829543e+00
1.950000e-06	5.049949e-07	1.377678e-11	3.507987e+00	-1.544917e+00
1.960000e-06	5.515605e-07	2.840234e-11	3.831458e+00	-2.479810e-01
1.970000e-06	5.979841e-07	4.447618e-11	4.153943e+00	1.060036e+00
1.980000e-06	6.444256e-07	6.235038e-11	4.476553e+00	2.377836e+00
1.990000e-06	6.908928e-07	8.242696e-11	4.799341e+00	3.704062e+00
2.000000e-06	7.372771e-07	1.023817e-10	5.121553e+00	5.037300e+00
2.010000e-06	7.837091e-07	1.216676e-10	5.444097e+00	6.376091e+00
2.020000e-06	8.301165e-07	1.394183e-10	5.766470e+00	7.718937e+00
2.030000e-06	8.763460e-07	1.562894e-10	6.087606e+00	9.064307e+00
2.040000e-06	9.224464e-07	1.712719e-10	6.407847e+00	1.041065e+01
2.050000e-06	9.684930e-07	1.860784e-10	6.727713e+00	1.175640e+01
2.060000e-06	1.014510e-06	2.040849e-10	7.047376e+00	1.309999e+01
2.070000e-06	1.060486e-06	2.245384e-10	7.366746e+00	1.443984e+01
2.080000e-06	1.106342e-06	2.459342e-10	7.685291e+00	1.577441e+01
2.090000e-06	1.152125e-06	2.662043e-10	8.003325e+00	1.710216e+01
2.100000e-06	1.197853e-06	2.844526e-10	8.320978e+00	1.842158e+01
2.110000e-06	1.243493e-06	3.021453e-10	8.638025e+00	1.973120e+01
2.120000e-06	1.289027e-06	3.191767e-10	8.954329e+00	2.102961e+01
2.130000e-06	1.334508e-06	3.361108e-10	9.270265e+00	2.231544e+01
2.140000e-06	1.379956e-06	3.524641e-10	9.585974e+00	2.358737e+01
2.150000e-06	1.425358e-06	3.677772e-10	9.901359e+00	2.484416e+01
2.160000e-06	1.470682e-06	3.840594e-10	1.021621e+01	2.608465e+01
2.170000e-06	1.515837e-06	4.032573e-10	1.052988e+01	2.730772e+01
2.180000e-06	1.560855e-06	4.221318e-10	1.084260e+01	2.851238e+01
2.190000e-06	1.605804e-06	4.395326e-10	1.115484e+01	2.969770e+01
2.200000e-06	1.650632e-06	4.567838e-10	1.146625e+01	3.086284e+01
2.210000e-06	1.695264e-06	4.719278e-10	1.177629e+01	3.200705e+01
2.220000e-06	1.739722e-06	4.861236e-10	1.208512e+01	3.312968e+01
2.230000e-06	1.784060e-06	5.001175e-10	1.239311e+01	3.423018e+01
2.240000e-06	1.828256e-06	5.134921e-10	1.270012e+01	3.530807e+01
2.250000e-06	1.872294e-06	5.272986e-10	1.300604e+01	3.636301e+01
2.260000e-06	1.916216e-06	5.425204e-10	1.331115e+01	3.739470e+01
2.270000e-06	1.960040e-06	5.577532e-10	1.361557e+01	3.840297e+01
2.280000e-06	2.003790e-06	5.715642e-10	1.391949e+01	3.938773e+01
2.290000e-06	2.047504e-06	5.848619e-10	1.422315e+01	4.034896e+01
2.300000e-06	2.091183e-06	5.974867e-10	1.452657e+01	4.128674e+01
2.310000e-06	2.134797e-06	6.094035e-10	1.482954e+01	4.220122e+01
2.320000e-06	2.178348e-06	6.223219e-10	1.513207e+01	4.309263e+01
2.330000e-06	2.221828e-06	6.338556e-10	1.543411e+01	4.396126e+01
2.340000e-06	2.265178e-06	6.450323e-10	1.573524e+01	4.480746e+01
2.350000e-06	2.308359e-06	6.561852e-10	1.603519e+01	4.563166e+01
2.360000e-06	2.351336e-06	6.663541e-10	1.633374e+01	4.643432e+01
2.370000e-06	2.394041e-06	6.762735e-10	1.663040e+01	4.721594e+01
2.380000e-06	2.436488e-06	6.862319e-10	1.692525e+01	4.797707e+01
2.390000e-06	2.478643e-06	6.997401e-10	1.721809e+01	4.871828e+01
2.400000e-06	2.520442e-06	7.136909e-10	1.750845e+01	4.944020e+01
2.410000e-06	2.561891e-06	7.271421e-10	1.779637e+01	5.014343e+01
2.420000e-06	2.603024e-06	7.406027e-10	1.808211e+01	5.082861e+01
2.430000e-06	2.643856e-06	7.516147e-10	1.836575e+01	5.149638e+01
2.440000e-06	2.684392e-06	7.583143e-10	1.864734e+01	5.214739e+01
2.450000e-06	2.724710e-06	7.649346e-10	1.892741e+01	5.278228e+01
2.460000e-06	2.764834e-06	7.737411e-10	1.920613e+01	5.340166e+01
2.470000e-06	2.804823e-06	7.836236e-10	1.948393e+01	5.400616e+01
2.480000e-06	2.844687e-06	7.939848e-10	1.976084e+01	5.459638e+01
2.490000e-06	2.884373e-06	8.071518e-10	2.003653e+01	5.517287e+01
2.500000e-06	2.923925e-06	8.210628e-10	2.031127e+01	5.573619e+01
2.510000e-06	2.963392e-06	8.304928e-10	2.058543e+01	5.628686e+01
2.520000e-06	3.002705e-06	8.368035e-10	2.085853e+01	5.682535e+01
2.530000e-06	3.041787e-06	8.415548e-10	2.113001e+01	5.735211e+01
2.540000e-06	3.080668e-06	8.464531e-10	2.140010e+01	5.786757e+01
2.550000e-06	3.119309e-06	8.513150e-10	2.166852e+01	5.837209e+01
2.560000e-06	3.157669e-06	8.578728e-10	2.193500e+01	5.886603e+01
2.570000e-06	3.195829e-06	8.668272e-10	2.220008e+01	5.934968e+01
2.580000e-06	3.233813e-06	8.767278e-10	2.246394e+01	5.982331e+01
2.590000e-06	3.271586e-06	8.855277e-10	2.272633e+01	6.028716e+01
2.600000e-06	3.309157e-06	8.907483e-10	2.298732e+01	6.074143e+01
2.610000e-06	3.346560e-06	8.950787e-10	2.324714e+01	6.118629e+01
2.620000e-06	3.383773e-06	9.013478e-10	2.350565e+01	6.162187e+01
2.630000e-06	3.420711e-06	9.072907e-10	2.376224e+01	6.204828e+01
2.640000e-06	3.457365e-06	9.126963e-10	2.401686e+01	6.246562e+01
2.650000e-06	3.493768e-06	9.158063e-10	2.426974e+01	6.287394e+01
2.660000e-06	3.529915e-06	9.182622e-10	2.452083e+01	6.327329e+01
2.670000e-06	3.565850e-06	9.222116e-10	2.477046e+01	6.366370e+01
2.680000e-06	3.601628e-06	9.280486e-10	2.501899e+01	6.404519e+01
2.690000e-06	3.637251e-06	9.346711e-10	2.526645e+01	6.441776e+01
2.700000e-06	3.672759e-06	9.417347e-10	2.551311e+01	6.478142e+01
2.710000e-06	3.708160e-06	9.488137e-10	2.575903e+01	6.513616e+01
2.720000e-06	3.743371e-06	9.552297e-10	2.600362e+01	6.548199e+01
2.730000e-06	3.778229e-06	9.622427e-10	2.624577e+01	6.581890e+01
2.740000e-06	3.812704e-06	9.681071e-10	2.648525e+01	6.614692e+01
2.750000e-06	3.846748e-06	9.717807e-10	2.672174e+01	6.646605e+01
2.760000e-06	3.880230e-06	9.743813e-10	2.695433e+01	6.677632e+01
2.770000e-06	3.913209e-06	9.783702e-10	2.718341e+01	6.707778e+01
2.780000e-06	3.945786e-06	9.841107e-10	2.740971e+01	6.737048e+01
2.790000e-06	3.978031e-06	9.909620e-10	2.763371e+01	6.765451e+01
2.800000e-06	4.009987e-06	9.969107e-10	2.785569e+01	6.792994e+01
2.810000e-06	4.041708e-06	1.000998e-09	2.807604e+01	6.819690e+01
2.820000e-06	4.073309e-06	1.005690e-09	2.829557e+01	6.845551e+01
2.830000e-06	4.104756e-06	1.010099e-09	2.851401e+01	6.870591e+01
2.840000e-06	4.135952e-06	1.011802e-09	2.873072e+01	6.894829e+01
2.850000e-06	4.166944e-06	1.011989e-09	2.894600e+01	6.918283e+01
2.860000e-06	4.197625e-06	1.013247e-09	2.915913e+01	6.940972e+01
2.870000e-06	4.227917e-06	1.015364e-09	2.936956e+01	6.962921e+01
2.880000e-06	4.257898e-06	1.019465e-09	2.957782e+01	6.984152e+01
2.890000e-06	4.287568e-06	1.027379e-09	2.978393e+01	7.004690e+01
2.900000e-06	4.317015e-06	1.034602e-09	2.998848e+01	7.024563e+01
