# Temperatura_=_-0.9
# Concentracion g/m^3_=_1620.0
# C_Vs_to_Am_M_A/Vsm_=_65563218390.804596
# pendiente_HvsI_1/m_=_3716.3
# ordenada_HvsI_A/m_=_1297.0
# frecuencia_Hz_=_135092.9710376548

Tiempo_(s)	Campo_(V.s)	Magnetizacion_(V.s)	Campo_(kA/m)	Magnetizacion_(A/m)
0.000000e+00	-5.531212e-06	-1.113797e-09	-3.837663e+01	-7.392499e+01
1.000000e-08	-5.531421e-06	-1.115457e-09	-3.837808e+01	-7.390844e+01
2.000000e-08	-5.531307e-06	-1.118113e-09	-3.837729e+01	-7.389081e+01
3.000000e-08	-5.530879e-06	-1.117115e-09	-3.837432e+01	-7.387220e+01
4.000000e-08	-5.529991e-06	-1.112385e-09	-3.836816e+01	-7.385267e+01
5.000000e-08	-5.528494e-06	-1.106737e-09	-3.835778e+01	-7.383229e+01
6.000000e-08	-5.526309e-06	-1.097781e-09	-3.834261e+01	-7.381110e+01
7.000000e-08	-5.523589e-06	-1.088152e-09	-3.832374e+01	-7.378914e+01
8.000000e-08	-5.520413e-06	-1.101411e-09	-3.830170e+01	-7.376644e+01
9.000000e-08	-5.516766e-06	-1.113715e-09	-3.827640e+01	-7.374300e+01
1.000000e-07	-5.512640e-06	-1.104899e-09	-3.824777e+01	-7.371882e+01
1.100000e-07	-5.508195e-06	-1.116902e-09	-3.821694e+01	-7.369389e+01
1.200000e-07	-5.503613e-06	-1.091508e-09	-3.818514e+01	-7.366818e+01
1.300000e-07	-5.498779e-06	-1.067106e-09	-3.815161e+01	-7.364164e+01
1.400000e-07	-5.493528e-06	-1.078280e-09	-3.811517e+01	-7.361425e+01
1.500000e-07	-5.487785e-06	-1.078339e-09	-3.807532e+01	-7.358593e+01
1.600000e-07	-5.481662e-06	-1.108471e-09	-3.803285e+01	-7.355662e+01
1.700000e-07	-5.475160e-06	-1.079899e-09	-3.798773e+01	-7.352624e+01
1.800000e-07	-5.468268e-06	-1.121498e-09	-3.793991e+01	-7.349473e+01
1.900000e-07	-5.461032e-06	-1.112264e-09	-3.788971e+01	-7.346199e+01
2.000000e-07	-5.453524e-06	-1.127159e-09	-3.783761e+01	-7.342792e+01
2.100000e-07	-5.445813e-06	-1.114296e-09	-3.778411e+01	-7.339244e+01
2.200000e-07	-5.437827e-06	-1.135449e-09	-3.772871e+01	-7.335544e+01
2.300000e-07	-5.429493e-06	-1.136469e-09	-3.767089e+01	-7.331682e+01
2.400000e-07	-5.420651e-06	-1.149013e-09	-3.760954e+01	-7.327646e+01
2.500000e-07	-5.411196e-06	-1.148914e-09	-3.754394e+01	-7.323427e+01
2.600000e-07	-5.401103e-06	-1.144381e-09	-3.747391e+01	-7.319014e+01
2.700000e-07	-5.390311e-06	-1.150924e-09	-3.739903e+01	-7.314395e+01
2.800000e-07	-5.378975e-06	-1.142141e-09	-3.732038e+01	-7.309560e+01
2.900000e-07	-5.367262e-06	-1.135896e-09	-3.723912e+01	-7.304497e+01
3.000000e-07	-5.355234e-06	-1.122223e-09	-3.715566e+01	-7.299197e+01
3.100000e-07	-5.342893e-06	-1.145398e-09	-3.707003e+01	-7.293647e+01
3.200000e-07	-5.330107e-06	-1.130598e-09	-3.698132e+01	-7.287839e+01
3.300000e-07	-5.316874e-06	-1.134437e-09	-3.688951e+01	-7.281761e+01
3.400000e-07	-5.303300e-06	-1.109715e-09	-3.679533e+01	-7.275404e+01
3.500000e-07	-5.289299e-06	-1.130771e-09	-3.669819e+01	-7.268757e+01
3.600000e-07	-5.274882e-06	-1.117173e-09	-3.659816e+01	-7.261812e+01
3.700000e-07	-5.260117e-06	-1.116205e-09	-3.649572e+01	-7.254558e+01
3.800000e-07	-5.244704e-06	-1.104850e-09	-3.638878e+01	-7.246988e+01
3.900000e-07	-5.228666e-06	-1.137537e-09	-3.627751e+01	-7.239091e+01
4.000000e-07	-5.212210e-06	-1.113638e-09	-3.616333e+01	-7.230861e+01
4.100000e-07	-5.195332e-06	-1.094424e-09	-3.604623e+01	-7.222288e+01
4.200000e-07	-5.178150e-06	-1.100012e-09	-3.592702e+01	-7.213366e+01
4.300000e-07	-5.160720e-06	-1.119653e-09	-3.580609e+01	-7.204087e+01
4.400000e-07	-5.142962e-06	-1.081736e-09	-3.568288e+01	-7.194444e+01
4.500000e-07	-5.124831e-06	-1.091619e-09	-3.555708e+01	-7.184431e+01
4.600000e-07	-5.106228e-06	-1.121846e-09	-3.542801e+01	-7.174041e+01
4.700000e-07	-5.087152e-06	-1.098356e-09	-3.529565e+01	-7.163271e+01
4.800000e-07	-5.067738e-06	-1.071285e-09	-3.516095e+01	-7.152113e+01
4.900000e-07	-5.048146e-06	-1.109914e-09	-3.502503e+01	-7.140565e+01
5.000000e-07	-5.028409e-06	-1.102786e-09	-3.488809e+01	-7.128621e+01
5.100000e-07	-5.008416e-06	-1.058138e-09	-3.474937e+01	-7.116280e+01
5.200000e-07	-4.988140e-06	-1.080359e-09	-3.460869e+01	-7.103538e+01
5.300000e-07	-4.967542e-06	-1.099315e-09	-3.446578e+01	-7.090394e+01
5.400000e-07	-4.946533e-06	-1.063977e-09	-3.432001e+01	-7.076846e+01
5.500000e-07	-4.925107e-06	-1.069139e-09	-3.417136e+01	-7.062894e+01
5.600000e-07	-4.903341e-06	-1.104100e-09	-3.402034e+01	-7.048540e+01
5.700000e-07	-4.881230e-06	-1.065508e-09	-3.386693e+01	-7.033784e+01
5.800000e-07	-4.858755e-06	-1.050066e-09	-3.371099e+01	-7.018628e+01
5.900000e-07	-4.835977e-06	-1.079161e-09	-3.355296e+01	-7.003077e+01
6.000000e-07	-4.812957e-06	-1.069559e-09	-3.339324e+01	-6.987135e+01
6.100000e-07	-4.789600e-06	-1.038207e-09	-3.323118e+01	-6.970807e+01
6.200000e-07	-4.765951e-06	-1.064685e-09	-3.306710e+01	-6.954099e+01
6.300000e-07	-4.742033e-06	-1.058637e-09	-3.290115e+01	-6.937020e+01
6.400000e-07	-4.717839e-06	-1.034098e-09	-3.273329e+01	-6.919578e+01
6.500000e-07	-4.693348e-06	-1.040221e-09	-3.256337e+01	-6.901783e+01
6.600000e-07	-4.668482e-06	-1.053517e-09	-3.239084e+01	-6.883646e+01
6.700000e-07	-4.643127e-06	-1.027874e-09	-3.221492e+01	-6.865178e+01
6.800000e-07	-4.617258e-06	-1.035230e-09	-3.203544e+01	-6.846393e+01
6.900000e-07	-4.590817e-06	-1.040967e-09	-3.185198e+01	-6.827304e+01
7.000000e-07	-4.563679e-06	-1.028276e-09	-3.166370e+01	-6.807927e+01
7.100000e-07	-4.536168e-06	-1.020644e-09	-3.147282e+01	-6.788277e+01
7.200000e-07	-4.508541e-06	-1.030338e-09	-3.128114e+01	-6.768370e+01
7.300000e-07	-4.480761e-06	-1.016468e-09	-3.108840e+01	-6.748223e+01
7.400000e-07	-4.452795e-06	-1.017382e-09	-3.089437e+01	-6.727854e+01
7.500000e-07	-4.424571e-06	-1.027784e-09	-3.069854e+01	-6.707281e+01
7.600000e-07	-4.396048e-06	-1.024498e-09	-3.050064e+01	-6.686521e+01
7.700000e-07	-4.367270e-06	-1.015399e-09	-3.030098e+01	-6.665594e+01
7.800000e-07	-4.338241e-06	-1.018977e-09	-3.009956e+01	-6.644518e+01
7.900000e-07	-4.308941e-06	-1.009666e-09	-2.989628e+01	-6.623310e+01
8.000000e-07	-4.279263e-06	-9.985467e-10	-2.969036e+01	-6.601988e+01
8.100000e-07	-4.249243e-06	-1.003890e-09	-2.948208e+01	-6.580569e+01
8.200000e-07	-4.218959e-06	-1.006125e-09	-2.927196e+01	-6.559070e+01
8.300000e-07	-4.188348e-06	-9.983122e-10	-2.905958e+01	-6.537506e+01
8.400000e-07	-4.157439e-06	-9.979427e-10	-2.884512e+01	-6.515890e+01
8.500000e-07	-4.126224e-06	-1.002600e-09	-2.862855e+01	-6.494236e+01
8.600000e-07	-4.094819e-06	-9.905585e-10	-2.841065e+01	-6.472555e+01
8.700000e-07	-4.063284e-06	-9.849603e-10	-2.819186e+01	-6.450857e+01
8.800000e-07	-4.031556e-06	-9.871419e-10	-2.797173e+01	-6.429149e+01
8.900000e-07	-3.999568e-06	-9.847938e-10	-2.774978e+01	-6.407437e+01
9.000000e-07	-3.967321e-06	-9.736007e-10	-2.752605e+01	-6.385724e+01
9.100000e-07	-3.934929e-06	-9.752320e-10	-2.730131e+01	-6.364011e+01
9.200000e-07	-3.902206e-06	-9.687374e-10	-2.707427e+01	-6.342297e+01
9.300000e-07	-3.869017e-06	-9.601546e-10	-2.684399e+01	-6.320578e+01
9.400000e-07	-3.835390e-06	-9.593714e-10	-2.661069e+01	-6.298846e+01
9.500000e-07	-3.801245e-06	-9.653287e-10	-2.637378e+01	-6.277094e+01
9.600000e-07	-3.766507e-06	-9.571883e-10	-2.613276e+01	-6.255308e+01
9.700000e-07	-3.731375e-06	-9.555375e-10	-2.588901e+01	-6.233473e+01
9.800000e-07	-3.696070e-06	-9.540219e-10	-2.564405e+01	-6.211572e+01
9.900000e-07	-3.660550e-06	-9.478359e-10	-2.539761e+01	-6.189584e+01
1.000000e-06	-3.624840e-06	-9.386216e-10	-2.514985e+01	-6.167486e+01
1.010000e-06	-3.588983e-06	-9.388058e-10	-2.490107e+01	-6.145252e+01
1.020000e-06	-3.552992e-06	-9.335098e-10	-2.465135e+01	-6.122853e+01
1.030000e-06	-3.516815e-06	-9.264248e-10	-2.440035e+01	-6.100258e+01
1.040000e-06	-3.480445e-06	-9.217782e-10	-2.414801e+01	-6.077435e+01
1.050000e-06	-3.443895e-06	-9.176478e-10	-2.389442e+01	-6.054348e+01
1.060000e-06	-3.407046e-06	-9.093863e-10	-2.363875e+01	-6.030960e+01
1.070000e-06	-3.369933e-06	-9.053676e-10	-2.338125e+01	-6.007232e+01
1.080000e-06	-3.332513e-06	-9.037151e-10	-2.312162e+01	-5.983125e+01
1.090000e-06	-3.294791e-06	-8.983711e-10	-2.285990e+01	-5.958597e+01
1.100000e-06	-3.256875e-06	-8.911592e-10	-2.259683e+01	-5.933606e+01
1.110000e-06	-3.218765e-06	-8.833726e-10	-2.233242e+01	-5.908109e+01
1.120000e-06	-3.180435e-06	-8.727691e-10	-2.206648e+01	-5.882063e+01
1.130000e-06	-3.141898e-06	-8.618537e-10	-2.179910e+01	-5.855426e+01
1.140000e-06	-3.103069e-06	-8.582480e-10	-2.152970e+01	-5.828154e+01
1.150000e-06	-3.064007e-06	-8.525878e-10	-2.125868e+01	-5.800206e+01
1.160000e-06	-3.024863e-06	-8.455742e-10	-2.098709e+01	-5.771540e+01
1.170000e-06	-2.985605e-06	-8.399828e-10	-2.071471e+01	-5.742116e+01
1.180000e-06	-2.946104e-06	-8.375507e-10	-2.044065e+01	-5.711895e+01
1.190000e-06	-2.906362e-06	-8.321176e-10	-2.016491e+01	-5.680842e+01
1.200000e-06	-2.866505e-06	-8.285958e-10	-1.988837e+01	-5.648920e+01
1.210000e-06	-2.826554e-06	-8.226551e-10	-1.961118e+01	-5.616098e+01
1.220000e-06	-2.786515e-06	-8.138323e-10	-1.933338e+01	-5.582345e+01
1.230000e-06	-2.746281e-06	-8.030205e-10	-1.905423e+01	-5.547634e+01
1.240000e-06	-2.705881e-06	-7.986079e-10	-1.877393e+01	-5.511940e+01
1.250000e-06	-2.665335e-06	-7.933821e-10	-1.849261e+01	-5.475240e+01
1.260000e-06	-2.624520e-06	-7.898900e-10	-1.820943e+01	-5.437517e+01
1.270000e-06	-2.583450e-06	-7.883176e-10	-1.792448e+01	-5.398753e+01
1.280000e-06	-2.542116e-06	-7.840865e-10	-1.763770e+01	-5.358938e+01
1.290000e-06	-2.500535e-06	-7.726447e-10	-1.734920e+01	-5.318060e+01
1.300000e-06	-2.458663e-06	-7.615561e-10	-1.705868e+01	-5.276114e+01
1.310000e-06	-2.416439e-06	-7.521745e-10	-1.676573e+01	-5.233095e+01
1.320000e-06	-2.373886e-06	-7.446213e-10	-1.647049e+01	-5.189004e+01
1.330000e-06	-2.331075e-06	-7.423188e-10	-1.617346e+01	-5.143842e+01
1.340000e-06	-2.288099e-06	-7.422687e-10	-1.587528e+01	-5.097614e+01
1.350000e-06	-2.244839e-06	-7.351798e-10	-1.557513e+01	-5.050326e+01
1.360000e-06	-2.201305e-06	-7.256372e-10	-1.527309e+01	-5.001989e+01
1.370000e-06	-2.157660e-06	-7.162947e-10	-1.497027e+01	-4.952613e+01
1.380000e-06	-2.113932e-06	-7.072311e-10	-1.466687e+01	-4.902210e+01
1.390000e-06	-2.070134e-06	-6.994530e-10	-1.436299e+01	-4.850795e+01
1.400000e-06	-2.026236e-06	-6.926676e-10	-1.405842e+01	-4.798382e+01
1.410000e-06	-1.982267e-06	-6.839020e-10	-1.375336e+01	-4.744987e+01
1.420000e-06	-1.938247e-06	-6.734969e-10	-1.344794e+01	-4.690624e+01
1.430000e-06	-1.894173e-06	-6.647619e-10	-1.314214e+01	-4.635311e+01
1.440000e-06	-1.849997e-06	-6.562011e-10	-1.283564e+01	-4.579061e+01
1.450000e-06	-1.805752e-06	-6.483231e-10	-1.252866e+01	-4.521889e+01
1.460000e-06	-1.761346e-06	-6.404172e-10	-1.222057e+01	-4.463809e+01
1.470000e-06	-1.716696e-06	-6.324261e-10	-1.191077e+01	-4.404830e+01
1.480000e-06	-1.671950e-06	-6.229197e-10	-1.160032e+01	-4.344964e+01
1.490000e-06	-1.627136e-06	-6.124548e-10	-1.128939e+01	-4.284218e+01
1.500000e-06	-1.582223e-06	-6.040325e-10	-1.097777e+01	-4.222597e+01
1.510000e-06	-1.537156e-06	-5.934728e-10	-1.066509e+01	-4.160102e+01
1.520000e-06	-1.491960e-06	-5.803289e-10	-1.035151e+01	-4.096734e+01
1.530000e-06	-1.446643e-06	-5.693621e-10	-1.003709e+01	-4.032489e+01
1.540000e-06	-1.401127e-06	-5.564651e-10	-9.721292e+00	-3.967360e+01
1.550000e-06	-1.355523e-06	-5.458628e-10	-9.404885e+00	-3.901335e+01
1.560000e-06	-1.309969e-06	-5.327278e-10	-9.088820e+00	-3.834403e+01
1.570000e-06	-1.264345e-06	-5.218395e-10	-8.772276e+00	-3.766544e+01
1.580000e-06	-1.218613e-06	-5.114937e-10	-8.454974e+00	-3.697739e+01
1.590000e-06	-1.172739e-06	-5.009114e-10	-8.136696e+00	-3.627962e+01
1.600000e-06	-1.126757e-06	-4.895170e-10	-7.817664e+00	-3.557187e+01
1.610000e-06	-1.080739e-06	-4.772770e-10	-7.498376e+00	-3.485382e+01
1.620000e-06	-1.034652e-06	-4.626040e-10	-7.178617e+00	-3.412514e+01
1.630000e-06	-9.885123e-07	-4.474302e-10	-6.858492e+00	-3.338547e+01
1.640000e-06	-9.422562e-07	-4.325741e-10	-6.537558e+00	-3.263441e+01
1.650000e-06	-8.959303e-07	-4.187230e-10	-6.216140e+00	-3.187156e+01
1.660000e-06	-8.495887e-07	-4.069384e-10	-5.894613e+00	-3.109650e+01
1.670000e-06	-8.031923e-07	-3.955577e-10	-5.572705e+00	-3.030878e+01
1.680000e-06	-7.567300e-07	-3.850974e-10	-5.250341e+00	-2.950796e+01
1.690000e-06	-7.101784e-07	-3.752185e-10	-4.927357e+00	-2.869360e+01
1.700000e-06	-6.635612e-07	-3.623025e-10	-4.603918e+00	-2.786524e+01
1.710000e-06	-6.169184e-07	-3.457529e-10	-4.280301e+00	-2.702246e+01
1.720000e-06	-5.703077e-07	-3.284877e-10	-3.956907e+00	-2.616481e+01
1.730000e-06	-5.236463e-07	-3.121610e-10	-3.633160e+00	-2.529190e+01
1.740000e-06	-4.767719e-07	-2.973560e-10	-3.307937e+00	-2.440335e+01
1.750000e-06	-4.298503e-07	-2.850925e-10	-2.982385e+00	-2.349879e+01
1.760000e-06	-3.829903e-07	-2.726477e-10	-2.657262e+00	-2.257792e+01
1.770000e-06	-3.361273e-07	-2.599973e-10	-2.332117e+00	-2.164044e+01
1.780000e-06	-2.892348e-07	-2.466344e-10	-2.006768e+00	-2.068615e+01
1.790000e-06	-2.423700e-07	-2.318633e-10	-1.681610e+00	-1.971484e+01
1.800000e-06	-1.955807e-07	-2.175695e-10	-1.356977e+00	-1.872640e+01
1.810000e-06	-1.487342e-07	-1.991372e-10	-1.031947e+00	-1.772077e+01
1.820000e-06	-1.017659e-07	-1.793444e-10	-7.060719e-01	-1.669795e+01
1.830000e-06	-5.475571e-08	-1.589873e-10	-3.799058e-01	-1.565800e+01
1.840000e-06	-7.739705e-09	-1.439057e-10	-5.369959e-02	-1.460107e+01
1.850000e-06	3.932721e-08	-1.323288e-10	2.728599e-01	-1.352738e+01
1.860000e-06	8.640677e-08	-1.226868e-10	5.995071e-01	-1.243720e+01
1.870000e-06	1.334081e-07	-1.118930e-10	9.256113e-01	-1.133093e+01
1.880000e-06	1.803240e-07	-9.832932e-11	1.251123e+00	-1.020899e+01
1.890000e-06	2.272267e-07	-7.953526e-11	1.576543e+00	-9.071930e+00
1.900000e-06	2.741876e-07	-5.956355e-11	1.902367e+00	-7.920343e+00
1.910000e-06	3.211677e-07	-3.816855e-11	2.228325e+00	-6.754917e+00
1.920000e-06	3.681092e-07	-1.984668e-11	2.554014e+00	-5.576413e+00
1.930000e-06	4.149786e-07	-5.886853e-12	2.879203e+00	-4.385665e+00
1.940000e-06	4.617499e-07	6.173423e-12	3.203711e+00	-3.183579e+00
1.950000e-06	5.084103e-07	1.726999e-11	3.527450e+00	-1.971129e+00
1.960000e-06	5.549455e-07	3.194061e-11	3.850321e+00	-7.493530e-01
1.970000e-06	6.014926e-07	4.991651e-11	4.173273e+00	4.806533e-01
1.980000e-06	6.481735e-07	6.702760e-11	4.497155e+00	1.717739e+00
1.990000e-06	6.948981e-07	8.375983e-11	4.821339e+00	2.960706e+00
2.000000e-06	7.414749e-07	1.012561e-10	5.144498e+00	4.208313e+00
2.010000e-06	7.878629e-07	1.207005e-10	5.466347e+00	5.459283e+00
2.020000e-06	8.341601e-07	1.378452e-10	5.787566e+00	6.712310e+00
2.030000e-06	8.804664e-07	1.513639e-10	6.108849e+00	7.966068e+00
2.040000e-06	9.266840e-07	1.668687e-10	6.429515e+00	9.219215e+00
2.050000e-06	9.727476e-07	1.818641e-10	6.749113e+00	1.047040e+01
2.060000e-06	1.018741e-06	2.008479e-10	7.068222e+00	1.171828e+01
2.070000e-06	1.064727e-06	2.193128e-10	7.387285e+00	1.296150e+01
2.080000e-06	1.110673e-06	2.360789e-10	7.706064e+00	1.419876e+01
2.090000e-06	1.156496e-06	2.512756e-10	8.023994e+00	1.542873e+01
2.100000e-06	1.202250e-06	2.673146e-10	8.341443e+00	1.665016e+01
2.110000e-06	1.247999e-06	2.813015e-10	8.658859e+00	1.786181e+01
2.120000e-06	1.293670e-06	2.952081e-10	8.975739e+00	1.906249e+01
2.130000e-06	1.339237e-06	3.112926e-10	9.291889e+00	2.025106e+01
2.140000e-06	1.384733e-06	3.279040e-10	9.607551e+00	2.142644e+01
2.150000e-06	1.430116e-06	3.421071e-10	9.922423e+00	2.258761e+01
2.160000e-06	1.475332e-06	3.571329e-10	1.023614e+01	2.373362e+01
2.170000e-06	1.520412e-06	3.734099e-10	1.054891e+01	2.486359e+01
2.180000e-06	1.565378e-06	3.854800e-10	1.086090e+01	2.597671e+01
2.190000e-06	1.610257e-06	3.957876e-10	1.117228e+01	2.707226e+01
2.200000e-06	1.655101e-06	4.100700e-10	1.148342e+01	2.814960e+01
2.210000e-06	1.699747e-06	4.272954e-10	1.179318e+01	2.920817e+01
2.220000e-06	1.744225e-06	4.453252e-10	1.210177e+01	3.024749e+01
2.230000e-06	1.788641e-06	4.615667e-10	1.240994e+01	3.126717e+01
2.240000e-06	1.832897e-06	4.749305e-10	1.271700e+01	3.226692e+01
2.250000e-06	1.877014e-06	4.860304e-10	1.302309e+01	3.324652e+01
2.260000e-06	1.921049e-06	4.962250e-10	1.332861e+01	3.420583e+01
2.270000e-06	1.965001e-06	5.076886e-10	1.363356e+01	3.514481e+01
2.280000e-06	2.008924e-06	5.194418e-10	1.393831e+01	3.606349e+01
2.290000e-06	2.052832e-06	5.322030e-10	1.424295e+01	3.696196e+01
2.300000e-06	2.096670e-06	5.449484e-10	1.454711e+01	3.784041e+01
2.310000e-06	2.140439e-06	5.584244e-10	1.485078e+01	3.869909e+01
2.320000e-06	2.184140e-06	5.714127e-10	1.515399e+01	3.953830e+01
2.330000e-06	2.227718e-06	5.830978e-10	1.545634e+01	4.035841e+01
2.340000e-06	2.271103e-06	5.920974e-10	1.575736e+01	4.115984e+01
2.350000e-06	2.314258e-06	5.993314e-10	1.605677e+01	4.194306e+01
2.360000e-06	2.357249e-06	6.075327e-10	1.635505e+01	4.270857e+01
2.370000e-06	2.399971e-06	6.175109e-10	1.665147e+01	4.345693e+01
2.380000e-06	2.442385e-06	6.290793e-10	1.694575e+01	4.418870e+01
2.390000e-06	2.484458e-06	6.434268e-10	1.723765e+01	4.490446e+01
2.400000e-06	2.526153e-06	6.566004e-10	1.752694e+01	4.560485e+01
2.410000e-06	2.567602e-06	6.686409e-10	1.781452e+01	4.629046e+01
2.420000e-06	2.608804e-06	6.785673e-10	1.810039e+01	4.696191e+01
2.430000e-06	2.649710e-06	6.871048e-10	1.838421e+01	4.761984e+01
2.440000e-06	2.690245e-06	6.962969e-10	1.866545e+01	4.826483e+01
2.450000e-06	2.730542e-06	7.062539e-10	1.894503e+01	4.889748e+01
2.460000e-06	2.770717e-06	7.158833e-10	1.922378e+01	4.951837e+01
2.470000e-06	2.810718e-06	7.266053e-10	1.950131e+01	5.012804e+01
2.480000e-06	2.850640e-06	7.366354e-10	1.977830e+01	5.072701e+01
2.490000e-06	2.890453e-06	7.439845e-10	2.005453e+01	5.131575e+01
2.500000e-06	2.930080e-06	7.513002e-10	2.032947e+01	5.189472e+01
2.510000e-06	2.969626e-06	7.598631e-10	2.060385e+01	5.246432e+01
2.520000e-06	3.009096e-06	7.683470e-10	2.087770e+01	5.302492e+01
2.530000e-06	3.048359e-06	7.753104e-10	2.115011e+01	5.357683e+01
2.540000e-06	3.087423e-06	7.818727e-10	2.142114e+01	5.412032e+01
2.550000e-06	3.126282e-06	7.891326e-10	2.169076e+01	5.465563e+01
2.560000e-06	3.164732e-06	7.971605e-10	2.195753e+01	5.518293e+01
2.570000e-06	3.202876e-06	8.047135e-10	2.222218e+01	5.570236e+01
2.580000e-06	3.240873e-06	8.109216e-10	2.248581e+01	5.621401e+01
2.590000e-06	3.278706e-06	8.154602e-10	2.274831e+01	5.671791e+01
2.600000e-06	3.316397e-06	8.214950e-10	2.300981e+01	5.721408e+01
2.610000e-06	3.353868e-06	8.298164e-10	2.326979e+01	5.770246e+01
2.620000e-06	3.391014e-06	8.384094e-10	2.352752e+01	5.818300e+01
2.630000e-06	3.427919e-06	8.449205e-10	2.378358e+01	5.865557e+01
2.640000e-06	3.464620e-06	8.498243e-10	2.403821e+01	5.912004e+01
2.650000e-06	3.501010e-06	8.539207e-10	2.429069e+01	5.957625e+01
2.660000e-06	3.537178e-06	8.577948e-10	2.454164e+01	6.002399e+01
2.670000e-06	3.573171e-06	8.598234e-10	2.479136e+01	6.046308e+01
2.680000e-06	3.608988e-06	8.624752e-10	2.503986e+01	6.089327e+01
2.690000e-06	3.644740e-06	8.691740e-10	2.528792e+01	6.131435e+01
2.700000e-06	3.680354e-06	8.775841e-10	2.553501e+01	6.172608e+01
2.710000e-06	3.715766e-06	8.865744e-10	2.578071e+01	6.212823e+01
2.720000e-06	3.750972e-06	8.968022e-10	2.602498e+01	6.252055e+01
2.730000e-06	3.785818e-06	9.063577e-10	2.626675e+01	6.290284e+01
2.740000e-06	3.820177e-06	9.119635e-10	2.650513e+01	6.327487e+01
2.750000e-06	3.854094e-06	9.139647e-10	2.674046e+01	6.363645e+01
2.760000e-06	3.887543e-06	9.157812e-10	2.697253e+01	6.398742e+01
2.770000e-06	3.920476e-06	9.183549e-10	2.720103e+01	6.432763e+01
2.780000e-06	3.952974e-06	9.232374e-10	2.742651e+01	6.465695e+01
2.790000e-06	3.985212e-06	9.304442e-10	2.765018e+01	6.497529e+01
2.800000e-06	4.017278e-06	9.383100e-10	2.787266e+01	6.528260e+01
2.810000e-06	4.049167e-06	9.455195e-10	2.809392e+01	6.557885e+01
2.820000e-06	4.080907e-06	9.504484e-10	2.831413e+01	6.586406e+01
2.830000e-06	4.112500e-06	9.543995e-10	2.853333e+01	6.613828e+01
2.840000e-06	4.143820e-06	9.553333e-10	2.875064e+01	6.640160e+01
2.850000e-06	4.174781e-06	9.559640e-10	2.896545e+01	6.665415e+01
2.860000e-06	4.205422e-06	9.602750e-10	2.917804e+01	6.689609e+01
2.870000e-06	4.235706e-06	9.633539e-10	2.938816e+01	6.712764e+01
2.880000e-06	4.265721e-06	9.646276e-10	2.959641e+01	6.734904e+01
2.890000e-06	4.295540e-06	9.675623e-10	2.980330e+01	6.756056e+01
2.900000e-06	4.325111e-06	9.722692e-10	3.000847e+01	6.776253e+01
