# Temperatura_=_-9.97
# Concentracion g/m^3_=_1620.0
# C_Vs_to_Am_M_A/Vsm_=_65563218390.804596
# pendiente_HvsI_1/m_=_3716.3
# ordenada_HvsI_A/m_=_1297.0
# frecuencia_Hz_=_135096.21382829896

Tiempo_(s)	Campo_(V.s)	Magnetizacion_(V.s)	Campo_(kA/m)	Magnetizacion_(A/m)
0.000000e+00	-5.515306e-06	-8.932226e-10	-3.837231e+01	-5.931079e+01
1.000000e-08	-5.515593e-06	-8.926296e-10	-3.837431e+01	-5.930132e+01
2.000000e-08	-5.515705e-06	-8.905349e-10	-3.837509e+01	-5.929050e+01
3.000000e-08	-5.515534e-06	-8.905251e-10	-3.837390e+01	-5.927835e+01
4.000000e-08	-5.514871e-06	-8.901315e-10	-3.836928e+01	-5.926492e+01
5.000000e-08	-5.513569e-06	-8.866471e-10	-3.836022e+01	-5.925024e+01
6.000000e-08	-5.511627e-06	-8.851109e-10	-3.834672e+01	-5.923433e+01
7.000000e-08	-5.509135e-06	-8.855127e-10	-3.832938e+01	-5.921724e+01
8.000000e-08	-5.506143e-06	-9.118958e-10	-3.830856e+01	-5.919899e+01
9.000000e-08	-5.502720e-06	-9.249934e-10	-3.828475e+01	-5.917959e+01
1.000000e-07	-5.498825e-06	-8.744723e-10	-3.825765e+01	-5.915907e+01
1.100000e-07	-5.494540e-06	-7.866798e-10	-3.822783e+01	-5.913745e+01
1.200000e-07	-5.490107e-06	-8.707949e-10	-3.819699e+01	-5.911474e+01
1.300000e-07	-5.485420e-06	-9.526564e-10	-3.816438e+01	-5.909094e+01
1.400000e-07	-5.480268e-06	-9.263566e-10	-3.812853e+01	-5.906606e+01
1.500000e-07	-5.474745e-06	-7.918065e-10	-3.809011e+01	-5.904009e+01
1.600000e-07	-5.468952e-06	-8.493370e-10	-3.804981e+01	-5.901303e+01
1.700000e-07	-5.462712e-06	-9.456576e-10	-3.800639e+01	-5.898487e+01
1.800000e-07	-5.455977e-06	-9.342334e-10	-3.795953e+01	-5.895558e+01
1.900000e-07	-5.448986e-06	-8.119933e-10	-3.791090e+01	-5.892516e+01
2.000000e-07	-5.441763e-06	-8.392468e-10	-3.786064e+01	-5.889357e+01
2.100000e-07	-5.434120e-06	-9.340950e-10	-3.780747e+01	-5.886078e+01
2.200000e-07	-5.426188e-06	-9.599474e-10	-3.775228e+01	-5.882675e+01
2.300000e-07	-5.418053e-06	-8.866218e-10	-3.769568e+01	-5.879146e+01
2.400000e-07	-5.409554e-06	-8.522711e-10	-3.763655e+01	-5.875485e+01
2.500000e-07	-5.400370e-06	-9.092194e-10	-3.757265e+01	-5.871688e+01
2.600000e-07	-5.390464e-06	-9.225028e-10	-3.750374e+01	-5.867749e+01
2.700000e-07	-5.380086e-06	-8.875972e-10	-3.743153e+01	-5.863665e+01
2.800000e-07	-5.369208e-06	-8.568938e-10	-3.735584e+01	-5.859428e+01
2.900000e-07	-5.357830e-06	-9.211610e-10	-3.727669e+01	-5.855034e+01
3.000000e-07	-5.346074e-06	-9.029104e-10	-3.719489e+01	-5.850478e+01
3.100000e-07	-5.333888e-06	-8.660707e-10	-3.711011e+01	-5.845752e+01
3.200000e-07	-5.321220e-06	-8.302107e-10	-3.702197e+01	-5.840851e+01
3.300000e-07	-5.308182e-06	-9.062370e-10	-3.693126e+01	-5.835770e+01
3.400000e-07	-5.294864e-06	-8.782615e-10	-3.683860e+01	-5.830503e+01
3.500000e-07	-5.281168e-06	-8.462223e-10	-3.674332e+01	-5.825044e+01
3.600000e-07	-5.266901e-06	-8.408542e-10	-3.664405e+01	-5.819388e+01
3.700000e-07	-5.252231e-06	-9.169022e-10	-3.654199e+01	-5.813530e+01
3.800000e-07	-5.237118e-06	-8.668909e-10	-3.643684e+01	-5.807466e+01
3.900000e-07	-5.221305e-06	-8.405747e-10	-3.632682e+01	-5.801191e+01
4.000000e-07	-5.204980e-06	-8.825264e-10	-3.621324e+01	-5.794701e+01
4.100000e-07	-5.188374e-06	-8.898356e-10	-3.609771e+01	-5.787993e+01
4.200000e-07	-5.171400e-06	-8.070319e-10	-3.597961e+01	-5.781065e+01
4.300000e-07	-5.154114e-06	-8.499724e-10	-3.585935e+01	-5.773914e+01
4.400000e-07	-5.136626e-06	-9.211943e-10	-3.573767e+01	-5.766538e+01
4.500000e-07	-5.118676e-06	-8.434292e-10	-3.561279e+01	-5.758937e+01
4.600000e-07	-5.100142e-06	-7.917150e-10	-3.548384e+01	-5.751111e+01
4.700000e-07	-5.081356e-06	-8.869008e-10	-3.535314e+01	-5.743060e+01
4.800000e-07	-5.062328e-06	-8.871736e-10	-3.522075e+01	-5.734785e+01
4.900000e-07	-5.042936e-06	-7.986835e-10	-3.508583e+01	-5.726289e+01
5.000000e-07	-5.023363e-06	-8.538066e-10	-3.494966e+01	-5.717574e+01
5.100000e-07	-5.003588e-06	-8.922611e-10	-3.481207e+01	-5.708644e+01
5.200000e-07	-4.983470e-06	-8.121610e-10	-3.467210e+01	-5.699503e+01
5.300000e-07	-4.963018e-06	-8.195421e-10	-3.452981e+01	-5.690156e+01
5.400000e-07	-4.942260e-06	-9.006621e-10	-3.438539e+01	-5.680608e+01
5.500000e-07	-4.921073e-06	-8.281561e-10	-3.423798e+01	-5.670867e+01
5.600000e-07	-4.899530e-06	-7.913957e-10	-3.408810e+01	-5.660938e+01
5.700000e-07	-4.877753e-06	-8.695337e-10	-3.393659e+01	-5.650830e+01
5.800000e-07	-4.855601e-06	-8.686305e-10	-3.378247e+01	-5.640551e+01
5.900000e-07	-4.833078e-06	-7.911382e-10	-3.362577e+01	-5.630109e+01
6.000000e-07	-4.810258e-06	-8.381025e-10	-3.346699e+01	-5.619513e+01
6.100000e-07	-4.787175e-06	-8.541622e-10	-3.330639e+01	-5.608772e+01
6.200000e-07	-4.763810e-06	-8.025956e-10	-3.314383e+01	-5.597896e+01
6.300000e-07	-4.740206e-06	-8.063023e-10	-3.297962e+01	-5.586896e+01
6.400000e-07	-4.716350e-06	-8.483068e-10	-3.281364e+01	-5.575779e+01
6.500000e-07	-4.692161e-06	-8.104573e-10	-3.264534e+01	-5.564558e+01
6.600000e-07	-4.667565e-06	-8.114800e-10	-3.247422e+01	-5.553240e+01
6.700000e-07	-4.642438e-06	-8.354832e-10	-3.229940e+01	-5.541837e+01
6.800000e-07	-4.616727e-06	-8.176437e-10	-3.212052e+01	-5.530357e+01
6.900000e-07	-4.590492e-06	-7.995134e-10	-3.193799e+01	-5.518810e+01
7.000000e-07	-4.563862e-06	-8.295964e-10	-3.175271e+01	-5.507203e+01
7.100000e-07	-4.536866e-06	-8.172447e-10	-3.156489e+01	-5.495546e+01
7.200000e-07	-4.509539e-06	-8.036299e-10	-3.137476e+01	-5.483846e+01
7.300000e-07	-4.481977e-06	-8.189902e-10	-3.118301e+01	-5.472109e+01
7.400000e-07	-4.454265e-06	-8.170127e-10	-3.099020e+01	-5.460341e+01
7.500000e-07	-4.426314e-06	-7.991791e-10	-3.079573e+01	-5.448547e+01
7.600000e-07	-4.397959e-06	-8.080999e-10	-3.059845e+01	-5.436732e+01
7.700000e-07	-4.369254e-06	-8.054692e-10	-3.039874e+01	-5.424899e+01
7.800000e-07	-4.340310e-06	-7.908011e-10	-3.019737e+01	-5.413050e+01
7.900000e-07	-4.311137e-06	-8.047547e-10	-2.999440e+01	-5.401185e+01
8.000000e-07	-4.281754e-06	-8.094507e-10	-2.978997e+01	-5.389304e+01
8.100000e-07	-4.252044e-06	-7.907193e-10	-2.958327e+01	-5.377407e+01
8.200000e-07	-4.221993e-06	-7.918500e-10	-2.937419e+01	-5.365489e+01
8.300000e-07	-4.191680e-06	-8.096543e-10	-2.916329e+01	-5.353548e+01
8.400000e-07	-4.161097e-06	-7.931118e-10	-2.895051e+01	-5.341577e+01
8.500000e-07	-4.130157e-06	-7.857744e-10	-2.873524e+01	-5.329571e+01
8.600000e-07	-4.098952e-06	-7.957795e-10	-2.851814e+01	-5.317520e+01
8.700000e-07	-4.067571e-06	-7.943189e-10	-2.829981e+01	-5.305417e+01
8.800000e-07	-4.035963e-06	-7.788240e-10	-2.807990e+01	-5.293250e+01
8.900000e-07	-4.004182e-06	-7.924413e-10	-2.785879e+01	-5.281008e+01
9.000000e-07	-3.972284e-06	-7.928308e-10	-2.763686e+01	-5.268678e+01
9.100000e-07	-3.940169e-06	-7.805653e-10	-2.741342e+01	-5.256246e+01
9.200000e-07	-3.907632e-06	-7.790133e-10	-2.718705e+01	-5.243698e+01
9.300000e-07	-3.874734e-06	-7.893653e-10	-2.695816e+01	-5.231016e+01
9.400000e-07	-3.841444e-06	-7.729549e-10	-2.672655e+01	-5.218184e+01
9.500000e-07	-3.807680e-06	-7.654347e-10	-2.649164e+01	-5.205185e+01
9.600000e-07	-3.773469e-06	-7.734411e-10	-2.625361e+01	-5.191999e+01
9.700000e-07	-3.738773e-06	-7.720409e-10	-2.601222e+01	-5.178609e+01
9.800000e-07	-3.703624e-06	-7.624075e-10	-2.576767e+01	-5.164993e+01
9.900000e-07	-3.668230e-06	-7.725472e-10	-2.552143e+01	-5.151133e+01
1.000000e-06	-3.632696e-06	-7.746578e-10	-2.527420e+01	-5.137007e+01
1.010000e-06	-3.596960e-06	-7.649162e-10	-2.502557e+01	-5.122595e+01
1.020000e-06	-3.561107e-06	-7.586899e-10	-2.477612e+01	-5.107877e+01
1.030000e-06	-3.525174e-06	-7.594092e-10	-2.452613e+01	-5.092831e+01
1.040000e-06	-3.489067e-06	-7.484298e-10	-2.427491e+01	-5.077437e+01
1.050000e-06	-3.452692e-06	-7.411206e-10	-2.402184e+01	-5.061675e+01
1.060000e-06	-3.415976e-06	-7.420515e-10	-2.376639e+01	-5.045524e+01
1.070000e-06	-3.378933e-06	-7.387461e-10	-2.350866e+01	-5.028966e+01
1.080000e-06	-3.341717e-06	-7.357965e-10	-2.324973e+01	-5.011981e+01
1.090000e-06	-3.304396e-06	-7.378474e-10	-2.299007e+01	-4.994551e+01
1.100000e-06	-3.266897e-06	-7.334458e-10	-2.272918e+01	-4.976658e+01
1.110000e-06	-3.229088e-06	-7.191609e-10	-2.246613e+01	-4.958285e+01
1.120000e-06	-3.191015e-06	-7.122716e-10	-2.220124e+01	-4.939416e+01
1.130000e-06	-3.152704e-06	-7.071713e-10	-2.193469e+01	-4.920036e+01
1.140000e-06	-3.114068e-06	-7.052706e-10	-2.166588e+01	-4.900132e+01
1.150000e-06	-3.075291e-06	-7.044275e-10	-2.139609e+01	-4.879689e+01
1.160000e-06	-3.036426e-06	-7.057626e-10	-2.112570e+01	-4.858695e+01
1.170000e-06	-2.997336e-06	-7.037955e-10	-2.085373e+01	-4.837140e+01
1.180000e-06	-2.958031e-06	-7.033004e-10	-2.058027e+01	-4.815014e+01
1.190000e-06	-2.918586e-06	-6.979203e-10	-2.030583e+01	-4.792307e+01
1.200000e-06	-2.878937e-06	-6.911253e-10	-2.002998e+01	-4.769011e+01
1.210000e-06	-2.839143e-06	-6.833289e-10	-1.975311e+01	-4.745119e+01
1.220000e-06	-2.799294e-06	-6.833060e-10	-1.947587e+01	-4.720624e+01
1.230000e-06	-2.759284e-06	-6.815993e-10	-1.919751e+01	-4.695522e+01
1.240000e-06	-2.719128e-06	-6.811402e-10	-1.891812e+01	-4.669808e+01
1.250000e-06	-2.678825e-06	-6.789752e-10	-1.863772e+01	-4.643478e+01
1.260000e-06	-2.638273e-06	-6.771431e-10	-1.835558e+01	-4.616528e+01
1.270000e-06	-2.597446e-06	-6.727823e-10	-1.807153e+01	-4.588956e+01
1.280000e-06	-2.556407e-06	-6.692607e-10	-1.778600e+01	-4.560759e+01
1.290000e-06	-2.515153e-06	-6.623992e-10	-1.749898e+01	-4.531935e+01
1.300000e-06	-2.473534e-06	-6.563199e-10	-1.720942e+01	-4.502481e+01
1.310000e-06	-2.431599e-06	-6.520934e-10	-1.691766e+01	-4.472397e+01
1.320000e-06	-2.389350e-06	-6.489922e-10	-1.662372e+01	-4.441680e+01
1.330000e-06	-2.346785e-06	-6.445164e-10	-1.632758e+01	-4.410326e+01
1.340000e-06	-2.304011e-06	-6.435170e-10	-1.602998e+01	-4.378335e+01
1.350000e-06	-2.260929e-06	-6.415853e-10	-1.573024e+01	-4.345702e+01
1.360000e-06	-2.217645e-06	-6.327889e-10	-1.542909e+01	-4.312423e+01
1.370000e-06	-2.174234e-06	-6.222719e-10	-1.512706e+01	-4.278495e+01
1.380000e-06	-2.130646e-06	-6.158685e-10	-1.482380e+01	-4.243910e+01
1.390000e-06	-2.086979e-06	-6.119064e-10	-1.451999e+01	-4.208663e+01
1.400000e-06	-2.043268e-06	-6.080280e-10	-1.421588e+01	-4.172745e+01
1.410000e-06	-1.999488e-06	-6.037595e-10	-1.391128e+01	-4.136149e+01
1.420000e-06	-1.955668e-06	-5.957277e-10	-1.360641e+01	-4.098863e+01
1.430000e-06	-1.911746e-06	-5.864590e-10	-1.330083e+01	-4.060875e+01
1.440000e-06	-1.867705e-06	-5.791166e-10	-1.299441e+01	-4.022173e+01
1.450000e-06	-1.823549e-06	-5.750365e-10	-1.268720e+01	-3.982741e+01
1.460000e-06	-1.779297e-06	-5.682682e-10	-1.237932e+01	-3.942563e+01
1.470000e-06	-1.735014e-06	-5.614941e-10	-1.207122e+01	-3.901622e+01
1.480000e-06	-1.690585e-06	-5.544247e-10	-1.176211e+01	-3.859897e+01
1.490000e-06	-1.645963e-06	-5.447722e-10	-1.145166e+01	-3.817367e+01
1.500000e-06	-1.601220e-06	-5.342041e-10	-1.114036e+01	-3.774010e+01
1.510000e-06	-1.556352e-06	-5.288156e-10	-1.082819e+01	-3.729801e+01
1.520000e-06	-1.511318e-06	-5.207093e-10	-1.051488e+01	-3.684714e+01
1.530000e-06	-1.466158e-06	-5.117316e-10	-1.020068e+01	-3.638722e+01
1.540000e-06	-1.420872e-06	-5.027226e-10	-9.885603e+00	-3.591796e+01
1.550000e-06	-1.375465e-06	-4.996945e-10	-9.569692e+00	-3.543907e+01
1.560000e-06	-1.329984e-06	-4.903904e-10	-9.253261e+00	-3.495023e+01
1.570000e-06	-1.284426e-06	-4.786881e-10	-8.936293e+00	-3.445113e+01
1.580000e-06	-1.238843e-06	-4.685561e-10	-8.619152e+00	-3.394144e+01
1.590000e-06	-1.193262e-06	-4.602141e-10	-8.302024e+00	-3.342083e+01
1.600000e-06	-1.147537e-06	-4.532305e-10	-7.983898e+00	-3.288897e+01
1.610000e-06	-1.101674e-06	-4.512269e-10	-7.664814e+00	-3.234551e+01
1.620000e-06	-1.055788e-06	-4.498030e-10	-7.345563e+00	-3.179012e+01
1.630000e-06	-1.009853e-06	-4.425227e-10	-7.025971e+00	-3.122247e+01
1.640000e-06	-9.638320e-07	-4.315077e-10	-6.705786e+00	-3.064222e+01
1.650000e-06	-9.176916e-07	-4.171399e-10	-6.384768e+00	-3.004906e+01
1.660000e-06	-8.715378e-07	-4.025508e-10	-6.063656e+00	-2.944267e+01
1.670000e-06	-8.252948e-07	-3.882465e-10	-5.741924e+00	-2.882275e+01
1.680000e-06	-7.789319e-07	-3.811387e-10	-5.419358e+00	-2.818902e+01
1.690000e-06	-7.326187e-07	-3.760128e-10	-5.097138e+00	-2.754121e+01
1.700000e-06	-6.863544e-07	-3.718158e-10	-4.775257e+00	-2.687907e+01
1.710000e-06	-6.399942e-07	-3.634358e-10	-4.452710e+00	-2.620238e+01
1.720000e-06	-5.935156e-07	-3.507068e-10	-4.129339e+00	-2.551093e+01
1.730000e-06	-5.469001e-07	-3.332177e-10	-3.805015e+00	-2.480456e+01
1.740000e-06	-5.001855e-07	-3.141116e-10	-3.480002e+00	-2.408312e+01
1.750000e-06	-4.535118e-07	-2.977947e-10	-3.155273e+00	-2.334650e+01
1.760000e-06	-4.068236e-07	-2.867752e-10	-2.830443e+00	-2.259462e+01
1.770000e-06	-3.601204e-07	-2.764884e-10	-2.505510e+00	-2.182744e+01
1.780000e-06	-3.134556e-07	-2.691085e-10	-2.180843e+00	-2.104496e+01
1.790000e-06	-2.667619e-07	-2.632527e-10	-1.855975e+00	-2.024721e+01
1.800000e-06	-2.199807e-07	-2.531832e-10	-1.530498e+00	-1.943426e+01
1.810000e-06	-1.731356e-07	-2.377748e-10	-1.204578e+00	-1.860623e+01
1.820000e-06	-1.262677e-07	-2.181741e-10	-8.784975e-01	-1.776328e+01
1.830000e-06	-7.946816e-08	-1.985317e-10	-5.528936e-01	-1.690561e+01
1.840000e-06	-3.268400e-08	-1.835894e-10	-2.273964e-01	-1.603346e+01
1.850000e-06	1.411451e-08	-1.718971e-10	9.820063e-02	-1.514713e+01
1.860000e-06	6.093691e-08	-1.657134e-10	4.239638e-01	-1.424694e+01
1.870000e-06	1.078111e-07	-1.596859e-10	7.500875e-01	-1.333326e+01
1.880000e-06	1.546242e-07	-1.506097e-10	1.075786e+00	-1.240653e+01
1.890000e-06	2.014556e-07	-1.383673e-10	1.401612e+00	-1.146720e+01
1.900000e-06	2.482815e-07	-1.220053e-10	1.727399e+00	-1.051577e+01
1.910000e-06	2.950766e-07	-1.052684e-10	2.052973e+00	-9.552781e+00
1.920000e-06	3.418561e-07	-8.968011e-11	2.378437e+00	-8.578819e+00
1.930000e-06	3.884902e-07	-7.722036e-11	2.702890e+00	-7.594501e+00
1.940000e-06	4.350836e-07	-6.574644e-11	3.027060e+00	-6.600480e+00
1.950000e-06	4.816116e-07	-5.918395e-11	3.350776e+00	-5.597443e+00
1.960000e-06	5.280366e-07	-5.427738e-11	3.673773e+00	-4.586108e+00
1.970000e-06	5.744690e-07	-4.482296e-11	3.996823e+00	-3.567220e+00
1.980000e-06	6.208331e-07	-2.822889e-11	4.319398e+00	-2.541552e+00
1.990000e-06	6.671247e-07	-8.960266e-12	4.641468e+00	-1.509900e+00
2.000000e-06	7.134686e-07	9.935939e-12	4.963902e+00	-4.730782e-01
2.010000e-06	7.597448e-07	2.532553e-11	5.285865e+00	5.680792e-01
2.020000e-06	8.059111e-07	3.695564e-11	5.607064e+00	1.612725e+00
2.030000e-06	8.520319e-07	4.719876e-11	5.927946e+00	2.659999e+00
2.040000e-06	8.981285e-07	5.982291e-11	6.248659e+00	3.709036e+00
2.050000e-06	9.441917e-07	7.223180e-11	6.569140e+00	4.758963e+00
2.060000e-06	9.902027e-07	8.670604e-11	6.889258e+00	5.808905e+00
2.070000e-06	1.036142e-06	1.029755e-10	7.208879e+00	6.857991e+00
2.080000e-06	1.081993e-06	1.202424e-10	7.527882e+00	7.905353e+00
2.090000e-06	1.127750e-06	1.356666e-10	7.846236e+00	8.950130e+00
2.100000e-06	1.173397e-06	1.482899e-10	8.163821e+00	9.991472e+00
2.110000e-06	1.219021e-06	1.610110e-10	8.481245e+00	1.102854e+01
2.120000e-06	1.264554e-06	1.738574e-10	8.798037e+00	1.206053e+01
2.130000e-06	1.310041e-06	1.890132e-10	9.114511e+00	1.308662e+01
2.140000e-06	1.355509e-06	2.057013e-10	9.430849e+00	1.410604e+01
2.150000e-06	1.400870e-06	2.210972e-10	9.746447e+00	1.511803e+01
2.160000e-06	1.446031e-06	2.338319e-10	1.006065e+01	1.612188e+01
2.170000e-06	1.491072e-06	2.481216e-10	1.037402e+01	1.711687e+01
2.180000e-06	1.536109e-06	2.639141e-10	1.068736e+01	1.810234e+01
2.190000e-06	1.580938e-06	2.767203e-10	1.099925e+01	1.907765e+01
2.200000e-06	1.625644e-06	2.887079e-10	1.131029e+01	2.004220e+01
2.210000e-06	1.670287e-06	3.018739e-10	1.162089e+01	2.099542e+01
2.220000e-06	1.714756e-06	3.143705e-10	1.193028e+01	2.193677e+01
2.230000e-06	1.759048e-06	3.284942e-10	1.223844e+01	2.286576e+01
2.240000e-06	1.803159e-06	3.444387e-10	1.254534e+01	2.378194e+01
2.250000e-06	1.847149e-06	3.582040e-10	1.285140e+01	2.468488e+01
2.260000e-06	1.891094e-06	3.707487e-10	1.315714e+01	2.557420e+01
2.270000e-06	1.934961e-06	3.819304e-10	1.346234e+01	2.644955e+01
2.280000e-06	1.978762e-06	3.906681e-10	1.376708e+01	2.731064e+01
2.290000e-06	2.022511e-06	3.992757e-10	1.407146e+01	2.815719e+01
2.300000e-06	2.066195e-06	4.083252e-10	1.437539e+01	2.898897e+01
2.310000e-06	2.109872e-06	4.192264e-10	1.467927e+01	2.980579e+01
2.320000e-06	2.153458e-06	4.314350e-10	1.498252e+01	3.060749e+01
2.330000e-06	2.196903e-06	4.432326e-10	1.528478e+01	3.139395e+01
2.340000e-06	2.240236e-06	4.525234e-10	1.558627e+01	3.216508e+01
2.350000e-06	2.283452e-06	4.616623e-10	1.588694e+01	3.292081e+01
2.360000e-06	2.326552e-06	4.703696e-10	1.618680e+01	3.366113e+01
2.370000e-06	2.369349e-06	4.795473e-10	1.648456e+01	3.438603e+01
2.380000e-06	2.411738e-06	4.892453e-10	1.677948e+01	3.509554e+01
2.390000e-06	2.453776e-06	5.001521e-10	1.707195e+01	3.578972e+01
2.400000e-06	2.495463e-06	5.112106e-10	1.736199e+01	3.646864e+01
2.410000e-06	2.536856e-06	5.204700e-10	1.764998e+01	3.713241e+01
2.420000e-06	2.577961e-06	5.306903e-10	1.793596e+01	3.778115e+01
2.430000e-06	2.618772e-06	5.413377e-10	1.821990e+01	3.841499e+01
2.440000e-06	2.659351e-06	5.505349e-10	1.850223e+01	3.903410e+01
2.450000e-06	2.699700e-06	5.609507e-10	1.878295e+01	3.963865e+01
2.460000e-06	2.739816e-06	5.693440e-10	1.906206e+01	4.022882e+01
2.470000e-06	2.779776e-06	5.762911e-10	1.934007e+01	4.080480e+01
2.480000e-06	2.819619e-06	5.830812e-10	1.961728e+01	4.136681e+01
2.490000e-06	2.859362e-06	5.885553e-10	1.989379e+01	4.191506e+01
2.500000e-06	2.899014e-06	5.946677e-10	2.016966e+01	4.244976e+01
2.510000e-06	2.938492e-06	6.034640e-10	2.044433e+01	4.297115e+01
2.520000e-06	2.977843e-06	6.131544e-10	2.071811e+01	4.347945e+01
2.530000e-06	3.017036e-06	6.199421e-10	2.099080e+01	4.397489e+01
2.540000e-06	3.056027e-06	6.248722e-10	2.126207e+01	4.445770e+01
2.550000e-06	3.094765e-06	6.283095e-10	2.153159e+01	4.492812e+01
2.560000e-06	3.133243e-06	6.306348e-10	2.179929e+01	4.538637e+01
2.570000e-06	3.171535e-06	6.366163e-10	2.206571e+01	4.583269e+01
2.580000e-06	3.209602e-06	6.450427e-10	2.233055e+01	4.626730e+01
2.590000e-06	3.247426e-06	6.505721e-10	2.259371e+01	4.669042e+01
2.600000e-06	3.285069e-06	6.563616e-10	2.285561e+01	4.710227e+01
2.610000e-06	3.322589e-06	6.615174e-10	2.311665e+01	4.750307e+01
2.620000e-06	3.359884e-06	6.659505e-10	2.337613e+01	4.789302e+01
2.630000e-06	3.396800e-06	6.713430e-10	2.363297e+01	4.827233e+01
2.640000e-06	3.433416e-06	6.788667e-10	2.388772e+01	4.864120e+01
2.650000e-06	3.469803e-06	6.844342e-10	2.414088e+01	4.899982e+01
2.660000e-06	3.505929e-06	6.870965e-10	2.439223e+01	4.934838e+01
2.670000e-06	3.541865e-06	6.890582e-10	2.464225e+01	4.968707e+01
2.680000e-06	3.577710e-06	6.902891e-10	2.489164e+01	5.001606e+01
2.690000e-06	3.613445e-06	6.929193e-10	2.514026e+01	5.033554e+01
2.700000e-06	3.648996e-06	6.984579e-10	2.538760e+01	5.064567e+01
2.710000e-06	3.684418e-06	7.046970e-10	2.563405e+01	5.094662e+01
2.720000e-06	3.719608e-06	7.105737e-10	2.587888e+01	5.123856e+01
2.730000e-06	3.754597e-06	7.177066e-10	2.612232e+01	5.152165e+01
2.740000e-06	3.789199e-06	7.229147e-10	2.636306e+01	5.179604e+01
2.750000e-06	3.823296e-06	7.237989e-10	2.660028e+01	5.206190e+01
2.760000e-06	3.857002e-06	7.261484e-10	2.683479e+01	5.231939e+01
2.770000e-06	3.890168e-06	7.295019e-10	2.706554e+01	5.256865e+01
2.780000e-06	3.922822e-06	7.347265e-10	2.729273e+01	5.280985e+01
2.790000e-06	3.955156e-06	7.411026e-10	2.751769e+01	5.304315e+01
2.800000e-06	3.987360e-06	7.453581e-10	2.774175e+01	5.326869e+01
2.810000e-06	4.019353e-06	7.492932e-10	2.796433e+01	5.348664e+01
2.820000e-06	4.051066e-06	7.518563e-10	2.818497e+01	5.369716e+01
2.830000e-06	4.082598e-06	7.565222e-10	2.840436e+01	5.390041e+01
2.840000e-06	4.113929e-06	7.595334e-10	2.862234e+01	5.409656e+01
2.850000e-06	4.144912e-06	7.631270e-10	2.883790e+01	5.428577e+01
2.860000e-06	4.175585e-06	7.686165e-10	2.905131e+01	5.446821e+01
2.870000e-06	4.206022e-06	7.706128e-10	2.926307e+01	5.464405e+01
2.880000e-06	4.236121e-06	7.674142e-10	2.947248e+01	5.481347e+01
2.890000e-06	4.265899e-06	7.671289e-10	2.967966e+01	5.497666e+01
2.900000e-06	4.295452e-06	7.693386e-10	2.988527e+01	5.513377e+01
