# Temperatura_=_-2.49
# Concentracion g/m^3_=_1620.0
# C_Vs_to_Am_M_A/Vsm_=_65563218390.804596
# pendiente_HvsI_1/m_=_3716.3
# ordenada_HvsI_A/m_=_1297.0
# frecuencia_Hz_=_135092.8190059732

Tiempo_(s)	Campo_(V.s)	Magnetizacion_(V.s)	Campo_(kA/m)	Magnetizacion_(A/m)
0.000000e+00	-5.535642e-06	-1.011470e-09	-3.837177e+01	-6.834508e+01
1.000000e-08	-5.535826e-06	-1.013278e-09	-3.837305e+01	-6.834898e+01
2.000000e-08	-5.535815e-06	-1.017284e-09	-3.837297e+01	-6.835190e+01
3.000000e-08	-5.535317e-06	-1.020094e-09	-3.836952e+01	-6.835366e+01
4.000000e-08	-5.534354e-06	-1.019278e-09	-3.836284e+01	-6.835409e+01
5.000000e-08	-5.532937e-06	-1.014739e-09	-3.835302e+01	-6.835300e+01
6.000000e-08	-5.530817e-06	-9.983215e-10	-3.833833e+01	-6.835020e+01
7.000000e-08	-5.528033e-06	-9.767747e-10	-3.831903e+01	-6.834549e+01
8.000000e-08	-5.524792e-06	-1.022196e-09	-3.829656e+01	-6.833868e+01
9.000000e-08	-5.521125e-06	-1.108778e-09	-3.827114e+01	-6.832958e+01
1.000000e-07	-5.516968e-06	-1.094282e-09	-3.824233e+01	-6.831800e+01
1.100000e-07	-5.512540e-06	-9.925135e-10	-3.821163e+01	-6.830375e+01
1.200000e-07	-5.508047e-06	-9.429707e-10	-3.818049e+01	-6.828665e+01
1.300000e-07	-5.503285e-06	-1.018593e-09	-3.814748e+01	-6.826653e+01
1.400000e-07	-5.498022e-06	-1.065891e-09	-3.811100e+01	-6.824322e+01
1.500000e-07	-5.492364e-06	-9.731005e-10	-3.807178e+01	-6.821655e+01
1.600000e-07	-5.486406e-06	-9.721514e-10	-3.803048e+01	-6.818639e+01
1.700000e-07	-5.480101e-06	-1.038329e-09	-3.798677e+01	-6.815259e+01
1.800000e-07	-5.473248e-06	-1.108671e-09	-3.793928e+01	-6.811503e+01
1.900000e-07	-5.465855e-06	-1.009866e-09	-3.788803e+01	-6.807359e+01
2.000000e-07	-5.458249e-06	-9.718240e-10	-3.783530e+01	-6.802818e+01
2.100000e-07	-5.450536e-06	-1.014458e-09	-3.778184e+01	-6.797870e+01
2.200000e-07	-5.442570e-06	-1.083556e-09	-3.772662e+01	-6.792508e+01
2.300000e-07	-5.434185e-06	-1.061767e-09	-3.766850e+01	-6.786725e+01
2.400000e-07	-5.425386e-06	-1.035003e-09	-3.760750e+01	-6.780517e+01
2.500000e-07	-5.415936e-06	-1.043099e-09	-3.754200e+01	-6.773880e+01
2.600000e-07	-5.405800e-06	-1.045253e-09	-3.747174e+01	-6.766812e+01
2.700000e-07	-5.395015e-06	-1.014578e-09	-3.739698e+01	-6.759312e+01
2.800000e-07	-5.383616e-06	-9.905843e-10	-3.731797e+01	-6.751380e+01
2.900000e-07	-5.371955e-06	-1.029566e-09	-3.723713e+01	-6.743017e+01
3.000000e-07	-5.360025e-06	-1.030639e-09	-3.715444e+01	-6.734226e+01
3.100000e-07	-5.347742e-06	-1.013215e-09	-3.706929e+01	-6.725009e+01
3.200000e-07	-5.335008e-06	-9.796073e-10	-3.698103e+01	-6.715371e+01
3.300000e-07	-5.321732e-06	-1.019669e-09	-3.688900e+01	-6.705318e+01
3.400000e-07	-5.308089e-06	-9.987353e-10	-3.679443e+01	-6.694854e+01
3.500000e-07	-5.294124e-06	-9.720002e-10	-3.669762e+01	-6.683987e+01
3.600000e-07	-5.279705e-06	-9.687700e-10	-3.659768e+01	-6.672723e+01
3.700000e-07	-5.264874e-06	-1.022417e-09	-3.649487e+01	-6.661070e+01
3.800000e-07	-5.249396e-06	-9.887006e-10	-3.638758e+01	-6.649035e+01
3.900000e-07	-5.233308e-06	-9.668664e-10	-3.627606e+01	-6.636628e+01
4.000000e-07	-5.216866e-06	-9.927602e-10	-3.616209e+01	-6.623857e+01
4.100000e-07	-5.200061e-06	-1.002322e-09	-3.604561e+01	-6.610731e+01
4.200000e-07	-5.182928e-06	-9.365957e-10	-3.592684e+01	-6.597257e+01
4.300000e-07	-5.165567e-06	-9.606345e-10	-3.580650e+01	-6.583447e+01
4.400000e-07	-5.147877e-06	-1.008713e-09	-3.568388e+01	-6.569307e+01
4.500000e-07	-5.129739e-06	-9.752487e-10	-3.555815e+01	-6.554848e+01
4.600000e-07	-5.111173e-06	-9.323438e-10	-3.542945e+01	-6.540079e+01
4.700000e-07	-5.092175e-06	-9.780893e-10	-3.529777e+01	-6.525007e+01
4.800000e-07	-5.072881e-06	-9.769649e-10	-3.516402e+01	-6.509643e+01
4.900000e-07	-5.053335e-06	-9.406679e-10	-3.502853e+01	-6.493995e+01
5.000000e-07	-5.033520e-06	-9.666371e-10	-3.489118e+01	-6.478071e+01
5.100000e-07	-5.013497e-06	-9.789434e-10	-3.475239e+01	-6.461880e+01
5.200000e-07	-4.993133e-06	-9.303307e-10	-3.461123e+01	-6.445431e+01
5.300000e-07	-4.972465e-06	-9.428167e-10	-3.446796e+01	-6.428732e+01
5.400000e-07	-4.951534e-06	-9.851573e-10	-3.432288e+01	-6.411791e+01
5.500000e-07	-4.930168e-06	-9.436300e-10	-3.417477e+01	-6.394617e+01
5.600000e-07	-4.908466e-06	-9.190355e-10	-3.402434e+01	-6.377217e+01
5.700000e-07	-4.886476e-06	-9.547337e-10	-3.387191e+01	-6.359601e+01
5.800000e-07	-4.864129e-06	-9.540802e-10	-3.371700e+01	-6.341776e+01
5.900000e-07	-4.841391e-06	-9.215450e-10	-3.355939e+01	-6.323751e+01
6.000000e-07	-4.818266e-06	-9.443229e-10	-3.339909e+01	-6.305535e+01
6.100000e-07	-4.794875e-06	-9.452289e-10	-3.323695e+01	-6.287136e+01
6.200000e-07	-4.771297e-06	-9.211129e-10	-3.307351e+01	-6.268563e+01
6.300000e-07	-4.747508e-06	-9.177006e-10	-3.290861e+01	-6.249824e+01
6.400000e-07	-4.723455e-06	-9.315283e-10	-3.274189e+01	-6.230930e+01
6.500000e-07	-4.698972e-06	-9.121938e-10	-3.257217e+01	-6.211888e+01
6.600000e-07	-4.674003e-06	-9.147514e-10	-3.239910e+01	-6.192709e+01
6.700000e-07	-4.648523e-06	-9.199744e-10	-3.222247e+01	-6.173401e+01
6.800000e-07	-4.622545e-06	-9.140816e-10	-3.204240e+01	-6.153974e+01
6.900000e-07	-4.595985e-06	-9.014952e-10	-3.185829e+01	-6.134437e+01
7.000000e-07	-4.568913e-06	-9.124337e-10	-3.167064e+01	-6.114801e+01
7.100000e-07	-4.541551e-06	-9.042130e-10	-3.148096e+01	-6.095073e+01
7.200000e-07	-4.513941e-06	-8.967065e-10	-3.128958e+01	-6.075264e+01
7.300000e-07	-4.486165e-06	-8.960950e-10	-3.109704e+01	-6.055383e+01
7.400000e-07	-4.458219e-06	-8.997322e-10	-3.090333e+01	-6.035438e+01
7.500000e-07	-4.430054e-06	-8.921772e-10	-3.070809e+01	-6.015437e+01
7.600000e-07	-4.401632e-06	-8.891902e-10	-3.051108e+01	-5.995390e+01
7.700000e-07	-4.372838e-06	-8.844784e-10	-3.031149e+01	-5.975302e+01
7.800000e-07	-4.343678e-06	-8.801916e-10	-3.010936e+01	-5.955181e+01
7.900000e-07	-4.314244e-06	-8.790397e-10	-2.990533e+01	-5.935033e+01
8.000000e-07	-4.284520e-06	-8.801031e-10	-2.969929e+01	-5.914863e+01
8.100000e-07	-4.254472e-06	-8.760869e-10	-2.949100e+01	-5.894675e+01
8.200000e-07	-4.224153e-06	-8.741139e-10	-2.928084e+01	-5.874472e+01
8.300000e-07	-4.193601e-06	-8.779172e-10	-2.906906e+01	-5.854256e+01
8.400000e-07	-4.162746e-06	-8.753760e-10	-2.885518e+01	-5.834027e+01
8.500000e-07	-4.131646e-06	-8.695994e-10	-2.863960e+01	-5.813786e+01
8.600000e-07	-4.100339e-06	-8.644009e-10	-2.842259e+01	-5.793529e+01
8.700000e-07	-4.068772e-06	-8.598047e-10	-2.820378e+01	-5.773253e+01
8.800000e-07	-4.037006e-06	-8.491030e-10	-2.798358e+01	-5.752953e+01
8.900000e-07	-4.005083e-06	-8.485434e-10	-2.776230e+01	-5.732622e+01
9.000000e-07	-3.972910e-06	-8.440711e-10	-2.753928e+01	-5.712250e+01
9.100000e-07	-3.940464e-06	-8.356136e-10	-2.731437e+01	-5.691828e+01
9.200000e-07	-3.907662e-06	-8.286534e-10	-2.708700e+01	-5.671343e+01
9.300000e-07	-3.874402e-06	-8.320510e-10	-2.685645e+01	-5.650782e+01
9.400000e-07	-3.840613e-06	-8.255455e-10	-2.662223e+01	-5.630128e+01
9.500000e-07	-3.806400e-06	-8.219760e-10	-2.638507e+01	-5.609365e+01
9.600000e-07	-3.771852e-06	-8.192155e-10	-2.614559e+01	-5.588474e+01
9.700000e-07	-3.736895e-06	-8.157404e-10	-2.590328e+01	-5.567434e+01
9.800000e-07	-3.701556e-06	-8.068143e-10	-2.565832e+01	-5.546223e+01
9.900000e-07	-3.666003e-06	-8.057630e-10	-2.541187e+01	-5.524817e+01
1.000000e-06	-3.630329e-06	-8.032669e-10	-2.516459e+01	-5.503193e+01
1.010000e-06	-3.594493e-06	-7.997676e-10	-2.491618e+01	-5.481324e+01
1.020000e-06	-3.558537e-06	-7.952130e-10	-2.466694e+01	-5.459183e+01
1.030000e-06	-3.522421e-06	-7.937979e-10	-2.441659e+01	-5.436743e+01
1.040000e-06	-3.486095e-06	-7.857496e-10	-2.416479e+01	-5.413976e+01
1.050000e-06	-3.449494e-06	-7.784739e-10	-2.391108e+01	-5.390853e+01
1.060000e-06	-3.412571e-06	-7.728912e-10	-2.365514e+01	-5.367345e+01
1.070000e-06	-3.375400e-06	-7.665773e-10	-2.339748e+01	-5.343423e+01
1.080000e-06	-3.337988e-06	-7.605700e-10	-2.313815e+01	-5.319057e+01
1.090000e-06	-3.300334e-06	-7.587321e-10	-2.287714e+01	-5.294219e+01
1.100000e-06	-3.262508e-06	-7.558583e-10	-2.261494e+01	-5.268881e+01
1.110000e-06	-3.224511e-06	-7.480521e-10	-2.235156e+01	-5.243014e+01
1.120000e-06	-3.186242e-06	-7.420043e-10	-2.208629e+01	-5.216593e+01
1.130000e-06	-3.147718e-06	-7.364692e-10	-2.181925e+01	-5.189592e+01
1.140000e-06	-3.109024e-06	-7.295896e-10	-2.155102e+01	-5.161985e+01
1.150000e-06	-3.070113e-06	-7.222294e-10	-2.128130e+01	-5.133751e+01
1.160000e-06	-3.030986e-06	-7.161110e-10	-2.101009e+01	-5.104867e+01
1.170000e-06	-2.991682e-06	-7.104446e-10	-2.073764e+01	-5.075314e+01
1.180000e-06	-2.952198e-06	-7.096321e-10	-2.046395e+01	-5.045073e+01
1.190000e-06	-2.912498e-06	-7.080406e-10	-2.018875e+01	-5.014129e+01
1.200000e-06	-2.872689e-06	-7.065292e-10	-1.991280e+01	-4.982466e+01
1.210000e-06	-2.832813e-06	-7.018592e-10	-1.963640e+01	-4.950073e+01
1.220000e-06	-2.792756e-06	-6.975274e-10	-1.935873e+01	-4.916940e+01
1.230000e-06	-2.752576e-06	-6.898243e-10	-1.908021e+01	-4.883057e+01
1.240000e-06	-2.712177e-06	-6.826773e-10	-1.880017e+01	-4.848419e+01
1.250000e-06	-2.671438e-06	-6.750357e-10	-1.851778e+01	-4.813022e+01
1.260000e-06	-2.630534e-06	-6.714914e-10	-1.823425e+01	-4.776862e+01
1.270000e-06	-2.589278e-06	-6.701003e-10	-1.794827e+01	-4.739939e+01
1.280000e-06	-2.547670e-06	-6.679016e-10	-1.765985e+01	-4.702255e+01
1.290000e-06	-2.505962e-06	-6.603903e-10	-1.737074e+01	-4.663810e+01
1.300000e-06	-2.464009e-06	-6.511266e-10	-1.707993e+01	-4.624610e+01
1.310000e-06	-2.421634e-06	-6.417826e-10	-1.678620e+01	-4.584659e+01
1.320000e-06	-2.378891e-06	-6.355619e-10	-1.648991e+01	-4.543963e+01
1.330000e-06	-2.335981e-06	-6.318537e-10	-1.619247e+01	-4.502529e+01
1.340000e-06	-2.292877e-06	-6.310693e-10	-1.589369e+01	-4.460363e+01
1.350000e-06	-2.249595e-06	-6.271757e-10	-1.559367e+01	-4.417473e+01
1.360000e-06	-2.206150e-06	-6.211853e-10	-1.529251e+01	-4.373867e+01
1.370000e-06	-2.162527e-06	-6.136605e-10	-1.499013e+01	-4.329550e+01
1.380000e-06	-2.118810e-06	-6.060416e-10	-1.468710e+01	-4.284531e+01
1.390000e-06	-2.074994e-06	-5.973529e-10	-1.438337e+01	-4.238814e+01
1.400000e-06	-2.031120e-06	-5.898593e-10	-1.407925e+01	-4.192404e+01
1.410000e-06	-1.987203e-06	-5.860872e-10	-1.377483e+01	-4.145304e+01
1.420000e-06	-1.943228e-06	-5.819988e-10	-1.347000e+01	-4.097517e+01
1.430000e-06	-1.899111e-06	-5.732968e-10	-1.316419e+01	-4.049041e+01
1.440000e-06	-1.854890e-06	-5.614506e-10	-1.285766e+01	-3.999876e+01
1.450000e-06	-1.810667e-06	-5.493645e-10	-1.255112e+01	-3.950017e+01
1.460000e-06	-1.766284e-06	-5.371706e-10	-1.224346e+01	-3.899456e+01
1.470000e-06	-1.721600e-06	-5.301612e-10	-1.193373e+01	-3.848186e+01
1.480000e-06	-1.676796e-06	-5.246271e-10	-1.162316e+01	-3.796193e+01
1.490000e-06	-1.631954e-06	-5.194019e-10	-1.131232e+01	-3.743464e+01
1.500000e-06	-1.587007e-06	-5.092012e-10	-1.100076e+01	-3.689981e+01
1.510000e-06	-1.541971e-06	-4.989663e-10	-1.068858e+01	-3.635724e+01
1.520000e-06	-1.496756e-06	-4.855125e-10	-1.037516e+01	-3.580670e+01
1.530000e-06	-1.451411e-06	-4.698296e-10	-1.006084e+01	-3.524792e+01
1.540000e-06	-1.405970e-06	-4.580434e-10	-9.745854e+00	-3.468063e+01
1.550000e-06	-1.360378e-06	-4.520312e-10	-9.429824e+00	-3.410450e+01
1.560000e-06	-1.314710e-06	-4.435087e-10	-9.113259e+00	-3.351921e+01
1.570000e-06	-1.269015e-06	-4.344259e-10	-8.796512e+00	-3.292439e+01
1.580000e-06	-1.223209e-06	-4.247325e-10	-8.479001e+00	-3.231967e+01
1.590000e-06	-1.177298e-06	-4.124759e-10	-8.160754e+00	-3.170463e+01
1.600000e-06	-1.131389e-06	-3.984056e-10	-7.842521e+00	-3.107888e+01
1.610000e-06	-1.085438e-06	-3.878336e-10	-7.524003e+00	-3.044198e+01
1.620000e-06	-1.039370e-06	-3.804115e-10	-7.204670e+00	-2.979350e+01
1.630000e-06	-9.932095e-07	-3.725643e-10	-6.884696e+00	-2.913300e+01
1.640000e-06	-9.469370e-07	-3.610159e-10	-6.563945e+00	-2.846003e+01
1.650000e-06	-9.005717e-07	-3.437990e-10	-6.242552e+00	-2.777417e+01
1.660000e-06	-8.541353e-07	-3.292126e-10	-5.920666e+00	-2.707497e+01
1.670000e-06	-8.077077e-07	-3.198097e-10	-5.598840e+00	-2.636201e+01
1.680000e-06	-7.612526e-07	-3.125442e-10	-5.276824e+00	-2.563490e+01
1.690000e-06	-7.147082e-07	-3.042077e-10	-4.954189e+00	-2.489324e+01
1.700000e-06	-6.681647e-07	-2.950802e-10	-4.631561e+00	-2.413668e+01
1.710000e-06	-6.216045e-07	-2.823017e-10	-4.308817e+00	-2.336488e+01
1.720000e-06	-5.749155e-07	-2.663758e-10	-3.985180e+00	-2.257754e+01
1.730000e-06	-5.281343e-07	-2.502853e-10	-3.660903e+00	-2.177441e+01
1.740000e-06	-4.813631e-07	-2.372970e-10	-3.336696e+00	-2.095526e+01
1.750000e-06	-4.345181e-07	-2.259708e-10	-3.011977e+00	-2.011991e+01
1.760000e-06	-3.876342e-07	-2.156186e-10	-2.686990e+00	-1.926824e+01
1.770000e-06	-3.407803e-07	-2.038496e-10	-2.362209e+00	-1.840017e+01
1.780000e-06	-2.939132e-07	-1.939804e-10	-2.037337e+00	-1.751567e+01
1.790000e-06	-2.469259e-07	-1.821750e-10	-1.711633e+00	-1.661479e+01
1.800000e-06	-1.999226e-07	-1.661049e-10	-1.385816e+00	-1.569761e+01
1.810000e-06	-1.529378e-07	-1.489834e-10	-1.060129e+00	-1.476428e+01
1.820000e-06	-1.059992e-07	-1.347416e-10	-7.347613e-01	-1.381503e+01
1.830000e-06	-5.913076e-08	-1.234670e-10	-4.098806e-01	-1.285012e+01
1.840000e-06	-1.220143e-08	-1.109110e-10	-8.457743e-02	-1.186991e+01
1.850000e-06	3.476829e-08	-9.840103e-11	2.410056e-01	-1.087479e+01
1.860000e-06	8.175073e-08	-8.759540e-11	5.666769e-01	-9.865226e+00
1.870000e-06	1.287529e-07	-7.429242e-11	8.924848e-01	-8.841749e+00
1.880000e-06	1.758167e-07	-6.009277e-11	1.218720e+00	-7.804943e+00
1.890000e-06	2.228202e-07	-4.576104e-11	1.544538e+00	-6.755454e+00
1.900000e-06	2.697030e-07	-3.141833e-11	1.869518e+00	-5.693981e+00
1.910000e-06	3.165058e-07	-1.686799e-11	2.193944e+00	-4.621276e+00
1.920000e-06	3.632628e-07	-2.513198e-12	2.518053e+00	-3.538140e+00
1.930000e-06	4.100462e-07	1.108524e-11	2.842344e+00	-2.445421e+00
1.940000e-06	4.568184e-07	2.403090e-11	3.166558e+00	-1.344008e+00
1.950000e-06	5.035623e-07	3.411623e-11	3.490576e+00	-2.348263e-01
1.960000e-06	5.503311e-07	4.525960e-11	3.814766e+00	8.811641e-01
1.970000e-06	5.970798e-07	5.718628e-11	4.138817e+00	2.002976e+00
1.980000e-06	6.437278e-07	7.347251e-11	4.462170e+00	3.129599e+00
1.990000e-06	6.902792e-07	9.399922e-11	4.784853e+00	4.260005e+00
2.000000e-06	7.368135e-07	1.127629e-10	5.107419e+00	5.393153e+00
2.010000e-06	7.832741e-07	1.300435e-10	5.429472e+00	6.527995e+00
2.020000e-06	8.296491e-07	1.413296e-10	5.750933e+00	7.663480e+00
2.030000e-06	8.760057e-07	1.507977e-10	6.072266e+00	8.798561e+00
2.040000e-06	9.222901e-07	1.612131e-10	6.393099e+00	9.932200e+00
2.050000e-06	9.685568e-07	1.763759e-10	6.713809e+00	1.106337e+01
2.060000e-06	1.014766e-06	1.947515e-10	7.034120e+00	1.219107e+01
2.070000e-06	1.060772e-06	2.153447e-10	7.353022e+00	1.331432e+01
2.080000e-06	1.106658e-06	2.361929e-10	7.671096e+00	1.443215e+01
2.090000e-06	1.152572e-06	2.485935e-10	7.989359e+00	1.554366e+01
2.100000e-06	1.198368e-06	2.583416e-10	8.306808e+00	1.664795e+01
2.110000e-06	1.244065e-06	2.684570e-10	8.623564e+00	1.774418e+01
2.120000e-06	1.289696e-06	2.817057e-10	8.939867e+00	1.883154e+01
2.130000e-06	1.335145e-06	2.977495e-10	9.254911e+00	1.990929e+01
2.140000e-06	1.380515e-06	3.142965e-10	9.569405e+00	2.097671e+01
2.150000e-06	1.425818e-06	3.308878e-10	9.883438e+00	2.203315e+01
2.160000e-06	1.471102e-06	3.463629e-10	1.019733e+01	2.307800e+01
2.170000e-06	1.516321e-06	3.601549e-10	1.051078e+01	2.411071e+01
2.180000e-06	1.561314e-06	3.714354e-10	1.082266e+01	2.513079e+01
2.190000e-06	1.606144e-06	3.808752e-10	1.113342e+01	2.613779e+01
2.200000e-06	1.650873e-06	3.936208e-10	1.144347e+01	2.713133e+01
2.210000e-06	1.695506e-06	4.062104e-10	1.175285e+01	2.811106e+01
2.220000e-06	1.740001e-06	4.232391e-10	1.206128e+01	2.907672e+01
2.230000e-06	1.784320e-06	4.414227e-10	1.236849e+01	3.002807e+01
2.240000e-06	1.828560e-06	4.562740e-10	1.267515e+01	3.096492e+01
2.250000e-06	1.872815e-06	4.689033e-10	1.298191e+01	3.188715e+01
2.260000e-06	1.916986e-06	4.779200e-10	1.328809e+01	3.279467e+01
2.270000e-06	1.960949e-06	4.897408e-10	1.359284e+01	3.368743e+01
2.280000e-06	2.004810e-06	4.997649e-10	1.389687e+01	3.456542e+01
2.290000e-06	2.048642e-06	5.066009e-10	1.420071e+01	3.542867e+01
2.300000e-06	2.092407e-06	5.148839e-10	1.450407e+01	3.627724e+01
2.310000e-06	2.136128e-06	5.257031e-10	1.480714e+01	3.711123e+01
2.320000e-06	2.179772e-06	5.401929e-10	1.510967e+01	3.793075e+01
2.330000e-06	2.223298e-06	5.533002e-10	1.541138e+01	3.873594e+01
2.340000e-06	2.266735e-06	5.650051e-10	1.571247e+01	3.952695e+01
2.350000e-06	2.310078e-06	5.734239e-10	1.601292e+01	4.030396e+01
2.360000e-06	2.353213e-06	5.811302e-10	1.631192e+01	4.106714e+01
2.370000e-06	2.396094e-06	5.892805e-10	1.660916e+01	4.181670e+01
2.380000e-06	2.438718e-06	5.998998e-10	1.690462e+01	4.255281e+01
2.390000e-06	2.480909e-06	6.137550e-10	1.719708e+01	4.327567e+01
2.400000e-06	2.522722e-06	6.266188e-10	1.748692e+01	4.398548e+01
2.410000e-06	2.564217e-06	6.390241e-10	1.777455e+01	4.468243e+01
2.420000e-06	2.605401e-06	6.489937e-10	1.806003e+01	4.536668e+01
2.430000e-06	2.646413e-06	6.566949e-10	1.834432e+01	4.603842e+01
2.440000e-06	2.687101e-06	6.628461e-10	1.862635e+01	4.669780e+01
2.450000e-06	2.727500e-06	6.734084e-10	1.890639e+01	4.734496e+01
2.460000e-06	2.767759e-06	6.881638e-10	1.918546e+01	4.798003e+01
2.470000e-06	2.807858e-06	6.998474e-10	1.946341e+01	4.860313e+01
2.480000e-06	2.847846e-06	7.077245e-10	1.974060e+01	4.921436e+01
2.490000e-06	2.887722e-06	7.116325e-10	2.001701e+01	4.981379e+01
2.500000e-06	2.927456e-06	7.168435e-10	2.029244e+01	5.040150e+01
2.510000e-06	2.967028e-06	7.245815e-10	2.056675e+01	5.097751e+01
2.520000e-06	3.006398e-06	7.333579e-10	2.083965e+01	5.154188e+01
2.530000e-06	3.045560e-06	7.438392e-10	2.111111e+01	5.209460e+01
2.540000e-06	3.084546e-06	7.525552e-10	2.138135e+01	5.263569e+01
2.550000e-06	3.123335e-06	7.601106e-10	2.165023e+01	5.316513e+01
2.560000e-06	3.161847e-06	7.664280e-10	2.191718e+01	5.368290e+01
2.570000e-06	3.200024e-06	7.726244e-10	2.218182e+01	5.418897e+01
2.580000e-06	3.238041e-06	7.756200e-10	2.244534e+01	5.468330e+01
2.590000e-06	3.275939e-06	7.764968e-10	2.270804e+01	5.516584e+01
2.600000e-06	3.313603e-06	7.793947e-10	2.296912e+01	5.563654e+01
2.610000e-06	3.351054e-06	7.864129e-10	2.322872e+01	5.609537e+01
2.620000e-06	3.388250e-06	7.967608e-10	2.348656e+01	5.654226e+01
2.630000e-06	3.425174e-06	8.055371e-10	2.374251e+01	5.697718e+01
2.640000e-06	3.461786e-06	8.098193e-10	2.399629e+01	5.740010e+01
2.650000e-06	3.498161e-06	8.115001e-10	2.424843e+01	5.781098e+01
2.660000e-06	3.534336e-06	8.122150e-10	2.449919e+01	5.820981e+01
2.670000e-06	3.570326e-06	8.121864e-10	2.474866e+01	5.859659e+01
2.680000e-06	3.606216e-06	8.135670e-10	2.499744e+01	5.897131e+01
2.690000e-06	3.641963e-06	8.187370e-10	2.524523e+01	5.933403e+01
2.700000e-06	3.677596e-06	8.257985e-10	2.549223e+01	5.968477e+01
2.710000e-06	3.713146e-06	8.333545e-10	2.573865e+01	6.002361e+01
2.720000e-06	3.748400e-06	8.416880e-10	2.598303e+01	6.035064e+01
2.730000e-06	3.783209e-06	8.495014e-10	2.622432e+01	6.066596e+01
2.740000e-06	3.817666e-06	8.536310e-10	2.646317e+01	6.096971e+01
2.750000e-06	3.851672e-06	8.553829e-10	2.669889e+01	6.126204e+01
2.760000e-06	3.885172e-06	8.565680e-10	2.693110e+01	6.154313e+01
2.770000e-06	3.918226e-06	8.593462e-10	2.716023e+01	6.181319e+01
2.780000e-06	3.950916e-06	8.657222e-10	2.738683e+01	6.207243e+01
2.790000e-06	3.983283e-06	8.733833e-10	2.761119e+01	6.232111e+01
2.800000e-06	4.015356e-06	8.820420e-10	2.783351e+01	6.255950e+01
2.810000e-06	4.047250e-06	8.907958e-10	2.805459e+01	6.278789e+01
2.820000e-06	4.078976e-06	8.954923e-10	2.827450e+01	6.300657e+01
2.830000e-06	4.110519e-06	8.942649e-10	2.849316e+01	6.321589e+01
2.840000e-06	4.141822e-06	8.910900e-10	2.871014e+01	6.341618e+01
2.850000e-06	4.172865e-06	8.905844e-10	2.892532e+01	6.360780e+01
2.860000e-06	4.203536e-06	8.944125e-10	2.913793e+01	6.379111e+01
2.870000e-06	4.233827e-06	8.999332e-10	2.934790e+01	6.396649e+01
2.880000e-06	4.263879e-06	9.061497e-10	2.955621e+01	6.413432e+01
2.890000e-06	4.293669e-06	9.124702e-10	2.976271e+01	6.429500e+01
2.900000e-06	4.323184e-06	9.169280e-10	2.996730e+01	6.444891e+01
