# Temperatura_=_-0.2
# Concentracion g/m^3_=_1620.0
# C_Vs_to_Am_M_A/Vsm_=_65563218390.804596
# pendiente_HvsI_1/m_=_3716.3
# ordenada_HvsI_A/m_=_1297.0
# frecuencia_Hz_=_135104.98264812992

Tiempo_(s)	Campo_(V.s)	Magnetizacion_(V.s)	Campo_(kA/m)	Magnetizacion_(A/m)
0.000000e+00	-5.527167e-06	-9.445768e-10	-3.837461e+01	-6.301630e+01
1.000000e-08	-5.527271e-06	-9.378451e-10	-3.837533e+01	-6.300318e+01
2.000000e-08	-5.527037e-06	-9.393390e-10	-3.837371e+01	-6.298855e+01
3.000000e-08	-5.526456e-06	-9.449219e-10	-3.836968e+01	-6.297240e+01
4.000000e-08	-5.525415e-06	-9.495020e-10	-3.836245e+01	-6.295467e+01
5.000000e-08	-5.523762e-06	-9.520419e-10	-3.835097e+01	-6.293534e+01
6.000000e-08	-5.521433e-06	-9.459019e-10	-3.833480e+01	-6.291435e+01
7.000000e-08	-5.518556e-06	-9.434509e-10	-3.831483e+01	-6.289167e+01
8.000000e-08	-5.515254e-06	-9.396881e-10	-3.829190e+01	-6.286726e+01
9.000000e-08	-5.511527e-06	-9.492753e-10	-3.826603e+01	-6.284107e+01
1.000000e-07	-5.507448e-06	-9.681598e-10	-3.823771e+01	-6.281306e+01
1.100000e-07	-5.502951e-06	-9.589656e-10	-3.820648e+01	-6.278319e+01
1.200000e-07	-5.498133e-06	-8.914472e-10	-3.817303e+01	-6.275143e+01
1.300000e-07	-5.493150e-06	-9.286529e-10	-3.813843e+01	-6.271774e+01
1.400000e-07	-5.487839e-06	-9.378661e-10	-3.810156e+01	-6.268209e+01
1.500000e-07	-5.482080e-06	-9.630418e-10	-3.806158e+01	-6.264445e+01
1.600000e-07	-5.475885e-06	-8.928559e-10	-3.801856e+01	-6.260479e+01
1.700000e-07	-5.469394e-06	-9.301871e-10	-3.797350e+01	-6.256310e+01
1.800000e-07	-5.462508e-06	-9.679050e-10	-3.792569e+01	-6.251935e+01
1.900000e-07	-5.455163e-06	-9.684574e-10	-3.787470e+01	-6.247355e+01
2.000000e-07	-5.447559e-06	-9.235979e-10	-3.782190e+01	-6.242567e+01
2.100000e-07	-5.439727e-06	-9.344246e-10	-3.776752e+01	-6.237573e+01
2.200000e-07	-5.431623e-06	-9.946221e-10	-3.771126e+01	-6.232371e+01
2.300000e-07	-5.423190e-06	-9.976457e-10	-3.765271e+01	-6.226962e+01
2.400000e-07	-5.414163e-06	-9.940584e-10	-3.759004e+01	-6.221348e+01
2.500000e-07	-5.404313e-06	-9.803601e-10	-3.752165e+01	-6.215529e+01
2.600000e-07	-5.393794e-06	-1.006807e-09	-3.744862e+01	-6.209507e+01
2.700000e-07	-5.382883e-06	-9.697445e-10	-3.737286e+01	-6.203284e+01
2.800000e-07	-5.371594e-06	-9.794537e-10	-3.729448e+01	-6.196862e+01
2.900000e-07	-5.359861e-06	-9.777477e-10	-3.721302e+01	-6.190242e+01
3.000000e-07	-5.347733e-06	-1.012575e-09	-3.712882e+01	-6.183428e+01
3.100000e-07	-5.335256e-06	-9.715705e-10	-3.704219e+01	-6.176420e+01
3.200000e-07	-5.322387e-06	-9.780846e-10	-3.695284e+01	-6.169221e+01
3.300000e-07	-5.309094e-06	-9.544713e-10	-3.686055e+01	-6.161834e+01
3.400000e-07	-5.295427e-06	-9.747391e-10	-3.676567e+01	-6.154259e+01
3.500000e-07	-5.281259e-06	-9.530239e-10	-3.666730e+01	-6.146499e+01
3.600000e-07	-5.266646e-06	-9.605865e-10	-3.656584e+01	-6.138555e+01
3.700000e-07	-5.251614e-06	-9.555896e-10	-3.646147e+01	-6.130427e+01
3.800000e-07	-5.236147e-06	-9.896016e-10	-3.635409e+01	-6.122117e+01
3.900000e-07	-5.220195e-06	-9.618122e-10	-3.624333e+01	-6.113624e+01
4.000000e-07	-5.203727e-06	-9.321118e-10	-3.612900e+01	-6.104949e+01
4.100000e-07	-5.186888e-06	-9.500676e-10	-3.601209e+01	-6.096090e+01
4.200000e-07	-5.169741e-06	-9.718852e-10	-3.589304e+01	-6.087046e+01
4.300000e-07	-5.152371e-06	-9.302775e-10	-3.577244e+01	-6.077816e+01
4.400000e-07	-5.134667e-06	-9.247507e-10	-3.564952e+01	-6.068398e+01
4.500000e-07	-5.116503e-06	-9.755539e-10	-3.552341e+01	-6.058789e+01
4.600000e-07	-5.097833e-06	-9.415025e-10	-3.539378e+01	-6.048987e+01
4.700000e-07	-5.078750e-06	-9.010912e-10	-3.526130e+01	-6.038987e+01
4.800000e-07	-5.059422e-06	-9.426339e-10	-3.512710e+01	-6.028787e+01
4.900000e-07	-5.039870e-06	-9.700565e-10	-3.499135e+01	-6.018383e+01
5.000000e-07	-5.020093e-06	-9.087803e-10	-3.485404e+01	-6.007771e+01
5.100000e-07	-5.000015e-06	-9.244966e-10	-3.471464e+01	-5.996946e+01
5.200000e-07	-4.979540e-06	-9.471323e-10	-3.457249e+01	-5.985905e+01
5.300000e-07	-4.958716e-06	-9.118450e-10	-3.442791e+01	-5.974644e+01
5.400000e-07	-4.937589e-06	-8.986275e-10	-3.428123e+01	-5.963158e+01
5.500000e-07	-4.916142e-06	-9.556055e-10	-3.413232e+01	-5.951445e+01
5.600000e-07	-4.894417e-06	-9.231784e-10	-3.398149e+01	-5.939500e+01
5.700000e-07	-4.872377e-06	-9.032508e-10	-3.382847e+01	-5.927320e+01
5.800000e-07	-4.849924e-06	-9.384414e-10	-3.367258e+01	-5.914905e+01
5.900000e-07	-4.827023e-06	-9.384775e-10	-3.351358e+01	-5.902251e+01
6.000000e-07	-4.803779e-06	-8.850093e-10	-3.335220e+01	-5.889357e+01
6.100000e-07	-4.780357e-06	-9.119913e-10	-3.318958e+01	-5.876224e+01
6.200000e-07	-4.756718e-06	-9.147184e-10	-3.302546e+01	-5.862851e+01
6.300000e-07	-4.732826e-06	-8.828909e-10	-3.285958e+01	-5.849241e+01
6.400000e-07	-4.708679e-06	-8.929283e-10	-3.269193e+01	-5.835395e+01
6.500000e-07	-4.684164e-06	-9.229881e-10	-3.252172e+01	-5.821316e+01
6.600000e-07	-4.659092e-06	-8.923946e-10	-3.234765e+01	-5.807010e+01
6.700000e-07	-4.633497e-06	-8.894260e-10	-3.216995e+01	-5.792481e+01
6.800000e-07	-4.607311e-06	-9.010105e-10	-3.198813e+01	-5.777735e+01
6.900000e-07	-4.580561e-06	-8.798869e-10	-3.180242e+01	-5.762780e+01
7.000000e-07	-4.553537e-06	-8.677826e-10	-3.161479e+01	-5.747625e+01
7.100000e-07	-4.526235e-06	-8.861639e-10	-3.142523e+01	-5.732277e+01
7.200000e-07	-4.498686e-06	-8.760577e-10	-3.123396e+01	-5.716747e+01
7.300000e-07	-4.470952e-06	-8.680098e-10	-3.104141e+01	-5.701046e+01
7.400000e-07	-4.442949e-06	-8.892578e-10	-3.084699e+01	-5.685185e+01
7.500000e-07	-4.414667e-06	-8.840380e-10	-3.065063e+01	-5.669175e+01
7.600000e-07	-4.386131e-06	-8.671547e-10	-3.045250e+01	-5.653030e+01
7.700000e-07	-4.357285e-06	-8.722727e-10	-3.025223e+01	-5.636760e+01
7.800000e-07	-4.328092e-06	-8.742280e-10	-3.004954e+01	-5.620379e+01
7.900000e-07	-4.298600e-06	-8.539502e-10	-2.984478e+01	-5.603899e+01
8.000000e-07	-4.268891e-06	-8.619312e-10	-2.963852e+01	-5.587332e+01
8.100000e-07	-4.238989e-06	-8.686580e-10	-2.943091e+01	-5.570691e+01
8.200000e-07	-4.208809e-06	-8.607100e-10	-2.922137e+01	-5.553986e+01
8.300000e-07	-4.178300e-06	-8.543123e-10	-2.900955e+01	-5.537227e+01
8.400000e-07	-4.147414e-06	-8.623702e-10	-2.879512e+01	-5.520424e+01
8.500000e-07	-4.116176e-06	-8.471952e-10	-2.857823e+01	-5.503586e+01
8.600000e-07	-4.084732e-06	-8.386012e-10	-2.835992e+01	-5.486719e+01
8.700000e-07	-4.053202e-06	-8.395938e-10	-2.814101e+01	-5.469829e+01
8.800000e-07	-4.021593e-06	-8.418831e-10	-2.792155e+01	-5.452919e+01
8.900000e-07	-3.989748e-06	-8.300232e-10	-2.770046e+01	-5.435993e+01
9.000000e-07	-3.957633e-06	-8.333272e-10	-2.747748e+01	-5.419049e+01
9.100000e-07	-3.925138e-06	-8.301145e-10	-2.725187e+01	-5.402085e+01
9.200000e-07	-3.892173e-06	-8.195071e-10	-2.702300e+01	-5.385099e+01
9.300000e-07	-3.858779e-06	-8.126383e-10	-2.679115e+01	-5.368082e+01
9.400000e-07	-3.824937e-06	-8.192769e-10	-2.655619e+01	-5.351027e+01
9.500000e-07	-3.790628e-06	-8.150518e-10	-2.631798e+01	-5.333923e+01
9.600000e-07	-3.755894e-06	-8.135854e-10	-2.607683e+01	-5.316755e+01
9.700000e-07	-3.720880e-06	-8.160919e-10	-2.583373e+01	-5.299509e+01
9.800000e-07	-3.685655e-06	-8.133551e-10	-2.558916e+01	-5.282165e+01
9.900000e-07	-3.650230e-06	-8.041347e-10	-2.534321e+01	-5.264704e+01
1.000000e-06	-3.614605e-06	-8.013358e-10	-2.509587e+01	-5.247103e+01
1.010000e-06	-3.578851e-06	-7.980873e-10	-2.484763e+01	-5.229337e+01
1.020000e-06	-3.542980e-06	-7.912599e-10	-2.459859e+01	-5.211379e+01
1.030000e-06	-3.506864e-06	-7.914186e-10	-2.434784e+01	-5.193201e+01
1.040000e-06	-3.470456e-06	-7.923870e-10	-2.409506e+01	-5.174772e+01
1.050000e-06	-3.433808e-06	-7.870039e-10	-2.384062e+01	-5.156061e+01
1.060000e-06	-3.396903e-06	-7.805914e-10	-2.358439e+01	-5.137034e+01
1.070000e-06	-3.359664e-06	-7.802156e-10	-2.332584e+01	-5.117657e+01
1.080000e-06	-3.322186e-06	-7.752799e-10	-2.306563e+01	-5.097896e+01
1.090000e-06	-3.284537e-06	-7.721134e-10	-2.280424e+01	-5.077715e+01
1.100000e-06	-3.246715e-06	-7.679145e-10	-2.254164e+01	-5.057078e+01
1.110000e-06	-3.208666e-06	-7.611511e-10	-2.227748e+01	-5.035950e+01
1.120000e-06	-3.170319e-06	-7.492669e-10	-2.201123e+01	-5.014294e+01
1.130000e-06	-3.131741e-06	-7.451182e-10	-2.174339e+01	-4.992077e+01
1.140000e-06	-3.092903e-06	-7.400212e-10	-2.147374e+01	-4.969263e+01
1.150000e-06	-3.053826e-06	-7.369588e-10	-2.120243e+01	-4.945820e+01
1.160000e-06	-3.014638e-06	-7.333212e-10	-2.093036e+01	-4.921716e+01
1.170000e-06	-2.975333e-06	-7.326997e-10	-2.065747e+01	-4.896921e+01
1.180000e-06	-2.935856e-06	-7.267577e-10	-2.038338e+01	-4.871405e+01
1.190000e-06	-2.896252e-06	-7.242237e-10	-2.010841e+01	-4.845143e+01
1.200000e-06	-2.856535e-06	-7.209324e-10	-1.983266e+01	-4.818110e+01
1.210000e-06	-2.816642e-06	-7.152985e-10	-1.955569e+01	-4.790284e+01
1.220000e-06	-2.776576e-06	-7.078886e-10	-1.927751e+01	-4.761646e+01
1.230000e-06	-2.736424e-06	-7.051525e-10	-1.899874e+01	-4.732179e+01
1.240000e-06	-2.696128e-06	-6.997409e-10	-1.871897e+01	-4.701868e+01
1.250000e-06	-2.655544e-06	-6.957330e-10	-1.843720e+01	-4.670701e+01
1.260000e-06	-2.614698e-06	-6.943454e-10	-1.815361e+01	-4.638671e+01
1.270000e-06	-2.573564e-06	-6.927124e-10	-1.786802e+01	-4.605771e+01
1.280000e-06	-2.532129e-06	-6.863018e-10	-1.758034e+01	-4.571997e+01
1.290000e-06	-2.490500e-06	-6.780387e-10	-1.729132e+01	-4.537348e+01
1.300000e-06	-2.448511e-06	-6.703087e-10	-1.699979e+01	-4.501827e+01
1.310000e-06	-2.406126e-06	-6.632687e-10	-1.670551e+01	-4.465436e+01
1.320000e-06	-2.363514e-06	-6.577575e-10	-1.640966e+01	-4.428183e+01
1.330000e-06	-2.320627e-06	-6.544133e-10	-1.611190e+01	-4.390074e+01
1.340000e-06	-2.277470e-06	-6.516334e-10	-1.581226e+01	-4.351120e+01
1.350000e-06	-2.234128e-06	-6.465806e-10	-1.551135e+01	-4.311332e+01
1.360000e-06	-2.190671e-06	-6.427495e-10	-1.520963e+01	-4.270721e+01
1.370000e-06	-2.147129e-06	-6.370259e-10	-1.490732e+01	-4.229301e+01
1.380000e-06	-2.103510e-06	-6.312032e-10	-1.460448e+01	-4.187084e+01
1.390000e-06	-2.059830e-06	-6.229991e-10	-1.430121e+01	-4.144086e+01
1.400000e-06	-2.016072e-06	-6.145206e-10	-1.399741e+01	-4.100319e+01
1.410000e-06	-1.972224e-06	-6.035787e-10	-1.369297e+01	-4.055795e+01
1.420000e-06	-1.928290e-06	-5.955117e-10	-1.338794e+01	-4.010527e+01
1.430000e-06	-1.884248e-06	-5.882730e-10	-1.308216e+01	-3.964526e+01
1.440000e-06	-1.840053e-06	-5.824069e-10	-1.277532e+01	-3.917800e+01
1.450000e-06	-1.795732e-06	-5.758654e-10	-1.246760e+01	-3.870357e+01
1.460000e-06	-1.751310e-06	-5.707190e-10	-1.215918e+01	-3.822202e+01
1.470000e-06	-1.706738e-06	-5.619759e-10	-1.184973e+01	-3.773336e+01
1.480000e-06	-1.662023e-06	-5.502343e-10	-1.153927e+01	-3.723760e+01
1.490000e-06	-1.617162e-06	-5.382179e-10	-1.122781e+01	-3.673469e+01
1.500000e-06	-1.572174e-06	-5.283598e-10	-1.091546e+01	-3.622457e+01
1.510000e-06	-1.527106e-06	-5.189487e-10	-1.060256e+01	-3.570713e+01
1.520000e-06	-1.481969e-06	-5.114204e-10	-1.028918e+01	-3.518224e+01
1.530000e-06	-1.436768e-06	-5.036372e-10	-9.975348e+00	-3.464972e+01
1.540000e-06	-1.391421e-06	-4.962615e-10	-9.660510e+00	-3.410934e+01
1.550000e-06	-1.345906e-06	-4.866648e-10	-9.344503e+00	-3.356087e+01
1.560000e-06	-1.300325e-06	-4.740783e-10	-9.028037e+00	-3.300400e+01
1.570000e-06	-1.254691e-06	-4.616719e-10	-8.711203e+00	-3.243842e+01
1.580000e-06	-1.208942e-06	-4.510902e-10	-8.393576e+00	-3.186375e+01
1.590000e-06	-1.163106e-06	-4.407217e-10	-8.075341e+00	-3.127960e+01
1.600000e-06	-1.117210e-06	-4.313932e-10	-7.756683e+00	-3.068555e+01
1.610000e-06	-1.071257e-06	-4.224863e-10	-7.437637e+00	-3.008114e+01
1.620000e-06	-1.025217e-06	-4.100842e-10	-7.117989e+00	-2.946587e+01
1.630000e-06	-9.789851e-07	-3.962853e-10	-6.797003e+00	-2.883926e+01
1.640000e-06	-9.326991e-07	-3.820934e-10	-6.475644e+00	-2.820077e+01
1.650000e-06	-8.864283e-07	-3.706468e-10	-6.154391e+00	-2.754988e+01
1.660000e-06	-8.400835e-07	-3.608699e-10	-5.832622e+00	-2.688603e+01
1.670000e-06	-7.936752e-07	-3.532971e-10	-5.510414e+00	-2.620867e+01
1.680000e-06	-7.472395e-07	-3.453897e-10	-5.188015e+00	-2.551727e+01
1.690000e-06	-7.007715e-07	-3.367719e-10	-4.865392e+00	-2.481127e+01
1.700000e-06	-6.542391e-07	-3.255863e-10	-4.542322e+00	-2.409015e+01
1.710000e-06	-6.076889e-07	-3.104996e-10	-4.219128e+00	-2.335341e+01
1.720000e-06	-5.610699e-07	-2.939926e-10	-3.895457e+00	-2.260054e+01
1.730000e-06	-5.143327e-07	-2.793501e-10	-3.570965e+00	-2.183111e+01
1.740000e-06	-4.675913e-07	-2.668843e-10	-3.246444e+00	-2.104468e+01
1.750000e-06	-4.208347e-07	-2.577775e-10	-2.921816e+00	-2.024089e+01
1.760000e-06	-3.740306e-07	-2.477712e-10	-2.596860e+00	-1.941940e+01
1.770000e-06	-3.271552e-07	-2.368899e-10	-2.271409e+00	-1.857994e+01
1.780000e-06	-2.802610e-07	-2.248306e-10	-1.945826e+00	-1.772228e+01
1.790000e-06	-2.333670e-07	-2.100617e-10	-1.620245e+00	-1.684627e+01
1.800000e-06	-1.864311e-07	-1.941571e-10	-1.294374e+00	-1.595181e+01
1.810000e-06	-1.394798e-07	-1.797223e-10	-9.683956e-01	-1.503889e+01
1.820000e-06	-9.252399e-08	-1.667430e-10	-6.423856e-01	-1.410757e+01
1.830000e-06	-4.554527e-08	-1.545517e-10	-3.162166e-01	-1.315797e+01
1.840000e-06	1.483806e-09	-1.404967e-10	1.030193e-02	-1.219031e+01
1.850000e-06	4.847174e-08	-1.277741e-10	3.365349e-01	-1.120488e+01
1.860000e-06	9.542212e-08	-1.158332e-10	6.625070e-01	-1.020206e+01
1.870000e-06	1.423551e-07	-1.026594e-10	9.883586e-01	-9.182305e+00
1.880000e-06	1.892420e-07	-8.878495e-11	1.313890e+00	-8.146168e+00
1.890000e-06	2.361437e-07	-7.336938e-11	1.639524e+00	-7.094274e+00
1.900000e-06	2.830906e-07	-5.751089e-11	1.965472e+00	-6.027332e+00
1.910000e-06	3.299526e-07	-4.081065e-11	2.290831e+00	-4.946132e+00
1.920000e-06	3.767606e-07	-2.476906e-11	2.615815e+00	-3.851543e+00
1.930000e-06	4.235754e-07	-8.668368e-12	2.940845e+00	-2.744505e+00
1.940000e-06	4.703156e-07	4.479159e-12	3.265358e+00	-1.626033e+00
1.950000e-06	5.170055e-07	1.488421e-11	3.589522e+00	-4.972031e-01
1.960000e-06	5.636588e-07	2.574195e-11	3.913431e+00	6.408427e-01
1.970000e-06	6.102834e-07	3.935399e-11	4.237142e+00	1.786908e+00
1.980000e-06	6.568471e-07	5.583487e-11	4.560429e+00	2.939748e+00
1.990000e-06	7.033656e-07	7.402208e-11	4.883403e+00	4.098071e+00
2.000000e-06	7.498002e-07	9.165077e-11	5.205794e+00	5.260549e+00
2.010000e-06	7.961076e-07	1.080774e-10	5.527302e+00	6.425826e+00
2.020000e-06	8.424731e-07	1.226215e-10	5.849213e+00	7.592520e+00
2.030000e-06	8.888222e-07	1.374164e-10	6.171011e+00	8.759235e+00
2.040000e-06	9.350444e-07	1.516449e-10	6.491928e+00	9.924566e+00
2.050000e-06	9.812735e-07	1.651140e-10	6.812892e+00	1.108711e+01
2.060000e-06	1.027361e-06	1.790719e-10	7.132874e+00	1.224547e+01
2.070000e-06	1.073253e-06	1.955634e-10	7.451494e+00	1.339826e+01
2.080000e-06	1.119127e-06	2.128318e-10	7.769993e+00	1.454412e+01
2.090000e-06	1.164953e-06	2.284433e-10	8.088161e+00	1.568173e+01
2.100000e-06	1.210705e-06	2.442032e-10	8.405815e+00	1.680978e+01
2.110000e-06	1.256418e-06	2.605400e-10	8.723193e+00	1.792704e+01
2.120000e-06	1.302043e-06	2.772043e-10	9.039968e+00	1.903229e+01
2.130000e-06	1.347511e-06	2.930994e-10	9.355643e+00	2.012441e+01
2.140000e-06	1.392840e-06	3.067088e-10	9.670361e+00	2.120230e+01
2.150000e-06	1.438114e-06	3.189396e-10	9.984691e+00	2.226495e+01
2.160000e-06	1.483330e-06	3.317737e-10	1.029862e+01	2.331143e+01
2.170000e-06	1.528458e-06	3.462845e-10	1.061194e+01	2.434085e+01
2.180000e-06	1.573472e-06	3.614171e-10	1.092447e+01	2.535245e+01
2.190000e-06	1.618312e-06	3.763274e-10	1.123579e+01	2.634550e+01
2.200000e-06	1.663023e-06	3.909160e-10	1.154621e+01	2.731940e+01
2.210000e-06	1.707614e-06	4.040499e-10	1.185581e+01	2.827360e+01
2.220000e-06	1.751992e-06	4.160658e-10	1.216392e+01	2.920765e+01
2.230000e-06	1.796208e-06	4.255295e-10	1.247091e+01	3.012119e+01
2.240000e-06	1.840326e-06	4.344646e-10	1.277721e+01	3.101395e+01
2.250000e-06	1.884369e-06	4.440293e-10	1.308300e+01	3.188573e+01
2.260000e-06	1.928417e-06	4.553598e-10	1.338882e+01	3.273643e+01
2.270000e-06	1.972394e-06	4.678517e-10	1.369415e+01	3.356602e+01
2.280000e-06	2.016251e-06	4.801382e-10	1.399865e+01	3.437455e+01
2.290000e-06	2.060044e-06	4.916832e-10	1.430270e+01	3.516215e+01
2.300000e-06	2.103774e-06	5.029977e-10	1.460631e+01	3.592902e+01
2.310000e-06	2.147435e-06	5.132694e-10	1.490944e+01	3.667543e+01
2.320000e-06	2.190987e-06	5.222765e-10	1.521182e+01	3.740169e+01
2.330000e-06	2.234410e-06	5.321042e-10	1.551331e+01	3.810821e+01
2.340000e-06	2.277626e-06	5.429869e-10	1.581335e+01	3.879541e+01
2.350000e-06	2.320665e-06	5.534704e-10	1.611216e+01	3.946378e+01
2.360000e-06	2.363576e-06	5.630979e-10	1.641009e+01	4.011385e+01
2.370000e-06	2.406257e-06	5.718586e-10	1.670642e+01	4.074616e+01
2.380000e-06	2.448570e-06	5.802630e-10	1.700020e+01	4.136132e+01
2.390000e-06	2.490492e-06	5.893013e-10	1.729126e+01	4.195992e+01
2.400000e-06	2.532182e-06	5.993835e-10	1.758071e+01	4.254259e+01
2.410000e-06	2.573631e-06	6.111078e-10	1.786849e+01	4.310998e+01
2.420000e-06	2.614691e-06	6.228750e-10	1.815356e+01	4.366271e+01
2.430000e-06	2.655517e-06	6.336117e-10	1.843701e+01	4.420143e+01
2.440000e-06	2.696103e-06	6.445694e-10	1.871879e+01	4.472677e+01
2.450000e-06	2.736379e-06	6.532233e-10	1.899843e+01	4.523936e+01
2.460000e-06	2.776531e-06	6.588716e-10	1.927720e+01	4.573979e+01
2.470000e-06	2.816563e-06	6.636423e-10	1.955514e+01	4.622866e+01
2.480000e-06	2.856452e-06	6.691233e-10	1.983208e+01	4.670652e+01
2.490000e-06	2.896240e-06	6.752646e-10	2.010833e+01	4.717390e+01
2.500000e-06	2.935873e-06	6.839760e-10	2.038350e+01	4.763131e+01
2.510000e-06	2.975351e-06	6.941190e-10	2.065759e+01	4.807920e+01
2.520000e-06	3.014672e-06	7.025570e-10	2.093059e+01	4.851801e+01
2.530000e-06	3.053806e-06	7.099326e-10	2.120230e+01	4.894813e+01
2.540000e-06	3.092683e-06	7.158943e-10	2.147221e+01	4.936991e+01
2.550000e-06	3.131200e-06	7.209013e-10	2.173963e+01	4.978365e+01
2.560000e-06	3.169486e-06	7.255128e-10	2.200545e+01	5.018964e+01
2.570000e-06	3.207656e-06	7.297831e-10	2.227046e+01	5.058809e+01
2.580000e-06	3.245643e-06	7.348517e-10	2.253420e+01	5.097920e+01
2.590000e-06	3.283388e-06	7.409295e-10	2.279626e+01	5.136311e+01
2.600000e-06	3.320888e-06	7.474436e-10	2.305662e+01	5.173995e+01
2.610000e-06	3.358142e-06	7.552304e-10	2.331527e+01	5.210979e+01
2.620000e-06	3.395207e-06	7.642542e-10	2.357261e+01	5.247267e+01
2.630000e-06	3.432027e-06	7.724175e-10	2.382825e+01	5.282861e+01
2.640000e-06	3.468577e-06	7.751786e-10	2.408201e+01	5.317759e+01
2.650000e-06	3.504945e-06	7.753589e-10	2.433451e+01	5.351957e+01
2.660000e-06	3.541074e-06	7.759141e-10	2.458535e+01	5.385449e+01
2.670000e-06	3.577006e-06	7.765915e-10	2.483482e+01	5.418227e+01
2.680000e-06	3.612796e-06	7.796849e-10	2.508331e+01	5.450281e+01
2.690000e-06	3.648456e-06	7.866580e-10	2.533089e+01	5.481601e+01
2.700000e-06	3.683946e-06	7.953074e-10	2.557730e+01	5.512175e+01
2.710000e-06	3.719191e-06	8.012955e-10	2.582200e+01	5.541990e+01
2.720000e-06	3.754201e-06	8.051035e-10	2.606507e+01	5.571035e+01
2.730000e-06	3.788885e-06	8.081974e-10	2.630588e+01	5.599298e+01
2.740000e-06	3.823172e-06	8.104115e-10	2.654394e+01	5.626767e+01
2.750000e-06	3.857069e-06	8.142821e-10	2.677927e+01	5.653432e+01
2.760000e-06	3.890465e-06	8.179897e-10	2.701114e+01	5.679283e+01
2.770000e-06	3.923347e-06	8.226174e-10	2.723944e+01	5.704313e+01
2.780000e-06	3.955871e-06	8.282760e-10	2.746525e+01	5.728514e+01
2.790000e-06	3.988033e-06	8.328993e-10	2.768855e+01	5.751884e+01
2.800000e-06	4.019921e-06	8.375737e-10	2.790994e+01	5.774419e+01
2.810000e-06	4.051719e-06	8.431530e-10	2.813071e+01	5.796118e+01
2.820000e-06	4.083403e-06	8.502903e-10	2.835069e+01	5.816985e+01
2.830000e-06	4.114875e-06	8.565054e-10	2.856920e+01	5.837024e+01
2.840000e-06	4.146088e-06	8.589404e-10	2.878591e+01	5.856241e+01
2.850000e-06	4.176952e-06	8.604867e-10	2.900020e+01	5.874647e+01
2.860000e-06	4.207491e-06	8.620166e-10	2.921222e+01	5.892253e+01
2.870000e-06	4.237740e-06	8.620502e-10	2.942224e+01	5.909075e+01
2.880000e-06	4.267737e-06	8.653227e-10	2.963050e+01	5.925128e+01
2.890000e-06	4.297544e-06	8.706179e-10	2.983746e+01	5.940433e+01
2.900000e-06	4.327049e-06	8.762740e-10	3.004230e+01	5.955011e+01
