# Temperatura_=_-0.27
# Concentracion g/m^3_=_1620.0
# C_Vs_to_Am_M_A/Vsm_=_65563218390.804596
# pendiente_HvsI_1/m_=_3716.3
# ordenada_HvsI_A/m_=_1297.0
# frecuencia_Hz_=_135112.4812673418

Tiempo_(s)	Campo_(V.s)	Magnetizacion_(V.s)	Campo_(kA/m)	Magnetizacion_(A/m)
0.000000e+00	-5.524311e-06	-1.042913e-09	-3.836967e+01	-6.741378e+01
1.000000e-08	-5.524531e-06	-1.042839e-09	-3.837120e+01	-6.742588e+01
2.000000e-08	-5.524563e-06	-1.043087e-09	-3.837142e+01	-6.743952e+01
3.000000e-08	-5.524305e-06	-1.044352e-09	-3.836963e+01	-6.745456e+01
4.000000e-08	-5.523536e-06	-1.044921e-09	-3.836429e+01	-6.747085e+01
5.000000e-08	-5.522187e-06	-1.043987e-09	-3.835491e+01	-6.748820e+01
6.000000e-08	-5.520247e-06	-1.039405e-09	-3.834144e+01	-6.750640e+01
7.000000e-08	-5.517710e-06	-1.026172e-09	-3.832382e+01	-6.752522e+01
8.000000e-08	-5.514633e-06	-1.029716e-09	-3.830244e+01	-6.754440e+01
9.000000e-08	-5.511110e-06	-1.070185e-09	-3.827798e+01	-6.756368e+01
1.000000e-07	-5.507173e-06	-1.096322e-09	-3.825063e+01	-6.758276e+01
1.100000e-07	-5.502854e-06	-1.064547e-09	-3.822063e+01	-6.760136e+01
1.200000e-07	-5.498293e-06	-1.026446e-09	-3.818895e+01	-6.761916e+01
1.300000e-07	-5.493575e-06	-9.901076e-10	-3.815618e+01	-6.763585e+01
1.400000e-07	-5.488555e-06	-1.027327e-09	-3.812132e+01	-6.765112e+01
1.500000e-07	-5.483102e-06	-1.020784e-09	-3.808344e+01	-6.766466e+01
1.600000e-07	-5.477288e-06	-1.007752e-09	-3.804306e+01	-6.767615e+01
1.700000e-07	-5.471111e-06	-1.017822e-09	-3.800016e+01	-6.768529e+01
1.800000e-07	-5.464470e-06	-1.052803e-09	-3.795403e+01	-6.769178e+01
1.900000e-07	-5.457360e-06	-1.074918e-09	-3.790465e+01	-6.769535e+01
2.000000e-07	-5.449916e-06	-1.035274e-09	-3.785295e+01	-6.769572e+01
2.100000e-07	-5.442244e-06	-1.031019e-09	-3.779966e+01	-6.769265e+01
2.200000e-07	-5.434350e-06	-1.037163e-09	-3.774484e+01	-6.768590e+01
2.300000e-07	-5.426264e-06	-1.064582e-09	-3.768867e+01	-6.767527e+01
2.400000e-07	-5.417843e-06	-1.045044e-09	-3.763018e+01	-6.766056e+01
2.500000e-07	-5.408855e-06	-1.058217e-09	-3.756776e+01	-6.764161e+01
2.600000e-07	-5.399158e-06	-1.057722e-09	-3.750041e+01	-6.761829e+01
2.700000e-07	-5.388715e-06	-1.069895e-09	-3.742787e+01	-6.759047e+01
2.800000e-07	-5.377682e-06	-1.051425e-09	-3.735124e+01	-6.755808e+01
2.900000e-07	-5.366222e-06	-1.054965e-09	-3.727165e+01	-6.752106e+01
3.000000e-07	-5.354364e-06	-1.055334e-09	-3.718928e+01	-6.747936e+01
3.100000e-07	-5.342105e-06	-1.054094e-09	-3.710413e+01	-6.743299e+01
3.200000e-07	-5.329469e-06	-1.038904e-09	-3.701637e+01	-6.738195e+01
3.300000e-07	-5.316461e-06	-1.037427e-09	-3.692602e+01	-6.732629e+01
3.400000e-07	-5.303069e-06	-1.041508e-09	-3.683301e+01	-6.726607e+01
3.500000e-07	-5.289317e-06	-1.034676e-09	-3.673749e+01	-6.720137e+01
3.600000e-07	-5.275178e-06	-1.033198e-09	-3.663929e+01	-6.713230e+01
3.700000e-07	-5.260626e-06	-1.037796e-09	-3.653822e+01	-6.705898e+01
3.800000e-07	-5.245568e-06	-1.038593e-09	-3.643363e+01	-6.698154e+01
3.900000e-07	-5.229854e-06	-1.031329e-09	-3.632448e+01	-6.690013e+01
4.000000e-07	-5.213610e-06	-1.042351e-09	-3.621166e+01	-6.681491e+01
4.100000e-07	-5.197002e-06	-1.037981e-09	-3.609631e+01	-6.672606e+01
4.200000e-07	-5.180073e-06	-1.029407e-09	-3.597873e+01	-6.663374e+01
4.300000e-07	-5.162781e-06	-1.025538e-09	-3.585862e+01	-6.653813e+01
4.400000e-07	-5.145195e-06	-1.038224e-09	-3.573648e+01	-6.643942e+01
4.500000e-07	-5.127317e-06	-1.027150e-09	-3.561230e+01	-6.633778e+01
4.600000e-07	-5.108981e-06	-1.029170e-09	-3.548495e+01	-6.623339e+01
4.700000e-07	-5.090147e-06	-1.021821e-09	-3.535414e+01	-6.612642e+01
4.800000e-07	-5.070906e-06	-1.016719e-09	-3.522049e+01	-6.601703e+01
4.900000e-07	-5.051403e-06	-1.013432e-09	-3.508503e+01	-6.590539e+01
5.000000e-07	-5.031710e-06	-1.027944e-09	-3.494825e+01	-6.579163e+01
5.100000e-07	-5.011852e-06	-1.011554e-09	-3.481033e+01	-6.567589e+01
5.200000e-07	-4.991756e-06	-1.005695e-09	-3.467075e+01	-6.555829e+01
5.300000e-07	-4.971341e-06	-1.013711e-09	-3.452896e+01	-6.543894e+01
5.400000e-07	-4.950531e-06	-1.016289e-09	-3.438442e+01	-6.531792e+01
5.500000e-07	-4.929264e-06	-9.996898e-10	-3.423670e+01	-6.519531e+01
5.600000e-07	-4.907672e-06	-1.009150e-09	-3.408673e+01	-6.507118e+01
5.700000e-07	-4.885811e-06	-1.003970e-09	-3.393490e+01	-6.494557e+01
5.800000e-07	-4.863595e-06	-9.883349e-10	-3.378059e+01	-6.481850e+01
5.900000e-07	-4.840971e-06	-9.930609e-10	-3.362346e+01	-6.468999e+01
6.000000e-07	-4.817970e-06	-1.001248e-09	-3.346370e+01	-6.456005e+01
6.100000e-07	-4.794602e-06	-9.810798e-10	-3.330140e+01	-6.442865e+01
6.200000e-07	-4.770990e-06	-9.800732e-10	-3.313740e+01	-6.429577e+01
6.300000e-07	-4.747212e-06	-9.889491e-10	-3.297225e+01	-6.416138e+01
6.400000e-07	-4.723194e-06	-9.719203e-10	-3.280543e+01	-6.402541e+01
6.500000e-07	-4.698936e-06	-9.656092e-10	-3.263694e+01	-6.388783e+01
6.600000e-07	-4.674410e-06	-9.811792e-10	-3.246659e+01	-6.374855e+01
6.700000e-07	-4.649451e-06	-9.758714e-10	-3.229323e+01	-6.360751e+01
6.800000e-07	-4.623867e-06	-9.610455e-10	-3.211554e+01	-6.346464e+01
6.900000e-07	-4.597615e-06	-9.733806e-10	-3.193320e+01	-6.331986e+01
7.000000e-07	-4.570750e-06	-9.704132e-10	-3.174661e+01	-6.317308e+01
7.100000e-07	-4.543497e-06	-9.557068e-10	-3.155732e+01	-6.302423e+01
7.200000e-07	-4.516032e-06	-9.611747e-10	-3.136656e+01	-6.287323e+01
7.300000e-07	-4.488371e-06	-9.700651e-10	-3.117444e+01	-6.272000e+01
7.400000e-07	-4.460537e-06	-9.549907e-10	-3.098112e+01	-6.256449e+01
7.500000e-07	-4.432555e-06	-9.574735e-10	-3.078676e+01	-6.240661e+01
7.600000e-07	-4.404376e-06	-9.610709e-10	-3.059104e+01	-6.224632e+01
7.700000e-07	-4.375870e-06	-9.499525e-10	-3.039305e+01	-6.208357e+01
7.800000e-07	-4.346914e-06	-9.409111e-10	-3.019194e+01	-6.191830e+01
7.900000e-07	-4.317572e-06	-9.493624e-10	-2.998814e+01	-6.175050e+01
8.000000e-07	-4.288032e-06	-9.417499e-10	-2.978296e+01	-6.158012e+01
8.100000e-07	-4.258267e-06	-9.354287e-10	-2.957623e+01	-6.140717e+01
8.200000e-07	-4.228159e-06	-9.399769e-10	-2.936711e+01	-6.123162e+01
8.300000e-07	-4.197705e-06	-9.422259e-10	-2.915559e+01	-6.105349e+01
8.400000e-07	-4.166980e-06	-9.313994e-10	-2.894219e+01	-6.087277e+01
8.500000e-07	-4.135983e-06	-9.328311e-10	-2.872689e+01	-6.068949e+01
8.600000e-07	-4.104686e-06	-9.304939e-10	-2.850951e+01	-6.050366e+01
8.700000e-07	-4.073170e-06	-9.186103e-10	-2.829062e+01	-6.031532e+01
8.800000e-07	-4.041502e-06	-9.141770e-10	-2.807066e+01	-6.012449e+01
8.900000e-07	-4.009683e-06	-9.175219e-10	-2.784966e+01	-5.993121e+01
9.000000e-07	-3.977694e-06	-9.103665e-10	-2.762748e+01	-5.973551e+01
9.100000e-07	-3.945477e-06	-9.046194e-10	-2.740371e+01	-5.953742e+01
9.200000e-07	-3.912921e-06	-9.049723e-10	-2.717759e+01	-5.933699e+01
9.300000e-07	-3.879938e-06	-9.000940e-10	-2.694850e+01	-5.913423e+01
9.400000e-07	-3.846463e-06	-8.918869e-10	-2.671600e+01	-5.892917e+01
9.500000e-07	-3.812466e-06	-8.900741e-10	-2.647987e+01	-5.872183e+01
9.600000e-07	-3.778059e-06	-8.864236e-10	-2.624089e+01	-5.851222e+01
9.700000e-07	-3.743315e-06	-8.781488e-10	-2.599958e+01	-5.830033e+01
9.800000e-07	-3.708157e-06	-8.788093e-10	-2.575539e+01	-5.808616e+01
9.900000e-07	-3.672685e-06	-8.808519e-10	-2.550901e+01	-5.786968e+01
1.000000e-06	-3.637060e-06	-8.797220e-10	-2.526157e+01	-5.765084e+01
1.010000e-06	-3.601291e-06	-8.768917e-10	-2.501313e+01	-5.742960e+01
1.020000e-06	-3.565435e-06	-8.763385e-10	-2.476409e+01	-5.720588e+01
1.030000e-06	-3.529481e-06	-8.675626e-10	-2.451437e+01	-5.697961e+01
1.040000e-06	-3.493324e-06	-8.579432e-10	-2.426324e+01	-5.675067e+01
1.050000e-06	-3.456944e-06	-8.508766e-10	-2.401056e+01	-5.651895e+01
1.060000e-06	-3.420264e-06	-8.445878e-10	-2.375579e+01	-5.628432e+01
1.070000e-06	-3.383170e-06	-8.375065e-10	-2.349815e+01	-5.604662e+01
1.080000e-06	-3.345823e-06	-8.382928e-10	-2.323876e+01	-5.580568e+01
1.090000e-06	-3.308304e-06	-8.373249e-10	-2.297816e+01	-5.556131e+01
1.100000e-06	-3.270542e-06	-8.316049e-10	-2.271588e+01	-5.531333e+01
1.110000e-06	-3.232540e-06	-8.236149e-10	-2.245194e+01	-5.506151e+01
1.120000e-06	-3.194287e-06	-8.175704e-10	-2.218624e+01	-5.480563e+01
1.130000e-06	-3.155833e-06	-8.063950e-10	-2.191916e+01	-5.454546e+01
1.140000e-06	-3.117194e-06	-7.981809e-10	-2.165079e+01	-5.428074e+01
1.150000e-06	-3.078400e-06	-7.942545e-10	-2.138134e+01	-5.401123e+01
1.160000e-06	-3.039365e-06	-7.910724e-10	-2.111022e+01	-5.373668e+01
1.170000e-06	-3.000011e-06	-7.864568e-10	-2.083688e+01	-5.345681e+01
1.180000e-06	-2.960524e-06	-7.838461e-10	-2.056262e+01	-5.317137e+01
1.190000e-06	-2.920940e-06	-7.791724e-10	-2.028769e+01	-5.288009e+01
1.200000e-06	-2.881208e-06	-7.717386e-10	-2.001172e+01	-5.258271e+01
1.210000e-06	-2.841340e-06	-7.655648e-10	-1.973482e+01	-5.227899e+01
1.220000e-06	-2.801351e-06	-7.597712e-10	-1.945707e+01	-5.196866e+01
1.230000e-06	-2.761211e-06	-7.516612e-10	-1.917827e+01	-5.165150e+01
1.240000e-06	-2.720937e-06	-7.452088e-10	-1.889855e+01	-5.132727e+01
1.250000e-06	-2.680553e-06	-7.419926e-10	-1.861806e+01	-5.099576e+01
1.260000e-06	-2.639974e-06	-7.382775e-10	-1.833621e+01	-5.065677e+01
1.270000e-06	-2.599102e-06	-7.355178e-10	-1.805233e+01	-5.031010e+01
1.280000e-06	-2.557914e-06	-7.319645e-10	-1.776625e+01	-4.995559e+01
1.290000e-06	-2.516403e-06	-7.261371e-10	-1.747794e+01	-4.959308e+01
1.300000e-06	-2.474573e-06	-7.177683e-10	-1.718740e+01	-4.922243e+01
1.310000e-06	-2.432496e-06	-7.118384e-10	-1.689515e+01	-4.884353e+01
1.320000e-06	-2.390092e-06	-7.067957e-10	-1.660063e+01	-4.845626e+01
1.330000e-06	-2.347351e-06	-7.018785e-10	-1.630376e+01	-4.806056e+01
1.340000e-06	-2.304386e-06	-6.975444e-10	-1.600535e+01	-4.765635e+01
1.350000e-06	-2.261227e-06	-6.936585e-10	-1.570558e+01	-4.724358e+01
1.360000e-06	-2.217898e-06	-6.871902e-10	-1.540463e+01	-4.682221e+01
1.370000e-06	-2.174421e-06	-6.799120e-10	-1.510266e+01	-4.639223e+01
1.380000e-06	-2.130811e-06	-6.736073e-10	-1.479977e+01	-4.595361e+01
1.390000e-06	-2.087103e-06	-6.669710e-10	-1.449618e+01	-4.550636e+01
1.400000e-06	-2.043342e-06	-6.602699e-10	-1.419224e+01	-4.505048e+01
1.410000e-06	-1.999559e-06	-6.552781e-10	-1.388814e+01	-4.458599e+01
1.420000e-06	-1.955707e-06	-6.485804e-10	-1.358356e+01	-4.411291e+01
1.430000e-06	-1.911685e-06	-6.436080e-10	-1.327780e+01	-4.363123e+01
1.440000e-06	-1.867561e-06	-6.377533e-10	-1.297134e+01	-4.314099e+01
1.450000e-06	-1.823402e-06	-6.300055e-10	-1.266463e+01	-4.264217e+01
1.460000e-06	-1.779085e-06	-6.182722e-10	-1.235682e+01	-4.213479e+01
1.470000e-06	-1.734637e-06	-6.071848e-10	-1.204810e+01	-4.161882e+01
1.480000e-06	-1.690115e-06	-5.988322e-10	-1.173886e+01	-4.109424e+01
1.490000e-06	-1.645415e-06	-5.896621e-10	-1.142840e+01	-4.056101e+01
1.500000e-06	-1.600534e-06	-5.811924e-10	-1.111667e+01	-4.001905e+01
1.510000e-06	-1.555535e-06	-5.751341e-10	-1.080413e+01	-3.946829e+01
1.520000e-06	-1.510390e-06	-5.666029e-10	-1.049057e+01	-3.890861e+01
1.530000e-06	-1.465067e-06	-5.523932e-10	-1.017577e+01	-3.833988e+01
1.540000e-06	-1.419682e-06	-5.348491e-10	-9.860546e+00	-3.776193e+01
1.550000e-06	-1.374244e-06	-5.222340e-10	-9.544954e+00	-3.717456e+01
1.560000e-06	-1.328715e-06	-5.143380e-10	-9.228723e+00	-3.657757e+01
1.570000e-06	-1.283152e-06	-5.061993e-10	-8.912263e+00	-3.597069e+01
1.580000e-06	-1.237499e-06	-4.990327e-10	-8.595174e+00	-3.535364e+01
1.590000e-06	-1.191778e-06	-4.887121e-10	-8.277618e+00	-3.472610e+01
1.600000e-06	-1.145953e-06	-4.772173e-10	-7.959335e+00	-3.408774e+01
1.610000e-06	-1.099961e-06	-4.649304e-10	-7.639893e+00	-3.343818e+01
1.620000e-06	-1.053888e-06	-4.531453e-10	-7.319885e+00	-3.277703e+01
1.630000e-06	-1.007800e-06	-4.438341e-10	-6.999779e+00	-3.210385e+01
1.640000e-06	-9.616128e-07	-4.340908e-10	-6.678980e+00	-3.141822e+01
1.650000e-06	-9.153453e-07	-4.202297e-10	-6.357624e+00	-3.071967e+01
1.660000e-06	-8.690485e-07	-4.062384e-10	-6.036065e+00	-3.000771e+01
1.670000e-06	-8.227021e-07	-3.914763e-10	-5.714162e+00	-2.928187e+01
1.680000e-06	-7.763207e-07	-3.788430e-10	-5.392015e+00	-2.854165e+01
1.690000e-06	-7.298948e-07	-3.692585e-10	-5.069559e+00	-2.778655e+01
1.700000e-06	-6.835074e-07	-3.632083e-10	-4.747370e+00	-2.701607e+01
1.710000e-06	-6.370837e-07	-3.567745e-10	-4.424930e+00	-2.622974e+01
1.720000e-06	-5.905546e-07	-3.474334e-10	-4.101757e+00	-2.542709e+01
1.730000e-06	-5.439532e-07	-3.354184e-10	-3.778082e+00	-2.460765e+01
1.740000e-06	-4.973058e-07	-3.197041e-10	-3.454088e+00	-2.377101e+01
1.750000e-06	-4.506364e-07	-3.036758e-10	-3.129941e+00	-2.291677e+01
1.760000e-06	-4.039474e-07	-2.907155e-10	-2.805658e+00	-2.204456e+01
1.770000e-06	-3.571645e-07	-2.777828e-10	-2.480722e+00	-2.115408e+01
1.780000e-06	-3.103081e-07	-2.656528e-10	-2.155277e+00	-2.024506e+01
1.790000e-06	-2.634674e-07	-2.545928e-10	-1.829940e+00	-1.931728e+01
1.800000e-06	-2.165931e-07	-2.400656e-10	-1.504370e+00	-1.837059e+01
1.810000e-06	-1.697408e-07	-2.237832e-10	-1.178952e+00	-1.740490e+01
1.820000e-06	-1.229424e-07	-2.066107e-10	-8.539091e-01	-1.642018e+01
1.830000e-06	-7.605460e-08	-1.904033e-10	-5.282450e-01	-1.541650e+01
1.840000e-06	-2.914246e-08	-1.752332e-10	-2.024120e-01	-1.439397e+01
1.850000e-06	1.769848e-08	-1.614223e-10	1.229266e-01	-1.335281e+01
1.860000e-06	6.452944e-08	-1.508505e-10	4.481958e-01	-1.229331e+01
1.870000e-06	1.113710e-07	-1.391456e-10	7.735385e-01	-1.121585e+01
1.880000e-06	1.581995e-07	-1.231013e-10	1.098791e+00	-1.012088e+01
1.890000e-06	2.049630e-07	-1.054864e-10	1.423592e+00	-9.008957e+00
1.900000e-06	2.517691e-07	-8.796285e-11	1.748688e+00	-7.880720e+00
1.910000e-06	2.985872e-07	-7.139830e-11	2.073868e+00	-6.736892e+00
1.920000e-06	3.452720e-07	-5.523055e-11	2.398122e+00	-5.578281e+00
1.930000e-06	3.919523e-07	-4.229568e-11	2.722344e+00	-4.405779e+00
1.940000e-06	4.387505e-07	-2.776867e-11	3.047386e+00	-3.220359e+00
1.950000e-06	4.854806e-07	-1.333413e-11	3.371955e+00	-2.023073e+00
1.960000e-06	5.320567e-07	2.421689e-12	3.695454e+00	-8.150422e-01
1.970000e-06	5.786037e-07	1.943589e-11	4.018751e+00	4.025398e-01
1.980000e-06	6.250555e-07	3.522191e-11	4.341387e+00	1.628418e+00
1.990000e-06	6.714570e-07	5.042261e-11	4.663673e+00	2.861281e+00
2.000000e-06	7.178732e-07	6.834526e-11	4.986062e+00	4.099764e+00
2.010000e-06	7.642359e-07	8.946706e-11	5.308079e+00	5.342461e+00
2.020000e-06	8.105481e-07	1.088288e-10	5.629745e+00	6.587928e+00
2.030000e-06	8.568722e-07	1.270089e-10	5.951493e+00	7.834694e+00
2.040000e-06	9.031689e-07	1.453661e-10	6.273051e+00	9.081265e+00
2.050000e-06	9.493344e-07	1.600804e-10	6.593699e+00	1.032614e+01
2.060000e-06	9.953888e-07	1.738488e-10	6.913574e+00	1.156780e+01
2.070000e-06	1.041325e-06	1.889962e-10	7.232627e+00	1.280475e+01
2.080000e-06	1.087218e-06	2.072113e-10	7.551382e+00	1.403550e+01
2.090000e-06	1.133106e-06	2.276688e-10	7.870101e+00	1.525857e+01
2.100000e-06	1.178902e-06	2.482760e-10	8.188184e+00	1.647253e+01
2.110000e-06	1.224568e-06	2.692381e-10	8.505364e+00	1.767599e+01
2.120000e-06	1.270139e-06	2.869249e-10	8.821879e+00	1.886757e+01
2.130000e-06	1.315665e-06	3.021385e-10	9.138088e+00	2.004599e+01
2.140000e-06	1.361130e-06	3.139295e-10	9.453869e+00	2.121000e+01
2.150000e-06	1.406499e-06	3.256363e-10	9.768984e+00	2.235844e+01
2.160000e-06	1.451742e-06	3.413560e-10	1.008322e+01	2.349021e+01
2.170000e-06	1.496845e-06	3.601364e-10	1.039649e+01	2.460428e+01
2.180000e-06	1.541855e-06	3.783746e-10	1.070911e+01	2.569973e+01
2.190000e-06	1.586783e-06	3.953349e-10	1.102116e+01	2.677571e+01
2.200000e-06	1.631568e-06	4.107141e-10	1.133222e+01	2.783148e+01
2.210000e-06	1.676218e-06	4.235339e-10	1.164234e+01	2.886637e+01
2.220000e-06	1.720776e-06	4.352791e-10	1.195183e+01	2.987982e+01
2.230000e-06	1.765197e-06	4.491200e-10	1.226035e+01	3.087138e+01
2.240000e-06	1.809478e-06	4.625699e-10	1.256791e+01	3.184068e+01
2.250000e-06	1.853662e-06	4.757571e-10	1.287480e+01	3.278746e+01
2.260000e-06	1.897684e-06	4.896550e-10	1.318056e+01	3.371156e+01
2.270000e-06	1.941610e-06	5.033907e-10	1.348565e+01	3.461290e+01
2.280000e-06	1.985544e-06	5.162090e-10	1.379080e+01	3.549151e+01
2.290000e-06	2.029413e-06	5.289312e-10	1.409549e+01	3.634750e+01
2.300000e-06	2.073220e-06	5.405906e-10	1.439976e+01	3.718107e+01
2.310000e-06	2.117023e-06	5.512951e-10	1.470400e+01	3.799251e+01
2.320000e-06	2.160704e-06	5.617975e-10	1.500739e+01	3.878217e+01
2.330000e-06	2.204215e-06	5.723489e-10	1.530960e+01	3.955047e+01
2.340000e-06	2.247595e-06	5.829888e-10	1.561090e+01	4.029792e+01
2.350000e-06	2.290767e-06	5.939804e-10	1.591075e+01	4.102505e+01
2.360000e-06	2.333794e-06	6.058451e-10	1.620960e+01	4.173248e+01
2.370000e-06	2.376639e-06	6.170290e-10	1.650719e+01	4.242085e+01
2.380000e-06	2.419159e-06	6.251084e-10	1.680251e+01	4.309083e+01
2.390000e-06	2.461283e-06	6.322445e-10	1.709509e+01	4.374315e+01
2.400000e-06	2.503098e-06	6.414752e-10	1.738552e+01	4.437853e+01
2.410000e-06	2.544602e-06	6.512511e-10	1.767379e+01	4.499771e+01
2.420000e-06	2.585704e-06	6.627451e-10	1.795927e+01	4.560146e+01
2.430000e-06	2.626490e-06	6.752257e-10	1.824255e+01	4.619053e+01
2.440000e-06	2.667102e-06	6.858555e-10	1.852463e+01	4.676566e+01
2.450000e-06	2.707554e-06	6.956060e-10	1.880559e+01	4.732758e+01
2.460000e-06	2.747803e-06	7.058270e-10	1.908515e+01	4.787701e+01
2.470000e-06	2.787879e-06	7.153646e-10	1.936350e+01	4.841463e+01
2.480000e-06	2.827830e-06	7.241644e-10	1.964098e+01	4.894109e+01
2.490000e-06	2.867720e-06	7.312543e-10	1.991804e+01	4.945701e+01
2.500000e-06	2.907439e-06	7.391631e-10	2.019391e+01	4.996297e+01
2.510000e-06	2.947002e-06	7.487382e-10	2.046870e+01	5.045949e+01
2.520000e-06	2.986425e-06	7.586879e-10	2.074252e+01	5.094706e+01
2.530000e-06	3.025592e-06	7.674995e-10	2.101456e+01	5.142612e+01
2.540000e-06	3.064533e-06	7.734586e-10	2.128502e+01	5.189705e+01
2.550000e-06	3.103271e-06	7.771861e-10	2.155409e+01	5.236016e+01
2.560000e-06	3.141800e-06	7.813047e-10	2.182169e+01	5.281575e+01
2.570000e-06	3.180215e-06	7.870250e-10	2.208851e+01	5.326402e+01
2.580000e-06	3.218451e-06	7.942187e-10	2.235408e+01	5.370515e+01
2.590000e-06	3.256435e-06	8.023490e-10	2.261790e+01	5.413924e+01
2.600000e-06	3.294239e-06	8.101076e-10	2.288047e+01	5.456637e+01
2.610000e-06	3.331754e-06	8.171375e-10	2.314104e+01	5.498655e+01
2.620000e-06	3.368954e-06	8.239923e-10	2.339941e+01	5.539976e+01
2.630000e-06	3.405901e-06	8.297654e-10	2.365603e+01	5.580593e+01
2.640000e-06	3.442605e-06	8.326490e-10	2.391096e+01	5.620496e+01
2.650000e-06	3.479101e-06	8.350063e-10	2.416445e+01	5.659670e+01
2.660000e-06	3.515376e-06	8.396350e-10	2.441640e+01	5.698100e+01
2.670000e-06	3.551418e-06	8.448591e-10	2.466674e+01	5.735766e+01
2.680000e-06	3.587319e-06	8.506927e-10	2.491609e+01	5.772647e+01
2.690000e-06	3.623126e-06	8.563617e-10	2.516479e+01	5.808722e+01
2.700000e-06	3.658744e-06	8.615862e-10	2.541218e+01	5.843967e+01
2.710000e-06	3.694138e-06	8.668368e-10	2.565801e+01	5.878360e+01
2.720000e-06	3.729301e-06	8.702143e-10	2.590224e+01	5.911875e+01
2.730000e-06	3.764247e-06	8.742377e-10	2.614496e+01	5.944492e+01
2.740000e-06	3.798832e-06	8.780229e-10	2.638517e+01	5.976189e+01
2.750000e-06	3.832808e-06	8.815341e-10	2.662116e+01	6.006946e+01
2.760000e-06	3.866267e-06	8.860261e-10	2.685355e+01	6.036744e+01
2.770000e-06	3.899362e-06	8.907951e-10	2.708341e+01	6.065570e+01
2.780000e-06	3.932107e-06	8.951331e-10	2.731085e+01	6.093409e+01
2.790000e-06	3.964542e-06	9.000733e-10	2.753613e+01	6.120252e+01
2.800000e-06	3.996754e-06	9.056320e-10	2.775987e+01	6.146094e+01
2.810000e-06	4.028776e-06	9.104903e-10	2.798227e+01	6.170930e+01
2.820000e-06	4.060578e-06	9.135670e-10	2.820316e+01	6.194763e+01
2.830000e-06	4.092205e-06	9.153104e-10	2.842283e+01	6.217598e+01
2.840000e-06	4.123612e-06	9.177169e-10	2.864097e+01	6.239442e+01
2.850000e-06	4.154683e-06	9.208597e-10	2.885677e+01	6.260308e+01
2.860000e-06	4.185382e-06	9.254516e-10	2.906999e+01	6.280215e+01
2.870000e-06	4.215767e-06	9.311945e-10	2.928104e+01	6.299181e+01
2.880000e-06	4.245915e-06	9.364323e-10	2.949044e+01	6.317231e+01
2.890000e-06	4.275785e-06	9.401143e-10	2.969790e+01	6.334393e+01
2.900000e-06	4.305384e-06	9.423431e-10	2.990348e+01	6.350698e+01
