# Temperatura_=_-0.3
# Concentracion g/m^3_=_1620.0
# C_Vs_to_Am_M_A/Vsm_=_65563218390.804596
# pendiente_HvsI_1/m_=_3716.3
# ordenada_HvsI_A/m_=_1297.0
# frecuencia_Hz_=_135097.5183601535

Tiempo_(s)	Campo_(V.s)	Magnetizacion_(V.s)	Campo_(kA/m)	Magnetizacion_(A/m)
0.000000e+00	-5.515904e-06	-1.531840e-09	-3.836909e+01	-9.814513e+01
1.000000e-08	-5.516198e-06	-1.530124e-09	-3.837113e+01	-9.816474e+01
2.000000e-08	-5.516237e-06	-1.528014e-09	-3.837140e+01	-9.818599e+01
3.000000e-08	-5.516074e-06	-1.528305e-09	-3.837027e+01	-9.820881e+01
4.000000e-08	-5.515577e-06	-1.528467e-09	-3.836681e+01	-9.823304e+01
5.000000e-08	-5.514497e-06	-1.527735e-09	-3.835930e+01	-9.825849e+01
6.000000e-08	-5.512776e-06	-1.524792e-09	-3.834733e+01	-9.828496e+01
7.000000e-08	-5.510530e-06	-1.506515e-09	-3.833170e+01	-9.831217e+01
8.000000e-08	-5.507783e-06	-1.506524e-09	-3.831260e+01	-9.833983e+01
9.000000e-08	-5.504374e-06	-1.539737e-09	-3.828889e+01	-9.836762e+01
1.000000e-07	-5.500385e-06	-1.576802e-09	-3.826114e+01	-9.839518e+01
1.100000e-07	-5.496134e-06	-1.553313e-09	-3.823157e+01	-9.842213e+01
1.200000e-07	-5.491744e-06	-1.504251e-09	-3.820103e+01	-9.844807e+01
1.300000e-07	-5.487164e-06	-1.456614e-09	-3.816917e+01	-9.847259e+01
1.400000e-07	-5.482218e-06	-1.526722e-09	-3.813476e+01	-9.849525e+01
1.500000e-07	-5.476780e-06	-1.515101e-09	-3.809694e+01	-9.851562e+01
1.600000e-07	-5.470906e-06	-1.507135e-09	-3.805608e+01	-9.853325e+01
1.700000e-07	-5.464647e-06	-1.459770e-09	-3.801254e+01	-9.854770e+01
1.800000e-07	-5.457924e-06	-1.530726e-09	-3.796577e+01	-9.855851e+01
1.900000e-07	-5.450740e-06	-1.566487e-09	-3.791580e+01	-9.856526e+01
2.000000e-07	-5.443289e-06	-1.539804e-09	-3.786397e+01	-9.856753e+01
2.100000e-07	-5.435601e-06	-1.502934e-09	-3.781049e+01	-9.856489e+01
2.200000e-07	-5.427703e-06	-1.523551e-09	-3.775555e+01	-9.855696e+01
2.300000e-07	-5.419627e-06	-1.568529e-09	-3.769938e+01	-9.854336e+01
2.400000e-07	-5.411217e-06	-1.545506e-09	-3.764088e+01	-9.852375e+01
2.500000e-07	-5.402184e-06	-1.540700e-09	-3.757804e+01	-9.849781e+01
2.600000e-07	-5.392390e-06	-1.539041e-09	-3.750992e+01	-9.846524e+01
2.700000e-07	-5.381957e-06	-1.570587e-09	-3.743734e+01	-9.842579e+01
2.800000e-07	-5.370965e-06	-1.539345e-09	-3.736088e+01	-9.837921e+01
2.900000e-07	-5.359600e-06	-1.551223e-09	-3.728182e+01	-9.832532e+01
3.000000e-07	-5.347865e-06	-1.537571e-09	-3.720019e+01	-9.826395e+01
3.100000e-07	-5.335658e-06	-1.562589e-09	-3.711528e+01	-9.819497e+01
3.200000e-07	-5.323040e-06	-1.521005e-09	-3.702751e+01	-9.811830e+01
3.300000e-07	-5.310035e-06	-1.530019e-09	-3.693705e+01	-9.803387e+01
3.400000e-07	-5.296646e-06	-1.510226e-09	-3.684391e+01	-9.794167e+01
3.500000e-07	-5.282839e-06	-1.527407e-09	-3.674787e+01	-9.784169e+01
3.600000e-07	-5.268648e-06	-1.505044e-09	-3.664916e+01	-9.773399e+01
3.700000e-07	-5.254002e-06	-1.517643e-09	-3.654728e+01	-9.761862e+01
3.800000e-07	-5.238878e-06	-1.512323e-09	-3.644207e+01	-9.749570e+01
3.900000e-07	-5.223285e-06	-1.521152e-09	-3.633361e+01	-9.736534e+01
4.000000e-07	-5.207137e-06	-1.505646e-09	-3.622128e+01	-9.722770e+01
4.100000e-07	-5.190513e-06	-1.501686e-09	-3.610564e+01	-9.708295e+01
4.200000e-07	-5.173534e-06	-1.493922e-09	-3.598754e+01	-9.693128e+01
4.300000e-07	-5.156269e-06	-1.480014e-09	-3.586744e+01	-9.677288e+01
4.400000e-07	-5.138710e-06	-1.468739e-09	-3.574530e+01	-9.660800e+01
4.500000e-07	-5.120879e-06	-1.481366e-09	-3.562126e+01	-9.643684e+01
4.600000e-07	-5.102606e-06	-1.495785e-09	-3.549415e+01	-9.625965e+01
4.700000e-07	-5.083826e-06	-1.469581e-09	-3.536352e+01	-9.607668e+01
4.800000e-07	-5.064654e-06	-1.461206e-09	-3.523015e+01	-9.588817e+01
4.900000e-07	-5.045187e-06	-1.469323e-09	-3.509474e+01	-9.569435e+01
5.000000e-07	-5.025535e-06	-1.467190e-09	-3.495804e+01	-9.549548e+01
5.100000e-07	-5.005712e-06	-1.435366e-09	-3.482015e+01	-9.529179e+01
5.200000e-07	-4.985651e-06	-1.447525e-09	-3.468060e+01	-9.508349e+01
5.300000e-07	-4.965262e-06	-1.446797e-09	-3.453878e+01	-9.487082e+01
5.400000e-07	-4.944496e-06	-1.437379e-09	-3.439433e+01	-9.465398e+01
5.500000e-07	-4.923360e-06	-1.437371e-09	-3.424730e+01	-9.443316e+01
5.600000e-07	-4.901923e-06	-1.460469e-09	-3.409819e+01	-9.420853e+01
5.700000e-07	-4.880173e-06	-1.425106e-09	-3.394689e+01	-9.398027e+01
5.800000e-07	-4.858101e-06	-1.416867e-09	-3.379336e+01	-9.374851e+01
5.900000e-07	-4.835637e-06	-1.432662e-09	-3.363710e+01	-9.351338e+01
6.000000e-07	-4.812827e-06	-1.427094e-09	-3.347842e+01	-9.327500e+01
6.100000e-07	-4.789750e-06	-1.396023e-09	-3.331790e+01	-9.303345e+01
6.200000e-07	-4.766365e-06	-1.417562e-09	-3.315523e+01	-9.278883e+01
6.300000e-07	-4.742770e-06	-1.410874e-09	-3.299110e+01	-9.254117e+01
6.400000e-07	-4.718990e-06	-1.385519e-09	-3.282569e+01	-9.229053e+01
6.500000e-07	-4.694877e-06	-1.388846e-09	-3.265796e+01	-9.203694e+01
6.600000e-07	-4.670396e-06	-1.406293e-09	-3.248767e+01	-9.178041e+01
6.700000e-07	-4.645457e-06	-1.381918e-09	-3.231419e+01	-9.152093e+01
6.800000e-07	-4.619942e-06	-1.384152e-09	-3.213670e+01	-9.125849e+01
6.900000e-07	-4.593862e-06	-1.395503e-09	-3.195529e+01	-9.099308e+01
7.000000e-07	-4.567208e-06	-1.379192e-09	-3.176988e+01	-9.072466e+01
7.100000e-07	-4.540097e-06	-1.363113e-09	-3.158129e+01	-9.045319e+01
7.200000e-07	-4.512683e-06	-1.372793e-09	-3.139059e+01	-9.017862e+01
7.300000e-07	-4.485091e-06	-1.361147e-09	-3.119867e+01	-8.990090e+01
7.400000e-07	-4.457377e-06	-1.345469e-09	-3.100588e+01	-8.961998e+01
7.500000e-07	-4.429462e-06	-1.359215e-09	-3.081171e+01	-8.933580e+01
7.600000e-07	-4.401302e-06	-1.359849e-09	-3.061582e+01	-8.904831e+01
7.700000e-07	-4.372836e-06	-1.345593e-09	-3.041781e+01	-8.875745e+01
7.800000e-07	-4.344062e-06	-1.345491e-09	-3.021765e+01	-8.846316e+01
7.900000e-07	-4.314904e-06	-1.346940e-09	-3.001483e+01	-8.816541e+01
8.000000e-07	-4.285384e-06	-1.325886e-09	-2.980948e+01	-8.786414e+01
8.100000e-07	-4.255584e-06	-1.323711e-09	-2.960220e+01	-8.755932e+01
8.200000e-07	-4.225524e-06	-1.324619e-09	-2.939309e+01	-8.725091e+01
8.300000e-07	-4.195198e-06	-1.315447e-09	-2.918214e+01	-8.693888e+01
8.400000e-07	-4.164488e-06	-1.303957e-09	-2.896853e+01	-8.662320e+01
8.500000e-07	-4.133457e-06	-1.312026e-09	-2.875267e+01	-8.630387e+01
8.600000e-07	-4.102246e-06	-1.304866e-09	-2.853557e+01	-8.598086e+01
8.700000e-07	-4.070874e-06	-1.297220e-09	-2.831734e+01	-8.565418e+01
8.800000e-07	-4.039272e-06	-1.294617e-09	-2.809751e+01	-8.532382e+01
8.900000e-07	-4.007517e-06	-1.292218e-09	-2.787662e+01	-8.498979e+01
9.000000e-07	-3.975688e-06	-1.273322e-09	-2.765522e+01	-8.465208e+01
9.100000e-07	-3.943590e-06	-1.267904e-09	-2.743194e+01	-8.431072e+01
9.200000e-07	-3.911148e-06	-1.260748e-09	-2.720627e+01	-8.396570e+01
9.300000e-07	-3.878361e-06	-1.251904e-09	-2.697820e+01	-8.361704e+01
9.400000e-07	-3.845030e-06	-1.245376e-09	-2.674635e+01	-8.326474e+01
9.500000e-07	-3.811114e-06	-1.247808e-09	-2.651042e+01	-8.290880e+01
9.600000e-07	-3.776785e-06	-1.237358e-09	-2.627163e+01	-8.254923e+01
9.700000e-07	-3.742132e-06	-1.227796e-09	-2.603058e+01	-8.218601e+01
9.800000e-07	-3.707095e-06	-1.226041e-09	-2.578686e+01	-8.181914e+01
9.900000e-07	-3.671718e-06	-1.221985e-09	-2.554077e+01	-8.144858e+01
1.000000e-06	-3.636202e-06	-1.212350e-09	-2.529373e+01	-8.107430e+01
1.010000e-06	-3.600582e-06	-1.211190e-09	-2.504595e+01	-8.069626e+01
1.020000e-06	-3.564789e-06	-1.210123e-09	-2.479697e+01	-8.031440e+01
1.030000e-06	-3.528879e-06	-1.201304e-09	-2.454718e+01	-7.992865e+01
1.040000e-06	-3.492841e-06	-1.193451e-09	-2.429649e+01	-7.953891e+01
1.050000e-06	-3.456518e-06	-1.185919e-09	-2.404383e+01	-7.914508e+01
1.060000e-06	-3.419866e-06	-1.173737e-09	-2.378887e+01	-7.874705e+01
1.070000e-06	-3.382965e-06	-1.162755e-09	-2.353219e+01	-7.834468e+01
1.080000e-06	-3.345790e-06	-1.162762e-09	-2.327359e+01	-7.793782e+01
1.090000e-06	-3.308358e-06	-1.160482e-09	-2.301321e+01	-7.752630e+01
1.100000e-06	-3.270739e-06	-1.157549e-09	-2.275153e+01	-7.710993e+01
1.110000e-06	-3.232931e-06	-1.150320e-09	-2.248854e+01	-7.668852e+01
1.120000e-06	-3.194925e-06	-1.138387e-09	-2.222416e+01	-7.626184e+01
1.130000e-06	-3.156678e-06	-1.120083e-09	-2.195812e+01	-7.582967e+01
1.140000e-06	-3.118198e-06	-1.110600e-09	-2.169044e+01	-7.539177e+01
1.150000e-06	-3.079535e-06	-1.102817e-09	-2.142150e+01	-7.494787e+01
1.160000e-06	-3.040691e-06	-1.096142e-09	-2.115130e+01	-7.449772e+01
1.170000e-06	-3.001619e-06	-1.091940e-09	-2.087951e+01	-7.404104e+01
1.180000e-06	-2.962286e-06	-1.092728e-09	-2.060591e+01	-7.357754e+01
1.190000e-06	-2.922785e-06	-1.086773e-09	-2.033114e+01	-7.310694e+01
1.200000e-06	-2.883190e-06	-1.078960e-09	-2.005571e+01	-7.262894e+01
1.210000e-06	-2.843411e-06	-1.068064e-09	-1.977901e+01	-7.214326e+01
1.220000e-06	-2.803438e-06	-1.055765e-09	-1.950095e+01	-7.164960e+01
1.230000e-06	-2.763350e-06	-1.041847e-09	-1.922209e+01	-7.114766e+01
1.240000e-06	-2.723162e-06	-1.035256e-09	-1.894254e+01	-7.063716e+01
1.250000e-06	-2.682845e-06	-1.030603e-09	-1.866209e+01	-7.011781e+01
1.260000e-06	-2.642333e-06	-1.025320e-09	-1.838029e+01	-6.958935e+01
1.270000e-06	-2.601598e-06	-1.022376e-09	-1.809693e+01	-6.905151e+01
1.280000e-06	-2.560651e-06	-1.018213e-09	-1.781210e+01	-6.850404e+01
1.290000e-06	-2.519360e-06	-1.006187e-09	-1.752488e+01	-6.794668e+01
1.300000e-06	-2.477636e-06	-9.913297e-10	-1.723464e+01	-6.737922e+01
1.310000e-06	-2.435578e-06	-9.770127e-10	-1.694208e+01	-6.680144e+01
1.320000e-06	-2.393352e-06	-9.639394e-10	-1.664836e+01	-6.621315e+01
1.330000e-06	-2.350916e-06	-9.537766e-10	-1.635317e+01	-6.561416e+01
1.340000e-06	-2.308110e-06	-9.499300e-10	-1.605540e+01	-6.500430e+01
1.350000e-06	-2.264964e-06	-9.461611e-10	-1.575528e+01	-6.438342e+01
1.360000e-06	-2.221563e-06	-9.373309e-10	-1.545338e+01	-6.375140e+01
1.370000e-06	-2.178019e-06	-9.269234e-10	-1.515048e+01	-6.310812e+01
1.380000e-06	-2.134398e-06	-9.159021e-10	-1.484705e+01	-6.245346e+01
1.390000e-06	-2.090721e-06	-9.040830e-10	-1.454323e+01	-6.178736e+01
1.400000e-06	-2.046986e-06	-8.913418e-10	-1.423901e+01	-6.110972e+01
1.410000e-06	-2.003161e-06	-8.831946e-10	-1.393416e+01	-6.042048e+01
1.420000e-06	-1.959219e-06	-8.734697e-10	-1.362849e+01	-5.971960e+01
1.430000e-06	-1.915158e-06	-8.624352e-10	-1.332200e+01	-5.900703e+01
1.440000e-06	-1.871047e-06	-8.527768e-10	-1.301516e+01	-5.828272e+01
1.450000e-06	-1.826919e-06	-8.434693e-10	-1.270820e+01	-5.754666e+01
1.460000e-06	-1.782782e-06	-8.302599e-10	-1.240118e+01	-5.679879e+01
1.470000e-06	-1.738505e-06	-8.179510e-10	-1.209318e+01	-5.603910e+01
1.480000e-06	-1.694028e-06	-8.037987e-10	-1.178380e+01	-5.526755e+01
1.490000e-06	-1.649421e-06	-7.893913e-10	-1.147351e+01	-5.448410e+01
1.500000e-06	-1.604613e-06	-7.758411e-10	-1.116182e+01	-5.368871e+01
1.510000e-06	-1.559625e-06	-7.628783e-10	-1.084888e+01	-5.288132e+01
1.520000e-06	-1.514626e-06	-7.467844e-10	-1.053586e+01	-5.206187e+01
1.530000e-06	-1.469564e-06	-7.290272e-10	-1.022241e+01	-5.123027e+01
1.540000e-06	-1.424312e-06	-7.100018e-10	-9.907633e+00	-5.038645e+01
1.550000e-06	-1.378928e-06	-6.926693e-10	-9.591941e+00	-4.953028e+01
1.560000e-06	-1.333481e-06	-6.760506e-10	-9.275802e+00	-4.866165e+01
1.570000e-06	-1.288001e-06	-6.604336e-10	-8.959442e+00	-4.778041e+01
1.580000e-06	-1.242415e-06	-6.479355e-10	-8.642343e+00	-4.688640e+01
1.590000e-06	-1.196693e-06	-6.373954e-10	-8.324299e+00	-4.597943e+01
1.600000e-06	-1.150889e-06	-6.240967e-10	-8.005678e+00	-4.505930e+01
1.610000e-06	-1.105010e-06	-6.094487e-10	-7.686543e+00	-4.412580e+01
1.620000e-06	-1.059084e-06	-5.921986e-10	-7.367076e+00	-4.317868e+01
1.630000e-06	-1.013094e-06	-5.731545e-10	-7.047168e+00	-4.221768e+01
1.640000e-06	-9.670294e-07	-5.533738e-10	-6.726737e+00	-4.124253e+01
1.650000e-06	-9.208950e-07	-5.327403e-10	-6.405822e+00	-4.025295e+01
1.660000e-06	-8.746502e-07	-5.156606e-10	-6.084140e+00	-3.924863e+01
1.670000e-06	-8.283618e-07	-5.001406e-10	-5.762154e+00	-3.822927e+01
1.680000e-06	-7.820582e-07	-4.881962e-10	-5.440062e+00	-3.719455e+01
1.690000e-06	-7.356794e-07	-4.743222e-10	-5.117447e+00	-3.614415e+01
1.700000e-06	-6.892611e-07	-4.587513e-10	-4.794557e+00	-3.507776e+01
1.710000e-06	-6.427882e-07	-4.405282e-10	-4.471288e+00	-3.399506e+01
1.720000e-06	-5.962617e-07	-4.199230e-10	-4.147646e+00	-3.289576e+01
1.730000e-06	-5.497445e-07	-3.994512e-10	-3.824069e+00	-3.177956e+01
1.740000e-06	-5.031750e-07	-3.809674e-10	-3.500127e+00	-3.064619e+01
1.750000e-06	-4.565059e-07	-3.654796e-10	-3.175493e+00	-2.949539e+01
1.760000e-06	-4.097567e-07	-3.513744e-10	-2.850302e+00	-2.832696e+01
1.770000e-06	-3.629725e-07	-3.357810e-10	-2.524867e+00	-2.714069e+01
1.780000e-06	-3.161947e-07	-3.217630e-10	-2.199477e+00	-2.593643e+01
1.790000e-06	-2.694126e-07	-3.070831e-10	-1.874057e+00	-2.471407e+01
1.800000e-06	-2.226080e-07	-2.876512e-10	-1.548480e+00	-2.347355e+01
1.810000e-06	-1.757587e-07	-2.655723e-10	-1.222592e+00	-2.221484e+01
1.820000e-06	-1.289017e-07	-2.420453e-10	-8.966507e-01	-2.093799e+01
1.830000e-06	-8.203415e-08	-2.186444e-10	-5.706364e-01	-1.964310e+01
1.840000e-06	-3.512173e-08	-1.991107e-10	-2.443097e-01	-1.833032e+01
1.850000e-06	1.172884e-08	-1.818767e-10	8.158681e-02	-1.699987e+01
1.860000e-06	5.852111e-08	-1.655344e-10	4.070777e-01	-1.565206e+01
1.870000e-06	1.053235e-07	-1.471130e-10	7.326389e-01	-1.428725e+01
1.880000e-06	1.520579e-07	-1.277838e-10	1.057727e+00	-1.290588e+01
1.890000e-06	1.987792e-07	-1.085244e-10	1.382724e+00	-1.150844e+01
1.900000e-06	2.455149e-07	-8.708251e-11	1.707822e+00	-1.009554e+01
1.910000e-06	2.922116e-07	-6.733468e-11	2.032648e+00	-8.667826e+00
1.920000e-06	3.389314e-07	-4.923282e-11	2.357635e+00	-7.226036e+00
1.930000e-06	3.856384e-07	-3.057552e-11	2.682533e+00	-5.770975e+00
1.940000e-06	4.323290e-07	-1.088242e-11	3.007317e+00	-4.303525e+00
1.950000e-06	4.789526e-07	6.109412e-12	3.331634e+00	-2.824633e+00
1.960000e-06	5.254735e-07	2.346609e-11	3.655237e+00	-1.335315e+00
1.970000e-06	5.719598e-07	4.190459e-11	3.978600e+00	1.633514e-01
1.980000e-06	6.183594e-07	6.248878e-11	4.301360e+00	1.670228e+00
1.990000e-06	6.647089e-07	8.475465e-11	4.623770e+00	3.184121e+00
2.000000e-06	7.110499e-07	1.069841e-10	4.946122e+00	4.703790e+00
2.010000e-06	7.573543e-07	1.294305e-10	5.268220e+00	6.227947e+00
2.020000e-06	8.035407e-07	1.522983e-10	5.589496e+00	7.755269e+00
2.030000e-06	8.496599e-07	1.731937e-10	5.910305e+00	9.284399e+00
2.040000e-06	8.957790e-07	1.939553e-10	6.231113e+00	1.081395e+01
2.050000e-06	9.419132e-07	2.130007e-10	6.552027e+00	1.234254e+01
2.060000e-06	9.880493e-07	2.332142e-10	6.872953e+00	1.386873e+01
2.070000e-06	1.033993e-06	2.555221e-10	7.192538e+00	1.539113e+01
2.080000e-06	1.079832e-06	2.783955e-10	7.511403e+00	1.690831e+01
2.090000e-06	1.125667e-06	2.993994e-10	7.830233e+00	1.841889e+01
2.100000e-06	1.171371e-06	3.171657e-10	8.148155e+00	1.992147e+01
2.110000e-06	1.216991e-06	3.361355e-10	8.465493e+00	2.141471e+01
2.120000e-06	1.262583e-06	3.549892e-10	8.782635e+00	2.289728e+01
2.130000e-06	1.308057e-06	3.737698e-10	9.098953e+00	2.436790e+01
2.140000e-06	1.353394e-06	3.932161e-10	9.414319e+00	2.582533e+01
2.150000e-06	1.398656e-06	4.128658e-10	9.729169e+00	2.726840e+01
2.160000e-06	1.443867e-06	4.317278e-10	1.004366e+01	2.869599e+01
2.170000e-06	1.489002e-06	4.520225e-10	1.035762e+01	3.010703e+01
2.180000e-06	1.534004e-06	4.724833e-10	1.067066e+01	3.150054e+01
2.190000e-06	1.578838e-06	4.912370e-10	1.098253e+01	3.287560e+01
2.200000e-06	1.623535e-06	5.102746e-10	1.129344e+01	3.423138e+01
2.210000e-06	1.668113e-06	5.294710e-10	1.160353e+01	3.556713e+01
2.220000e-06	1.712542e-06	5.475021e-10	1.191258e+01	3.688218e+01
2.230000e-06	1.756910e-06	5.650400e-10	1.222121e+01	3.817594e+01
2.240000e-06	1.801237e-06	5.818157e-10	1.252955e+01	3.944791e+01
2.250000e-06	1.845347e-06	5.989254e-10	1.283639e+01	4.069769e+01
2.260000e-06	1.889279e-06	6.161746e-10	1.314198e+01	4.192495e+01
2.270000e-06	1.933181e-06	6.326743e-10	1.344737e+01	4.312947e+01
2.280000e-06	1.977029e-06	6.477828e-10	1.375238e+01	4.431108e+01
2.290000e-06	2.020796e-06	6.628807e-10	1.405682e+01	4.546973e+01
2.300000e-06	2.064520e-06	6.780675e-10	1.436097e+01	4.660543e+01
2.310000e-06	2.108194e-06	6.947257e-10	1.466477e+01	4.771827e+01
2.320000e-06	2.151746e-06	7.117055e-10	1.496772e+01	4.880842e+01
2.330000e-06	2.195187e-06	7.273919e-10	1.526990e+01	4.987611e+01
2.340000e-06	2.238571e-06	7.400133e-10	1.557169e+01	5.092164e+01
2.350000e-06	2.281776e-06	7.526689e-10	1.587222e+01	5.194536e+01
2.360000e-06	2.324713e-06	7.667601e-10	1.617090e+01	5.294769e+01
2.370000e-06	2.367396e-06	7.800352e-10	1.646780e+01	5.392909e+01
2.380000e-06	2.409851e-06	7.926558e-10	1.676313e+01	5.489006e+01
2.390000e-06	2.452008e-06	8.055641e-10	1.705637e+01	5.583113e+01
2.400000e-06	2.493756e-06	8.214986e-10	1.734677e+01	5.675287e+01
2.410000e-06	2.535082e-06	8.374166e-10	1.763424e+01	5.765586e+01
2.420000e-06	2.576096e-06	8.528581e-10	1.791954e+01	5.854071e+01
2.430000e-06	2.616932e-06	8.672204e-10	1.820360e+01	5.940802e+01
2.440000e-06	2.657543e-06	8.800929e-10	1.848609e+01	6.025843e+01
2.450000e-06	2.697901e-06	8.931875e-10	1.876683e+01	6.109253e+01
2.460000e-06	2.738121e-06	9.047649e-10	1.904660e+01	6.191093e+01
2.470000e-06	2.778202e-06	9.170132e-10	1.932540e+01	6.271424e+01
2.480000e-06	2.818068e-06	9.268240e-10	1.960272e+01	6.350301e+01
2.490000e-06	2.857822e-06	9.345153e-10	1.987925e+01	6.427780e+01
2.500000e-06	2.897523e-06	9.430833e-10	2.015541e+01	6.503914e+01
2.510000e-06	2.937086e-06	9.556421e-10	2.043062e+01	6.578751e+01
2.520000e-06	2.976545e-06	9.689868e-10	2.070509e+01	6.652338e+01
2.530000e-06	3.015862e-06	9.815072e-10	2.097859e+01	6.724717e+01
2.540000e-06	3.054849e-06	9.933647e-10	2.124979e+01	6.795926e+01
2.550000e-06	3.093491e-06	1.001454e-09	2.151858e+01	6.865999e+01
2.560000e-06	3.131822e-06	1.009383e-09	2.178521e+01	6.934966e+01
2.570000e-06	3.169948e-06	1.016745e-09	2.205042e+01	7.002855e+01
2.580000e-06	3.207967e-06	1.026493e-09	2.231488e+01	7.069685e+01
2.590000e-06	3.245809e-06	1.035615e-09	2.257812e+01	7.135477e+01
2.600000e-06	3.283517e-06	1.044945e-09	2.284042e+01	7.200242e+01
2.610000e-06	3.321009e-06	1.055527e-09	2.310121e+01	7.263992e+01
2.620000e-06	3.358138e-06	1.066090e-09	2.335949e+01	7.326733e+01
2.630000e-06	3.395052e-06	1.077052e-09	2.361626e+01	7.388469e+01
2.640000e-06	3.431751e-06	1.085513e-09	2.387155e+01	7.449199e+01
2.650000e-06	3.468151e-06	1.093564e-09	2.412475e+01	7.508923e+01
2.660000e-06	3.504308e-06	1.103015e-09	2.437626e+01	7.567634e+01
2.670000e-06	3.540260e-06	1.110696e-09	2.462634e+01	7.625326e+01
2.680000e-06	3.576097e-06	1.116391e-09	2.487563e+01	7.681992e+01
2.690000e-06	3.611838e-06	1.118782e-09	2.512424e+01	7.737623e+01
2.700000e-06	3.647454e-06	1.123161e-09	2.537200e+01	7.792208e+01
2.710000e-06	3.682889e-06	1.130011e-09	2.561848e+01	7.845738e+01
2.720000e-06	3.718032e-06	1.138681e-09	2.586294e+01	7.898202e+01
2.730000e-06	3.752838e-06	1.152722e-09	2.610505e+01	7.949592e+01
2.740000e-06	3.787290e-06	1.166906e-09	2.634470e+01	7.999898e+01
2.750000e-06	3.821377e-06	1.176544e-09	2.658182e+01	8.049115e+01
2.760000e-06	3.855081e-06	1.181644e-09	2.681627e+01	8.097236e+01
2.770000e-06	3.888247e-06	1.184254e-09	2.704697e+01	8.144259e+01
2.780000e-06	3.920920e-06	1.188264e-09	2.727425e+01	8.190182e+01
2.790000e-06	3.953287e-06	1.193997e-09	2.749939e+01	8.235006e+01
2.800000e-06	3.985381e-06	1.201780e-09	2.772264e+01	8.278737e+01
2.810000e-06	4.017256e-06	1.213289e-09	2.794437e+01	8.321381e+01
2.820000e-06	4.048918e-06	1.224645e-09	2.816461e+01	8.362948e+01
2.830000e-06	4.080433e-06	1.232634e-09	2.838383e+01	8.403452e+01
2.840000e-06	4.111785e-06	1.236086e-09	2.860192e+01	8.442909e+01
2.850000e-06	4.142860e-06	1.237644e-09	2.881808e+01	8.481340e+01
2.860000e-06	4.173652e-06	1.241066e-09	2.903227e+01	8.518765e+01
2.870000e-06	4.204087e-06	1.245123e-09	2.924398e+01	8.555212e+01
2.880000e-06	4.234223e-06	1.249590e-09	2.945361e+01	8.590710e+01
2.890000e-06	4.264120e-06	1.258802e-09	2.966157e+01	8.625288e+01
2.900000e-06	4.293721e-06	1.268661e-09	2.986748e+01	8.658981e+01
