# Temperatura_=_-0.7
# Concentracion g/m^3_=_1620.0
# C_Vs_to_Am_M_A/Vsm_=_65563218390.804596
# pendiente_HvsI_1/m_=_3716.3
# ordenada_HvsI_A/m_=_1297.0
# frecuencia_Hz_=_135088.70703777787

Tiempo_(s)	Campo_(V.s)	Magnetizacion_(V.s)	Campo_(kA/m)	Magnetizacion_(A/m)
0.000000e+00	-5.530815e-06	-1.197936e-09	-3.838037e+01	-7.760498e+01
1.000000e-08	-5.530904e-06	-1.198564e-09	-3.838098e+01	-7.759829e+01
2.000000e-08	-5.530663e-06	-1.200807e-09	-3.837931e+01	-7.759191e+01
3.000000e-08	-5.529974e-06	-1.200811e-09	-3.837453e+01	-7.758586e+01
4.000000e-08	-5.528766e-06	-1.197295e-09	-3.836615e+01	-7.758013e+01
5.000000e-08	-5.527035e-06	-1.191056e-09	-3.835413e+01	-7.757468e+01
6.000000e-08	-5.524692e-06	-1.172636e-09	-3.833788e+01	-7.756948e+01
7.000000e-08	-5.521760e-06	-1.178115e-09	-3.831753e+01	-7.756448e+01
8.000000e-08	-5.518326e-06	-1.225035e-09	-3.829370e+01	-7.755960e+01
9.000000e-08	-5.514472e-06	-1.234598e-09	-3.826696e+01	-7.755476e+01
1.000000e-07	-5.510308e-06	-1.157957e-09	-3.823806e+01	-7.754987e+01
1.100000e-07	-5.505880e-06	-1.179003e-09	-3.820734e+01	-7.754484e+01
1.200000e-07	-5.501194e-06	-1.172565e-09	-3.817482e+01	-7.753954e+01
1.300000e-07	-5.496194e-06	-1.219909e-09	-3.814012e+01	-7.753386e+01
1.400000e-07	-5.490707e-06	-1.135717e-09	-3.810204e+01	-7.752766e+01
1.500000e-07	-5.484809e-06	-1.132098e-09	-3.806111e+01	-7.752081e+01
1.600000e-07	-5.478577e-06	-1.187039e-09	-3.801787e+01	-7.751316e+01
1.700000e-07	-5.471834e-06	-1.225355e-09	-3.797108e+01	-7.750458e+01
1.800000e-07	-5.464794e-06	-1.202153e-09	-3.792222e+01	-7.749490e+01
1.900000e-07	-5.457483e-06	-1.143901e-09	-3.787149e+01	-7.748397e+01
2.000000e-07	-5.449746e-06	-1.179446e-09	-3.781780e+01	-7.747163e+01
2.100000e-07	-5.441784e-06	-1.208354e-09	-3.776255e+01	-7.745773e+01
2.200000e-07	-5.433676e-06	-1.224262e-09	-3.770628e+01	-7.744211e+01
2.300000e-07	-5.425204e-06	-1.182457e-09	-3.764749e+01	-7.742461e+01
2.400000e-07	-5.416062e-06	-1.230825e-09	-3.758406e+01	-7.740506e+01
2.500000e-07	-5.406190e-06	-1.235541e-09	-3.751555e+01	-7.738333e+01
2.600000e-07	-5.395758e-06	-1.232784e-09	-3.744316e+01	-7.735925e+01
2.700000e-07	-5.384821e-06	-1.172690e-09	-3.736726e+01	-7.733268e+01
2.800000e-07	-5.373436e-06	-1.208610e-09	-3.728826e+01	-7.730347e+01
2.900000e-07	-5.361679e-06	-1.215970e-09	-3.720667e+01	-7.727147e+01
3.000000e-07	-5.349603e-06	-1.212693e-09	-3.712287e+01	-7.723655e+01
3.100000e-07	-5.337046e-06	-1.169615e-09	-3.703573e+01	-7.719857e+01
3.200000e-07	-5.324015e-06	-1.214121e-09	-3.694531e+01	-7.715741e+01
3.300000e-07	-5.310679e-06	-1.219869e-09	-3.685276e+01	-7.711294e+01
3.400000e-07	-5.297015e-06	-1.184286e-09	-3.675795e+01	-7.706504e+01
3.500000e-07	-5.282767e-06	-1.157661e-09	-3.665907e+01	-7.701359e+01
3.600000e-07	-5.268147e-06	-1.205312e-09	-3.655762e+01	-7.695849e+01
3.700000e-07	-5.253145e-06	-1.186421e-09	-3.645352e+01	-7.689964e+01
3.800000e-07	-5.237514e-06	-1.161857e-09	-3.634504e+01	-7.683692e+01
3.900000e-07	-5.221462e-06	-1.201986e-09	-3.623365e+01	-7.677025e+01
4.000000e-07	-5.204890e-06	-1.202588e-09	-3.611866e+01	-7.669954e+01
4.100000e-07	-5.187941e-06	-1.141390e-09	-3.600104e+01	-7.662469e+01
4.200000e-07	-5.170709e-06	-1.154039e-09	-3.588146e+01	-7.654564e+01
4.300000e-07	-5.153202e-06	-1.218671e-09	-3.575997e+01	-7.646230e+01
4.400000e-07	-5.135325e-06	-1.156175e-09	-3.563592e+01	-7.637460e+01
4.500000e-07	-5.116960e-06	-1.139817e-09	-3.550848e+01	-7.628248e+01
4.600000e-07	-5.098301e-06	-1.198501e-09	-3.537899e+01	-7.618587e+01
4.700000e-07	-5.079269e-06	-1.185661e-09	-3.524692e+01	-7.608472e+01
4.800000e-07	-5.059805e-06	-1.114208e-09	-3.511185e+01	-7.597897e+01
4.900000e-07	-5.040136e-06	-1.180426e-09	-3.497537e+01	-7.586858e+01
5.000000e-07	-5.020338e-06	-1.181053e-09	-3.483798e+01	-7.575350e+01
5.100000e-07	-5.000353e-06	-1.109672e-09	-3.469929e+01	-7.563370e+01
5.200000e-07	-4.980032e-06	-1.130041e-09	-3.455828e+01	-7.550914e+01
5.300000e-07	-4.959288e-06	-1.205311e-09	-3.441433e+01	-7.537980e+01
5.400000e-07	-4.938163e-06	-1.136319e-09	-3.426773e+01	-7.524567e+01
5.500000e-07	-4.916634e-06	-1.120438e-09	-3.411834e+01	-7.510672e+01
5.600000e-07	-4.894798e-06	-1.165328e-09	-3.396681e+01	-7.496295e+01
5.700000e-07	-4.872684e-06	-1.138245e-09	-3.381335e+01	-7.481436e+01
5.800000e-07	-4.850162e-06	-1.086309e-09	-3.365706e+01	-7.466095e+01
5.900000e-07	-4.827289e-06	-1.135965e-09	-3.349834e+01	-7.450275e+01
6.000000e-07	-4.804127e-06	-1.130285e-09	-3.333761e+01	-7.433978e+01
6.100000e-07	-4.780718e-06	-1.094785e-09	-3.317517e+01	-7.417206e+01
6.200000e-07	-4.757086e-06	-1.116751e-09	-3.301117e+01	-7.399964e+01
6.300000e-07	-4.733218e-06	-1.126458e-09	-3.284555e+01	-7.382256e+01
6.400000e-07	-4.709021e-06	-1.086519e-09	-3.267763e+01	-7.364089e+01
6.500000e-07	-4.684458e-06	-1.101049e-09	-3.250719e+01	-7.345468e+01
6.600000e-07	-4.659455e-06	-1.116304e-09	-3.233368e+01	-7.326401e+01
6.700000e-07	-4.633851e-06	-1.085607e-09	-3.215601e+01	-7.306896e+01
6.800000e-07	-4.607749e-06	-1.085903e-09	-3.197487e+01	-7.286963e+01
6.900000e-07	-4.581210e-06	-1.105699e-09	-3.179071e+01	-7.266612e+01
7.000000e-07	-4.554148e-06	-1.086858e-09	-3.160291e+01	-7.245853e+01
7.100000e-07	-4.526731e-06	-1.074373e-09	-3.141266e+01	-7.224698e+01
7.200000e-07	-4.499115e-06	-1.091111e-09	-3.122102e+01	-7.203160e+01
7.300000e-07	-4.471289e-06	-1.076749e-09	-3.102793e+01	-7.181250e+01
7.400000e-07	-4.443293e-06	-1.074861e-09	-3.083365e+01	-7.158984e+01
7.500000e-07	-4.415033e-06	-1.087130e-09	-3.063754e+01	-7.136375e+01
7.600000e-07	-4.386433e-06	-1.080775e-09	-3.043908e+01	-7.113437e+01
7.700000e-07	-4.357504e-06	-1.055420e-09	-3.023833e+01	-7.090186e+01
7.800000e-07	-4.328381e-06	-1.063642e-09	-3.003623e+01	-7.066636e+01
7.900000e-07	-4.298953e-06	-1.054754e-09	-2.983202e+01	-7.042802e+01
8.000000e-07	-4.269104e-06	-1.042069e-09	-2.962489e+01	-7.018701e+01
8.100000e-07	-4.238963e-06	-1.046203e-09	-2.941573e+01	-6.994345e+01
8.200000e-07	-4.208559e-06	-1.063039e-09	-2.920475e+01	-6.969752e+01
8.300000e-07	-4.177857e-06	-1.050019e-09	-2.899169e+01	-6.944934e+01
8.400000e-07	-4.146844e-06	-1.045591e-09	-2.877648e+01	-6.919905e+01
8.500000e-07	-4.115569e-06	-1.045386e-09	-2.855945e+01	-6.894679e+01
8.600000e-07	-4.084097e-06	-1.033636e-09	-2.834106e+01	-6.869267e+01
8.700000e-07	-4.052490e-06	-1.015298e-09	-2.812173e+01	-6.843682e+01
8.800000e-07	-4.020748e-06	-1.023930e-09	-2.790145e+01	-6.817932e+01
8.900000e-07	-3.988845e-06	-1.022946e-09	-2.768007e+01	-6.792027e+01
9.000000e-07	-3.956647e-06	-1.010244e-09	-2.745664e+01	-6.765974e+01
9.100000e-07	-3.924164e-06	-1.004718e-09	-2.723122e+01	-6.739780e+01
9.200000e-07	-3.891306e-06	-1.006484e-09	-2.700321e+01	-6.713449e+01
9.300000e-07	-3.857940e-06	-9.933482e-10	-2.677167e+01	-6.686983e+01
9.400000e-07	-3.824107e-06	-9.912116e-10	-2.653689e+01	-6.660383e+01
9.500000e-07	-3.789695e-06	-9.993915e-10	-2.629809e+01	-6.633649e+01
9.600000e-07	-3.754889e-06	-9.962284e-10	-2.605656e+01	-6.606777e+01
9.700000e-07	-3.719825e-06	-9.872131e-10	-2.581324e+01	-6.579764e+01
9.800000e-07	-3.684475e-06	-9.854030e-10	-2.556794e+01	-6.552602e+01
9.900000e-07	-3.648937e-06	-9.791807e-10	-2.532132e+01	-6.525282e+01
1.000000e-06	-3.613240e-06	-9.618758e-10	-2.507361e+01	-6.497794e+01
1.010000e-06	-3.577426e-06	-9.585412e-10	-2.482508e+01	-6.470125e+01
1.020000e-06	-3.541521e-06	-9.598772e-10	-2.457592e+01	-6.442261e+01
1.030000e-06	-3.505403e-06	-9.593595e-10	-2.432529e+01	-6.414185e+01
1.040000e-06	-3.468971e-06	-9.568551e-10	-2.407247e+01	-6.385879e+01
1.050000e-06	-3.432275e-06	-9.581381e-10	-2.381782e+01	-6.357323e+01
1.060000e-06	-3.395267e-06	-9.458189e-10	-2.356101e+01	-6.328495e+01
1.070000e-06	-3.358056e-06	-9.338807e-10	-2.330279e+01	-6.299373e+01
1.080000e-06	-3.320670e-06	-9.274246e-10	-2.304336e+01	-6.269933e+01
1.090000e-06	-3.282981e-06	-9.231315e-10	-2.278182e+01	-6.240148e+01
1.100000e-06	-3.245014e-06	-9.128818e-10	-2.251835e+01	-6.209993e+01
1.110000e-06	-3.206818e-06	-9.128987e-10	-2.225329e+01	-6.179440e+01
1.120000e-06	-3.168511e-06	-9.120039e-10	-2.198747e+01	-6.148461e+01
1.130000e-06	-3.130026e-06	-9.087913e-10	-2.172041e+01	-6.117028e+01
1.140000e-06	-3.091261e-06	-9.003575e-10	-2.145140e+01	-6.085112e+01
1.150000e-06	-3.052221e-06	-8.939284e-10	-2.118049e+01	-6.052684e+01
1.160000e-06	-3.012944e-06	-8.853261e-10	-2.090793e+01	-6.019716e+01
1.170000e-06	-2.973527e-06	-8.811952e-10	-2.063440e+01	-5.986178e+01
1.180000e-06	-2.933987e-06	-8.771270e-10	-2.036002e+01	-5.952042e+01
1.190000e-06	-2.894363e-06	-8.730154e-10	-2.008505e+01	-5.917282e+01
1.200000e-06	-2.854533e-06	-8.664194e-10	-1.980866e+01	-5.881870e+01
1.210000e-06	-2.814534e-06	-8.611603e-10	-1.953109e+01	-5.845780e+01
1.220000e-06	-2.774454e-06	-8.550826e-10	-1.925296e+01	-5.808988e+01
1.230000e-06	-2.734211e-06	-8.475889e-10	-1.897370e+01	-5.771470e+01
1.240000e-06	-2.693796e-06	-8.429742e-10	-1.869325e+01	-5.733203e+01
1.250000e-06	-2.653124e-06	-8.408105e-10	-1.841101e+01	-5.694167e+01
1.260000e-06	-2.612108e-06	-8.390358e-10	-1.812638e+01	-5.654341e+01
1.270000e-06	-2.570811e-06	-8.340234e-10	-1.783981e+01	-5.613709e+01
1.280000e-06	-2.529434e-06	-8.249188e-10	-1.755268e+01	-5.572253e+01
1.290000e-06	-2.487702e-06	-8.131816e-10	-1.726309e+01	-5.529958e+01
1.300000e-06	-2.445553e-06	-8.026193e-10	-1.697060e+01	-5.486810e+01
1.310000e-06	-2.403201e-06	-7.945975e-10	-1.667670e+01	-5.442798e+01
1.320000e-06	-2.360525e-06	-7.908969e-10	-1.638056e+01	-5.397911e+01
1.330000e-06	-2.317548e-06	-7.890966e-10	-1.608232e+01	-5.352140e+01
1.340000e-06	-2.274351e-06	-7.865845e-10	-1.578256e+01	-5.305475e+01
1.350000e-06	-2.231002e-06	-7.776458e-10	-1.548174e+01	-5.257911e+01
1.360000e-06	-2.187531e-06	-7.666865e-10	-1.518008e+01	-5.209442e+01
1.370000e-06	-2.143955e-06	-7.555492e-10	-1.487770e+01	-5.160061e+01
1.380000e-06	-2.100291e-06	-7.475395e-10	-1.457469e+01	-5.109765e+01
1.390000e-06	-2.056543e-06	-7.387619e-10	-1.427111e+01	-5.058549e+01
1.400000e-06	-2.012708e-06	-7.327822e-10	-1.396693e+01	-5.006409e+01
1.410000e-06	-1.968763e-06	-7.244055e-10	-1.366197e+01	-4.953342e+01
1.420000e-06	-1.924729e-06	-7.160337e-10	-1.335640e+01	-4.899344e+01
1.430000e-06	-1.880592e-06	-7.069856e-10	-1.305013e+01	-4.844410e+01
1.440000e-06	-1.836406e-06	-6.995138e-10	-1.274350e+01	-4.788535e+01
1.450000e-06	-1.792067e-06	-6.899703e-10	-1.243581e+01	-4.731715e+01
1.460000e-06	-1.747577e-06	-6.809472e-10	-1.212708e+01	-4.673942e+01
1.470000e-06	-1.703002e-06	-6.688065e-10	-1.181776e+01	-4.615209e+01
1.480000e-06	-1.658259e-06	-6.545916e-10	-1.150727e+01	-4.555507e+01
1.490000e-06	-1.613407e-06	-6.409040e-10	-1.119603e+01	-4.494825e+01
1.500000e-06	-1.568429e-06	-6.303594e-10	-1.088391e+01	-4.433151e+01
1.510000e-06	-1.523306e-06	-6.216866e-10	-1.057078e+01	-4.370472e+01
1.520000e-06	-1.478060e-06	-6.125612e-10	-1.025680e+01	-4.306771e+01
1.530000e-06	-1.432772e-06	-6.023690e-10	-9.942533e+00	-4.242031e+01
1.540000e-06	-1.387366e-06	-5.935236e-10	-9.627442e+00	-4.176233e+01
1.550000e-06	-1.341829e-06	-5.826059e-10	-9.311447e+00	-4.109354e+01
1.560000e-06	-1.296268e-06	-5.700962e-10	-8.995285e+00	-4.041370e+01
1.570000e-06	-1.250642e-06	-5.579767e-10	-8.678664e+00	-3.972257e+01
1.580000e-06	-1.204948e-06	-5.458061e-10	-8.361578e+00	-3.901986e+01
1.590000e-06	-1.159108e-06	-5.327592e-10	-8.043479e+00	-3.830528e+01
1.600000e-06	-1.113098e-06	-5.188667e-10	-7.724198e+00	-3.757852e+01
1.610000e-06	-1.066918e-06	-5.063025e-10	-7.403735e+00	-3.683924e+01
1.620000e-06	-1.020623e-06	-4.952862e-10	-7.082477e+00	-3.608711e+01
1.630000e-06	-9.743943e-07	-4.863996e-10	-6.761682e+00	-3.532179e+01
1.640000e-06	-9.281271e-07	-4.723567e-10	-6.440616e+00	-3.454289e+01
1.650000e-06	-8.818328e-07	-4.582605e-10	-6.119364e+00	-3.375007e+01
1.660000e-06	-8.354763e-07	-4.437703e-10	-5.797678e+00	-3.294296e+01
1.670000e-06	-7.889974e-07	-4.320460e-10	-5.475144e+00	-3.212118e+01
1.680000e-06	-7.424799e-07	-4.211473e-10	-5.152342e+00	-3.128437e+01
1.690000e-06	-6.959061e-07	-4.116741e-10	-4.829150e+00	-3.043217e+01
1.700000e-06	-6.492971e-07	-3.987166e-10	-4.505713e+00	-2.956425e+01
1.710000e-06	-6.026632e-07	-3.841279e-10	-4.182103e+00	-2.868028e+01
1.720000e-06	-5.559641e-07	-3.677676e-10	-3.858040e+00	-2.777995e+01
1.730000e-06	-5.092604e-07	-3.515859e-10	-3.533946e+00	-2.686297e+01
1.740000e-06	-4.625888e-07	-3.359660e-10	-3.210074e+00	-2.592909e+01
1.750000e-06	-4.157331e-07	-3.212065e-10	-2.884926e+00	-2.497809e+01
1.760000e-06	-3.687616e-07	-3.078542e-10	-2.558973e+00	-2.400978e+01
1.770000e-06	-3.217991e-07	-2.961914e-10	-2.233083e+00	-2.302402e+01
1.780000e-06	-2.748555e-07	-2.850422e-10	-1.907324e+00	-2.202071e+01
1.790000e-06	-2.279029e-07	-2.691123e-10	-1.581502e+00	-2.099980e+01
1.800000e-06	-1.808856e-07	-2.486736e-10	-1.255232e+00	-1.996127e+01
1.810000e-06	-1.338353e-07	-2.281799e-10	-9.287324e-01	-1.890519e+01
1.820000e-06	-8.675014e-08	-2.098464e-10	-6.019913e-01	-1.783166e+01
1.830000e-06	-3.972111e-08	-1.950839e-10	-2.756395e-01	-1.674086e+01
1.840000e-06	7.263226e-09	-1.831810e-10	5.040221e-02	-1.563301e+01
1.850000e-06	5.422698e-08	-1.723294e-10	3.763011e-01	-1.450841e+01
1.860000e-06	1.011418e-07	-1.596442e-10	7.018603e-01	-1.336742e+01
1.870000e-06	1.480618e-07	-1.443629e-10	1.027455e+00	-1.221046e+01
1.880000e-06	1.949451e-07	-1.265340e-10	1.352796e+00	-1.103803e+01
1.890000e-06	2.417958e-07	-1.040545e-10	1.677910e+00	-9.850666e+00
1.900000e-06	2.886509e-07	-8.259033e-11	2.003055e+00	-8.649007e+00
1.910000e-06	3.355431e-07	-6.363205e-11	2.328458e+00	-7.433732e+00
1.920000e-06	3.823860e-07	-4.787353e-11	2.653517e+00	-6.205590e+00
1.930000e-06	4.292015e-07	-3.403141e-11	2.978388e+00	-4.965390e+00
1.940000e-06	4.760255e-07	-2.423813e-11	3.303317e+00	-3.714000e+00
1.950000e-06	5.227726e-07	-1.232318e-11	3.627712e+00	-2.452340e+00
1.960000e-06	5.694299e-07	4.183086e-12	3.951484e+00	-1.181387e+00
1.970000e-06	6.160210e-07	2.350681e-11	4.274797e+00	9.783731e-02
1.980000e-06	6.624850e-07	4.420144e-11	4.597228e+00	1.384266e+00
1.990000e-06	7.088795e-07	6.588684e-11	4.919176e+00	2.676794e+00
2.000000e-06	7.553659e-07	8.528986e-11	5.241763e+00	3.974278e+00
2.010000e-06	8.018245e-07	1.024811e-10	5.564156e+00	5.275549e+00
2.020000e-06	8.481933e-07	1.168936e-10	5.885926e+00	6.579410e+00
2.030000e-06	8.944670e-07	1.303114e-10	6.207037e+00	7.884649e+00
2.040000e-06	9.407118e-07	1.450978e-10	6.527947e+00	9.190038e+00
2.050000e-06	9.869040e-07	1.630417e-10	6.848491e+00	1.049434e+01
2.060000e-06	1.032938e-06	1.842208e-10	7.167935e+00	1.179633e+01
2.070000e-06	1.078908e-06	2.078083e-10	7.486938e+00	1.309477e+01
2.080000e-06	1.124790e-06	2.286106e-10	7.805333e+00	1.438844e+01
2.090000e-06	1.170556e-06	2.445952e-10	8.122923e+00	1.567613e+01
2.100000e-06	1.216277e-06	2.597587e-10	8.440194e+00	1.695667e+01
2.110000e-06	1.261967e-06	2.733100e-10	8.757258e+00	1.822891e+01
2.120000e-06	1.307575e-06	2.875124e-10	9.073747e+00	1.949172e+01
2.130000e-06	1.353049e-06	3.036650e-10	9.389304e+00	2.074402e+01
2.140000e-06	1.398388e-06	3.208856e-10	9.703930e+00	2.198477e+01
2.150000e-06	1.443586e-06	3.376603e-10	1.001758e+01	2.321299e+01
2.160000e-06	1.488728e-06	3.567983e-10	1.033083e+01	2.442773e+01
2.170000e-06	1.533896e-06	3.772769e-10	1.064427e+01	2.562811e+01
2.180000e-06	1.578962e-06	3.950849e-10	1.095700e+01	2.681331e+01
2.190000e-06	1.623888e-06	4.116951e-10	1.126876e+01	2.798256e+01
2.200000e-06	1.668700e-06	4.268408e-10	1.157973e+01	2.913517e+01
2.210000e-06	1.713391e-06	4.423963e-10	1.188985e+01	3.027051e+01
2.220000e-06	1.757871e-06	4.592166e-10	1.219852e+01	3.138800e+01
2.230000e-06	1.802180e-06	4.737849e-10	1.250599e+01	3.248717e+01
2.240000e-06	1.846355e-06	4.888667e-10	1.281254e+01	3.356757e+01
2.250000e-06	1.890418e-06	5.042854e-10	1.311831e+01	3.462886e+01
2.260000e-06	1.934445e-06	5.192793e-10	1.342383e+01	3.567074e+01
2.270000e-06	1.978379e-06	5.325570e-10	1.372870e+01	3.669300e+01
2.280000e-06	2.022193e-06	5.451376e-10	1.403274e+01	3.769548e+01
2.290000e-06	2.065923e-06	5.579300e-10	1.433620e+01	3.867810e+01
2.300000e-06	2.109643e-06	5.720045e-10	1.463960e+01	3.964081e+01
2.310000e-06	2.153289e-06	5.877339e-10	1.494247e+01	4.058367e+01
2.320000e-06	2.196861e-06	6.034548e-10	1.524483e+01	4.150675e+01
2.330000e-06	2.240358e-06	6.159557e-10	1.554667e+01	4.241019e+01
2.340000e-06	2.283715e-06	6.270820e-10	1.584754e+01	4.329420e+01
2.350000e-06	2.326792e-06	6.375124e-10	1.614647e+01	4.415900e+01
2.360000e-06	2.369542e-06	6.461971e-10	1.644313e+01	4.500487e+01
2.370000e-06	2.412189e-06	6.543171e-10	1.673907e+01	4.583213e+01
2.380000e-06	2.454630e-06	6.639543e-10	1.703358e+01	4.664113e+01
2.390000e-06	2.496675e-06	6.755735e-10	1.732535e+01	4.743224e+01
2.400000e-06	2.538414e-06	6.891612e-10	1.761499e+01	4.820586e+01
2.410000e-06	2.579839e-06	7.052814e-10	1.790246e+01	4.896242e+01
2.420000e-06	2.620961e-06	7.200203e-10	1.818782e+01	4.970234e+01
2.430000e-06	2.661844e-06	7.311499e-10	1.847152e+01	5.042607e+01
2.440000e-06	2.702478e-06	7.391668e-10	1.875349e+01	5.113407e+01
2.450000e-06	2.742893e-06	7.469378e-10	1.903395e+01	5.182678e+01
2.460000e-06	2.783104e-06	7.547441e-10	1.931298e+01	5.250465e+01
2.470000e-06	2.823036e-06	7.645841e-10	1.959009e+01	5.316814e+01
2.480000e-06	2.862796e-06	7.755527e-10	1.986600e+01	5.381767e+01
2.490000e-06	2.902505e-06	7.874955e-10	2.014155e+01	5.445367e+01
2.500000e-06	2.942148e-06	8.011821e-10	2.041665e+01	5.507655e+01
2.510000e-06	2.981612e-06	8.115175e-10	2.069051e+01	5.568671e+01
2.520000e-06	3.020943e-06	8.190587e-10	2.096344e+01	5.628450e+01
2.530000e-06	3.060130e-06	8.263083e-10	2.123537e+01	5.687029e+01
2.540000e-06	3.099053e-06	8.323508e-10	2.150547e+01	5.744440e+01
2.550000e-06	3.137748e-06	8.398622e-10	2.177399e+01	5.800713e+01
2.560000e-06	3.176199e-06	8.474376e-10	2.204082e+01	5.855877e+01
2.570000e-06	3.214441e-06	8.534510e-10	2.230620e+01	5.909955e+01
2.580000e-06	3.252367e-06	8.587777e-10	2.256937e+01	5.962972e+01
2.590000e-06	3.290007e-06	8.645498e-10	2.283057e+01	6.014946e+01
2.600000e-06	3.327539e-06	8.716553e-10	2.309102e+01	6.065896e+01
2.610000e-06	3.364945e-06	8.819469e-10	2.335060e+01	6.115838e+01
2.620000e-06	3.402099e-06	8.924330e-10	2.360842e+01	6.164783e+01
2.630000e-06	3.438903e-06	8.989108e-10	2.386382e+01	6.212743e+01
2.640000e-06	3.475422e-06	9.022458e-10	2.411724e+01	6.259727e+01
2.650000e-06	3.511665e-06	9.041977e-10	2.436874e+01	6.305741e+01
2.660000e-06	3.547654e-06	9.071844e-10	2.461848e+01	6.350793e+01
2.670000e-06	3.583552e-06	9.122102e-10	2.486759e+01	6.394885e+01
2.680000e-06	3.619319e-06	9.197389e-10	2.511579e+01	6.438020e+01
2.690000e-06	3.654948e-06	9.289534e-10	2.536303e+01	6.480202e+01
2.700000e-06	3.690503e-06	9.399568e-10	2.560976e+01	6.521431e+01
2.710000e-06	3.725864e-06	9.497712e-10	2.585515e+01	6.561709e+01
2.720000e-06	3.760926e-06	9.579232e-10	2.609846e+01	6.601035e+01
2.730000e-06	3.795761e-06	9.639979e-10	2.634019e+01	6.639413e+01
2.740000e-06	3.830297e-06	9.664653e-10	2.657984e+01	6.676842e+01
2.750000e-06	3.864299e-06	9.676306e-10	2.681580e+01	6.713324e+01
2.760000e-06	3.897704e-06	9.697296e-10	2.704761e+01	6.748862e+01
2.770000e-06	3.930546e-06	9.742187e-10	2.727551e+01	6.783459e+01
2.780000e-06	3.963033e-06	9.814335e-10	2.750095e+01	6.817119e+01
2.790000e-06	3.995217e-06	9.898503e-10	2.772429e+01	6.849849e+01
2.800000e-06	4.027142e-06	9.987651e-10	2.794583e+01	6.881654e+01
2.810000e-06	4.058977e-06	1.006328e-09	2.816674e+01	6.912544e+01
2.820000e-06	4.090675e-06	1.011249e-09	2.838670e+01	6.942528e+01
2.830000e-06	4.122164e-06	1.011781e-09	2.860522e+01	6.971618e+01
2.840000e-06	4.153450e-06	1.010013e-09	2.882232e+01	6.999826e+01
2.850000e-06	4.184451e-06	1.010670e-09	2.903745e+01	7.027169e+01
2.860000e-06	4.215034e-06	1.013757e-09	2.924968e+01	7.053661e+01
2.870000e-06	4.245213e-06	1.017873e-09	2.945910e+01	7.079322e+01
2.880000e-06	4.275114e-06	1.024564e-09	2.966659e+01	7.104170e+01
2.890000e-06	4.304858e-06	1.032258e-09	2.987300e+01	7.128226e+01
2.900000e-06	4.334409e-06	1.038854e-09	3.007807e+01	7.151514e+01
