# Temperatura_=_7.14
# Concentracion g/m^3_=_1620.0
# C_Vs_to_Am_M_A/Vsm_=_65563218390.804596
# pendiente_HvsI_1/m_=_3716.3
# ordenada_HvsI_A/m_=_1297.0
# frecuencia_Hz_=_135105.8897382351

Tiempo_(s)	Campo_(V.s)	Magnetizacion_(V.s)	Campo_(kA/m)	Magnetizacion_(A/m)
0.000000e+00	-5.522140e-06	-7.329100e-10	-3.836516e+01	-4.789704e+01
1.000000e-08	-5.522515e-06	-7.347077e-10	-3.836777e+01	-4.788657e+01
2.000000e-08	-5.522542e-06	-7.366344e-10	-3.836795e+01	-4.787557e+01
3.000000e-08	-5.522073e-06	-7.369751e-10	-3.836469e+01	-4.786400e+01
4.000000e-08	-5.521123e-06	-7.330250e-10	-3.835809e+01	-4.785179e+01
5.000000e-08	-5.519658e-06	-7.280726e-10	-3.834791e+01	-4.783888e+01
6.000000e-08	-5.517662e-06	-7.275095e-10	-3.833404e+01	-4.782519e+01
7.000000e-08	-5.515161e-06	-7.384145e-10	-3.831667e+01	-4.781064e+01
8.000000e-08	-5.512200e-06	-7.438654e-10	-3.829610e+01	-4.779514e+01
9.000000e-08	-5.508759e-06	-7.245417e-10	-3.827220e+01	-4.777860e+01
1.000000e-07	-5.504807e-06	-6.853645e-10	-3.824474e+01	-4.776094e+01
1.100000e-07	-5.500513e-06	-6.760082e-10	-3.821490e+01	-4.774206e+01
1.200000e-07	-5.496049e-06	-7.126687e-10	-3.818389e+01	-4.772188e+01
1.300000e-07	-5.491286e-06	-7.550874e-10	-3.815080e+01	-4.770030e+01
1.400000e-07	-5.486116e-06	-7.312051e-10	-3.811488e+01	-4.767724e+01
1.500000e-07	-5.480599e-06	-6.831317e-10	-3.807655e+01	-4.765263e+01
1.600000e-07	-5.474744e-06	-6.896035e-10	-3.803588e+01	-4.762641e+01
1.700000e-07	-5.468525e-06	-7.516678e-10	-3.799267e+01	-4.759851e+01
1.800000e-07	-5.461842e-06	-7.465620e-10	-3.794624e+01	-4.756888e+01
1.900000e-07	-5.454746e-06	-7.061061e-10	-3.789694e+01	-4.753749e+01
2.000000e-07	-5.447372e-06	-6.689470e-10	-3.784571e+01	-4.750431e+01
2.100000e-07	-5.439739e-06	-7.440682e-10	-3.779268e+01	-4.746932e+01
2.200000e-07	-5.431746e-06	-7.709019e-10	-3.773715e+01	-4.743253e+01
2.300000e-07	-5.423423e-06	-7.579804e-10	-3.767932e+01	-4.739393e+01
2.400000e-07	-5.414729e-06	-7.116514e-10	-3.761892e+01	-4.735356e+01
2.500000e-07	-5.405454e-06	-7.474651e-10	-3.755448e+01	-4.731143e+01
2.600000e-07	-5.395576e-06	-7.690942e-10	-3.748585e+01	-4.726760e+01
2.700000e-07	-5.385158e-06	-7.570704e-10	-3.741347e+01	-4.722212e+01
2.800000e-07	-5.374206e-06	-7.362006e-10	-3.733739e+01	-4.717505e+01
2.900000e-07	-5.362753e-06	-7.507526e-10	-3.725781e+01	-4.712646e+01
3.000000e-07	-5.350847e-06	-7.635344e-10	-3.717510e+01	-4.707643e+01
3.100000e-07	-5.338594e-06	-7.383667e-10	-3.708997e+01	-4.702504e+01
3.200000e-07	-5.325996e-06	-7.462027e-10	-3.700245e+01	-4.697237e+01
3.300000e-07	-5.312952e-06	-7.521122e-10	-3.691182e+01	-4.691853e+01
3.400000e-07	-5.299526e-06	-7.599978e-10	-3.681854e+01	-4.686359e+01
3.500000e-07	-5.285766e-06	-7.214678e-10	-3.672294e+01	-4.680766e+01
3.600000e-07	-5.271598e-06	-7.264892e-10	-3.662451e+01	-4.675081e+01
3.700000e-07	-5.256888e-06	-7.202313e-10	-3.652231e+01	-4.669313e+01
3.800000e-07	-5.241723e-06	-7.434060e-10	-3.641696e+01	-4.663470e+01
3.900000e-07	-5.226072e-06	-7.325430e-10	-3.630822e+01	-4.657559e+01
4.000000e-07	-5.209793e-06	-7.353177e-10	-3.619513e+01	-4.651585e+01
4.100000e-07	-5.193154e-06	-7.236436e-10	-3.607952e+01	-4.645556e+01
4.200000e-07	-5.176320e-06	-7.328216e-10	-3.596257e+01	-4.639473e+01
4.300000e-07	-5.159169e-06	-7.196805e-10	-3.584341e+01	-4.633342e+01
4.400000e-07	-5.141606e-06	-7.277588e-10	-3.572139e+01	-4.627163e+01
4.500000e-07	-5.123701e-06	-7.248230e-10	-3.559700e+01	-4.620936e+01
4.600000e-07	-5.105407e-06	-7.172807e-10	-3.546990e+01	-4.614661e+01
4.700000e-07	-5.086655e-06	-7.032865e-10	-3.533962e+01	-4.608336e+01
4.800000e-07	-5.067592e-06	-7.324170e-10	-3.520718e+01	-4.601957e+01
4.900000e-07	-5.048256e-06	-7.317134e-10	-3.507284e+01	-4.595518e+01
5.000000e-07	-5.028649e-06	-7.134396e-10	-3.493662e+01	-4.589014e+01
5.100000e-07	-5.008810e-06	-7.120019e-10	-3.479879e+01	-4.582436e+01
5.200000e-07	-4.988731e-06	-7.287913e-10	-3.465929e+01	-4.575777e+01
5.300000e-07	-4.968266e-06	-7.083721e-10	-3.451711e+01	-4.569026e+01
5.400000e-07	-4.947353e-06	-7.023317e-10	-3.437181e+01	-4.562174e+01
5.500000e-07	-4.926040e-06	-7.134548e-10	-3.422374e+01	-4.555208e+01
5.600000e-07	-4.904357e-06	-7.017221e-10	-3.407310e+01	-4.548118e+01
5.700000e-07	-4.882384e-06	-6.921270e-10	-3.392045e+01	-4.540890e+01
5.800000e-07	-4.860131e-06	-7.147569e-10	-3.376584e+01	-4.533514e+01
5.900000e-07	-4.837562e-06	-7.123972e-10	-3.360904e+01	-4.525976e+01
6.000000e-07	-4.814693e-06	-6.838084e-10	-3.345016e+01	-4.518264e+01
6.100000e-07	-4.791546e-06	-6.949616e-10	-3.328935e+01	-4.510368e+01
6.200000e-07	-4.768091e-06	-6.986682e-10	-3.312639e+01	-4.502276e+01
6.300000e-07	-4.744338e-06	-6.780076e-10	-3.296136e+01	-4.493978e+01
6.400000e-07	-4.720401e-06	-6.770788e-10	-3.279507e+01	-4.485465e+01
6.500000e-07	-4.696148e-06	-6.999087e-10	-3.262656e+01	-4.476730e+01
6.600000e-07	-4.671436e-06	-6.857945e-10	-3.245488e+01	-4.467766e+01
6.700000e-07	-4.646290e-06	-6.820542e-10	-3.228018e+01	-4.458568e+01
6.800000e-07	-4.620599e-06	-6.883634e-10	-3.210169e+01	-4.449134e+01
6.900000e-07	-4.594309e-06	-6.842916e-10	-3.191903e+01	-4.439462e+01
7.000000e-07	-4.567470e-06	-6.710721e-10	-3.173257e+01	-4.429553e+01
7.100000e-07	-4.540247e-06	-6.841449e-10	-3.154344e+01	-4.419409e+01
7.200000e-07	-4.512813e-06	-6.806815e-10	-3.135284e+01	-4.409034e+01
7.300000e-07	-4.485191e-06	-6.794820e-10	-3.116094e+01	-4.398437e+01
7.400000e-07	-4.457364e-06	-6.841430e-10	-3.096761e+01	-4.387625e+01
7.500000e-07	-4.429302e-06	-6.894115e-10	-3.077265e+01	-4.376608e+01
7.600000e-07	-4.400965e-06	-6.762200e-10	-3.057578e+01	-4.365399e+01
7.700000e-07	-4.372328e-06	-6.746553e-10	-3.037682e+01	-4.354012e+01
7.800000e-07	-4.343372e-06	-6.717604e-10	-3.017565e+01	-4.342463e+01
7.900000e-07	-4.314069e-06	-6.682670e-10	-2.997207e+01	-4.330769e+01
8.000000e-07	-4.284419e-06	-6.641874e-10	-2.976607e+01	-4.318947e+01
8.100000e-07	-4.254538e-06	-6.699191e-10	-2.955847e+01	-4.307018e+01
8.200000e-07	-4.224420e-06	-6.704336e-10	-2.934923e+01	-4.295001e+01
8.300000e-07	-4.193904e-06	-6.704939e-10	-2.913722e+01	-4.282917e+01
8.400000e-07	-4.163032e-06	-6.700993e-10	-2.892273e+01	-4.270786e+01
8.500000e-07	-4.131912e-06	-6.665502e-10	-2.870652e+01	-4.258629e+01
8.600000e-07	-4.100592e-06	-6.609138e-10	-2.848893e+01	-4.246467e+01
8.700000e-07	-4.069156e-06	-6.598436e-10	-2.827053e+01	-4.234318e+01
8.800000e-07	-4.037584e-06	-6.610691e-10	-2.805118e+01	-4.222202e+01
8.900000e-07	-4.005744e-06	-6.583816e-10	-2.782997e+01	-4.210135e+01
9.000000e-07	-3.973650e-06	-6.576756e-10	-2.760700e+01	-4.198133e+01
9.100000e-07	-3.941256e-06	-6.558436e-10	-2.738194e+01	-4.186209e+01
9.200000e-07	-3.908494e-06	-6.538477e-10	-2.715433e+01	-4.174376e+01
9.300000e-07	-3.875447e-06	-6.493354e-10	-2.692473e+01	-4.162640e+01
9.400000e-07	-3.841919e-06	-6.500059e-10	-2.669180e+01	-4.151009e+01
9.500000e-07	-3.807894e-06	-6.467334e-10	-2.645540e+01	-4.139486e+01
9.600000e-07	-3.773575e-06	-6.455895e-10	-2.621697e+01	-4.128071e+01
9.700000e-07	-3.738845e-06	-6.451599e-10	-2.597568e+01	-4.116760e+01
9.800000e-07	-3.703714e-06	-6.477348e-10	-2.573162e+01	-4.105546e+01
9.900000e-07	-3.668363e-06	-6.422332e-10	-2.548601e+01	-4.094420e+01
1.000000e-06	-3.632812e-06	-6.422405e-10	-2.523902e+01	-4.083367e+01
1.010000e-06	-3.597133e-06	-6.403743e-10	-2.499114e+01	-4.072369e+01
1.020000e-06	-3.561268e-06	-6.374698e-10	-2.474197e+01	-4.061406e+01
1.030000e-06	-3.525182e-06	-6.325855e-10	-2.449126e+01	-4.050453e+01
1.040000e-06	-3.488930e-06	-6.320865e-10	-2.423940e+01	-4.039482e+01
1.050000e-06	-3.452450e-06	-6.304221e-10	-2.398595e+01	-4.028462e+01
1.060000e-06	-3.415727e-06	-6.283112e-10	-2.373082e+01	-4.017357e+01
1.070000e-06	-3.378771e-06	-6.225840e-10	-2.347407e+01	-4.006132e+01
1.080000e-06	-3.341589e-06	-6.182591e-10	-2.321575e+01	-3.994746e+01
1.090000e-06	-3.304146e-06	-6.139476e-10	-2.295561e+01	-3.983158e+01
1.100000e-06	-3.266384e-06	-6.125773e-10	-2.269326e+01	-3.971323e+01
1.110000e-06	-3.228504e-06	-6.089652e-10	-2.243009e+01	-3.959195e+01
1.120000e-06	-3.190493e-06	-6.065550e-10	-2.216600e+01	-3.946729e+01
1.130000e-06	-3.152153e-06	-6.027902e-10	-2.189964e+01	-3.933876e+01
1.140000e-06	-3.113524e-06	-5.980041e-10	-2.163126e+01	-3.920590e+01
1.150000e-06	-3.074682e-06	-5.891797e-10	-2.136140e+01	-3.906820e+01
1.160000e-06	-3.035720e-06	-5.822686e-10	-2.109072e+01	-3.892521e+01
1.170000e-06	-2.996601e-06	-5.806058e-10	-2.081893e+01	-3.877646e+01
1.180000e-06	-2.957340e-06	-5.791140e-10	-2.054616e+01	-3.862150e+01
1.190000e-06	-2.917953e-06	-5.785609e-10	-2.027252e+01	-3.845988e+01
1.200000e-06	-2.878312e-06	-5.781265e-10	-1.999712e+01	-3.829121e+01
1.210000e-06	-2.838521e-06	-5.792030e-10	-1.972067e+01	-3.811508e+01
1.220000e-06	-2.798652e-06	-5.720767e-10	-1.944368e+01	-3.793114e+01
1.230000e-06	-2.758651e-06	-5.628184e-10	-1.916578e+01	-3.773906e+01
1.240000e-06	-2.718413e-06	-5.567054e-10	-1.888622e+01	-3.753855e+01
1.250000e-06	-2.677906e-06	-5.549631e-10	-1.860480e+01	-3.732935e+01
1.260000e-06	-2.637200e-06	-5.521848e-10	-1.832199e+01	-3.711125e+01
1.270000e-06	-2.596209e-06	-5.525178e-10	-1.803721e+01	-3.688407e+01
1.280000e-06	-2.554911e-06	-5.500448e-10	-1.775028e+01	-3.664767e+01
1.290000e-06	-2.513299e-06	-5.446158e-10	-1.746119e+01	-3.640197e+01
1.300000e-06	-2.471344e-06	-5.358446e-10	-1.716971e+01	-3.614692e+01
1.310000e-06	-2.429088e-06	-5.275059e-10	-1.687613e+01	-3.588251e+01
1.320000e-06	-2.386575e-06	-5.211566e-10	-1.658077e+01	-3.560878e+01
1.330000e-06	-2.343801e-06	-5.200625e-10	-1.628359e+01	-3.532580e+01
1.340000e-06	-2.300745e-06	-5.210430e-10	-1.598446e+01	-3.503369e+01
1.350000e-06	-2.257522e-06	-5.209750e-10	-1.568417e+01	-3.473260e+01
1.360000e-06	-2.214225e-06	-5.167666e-10	-1.538336e+01	-3.442271e+01
1.370000e-06	-2.170764e-06	-5.125069e-10	-1.508142e+01	-3.410424e+01
1.380000e-06	-2.127159e-06	-5.065325e-10	-1.477847e+01	-3.377741e+01
1.390000e-06	-2.083502e-06	-4.995050e-10	-1.447516e+01	-3.344249e+01
1.400000e-06	-2.039781e-06	-4.942315e-10	-1.417141e+01	-3.309975e+01
1.410000e-06	-1.995968e-06	-4.899752e-10	-1.386702e+01	-3.274949e+01
1.420000e-06	-1.952032e-06	-4.843394e-10	-1.356177e+01	-3.239198e+01
1.430000e-06	-1.908013e-06	-4.791989e-10	-1.325595e+01	-3.202753e+01
1.440000e-06	-1.863998e-06	-4.764240e-10	-1.295015e+01	-3.165642e+01
1.450000e-06	-1.819882e-06	-4.727131e-10	-1.264366e+01	-3.127894e+01
1.460000e-06	-1.775553e-06	-4.663072e-10	-1.233568e+01	-3.089535e+01
1.470000e-06	-1.731051e-06	-4.596133e-10	-1.202651e+01	-3.050590e+01
1.480000e-06	-1.686404e-06	-4.500094e-10	-1.171632e+01	-3.011080e+01
1.490000e-06	-1.641710e-06	-4.404279e-10	-1.140581e+01	-2.971025e+01
1.500000e-06	-1.596950e-06	-4.348527e-10	-1.109484e+01	-2.930441e+01
1.510000e-06	-1.551995e-06	-4.301853e-10	-1.078251e+01	-2.889337e+01
1.520000e-06	-1.506920e-06	-4.262766e-10	-1.046935e+01	-2.847723e+01
1.530000e-06	-1.461791e-06	-4.202043e-10	-1.015582e+01	-2.805600e+01
1.540000e-06	-1.416540e-06	-4.124973e-10	-9.841432e+00	-2.762965e+01
1.550000e-06	-1.371144e-06	-4.039058e-10	-9.526042e+00	-2.719812e+01
1.560000e-06	-1.325678e-06	-3.948471e-10	-9.210169e+00	-2.676126e+01
1.570000e-06	-1.280154e-06	-3.851160e-10	-8.893889e+00	-2.631890e+01
1.580000e-06	-1.234527e-06	-3.766363e-10	-8.576896e+00	-2.587079e+01
1.590000e-06	-1.188791e-06	-3.689416e-10	-8.259144e+00	-2.541662e+01
1.600000e-06	-1.142874e-06	-3.636234e-10	-7.940138e+00	-2.495606e+01
1.610000e-06	-1.096836e-06	-3.587266e-10	-7.620290e+00	-2.448869e+01
1.620000e-06	-1.050834e-06	-3.517099e-10	-7.300689e+00	-2.401405e+01
1.630000e-06	-1.004778e-06	-3.419260e-10	-6.980710e+00	-2.353165e+01
1.640000e-06	-9.585304e-07	-3.324024e-10	-6.659406e+00	-2.304093e+01
1.650000e-06	-9.121754e-07	-3.208673e-10	-6.337354e+00	-2.254131e+01
1.660000e-06	-8.658401e-07	-3.115103e-10	-6.015438e+00	-2.203215e+01
1.670000e-06	-8.194798e-07	-3.041833e-10	-5.693349e+00	-2.151282e+01
1.680000e-06	-7.729986e-07	-2.992344e-10	-5.370420e+00	-2.098263e+01
1.690000e-06	-7.265282e-07	-2.921068e-10	-5.047566e+00	-2.044088e+01
1.700000e-06	-6.800729e-07	-2.851736e-10	-4.724818e+00	-1.988689e+01
1.710000e-06	-6.335317e-07	-2.754834e-10	-4.401472e+00	-1.931995e+01
1.720000e-06	-5.869225e-07	-2.630460e-10	-4.077654e+00	-1.873935e+01
1.730000e-06	-5.402309e-07	-2.502322e-10	-3.753263e+00	-1.814442e+01
1.740000e-06	-4.935992e-07	-2.362048e-10	-3.429289e+00	-1.753448e+01
1.750000e-06	-4.470469e-07	-2.247584e-10	-3.105866e+00	-1.690892e+01
1.760000e-06	-4.003275e-07	-2.158061e-10	-2.781282e+00	-1.626713e+01
1.770000e-06	-3.534394e-07	-2.065830e-10	-2.455526e+00	-1.560856e+01
1.780000e-06	-3.065780e-07	-1.988287e-10	-2.129956e+00	-1.493272e+01
1.790000e-06	-2.597589e-07	-1.913226e-10	-1.804679e+00	-1.423918e+01
1.800000e-06	-2.129253e-07	-1.799980e-10	-1.479302e+00	-1.352756e+01
1.810000e-06	-1.660385e-07	-1.658086e-10	-1.153555e+00	-1.279759e+01
1.820000e-06	-1.191316e-07	-1.497163e-10	-8.276688e-01	-1.204905e+01
1.830000e-06	-7.228698e-08	-1.367819e-10	-5.022150e-01	-1.128182e+01
1.840000e-06	-2.550368e-08	-1.257464e-10	-1.771872e-01	-1.049587e+01
1.850000e-06	2.131461e-08	-1.149288e-10	1.480836e-01	-9.691269e+00
1.860000e-06	6.811691e-08	-1.064320e-10	4.732433e-01	-8.868190e+00
1.870000e-06	1.149266e-07	-9.628123e-11	7.984545e-01	-8.026902e+00
1.880000e-06	1.617534e-07	-8.302168e-11	1.123784e+00	-7.167780e+00
1.890000e-06	2.085224e-07	-6.976251e-11	1.448713e+00	-6.291309e+00
1.900000e-06	2.553085e-07	-5.510052e-11	1.773760e+00	-5.398076e+00
1.910000e-06	3.020938e-07	-4.147700e-11	2.098801e+00	-4.488776e+00
1.920000e-06	3.488725e-07	-2.828762e-11	2.423798e+00	-3.564206e+00
1.930000e-06	3.956077e-07	-1.768958e-11	2.748491e+00	-2.625266e+00
1.940000e-06	4.423772e-07	-7.661420e-12	3.073423e+00	-1.672953e+00
1.950000e-06	4.891249e-07	2.511588e-13	3.398203e+00	-7.083549e-01
1.960000e-06	5.357133e-07	8.904207e-12	3.721877e+00	2.673493e-01
1.970000e-06	5.821885e-07	2.064714e-11	4.044764e+00	1.252901e+00
1.980000e-06	6.285943e-07	3.640659e-11	4.367169e+00	2.246965e+00
1.990000e-06	6.750299e-07	5.391627e-11	4.689781e+00	3.248140e+00
2.000000e-06	7.214793e-07	7.073188e-11	5.012489e+00	4.254965e+00
2.010000e-06	7.678460e-07	8.566405e-11	5.334623e+00	5.265929e+00
2.020000e-06	8.141244e-07	9.725705e-11	5.656143e+00	6.279478e+00
2.030000e-06	8.603667e-07	1.073727e-10	5.977412e+00	7.294030e+00
2.040000e-06	9.065917e-07	1.201729e-10	6.298561e+00	8.307978e+00
2.050000e-06	9.527535e-07	1.346908e-10	6.619271e+00	9.319706e+00
2.060000e-06	9.988390e-07	1.505951e-10	6.939450e+00	1.032760e+01
2.070000e-06	1.044882e-06	1.669094e-10	7.259337e+00	1.133004e+01
2.080000e-06	1.090812e-06	1.828048e-10	7.578433e+00	1.232545e+01
2.090000e-06	1.136636e-06	1.959126e-10	7.896798e+00	1.331227e+01
2.100000e-06	1.182406e-06	2.068985e-10	8.214783e+00	1.428899e+01
2.110000e-06	1.228168e-06	2.183634e-10	8.532717e+00	1.525413e+01
2.120000e-06	1.273858e-06	2.295688e-10	8.850151e+00	1.620629e+01
2.130000e-06	1.319400e-06	2.425233e-10	9.166552e+00	1.714412e+01
2.140000e-06	1.364835e-06	2.563575e-10	9.482213e+00	1.806638e+01
2.150000e-06	1.410120e-06	2.700421e-10	9.796829e+00	1.897188e+01
2.160000e-06	1.455295e-06	2.812714e-10	1.011069e+01	1.985953e+01
2.170000e-06	1.500396e-06	2.929108e-10	1.042403e+01	2.072835e+01
2.180000e-06	1.545389e-06	3.047458e-10	1.073661e+01	2.157745e+01
2.190000e-06	1.590274e-06	3.155815e-10	1.104845e+01	2.240604e+01
2.200000e-06	1.635019e-06	3.261768e-10	1.135932e+01	2.321347e+01
2.210000e-06	1.679609e-06	3.368721e-10	1.166911e+01	2.399917e+01
2.220000e-06	1.724084e-06	3.480789e-10	1.197810e+01	2.476271e+01
2.230000e-06	1.768423e-06	3.599447e-10	1.228615e+01	2.550376e+01
2.240000e-06	1.812644e-06	3.690557e-10	1.259337e+01	2.622210e+01
2.250000e-06	1.856817e-06	3.764940e-10	1.290026e+01	2.691765e+01
2.260000e-06	1.900880e-06	3.839854e-10	1.320639e+01	2.759041e+01
2.270000e-06	1.944785e-06	3.927886e-10	1.351143e+01	2.824052e+01
2.280000e-06	1.988592e-06	4.014289e-10	1.381577e+01	2.886819e+01
2.290000e-06	2.032370e-06	4.093528e-10	1.411992e+01	2.947377e+01
2.300000e-06	2.076102e-06	4.173129e-10	1.442375e+01	3.005767e+01
2.310000e-06	2.119730e-06	4.259030e-10	1.472686e+01	3.062040e+01
2.320000e-06	2.163246e-06	4.337804e-10	1.502919e+01	3.116255e+01
2.330000e-06	2.206690e-06	4.396032e-10	1.533102e+01	3.168480e+01
2.340000e-06	2.250050e-06	4.454434e-10	1.563226e+01	3.218786e+01
2.350000e-06	2.293258e-06	4.531223e-10	1.593245e+01	3.267253e+01
2.360000e-06	2.336258e-06	4.615946e-10	1.623119e+01	3.313965e+01
2.370000e-06	2.379092e-06	4.707532e-10	1.652878e+01	3.359008e+01
2.380000e-06	2.421785e-06	4.796178e-10	1.682539e+01	3.402475e+01
2.390000e-06	2.464112e-06	4.866505e-10	1.711946e+01	3.444457e+01
2.400000e-06	2.506029e-06	4.940932e-10	1.741068e+01	3.485048e+01
2.410000e-06	2.547607e-06	5.022620e-10	1.769954e+01	3.524342e+01
2.420000e-06	2.588800e-06	5.099104e-10	1.798573e+01	3.562434e+01
2.430000e-06	2.629723e-06	5.168561e-10	1.827004e+01	3.599416e+01
2.440000e-06	2.670449e-06	5.232775e-10	1.855299e+01	3.635377e+01
2.450000e-06	2.710936e-06	5.292718e-10	1.883428e+01	3.670404e+01
2.460000e-06	2.751230e-06	5.362367e-10	1.911422e+01	3.704582e+01
2.470000e-06	2.791343e-06	5.434566e-10	1.939290e+01	3.737988e+01
2.480000e-06	2.831270e-06	5.503930e-10	1.967030e+01	3.770696e+01
2.490000e-06	2.871008e-06	5.566067e-10	1.994638e+01	3.802776e+01
2.500000e-06	2.910608e-06	5.633806e-10	2.022149e+01	3.834289e+01
2.510000e-06	2.950064e-06	5.701596e-10	2.049562e+01	3.865291e+01
2.520000e-06	2.989296e-06	5.760299e-10	2.076818e+01	3.895832e+01
2.530000e-06	3.028366e-06	5.817078e-10	2.103962e+01	3.925955e+01
2.540000e-06	3.067239e-06	5.855767e-10	2.130969e+01	3.955694e+01
2.550000e-06	3.105879e-06	5.871988e-10	2.157815e+01	3.985078e+01
2.560000e-06	3.144369e-06	5.895811e-10	2.184556e+01	4.014128e+01
2.570000e-06	3.182694e-06	5.923655e-10	2.211182e+01	4.042859e+01
2.580000e-06	3.220776e-06	5.967421e-10	2.237640e+01	4.071277e+01
2.590000e-06	3.258633e-06	6.019621e-10	2.263941e+01	4.099385e+01
2.600000e-06	3.296304e-06	6.072789e-10	2.290113e+01	4.127176e+01
2.610000e-06	3.333779e-06	6.114977e-10	2.316149e+01	4.154639e+01
2.620000e-06	3.370990e-06	6.136266e-10	2.342001e+01	4.181758e+01
2.630000e-06	3.407923e-06	6.147726e-10	2.367660e+01	4.208510e+01
2.640000e-06	3.444587e-06	6.150383e-10	2.393132e+01	4.234870e+01
2.650000e-06	3.480997e-06	6.166472e-10	2.418428e+01	4.260807e+01
2.660000e-06	3.517237e-06	6.191900e-10	2.443606e+01	4.286287e+01
2.670000e-06	3.553276e-06	6.230057e-10	2.468644e+01	4.311276e+01
2.680000e-06	3.589110e-06	6.270183e-10	2.493540e+01	4.335734e+01
2.690000e-06	3.624805e-06	6.310639e-10	2.518339e+01	4.359622e+01
2.700000e-06	3.660384e-06	6.338030e-10	2.543058e+01	4.382899e+01
2.710000e-06	3.695738e-06	6.367961e-10	2.567620e+01	4.405526e+01
2.720000e-06	3.730796e-06	6.398140e-10	2.591977e+01	4.427463e+01
2.730000e-06	3.765573e-06	6.428370e-10	2.616138e+01	4.448670e+01
2.740000e-06	3.800053e-06	6.458329e-10	2.640093e+01	4.469112e+01
2.750000e-06	3.834164e-06	6.480096e-10	2.663792e+01	4.488753e+01
2.760000e-06	3.867801e-06	6.508133e-10	2.687161e+01	4.507561e+01
2.770000e-06	3.900930e-06	6.534758e-10	2.710178e+01	4.525509e+01
2.780000e-06	3.933633e-06	6.586022e-10	2.732898e+01	4.542571e+01
2.790000e-06	3.965986e-06	6.645401e-10	2.755376e+01	4.558727e+01
2.800000e-06	3.998052e-06	6.678350e-10	2.777653e+01	4.573961e+01
2.810000e-06	4.029934e-06	6.687711e-10	2.799803e+01	4.588262e+01
2.820000e-06	4.061600e-06	6.695885e-10	2.821803e+01	4.601622e+01
2.830000e-06	4.093031e-06	6.705177e-10	2.843640e+01	4.614041e+01
2.840000e-06	4.124264e-06	6.717019e-10	2.865339e+01	4.625522e+01
2.850000e-06	4.155224e-06	6.737073e-10	2.886848e+01	4.636075e+01
2.860000e-06	4.185932e-06	6.761060e-10	2.908183e+01	4.645713e+01
2.870000e-06	4.216398e-06	6.769459e-10	2.929350e+01	4.654456e+01
2.880000e-06	4.246532e-06	6.751436e-10	2.950285e+01	4.662327e+01
2.890000e-06	4.276355e-06	6.757411e-10	2.971005e+01	4.669356e+01
2.900000e-06	4.305897e-06	6.787253e-10	2.991529e+01	4.675575e+01
