# Temperatura_=_14.61
# Concentracion g/m^3_=_1620.0
# C_Vs_to_Am_M_A/Vsm_=_65563218390.804596
# pendiente_HvsI_1/m_=_3716.3
# ordenada_HvsI_A/m_=_1297.0
# frecuencia_Hz_=_135100.60659308758

Tiempo_(s)	Campo_(V.s)	Magnetizacion_(V.s)	Campo_(kA/m)	Magnetizacion_(A/m)
0.000000e+00	-5.533033e-06	-7.690190e-10	-3.836839e+01	-5.114992e+01
1.000000e-08	-5.533207e-06	-7.679876e-10	-3.836959e+01	-5.116000e+01
2.000000e-08	-5.533112e-06	-7.656958e-10	-3.836893e+01	-5.117248e+01
3.000000e-08	-5.532696e-06	-7.635329e-10	-3.836605e+01	-5.118722e+01
4.000000e-08	-5.531895e-06	-7.623989e-10	-3.836049e+01	-5.120411e+01
5.000000e-08	-5.530593e-06	-7.738580e-10	-3.835147e+01	-5.122298e+01
6.000000e-08	-5.528701e-06	-7.836308e-10	-3.833834e+01	-5.124365e+01
7.000000e-08	-5.526268e-06	-7.636630e-10	-3.832148e+01	-5.126592e+01
8.000000e-08	-5.523345e-06	-7.200293e-10	-3.830121e+01	-5.128957e+01
9.000000e-08	-5.519896e-06	-6.897218e-10	-3.827729e+01	-5.131437e+01
1.000000e-07	-5.515979e-06	-7.479016e-10	-3.825013e+01	-5.134007e+01
1.100000e-07	-5.511697e-06	-8.659870e-10	-3.822043e+01	-5.136642e+01
1.200000e-07	-5.507064e-06	-8.309181e-10	-3.818831e+01	-5.139313e+01
1.300000e-07	-5.502183e-06	-6.469565e-10	-3.815446e+01	-5.141993e+01
1.400000e-07	-5.497119e-06	-6.856974e-10	-3.811934e+01	-5.144654e+01
1.500000e-07	-5.491643e-06	-7.924379e-10	-3.808137e+01	-5.147266e+01
1.600000e-07	-5.485649e-06	-8.392375e-10	-3.803980e+01	-5.149802e+01
1.700000e-07	-5.479271e-06	-6.523207e-10	-3.799558e+01	-5.152232e+01
1.800000e-07	-5.472624e-06	-6.664045e-10	-3.794948e+01	-5.154529e+01
1.900000e-07	-5.465609e-06	-8.199775e-10	-3.790084e+01	-5.156663e+01
2.000000e-07	-5.458186e-06	-8.618822e-10	-3.784937e+01	-5.158609e+01
2.100000e-07	-5.450474e-06	-7.569027e-10	-3.779589e+01	-5.160341e+01
2.200000e-07	-5.442485e-06	-7.137088e-10	-3.774049e+01	-5.161832e+01
2.300000e-07	-5.434175e-06	-8.017468e-10	-3.768286e+01	-5.163060e+01
2.400000e-07	-5.425444e-06	-8.220151e-10	-3.762232e+01	-5.164003e+01
2.500000e-07	-5.416171e-06	-7.950547e-10	-3.755802e+01	-5.164639e+01
2.600000e-07	-5.406386e-06	-7.561341e-10	-3.749016e+01	-5.164949e+01
2.700000e-07	-5.395887e-06	-8.173608e-10	-3.741736e+01	-5.164916e+01
2.800000e-07	-5.384735e-06	-8.101365e-10	-3.734003e+01	-5.164524e+01
2.900000e-07	-5.373334e-06	-7.964347e-10	-3.726096e+01	-5.163761e+01
3.000000e-07	-5.361562e-06	-7.588886e-10	-3.717934e+01	-5.162612e+01
3.100000e-07	-5.349289e-06	-8.175991e-10	-3.709423e+01	-5.161070e+01
3.200000e-07	-5.336621e-06	-8.130380e-10	-3.700638e+01	-5.159125e+01
3.300000e-07	-5.323534e-06	-7.943015e-10	-3.691563e+01	-5.156772e+01
3.400000e-07	-5.309999e-06	-7.410762e-10	-3.682177e+01	-5.154006e+01
3.500000e-07	-5.296195e-06	-8.023145e-10	-3.672605e+01	-5.150825e+01
3.600000e-07	-5.282043e-06	-8.148682e-10	-3.662792e+01	-5.147227e+01
3.700000e-07	-5.267392e-06	-7.804832e-10	-3.652632e+01	-5.143214e+01
3.800000e-07	-5.252128e-06	-7.587490e-10	-3.642047e+01	-5.138789e+01
3.900000e-07	-5.236394e-06	-8.312418e-10	-3.631137e+01	-5.133955e+01
4.000000e-07	-5.220202e-06	-7.893796e-10	-3.619908e+01	-5.128717e+01
4.100000e-07	-5.203364e-06	-7.392002e-10	-3.608232e+01	-5.123082e+01
4.200000e-07	-5.186273e-06	-8.201925e-10	-3.596380e+01	-5.117058e+01
4.300000e-07	-5.168985e-06	-8.455492e-10	-3.584393e+01	-5.110654e+01
4.400000e-07	-5.151195e-06	-7.254214e-10	-3.572056e+01	-5.103879e+01
4.500000e-07	-5.133045e-06	-7.380913e-10	-3.559470e+01	-5.096743e+01
4.600000e-07	-5.114703e-06	-8.644209e-10	-3.546751e+01	-5.089259e+01
4.700000e-07	-5.095990e-06	-7.681004e-10	-3.533774e+01	-5.081437e+01
4.800000e-07	-5.076807e-06	-6.961311e-10	-3.520472e+01	-5.073290e+01
4.900000e-07	-5.057356e-06	-8.192340e-10	-3.506984e+01	-5.064830e+01
5.000000e-07	-5.037658e-06	-8.360067e-10	-3.493325e+01	-5.056070e+01
5.100000e-07	-5.017700e-06	-6.993665e-10	-3.479485e+01	-5.047023e+01
5.200000e-07	-4.997514e-06	-7.849714e-10	-3.465487e+01	-5.037701e+01
5.300000e-07	-4.977008e-06	-8.368466e-10	-3.451268e+01	-5.028118e+01
5.400000e-07	-4.956095e-06	-7.076820e-10	-3.436765e+01	-5.018285e+01
5.500000e-07	-4.934799e-06	-7.151608e-10	-3.421998e+01	-5.008216e+01
5.600000e-07	-4.913200e-06	-8.613106e-10	-3.407020e+01	-4.997922e+01
5.700000e-07	-4.891229e-06	-7.623450e-10	-3.391785e+01	-4.987415e+01
5.800000e-07	-4.868895e-06	-7.023729e-10	-3.376298e+01	-4.976706e+01
5.900000e-07	-4.846250e-06	-8.121950e-10	-3.360594e+01	-4.965808e+01
6.000000e-07	-4.823313e-06	-7.996678e-10	-3.344689e+01	-4.954729e+01
6.100000e-07	-4.800100e-06	-6.912323e-10	-3.328592e+01	-4.943481e+01
6.200000e-07	-4.776602e-06	-7.753039e-10	-3.312297e+01	-4.932073e+01
6.300000e-07	-4.752823e-06	-8.007274e-10	-3.295808e+01	-4.920514e+01
6.400000e-07	-4.728785e-06	-7.106034e-10	-3.279139e+01	-4.908813e+01
6.500000e-07	-4.704483e-06	-7.345702e-10	-3.262287e+01	-4.896978e+01
6.600000e-07	-4.679840e-06	-7.917343e-10	-3.245198e+01	-4.885017e+01
6.700000e-07	-4.654658e-06	-7.235685e-10	-3.227736e+01	-4.872937e+01
6.800000e-07	-4.628890e-06	-7.238280e-10	-3.209868e+01	-4.860744e+01
6.900000e-07	-4.602641e-06	-7.809290e-10	-3.191665e+01	-4.848446e+01
7.000000e-07	-4.575915e-06	-7.426274e-10	-3.173132e+01	-4.836048e+01
7.100000e-07	-4.548773e-06	-7.170213e-10	-3.154311e+01	-4.823556e+01
7.200000e-07	-4.521287e-06	-7.653991e-10	-3.135251e+01	-4.810974e+01
7.300000e-07	-4.493496e-06	-7.492001e-10	-3.115980e+01	-4.798307e+01
7.400000e-07	-4.465532e-06	-7.086878e-10	-3.096588e+01	-4.785559e+01
7.500000e-07	-4.437411e-06	-7.387436e-10	-3.077088e+01	-4.772733e+01
7.600000e-07	-4.408991e-06	-7.374542e-10	-3.057380e+01	-4.759834e+01
7.700000e-07	-4.380265e-06	-7.111859e-10	-3.037461e+01	-4.746864e+01
7.800000e-07	-4.351231e-06	-7.261780e-10	-3.017327e+01	-4.733825e+01
7.900000e-07	-4.321867e-06	-7.385290e-10	-2.996965e+01	-4.720720e+01
8.000000e-07	-4.292227e-06	-7.038159e-10	-2.976411e+01	-4.707549e+01
8.100000e-07	-4.262337e-06	-7.145183e-10	-2.955685e+01	-4.694314e+01
8.200000e-07	-4.232236e-06	-7.303019e-10	-2.934811e+01	-4.681016e+01
8.300000e-07	-4.201864e-06	-7.075447e-10	-2.913750e+01	-4.667653e+01
8.400000e-07	-4.171127e-06	-6.911970e-10	-2.892435e+01	-4.654225e+01
8.500000e-07	-4.140047e-06	-7.188830e-10	-2.870883e+01	-4.640732e+01
8.600000e-07	-4.108667e-06	-7.068192e-10	-2.849123e+01	-4.627171e+01
8.700000e-07	-4.077095e-06	-6.910952e-10	-2.827230e+01	-4.613540e+01
8.800000e-07	-4.045432e-06	-7.058543e-10	-2.805273e+01	-4.599835e+01
8.900000e-07	-4.013590e-06	-7.129139e-10	-2.783192e+01	-4.586052e+01
9.000000e-07	-3.981485e-06	-6.855286e-10	-2.760930e+01	-4.572186e+01
9.100000e-07	-3.949072e-06	-6.920054e-10	-2.738453e+01	-4.558233e+01
9.200000e-07	-3.916307e-06	-6.990797e-10	-2.715732e+01	-4.544185e+01
9.300000e-07	-3.883229e-06	-6.810316e-10	-2.692795e+01	-4.530036e+01
9.400000e-07	-3.849677e-06	-6.746724e-10	-2.669529e+01	-4.515777e+01
9.500000e-07	-3.815530e-06	-6.926832e-10	-2.645849e+01	-4.501399e+01
9.600000e-07	-3.780955e-06	-6.821952e-10	-2.621874e+01	-4.486894e+01
9.700000e-07	-3.746076e-06	-6.694730e-10	-2.597687e+01	-4.472249e+01
9.800000e-07	-3.710914e-06	-6.790199e-10	-2.573304e+01	-4.457455e+01
9.900000e-07	-3.675467e-06	-6.759083e-10	-2.548724e+01	-4.442498e+01
1.000000e-06	-3.639768e-06	-6.579208e-10	-2.523969e+01	-4.427367e+01
1.010000e-06	-3.603920e-06	-6.602090e-10	-2.499110e+01	-4.412046e+01
1.020000e-06	-3.568002e-06	-6.666974e-10	-2.474203e+01	-4.396523e+01
1.030000e-06	-3.531995e-06	-6.528044e-10	-2.449234e+01	-4.380782e+01
1.040000e-06	-3.495717e-06	-6.481677e-10	-2.424077e+01	-4.364808e+01
1.050000e-06	-3.459142e-06	-6.508276e-10	-2.398715e+01	-4.348584e+01
1.060000e-06	-3.422272e-06	-6.388953e-10	-2.373148e+01	-4.332095e+01
1.070000e-06	-3.385117e-06	-6.264345e-10	-2.347383e+01	-4.315324e+01
1.080000e-06	-3.347793e-06	-6.352010e-10	-2.321501e+01	-4.298254e+01
1.090000e-06	-3.310235e-06	-6.354184e-10	-2.295457e+01	-4.280868e+01
1.100000e-06	-3.272458e-06	-6.327149e-10	-2.269261e+01	-4.263149e+01
1.110000e-06	-3.234471e-06	-6.348662e-10	-2.242919e+01	-4.245080e+01
1.120000e-06	-3.196199e-06	-6.356467e-10	-2.216379e+01	-4.226644e+01
1.130000e-06	-3.157661e-06	-6.205511e-10	-2.189655e+01	-4.207824e+01
1.140000e-06	-3.118996e-06	-6.154154e-10	-2.162843e+01	-4.188605e+01
1.150000e-06	-3.080197e-06	-6.129085e-10	-2.135938e+01	-4.168970e+01
1.160000e-06	-3.041149e-06	-6.069808e-10	-2.108861e+01	-4.148904e+01
1.170000e-06	-3.001889e-06	-6.031379e-10	-2.081636e+01	-4.128393e+01
1.180000e-06	-2.962412e-06	-6.100409e-10	-2.054261e+01	-4.107422e+01
1.190000e-06	-2.922696e-06	-6.095370e-10	-2.026721e+01	-4.085977e+01
1.200000e-06	-2.882854e-06	-6.079913e-10	-1.999093e+01	-4.064047e+01
1.210000e-06	-2.842985e-06	-6.065903e-10	-1.971446e+01	-4.041620e+01
1.220000e-06	-2.802994e-06	-6.006200e-10	-1.943715e+01	-4.018684e+01
1.230000e-06	-2.762782e-06	-5.897795e-10	-1.915830e+01	-3.995229e+01
1.240000e-06	-2.722360e-06	-5.869083e-10	-1.887799e+01	-3.971246e+01
1.250000e-06	-2.681720e-06	-5.846121e-10	-1.859618e+01	-3.946727e+01
1.260000e-06	-2.640861e-06	-5.810570e-10	-1.831284e+01	-3.921663e+01
1.270000e-06	-2.599757e-06	-5.804184e-10	-1.802781e+01	-3.896047e+01
1.280000e-06	-2.558458e-06	-5.812020e-10	-1.774143e+01	-3.869874e+01
1.290000e-06	-2.516919e-06	-5.778017e-10	-1.745338e+01	-3.843136e+01
1.300000e-06	-2.475096e-06	-5.701958e-10	-1.716336e+01	-3.815829e+01
1.310000e-06	-2.433077e-06	-5.633830e-10	-1.687198e+01	-3.787948e+01
1.320000e-06	-2.390755e-06	-5.564678e-10	-1.657850e+01	-3.759488e+01
1.330000e-06	-2.348023e-06	-5.514276e-10	-1.628218e+01	-3.730443e+01
1.340000e-06	-2.304974e-06	-5.483292e-10	-1.598366e+01	-3.700809e+01
1.350000e-06	-2.261702e-06	-5.463482e-10	-1.568360e+01	-3.670581e+01
1.360000e-06	-2.218226e-06	-5.397718e-10	-1.538212e+01	-3.639752e+01
1.370000e-06	-2.174615e-06	-5.351177e-10	-1.507970e+01	-3.608318e+01
1.380000e-06	-2.130920e-06	-5.323659e-10	-1.477670e+01	-3.576271e+01
1.390000e-06	-2.087114e-06	-5.300154e-10	-1.447293e+01	-3.543602e+01
1.400000e-06	-2.043229e-06	-5.269970e-10	-1.416861e+01	-3.510304e+01
1.410000e-06	-1.999319e-06	-5.246028e-10	-1.386412e+01	-3.476365e+01
1.420000e-06	-1.955279e-06	-5.168753e-10	-1.355873e+01	-3.441774e+01
1.430000e-06	-1.911149e-06	-5.082510e-10	-1.325271e+01	-3.406517e+01
1.440000e-06	-1.866938e-06	-5.005138e-10	-1.294614e+01	-3.370579e+01
1.450000e-06	-1.822543e-06	-4.962620e-10	-1.263828e+01	-3.333944e+01
1.460000e-06	-1.778004e-06	-4.909378e-10	-1.232943e+01	-3.296591e+01
1.470000e-06	-1.733443e-06	-4.856268e-10	-1.202043e+01	-3.258499e+01
1.480000e-06	-1.688815e-06	-4.787509e-10	-1.171095e+01	-3.219645e+01
1.490000e-06	-1.643976e-06	-4.721931e-10	-1.140003e+01	-3.180003e+01
1.500000e-06	-1.598956e-06	-4.649905e-10	-1.108783e+01	-3.139545e+01
1.510000e-06	-1.553794e-06	-4.563813e-10	-1.077466e+01	-3.098240e+01
1.520000e-06	-1.508557e-06	-4.462632e-10	-1.046097e+01	-3.056057e+01
1.530000e-06	-1.463215e-06	-4.371937e-10	-1.014655e+01	-3.012958e+01
1.540000e-06	-1.417722e-06	-4.292607e-10	-9.831084e+00	-2.968909e+01
1.550000e-06	-1.372203e-06	-4.234983e-10	-9.515438e+00	-2.923869e+01
1.560000e-06	-1.326612e-06	-4.149635e-10	-9.199285e+00	-2.877798e+01
1.570000e-06	-1.280905e-06	-4.049747e-10	-8.882336e+00	-2.830652e+01
1.580000e-06	-1.235169e-06	-3.961657e-10	-8.565185e+00	-2.782389e+01
1.590000e-06	-1.189307e-06	-3.886594e-10	-8.247158e+00	-2.732962e+01
1.600000e-06	-1.143327e-06	-3.803286e-10	-7.928312e+00	-2.682326e+01
1.610000e-06	-1.097318e-06	-3.737725e-10	-7.609266e+00	-2.630433e+01
1.620000e-06	-1.051259e-06	-3.680815e-10	-7.289876e+00	-2.577236e+01
1.630000e-06	-1.005158e-06	-3.581420e-10	-6.970191e+00	-2.522689e+01
1.640000e-06	-9.590429e-07	-3.457282e-10	-6.650408e+00	-2.466744e+01
1.650000e-06	-9.128769e-07	-3.303669e-10	-6.330273e+00	-2.409355e+01
1.660000e-06	-8.664820e-07	-3.166290e-10	-6.008552e+00	-2.350479e+01
1.670000e-06	-8.199704e-07	-3.054829e-10	-5.686021e+00	-2.290072e+01
1.680000e-06	-7.735182e-07	-2.991083e-10	-5.363901e+00	-2.228093e+01
1.690000e-06	-7.270347e-07	-2.936694e-10	-5.041566e+00	-2.164503e+01
1.700000e-06	-6.804700e-07	-2.904302e-10	-4.718666e+00	-2.099269e+01
1.710000e-06	-6.337937e-07	-2.833750e-10	-4.394993e+00	-2.032358e+01
1.720000e-06	-5.870725e-07	-2.704290e-10	-4.071008e+00	-1.963743e+01
1.730000e-06	-5.403798e-07	-2.541999e-10	-3.747222e+00	-1.893399e+01
1.740000e-06	-4.936375e-07	-2.390580e-10	-3.423091e+00	-1.821308e+01
1.750000e-06	-4.467916e-07	-2.253898e-10	-3.098241e+00	-1.747457e+01
1.760000e-06	-3.999265e-07	-2.143508e-10	-2.773259e+00	-1.671837e+01
1.770000e-06	-3.530094e-07	-2.051229e-10	-2.447916e+00	-1.594447e+01
1.780000e-06	-3.060411e-07	-1.970056e-10	-2.122218e+00	-1.515290e+01
1.790000e-06	-2.590646e-07	-1.891780e-10	-1.796463e+00	-1.434377e+01
1.800000e-06	-2.120953e-07	-1.784956e-10	-1.470758e+00	-1.351724e+01
1.810000e-06	-1.651225e-07	-1.633840e-10	-1.145029e+00	-1.267358e+01
1.820000e-06	-1.181166e-07	-1.479418e-10	-8.190704e-01	-1.181307e+01
1.830000e-06	-7.112831e-08	-1.351907e-10	-4.932337e-01	-1.093611e+01
1.840000e-06	-2.418529e-08	-1.234316e-10	-1.677110e-01	-1.004316e+01
1.850000e-06	2.276144e-08	-1.118526e-10	1.578374e-01	-9.134743e+00
1.860000e-06	6.964149e-08	-1.011873e-10	4.829235e-01	-8.211460e+00
1.870000e-06	1.165391e-07	-8.847446e-11	8.081314e-01	-7.273984e+00
1.880000e-06	1.635093e-07	-7.522447e-11	1.133843e+00	-6.323060e+00
1.890000e-06	2.104187e-07	-6.288582e-11	1.459132e+00	-5.359495e+00
1.900000e-06	2.572621e-07	-5.075004e-11	1.783964e+00	-4.384168e+00
1.910000e-06	3.041169e-07	-3.859575e-11	2.108875e+00	-3.398015e+00
1.920000e-06	3.509739e-07	-2.436037e-11	2.433801e+00	-2.402033e+00
1.930000e-06	3.978121e-07	-1.116721e-11	2.758597e+00	-1.397274e+00
1.940000e-06	4.446713e-07	2.316071e-12	3.083538e+00	-3.848402e-01
1.950000e-06	4.914983e-07	1.512696e-11	3.408257e+00	6.341216e-01
1.960000e-06	5.382329e-07	2.750345e-11	3.732334e+00	1.658424e+00
1.970000e-06	5.847844e-07	3.906290e-11	4.055142e+00	2.686844e+00
1.980000e-06	6.312876e-07	5.212307e-11	4.377615e+00	3.718132e+00
1.990000e-06	6.778774e-07	6.643705e-11	4.700688e+00	4.751015e+00
2.000000e-06	7.244470e-07	8.037124e-11	5.023621e+00	5.784203e+00
2.010000e-06	7.709441e-07	9.387615e-11	5.346052e+00	6.816398e+00
2.020000e-06	8.174113e-07	1.078094e-10	5.668275e+00	7.846298e+00
2.030000e-06	8.637578e-07	1.216935e-10	5.989661e+00	8.872608e+00
2.040000e-06	9.100158e-07	1.350918e-10	6.310434e+00	9.894039e+00
2.050000e-06	9.561907e-07	1.470786e-10	6.630630e+00	1.090932e+01
2.060000e-06	1.002270e-06	1.608436e-10	6.950160e+00	1.191722e+01
2.070000e-06	1.048318e-06	1.758459e-10	7.269480e+00	1.291651e+01
2.080000e-06	1.094276e-06	1.915515e-10	7.588172e+00	1.390602e+01
2.090000e-06	1.140150e-06	2.060952e-10	7.906283e+00	1.488461e+01
2.100000e-06	1.185911e-06	2.187508e-10	8.223606e+00	1.585120e+01
2.110000e-06	1.231625e-06	2.306688e-10	8.540610e+00	1.680477e+01
2.120000e-06	1.277287e-06	2.418722e-10	8.857249e+00	1.774433e+01
2.130000e-06	1.322824e-06	2.533153e-10	9.173020e+00	1.866898e+01
2.140000e-06	1.368275e-06	2.657519e-10	9.488194e+00	1.957788e+01
2.150000e-06	1.413677e-06	2.789814e-10	9.803031e+00	2.047026e+01
2.160000e-06	1.459094e-06	2.917685e-10	1.011797e+01	2.134542e+01
2.170000e-06	1.504449e-06	3.057917e-10	1.043248e+01	2.220275e+01
2.180000e-06	1.549637e-06	3.200396e-10	1.074583e+01	2.304172e+01
2.190000e-06	1.594688e-06	3.326435e-10	1.105824e+01	2.386185e+01
2.200000e-06	1.639556e-06	3.429176e-10	1.136937e+01	2.466277e+01
2.210000e-06	1.684287e-06	3.521954e-10	1.167956e+01	2.544419e+01
2.220000e-06	1.728857e-06	3.612331e-10	1.198862e+01	2.620588e+01
2.230000e-06	1.773218e-06	3.709033e-10	1.229624e+01	2.694772e+01
2.240000e-06	1.817510e-06	3.805590e-10	1.260338e+01	2.766964e+01
2.250000e-06	1.861734e-06	3.903303e-10	1.291005e+01	2.837165e+01
2.260000e-06	1.905836e-06	3.994862e-10	1.321587e+01	2.905386e+01
2.270000e-06	1.949815e-06	4.094039e-10	1.352084e+01	2.971641e+01
2.280000e-06	1.993719e-06	4.184661e-10	1.382529e+01	3.035953e+01
2.290000e-06	2.037594e-06	4.246447e-10	1.412954e+01	3.098352e+01
2.300000e-06	2.081429e-06	4.291234e-10	1.443350e+01	3.158872e+01
2.310000e-06	2.125147e-06	4.344334e-10	1.473667e+01	3.217553e+01
2.320000e-06	2.168748e-06	4.408909e-10	1.503901e+01	3.274440e+01
2.330000e-06	2.212306e-06	4.480569e-10	1.534106e+01	3.329582e+01
2.340000e-06	2.255797e-06	4.553634e-10	1.564265e+01	3.383032e+01
2.350000e-06	2.299093e-06	4.642522e-10	1.594288e+01	3.434846e+01
2.360000e-06	2.342227e-06	4.747743e-10	1.624199e+01	3.485082e+01
2.370000e-06	2.385171e-06	4.852788e-10	1.653979e+01	3.533802e+01
2.380000e-06	2.427833e-06	4.928307e-10	1.683562e+01	3.581068e+01
2.390000e-06	2.470135e-06	4.971870e-10	1.712896e+01	3.626943e+01
2.400000e-06	2.512066e-06	5.014404e-10	1.741973e+01	3.671490e+01
2.410000e-06	2.553665e-06	5.056405e-10	1.770819e+01	3.714774e+01
2.420000e-06	2.594913e-06	5.121005e-10	1.799422e+01	3.756856e+01
2.430000e-06	2.635861e-06	5.212730e-10	1.827817e+01	3.797798e+01
2.440000e-06	2.676586e-06	5.310002e-10	1.856058e+01	3.837660e+01
2.450000e-06	2.717119e-06	5.410761e-10	1.884165e+01	3.876500e+01
2.460000e-06	2.757443e-06	5.500292e-10	1.912128e+01	3.914374e+01
2.470000e-06	2.797641e-06	5.558371e-10	1.940002e+01	3.951334e+01
2.480000e-06	2.837700e-06	5.589266e-10	1.967781e+01	3.987429e+01
2.490000e-06	2.877518e-06	5.598096e-10	1.995392e+01	4.022707e+01
2.500000e-06	2.917137e-06	5.628544e-10	2.022866e+01	4.057209e+01
2.510000e-06	2.956685e-06	5.689685e-10	2.050290e+01	4.090975e+01
2.520000e-06	2.996113e-06	5.774253e-10	2.077631e+01	4.124039e+01
2.530000e-06	3.035291e-06	5.873372e-10	2.104799e+01	4.156434e+01
2.540000e-06	3.074281e-06	5.941983e-10	2.131836e+01	4.188186e+01
2.550000e-06	3.113112e-06	5.967272e-10	2.158763e+01	4.219319e+01
2.560000e-06	3.151707e-06	5.980512e-10	2.185527e+01	4.249851e+01
2.570000e-06	3.190107e-06	5.996967e-10	2.212155e+01	4.279799e+01
2.580000e-06	3.228351e-06	6.029326e-10	2.238675e+01	4.309175e+01
2.590000e-06	3.266358e-06	6.079207e-10	2.265030e+01	4.337987e+01
2.600000e-06	3.304053e-06	6.144175e-10	2.291170e+01	4.366241e+01
2.610000e-06	3.341548e-06	6.211103e-10	2.317170e+01	4.393939e+01
2.620000e-06	3.378924e-06	6.261849e-10	2.343088e+01	4.421081e+01
2.630000e-06	3.415986e-06	6.301496e-10	2.368789e+01	4.447663e+01
2.640000e-06	3.452736e-06	6.326686e-10	2.394273e+01	4.473682e+01
2.650000e-06	3.489283e-06	6.337124e-10	2.419616e+01	4.499130e+01
2.660000e-06	3.525565e-06	6.361558e-10	2.444776e+01	4.523999e+01
2.670000e-06	3.561591e-06	6.403969e-10	2.469757e+01	4.548280e+01
2.680000e-06	3.597476e-06	6.446969e-10	2.494641e+01	4.571963e+01
2.690000e-06	3.633273e-06	6.492309e-10	2.519464e+01	4.595038e+01
2.700000e-06	3.668877e-06	6.534056e-10	2.544154e+01	4.617494e+01
2.710000e-06	3.704192e-06	6.561625e-10	2.568643e+01	4.639321e+01
2.720000e-06	3.739340e-06	6.583265e-10	2.593016e+01	4.660510e+01
2.730000e-06	3.774235e-06	6.621680e-10	2.617214e+01	4.681052e+01
2.740000e-06	3.808704e-06	6.664955e-10	2.641116e+01	4.700940e+01
2.750000e-06	3.842804e-06	6.710571e-10	2.664762e+01	4.720167e+01
2.760000e-06	3.876554e-06	6.759680e-10	2.688166e+01	4.738729e+01
2.770000e-06	3.909866e-06	6.810220e-10	2.711266e+01	4.756624e+01
2.780000e-06	3.942703e-06	6.856429e-10	2.734037e+01	4.773851e+01
2.790000e-06	3.975167e-06	6.912208e-10	2.756548e+01	4.790412e+01
2.800000e-06	4.007312e-06	6.964897e-10	2.778839e+01	4.806311e+01
2.810000e-06	4.039201e-06	7.001331e-10	2.800953e+01	4.821553e+01
2.820000e-06	4.070926e-06	7.018000e-10	2.822952e+01	4.836149e+01
2.830000e-06	4.102502e-06	7.005737e-10	2.844848e+01	4.850108e+01
2.840000e-06	4.133923e-06	7.008176e-10	2.866637e+01	4.863445e+01
2.850000e-06	4.165126e-06	7.025103e-10	2.888274e+01	4.876174e+01
2.860000e-06	4.195972e-06	7.075204e-10	2.909664e+01	4.888314e+01
2.870000e-06	4.226373e-06	7.109885e-10	2.930745e+01	4.899885e+01
2.880000e-06	4.256489e-06	7.115393e-10	2.951629e+01	4.910909e+01
2.890000e-06	4.286373e-06	7.118858e-10	2.972352e+01	4.921409e+01
2.900000e-06	4.315954e-06	7.144233e-10	2.992865e+01	4.931410e+01
