# Temperatura_=_-0.3
# Concentracion g/m^3_=_1620.0
# C_Vs_to_Am_M_A/Vsm_=_65563218390.804596
# pendiente_HvsI_1/m_=_3716.3
# ordenada_HvsI_A/m_=_1297.0
# frecuencia_Hz_=_135097.80279230681

Tiempo_(s)	Campo_(V.s)	Magnetizacion_(V.s)	Campo_(kA/m)	Magnetizacion_(A/m)
0.000000e+00	-5.520499e-06	-1.412384e-09	-3.837141e+01	-9.109200e+01
1.000000e-08	-5.520778e-06	-1.413602e-09	-3.837335e+01	-9.109310e+01
2.000000e-08	-5.520807e-06	-1.416403e-09	-3.837355e+01	-9.109586e+01
3.000000e-08	-5.520541e-06	-1.419399e-09	-3.837170e+01	-9.110028e+01
4.000000e-08	-5.519854e-06	-1.419305e-09	-3.836692e+01	-9.110633e+01
5.000000e-08	-5.518509e-06	-1.416057e-09	-3.835757e+01	-9.111394e+01
6.000000e-08	-5.516587e-06	-1.413508e-09	-3.834422e+01	-9.112299e+01
7.000000e-08	-5.514207e-06	-1.410302e-09	-3.832768e+01	-9.113333e+01
8.000000e-08	-5.511245e-06	-1.399380e-09	-3.830708e+01	-9.114478e+01
9.000000e-08	-5.507742e-06	-1.383318e-09	-3.828274e+01	-9.115713e+01
1.000000e-07	-5.503802e-06	-1.405142e-09	-3.825536e+01	-9.117011e+01
1.100000e-07	-5.499527e-06	-1.458425e-09	-3.822564e+01	-9.118347e+01
1.200000e-07	-5.494987e-06	-1.434295e-09	-3.819408e+01	-9.119689e+01
1.300000e-07	-5.490198e-06	-1.357574e-09	-3.816079e+01	-9.121006e+01
1.400000e-07	-5.485183e-06	-1.363893e-09	-3.812594e+01	-9.122263e+01
1.500000e-07	-5.479803e-06	-1.410942e-09	-3.808854e+01	-9.123425e+01
1.600000e-07	-5.473927e-06	-1.418519e-09	-3.804770e+01	-9.124454e+01
1.700000e-07	-5.467636e-06	-1.359298e-09	-3.800397e+01	-9.125313e+01
1.800000e-07	-5.460974e-06	-1.379399e-09	-3.795767e+01	-9.125964e+01
1.900000e-07	-5.453879e-06	-1.445865e-09	-3.790835e+01	-9.126369e+01
2.000000e-07	-5.446396e-06	-1.444966e-09	-3.785634e+01	-9.126488e+01
2.100000e-07	-5.438687e-06	-1.409191e-09	-3.780275e+01	-9.126284e+01
2.200000e-07	-5.430782e-06	-1.409457e-09	-3.774781e+01	-9.125721e+01
2.300000e-07	-5.422561e-06	-1.453147e-09	-3.769067e+01	-9.124762e+01
2.400000e-07	-5.413960e-06	-1.462768e-09	-3.763089e+01	-9.123373e+01
2.500000e-07	-5.404923e-06	-1.448278e-09	-3.756807e+01	-9.121521e+01
2.600000e-07	-5.395238e-06	-1.433735e-09	-3.750076e+01	-9.119175e+01
2.700000e-07	-5.384829e-06	-1.446663e-09	-3.742841e+01	-9.116306e+01
2.800000e-07	-5.373857e-06	-1.437443e-09	-3.735214e+01	-9.112887e+01
2.900000e-07	-5.362481e-06	-1.424224e-09	-3.727307e+01	-9.108894e+01
3.000000e-07	-5.350711e-06	-1.413595e-09	-3.719126e+01	-9.104305e+01
3.100000e-07	-5.338475e-06	-1.426016e-09	-3.710622e+01	-9.099100e+01
3.200000e-07	-5.325833e-06	-1.426248e-09	-3.701834e+01	-9.093264e+01
3.300000e-07	-5.312770e-06	-1.412947e-09	-3.692755e+01	-9.086782e+01
3.400000e-07	-5.299271e-06	-1.398280e-09	-3.683372e+01	-9.079643e+01
3.500000e-07	-5.285410e-06	-1.409261e-09	-3.673737e+01	-9.071837e+01
3.600000e-07	-5.271190e-06	-1.405957e-09	-3.663854e+01	-9.063360e+01
3.700000e-07	-5.256386e-06	-1.380263e-09	-3.653564e+01	-9.054208e+01
3.800000e-07	-5.241025e-06	-1.388909e-09	-3.642886e+01	-9.044379e+01
3.900000e-07	-5.225293e-06	-1.414654e-09	-3.631952e+01	-9.033875e+01
4.000000e-07	-5.209123e-06	-1.380759e-09	-3.620713e+01	-9.022699e+01
4.100000e-07	-5.192470e-06	-1.355223e-09	-3.609138e+01	-9.010856e+01
4.200000e-07	-5.175453e-06	-1.400148e-09	-3.597310e+01	-8.998354e+01
4.300000e-07	-5.158164e-06	-1.399354e-09	-3.585292e+01	-8.985203e+01
4.400000e-07	-5.140531e-06	-1.345422e-09	-3.573036e+01	-8.971411e+01
4.500000e-07	-5.122517e-06	-1.371507e-09	-3.560515e+01	-8.956992e+01
4.600000e-07	-5.104165e-06	-1.416569e-09	-3.547759e+01	-8.941957e+01
4.700000e-07	-5.085355e-06	-1.352003e-09	-3.534685e+01	-8.926322e+01
4.800000e-07	-5.066108e-06	-1.326479e-09	-3.521307e+01	-8.910101e+01
4.900000e-07	-5.046639e-06	-1.384589e-09	-3.507774e+01	-8.893308e+01
5.000000e-07	-5.026898e-06	-1.365487e-09	-3.494053e+01	-8.875960e+01
5.100000e-07	-5.006913e-06	-1.307612e-09	-3.480162e+01	-8.858073e+01
5.200000e-07	-4.986809e-06	-1.358379e-09	-3.466188e+01	-8.839662e+01
5.300000e-07	-4.966472e-06	-1.375196e-09	-3.452053e+01	-8.820745e+01
5.400000e-07	-4.945693e-06	-1.314488e-09	-3.437610e+01	-8.801336e+01
5.500000e-07	-4.924554e-06	-1.332084e-09	-3.422917e+01	-8.781451e+01
5.600000e-07	-4.903088e-06	-1.376833e-09	-3.407996e+01	-8.761106e+01
5.700000e-07	-4.881173e-06	-1.311752e-09	-3.392764e+01	-8.740315e+01
5.800000e-07	-4.858934e-06	-1.287581e-09	-3.377306e+01	-8.719093e+01
5.900000e-07	-4.836410e-06	-1.336589e-09	-3.361650e+01	-8.697454e+01
6.000000e-07	-4.813501e-06	-1.312178e-09	-3.345727e+01	-8.675411e+01
6.100000e-07	-4.790237e-06	-1.274080e-09	-3.329557e+01	-8.652977e+01
6.200000e-07	-4.766715e-06	-1.319261e-09	-3.313207e+01	-8.630163e+01
6.300000e-07	-4.742931e-06	-1.320092e-09	-3.296676e+01	-8.606982e+01
6.400000e-07	-4.718915e-06	-1.273428e-09	-3.279983e+01	-8.583443e+01
6.500000e-07	-4.694672e-06	-1.291955e-09	-3.263132e+01	-8.559559e+01
6.600000e-07	-4.670054e-06	-1.306892e-09	-3.246021e+01	-8.535338e+01
6.700000e-07	-4.645008e-06	-1.262676e-09	-3.228612e+01	-8.510791e+01
6.800000e-07	-4.619444e-06	-1.262982e-09	-3.210843e+01	-8.485926e+01
6.900000e-07	-4.593303e-06	-1.289057e-09	-3.192674e+01	-8.460752e+01
7.000000e-07	-4.566565e-06	-1.264792e-09	-3.174089e+01	-8.435278e+01
7.100000e-07	-4.539357e-06	-1.253082e-09	-3.155177e+01	-8.409512e+01
7.200000e-07	-4.511925e-06	-1.274565e-09	-3.136110e+01	-8.383462e+01
7.300000e-07	-4.484299e-06	-1.261309e-09	-3.116908e+01	-8.357137e+01
7.400000e-07	-4.456456e-06	-1.238169e-09	-3.097555e+01	-8.330543e+01
7.500000e-07	-4.428460e-06	-1.253809e-09	-3.078096e+01	-8.303690e+01
7.600000e-07	-4.400186e-06	-1.251215e-09	-3.058444e+01	-8.276584e+01
7.700000e-07	-4.371507e-06	-1.230111e-09	-3.038510e+01	-8.249235e+01
7.800000e-07	-4.342629e-06	-1.237272e-09	-3.018437e+01	-8.221648e+01
7.900000e-07	-4.313560e-06	-1.240217e-09	-2.998232e+01	-8.193833e+01
8.000000e-07	-4.284118e-06	-1.215808e-09	-2.977768e+01	-8.165796e+01
8.100000e-07	-4.254374e-06	-1.215208e-09	-2.957094e+01	-8.137546e+01
8.200000e-07	-4.224385e-06	-1.225604e-09	-2.936249e+01	-8.109089e+01
8.300000e-07	-4.194059e-06	-1.211424e-09	-2.915171e+01	-8.080433e+01
8.400000e-07	-4.163379e-06	-1.202064e-09	-2.893846e+01	-8.051584e+01
8.500000e-07	-4.132398e-06	-1.214162e-09	-2.872311e+01	-8.022549e+01
8.600000e-07	-4.101182e-06	-1.204513e-09	-2.850614e+01	-7.993335e+01
8.700000e-07	-4.069745e-06	-1.188521e-09	-2.828763e+01	-7.963945e+01
8.800000e-07	-4.038094e-06	-1.191240e-09	-2.806764e+01	-7.934385e+01
8.900000e-07	-4.006300e-06	-1.187779e-09	-2.784664e+01	-7.904659e+01
9.000000e-07	-3.974340e-06	-1.171103e-09	-2.762450e+01	-7.874768e+01
9.100000e-07	-3.942114e-06	-1.170289e-09	-2.740051e+01	-7.844716e+01
9.200000e-07	-3.909468e-06	-1.169105e-09	-2.717359e+01	-7.814502e+01
9.300000e-07	-3.876341e-06	-1.153990e-09	-2.694334e+01	-7.784125e+01
9.400000e-07	-3.842800e-06	-1.149128e-09	-2.671020e+01	-7.753583e+01
9.500000e-07	-3.808877e-06	-1.157533e-09	-2.647442e+01	-7.722872e+01
9.600000e-07	-3.774553e-06	-1.149238e-09	-2.623584e+01	-7.691986e+01
9.700000e-07	-3.739870e-06	-1.136342e-09	-2.599477e+01	-7.660917e+01
9.800000e-07	-3.704809e-06	-1.135399e-09	-2.575107e+01	-7.629656e+01
9.900000e-07	-3.669474e-06	-1.126465e-09	-2.550546e+01	-7.598192e+01
1.000000e-06	-3.633973e-06	-1.110284e-09	-2.525871e+01	-7.566510e+01
1.010000e-06	-3.598247e-06	-1.108643e-09	-2.501039e+01	-7.534596e+01
1.020000e-06	-3.562318e-06	-1.110954e-09	-2.476066e+01	-7.502431e+01
1.030000e-06	-3.526216e-06	-1.104375e-09	-2.450972e+01	-7.469996e+01
1.040000e-06	-3.490053e-06	-1.103574e-09	-2.425836e+01	-7.437270e+01
1.050000e-06	-3.453695e-06	-1.101986e-09	-2.400565e+01	-7.404227e+01
1.060000e-06	-3.416947e-06	-1.086723e-09	-2.375022e+01	-7.370843e+01
1.070000e-06	-3.379935e-06	-1.069773e-09	-2.349296e+01	-7.337090e+01
1.080000e-06	-3.342707e-06	-1.063639e-09	-2.323420e+01	-7.302938e+01
1.090000e-06	-3.305217e-06	-1.056188e-09	-2.297362e+01	-7.268357e+01
1.100000e-06	-3.267515e-06	-1.049590e-09	-2.271156e+01	-7.233314e+01
1.110000e-06	-3.229589e-06	-1.051736e-09	-2.244795e+01	-7.197776e+01
1.120000e-06	-3.191401e-06	-1.050020e-09	-2.218251e+01	-7.161707e+01
1.130000e-06	-3.153103e-06	-1.036939e-09	-2.191631e+01	-7.125072e+01
1.140000e-06	-3.114714e-06	-1.029779e-09	-2.164948e+01	-7.087836e+01
1.150000e-06	-3.075989e-06	-1.022416e-09	-2.138032e+01	-7.049960e+01
1.160000e-06	-3.036917e-06	-1.008392e-09	-2.110874e+01	-7.011409e+01
1.170000e-06	-2.997648e-06	-9.975082e-10	-2.083580e+01	-6.972146e+01
1.180000e-06	-2.958247e-06	-9.932100e-10	-2.056193e+01	-6.932134e+01
1.190000e-06	-2.918714e-06	-9.869294e-10	-2.028715e+01	-6.891338e+01
1.200000e-06	-2.879083e-06	-9.812897e-10	-2.001168e+01	-6.849723e+01
1.210000e-06	-2.839293e-06	-9.791208e-10	-1.973512e+01	-6.807254e+01
1.220000e-06	-2.799318e-06	-9.746439e-10	-1.945726e+01	-6.763900e+01
1.230000e-06	-2.759167e-06	-9.650626e-10	-1.917818e+01	-6.719629e+01
1.240000e-06	-2.718841e-06	-9.566774e-10	-1.889789e+01	-6.674412e+01
1.250000e-06	-2.678365e-06	-9.467364e-10	-1.861655e+01	-6.628223e+01
1.260000e-06	-2.637667e-06	-9.349288e-10	-1.833367e+01	-6.581035e+01
1.270000e-06	-2.596708e-06	-9.270345e-10	-1.804898e+01	-6.532825e+01
1.280000e-06	-2.555540e-06	-9.224381e-10	-1.776283e+01	-6.483574e+01
1.290000e-06	-2.514175e-06	-9.162921e-10	-1.747531e+01	-6.433263e+01
1.300000e-06	-2.472441e-06	-9.082895e-10	-1.718523e+01	-6.381875e+01
1.310000e-06	-2.430263e-06	-9.004395e-10	-1.689207e+01	-6.329399e+01
1.320000e-06	-2.387842e-06	-8.921216e-10	-1.659721e+01	-6.275823e+01
1.330000e-06	-2.345255e-06	-8.840241e-10	-1.630120e+01	-6.221139e+01
1.340000e-06	-2.302450e-06	-8.789990e-10	-1.600367e+01	-6.165341e+01
1.350000e-06	-2.259306e-06	-8.725231e-10	-1.570379e+01	-6.108425e+01
1.360000e-06	-2.215868e-06	-8.610955e-10	-1.540186e+01	-6.050390e+01
1.370000e-06	-2.172359e-06	-8.511444e-10	-1.509944e+01	-5.991237e+01
1.380000e-06	-2.128760e-06	-8.440184e-10	-1.479640e+01	-5.930966e+01
1.390000e-06	-2.085039e-06	-8.357202e-10	-1.449251e+01	-5.869583e+01
1.400000e-06	-2.041251e-06	-8.247914e-10	-1.418815e+01	-5.807091e+01
1.410000e-06	-1.997437e-06	-8.159902e-10	-1.388361e+01	-5.743496e+01
1.420000e-06	-1.953559e-06	-8.082085e-10	-1.357863e+01	-5.678806e+01
1.430000e-06	-1.909543e-06	-7.994602e-10	-1.327269e+01	-5.613025e+01
1.440000e-06	-1.865346e-06	-7.893111e-10	-1.296548e+01	-5.546163e+01
1.450000e-06	-1.821064e-06	-7.791638e-10	-1.265770e+01	-5.478223e+01
1.460000e-06	-1.776806e-06	-7.660902e-10	-1.235007e+01	-5.409213e+01
1.470000e-06	-1.732374e-06	-7.524575e-10	-1.204124e+01	-5.339137e+01
1.480000e-06	-1.687738e-06	-7.394275e-10	-1.173098e+01	-5.267999e+01
1.490000e-06	-1.642989e-06	-7.269149e-10	-1.141994e+01	-5.195799e+01
1.500000e-06	-1.598053e-06	-7.162504e-10	-1.110761e+01	-5.122538e+01
1.510000e-06	-1.552936e-06	-7.072709e-10	-1.079401e+01	-5.048213e+01
1.520000e-06	-1.507791e-06	-6.958391e-10	-1.048022e+01	-4.972819e+01
1.530000e-06	-1.462595e-06	-6.812086e-10	-1.016608e+01	-4.896347e+01
1.540000e-06	-1.417269e-06	-6.653019e-10	-9.851034e+00	-4.818787e+01
1.550000e-06	-1.371845e-06	-6.510379e-10	-9.535303e+00	-4.740125e+01
1.560000e-06	-1.326316e-06	-6.363363e-10	-9.218841e+00	-4.660343e+01
1.570000e-06	-1.280675e-06	-6.215469e-10	-8.901608e+00	-4.579421e+01
1.580000e-06	-1.234923e-06	-6.089930e-10	-8.583598e+00	-4.497333e+01
1.590000e-06	-1.189122e-06	-5.979153e-10	-8.265244e+00	-4.414053e+01
1.600000e-06	-1.143281e-06	-5.859843e-10	-7.946619e+00	-4.329549e+01
1.610000e-06	-1.097378e-06	-5.737607e-10	-7.627562e+00	-4.243787e+01
1.620000e-06	-1.051422e-06	-5.602312e-10	-7.308134e+00	-4.156729e+01
1.630000e-06	-1.005350e-06	-5.455059e-10	-6.987904e+00	-4.068336e+01
1.640000e-06	-9.591786e-07	-5.305577e-10	-6.666976e+00	-3.978564e+01
1.650000e-06	-9.129972e-07	-5.129918e-10	-6.345982e+00	-3.887367e+01
1.660000e-06	-8.668065e-07	-4.955328e-10	-6.024924e+00	-3.794699e+01
1.670000e-06	-8.205310e-07	-4.790199e-10	-5.703276e+00	-3.700512e+01
1.680000e-06	-7.740934e-07	-4.644866e-10	-5.380502e+00	-3.604754e+01
1.690000e-06	-7.275195e-07	-4.485796e-10	-5.056780e+00	-3.507375e+01
1.700000e-06	-6.809256e-07	-4.321975e-10	-4.732919e+00	-3.408325e+01
1.710000e-06	-6.343786e-07	-4.145230e-10	-4.409384e+00	-3.307553e+01
1.720000e-06	-5.878078e-07	-3.971207e-10	-4.085684e+00	-3.205011e+01
1.730000e-06	-5.412406e-07	-3.820222e-10	-3.762009e+00	-3.100651e+01
1.740000e-06	-4.946331e-07	-3.701352e-10	-3.438053e+00	-2.994428e+01
1.750000e-06	-4.478778e-07	-3.588897e-10	-3.113071e+00	-2.886299e+01
1.760000e-06	-4.011087e-07	-3.448390e-10	-2.787992e+00	-2.776226e+01
1.770000e-06	-3.542996e-07	-3.256213e-10	-2.462635e+00	-2.664174e+01
1.780000e-06	-3.074046e-07	-3.053399e-10	-2.136681e+00	-2.550113e+01
1.790000e-06	-2.606030e-07	-2.864115e-10	-1.811377e+00	-2.434020e+01
1.800000e-06	-2.138435e-07	-2.665692e-10	-1.486365e+00	-2.315875e+01
1.810000e-06	-1.670263e-07	-2.479872e-10	-1.160952e+00	-2.195668e+01
1.820000e-06	-1.201515e-07	-2.307589e-10	-8.351388e-01	-2.073392e+01
1.830000e-06	-7.328419e-08	-2.170688e-10	-5.093775e-01	-1.949052e+01
1.840000e-06	-2.643765e-08	-2.039203e-10	-1.837606e-01	-1.822658e+01
1.850000e-06	2.042812e-08	-1.870460e-10	1.419900e-01	-1.694228e+01
1.860000e-06	6.725885e-08	-1.694046e-10	4.674970e-01	-1.563792e+01
1.870000e-06	1.140326e-07	-1.495076e-10	7.926081e-01	-1.431385e+01
1.880000e-06	1.608700e-07	-1.282454e-10	1.118161e+00	-1.297055e+01
1.890000e-06	2.077806e-07	-1.084533e-10	1.444224e+00	-1.160855e+01
1.900000e-06	2.546189e-07	-9.058422e-11	1.769783e+00	-1.022851e+01
1.910000e-06	3.013504e-07	-7.461030e-11	2.094600e+00	-8.831158e+00
1.920000e-06	3.480024e-07	-5.750557e-11	2.418865e+00	-7.417336e+00
1.930000e-06	3.946618e-07	-4.034940e-11	2.743181e+00	-5.987961e+00
1.940000e-06	4.412503e-07	-2.287120e-11	3.067005e+00	-4.544041e+00
1.950000e-06	4.878511e-07	-6.104239e-12	3.390913e+00	-3.086670e+00
1.960000e-06	5.345465e-07	1.274531e-11	3.715480e+00	-1.617023e+00
1.970000e-06	5.811356e-07	3.226612e-11	4.039307e+00	-1.363508e-01
1.980000e-06	6.275891e-07	5.295257e-11	4.362192e+00	1.354027e+00
1.990000e-06	6.739921e-07	7.528712e-11	4.684726e+00	2.852723e+00
2.000000e-06	7.203574e-07	9.781323e-11	5.006998e+00	4.358294e+00
2.010000e-06	7.666901e-07	1.189963e-10	5.329043e+00	5.869244e+00
2.020000e-06	8.130343e-07	1.383465e-10	5.651169e+00	7.384037e+00
2.030000e-06	8.592419e-07	1.570384e-10	5.972344e+00	8.901097e+00
2.040000e-06	9.052859e-07	1.765978e-10	6.292383e+00	1.041883e+01
2.050000e-06	9.513597e-07	1.965575e-10	6.612629e+00	1.193560e+01
2.060000e-06	9.973735e-07	2.165816e-10	6.932458e+00	1.344980e+01
2.070000e-06	1.043356e-06	2.372207e-10	7.252072e+00	1.495979e+01
2.080000e-06	1.089353e-06	2.582713e-10	7.571780e+00	1.646396e+01
2.090000e-06	1.135198e-06	2.792102e-10	7.890434e+00	1.796070e+01
2.100000e-06	1.180924e-06	3.010121e-10	8.208266e+00	1.944844e+01
2.110000e-06	1.226578e-06	3.220997e-10	8.525590e+00	2.092564e+01
2.120000e-06	1.272190e-06	3.406948e-10	8.842631e+00	2.239081e+01
2.130000e-06	1.317691e-06	3.591113e-10	9.158892e+00	2.384251e+01
2.140000e-06	1.363039e-06	3.777207e-10	9.474098e+00	2.527935e+01
2.150000e-06	1.408326e-06	3.964780e-10	9.788871e+00	2.670003e+01
2.160000e-06	1.453567e-06	4.129526e-10	1.010333e+01	2.810331e+01
2.170000e-06	1.498719e-06	4.301331e-10	1.041717e+01	2.948803e+01
2.180000e-06	1.543710e-06	4.490894e-10	1.072989e+01	3.085312e+01
2.190000e-06	1.588561e-06	4.679785e-10	1.104163e+01	3.219760e+01
2.200000e-06	1.633255e-06	4.857321e-10	1.135229e+01	3.352059e+01
2.210000e-06	1.677836e-06	5.053474e-10	1.166216e+01	3.482131e+01
2.220000e-06	1.722352e-06	5.251569e-10	1.197158e+01	3.609907e+01
2.230000e-06	1.766718e-06	5.428236e-10	1.227995e+01	3.735330e+01
2.240000e-06	1.810900e-06	5.577899e-10	1.258705e+01	3.858352e+01
2.250000e-06	1.854941e-06	5.702574e-10	1.289316e+01	3.978937e+01
2.260000e-06	1.898863e-06	5.839465e-10	1.319845e+01	4.097056e+01
2.270000e-06	1.942710e-06	6.002980e-10	1.350322e+01	4.212695e+01
2.280000e-06	1.986553e-06	6.194245e-10	1.380796e+01	4.325846e+01
2.290000e-06	2.030375e-06	6.404086e-10	1.411256e+01	4.436513e+01
2.300000e-06	2.074134e-06	6.571478e-10	1.441671e+01	4.544709e+01
2.310000e-06	2.117815e-06	6.696509e-10	1.472033e+01	4.650454e+01
2.320000e-06	2.161410e-06	6.814109e-10	1.502334e+01	4.753778e+01
2.330000e-06	2.204914e-06	6.939078e-10	1.532573e+01	4.854718e+01
2.340000e-06	2.248245e-06	7.062946e-10	1.562691e+01	4.953320e+01
2.350000e-06	2.291420e-06	7.195005e-10	1.592700e+01	5.049634e+01
2.360000e-06	2.334474e-06	7.335307e-10	1.622626e+01	5.143716e+01
2.370000e-06	2.377280e-06	7.463702e-10	1.652380e+01	5.235628e+01
2.380000e-06	2.419771e-06	7.594355e-10	1.681914e+01	5.325437e+01
2.390000e-06	2.461905e-06	7.728702e-10	1.711200e+01	5.413211e+01
2.400000e-06	2.503653e-06	7.885312e-10	1.740218e+01	5.499023e+01
2.410000e-06	2.545109e-06	8.028048e-10	1.769032e+01	5.582947e+01
2.420000e-06	2.586314e-06	8.143251e-10	1.797673e+01	5.665057e+01
2.430000e-06	2.627190e-06	8.246051e-10	1.826085e+01	5.745429e+01
2.440000e-06	2.667754e-06	8.355033e-10	1.854280e+01	5.824138e+01
2.450000e-06	2.708126e-06	8.472262e-10	1.882341e+01	5.901258e+01
2.460000e-06	2.748299e-06	8.585342e-10	1.910264e+01	5.976862e+01
2.470000e-06	2.788290e-06	8.695256e-10	1.938061e+01	6.051018e+01
2.480000e-06	2.828171e-06	8.815250e-10	1.965781e+01	6.123794e+01
2.490000e-06	2.867891e-06	8.929364e-10	1.993389e+01	6.195253e+01
2.500000e-06	2.907541e-06	9.034504e-10	2.020949e+01	6.265455e+01
2.510000e-06	2.947137e-06	9.137622e-10	2.048471e+01	6.334454e+01
2.520000e-06	2.986533e-06	9.226831e-10	2.075854e+01	6.402300e+01
2.530000e-06	3.025669e-06	9.309647e-10	2.103056e+01	6.469039e+01
2.540000e-06	3.064586e-06	9.394489e-10	2.130106e+01	6.534710e+01
2.550000e-06	3.103258e-06	9.485403e-10	2.156986e+01	6.599349e+01
2.560000e-06	3.141634e-06	9.580976e-10	2.183660e+01	6.662984e+01
2.570000e-06	3.179822e-06	9.671920e-10	2.210203e+01	6.725639e+01
2.580000e-06	3.217932e-06	9.753558e-10	2.236693e+01	6.787332e+01
2.590000e-06	3.255840e-06	9.839957e-10	2.263041e+01	6.848077e+01
2.600000e-06	3.293521e-06	9.951294e-10	2.289232e+01	6.907881e+01
2.610000e-06	3.331030e-06	1.005807e-09	2.315304e+01	6.966748e+01
2.620000e-06	3.368237e-06	1.014159e-09	2.341165e+01	7.024677e+01
2.630000e-06	3.405112e-06	1.021536e-09	2.366796e+01	7.081661e+01
2.640000e-06	3.441749e-06	1.027264e-09	2.392261e+01	7.137693e+01
2.650000e-06	3.478176e-06	1.031560e-09	2.417581e+01	7.192759e+01
2.660000e-06	3.514422e-06	1.037033e-09	2.442774e+01	7.246845e+01
2.670000e-06	3.550466e-06	1.043824e-09	2.467827e+01	7.299932e+01
2.680000e-06	3.586325e-06	1.051256e-09	2.492752e+01	7.352002e+01
2.690000e-06	3.622065e-06	1.059558e-09	2.517594e+01	7.403034e+01
2.700000e-06	3.657650e-06	1.067731e-09	2.542328e+01	7.453007e+01
2.710000e-06	3.693112e-06	1.076336e-09	2.566976e+01	7.501899e+01
2.720000e-06	3.728362e-06	1.084511e-09	2.591478e+01	7.549689e+01
2.730000e-06	3.763288e-06	1.093478e-09	2.615754e+01	7.596357e+01
2.740000e-06	3.797803e-06	1.100302e-09	2.639744e+01	7.641884e+01
2.750000e-06	3.831891e-06	1.102928e-09	2.663438e+01	7.686253e+01
2.760000e-06	3.865505e-06	1.104708e-09	2.686802e+01	7.729451e+01
2.770000e-06	3.898536e-06	1.108469e-09	2.709761e+01	7.771465e+01
2.780000e-06	3.931166e-06	1.114266e-09	2.732441e+01	7.812286e+01
2.790000e-06	3.963440e-06	1.122184e-09	2.754874e+01	7.851910e+01
2.800000e-06	3.995431e-06	1.132745e-09	2.777110e+01	7.890334e+01
2.810000e-06	4.027321e-06	1.142824e-09	2.799276e+01	7.927563e+01
2.820000e-06	4.059079e-06	1.149331e-09	2.821350e+01	7.963601e+01
2.830000e-06	4.090640e-06	1.152369e-09	2.843287e+01	7.998462e+01
2.840000e-06	4.122001e-06	1.152435e-09	2.865085e+01	8.032159e+01
2.850000e-06	4.153142e-06	1.153066e-09	2.886730e+01	8.064712e+01
2.860000e-06	4.183941e-06	1.158410e-09	2.908138e+01	8.096146e+01
2.870000e-06	4.214310e-06	1.166114e-09	2.929246e+01	8.126490e+01
2.880000e-06	4.244400e-06	1.172938e-09	2.950161e+01	8.155774e+01
2.890000e-06	4.274294e-06	1.179502e-09	2.970940e+01	8.184036e+01
2.900000e-06	4.303943e-06	1.185976e-09	2.991548e+01	8.211315e+01
