# Temperatura_=_12.5
# Concentracion g/m^3_=_1620.0
# C_Vs_to_Am_M_A/Vsm_=_65563218390.804596
# pendiente_HvsI_1/m_=_3716.3
# ordenada_HvsI_A/m_=_1297.0
# frecuencia_Hz_=_135102.69049200768

Tiempo_(s)	Campo_(V.s)	Magnetizacion_(V.s)	Campo_(kA/m)	Magnetizacion_(A/m)
0.000000e+00	-5.530414e-06	-8.390401e-10	-3.836725e+01	-5.561155e+01
1.000000e-08	-5.530616e-06	-8.393489e-10	-3.836865e+01	-5.561344e+01
2.000000e-08	-5.530531e-06	-8.411051e-10	-3.836806e+01	-5.561539e+01
3.000000e-08	-5.530060e-06	-8.425336e-10	-3.836480e+01	-5.561723e+01
4.000000e-08	-5.529007e-06	-8.412209e-10	-3.835748e+01	-5.561878e+01
5.000000e-08	-5.527308e-06	-8.374807e-10	-3.834570e+01	-5.561985e+01
6.000000e-08	-5.524957e-06	-8.222022e-10	-3.832939e+01	-5.562024e+01
7.000000e-08	-5.521979e-06	-8.034267e-10	-3.830873e+01	-5.561972e+01
8.000000e-08	-5.518524e-06	-8.224054e-10	-3.828476e+01	-5.561810e+01
9.000000e-08	-5.514729e-06	-8.957733e-10	-3.825844e+01	-5.561514e+01
1.000000e-07	-5.510503e-06	-9.242714e-10	-3.822912e+01	-5.561064e+01
1.100000e-07	-5.505916e-06	-8.329787e-10	-3.819730e+01	-5.560439e+01
1.200000e-07	-5.501235e-06	-7.521719e-10	-3.816482e+01	-5.559616e+01
1.300000e-07	-5.496368e-06	-8.078165e-10	-3.813105e+01	-5.558576e+01
1.400000e-07	-5.491052e-06	-8.802809e-10	-3.809418e+01	-5.557301e+01
1.500000e-07	-5.485245e-06	-8.329019e-10	-3.805388e+01	-5.555773e+01
1.600000e-07	-5.479143e-06	-7.532684e-10	-3.801156e+01	-5.553974e+01
1.700000e-07	-5.472699e-06	-8.168590e-10	-3.796685e+01	-5.551891e+01
1.800000e-07	-5.465777e-06	-8.927641e-10	-3.791883e+01	-5.549511e+01
1.900000e-07	-5.458489e-06	-8.465996e-10	-3.786827e+01	-5.546822e+01
2.000000e-07	-5.450958e-06	-7.590914e-10	-3.781602e+01	-5.543814e+01
2.100000e-07	-5.443179e-06	-8.027369e-10	-3.776205e+01	-5.540482e+01
2.200000e-07	-5.435005e-06	-8.801031e-10	-3.770535e+01	-5.536819e+01
2.300000e-07	-5.426536e-06	-8.803274e-10	-3.764659e+01	-5.532822e+01
2.400000e-07	-5.417706e-06	-8.332781e-10	-3.758534e+01	-5.528491e+01
2.500000e-07	-5.408113e-06	-8.452146e-10	-3.751878e+01	-5.523825e+01
2.600000e-07	-5.397725e-06	-8.755501e-10	-3.744672e+01	-5.518829e+01
2.700000e-07	-5.386806e-06	-8.673047e-10	-3.737097e+01	-5.513505e+01
2.800000e-07	-5.375469e-06	-8.511769e-10	-3.729232e+01	-5.507862e+01
2.900000e-07	-5.363743e-06	-8.670654e-10	-3.721097e+01	-5.501906e+01
3.000000e-07	-5.351691e-06	-8.905094e-10	-3.712736e+01	-5.495648e+01
3.100000e-07	-5.339303e-06	-8.667798e-10	-3.704142e+01	-5.489096e+01
3.200000e-07	-5.326478e-06	-8.396636e-10	-3.695244e+01	-5.482264e+01
3.300000e-07	-5.313217e-06	-8.346863e-10	-3.686044e+01	-5.475163e+01
3.400000e-07	-5.299634e-06	-8.548742e-10	-3.676621e+01	-5.467807e+01
3.500000e-07	-5.285744e-06	-8.344454e-10	-3.666985e+01	-5.460208e+01
3.600000e-07	-5.271282e-06	-8.248803e-10	-3.656952e+01	-5.452382e+01
3.700000e-07	-5.256215e-06	-8.506292e-10	-3.646499e+01	-5.444341e+01
3.800000e-07	-5.240659e-06	-8.673886e-10	-3.635707e+01	-5.436098e+01
3.900000e-07	-5.224568e-06	-8.243130e-10	-3.624544e+01	-5.427668e+01
4.000000e-07	-5.208039e-06	-8.280907e-10	-3.613077e+01	-5.419063e+01
4.100000e-07	-5.191227e-06	-8.653132e-10	-3.601414e+01	-5.410294e+01
4.200000e-07	-5.174117e-06	-8.370976e-10	-3.589544e+01	-5.401372e+01
4.300000e-07	-5.156727e-06	-7.917566e-10	-3.577480e+01	-5.392306e+01
4.400000e-07	-5.139037e-06	-8.467429e-10	-3.565207e+01	-5.383106e+01
4.500000e-07	-5.120845e-06	-8.653300e-10	-3.552586e+01	-5.373778e+01
4.600000e-07	-5.102157e-06	-7.994387e-10	-3.539621e+01	-5.364328e+01
4.700000e-07	-5.083090e-06	-7.985667e-10	-3.526394e+01	-5.354761e+01
4.800000e-07	-5.063741e-06	-8.599528e-10	-3.512970e+01	-5.345078e+01
4.900000e-07	-5.044218e-06	-8.273457e-10	-3.499426e+01	-5.335282e+01
5.000000e-07	-5.024487e-06	-7.945014e-10	-3.485738e+01	-5.325371e+01
5.100000e-07	-5.004483e-06	-8.366798e-10	-3.471860e+01	-5.315344e+01
5.200000e-07	-4.984204e-06	-8.268323e-10	-3.457792e+01	-5.305198e+01
5.300000e-07	-4.963466e-06	-7.807326e-10	-3.443405e+01	-5.294928e+01
5.400000e-07	-4.942254e-06	-8.209066e-10	-3.428689e+01	-5.284528e+01
5.500000e-07	-4.920772e-06	-8.433155e-10	-3.413786e+01	-5.273992e+01
5.600000e-07	-4.899060e-06	-7.824705e-10	-3.398723e+01	-5.263311e+01
5.700000e-07	-4.877024e-06	-7.836502e-10	-3.383435e+01	-5.252477e+01
5.800000e-07	-4.854636e-06	-8.276281e-10	-3.367904e+01	-5.241480e+01
5.900000e-07	-4.831825e-06	-7.962249e-10	-3.352079e+01	-5.230311e+01
6.000000e-07	-4.808632e-06	-7.689094e-10	-3.335989e+01	-5.218960e+01
6.100000e-07	-4.785236e-06	-8.071245e-10	-3.319757e+01	-5.207417e+01
6.200000e-07	-4.761650e-06	-7.955919e-10	-3.303395e+01	-5.195671e+01
6.300000e-07	-4.737820e-06	-7.629358e-10	-3.286863e+01	-5.183713e+01
6.400000e-07	-4.713752e-06	-7.806255e-10	-3.270165e+01	-5.171533e+01
6.500000e-07	-4.689318e-06	-7.903250e-10	-3.253215e+01	-5.159125e+01
6.600000e-07	-4.664299e-06	-7.596140e-10	-3.235858e+01	-5.146479e+01
6.700000e-07	-4.638614e-06	-7.645415e-10	-3.218038e+01	-5.133590e+01
6.800000e-07	-4.612388e-06	-7.767806e-10	-3.199844e+01	-5.120452e+01
6.900000e-07	-4.585750e-06	-7.627563e-10	-3.181364e+01	-5.107061e+01
7.000000e-07	-4.558735e-06	-7.582465e-10	-3.162622e+01	-5.093415e+01
7.100000e-07	-4.531416e-06	-7.732966e-10	-3.143670e+01	-5.079513e+01
7.200000e-07	-4.503858e-06	-7.653466e-10	-3.124551e+01	-5.065356e+01
7.300000e-07	-4.476175e-06	-7.560791e-10	-3.105347e+01	-5.050945e+01
7.400000e-07	-4.448331e-06	-7.589655e-10	-3.086030e+01	-5.036285e+01
7.500000e-07	-4.420223e-06	-7.559904e-10	-3.066530e+01	-5.021381e+01
7.600000e-07	-4.391768e-06	-7.443034e-10	-3.046789e+01	-5.006240e+01
7.700000e-07	-4.362910e-06	-7.480192e-10	-3.026769e+01	-4.990871e+01
7.800000e-07	-4.333755e-06	-7.498976e-10	-3.006542e+01	-4.975284e+01
7.900000e-07	-4.304376e-06	-7.452238e-10	-2.986161e+01	-4.959490e+01
8.000000e-07	-4.274763e-06	-7.464651e-10	-2.965617e+01	-4.943502e+01
8.100000e-07	-4.244812e-06	-7.464228e-10	-2.944838e+01	-4.927333e+01
8.200000e-07	-4.214530e-06	-7.371724e-10	-2.923830e+01	-4.910998e+01
8.300000e-07	-4.183988e-06	-7.328222e-10	-2.902642e+01	-4.894512e+01
8.400000e-07	-4.153093e-06	-7.355740e-10	-2.881208e+01	-4.877890e+01
8.500000e-07	-4.121848e-06	-7.275088e-10	-2.859532e+01	-4.861148e+01
8.600000e-07	-4.090418e-06	-7.235666e-10	-2.837727e+01	-4.844302e+01
8.700000e-07	-4.058905e-06	-7.284117e-10	-2.815866e+01	-4.827366e+01
8.800000e-07	-4.027203e-06	-7.263459e-10	-2.793872e+01	-4.810355e+01
8.900000e-07	-3.995210e-06	-7.171607e-10	-2.771677e+01	-4.793283e+01
9.000000e-07	-3.962955e-06	-7.166002e-10	-2.749300e+01	-4.776163e+01
9.100000e-07	-3.930410e-06	-7.104683e-10	-2.726722e+01	-4.759006e+01
9.200000e-07	-3.897373e-06	-7.005506e-10	-2.703802e+01	-4.741822e+01
9.300000e-07	-3.863869e-06	-7.022113e-10	-2.680559e+01	-4.724620e+01
9.400000e-07	-3.830055e-06	-7.071673e-10	-2.657101e+01	-4.707405e+01
9.500000e-07	-3.795840e-06	-6.987320e-10	-2.633364e+01	-4.690182e+01
9.600000e-07	-3.761176e-06	-6.935796e-10	-2.609316e+01	-4.672953e+01
9.700000e-07	-3.726108e-06	-6.928990e-10	-2.584987e+01	-4.655716e+01
9.800000e-07	-3.690736e-06	-6.881318e-10	-2.560448e+01	-4.638468e+01
9.900000e-07	-3.655198e-06	-6.822534e-10	-2.535794e+01	-4.621205e+01
1.000000e-06	-3.619576e-06	-6.840805e-10	-2.511081e+01	-4.603916e+01
1.010000e-06	-3.583877e-06	-6.841856e-10	-2.486315e+01	-4.586591e+01
1.020000e-06	-3.548017e-06	-6.825934e-10	-2.461437e+01	-4.569216e+01
1.030000e-06	-3.511945e-06	-6.804628e-10	-2.436412e+01	-4.551775e+01
1.040000e-06	-3.475639e-06	-6.739740e-10	-2.411225e+01	-4.534248e+01
1.050000e-06	-3.439017e-06	-6.615775e-10	-2.385818e+01	-4.516614e+01
1.060000e-06	-3.402076e-06	-6.563255e-10	-2.360190e+01	-4.498848e+01
1.070000e-06	-3.364893e-06	-6.576180e-10	-2.334395e+01	-4.480925e+01
1.080000e-06	-3.327444e-06	-6.565304e-10	-2.308414e+01	-4.462816e+01
1.090000e-06	-3.289743e-06	-6.543484e-10	-2.282259e+01	-4.444493e+01
1.100000e-06	-3.251814e-06	-6.535773e-10	-2.255946e+01	-4.425923e+01
1.110000e-06	-3.213645e-06	-6.477372e-10	-2.229466e+01	-4.407074e+01
1.120000e-06	-3.175220e-06	-6.378137e-10	-2.202809e+01	-4.387913e+01
1.130000e-06	-3.136606e-06	-6.308568e-10	-2.176021e+01	-4.368405e+01
1.140000e-06	-3.097866e-06	-6.248454e-10	-2.149144e+01	-4.348516e+01
1.150000e-06	-3.058903e-06	-6.184784e-10	-2.122114e+01	-4.328211e+01
1.160000e-06	-3.019749e-06	-6.125935e-10	-2.094951e+01	-4.307457e+01
1.170000e-06	-2.980353e-06	-6.116787e-10	-2.067620e+01	-4.286219e+01
1.180000e-06	-2.940782e-06	-6.115333e-10	-2.040167e+01	-4.264464e+01
1.190000e-06	-2.901185e-06	-6.097149e-10	-2.012697e+01	-4.242161e+01
1.200000e-06	-2.861473e-06	-6.067183e-10	-1.985147e+01	-4.219279e+01
1.210000e-06	-2.821577e-06	-6.032961e-10	-1.957469e+01	-4.195789e+01
1.220000e-06	-2.781542e-06	-5.977934e-10	-1.929695e+01	-4.171666e+01
1.230000e-06	-2.741329e-06	-5.933503e-10	-1.901797e+01	-4.146883e+01
1.240000e-06	-2.700848e-06	-5.875043e-10	-1.873713e+01	-4.121419e+01
1.250000e-06	-2.660081e-06	-5.806413e-10	-1.845431e+01	-4.095254e+01
1.260000e-06	-2.619073e-06	-5.762416e-10	-1.816982e+01	-4.068370e+01
1.270000e-06	-2.577814e-06	-5.765291e-10	-1.788359e+01	-4.040753e+01
1.280000e-06	-2.536291e-06	-5.738948e-10	-1.759552e+01	-4.012391e+01
1.290000e-06	-2.494524e-06	-5.694257e-10	-1.730576e+01	-3.983273e+01
1.300000e-06	-2.452420e-06	-5.636667e-10	-1.701366e+01	-3.953394e+01
1.310000e-06	-2.409979e-06	-5.569681e-10	-1.671923e+01	-3.922748e+01
1.320000e-06	-2.367240e-06	-5.504042e-10	-1.642272e+01	-3.891336e+01
1.330000e-06	-2.324258e-06	-5.490574e-10	-1.612454e+01	-3.859155e+01
1.340000e-06	-2.281116e-06	-5.492834e-10	-1.582524e+01	-3.826211e+01
1.350000e-06	-2.237835e-06	-5.460825e-10	-1.552498e+01	-3.792506e+01
1.360000e-06	-2.194421e-06	-5.407134e-10	-1.522380e+01	-3.758048e+01
1.370000e-06	-2.150872e-06	-5.352641e-10	-1.492168e+01	-3.722843e+01
1.380000e-06	-2.107187e-06	-5.295362e-10	-1.461861e+01	-3.686900e+01
1.390000e-06	-2.063409e-06	-5.248460e-10	-1.431490e+01	-3.650228e+01
1.400000e-06	-2.019577e-06	-5.217397e-10	-1.401082e+01	-3.612837e+01
1.410000e-06	-1.975703e-06	-5.177449e-10	-1.370644e+01	-3.574737e+01
1.420000e-06	-1.931788e-06	-5.132701e-10	-1.340178e+01	-3.535935e+01
1.430000e-06	-1.887729e-06	-5.085093e-10	-1.309612e+01	-3.496441e+01
1.440000e-06	-1.843483e-06	-5.023117e-10	-1.278916e+01	-3.456262e+01
1.450000e-06	-1.799133e-06	-4.919586e-10	-1.248148e+01	-3.415403e+01
1.460000e-06	-1.754729e-06	-4.810655e-10	-1.217343e+01	-3.373868e+01
1.470000e-06	-1.710215e-06	-4.700752e-10	-1.186461e+01	-3.331657e+01
1.480000e-06	-1.665406e-06	-4.605388e-10	-1.155376e+01	-3.288771e+01
1.490000e-06	-1.620422e-06	-4.546631e-10	-1.124168e+01	-3.245205e+01
1.500000e-06	-1.575387e-06	-4.517305e-10	-1.092925e+01	-3.200950e+01
1.510000e-06	-1.530243e-06	-4.486650e-10	-1.061606e+01	-3.155998e+01
1.520000e-06	-1.484954e-06	-4.437610e-10	-1.030187e+01	-3.110333e+01
1.530000e-06	-1.439517e-06	-4.353206e-10	-9.986648e+00	-3.063938e+01
1.540000e-06	-1.394081e-06	-4.254491e-10	-9.671437e+00	-3.016790e+01
1.550000e-06	-1.348626e-06	-4.137535e-10	-9.356094e+00	-2.968864e+01
1.560000e-06	-1.303098e-06	-4.035555e-10	-9.040240e+00	-2.920130e+01
1.570000e-06	-1.257448e-06	-3.947243e-10	-8.723544e+00	-2.870554e+01
1.580000e-06	-1.211643e-06	-3.878749e-10	-8.405773e+00	-2.820099e+01
1.590000e-06	-1.165734e-06	-3.813726e-10	-8.087280e+00	-2.768725e+01
1.600000e-06	-1.119761e-06	-3.752874e-10	-7.768341e+00	-2.716386e+01
1.610000e-06	-1.073728e-06	-3.680267e-10	-7.448991e+00	-2.663036e+01
1.620000e-06	-1.027625e-06	-3.600825e-10	-7.129150e+00	-2.608624e+01
1.630000e-06	-9.815199e-07	-3.497169e-10	-6.809294e+00	-2.553098e+01
1.640000e-06	-9.353788e-07	-3.347777e-10	-6.489190e+00	-2.496403e+01
1.650000e-06	-8.891563e-07	-3.210333e-10	-6.168522e+00	-2.438483e+01
1.660000e-06	-8.428300e-07	-3.101979e-10	-5.847133e+00	-2.379281e+01
1.670000e-06	-7.963501e-07	-3.018934e-10	-5.524679e+00	-2.318740e+01
1.680000e-06	-7.498883e-07	-2.951639e-10	-5.202350e+00	-2.256801e+01
1.690000e-06	-7.034049e-07	-2.904781e-10	-4.879872e+00	-2.193409e+01
1.700000e-06	-6.567321e-07	-2.830666e-10	-4.556079e+00	-2.128508e+01
1.710000e-06	-6.100518e-07	-2.720055e-10	-4.232234e+00	-2.062045e+01
1.720000e-06	-5.634418e-07	-2.604832e-10	-3.908878e+00	-1.993969e+01
1.730000e-06	-5.168268e-07	-2.508049e-10	-3.585486e+00	-1.924233e+01
1.740000e-06	-4.701542e-07	-2.395339e-10	-3.261695e+00	-1.852795e+01
1.750000e-06	-4.233603e-07	-2.273897e-10	-2.937062e+00	-1.779614e+01
1.760000e-06	-3.764619e-07	-2.165821e-10	-2.611705e+00	-1.704659e+01
1.770000e-06	-3.295028e-07	-2.066911e-10	-2.285926e+00	-1.627901e+01
1.780000e-06	-2.824949e-07	-1.972062e-10	-1.959809e+00	-1.549320e+01
1.790000e-06	-2.354141e-07	-1.849160e-10	-1.633185e+00	-1.468902e+01
1.800000e-06	-1.883680e-07	-1.699023e-10	-1.306803e+00	-1.386639e+01
1.810000e-06	-1.413819e-07	-1.557960e-10	-9.808370e-01	-1.302534e+01
1.820000e-06	-9.440845e-08	-1.442488e-10	-6.549586e-01	-1.216596e+01
1.830000e-06	-4.750316e-08	-1.335399e-10	-3.295531e-01	-1.128843e+01
1.840000e-06	-5.635836e-10	-1.211310e-10	-3.909862e-03	-1.039302e+01
1.850000e-06	4.641539e-08	-1.103297e-10	3.220068e-01	-9.480087e+00
1.860000e-06	9.337827e-08	-9.875644e-11	6.478118e-01	-8.550092e+00
1.870000e-06	1.403465e-07	-8.378993e-11	9.736540e-01	-7.603575e+00
1.880000e-06	1.873155e-07	-6.938362e-11	1.299501e+00	-6.641171e+00
1.890000e-06	2.342633e-07	-5.614342e-11	1.625202e+00	-5.663607e+00
1.900000e-06	2.810901e-07	-4.257863e-11	1.950063e+00	-4.671697e+00
1.910000e-06	3.279013e-07	-2.827117e-11	2.274816e+00	-3.666342e+00
1.920000e-06	3.747462e-07	-1.609205e-11	2.599802e+00	-2.648525e+00
1.930000e-06	4.215021e-07	-4.237350e-12	2.924171e+00	-1.619307e+00
1.940000e-06	4.681869e-07	8.153642e-12	3.248046e+00	-5.798249e-01
1.950000e-06	5.149678e-07	2.171146e-11	3.572589e+00	4.687194e-01
1.960000e-06	5.617722e-07	3.676419e-11	3.897295e+00	1.525060e+00
1.970000e-06	6.084387e-07	5.131813e-11	4.221043e+00	2.587878e+00
1.980000e-06	6.550090e-07	6.515309e-11	4.544125e+00	3.655803e+00
1.990000e-06	7.014472e-07	7.940971e-11	4.866290e+00	4.727428e+00
2.000000e-06	7.478516e-07	9.452405e-11	5.188220e+00	5.801311e+00
2.010000e-06	7.942837e-07	1.084439e-10	5.510344e+00	6.875987e+00
2.020000e-06	8.406504e-07	1.207236e-10	5.832012e+00	7.949978e+00
2.030000e-06	8.869605e-07	1.343580e-10	6.153289e+00	9.021797e+00
2.040000e-06	9.331599e-07	1.482079e-10	6.473797e+00	1.008996e+01
2.050000e-06	9.792833e-07	1.619025e-10	6.793778e+00	1.115300e+01
2.060000e-06	1.025360e-06	1.763693e-10	7.113436e+00	1.220945e+01
2.070000e-06	1.071327e-06	1.923897e-10	7.432330e+00	1.325791e+01
2.080000e-06	1.117194e-06	2.084891e-10	7.750534e+00	1.429699e+01
2.090000e-06	1.162995e-06	2.217908e-10	8.068278e+00	1.532534e+01
2.100000e-06	1.208742e-06	2.337628e-10	8.385645e+00	1.634168e+01
2.110000e-06	1.254366e-06	2.455623e-10	8.702162e+00	1.734480e+01
2.120000e-06	1.299878e-06	2.579854e-10	9.017905e+00	1.833354e+01
2.130000e-06	1.345246e-06	2.709107e-10	9.332644e+00	1.930682e+01
2.140000e-06	1.390579e-06	2.821139e-10	9.647145e+00	2.026364e+01
2.150000e-06	1.435931e-06	2.918306e-10	9.961769e+00	2.120309e+01
2.160000e-06	1.481182e-06	3.041686e-10	1.027570e+01	2.212434e+01
2.170000e-06	1.526313e-06	3.193073e-10	1.058880e+01	2.302667e+01
2.180000e-06	1.571354e-06	3.327499e-10	1.090127e+01	2.390944e+01
2.190000e-06	1.616328e-06	3.434705e-10	1.121327e+01	2.477212e+01
2.200000e-06	1.661147e-06	3.525526e-10	1.152421e+01	2.561427e+01
2.210000e-06	1.705755e-06	3.619915e-10	1.183368e+01	2.643556e+01
2.220000e-06	1.750196e-06	3.731530e-10	1.214198e+01	2.723576e+01
2.230000e-06	1.794545e-06	3.848053e-10	1.244966e+01	2.801472e+01
2.240000e-06	1.838754e-06	3.966084e-10	1.275636e+01	2.877241e+01
2.250000e-06	1.882815e-06	4.077103e-10	1.306203e+01	2.950888e+01
2.260000e-06	1.926758e-06	4.180748e-10	1.336688e+01	3.022427e+01
2.270000e-06	1.970592e-06	4.273472e-10	1.367098e+01	3.091881e+01
2.280000e-06	2.014371e-06	4.370643e-10	1.397470e+01	3.159282e+01
2.290000e-06	2.058109e-06	4.464831e-10	1.427813e+01	3.224667e+01
2.300000e-06	2.101794e-06	4.537699e-10	1.458120e+01	3.288083e+01
2.310000e-06	2.145381e-06	4.615518e-10	1.488358e+01	3.349582e+01
2.320000e-06	2.188875e-06	4.709730e-10	1.518532e+01	3.409221e+01
2.330000e-06	2.232325e-06	4.796575e-10	1.548676e+01	3.467062e+01
2.340000e-06	2.275655e-06	4.882687e-10	1.578736e+01	3.523172e+01
2.350000e-06	2.318782e-06	4.961249e-10	1.608655e+01	3.577623e+01
2.360000e-06	2.361749e-06	5.030981e-10	1.638464e+01	3.630486e+01
2.370000e-06	2.404462e-06	5.103155e-10	1.668096e+01	3.681836e+01
2.380000e-06	2.446868e-06	5.179915e-10	1.697515e+01	3.731750e+01
2.390000e-06	2.489054e-06	5.264242e-10	1.726781e+01	3.780305e+01
2.400000e-06	2.530998e-06	5.342197e-10	1.755880e+01	3.827575e+01
2.410000e-06	2.572564e-06	5.424151e-10	1.784716e+01	3.873637e+01
2.420000e-06	2.613790e-06	5.504086e-10	1.813317e+01	3.918565e+01
2.430000e-06	2.654684e-06	5.567014e-10	1.841687e+01	3.962428e+01
2.440000e-06	2.695218e-06	5.629944e-10	1.869807e+01	4.005297e+01
2.450000e-06	2.735525e-06	5.704478e-10	1.897771e+01	4.047235e+01
2.460000e-06	2.775634e-06	5.778343e-10	1.925596e+01	4.088305e+01
2.470000e-06	2.815607e-06	5.849596e-10	1.953327e+01	4.128562e+01
2.480000e-06	2.855445e-06	5.918685e-10	1.980965e+01	4.168059e+01
2.490000e-06	2.895144e-06	5.990048e-10	2.008506e+01	4.206843e+01
2.500000e-06	2.934754e-06	6.053401e-10	2.035986e+01	4.244956e+01
2.510000e-06	2.974231e-06	6.090082e-10	2.063373e+01	4.282435e+01
2.520000e-06	3.013570e-06	6.124242e-10	2.090664e+01	4.319311e+01
2.530000e-06	3.052789e-06	6.186781e-10	2.117872e+01	4.355609e+01
2.540000e-06	3.091829e-06	6.242447e-10	2.144956e+01	4.391351e+01
2.550000e-06	3.130596e-06	6.280049e-10	2.171851e+01	4.426550e+01
2.560000e-06	3.169044e-06	6.337589e-10	2.198524e+01	4.461218e+01
2.570000e-06	3.207176e-06	6.403647e-10	2.224978e+01	4.495357e+01
2.580000e-06	3.245132e-06	6.464679e-10	2.251310e+01	4.528970e+01
2.590000e-06	3.282976e-06	6.511079e-10	2.277565e+01	4.562050e+01
2.600000e-06	3.320603e-06	6.535144e-10	2.303668e+01	4.594591e+01
2.610000e-06	3.358060e-06	6.560020e-10	2.329654e+01	4.626580e+01
2.620000e-06	3.395301e-06	6.604478e-10	2.355490e+01	4.658002e+01
2.630000e-06	3.432234e-06	6.654090e-10	2.381112e+01	4.688839e+01
2.640000e-06	3.468878e-06	6.692552e-10	2.406534e+01	4.719071e+01
2.650000e-06	3.505205e-06	6.728898e-10	2.431736e+01	4.748677e+01
2.660000e-06	3.541239e-06	6.771296e-10	2.456735e+01	4.777634e+01
2.670000e-06	3.577055e-06	6.809710e-10	2.481582e+01	4.805917e+01
2.680000e-06	3.612762e-06	6.844140e-10	2.506354e+01	4.833504e+01
2.690000e-06	3.648370e-06	6.892108e-10	2.531057e+01	4.860371e+01
2.700000e-06	3.683894e-06	6.950184e-10	2.555701e+01	4.886494e+01
2.710000e-06	3.719288e-06	7.004602e-10	2.580256e+01	4.911854e+01
2.720000e-06	3.754399e-06	7.052357e-10	2.604615e+01	4.936429e+01
2.730000e-06	3.789161e-06	7.078241e-10	2.628730e+01	4.960203e+01
2.740000e-06	3.823575e-06	7.083273e-10	2.652605e+01	4.983161e+01
2.750000e-06	3.857631e-06	7.105354e-10	2.676232e+01	5.005290e+01
2.760000e-06	3.891197e-06	7.141498e-10	2.699518e+01	5.026581e+01
2.770000e-06	3.924200e-06	7.181989e-10	2.722414e+01	5.047030e+01
2.780000e-06	3.956779e-06	7.248519e-10	2.745015e+01	5.066633e+01
2.790000e-06	3.989034e-06	7.311061e-10	2.767392e+01	5.085392e+01
2.800000e-06	4.021007e-06	7.352042e-10	2.789574e+01	5.103314e+01
2.810000e-06	4.052760e-06	7.383548e-10	2.811602e+01	5.120407e+01
2.820000e-06	4.084348e-06	7.387693e-10	2.833516e+01	5.136684e+01
2.830000e-06	4.115778e-06	7.379517e-10	2.855321e+01	5.152164e+01
2.840000e-06	4.147070e-06	7.361161e-10	2.877030e+01	5.166866e+01
2.850000e-06	4.178145e-06	7.362412e-10	2.898588e+01	5.180814e+01
2.860000e-06	4.208879e-06	7.392882e-10	2.919910e+01	5.194038e+01
2.870000e-06	4.239214e-06	7.428294e-10	2.940955e+01	5.206566e+01
2.880000e-06	4.269130e-06	7.478782e-10	2.961709e+01	5.218434e+01
2.890000e-06	4.298791e-06	7.530767e-10	2.982287e+01	5.229677e+01
2.900000e-06	4.328194e-06	7.576861e-10	3.002684e+01	5.240335e+01
