# Temperatura_=_11.39
# Concentracion g/m^3_=_1620.0
# C_Vs_to_Am_M_A/Vsm_=_65563218390.804596
# pendiente_HvsI_1/m_=_3716.3
# ordenada_HvsI_A/m_=_1297.0
# frecuencia_Hz_=_135105.23039472307

Tiempo_(s)	Campo_(V.s)	Magnetizacion_(V.s)	Campo_(kA/m)	Magnetizacion_(A/m)
0.000000e+00	-5.524521e-06	-7.692396e-10	-3.837354e+01	-5.078111e+01
1.000000e-08	-5.524739e-06	-7.685501e-10	-3.837505e+01	-5.074507e+01
2.000000e-08	-5.524649e-06	-7.690673e-10	-3.837443e+01	-5.070686e+01
3.000000e-08	-5.524189e-06	-7.702695e-10	-3.837123e+01	-5.066653e+01
4.000000e-08	-5.523360e-06	-7.702945e-10	-3.836548e+01	-5.062412e+01
5.000000e-08	-5.521968e-06	-7.657675e-10	-3.835581e+01	-5.057969e+01
6.000000e-08	-5.519935e-06	-7.491517e-10	-3.834168e+01	-5.053329e+01
7.000000e-08	-5.517241e-06	-7.237883e-10	-3.832298e+01	-5.048500e+01
8.000000e-08	-5.513973e-06	-7.410634e-10	-3.830027e+01	-5.043489e+01
9.000000e-08	-5.510370e-06	-8.317293e-10	-3.827525e+01	-5.038305e+01
1.000000e-07	-5.506321e-06	-8.444716e-10	-3.824712e+01	-5.032956e+01
1.100000e-07	-5.501832e-06	-7.232706e-10	-3.821594e+01	-5.027454e+01
1.200000e-07	-5.497223e-06	-6.482779e-10	-3.818393e+01	-5.021809e+01
1.300000e-07	-5.492392e-06	-7.315082e-10	-3.815037e+01	-5.016033e+01
1.400000e-07	-5.487065e-06	-7.994126e-10	-3.811337e+01	-5.010137e+01
1.500000e-07	-5.481270e-06	-7.231676e-10	-3.807312e+01	-5.004135e+01
1.600000e-07	-5.475209e-06	-6.620073e-10	-3.803102e+01	-4.998039e+01
1.700000e-07	-5.468887e-06	-7.613600e-10	-3.798711e+01	-4.991863e+01
1.800000e-07	-5.462068e-06	-8.042667e-10	-3.793974e+01	-4.985621e+01
1.900000e-07	-5.454848e-06	-7.317491e-10	-3.788959e+01	-4.979326e+01
2.000000e-07	-5.447385e-06	-6.528656e-10	-3.783775e+01	-4.972993e+01
2.100000e-07	-5.439627e-06	-7.145036e-10	-3.778387e+01	-4.966634e+01
2.200000e-07	-5.431573e-06	-7.618343e-10	-3.772792e+01	-4.960264e+01
2.300000e-07	-5.423267e-06	-7.475555e-10	-3.767022e+01	-4.953895e+01
2.400000e-07	-5.414531e-06	-7.146126e-10	-3.760955e+01	-4.947540e+01
2.500000e-07	-5.405078e-06	-7.389980e-10	-3.754388e+01	-4.941210e+01
2.600000e-07	-5.394876e-06	-7.574922e-10	-3.747302e+01	-4.934916e+01
2.700000e-07	-5.384154e-06	-7.536721e-10	-3.739855e+01	-4.928667e+01
2.800000e-07	-5.373002e-06	-7.526526e-10	-3.732109e+01	-4.922472e+01
2.900000e-07	-5.361357e-06	-7.632600e-10	-3.724020e+01	-4.916338e+01
3.000000e-07	-5.349388e-06	-7.773041e-10	-3.715706e+01	-4.910271e+01
3.100000e-07	-5.337078e-06	-7.577809e-10	-3.707156e+01	-4.904275e+01
3.200000e-07	-5.324256e-06	-7.439923e-10	-3.698250e+01	-4.898351e+01
3.300000e-07	-5.310996e-06	-7.335175e-10	-3.689039e+01	-4.892502e+01
3.400000e-07	-5.297443e-06	-7.675481e-10	-3.679625e+01	-4.886725e+01
3.500000e-07	-5.283568e-06	-7.509960e-10	-3.669987e+01	-4.881018e+01
3.600000e-07	-5.269201e-06	-7.472789e-10	-3.660008e+01	-4.875375e+01
3.700000e-07	-5.254290e-06	-7.586428e-10	-3.649651e+01	-4.869791e+01
3.800000e-07	-5.238924e-06	-7.686087e-10	-3.638977e+01	-4.864255e+01
3.900000e-07	-5.223041e-06	-7.146379e-10	-3.627945e+01	-4.858757e+01
4.000000e-07	-5.206604e-06	-7.329433e-10	-3.616528e+01	-4.853284e+01
4.100000e-07	-5.189888e-06	-7.691561e-10	-3.604917e+01	-4.847823e+01
4.200000e-07	-5.172873e-06	-7.327095e-10	-3.593098e+01	-4.842356e+01
4.300000e-07	-5.155543e-06	-6.973103e-10	-3.581060e+01	-4.836867e+01
4.400000e-07	-5.137940e-06	-7.656658e-10	-3.568834e+01	-4.831337e+01
4.500000e-07	-5.119865e-06	-7.646233e-10	-3.556278e+01	-4.825744e+01
4.600000e-07	-5.101278e-06	-6.922064e-10	-3.543368e+01	-4.820068e+01
4.700000e-07	-5.082274e-06	-7.107646e-10	-3.530168e+01	-4.814287e+01
4.800000e-07	-5.063003e-06	-7.627301e-10	-3.516782e+01	-4.808377e+01
4.900000e-07	-5.043518e-06	-7.139800e-10	-3.503248e+01	-4.802314e+01
5.000000e-07	-5.023883e-06	-7.040648e-10	-3.489609e+01	-4.796076e+01
5.100000e-07	-5.004071e-06	-7.486642e-10	-3.475848e+01	-4.789639e+01
5.200000e-07	-4.983897e-06	-7.101782e-10	-3.461835e+01	-4.782979e+01
5.300000e-07	-4.963316e-06	-6.753687e-10	-3.447539e+01	-4.776073e+01
5.400000e-07	-4.942406e-06	-7.322237e-10	-3.433015e+01	-4.768899e+01
5.500000e-07	-4.921100e-06	-7.318940e-10	-3.418215e+01	-4.761437e+01
5.600000e-07	-4.899375e-06	-6.730081e-10	-3.403126e+01	-4.753666e+01
5.700000e-07	-4.877389e-06	-7.051288e-10	-3.387854e+01	-4.745569e+01
5.800000e-07	-4.855127e-06	-7.331272e-10	-3.372391e+01	-4.737128e+01
5.900000e-07	-4.832448e-06	-6.843291e-10	-3.356638e+01	-4.728329e+01
6.000000e-07	-4.809377e-06	-6.784298e-10	-3.340613e+01	-4.719160e+01
6.100000e-07	-4.786005e-06	-7.178055e-10	-3.324378e+01	-4.709610e+01
6.200000e-07	-4.762454e-06	-6.883014e-10	-3.308019e+01	-4.699673e+01
6.300000e-07	-4.738740e-06	-6.705378e-10	-3.291548e+01	-4.689342e+01
6.400000e-07	-4.714857e-06	-6.973533e-10	-3.274958e+01	-4.678616e+01
6.500000e-07	-4.690661e-06	-6.949619e-10	-3.258152e+01	-4.667495e+01
6.600000e-07	-4.665799e-06	-6.683922e-10	-3.240882e+01	-4.655982e+01
6.700000e-07	-4.640339e-06	-6.859563e-10	-3.223198e+01	-4.644083e+01
6.800000e-07	-4.614356e-06	-6.854847e-10	-3.205150e+01	-4.631807e+01
6.900000e-07	-4.587757e-06	-6.673571e-10	-3.186674e+01	-4.619166e+01
7.000000e-07	-4.560702e-06	-6.702450e-10	-3.167882e+01	-4.606174e+01
7.100000e-07	-4.533355e-06	-6.815698e-10	-3.148886e+01	-4.592848e+01
7.200000e-07	-4.505790e-06	-6.658057e-10	-3.129740e+01	-4.579207e+01
7.300000e-07	-4.478084e-06	-6.650539e-10	-3.110495e+01	-4.565273e+01
7.400000e-07	-4.450252e-06	-6.713567e-10	-3.091163e+01	-4.551068e+01
7.500000e-07	-4.422203e-06	-6.659292e-10	-3.071680e+01	-4.536619e+01
7.600000e-07	-4.393825e-06	-6.579638e-10	-3.051968e+01	-4.521952e+01
7.700000e-07	-4.365093e-06	-6.620771e-10	-3.032011e+01	-4.507096e+01
7.800000e-07	-4.336037e-06	-6.578572e-10	-3.011828e+01	-4.492079e+01
7.900000e-07	-4.306671e-06	-6.525369e-10	-2.991431e+01	-4.476930e+01
8.000000e-07	-4.277032e-06	-6.545727e-10	-2.970843e+01	-4.461681e+01
8.100000e-07	-4.247142e-06	-6.541548e-10	-2.950082e+01	-4.446360e+01
8.200000e-07	-4.217004e-06	-6.484334e-10	-2.929148e+01	-4.430998e+01
8.300000e-07	-4.186554e-06	-6.520695e-10	-2.907997e+01	-4.415624e+01
8.400000e-07	-4.155722e-06	-6.545026e-10	-2.886581e+01	-4.400264e+01
8.500000e-07	-4.124633e-06	-6.464554e-10	-2.864987e+01	-4.384946e+01
8.600000e-07	-4.093367e-06	-6.435558e-10	-2.843269e+01	-4.369693e+01
8.700000e-07	-4.061899e-06	-6.433521e-10	-2.821411e+01	-4.354529e+01
8.800000e-07	-4.030258e-06	-6.398547e-10	-2.799433e+01	-4.339474e+01
8.900000e-07	-3.998469e-06	-6.369026e-10	-2.777352e+01	-4.324545e+01
9.000000e-07	-3.966456e-06	-6.418258e-10	-2.755116e+01	-4.309757e+01
9.100000e-07	-3.934130e-06	-6.360935e-10	-2.732662e+01	-4.295120e+01
9.200000e-07	-3.901361e-06	-6.285223e-10	-2.709901e+01	-4.280645e+01
9.300000e-07	-3.868094e-06	-6.292809e-10	-2.686794e+01	-4.266334e+01
9.400000e-07	-3.834418e-06	-6.327481e-10	-2.663402e+01	-4.252190e+01
9.500000e-07	-3.800203e-06	-6.272409e-10	-2.639636e+01	-4.238208e+01
9.600000e-07	-3.765465e-06	-6.312844e-10	-2.615507e+01	-4.224383e+01
9.700000e-07	-3.730442e-06	-6.371333e-10	-2.591180e+01	-4.210705e+01
9.800000e-07	-3.695199e-06	-6.357634e-10	-2.566700e+01	-4.197159e+01
9.900000e-07	-3.659730e-06	-6.293127e-10	-2.542063e+01	-4.183727e+01
1.000000e-06	-3.624127e-06	-6.291046e-10	-2.517333e+01	-4.170388e+01
1.010000e-06	-3.588406e-06	-6.224258e-10	-2.492521e+01	-4.157116e+01
1.020000e-06	-3.552555e-06	-6.160985e-10	-2.467619e+01	-4.143885e+01
1.030000e-06	-3.516607e-06	-6.165386e-10	-2.442649e+01	-4.130661e+01
1.040000e-06	-3.480457e-06	-6.193599e-10	-2.417539e+01	-4.117410e+01
1.050000e-06	-3.443960e-06	-6.148692e-10	-2.392188e+01	-4.104097e+01
1.060000e-06	-3.407096e-06	-6.126384e-10	-2.366583e+01	-4.090681e+01
1.070000e-06	-3.369958e-06	-6.124461e-10	-2.340786e+01	-4.077122e+01
1.080000e-06	-3.332608e-06	-6.094515e-10	-2.314843e+01	-4.063377e+01
1.090000e-06	-3.295029e-06	-6.050254e-10	-2.288740e+01	-4.049402e+01
1.100000e-06	-3.257270e-06	-6.017513e-10	-2.262513e+01	-4.035153e+01
1.110000e-06	-3.219311e-06	-5.964015e-10	-2.236146e+01	-4.020584e+01
1.120000e-06	-3.181028e-06	-5.896550e-10	-2.209555e+01	-4.005651e+01
1.130000e-06	-3.142460e-06	-5.900068e-10	-2.182765e+01	-3.990308e+01
1.140000e-06	-3.103659e-06	-5.904663e-10	-2.155814e+01	-3.974512e+01
1.150000e-06	-3.064600e-06	-5.864549e-10	-2.128684e+01	-3.958219e+01
1.160000e-06	-3.025348e-06	-5.816686e-10	-2.101419e+01	-3.941390e+01
1.170000e-06	-2.986001e-06	-5.787208e-10	-2.074088e+01	-3.923983e+01
1.180000e-06	-2.946525e-06	-5.755037e-10	-2.046668e+01	-3.905963e+01
1.190000e-06	-2.906943e-06	-5.733193e-10	-2.019174e+01	-3.887295e+01
1.200000e-06	-2.867304e-06	-5.725890e-10	-1.991641e+01	-3.867946e+01
1.210000e-06	-2.827533e-06	-5.714991e-10	-1.964016e+01	-3.847889e+01
1.220000e-06	-2.787583e-06	-5.665534e-10	-1.936266e+01	-3.827097e+01
1.230000e-06	-2.747383e-06	-5.642680e-10	-1.908343e+01	-3.805548e+01
1.240000e-06	-2.707028e-06	-5.600442e-10	-1.880313e+01	-3.783225e+01
1.250000e-06	-2.666577e-06	-5.540431e-10	-1.852215e+01	-3.760112e+01
1.260000e-06	-2.625887e-06	-5.490823e-10	-1.823951e+01	-3.736197e+01
1.270000e-06	-2.584879e-06	-5.485908e-10	-1.795467e+01	-3.711473e+01
1.280000e-06	-2.543492e-06	-5.460693e-10	-1.766720e+01	-3.685937e+01
1.290000e-06	-2.501838e-06	-5.412681e-10	-1.737787e+01	-3.659587e+01
1.300000e-06	-2.459936e-06	-5.369670e-10	-1.708681e+01	-3.632426e+01
1.310000e-06	-2.417687e-06	-5.322828e-10	-1.679335e+01	-3.604460e+01
1.320000e-06	-2.375106e-06	-5.240861e-10	-1.649758e+01	-3.575697e+01
1.330000e-06	-2.332195e-06	-5.170508e-10	-1.619952e+01	-3.546149e+01
1.340000e-06	-2.289045e-06	-5.125135e-10	-1.589980e+01	-3.515829e+01
1.350000e-06	-2.245726e-06	-5.097295e-10	-1.559890e+01	-3.484753e+01
1.360000e-06	-2.202300e-06	-5.081797e-10	-1.529726e+01	-3.452937e+01
1.370000e-06	-2.158793e-06	-5.071962e-10	-1.499506e+01	-3.420400e+01
1.380000e-06	-2.115172e-06	-5.044442e-10	-1.469207e+01	-3.387160e+01
1.390000e-06	-2.071463e-06	-4.996116e-10	-1.438846e+01	-3.353236e+01
1.400000e-06	-2.027713e-06	-4.924988e-10	-1.408457e+01	-3.318648e+01
1.410000e-06	-1.983927e-06	-4.825174e-10	-1.378044e+01	-3.283412e+01
1.420000e-06	-1.940053e-06	-4.728740e-10	-1.347568e+01	-3.247546e+01
1.430000e-06	-1.896089e-06	-4.683845e-10	-1.317031e+01	-3.211066e+01
1.440000e-06	-1.852034e-06	-4.694263e-10	-1.286430e+01	-3.173985e+01
1.450000e-06	-1.807864e-06	-4.686542e-10	-1.255750e+01	-3.136313e+01
1.460000e-06	-1.763527e-06	-4.625771e-10	-1.224953e+01	-3.098059e+01
1.470000e-06	-1.718984e-06	-4.539820e-10	-1.194013e+01	-3.059228e+01
1.480000e-06	-1.674280e-06	-4.445267e-10	-1.162961e+01	-3.019821e+01
1.490000e-06	-1.629524e-06	-4.347421e-10	-1.131874e+01	-2.979835e+01
1.500000e-06	-1.584678e-06	-4.270747e-10	-1.100723e+01	-2.939264e+01
1.510000e-06	-1.539677e-06	-4.217167e-10	-1.069466e+01	-2.898096e+01
1.520000e-06	-1.494546e-06	-4.195673e-10	-1.038117e+01	-2.856316e+01
1.530000e-06	-1.449238e-06	-4.139012e-10	-1.006647e+01	-2.813903e+01
1.540000e-06	-1.403734e-06	-4.046824e-10	-9.750394e+00	-2.770834e+01
1.550000e-06	-1.358129e-06	-3.959747e-10	-9.433620e+00	-2.727077e+01
1.560000e-06	-1.312532e-06	-3.875580e-10	-9.116899e+00	-2.682600e+01
1.570000e-06	-1.266918e-06	-3.783375e-10	-8.800063e+00	-2.637363e+01
1.580000e-06	-1.221255e-06	-3.705571e-10	-8.482885e+00	-2.591323e+01
1.590000e-06	-1.175559e-06	-3.650723e-10	-8.165480e+00	-2.544434e+01
1.600000e-06	-1.129795e-06	-3.594233e-10	-7.847601e+00	-2.496644e+01
1.610000e-06	-1.083949e-06	-3.532995e-10	-7.529150e+00	-2.447900e+01
1.620000e-06	-1.037938e-06	-3.475196e-10	-7.209560e+00	-2.398144e+01
1.630000e-06	-9.917369e-07	-3.391095e-10	-6.888644e+00	-2.347317e+01
1.640000e-06	-9.454969e-07	-3.274761e-10	-6.567459e+00	-2.295356e+01
1.650000e-06	-8.992997e-07	-3.148452e-10	-6.246572e+00	-2.242199e+01
1.660000e-06	-8.530256e-07	-3.045687e-10	-5.925150e+00	-2.187782e+01
1.670000e-06	-8.065731e-07	-2.959534e-10	-5.602488e+00	-2.132041e+01
1.680000e-06	-7.601661e-07	-2.890842e-10	-5.280144e+00	-2.074911e+01
1.690000e-06	-7.137783e-07	-2.847559e-10	-4.957933e+00	-2.016330e+01
1.700000e-06	-6.673044e-07	-2.793072e-10	-4.635123e+00	-1.956237e+01
1.710000e-06	-6.208334e-07	-2.680216e-10	-4.312333e+00	-1.894574e+01
1.720000e-06	-5.743279e-07	-2.542136e-10	-3.989305e+00	-1.831285e+01
1.730000e-06	-5.277003e-07	-2.411804e-10	-3.665427e+00	-1.766318e+01
1.740000e-06	-4.809355e-07	-2.288911e-10	-3.340597e+00	-1.699628e+01
1.750000e-06	-4.341430e-07	-2.187318e-10	-3.015575e+00	-1.631172e+01
1.760000e-06	-3.873442e-07	-2.099944e-10	-2.690508e+00	-1.560914e+01
1.770000e-06	-3.405057e-07	-2.010838e-10	-2.365166e+00	-1.488826e+01
1.780000e-06	-2.936121e-07	-1.921009e-10	-2.039442e+00	-1.414884e+01
1.790000e-06	-2.466732e-07	-1.812692e-10	-1.713402e+00	-1.339074e+01
1.800000e-06	-1.997922e-07	-1.663006e-10	-1.387765e+00	-1.261390e+01
1.810000e-06	-1.529696e-07	-1.474745e-10	-1.062533e+00	-1.181832e+01
1.820000e-06	-1.061150e-07	-1.282345e-10	-7.370792e-01	-1.100411e+01
1.830000e-06	-5.924915e-08	-1.121976e-10	-4.115470e-01	-1.017147e+01
1.840000e-06	-1.235542e-08	-9.909575e-11	-8.582123e-02	-9.320675e+00
1.850000e-06	3.455112e-08	-9.041154e-11	2.399934e-01	-8.452113e+00
1.860000e-06	8.151132e-08	-8.329378e-11	5.661809e-01	-7.566257e+00
1.870000e-06	1.284411e-07	-7.340387e-11	8.921570e-01	-6.663674e+00
1.880000e-06	1.753219e-07	-6.029735e-11	1.217793e+00	-5.745028e+00
1.890000e-06	2.222375e-07	-4.335526e-11	1.543670e+00	-4.811072e+00
1.900000e-06	2.691117e-07	-2.448559e-11	1.869261e+00	-3.862650e+00
1.910000e-06	3.159516e-07	-6.423882e-12	2.194612e+00	-2.900693e+00
1.920000e-06	3.627626e-07	9.608739e-12	2.519764e+00	-1.926212e+00
1.930000e-06	4.095564e-07	2.103154e-11	2.844795e+00	-9.402970e-01
1.940000e-06	4.562440e-07	2.853391e-11	3.169089e+00	5.588848e-02
1.950000e-06	5.028729e-07	3.516970e-11	3.492975e+00	1.061116e+00
1.960000e-06	5.494728e-07	4.601022e-11	3.816660e+00	2.074096e+00
1.970000e-06	5.959827e-07	6.093414e-11	4.139719e+00	3.093486e+00
1.980000e-06	6.424901e-07	7.864797e-11	4.462762e+00	4.117899e+00
1.990000e-06	6.889648e-07	9.825882e-11	4.785576e+00	5.145910e+00
2.000000e-06	7.353735e-07	1.164756e-10	5.107933e+00	6.176063e+00
2.010000e-06	7.817061e-07	1.300599e-10	5.429761e+00	7.206882e+00
2.020000e-06	8.279875e-07	1.405198e-10	5.751234e+00	8.236880e+00
2.030000e-06	8.742014e-07	1.515588e-10	6.072238e+00	9.264565e+00
2.040000e-06	9.203086e-07	1.654221e-10	6.392500e+00	1.028845e+01
2.050000e-06	9.663739e-07	1.814282e-10	6.712471e+00	1.130707e+01
2.060000e-06	1.012385e-06	1.969133e-10	7.032063e+00	1.231896e+01
2.070000e-06	1.058333e-06	2.116541e-10	7.351223e+00	1.332272e+01
2.080000e-06	1.104211e-06	2.261119e-10	7.669891e+00	1.431697e+01
2.090000e-06	1.149992e-06	2.389477e-10	7.987889e+00	1.530038e+01
2.100000e-06	1.195768e-06	2.497982e-10	8.305850e+00	1.627167e+01
2.110000e-06	1.241452e-06	2.602785e-10	8.623172e+00	1.722964e+01
2.120000e-06	1.287022e-06	2.723116e-10	8.939703e+00	1.817314e+01
2.130000e-06	1.332548e-06	2.856264e-10	9.255932e+00	1.910110e+01
2.140000e-06	1.377938e-06	2.978739e-10	9.571214e+00	2.001254e+01
2.150000e-06	1.423160e-06	3.090156e-10	9.885326e+00	2.090657e+01
2.160000e-06	1.468307e-06	3.195600e-10	1.019892e+01	2.178236e+01
2.170000e-06	1.513412e-06	3.305588e-10	1.051222e+01	2.263920e+01
2.180000e-06	1.558407e-06	3.417623e-10	1.082476e+01	2.347647e+01
2.190000e-06	1.603290e-06	3.530082e-10	1.113652e+01	2.429365e+01
2.200000e-06	1.647998e-06	3.640875e-10	1.144706e+01	2.509030e+01
2.210000e-06	1.692546e-06	3.738696e-10	1.175649e+01	2.586609e+01
2.220000e-06	1.736945e-06	3.819772e-10	1.206489e+01	2.662080e+01
2.230000e-06	1.781209e-06	3.904497e-10	1.237235e+01	2.735429e+01
2.240000e-06	1.825421e-06	4.005731e-10	1.267944e+01	2.806653e+01
2.250000e-06	1.869561e-06	4.103699e-10	1.298604e+01	2.875755e+01
2.260000e-06	1.913579e-06	4.188130e-10	1.329180e+01	2.942752e+01
2.270000e-06	1.957460e-06	4.254848e-10	1.359659e+01	3.007664e+01
2.280000e-06	2.001220e-06	4.313340e-10	1.390055e+01	3.070523e+01
2.290000e-06	2.044939e-06	4.376381e-10	1.420423e+01	3.131367e+01
2.300000e-06	2.088624e-06	4.438254e-10	1.450767e+01	3.190240e+01
2.310000e-06	2.132251e-06	4.522167e-10	1.481070e+01	3.247195e+01
2.320000e-06	2.175759e-06	4.628455e-10	1.511291e+01	3.302287e+01
2.330000e-06	2.219102e-06	4.726220e-10	1.541397e+01	3.355579e+01
2.340000e-06	2.262435e-06	4.787712e-10	1.571496e+01	3.407137e+01
2.350000e-06	2.305664e-06	4.826581e-10	1.601523e+01	3.457031e+01
2.360000e-06	2.348587e-06	4.880552e-10	1.631338e+01	3.505334e+01
2.370000e-06	2.391280e-06	4.947797e-10	1.660993e+01	3.552121e+01
2.380000e-06	2.433828e-06	5.017227e-10	1.690546e+01	3.597467e+01
2.390000e-06	2.476065e-06	5.104220e-10	1.719884e+01	3.641451e+01
2.400000e-06	2.517855e-06	5.202447e-10	1.748912e+01	3.684148e+01
2.410000e-06	2.559328e-06	5.285998e-10	1.777719e+01	3.725636e+01
2.420000e-06	2.600523e-06	5.369788e-10	1.806333e+01	3.765990e+01
2.430000e-06	2.641416e-06	5.451753e-10	1.834738e+01	3.805283e+01
2.440000e-06	2.682084e-06	5.525379e-10	1.862986e+01	3.843585e+01
2.450000e-06	2.722518e-06	5.599584e-10	1.891072e+01	3.880965e+01
2.460000e-06	2.762687e-06	5.661629e-10	1.918973e+01	3.917488e+01
2.470000e-06	2.802638e-06	5.716896e-10	1.946723e+01	3.953213e+01
2.480000e-06	2.842413e-06	5.774676e-10	1.974351e+01	3.988197e+01
2.490000e-06	2.882104e-06	5.838816e-10	2.001921e+01	4.022492e+01
2.500000e-06	2.921732e-06	5.911465e-10	2.029446e+01	4.056146e+01
2.510000e-06	2.961268e-06	5.985342e-10	2.056909e+01	4.089199e+01
2.520000e-06	3.000651e-06	6.048551e-10	2.084264e+01	4.121689e+01
2.530000e-06	3.039783e-06	6.104421e-10	2.111445e+01	4.153648e+01
2.540000e-06	3.078679e-06	6.153922e-10	2.138463e+01	4.185102e+01
2.550000e-06	3.117332e-06	6.187454e-10	2.165311e+01	4.216072e+01
2.560000e-06	3.155707e-06	6.229550e-10	2.191967e+01	4.246575e+01
2.570000e-06	3.193848e-06	6.286295e-10	2.218460e+01	4.276621e+01
2.580000e-06	3.231838e-06	6.337067e-10	2.244847e+01	4.306217e+01
2.590000e-06	3.269716e-06	6.361360e-10	2.271158e+01	4.335365e+01
2.600000e-06	3.307463e-06	6.370984e-10	2.297377e+01	4.364062e+01
2.610000e-06	3.344952e-06	6.401506e-10	2.323417e+01	4.392303e+01
2.620000e-06	3.382243e-06	6.460202e-10	2.349319e+01	4.420077e+01
2.630000e-06	3.419288e-06	6.531319e-10	2.375051e+01	4.447371e+01
2.640000e-06	3.455983e-06	6.584156e-10	2.400540e+01	4.474170e+01
2.650000e-06	3.492423e-06	6.603567e-10	2.425851e+01	4.500454e+01
2.660000e-06	3.528545e-06	6.604265e-10	2.450942e+01	4.526204e+01
2.670000e-06	3.564429e-06	6.589945e-10	2.475867e+01	4.551398e+01
2.680000e-06	3.600198e-06	6.578286e-10	2.500712e+01	4.576014e+01
2.690000e-06	3.635863e-06	6.601401e-10	2.525485e+01	4.600027e+01
2.700000e-06	3.671418e-06	6.657947e-10	2.550182e+01	4.623415e+01
2.710000e-06	3.706820e-06	6.727584e-10	2.574772e+01	4.646153e+01
2.720000e-06	3.742050e-06	6.805071e-10	2.599243e+01	4.668220e+01
2.730000e-06	3.776974e-06	6.874995e-10	2.623501e+01	4.689593e+01
2.740000e-06	3.811497e-06	6.907251e-10	2.647481e+01	4.710253e+01
2.750000e-06	3.845588e-06	6.921603e-10	2.671161e+01	4.730182e+01
2.760000e-06	3.879225e-06	6.932620e-10	2.694525e+01	4.749362e+01
2.770000e-06	3.912400e-06	6.945013e-10	2.717569e+01	4.767780e+01
2.780000e-06	3.945085e-06	6.978660e-10	2.740272e+01	4.785425e+01
2.790000e-06	3.977296e-06	7.030108e-10	2.762645e+01	4.802288e+01
2.800000e-06	4.009209e-06	7.091520e-10	2.784812e+01	4.818364e+01
2.810000e-06	4.040962e-06	7.123168e-10	2.806868e+01	4.833649e+01
2.820000e-06	4.072559e-06	7.124737e-10	2.828815e+01	4.848146e+01
2.830000e-06	4.104028e-06	7.114421e-10	2.850674e+01	4.861858e+01
2.840000e-06	4.135321e-06	7.110924e-10	2.872410e+01	4.874792e+01
2.850000e-06	4.166349e-06	7.121408e-10	2.893962e+01	4.886959e+01
2.860000e-06	4.197033e-06	7.148159e-10	2.915275e+01	4.898373e+01
2.870000e-06	4.227298e-06	7.183902e-10	2.936298e+01	4.909050e+01
2.880000e-06	4.257222e-06	7.205593e-10	2.957083e+01	4.919009e+01
2.890000e-06	4.286959e-06	7.225142e-10	2.977739e+01	4.928275e+01
2.900000e-06	4.316493e-06	7.235284e-10	2.998253e+01	4.936871e+01
