# Temperatura_=_14.6
# Concentracion g/m^3_=_1620.0
# C_Vs_to_Am_M_A/Vsm_=_65563218390.804596
# pendiente_HvsI_1/m_=_3716.3
# ordenada_HvsI_A/m_=_1297.0
# frecuencia_Hz_=_135102.40346294254

Tiempo_(s)	Campo_(V.s)	Magnetizacion_(V.s)	Campo_(kA/m)	Magnetizacion_(A/m)
0.000000e+00	-5.531549e-06	-8.559882e-10	-3.836644e+01	-5.728629e+01
1.000000e-08	-5.531763e-06	-8.580782e-10	-3.836792e+01	-5.730343e+01
2.000000e-08	-5.531788e-06	-8.587759e-10	-3.836810e+01	-5.732134e+01
3.000000e-08	-5.531609e-06	-8.613641e-10	-3.836686e+01	-5.733982e+01
4.000000e-08	-5.531074e-06	-8.580435e-10	-3.836315e+01	-5.735866e+01
5.000000e-08	-5.529926e-06	-8.541983e-10	-3.835519e+01	-5.737759e+01
6.000000e-08	-5.528131e-06	-8.495570e-10	-3.834274e+01	-5.739638e+01
7.000000e-08	-5.525696e-06	-8.430417e-10	-3.832585e+01	-5.741474e+01
8.000000e-08	-5.522663e-06	-8.553067e-10	-3.830481e+01	-5.743239e+01
9.000000e-08	-5.519204e-06	-8.494394e-10	-3.828082e+01	-5.744902e+01
1.000000e-07	-5.515344e-06	-8.190671e-10	-3.825405e+01	-5.746434e+01
1.100000e-07	-5.511161e-06	-8.528373e-10	-3.822503e+01	-5.747805e+01
1.200000e-07	-5.506692e-06	-8.993435e-10	-3.819404e+01	-5.748983e+01
1.300000e-07	-5.501894e-06	-8.075349e-10	-3.816076e+01	-5.749938e+01
1.400000e-07	-5.496835e-06	-7.997408e-10	-3.812567e+01	-5.750640e+01
1.500000e-07	-5.491390e-06	-7.937442e-10	-3.808790e+01	-5.751061e+01
1.600000e-07	-5.485586e-06	-8.912726e-10	-3.804765e+01	-5.751172e+01
1.700000e-07	-5.479460e-06	-8.301340e-10	-3.800516e+01	-5.750946e+01
1.800000e-07	-5.472933e-06	-8.239241e-10	-3.795989e+01	-5.750360e+01
1.900000e-07	-5.465988e-06	-8.723130e-10	-3.791172e+01	-5.749389e+01
2.000000e-07	-5.458614e-06	-8.992646e-10	-3.786057e+01	-5.748012e+01
2.100000e-07	-5.450905e-06	-8.600064e-10	-3.780710e+01	-5.746211e+01
2.200000e-07	-5.443045e-06	-8.258638e-10	-3.775259e+01	-5.743969e+01
2.300000e-07	-5.434904e-06	-8.869574e-10	-3.769612e+01	-5.741270e+01
2.400000e-07	-5.426304e-06	-9.102540e-10	-3.763647e+01	-5.738105e+01
2.500000e-07	-5.417155e-06	-9.235309e-10	-3.757302e+01	-5.734462e+01
2.600000e-07	-5.407408e-06	-8.855516e-10	-3.750541e+01	-5.730335e+01
2.700000e-07	-5.397014e-06	-9.178189e-10	-3.743332e+01	-5.725721e+01
2.800000e-07	-5.385891e-06	-8.904895e-10	-3.735617e+01	-5.720618e+01
2.900000e-07	-5.374300e-06	-9.085539e-10	-3.727577e+01	-5.715025e+01
3.000000e-07	-5.362401e-06	-8.810593e-10	-3.719325e+01	-5.708947e+01
3.100000e-07	-5.350138e-06	-9.130540e-10	-3.710819e+01	-5.702390e+01
3.200000e-07	-5.337469e-06	-9.037048e-10	-3.702032e+01	-5.695359e+01
3.300000e-07	-5.324452e-06	-9.388047e-10	-3.693004e+01	-5.687866e+01
3.400000e-07	-5.311141e-06	-8.946814e-10	-3.683771e+01	-5.679921e+01
3.500000e-07	-5.297456e-06	-8.956889e-10	-3.674279e+01	-5.671537e+01
3.600000e-07	-5.283326e-06	-8.957870e-10	-3.664478e+01	-5.662729e+01
3.700000e-07	-5.268737e-06	-8.918490e-10	-3.654360e+01	-5.653512e+01
3.800000e-07	-5.253532e-06	-8.530178e-10	-3.643813e+01	-5.643903e+01
3.900000e-07	-5.237888e-06	-9.144659e-10	-3.632963e+01	-5.633917e+01
4.000000e-07	-5.221806e-06	-9.268341e-10	-3.621809e+01	-5.623575e+01
4.100000e-07	-5.205161e-06	-8.515444e-10	-3.610264e+01	-5.612892e+01
4.200000e-07	-5.188175e-06	-8.610452e-10	-3.598482e+01	-5.601887e+01
4.300000e-07	-5.170952e-06	-9.365246e-10	-3.586536e+01	-5.590579e+01
4.400000e-07	-5.153406e-06	-8.710174e-10	-3.574367e+01	-5.578983e+01
4.500000e-07	-5.135451e-06	-8.025597e-10	-3.561914e+01	-5.567118e+01
4.600000e-07	-5.117098e-06	-9.136971e-10	-3.549184e+01	-5.555000e+01
4.700000e-07	-5.098304e-06	-9.085313e-10	-3.536148e+01	-5.542643e+01
4.800000e-07	-5.079148e-06	-8.011562e-10	-3.522862e+01	-5.530063e+01
4.900000e-07	-5.059740e-06	-8.533522e-10	-3.509400e+01	-5.517272e+01
5.000000e-07	-5.040117e-06	-9.447308e-10	-3.495791e+01	-5.504282e+01
5.100000e-07	-5.020184e-06	-8.172940e-10	-3.481965e+01	-5.491105e+01
5.200000e-07	-4.999858e-06	-8.062248e-10	-3.467867e+01	-5.477749e+01
5.300000e-07	-4.979333e-06	-9.059400e-10	-3.453631e+01	-5.464222e+01
5.400000e-07	-4.958548e-06	-8.539800e-10	-3.439215e+01	-5.450532e+01
5.500000e-07	-4.937347e-06	-7.736409e-10	-3.424510e+01	-5.436684e+01
5.600000e-07	-4.915831e-06	-8.915022e-10	-3.409586e+01	-5.422681e+01
5.700000e-07	-4.893937e-06	-8.754550e-10	-3.394401e+01	-5.408527e+01
5.800000e-07	-4.871641e-06	-7.774235e-10	-3.378936e+01	-5.394224e+01
5.900000e-07	-4.849023e-06	-8.282537e-10	-3.363249e+01	-5.379772e+01
6.000000e-07	-4.825996e-06	-8.804299e-10	-3.347278e+01	-5.365171e+01
6.100000e-07	-4.802614e-06	-7.755657e-10	-3.331060e+01	-5.350420e+01
6.200000e-07	-4.779078e-06	-7.927612e-10	-3.314735e+01	-5.335518e+01
6.300000e-07	-4.755347e-06	-8.514627e-10	-3.298276e+01	-5.320463e+01
6.400000e-07	-4.731400e-06	-7.964122e-10	-3.281666e+01	-5.305253e+01
6.500000e-07	-4.707150e-06	-7.765906e-10	-3.264847e+01	-5.289885e+01
6.600000e-07	-4.682422e-06	-8.461829e-10	-3.247695e+01	-5.274357e+01
6.700000e-07	-4.657198e-06	-8.127746e-10	-3.230200e+01	-5.258666e+01
6.800000e-07	-4.631426e-06	-7.712579e-10	-3.212325e+01	-5.242812e+01
6.900000e-07	-4.605073e-06	-8.082329e-10	-3.194047e+01	-5.226792e+01
7.000000e-07	-4.578249e-06	-8.019316e-10	-3.175442e+01	-5.210605e+01
7.100000e-07	-4.551083e-06	-7.598725e-10	-3.156600e+01	-5.194253e+01
7.200000e-07	-4.523671e-06	-7.830139e-10	-3.137587e+01	-5.177735e+01
7.300000e-07	-4.495997e-06	-7.953364e-10	-3.118393e+01	-5.161053e+01
7.400000e-07	-4.468083e-06	-7.647064e-10	-3.099031e+01	-5.144211e+01
7.500000e-07	-4.440027e-06	-7.803024e-10	-3.079572e+01	-5.127212e+01
7.600000e-07	-4.411783e-06	-7.929892e-10	-3.059982e+01	-5.110061e+01
7.700000e-07	-4.383211e-06	-7.687540e-10	-3.040165e+01	-5.092765e+01
7.800000e-07	-4.354263e-06	-7.604892e-10	-3.020087e+01	-5.075330e+01
7.900000e-07	-4.324987e-06	-7.768887e-10	-2.999781e+01	-5.057765e+01
8.000000e-07	-4.295368e-06	-7.522675e-10	-2.979238e+01	-5.040078e+01
8.100000e-07	-4.265483e-06	-7.502016e-10	-2.958510e+01	-5.022281e+01
8.200000e-07	-4.235406e-06	-7.701364e-10	-2.937648e+01	-5.004384e+01
8.300000e-07	-4.205059e-06	-7.702481e-10	-2.916600e+01	-4.986398e+01
8.400000e-07	-4.174355e-06	-7.465579e-10	-2.895304e+01	-4.968337e+01
8.500000e-07	-4.143310e-06	-7.600602e-10	-2.873771e+01	-4.950211e+01
8.600000e-07	-4.111966e-06	-7.571528e-10	-2.852031e+01	-4.932034e+01
8.700000e-07	-4.080390e-06	-7.381393e-10	-2.830130e+01	-4.913819e+01
8.800000e-07	-4.048664e-06	-7.366129e-10	-2.808126e+01	-4.895578e+01
8.900000e-07	-4.016809e-06	-7.525728e-10	-2.786031e+01	-4.877322e+01
9.000000e-07	-3.984816e-06	-7.361052e-10	-2.763841e+01	-4.859064e+01
9.100000e-07	-3.952536e-06	-7.317460e-10	-2.741452e+01	-4.840814e+01
9.200000e-07	-3.919825e-06	-7.375815e-10	-2.718763e+01	-4.822580e+01
9.300000e-07	-3.886704e-06	-7.295170e-10	-2.695791e+01	-4.804372e+01
9.400000e-07	-3.853175e-06	-7.141872e-10	-2.672536e+01	-4.786195e+01
9.500000e-07	-3.819234e-06	-7.257622e-10	-2.648994e+01	-4.768054e+01
9.600000e-07	-3.784864e-06	-7.266225e-10	-2.625156e+01	-4.749953e+01
9.700000e-07	-3.750036e-06	-7.138465e-10	-2.600999e+01	-4.731893e+01
9.800000e-07	-3.714884e-06	-7.174521e-10	-2.576618e+01	-4.713871e+01
9.900000e-07	-3.679547e-06	-7.245182e-10	-2.552109e+01	-4.695884e+01
1.000000e-06	-3.644000e-06	-7.138209e-10	-2.527453e+01	-4.677926e+01
1.010000e-06	-3.608232e-06	-7.077974e-10	-2.502645e+01	-4.659989e+01
1.020000e-06	-3.572308e-06	-7.138211e-10	-2.477728e+01	-4.642061e+01
1.030000e-06	-3.536296e-06	-7.061442e-10	-2.452750e+01	-4.624128e+01
1.040000e-06	-3.500154e-06	-6.967590e-10	-2.427683e+01	-4.606173e+01
1.050000e-06	-3.463706e-06	-6.968249e-10	-2.402403e+01	-4.588178e+01
1.060000e-06	-3.426945e-06	-6.921492e-10	-2.376905e+01	-4.570120e+01
1.070000e-06	-3.389903e-06	-6.774950e-10	-2.351214e+01	-4.551976e+01
1.080000e-06	-3.352647e-06	-6.785704e-10	-2.325373e+01	-4.533720e+01
1.090000e-06	-3.315120e-06	-6.803649e-10	-2.299344e+01	-4.515321e+01
1.100000e-06	-3.277328e-06	-6.754854e-10	-2.273132e+01	-4.496751e+01
1.110000e-06	-3.239403e-06	-6.673242e-10	-2.246827e+01	-4.477976e+01
1.120000e-06	-3.201293e-06	-6.660291e-10	-2.220395e+01	-4.458961e+01
1.130000e-06	-3.162967e-06	-6.549490e-10	-2.193812e+01	-4.439673e+01
1.140000e-06	-3.124413e-06	-6.493938e-10	-2.167071e+01	-4.420073e+01
1.150000e-06	-3.085654e-06	-6.487075e-10	-2.140188e+01	-4.400125e+01
1.160000e-06	-3.046555e-06	-6.504424e-10	-2.113070e+01	-4.379790e+01
1.170000e-06	-3.007112e-06	-6.454893e-10	-2.085712e+01	-4.359031e+01
1.180000e-06	-2.967536e-06	-6.455048e-10	-2.058263e+01	-4.337807e+01
1.190000e-06	-2.927872e-06	-6.415905e-10	-2.030752e+01	-4.316082e+01
1.200000e-06	-2.888079e-06	-6.341067e-10	-2.003152e+01	-4.293817e+01
1.210000e-06	-2.848200e-06	-6.267056e-10	-1.975492e+01	-4.270977e+01
1.220000e-06	-2.808275e-06	-6.249167e-10	-1.947801e+01	-4.247524e+01
1.230000e-06	-2.768177e-06	-6.201724e-10	-1.919989e+01	-4.223426e+01
1.240000e-06	-2.727841e-06	-6.197784e-10	-1.892012e+01	-4.198648e+01
1.250000e-06	-2.687351e-06	-6.203147e-10	-1.863928e+01	-4.173161e+01
1.260000e-06	-2.646589e-06	-6.180567e-10	-1.835656e+01	-4.146935e+01
1.270000e-06	-2.605480e-06	-6.139880e-10	-1.807143e+01	-4.119944e+01
1.280000e-06	-2.564058e-06	-6.093214e-10	-1.778413e+01	-4.092163e+01
1.290000e-06	-2.522343e-06	-6.030505e-10	-1.749480e+01	-4.063570e+01
1.300000e-06	-2.480366e-06	-5.931314e-10	-1.720364e+01	-4.034146e+01
1.310000e-06	-2.438169e-06	-5.856309e-10	-1.691097e+01	-4.003873e+01
1.320000e-06	-2.395694e-06	-5.817141e-10	-1.661637e+01	-3.972737e+01
1.330000e-06	-2.352878e-06	-5.805173e-10	-1.631940e+01	-3.940726e+01
1.340000e-06	-2.309842e-06	-5.795241e-10	-1.602090e+01	-3.907830e+01
1.350000e-06	-2.266654e-06	-5.791082e-10	-1.572136e+01	-3.874043e+01
1.360000e-06	-2.223297e-06	-5.731453e-10	-1.542064e+01	-3.839358e+01
1.370000e-06	-2.179759e-06	-5.647393e-10	-1.511866e+01	-3.803773e+01
1.380000e-06	-2.136060e-06	-5.550077e-10	-1.481557e+01	-3.767287e+01
1.390000e-06	-2.092251e-06	-5.472135e-10	-1.451171e+01	-3.729900e+01
1.400000e-06	-2.048378e-06	-5.393686e-10	-1.420741e+01	-3.691614e+01
1.410000e-06	-2.004459e-06	-5.350081e-10	-1.390279e+01	-3.652431e+01
1.420000e-06	-1.960495e-06	-5.301222e-10	-1.359786e+01	-3.612356e+01
1.430000e-06	-1.916396e-06	-5.263380e-10	-1.329199e+01	-3.571392e+01
1.440000e-06	-1.872178e-06	-5.202895e-10	-1.298529e+01	-3.529543e+01
1.450000e-06	-1.827874e-06	-5.148679e-10	-1.267800e+01	-3.486814e+01
1.460000e-06	-1.783464e-06	-5.057172e-10	-1.236998e+01	-3.443208e+01
1.470000e-06	-1.738925e-06	-4.952890e-10	-1.206106e+01	-3.398729e+01
1.480000e-06	-1.694258e-06	-4.845995e-10	-1.175125e+01	-3.353377e+01
1.490000e-06	-1.649478e-06	-4.762838e-10	-1.144067e+01	-3.307154e+01
1.500000e-06	-1.604551e-06	-4.692056e-10	-1.112906e+01	-3.260057e+01
1.510000e-06	-1.559493e-06	-4.623746e-10	-1.081654e+01	-3.212083e+01
1.520000e-06	-1.514344e-06	-4.547925e-10	-1.050338e+01	-3.163227e+01
1.530000e-06	-1.468967e-06	-4.452816e-10	-1.018866e+01	-3.113481e+01
1.540000e-06	-1.423422e-06	-4.319309e-10	-9.872758e+00	-3.062834e+01
1.550000e-06	-1.377893e-06	-4.185252e-10	-9.556974e+00	-3.011272e+01
1.560000e-06	-1.332343e-06	-4.062780e-10	-9.241038e+00	-2.958779e+01
1.570000e-06	-1.286704e-06	-3.966850e-10	-8.924489e+00	-2.905337e+01
1.580000e-06	-1.240960e-06	-3.891949e-10	-8.607211e+00	-2.850922e+01
1.590000e-06	-1.195081e-06	-3.828161e-10	-8.288999e+00	-2.795510e+01
1.600000e-06	-1.149093e-06	-3.750568e-10	-7.970032e+00	-2.739073e+01
1.610000e-06	-1.103037e-06	-3.659282e-10	-7.650586e+00	-2.681580e+01
1.620000e-06	-1.056877e-06	-3.549339e-10	-7.330426e+00	-2.622998e+01
1.630000e-06	-1.010708e-06	-3.425410e-10	-7.010200e+00	-2.563291e+01
1.640000e-06	-9.645422e-07	-3.311282e-10	-6.689998e+00	-2.502422e+01
1.650000e-06	-9.182942e-07	-3.175823e-10	-6.369225e+00	-2.440353e+01
1.660000e-06	-8.718568e-07	-3.059909e-10	-6.047139e+00	-2.377041e+01
1.670000e-06	-8.252560e-07	-2.956939e-10	-5.723919e+00	-2.312445e+01
1.680000e-06	-7.786912e-07	-2.905968e-10	-5.400949e+00	-2.246524e+01
1.690000e-06	-7.321608e-07	-2.838399e-10	-5.078217e+00	-2.179234e+01
1.700000e-06	-6.856150e-07	-2.765840e-10	-4.755379e+00	-2.110534e+01
1.710000e-06	-6.389667e-07	-2.667043e-10	-4.431829e+00	-2.040384e+01
1.720000e-06	-5.922498e-07	-2.543120e-10	-4.107804e+00	-1.968743e+01
1.730000e-06	-5.455586e-07	-2.403765e-10	-3.783957e+00	-1.895574e+01
1.740000e-06	-4.988822e-07	-2.294086e-10	-3.460212e+00	-1.820843e+01
1.750000e-06	-4.521514e-07	-2.205928e-10	-3.136091e+00	-1.744518e+01
1.760000e-06	-4.053396e-07	-2.115326e-10	-2.811408e+00	-1.666571e+01
1.770000e-06	-3.585070e-07	-2.015783e-10	-2.486580e+00	-1.586979e+01
1.780000e-06	-3.117033e-07	-1.913628e-10	-2.161953e+00	-1.505722e+01
1.790000e-06	-2.649007e-07	-1.784898e-10	-1.837333e+00	-1.422788e+01
1.800000e-06	-2.180666e-07	-1.632082e-10	-1.512495e+00	-1.338169e+01
1.810000e-06	-1.711373e-07	-1.487145e-10	-1.186997e+00	-1.251863e+01
1.820000e-06	-1.241035e-07	-1.341313e-10	-8.607734e-01	-1.163877e+01
1.830000e-06	-7.707875e-08	-1.202320e-10	-5.346129e-01	-1.074224e+01
1.840000e-06	-3.007788e-08	-1.078237e-10	-2.086181e-01	-9.829221e+00
1.850000e-06	1.693874e-08	-9.637397e-11	1.174860e-01	-8.900005e+00
1.860000e-06	6.398962e-08	-8.556989e-11	4.438276e-01	-7.954948e+00
1.870000e-06	1.110061e-07	-7.373872e-11	7.699309e-01	-6.994486e+00
1.880000e-06	1.579632e-07	-6.052686e-11	1.095622e+00	-6.019139e+00
1.890000e-06	2.048634e-07	-4.577935e-11	1.420919e+00	-5.029508e+00
1.900000e-06	2.516959e-07	-2.986474e-11	1.745745e+00	-4.026277e+00
1.910000e-06	2.985022e-07	-1.456883e-11	2.070391e+00	-3.010208e+00
1.920000e-06	3.453283e-07	3.497601e-12	2.395174e+00	-1.982142e+00
1.930000e-06	3.921982e-07	1.971882e-11	2.720260e+00	-9.429969e-01
1.940000e-06	4.390309e-07	3.246586e-11	3.045088e+00	1.062380e-01
1.950000e-06	4.857720e-07	4.085254e-11	3.369281e+00	1.164504e+00
1.960000e-06	5.324643e-07	4.981925e-11	3.693136e+00	2.230680e+00
1.970000e-06	5.791206e-07	5.974545e-11	4.016740e+00	3.303583e+00
1.980000e-06	6.257585e-07	7.522419e-11	4.340218e+00	4.381978e+00
1.990000e-06	6.722686e-07	9.608920e-11	4.662809e+00	5.464583e+00
2.000000e-06	7.186253e-07	1.176562e-10	4.984335e+00	6.550077e+00
2.010000e-06	7.650152e-07	1.363459e-10	5.306093e+00	7.637102e+00
2.020000e-06	8.113588e-07	1.512126e-10	5.627529e+00	8.724277e+00
2.030000e-06	8.576099e-07	1.628201e-10	5.948323e+00	9.810203e+00
2.040000e-06	9.039247e-07	1.738422e-10	6.269560e+00	1.089347e+01
2.050000e-06	9.501605e-07	1.856594e-10	6.590247e+00	1.197266e+01
2.060000e-06	9.962850e-07	2.002383e-10	6.910164e+00	1.304638e+01
2.070000e-06	1.042363e-06	2.177389e-10	7.229757e+00	1.411323e+01
2.080000e-06	1.088356e-06	2.378622e-10	7.548760e+00	1.517184e+01
2.090000e-06	1.134245e-06	2.567230e-10	7.867048e+00	1.622087e+01
2.100000e-06	1.180026e-06	2.723718e-10	8.184577e+00	1.725903e+01
2.110000e-06	1.225701e-06	2.851177e-10	8.501381e+00	1.828507e+01
2.120000e-06	1.271294e-06	2.945088e-10	8.817611e+00	1.929777e+01
2.130000e-06	1.316909e-06	3.044668e-10	9.133991e+00	2.029602e+01
2.140000e-06	1.362434e-06	3.158746e-10	9.449747e+00	2.127872e+01
2.150000e-06	1.407748e-06	3.293206e-10	9.764041e+00	2.224489e+01
2.160000e-06	1.452974e-06	3.429911e-10	1.007773e+01	2.319360e+01
2.170000e-06	1.498229e-06	3.578486e-10	1.039161e+01	2.412401e+01
2.180000e-06	1.543392e-06	3.721496e-10	1.070486e+01	2.503537e+01
2.190000e-06	1.588349e-06	3.837811e-10	1.101668e+01	2.592701e+01
2.200000e-06	1.633117e-06	3.934074e-10	1.132718e+01	2.679837e+01
2.210000e-06	1.677726e-06	4.017443e-10	1.163659e+01	2.764897e+01
2.220000e-06	1.722287e-06	4.105564e-10	1.194566e+01	2.847843e+01
2.230000e-06	1.766711e-06	4.225246e-10	1.225379e+01	2.928646e+01
2.240000e-06	1.810949e-06	4.346690e-10	1.256062e+01	3.007287e+01
2.250000e-06	1.855071e-06	4.457614e-10	1.286664e+01	3.083756e+01
2.260000e-06	1.899105e-06	4.557969e-10	1.317206e+01	3.158054e+01
2.270000e-06	1.943159e-06	4.645468e-10	1.347762e+01	3.230188e+01
2.280000e-06	1.987176e-06	4.719648e-10	1.378291e+01	3.300176e+01
2.290000e-06	2.031084e-06	4.807841e-10	1.408746e+01	3.368043e+01
2.300000e-06	2.074909e-06	4.897592e-10	1.439143e+01	3.433821e+01
2.310000e-06	2.118675e-06	4.995641e-10	1.469498e+01	3.497552e+01
2.320000e-06	2.162396e-06	5.102640e-10	1.499823e+01	3.559282e+01
2.330000e-06	2.206050e-06	5.201129e-10	1.530101e+01	3.619064e+01
2.340000e-06	2.249517e-06	5.274226e-10	1.560249e+01	3.676957e+01
2.350000e-06	2.292766e-06	5.338983e-10	1.590247e+01	3.733023e+01
2.360000e-06	2.335923e-06	5.402056e-10	1.620180e+01	3.787331e+01
2.370000e-06	2.378876e-06	5.465006e-10	1.649972e+01	3.839951e+01
2.380000e-06	2.421469e-06	5.536084e-10	1.679514e+01	3.890957e+01
2.390000e-06	2.463768e-06	5.622089e-10	1.708852e+01	3.940422e+01
2.400000e-06	2.505675e-06	5.733352e-10	1.737919e+01	3.988425e+01
2.410000e-06	2.547183e-06	5.852454e-10	1.766708e+01	4.035042e+01
2.420000e-06	2.588351e-06	5.963608e-10	1.795263e+01	4.080349e+01
2.430000e-06	2.629179e-06	6.046877e-10	1.823580e+01	4.124423e+01
2.440000e-06	2.669848e-06	6.103949e-10	1.851788e+01	4.167337e+01
2.450000e-06	2.710376e-06	6.168697e-10	1.879898e+01	4.209165e+01
2.460000e-06	2.750686e-06	6.257547e-10	1.907857e+01	4.249975e+01
2.470000e-06	2.790818e-06	6.325285e-10	1.935692e+01	4.289834e+01
2.480000e-06	2.830836e-06	6.381812e-10	1.963448e+01	4.328805e+01
2.490000e-06	2.870732e-06	6.448312e-10	1.991120e+01	4.366947e+01
2.500000e-06	2.910461e-06	6.525730e-10	2.018675e+01	4.404313e+01
2.510000e-06	2.950081e-06	6.601970e-10	2.046156e+01	4.440953e+01
2.520000e-06	2.989592e-06	6.660425e-10	2.073560e+01	4.476913e+01
2.530000e-06	3.028933e-06	6.696929e-10	2.100847e+01	4.512231e+01
2.540000e-06	3.068052e-06	6.717573e-10	2.127980e+01	4.546942e+01
2.550000e-06	3.106905e-06	6.724013e-10	2.154928e+01	4.581076e+01
2.560000e-06	3.145495e-06	6.749168e-10	2.181693e+01	4.614656e+01
2.570000e-06	3.183838e-06	6.798357e-10	2.208288e+01	4.647700e+01
2.580000e-06	3.221957e-06	6.855684e-10	2.234727e+01	4.680224e+01
2.590000e-06	3.259933e-06	6.907262e-10	2.261067e+01	4.712235e+01
2.600000e-06	3.297774e-06	6.957123e-10	2.287313e+01	4.743739e+01
2.610000e-06	3.335303e-06	7.011086e-10	2.313343e+01	4.774735e+01
2.620000e-06	3.372563e-06	7.062915e-10	2.339187e+01	4.805220e+01
2.630000e-06	3.409692e-06	7.101775e-10	2.364939e+01	4.835186e+01
2.640000e-06	3.446597e-06	7.120681e-10	2.390536e+01	4.864622e+01
2.650000e-06	3.483116e-06	7.131414e-10	2.415866e+01	4.893516e+01
2.660000e-06	3.519330e-06	7.170005e-10	2.440983e+01	4.921851e+01
2.670000e-06	3.555370e-06	7.228567e-10	2.465980e+01	4.949610e+01
2.680000e-06	3.591270e-06	7.278165e-10	2.490880e+01	4.976775e+01
2.690000e-06	3.627085e-06	7.329660e-10	2.515721e+01	5.003325e+01
2.700000e-06	3.662761e-06	7.379571e-10	2.540466e+01	5.029240e+01
2.710000e-06	3.698283e-06	7.426686e-10	2.565104e+01	5.054500e+01
2.720000e-06	3.733622e-06	7.470948e-10	2.589614e+01	5.079086e+01
2.730000e-06	3.768658e-06	7.519166e-10	2.613915e+01	5.102979e+01
2.740000e-06	3.803320e-06	7.550774e-10	2.637957e+01	5.126161e+01
2.750000e-06	3.837508e-06	7.557335e-10	2.661669e+01	5.148617e+01
2.760000e-06	3.871166e-06	7.573749e-10	2.685014e+01	5.170334e+01
2.770000e-06	3.904346e-06	7.616575e-10	2.708027e+01	5.191300e+01
2.780000e-06	3.937117e-06	7.665242e-10	2.730757e+01	5.211507e+01
2.790000e-06	3.969547e-06	7.728495e-10	2.753250e+01	5.230951e+01
2.800000e-06	4.001715e-06	7.802595e-10	2.775562e+01	5.249628e+01
2.810000e-06	4.033723e-06	7.866529e-10	2.797763e+01	5.267539e+01
2.820000e-06	4.065553e-06	7.892369e-10	2.819840e+01	5.284690e+01
2.830000e-06	4.097196e-06	7.883559e-10	2.841787e+01	5.301088e+01
2.840000e-06	4.128603e-06	7.871557e-10	2.863570e+01	5.316744e+01
2.850000e-06	4.159751e-06	7.876209e-10	2.885174e+01	5.331673e+01
2.860000e-06	4.190645e-06	7.908457e-10	2.906602e+01	5.345893e+01
2.870000e-06	4.221121e-06	7.942323e-10	2.927741e+01	5.359425e+01
2.880000e-06	4.251251e-06	7.953678e-10	2.948639e+01	5.372293e+01
2.890000e-06	4.281152e-06	7.968948e-10	2.969378e+01	5.384525e+01
2.900000e-06	4.310805e-06	7.989352e-10	2.989945e+01	5.396150e+01
