# Temperatura_=_-0.3
# Concentracion g/m^3_=_1620.0
# C_Vs_to_Am_M_A/Vsm_=_65563218390.804596
# pendiente_HvsI_1/m_=_3716.3
# ordenada_HvsI_A/m_=_1297.0
# frecuencia_Hz_=_135108.9376379258

Tiempo_(s)	Campo_(V.s)	Magnetizacion_(V.s)	Campo_(kA/m)	Magnetizacion_(A/m)
0.000000e+00	-5.515542e-06	-1.359513e-09	-3.837152e+01	-8.864970e+01
1.000000e-08	-5.515715e-06	-1.356938e-09	-3.837272e+01	-8.863510e+01
2.000000e-08	-5.515627e-06	-1.352657e-09	-3.837210e+01	-8.861693e+01
3.000000e-08	-5.515136e-06	-1.347089e-09	-3.836869e+01	-8.859508e+01
4.000000e-08	-5.514157e-06	-1.341237e-09	-3.836188e+01	-8.856943e+01
5.000000e-08	-5.512529e-06	-1.338002e-09	-3.835055e+01	-8.853990e+01
6.000000e-08	-5.510182e-06	-1.333491e-09	-3.833423e+01	-8.850639e+01
7.000000e-08	-5.507257e-06	-1.324425e-09	-3.831388e+01	-8.846881e+01
8.000000e-08	-5.503872e-06	-1.338260e-09	-3.829033e+01	-8.842709e+01
9.000000e-08	-5.500083e-06	-1.380610e-09	-3.826397e+01	-8.838117e+01
1.000000e-07	-5.495870e-06	-1.367512e-09	-3.823466e+01	-8.833100e+01
1.100000e-07	-5.491406e-06	-1.275648e-09	-3.820360e+01	-8.827656e+01
1.200000e-07	-5.486834e-06	-1.266617e-09	-3.817180e+01	-8.821782e+01
1.300000e-07	-5.481957e-06	-1.329864e-09	-3.813786e+01	-8.815477e+01
1.400000e-07	-5.476678e-06	-1.370224e-09	-3.810114e+01	-8.808744e+01
1.500000e-07	-5.470985e-06	-1.285609e-09	-3.806153e+01	-8.801584e+01
1.600000e-07	-5.464921e-06	-1.274278e-09	-3.801935e+01	-8.794003e+01
1.700000e-07	-5.458456e-06	-1.357440e-09	-3.797437e+01	-8.786007e+01
1.800000e-07	-5.451486e-06	-1.386351e-09	-3.792588e+01	-8.777602e+01
1.900000e-07	-5.444098e-06	-1.295252e-09	-3.787448e+01	-8.768799e+01
2.000000e-07	-5.436485e-06	-1.256237e-09	-3.782152e+01	-8.759607e+01
2.100000e-07	-5.428646e-06	-1.330028e-09	-3.776698e+01	-8.750038e+01
2.200000e-07	-5.420529e-06	-1.376039e-09	-3.771051e+01	-8.740106e+01
2.300000e-07	-5.412164e-06	-1.334350e-09	-3.765232e+01	-8.729824e+01
2.400000e-07	-5.403423e-06	-1.305689e-09	-3.759151e+01	-8.719207e+01
2.500000e-07	-5.393996e-06	-1.344939e-09	-3.752592e+01	-8.708271e+01
2.600000e-07	-5.383798e-06	-1.349564e-09	-3.745497e+01	-8.697031e+01
2.700000e-07	-5.373043e-06	-1.320969e-09	-3.738015e+01	-8.685504e+01
2.800000e-07	-5.361798e-06	-1.305490e-09	-3.730192e+01	-8.673707e+01
2.900000e-07	-5.350093e-06	-1.352637e-09	-3.722049e+01	-8.661656e+01
3.000000e-07	-5.338008e-06	-1.356892e-09	-3.713642e+01	-8.649368e+01
3.100000e-07	-5.325552e-06	-1.333839e-09	-3.704976e+01	-8.636858e+01
3.200000e-07	-5.312667e-06	-1.313883e-09	-3.696012e+01	-8.624142e+01
3.300000e-07	-5.299378e-06	-1.346000e-09	-3.686767e+01	-8.611234e+01
3.400000e-07	-5.285803e-06	-1.337728e-09	-3.677323e+01	-8.598148e+01
3.500000e-07	-5.271813e-06	-1.306608e-09	-3.667590e+01	-8.584896e+01
3.600000e-07	-5.257288e-06	-1.299493e-09	-3.657485e+01	-8.571489e+01
3.700000e-07	-5.242340e-06	-1.352583e-09	-3.647085e+01	-8.557937e+01
3.800000e-07	-5.226916e-06	-1.341773e-09	-3.636355e+01	-8.544248e+01
3.900000e-07	-5.210966e-06	-1.304114e-09	-3.625258e+01	-8.530428e+01
4.000000e-07	-5.194594e-06	-1.320880e-09	-3.613869e+01	-8.516483e+01
4.100000e-07	-5.177970e-06	-1.345873e-09	-3.602304e+01	-8.502413e+01
4.200000e-07	-5.161041e-06	-1.289247e-09	-3.590526e+01	-8.488222e+01
4.300000e-07	-5.143702e-06	-1.276419e-09	-3.578464e+01	-8.473908e+01
4.400000e-07	-5.125960e-06	-1.343266e-09	-3.566120e+01	-8.459469e+01
4.500000e-07	-5.107825e-06	-1.317730e-09	-3.553504e+01	-8.444899e+01
4.600000e-07	-5.089271e-06	-1.249601e-09	-3.540596e+01	-8.430193e+01
4.700000e-07	-5.070340e-06	-1.290937e-09	-3.527426e+01	-8.415343e+01
4.800000e-07	-5.051071e-06	-1.329826e-09	-3.514020e+01	-8.400340e+01
4.900000e-07	-5.031491e-06	-1.264083e-09	-3.500398e+01	-8.385172e+01
5.000000e-07	-5.011747e-06	-1.267772e-09	-3.486663e+01	-8.369828e+01
5.100000e-07	-4.991805e-06	-1.315585e-09	-3.472789e+01	-8.354294e+01
5.200000e-07	-4.971485e-06	-1.271846e-09	-3.458653e+01	-8.338557e+01
5.300000e-07	-4.950739e-06	-1.240133e-09	-3.444220e+01	-8.322600e+01
5.400000e-07	-4.929690e-06	-1.304049e-09	-3.429576e+01	-8.306409e+01
5.500000e-07	-4.908244e-06	-1.283203e-09	-3.414656e+01	-8.289968e+01
5.600000e-07	-4.886411e-06	-1.220266e-09	-3.399467e+01	-8.273261e+01
5.700000e-07	-4.864316e-06	-1.257200e-09	-3.384095e+01	-8.256272e+01
5.800000e-07	-4.841876e-06	-1.290111e-09	-3.368484e+01	-8.238985e+01
5.900000e-07	-4.819097e-06	-1.231910e-09	-3.352636e+01	-8.221386e+01
6.000000e-07	-4.796074e-06	-1.236645e-09	-3.336619e+01	-8.203459e+01
6.100000e-07	-4.772736e-06	-1.273282e-09	-3.320383e+01	-8.185192e+01
6.200000e-07	-4.749091e-06	-1.236545e-09	-3.303933e+01	-8.166572e+01
6.300000e-07	-4.725307e-06	-1.208983e-09	-3.287387e+01	-8.147588e+01
6.400000e-07	-4.701325e-06	-1.243091e-09	-3.270702e+01	-8.128231e+01
6.500000e-07	-4.676850e-06	-1.232163e-09	-3.253675e+01	-8.108493e+01
6.600000e-07	-4.651843e-06	-1.208289e-09	-3.236278e+01	-8.088367e+01
6.700000e-07	-4.626396e-06	-1.228798e-09	-3.218574e+01	-8.067850e+01
6.800000e-07	-4.600349e-06	-1.232498e-09	-3.200454e+01	-8.046938e+01
6.900000e-07	-4.573700e-06	-1.206244e-09	-3.181914e+01	-8.025632e+01
7.000000e-07	-4.546704e-06	-1.212893e-09	-3.163133e+01	-8.003932e+01
7.100000e-07	-4.519460e-06	-1.221418e-09	-3.144180e+01	-7.981842e+01
7.200000e-07	-4.491918e-06	-1.204300e-09	-3.125019e+01	-7.959366e+01
7.300000e-07	-4.464153e-06	-1.202540e-09	-3.105702e+01	-7.936513e+01
7.400000e-07	-4.436239e-06	-1.212912e-09	-3.086283e+01	-7.913290e+01
7.500000e-07	-4.408118e-06	-1.201265e-09	-3.066719e+01	-7.889708e+01
7.600000e-07	-4.379643e-06	-1.188550e-09	-3.046909e+01	-7.865779e+01
7.700000e-07	-4.350808e-06	-1.191455e-09	-3.026849e+01	-7.841516e+01
7.800000e-07	-4.321703e-06	-1.185303e-09	-3.006600e+01	-7.816933e+01
7.900000e-07	-4.292356e-06	-1.181151e-09	-2.986183e+01	-7.792046e+01
8.000000e-07	-4.262761e-06	-1.186348e-09	-2.965595e+01	-7.766869e+01
8.100000e-07	-4.232835e-06	-1.183915e-09	-2.944775e+01	-7.741419e+01
8.200000e-07	-4.202609e-06	-1.171442e-09	-2.923747e+01	-7.715712e+01
8.300000e-07	-4.172020e-06	-1.170081e-09	-2.902466e+01	-7.689765e+01
8.400000e-07	-4.141034e-06	-1.163746e-09	-2.880909e+01	-7.663593e+01
8.500000e-07	-4.109846e-06	-1.150225e-09	-2.859212e+01	-7.637212e+01
8.600000e-07	-4.078545e-06	-1.146556e-09	-2.837436e+01	-7.610635e+01
8.700000e-07	-4.047080e-06	-1.153188e-09	-2.815546e+01	-7.583876e+01
8.800000e-07	-4.015396e-06	-1.148409e-09	-2.793503e+01	-7.556945e+01
8.900000e-07	-3.983519e-06	-1.147151e-09	-2.771326e+01	-7.529854e+01
9.000000e-07	-3.951430e-06	-1.148454e-09	-2.749002e+01	-7.502610e+01
9.100000e-07	-3.919035e-06	-1.139278e-09	-2.726465e+01	-7.475217e+01
9.200000e-07	-3.886257e-06	-1.124795e-09	-2.703662e+01	-7.447681e+01
9.300000e-07	-3.852988e-06	-1.122578e-09	-2.680516e+01	-7.420001e+01
9.400000e-07	-3.819160e-06	-1.117391e-09	-2.656982e+01	-7.392175e+01
9.500000e-07	-3.784922e-06	-1.108753e-09	-2.633163e+01	-7.364199e+01
9.600000e-07	-3.750339e-06	-1.107735e-09	-2.609103e+01	-7.336065e+01
9.700000e-07	-3.715428e-06	-1.109188e-09	-2.584816e+01	-7.307763e+01
9.800000e-07	-3.680240e-06	-1.100062e-09	-2.560336e+01	-7.279278e+01
9.900000e-07	-3.644789e-06	-1.093373e-09	-2.535672e+01	-7.250594e+01
1.000000e-06	-3.609153e-06	-1.092167e-09	-2.510880e+01	-7.221693e+01
1.010000e-06	-3.573375e-06	-1.084737e-09	-2.485990e+01	-7.192550e+01
1.020000e-06	-3.537446e-06	-1.077898e-09	-2.460994e+01	-7.163142e+01
1.030000e-06	-3.501336e-06	-1.078083e-09	-2.435872e+01	-7.133440e+01
1.040000e-06	-3.465002e-06	-1.073417e-09	-2.410595e+01	-7.103414e+01
1.050000e-06	-3.428490e-06	-1.060526e-09	-2.385194e+01	-7.073033e+01
1.060000e-06	-3.391773e-06	-1.051979e-09	-2.359650e+01	-7.042260e+01
1.070000e-06	-3.354747e-06	-1.046608e-09	-2.333891e+01	-7.011062e+01
1.080000e-06	-3.317404e-06	-1.040540e-09	-2.307911e+01	-6.979399e+01
1.090000e-06	-3.279848e-06	-1.036623e-09	-2.281784e+01	-6.947233e+01
1.100000e-06	-3.242148e-06	-1.033839e-09	-2.255556e+01	-6.914524e+01
1.110000e-06	-3.204180e-06	-1.023181e-09	-2.229142e+01	-6.881233e+01
1.120000e-06	-3.165904e-06	-1.011301e-09	-2.202513e+01	-6.847320e+01
1.130000e-06	-3.127443e-06	-1.002618e-09	-2.175756e+01	-6.812743e+01
1.140000e-06	-3.088815e-06	-9.928982e-10	-2.148883e+01	-6.777463e+01
1.150000e-06	-3.049959e-06	-9.812334e-10	-2.121850e+01	-6.741442e+01
1.160000e-06	-3.010873e-06	-9.768609e-10	-2.094659e+01	-6.704641e+01
1.170000e-06	-2.971590e-06	-9.735528e-10	-2.067329e+01	-6.667025e+01
1.180000e-06	-2.932186e-06	-9.667166e-10	-2.039916e+01	-6.628559e+01
1.190000e-06	-2.892659e-06	-9.601409e-10	-2.012417e+01	-6.589210e+01
1.200000e-06	-2.852981e-06	-9.564811e-10	-1.984813e+01	-6.548949e+01
1.210000e-06	-2.813157e-06	-9.486377e-10	-1.957108e+01	-6.507748e+01
1.220000e-06	-2.773150e-06	-9.393947e-10	-1.929275e+01	-6.465582e+01
1.230000e-06	-2.732996e-06	-9.307146e-10	-1.901340e+01	-6.422428e+01
1.240000e-06	-2.692692e-06	-9.196359e-10	-1.873300e+01	-6.378269e+01
1.250000e-06	-2.652187e-06	-9.083097e-10	-1.845121e+01	-6.333087e+01
1.260000e-06	-2.611486e-06	-9.026064e-10	-1.816806e+01	-6.286870e+01
1.270000e-06	-2.570543e-06	-9.022092e-10	-1.788322e+01	-6.239608e+01
1.280000e-06	-2.529207e-06	-8.996489e-10	-1.759565e+01	-6.191295e+01
1.290000e-06	-2.487510e-06	-8.939065e-10	-1.730556e+01	-6.141928e+01
1.300000e-06	-2.445531e-06	-8.849257e-10	-1.701351e+01	-6.091505e+01
1.310000e-06	-2.403236e-06	-8.744111e-10	-1.671926e+01	-6.040028e+01
1.320000e-06	-2.360656e-06	-8.648575e-10	-1.642304e+01	-5.987504e+01
1.330000e-06	-2.317823e-06	-8.589437e-10	-1.612505e+01	-5.933937e+01
1.340000e-06	-2.274740e-06	-8.539788e-10	-1.582532e+01	-5.879339e+01
1.350000e-06	-2.231455e-06	-8.474127e-10	-1.552419e+01	-5.823719e+01
1.360000e-06	-2.188013e-06	-8.400517e-10	-1.522196e+01	-5.767091e+01
1.370000e-06	-2.144452e-06	-8.317551e-10	-1.491891e+01	-5.709467e+01
1.380000e-06	-2.100803e-06	-8.224844e-10	-1.461524e+01	-5.650861e+01
1.390000e-06	-2.057096e-06	-8.129360e-10	-1.431117e+01	-5.591289e+01
1.400000e-06	-2.013303e-06	-8.045473e-10	-1.400651e+01	-5.530764e+01
1.410000e-06	-1.969408e-06	-7.955579e-10	-1.370113e+01	-5.469301e+01
1.420000e-06	-1.925449e-06	-7.847161e-10	-1.339531e+01	-5.406912e+01
1.430000e-06	-1.881349e-06	-7.739888e-10	-1.308851e+01	-5.343610e+01
1.440000e-06	-1.837176e-06	-7.649793e-10	-1.278119e+01	-5.279403e+01
1.450000e-06	-1.792971e-06	-7.526115e-10	-1.247366e+01	-5.214301e+01
1.460000e-06	-1.748669e-06	-7.371307e-10	-1.216545e+01	-5.148307e+01
1.470000e-06	-1.704310e-06	-7.238090e-10	-1.185685e+01	-5.081426e+01
1.480000e-06	-1.659836e-06	-7.123284e-10	-1.154745e+01	-5.013655e+01
1.490000e-06	-1.615115e-06	-7.020531e-10	-1.123632e+01	-4.944991e+01
1.500000e-06	-1.570175e-06	-6.944191e-10	-1.092368e+01	-4.875425e+01
1.510000e-06	-1.525118e-06	-6.876808e-10	-1.061021e+01	-4.804947e+01
1.520000e-06	-1.479961e-06	-6.759804e-10	-1.029606e+01	-4.733539e+01
1.530000e-06	-1.434697e-06	-6.579555e-10	-9.981155e+00	-4.661182e+01
1.540000e-06	-1.389300e-06	-6.377530e-10	-9.665336e+00	-4.587852e+01
1.550000e-06	-1.343812e-06	-6.179723e-10	-9.348876e+00	-4.513518e+01
1.560000e-06	-1.298259e-06	-5.985823e-10	-9.031960e+00	-4.438149e+01
1.570000e-06	-1.252629e-06	-5.835407e-10	-8.714516e+00	-4.361706e+01
1.580000e-06	-1.206931e-06	-5.738046e-10	-8.396596e+00	-4.284149e+01
1.590000e-06	-1.161117e-06	-5.662537e-10	-8.077867e+00	-4.205431e+01
1.600000e-06	-1.115182e-06	-5.577333e-10	-7.758297e+00	-4.125506e+01
1.610000e-06	-1.069217e-06	-5.472443e-10	-7.438524e+00	-4.044319e+01
1.620000e-06	-1.023223e-06	-5.355467e-10	-7.118543e+00	-3.961816e+01
1.630000e-06	-9.771457e-07	-5.220887e-10	-6.797983e+00	-3.877940e+01
1.640000e-06	-9.310370e-07	-5.044690e-10	-6.477206e+00	-3.792631e+01
1.650000e-06	-8.848305e-07	-4.857469e-10	-6.155748e+00	-3.705828e+01
1.660000e-06	-8.385671e-07	-4.703243e-10	-5.833894e+00	-3.617469e+01
1.670000e-06	-7.923254e-07	-4.576688e-10	-5.512192e+00	-3.527492e+01
1.680000e-06	-7.460304e-07	-4.459857e-10	-5.190119e+00	-3.435833e+01
1.690000e-06	-6.996337e-07	-4.371871e-10	-4.867338e+00	-3.342433e+01
1.700000e-06	-6.532022e-07	-4.283551e-10	-4.544315e+00	-3.247231e+01
1.710000e-06	-6.067731e-07	-4.121354e-10	-4.221309e+00	-3.150168e+01
1.720000e-06	-5.602748e-07	-3.908769e-10	-3.897820e+00	-3.051191e+01
1.730000e-06	-5.136851e-07	-3.701053e-10	-3.573697e+00	-2.950248e+01
1.740000e-06	-4.670238e-07	-3.518908e-10	-3.249075e+00	-2.847291e+01
1.750000e-06	-4.203362e-07	-3.360505e-10	-2.924270e+00	-2.742278e+01
1.760000e-06	-3.736495e-07	-3.207895e-10	-2.599472e+00	-2.635172e+01
1.770000e-06	-3.268940e-07	-3.070843e-10	-2.274195e+00	-2.525941e+01
1.780000e-06	-2.800865e-07	-2.939482e-10	-1.948556e+00	-2.414562e+01
1.790000e-06	-2.332680e-07	-2.781262e-10	-1.622841e+00	-2.301017e+01
1.800000e-06	-1.864573e-07	-2.596247e-10	-1.297180e+00	-2.185296e+01
1.810000e-06	-1.396534e-07	-2.394790e-10	-9.715660e-01	-2.067398e+01
1.820000e-06	-9.276461e-08	-2.197636e-10	-6.453616e-01	-1.947329e+01
1.830000e-06	-4.590564e-08	-2.006685e-10	-3.193646e-01	-1.825104e+01
1.840000e-06	8.875043e-10	-1.820700e-10	6.174350e-03	-1.700749e+01
1.850000e-06	4.760919e-08	-1.666121e-10	3.312162e-01	-1.574297e+01
1.860000e-06	9.434479e-08	-1.502264e-10	6.563548e-01	-1.445791e+01
1.870000e-06	1.412148e-07	-1.310300e-10	9.824288e-01	-1.315284e+01
1.880000e-06	1.880389e-07	-1.113883e-10	1.308183e+00	-1.182837e+01
1.890000e-06	2.347813e-07	-9.239371e-11	1.633369e+00	-1.048521e+01
1.900000e-06	2.815454e-07	-7.559604e-11	1.958706e+00	-9.124171e+00
1.910000e-06	3.283216e-07	-5.856682e-11	2.284127e+00	-7.746142e+00
1.920000e-06	3.750632e-07	-4.075195e-11	2.609307e+00	-6.352100e+00
1.930000e-06	4.217537e-07	-2.127365e-11	2.934132e+00	-4.943105e+00
1.940000e-06	4.683339e-07	-1.972592e-12	3.258190e+00	-3.520296e+00
1.950000e-06	5.148466e-07	1.670703e-11	3.581777e+00	-2.084884e+00
1.960000e-06	5.613275e-07	3.626159e-11	3.905144e+00	-6.381480e-01
1.970000e-06	6.077433e-07	5.702513e-11	4.228058e+00	8.185720e-01
1.980000e-06	6.541054e-07	7.825133e-11	4.550598e+00	2.283881e+00
1.990000e-06	7.004214e-07	9.851059e-11	4.872817e+00	3.756336e+00
2.000000e-06	7.467539e-07	1.180715e-10	5.195152e+00	5.234455e+00
2.010000e-06	7.930252e-07	1.374332e-10	5.517060e+00	6.716720e+00
2.020000e-06	8.392292e-07	1.559884e-10	5.838501e+00	8.201592e+00
2.030000e-06	8.853725e-07	1.753549e-10	6.159519e+00	9.687514e+00
2.040000e-06	9.313744e-07	1.953124e-10	6.479553e+00	1.117292e+01
2.050000e-06	9.773578e-07	2.147410e-10	6.799459e+00	1.265624e+01
2.060000e-06	1.023292e-06	2.347118e-10	7.119025e+00	1.413593e+01
2.070000e-06	1.069116e-06	2.559584e-10	7.437816e+00	1.561044e+01
2.080000e-06	1.114886e-06	2.763767e-10	7.756241e+00	1.707825e+01
2.090000e-06	1.160609e-06	2.954128e-10	8.074333e+00	1.853788e+01
2.100000e-06	1.206269e-06	3.140061e-10	8.391989e+00	1.998789e+01
2.110000e-06	1.251843e-06	3.308012e-10	8.709049e+00	2.142688e+01
2.120000e-06	1.297365e-06	3.490164e-10	9.025746e+00	2.285351e+01
2.130000e-06	1.342880e-06	3.691436e-10	9.342389e+00	2.426649e+01
2.140000e-06	1.388318e-06	3.902709e-10	9.658503e+00	2.566461e+01
2.150000e-06	1.433570e-06	4.074180e-10	9.973315e+00	2.704672e+01
2.160000e-06	1.478667e-06	4.225532e-10	1.028706e+01	2.841174e+01
2.170000e-06	1.523720e-06	4.416801e-10	1.060049e+01	2.975870e+01
2.180000e-06	1.568680e-06	4.606827e-10	1.091328e+01	3.108667e+01
2.190000e-06	1.613418e-06	4.793525e-10	1.122452e+01	3.239484e+01
2.200000e-06	1.658083e-06	4.962494e-10	1.153525e+01	3.368247e+01
2.210000e-06	1.702682e-06	5.131035e-10	1.184553e+01	3.494891e+01
2.220000e-06	1.747040e-06	5.318086e-10	1.215412e+01	3.619362e+01
2.230000e-06	1.791252e-06	5.499322e-10	1.246171e+01	3.741611e+01
2.240000e-06	1.835374e-06	5.661489e-10	1.276866e+01	3.861603e+01
2.250000e-06	1.879346e-06	5.820574e-10	1.307457e+01	3.979306e+01
2.260000e-06	1.923240e-06	5.980781e-10	1.337994e+01	4.094702e+01
2.270000e-06	1.967117e-06	6.134887e-10	1.368520e+01	4.207777e+01
2.280000e-06	2.010933e-06	6.275946e-10	1.399002e+01	4.318528e+01
2.290000e-06	2.054673e-06	6.413659e-10	1.429432e+01	4.426957e+01
2.300000e-06	2.098359e-06	6.551954e-10	1.459824e+01	4.533077e+01
2.310000e-06	2.141964e-06	6.687542e-10	1.490160e+01	4.636903e+01
2.320000e-06	2.185497e-06	6.822312e-10	1.520446e+01	4.738460e+01
2.330000e-06	2.228918e-06	6.950688e-10	1.550654e+01	4.837777e+01
2.340000e-06	2.272140e-06	7.086771e-10	1.580724e+01	4.934889e+01
2.350000e-06	2.315181e-06	7.232311e-10	1.610667e+01	5.029835e+01
2.360000e-06	2.357968e-06	7.366744e-10	1.640433e+01	5.122658e+01
2.370000e-06	2.400512e-06	7.500158e-10	1.670031e+01	5.213406e+01
2.380000e-06	2.442788e-06	7.633004e-10	1.699443e+01	5.302127e+01
2.390000e-06	2.484648e-06	7.743508e-10	1.728564e+01	5.388875e+01
2.400000e-06	2.526113e-06	7.850560e-10	1.757412e+01	5.473702e+01
2.410000e-06	2.567295e-06	7.967328e-10	1.786062e+01	5.556665e+01
2.420000e-06	2.608211e-06	8.088002e-10	1.814527e+01	5.637817e+01
2.430000e-06	2.648767e-06	8.202235e-10	1.842742e+01	5.717215e+01
2.440000e-06	2.689088e-06	8.321924e-10	1.870793e+01	5.794915e+01
2.450000e-06	2.729322e-06	8.446220e-10	1.898784e+01	5.870970e+01
2.460000e-06	2.769404e-06	8.579868e-10	1.926669e+01	5.945433e+01
2.470000e-06	2.809373e-06	8.710576e-10	1.954475e+01	6.018357e+01
2.480000e-06	2.849249e-06	8.815797e-10	1.982217e+01	6.089791e+01
2.490000e-06	2.888956e-06	8.895246e-10	2.009841e+01	6.159781e+01
2.500000e-06	2.928548e-06	8.978338e-10	2.037385e+01	6.228373e+01
2.510000e-06	2.968013e-06	9.056607e-10	2.064841e+01	6.295607e+01
2.520000e-06	3.007262e-06	9.136791e-10	2.092146e+01	6.361525e+01
2.530000e-06	3.046238e-06	9.235022e-10	2.119262e+01	6.426160e+01
2.540000e-06	3.084940e-06	9.343989e-10	2.146186e+01	6.489546e+01
2.550000e-06	3.123453e-06	9.451991e-10	2.172980e+01	6.551712e+01
2.560000e-06	3.161776e-06	9.560223e-10	2.199641e+01	6.612685e+01
2.570000e-06	3.199922e-06	9.650480e-10	2.226179e+01	6.672488e+01
2.580000e-06	3.237843e-06	9.720432e-10	2.252561e+01	6.731143e+01
2.590000e-06	3.275512e-06	9.777368e-10	2.278767e+01	6.788665e+01
2.600000e-06	3.313059e-06	9.831678e-10	2.304888e+01	6.845071e+01
2.610000e-06	3.350416e-06	9.895814e-10	2.330878e+01	6.900373e+01
2.620000e-06	3.387474e-06	9.963485e-10	2.356659e+01	6.954580e+01
2.630000e-06	3.424235e-06	1.003819e-09	2.382233e+01	7.007701e+01
2.640000e-06	3.460763e-06	1.011333e-09	2.407646e+01	7.059743e+01
2.650000e-06	3.497076e-06	1.019434e-09	2.432909e+01	7.110711e+01
2.660000e-06	3.533128e-06	1.027851e-09	2.457990e+01	7.160607e+01
2.670000e-06	3.569014e-06	1.035706e-09	2.482956e+01	7.209435e+01
2.680000e-06	3.604796e-06	1.041307e-09	2.507850e+01	7.257197e+01
2.690000e-06	3.640400e-06	1.045541e-09	2.532619e+01	7.303895e+01
2.700000e-06	3.675826e-06	1.049505e-09	2.557265e+01	7.349531e+01
2.710000e-06	3.711156e-06	1.053982e-09	2.581844e+01	7.394106e+01
2.720000e-06	3.746279e-06	1.061676e-09	2.606279e+01	7.437624e+01
2.730000e-06	3.781086e-06	1.071243e-09	2.630494e+01	7.480086e+01
2.740000e-06	3.815469e-06	1.079780e-09	2.654414e+01	7.521498e+01
2.750000e-06	3.849241e-06	1.086963e-09	2.677909e+01	7.561864e+01
2.760000e-06	3.882395e-06	1.093206e-09	2.700974e+01	7.601191e+01
2.770000e-06	3.915125e-06	1.099219e-09	2.723745e+01	7.639488e+01
2.780000e-06	3.947587e-06	1.105078e-09	2.746329e+01	7.676763e+01
2.790000e-06	3.979785e-06	1.111997e-09	2.768728e+01	7.713027e+01
2.800000e-06	4.011701e-06	1.118216e-09	2.790933e+01	7.748295e+01
2.810000e-06	4.043411e-06	1.122540e-09	2.812993e+01	7.782580e+01
2.820000e-06	4.074996e-06	1.125135e-09	2.834967e+01	7.815900e+01
2.830000e-06	4.106442e-06	1.126690e-09	2.856844e+01	7.848272e+01
2.840000e-06	4.137626e-06	1.128495e-09	2.878539e+01	7.879717e+01
2.850000e-06	4.168419e-06	1.133651e-09	2.899961e+01	7.910255e+01
2.860000e-06	4.198880e-06	1.142555e-09	2.921153e+01	7.939912e+01
2.870000e-06	4.229112e-06	1.149833e-09	2.942185e+01	7.968710e+01
2.880000e-06	4.259082e-06	1.155193e-09	2.963035e+01	7.996676e+01
2.890000e-06	4.288736e-06	1.160010e-09	2.983665e+01	8.023838e+01
2.900000e-06	4.318070e-06	1.163300e-09	3.004072e+01	8.050222e+01
