# Temperatura_=_14.7
# Concentracion g/m^3_=_1620.0
# C_Vs_to_Am_M_A/Vsm_=_65563218390.804596
# pendiente_HvsI_1/m_=_3716.3
# ordenada_HvsI_A/m_=_1297.0
# frecuencia_Hz_=_135100.88577569238

Tiempo_(s)	Campo_(V.s)	Magnetizacion_(V.s)	Campo_(kA/m)	Magnetizacion_(A/m)
0.000000e+00	-5.529593e-06	-8.493414e-10	-3.837824e+01	-5.672344e+01
1.000000e-08	-5.529794e-06	-8.500105e-10	-3.837963e+01	-5.674266e+01
2.000000e-08	-5.529746e-06	-8.494533e-10	-3.837930e+01	-5.676236e+01
3.000000e-08	-5.529349e-06	-8.484236e-10	-3.837654e+01	-5.678237e+01
4.000000e-08	-5.528525e-06	-8.443076e-10	-3.837082e+01	-5.680249e+01
5.000000e-08	-5.527187e-06	-8.379217e-10	-3.836154e+01	-5.682254e+01
6.000000e-08	-5.525283e-06	-8.263407e-10	-3.834832e+01	-5.684228e+01
7.000000e-08	-5.522777e-06	-8.134360e-10	-3.833093e+01	-5.686150e+01
8.000000e-08	-5.519627e-06	-8.362064e-10	-3.830906e+01	-5.687997e+01
9.000000e-08	-5.515972e-06	-8.893933e-10	-3.828370e+01	-5.689746e+01
1.000000e-07	-5.511893e-06	-8.767044e-10	-3.825539e+01	-5.691373e+01
1.100000e-07	-5.507484e-06	-7.896709e-10	-3.822479e+01	-5.692853e+01
1.200000e-07	-5.502945e-06	-7.821789e-10	-3.819329e+01	-5.694165e+01
1.300000e-07	-5.498234e-06	-8.430659e-10	-3.816059e+01	-5.695283e+01
1.400000e-07	-5.493102e-06	-8.562694e-10	-3.812497e+01	-5.696187e+01
1.500000e-07	-5.487488e-06	-7.710758e-10	-3.808600e+01	-5.696852e+01
1.600000e-07	-5.481537e-06	-7.676924e-10	-3.804471e+01	-5.697259e+01
1.700000e-07	-5.475237e-06	-8.639799e-10	-3.800098e+01	-5.697388e+01
1.800000e-07	-5.468463e-06	-8.867841e-10	-3.795396e+01	-5.697218e+01
1.900000e-07	-5.461222e-06	-8.177641e-10	-3.790370e+01	-5.696733e+01
2.000000e-07	-5.453682e-06	-7.858359e-10	-3.785137e+01	-5.695916e+01
2.100000e-07	-5.445876e-06	-8.503073e-10	-3.779720e+01	-5.694753e+01
2.200000e-07	-5.437818e-06	-8.788782e-10	-3.774127e+01	-5.693230e+01
2.300000e-07	-5.429555e-06	-8.493351e-10	-3.768392e+01	-5.691335e+01
2.400000e-07	-5.420896e-06	-8.295288e-10	-3.762382e+01	-5.689059e+01
2.500000e-07	-5.411561e-06	-8.746720e-10	-3.755903e+01	-5.686394e+01
2.600000e-07	-5.401498e-06	-8.910589e-10	-3.748919e+01	-5.683332e+01
2.700000e-07	-5.390955e-06	-8.648682e-10	-3.741602e+01	-5.679870e+01
2.800000e-07	-5.379884e-06	-8.471195e-10	-3.733918e+01	-5.676003e+01
2.900000e-07	-5.368277e-06	-8.807116e-10	-3.725862e+01	-5.671730e+01
3.000000e-07	-5.356343e-06	-8.894658e-10	-3.717579e+01	-5.667050e+01
3.100000e-07	-5.344092e-06	-8.591697e-10	-3.709076e+01	-5.661966e+01
3.200000e-07	-5.331424e-06	-8.444666e-10	-3.700284e+01	-5.656478e+01
3.300000e-07	-5.318334e-06	-8.771186e-10	-3.691199e+01	-5.650592e+01
3.400000e-07	-5.304856e-06	-8.817582e-10	-3.681844e+01	-5.644312e+01
3.500000e-07	-5.290934e-06	-8.416021e-10	-3.672182e+01	-5.637644e+01
3.600000e-07	-5.276571e-06	-8.427292e-10	-3.662214e+01	-5.630594e+01
3.700000e-07	-5.261818e-06	-8.849925e-10	-3.651974e+01	-5.623170e+01
3.800000e-07	-5.246572e-06	-8.717375e-10	-3.641392e+01	-5.615381e+01
3.900000e-07	-5.230719e-06	-8.366623e-10	-3.630390e+01	-5.607234e+01
4.000000e-07	-5.214395e-06	-8.718563e-10	-3.619060e+01	-5.598738e+01
4.100000e-07	-5.197673e-06	-8.821249e-10	-3.607454e+01	-5.589903e+01
4.200000e-07	-5.180523e-06	-8.240518e-10	-3.595551e+01	-5.580739e+01
4.300000e-07	-5.163053e-06	-8.309702e-10	-3.583426e+01	-5.571253e+01
4.400000e-07	-5.145364e-06	-8.932062e-10	-3.571149e+01	-5.561456e+01
4.500000e-07	-5.127329e-06	-8.513498e-10	-3.558631e+01	-5.551357e+01
4.600000e-07	-5.108850e-06	-8.058937e-10	-3.545806e+01	-5.540964e+01
4.700000e-07	-5.089919e-06	-8.585313e-10	-3.532667e+01	-5.530286e+01
4.800000e-07	-5.070647e-06	-8.709257e-10	-3.519291e+01	-5.519331e+01
4.900000e-07	-5.051151e-06	-8.143088e-10	-3.505760e+01	-5.508107e+01
5.000000e-07	-5.031424e-06	-8.432458e-10	-3.492068e+01	-5.496621e+01
5.100000e-07	-5.011496e-06	-8.702554e-10	-3.478238e+01	-5.484880e+01
5.200000e-07	-4.991249e-06	-8.145591e-10	-3.464185e+01	-5.472890e+01
5.300000e-07	-4.970610e-06	-8.168378e-10	-3.449860e+01	-5.460657e+01
5.400000e-07	-4.949706e-06	-8.777566e-10	-3.435352e+01	-5.448187e+01
5.500000e-07	-4.928472e-06	-8.365264e-10	-3.420614e+01	-5.435484e+01
5.600000e-07	-4.906840e-06	-7.940083e-10	-3.405601e+01	-5.422554e+01
5.700000e-07	-4.884975e-06	-8.442028e-10	-3.390425e+01	-5.409402e+01
5.800000e-07	-4.862775e-06	-8.500034e-10	-3.375018e+01	-5.396030e+01
5.900000e-07	-4.840092e-06	-7.995032e-10	-3.359274e+01	-5.382444e+01
6.000000e-07	-4.817040e-06	-8.257941e-10	-3.343275e+01	-5.368648e+01
6.100000e-07	-4.793677e-06	-8.479918e-10	-3.327060e+01	-5.354644e+01
6.200000e-07	-4.770082e-06	-8.041083e-10	-3.310684e+01	-5.340439e+01
6.300000e-07	-4.746326e-06	-7.929410e-10	-3.294196e+01	-5.326034e+01
6.400000e-07	-4.722308e-06	-8.151976e-10	-3.277526e+01	-5.311436e+01
6.500000e-07	-4.697896e-06	-7.942688e-10	-3.260583e+01	-5.296649e+01
6.600000e-07	-4.673049e-06	-7.857255e-10	-3.243338e+01	-5.281677e+01
6.700000e-07	-4.647766e-06	-8.129454e-10	-3.225790e+01	-5.266527e+01
6.800000e-07	-4.621980e-06	-8.072355e-10	-3.207893e+01	-5.251203e+01
6.900000e-07	-4.595615e-06	-7.881455e-10	-3.189595e+01	-5.235712e+01
7.000000e-07	-4.568762e-06	-7.940423e-10	-3.170957e+01	-5.220062e+01
7.100000e-07	-4.541537e-06	-7.869396e-10	-3.152061e+01	-5.204258e+01
7.200000e-07	-4.514016e-06	-7.645855e-10	-3.132961e+01	-5.188311e+01
7.300000e-07	-4.486303e-06	-7.708218e-10	-3.113727e+01	-5.172227e+01
7.400000e-07	-4.458431e-06	-7.802544e-10	-3.094382e+01	-5.156015e+01
7.500000e-07	-4.430365e-06	-7.741944e-10	-3.074903e+01	-5.139686e+01
7.600000e-07	-4.402032e-06	-7.734784e-10	-3.055238e+01	-5.123249e+01
7.700000e-07	-4.373404e-06	-7.764963e-10	-3.035369e+01	-5.106714e+01
7.800000e-07	-4.344437e-06	-7.636605e-10	-3.015264e+01	-5.090092e+01
7.900000e-07	-4.315085e-06	-7.560776e-10	-2.994892e+01	-5.073392e+01
8.000000e-07	-4.285400e-06	-7.558323e-10	-2.974289e+01	-5.056627e+01
8.100000e-07	-4.255429e-06	-7.505506e-10	-2.953488e+01	-5.039807e+01
8.200000e-07	-4.225150e-06	-7.464343e-10	-2.932473e+01	-5.022941e+01
8.300000e-07	-4.194582e-06	-7.568404e-10	-2.911257e+01	-5.006041e+01
8.400000e-07	-4.163822e-06	-7.573229e-10	-2.889908e+01	-4.989116e+01
8.500000e-07	-4.132790e-06	-7.512758e-10	-2.868370e+01	-4.972176e+01
8.600000e-07	-4.101456e-06	-7.508015e-10	-2.846622e+01	-4.955229e+01
8.700000e-07	-4.069904e-06	-7.462858e-10	-2.824724e+01	-4.938282e+01
8.800000e-07	-4.038175e-06	-7.312680e-10	-2.802702e+01	-4.921342e+01
8.900000e-07	-4.006290e-06	-7.309321e-10	-2.780573e+01	-4.904416e+01
9.000000e-07	-3.974228e-06	-7.361239e-10	-2.758320e+01	-4.887506e+01
9.100000e-07	-3.941806e-06	-7.312506e-10	-2.735818e+01	-4.870616e+01
9.200000e-07	-3.908926e-06	-7.313822e-10	-2.712997e+01	-4.853746e+01
9.300000e-07	-3.875834e-06	-7.396761e-10	-2.690029e+01	-4.836898e+01
9.400000e-07	-3.842394e-06	-7.350948e-10	-2.666820e+01	-4.820067e+01
9.500000e-07	-3.808334e-06	-7.260933e-10	-2.643181e+01	-4.803250e+01
9.600000e-07	-3.773813e-06	-7.252157e-10	-2.619222e+01	-4.786442e+01
9.700000e-07	-3.738989e-06	-7.197354e-10	-2.595052e+01	-4.769633e+01
9.800000e-07	-3.703910e-06	-7.114053e-10	-2.570705e+01	-4.752815e+01
9.900000e-07	-3.668508e-06	-7.135626e-10	-2.546135e+01	-4.735974e+01
1.000000e-06	-3.632818e-06	-7.174500e-10	-2.521364e+01	-4.719098e+01
1.010000e-06	-3.597027e-06	-7.117893e-10	-2.496523e+01	-4.702169e+01
1.020000e-06	-3.561117e-06	-7.090705e-10	-2.471600e+01	-4.685170e+01
1.030000e-06	-3.525025e-06	-7.099731e-10	-2.446549e+01	-4.668081e+01
1.040000e-06	-3.488717e-06	-7.044588e-10	-2.421350e+01	-4.650881e+01
1.050000e-06	-3.452142e-06	-6.948867e-10	-2.395965e+01	-4.633545e+01
1.060000e-06	-3.415291e-06	-6.908517e-10	-2.370388e+01	-4.616050e+01
1.070000e-06	-3.378178e-06	-6.859216e-10	-2.344630e+01	-4.598368e+01
1.080000e-06	-3.340813e-06	-6.812024e-10	-2.318697e+01	-4.580471e+01
1.090000e-06	-3.303280e-06	-6.816014e-10	-2.292647e+01	-4.562332e+01
1.100000e-06	-3.265514e-06	-6.817953e-10	-2.266436e+01	-4.543920e+01
1.110000e-06	-3.227446e-06	-6.735903e-10	-2.240014e+01	-4.525205e+01
1.120000e-06	-3.189129e-06	-6.658751e-10	-2.213421e+01	-4.506156e+01
1.130000e-06	-3.150625e-06	-6.593353e-10	-2.186697e+01	-4.486742e+01
1.140000e-06	-3.111836e-06	-6.528507e-10	-2.159775e+01	-4.466931e+01
1.150000e-06	-3.072804e-06	-6.485260e-10	-2.132685e+01	-4.446693e+01
1.160000e-06	-3.033653e-06	-6.489595e-10	-2.105512e+01	-4.425995e+01
1.170000e-06	-2.994342e-06	-6.481629e-10	-2.078229e+01	-4.404809e+01
1.180000e-06	-2.954929e-06	-6.471722e-10	-2.050874e+01	-4.383103e+01
1.190000e-06	-2.915374e-06	-6.463119e-10	-2.023420e+01	-4.360850e+01
1.200000e-06	-2.875636e-06	-6.439321e-10	-1.995840e+01	-4.338022e+01
1.210000e-06	-2.835708e-06	-6.386962e-10	-1.968128e+01	-4.314592e+01
1.220000e-06	-2.795634e-06	-6.339214e-10	-1.940315e+01	-4.290536e+01
1.230000e-06	-2.755487e-06	-6.287089e-10	-1.912451e+01	-4.265830e+01
1.240000e-06	-2.715170e-06	-6.216284e-10	-1.884468e+01	-4.240452e+01
1.250000e-06	-2.674540e-06	-6.163115e-10	-1.856269e+01	-4.214382e+01
1.260000e-06	-2.633708e-06	-6.136082e-10	-1.827929e+01	-4.187602e+01
1.270000e-06	-2.592666e-06	-6.133881e-10	-1.799444e+01	-4.160096e+01
1.280000e-06	-2.551334e-06	-6.121838e-10	-1.770758e+01	-4.131848e+01
1.290000e-06	-2.509741e-06	-6.087051e-10	-1.741890e+01	-4.102847e+01
1.300000e-06	-2.467884e-06	-6.029883e-10	-1.712839e+01	-4.073080e+01
1.310000e-06	-2.425689e-06	-5.951049e-10	-1.683553e+01	-4.042539e+01
1.320000e-06	-2.383158e-06	-5.874813e-10	-1.654035e+01	-4.011216e+01
1.330000e-06	-2.340375e-06	-5.815555e-10	-1.624341e+01	-3.979105e+01
1.340000e-06	-2.297340e-06	-5.793832e-10	-1.594473e+01	-3.946199e+01
1.350000e-06	-2.254068e-06	-5.788159e-10	-1.564440e+01	-3.912497e+01
1.360000e-06	-2.210627e-06	-5.749729e-10	-1.534289e+01	-3.877995e+01
1.370000e-06	-2.167083e-06	-5.698406e-10	-1.504068e+01	-3.842690e+01
1.380000e-06	-2.123412e-06	-5.633879e-10	-1.473758e+01	-3.806582e+01
1.390000e-06	-2.079586e-06	-5.573794e-10	-1.443340e+01	-3.769669e+01
1.400000e-06	-2.035648e-06	-5.515390e-10	-1.412845e+01	-3.731950e+01
1.410000e-06	-1.991667e-06	-5.467444e-10	-1.382320e+01	-3.693425e+01
1.420000e-06	-1.947607e-06	-5.415208e-10	-1.351740e+01	-3.654090e+01
1.430000e-06	-1.903447e-06	-5.365822e-10	-1.321091e+01	-3.613944e+01
1.440000e-06	-1.859213e-06	-5.315860e-10	-1.290390e+01	-3.572984e+01
1.450000e-06	-1.814884e-06	-5.248109e-10	-1.259623e+01	-3.531205e+01
1.460000e-06	-1.770501e-06	-5.152500e-10	-1.228820e+01	-3.488602e+01
1.470000e-06	-1.725991e-06	-5.059273e-10	-1.197927e+01	-3.445166e+01
1.480000e-06	-1.681271e-06	-4.975396e-10	-1.166889e+01	-3.400889e+01
1.490000e-06	-1.636430e-06	-4.892885e-10	-1.135767e+01	-3.355759e+01
1.500000e-06	-1.591479e-06	-4.827776e-10	-1.104569e+01	-3.309764e+01
1.510000e-06	-1.546428e-06	-4.782056e-10	-1.073301e+01	-3.262886e+01
1.520000e-06	-1.501220e-06	-4.715440e-10	-1.041925e+01	-3.215110e+01
1.530000e-06	-1.455873e-06	-4.617330e-10	-1.010451e+01	-3.166413e+01
1.540000e-06	-1.410504e-06	-4.498605e-10	-9.789626e+00	-3.116773e+01
1.550000e-06	-1.365078e-06	-4.378344e-10	-9.474349e+00	-3.066166e+01
1.560000e-06	-1.319555e-06	-4.271696e-10	-9.158393e+00	-3.014562e+01
1.570000e-06	-1.273972e-06	-4.178128e-10	-8.842028e+00	-2.961933e+01
1.580000e-06	-1.228273e-06	-4.100917e-10	-8.524852e+00	-2.908246e+01
1.590000e-06	-1.182412e-06	-4.018439e-10	-8.206549e+00	-2.853466e+01
1.600000e-06	-1.136472e-06	-3.907061e-10	-7.887701e+00	-2.797559e+01
1.610000e-06	-1.090426e-06	-3.799126e-10	-7.568118e+00	-2.740485e+01
1.620000e-06	-1.044295e-06	-3.706934e-10	-7.247946e+00	-2.682207e+01
1.630000e-06	-9.981244e-07	-3.611673e-10	-6.927499e+00	-2.622685e+01
1.640000e-06	-9.519427e-07	-3.498589e-10	-6.606975e+00	-2.561877e+01
1.650000e-06	-9.057555e-07	-3.357621e-10	-6.286412e+00	-2.499743e+01
1.660000e-06	-8.594420e-07	-3.219390e-10	-5.964972e+00	-2.436242e+01
1.670000e-06	-8.129931e-07	-3.104118e-10	-5.642592e+00	-2.371334e+01
1.680000e-06	-7.665242e-07	-3.027828e-10	-5.320075e+00	-2.304981e+01
1.690000e-06	-7.200517e-07	-2.962029e-10	-4.997532e+00	-2.237143e+01
1.700000e-06	-6.735955e-07	-2.898867e-10	-4.675101e+00	-2.167786e+01
1.710000e-06	-6.271296e-07	-2.816731e-10	-4.352604e+00	-2.096875e+01
1.720000e-06	-5.805667e-07	-2.693381e-10	-4.029434e+00	-2.024381e+01
1.730000e-06	-5.340173e-07	-2.542160e-10	-3.706356e+00	-1.950277e+01
1.740000e-06	-4.874254e-07	-2.402498e-10	-3.382985e+00	-1.874538e+01
1.750000e-06	-4.406745e-07	-2.283766e-10	-3.058509e+00	-1.797146e+01
1.760000e-06	-3.938261e-07	-2.185372e-10	-2.733357e+00	-1.718086e+01
1.770000e-06	-3.469725e-07	-2.097696e-10	-2.408169e+00	-1.637351e+01
1.780000e-06	-3.001215e-07	-2.026262e-10	-2.082998e+00	-1.554935e+01
1.790000e-06	-2.532314e-07	-1.936657e-10	-1.757557e+00	-1.470842e+01
1.800000e-06	-2.062907e-07	-1.787705e-10	-1.431764e+00	-1.385080e+01
1.810000e-06	-1.593365e-07	-1.614265e-10	-1.105878e+00	-1.297665e+01
1.820000e-06	-1.124853e-07	-1.446436e-10	-7.807062e-01	-1.208619e+01
1.830000e-06	-6.564444e-08	-1.305977e-10	-4.556064e-01	-1.117970e+01
1.840000e-06	-1.870181e-08	-1.191963e-10	-1.298002e-01	-1.025755e+01
1.850000e-06	2.829803e-08	-1.099033e-10	1.964029e-01	-9.320170e+00
1.860000e-06	7.525994e-08	-1.006116e-10	5.223429e-01	-8.368076e+00
1.870000e-06	1.221596e-07	-8.794576e-11	8.478511e-01	-7.401847e+00
1.880000e-06	1.690452e-07	-7.414627e-11	1.173261e+00	-6.422133e+00
1.890000e-06	2.158832e-07	-5.928934e-11	1.498341e+00	-5.429661e+00
1.900000e-06	2.627147e-07	-4.413107e-11	1.823376e+00	-4.425223e+00
1.910000e-06	3.096090e-07	-3.100644e-11	2.148847e+00	-3.409679e+00
1.920000e-06	3.565690e-07	-1.760541e-11	2.474773e+00	-2.383953e+00
1.930000e-06	4.034392e-07	-3.154933e-12	2.800077e+00	-1.349029e+00
1.940000e-06	4.501823e-07	1.235843e-11	3.124498e+00	-3.059473e-01
1.950000e-06	4.969036e-07	2.542489e-11	3.448768e+00	7.442003e-01
1.960000e-06	5.435728e-07	3.745636e-11	3.772676e+00	1.800275e+00
1.970000e-06	5.901831e-07	5.112259e-11	4.096176e+00	2.861097e+00
1.980000e-06	6.367644e-07	6.599130e-11	4.419475e+00	3.925452e+00
1.990000e-06	6.832422e-07	8.169636e-11	4.742054e+00	4.992093e+00
2.000000e-06	7.296411e-07	9.875465e-11	5.064087e+00	6.059754e+00
2.010000e-06	7.760371e-07	1.157301e-10	5.386099e+00	7.127150e+00
2.020000e-06	8.224113e-07	1.307086e-10	5.707960e+00	8.192989e+00
2.030000e-06	8.687563e-07	1.438705e-10	6.029618e+00	9.255973e+00
2.040000e-06	9.150594e-07	1.563078e-10	6.350986e+00	1.031481e+01
2.050000e-06	9.612832e-07	1.696630e-10	6.671803e+00	1.136823e+01
2.060000e-06	1.007389e-06	1.845720e-10	6.991800e+00	1.241495e+01
2.070000e-06	1.053389e-06	2.014441e-10	7.311062e+00	1.345375e+01
2.080000e-06	1.099316e-06	2.208947e-10	7.629823e+00	1.448343e+01
2.090000e-06	1.145194e-06	2.390563e-10	7.948240e+00	1.550281e+01
2.100000e-06	1.191007e-06	2.542519e-10	8.266203e+00	1.651079e+01
2.110000e-06	1.236763e-06	2.651478e-10	8.583777e+00	1.750627e+01
2.120000e-06	1.282439e-06	2.752817e-10	8.900793e+00	1.848827e+01
2.130000e-06	1.327962e-06	2.860971e-10	9.216740e+00	1.945581e+01
2.140000e-06	1.373409e-06	3.005058e-10	9.532172e+00	2.040801e+01
2.150000e-06	1.418826e-06	3.156368e-10	9.847385e+00	2.134407e+01
2.160000e-06	1.464088e-06	3.294810e-10	1.016153e+01	2.226322e+01
2.170000e-06	1.509307e-06	3.457433e-10	1.047537e+01	2.316482e+01
2.180000e-06	1.554483e-06	3.584907e-10	1.078891e+01	2.404826e+01
2.190000e-06	1.599408e-06	3.695212e-10	1.110072e+01	2.491304e+01
2.200000e-06	1.644105e-06	3.787640e-10	1.141094e+01	2.575874e+01
2.210000e-06	1.688665e-06	3.865680e-10	1.172021e+01	2.658500e+01
2.220000e-06	1.733140e-06	3.966614e-10	1.202889e+01	2.739158e+01
2.230000e-06	1.777539e-06	4.093528e-10	1.233704e+01	2.817829e+01
2.240000e-06	1.821821e-06	4.222723e-10	1.264438e+01	2.894502e+01
2.250000e-06	1.865999e-06	4.343842e-10	1.295100e+01	2.969177e+01
2.260000e-06	1.910127e-06	4.453438e-10	1.325727e+01	3.041858e+01
2.270000e-06	1.954194e-06	4.533815e-10	1.356312e+01	3.112558e+01
2.280000e-06	1.998152e-06	4.599274e-10	1.386821e+01	3.181298e+01
2.290000e-06	2.042030e-06	4.679113e-10	1.417274e+01	3.248102e+01
2.300000e-06	2.085900e-06	4.765599e-10	1.447722e+01	3.313005e+01
2.310000e-06	2.129684e-06	4.869335e-10	1.478111e+01	3.376043e+01
2.320000e-06	2.173324e-06	4.963992e-10	1.508399e+01	3.437260e+01
2.330000e-06	2.216897e-06	5.042086e-10	1.538642e+01	3.496705e+01
2.340000e-06	2.260317e-06	5.094966e-10	1.568777e+01	3.554428e+01
2.350000e-06	2.303491e-06	5.143813e-10	1.598742e+01	3.610487e+01
2.360000e-06	2.346513e-06	5.202318e-10	1.628601e+01	3.664938e+01
2.370000e-06	2.389338e-06	5.265369e-10	1.658324e+01	3.717843e+01
2.380000e-06	2.431828e-06	5.368216e-10	1.687815e+01	3.769264e+01
2.390000e-06	2.473961e-06	5.475221e-10	1.717057e+01	3.819266e+01
2.400000e-06	2.515704e-06	5.554882e-10	1.746029e+01	3.867912e+01
2.410000e-06	2.557141e-06	5.622421e-10	1.774788e+01	3.915266e+01
2.420000e-06	2.598299e-06	5.694773e-10	1.803354e+01	3.961393e+01
2.430000e-06	2.639131e-06	5.761821e-10	1.831694e+01	4.006356e+01
2.440000e-06	2.679763e-06	5.833206e-10	1.859894e+01	4.050215e+01
2.450000e-06	2.720250e-06	5.926789e-10	1.887994e+01	4.093031e+01
2.460000e-06	2.760541e-06	6.021149e-10	1.915958e+01	4.134860e+01
2.470000e-06	2.800638e-06	6.097377e-10	1.943788e+01	4.175756e+01
2.480000e-06	2.840583e-06	6.146061e-10	1.971512e+01	4.215772e+01
2.490000e-06	2.880417e-06	6.171797e-10	1.999158e+01	4.254955e+01
2.500000e-06	2.920131e-06	6.208564e-10	2.026722e+01	4.293350e+01
2.510000e-06	2.959678e-06	6.250342e-10	2.054170e+01	4.330997e+01
2.520000e-06	2.999106e-06	6.304214e-10	2.081535e+01	4.367934e+01
2.530000e-06	3.038380e-06	6.366496e-10	2.108793e+01	4.404193e+01
2.540000e-06	3.077381e-06	6.426189e-10	2.135862e+01	4.439802e+01
2.550000e-06	3.116100e-06	6.478829e-10	2.162734e+01	4.474788e+01
2.560000e-06	3.154591e-06	6.530874e-10	2.189450e+01	4.509171e+01
2.570000e-06	3.192908e-06	6.585502e-10	2.216043e+01	4.542968e+01
2.580000e-06	3.231048e-06	6.630120e-10	2.242514e+01	4.576192e+01
2.590000e-06	3.268966e-06	6.667601e-10	2.268832e+01	4.608853e+01
2.600000e-06	3.306660e-06	6.702080e-10	2.294993e+01	4.640957e+01
2.610000e-06	3.344152e-06	6.748019e-10	2.321015e+01	4.672508e+01
2.620000e-06	3.381387e-06	6.808255e-10	2.346857e+01	4.703505e+01
2.630000e-06	3.418315e-06	6.865555e-10	2.372487e+01	4.733947e+01
2.640000e-06	3.454946e-06	6.911311e-10	2.397911e+01	4.763828e+01
2.650000e-06	3.491316e-06	6.946774e-10	2.423154e+01	4.793143e+01
2.660000e-06	3.527465e-06	6.976196e-10	2.448243e+01	4.821882e+01
2.670000e-06	3.563443e-06	7.015309e-10	2.473214e+01	4.850038e+01
2.680000e-06	3.599317e-06	7.065558e-10	2.498113e+01	4.877599e+01
2.690000e-06	3.635099e-06	7.115534e-10	2.522947e+01	4.904555e+01
2.700000e-06	3.670774e-06	7.161661e-10	2.547707e+01	4.930894e+01
2.710000e-06	3.706322e-06	7.192813e-10	2.572379e+01	4.956605e+01
2.720000e-06	3.741550e-06	7.209712e-10	2.596829e+01	4.981678e+01
2.730000e-06	3.776375e-06	7.245133e-10	2.621000e+01	5.006103e+01
2.740000e-06	3.810807e-06	7.300081e-10	2.644897e+01	5.029871e+01
2.750000e-06	3.844752e-06	7.356416e-10	2.668457e+01	5.052974e+01
2.760000e-06	3.878179e-06	7.419567e-10	2.691657e+01	5.075407e+01
2.770000e-06	3.911169e-06	7.483365e-10	2.714554e+01	5.097164e+01
2.780000e-06	3.943805e-06	7.517914e-10	2.737205e+01	5.118244e+01
2.790000e-06	3.976129e-06	7.528472e-10	2.759639e+01	5.138644e+01
2.800000e-06	4.008205e-06	7.549406e-10	2.781902e+01	5.158369e+01
2.810000e-06	4.040092e-06	7.598959e-10	2.804033e+01	5.177420e+01
2.820000e-06	4.071892e-06	7.657373e-10	2.826104e+01	5.195803e+01
2.830000e-06	4.103565e-06	7.710612e-10	2.848086e+01	5.213528e+01
2.840000e-06	4.134987e-06	7.737327e-10	2.869895e+01	5.230605e+01
2.850000e-06	4.166077e-06	7.734767e-10	2.891473e+01	5.247046e+01
2.860000e-06	4.196823e-06	7.730472e-10	2.912813e+01	5.262866e+01
2.870000e-06	4.227278e-06	7.736946e-10	2.933949e+01	5.278082e+01
2.880000e-06	4.257443e-06	7.767718e-10	2.954885e+01	5.292713e+01
2.890000e-06	4.287258e-06	7.822129e-10	2.975579e+01	5.306778e+01
2.900000e-06	4.316772e-06	7.877890e-10	2.996063e+01	5.320300e+01
