# Temperatura_=_-3.1
# Concentracion g/m^3_=_1620.0
# C_Vs_to_Am_M_A/Vsm_=_65563218390.804596
# pendiente_HvsI_1/m_=_3716.3
# ordenada_HvsI_A/m_=_1297.0
# frecuencia_Hz_=_135094.09150129798

Tiempo_(s)	Campo_(V.s)	Magnetizacion_(V.s)	Campo_(kA/m)	Magnetizacion_(A/m)
0.000000e+00	-5.536207e-06	-1.035742e-09	-3.837507e+01	-6.880425e+01
1.000000e-08	-5.536354e-06	-1.035779e-09	-3.837609e+01	-6.879794e+01
2.000000e-08	-5.536308e-06	-1.038468e-09	-3.837577e+01	-6.879274e+01
3.000000e-08	-5.535968e-06	-1.038677e-09	-3.837341e+01	-6.878848e+01
4.000000e-08	-5.535157e-06	-1.036734e-09	-3.836779e+01	-6.878497e+01
5.000000e-08	-5.533821e-06	-1.033257e-09	-3.835853e+01	-6.878198e+01
6.000000e-08	-5.531896e-06	-1.029099e-09	-3.834519e+01	-6.877928e+01
7.000000e-08	-5.529443e-06	-1.011878e-09	-3.832818e+01	-6.877659e+01
8.000000e-08	-5.526454e-06	-9.952171e-10	-3.830747e+01	-6.877363e+01
9.000000e-08	-5.522834e-06	-1.052801e-09	-3.828237e+01	-6.877011e+01
1.000000e-07	-5.518796e-06	-1.109521e-09	-3.825439e+01	-6.876572e+01
1.100000e-07	-5.514478e-06	-1.051285e-09	-3.822445e+01	-6.876012e+01
1.200000e-07	-5.509953e-06	-9.641238e-10	-3.819309e+01	-6.875299e+01
1.300000e-07	-5.505249e-06	-9.752195e-10	-3.816048e+01	-6.874400e+01
1.400000e-07	-5.500183e-06	-1.079189e-09	-3.812536e+01	-6.873282e+01
1.500000e-07	-5.494576e-06	-1.051057e-09	-3.808650e+01	-6.871910e+01
1.600000e-07	-5.488523e-06	-9.622937e-10	-3.804454e+01	-6.870253e+01
1.700000e-07	-5.482138e-06	-1.007769e-09	-3.800028e+01	-6.868279e+01
1.800000e-07	-5.475223e-06	-1.086221e-09	-3.795235e+01	-6.865957e+01
1.900000e-07	-5.467887e-06	-1.082428e-09	-3.790150e+01	-6.863258e+01
2.000000e-07	-5.460283e-06	-9.851208e-10	-3.784879e+01	-6.860155e+01
2.100000e-07	-5.452441e-06	-1.022742e-09	-3.779444e+01	-6.856621e+01
2.200000e-07	-5.444322e-06	-1.073942e-09	-3.773815e+01	-6.852634e+01
2.300000e-07	-5.435931e-06	-1.083576e-09	-3.767999e+01	-6.848173e+01
2.400000e-07	-5.427214e-06	-1.030809e-09	-3.761957e+01	-6.843218e+01
2.500000e-07	-5.417896e-06	-1.055167e-09	-3.755498e+01	-6.837754e+01
2.600000e-07	-5.407802e-06	-1.068781e-09	-3.748501e+01	-6.831768e+01
2.700000e-07	-5.397107e-06	-1.052526e-09	-3.741088e+01	-6.825250e+01
2.800000e-07	-5.385941e-06	-1.010829e-09	-3.733348e+01	-6.818191e+01
2.900000e-07	-5.374279e-06	-1.020155e-09	-3.725264e+01	-6.810588e+01
3.000000e-07	-5.362250e-06	-1.050767e-09	-3.716926e+01	-6.802439e+01
3.100000e-07	-5.349859e-06	-1.035937e-09	-3.708337e+01	-6.793745e+01
3.200000e-07	-5.337110e-06	-1.014347e-09	-3.699500e+01	-6.784510e+01
3.300000e-07	-5.323968e-06	-1.013157e-09	-3.690391e+01	-6.774742e+01
3.400000e-07	-5.310429e-06	-1.053128e-09	-3.681005e+01	-6.764448e+01
3.500000e-07	-5.296535e-06	-1.019997e-09	-3.671375e+01	-6.753642e+01
3.600000e-07	-5.282154e-06	-9.935350e-10	-3.661407e+01	-6.742337e+01
3.700000e-07	-5.267316e-06	-1.014579e-09	-3.651121e+01	-6.730548e+01
3.800000e-07	-5.252038e-06	-1.047106e-09	-3.640531e+01	-6.718295e+01
3.900000e-07	-5.235989e-06	-9.855114e-10	-3.629406e+01	-6.705595e+01
4.000000e-07	-5.219353e-06	-9.856668e-10	-3.617875e+01	-6.692471e+01
4.100000e-07	-5.202468e-06	-1.045158e-09	-3.606171e+01	-6.678943e+01
4.200000e-07	-5.185316e-06	-1.024930e-09	-3.594282e+01	-6.665035e+01
4.300000e-07	-5.167863e-06	-9.521426e-10	-3.582184e+01	-6.650770e+01
4.400000e-07	-5.150121e-06	-1.016239e-09	-3.569886e+01	-6.636171e+01
4.500000e-07	-5.132040e-06	-1.043895e-09	-3.557352e+01	-6.621263e+01
4.600000e-07	-5.113507e-06	-9.641969e-10	-3.544506e+01	-6.606069e+01
4.700000e-07	-5.094504e-06	-9.508067e-10	-3.531334e+01	-6.590612e+01
4.800000e-07	-5.075098e-06	-1.032168e-09	-3.517883e+01	-6.574915e+01
4.900000e-07	-5.055432e-06	-9.890965e-10	-3.504251e+01	-6.558999e+01
5.000000e-07	-5.035606e-06	-9.513979e-10	-3.490508e+01	-6.542886e+01
5.100000e-07	-5.015628e-06	-1.007190e-09	-3.476660e+01	-6.526594e+01
5.200000e-07	-4.995372e-06	-9.995532e-10	-3.462619e+01	-6.510142e+01
5.300000e-07	-4.974702e-06	-9.306802e-10	-3.448291e+01	-6.493546e+01
5.400000e-07	-4.953667e-06	-9.825410e-10	-3.433711e+01	-6.476822e+01
5.500000e-07	-4.932303e-06	-1.017289e-09	-3.418902e+01	-6.459982e+01
5.600000e-07	-4.910585e-06	-9.513342e-10	-3.403847e+01	-6.443039e+01
5.700000e-07	-4.888528e-06	-9.540103e-10	-3.388558e+01	-6.426000e+01
5.800000e-07	-4.866206e-06	-1.008044e-09	-3.373086e+01	-6.408876e+01
5.900000e-07	-4.843518e-06	-9.654707e-10	-3.357359e+01	-6.391670e+01
6.000000e-07	-4.820356e-06	-9.356471e-10	-3.341304e+01	-6.374388e+01
6.100000e-07	-4.796891e-06	-9.780589e-10	-3.325039e+01	-6.357032e+01
6.200000e-07	-4.773258e-06	-9.608396e-10	-3.308657e+01	-6.339603e+01
6.300000e-07	-4.749422e-06	-9.253692e-10	-3.292135e+01	-6.322099e+01
6.400000e-07	-4.725285e-06	-9.493516e-10	-3.275404e+01	-6.304518e+01
6.500000e-07	-4.700821e-06	-9.585004e-10	-3.258446e+01	-6.286857e+01
6.600000e-07	-4.675937e-06	-9.276337e-10	-3.241198e+01	-6.269110e+01
6.700000e-07	-4.650615e-06	-9.437407e-10	-3.223645e+01	-6.251273e+01
6.800000e-07	-4.624768e-06	-9.480796e-10	-3.205729e+01	-6.233337e+01
6.900000e-07	-4.598244e-06	-9.240284e-10	-3.187344e+01	-6.215295e+01
7.000000e-07	-4.571221e-06	-9.177140e-10	-3.168612e+01	-6.197140e+01
7.100000e-07	-4.543837e-06	-9.288913e-10	-3.149631e+01	-6.178862e+01
7.200000e-07	-4.516198e-06	-9.091261e-10	-3.130472e+01	-6.160453e+01
7.300000e-07	-4.488413e-06	-9.113705e-10	-3.111213e+01	-6.141903e+01
7.400000e-07	-4.460458e-06	-9.241565e-10	-3.091835e+01	-6.123205e+01
7.500000e-07	-4.432289e-06	-9.223660e-10	-3.072309e+01	-6.104349e+01
7.600000e-07	-4.403785e-06	-9.128229e-10	-3.052552e+01	-6.085327e+01
7.700000e-07	-4.375008e-06	-9.186466e-10	-3.032604e+01	-6.066132e+01
7.800000e-07	-4.345938e-06	-9.039220e-10	-3.012454e+01	-6.046756e+01
7.900000e-07	-4.316444e-06	-8.900818e-10	-2.992010e+01	-6.027194e+01
8.000000e-07	-4.286748e-06	-8.915351e-10	-2.971425e+01	-6.007439e+01
8.100000e-07	-4.256850e-06	-8.940118e-10	-2.950701e+01	-5.987486e+01
8.200000e-07	-4.226599e-06	-8.841020e-10	-2.929733e+01	-5.967331e+01
8.300000e-07	-4.196084e-06	-8.897440e-10	-2.908580e+01	-5.946972e+01
8.400000e-07	-4.165198e-06	-8.941685e-10	-2.887171e+01	-5.926406e+01
8.500000e-07	-4.134010e-06	-8.827891e-10	-2.865553e+01	-5.905630e+01
8.600000e-07	-4.102636e-06	-8.740145e-10	-2.843805e+01	-5.884645e+01
8.700000e-07	-4.071055e-06	-8.744416e-10	-2.821915e+01	-5.863451e+01
8.800000e-07	-4.039324e-06	-8.654557e-10	-2.799920e+01	-5.842047e+01
8.900000e-07	-4.007365e-06	-8.567580e-10	-2.777766e+01	-5.820435e+01
9.000000e-07	-3.975222e-06	-8.602605e-10	-2.755486e+01	-5.798615e+01
9.100000e-07	-3.942768e-06	-8.562826e-10	-2.732990e+01	-5.776591e+01
9.200000e-07	-3.909952e-06	-8.482517e-10	-2.710243e+01	-5.754362e+01
9.300000e-07	-3.876765e-06	-8.494117e-10	-2.687239e+01	-5.731932e+01
9.400000e-07	-3.843014e-06	-8.542956e-10	-2.663844e+01	-5.709302e+01
9.500000e-07	-3.808768e-06	-8.455602e-10	-2.640106e+01	-5.686472e+01
9.600000e-07	-3.774104e-06	-8.415888e-10	-2.616079e+01	-5.663443e+01
9.700000e-07	-3.739028e-06	-8.407465e-10	-2.591765e+01	-5.640215e+01
9.800000e-07	-3.703616e-06	-8.338579e-10	-2.567218e+01	-5.616788e+01
9.900000e-07	-3.667995e-06	-8.245151e-10	-2.542527e+01	-5.593160e+01
1.000000e-06	-3.632260e-06	-8.275489e-10	-2.517757e+01	-5.569327e+01
1.010000e-06	-3.596394e-06	-8.239504e-10	-2.492896e+01	-5.545285e+01
1.020000e-06	-3.560397e-06	-8.180877e-10	-2.467944e+01	-5.521028e+01
1.030000e-06	-3.524285e-06	-8.159065e-10	-2.442912e+01	-5.496550e+01
1.040000e-06	-3.487938e-06	-8.151900e-10	-2.417718e+01	-5.471842e+01
1.050000e-06	-3.451342e-06	-8.045301e-10	-2.392351e+01	-5.446893e+01
1.060000e-06	-3.414543e-06	-7.980027e-10	-2.366843e+01	-5.421692e+01
1.070000e-06	-3.377437e-06	-7.940829e-10	-2.341123e+01	-5.396223e+01
1.080000e-06	-3.340098e-06	-7.895867e-10	-2.315240e+01	-5.370473e+01
1.090000e-06	-3.302545e-06	-7.838306e-10	-2.289210e+01	-5.344424e+01
1.100000e-06	-3.264622e-06	-7.819578e-10	-2.262923e+01	-5.318056e+01
1.110000e-06	-3.226380e-06	-7.746049e-10	-2.236415e+01	-5.291349e+01
1.120000e-06	-3.187927e-06	-7.664772e-10	-2.209761e+01	-5.264282e+01
1.130000e-06	-3.149335e-06	-7.628717e-10	-2.183010e+01	-5.236830e+01
1.140000e-06	-3.110509e-06	-7.614135e-10	-2.156097e+01	-5.208970e+01
1.150000e-06	-3.071396e-06	-7.555308e-10	-2.128986e+01	-5.180674e+01
1.160000e-06	-3.032117e-06	-7.502883e-10	-2.101759e+01	-5.151915e+01
1.170000e-06	-2.992788e-06	-7.459364e-10	-2.074497e+01	-5.122667e+01
1.180000e-06	-2.953293e-06	-7.378408e-10	-2.047120e+01	-5.092900e+01
1.190000e-06	-2.913576e-06	-7.312838e-10	-2.019590e+01	-5.062585e+01
1.200000e-06	-2.873744e-06	-7.288366e-10	-1.991980e+01	-5.031694e+01
1.210000e-06	-2.833818e-06	-7.255679e-10	-1.964305e+01	-5.000196e+01
1.220000e-06	-2.793744e-06	-7.197138e-10	-1.936527e+01	-4.968064e+01
1.230000e-06	-2.753486e-06	-7.179188e-10	-1.908621e+01	-4.935268e+01
1.240000e-06	-2.713099e-06	-7.142692e-10	-1.880626e+01	-4.901780e+01
1.250000e-06	-2.672493e-06	-7.070320e-10	-1.852480e+01	-4.867573e+01
1.260000e-06	-2.631709e-06	-6.994115e-10	-1.824209e+01	-4.832621e+01
1.270000e-06	-2.590661e-06	-6.955559e-10	-1.795756e+01	-4.796900e+01
1.280000e-06	-2.549175e-06	-6.896800e-10	-1.767000e+01	-4.760384e+01
1.290000e-06	-2.507380e-06	-6.836129e-10	-1.738029e+01	-4.723053e+01
1.300000e-06	-2.465320e-06	-6.782125e-10	-1.708874e+01	-4.684886e+01
1.310000e-06	-2.422952e-06	-6.749636e-10	-1.679507e+01	-4.645865e+01
1.320000e-06	-2.380322e-06	-6.697685e-10	-1.649957e+01	-4.605972e+01
1.330000e-06	-2.337399e-06	-6.646695e-10	-1.620204e+01	-4.565194e+01
1.340000e-06	-2.294262e-06	-6.578644e-10	-1.590303e+01	-4.523517e+01
1.350000e-06	-2.250914e-06	-6.495834e-10	-1.560255e+01	-4.480932e+01
1.360000e-06	-2.207375e-06	-6.393563e-10	-1.530076e+01	-4.437429e+01
1.370000e-06	-2.163728e-06	-6.320018e-10	-1.499822e+01	-4.393002e+01
1.380000e-06	-2.119961e-06	-6.270430e-10	-1.469483e+01	-4.347646e+01
1.390000e-06	-2.076110e-06	-6.238974e-10	-1.439088e+01	-4.301360e+01
1.400000e-06	-2.032244e-06	-6.175706e-10	-1.408681e+01	-4.254140e+01
1.410000e-06	-1.988312e-06	-6.089455e-10	-1.378229e+01	-4.205989e+01
1.420000e-06	-1.944272e-06	-5.971447e-10	-1.347702e+01	-4.156908e+01
1.430000e-06	-1.900191e-06	-5.867060e-10	-1.317147e+01	-4.106901e+01
1.440000e-06	-1.855962e-06	-5.810209e-10	-1.286489e+01	-4.055971e+01
1.450000e-06	-1.811563e-06	-5.762314e-10	-1.255713e+01	-4.004123e+01
1.460000e-06	-1.767083e-06	-5.700558e-10	-1.224881e+01	-3.951364e+01
1.470000e-06	-1.722536e-06	-5.620510e-10	-1.194003e+01	-3.897699e+01
1.480000e-06	-1.677878e-06	-5.523638e-10	-1.163047e+01	-3.843135e+01
1.490000e-06	-1.632971e-06	-5.388934e-10	-1.131919e+01	-3.787676e+01
1.500000e-06	-1.587852e-06	-5.240919e-10	-1.100644e+01	-3.731330e+01
1.510000e-06	-1.542657e-06	-5.124727e-10	-1.069316e+01	-3.674099e+01
1.520000e-06	-1.497427e-06	-4.987577e-10	-1.037965e+01	-3.615989e+01
1.530000e-06	-1.452068e-06	-4.876058e-10	-1.006524e+01	-3.557001e+01
1.540000e-06	-1.406541e-06	-4.793326e-10	-9.749658e+00	-3.497138e+01
1.550000e-06	-1.360977e-06	-4.728802e-10	-9.433822e+00	-3.436398e+01
1.560000e-06	-1.315405e-06	-4.702656e-10	-9.117929e+00	-3.374779e+01
1.570000e-06	-1.269770e-06	-4.632003e-10	-8.801606e+00	-3.312277e+01
1.580000e-06	-1.223967e-06	-4.525263e-10	-8.484116e+00	-3.248885e+01
1.590000e-06	-1.178025e-06	-4.358299e-10	-8.165664e+00	-3.184596e+01
1.600000e-06	-1.132064e-06	-4.189743e-10	-7.847079e+00	-3.119398e+01
1.610000e-06	-1.086115e-06	-4.044385e-10	-7.528573e+00	-3.053279e+01
1.620000e-06	-1.040107e-06	-3.989400e-10	-7.209665e+00	-2.986222e+01
1.630000e-06	-9.939668e-07	-3.979297e-10	-6.889834e+00	-2.918210e+01
1.640000e-06	-9.476877e-07	-3.951813e-10	-6.569043e+00	-2.849222e+01
1.650000e-06	-9.013242e-07	-3.862852e-10	-6.247667e+00	-2.779238e+01
1.660000e-06	-8.549731e-07	-3.712165e-10	-5.926378e+00	-2.708232e+01
1.670000e-06	-8.085130e-07	-3.526948e-10	-5.604333e+00	-2.636178e+01
1.680000e-06	-7.618928e-07	-3.351286e-10	-5.281178e+00	-2.563050e+01
1.690000e-06	-7.152868e-07	-3.216774e-10	-4.958121e+00	-2.488818e+01
1.700000e-06	-6.686239e-07	-3.118930e-10	-4.634669e+00	-2.413452e+01
1.710000e-06	-6.219141e-07	-3.053638e-10	-4.310894e+00	-2.336921e+01
1.720000e-06	-5.751496e-07	-2.988458e-10	-3.986738e+00	-2.259195e+01
1.730000e-06	-5.283435e-07	-2.875780e-10	-3.662295e+00	-2.180243e+01
1.740000e-06	-4.814798e-07	-2.750023e-10	-3.337451e+00	-2.100034e+01
1.750000e-06	-4.345745e-07	-2.596234e-10	-3.012320e+00	-2.018538e+01
1.760000e-06	-3.877572e-07	-2.419858e-10	-2.687799e+00	-1.935727e+01
1.770000e-06	-3.408818e-07	-2.259755e-10	-2.362874e+00	-1.851574e+01
1.780000e-06	-2.939548e-07	-2.141764e-10	-2.037593e+00	-1.766053e+01
1.790000e-06	-2.470187e-07	-2.044864e-10	-1.712248e+00	-1.679144e+01
1.800000e-06	-1.999888e-07	-1.917108e-10	-1.386253e+00	-1.590827e+01
1.810000e-06	-1.529509e-07	-1.785266e-10	-1.060203e+00	-1.501085e+01
1.820000e-06	-1.060104e-07	-1.646204e-10	-7.348273e-01	-1.409908e+01
1.830000e-06	-5.904800e-08	-1.509710e-10	-4.093003e-01	-1.317288e+01
1.840000e-06	-1.206628e-08	-1.376008e-10	-8.363930e-02	-1.223221e+01
1.850000e-06	3.491495e-08	-1.236340e-10	2.420183e-01	-1.127710e+01
1.860000e-06	8.188392e-08	-1.068030e-10	5.675910e-01	-1.030762e+01
1.870000e-06	1.287303e-07	-9.218343e-11	8.923137e-01	-9.323904e+00
1.880000e-06	1.755409e-07	-7.757735e-11	1.216789e+00	-8.326136e+00
1.890000e-06	2.224338e-07	-6.658714e-11	1.541834e+00	-7.314566e+00
1.900000e-06	2.694007e-07	-5.627775e-11	1.867392e+00	-6.289504e+00
1.910000e-06	3.162595e-07	-4.438753e-11	2.192201e+00	-5.251324e+00
1.920000e-06	3.631041e-07	-2.744640e-11	2.516912e+00	-4.200463e+00
1.930000e-06	4.099836e-07	-7.417709e-12	2.841865e+00	-3.137421e+00
1.940000e-06	4.568116e-07	9.498651e-12	3.166460e+00	-2.062763e+00
1.950000e-06	5.036178e-07	2.141150e-11	3.490904e+00	-9.771150e-01
1.960000e-06	5.503617e-07	2.824167e-11	3.814917e+00	1.188361e-01
1.970000e-06	5.970508e-07	3.710004e-11	4.138550e+00	1.224344e+00
1.980000e-06	6.436909e-07	4.997897e-11	4.461843e+00	2.338608e+00
1.990000e-06	6.902631e-07	6.731298e-11	4.784665e+00	3.460773e+00
2.000000e-06	7.367901e-07	8.768170e-11	5.107174e+00	4.589934e+00
2.010000e-06	7.832691e-07	1.082099e-10	5.429350e+00	5.725141e+00
2.020000e-06	8.296491e-07	1.264281e-10	5.750840e+00	6.865405e+00
2.030000e-06	8.759823e-07	1.397354e-10	6.072006e+00	8.009698e+00
2.040000e-06	9.223217e-07	1.485079e-10	6.393215e+00	9.156961e+00
2.050000e-06	9.686708e-07	1.569621e-10	6.714491e+00	1.030611e+01
2.060000e-06	1.014890e-06	1.692386e-10	7.034864e+00	1.145604e+01
2.070000e-06	1.060954e-06	1.882567e-10	7.354163e+00	1.260564e+01
2.080000e-06	1.107003e-06	2.075233e-10	7.673363e+00	1.375378e+01
2.090000e-06	1.152926e-06	2.256892e-10	7.991686e+00	1.489933e+01
2.100000e-06	1.198675e-06	2.425289e-10	8.308801e+00	1.604117e+01
2.110000e-06	1.244416e-06	2.583160e-10	8.625858e+00	1.717818e+01
2.120000e-06	1.290108e-06	2.720918e-10	8.942580e+00	1.830928e+01
2.130000e-06	1.335666e-06	2.853476e-10	9.258376e+00	1.943337e+01
2.140000e-06	1.381162e-06	2.987833e-10	9.573734e+00	2.054943e+01
2.150000e-06	1.426519e-06	3.104560e-10	9.888134e+00	2.165644e+01
2.160000e-06	1.471712e-06	3.230876e-10	1.020139e+01	2.275342e+01
2.170000e-06	1.516890e-06	3.394135e-10	1.051456e+01	2.383945e+01
2.180000e-06	1.561973e-06	3.564440e-10	1.082705e+01	2.491365e+01
2.190000e-06	1.606955e-06	3.716445e-10	1.113886e+01	2.597519e+01
2.200000e-06	1.651830e-06	3.859696e-10	1.144991e+01	2.702331e+01
2.210000e-06	1.696521e-06	4.009801e-10	1.175969e+01	2.805729e+01
2.220000e-06	1.741178e-06	4.160950e-10	1.206925e+01	2.907648e+01
2.230000e-06	1.785751e-06	4.289394e-10	1.237821e+01	3.008031e+01
2.240000e-06	1.830168e-06	4.405362e-10	1.268609e+01	3.106826e+01
2.250000e-06	1.874458e-06	4.526019e-10	1.299309e+01	3.203989e+01
2.260000e-06	1.918595e-06	4.653502e-10	1.329903e+01	3.299480e+01
2.270000e-06	1.962627e-06	4.792088e-10	1.360425e+01	3.393270e+01
2.280000e-06	2.006590e-06	4.897370e-10	1.390899e+01	3.485333e+01
2.290000e-06	2.050468e-06	4.992048e-10	1.421314e+01	3.575652e+01
2.300000e-06	2.094261e-06	5.106226e-10	1.451670e+01	3.664216e+01
2.310000e-06	2.137977e-06	5.227131e-10	1.481972e+01	3.751020e+01
2.320000e-06	2.181554e-06	5.359323e-10	1.512178e+01	3.836065e+01
2.330000e-06	2.224985e-06	5.471405e-10	1.542283e+01	3.919358e+01
2.340000e-06	2.268327e-06	5.561117e-10	1.572326e+01	4.000910e+01
2.350000e-06	2.311523e-06	5.636604e-10	1.602268e+01	4.080740e+01
2.360000e-06	2.354492e-06	5.733365e-10	1.632052e+01	4.158868e+01
2.370000e-06	2.397150e-06	5.846694e-10	1.661621e+01	4.235321e+01
2.380000e-06	2.439486e-06	5.968420e-10	1.690968e+01	4.310128e+01
2.390000e-06	2.481516e-06	6.085795e-10	1.720101e+01	4.383321e+01
2.400000e-06	2.523276e-06	6.195670e-10	1.749047e+01	4.454937e+01
2.410000e-06	2.564742e-06	6.310686e-10	1.777790e+01	4.525013e+01
2.420000e-06	2.605817e-06	6.429438e-10	1.806262e+01	4.593588e+01
2.430000e-06	2.646653e-06	6.538772e-10	1.834568e+01	4.660702e+01
2.440000e-06	2.687342e-06	6.627456e-10	1.862772e+01	4.726397e+01
2.450000e-06	2.727820e-06	6.696050e-10	1.890831e+01	4.790714e+01
2.460000e-06	2.768133e-06	6.778926e-10	1.918774e+01	4.853694e+01
2.470000e-06	2.808291e-06	6.867289e-10	1.946610e+01	4.915378e+01
2.480000e-06	2.848331e-06	6.961385e-10	1.974365e+01	4.975805e+01
2.490000e-06	2.888224e-06	7.065206e-10	2.002017e+01	5.035012e+01
2.500000e-06	2.927944e-06	7.176059e-10	2.029549e+01	5.093036e+01
2.510000e-06	2.967558e-06	7.270028e-10	2.057009e+01	5.149912e+01
2.520000e-06	3.006909e-06	7.344089e-10	2.084285e+01	5.205669e+01
2.530000e-06	3.046037e-06	7.419732e-10	2.111407e+01	5.260338e+01
2.540000e-06	3.084977e-06	7.481707e-10	2.138399e+01	5.313945e+01
2.550000e-06	3.123691e-06	7.518055e-10	2.165235e+01	5.366512e+01
2.560000e-06	3.162257e-06	7.553117e-10	2.191967e+01	5.418060e+01
2.570000e-06	3.200594e-06	7.617137e-10	2.218541e+01	5.468606e+01
2.580000e-06	3.238634e-06	7.693564e-10	2.244909e+01	5.518164e+01
2.590000e-06	3.276440e-06	7.774244e-10	2.271115e+01	5.566745e+01
2.600000e-06	3.314074e-06	7.846080e-10	2.297202e+01	5.614358e+01
2.610000e-06	3.351485e-06	7.923637e-10	2.323134e+01	5.661006e+01
2.620000e-06	3.388717e-06	8.006771e-10	2.348942e+01	5.706694e+01
2.630000e-06	3.425794e-06	8.075356e-10	2.374642e+01	5.751420e+01
2.640000e-06	3.462626e-06	8.121771e-10	2.400172e+01	5.795184e+01
2.650000e-06	3.499154e-06	8.163478e-10	2.425492e+01	5.837980e+01
2.660000e-06	3.535381e-06	8.205044e-10	2.450604e+01	5.879802e+01
2.670000e-06	3.571427e-06	8.248219e-10	2.475590e+01	5.920645e+01
2.680000e-06	3.607405e-06	8.303295e-10	2.500528e+01	5.960498e+01
2.690000e-06	3.643239e-06	8.385390e-10	2.525367e+01	5.999354e+01
2.700000e-06	3.678828e-06	8.478407e-10	2.550036e+01	6.037202e+01
2.710000e-06	3.714188e-06	8.554092e-10	2.574547e+01	6.074034e+01
2.720000e-06	3.749273e-06	8.615355e-10	2.598866e+01	6.109839e+01
2.730000e-06	3.784003e-06	8.672033e-10	2.622940e+01	6.144609e+01
2.740000e-06	3.818399e-06	8.695197e-10	2.646782e+01	6.178336e+01
2.750000e-06	3.852482e-06	8.692115e-10	2.670407e+01	6.211014e+01
2.760000e-06	3.886073e-06	8.705947e-10	2.693692e+01	6.242637e+01
2.770000e-06	3.919095e-06	8.754074e-10	2.716581e+01	6.273202e+01
2.780000e-06	3.951771e-06	8.819603e-10	2.739231e+01	6.302709e+01
2.790000e-06	3.984114e-06	8.896460e-10	2.761650e+01	6.331156e+01
2.800000e-06	4.016142e-06	8.979270e-10	2.783850e+01	6.358549e+01
2.810000e-06	4.048060e-06	9.052991e-10	2.805975e+01	6.384894e+01
2.820000e-06	4.079850e-06	9.100112e-10	2.828011e+01	6.410197e+01
2.830000e-06	4.111389e-06	9.118338e-10	2.849872e+01	6.434472e+01
2.840000e-06	4.142706e-06	9.106032e-10	2.871580e+01	6.457732e+01
2.850000e-06	4.173807e-06	9.092495e-10	2.893139e+01	6.479994e+01
2.860000e-06	4.204537e-06	9.114387e-10	2.914439e+01	6.501278e+01
2.870000e-06	4.234935e-06	9.147940e-10	2.935511e+01	6.521607e+01
2.880000e-06	4.265133e-06	9.196032e-10	2.956443e+01	6.541006e+01
2.890000e-06	4.294994e-06	9.258757e-10	2.977142e+01	6.559502e+01
2.900000e-06	4.324493e-06	9.328170e-10	2.997589e+01	6.577125e+01
