# Temperatura_=_-0.22
# Concentracion g/m^3_=_1620.0
# C_Vs_to_Am_M_A/Vsm_=_65563218390.804596
# pendiente_HvsI_1/m_=_3716.3
# ordenada_HvsI_A/m_=_1297.0
# frecuencia_Hz_=_135109.75929513137

Tiempo_(s)	Campo_(V.s)	Magnetizacion_(V.s)	Campo_(kA/m)	Magnetizacion_(A/m)
0.000000e+00	-5.518178e-06	-1.282048e-09	-3.836724e+01	-8.383960e+01
1.000000e-08	-5.518276e-06	-1.281790e-09	-3.836792e+01	-8.387429e+01
2.000000e-08	-5.518077e-06	-1.280946e-09	-3.836654e+01	-8.390640e+01
3.000000e-08	-5.517521e-06	-1.280132e-09	-3.836268e+01	-8.393560e+01
4.000000e-08	-5.516530e-06	-1.278829e-09	-3.835578e+01	-8.396154e+01
5.000000e-08	-5.514981e-06	-1.283624e-09	-3.834501e+01	-8.398390e+01
6.000000e-08	-5.512777e-06	-1.303098e-09	-3.832969e+01	-8.400233e+01
7.000000e-08	-5.510027e-06	-1.306534e-09	-3.831057e+01	-8.401651e+01
8.000000e-08	-5.506872e-06	-1.250422e-09	-3.828863e+01	-8.402614e+01
9.000000e-08	-5.503298e-06	-1.190706e-09	-3.826378e+01	-8.403091e+01
1.000000e-07	-5.499345e-06	-1.249423e-09	-3.823630e+01	-8.403054e+01
1.100000e-07	-5.495055e-06	-1.365289e-09	-3.820647e+01	-8.402477e+01
1.200000e-07	-5.490423e-06	-1.360659e-09	-3.817426e+01	-8.401337e+01
1.300000e-07	-5.485462e-06	-1.214666e-09	-3.813977e+01	-8.399612e+01
1.400000e-07	-5.480213e-06	-1.207870e-09	-3.810328e+01	-8.397283e+01
1.500000e-07	-5.474505e-06	-1.299539e-09	-3.806359e+01	-8.394334e+01
1.600000e-07	-5.468315e-06	-1.324202e-09	-3.802055e+01	-8.390752e+01
1.700000e-07	-5.461853e-06	-1.222044e-09	-3.797562e+01	-8.386527e+01
1.800000e-07	-5.455105e-06	-1.197934e-09	-3.792870e+01	-8.381652e+01
1.900000e-07	-5.447961e-06	-1.322999e-09	-3.787903e+01	-8.376123e+01
2.000000e-07	-5.440422e-06	-1.359939e-09	-3.782661e+01	-8.369939e+01
2.100000e-07	-5.432595e-06	-1.302078e-09	-3.777219e+01	-8.363104e+01
2.200000e-07	-5.424569e-06	-1.236213e-09	-3.771639e+01	-8.355622e+01
2.300000e-07	-5.416148e-06	-1.301366e-09	-3.765784e+01	-8.347502e+01
2.400000e-07	-5.407177e-06	-1.330319e-09	-3.759547e+01	-8.338755e+01
2.500000e-07	-5.397690e-06	-1.314574e-09	-3.752950e+01	-8.329396e+01
2.600000e-07	-5.387605e-06	-1.275136e-09	-3.745939e+01	-8.319441e+01
2.700000e-07	-5.376882e-06	-1.304852e-09	-3.738483e+01	-8.308908e+01
2.800000e-07	-5.365594e-06	-1.303270e-09	-3.730634e+01	-8.297820e+01
2.900000e-07	-5.353997e-06	-1.271358e-09	-3.722571e+01	-8.286198e+01
3.000000e-07	-5.342082e-06	-1.242827e-09	-3.714287e+01	-8.274067e+01
3.100000e-07	-5.329652e-06	-1.280766e-09	-3.705644e+01	-8.261454e+01
3.200000e-07	-5.316891e-06	-1.295203e-09	-3.696771e+01	-8.248384e+01
3.300000e-07	-5.303847e-06	-1.257364e-09	-3.687702e+01	-8.234886e+01
3.400000e-07	-5.290242e-06	-1.241916e-09	-3.678243e+01	-8.220988e+01
3.500000e-07	-5.276155e-06	-1.263421e-09	-3.668448e+01	-8.206719e+01
3.600000e-07	-5.261696e-06	-1.259705e-09	-3.658396e+01	-8.192106e+01
3.700000e-07	-5.246745e-06	-1.222625e-09	-3.648000e+01	-8.177178e+01
3.800000e-07	-5.231287e-06	-1.249227e-09	-3.637252e+01	-8.161962e+01
3.900000e-07	-5.215399e-06	-1.268031e-09	-3.626206e+01	-8.146485e+01
4.000000e-07	-5.199099e-06	-1.229579e-09	-3.614872e+01	-8.130772e+01
4.100000e-07	-5.182359e-06	-1.211794e-09	-3.603233e+01	-8.114848e+01
4.200000e-07	-5.165262e-06	-1.273230e-09	-3.591346e+01	-8.098734e+01
4.300000e-07	-5.147895e-06	-1.252738e-09	-3.579271e+01	-8.082453e+01
4.400000e-07	-5.130232e-06	-1.194978e-09	-3.566990e+01	-8.066023e+01
4.500000e-07	-5.112192e-06	-1.218888e-09	-3.554447e+01	-8.049462e+01
4.600000e-07	-5.093736e-06	-1.270903e-09	-3.541615e+01	-8.032784e+01
4.700000e-07	-5.074865e-06	-1.209612e-09	-3.528494e+01	-8.016002e+01
4.800000e-07	-5.055635e-06	-1.194193e-09	-3.515123e+01	-7.999127e+01
4.900000e-07	-5.036117e-06	-1.241088e-09	-3.501553e+01	-7.982168e+01
5.000000e-07	-5.016359e-06	-1.235000e-09	-3.487816e+01	-7.965130e+01
5.100000e-07	-4.996384e-06	-1.190576e-09	-3.473927e+01	-7.948018e+01
5.200000e-07	-4.976169e-06	-1.235341e-09	-3.459871e+01	-7.930833e+01
5.300000e-07	-4.955601e-06	-1.234503e-09	-3.445571e+01	-7.913576e+01
5.400000e-07	-4.934607e-06	-1.179569e-09	-3.430974e+01	-7.896244e+01
5.500000e-07	-4.913229e-06	-1.200433e-09	-3.416111e+01	-7.878833e+01
5.600000e-07	-4.891589e-06	-1.252141e-09	-3.401064e+01	-7.861338e+01
5.700000e-07	-4.869591e-06	-1.204628e-09	-3.385769e+01	-7.843751e+01
5.800000e-07	-4.847170e-06	-1.181616e-09	-3.370180e+01	-7.826063e+01
5.900000e-07	-4.824450e-06	-1.223907e-09	-3.354383e+01	-7.808265e+01
6.000000e-07	-4.801492e-06	-1.214116e-09	-3.338421e+01	-7.790346e+01
6.100000e-07	-4.778220e-06	-1.177538e-09	-3.322240e+01	-7.772294e+01
6.200000e-07	-4.754624e-06	-1.200472e-09	-3.305834e+01	-7.754096e+01
6.300000e-07	-4.730785e-06	-1.204062e-09	-3.289259e+01	-7.735740e+01
6.400000e-07	-4.706639e-06	-1.168929e-09	-3.272470e+01	-7.717212e+01
6.500000e-07	-4.682101e-06	-1.178816e-09	-3.255410e+01	-7.698500e+01
6.600000e-07	-4.657163e-06	-1.191770e-09	-3.238071e+01	-7.679590e+01
6.700000e-07	-4.631705e-06	-1.169680e-09	-3.220370e+01	-7.660469e+01
6.800000e-07	-4.605646e-06	-1.166084e-09	-3.202252e+01	-7.641126e+01
6.900000e-07	-4.579120e-06	-1.184625e-09	-3.183808e+01	-7.621548e+01
7.000000e-07	-4.552311e-06	-1.166566e-09	-3.165168e+01	-7.601724e+01
7.100000e-07	-4.525215e-06	-1.159371e-09	-3.146328e+01	-7.581643e+01
7.200000e-07	-4.497832e-06	-1.166521e-09	-3.127289e+01	-7.561297e+01
7.300000e-07	-4.470201e-06	-1.159370e-09	-3.108078e+01	-7.540677e+01
7.400000e-07	-4.442271e-06	-1.148587e-09	-3.088659e+01	-7.519775e+01
7.500000e-07	-4.414082e-06	-1.162631e-09	-3.069060e+01	-7.498584e+01
7.600000e-07	-4.385659e-06	-1.155221e-09	-3.049297e+01	-7.477100e+01
7.700000e-07	-4.356995e-06	-1.147086e-09	-3.029367e+01	-7.455317e+01
7.800000e-07	-4.328000e-06	-1.149440e-09	-3.009207e+01	-7.433231e+01
7.900000e-07	-4.298605e-06	-1.144138e-09	-2.988769e+01	-7.410841e+01
8.000000e-07	-4.268948e-06	-1.127146e-09	-2.968149e+01	-7.388145e+01
8.100000e-07	-4.239078e-06	-1.136324e-09	-2.947381e+01	-7.365141e+01
8.200000e-07	-4.208899e-06	-1.137480e-09	-2.926398e+01	-7.341828e+01
8.300000e-07	-4.178451e-06	-1.122686e-09	-2.905228e+01	-7.318208e+01
8.400000e-07	-4.147758e-06	-1.118291e-09	-2.883888e+01	-7.294279e+01
8.500000e-07	-4.116758e-06	-1.123693e-09	-2.862333e+01	-7.270043e+01
8.600000e-07	-4.085454e-06	-1.108446e-09	-2.840568e+01	-7.245501e+01
8.700000e-07	-4.053914e-06	-1.097975e-09	-2.818639e+01	-7.220653e+01
8.800000e-07	-4.022162e-06	-1.102730e-09	-2.796562e+01	-7.195499e+01
8.900000e-07	-3.990274e-06	-1.097374e-09	-2.774391e+01	-7.170041e+01
9.000000e-07	-3.958297e-06	-1.084937e-09	-2.752157e+01	-7.144277e+01
9.100000e-07	-3.925957e-06	-1.086076e-09	-2.729672e+01	-7.118206e+01
9.200000e-07	-3.893132e-06	-1.082110e-09	-2.706849e+01	-7.091826e+01
9.300000e-07	-3.859890e-06	-1.064693e-09	-2.683736e+01	-7.065135e+01
9.400000e-07	-3.826212e-06	-1.060096e-09	-2.660320e+01	-7.038130e+01
9.500000e-07	-3.792080e-06	-1.061153e-09	-2.636589e+01	-7.010804e+01
9.600000e-07	-3.757464e-06	-1.051707e-09	-2.612520e+01	-6.983153e+01
9.700000e-07	-3.722428e-06	-1.043504e-09	-2.588160e+01	-6.955169e+01
9.800000e-07	-3.687198e-06	-1.047228e-09	-2.563665e+01	-6.926844e+01
9.900000e-07	-3.651860e-06	-1.040032e-09	-2.539096e+01	-6.898167e+01
1.000000e-06	-3.616302e-06	-1.030147e-09	-2.514372e+01	-6.869129e+01
1.010000e-06	-3.580594e-06	-1.028324e-09	-2.489545e+01	-6.839715e+01
1.020000e-06	-3.544781e-06	-1.027253e-09	-2.464644e+01	-6.809914e+01
1.030000e-06	-3.508779e-06	-1.016428e-09	-2.439613e+01	-6.779709e+01
1.040000e-06	-3.472527e-06	-1.013010e-09	-2.414407e+01	-6.749086e+01
1.050000e-06	-3.436016e-06	-1.008019e-09	-2.389022e+01	-6.718026e+01
1.060000e-06	-3.399225e-06	-9.967806e-10	-2.363441e+01	-6.686514e+01
1.070000e-06	-3.362141e-06	-9.888228e-10	-2.337657e+01	-6.654529e+01
1.080000e-06	-3.324813e-06	-9.912954e-10	-2.311703e+01	-6.622053e+01
1.090000e-06	-3.287214e-06	-9.861085e-10	-2.285561e+01	-6.589067e+01
1.100000e-06	-3.249407e-06	-9.786556e-10	-2.259274e+01	-6.555550e+01
1.110000e-06	-3.211466e-06	-9.743857e-10	-2.232894e+01	-6.521482e+01
1.120000e-06	-3.173266e-06	-9.675778e-10	-2.206335e+01	-6.486844e+01
1.130000e-06	-3.134806e-06	-9.553115e-10	-2.179594e+01	-6.451616e+01
1.140000e-06	-3.096131e-06	-9.482348e-10	-2.152703e+01	-6.415779e+01
1.150000e-06	-3.057253e-06	-9.408363e-10	-2.125672e+01	-6.379314e+01
1.160000e-06	-3.018252e-06	-9.311586e-10	-2.098555e+01	-6.342203e+01
1.170000e-06	-2.979112e-06	-9.253379e-10	-2.071341e+01	-6.304429e+01
1.180000e-06	-2.939805e-06	-9.224233e-10	-2.044012e+01	-6.265976e+01
1.190000e-06	-2.900331e-06	-9.167271e-10	-2.016566e+01	-6.226829e+01
1.200000e-06	-2.860673e-06	-9.120120e-10	-1.988992e+01	-6.186976e+01
1.210000e-06	-2.820865e-06	-9.082597e-10	-1.961315e+01	-6.146404e+01
1.220000e-06	-2.780931e-06	-8.987761e-10	-1.933549e+01	-6.105102e+01
1.230000e-06	-2.740825e-06	-8.881997e-10	-1.905664e+01	-6.063061e+01
1.240000e-06	-2.700553e-06	-8.811971e-10	-1.877663e+01	-6.020273e+01
1.250000e-06	-2.660021e-06	-8.744629e-10	-1.849481e+01	-5.976734e+01
1.260000e-06	-2.619082e-06	-8.662915e-10	-1.821017e+01	-5.932437e+01
1.270000e-06	-2.577778e-06	-8.629813e-10	-1.792299e+01	-5.887379e+01
1.280000e-06	-2.536257e-06	-8.586192e-10	-1.763430e+01	-5.841560e+01
1.290000e-06	-2.494484e-06	-8.498919e-10	-1.734385e+01	-5.794978e+01
1.300000e-06	-2.452338e-06	-8.394681e-10	-1.705082e+01	-5.747633e+01
1.310000e-06	-2.409921e-06	-8.309386e-10	-1.675590e+01	-5.699527e+01
1.320000e-06	-2.367302e-06	-8.209638e-10	-1.645958e+01	-5.650662e+01
1.330000e-06	-2.324473e-06	-8.148300e-10	-1.616179e+01	-5.601039e+01
1.340000e-06	-2.281453e-06	-8.107060e-10	-1.586267e+01	-5.550663e+01
1.350000e-06	-2.238234e-06	-8.046534e-10	-1.556218e+01	-5.499535e+01
1.360000e-06	-2.194876e-06	-7.950624e-10	-1.526071e+01	-5.447659e+01
1.370000e-06	-2.151398e-06	-7.845240e-10	-1.495842e+01	-5.395035e+01
1.380000e-06	-2.107799e-06	-7.738854e-10	-1.465528e+01	-5.341664e+01
1.390000e-06	-2.064124e-06	-7.655072e-10	-1.435161e+01	-5.287548e+01
1.400000e-06	-2.020362e-06	-7.586636e-10	-1.404734e+01	-5.232683e+01
1.410000e-06	-1.976546e-06	-7.511608e-10	-1.374269e+01	-5.177067e+01
1.420000e-06	-1.932703e-06	-7.412979e-10	-1.343786e+01	-5.120694e+01
1.430000e-06	-1.888704e-06	-7.319574e-10	-1.313194e+01	-5.063556e+01
1.440000e-06	-1.844481e-06	-7.224289e-10	-1.282446e+01	-5.005645e+01
1.450000e-06	-1.800143e-06	-7.127612e-10	-1.251618e+01	-4.946945e+01
1.460000e-06	-1.755742e-06	-7.029363e-10	-1.220746e+01	-4.887442e+01
1.470000e-06	-1.711288e-06	-6.912845e-10	-1.189838e+01	-4.827117e+01
1.480000e-06	-1.666684e-06	-6.783021e-10	-1.158825e+01	-4.765947e+01
1.490000e-06	-1.621872e-06	-6.677181e-10	-1.127668e+01	-4.703905e+01
1.500000e-06	-1.576959e-06	-6.585617e-10	-1.096441e+01	-4.640964e+01
1.510000e-06	-1.531935e-06	-6.476393e-10	-1.065136e+01	-4.577088e+01
1.520000e-06	-1.486805e-06	-6.339797e-10	-1.033758e+01	-4.512243e+01
1.530000e-06	-1.441601e-06	-6.193916e-10	-1.002328e+01	-4.446388e+01
1.540000e-06	-1.396284e-06	-6.053747e-10	-9.708196e+00	-4.379479e+01
1.550000e-06	-1.350848e-06	-5.938819e-10	-9.392289e+00	-4.311469e+01
1.560000e-06	-1.305338e-06	-5.843200e-10	-9.075865e+00	-4.242308e+01
1.570000e-06	-1.259775e-06	-5.729849e-10	-8.759069e+00	-4.171943e+01
1.580000e-06	-1.214134e-06	-5.606686e-10	-8.441731e+00	-4.100319e+01
1.590000e-06	-1.168411e-06	-5.479224e-10	-8.123825e+00	-4.027378e+01
1.600000e-06	-1.122586e-06	-5.365759e-10	-7.805206e+00	-3.953059e+01
1.610000e-06	-1.076688e-06	-5.262135e-10	-7.486084e+00	-3.877300e+01
1.620000e-06	-1.030730e-06	-5.165349e-10	-7.166545e+00	-3.800040e+01
1.630000e-06	-9.846996e-07	-5.057801e-10	-6.846500e+00	-3.721215e+01
1.640000e-06	-9.386097e-07	-4.912668e-10	-6.526043e+00	-3.640761e+01
1.650000e-06	-8.923325e-07	-4.734066e-10	-6.204283e+00	-3.558616e+01
1.660000e-06	-8.459684e-07	-4.550721e-10	-5.881919e+00	-3.474716e+01
1.670000e-06	-7.997097e-07	-4.368456e-10	-5.560287e+00	-3.389002e+01
1.680000e-06	-7.534019e-07	-4.198488e-10	-5.238314e+00	-3.301414e+01
1.690000e-06	-7.070065e-07	-4.078837e-10	-4.915733e+00	-3.211897e+01
1.700000e-06	-6.606464e-07	-4.026177e-10	-4.593396e+00	-3.120398e+01
1.710000e-06	-6.142342e-07	-3.960154e-10	-4.270698e+00	-3.026868e+01
1.720000e-06	-5.677465e-07	-3.841481e-10	-3.947475e+00	-2.931263e+01
1.730000e-06	-5.211583e-07	-3.655227e-10	-3.623552e+00	-2.833544e+01
1.740000e-06	-4.744162e-07	-3.431829e-10	-3.298560e+00	-2.733678e+01
1.750000e-06	-4.276248e-07	-3.197923e-10	-2.973225e+00	-2.631636e+01
1.760000e-06	-3.808973e-07	-3.008974e-10	-2.648334e+00	-2.527398e+01
1.770000e-06	-3.341813e-07	-2.869479e-10	-2.323523e+00	-2.420950e+01
1.780000e-06	-2.874102e-07	-2.783949e-10	-1.998329e+00	-2.312287e+01
1.790000e-06	-2.407126e-07	-2.717642e-10	-1.673646e+00	-2.201409e+01
1.800000e-06	-1.939704e-07	-2.583434e-10	-1.348653e+00	-2.088327e+01
1.810000e-06	-1.470648e-07	-2.385084e-10	-1.022525e+00	-1.973059e+01
1.820000e-06	-1.001266e-07	-2.160346e-10	-6.961686e-01	-1.855632e+01
1.830000e-06	-5.322147e-08	-1.932408e-10	-3.700426e-01	-1.736083e+01
1.840000e-06	-6.302899e-09	-1.727354e-10	-4.382331e-02	-1.614455e+01
1.850000e-06	4.059988e-08	-1.586040e-10	2.822862e-01	-1.490804e+01
1.860000e-06	8.741638e-08	-1.482693e-10	6.077958e-01	-1.365192e+01
1.870000e-06	1.341860e-07	-1.361628e-10	9.329798e-01	-1.237690e+01
1.880000e-06	1.809611e-07	-1.203659e-10	1.258201e+00	-1.108380e+01
1.890000e-06	2.277599e-07	-1.010175e-10	1.583588e+00	-9.773488e+00
1.900000e-06	2.745241e-07	-7.697551e-11	1.908734e+00	-8.446945e+00
1.910000e-06	3.212408e-07	-5.325802e-11	2.233550e+00	-7.105216e+00
1.920000e-06	3.679072e-07	-3.258394e-11	2.558016e+00	-5.749419e+00
1.930000e-06	4.145109e-07	-1.690823e-11	2.882045e+00	-4.380743e+00
1.940000e-06	4.611013e-07	-6.123325e-12	3.205983e+00	-3.000438e+00
1.950000e-06	5.076622e-07	4.074929e-12	3.529715e+00	-1.609812e+00
1.960000e-06	5.542662e-07	1.891972e-11	3.853748e+00	-2.102254e-01
1.970000e-06	6.008317e-07	4.037965e-11	4.177512e+00	1.196919e+00
1.980000e-06	6.471904e-07	6.391944e-11	4.499838e+00	2.610182e+00
1.990000e-06	6.934467e-07	8.723486e-11	4.821454e+00	4.028091e+00
2.000000e-06	7.396631e-07	1.101249e-10	5.142791e+00	5.449155e+00
2.010000e-06	7.858175e-07	1.289662e-10	5.463696e+00	6.871866e+00
2.020000e-06	8.319297e-07	1.437442e-10	5.784309e+00	8.294711e+00
2.030000e-06	8.780604e-07	1.601307e-10	6.105051e+00	9.716176e+00
2.040000e-06	9.241898e-07	1.775718e-10	6.425783e+00	1.113476e+01
2.050000e-06	9.702401e-07	1.962432e-10	6.745965e+00	1.254897e+01
2.060000e-06	1.016133e-06	2.196818e-10	7.065051e+00	1.395734e+01
2.070000e-06	1.061893e-06	2.461930e-10	7.383219e+00	1.535845e+01
2.080000e-06	1.107696e-06	2.700540e-10	7.701681e+00	1.675090e+01
2.090000e-06	1.153512e-06	2.891122e-10	8.020235e+00	1.813335e+01
2.100000e-06	1.199210e-06	3.054003e-10	8.337968e+00	1.950448e+01
2.110000e-06	1.244817e-06	3.192053e-10	8.655066e+00	2.086308e+01
2.120000e-06	1.290333e-06	3.335805e-10	8.971532e+00	2.220795e+01
2.130000e-06	1.335775e-06	3.519432e-10	9.287487e+00	2.353799e+01
2.140000e-06	1.381184e-06	3.723887e-10	9.603210e+00	2.485216e+01
2.150000e-06	1.426518e-06	3.932752e-10	9.918411e+00	2.614950e+01
2.160000e-06	1.471689e-06	4.146385e-10	1.023248e+01	2.742913e+01
2.170000e-06	1.516687e-06	4.346227e-10	1.054535e+01	2.869025e+01
2.180000e-06	1.561601e-06	4.510966e-10	1.085763e+01	2.993213e+01
2.190000e-06	1.606458e-06	4.639893e-10	1.116951e+01	3.115414e+01
2.200000e-06	1.651171e-06	4.769028e-10	1.148040e+01	3.235573e+01
2.210000e-06	1.695733e-06	4.921335e-10	1.179023e+01	3.353643e+01
2.220000e-06	1.740197e-06	5.104329e-10	1.209939e+01	3.469587e+01
2.230000e-06	1.784445e-06	5.296222e-10	1.240703e+01	3.583373e+01
2.240000e-06	1.828496e-06	5.466475e-10	1.271332e+01	3.694980e+01
2.250000e-06	1.872527e-06	5.608843e-10	1.301946e+01	3.804395e+01
2.260000e-06	1.916527e-06	5.746858e-10	1.332538e+01	3.911609e+01
2.270000e-06	1.960388e-06	5.887913e-10	1.363034e+01	4.016624e+01
2.280000e-06	2.004148e-06	6.026411e-10	1.393460e+01	4.119446e+01
2.290000e-06	2.047850e-06	6.177051e-10	1.423846e+01	4.220089e+01
2.300000e-06	2.091470e-06	6.333452e-10	1.454174e+01	4.318573e+01
2.310000e-06	2.134997e-06	6.470301e-10	1.484438e+01	4.414922e+01
2.320000e-06	2.178435e-06	6.574815e-10	1.514640e+01	4.509166e+01
2.330000e-06	2.221840e-06	6.662368e-10	1.544819e+01	4.601338e+01
2.340000e-06	2.265162e-06	6.758830e-10	1.574941e+01	4.691476e+01
2.350000e-06	2.308316e-06	6.874264e-10	1.604945e+01	4.779621e+01
2.360000e-06	2.351263e-06	7.018687e-10	1.634805e+01	4.865817e+01
2.370000e-06	2.394001e-06	7.164858e-10	1.664521e+01	4.950108e+01
2.380000e-06	2.436425e-06	7.280820e-10	1.694018e+01	5.032543e+01
2.390000e-06	2.478468e-06	7.391123e-10	1.723250e+01	5.113170e+01
2.400000e-06	2.520241e-06	7.502787e-10	1.752294e+01	5.192037e+01
2.410000e-06	2.561675e-06	7.613835e-10	1.781102e+01	5.269193e+01
2.420000e-06	2.602747e-06	7.730881e-10	1.809659e+01	5.344688e+01
2.430000e-06	2.643514e-06	7.838931e-10	1.838004e+01	5.418568e+01
2.440000e-06	2.684035e-06	7.934317e-10	1.866178e+01	5.490881e+01
2.450000e-06	2.724337e-06	8.053397e-10	1.894200e+01	5.561672e+01
2.460000e-06	2.764396e-06	8.178184e-10	1.922052e+01	5.630985e+01
2.470000e-06	2.804342e-06	8.265394e-10	1.949826e+01	5.698860e+01
2.480000e-06	2.844181e-06	8.332681e-10	1.977525e+01	5.765338e+01
2.490000e-06	2.883832e-06	8.396956e-10	2.005094e+01	5.830454e+01
2.500000e-06	2.923330e-06	8.471924e-10	2.032557e+01	5.894244e+01
2.510000e-06	2.962751e-06	8.560126e-10	2.059966e+01	5.956738e+01
2.520000e-06	3.002073e-06	8.648650e-10	2.087306e+01	6.017966e+01
2.530000e-06	3.041218e-06	8.736287e-10	2.114523e+01	6.077955e+01
2.540000e-06	3.080112e-06	8.810637e-10	2.141566e+01	6.136727e+01
2.550000e-06	3.118698e-06	8.870887e-10	2.168394e+01	6.194304e+01
2.560000e-06	3.157025e-06	8.940713e-10	2.195042e+01	6.250705e+01
2.570000e-06	3.195168e-06	9.026453e-10	2.221563e+01	6.305946e+01
2.580000e-06	3.233116e-06	9.124347e-10	2.247947e+01	6.360043e+01
2.590000e-06	3.270865e-06	9.217782e-10	2.274194e+01	6.413006e+01
2.600000e-06	3.308399e-06	9.295679e-10	2.300291e+01	6.464848e+01
2.610000e-06	3.345710e-06	9.376155e-10	2.326233e+01	6.515578e+01
2.620000e-06	3.382806e-06	9.457477e-10	2.352026e+01	6.565204e+01
2.630000e-06	3.419631e-06	9.516702e-10	2.377629e+01	6.613734e+01
2.640000e-06	3.456127e-06	9.557793e-10	2.403005e+01	6.661174e+01
2.650000e-06	3.492380e-06	9.602922e-10	2.428211e+01	6.707531e+01
2.660000e-06	3.528536e-06	9.661037e-10	2.453350e+01	6.752811e+01
2.670000e-06	3.564519e-06	9.732236e-10	2.478368e+01	6.797022e+01
2.680000e-06	3.600263e-06	9.805270e-10	2.503220e+01	6.840169e+01
2.690000e-06	3.635861e-06	9.879253e-10	2.527971e+01	6.882261e+01
2.700000e-06	3.671342e-06	9.950784e-10	2.552641e+01	6.923306e+01
2.710000e-06	3.706656e-06	1.000906e-09	2.577194e+01	6.963314e+01
2.720000e-06	3.741679e-06	1.007403e-09	2.601545e+01	7.002295e+01
2.730000e-06	3.776354e-06	1.014593e-09	2.625654e+01	7.040262e+01
2.740000e-06	3.810691e-06	1.020073e-09	2.649529e+01	7.077228e+01
2.750000e-06	3.844629e-06	1.025153e-09	2.673125e+01	7.113210e+01
2.760000e-06	3.878051e-06	1.031503e-09	2.696363e+01	7.148223e+01
2.770000e-06	3.911019e-06	1.039169e-09	2.719286e+01	7.182287e+01
2.780000e-06	3.943545e-06	1.047630e-09	2.741900e+01	7.215422e+01
2.790000e-06	3.975679e-06	1.054415e-09	2.764243e+01	7.247650e+01
2.800000e-06	4.007619e-06	1.059659e-09	2.786450e+01	7.278995e+01
2.810000e-06	4.039377e-06	1.064784e-09	2.808532e+01	7.309481e+01
2.820000e-06	4.070975e-06	1.068646e-09	2.830501e+01	7.339137e+01
2.830000e-06	4.102428e-06	1.071123e-09	2.852370e+01	7.367988e+01
2.840000e-06	4.133717e-06	1.073302e-09	2.874125e+01	7.396065e+01
2.850000e-06	4.164779e-06	1.077154e-09	2.895722e+01	7.423398e+01
2.860000e-06	4.195476e-06	1.084135e-09	2.917065e+01	7.450016e+01
2.870000e-06	4.225788e-06	1.090444e-09	2.938141e+01	7.475951e+01
2.880000e-06	4.255825e-06	1.095177e-09	2.959025e+01	7.501234e+01
2.890000e-06	4.285585e-06	1.100807e-09	2.979717e+01	7.525897e+01
2.900000e-06	4.315036e-06	1.106736e-09	3.000194e+01	7.549971e+01
