# Temperatura_=_-2.64
# Concentracion g/m^3_=_1620.0
# C_Vs_to_Am_M_A/Vsm_=_65563218390.804596
# pendiente_HvsI_1/m_=_3716.3
# ordenada_HvsI_A/m_=_1297.0
# frecuencia_Hz_=_135095.05551789724

Tiempo_(s)	Campo_(V.s)	Magnetizacion_(V.s)	Campo_(kA/m)	Magnetizacion_(A/m)
0.000000e+00	-5.531766e-06	-1.076737e-09	-3.837495e+01	-7.122747e+01
1.000000e-08	-5.531864e-06	-1.076921e-09	-3.837563e+01	-7.119512e+01
2.000000e-08	-5.531769e-06	-1.078538e-09	-3.837496e+01	-7.116131e+01
3.000000e-08	-5.531332e-06	-1.080761e-09	-3.837193e+01	-7.112603e+01
4.000000e-08	-5.530389e-06	-1.079842e-09	-3.836539e+01	-7.108925e+01
5.000000e-08	-5.529020e-06	-1.080690e-09	-3.835590e+01	-7.105094e+01
6.000000e-08	-5.527226e-06	-1.077076e-09	-3.834345e+01	-7.101106e+01
7.000000e-08	-5.524819e-06	-1.046077e-09	-3.832675e+01	-7.096958e+01
8.000000e-08	-5.521720e-06	-1.017718e-09	-3.830525e+01	-7.092645e+01
9.000000e-08	-5.518057e-06	-1.078049e-09	-3.827985e+01	-7.088164e+01
1.000000e-07	-5.513949e-06	-1.145880e-09	-3.825135e+01	-7.083511e+01
1.100000e-07	-5.509524e-06	-1.121083e-09	-3.822065e+01	-7.078680e+01
1.200000e-07	-5.504904e-06	-1.029216e-09	-3.818860e+01	-7.073667e+01
1.300000e-07	-5.500122e-06	-1.007121e-09	-3.815543e+01	-7.068469e+01
1.400000e-07	-5.494991e-06	-1.107132e-09	-3.811983e+01	-7.063082e+01
1.500000e-07	-5.489347e-06	-1.076777e-09	-3.808068e+01	-7.057501e+01
1.600000e-07	-5.483317e-06	-9.986053e-10	-3.803885e+01	-7.051723e+01
1.700000e-07	-5.476922e-06	-9.901068e-10	-3.799448e+01	-7.045745e+01
1.800000e-07	-5.470197e-06	-1.129726e-09	-3.794783e+01	-7.039564e+01
1.900000e-07	-5.463059e-06	-1.150768e-09	-3.789832e+01	-7.033177e+01
2.000000e-07	-5.455516e-06	-1.063812e-09	-3.784599e+01	-7.026582e+01
2.100000e-07	-5.447758e-06	-1.034478e-09	-3.779217e+01	-7.019778e+01
2.200000e-07	-5.439731e-06	-1.125113e-09	-3.773648e+01	-7.012763e+01
2.300000e-07	-5.431389e-06	-1.153874e-09	-3.767861e+01	-7.005536e+01
2.400000e-07	-5.422777e-06	-1.101245e-09	-3.761887e+01	-6.998096e+01
2.500000e-07	-5.413629e-06	-1.100588e-09	-3.755541e+01	-6.990443e+01
2.600000e-07	-5.403724e-06	-1.126741e-09	-3.748669e+01	-6.982577e+01
2.700000e-07	-5.393127e-06	-1.119718e-09	-3.741318e+01	-6.974498e+01
2.800000e-07	-5.381947e-06	-1.064069e-09	-3.733563e+01	-6.966206e+01
2.900000e-07	-5.370300e-06	-1.076584e-09	-3.725483e+01	-6.957701e+01
3.000000e-07	-5.358254e-06	-1.098267e-09	-3.717126e+01	-6.948985e+01
3.100000e-07	-5.345841e-06	-1.097120e-09	-3.708515e+01	-6.940056e+01
3.200000e-07	-5.332990e-06	-1.049401e-09	-3.699600e+01	-6.930917e+01
3.300000e-07	-5.319733e-06	-1.070058e-09	-3.690403e+01	-6.921565e+01
3.400000e-07	-5.306142e-06	-1.082078e-09	-3.680975e+01	-6.912003e+01
3.500000e-07	-5.292231e-06	-1.072070e-09	-3.671324e+01	-6.902228e+01
3.600000e-07	-5.277994e-06	-1.028120e-09	-3.661448e+01	-6.892241e+01
3.700000e-07	-5.263319e-06	-1.062533e-09	-3.651268e+01	-6.882039e+01
3.800000e-07	-5.248001e-06	-1.073517e-09	-3.640641e+01	-6.871622e+01
3.900000e-07	-5.232070e-06	-1.053294e-09	-3.629590e+01	-6.860986e+01
4.000000e-07	-5.215624e-06	-1.030507e-09	-3.618181e+01	-6.850129e+01
4.100000e-07	-5.198835e-06	-1.068992e-09	-3.606534e+01	-6.839047e+01
4.200000e-07	-5.181749e-06	-1.062592e-09	-3.594681e+01	-6.827735e+01
4.300000e-07	-5.164212e-06	-1.025799e-09	-3.582515e+01	-6.816190e+01
4.400000e-07	-5.146386e-06	-1.042740e-09	-3.570149e+01	-6.804405e+01
4.500000e-07	-5.128322e-06	-1.082815e-09	-3.557617e+01	-6.792374e+01
4.600000e-07	-5.109768e-06	-1.050576e-09	-3.544746e+01	-6.780091e+01
4.700000e-07	-5.090738e-06	-1.006574e-09	-3.531545e+01	-6.767547e+01
4.800000e-07	-5.071363e-06	-1.031429e-09	-3.518104e+01	-6.754735e+01
4.900000e-07	-5.051681e-06	-1.041245e-09	-3.504450e+01	-6.741647e+01
5.000000e-07	-5.031830e-06	-1.017769e-09	-3.490679e+01	-6.728273e+01
5.100000e-07	-5.011844e-06	-1.018758e-09	-3.476815e+01	-6.714605e+01
5.200000e-07	-4.991582e-06	-1.036263e-09	-3.462758e+01	-6.700634e+01
5.300000e-07	-4.970906e-06	-1.012179e-09	-3.448415e+01	-6.686349e+01
5.400000e-07	-4.949868e-06	-1.019368e-09	-3.433821e+01	-6.671741e+01
5.500000e-07	-4.928562e-06	-1.040910e-09	-3.419040e+01	-6.656801e+01
5.600000e-07	-4.906886e-06	-1.016209e-09	-3.404003e+01	-6.641521e+01
5.700000e-07	-4.884850e-06	-9.752297e-10	-3.388717e+01	-6.625890e+01
5.800000e-07	-4.862500e-06	-9.998548e-10	-3.373211e+01	-6.609903e+01
5.900000e-07	-4.839767e-06	-1.006222e-09	-3.357441e+01	-6.593549e+01
6.000000e-07	-4.816765e-06	-9.856918e-10	-3.341484e+01	-6.576825e+01
6.100000e-07	-4.793494e-06	-9.883117e-10	-3.325341e+01	-6.559722e+01
6.200000e-07	-4.769874e-06	-1.008236e-09	-3.308955e+01	-6.542237e+01
6.300000e-07	-4.745991e-06	-9.819473e-10	-3.292387e+01	-6.524367e+01
6.400000e-07	-4.721908e-06	-9.716537e-10	-3.275680e+01	-6.506108e+01
6.500000e-07	-4.697501e-06	-9.777723e-10	-3.258748e+01	-6.487460e+01
6.600000e-07	-4.672640e-06	-9.700250e-10	-3.241502e+01	-6.468424e+01
6.700000e-07	-4.647353e-06	-9.546098e-10	-3.223960e+01	-6.449002e+01
6.800000e-07	-4.621666e-06	-9.639340e-10	-3.206141e+01	-6.429196e+01
6.900000e-07	-4.595483e-06	-9.617615e-10	-3.187977e+01	-6.409013e+01
7.000000e-07	-4.568620e-06	-9.569870e-10	-3.169341e+01	-6.388459e+01
7.100000e-07	-4.541248e-06	-9.569971e-10	-3.150353e+01	-6.367543e+01
7.200000e-07	-4.513643e-06	-9.496691e-10	-3.131203e+01	-6.346274e+01
7.300000e-07	-4.485858e-06	-9.346335e-10	-3.111928e+01	-6.324665e+01
7.400000e-07	-4.457942e-06	-9.379863e-10	-3.092562e+01	-6.302728e+01
7.500000e-07	-4.429800e-06	-9.412493e-10	-3.073039e+01	-6.280478e+01
7.600000e-07	-4.401392e-06	-9.343675e-10	-3.053332e+01	-6.257930e+01
7.700000e-07	-4.372707e-06	-9.326329e-10	-3.033433e+01	-6.235103e+01
7.800000e-07	-4.343658e-06	-9.285912e-10	-3.013281e+01	-6.212012e+01
7.900000e-07	-4.314260e-06	-9.199062e-10	-2.992887e+01	-6.188679e+01
8.000000e-07	-4.284573e-06	-9.186767e-10	-2.972293e+01	-6.165122e+01
8.100000e-07	-4.254591e-06	-9.226039e-10	-2.951493e+01	-6.141361e+01
8.200000e-07	-4.224257e-06	-9.135744e-10	-2.930450e+01	-6.117417e+01
8.300000e-07	-4.193716e-06	-9.099259e-10	-2.909263e+01	-6.093311e+01
8.400000e-07	-4.162927e-06	-9.109197e-10	-2.887904e+01	-6.069062e+01
8.500000e-07	-4.131746e-06	-9.073617e-10	-2.866273e+01	-6.044692e+01
8.600000e-07	-4.100280e-06	-8.978605e-10	-2.844445e+01	-6.020219e+01
8.700000e-07	-4.068723e-06	-8.967295e-10	-2.822553e+01	-5.995662e+01
8.800000e-07	-4.037036e-06	-8.894992e-10	-2.800571e+01	-5.971039e+01
8.900000e-07	-4.005106e-06	-8.841597e-10	-2.778421e+01	-5.946367e+01
9.000000e-07	-3.972938e-06	-8.797648e-10	-2.756105e+01	-5.921659e+01
9.100000e-07	-3.940435e-06	-8.779815e-10	-2.733557e+01	-5.896929e+01
9.200000e-07	-3.907560e-06	-8.694555e-10	-2.710751e+01	-5.872188e+01
9.300000e-07	-3.874398e-06	-8.702955e-10	-2.687746e+01	-5.847445e+01
9.400000e-07	-3.840841e-06	-8.720836e-10	-2.664467e+01	-5.822707e+01
9.500000e-07	-3.806792e-06	-8.699981e-10	-2.640846e+01	-5.797977e+01
9.600000e-07	-3.772295e-06	-8.622776e-10	-2.616915e+01	-5.773257e+01
9.700000e-07	-3.737439e-06	-8.575036e-10	-2.592735e+01	-5.748545e+01
9.800000e-07	-3.702180e-06	-8.479966e-10	-2.568275e+01	-5.723838e+01
9.900000e-07	-3.666509e-06	-8.398463e-10	-2.543529e+01	-5.699128e+01
1.000000e-06	-3.630730e-06	-8.369782e-10	-2.518709e+01	-5.674405e+01
1.010000e-06	-3.594957e-06	-8.360028e-10	-2.493892e+01	-5.649657e+01
1.020000e-06	-3.559036e-06	-8.326008e-10	-2.468973e+01	-5.624866e+01
1.030000e-06	-3.522917e-06	-8.314669e-10	-2.443916e+01	-5.600014e+01
1.040000e-06	-3.486601e-06	-8.291839e-10	-2.418724e+01	-5.575080e+01
1.050000e-06	-3.450042e-06	-8.216769e-10	-2.393362e+01	-5.550038e+01
1.060000e-06	-3.413145e-06	-8.104925e-10	-2.367766e+01	-5.524862e+01
1.070000e-06	-3.375935e-06	-8.001146e-10	-2.341952e+01	-5.499521e+01
1.080000e-06	-3.338579e-06	-7.937264e-10	-2.316038e+01	-5.473984e+01
1.090000e-06	-3.301090e-06	-7.901574e-10	-2.290031e+01	-5.448217e+01
1.100000e-06	-3.263376e-06	-7.909237e-10	-2.263868e+01	-5.422183e+01
1.110000e-06	-3.225426e-06	-7.887246e-10	-2.237542e+01	-5.395845e+01
1.120000e-06	-3.187167e-06	-7.851282e-10	-2.211001e+01	-5.369164e+01
1.130000e-06	-3.148588e-06	-7.786641e-10	-2.184237e+01	-5.342100e+01
1.140000e-06	-3.109872e-06	-7.708329e-10	-2.157379e+01	-5.314612e+01
1.150000e-06	-3.070927e-06	-7.618358e-10	-2.130362e+01	-5.286659e+01
1.160000e-06	-3.031755e-06	-7.554552e-10	-2.103188e+01	-5.258199e+01
1.170000e-06	-2.992480e-06	-7.489413e-10	-2.075942e+01	-5.229190e+01
1.180000e-06	-2.953039e-06	-7.437450e-10	-2.048581e+01	-5.199591e+01
1.190000e-06	-2.913400e-06	-7.382775e-10	-2.021082e+01	-5.169362e+01
1.200000e-06	-2.873627e-06	-7.348710e-10	-1.993491e+01	-5.138463e+01
1.210000e-06	-2.833756e-06	-7.296270e-10	-1.965832e+01	-5.106857e+01
1.220000e-06	-2.793711e-06	-7.255084e-10	-1.938052e+01	-5.074505e+01
1.230000e-06	-2.753574e-06	-7.209563e-10	-1.910208e+01	-5.041374e+01
1.240000e-06	-2.713333e-06	-7.170296e-10	-1.882292e+01	-5.007430e+01
1.250000e-06	-2.672825e-06	-7.107207e-10	-1.854191e+01	-4.972642e+01
1.260000e-06	-2.632155e-06	-7.059530e-10	-1.825978e+01	-4.936982e+01
1.270000e-06	-2.591174e-06	-7.018144e-10	-1.797549e+01	-4.900425e+01
1.280000e-06	-2.549875e-06	-6.954044e-10	-1.768898e+01	-4.862946e+01
1.290000e-06	-2.508368e-06	-6.866510e-10	-1.740104e+01	-4.824525e+01
1.300000e-06	-2.466577e-06	-6.772479e-10	-1.711113e+01	-4.785145e+01
1.310000e-06	-2.424383e-06	-6.691357e-10	-1.681842e+01	-4.744791e+01
1.320000e-06	-2.381786e-06	-6.659497e-10	-1.652292e+01	-4.703450e+01
1.330000e-06	-2.338886e-06	-6.631251e-10	-1.622531e+01	-4.661114e+01
1.340000e-06	-2.295730e-06	-6.595457e-10	-1.592593e+01	-4.617776e+01
1.350000e-06	-2.252383e-06	-6.539109e-10	-1.562522e+01	-4.573431e+01
1.360000e-06	-2.208837e-06	-6.446926e-10	-1.532314e+01	-4.528079e+01
1.370000e-06	-2.165170e-06	-6.336752e-10	-1.502021e+01	-4.481720e+01
1.380000e-06	-2.121465e-06	-6.239876e-10	-1.471702e+01	-4.434357e+01
1.390000e-06	-2.077775e-06	-6.169237e-10	-1.441394e+01	-4.385996e+01
1.400000e-06	-2.033988e-06	-6.106595e-10	-1.411018e+01	-4.336642e+01
1.410000e-06	-1.990087e-06	-6.055573e-10	-1.380562e+01	-4.286303e+01
1.420000e-06	-1.946114e-06	-6.005670e-10	-1.350058e+01	-4.234990e+01
1.430000e-06	-1.902072e-06	-5.953694e-10	-1.319505e+01	-4.182711e+01
1.440000e-06	-1.857913e-06	-5.886988e-10	-1.288871e+01	-4.129477e+01
1.450000e-06	-1.813640e-06	-5.806899e-10	-1.258158e+01	-4.075299e+01
1.460000e-06	-1.769209e-06	-5.689412e-10	-1.227335e+01	-4.020188e+01
1.470000e-06	-1.724620e-06	-5.558045e-10	-1.196403e+01	-3.964153e+01
1.480000e-06	-1.679954e-06	-5.425884e-10	-1.165417e+01	-3.907204e+01
1.490000e-06	-1.635069e-06	-5.327452e-10	-1.134280e+01	-3.849350e+01
1.500000e-06	-1.590038e-06	-5.272890e-10	-1.103041e+01	-3.790597e+01
1.510000e-06	-1.544952e-06	-5.232316e-10	-1.071763e+01	-3.730952e+01
1.520000e-06	-1.499766e-06	-5.153002e-10	-1.040417e+01	-3.670419e+01
1.530000e-06	-1.454423e-06	-5.046884e-10	-1.008961e+01	-3.608999e+01
1.540000e-06	-1.409011e-06	-4.925588e-10	-9.774589e+00	-3.546691e+01
1.550000e-06	-1.363547e-06	-4.790363e-10	-9.459190e+00	-3.483494e+01
1.560000e-06	-1.317971e-06	-4.642815e-10	-9.143022e+00	-3.419401e+01
1.570000e-06	-1.272342e-06	-4.536096e-10	-8.826483e+00	-3.354405e+01
1.580000e-06	-1.226569e-06	-4.442326e-10	-8.508950e+00	-3.288495e+01
1.590000e-06	-1.180666e-06	-4.347212e-10	-8.190511e+00	-3.221658e+01
1.600000e-06	-1.134665e-06	-4.253668e-10	-7.871397e+00	-3.153878e+01
1.610000e-06	-1.088621e-06	-4.169991e-10	-7.551974e+00	-3.085136e+01
1.620000e-06	-1.042489e-06	-4.080490e-10	-7.231951e+00	-3.015412e+01
1.630000e-06	-9.962840e-07	-3.998541e-10	-6.911417e+00	-2.944680e+01
1.640000e-06	-9.499970e-07	-3.890439e-10	-6.590316e+00	-2.872916e+01
1.650000e-06	-9.036561e-07	-3.744073e-10	-6.268839e+00	-2.800092e+01
1.660000e-06	-8.573143e-07	-3.594081e-10	-5.947358e+00	-2.726178e+01
1.670000e-06	-8.108605e-07	-3.445054e-10	-5.625098e+00	-2.651143e+01
1.680000e-06	-7.643782e-07	-3.314170e-10	-5.302642e+00	-2.574955e+01
1.690000e-06	-7.178921e-07	-3.224934e-10	-4.980159e+00	-2.497581e+01
1.700000e-06	-6.714350e-07	-3.163053e-10	-4.657876e+00	-2.418987e+01
1.710000e-06	-6.249032e-07	-3.054283e-10	-4.335076e+00	-2.339140e+01
1.720000e-06	-5.781878e-07	-2.917476e-10	-4.011002e+00	-2.258007e+01
1.730000e-06	-5.314984e-07	-2.744164e-10	-3.687109e+00	-2.175556e+01
1.740000e-06	-4.848574e-07	-2.572296e-10	-3.363551e+00	-2.091756e+01
1.750000e-06	-4.381839e-07	-2.425272e-10	-3.039768e+00	-2.006578e+01
1.760000e-06	-3.914663e-07	-2.284209e-10	-2.715679e+00	-1.919995e+01
1.770000e-06	-3.447018e-07	-2.181667e-10	-2.391264e+00	-1.831983e+01
1.780000e-06	-2.978337e-07	-2.106428e-10	-2.066131e+00	-1.742521e+01
1.790000e-06	-2.508953e-07	-2.019810e-10	-1.740510e+00	-1.651592e+01
1.800000e-06	-2.040634e-07	-1.863500e-10	-1.415628e+00	-1.559181e+01
1.810000e-06	-1.571990e-07	-1.668824e-10	-1.090521e+00	-1.465281e+01
1.820000e-06	-1.102277e-07	-1.451607e-10	-7.646711e-01	-1.369887e+01
1.830000e-06	-6.319539e-08	-1.229944e-10	-4.383988e-01	-1.273000e+01
1.840000e-06	-1.620714e-08	-1.076427e-10	-1.124321e-01	-1.174627e+01
1.850000e-06	3.070841e-08	-1.003443e-10	2.130302e-01	-1.074778e+01
1.860000e-06	7.770968e-08	-9.564604e-11	5.390873e-01	-9.734732e+00
1.870000e-06	1.247596e-07	-8.831292e-11	8.654819e-01	-8.707359e+00
1.880000e-06	1.716711e-07	-7.399927e-11	1.190916e+00	-7.665967e+00
1.890000e-06	2.184396e-07	-5.167567e-11	1.515359e+00	-6.610926e+00
1.900000e-06	2.652440e-07	-2.621017e-11	1.840049e+00	-5.542669e+00
1.910000e-06	3.121050e-07	-2.971189e-12	2.165134e+00	-4.461694e+00
1.920000e-06	3.589884e-07	1.333846e-11	2.490373e+00	-3.368562e+00
1.930000e-06	4.058566e-07	2.340702e-11	2.815507e+00	-2.263897e+00
1.940000e-06	4.526782e-07	2.748428e-11	3.140317e+00	-1.148385e+00
1.950000e-06	4.993865e-07	3.214489e-11	3.464342e+00	-2.277061e-02
1.960000e-06	5.459447e-07	4.198174e-11	3.787326e+00	1.112147e+00
1.970000e-06	5.924806e-07	6.033217e-11	4.110154e+00	2.255513e+00
1.980000e-06	6.390185e-07	8.503004e-11	4.432997e+00	3.406424e+00
1.990000e-06	6.855132e-07	1.102046e-10	4.755540e+00	4.563931e+00
2.000000e-06	7.319465e-07	1.311945e-10	5.077657e+00	5.727045e+00
2.010000e-06	7.783210e-07	1.449366e-10	5.399365e+00	6.894737e+00
2.020000e-06	8.246521e-07	1.516176e-10	5.720773e+00	8.065949e+00
2.030000e-06	8.709403e-07	1.573713e-10	6.041884e+00	9.239598e+00
2.040000e-06	9.171825e-07	1.661471e-10	6.362675e+00	1.041458e+01
2.050000e-06	9.633615e-07	1.795081e-10	6.683028e+00	1.158977e+01
2.060000e-06	1.009484e-06	1.985206e-10	7.002991e+00	1.276404e+01
2.070000e-06	1.055589e-06	2.202914e-10	7.322829e+00	1.393627e+01
2.080000e-06	1.101676e-06	2.406540e-10	7.642544e+00	1.510531e+01
2.090000e-06	1.147663e-06	2.572270e-10	7.961562e+00	1.627006e+01
2.100000e-06	1.193572e-06	2.705684e-10	8.280041e+00	1.742941e+01
2.110000e-06	1.239281e-06	2.819446e-10	8.597136e+00	1.858227e+01
2.120000e-06	1.284843e-06	2.921198e-10	8.913209e+00	1.972759e+01
2.130000e-06	1.330403e-06	3.009247e-10	9.229263e+00	2.086435e+01
2.140000e-06	1.375882e-06	3.119044e-10	9.544761e+00	2.199155e+01
2.150000e-06	1.421212e-06	3.277735e-10	9.859226e+00	2.310824e+01
2.160000e-06	1.466543e-06	3.469708e-10	1.017370e+01	2.421354e+01
2.170000e-06	1.511833e-06	3.664597e-10	1.048788e+01	2.530659e+01
2.180000e-06	1.556881e-06	3.825162e-10	1.080039e+01	2.638659e+01
2.190000e-06	1.601797e-06	3.950388e-10	1.111198e+01	2.745280e+01
2.200000e-06	1.646712e-06	4.057910e-10	1.142357e+01	2.850456e+01
2.210000e-06	1.691534e-06	4.159583e-10	1.173450e+01	2.954124e+01
2.220000e-06	1.736143e-06	4.288088e-10	1.204396e+01	3.056229e+01
2.230000e-06	1.780574e-06	4.446138e-10	1.235219e+01	3.156722e+01
2.240000e-06	1.824824e-06	4.600804e-10	1.265916e+01	3.255562e+01
2.250000e-06	1.868946e-06	4.723803e-10	1.296525e+01	3.352713e+01
2.260000e-06	1.912964e-06	4.846034e-10	1.327061e+01	3.448146e+01
2.270000e-06	1.956901e-06	4.979329e-10	1.357541e+01	3.541839e+01
2.280000e-06	2.000834e-06	5.103654e-10	1.388018e+01	3.633777e+01
2.290000e-06	2.044761e-06	5.217522e-10	1.418491e+01	3.723949e+01
2.300000e-06	2.088629e-06	5.341961e-10	1.448923e+01	3.812351e+01
2.310000e-06	2.132408e-06	5.472546e-10	1.479294e+01	3.898986e+01
2.320000e-06	2.176086e-06	5.585357e-10	1.509594e+01	3.983862e+01
2.330000e-06	2.219587e-06	5.665033e-10	1.539771e+01	4.066989e+01
2.340000e-06	2.262882e-06	5.736183e-10	1.569805e+01	4.148387e+01
2.350000e-06	2.306064e-06	5.832819e-10	1.599762e+01	4.228075e+01
2.360000e-06	2.349092e-06	5.946914e-10	1.629611e+01	4.306080e+01
2.370000e-06	2.391792e-06	6.069632e-10	1.659233e+01	4.382431e+01
2.380000e-06	2.434131e-06	6.181565e-10	1.688604e+01	4.457158e+01
2.390000e-06	2.476165e-06	6.282251e-10	1.717764e+01	4.530297e+01
2.400000e-06	2.517853e-06	6.388905e-10	1.746684e+01	4.601884e+01
2.410000e-06	2.559182e-06	6.504579e-10	1.775355e+01	4.671957e+01
2.420000e-06	2.600311e-06	6.621583e-10	1.803887e+01	4.740554e+01
2.430000e-06	2.641178e-06	6.731678e-10	1.832237e+01	4.807717e+01
2.440000e-06	2.681780e-06	6.837670e-10	1.860403e+01	4.873486e+01
2.450000e-06	2.722217e-06	6.949177e-10	1.888455e+01	4.937899e+01
2.460000e-06	2.762381e-06	7.057809e-10	1.916318e+01	5.000997e+01
2.470000e-06	2.802364e-06	7.152475e-10	1.944055e+01	5.062818e+01
2.480000e-06	2.842302e-06	7.242952e-10	1.971761e+01	5.123400e+01
2.490000e-06	2.882201e-06	7.330348e-10	1.999439e+01	5.182779e+01
2.500000e-06	2.921954e-06	7.428939e-10	2.027016e+01	5.240987e+01
2.510000e-06	2.961535e-06	7.533517e-10	2.054475e+01	5.298058e+01
2.520000e-06	3.000975e-06	7.621830e-10	2.081835e+01	5.354019e+01
2.530000e-06	3.040177e-06	7.704029e-10	2.109030e+01	5.408900e+01
2.540000e-06	3.079192e-06	7.770799e-10	2.136096e+01	5.462723e+01
2.550000e-06	3.118109e-06	7.817050e-10	2.163094e+01	5.515510e+01
2.560000e-06	3.156840e-06	7.870034e-10	2.189962e+01	5.567281e+01
2.570000e-06	3.195156e-06	7.947361e-10	2.216543e+01	5.618052e+01
2.580000e-06	3.233150e-06	8.040694e-10	2.242900e+01	5.667836e+01
2.590000e-06	3.271008e-06	8.143033e-10	2.269162e+01	5.716643e+01
2.600000e-06	3.308733e-06	8.240317e-10	2.295333e+01	5.764483e+01
2.610000e-06	3.346265e-06	8.325473e-10	2.321370e+01	5.811360e+01
2.620000e-06	3.383439e-06	8.395961e-10	2.347158e+01	5.857279e+01
2.630000e-06	3.420288e-06	8.448804e-10	2.372721e+01	5.902240e+01
2.640000e-06	3.456999e-06	8.467205e-10	2.398188e+01	5.946242e+01
2.650000e-06	3.493492e-06	8.471332e-10	2.423504e+01	5.989285e+01
2.660000e-06	3.529665e-06	8.507999e-10	2.448598e+01	6.031363e+01
2.670000e-06	3.565670e-06	8.574799e-10	2.473575e+01	6.072472e+01
2.680000e-06	3.601582e-06	8.651797e-10	2.498488e+01	6.112606e+01
2.690000e-06	3.637386e-06	8.720903e-10	2.523326e+01	6.151760e+01
2.700000e-06	3.673089e-06	8.777959e-10	2.548094e+01	6.189925e+01
2.710000e-06	3.708621e-06	8.818984e-10	2.572743e+01	6.227096e+01
2.720000e-06	3.743869e-06	8.859875e-10	2.597195e+01	6.263266e+01
2.730000e-06	3.778780e-06	8.912251e-10	2.621414e+01	6.298430e+01
2.740000e-06	3.813302e-06	8.952636e-10	2.645362e+01	6.332580e+01
2.750000e-06	3.847263e-06	8.979460e-10	2.668922e+01	6.365715e+01
2.760000e-06	3.880687e-06	9.006895e-10	2.692109e+01	6.397830e+01
2.770000e-06	3.913683e-06	9.050242e-10	2.714999e+01	6.428925e+01
2.780000e-06	3.946220e-06	9.104689e-10	2.737570e+01	6.458999e+01
2.790000e-06	3.978458e-06	9.163079e-10	2.759934e+01	6.488055e+01
2.800000e-06	4.010531e-06	9.233365e-10	2.782184e+01	6.516097e+01
2.810000e-06	4.042488e-06	9.304207e-10	2.804354e+01	6.543130e+01
2.820000e-06	4.074298e-06	9.341707e-10	2.826421e+01	6.569165e+01
2.830000e-06	4.105959e-06	9.342154e-10	2.848384e+01	6.594210e+01
2.840000e-06	4.137380e-06	9.333447e-10	2.870182e+01	6.618279e+01
2.850000e-06	4.168444e-06	9.330818e-10	2.891732e+01	6.641388e+01
2.860000e-06	4.199152e-06	9.356333e-10	2.913034e+01	6.663554e+01
2.870000e-06	4.229503e-06	9.409547e-10	2.934089e+01	6.684797e+01
2.880000e-06	4.259590e-06	9.471602e-10	2.954961e+01	6.705139e+01
2.890000e-06	4.289413e-06	9.536375e-10	2.975650e+01	6.724603e+01
2.900000e-06	4.318963e-06	9.595353e-10	2.996150e+01	6.743217e+01
