# Temperatura_=_-0.3
# Concentracion g/m^3_=_1620.0
# C_Vs_to_Am_M_A/Vsm_=_65563218390.804596
# pendiente_HvsI_1/m_=_3716.3
# ordenada_HvsI_A/m_=_1297.0
# frecuencia_Hz_=_135092.73850766805

Tiempo_(s)	Campo_(V.s)	Magnetizacion_(V.s)	Campo_(kA/m)	Magnetizacion_(A/m)
0.000000e+00	-5.507538e-06	-1.378170e-09	-3.836834e+01	-9.040297e+01
1.000000e-08	-5.507685e-06	-1.375938e-09	-3.836937e+01	-9.041265e+01
2.000000e-08	-5.507561e-06	-1.375466e-09	-3.836850e+01	-9.042152e+01
3.000000e-08	-5.507170e-06	-1.374850e-09	-3.836578e+01	-9.042944e+01
4.000000e-08	-5.506326e-06	-1.374687e-09	-3.835990e+01	-9.043624e+01
5.000000e-08	-5.504812e-06	-1.372604e-09	-3.834935e+01	-9.044174e+01
6.000000e-08	-5.502610e-06	-1.360207e-09	-3.833401e+01	-9.044577e+01
7.000000e-08	-5.499732e-06	-1.341936e-09	-3.831397e+01	-9.044810e+01
8.000000e-08	-5.496412e-06	-1.379797e-09	-3.829084e+01	-9.044852e+01
9.000000e-08	-5.492705e-06	-1.441884e-09	-3.826501e+01	-9.044681e+01
1.000000e-07	-5.488466e-06	-1.409067e-09	-3.823548e+01	-9.044273e+01
1.100000e-07	-5.484011e-06	-1.295416e-09	-3.820444e+01	-9.043605e+01
1.200000e-07	-5.479472e-06	-1.302332e-09	-3.817282e+01	-9.042653e+01
1.300000e-07	-5.474640e-06	-1.363728e-09	-3.813916e+01	-9.041393e+01
1.400000e-07	-5.469351e-06	-1.403098e-09	-3.810232e+01	-9.039802e+01
1.500000e-07	-5.463646e-06	-1.286036e-09	-3.806257e+01	-9.037857e+01
1.600000e-07	-5.457672e-06	-1.319562e-09	-3.802095e+01	-9.035534e+01
1.700000e-07	-5.451187e-06	-1.401524e-09	-3.797578e+01	-9.032814e+01
1.800000e-07	-5.444204e-06	-1.441601e-09	-3.792713e+01	-9.029674e+01
1.900000e-07	-5.436894e-06	-1.345980e-09	-3.787620e+01	-9.026098e+01
2.000000e-07	-5.429282e-06	-1.317322e-09	-3.782317e+01	-9.022066e+01
2.100000e-07	-5.421417e-06	-1.387871e-09	-3.776838e+01	-9.017564e+01
2.200000e-07	-5.413399e-06	-1.431780e-09	-3.771252e+01	-9.012577e+01
2.300000e-07	-5.405203e-06	-1.412910e-09	-3.765543e+01	-9.007092e+01
2.400000e-07	-5.396563e-06	-1.379334e-09	-3.759524e+01	-9.001099e+01
2.500000e-07	-5.387140e-06	-1.421950e-09	-3.752959e+01	-8.994590e+01
2.600000e-07	-5.376879e-06	-1.412383e-09	-3.745811e+01	-8.987559e+01
2.700000e-07	-5.366053e-06	-1.386973e-09	-3.738269e+01	-8.980001e+01
2.800000e-07	-5.354689e-06	-1.350706e-09	-3.730352e+01	-8.971914e+01
2.900000e-07	-5.342894e-06	-1.414872e-09	-3.722135e+01	-8.963298e+01
3.000000e-07	-5.330917e-06	-1.407788e-09	-3.713791e+01	-8.954153e+01
3.100000e-07	-5.318640e-06	-1.388202e-09	-3.705238e+01	-8.944485e+01
3.200000e-07	-5.305768e-06	-1.350648e-09	-3.696271e+01	-8.934298e+01
3.300000e-07	-5.292463e-06	-1.408112e-09	-3.687002e+01	-8.923599e+01
3.400000e-07	-5.278931e-06	-1.378538e-09	-3.677575e+01	-8.912397e+01
3.500000e-07	-5.264972e-06	-1.343931e-09	-3.667850e+01	-8.900702e+01
3.600000e-07	-5.250558e-06	-1.344734e-09	-3.657809e+01	-8.888525e+01
3.700000e-07	-5.235753e-06	-1.405977e-09	-3.647495e+01	-8.875879e+01
3.800000e-07	-5.220326e-06	-1.361266e-09	-3.636748e+01	-8.862776e+01
3.900000e-07	-5.204316e-06	-1.342944e-09	-3.625594e+01	-8.849230e+01
4.000000e-07	-5.187749e-06	-1.385574e-09	-3.614053e+01	-8.835256e+01
4.100000e-07	-5.170770e-06	-1.374547e-09	-3.602224e+01	-8.820869e+01
4.200000e-07	-5.153596e-06	-1.304122e-09	-3.590260e+01	-8.806084e+01
4.300000e-07	-5.136171e-06	-1.347618e-09	-3.578121e+01	-8.790915e+01
4.400000e-07	-5.118463e-06	-1.403899e-09	-3.565785e+01	-8.775378e+01
4.500000e-07	-5.100320e-06	-1.332788e-09	-3.553145e+01	-8.759486e+01
4.600000e-07	-5.081702e-06	-1.315930e-09	-3.540175e+01	-8.743253e+01
4.700000e-07	-5.062735e-06	-1.375846e-09	-3.526962e+01	-8.726692e+01
4.800000e-07	-5.043452e-06	-1.349177e-09	-3.513528e+01	-8.709816e+01
4.900000e-07	-5.023916e-06	-1.295784e-09	-3.499919e+01	-8.692636e+01
5.000000e-07	-5.004200e-06	-1.361925e-09	-3.486183e+01	-8.675161e+01
5.100000e-07	-4.984298e-06	-1.350811e-09	-3.472319e+01	-8.657401e+01
5.200000e-07	-4.964036e-06	-1.284087e-09	-3.458203e+01	-8.639364e+01
5.300000e-07	-4.943450e-06	-1.320771e-09	-3.443862e+01	-8.621055e+01
5.400000e-07	-4.922567e-06	-1.375064e-09	-3.429314e+01	-8.602481e+01
5.500000e-07	-4.901193e-06	-1.293171e-09	-3.414423e+01	-8.583644e+01
5.600000e-07	-4.879454e-06	-1.286744e-09	-3.399279e+01	-8.564547e+01
5.700000e-07	-4.857467e-06	-1.338895e-09	-3.383961e+01	-8.545191e+01
5.800000e-07	-4.835206e-06	-1.313477e-09	-3.368453e+01	-8.525576e+01
5.900000e-07	-4.812556e-06	-1.270211e-09	-3.352674e+01	-8.505700e+01
6.000000e-07	-4.789463e-06	-1.317610e-09	-3.336587e+01	-8.485560e+01
6.100000e-07	-4.766046e-06	-1.305155e-09	-3.320273e+01	-8.465154e+01
6.200000e-07	-4.742441e-06	-1.268935e-09	-3.303829e+01	-8.444475e+01
6.300000e-07	-4.718685e-06	-1.281983e-09	-3.287279e+01	-8.423519e+01
6.400000e-07	-4.694678e-06	-1.294162e-09	-3.270554e+01	-8.402279e+01
6.500000e-07	-4.670239e-06	-1.261565e-09	-3.253529e+01	-8.380747e+01
6.600000e-07	-4.645359e-06	-1.274364e-09	-3.236196e+01	-8.358917e+01
6.700000e-07	-4.620072e-06	-1.283163e-09	-3.218580e+01	-8.336779e+01
6.800000e-07	-4.594222e-06	-1.261637e-09	-3.200572e+01	-8.314327e+01
6.900000e-07	-4.567754e-06	-1.254443e-09	-3.182133e+01	-8.291551e+01
7.000000e-07	-4.540829e-06	-1.265935e-09	-3.163375e+01	-8.268443e+01
7.100000e-07	-4.513586e-06	-1.249338e-09	-3.144396e+01	-8.244995e+01
7.200000e-07	-4.486065e-06	-1.239759e-09	-3.125224e+01	-8.221199e+01
7.300000e-07	-4.458331e-06	-1.249035e-09	-3.105903e+01	-8.197048e+01
7.400000e-07	-4.430432e-06	-1.247009e-09	-3.086467e+01	-8.172535e+01
7.500000e-07	-4.402329e-06	-1.241412e-09	-3.066889e+01	-8.147652e+01
7.600000e-07	-4.374003e-06	-1.239245e-09	-3.047156e+01	-8.122396e+01
7.700000e-07	-4.345357e-06	-1.230501e-09	-3.027199e+01	-8.096759e+01
7.800000e-07	-4.316270e-06	-1.216141e-09	-3.006936e+01	-8.070739e+01
7.900000e-07	-4.286834e-06	-1.221540e-09	-2.986429e+01	-8.044331e+01
8.000000e-07	-4.257165e-06	-1.219290e-09	-2.965760e+01	-8.017534e+01
8.100000e-07	-4.227305e-06	-1.211588e-09	-2.944958e+01	-7.990346e+01
8.200000e-07	-4.197181e-06	-1.208431e-09	-2.923972e+01	-7.962765e+01
8.300000e-07	-4.166599e-06	-1.213721e-09	-2.902667e+01	-7.934792e+01
8.400000e-07	-4.135641e-06	-1.198538e-09	-2.881100e+01	-7.906428e+01
8.500000e-07	-4.104525e-06	-1.192510e-09	-2.859424e+01	-7.877675e+01
8.600000e-07	-4.073227e-06	-1.190791e-09	-2.837620e+01	-7.848533e+01
8.700000e-07	-4.041744e-06	-1.185003e-09	-2.815687e+01	-7.819007e+01
8.800000e-07	-4.010046e-06	-1.169978e-09	-2.793604e+01	-7.789100e+01
8.900000e-07	-3.978127e-06	-1.176085e-09	-2.771368e+01	-7.758814e+01
9.000000e-07	-3.946059e-06	-1.172025e-09	-2.749028e+01	-7.728155e+01
9.100000e-07	-3.913712e-06	-1.160443e-09	-2.726493e+01	-7.697126e+01
9.200000e-07	-3.881055e-06	-1.152718e-09	-2.703742e+01	-7.665730e+01
9.300000e-07	-3.847997e-06	-1.153036e-09	-2.680712e+01	-7.633974e+01
9.400000e-07	-3.814491e-06	-1.137791e-09	-2.657370e+01	-7.601858e+01
9.500000e-07	-3.780633e-06	-1.130643e-09	-2.633784e+01	-7.569389e+01
9.600000e-07	-3.746251e-06	-1.132793e-09	-2.609831e+01	-7.536567e+01
9.700000e-07	-3.711355e-06	-1.126510e-09	-2.585521e+01	-7.503395e+01
9.800000e-07	-3.676133e-06	-1.115848e-09	-2.560983e+01	-7.469875e+01
9.900000e-07	-3.640691e-06	-1.117305e-09	-2.536293e+01	-7.436007e+01
1.000000e-06	-3.605094e-06	-1.110819e-09	-2.511494e+01	-7.401790e+01
1.010000e-06	-3.569361e-06	-1.096287e-09	-2.486601e+01	-7.367224e+01
1.020000e-06	-3.533528e-06	-1.092027e-09	-2.461637e+01	-7.332306e+01
1.030000e-06	-3.497553e-06	-1.089838e-09	-2.436576e+01	-7.297031e+01
1.040000e-06	-3.461327e-06	-1.081373e-09	-2.411339e+01	-7.261395e+01
1.050000e-06	-3.424810e-06	-1.072124e-09	-2.385899e+01	-7.225391e+01
1.060000e-06	-3.388070e-06	-1.071523e-09	-2.360304e+01	-7.189012e+01
1.070000e-06	-3.351049e-06	-1.060218e-09	-2.334513e+01	-7.152248e+01
1.080000e-06	-3.313766e-06	-1.051542e-09	-2.308540e+01	-7.115088e+01
1.090000e-06	-3.276283e-06	-1.051408e-09	-2.282427e+01	-7.077522e+01
1.100000e-06	-3.238519e-06	-1.047789e-09	-2.256119e+01	-7.039536e+01
1.110000e-06	-3.200568e-06	-1.036310e-09	-2.229680e+01	-7.001116e+01
1.120000e-06	-3.162436e-06	-1.029711e-09	-2.203116e+01	-6.962246e+01
1.130000e-06	-3.124040e-06	-1.023609e-09	-2.176367e+01	-6.922910e+01
1.140000e-06	-3.085377e-06	-1.014840e-09	-2.149433e+01	-6.883090e+01
1.150000e-06	-3.046540e-06	-1.005727e-09	-2.122377e+01	-6.842768e+01
1.160000e-06	-3.007526e-06	-1.002386e-09	-2.095197e+01	-6.801925e+01
1.170000e-06	-2.968228e-06	-9.941286e-10	-2.067821e+01	-6.760540e+01
1.180000e-06	-2.928768e-06	-9.866716e-10	-2.040330e+01	-6.718593e+01
1.190000e-06	-2.889211e-06	-9.796207e-10	-2.012773e+01	-6.676064e+01
1.200000e-06	-2.849553e-06	-9.736756e-10	-1.985145e+01	-6.632931e+01
1.210000e-06	-2.809762e-06	-9.645733e-10	-1.957425e+01	-6.589173e+01
1.220000e-06	-2.769815e-06	-9.616746e-10	-1.929595e+01	-6.544768e+01
1.230000e-06	-2.729769e-06	-9.565994e-10	-1.901698e+01	-6.499694e+01
1.240000e-06	-2.689598e-06	-9.458079e-10	-1.873712e+01	-6.453931e+01
1.250000e-06	-2.649186e-06	-9.349382e-10	-1.845559e+01	-6.407458e+01
1.260000e-06	-2.608481e-06	-9.262832e-10	-1.817202e+01	-6.360253e+01
1.270000e-06	-2.567560e-06	-9.191579e-10	-1.788694e+01	-6.312297e+01
1.280000e-06	-2.526405e-06	-9.131529e-10	-1.760024e+01	-6.263569e+01
1.290000e-06	-2.484885e-06	-9.069594e-10	-1.731099e+01	-6.214050e+01
1.300000e-06	-2.443096e-06	-9.002799e-10	-1.701986e+01	-6.163722e+01
1.310000e-06	-2.401076e-06	-8.912785e-10	-1.672713e+01	-6.112566e+01
1.320000e-06	-2.358709e-06	-8.801291e-10	-1.643198e+01	-6.060565e+01
1.330000e-06	-2.316073e-06	-8.697319e-10	-1.613496e+01	-6.007701e+01
1.340000e-06	-2.273195e-06	-8.611652e-10	-1.583625e+01	-5.953959e+01
1.350000e-06	-2.230006e-06	-8.525033e-10	-1.553537e+01	-5.899321e+01
1.360000e-06	-2.186682e-06	-8.437866e-10	-1.523355e+01	-5.843773e+01
1.370000e-06	-2.143247e-06	-8.366740e-10	-1.493096e+01	-5.787299e+01
1.380000e-06	-2.099666e-06	-8.316358e-10	-1.462736e+01	-5.729883e+01
1.390000e-06	-2.055999e-06	-8.251521e-10	-1.432315e+01	-5.671512e+01
1.400000e-06	-2.012223e-06	-8.136989e-10	-1.401818e+01	-5.612169e+01
1.410000e-06	-1.968369e-06	-8.015853e-10	-1.371267e+01	-5.551840e+01
1.420000e-06	-1.924442e-06	-7.913843e-10	-1.340666e+01	-5.490510e+01
1.430000e-06	-1.880490e-06	-7.826860e-10	-1.310046e+01	-5.428161e+01
1.440000e-06	-1.836491e-06	-7.743341e-10	-1.279394e+01	-5.364779e+01
1.450000e-06	-1.792354e-06	-7.642357e-10	-1.248646e+01	-5.300347e+01
1.460000e-06	-1.748064e-06	-7.508578e-10	-1.217791e+01	-5.234845e+01
1.470000e-06	-1.703667e-06	-7.396216e-10	-1.186862e+01	-5.168255e+01
1.480000e-06	-1.659136e-06	-7.283068e-10	-1.155840e+01	-5.100558e+01
1.490000e-06	-1.614482e-06	-7.150511e-10	-1.124731e+01	-5.031732e+01
1.500000e-06	-1.569720e-06	-7.012698e-10	-1.093548e+01	-4.961754e+01
1.510000e-06	-1.524815e-06	-6.909910e-10	-1.062265e+01	-4.890601e+01
1.520000e-06	-1.479823e-06	-6.775927e-10	-1.030921e+01	-4.818246e+01
1.530000e-06	-1.434805e-06	-6.637442e-10	-9.995592e+00	-4.744664e+01
1.540000e-06	-1.389679e-06	-6.484543e-10	-9.681217e+00	-4.669825e+01
1.550000e-06	-1.344407e-06	-6.331367e-10	-9.365833e+00	-4.593699e+01
1.560000e-06	-1.299085e-06	-6.165846e-10	-9.050092e+00	-4.516255e+01
1.570000e-06	-1.253543e-06	-6.035973e-10	-8.732825e+00	-4.437459e+01
1.580000e-06	-1.207838e-06	-5.924412e-10	-8.414424e+00	-4.357277e+01
1.590000e-06	-1.162138e-06	-5.791771e-10	-8.096050e+00	-4.275673e+01
1.600000e-06	-1.116264e-06	-5.647858e-10	-7.776469e+00	-4.192610e+01
1.610000e-06	-1.070306e-06	-5.522338e-10	-7.456302e+00	-4.108050e+01
1.620000e-06	-1.024350e-06	-5.407802e-10	-7.136149e+00	-4.021955e+01
1.630000e-06	-9.783147e-07	-5.284480e-10	-6.815443e+00	-3.934284e+01
1.640000e-06	-9.322456e-07	-5.129536e-10	-6.494503e+00	-3.844999e+01
1.650000e-06	-8.861748e-07	-4.949994e-10	-6.173550e+00	-3.754061e+01
1.660000e-06	-8.400382e-07	-4.768175e-10	-5.852139e+00	-3.661429e+01
1.670000e-06	-7.938742e-07	-4.601220e-10	-5.530536e+00	-3.567067e+01
1.680000e-06	-7.477304e-07	-4.454262e-10	-5.209075e+00	-3.470936e+01
1.690000e-06	-7.015202e-07	-4.315598e-10	-4.887151e+00	-3.373000e+01
1.700000e-06	-6.552623e-07	-4.183461e-10	-4.564894e+00	-3.273227e+01
1.710000e-06	-6.089111e-07	-4.015696e-10	-4.241988e+00	-3.171584e+01
1.720000e-06	-5.624248e-07	-3.841440e-10	-3.918141e+00	-3.068041e+01
1.730000e-06	-5.159152e-07	-3.658496e-10	-3.594131e+00	-2.962574e+01
1.740000e-06	-4.694681e-07	-3.485303e-10	-3.270556e+00	-2.855161e+01
1.750000e-06	-4.229897e-07	-3.320254e-10	-2.946764e+00	-2.745782e+01
1.760000e-06	-3.763158e-07	-3.170934e-10	-2.621609e+00	-2.634424e+01
1.770000e-06	-3.296341e-07	-3.044310e-10	-2.296401e+00	-2.521077e+01
1.780000e-06	-2.830684e-07	-2.913324e-10	-1.972000e+00	-2.405739e+01
1.790000e-06	-2.364773e-07	-2.718711e-10	-1.647423e+00	-2.288409e+01
1.800000e-06	-1.897758e-07	-2.486688e-10	-1.322076e+00	-2.169097e+01
1.810000e-06	-1.430878e-07	-2.263158e-10	-9.968235e-01	-2.047815e+01
1.820000e-06	-9.643118e-08	-2.079658e-10	-6.717892e-01	-1.924584e+01
1.830000e-06	-4.965311e-08	-1.918274e-10	-3.459091e-01	-1.799431e+01
1.840000e-06	-2.933300e-09	-1.772988e-10	-2.043488e-02	-1.672389e+01
1.850000e-06	4.367732e-08	-1.617369e-10	3.042787e-01	-1.543500e+01
1.860000e-06	9.026144e-08	-1.430593e-10	6.288076e-01	-1.412811e+01
1.870000e-06	1.368736e-07	-1.240094e-10	9.535319e-01	-1.280378e+01
1.880000e-06	1.835064e-07	-1.054619e-10	1.278400e+00	-1.146263e+01
1.890000e-06	2.301070e-07	-8.718839e-11	1.603043e+00	-1.010537e+01
1.900000e-06	2.767985e-07	-7.013641e-11	1.928321e+00	-8.732754e+00
1.910000e-06	3.235298e-07	-5.229345e-11	2.253875e+00	-7.345636e+00
1.920000e-06	3.701410e-07	-3.267834e-11	2.578593e+00	-5.944919e+00
1.930000e-06	4.167314e-07	-1.218225e-11	2.903165e+00	-4.531578e+00
1.940000e-06	4.633494e-07	5.691655e-12	3.227930e+00	-3.106647e+00
1.950000e-06	5.099169e-07	2.108079e-11	3.552343e+00	-1.671223e+00
1.960000e-06	5.563976e-07	3.724704e-11	3.876152e+00	-2.264558e-01
1.970000e-06	6.027748e-07	5.478713e-11	4.199239e+00	1.226453e+00
1.980000e-06	6.492082e-07	7.471763e-11	4.522719e+00	2.686257e+00
1.990000e-06	6.957136e-07	9.808305e-11	4.846699e+00	4.151669e+00
2.000000e-06	7.421036e-07	1.223845e-10	5.169875e+00	5.621367e+00
2.010000e-06	7.883301e-07	1.451194e-10	5.491913e+00	7.094000e+00
2.020000e-06	8.344469e-07	1.653981e-10	5.813186e+00	8.568195e+00
2.030000e-06	8.804990e-07	1.836720e-10	6.134009e+00	1.004256e+01
2.040000e-06	9.264959e-07	2.021057e-10	6.454447e+00	1.151570e+01
2.050000e-06	9.723929e-07	2.206318e-10	6.774189e+00	1.298621e+01
2.060000e-06	1.018166e-06	2.390182e-10	7.093069e+00	1.445270e+01
2.070000e-06	1.063885e-06	2.589431e-10	7.411572e+00	1.591377e+01
2.080000e-06	1.109593e-06	2.804293e-10	7.729993e+00	1.736805e+01
2.090000e-06	1.155270e-06	3.013562e-10	8.048207e+00	1.881421e+01
2.100000e-06	1.200899e-06	3.226391e-10	8.366082e+00	2.025093e+01
2.110000e-06	1.246403e-06	3.419114e-10	8.683087e+00	2.167693e+01
2.120000e-06	1.291758e-06	3.604600e-10	8.999052e+00	2.309098e+01
2.130000e-06	1.336901e-06	3.799930e-10	9.313537e+00	2.449189e+01
2.140000e-06	1.382005e-06	4.005070e-10	9.627756e+00	2.587854e+01
2.150000e-06	1.427182e-06	4.191713e-10	9.942483e+00	2.724985e+01
2.160000e-06	1.472223e-06	4.355028e-10	1.025626e+01	2.860483e+01
2.170000e-06	1.517145e-06	4.515658e-10	1.056921e+01	2.994252e+01
2.180000e-06	1.562002e-06	4.676030e-10	1.088171e+01	3.126208e+01
2.190000e-06	1.606737e-06	4.845146e-10	1.119335e+01	3.256270e+01
2.200000e-06	1.651355e-06	5.039059e-10	1.150419e+01	3.384368e+01
2.210000e-06	1.695906e-06	5.241922e-10	1.181455e+01	3.510438e+01
2.220000e-06	1.740272e-06	5.420771e-10	1.212363e+01	3.634425e+01
2.230000e-06	1.784488e-06	5.568299e-10	1.243166e+01	3.756281e+01
2.240000e-06	1.828673e-06	5.696169e-10	1.273948e+01	3.875969e+01
2.250000e-06	1.872752e-06	5.823985e-10	1.304655e+01	3.993457e+01
2.260000e-06	1.916718e-06	5.975359e-10	1.335284e+01	4.108722e+01
2.270000e-06	1.960549e-06	6.147491e-10	1.365819e+01	4.221749e+01
2.280000e-06	2.004314e-06	6.322435e-10	1.396309e+01	4.332532e+01
2.290000e-06	2.048067e-06	6.473877e-10	1.426789e+01	4.441071e+01
2.300000e-06	2.091725e-06	6.608963e-10	1.457203e+01	4.547372e+01
2.310000e-06	2.135264e-06	6.727950e-10	1.487535e+01	4.651450e+01
2.320000e-06	2.178671e-06	6.833901e-10	1.517774e+01	4.753325e+01
2.330000e-06	2.221935e-06	6.952518e-10	1.547914e+01	4.853024e+01
2.340000e-06	2.265021e-06	7.095952e-10	1.577930e+01	4.950577e+01
2.350000e-06	2.307882e-06	7.255110e-10	1.607789e+01	5.046022e+01
2.360000e-06	2.350523e-06	7.398069e-10	1.637495e+01	5.139400e+01
2.370000e-06	2.392947e-06	7.532781e-10	1.667050e+01	5.230755e+01
2.380000e-06	2.434965e-06	7.647690e-10	1.696322e+01	5.320137e+01
2.390000e-06	2.476648e-06	7.737664e-10	1.725361e+01	5.407594e+01
2.400000e-06	2.518110e-06	7.841769e-10	1.754245e+01	5.493182e+01
2.410000e-06	2.559264e-06	7.980960e-10	1.782915e+01	5.576955e+01
2.420000e-06	2.600200e-06	8.132374e-10	1.811433e+01	5.658968e+01
2.430000e-06	2.640863e-06	8.274017e-10	1.839761e+01	5.739278e+01
2.440000e-06	2.681241e-06	8.399699e-10	1.867891e+01	5.817942e+01
2.450000e-06	2.721521e-06	8.515398e-10	1.895952e+01	5.895016e+01
2.460000e-06	2.761631e-06	8.613742e-10	1.923894e+01	5.970554e+01
2.470000e-06	2.801542e-06	8.696852e-10	1.951698e+01	6.044612e+01
2.480000e-06	2.841331e-06	8.780551e-10	1.979417e+01	6.117240e+01
2.490000e-06	2.881041e-06	8.892488e-10	2.007081e+01	6.188489e+01
2.500000e-06	2.920607e-06	9.016822e-10	2.034645e+01	6.258407e+01
2.510000e-06	2.959959e-06	9.132287e-10	2.062060e+01	6.327038e+01
2.520000e-06	2.999108e-06	9.247300e-10	2.089333e+01	6.394423e+01
2.530000e-06	3.038035e-06	9.341534e-10	2.116452e+01	6.460602e+01
2.540000e-06	3.076811e-06	9.403095e-10	2.143465e+01	6.525611e+01
2.550000e-06	3.115278e-06	9.454136e-10	2.170263e+01	6.589480e+01
2.560000e-06	3.153484e-06	9.515606e-10	2.196879e+01	6.652239e+01
2.570000e-06	3.191663e-06	9.607571e-10	2.223477e+01	6.713912e+01
2.580000e-06	3.229741e-06	9.702040e-10	2.250004e+01	6.774521e+01
2.590000e-06	3.267502e-06	9.791438e-10	2.276310e+01	6.834084e+01
2.600000e-06	3.304998e-06	9.904018e-10	2.302432e+01	6.892616e+01
2.610000e-06	3.342309e-06	9.992273e-10	2.328424e+01	6.950129e+01
2.620000e-06	3.379360e-06	1.009519e-09	2.354236e+01	7.006632e+01
2.630000e-06	3.416054e-06	1.017109e-09	2.379799e+01	7.062130e+01
2.640000e-06	3.452564e-06	1.020894e-09	2.405233e+01	7.116628e+01
2.650000e-06	3.488932e-06	1.025036e-09	2.430569e+01	7.170127e+01
2.660000e-06	3.524990e-06	1.031931e-09	2.455689e+01	7.222627e+01
2.670000e-06	3.560886e-06	1.039595e-09	2.480696e+01	7.274126e+01
2.680000e-06	3.596687e-06	1.046496e-09	2.505637e+01	7.324620e+01
2.690000e-06	3.632412e-06	1.057986e-09	2.530525e+01	7.374104e+01
2.700000e-06	3.667966e-06	1.068568e-09	2.555294e+01	7.422575e+01
2.710000e-06	3.703229e-06	1.076087e-09	2.579860e+01	7.470027e+01
2.720000e-06	3.738142e-06	1.081529e-09	2.604182e+01	7.516455e+01
2.730000e-06	3.772691e-06	1.086789e-09	2.628250e+01	7.561853e+01
2.740000e-06	3.806876e-06	1.091757e-09	2.652066e+01	7.606218e+01
2.750000e-06	3.840553e-06	1.096943e-09	2.675527e+01	7.649545e+01
2.760000e-06	3.873650e-06	1.103598e-09	2.698584e+01	7.691834e+01
2.770000e-06	3.906340e-06	1.110399e-09	2.721358e+01	7.733082e+01
2.780000e-06	3.938754e-06	1.120143e-09	2.743939e+01	7.773292e+01
2.790000e-06	3.970887e-06	1.130142e-09	2.766324e+01	7.812464e+01
2.800000e-06	4.002760e-06	1.137037e-09	2.788528e+01	7.850604e+01
2.810000e-06	4.034469e-06	1.143459e-09	2.810618e+01	7.887719e+01
2.820000e-06	4.066008e-06	1.147967e-09	2.832591e+01	7.923818e+01
2.830000e-06	4.097367e-06	1.153087e-09	2.854437e+01	7.958910e+01
2.840000e-06	4.128486e-06	1.157394e-09	2.876116e+01	7.993010e+01
2.850000e-06	4.159322e-06	1.163508e-09	2.897598e+01	8.026134e+01
2.860000e-06	4.189892e-06	1.171023e-09	2.918894e+01	8.058299e+01
2.870000e-06	4.220111e-06	1.177066e-09	2.939946e+01	8.089525e+01
2.880000e-06	4.250031e-06	1.180820e-09	2.960790e+01	8.119834e+01
2.890000e-06	4.279672e-06	1.185794e-09	2.981440e+01	8.149251e+01
2.900000e-06	4.308950e-06	1.190460e-09	3.001836e+01	8.177801e+01
