# Temperatura_=_15.2
# Concentracion g/m^3_=_1620.0
# C_Vs_to_Am_M_A/Vsm_=_65563218390.804596
# pendiente_HvsI_1/m_=_3716.3
# ordenada_HvsI_A/m_=_1297.0
# frecuencia_Hz_=_135099.58561190238

Tiempo_(s)	Campo_(V.s)	Magnetizacion_(V.s)	Campo_(kA/m)	Magnetizacion_(A/m)
0.000000e+00	-5.528524e-06	-8.806627e-10	-3.837086e+01	-5.807472e+01
1.000000e-08	-5.528711e-06	-8.774813e-10	-3.837216e+01	-5.809954e+01
2.000000e-08	-5.528692e-06	-8.780155e-10	-3.837203e+01	-5.812409e+01
3.000000e-08	-5.528403e-06	-8.774725e-10	-3.837002e+01	-5.814803e+01
4.000000e-08	-5.527613e-06	-8.771084e-10	-3.836454e+01	-5.817103e+01
5.000000e-08	-5.526153e-06	-8.771493e-10	-3.835441e+01	-5.819276e+01
6.000000e-08	-5.524088e-06	-8.713817e-10	-3.834008e+01	-5.821289e+01
7.000000e-08	-5.521542e-06	-8.654200e-10	-3.832241e+01	-5.823110e+01
8.000000e-08	-5.518436e-06	-8.693921e-10	-3.830085e+01	-5.824707e+01
9.000000e-08	-5.514841e-06	-8.905273e-10	-3.827590e+01	-5.826050e+01
1.000000e-07	-5.510877e-06	-8.921425e-10	-3.824839e+01	-5.827112e+01
1.100000e-07	-5.506600e-06	-8.705503e-10	-3.821870e+01	-5.827865e+01
1.200000e-07	-5.502078e-06	-8.413361e-10	-3.818732e+01	-5.828288e+01
1.300000e-07	-5.497303e-06	-8.354819e-10	-3.815417e+01	-5.828357e+01
1.400000e-07	-5.492177e-06	-8.634367e-10	-3.811859e+01	-5.828056e+01
1.500000e-07	-5.486605e-06	-8.576512e-10	-3.807993e+01	-5.827369e+01
1.600000e-07	-5.480627e-06	-8.412690e-10	-3.803843e+01	-5.826284e+01
1.700000e-07	-5.474334e-06	-8.575084e-10	-3.799475e+01	-5.824792e+01
1.800000e-07	-5.467706e-06	-8.942084e-10	-3.794875e+01	-5.822888e+01
1.900000e-07	-5.460643e-06	-9.008435e-10	-3.789973e+01	-5.820569e+01
2.000000e-07	-5.453164e-06	-8.443077e-10	-3.784782e+01	-5.817837e+01
2.100000e-07	-5.445474e-06	-8.512267e-10	-3.779445e+01	-5.814696e+01
2.200000e-07	-5.437569e-06	-8.925871e-10	-3.773959e+01	-5.811154e+01
2.300000e-07	-5.429352e-06	-9.225953e-10	-3.768256e+01	-5.807222e+01
2.400000e-07	-5.420693e-06	-8.955373e-10	-3.762246e+01	-5.802913e+01
2.500000e-07	-5.411435e-06	-8.948223e-10	-3.755820e+01	-5.798243e+01
2.600000e-07	-5.401454e-06	-8.968888e-10	-3.748893e+01	-5.793230e+01
2.700000e-07	-5.390831e-06	-8.952342e-10	-3.741520e+01	-5.787896e+01
2.800000e-07	-5.379714e-06	-8.840182e-10	-3.733805e+01	-5.782263e+01
2.900000e-07	-5.368127e-06	-8.913527e-10	-3.725762e+01	-5.776353e+01
3.000000e-07	-5.356198e-06	-8.950884e-10	-3.717483e+01	-5.770193e+01
3.100000e-07	-5.343898e-06	-8.814167e-10	-3.708946e+01	-5.763808e+01
3.200000e-07	-5.331193e-06	-8.773540e-10	-3.700128e+01	-5.757224e+01
3.300000e-07	-5.318175e-06	-8.715636e-10	-3.691093e+01	-5.750467e+01
3.400000e-07	-5.304820e-06	-8.741362e-10	-3.681824e+01	-5.743563e+01
3.500000e-07	-5.290981e-06	-8.676670e-10	-3.672219e+01	-5.736538e+01
3.600000e-07	-5.276570e-06	-8.750631e-10	-3.662217e+01	-5.729414e+01
3.700000e-07	-5.261649e-06	-8.730744e-10	-3.651861e+01	-5.722216e+01
3.800000e-07	-5.246397e-06	-8.835948e-10	-3.641275e+01	-5.714963e+01
3.900000e-07	-5.230638e-06	-8.822224e-10	-3.630338e+01	-5.707676e+01
4.000000e-07	-5.214320e-06	-8.720149e-10	-3.619012e+01	-5.700371e+01
4.100000e-07	-5.197679e-06	-8.601241e-10	-3.607463e+01	-5.693063e+01
4.200000e-07	-5.180773e-06	-8.727873e-10	-3.595729e+01	-5.685764e+01
4.300000e-07	-5.163513e-06	-8.637048e-10	-3.583750e+01	-5.678483e+01
4.400000e-07	-5.145860e-06	-8.588616e-10	-3.571497e+01	-5.671226e+01
4.500000e-07	-5.127853e-06	-8.714866e-10	-3.559000e+01	-5.663996e+01
4.600000e-07	-5.109476e-06	-8.807267e-10	-3.546245e+01	-5.656794e+01
4.700000e-07	-5.090658e-06	-8.488298e-10	-3.533184e+01	-5.649618e+01
4.800000e-07	-5.071392e-06	-8.515451e-10	-3.519813e+01	-5.642461e+01
4.900000e-07	-5.051886e-06	-8.712171e-10	-3.506274e+01	-5.635316e+01
5.000000e-07	-5.032228e-06	-8.577098e-10	-3.492631e+01	-5.628171e+01
5.100000e-07	-5.012327e-06	-8.321549e-10	-3.478818e+01	-5.621012e+01
5.200000e-07	-4.992136e-06	-8.515502e-10	-3.464805e+01	-5.613823e+01
5.300000e-07	-4.971592e-06	-8.537320e-10	-3.450546e+01	-5.606586e+01
5.400000e-07	-4.950654e-06	-8.381474e-10	-3.436014e+01	-5.599281e+01
5.500000e-07	-4.929342e-06	-8.489278e-10	-3.421223e+01	-5.591886e+01
5.600000e-07	-4.907686e-06	-8.577568e-10	-3.406192e+01	-5.584378e+01
5.700000e-07	-4.885738e-06	-8.303900e-10	-3.390959e+01	-5.576733e+01
5.800000e-07	-4.863462e-06	-8.272447e-10	-3.375499e+01	-5.568926e+01
5.900000e-07	-4.840758e-06	-8.435196e-10	-3.359741e+01	-5.560932e+01
6.000000e-07	-4.817687e-06	-8.282452e-10	-3.343728e+01	-5.552727e+01
6.100000e-07	-4.794368e-06	-8.164677e-10	-3.327543e+01	-5.544285e+01
6.200000e-07	-4.770876e-06	-8.297988e-10	-3.311238e+01	-5.535584e+01
6.300000e-07	-4.747194e-06	-8.232716e-10	-3.294802e+01	-5.526599e+01
6.400000e-07	-4.723239e-06	-8.018549e-10	-3.278176e+01	-5.517311e+01
6.500000e-07	-4.698923e-06	-8.145403e-10	-3.261299e+01	-5.507698e+01
6.600000e-07	-4.674197e-06	-8.222581e-10	-3.244138e+01	-5.497744e+01
6.700000e-07	-4.648956e-06	-8.103135e-10	-3.226620e+01	-5.487433e+01
6.800000e-07	-4.623047e-06	-8.079270e-10	-3.208637e+01	-5.476751e+01
6.900000e-07	-4.596638e-06	-8.181101e-10	-3.190309e+01	-5.465689e+01
7.000000e-07	-4.569788e-06	-8.041988e-10	-3.171673e+01	-5.454237e+01
7.100000e-07	-4.542489e-06	-7.973772e-10	-3.152726e+01	-5.442392e+01
7.200000e-07	-4.514905e-06	-8.030390e-10	-3.133582e+01	-5.430150e+01
7.300000e-07	-4.487199e-06	-7.995293e-10	-3.114352e+01	-5.417513e+01
7.400000e-07	-4.459365e-06	-7.902018e-10	-3.095034e+01	-5.404484e+01
7.500000e-07	-4.431301e-06	-8.002742e-10	-3.075556e+01	-5.391070e+01
7.600000e-07	-4.403029e-06	-7.990726e-10	-3.055933e+01	-5.377280e+01
7.700000e-07	-4.374399e-06	-7.900571e-10	-3.036063e+01	-5.363125e+01
7.800000e-07	-4.345383e-06	-7.904163e-10	-3.015925e+01	-5.348620e+01
7.900000e-07	-4.316092e-06	-7.927109e-10	-2.995595e+01	-5.333781e+01
8.000000e-07	-4.286491e-06	-7.813039e-10	-2.975050e+01	-5.318627e+01
8.100000e-07	-4.256605e-06	-7.804729e-10	-2.954308e+01	-5.303177e+01
8.200000e-07	-4.226452e-06	-7.847170e-10	-2.933380e+01	-5.287452e+01
8.300000e-07	-4.195985e-06	-7.818384e-10	-2.912234e+01	-5.271475e+01
8.400000e-07	-4.165221e-06	-7.791195e-10	-2.890882e+01	-5.255269e+01
8.500000e-07	-4.134207e-06	-7.831271e-10	-2.869357e+01	-5.238857e+01
8.600000e-07	-4.102922e-06	-7.798408e-10	-2.847644e+01	-5.222261e+01
8.700000e-07	-4.071422e-06	-7.720747e-10	-2.825781e+01	-5.205505e+01
8.800000e-07	-4.039737e-06	-7.719638e-10	-2.803790e+01	-5.188611e+01
8.900000e-07	-4.007845e-06	-7.679615e-10	-2.781655e+01	-5.171598e+01
9.000000e-07	-3.975698e-06	-7.574599e-10	-2.759343e+01	-5.154487e+01
9.100000e-07	-3.943239e-06	-7.545738e-10	-2.736815e+01	-5.137293e+01
9.200000e-07	-3.910465e-06	-7.557667e-10	-2.714068e+01	-5.120032e+01
9.300000e-07	-3.877310e-06	-7.495582e-10	-2.691057e+01	-5.102717e+01
9.400000e-07	-3.843678e-06	-7.472772e-10	-2.667714e+01	-5.085356e+01
9.500000e-07	-3.809594e-06	-7.494958e-10	-2.644058e+01	-5.067956e+01
9.600000e-07	-3.775097e-06	-7.465282e-10	-2.620116e+01	-5.050520e+01
9.700000e-07	-3.740190e-06	-7.389741e-10	-2.595888e+01	-5.033048e+01
9.800000e-07	-3.704988e-06	-7.399047e-10	-2.571456e+01	-5.015536e+01
9.900000e-07	-3.669610e-06	-7.385447e-10	-2.546902e+01	-4.997976e+01
1.000000e-06	-3.634056e-06	-7.340434e-10	-2.522226e+01	-4.980357e+01
1.010000e-06	-3.598339e-06	-7.293757e-10	-2.497437e+01	-4.962665e+01
1.020000e-06	-3.562519e-06	-7.270483e-10	-2.472575e+01	-4.944881e+01
1.030000e-06	-3.526532e-06	-7.197704e-10	-2.447599e+01	-4.926983e+01
1.040000e-06	-3.490318e-06	-7.151419e-10	-2.422464e+01	-4.908946e+01
1.050000e-06	-3.453868e-06	-7.136075e-10	-2.397166e+01	-4.890742e+01
1.060000e-06	-3.417084e-06	-7.081955e-10	-2.371636e+01	-4.872339e+01
1.070000e-06	-3.379940e-06	-7.043484e-10	-2.345856e+01	-4.853703e+01
1.080000e-06	-3.342515e-06	-7.059476e-10	-2.319881e+01	-4.834799e+01
1.090000e-06	-3.304913e-06	-7.030246e-10	-2.293783e+01	-4.815588e+01
1.100000e-06	-3.267113e-06	-6.940928e-10	-2.267549e+01	-4.796030e+01
1.110000e-06	-3.229085e-06	-6.853894e-10	-2.241155e+01	-4.776085e+01
1.120000e-06	-3.190905e-06	-6.786786e-10	-2.214656e+01	-4.755710e+01
1.130000e-06	-3.152518e-06	-6.712253e-10	-2.188013e+01	-4.734864e+01
1.140000e-06	-3.113798e-06	-6.715501e-10	-2.161140e+01	-4.713504e+01
1.150000e-06	-3.074861e-06	-6.749339e-10	-2.134115e+01	-4.691589e+01
1.160000e-06	-3.035786e-06	-6.745097e-10	-2.106995e+01	-4.669077e+01
1.170000e-06	-2.996492e-06	-6.727543e-10	-2.079723e+01	-4.645929e+01
1.180000e-06	-2.957036e-06	-6.691723e-10	-2.052338e+01	-4.622108e+01
1.190000e-06	-2.917448e-06	-6.607172e-10	-2.024863e+01	-4.597577e+01
1.200000e-06	-2.877713e-06	-6.499255e-10	-1.997284e+01	-4.572304e+01
1.210000e-06	-2.837909e-06	-6.436754e-10	-1.969658e+01	-4.546258e+01
1.220000e-06	-2.797950e-06	-6.397971e-10	-1.941925e+01	-4.519411e+01
1.230000e-06	-2.757754e-06	-6.387711e-10	-1.914026e+01	-4.491739e+01
1.240000e-06	-2.717406e-06	-6.425159e-10	-1.886023e+01	-4.463222e+01
1.250000e-06	-2.676747e-06	-6.444924e-10	-1.857803e+01	-4.433842e+01
1.260000e-06	-2.635752e-06	-6.414161e-10	-1.829350e+01	-4.403587e+01
1.270000e-06	-2.594540e-06	-6.363279e-10	-1.800747e+01	-4.372445e+01
1.280000e-06	-2.553056e-06	-6.271007e-10	-1.771955e+01	-4.340413e+01
1.290000e-06	-2.511281e-06	-6.152587e-10	-1.742961e+01	-4.307487e+01
1.300000e-06	-2.469247e-06	-6.053275e-10	-1.713787e+01	-4.273670e+01
1.310000e-06	-2.426892e-06	-6.019143e-10	-1.684391e+01	-4.238966e+01
1.320000e-06	-2.384206e-06	-6.022320e-10	-1.654764e+01	-4.203383e+01
1.330000e-06	-2.341312e-06	-6.037548e-10	-1.624994e+01	-4.166934e+01
1.340000e-06	-2.298277e-06	-6.056825e-10	-1.595125e+01	-4.129631e+01
1.350000e-06	-2.255145e-06	-6.031430e-10	-1.565190e+01	-4.091491e+01
1.360000e-06	-2.211854e-06	-5.917405e-10	-1.535143e+01	-4.052532e+01
1.370000e-06	-2.168379e-06	-5.779409e-10	-1.504969e+01	-4.012774e+01
1.380000e-06	-2.124788e-06	-5.683016e-10	-1.474714e+01	-3.972237e+01
1.390000e-06	-2.081067e-06	-5.625418e-10	-1.444370e+01	-3.930942e+01
1.400000e-06	-2.037237e-06	-5.604428e-10	-1.413950e+01	-3.888912e+01
1.410000e-06	-1.993313e-06	-5.598497e-10	-1.383464e+01	-3.846165e+01
1.420000e-06	-1.949318e-06	-5.564030e-10	-1.352929e+01	-3.802722e+01
1.430000e-06	-1.905253e-06	-5.509798e-10	-1.322346e+01	-3.758601e+01
1.440000e-06	-1.861041e-06	-5.426726e-10	-1.291660e+01	-3.713818e+01
1.450000e-06	-1.816728e-06	-5.316176e-10	-1.260905e+01	-3.668386e+01
1.460000e-06	-1.772347e-06	-5.206046e-10	-1.230102e+01	-3.622316e+01
1.470000e-06	-1.727794e-06	-5.121618e-10	-1.199180e+01	-3.575614e+01
1.480000e-06	-1.683056e-06	-5.055215e-10	-1.168130e+01	-3.528284e+01
1.490000e-06	-1.638199e-06	-4.988458e-10	-1.136996e+01	-3.480325e+01
1.500000e-06	-1.593242e-06	-4.929351e-10	-1.105794e+01	-3.431731e+01
1.510000e-06	-1.548229e-06	-4.864431e-10	-1.074552e+01	-3.382490e+01
1.520000e-06	-1.503105e-06	-4.752595e-10	-1.043234e+01	-3.332587e+01
1.530000e-06	-1.457792e-06	-4.601828e-10	-1.011784e+01	-3.282002e+01
1.540000e-06	-1.412358e-06	-4.451026e-10	-9.802510e+00	-3.230708e+01
1.550000e-06	-1.366858e-06	-4.337599e-10	-9.486713e+00	-3.178672e+01
1.560000e-06	-1.321329e-06	-4.263847e-10	-9.170716e+00	-3.125859e+01
1.570000e-06	-1.275765e-06	-4.199376e-10	-8.854478e+00	-3.072226e+01
1.580000e-06	-1.230085e-06	-4.152420e-10	-8.537436e+00	-3.017726e+01
1.590000e-06	-1.184331e-06	-4.107756e-10	-8.219881e+00	-2.962308e+01
1.600000e-06	-1.138551e-06	-4.009878e-10	-7.902142e+00	-2.905914e+01
1.610000e-06	-1.092625e-06	-3.906129e-10	-7.583390e+00	-2.848486e+01
1.620000e-06	-1.046528e-06	-3.788410e-10	-7.263452e+00	-2.789960e+01
1.630000e-06	-1.000346e-06	-3.676344e-10	-6.942930e+00	-2.730268e+01
1.640000e-06	-9.540959e-07	-3.570130e-10	-6.621927e+00	-2.669344e+01
1.650000e-06	-9.078288e-07	-3.457024e-10	-6.300809e+00	-2.607115e+01
1.660000e-06	-8.615326e-07	-3.350975e-10	-5.979489e+00	-2.543511e+01
1.670000e-06	-8.150928e-07	-3.238642e-10	-5.657173e+00	-2.478459e+01
1.680000e-06	-7.686330e-07	-3.133280e-10	-5.334717e+00	-2.411890e+01
1.690000e-06	-7.221849e-07	-3.035585e-10	-5.012343e+00	-2.343732e+01
1.700000e-06	-6.755883e-07	-2.965378e-10	-4.688938e+00	-2.273918e+01
1.710000e-06	-6.289647e-07	-2.856896e-10	-4.365346e+00	-2.202384e+01
1.720000e-06	-5.823358e-07	-2.712210e-10	-4.041717e+00	-2.129068e+01
1.730000e-06	-5.356480e-07	-2.556392e-10	-3.717679e+00	-2.053914e+01
1.740000e-06	-4.889284e-07	-2.408869e-10	-3.393420e+00	-1.976872e+01
1.750000e-06	-4.421260e-07	-2.295272e-10	-3.068587e+00	-1.897896e+01
1.760000e-06	-3.951894e-07	-2.211401e-10	-2.742822e+00	-1.816948e+01
1.770000e-06	-3.481606e-07	-2.129463e-10	-2.416417e+00	-1.733999e+01
1.780000e-06	-3.012128e-07	-2.045298e-10	-2.090575e+00	-1.649026e+01
1.790000e-06	-2.542912e-07	-1.938740e-10	-1.764914e+00	-1.562017e+01
1.800000e-06	-2.073618e-07	-1.794814e-10	-1.439200e+00	-1.472967e+01
1.810000e-06	-1.604767e-07	-1.615326e-10	-1.113793e+00	-1.381884e+01
1.820000e-06	-1.135862e-07	-1.437827e-10	-7.883478e-01	-1.288784e+01
1.830000e-06	-6.672135e-08	-1.275138e-10	-4.630812e-01	-1.193694e+01
1.840000e-06	-1.983658e-08	-1.133585e-10	-1.376763e-01	-1.096652e+01
1.850000e-06	2.711611e-08	-1.017250e-10	1.882000e-01	-9.977072e+00
1.860000e-06	7.400651e-08	-9.177568e-11	5.136441e-01	-8.969188e+00
1.870000e-06	1.209383e-07	-8.022023e-11	8.393752e-01	-7.943578e+00
1.880000e-06	1.679574e-07	-6.650783e-11	1.165712e+00	-6.901056e+00
1.890000e-06	2.149505e-07	-5.104877e-11	1.491870e+00	-5.842542e+00
1.900000e-06	2.619295e-07	-3.386925e-11	1.817929e+00	-4.769056e+00
1.910000e-06	3.088835e-07	-1.707024e-11	2.143814e+00	-3.681715e+00
1.920000e-06	3.558008e-07	-1.553765e-12	2.469445e+00	-2.581728e+00
1.930000e-06	4.026047e-07	1.083454e-11	2.794288e+00	-1.470390e+00
1.940000e-06	4.494092e-07	2.146654e-11	3.119136e+00	-3.490742e-01
1.950000e-06	4.962518e-07	3.109148e-11	3.444248e+00	7.807758e-01
1.960000e-06	5.430193e-07	4.163681e-11	3.768840e+00	1.917653e+00
1.970000e-06	5.897661e-07	5.494890e-11	4.093287e+00	3.059996e+00
1.980000e-06	6.364713e-07	7.286868e-11	4.417446e+00	4.206201e+00
1.990000e-06	6.829760e-07	9.303233e-11	4.740213e+00	5.354627e+00
2.000000e-06	7.293555e-07	1.124297e-10	5.062111e+00	6.503612e+00
2.010000e-06	7.757424e-07	1.297329e-10	5.384060e+00	7.651478e+00
2.020000e-06	8.221278e-07	1.443074e-10	5.705999e+00	8.796545e+00
2.030000e-06	8.685202e-07	1.553220e-10	6.027987e+00	9.937139e+00
2.040000e-06	9.148235e-07	1.662829e-10	6.349356e+00	1.107161e+01
2.050000e-06	9.609618e-07	1.788580e-10	6.669580e+00	1.219832e+01
2.060000e-06	1.007031e-06	1.944326e-10	6.989323e+00	1.331570e+01
2.070000e-06	1.053051e-06	2.127013e-10	7.308725e+00	1.442221e+01
2.080000e-06	1.098958e-06	2.315754e-10	7.627343e+00	1.551636e+01
2.090000e-06	1.144851e-06	2.479847e-10	7.945869e+00	1.659675e+01
2.100000e-06	1.190725e-06	2.623321e-10	8.264257e+00	1.766204e+01
2.110000e-06	1.236404e-06	2.753926e-10	8.581292e+00	1.871099e+01
2.120000e-06	1.281966e-06	2.860273e-10	8.897519e+00	1.974244e+01
2.130000e-06	1.327448e-06	2.970882e-10	9.213187e+00	2.075531e+01
2.140000e-06	1.372839e-06	3.108142e-10	9.528227e+00	2.174867e+01
2.150000e-06	1.418230e-06	3.260329e-10	9.843264e+00	2.272165e+01
2.160000e-06	1.463540e-06	3.402826e-10	1.015774e+01	2.367352e+01
2.170000e-06	1.508692e-06	3.534869e-10	1.047112e+01	2.460366e+01
2.180000e-06	1.553703e-06	3.651687e-10	1.078352e+01	2.551154e+01
2.190000e-06	1.598623e-06	3.753269e-10	1.109528e+01	2.639679e+01
2.200000e-06	1.643478e-06	3.853330e-10	1.140660e+01	2.725912e+01
2.210000e-06	1.688252e-06	3.962126e-10	1.171736e+01	2.809837e+01
2.220000e-06	1.732820e-06	4.092140e-10	1.202668e+01	2.891448e+01
2.230000e-06	1.777192e-06	4.222786e-10	1.233464e+01	2.970752e+01
2.240000e-06	1.821463e-06	4.339461e-10	1.264191e+01	3.047765e+01
2.250000e-06	1.865601e-06	4.441448e-10	1.294825e+01	3.122514e+01
2.260000e-06	1.909565e-06	4.516206e-10	1.325338e+01	3.195033e+01
2.270000e-06	1.953443e-06	4.585735e-10	1.355792e+01	3.265369e+01
2.280000e-06	1.997272e-06	4.649377e-10	1.386212e+01	3.333573e+01
2.290000e-06	2.041014e-06	4.727229e-10	1.416571e+01	3.399705e+01
2.300000e-06	2.084687e-06	4.819439e-10	1.446882e+01	3.463833e+01
2.310000e-06	2.128303e-06	4.934119e-10	1.477154e+01	3.526029e+01
2.320000e-06	2.171821e-06	5.061723e-10	1.507358e+01	3.586371e+01
2.330000e-06	2.215207e-06	5.163759e-10	1.537470e+01	3.644939e+01
2.340000e-06	2.258551e-06	5.238560e-10	1.567553e+01	3.701818e+01
2.350000e-06	2.301751e-06	5.284839e-10	1.597536e+01	3.757095e+01
2.360000e-06	2.344786e-06	5.307907e-10	1.627404e+01	3.810857e+01
2.370000e-06	2.387685e-06	5.345880e-10	1.657179e+01	3.863193e+01
2.380000e-06	2.430249e-06	5.414021e-10	1.686721e+01	3.914190e+01
2.390000e-06	2.472417e-06	5.515754e-10	1.715987e+01	3.963934e+01
2.400000e-06	2.514215e-06	5.637562e-10	1.744997e+01	4.012511e+01
2.410000e-06	2.555644e-06	5.749289e-10	1.773751e+01	4.060001e+01
2.420000e-06	2.596793e-06	5.837177e-10	1.802311e+01	4.106482e+01
2.430000e-06	2.637793e-06	5.908639e-10	1.830767e+01	4.152028e+01
2.440000e-06	2.678544e-06	5.970221e-10	1.859050e+01	4.196708e+01
2.450000e-06	2.719010e-06	6.035662e-10	1.887136e+01	4.240586e+01
2.460000e-06	2.759306e-06	6.116467e-10	1.915103e+01	4.283719e+01
2.470000e-06	2.799357e-06	6.195276e-10	1.942901e+01	4.326161e+01
2.480000e-06	2.839188e-06	6.275181e-10	1.970545e+01	4.367957e+01
2.490000e-06	2.878949e-06	6.341174e-10	1.998142e+01	4.409146e+01
2.500000e-06	2.918632e-06	6.390747e-10	2.025684e+01	4.449762e+01
2.510000e-06	2.958156e-06	6.442666e-10	2.053115e+01	4.489831e+01
2.520000e-06	2.997536e-06	6.497858e-10	2.080447e+01	4.529374e+01
2.530000e-06	3.036821e-06	6.561649e-10	2.107713e+01	4.568402e+01
2.540000e-06	3.075880e-06	6.622819e-10	2.134822e+01	4.606926e+01
2.550000e-06	3.114648e-06	6.658280e-10	2.161730e+01	4.644945e+01
2.560000e-06	3.153160e-06	6.678507e-10	2.188459e+01	4.682456e+01
2.570000e-06	3.191361e-06	6.712401e-10	2.214973e+01	4.719450e+01
2.580000e-06	3.229317e-06	6.758547e-10	2.241316e+01	4.755913e+01
2.590000e-06	3.267143e-06	6.801134e-10	2.267569e+01	4.791827e+01
2.600000e-06	3.304873e-06	6.865243e-10	2.293756e+01	4.827171e+01
2.610000e-06	3.342416e-06	6.946485e-10	2.319813e+01	4.861919e+01
2.620000e-06	3.379725e-06	7.016027e-10	2.345707e+01	4.896045e+01
2.630000e-06	3.416717e-06	7.068153e-10	2.371381e+01	4.929518e+01
2.640000e-06	3.453457e-06	7.093562e-10	2.396880e+01	4.962309e+01
2.650000e-06	3.489981e-06	7.100849e-10	2.422231e+01	4.994386e+01
2.660000e-06	3.526185e-06	7.122022e-10	2.447358e+01	5.025718e+01
2.670000e-06	3.562152e-06	7.154708e-10	2.472321e+01	5.056273e+01
2.680000e-06	3.597960e-06	7.188529e-10	2.497173e+01	5.086022e+01
2.690000e-06	3.633655e-06	7.233892e-10	2.521948e+01	5.114936e+01
2.700000e-06	3.669287e-06	7.286897e-10	2.546678e+01	5.142990e+01
2.710000e-06	3.704790e-06	7.333516e-10	2.571319e+01	5.170159e+01
2.720000e-06	3.740061e-06	7.383235e-10	2.595799e+01	5.196423e+01
2.730000e-06	3.775068e-06	7.444168e-10	2.620096e+01	5.221765e+01
2.740000e-06	3.809677e-06	7.495788e-10	2.644116e+01	5.246171e+01
2.750000e-06	3.843770e-06	7.521607e-10	2.667779e+01	5.269632e+01
2.760000e-06	3.877351e-06	7.535141e-10	2.691086e+01	5.292143e+01
2.770000e-06	3.910483e-06	7.554574e-10	2.714081e+01	5.313703e+01
2.780000e-06	3.943286e-06	7.575891e-10	2.736848e+01	5.334315e+01
2.790000e-06	3.975715e-06	7.610453e-10	2.759356e+01	5.353988e+01
2.800000e-06	4.007737e-06	7.678297e-10	2.781580e+01	5.372735e+01
2.810000e-06	4.039524e-06	7.758509e-10	2.803642e+01	5.390572e+01
2.820000e-06	4.071190e-06	7.817028e-10	2.825620e+01	5.407521e+01
2.830000e-06	4.102759e-06	7.841483e-10	2.847530e+01	5.423607e+01
2.840000e-06	4.134209e-06	7.835464e-10	2.869358e+01	5.438859e+01
2.850000e-06	4.165408e-06	7.824563e-10	2.891012e+01	5.453311e+01
2.860000e-06	4.196283e-06	7.831112e-10	2.912441e+01	5.466998e+01
2.870000e-06	4.226747e-06	7.858662e-10	2.933585e+01	5.479959e+01
2.880000e-06	4.256798e-06	7.904171e-10	2.954441e+01	5.492235e+01
2.890000e-06	4.286577e-06	7.950690e-10	2.975110e+01	5.503870e+01
2.900000e-06	4.316149e-06	7.990973e-10	2.995634e+01	5.514907e+01
