# Temperatura_=_12.3
# Concentracion g/m^3_=_1620.0
# C_Vs_to_Am_M_A/Vsm_=_65563218390.804596
# pendiente_HvsI_1/m_=_3716.3
# ordenada_HvsI_A/m_=_1297.0
# frecuencia_Hz_=_135102.3009714724

Tiempo_(s)	Campo_(V.s)	Magnetizacion_(V.s)	Campo_(kA/m)	Magnetizacion_(A/m)
0.000000e+00	-5.532995e-06	-7.407134e-10	-3.837687e+01	-5.096970e+01
1.000000e-08	-5.533118e-06	-7.403533e-10	-3.837773e+01	-5.096977e+01
2.000000e-08	-5.532892e-06	-7.434887e-10	-3.837616e+01	-5.096595e+01
3.000000e-08	-5.532291e-06	-7.443609e-10	-3.837199e+01	-5.095821e+01
4.000000e-08	-5.531302e-06	-7.432077e-10	-3.836513e+01	-5.094656e+01
5.000000e-08	-5.529671e-06	-7.389373e-10	-3.835382e+01	-5.093102e+01
6.000000e-08	-5.527353e-06	-7.205234e-10	-3.833774e+01	-5.091165e+01
7.000000e-08	-5.524458e-06	-7.038163e-10	-3.831766e+01	-5.088852e+01
8.000000e-08	-5.521018e-06	-7.320262e-10	-3.829380e+01	-5.086173e+01
9.000000e-08	-5.517092e-06	-7.854646e-10	-3.826657e+01	-5.083142e+01
1.000000e-07	-5.512762e-06	-7.754474e-10	-3.823654e+01	-5.079774e+01
1.100000e-07	-5.508272e-06	-7.226602e-10	-3.820540e+01	-5.076086e+01
1.200000e-07	-5.503575e-06	-6.693533e-10	-3.817282e+01	-5.072097e+01
1.300000e-07	-5.498510e-06	-7.251873e-10	-3.813769e+01	-5.067829e+01
1.400000e-07	-5.493120e-06	-7.473497e-10	-3.810030e+01	-5.063304e+01
1.500000e-07	-5.487380e-06	-7.107754e-10	-3.806049e+01	-5.058547e+01
1.600000e-07	-5.481296e-06	-6.787206e-10	-3.801829e+01	-5.053582e+01
1.700000e-07	-5.474764e-06	-7.008915e-10	-3.797298e+01	-5.048436e+01
1.800000e-07	-5.467727e-06	-7.442600e-10	-3.792418e+01	-5.043135e+01
1.900000e-07	-5.460341e-06	-7.034077e-10	-3.787295e+01	-5.037706e+01
2.000000e-07	-5.452697e-06	-6.928792e-10	-3.781993e+01	-5.032176e+01
2.100000e-07	-5.444815e-06	-6.974982e-10	-3.776526e+01	-5.026571e+01
2.200000e-07	-5.436695e-06	-7.328496e-10	-3.770894e+01	-5.020918e+01
2.300000e-07	-5.428202e-06	-7.123649e-10	-3.765003e+01	-5.015241e+01
2.400000e-07	-5.419160e-06	-7.068243e-10	-3.758731e+01	-5.009567e+01
2.500000e-07	-5.409389e-06	-7.023552e-10	-3.751954e+01	-5.003917e+01
2.600000e-07	-5.398976e-06	-7.275954e-10	-3.744732e+01	-4.998313e+01
2.700000e-07	-5.388056e-06	-7.294591e-10	-3.737158e+01	-4.992774e+01
2.800000e-07	-5.376666e-06	-7.311068e-10	-3.729258e+01	-4.987320e+01
2.900000e-07	-5.364912e-06	-7.273018e-10	-3.721105e+01	-4.981964e+01
3.000000e-07	-5.352785e-06	-7.427063e-10	-3.712694e+01	-4.976722e+01
3.100000e-07	-5.340186e-06	-7.416779e-10	-3.703955e+01	-4.971603e+01
3.200000e-07	-5.327154e-06	-7.208548e-10	-3.694916e+01	-4.966616e+01
3.300000e-07	-5.313751e-06	-7.216815e-10	-3.685620e+01	-4.961766e+01
3.400000e-07	-5.299962e-06	-7.367746e-10	-3.676056e+01	-4.957057e+01
3.500000e-07	-5.285736e-06	-7.407530e-10	-3.666189e+01	-4.952489e+01
3.600000e-07	-5.271132e-06	-7.326214e-10	-3.656059e+01	-4.948059e+01
3.700000e-07	-5.256176e-06	-7.400535e-10	-3.645686e+01	-4.943761e+01
3.800000e-07	-5.240685e-06	-7.330135e-10	-3.634941e+01	-4.939588e+01
3.900000e-07	-5.224626e-06	-7.298761e-10	-3.623803e+01	-4.935529e+01
4.000000e-07	-5.208154e-06	-7.395977e-10	-3.612378e+01	-4.931570e+01
4.100000e-07	-5.191299e-06	-7.557668e-10	-3.600687e+01	-4.927695e+01
4.200000e-07	-5.174091e-06	-7.318528e-10	-3.588752e+01	-4.923886e+01
4.300000e-07	-5.156610e-06	-7.303330e-10	-3.576627e+01	-4.920124e+01
4.400000e-07	-5.138818e-06	-7.420968e-10	-3.564286e+01	-4.916385e+01
4.500000e-07	-5.120629e-06	-7.446099e-10	-3.551670e+01	-4.912646e+01
4.600000e-07	-5.101961e-06	-7.211960e-10	-3.538722e+01	-4.908881e+01
4.700000e-07	-5.082844e-06	-7.339630e-10	-3.525463e+01	-4.905065e+01
4.800000e-07	-5.063397e-06	-7.396904e-10	-3.511974e+01	-4.901168e+01
4.900000e-07	-5.043802e-06	-7.336159e-10	-3.498383e+01	-4.897163e+01
5.000000e-07	-5.024045e-06	-7.254647e-10	-3.484679e+01	-4.893021e+01
5.100000e-07	-5.003955e-06	-7.355780e-10	-3.470745e+01	-4.888713e+01
5.200000e-07	-4.983507e-06	-7.243944e-10	-3.456563e+01	-4.884209e+01
5.300000e-07	-4.962705e-06	-7.220505e-10	-3.442134e+01	-4.879482e+01
5.400000e-07	-4.941539e-06	-7.324379e-10	-3.427453e+01	-4.874504e+01
5.500000e-07	-4.920028e-06	-7.415235e-10	-3.412534e+01	-4.869247e+01
5.600000e-07	-4.898234e-06	-7.239332e-10	-3.397417e+01	-4.863686e+01
5.700000e-07	-4.876167e-06	-7.190863e-10	-3.382112e+01	-4.857797e+01
5.800000e-07	-4.853696e-06	-7.194804e-10	-3.366525e+01	-4.851557e+01
5.900000e-07	-4.830757e-06	-7.110721e-10	-3.350615e+01	-4.844946e+01
6.000000e-07	-4.807512e-06	-7.014522e-10	-3.334492e+01	-4.837944e+01
6.100000e-07	-4.784025e-06	-7.104704e-10	-3.318202e+01	-4.830535e+01
6.200000e-07	-4.760317e-06	-7.111607e-10	-3.301758e+01	-4.822706e+01
6.300000e-07	-4.736447e-06	-6.972242e-10	-3.285201e+01	-4.814444e+01
6.400000e-07	-4.712307e-06	-7.010762e-10	-3.268458e+01	-4.805742e+01
6.500000e-07	-4.687767e-06	-7.064488e-10	-3.251437e+01	-4.796593e+01
6.600000e-07	-4.662714e-06	-6.965262e-10	-3.234060e+01	-4.786994e+01
6.700000e-07	-4.637087e-06	-6.917378e-10	-3.216285e+01	-4.776945e+01
6.800000e-07	-4.610847e-06	-7.005701e-10	-3.198086e+01	-4.766447e+01
6.900000e-07	-4.584022e-06	-6.907686e-10	-3.179480e+01	-4.755506e+01
7.000000e-07	-4.556816e-06	-6.860116e-10	-3.160609e+01	-4.744129e+01
7.100000e-07	-4.529369e-06	-6.928706e-10	-3.141572e+01	-4.732326e+01
7.200000e-07	-4.501767e-06	-6.911999e-10	-3.122427e+01	-4.720112e+01
7.300000e-07	-4.474048e-06	-6.746353e-10	-3.103202e+01	-4.707499e+01
7.400000e-07	-4.446080e-06	-6.812917e-10	-3.083803e+01	-4.694506e+01
7.500000e-07	-4.417880e-06	-6.822230e-10	-3.064243e+01	-4.681152e+01
7.600000e-07	-4.389440e-06	-6.722558e-10	-3.044518e+01	-4.667458e+01
7.700000e-07	-4.360592e-06	-6.694953e-10	-3.024508e+01	-4.653446e+01
7.800000e-07	-4.331433e-06	-6.748146e-10	-3.004284e+01	-4.639140e+01
7.900000e-07	-4.302002e-06	-6.626197e-10	-2.983870e+01	-4.624565e+01
8.000000e-07	-4.272261e-06	-6.599669e-10	-2.963242e+01	-4.609746e+01
8.100000e-07	-4.242191e-06	-6.624137e-10	-2.942385e+01	-4.594710e+01
8.200000e-07	-4.211798e-06	-6.583998e-10	-2.921305e+01	-4.579483e+01
8.300000e-07	-4.181160e-06	-6.525575e-10	-2.900054e+01	-4.564092e+01
8.400000e-07	-4.150197e-06	-6.600278e-10	-2.878579e+01	-4.548562e+01
8.500000e-07	-4.118873e-06	-6.595230e-10	-2.856852e+01	-4.532918e+01
8.600000e-07	-4.087329e-06	-6.534200e-10	-2.834973e+01	-4.517186e+01
8.700000e-07	-4.055669e-06	-6.522949e-10	-2.813014e+01	-4.501389e+01
8.800000e-07	-4.023863e-06	-6.499156e-10	-2.790953e+01	-4.485550e+01
8.900000e-07	-3.991838e-06	-6.396154e-10	-2.768740e+01	-4.469688e+01
9.000000e-07	-3.959558e-06	-6.371090e-10	-2.746351e+01	-4.453823e+01
9.100000e-07	-3.926921e-06	-6.388814e-10	-2.723714e+01	-4.437972e+01
9.200000e-07	-3.893861e-06	-6.355992e-10	-2.700783e+01	-4.422149e+01
9.300000e-07	-3.860418e-06	-6.360280e-10	-2.677587e+01	-4.406367e+01
9.400000e-07	-3.826554e-06	-6.400232e-10	-2.654099e+01	-4.390635e+01
9.500000e-07	-3.792179e-06	-6.370334e-10	-2.630257e+01	-4.374962e+01
9.600000e-07	-3.757341e-06	-6.306402e-10	-2.606093e+01	-4.359352e+01
9.700000e-07	-3.722195e-06	-6.319841e-10	-2.581716e+01	-4.343808e+01
9.800000e-07	-3.686790e-06	-6.299882e-10	-2.557159e+01	-4.328328e+01
9.900000e-07	-3.651209e-06	-6.261026e-10	-2.532480e+01	-4.312910e+01
1.000000e-06	-3.615504e-06	-6.252351e-10	-2.507715e+01	-4.297548e+01
1.010000e-06	-3.579668e-06	-6.267087e-10	-2.482859e+01	-4.282233e+01
1.020000e-06	-3.543739e-06	-6.222140e-10	-2.457939e+01	-4.266954e+01
1.030000e-06	-3.507645e-06	-6.198892e-10	-2.432904e+01	-4.251697e+01
1.040000e-06	-3.471241e-06	-6.174222e-10	-2.407654e+01	-4.236447e+01
1.050000e-06	-3.434446e-06	-6.128133e-10	-2.382133e+01	-4.221185e+01
1.060000e-06	-3.397293e-06	-6.056975e-10	-2.356364e+01	-4.205891e+01
1.070000e-06	-3.359899e-06	-6.025868e-10	-2.330427e+01	-4.190543e+01
1.080000e-06	-3.322347e-06	-5.967212e-10	-2.304381e+01	-4.175116e+01
1.090000e-06	-3.284656e-06	-5.942197e-10	-2.278238e+01	-4.159585e+01
1.100000e-06	-3.246750e-06	-5.942288e-10	-2.251947e+01	-4.143924e+01
1.110000e-06	-3.208642e-06	-5.937813e-10	-2.225515e+01	-4.128104e+01
1.120000e-06	-3.170308e-06	-5.886055e-10	-2.198927e+01	-4.112096e+01
1.130000e-06	-3.131679e-06	-5.866793e-10	-2.172134e+01	-4.095870e+01
1.140000e-06	-3.092778e-06	-5.873011e-10	-2.145152e+01	-4.079397e+01
1.150000e-06	-3.053680e-06	-5.829595e-10	-2.118033e+01	-4.062646e+01
1.160000e-06	-3.014431e-06	-5.790240e-10	-2.090811e+01	-4.045586e+01
1.170000e-06	-2.975008e-06	-5.803653e-10	-2.063467e+01	-4.028186e+01
1.180000e-06	-2.935439e-06	-5.799675e-10	-2.036022e+01	-4.010417e+01
1.190000e-06	-2.895802e-06	-5.769344e-10	-2.008529e+01	-3.992249e+01
1.200000e-06	-2.856090e-06	-5.744034e-10	-1.980985e+01	-3.973651e+01
1.210000e-06	-2.816251e-06	-5.712636e-10	-1.953353e+01	-3.954597e+01
1.220000e-06	-2.776226e-06	-5.658808e-10	-1.925591e+01	-3.935059e+01
1.230000e-06	-2.735992e-06	-5.624710e-10	-1.897685e+01	-3.915009e+01
1.240000e-06	-2.695594e-06	-5.590175e-10	-1.869665e+01	-3.894422e+01
1.250000e-06	-2.654938e-06	-5.545167e-10	-1.841466e+01	-3.873275e+01
1.260000e-06	-2.613944e-06	-5.534631e-10	-1.813032e+01	-3.851543e+01
1.270000e-06	-2.572668e-06	-5.516877e-10	-1.784404e+01	-3.829205e+01
1.280000e-06	-2.531158e-06	-5.472045e-10	-1.755612e+01	-3.806240e+01
1.290000e-06	-2.489333e-06	-5.395222e-10	-1.726602e+01	-3.782628e+01
1.300000e-06	-2.447183e-06	-5.332042e-10	-1.697367e+01	-3.758351e+01
1.310000e-06	-2.404823e-06	-5.285461e-10	-1.667986e+01	-3.733392e+01
1.320000e-06	-2.362126e-06	-5.255142e-10	-1.638371e+01	-3.707733e+01
1.330000e-06	-2.319075e-06	-5.262560e-10	-1.608511e+01	-3.681361e+01
1.340000e-06	-2.275811e-06	-5.257022e-10	-1.578504e+01	-3.654259e+01
1.350000e-06	-2.232393e-06	-5.202862e-10	-1.548389e+01	-3.626415e+01
1.360000e-06	-2.188899e-06	-5.128125e-10	-1.518221e+01	-3.597814e+01
1.370000e-06	-2.145318e-06	-5.060349e-10	-1.487994e+01	-3.568443e+01
1.380000e-06	-2.101640e-06	-5.017396e-10	-1.457698e+01	-3.538291e+01
1.390000e-06	-2.057906e-06	-4.961987e-10	-1.427364e+01	-3.507344e+01
1.400000e-06	-2.014098e-06	-4.910091e-10	-1.396979e+01	-3.475589e+01
1.410000e-06	-1.970187e-06	-4.852380e-10	-1.366523e+01	-3.443013e+01
1.420000e-06	-1.926193e-06	-4.806831e-10	-1.336008e+01	-3.409604e+01
1.430000e-06	-1.882058e-06	-4.779541e-10	-1.305396e+01	-3.375347e+01
1.440000e-06	-1.837817e-06	-4.755541e-10	-1.274710e+01	-3.340228e+01
1.450000e-06	-1.793520e-06	-4.702271e-10	-1.243986e+01	-3.304232e+01
1.460000e-06	-1.749062e-06	-4.615160e-10	-1.213150e+01	-3.267341e+01
1.470000e-06	-1.704437e-06	-4.515190e-10	-1.182198e+01	-3.229539e+01
1.480000e-06	-1.659698e-06	-4.419162e-10	-1.151167e+01	-3.190807e+01
1.490000e-06	-1.614842e-06	-4.354729e-10	-1.120055e+01	-3.151126e+01
1.500000e-06	-1.569797e-06	-4.317067e-10	-1.088812e+01	-3.110475e+01
1.510000e-06	-1.524573e-06	-4.256113e-10	-1.057444e+01	-3.068831e+01
1.520000e-06	-1.479262e-06	-4.161213e-10	-1.026017e+01	-3.026171e+01
1.530000e-06	-1.433883e-06	-4.041918e-10	-9.945415e+00	-2.982470e+01
1.540000e-06	-1.388417e-06	-3.956800e-10	-9.630068e+00	-2.937702e+01
1.550000e-06	-1.342825e-06	-3.894123e-10	-9.313837e+00	-2.891840e+01
1.560000e-06	-1.297131e-06	-3.831672e-10	-8.996909e+00	-2.844856e+01
1.570000e-06	-1.251407e-06	-3.767971e-10	-8.679767e+00	-2.796719e+01
1.580000e-06	-1.205675e-06	-3.693830e-10	-8.362565e+00	-2.747401e+01
1.590000e-06	-1.159857e-06	-3.604778e-10	-8.044772e+00	-2.696870e+01
1.600000e-06	-1.113929e-06	-3.530738e-10	-7.726214e+00	-2.645095e+01
1.610000e-06	-1.067880e-06	-3.463356e-10	-7.406817e+00	-2.592044e+01
1.620000e-06	-1.021711e-06	-3.377335e-10	-7.086589e+00	-2.537687e+01
1.630000e-06	-9.754905e-07	-3.299637e-10	-6.766006e+00	-2.481992e+01
1.640000e-06	-9.292463e-07	-3.209440e-10	-6.445256e+00	-2.424928e+01
1.650000e-06	-8.829359e-07	-3.110207e-10	-6.124047e+00	-2.366465e+01
1.660000e-06	-8.365655e-07	-3.003093e-10	-5.802421e+00	-2.306574e+01
1.670000e-06	-7.901420e-07	-2.921124e-10	-5.480428e+00	-2.245229e+01
1.680000e-06	-7.436373e-07	-2.845050e-10	-5.157871e+00	-2.182402e+01
1.690000e-06	-6.970969e-07	-2.796419e-10	-4.835067e+00	-2.118072e+01
1.700000e-06	-6.505189e-07	-2.745125e-10	-4.512002e+00	-2.052215e+01
1.710000e-06	-6.038552e-07	-2.667051e-10	-4.188342e+00	-1.984815e+01
1.720000e-06	-5.571578e-07	-2.567849e-10	-3.864449e+00	-1.915854e+01
1.730000e-06	-5.104173e-07	-2.465103e-10	-3.540257e+00	-1.845321e+01
1.740000e-06	-4.635682e-07	-2.358838e-10	-3.215311e+00	-1.773208e+01
1.750000e-06	-4.167221e-07	-2.257190e-10	-2.890386e+00	-1.699508e+01
1.760000e-06	-3.698996e-07	-2.158757e-10	-2.565625e+00	-1.624223e+01
1.770000e-06	-3.230502e-07	-2.067162e-10	-2.240677e+00	-1.547355e+01
1.780000e-06	-2.761642e-07	-1.987133e-10	-1.915476e+00	-1.468913e+01
1.790000e-06	-2.292302e-07	-1.872895e-10	-1.589942e+00	-1.388910e+01
1.800000e-06	-1.822596e-07	-1.724247e-10	-1.264153e+00	-1.307365e+01
1.810000e-06	-1.352802e-07	-1.571144e-10	-9.383042e-01	-1.224300e+01
1.820000e-06	-8.832895e-08	-1.437920e-10	-6.126500e-01	-1.139746e+01
1.830000e-06	-4.144162e-08	-1.325246e-10	-2.874393e-01	-1.053736e+01
1.840000e-06	5.440818e-09	-1.204927e-10	3.773754e-02	-9.663100e+00
1.850000e-06	5.234100e-08	-1.092940e-10	3.630374e-01	-8.775125e+00
1.860000e-06	9.920746e-08	-9.924682e-11	6.881033e-01	-7.873944e+00
1.870000e-06	1.460593e-07	-8.741045e-11	1.013068e+00	-6.960115e+00
1.880000e-06	1.929284e-07	-7.401839e-11	1.338152e+00	-6.034251e+00
1.890000e-06	2.398120e-07	-5.927679e-11	1.663337e+00	-5.097014e+00
1.900000e-06	2.866389e-07	-4.492378e-11	1.988128e+00	-4.149119e+00
1.910000e-06	3.334714e-07	-3.084782e-11	2.312959e+00	-3.191328e+00
1.920000e-06	3.803822e-07	-1.894889e-11	2.638332e+00	-2.224448e+00
1.930000e-06	4.272574e-07	-7.110262e-12	2.963459e+00	-1.249331e+00
1.940000e-06	4.740092e-07	3.172040e-12	3.287730e+00	-2.668683e-01
1.950000e-06	5.207313e-07	1.435439e-11	3.611795e+00	7.220109e-01
1.960000e-06	5.674494e-07	2.818039e-11	3.935831e+00	1.716344e+00
1.970000e-06	6.141229e-07	4.463314e-11	4.259559e+00	2.715138e+00
1.980000e-06	6.607553e-07	6.365646e-11	4.583001e+00	3.717375e+00
1.990000e-06	7.073710e-07	8.299999e-11	4.906328e+00	4.722012e+00
2.000000e-06	7.539464e-07	9.976498e-11	5.229375e+00	5.727992e+00
2.010000e-06	8.004113e-07	1.133236e-10	5.551656e+00	6.734241e+00
2.020000e-06	8.467751e-07	1.252699e-10	5.873235e+00	7.739680e+00
2.030000e-06	8.930327e-07	1.369938e-10	6.194079e+00	8.743221e+00
2.040000e-06	9.392695e-07	1.481297e-10	6.514777e+00	9.743779e+00
2.050000e-06	9.854780e-07	1.608465e-10	6.835280e+00	1.074028e+01
2.060000e-06	1.031574e-06	1.764162e-10	7.154998e+00	1.173164e+01
2.070000e-06	1.077570e-06	1.932222e-10	7.474033e+00	1.271681e+01
2.080000e-06	1.123467e-06	2.086072e-10	7.792373e+00	1.369475e+01
2.090000e-06	1.169299e-06	2.228238e-10	8.110261e+00	1.466445e+01
2.100000e-06	1.215018e-06	2.367091e-10	8.427367e+00	1.562491e+01
2.110000e-06	1.260610e-06	2.496923e-10	8.743599e+00	1.657518e+01
2.120000e-06	1.306185e-06	2.637303e-10	9.059705e+00	1.751433e+01
2.130000e-06	1.351717e-06	2.771658e-10	9.375514e+00	1.844149e+01
2.140000e-06	1.397142e-06	2.877796e-10	9.690582e+00	1.935580e+01
2.150000e-06	1.442447e-06	2.973295e-10	1.000482e+01	2.025648e+01
2.160000e-06	1.487643e-06	3.084282e-10	1.031830e+01	2.114276e+01
2.170000e-06	1.532821e-06	3.198279e-10	1.063165e+01	2.201396e+01
2.180000e-06	1.577870e-06	3.309244e-10	1.094411e+01	2.286942e+01
2.190000e-06	1.622700e-06	3.427710e-10	1.125505e+01	2.370855e+01
2.200000e-06	1.667426e-06	3.545562e-10	1.156527e+01	2.453081e+01
2.210000e-06	1.712063e-06	3.640875e-10	1.187487e+01	2.533573e+01
2.220000e-06	1.756579e-06	3.736127e-10	1.218364e+01	2.612288e+01
2.230000e-06	1.800938e-06	3.818314e-10	1.249131e+01	2.689189e+01
2.240000e-06	1.845086e-06	3.881304e-10	1.279753e+01	2.764248e+01
2.250000e-06	1.889141e-06	3.951958e-10	1.310309e+01	2.837438e+01
2.260000e-06	1.933159e-06	4.042855e-10	1.340840e+01	2.908741e+01
2.270000e-06	1.977077e-06	4.139897e-10	1.371301e+01	2.978146e+01
2.280000e-06	2.020950e-06	4.238529e-10	1.401731e+01	3.045643e+01
2.290000e-06	2.064780e-06	4.341519e-10	1.432132e+01	3.111231e+01
2.300000e-06	2.108541e-06	4.434120e-10	1.462485e+01	3.174915e+01
2.310000e-06	2.152212e-06	4.501932e-10	1.492775e+01	3.236703e+01
2.320000e-06	2.195768e-06	4.569323e-10	1.522985e+01	3.296609e+01
2.330000e-06	2.239249e-06	4.623280e-10	1.553144e+01	3.354651e+01
2.340000e-06	2.282624e-06	4.671548e-10	1.583229e+01	3.410854e+01
2.350000e-06	2.325843e-06	4.730343e-10	1.613206e+01	3.465243e+01
2.360000e-06	2.368901e-06	4.789696e-10	1.643071e+01	3.517851e+01
2.370000e-06	2.411714e-06	4.847642e-10	1.672766e+01	3.568713e+01
2.380000e-06	2.454220e-06	4.906196e-10	1.702248e+01	3.617867e+01
2.390000e-06	2.496304e-06	4.977418e-10	1.731438e+01	3.665354e+01
2.400000e-06	2.537994e-06	5.052695e-10	1.760353e+01	3.711220e+01
2.410000e-06	2.579445e-06	5.134711e-10	1.789104e+01	3.755510e+01
2.420000e-06	2.620629e-06	5.213421e-10	1.817669e+01	3.798274e+01
2.430000e-06	2.661490e-06	5.276564e-10	1.846011e+01	3.839561e+01
2.440000e-06	2.702095e-06	5.334400e-10	1.874174e+01	3.879424e+01
2.450000e-06	2.742522e-06	5.398542e-10	1.902214e+01	3.917916e+01
2.460000e-06	2.782746e-06	5.451391e-10	1.930114e+01	3.955091e+01
2.470000e-06	2.822771e-06	5.496663e-10	1.957875e+01	3.991003e+01
2.480000e-06	2.862655e-06	5.545570e-10	1.985539e+01	4.025706e+01
2.490000e-06	2.902421e-06	5.609231e-10	2.013121e+01	4.059255e+01
2.500000e-06	2.942070e-06	5.673953e-10	2.040621e+01	4.091704e+01
2.510000e-06	2.981573e-06	5.713527e-10	2.068021e+01	4.123106e+01
2.520000e-06	3.020912e-06	5.750095e-10	2.095306e+01	4.153514e+01
2.530000e-06	3.060088e-06	5.790496e-10	2.122478e+01	4.182979e+01
2.540000e-06	3.099050e-06	5.808756e-10	2.149502e+01	4.211551e+01
2.550000e-06	3.137787e-06	5.815976e-10	2.176370e+01	4.239278e+01
2.560000e-06	3.176286e-06	5.839200e-10	2.203073e+01	4.266208e+01
2.570000e-06	3.214527e-06	5.876209e-10	2.229597e+01	4.292384e+01
2.580000e-06	3.252513e-06	5.924347e-10	2.255945e+01	4.317850e+01
2.590000e-06	3.290336e-06	5.984135e-10	2.282178e+01	4.342645e+01
2.600000e-06	3.327968e-06	6.043105e-10	2.308280e+01	4.366809e+01
2.610000e-06	3.365327e-06	6.100028e-10	2.334192e+01	4.390377e+01
2.620000e-06	3.402436e-06	6.152111e-10	2.359931e+01	4.413383e+01
2.630000e-06	3.439255e-06	6.184942e-10	2.385469e+01	4.435857e+01
2.640000e-06	3.475826e-06	6.195105e-10	2.410834e+01	4.457827e+01
2.650000e-06	3.512192e-06	6.203148e-10	2.436058e+01	4.479319e+01
2.660000e-06	3.548346e-06	6.217452e-10	2.461134e+01	4.500357e+01
2.670000e-06	3.584264e-06	6.240968e-10	2.486047e+01	4.520960e+01
2.680000e-06	3.620023e-06	6.278649e-10	2.510850e+01	4.541148e+01
2.690000e-06	3.655654e-06	6.322309e-10	2.535563e+01	4.560934e+01
2.700000e-06	3.691134e-06	6.372973e-10	2.560172e+01	4.580332e+01
2.710000e-06	3.726493e-06	6.416923e-10	2.584697e+01	4.599353e+01
2.720000e-06	3.761618e-06	6.464058e-10	2.609060e+01	4.618005e+01
2.730000e-06	3.796437e-06	6.518767e-10	2.633210e+01	4.636295e+01
2.740000e-06	3.830873e-06	6.560843e-10	2.657095e+01	4.654225e+01
2.750000e-06	3.864757e-06	6.582061e-10	2.680597e+01	4.671799e+01
2.760000e-06	3.898193e-06	6.593814e-10	2.703788e+01	4.689015e+01
2.770000e-06	3.931155e-06	6.632661e-10	2.726651e+01	4.705874e+01
2.780000e-06	3.963574e-06	6.698708e-10	2.749136e+01	4.722371e+01
2.790000e-06	3.995648e-06	6.761858e-10	2.771383e+01	4.738502e+01
2.800000e-06	4.027516e-06	6.819542e-10	2.793486e+01	4.754261e+01
2.810000e-06	4.059227e-06	6.859288e-10	2.815481e+01	4.769641e+01
2.820000e-06	4.090802e-06	6.886167e-10	2.837382e+01	4.784634e+01
2.830000e-06	4.122244e-06	6.893564e-10	2.859190e+01	4.799232e+01
2.840000e-06	4.153496e-06	6.866115e-10	2.880867e+01	4.813425e+01
2.850000e-06	4.184485e-06	6.848011e-10	2.902361e+01	4.827203e+01
2.860000e-06	4.215190e-06	6.867282e-10	2.923657e+01	4.840557e+01
2.870000e-06	4.245537e-06	6.913062e-10	2.944706e+01	4.853475e+01
2.880000e-06	4.275482e-06	6.970830e-10	2.965476e+01	4.865949e+01
2.890000e-06	4.305156e-06	7.025807e-10	2.986058e+01	4.877967e+01
2.900000e-06	4.334591e-06	7.079870e-10	3.006474e+01	4.889521e+01
