# Temperatura_=_8.31
# Concentracion g/m^3_=_1620.0
# C_Vs_to_Am_M_A/Vsm_=_65563218390.804596
# pendiente_HvsI_1/m_=_3716.3
# ordenada_HvsI_A/m_=_1297.0
# frecuencia_Hz_=_135104.54943889403

Tiempo_(s)	Campo_(V.s)	Magnetizacion_(V.s)	Campo_(kA/m)	Magnetizacion_(A/m)
0.000000e+00	-5.529355e-06	-6.608581e-10	-3.837548e+01	-4.538732e+01
1.000000e-08	-5.529634e-06	-6.641224e-10	-3.837741e+01	-4.540883e+01
2.000000e-08	-5.529748e-06	-6.682499e-10	-3.837821e+01	-4.543355e+01
3.000000e-08	-5.529606e-06	-6.723161e-10	-3.837722e+01	-4.546145e+01
4.000000e-08	-5.528960e-06	-6.708480e-10	-3.837274e+01	-4.549249e+01
5.000000e-08	-5.527726e-06	-6.656512e-10	-3.836417e+01	-4.552660e+01
6.000000e-08	-5.525886e-06	-6.610473e-10	-3.835140e+01	-4.556366e+01
7.000000e-08	-5.523424e-06	-6.537895e-10	-3.833432e+01	-4.560357e+01
8.000000e-08	-5.520438e-06	-6.510882e-10	-3.831359e+01	-4.564616e+01
9.000000e-08	-5.517022e-06	-6.611312e-10	-3.828988e+01	-4.569127e+01
1.000000e-07	-5.513168e-06	-6.609485e-10	-3.826313e+01	-4.573869e+01
1.100000e-07	-5.508915e-06	-6.556258e-10	-3.823362e+01	-4.578820e+01
1.200000e-07	-5.504346e-06	-6.725556e-10	-3.820191e+01	-4.583956e+01
1.300000e-07	-5.499453e-06	-6.463360e-10	-3.816795e+01	-4.589252e+01
1.400000e-07	-5.494271e-06	-6.338962e-10	-3.813198e+01	-4.594679e+01
1.500000e-07	-5.488863e-06	-6.250991e-10	-3.809445e+01	-4.600209e+01
1.600000e-07	-5.483156e-06	-6.426024e-10	-3.805484e+01	-4.605811e+01
1.700000e-07	-5.477022e-06	-6.633613e-10	-3.801227e+01	-4.611452e+01
1.800000e-07	-5.470416e-06	-6.313579e-10	-3.796642e+01	-4.617101e+01
1.900000e-07	-5.463419e-06	-6.492831e-10	-3.791786e+01	-4.622725e+01
2.000000e-07	-5.456031e-06	-6.587083e-10	-3.786658e+01	-4.628289e+01
2.100000e-07	-5.448368e-06	-7.021619e-10	-3.781340e+01	-4.633759e+01
2.200000e-07	-5.440488e-06	-6.880202e-10	-3.775871e+01	-4.639102e+01
2.300000e-07	-5.432304e-06	-7.013114e-10	-3.770191e+01	-4.644285e+01
2.400000e-07	-5.423743e-06	-7.004369e-10	-3.764250e+01	-4.649273e+01
2.500000e-07	-5.414608e-06	-7.288478e-10	-3.757909e+01	-4.654034e+01
2.600000e-07	-5.404863e-06	-7.235521e-10	-3.751146e+01	-4.658537e+01
2.700000e-07	-5.394492e-06	-7.260573e-10	-3.743948e+01	-4.662751e+01
2.800000e-07	-5.383489e-06	-7.265524e-10	-3.736312e+01	-4.666648e+01
2.900000e-07	-5.372086e-06	-7.539191e-10	-3.728398e+01	-4.670200e+01
3.000000e-07	-5.360338e-06	-7.636615e-10	-3.720244e+01	-4.673380e+01
3.100000e-07	-5.348172e-06	-7.461799e-10	-3.711801e+01	-4.676166e+01
3.200000e-07	-5.335549e-06	-7.461278e-10	-3.703040e+01	-4.678534e+01
3.300000e-07	-5.322481e-06	-7.538822e-10	-3.693970e+01	-4.680466e+01
3.400000e-07	-5.309127e-06	-7.578465e-10	-3.684702e+01	-4.681943e+01
3.500000e-07	-5.295442e-06	-7.227819e-10	-3.675204e+01	-4.682949e+01
3.600000e-07	-5.281247e-06	-7.420054e-10	-3.665353e+01	-4.683473e+01
3.700000e-07	-5.266523e-06	-7.546437e-10	-3.655134e+01	-4.683503e+01
3.800000e-07	-5.251252e-06	-7.519117e-10	-3.644535e+01	-4.683032e+01
3.900000e-07	-5.235523e-06	-7.335476e-10	-3.633619e+01	-4.682053e+01
4.000000e-07	-5.219373e-06	-7.590845e-10	-3.622411e+01	-4.680564e+01
4.100000e-07	-5.202762e-06	-7.361016e-10	-3.610882e+01	-4.678563e+01
4.200000e-07	-5.185801e-06	-7.237681e-10	-3.599110e+01	-4.676053e+01
4.300000e-07	-5.168541e-06	-7.465541e-10	-3.587132e+01	-4.673037e+01
4.400000e-07	-5.151019e-06	-7.638598e-10	-3.574971e+01	-4.669521e+01
4.500000e-07	-5.133075e-06	-7.143716e-10	-3.562516e+01	-4.665514e+01
4.600000e-07	-5.114593e-06	-7.331447e-10	-3.549690e+01	-4.661027e+01
4.700000e-07	-5.095729e-06	-7.628555e-10	-3.536597e+01	-4.656071e+01
4.800000e-07	-5.076593e-06	-7.278527e-10	-3.523317e+01	-4.650660e+01
4.900000e-07	-5.057189e-06	-7.050330e-10	-3.509849e+01	-4.644810e+01
5.000000e-07	-5.037544e-06	-7.620352e-10	-3.496215e+01	-4.638539e+01
5.100000e-07	-5.017699e-06	-7.392512e-10	-3.482442e+01	-4.631864e+01
5.200000e-07	-4.997626e-06	-6.943032e-10	-3.468511e+01	-4.624805e+01
5.300000e-07	-4.977266e-06	-7.366084e-10	-3.454380e+01	-4.617383e+01
5.400000e-07	-4.956534e-06	-7.595561e-10	-3.439992e+01	-4.609619e+01
5.500000e-07	-4.935386e-06	-7.012834e-10	-3.425315e+01	-4.601535e+01
5.600000e-07	-4.913854e-06	-7.128273e-10	-3.410370e+01	-4.593153e+01
5.700000e-07	-4.892014e-06	-7.503043e-10	-3.395212e+01	-4.584496e+01
5.800000e-07	-4.869894e-06	-7.072646e-10	-3.379861e+01	-4.575586e+01
5.900000e-07	-4.847408e-06	-6.924196e-10	-3.364255e+01	-4.566446e+01
6.000000e-07	-4.824536e-06	-7.346498e-10	-3.348381e+01	-4.557098e+01
6.100000e-07	-4.801338e-06	-7.185704e-10	-3.332281e+01	-4.547564e+01
6.200000e-07	-4.777865e-06	-6.895028e-10	-3.315990e+01	-4.537866e+01
6.300000e-07	-4.754201e-06	-7.231562e-10	-3.299566e+01	-4.528024e+01
6.400000e-07	-4.730351e-06	-7.198708e-10	-3.283014e+01	-4.518057e+01
6.500000e-07	-4.706122e-06	-6.940616e-10	-3.266198e+01	-4.507984e+01
6.600000e-07	-4.681436e-06	-7.091681e-10	-3.249065e+01	-4.497823e+01
6.700000e-07	-4.656288e-06	-7.185316e-10	-3.231612e+01	-4.487591e+01
6.800000e-07	-4.630617e-06	-6.868436e-10	-3.213795e+01	-4.477302e+01
6.900000e-07	-4.604337e-06	-6.971773e-10	-3.195556e+01	-4.466970e+01
7.000000e-07	-4.577476e-06	-7.098552e-10	-3.176914e+01	-4.456607e+01
7.100000e-07	-4.550288e-06	-6.957700e-10	-3.158044e+01	-4.446226e+01
7.200000e-07	-4.522890e-06	-6.910566e-10	-3.139029e+01	-4.435834e+01
7.300000e-07	-4.495296e-06	-7.081794e-10	-3.119878e+01	-4.425440e+01
7.400000e-07	-4.467458e-06	-6.935224e-10	-3.100558e+01	-4.415050e+01
7.500000e-07	-4.439376e-06	-6.911626e-10	-3.081068e+01	-4.404669e+01
7.600000e-07	-4.411018e-06	-6.982979e-10	-3.061386e+01	-4.394300e+01
7.700000e-07	-4.382341e-06	-6.928357e-10	-3.041484e+01	-4.383945e+01
7.800000e-07	-4.353351e-06	-6.831017e-10	-3.021364e+01	-4.373603e+01
7.900000e-07	-4.324091e-06	-6.927563e-10	-3.001056e+01	-4.363274e+01
8.000000e-07	-4.294600e-06	-6.849624e-10	-2.980589e+01	-4.352956e+01
8.100000e-07	-4.264805e-06	-6.746512e-10	-2.959910e+01	-4.342643e+01
8.200000e-07	-4.234700e-06	-6.808795e-10	-2.939016e+01	-4.332331e+01
8.300000e-07	-4.204309e-06	-6.859738e-10	-2.917924e+01	-4.322013e+01
8.400000e-07	-4.173538e-06	-6.732815e-10	-2.896568e+01	-4.311682e+01
8.500000e-07	-4.142456e-06	-6.724440e-10	-2.874996e+01	-4.301328e+01
8.600000e-07	-4.111149e-06	-6.780933e-10	-2.853268e+01	-4.290943e+01
8.700000e-07	-4.079628e-06	-6.689612e-10	-2.831391e+01	-4.280516e+01
8.800000e-07	-4.048007e-06	-6.621227e-10	-2.809445e+01	-4.270035e+01
8.900000e-07	-4.016278e-06	-6.670027e-10	-2.787424e+01	-4.259488e+01
9.000000e-07	-3.984314e-06	-6.629132e-10	-2.765240e+01	-4.248864e+01
9.100000e-07	-3.952023e-06	-6.515001e-10	-2.742829e+01	-4.238148e+01
9.200000e-07	-3.919303e-06	-6.551221e-10	-2.720120e+01	-4.227328e+01
9.300000e-07	-3.886165e-06	-6.555250e-10	-2.697121e+01	-4.216390e+01
9.400000e-07	-3.852604e-06	-6.471619e-10	-2.673829e+01	-4.205320e+01
9.500000e-07	-3.818554e-06	-6.441705e-10	-2.650198e+01	-4.194103e+01
9.600000e-07	-3.784029e-06	-6.491945e-10	-2.626236e+01	-4.182726e+01
9.700000e-07	-3.749140e-06	-6.392787e-10	-2.602022e+01	-4.171176e+01
9.800000e-07	-3.714004e-06	-6.323338e-10	-2.577636e+01	-4.159437e+01
9.900000e-07	-3.678640e-06	-6.322597e-10	-2.553093e+01	-4.147496e+01
1.000000e-06	-3.643087e-06	-6.294232e-10	-2.528418e+01	-4.135340e+01
1.010000e-06	-3.607368e-06	-6.198328e-10	-2.503628e+01	-4.122956e+01
1.020000e-06	-3.571521e-06	-6.238230e-10	-2.478749e+01	-4.110331e+01
1.030000e-06	-3.535542e-06	-6.271919e-10	-2.453778e+01	-4.097453e+01
1.040000e-06	-3.499360e-06	-6.246307e-10	-2.428667e+01	-4.084311e+01
1.050000e-06	-3.462875e-06	-6.218326e-10	-2.403345e+01	-4.070892e+01
1.060000e-06	-3.426095e-06	-6.217693e-10	-2.377818e+01	-4.057187e+01
1.070000e-06	-3.389061e-06	-6.134389e-10	-2.352116e+01	-4.043185e+01
1.080000e-06	-3.351778e-06	-6.100935e-10	-2.326240e+01	-4.028877e+01
1.090000e-06	-3.314310e-06	-6.108198e-10	-2.300236e+01	-4.014254e+01
1.100000e-06	-3.276681e-06	-6.084825e-10	-2.274121e+01	-3.999307e+01
1.110000e-06	-3.238820e-06	-6.021893e-10	-2.247844e+01	-3.984029e+01
1.120000e-06	-3.200678e-06	-6.009606e-10	-2.221372e+01	-3.968413e+01
1.130000e-06	-3.162270e-06	-5.994189e-10	-2.194716e+01	-3.952453e+01
1.140000e-06	-3.123582e-06	-5.952417e-10	-2.167865e+01	-3.936141e+01
1.150000e-06	-3.084668e-06	-5.919311e-10	-2.140858e+01	-3.919473e+01
1.160000e-06	-3.045651e-06	-5.879304e-10	-2.113778e+01	-3.902443e+01
1.170000e-06	-3.006504e-06	-5.826477e-10	-2.086609e+01	-3.885047e+01
1.180000e-06	-2.967180e-06	-5.798371e-10	-2.059317e+01	-3.867279e+01
1.190000e-06	-2.927690e-06	-5.797260e-10	-2.031909e+01	-3.849137e+01
1.200000e-06	-2.888096e-06	-5.774374e-10	-2.004430e+01	-3.830616e+01
1.210000e-06	-2.848413e-06	-5.746666e-10	-1.976889e+01	-3.811712e+01
1.220000e-06	-2.808607e-06	-5.730195e-10	-1.949262e+01	-3.792421e+01
1.230000e-06	-2.768590e-06	-5.722278e-10	-1.921489e+01	-3.772739e+01
1.240000e-06	-2.728339e-06	-5.682597e-10	-1.893554e+01	-3.752663e+01
1.250000e-06	-2.687921e-06	-5.661017e-10	-1.865502e+01	-3.732189e+01
1.260000e-06	-2.647229e-06	-5.642427e-10	-1.837261e+01	-3.711311e+01
1.270000e-06	-2.606222e-06	-5.648617e-10	-1.808801e+01	-3.690025e+01
1.280000e-06	-2.564917e-06	-5.627544e-10	-1.780134e+01	-3.668325e+01
1.290000e-06	-2.523367e-06	-5.591087e-10	-1.751297e+01	-3.646206e+01
1.300000e-06	-2.481545e-06	-5.524886e-10	-1.722271e+01	-3.623660e+01
1.310000e-06	-2.439335e-06	-5.469544e-10	-1.692976e+01	-3.600681e+01
1.320000e-06	-2.396773e-06	-5.425073e-10	-1.663437e+01	-3.577259e+01
1.330000e-06	-2.353981e-06	-5.400849e-10	-1.633737e+01	-3.553386e+01
1.340000e-06	-2.311053e-06	-5.383330e-10	-1.603944e+01	-3.529051e+01
1.350000e-06	-2.267894e-06	-5.382848e-10	-1.573990e+01	-3.504241e+01
1.360000e-06	-2.224475e-06	-5.364492e-10	-1.543856e+01	-3.478945e+01
1.370000e-06	-2.180940e-06	-5.334125e-10	-1.513641e+01	-3.453148e+01
1.380000e-06	-2.137347e-06	-5.296716e-10	-1.483387e+01	-3.426833e+01
1.390000e-06	-2.093702e-06	-5.250278e-10	-1.453095e+01	-3.399985e+01
1.400000e-06	-2.050012e-06	-5.184805e-10	-1.422774e+01	-3.372584e+01
1.410000e-06	-2.006239e-06	-5.115804e-10	-1.392394e+01	-3.344611e+01
1.420000e-06	-1.962360e-06	-5.043723e-10	-1.361940e+01	-3.316042e+01
1.430000e-06	-1.918365e-06	-4.996534e-10	-1.331406e+01	-3.286855e+01
1.440000e-06	-1.874222e-06	-4.966016e-10	-1.300770e+01	-3.257025e+01
1.450000e-06	-1.829984e-06	-4.912011e-10	-1.270067e+01	-3.226525e+01
1.460000e-06	-1.785622e-06	-4.833796e-10	-1.239278e+01	-3.195326e+01
1.470000e-06	-1.741022e-06	-4.749954e-10	-1.208324e+01	-3.163399e+01
1.480000e-06	-1.696266e-06	-4.668531e-10	-1.177262e+01	-3.130712e+01
1.490000e-06	-1.651435e-06	-4.575559e-10	-1.146148e+01	-3.097232e+01
1.500000e-06	-1.606522e-06	-4.512008e-10	-1.114977e+01	-3.062924e+01
1.510000e-06	-1.561471e-06	-4.461220e-10	-1.083711e+01	-3.027754e+01
1.520000e-06	-1.516324e-06	-4.406701e-10	-1.052377e+01	-2.991683e+01
1.530000e-06	-1.471108e-06	-4.349592e-10	-1.020996e+01	-2.954675e+01
1.540000e-06	-1.425767e-06	-4.280886e-10	-9.895275e+00	-2.916690e+01
1.550000e-06	-1.380326e-06	-4.197356e-10	-9.579898e+00	-2.877688e+01
1.560000e-06	-1.334773e-06	-4.118476e-10	-9.263747e+00	-2.837630e+01
1.570000e-06	-1.289135e-06	-4.040004e-10	-8.947007e+00	-2.796474e+01
1.580000e-06	-1.243417e-06	-3.970287e-10	-8.629706e+00	-2.754179e+01
1.590000e-06	-1.197585e-06	-3.918589e-10	-8.311617e+00	-2.710704e+01
1.600000e-06	-1.151653e-06	-3.856949e-10	-7.992838e+00	-2.666010e+01
1.610000e-06	-1.105702e-06	-3.785235e-10	-7.673924e+00	-2.620055e+01
1.620000e-06	-1.059708e-06	-3.715047e-10	-7.354711e+00	-2.572800e+01
1.630000e-06	-1.013622e-06	-3.637824e-10	-7.034861e+00	-2.524206e+01
1.640000e-06	-9.674295e-07	-3.554752e-10	-6.714267e+00	-2.474236e+01
1.650000e-06	-9.210929e-07	-3.443978e-10	-6.392676e+00	-2.422855e+01
1.660000e-06	-8.747060e-07	-3.361838e-10	-6.070737e+00	-2.370029e+01
1.670000e-06	-8.283377e-07	-3.289812e-10	-5.748926e+00	-2.315725e+01
1.680000e-06	-7.819674e-07	-3.235182e-10	-5.427101e+00	-2.259915e+01
1.690000e-06	-7.355646e-07	-3.181427e-10	-5.105052e+00	-2.202571e+01
1.700000e-06	-6.890700e-07	-3.130628e-10	-4.782364e+00	-2.143670e+01
1.710000e-06	-6.424170e-07	-3.046078e-10	-4.458578e+00	-2.083191e+01
1.720000e-06	-5.956722e-07	-2.927666e-10	-4.134154e+00	-2.021118e+01
1.730000e-06	-5.488923e-07	-2.796456e-10	-3.809486e+00	-1.957437e+01
1.740000e-06	-5.021632e-07	-2.688513e-10	-3.485172e+00	-1.892139e+01
1.750000e-06	-4.554115e-07	-2.593590e-10	-3.160700e+00	-1.825218e+01
1.760000e-06	-4.085600e-07	-2.501262e-10	-2.835536e+00	-1.756675e+01
1.770000e-06	-3.617149e-07	-2.401777e-10	-2.510416e+00	-1.686513e+01
1.780000e-06	-3.148462e-07	-2.302961e-10	-2.185133e+00	-1.614742e+01
1.790000e-06	-2.679193e-07	-2.214485e-10	-1.859445e+00	-1.541375e+01
1.800000e-06	-2.209979e-07	-2.092437e-10	-1.533795e+00	-1.466432e+01
1.810000e-06	-1.740829e-07	-1.966800e-10	-1.208190e+00	-1.389936e+01
1.820000e-06	-1.271232e-07	-1.835121e-10	-8.822752e-01	-1.311918e+01
1.830000e-06	-8.007875e-08	-1.731675e-10	-5.557719e-01	-1.232413e+01
1.840000e-06	-3.309965e-08	-1.649020e-10	-2.297220e-01	-1.151460e+01
1.850000e-06	1.376221e-08	-1.563449e-10	9.551413e-02	-1.069107e+01
1.860000e-06	6.067706e-08	-1.483393e-10	4.211180e-01	-9.854038e+00
1.870000e-06	1.076422e-07	-1.386707e-10	7.470710e-01	-9.004070e+00
1.880000e-06	1.546358e-07	-1.265495e-10	1.073221e+00	-8.141783e+00
1.890000e-06	2.015599e-07	-1.134368e-10	1.398890e+00	-7.267844e+00
1.900000e-06	2.484655e-07	-9.920979e-11	1.724429e+00	-6.382967e+00
1.910000e-06	2.954260e-07	-8.714942e-11	2.050350e+00	-5.487914e+00
1.920000e-06	3.423092e-07	-7.565927e-11	2.375734e+00	-4.583492e+00
1.930000e-06	3.890663e-07	-6.561845e-11	2.700244e+00	-3.670547e+00
1.940000e-06	4.357860e-07	-5.279603e-11	3.024493e+00	-2.749965e+00
1.950000e-06	4.824374e-07	-4.158072e-11	3.348268e+00	-1.822670e+00
1.960000e-06	5.290927e-07	-3.173163e-11	3.672071e+00	-8.896130e-01
1.970000e-06	5.757546e-07	-2.080714e-11	3.995919e+00	4.822198e-02
1.980000e-06	6.223226e-07	-7.918360e-12	4.319116e+00	9.898287e-01
1.990000e-06	6.688510e-07	6.020527e-12	4.642038e+00	1.934180e+00
2.000000e-06	7.153136e-07	2.138098e-11	4.964503e+00	2.880232e+00
2.010000e-06	7.617302e-07	3.773310e-11	5.286649e+00	3.826931e+00
2.020000e-06	8.081059e-07	5.188420e-11	5.608511e+00	4.773213e+00
2.030000e-06	8.544198e-07	6.543224e-11	5.929944e+00	5.718014e+00
2.040000e-06	9.006714e-07	7.934786e-11	6.250945e+00	6.660271e+00
2.050000e-06	9.468207e-07	9.187260e-11	6.571236e+00	7.598927e+00
2.060000e-06	9.929125e-07	1.056845e-10	6.891127e+00	8.532937e+00
2.070000e-06	1.038979e-06	1.202650e-10	7.210844e+00	9.461272e+00
2.080000e-06	1.084937e-06	1.349590e-10	7.529805e+00	1.038292e+01
2.090000e-06	1.130797e-06	1.496975e-10	7.848088e+00	1.129691e+01
2.100000e-06	1.176594e-06	1.646524e-10	8.165937e+00	1.220227e+01
2.110000e-06	1.222265e-06	1.804130e-10	8.482909e+00	1.309808e+01
2.120000e-06	1.267846e-06	1.937629e-10	8.799254e+00	1.398347e+01
2.130000e-06	1.313415e-06	2.060329e-10	9.115517e+00	1.485759e+01
2.140000e-06	1.358969e-06	2.166196e-10	9.431679e+00	1.571963e+01
2.150000e-06	1.404403e-06	2.268941e-10	9.747002e+00	1.656885e+01
2.160000e-06	1.449642e-06	2.368491e-10	1.006098e+01	1.740454e+01
2.170000e-06	1.494757e-06	2.481856e-10	1.037409e+01	1.822606e+01
2.180000e-06	1.539787e-06	2.610042e-10	1.068661e+01	1.903281e+01
2.190000e-06	1.584724e-06	2.744536e-10	1.099849e+01	1.982424e+01
2.200000e-06	1.629536e-06	2.876449e-10	1.130950e+01	2.059990e+01
2.210000e-06	1.674214e-06	2.990694e-10	1.161957e+01	2.135934e+01
2.220000e-06	1.718782e-06	3.083160e-10	1.192889e+01	2.210222e+01
2.230000e-06	1.763218e-06	3.174392e-10	1.223729e+01	2.282823e+01
2.240000e-06	1.807480e-06	3.263008e-10	1.254448e+01	2.353713e+01
2.250000e-06	1.851592e-06	3.361733e-10	1.285064e+01	2.422875e+01
2.260000e-06	1.895593e-06	3.477803e-10	1.315602e+01	2.490296e+01
2.270000e-06	1.939492e-06	3.595362e-10	1.346069e+01	2.555969e+01
2.280000e-06	1.983293e-06	3.677016e-10	1.376468e+01	2.619894e+01
2.290000e-06	2.027035e-06	3.741867e-10	1.406826e+01	2.682077e+01
2.300000e-06	2.070752e-06	3.804730e-10	1.437167e+01	2.742526e+01
2.310000e-06	2.114385e-06	3.878819e-10	1.467450e+01	2.801256e+01
2.320000e-06	2.157964e-06	3.970036e-10	1.497696e+01	2.858288e+01
2.330000e-06	2.201514e-06	4.065490e-10	1.527921e+01	2.913645e+01
2.340000e-06	2.244972e-06	4.139684e-10	1.558082e+01	2.967355e+01
2.350000e-06	2.288298e-06	4.199385e-10	1.588151e+01	3.019450e+01
2.360000e-06	2.331462e-06	4.264860e-10	1.618109e+01	3.069966e+01
2.370000e-06	2.374350e-06	4.326274e-10	1.647874e+01	3.118940e+01
2.380000e-06	2.416933e-06	4.385058e-10	1.677428e+01	3.166412e+01
2.390000e-06	2.459312e-06	4.476249e-10	1.706840e+01	3.212427e+01
2.400000e-06	2.501480e-06	4.584539e-10	1.736107e+01	3.257029e+01
2.410000e-06	2.543300e-06	4.673893e-10	1.765131e+01	3.300264e+01
2.420000e-06	2.584813e-06	4.754353e-10	1.793942e+01	3.342180e+01
2.430000e-06	2.626055e-06	4.813857e-10	1.822565e+01	3.382824e+01
2.440000e-06	2.666876e-06	4.881508e-10	1.850896e+01	3.422245e+01
2.450000e-06	2.707353e-06	4.959930e-10	1.878989e+01	3.460491e+01
2.460000e-06	2.747601e-06	5.054181e-10	1.906922e+01	3.497611e+01
2.470000e-06	2.787652e-06	5.123147e-10	1.934719e+01	3.533650e+01
2.480000e-06	2.827559e-06	5.154117e-10	1.962415e+01	3.568655e+01
2.490000e-06	2.867380e-06	5.173424e-10	1.990052e+01	3.602672e+01
2.500000e-06	2.907072e-06	5.207339e-10	2.017600e+01	3.635742e+01
2.510000e-06	2.946613e-06	5.278093e-10	2.045043e+01	3.667908e+01
2.520000e-06	2.986000e-06	5.348451e-10	2.072378e+01	3.699209e+01
2.530000e-06	3.025187e-06	5.415327e-10	2.099576e+01	3.729682e+01
2.540000e-06	3.064276e-06	5.459846e-10	2.126705e+01	3.759362e+01
2.550000e-06	3.103207e-06	5.467377e-10	2.153724e+01	3.788282e+01
2.560000e-06	3.141851e-06	5.470949e-10	2.180544e+01	3.816470e+01
2.570000e-06	3.180173e-06	5.499049e-10	2.207141e+01	3.843955e+01
2.580000e-06	3.218187e-06	5.537171e-10	2.233524e+01	3.870761e+01
2.590000e-06	3.256082e-06	5.576411e-10	2.259824e+01	3.896910e+01
2.600000e-06	3.293856e-06	5.619837e-10	2.286041e+01	3.922422e+01
2.610000e-06	3.331403e-06	5.649008e-10	2.312099e+01	3.947312e+01
2.620000e-06	3.368678e-06	5.693774e-10	2.337969e+01	3.971597e+01
2.630000e-06	3.405683e-06	5.756302e-10	2.363652e+01	3.995287e+01
2.640000e-06	3.442414e-06	5.794210e-10	2.389144e+01	4.018392e+01
2.650000e-06	3.478881e-06	5.827040e-10	2.414454e+01	4.040921e+01
2.660000e-06	3.515114e-06	5.859849e-10	2.439601e+01	4.062879e+01
2.670000e-06	3.551162e-06	5.879856e-10	2.464619e+01	4.084270e+01
2.680000e-06	3.587085e-06	5.887508e-10	2.489551e+01	4.105098e+01
2.690000e-06	3.622828e-06	5.902881e-10	2.514357e+01	4.125363e+01
2.700000e-06	3.658418e-06	5.943964e-10	2.539058e+01	4.145065e+01
2.710000e-06	3.693883e-06	5.995823e-10	2.563672e+01	4.164205e+01
2.720000e-06	3.729084e-06	6.065160e-10	2.588103e+01	4.182781e+01
2.730000e-06	3.764015e-06	6.155513e-10	2.612346e+01	4.200791e+01
2.740000e-06	3.798649e-06	6.240144e-10	2.636383e+01	4.218234e+01
2.750000e-06	3.832866e-06	6.276366e-10	2.660131e+01	4.235108e+01
2.760000e-06	3.866657e-06	6.257405e-10	2.683582e+01	4.251410e+01
2.770000e-06	3.899924e-06	6.236939e-10	2.706671e+01	4.267141e+01
2.780000e-06	3.932707e-06	6.247609e-10	2.729424e+01	4.282299e+01
2.790000e-06	3.965176e-06	6.286314e-10	2.751958e+01	4.296884e+01
2.800000e-06	3.997324e-06	6.346499e-10	2.774270e+01	4.310898e+01
2.810000e-06	4.029198e-06	6.425424e-10	2.796391e+01	4.324344e+01
2.820000e-06	4.060893e-06	6.497927e-10	2.818388e+01	4.337223e+01
2.830000e-06	4.092408e-06	6.534732e-10	2.840261e+01	4.349542e+01
2.840000e-06	4.123690e-06	6.540650e-10	2.861971e+01	4.361306e+01
2.850000e-06	4.154725e-06	6.521998e-10	2.883511e+01	4.372522e+01
2.860000e-06	4.185487e-06	6.522930e-10	2.904860e+01	4.383200e+01
2.870000e-06	4.215990e-06	6.543470e-10	2.926031e+01	4.393350e+01
2.880000e-06	4.246206e-06	6.558235e-10	2.947001e+01	4.402984e+01
2.890000e-06	4.276097e-06	6.597561e-10	2.967747e+01	4.412114e+01
2.900000e-06	4.305724e-06	6.656657e-10	2.988309e+01	4.420756e+01
