# Temperatura_=_10.01
# Concentracion g/m^3_=_1620.0
# C_Vs_to_Am_M_A/Vsm_=_65563218390.804596
# pendiente_HvsI_1/m_=_3716.3
# ordenada_HvsI_A/m_=_1297.0
# frecuencia_Hz_=_135102.25322883404

Tiempo_(s)	Campo_(V.s)	Magnetizacion_(V.s)	Campo_(kA/m)	Magnetizacion_(A/m)
0.000000e+00	-5.533323e-06	-7.864304e-10	-3.837876e+01	-5.097862e+01
1.000000e-08	-5.533655e-06	-7.890279e-10	-3.838107e+01	-5.097346e+01
2.000000e-08	-5.533732e-06	-7.898082e-10	-3.838160e+01	-5.096875e+01
3.000000e-08	-5.533436e-06	-7.916586e-10	-3.837955e+01	-5.096436e+01
4.000000e-08	-5.532742e-06	-7.896985e-10	-3.837473e+01	-5.096014e+01
5.000000e-08	-5.531535e-06	-7.835492e-10	-3.836636e+01	-5.095595e+01
6.000000e-08	-5.529666e-06	-7.829837e-10	-3.835340e+01	-5.095165e+01
7.000000e-08	-5.527158e-06	-7.781881e-10	-3.833600e+01	-5.094707e+01
8.000000e-08	-5.524130e-06	-7.620715e-10	-3.831500e+01	-5.094204e+01
9.000000e-08	-5.520700e-06	-7.627964e-10	-3.829121e+01	-5.093641e+01
1.000000e-07	-5.516872e-06	-8.000417e-10	-3.826466e+01	-5.093001e+01
1.100000e-07	-5.512615e-06	-7.916917e-10	-3.823513e+01	-5.092266e+01
1.200000e-07	-5.508037e-06	-7.637383e-10	-3.820338e+01	-5.091421e+01
1.300000e-07	-5.503260e-06	-7.395363e-10	-3.817025e+01	-5.090448e+01
1.400000e-07	-5.498196e-06	-7.855494e-10	-3.813513e+01	-5.089333e+01
1.500000e-07	-5.492718e-06	-7.782302e-10	-3.809713e+01	-5.088058e+01
1.600000e-07	-5.486849e-06	-7.509803e-10	-3.805642e+01	-5.086611e+01
1.700000e-07	-5.480679e-06	-7.538830e-10	-3.801363e+01	-5.084975e+01
1.800000e-07	-5.474154e-06	-7.908536e-10	-3.796837e+01	-5.083138e+01
1.900000e-07	-5.467203e-06	-7.796700e-10	-3.792016e+01	-5.081088e+01
2.000000e-07	-5.459894e-06	-7.325877e-10	-3.786946e+01	-5.078812e+01
2.100000e-07	-5.452307e-06	-7.554620e-10	-3.781684e+01	-5.076299e+01
2.200000e-07	-5.444452e-06	-8.001345e-10	-3.776236e+01	-5.073541e+01
2.300000e-07	-5.436290e-06	-8.157748e-10	-3.770575e+01	-5.070529e+01
2.400000e-07	-5.427755e-06	-7.766940e-10	-3.764655e+01	-5.067254e+01
2.500000e-07	-5.418690e-06	-7.877034e-10	-3.758367e+01	-5.063711e+01
2.600000e-07	-5.408880e-06	-7.941549e-10	-3.751563e+01	-5.059894e+01
2.700000e-07	-5.398333e-06	-7.984666e-10	-3.744248e+01	-5.055799e+01
2.800000e-07	-5.387308e-06	-7.734665e-10	-3.736601e+01	-5.051421e+01
2.900000e-07	-5.375820e-06	-7.908107e-10	-3.728634e+01	-5.046760e+01
3.000000e-07	-5.363906e-06	-7.979710e-10	-3.720370e+01	-5.041812e+01
3.100000e-07	-5.351659e-06	-8.015195e-10	-3.711875e+01	-5.036578e+01
3.200000e-07	-5.339021e-06	-7.800222e-10	-3.703110e+01	-5.031058e+01
3.300000e-07	-5.326016e-06	-7.791959e-10	-3.694089e+01	-5.025253e+01
3.400000e-07	-5.312689e-06	-7.806584e-10	-3.684846e+01	-5.019165e+01
3.500000e-07	-5.299038e-06	-7.800960e-10	-3.675378e+01	-5.012795e+01
3.600000e-07	-5.284858e-06	-7.559283e-10	-3.665542e+01	-5.006147e+01
3.700000e-07	-5.269980e-06	-7.690115e-10	-3.655223e+01	-4.999225e+01
3.800000e-07	-5.254551e-06	-7.973466e-10	-3.644522e+01	-4.992032e+01
3.900000e-07	-5.238729e-06	-7.806803e-10	-3.633548e+01	-4.984573e+01
4.000000e-07	-5.222468e-06	-7.513912e-10	-3.622270e+01	-4.976852e+01
4.100000e-07	-5.205869e-06	-7.809542e-10	-3.610757e+01	-4.968875e+01
4.200000e-07	-5.189100e-06	-7.956452e-10	-3.599126e+01	-4.960646e+01
4.300000e-07	-5.171907e-06	-7.479299e-10	-3.587201e+01	-4.952172e+01
4.400000e-07	-5.154272e-06	-7.614770e-10	-3.574969e+01	-4.943457e+01
4.500000e-07	-5.136386e-06	-8.013778e-10	-3.562563e+01	-4.934508e+01
4.600000e-07	-5.118039e-06	-7.627641e-10	-3.549838e+01	-4.925331e+01
4.700000e-07	-5.099176e-06	-7.222209e-10	-3.536755e+01	-4.915931e+01
4.800000e-07	-5.079989e-06	-7.799762e-10	-3.523447e+01	-4.906315e+01
4.900000e-07	-5.060597e-06	-7.752398e-10	-3.509997e+01	-4.896489e+01
5.000000e-07	-5.041016e-06	-7.243479e-10	-3.496416e+01	-4.886459e+01
5.100000e-07	-5.021218e-06	-7.470387e-10	-3.482684e+01	-4.876231e+01
5.200000e-07	-5.001174e-06	-7.844323e-10	-3.468781e+01	-4.865813e+01
5.300000e-07	-4.980733e-06	-7.294244e-10	-3.454604e+01	-4.855210e+01
5.400000e-07	-4.959841e-06	-7.316844e-10	-3.440113e+01	-4.844429e+01
5.500000e-07	-4.938634e-06	-7.739611e-10	-3.425404e+01	-4.833478e+01
5.600000e-07	-4.917091e-06	-7.440101e-10	-3.410462e+01	-4.822363e+01
5.700000e-07	-4.895207e-06	-7.081599e-10	-3.395283e+01	-4.811091e+01
5.800000e-07	-4.873021e-06	-7.583839e-10	-3.379896e+01	-4.799671e+01
5.900000e-07	-4.850427e-06	-7.532101e-10	-3.364224e+01	-4.788110e+01
6.000000e-07	-4.827436e-06	-7.081784e-10	-3.348278e+01	-4.776416e+01
6.100000e-07	-4.804210e-06	-7.243645e-10	-3.332168e+01	-4.764597e+01
6.200000e-07	-4.780762e-06	-7.457042e-10	-3.315905e+01	-4.752662e+01
6.300000e-07	-4.757043e-06	-7.064390e-10	-3.299454e+01	-4.740619e+01
6.400000e-07	-4.733060e-06	-7.073577e-10	-3.282819e+01	-4.728479e+01
6.500000e-07	-4.708717e-06	-7.354317e-10	-3.265935e+01	-4.716250e+01
6.600000e-07	-4.683894e-06	-7.179570e-10	-3.248718e+01	-4.703942e+01
6.700000e-07	-4.658584e-06	-6.995416e-10	-3.231164e+01	-4.691565e+01
6.800000e-07	-4.632821e-06	-7.155282e-10	-3.213294e+01	-4.679128e+01
6.900000e-07	-4.606513e-06	-7.103572e-10	-3.195047e+01	-4.666643e+01
7.000000e-07	-4.579688e-06	-6.910869e-10	-3.176441e+01	-4.654119e+01
7.100000e-07	-4.552533e-06	-7.009158e-10	-3.157607e+01	-4.641566e+01
7.200000e-07	-4.525092e-06	-7.091696e-10	-3.138574e+01	-4.628996e+01
7.300000e-07	-4.497405e-06	-7.014168e-10	-3.119370e+01	-4.616416e+01
7.400000e-07	-4.469622e-06	-7.005078e-10	-3.100100e+01	-4.603838e+01
7.500000e-07	-4.441659e-06	-7.095468e-10	-3.080705e+01	-4.591271e+01
7.600000e-07	-4.413443e-06	-6.978892e-10	-3.061135e+01	-4.578723e+01
7.700000e-07	-4.384926e-06	-6.880928e-10	-3.041356e+01	-4.566204e+01
7.800000e-07	-4.356034e-06	-6.880877e-10	-3.021317e+01	-4.553720e+01
7.900000e-07	-4.326863e-06	-6.885252e-10	-3.001084e+01	-4.541279e+01
8.000000e-07	-4.297424e-06	-6.816865e-10	-2.980665e+01	-4.528886e+01
8.100000e-07	-4.267661e-06	-6.887923e-10	-2.960022e+01	-4.516546e+01
8.200000e-07	-4.237584e-06	-6.912549e-10	-2.939160e+01	-4.504264e+01
8.300000e-07	-4.207252e-06	-6.881869e-10	-2.918122e+01	-4.492041e+01
8.400000e-07	-4.176555e-06	-6.842440e-10	-2.896831e+01	-4.479879e+01
8.500000e-07	-4.145485e-06	-6.850840e-10	-2.875281e+01	-4.467777e+01
8.600000e-07	-4.114182e-06	-6.753495e-10	-2.853570e+01	-4.455734e+01
8.700000e-07	-4.082739e-06	-6.732030e-10	-2.831761e+01	-4.443745e+01
8.800000e-07	-4.051154e-06	-6.747335e-10	-2.809854e+01	-4.431806e+01
8.900000e-07	-4.019365e-06	-6.729102e-10	-2.787805e+01	-4.419909e+01
9.000000e-07	-3.987345e-06	-6.685849e-10	-2.765596e+01	-4.408045e+01
9.100000e-07	-3.955013e-06	-6.719057e-10	-2.743171e+01	-4.396205e+01
9.200000e-07	-3.922297e-06	-6.677367e-10	-2.720480e+01	-4.384374e+01
9.300000e-07	-3.889151e-06	-6.621956e-10	-2.697490e+01	-4.372539e+01
9.400000e-07	-3.855589e-06	-6.633950e-10	-2.674211e+01	-4.360682e+01
9.500000e-07	-3.821607e-06	-6.643771e-10	-2.650641e+01	-4.348787e+01
9.600000e-07	-3.787132e-06	-6.576168e-10	-2.626730e+01	-4.336833e+01
9.700000e-07	-3.752265e-06	-6.553783e-10	-2.602546e+01	-4.324799e+01
9.800000e-07	-3.717187e-06	-6.558492e-10	-2.578216e+01	-4.312661e+01
9.900000e-07	-3.681836e-06	-6.484291e-10	-2.553697e+01	-4.300396e+01
1.000000e-06	-3.646253e-06	-6.441513e-10	-2.529017e+01	-4.287977e+01
1.010000e-06	-3.610579e-06	-6.452490e-10	-2.504274e+01	-4.275377e+01
1.020000e-06	-3.574734e-06	-6.401434e-10	-2.479412e+01	-4.262569e+01
1.030000e-06	-3.538721e-06	-6.317821e-10	-2.454434e+01	-4.249524e+01
1.040000e-06	-3.502555e-06	-6.325532e-10	-2.429349e+01	-4.236213e+01
1.050000e-06	-3.466075e-06	-6.288627e-10	-2.404047e+01	-4.222605e+01
1.060000e-06	-3.429237e-06	-6.195326e-10	-2.378496e+01	-4.208672e+01
1.070000e-06	-3.392194e-06	-6.140777e-10	-2.352804e+01	-4.194383e+01
1.080000e-06	-3.354933e-06	-6.159180e-10	-2.326960e+01	-4.179709e+01
1.090000e-06	-3.317340e-06	-6.130434e-10	-2.300885e+01	-4.164620e+01
1.100000e-06	-3.279546e-06	-6.115829e-10	-2.274671e+01	-4.149088e+01
1.110000e-06	-3.241663e-06	-6.089637e-10	-2.248396e+01	-4.133085e+01
1.120000e-06	-3.203483e-06	-6.025868e-10	-2.221915e+01	-4.116586e+01
1.130000e-06	-3.164955e-06	-5.941046e-10	-2.195192e+01	-4.099565e+01
1.140000e-06	-3.126219e-06	-5.943444e-10	-2.168325e+01	-4.081998e+01
1.150000e-06	-3.087361e-06	-5.935045e-10	-2.141374e+01	-4.063864e+01
1.160000e-06	-3.048378e-06	-5.883306e-10	-2.114335e+01	-4.045141e+01
1.170000e-06	-3.009114e-06	-5.833767e-10	-2.087102e+01	-4.025814e+01
1.180000e-06	-2.969651e-06	-5.803556e-10	-2.059730e+01	-4.005864e+01
1.190000e-06	-2.930122e-06	-5.741731e-10	-2.032314e+01	-3.985278e+01
1.200000e-06	-2.890511e-06	-5.726467e-10	-2.004839e+01	-3.964046e+01
1.210000e-06	-2.850802e-06	-5.732201e-10	-1.977298e+01	-3.942156e+01
1.220000e-06	-2.810942e-06	-5.713541e-10	-1.949651e+01	-3.919603e+01
1.230000e-06	-2.770876e-06	-5.667079e-10	-1.921862e+01	-3.896382e+01
1.240000e-06	-2.730596e-06	-5.646648e-10	-1.893923e+01	-3.872489e+01
1.250000e-06	-2.690111e-06	-5.615081e-10	-1.865843e+01	-3.847925e+01
1.260000e-06	-2.649318e-06	-5.552126e-10	-1.837549e+01	-3.822692e+01
1.270000e-06	-2.608264e-06	-5.538357e-10	-1.809075e+01	-3.796793e+01
1.280000e-06	-2.566980e-06	-5.534847e-10	-1.780441e+01	-3.770233e+01
1.290000e-06	-2.525235e-06	-5.487731e-10	-1.751486e+01	-3.743020e+01
1.300000e-06	-2.483170e-06	-5.427648e-10	-1.722310e+01	-3.715163e+01
1.310000e-06	-2.440908e-06	-5.391901e-10	-1.692998e+01	-3.686669e+01
1.320000e-06	-2.398311e-06	-5.324083e-10	-1.663452e+01	-3.657551e+01
1.330000e-06	-2.355417e-06	-5.250470e-10	-1.633702e+01	-3.627818e+01
1.340000e-06	-2.312345e-06	-5.245053e-10	-1.603827e+01	-3.597483e+01
1.350000e-06	-2.269136e-06	-5.255363e-10	-1.573858e+01	-3.566556e+01
1.360000e-06	-2.225792e-06	-5.231596e-10	-1.543794e+01	-3.535049e+01
1.370000e-06	-2.182316e-06	-5.204132e-10	-1.513640e+01	-3.502971e+01
1.380000e-06	-2.138724e-06	-5.164850e-10	-1.483405e+01	-3.470333e+01
1.390000e-06	-2.095090e-06	-5.072302e-10	-1.453140e+01	-3.437143e+01
1.400000e-06	-2.051443e-06	-4.969744e-10	-1.422867e+01	-3.403406e+01
1.410000e-06	-2.007739e-06	-4.906305e-10	-1.392555e+01	-3.369127e+01
1.420000e-06	-1.963903e-06	-4.858472e-10	-1.362150e+01	-3.334310e+01
1.430000e-06	-1.919863e-06	-4.855007e-10	-1.331604e+01	-3.298952e+01
1.440000e-06	-1.875676e-06	-4.849207e-10	-1.300957e+01	-3.263053e+01
1.450000e-06	-1.831397e-06	-4.797239e-10	-1.270245e+01	-3.226605e+01
1.460000e-06	-1.787047e-06	-4.690581e-10	-1.239484e+01	-3.189599e+01
1.470000e-06	-1.742640e-06	-4.567873e-10	-1.208684e+01	-3.152023e+01
1.480000e-06	-1.698039e-06	-4.444835e-10	-1.177749e+01	-3.113860e+01
1.490000e-06	-1.653139e-06	-4.347200e-10	-1.146606e+01	-3.075091e+01
1.500000e-06	-1.608060e-06	-4.286187e-10	-1.115340e+01	-3.035691e+01
1.510000e-06	-1.562911e-06	-4.254647e-10	-1.084025e+01	-2.995634e+01
1.520000e-06	-1.517735e-06	-4.215897e-10	-1.052691e+01	-2.954889e+01
1.530000e-06	-1.472420e-06	-4.175035e-10	-1.021261e+01	-2.913419e+01
1.540000e-06	-1.426941e-06	-4.101132e-10	-9.897166e+00	-2.871188e+01
1.550000e-06	-1.381467e-06	-4.000818e-10	-9.581766e+00	-2.828152e+01
1.560000e-06	-1.335918e-06	-3.888764e-10	-9.265842e+00	-2.784267e+01
1.570000e-06	-1.290249e-06	-3.789391e-10	-8.949081e+00	-2.739483e+01
1.580000e-06	-1.244537e-06	-3.695838e-10	-8.632026e+00	-2.693751e+01
1.590000e-06	-1.198794e-06	-3.617849e-10	-8.314756e+00	-2.647016e+01
1.600000e-06	-1.152995e-06	-3.543186e-10	-7.997095e+00	-2.599223e+01
1.610000e-06	-1.107085e-06	-3.460897e-10	-7.678668e+00	-2.550314e+01
1.620000e-06	-1.061070e-06	-3.363856e-10	-7.359508e+00	-2.500231e+01
1.630000e-06	-1.014933e-06	-3.281876e-10	-7.039512e+00	-2.448914e+01
1.640000e-06	-9.686852e-07	-3.187484e-10	-6.718737e+00	-2.396304e+01
1.650000e-06	-9.224720e-07	-3.044115e-10	-6.398205e+00	-2.342341e+01
1.660000e-06	-8.762395e-07	-2.918825e-10	-6.077540e+00	-2.286967e+01
1.670000e-06	-8.298492e-07	-2.812639e-10	-5.755779e+00	-2.230124e+01
1.680000e-06	-7.833778e-07	-2.710540e-10	-5.433457e+00	-2.171756e+01
1.690000e-06	-7.368719e-07	-2.637661e-10	-5.110895e+00	-2.111811e+01
1.700000e-06	-6.903015e-07	-2.601482e-10	-4.787886e+00	-2.050238e+01
1.710000e-06	-6.436862e-07	-2.534269e-10	-4.464565e+00	-1.986992e+01
1.720000e-06	-5.970439e-07	-2.424006e-10	-4.141057e+00	-1.922030e+01
1.730000e-06	-5.503909e-07	-2.300641e-10	-3.817475e+00	-1.855314e+01
1.740000e-06	-5.037114e-07	-2.163585e-10	-3.493709e+00	-1.786812e+01
1.750000e-06	-4.570070e-07	-2.017223e-10	-3.169770e+00	-1.716498e+01
1.760000e-06	-4.102035e-07	-1.911404e-10	-2.845144e+00	-1.644351e+01
1.770000e-06	-3.632259e-07	-1.818553e-10	-2.519311e+00	-1.570356e+01
1.780000e-06	-3.162227e-07	-1.715059e-10	-2.193300e+00	-1.494509e+01
1.790000e-06	-2.692586e-07	-1.614882e-10	-1.867560e+00	-1.416808e+01
1.800000e-06	-2.222534e-07	-1.512851e-10	-1.541535e+00	-1.337261e+01
1.810000e-06	-1.752658e-07	-1.373883e-10	-1.215632e+00	-1.255886e+01
1.820000e-06	-1.283124e-07	-1.221485e-10	-8.899663e-01	-1.172705e+01
1.830000e-06	-8.130528e-08	-1.092945e-10	-5.639281e-01	-1.087751e+01
1.840000e-06	-3.431963e-08	-9.891191e-11	-2.380387e-01	-1.001064e+01
1.850000e-06	1.254283e-08	-8.765383e-11	8.699626e-02	-9.126935e+00
1.860000e-06	5.936123e-08	-7.891589e-11	4.117256e-01	-8.226953e+00
1.870000e-06	1.062389e-07	-6.771270e-11	7.368662e-01	-7.311347e+00
1.880000e-06	1.531325e-07	-5.447740e-11	1.062117e+00	-6.380844e+00
1.890000e-06	2.000576e-07	-3.924004e-11	1.387586e+00	-5.436249e+00
1.900000e-06	2.470069e-07	-2.281120e-11	1.713224e+00	-4.478439e+00
1.910000e-06	2.938397e-07	-9.363114e-12	2.038053e+00	-3.508364e+00
1.920000e-06	3.406580e-07	3.217749e-12	2.362782e+00	-2.527036e+00
1.930000e-06	3.875362e-07	1.133207e-11	2.687925e+00	-1.535531e+00
1.940000e-06	4.343432e-07	2.086036e-11	3.012576e+00	-5.349797e-01
1.950000e-06	4.810950e-07	3.065120e-11	3.336843e+00	4.734363e-01
1.960000e-06	5.278028e-07	4.156588e-11	3.660806e+00	1.488491e+00
1.970000e-06	5.744287e-07	5.414662e-11	3.984200e+00	2.508921e+00
1.980000e-06	6.209726e-07	6.957029e-11	4.307025e+00	3.533430e+00
1.990000e-06	6.675243e-07	8.486201e-11	4.629905e+00	4.560700e+00
2.000000e-06	7.140511e-07	9.859491e-11	4.952611e+00	5.589392e+00
2.010000e-06	7.604904e-07	1.119471e-10	5.274711e+00	6.618160e+00
2.020000e-06	8.068878e-07	1.253358e-10	5.596521e+00	7.645655e+00
2.030000e-06	8.532336e-07	1.375123e-10	5.917972e+00	8.670532e+00
2.040000e-06	8.995991e-07	1.513100e-10	6.239560e+00	9.691458e+00
2.050000e-06	9.459201e-07	1.654158e-10	6.560840e+00	1.070712e+01
2.060000e-06	9.920562e-07	1.784759e-10	6.880836e+00	1.171623e+01
2.070000e-06	1.038094e-06	1.919229e-10	7.200152e+00	1.271754e+01
2.080000e-06	1.084072e-06	2.074398e-10	7.519050e+00	1.370982e+01
2.090000e-06	1.129941e-06	2.231663e-10	7.837196e+00	1.469193e+01
2.100000e-06	1.175753e-06	2.373684e-10	8.154946e+00	1.566273e+01
2.110000e-06	1.221567e-06	2.511209e-10	8.472708e+00	1.662117e+01
2.120000e-06	1.267373e-06	2.638208e-10	8.790417e+00	1.756626e+01
2.130000e-06	1.313041e-06	2.766693e-10	9.107164e+00	1.849707e+01
2.140000e-06	1.358532e-06	2.887768e-10	9.422686e+00	1.941274e+01
2.150000e-06	1.403906e-06	2.999716e-10	9.737399e+00	2.031249e+01
2.160000e-06	1.449121e-06	3.091670e-10	1.005101e+01	2.119561e+01
2.170000e-06	1.494241e-06	3.203731e-10	1.036396e+01	2.206147e+01
2.180000e-06	1.539321e-06	3.329050e-10	1.067663e+01	2.290954e+01
2.190000e-06	1.584274e-06	3.448479e-10	1.098842e+01	2.373934e+01
2.200000e-06	1.629062e-06	3.563883e-10	1.129906e+01	2.455051e+01
2.210000e-06	1.673808e-06	3.684776e-10	1.160942e+01	2.534273e+01
2.220000e-06	1.718473e-06	3.807604e-10	1.191922e+01	2.611579e+01
2.230000e-06	1.762950e-06	3.928568e-10	1.222770e+01	2.686955e+01
2.240000e-06	1.807360e-06	4.024762e-10	1.253573e+01	2.760395e+01
2.250000e-06	1.851679e-06	4.103169e-10	1.284313e+01	2.831901e+01
2.260000e-06	1.895861e-06	4.176312e-10	1.314957e+01	2.901481e+01
2.270000e-06	1.939935e-06	4.256535e-10	1.345526e+01	2.969151e+01
2.280000e-06	1.983903e-06	4.344527e-10	1.376022e+01	3.034933e+01
2.290000e-06	2.027742e-06	4.450981e-10	1.406429e+01	3.098854e+01
2.300000e-06	2.071484e-06	4.559400e-10	1.436768e+01	3.160948e+01
2.310000e-06	2.115177e-06	4.657999e-10	1.467073e+01	3.221254e+01
2.320000e-06	2.158786e-06	4.720221e-10	1.497320e+01	3.279815e+01
2.330000e-06	2.202289e-06	4.759512e-10	1.527493e+01	3.336676e+01
2.340000e-06	2.245674e-06	4.806954e-10	1.557585e+01	3.391890e+01
2.350000e-06	2.288944e-06	4.878724e-10	1.587597e+01	3.445508e+01
2.360000e-06	2.332072e-06	4.963813e-10	1.617510e+01	3.497586e+01
2.370000e-06	2.374970e-06	5.045477e-10	1.647264e+01	3.548182e+01
2.380000e-06	2.417547e-06	5.120506e-10	1.676795e+01	3.597354e+01
2.390000e-06	2.459863e-06	5.204759e-10	1.706145e+01	3.645160e+01
2.400000e-06	2.501937e-06	5.307385e-10	1.735327e+01	3.691659e+01
2.410000e-06	2.543627e-06	5.396445e-10	1.764243e+01	3.736910e+01
2.420000e-06	2.585007e-06	5.467906e-10	1.792944e+01	3.780970e+01
2.430000e-06	2.626109e-06	5.518819e-10	1.821452e+01	3.823895e+01
2.440000e-06	2.666949e-06	5.551663e-10	1.849778e+01	3.865740e+01
2.450000e-06	2.707622e-06	5.590091e-10	1.877988e+01	3.906557e+01
2.460000e-06	2.748071e-06	5.660647e-10	1.906044e+01	3.946395e+01
2.470000e-06	2.788277e-06	5.728480e-10	1.933931e+01	3.985300e+01
2.480000e-06	2.828267e-06	5.789813e-10	1.961667e+01	4.023318e+01
2.490000e-06	2.868060e-06	5.842024e-10	1.989268e+01	4.060488e+01
2.500000e-06	2.907742e-06	5.899772e-10	2.016791e+01	4.096847e+01
2.510000e-06	2.947287e-06	5.959942e-10	2.044219e+01	4.132429e+01
2.520000e-06	2.986638e-06	6.006570e-10	2.071513e+01	4.167263e+01
2.530000e-06	3.025839e-06	6.052178e-10	2.098702e+01	4.201376e+01
2.540000e-06	3.064803e-06	6.092798e-10	2.125727e+01	4.234790e+01
2.550000e-06	3.103537e-06	6.112741e-10	2.152593e+01	4.267523e+01
2.560000e-06	3.142124e-06	6.130036e-10	2.179357e+01	4.299592e+01
2.570000e-06	3.180484e-06	6.169462e-10	2.205963e+01	4.331008e+01
2.580000e-06	3.218627e-06	6.225988e-10	2.232419e+01	4.361780e+01
2.590000e-06	3.256605e-06	6.283831e-10	2.258760e+01	4.391914e+01
2.600000e-06	3.294356e-06	6.321586e-10	2.284943e+01	4.421413e+01
2.610000e-06	3.331891e-06	6.344836e-10	2.310978e+01	4.450278e+01
2.620000e-06	3.369193e-06	6.376514e-10	2.336850e+01	4.478506e+01
2.630000e-06	3.406248e-06	6.403138e-10	2.362551e+01	4.506095e+01
2.640000e-06	3.443065e-06	6.407094e-10	2.388087e+01	4.533038e+01
2.650000e-06	3.479603e-06	6.406905e-10	2.413430e+01	4.559330e+01
2.660000e-06	3.515919e-06	6.433282e-10	2.438618e+01	4.584962e+01
2.670000e-06	3.552006e-06	6.482665e-10	2.463648e+01	4.609927e+01
2.680000e-06	3.587896e-06	6.541083e-10	2.488541e+01	4.634216e+01
2.690000e-06	3.623654e-06	6.595785e-10	2.513343e+01	4.657820e+01
2.700000e-06	3.659286e-06	6.638259e-10	2.538057e+01	4.680731e+01
2.710000e-06	3.694784e-06	6.668604e-10	2.562678e+01	4.702940e+01
2.720000e-06	3.730120e-06	6.680106e-10	2.587187e+01	4.724442e+01
2.730000e-06	3.765214e-06	6.700681e-10	2.611528e+01	4.745229e+01
2.740000e-06	3.799920e-06	6.723350e-10	2.635599e+01	4.765298e+01
2.750000e-06	3.834267e-06	6.739299e-10	2.659422e+01	4.784644e+01
2.760000e-06	3.868216e-06	6.771006e-10	2.682969e+01	4.803267e+01
2.770000e-06	3.901715e-06	6.810700e-10	2.706204e+01	4.821167e+01
2.780000e-06	3.934689e-06	6.854362e-10	2.729074e+01	4.838345e+01
2.790000e-06	3.967167e-06	6.903179e-10	2.751601e+01	4.854807e+01
2.800000e-06	3.999374e-06	6.948832e-10	2.773940e+01	4.870559e+01
2.810000e-06	4.031370e-06	6.993952e-10	2.796132e+01	4.885609e+01
2.820000e-06	4.063157e-06	7.027950e-10	2.818179e+01	4.899968e+01
2.830000e-06	4.094730e-06	7.052655e-10	2.840078e+01	4.913648e+01
2.840000e-06	4.126137e-06	7.061499e-10	2.861861e+01	4.926665e+01
2.850000e-06	4.157344e-06	7.056053e-10	2.883506e+01	4.939035e+01
2.860000e-06	4.188224e-06	7.073910e-10	2.904924e+01	4.950777e+01
2.870000e-06	4.218829e-06	7.110183e-10	2.926152e+01	4.961911e+01
2.880000e-06	4.249158e-06	7.131104e-10	2.947188e+01	4.972459e+01
2.890000e-06	4.279087e-06	7.155587e-10	2.967947e+01	4.982444e+01
2.900000e-06	4.308692e-06	7.187083e-10	2.988481e+01	4.991891e+01
