# Temperatura_=_11.3
# Concentracion g/m^3_=_1620.0
# C_Vs_to_Am_M_A/Vsm_=_65563218390.804596
# pendiente_HvsI_1/m_=_3716.3
# ordenada_HvsI_A/m_=_1297.0
# frecuencia_Hz_=_135103.7123715616

Tiempo_(s)	Campo_(V.s)	Magnetizacion_(V.s)	Campo_(kA/m)	Magnetizacion_(A/m)
0.000000e+00	-5.558450e-06	-7.638344e-10	-3.837466e+01	-5.102476e+01
1.000000e-08	-5.558531e-06	-7.625817e-10	-3.837522e+01	-5.098406e+01
2.000000e-08	-5.558365e-06	-7.658319e-10	-3.837408e+01	-5.094337e+01
3.000000e-08	-5.557749e-06	-7.683105e-10	-3.836982e+01	-5.090287e+01
4.000000e-08	-5.556512e-06	-7.659120e-10	-3.836128e+01	-5.086272e+01
5.000000e-08	-5.554688e-06	-7.587259e-10	-3.834869e+01	-5.082308e+01
6.000000e-08	-5.552243e-06	-7.397618e-10	-3.833181e+01	-5.078411e+01
7.000000e-08	-5.549225e-06	-7.325793e-10	-3.831098e+01	-5.074597e+01
8.000000e-08	-5.545783e-06	-7.710738e-10	-3.828721e+01	-5.070880e+01
9.000000e-08	-5.541898e-06	-8.150218e-10	-3.826039e+01	-5.067276e+01
1.000000e-07	-5.537586e-06	-7.705093e-10	-3.823063e+01	-5.063797e+01
1.100000e-07	-5.533044e-06	-7.152500e-10	-3.819927e+01	-5.060455e+01
1.200000e-07	-5.528268e-06	-7.148936e-10	-3.816630e+01	-5.057263e+01
1.300000e-07	-5.523133e-06	-7.965963e-10	-3.813084e+01	-5.054229e+01
1.400000e-07	-5.517593e-06	-7.599090e-10	-3.809260e+01	-5.051363e+01
1.500000e-07	-5.511825e-06	-7.062525e-10	-3.805278e+01	-5.048672e+01
1.600000e-07	-5.505781e-06	-7.181917e-10	-3.801105e+01	-5.046161e+01
1.700000e-07	-5.499206e-06	-7.913982e-10	-3.796565e+01	-5.043834e+01
1.800000e-07	-5.492122e-06	-7.844544e-10	-3.791675e+01	-5.041693e+01
1.900000e-07	-5.484769e-06	-7.125680e-10	-3.786598e+01	-5.039738e+01
2.000000e-07	-5.477243e-06	-7.235420e-10	-3.781403e+01	-5.037967e+01
2.100000e-07	-5.469446e-06	-7.636597e-10	-3.776020e+01	-5.036376e+01
2.200000e-07	-5.461299e-06	-7.835729e-10	-3.770395e+01	-5.034960e+01
2.300000e-07	-5.452803e-06	-7.383390e-10	-3.764530e+01	-5.033710e+01
2.400000e-07	-5.443737e-06	-7.458386e-10	-3.758270e+01	-5.032615e+01
2.500000e-07	-5.433847e-06	-7.553025e-10	-3.751443e+01	-5.031663e+01
2.600000e-07	-5.423313e-06	-7.791182e-10	-3.744170e+01	-5.030839e+01
2.700000e-07	-5.412342e-06	-7.598638e-10	-3.736596e+01	-5.030127e+01
2.800000e-07	-5.400922e-06	-7.758875e-10	-3.728712e+01	-5.029508e+01
2.900000e-07	-5.389019e-06	-7.788347e-10	-3.720494e+01	-5.028960e+01
3.000000e-07	-5.376752e-06	-7.992972e-10	-3.712025e+01	-5.028461e+01
3.100000e-07	-5.364142e-06	-7.775977e-10	-3.703320e+01	-5.027985e+01
3.200000e-07	-5.351095e-06	-7.719906e-10	-3.694312e+01	-5.027507e+01
3.300000e-07	-5.337685e-06	-7.784196e-10	-3.685054e+01	-5.026999e+01
3.400000e-07	-5.324007e-06	-7.887457e-10	-3.675611e+01	-5.026431e+01
3.500000e-07	-5.309895e-06	-7.648562e-10	-3.665868e+01	-5.025773e+01
3.600000e-07	-5.295114e-06	-7.637063e-10	-3.655664e+01	-5.024992e+01
3.700000e-07	-5.279768e-06	-7.823893e-10	-3.645069e+01	-5.024058e+01
3.800000e-07	-5.264027e-06	-7.730491e-10	-3.634202e+01	-5.022936e+01
3.900000e-07	-5.247813e-06	-7.599880e-10	-3.623008e+01	-5.021594e+01
4.000000e-07	-5.231127e-06	-7.810536e-10	-3.611488e+01	-5.019999e+01
4.100000e-07	-5.214109e-06	-7.843178e-10	-3.599739e+01	-5.018116e+01
4.200000e-07	-5.196811e-06	-7.448959e-10	-3.587797e+01	-5.015914e+01
4.300000e-07	-5.179250e-06	-7.656014e-10	-3.575673e+01	-5.013361e+01
4.400000e-07	-5.161388e-06	-7.933482e-10	-3.563342e+01	-5.010426e+01
4.500000e-07	-5.143050e-06	-7.647148e-10	-3.550681e+01	-5.007079e+01
4.600000e-07	-5.124210e-06	-7.332237e-10	-3.537674e+01	-5.003292e+01
4.700000e-07	-5.105065e-06	-7.766732e-10	-3.524457e+01	-4.999039e+01
4.800000e-07	-5.085667e-06	-7.718086e-10	-3.511065e+01	-4.994295e+01
4.900000e-07	-5.066072e-06	-7.439321e-10	-3.497537e+01	-4.989040e+01
5.000000e-07	-5.046275e-06	-7.550962e-10	-3.483869e+01	-4.983252e+01
5.100000e-07	-5.026131e-06	-7.730705e-10	-3.469962e+01	-4.976917e+01
5.200000e-07	-5.005647e-06	-7.301492e-10	-3.455820e+01	-4.970019e+01
5.300000e-07	-4.984835e-06	-7.418499e-10	-3.441452e+01	-4.962548e+01
5.400000e-07	-4.963663e-06	-7.693068e-10	-3.426835e+01	-4.954498e+01
5.500000e-07	-4.942082e-06	-7.453848e-10	-3.411936e+01	-4.945864e+01
5.600000e-07	-4.920159e-06	-7.181798e-10	-3.396800e+01	-4.936645e+01
5.700000e-07	-4.897924e-06	-7.513566e-10	-3.381450e+01	-4.926844e+01
5.800000e-07	-4.875255e-06	-7.422081e-10	-3.365799e+01	-4.916468e+01
5.900000e-07	-4.852257e-06	-7.148959e-10	-3.349922e+01	-4.905527e+01
6.000000e-07	-4.828988e-06	-7.300198e-10	-3.333858e+01	-4.894034e+01
6.100000e-07	-4.805420e-06	-7.462171e-10	-3.317586e+01	-4.882006e+01
6.200000e-07	-4.781661e-06	-7.154121e-10	-3.301184e+01	-4.869464e+01
6.300000e-07	-4.757680e-06	-7.122309e-10	-3.284627e+01	-4.856431e+01
6.400000e-07	-4.733415e-06	-7.277415e-10	-3.267875e+01	-4.842933e+01
6.500000e-07	-4.708791e-06	-7.134128e-10	-3.250876e+01	-4.829000e+01
6.600000e-07	-4.683644e-06	-7.064349e-10	-3.233514e+01	-4.814663e+01
6.700000e-07	-4.657783e-06	-7.230443e-10	-3.215660e+01	-4.799957e+01
6.800000e-07	-4.631329e-06	-7.154397e-10	-3.197397e+01	-4.784918e+01
6.900000e-07	-4.604500e-06	-6.991609e-10	-3.178875e+01	-4.769583e+01
7.000000e-07	-4.577304e-06	-7.078177e-10	-3.160099e+01	-4.753993e+01
7.100000e-07	-4.549852e-06	-7.031989e-10	-3.141147e+01	-4.738188e+01
7.200000e-07	-4.522227e-06	-6.883466e-10	-3.122075e+01	-4.722208e+01
7.300000e-07	-4.494393e-06	-6.910159e-10	-3.102859e+01	-4.706095e+01
7.400000e-07	-4.466269e-06	-7.050847e-10	-3.083442e+01	-4.689890e+01
7.500000e-07	-4.437889e-06	-6.965069e-10	-3.063849e+01	-4.673634e+01
7.600000e-07	-4.409275e-06	-6.938585e-10	-3.044094e+01	-4.657367e+01
7.700000e-07	-4.380271e-06	-6.915488e-10	-3.024070e+01	-4.641128e+01
7.800000e-07	-4.350888e-06	-6.835755e-10	-3.003785e+01	-4.624953e+01
7.900000e-07	-4.321308e-06	-6.749231e-10	-2.983363e+01	-4.608877e+01
8.000000e-07	-4.291430e-06	-6.828803e-10	-2.962736e+01	-4.592934e+01
8.100000e-07	-4.261114e-06	-6.798184e-10	-2.941806e+01	-4.577151e+01
8.200000e-07	-4.230460e-06	-6.786873e-10	-2.920643e+01	-4.561557e+01
8.300000e-07	-4.199576e-06	-6.809891e-10	-2.899321e+01	-4.546174e+01
8.400000e-07	-4.168438e-06	-6.808918e-10	-2.877824e+01	-4.531022e+01
8.500000e-07	-4.137064e-06	-6.694268e-10	-2.856164e+01	-4.516116e+01
8.600000e-07	-4.105491e-06	-6.679034e-10	-2.834366e+01	-4.501468e+01
8.700000e-07	-4.073723e-06	-6.659467e-10	-2.812435e+01	-4.487085e+01
8.800000e-07	-4.041822e-06	-6.620555e-10	-2.790410e+01	-4.472971e+01
8.900000e-07	-4.009663e-06	-6.593120e-10	-2.768209e+01	-4.459122e+01
9.000000e-07	-3.977132e-06	-6.614626e-10	-2.745750e+01	-4.445534e+01
9.100000e-07	-3.944234e-06	-6.557192e-10	-2.723038e+01	-4.432196e+01
9.200000e-07	-3.910943e-06	-6.513645e-10	-2.700054e+01	-4.419091e+01
9.300000e-07	-3.877240e-06	-6.511992e-10	-2.676785e+01	-4.406201e+01
9.400000e-07	-3.843109e-06	-6.486320e-10	-2.653222e+01	-4.393502e+01
9.500000e-07	-3.808508e-06	-6.439984e-10	-2.629334e+01	-4.380965e+01
9.600000e-07	-3.773482e-06	-6.448154e-10	-2.605153e+01	-4.368559e+01
9.700000e-07	-3.738225e-06	-6.457234e-10	-2.580812e+01	-4.356247e+01
9.800000e-07	-3.702755e-06	-6.405060e-10	-2.556324e+01	-4.343991e+01
9.900000e-07	-3.667065e-06	-6.394461e-10	-2.531684e+01	-4.331749e+01
1.000000e-06	-3.631286e-06	-6.389120e-10	-2.506983e+01	-4.319476e+01
1.010000e-06	-3.595357e-06	-6.351158e-10	-2.482178e+01	-4.307124e+01
1.020000e-06	-3.559204e-06	-6.298376e-10	-2.457219e+01	-4.294646e+01
1.030000e-06	-3.522828e-06	-6.297151e-10	-2.432105e+01	-4.281989e+01
1.040000e-06	-3.486131e-06	-6.252809e-10	-2.406770e+01	-4.269103e+01
1.050000e-06	-3.449069e-06	-6.200488e-10	-2.381183e+01	-4.255935e+01
1.060000e-06	-3.411801e-06	-6.161102e-10	-2.355454e+01	-4.242434e+01
1.070000e-06	-3.374438e-06	-6.151952e-10	-2.329659e+01	-4.228547e+01
1.080000e-06	-3.336923e-06	-6.113573e-10	-2.303759e+01	-4.214224e+01
1.090000e-06	-3.299163e-06	-6.119089e-10	-2.277691e+01	-4.199414e+01
1.100000e-06	-3.261073e-06	-6.104016e-10	-2.251393e+01	-4.184069e+01
1.110000e-06	-3.222710e-06	-6.064613e-10	-2.224909e+01	-4.168143e+01
1.120000e-06	-3.184140e-06	-5.997891e-10	-2.198281e+01	-4.151593e+01
1.130000e-06	-3.145270e-06	-5.962863e-10	-2.171445e+01	-4.134378e+01
1.140000e-06	-3.106170e-06	-5.890510e-10	-2.144451e+01	-4.116461e+01
1.150000e-06	-3.066956e-06	-5.819260e-10	-2.117378e+01	-4.097808e+01
1.160000e-06	-3.027560e-06	-5.792981e-10	-2.090180e+01	-4.078389e+01
1.170000e-06	-2.988004e-06	-5.797319e-10	-2.062871e+01	-4.058177e+01
1.180000e-06	-2.948363e-06	-5.761976e-10	-2.035504e+01	-4.037152e+01
1.190000e-06	-2.908621e-06	-5.749735e-10	-2.008066e+01	-4.015295e+01
1.200000e-06	-2.868733e-06	-5.754270e-10	-1.980528e+01	-3.992594e+01
1.210000e-06	-2.828667e-06	-5.718967e-10	-1.952868e+01	-3.969041e+01
1.220000e-06	-2.788489e-06	-5.650911e-10	-1.925129e+01	-3.944631e+01
1.230000e-06	-2.748152e-06	-5.607869e-10	-1.897281e+01	-3.919364e+01
1.240000e-06	-2.707464e-06	-5.560365e-10	-1.869191e+01	-3.893246e+01
1.250000e-06	-2.666462e-06	-5.500866e-10	-1.840884e+01	-3.866285e+01
1.260000e-06	-2.625200e-06	-5.491869e-10	-1.812397e+01	-3.838493e+01
1.270000e-06	-2.583667e-06	-5.497963e-10	-1.783723e+01	-3.809888e+01
1.280000e-06	-2.541700e-06	-5.467400e-10	-1.754750e+01	-3.780488e+01
1.290000e-06	-2.499314e-06	-5.400385e-10	-1.725487e+01	-3.750316e+01
1.300000e-06	-2.456764e-06	-5.338778e-10	-1.696112e+01	-3.719398e+01
1.310000e-06	-2.414040e-06	-5.270641e-10	-1.666615e+01	-3.687760e+01
1.320000e-06	-2.371011e-06	-5.208193e-10	-1.636909e+01	-3.655431e+01
1.330000e-06	-2.327704e-06	-5.182327e-10	-1.607010e+01	-3.622442e+01
1.340000e-06	-2.284274e-06	-5.163889e-10	-1.577027e+01	-3.588823e+01
1.350000e-06	-2.240741e-06	-5.097485e-10	-1.546973e+01	-3.554604e+01
1.360000e-06	-2.197094e-06	-5.048962e-10	-1.516839e+01	-3.519818e+01
1.370000e-06	-2.153353e-06	-5.022019e-10	-1.486641e+01	-3.484492e+01
1.380000e-06	-2.109555e-06	-4.987057e-10	-1.456404e+01	-3.448656e+01
1.390000e-06	-2.065729e-06	-4.932416e-10	-1.426147e+01	-3.412336e+01
1.400000e-06	-2.021808e-06	-4.896282e-10	-1.395825e+01	-3.375555e+01
1.410000e-06	-1.977791e-06	-4.820424e-10	-1.365436e+01	-3.338334e+01
1.420000e-06	-1.933707e-06	-4.736321e-10	-1.335001e+01	-3.300690e+01
1.430000e-06	-1.889479e-06	-4.674789e-10	-1.304466e+01	-3.262638e+01
1.440000e-06	-1.845090e-06	-4.630209e-10	-1.273821e+01	-3.224186e+01
1.450000e-06	-1.800588e-06	-4.574896e-10	-1.243098e+01	-3.185338e+01
1.460000e-06	-1.755924e-06	-4.516123e-10	-1.212262e+01	-3.146095e+01
1.470000e-06	-1.711101e-06	-4.461020e-10	-1.181317e+01	-3.106450e+01
1.480000e-06	-1.666086e-06	-4.399577e-10	-1.150239e+01	-3.066394e+01
1.490000e-06	-1.620859e-06	-4.336506e-10	-1.119015e+01	-3.025909e+01
1.500000e-06	-1.575476e-06	-4.282686e-10	-1.087684e+01	-2.984973e+01
1.510000e-06	-1.529999e-06	-4.221761e-10	-1.056287e+01	-2.943558e+01
1.520000e-06	-1.484467e-06	-4.138288e-10	-1.024853e+01	-2.901632e+01
1.530000e-06	-1.438841e-06	-4.037203e-10	-9.933532e+00	-2.859154e+01
1.540000e-06	-1.393068e-06	-3.969057e-10	-9.617520e+00	-2.816080e+01
1.550000e-06	-1.347243e-06	-3.910392e-10	-9.301152e+00	-2.772361e+01
1.560000e-06	-1.301502e-06	-3.840161e-10	-8.985368e+00	-2.727942e+01
1.570000e-06	-1.255644e-06	-3.771072e-10	-8.668767e+00	-2.682764e+01
1.580000e-06	-1.209532e-06	-3.700055e-10	-8.350418e+00	-2.636765e+01
1.590000e-06	-1.163410e-06	-3.617843e-10	-8.032003e+00	-2.589877e+01
1.600000e-06	-1.117306e-06	-3.546559e-10	-7.713707e+00	-2.542030e+01
1.610000e-06	-1.071041e-06	-3.480771e-10	-7.394299e+00	-2.493153e+01
1.620000e-06	-1.024640e-06	-3.385283e-10	-7.073951e+00	-2.443170e+01
1.630000e-06	-9.781460e-07	-3.287496e-10	-6.752967e+00	-2.392007e+01
1.640000e-06	-9.315918e-07	-3.186449e-10	-6.431564e+00	-2.339586e+01
1.650000e-06	-8.850613e-07	-3.096739e-10	-6.110324e+00	-2.285832e+01
1.660000e-06	-8.385559e-07	-3.001705e-10	-5.789259e+00	-2.230669e+01
1.670000e-06	-7.918912e-07	-2.925625e-10	-5.467092e+00	-2.174024e+01
1.680000e-06	-7.449824e-07	-2.850012e-10	-5.143242e+00	-2.115824e+01
1.690000e-06	-6.979719e-07	-2.791728e-10	-4.818688e+00	-2.056002e+01
1.700000e-06	-6.510717e-07	-2.713800e-10	-4.494897e+00	-1.994493e+01
1.710000e-06	-6.042871e-07	-2.609858e-10	-4.171903e+00	-1.931237e+01
1.720000e-06	-5.574038e-07	-2.500394e-10	-3.848228e+00	-1.866178e+01
1.730000e-06	-5.104056e-07	-2.387081e-10	-3.523760e+00	-1.799269e+01
1.740000e-06	-4.633962e-07	-2.271376e-10	-3.199215e+00	-1.730466e+01
1.750000e-06	-4.163172e-07	-2.166594e-10	-2.874189e+00	-1.659734e+01
1.760000e-06	-3.691765e-07	-2.066726e-10	-2.548737e+00	-1.587047e+01
1.770000e-06	-3.220257e-07	-1.967182e-10	-2.223215e+00	-1.512384e+01
1.780000e-06	-2.748628e-07	-1.874026e-10	-1.897610e+00	-1.435735e+01
1.790000e-06	-2.276714e-07	-1.752616e-10	-1.571807e+00	-1.357098e+01
1.800000e-06	-1.804104e-07	-1.604409e-10	-1.245525e+00	-1.276482e+01
1.810000e-06	-1.331662e-07	-1.476131e-10	-9.193588e-01	-1.193904e+01
1.820000e-06	-8.591614e-08	-1.358406e-10	-5.931515e-01	-1.109390e+01
1.830000e-06	-3.863578e-08	-1.233687e-10	-2.667354e-01	-1.022979e+01
1.840000e-06	8.585101e-09	-1.092282e-10	5.927019e-02	-9.347178e+00
1.850000e-06	5.575464e-08	-9.770296e-11	3.849213e-01	-8.446627e+00
1.860000e-06	1.029158e-07	-8.545757e-11	7.105143e-01	-7.528809e+00
1.870000e-06	1.500440e-07	-7.145569e-11	1.035880e+00	-6.594485e+00
1.880000e-06	1.971490e-07	-5.882254e-11	1.361086e+00	-5.644512e+00
1.890000e-06	2.442854e-07	-4.707585e-11	1.686508e+00	-4.679835e+00
1.900000e-06	2.914740e-07	-3.665716e-11	2.012291e+00	-3.701482e+00
1.910000e-06	3.386299e-07	-2.470697e-11	2.337848e+00	-2.710563e+00
1.920000e-06	3.857012e-07	-1.123625e-11	2.662821e+00	-1.708261e+00
1.930000e-06	4.328259e-07	4.977860e-12	2.988162e+00	-6.958269e-01
1.940000e-06	4.799184e-07	1.972995e-11	3.313281e+00	3.254259e-01
1.950000e-06	5.268892e-07	3.129556e-11	3.637560e+00	1.354131e+00
1.960000e-06	5.738048e-07	4.125384e-11	3.961458e+00	2.388876e+00
1.970000e-06	6.207406e-07	5.457098e-11	4.285495e+00	3.428209e+00
1.980000e-06	6.675831e-07	6.825117e-11	4.608889e+00	4.470650e+00
1.990000e-06	7.141970e-07	8.302612e-11	4.930704e+00	5.514695e+00
2.000000e-06	7.607262e-07	9.814295e-11	5.251934e+00	6.558828e+00
2.010000e-06	8.072440e-07	1.129693e-10	5.573086e+00	7.601531e+00
2.020000e-06	8.537618e-07	1.267320e-10	5.894238e+00	8.641290e+00
2.030000e-06	9.004112e-07	1.411725e-10	6.216298e+00	9.676602e+00
2.040000e-06	9.469656e-07	1.559257e-10	6.537702e+00	1.070599e+01
2.050000e-06	9.933303e-07	1.702737e-10	6.857796e+00	1.172800e+01
2.060000e-06	1.039628e-06	1.842582e-10	7.177431e+00	1.274124e+01
2.070000e-06	1.085801e-06	1.977601e-10	7.496198e+00	1.374433e+01
2.080000e-06	1.131900e-06	2.098189e-10	7.814458e+00	1.473597e+01
2.090000e-06	1.177885e-06	2.232449e-10	8.131937e+00	1.571490e+01
2.100000e-06	1.223774e-06	2.384124e-10	8.448742e+00	1.667996e+01
2.110000e-06	1.269595e-06	2.518642e-10	8.765085e+00	1.763003e+01
2.120000e-06	1.315336e-06	2.640845e-10	9.080871e+00	1.856409e+01
2.130000e-06	1.361005e-06	2.746555e-10	9.396166e+00	1.948119e+01
2.140000e-06	1.406609e-06	2.842045e-10	9.711009e+00	2.038047e+01
2.150000e-06	1.452103e-06	2.955937e-10	1.002509e+01	2.126117e+01
2.160000e-06	1.497505e-06	3.095599e-10	1.033854e+01	2.212262e+01
2.170000e-06	1.542828e-06	3.223648e-10	1.065145e+01	2.296424e+01
2.180000e-06	1.588020e-06	3.334877e-10	1.096344e+01	2.378554e+01
2.190000e-06	1.633129e-06	3.441701e-10	1.127487e+01	2.458614e+01
2.200000e-06	1.678170e-06	3.540957e-10	1.158582e+01	2.536575e+01
2.210000e-06	1.723058e-06	3.632913e-10	1.189572e+01	2.612417e+01
2.220000e-06	1.767759e-06	3.741184e-10	1.220433e+01	2.686132e+01
2.230000e-06	1.812266e-06	3.846796e-10	1.251160e+01	2.757717e+01
2.240000e-06	1.856661e-06	3.940340e-10	1.281810e+01	2.827181e+01
2.250000e-06	1.901030e-06	4.017429e-10	1.312441e+01	2.894540e+01
2.260000e-06	1.945210e-06	4.100190e-10	1.342943e+01	2.959818e+01
2.270000e-06	1.989161e-06	4.191646e-10	1.373286e+01	3.023048e+01
2.280000e-06	2.033052e-06	4.283965e-10	1.403587e+01	3.084268e+01
2.290000e-06	2.076902e-06	4.353492e-10	1.433860e+01	3.143523e+01
2.300000e-06	2.120654e-06	4.426946e-10	1.464066e+01	3.200866e+01
2.310000e-06	2.164322e-06	4.511897e-10	1.494214e+01	3.256353e+01
2.320000e-06	2.207964e-06	4.579932e-10	1.524344e+01	3.310045e+01
2.330000e-06	2.251555e-06	4.638008e-10	1.554438e+01	3.362007e+01
2.340000e-06	2.295029e-06	4.709069e-10	1.584452e+01	3.412309e+01
2.350000e-06	2.338329e-06	4.778748e-10	1.614346e+01	3.461021e+01
2.360000e-06	2.381499e-06	4.854248e-10	1.644150e+01	3.508218e+01
2.370000e-06	2.424549e-06	4.915558e-10	1.673871e+01	3.553972e+01
2.380000e-06	2.467314e-06	4.971807e-10	1.703395e+01	3.598361e+01
2.390000e-06	2.509668e-06	5.032918e-10	1.732635e+01	3.641458e+01
2.400000e-06	2.551750e-06	5.074399e-10	1.761688e+01	3.683340e+01
2.410000e-06	2.593640e-06	5.127768e-10	1.790608e+01	3.724079e+01
2.420000e-06	2.635120e-06	5.197627e-10	1.819245e+01	3.763748e+01
2.430000e-06	2.676220e-06	5.288107e-10	1.847620e+01	3.802416e+01
2.440000e-06	2.717043e-06	5.372087e-10	1.875804e+01	3.840151e+01
2.450000e-06	2.757583e-06	5.459752e-10	1.903792e+01	3.877016e+01
2.460000e-06	2.797959e-06	5.529546e-10	1.931667e+01	3.913071e+01
2.470000e-06	2.838133e-06	5.566534e-10	1.959402e+01	3.948375e+01
2.480000e-06	2.878102e-06	5.567816e-10	1.986996e+01	3.982979e+01
2.490000e-06	2.917979e-06	5.586321e-10	2.014527e+01	4.016931e+01
2.500000e-06	2.957759e-06	5.633497e-10	2.041991e+01	4.050276e+01
2.510000e-06	2.997441e-06	5.713766e-10	2.069386e+01	4.083053e+01
2.520000e-06	3.036917e-06	5.793266e-10	2.096640e+01	4.115295e+01
2.530000e-06	3.076195e-06	5.857334e-10	2.123757e+01	4.147034e+01
2.540000e-06	3.115290e-06	5.884532e-10	2.150748e+01	4.178293e+01
2.550000e-06	3.154197e-06	5.892094e-10	2.177608e+01	4.209093e+01
2.560000e-06	3.192839e-06	5.919639e-10	2.204286e+01	4.239451e+01
2.570000e-06	3.231132e-06	5.959635e-10	2.230723e+01	4.269377e+01
2.580000e-06	3.269184e-06	6.005107e-10	2.256993e+01	4.298880e+01
2.590000e-06	3.307023e-06	6.040012e-10	2.283117e+01	4.327961e+01
2.600000e-06	3.344675e-06	6.080436e-10	2.309111e+01	4.356622e+01
2.610000e-06	3.382140e-06	6.131263e-10	2.334977e+01	4.384858e+01
2.620000e-06	3.419367e-06	6.197143e-10	2.360677e+01	4.412662e+01
2.630000e-06	3.456298e-06	6.261240e-10	2.386174e+01	4.440026e+01
2.640000e-06	3.493000e-06	6.310716e-10	2.411512e+01	4.466936e+01
2.650000e-06	3.529431e-06	6.349642e-10	2.436664e+01	4.493380e+01
2.660000e-06	3.565553e-06	6.368601e-10	2.461602e+01	4.519341e+01
2.670000e-06	3.601502e-06	6.356929e-10	2.486421e+01	4.544803e+01
2.680000e-06	3.637332e-06	6.363358e-10	2.511157e+01	4.569747e+01
2.690000e-06	3.673074e-06	6.390367e-10	2.535833e+01	4.594156e+01
2.700000e-06	3.708695e-06	6.456049e-10	2.560425e+01	4.618010e+01
2.710000e-06	3.744148e-06	6.519903e-10	2.584901e+01	4.641290e+01
2.720000e-06	3.779344e-06	6.589013e-10	2.609200e+01	4.663980e+01
2.730000e-06	3.814271e-06	6.649118e-10	2.633313e+01	4.686062e+01
2.740000e-06	3.848911e-06	6.672909e-10	2.657228e+01	4.707519e+01
2.750000e-06	3.883061e-06	6.667642e-10	2.680804e+01	4.728338e+01
2.760000e-06	3.916599e-06	6.663407e-10	2.703958e+01	4.748503e+01
2.770000e-06	3.949631e-06	6.697532e-10	2.726763e+01	4.768005e+01
2.780000e-06	3.982348e-06	6.758933e-10	2.749351e+01	4.786834e+01
2.790000e-06	4.014720e-06	6.811609e-10	2.771700e+01	4.804983e+01
2.800000e-06	4.046749e-06	6.859318e-10	2.793812e+01	4.822446e+01
2.810000e-06	4.078627e-06	6.889822e-10	2.815820e+01	4.839221e+01
2.820000e-06	4.110418e-06	6.891202e-10	2.837768e+01	4.855309e+01
2.830000e-06	4.142010e-06	6.880709e-10	2.859578e+01	4.870710e+01
2.840000e-06	4.173361e-06	6.891420e-10	2.881223e+01	4.885431e+01
2.850000e-06	4.204423e-06	6.926051e-10	2.902668e+01	4.899479e+01
2.860000e-06	4.235086e-06	6.959546e-10	2.923837e+01	4.912863e+01
2.870000e-06	4.265421e-06	6.995446e-10	2.944780e+01	4.925596e+01
2.880000e-06	4.295494e-06	7.033467e-10	2.965541e+01	4.937692e+01
2.890000e-06	4.325299e-06	7.049726e-10	2.986119e+01	4.949167e+01
2.900000e-06	4.354865e-06	7.064334e-10	3.006530e+01	4.960039e+01
