# Temperatura_=_-0.28
# Concentracion g/m^3_=_1620.0
# C_Vs_to_Am_M_A/Vsm_=_65563218390.804596
# pendiente_HvsI_1/m_=_3716.3
# ordenada_HvsI_A/m_=_1297.0
# frecuencia_Hz_=_135108.50228471038

Tiempo_(s)	Campo_(V.s)	Magnetizacion_(V.s)	Campo_(kA/m)	Magnetizacion_(A/m)
0.000000e+00	-5.502178e-06	-1.240098e-09	-3.836712e+01	-7.986020e+01
1.000000e-08	-5.502500e-06	-1.240257e-09	-3.836937e+01	-7.988958e+01
2.000000e-08	-5.502603e-06	-1.240484e-09	-3.837008e+01	-7.991618e+01
3.000000e-08	-5.502423e-06	-1.240847e-09	-3.836883e+01	-7.993969e+01
4.000000e-08	-5.501819e-06	-1.238351e-09	-3.836462e+01	-7.995985e+01
5.000000e-08	-5.500615e-06	-1.235476e-09	-3.835622e+01	-7.997635e+01
6.000000e-08	-5.498868e-06	-1.236462e-09	-3.834404e+01	-7.998893e+01
7.000000e-08	-5.496534e-06	-1.226850e-09	-3.832776e+01	-7.999734e+01
8.000000e-08	-5.493593e-06	-1.196010e-09	-3.830726e+01	-8.000132e+01
9.000000e-08	-5.490178e-06	-1.195319e-09	-3.828345e+01	-8.000065e+01
1.000000e-07	-5.486324e-06	-1.276959e-09	-3.825657e+01	-7.999512e+01
1.100000e-07	-5.482098e-06	-1.305460e-09	-3.822710e+01	-7.998455e+01
1.200000e-07	-5.477608e-06	-1.219037e-09	-3.819580e+01	-7.996879e+01
1.300000e-07	-5.472923e-06	-1.122579e-09	-3.816312e+01	-7.994770e+01
1.400000e-07	-5.467911e-06	-1.196758e-09	-3.812817e+01	-7.992118e+01
1.500000e-07	-5.462460e-06	-1.265256e-09	-3.809016e+01	-7.988915e+01
1.600000e-07	-5.456642e-06	-1.210802e-09	-3.804959e+01	-7.985159e+01
1.700000e-07	-5.450489e-06	-1.148018e-09	-3.800669e+01	-7.980848e+01
1.800000e-07	-5.443936e-06	-1.224366e-09	-3.796100e+01	-7.975985e+01
1.900000e-07	-5.436982e-06	-1.307851e-09	-3.791251e+01	-7.970574e+01
2.000000e-07	-5.429636e-06	-1.237519e-09	-3.786128e+01	-7.964626e+01
2.100000e-07	-5.421975e-06	-1.149442e-09	-3.780786e+01	-7.958152e+01
2.200000e-07	-5.414054e-06	-1.167620e-09	-3.775262e+01	-7.951167e+01
2.300000e-07	-5.405886e-06	-1.247499e-09	-3.769567e+01	-7.943688e+01
2.400000e-07	-5.397422e-06	-1.233472e-09	-3.763665e+01	-7.935737e+01
2.500000e-07	-5.388443e-06	-1.196893e-09	-3.757404e+01	-7.927337e+01
2.600000e-07	-5.378708e-06	-1.186681e-09	-3.750615e+01	-7.918512e+01
2.700000e-07	-5.368302e-06	-1.210345e-09	-3.743359e+01	-7.909291e+01
2.800000e-07	-5.357431e-06	-1.166395e-09	-3.735778e+01	-7.899701e+01
2.900000e-07	-5.346076e-06	-1.145746e-09	-3.727861e+01	-7.889774e+01
3.000000e-07	-5.334312e-06	-1.170190e-09	-3.719658e+01	-7.879540e+01
3.100000e-07	-5.322226e-06	-1.203127e-09	-3.711230e+01	-7.869032e+01
3.200000e-07	-5.309725e-06	-1.174618e-09	-3.702513e+01	-7.858282e+01
3.300000e-07	-5.296704e-06	-1.150188e-09	-3.693434e+01	-7.847323e+01
3.400000e-07	-5.283282e-06	-1.159956e-09	-3.684074e+01	-7.836185e+01
3.500000e-07	-5.269581e-06	-1.176684e-09	-3.674520e+01	-7.824901e+01
3.600000e-07	-5.255489e-06	-1.145588e-09	-3.664694e+01	-7.813501e+01
3.700000e-07	-5.240991e-06	-1.133848e-09	-3.654584e+01	-7.802012e+01
3.800000e-07	-5.226071e-06	-1.177593e-09	-3.644181e+01	-7.790462e+01
3.900000e-07	-5.210518e-06	-1.190621e-09	-3.633335e+01	-7.778875e+01
4.000000e-07	-5.194276e-06	-1.143608e-09	-3.622010e+01	-7.767274e+01
4.100000e-07	-5.177645e-06	-1.151046e-09	-3.610413e+01	-7.755677e+01
4.200000e-07	-5.160865e-06	-1.201053e-09	-3.598712e+01	-7.744102e+01
4.300000e-07	-5.143771e-06	-1.155916e-09	-3.586792e+01	-7.732561e+01
4.400000e-07	-5.126304e-06	-1.117366e-09	-3.574612e+01	-7.721064e+01
4.500000e-07	-5.108523e-06	-1.176569e-09	-3.562214e+01	-7.709619e+01
4.600000e-07	-5.090299e-06	-1.196111e-09	-3.549506e+01	-7.698227e+01
4.700000e-07	-5.071581e-06	-1.112219e-09	-3.536453e+01	-7.686888e+01
4.800000e-07	-5.052542e-06	-1.129678e-09	-3.523177e+01	-7.675597e+01
4.900000e-07	-5.033223e-06	-1.184489e-09	-3.509706e+01	-7.664348e+01
5.000000e-07	-5.013580e-06	-1.139634e-09	-3.496009e+01	-7.653126e+01
5.100000e-07	-4.993715e-06	-1.104370e-09	-3.482157e+01	-7.641919e+01
5.200000e-07	-4.973632e-06	-1.164485e-09	-3.468153e+01	-7.630706e+01
5.300000e-07	-4.953209e-06	-1.140106e-09	-3.453911e+01	-7.619467e+01
5.400000e-07	-4.932382e-06	-1.097172e-09	-3.439389e+01	-7.608177e+01
5.500000e-07	-4.911266e-06	-1.151573e-09	-3.424664e+01	-7.596807e+01
5.600000e-07	-4.889860e-06	-1.165263e-09	-3.409738e+01	-7.585330e+01
5.700000e-07	-4.868071e-06	-1.082389e-09	-3.394544e+01	-7.573712e+01
5.800000e-07	-4.846077e-06	-1.100012e-09	-3.379208e+01	-7.561920e+01
5.900000e-07	-4.823821e-06	-1.148770e-09	-3.363688e+01	-7.549918e+01
6.000000e-07	-4.801020e-06	-1.103060e-09	-3.347789e+01	-7.537672e+01
6.100000e-07	-4.777795e-06	-1.085810e-09	-3.331594e+01	-7.525144e+01
6.200000e-07	-4.754301e-06	-1.138708e-09	-3.315212e+01	-7.512296e+01
6.300000e-07	-4.730586e-06	-1.111466e-09	-3.298675e+01	-7.499093e+01
6.400000e-07	-4.706673e-06	-1.069658e-09	-3.282000e+01	-7.485497e+01
6.500000e-07	-4.682499e-06	-1.102094e-09	-3.265143e+01	-7.471474e+01
6.600000e-07	-4.658047e-06	-1.104864e-09	-3.248093e+01	-7.456988e+01
6.700000e-07	-4.633146e-06	-1.070192e-09	-3.230729e+01	-7.442008e+01
6.800000e-07	-4.607607e-06	-1.088277e-09	-3.212921e+01	-7.426503e+01
6.900000e-07	-4.581487e-06	-1.102731e-09	-3.194707e+01	-7.410445e+01
7.000000e-07	-4.554828e-06	-1.069114e-09	-3.176118e+01	-7.393808e+01
7.100000e-07	-4.527708e-06	-1.069139e-09	-3.157206e+01	-7.376571e+01
7.200000e-07	-4.500340e-06	-1.083230e-09	-3.138123e+01	-7.358713e+01
7.300000e-07	-4.472760e-06	-1.064719e-09	-3.118891e+01	-7.340218e+01
7.400000e-07	-4.444997e-06	-1.057654e-09	-3.099531e+01	-7.321075e+01
7.500000e-07	-4.417095e-06	-1.076773e-09	-3.080075e+01	-7.301274e+01
7.600000e-07	-4.388917e-06	-1.064298e-09	-3.060426e+01	-7.280809e+01
7.700000e-07	-4.360436e-06	-1.048868e-09	-3.040566e+01	-7.259681e+01
7.800000e-07	-4.331721e-06	-1.048898e-09	-3.020543e+01	-7.237890e+01
7.900000e-07	-4.302725e-06	-1.039582e-09	-3.000324e+01	-7.215444e+01
8.000000e-07	-4.273341e-06	-1.024839e-09	-2.979834e+01	-7.192351e+01
8.100000e-07	-4.243612e-06	-1.038441e-09	-2.959104e+01	-7.168625e+01
8.200000e-07	-4.213636e-06	-1.042077e-09	-2.938202e+01	-7.144282e+01
8.300000e-07	-4.183369e-06	-1.033298e-09	-2.917096e+01	-7.119343e+01
8.400000e-07	-4.152815e-06	-1.034956e-09	-2.895791e+01	-7.093828e+01
8.500000e-07	-4.121989e-06	-1.038677e-09	-2.874295e+01	-7.067764e+01
8.600000e-07	-4.090849e-06	-1.020351e-09	-2.852581e+01	-7.041177e+01
8.700000e-07	-4.059497e-06	-1.013091e-09	-2.830719e+01	-7.014096e+01
8.800000e-07	-4.028006e-06	-1.016846e-09	-2.808760e+01	-6.986552e+01
8.900000e-07	-3.996355e-06	-1.009756e-09	-2.786690e+01	-6.958576e+01
9.000000e-07	-3.964512e-06	-1.001071e-09	-2.764485e+01	-6.930201e+01
9.100000e-07	-3.932484e-06	-1.006724e-09	-2.742152e+01	-6.901460e+01
9.200000e-07	-3.900128e-06	-1.001910e-09	-2.719590e+01	-6.872385e+01
9.300000e-07	-3.867326e-06	-9.904914e-10	-2.696717e+01	-6.843008e+01
9.400000e-07	-3.834065e-06	-9.930490e-10	-2.673524e+01	-6.813361e+01
9.500000e-07	-3.800272e-06	-9.954745e-10	-2.649960e+01	-6.783475e+01
9.600000e-07	-3.766017e-06	-9.844888e-10	-2.626073e+01	-6.753376e+01
9.700000e-07	-3.731404e-06	-9.780141e-10	-2.601938e+01	-6.723093e+01
9.800000e-07	-3.696491e-06	-9.772889e-10	-2.577592e+01	-6.692648e+01
9.900000e-07	-3.661266e-06	-9.674086e-10	-2.553029e+01	-6.662064e+01
1.000000e-06	-3.625789e-06	-9.638747e-10	-2.528292e+01	-6.631358e+01
1.010000e-06	-3.590172e-06	-9.689142e-10	-2.503455e+01	-6.600545e+01
1.020000e-06	-3.554428e-06	-9.678146e-10	-2.478531e+01	-6.569639e+01
1.030000e-06	-3.518508e-06	-9.597574e-10	-2.453483e+01	-6.538646e+01
1.040000e-06	-3.482414e-06	-9.588027e-10	-2.428315e+01	-6.507571e+01
1.050000e-06	-3.446183e-06	-9.525471e-10	-2.403051e+01	-6.476415e+01
1.060000e-06	-3.409742e-06	-9.392469e-10	-2.377640e+01	-6.445174e+01
1.070000e-06	-3.372989e-06	-9.305662e-10	-2.352012e+01	-6.413841e+01
1.080000e-06	-3.335932e-06	-9.290076e-10	-2.326171e+01	-6.382406e+01
1.090000e-06	-3.298615e-06	-9.234429e-10	-2.300150e+01	-6.350854e+01
1.100000e-06	-3.261060e-06	-9.211827e-10	-2.273963e+01	-6.319165e+01
1.110000e-06	-3.223326e-06	-9.185110e-10	-2.247651e+01	-6.287318e+01
1.120000e-06	-3.185382e-06	-9.100663e-10	-2.221192e+01	-6.255287e+01
1.130000e-06	-3.147182e-06	-8.999853e-10	-2.194555e+01	-6.223045e+01
1.140000e-06	-3.108745e-06	-8.955914e-10	-2.167752e+01	-6.190559e+01
1.150000e-06	-3.070113e-06	-8.876194e-10	-2.140814e+01	-6.157796e+01
1.160000e-06	-3.031314e-06	-8.778210e-10	-2.113759e+01	-6.124720e+01
1.170000e-06	-2.992327e-06	-8.706113e-10	-2.086573e+01	-6.091293e+01
1.180000e-06	-2.953115e-06	-8.671824e-10	-2.059231e+01	-6.057476e+01
1.190000e-06	-2.913667e-06	-8.634766e-10	-2.031723e+01	-6.023226e+01
1.200000e-06	-2.874068e-06	-8.618749e-10	-2.004110e+01	-5.988504e+01
1.210000e-06	-2.834370e-06	-8.591341e-10	-1.976428e+01	-5.953266e+01
1.220000e-06	-2.794541e-06	-8.520439e-10	-1.948656e+01	-5.917471e+01
1.230000e-06	-2.754558e-06	-8.443535e-10	-1.920775e+01	-5.881076e+01
1.240000e-06	-2.714435e-06	-8.375595e-10	-1.892797e+01	-5.844040e+01
1.250000e-06	-2.674150e-06	-8.291452e-10	-1.864706e+01	-5.806323e+01
1.260000e-06	-2.633689e-06	-8.208127e-10	-1.836492e+01	-5.767886e+01
1.270000e-06	-2.592985e-06	-8.154660e-10	-1.808109e+01	-5.728690e+01
1.280000e-06	-2.551912e-06	-8.103576e-10	-1.779468e+01	-5.688701e+01
1.290000e-06	-2.510468e-06	-8.034953e-10	-1.750569e+01	-5.647883e+01
1.300000e-06	-2.468773e-06	-7.954735e-10	-1.721495e+01	-5.606205e+01
1.310000e-06	-2.426794e-06	-7.881735e-10	-1.692222e+01	-5.563639e+01
1.320000e-06	-2.384550e-06	-7.803061e-10	-1.662766e+01	-5.520156e+01
1.330000e-06	-2.342043e-06	-7.735607e-10	-1.633125e+01	-5.475733e+01
1.340000e-06	-2.299245e-06	-7.695211e-10	-1.603282e+01	-5.430348e+01
1.350000e-06	-2.256273e-06	-7.664950e-10	-1.573317e+01	-5.383982e+01
1.360000e-06	-2.213091e-06	-7.592821e-10	-1.543205e+01	-5.336619e+01
1.370000e-06	-2.169742e-06	-7.494492e-10	-1.512978e+01	-5.288243e+01
1.380000e-06	-2.126303e-06	-7.383080e-10	-1.482688e+01	-5.238844e+01
1.390000e-06	-2.082715e-06	-7.289246e-10	-1.452293e+01	-5.188412e+01
1.400000e-06	-2.039003e-06	-7.213267e-10	-1.421813e+01	-5.136940e+01
1.410000e-06	-1.995244e-06	-7.159380e-10	-1.391299e+01	-5.084421e+01
1.420000e-06	-1.951414e-06	-7.090344e-10	-1.360736e+01	-5.030852e+01
1.430000e-06	-1.907526e-06	-7.026361e-10	-1.330133e+01	-4.976229e+01
1.440000e-06	-1.863598e-06	-6.959708e-10	-1.299502e+01	-4.920551e+01
1.450000e-06	-1.819557e-06	-6.877741e-10	-1.268792e+01	-4.863815e+01
1.460000e-06	-1.775320e-06	-6.766693e-10	-1.237945e+01	-4.806021e+01
1.470000e-06	-1.731008e-06	-6.641599e-10	-1.207045e+01	-4.747168e+01
1.480000e-06	-1.686651e-06	-6.506379e-10	-1.176115e+01	-4.687254e+01
1.490000e-06	-1.642142e-06	-6.385676e-10	-1.145079e+01	-4.626277e+01
1.500000e-06	-1.597476e-06	-6.291655e-10	-1.113932e+01	-4.564233e+01
1.510000e-06	-1.552616e-06	-6.218561e-10	-1.082651e+01	-4.501118e+01
1.520000e-06	-1.507626e-06	-6.146367e-10	-1.051280e+01	-4.436925e+01
1.530000e-06	-1.462577e-06	-6.056600e-10	-1.019866e+01	-4.371646e+01
1.540000e-06	-1.417467e-06	-5.965690e-10	-9.884108e+00	-4.305271e+01
1.550000e-06	-1.372238e-06	-5.874122e-10	-9.568724e+00	-4.237786e+01
1.560000e-06	-1.326830e-06	-5.743676e-10	-9.252091e+00	-4.169177e+01
1.570000e-06	-1.281335e-06	-5.597851e-10	-8.934853e+00	-4.099425e+01
1.580000e-06	-1.235890e-06	-5.478777e-10	-8.617956e+00	-4.028508e+01
1.590000e-06	-1.190378e-06	-5.368741e-10	-8.300596e+00	-3.956404e+01
1.600000e-06	-1.144715e-06	-5.257389e-10	-7.982191e+00	-3.883085e+01
1.610000e-06	-1.098939e-06	-5.162845e-10	-7.662986e+00	-3.808521e+01
1.620000e-06	-1.053015e-06	-5.064996e-10	-7.342757e+00	-3.732680e+01
1.630000e-06	-1.007020e-06	-4.945734e-10	-7.022033e+00	-3.655528e+01
1.640000e-06	-9.610075e-07	-4.817218e-10	-6.701181e+00	-3.577026e+01
1.650000e-06	-9.150244e-07	-4.662920e-10	-6.380538e+00	-3.497136e+01
1.660000e-06	-8.690000e-07	-4.523042e-10	-6.059605e+00	-3.415815e+01
1.670000e-06	-8.228246e-07	-4.411040e-10	-5.737621e+00	-3.333021e+01
1.680000e-06	-7.766392e-07	-4.325358e-10	-5.415566e+00	-3.248709e+01
1.690000e-06	-7.304733e-07	-4.226102e-10	-5.093648e+00	-3.162835e+01
1.700000e-06	-6.842840e-07	-4.123668e-10	-4.771566e+00	-3.075354e+01
1.710000e-06	-6.379850e-07	-3.996003e-10	-4.448719e+00	-2.986220e+01
1.720000e-06	-5.915605e-07	-3.843352e-10	-4.124998e+00	-2.895390e+01
1.730000e-06	-5.451136e-07	-3.691639e-10	-3.801120e+00	-2.802821e+01
1.740000e-06	-4.986521e-07	-3.561788e-10	-3.477140e+00	-2.708472e+01
1.750000e-06	-4.521185e-07	-3.436400e-10	-3.152658e+00	-2.612305e+01
1.760000e-06	-4.055285e-07	-3.295264e-10	-2.827782e+00	-2.514284e+01
1.770000e-06	-3.588922e-07	-3.132368e-10	-2.502584e+00	-2.414377e+01
1.780000e-06	-3.122484e-07	-2.983541e-10	-2.177333e+00	-2.312558e+01
1.790000e-06	-2.656656e-07	-2.844642e-10	-1.852507e+00	-2.208804e+01
1.800000e-06	-2.190670e-07	-2.681098e-10	-1.527572e+00	-2.103097e+01
1.810000e-06	-1.724527e-07	-2.505114e-10	-1.202526e+00	-1.995426e+01
1.820000e-06	-1.257994e-07	-2.333362e-10	-8.772090e-01	-1.885786e+01
1.830000e-06	-7.913967e-08	-2.177883e-10	-5.518472e-01	-1.774179e+01
1.840000e-06	-3.246877e-08	-2.024559e-10	-2.264073e-01	-1.660615e+01
1.850000e-06	1.423329e-08	-1.869216e-10	9.924987e-02	-1.545109e+01
1.860000e-06	6.086567e-08	-1.735108e-10	4.244211e-01	-1.427687e+01
1.870000e-06	1.074472e-07	-1.574890e-10	7.492379e-01	-1.308381e+01
1.880000e-06	1.540797e-07	-1.407323e-10	1.074410e+00	-1.187234e+01
1.890000e-06	2.007022e-07	-1.239694e-10	1.399512e+00	-1.064295e+01
1.900000e-06	2.473027e-07	-1.048604e-10	1.724461e+00	-9.396225e+00
1.910000e-06	2.939184e-07	-8.507830e-11	2.049516e+00	-8.132841e+00
1.920000e-06	3.405456e-07	-6.461675e-11	2.374652e+00	-6.853555e+00
1.930000e-06	3.872018e-07	-4.920666e-11	2.699989e+00	-5.559211e+00
1.940000e-06	4.337628e-07	-3.483716e-11	3.024662e+00	-4.250734e+00
1.950000e-06	4.802298e-07	-2.118683e-11	3.348680e+00	-2.929129e+00
1.960000e-06	5.266344e-07	-5.995076e-12	3.672263e+00	-1.595477e+00
1.970000e-06	5.729441e-07	1.086134e-11	3.995184e+00	-2.509310e-01
1.980000e-06	6.192108e-07	3.258514e-11	4.317805e+00	1.103288e+00
1.990000e-06	6.654178e-07	5.632176e-11	4.640011e+00	2.465897e+00
2.000000e-06	7.115998e-07	7.915513e-11	4.962041e+00	3.835557e+00
2.010000e-06	7.577944e-07	1.005074e-10	5.284160e+00	5.210879e+00
2.020000e-06	8.039962e-07	1.183806e-10	5.606329e+00	6.590432e+00
2.030000e-06	8.501226e-07	1.339042e-10	5.927972e+00	7.972748e+00
2.040000e-06	8.961487e-07	1.493859e-10	6.248916e+00	9.356332e+00
2.050000e-06	9.421295e-07	1.649507e-10	6.569543e+00	1.073967e+01
2.060000e-06	9.880537e-07	1.844127e-10	6.889776e+00	1.212122e+01
2.070000e-06	1.033944e-06	2.075044e-10	7.209774e+00	1.349947e+01
2.080000e-06	1.079752e-06	2.326706e-10	7.529193e+00	1.487289e+01
2.090000e-06	1.125439e-06	2.540973e-10	7.847778e+00	1.623995e+01
2.100000e-06	1.171039e-06	2.713878e-10	8.165748e+00	1.759917e+01
2.110000e-06	1.216579e-06	2.883181e-10	8.483302e+00	1.894907e+01
2.120000e-06	1.262035e-06	3.039560e-10	8.800267e+00	2.028824e+01
2.130000e-06	1.307436e-06	3.199893e-10	9.116856e+00	2.161528e+01
2.140000e-06	1.352747e-06	3.358631e-10	9.432810e+00	2.292886e+01
2.150000e-06	1.397883e-06	3.538781e-10	9.747547e+00	2.422772e+01
2.160000e-06	1.442930e-06	3.727701e-10	1.006167e+01	2.551064e+01
2.170000e-06	1.487898e-06	3.935331e-10	1.037523e+01	2.677648e+01
2.180000e-06	1.532705e-06	4.142773e-10	1.068767e+01	2.802418e+01
2.190000e-06	1.577374e-06	4.329886e-10	1.099915e+01	2.925276e+01
2.200000e-06	1.621941e-06	4.497463e-10	1.130992e+01	3.046133e+01
2.210000e-06	1.666390e-06	4.644349e-10	1.161987e+01	3.164907e+01
2.220000e-06	1.710682e-06	4.784541e-10	1.192872e+01	3.281528e+01
2.230000e-06	1.754841e-06	4.933796e-10	1.223665e+01	3.395931e+01
2.240000e-06	1.798921e-06	5.073037e-10	1.254402e+01	3.508066e+01
2.250000e-06	1.842918e-06	5.216296e-10	1.285081e+01	3.617887e+01
2.260000e-06	1.886854e-06	5.368251e-10	1.315718e+01	3.725362e+01
2.270000e-06	1.930750e-06	5.537013e-10	1.346327e+01	3.830466e+01
2.280000e-06	1.974601e-06	5.700431e-10	1.376905e+01	3.933183e+01
2.290000e-06	2.018376e-06	5.846609e-10	1.407430e+01	4.033507e+01
2.300000e-06	2.062080e-06	5.964564e-10	1.437905e+01	4.131440e+01
2.310000e-06	2.105748e-06	6.073603e-10	1.468355e+01	4.226993e+01
2.320000e-06	2.149363e-06	6.180972e-10	1.498768e+01	4.320186e+01
2.330000e-06	2.192849e-06	6.279273e-10	1.529091e+01	4.411043e+01
2.340000e-06	2.236082e-06	6.375206e-10	1.559238e+01	4.499599e+01
2.350000e-06	2.279059e-06	6.482439e-10	1.589206e+01	4.585894e+01
2.360000e-06	2.321784e-06	6.602461e-10	1.618998e+01	4.669973e+01
2.370000e-06	2.364223e-06	6.726774e-10	1.648591e+01	4.751887e+01
2.380000e-06	2.406419e-06	6.854354e-10	1.678015e+01	4.831692e+01
2.390000e-06	2.448379e-06	6.981362e-10	1.707274e+01	4.909448e+01
2.400000e-06	2.490052e-06	7.107354e-10	1.736333e+01	4.985219e+01
2.410000e-06	2.531373e-06	7.236248e-10	1.765146e+01	5.059070e+01
2.420000e-06	2.572379e-06	7.366285e-10	1.793740e+01	5.131069e+01
2.430000e-06	2.613110e-06	7.481123e-10	1.822143e+01	5.201286e+01
2.440000e-06	2.653576e-06	7.574431e-10	1.850359e+01	5.269791e+01
2.450000e-06	2.693904e-06	7.656922e-10	1.878481e+01	5.336656e+01
2.460000e-06	2.734103e-06	7.744737e-10	1.906512e+01	5.401949e+01
2.470000e-06	2.774112e-06	7.844064e-10	1.934410e+01	5.465741e+01
2.480000e-06	2.814010e-06	7.969527e-10	1.962231e+01	5.528099e+01
2.490000e-06	2.853799e-06	8.082462e-10	1.989976e+01	5.589089e+01
2.500000e-06	2.893457e-06	8.184547e-10	2.017630e+01	5.648775e+01
2.510000e-06	2.932948e-06	8.280590e-10	2.045168e+01	5.707218e+01
2.520000e-06	2.972182e-06	8.349251e-10	2.072526e+01	5.764474e+01
2.530000e-06	3.011195e-06	8.407078e-10	2.099730e+01	5.820598e+01
2.540000e-06	3.050026e-06	8.479068e-10	2.126807e+01	5.875641e+01
2.550000e-06	3.088570e-06	8.555997e-10	2.153684e+01	5.929649e+01
2.560000e-06	3.126885e-06	8.634035e-10	2.180401e+01	5.982665e+01
2.570000e-06	3.165041e-06	8.727954e-10	2.207008e+01	6.034727e+01
2.580000e-06	3.202972e-06	8.829458e-10	2.233457e+01	6.085870e+01
2.590000e-06	3.240733e-06	8.911708e-10	2.259788e+01	6.136124e+01
2.600000e-06	3.278346e-06	8.987025e-10	2.286017e+01	6.185514e+01
2.610000e-06	3.315787e-06	9.080305e-10	2.312125e+01	6.234063e+01
2.620000e-06	3.353021e-06	9.172892e-10	2.338088e+01	6.281789e+01
2.630000e-06	3.389888e-06	9.238442e-10	2.363796e+01	6.328707e+01
2.640000e-06	3.426397e-06	9.286462e-10	2.389254e+01	6.374827e+01
2.650000e-06	3.462712e-06	9.310782e-10	2.414576e+01	6.420157e+01
2.660000e-06	3.498876e-06	9.338705e-10	2.439794e+01	6.464702e+01
2.670000e-06	3.534856e-06	9.401498e-10	2.464883e+01	6.508464e+01
2.680000e-06	3.570659e-06	9.472619e-10	2.489848e+01	6.551443e+01
2.690000e-06	3.606372e-06	9.551116e-10	2.514752e+01	6.593636e+01
2.700000e-06	3.641961e-06	9.649468e-10	2.539568e+01	6.635039e+01
2.710000e-06	3.677357e-06	9.729567e-10	2.564250e+01	6.675647e+01
2.720000e-06	3.712479e-06	9.773336e-10	2.588741e+01	6.715453e+01
2.730000e-06	3.747182e-06	9.831376e-10	2.612940e+01	6.754450e+01
2.740000e-06	3.781438e-06	9.885725e-10	2.636826e+01	6.792631e+01
2.750000e-06	3.815321e-06	9.908545e-10	2.660453e+01	6.829987e+01
2.760000e-06	3.848840e-06	9.926052e-10	2.683826e+01	6.866512e+01
2.770000e-06	3.881871e-06	9.964976e-10	2.706859e+01	6.902198e+01
2.780000e-06	3.914383e-06	1.003738e-09	2.729530e+01	6.937039e+01
2.790000e-06	3.946575e-06	1.013488e-09	2.751978e+01	6.971031e+01
2.800000e-06	3.978590e-06	1.022213e-09	2.774302e+01	7.004168e+01
2.810000e-06	4.010461e-06	1.028854e-09	2.796526e+01	7.036449e+01
2.820000e-06	4.042207e-06	1.033877e-09	2.818663e+01	7.067873e+01
2.830000e-06	4.073762e-06	1.036768e-09	2.840666e+01	7.098440e+01
2.840000e-06	4.105060e-06	1.036759e-09	2.862491e+01	7.128153e+01
2.850000e-06	4.135997e-06	1.036110e-09	2.884063e+01	7.157016e+01
2.860000e-06	4.166576e-06	1.037663e-09	2.905386e+01	7.185035e+01
2.870000e-06	4.196910e-06	1.041522e-09	2.926538e+01	7.212218e+01
2.880000e-06	4.227011e-06	1.046904e-09	2.947528e+01	7.238575e+01
2.890000e-06	4.256862e-06	1.054767e-09	2.968343e+01	7.264117e+01
2.900000e-06	4.286383e-06	1.061866e-09	2.988928e+01	7.288858e+01
