# Temperatura_=_-0.3
# Concentracion g/m^3_=_1620.0
# C_Vs_to_Am_M_A/Vsm_=_65563218390.804596
# pendiente_HvsI_1/m_=_3716.3
# ordenada_HvsI_A/m_=_1297.0
# frecuencia_Hz_=_135106.89852664535

Tiempo_(s)	Campo_(V.s)	Magnetizacion_(V.s)	Campo_(kA/m)	Magnetizacion_(A/m)
0.000000e+00	-5.537842e-06	-1.318689e-09	-3.836040e+01	-8.671459e+01
1.000000e-08	-5.538140e-06	-1.318120e-09	-3.836246e+01	-8.672251e+01
2.000000e-08	-5.538210e-06	-1.318500e-09	-3.836295e+01	-8.673082e+01
3.000000e-08	-5.537920e-06	-1.319921e-09	-3.836094e+01	-8.673946e+01
4.000000e-08	-5.537144e-06	-1.320234e-09	-3.835556e+01	-8.674837e+01
5.000000e-08	-5.535887e-06	-1.316459e-09	-3.834686e+01	-8.675745e+01
6.000000e-08	-5.534011e-06	-1.304804e-09	-3.833386e+01	-8.676658e+01
7.000000e-08	-5.531464e-06	-1.281709e-09	-3.831622e+01	-8.677560e+01
8.000000e-08	-5.528373e-06	-1.281828e-09	-3.829481e+01	-8.678435e+01
9.000000e-08	-5.524872e-06	-1.338853e-09	-3.827055e+01	-8.679263e+01
1.000000e-07	-5.520947e-06	-1.394242e-09	-3.824337e+01	-8.680022e+01
1.100000e-07	-5.516669e-06	-1.341459e-09	-3.821373e+01	-8.680690e+01
1.200000e-07	-5.512180e-06	-1.250164e-09	-3.818264e+01	-8.681240e+01
1.300000e-07	-5.507481e-06	-1.222065e-09	-3.815009e+01	-8.681646e+01
1.400000e-07	-5.502443e-06	-1.335742e-09	-3.811519e+01	-8.681881e+01
1.500000e-07	-5.496915e-06	-1.317555e-09	-3.807690e+01	-8.681918e+01
1.600000e-07	-5.491009e-06	-1.255398e-09	-3.803599e+01	-8.681726e+01
1.700000e-07	-5.484844e-06	-1.231761e-09	-3.799328e+01	-8.681276e+01
1.800000e-07	-5.478311e-06	-1.335696e-09	-3.794803e+01	-8.680541e+01
1.900000e-07	-5.471270e-06	-1.372676e-09	-3.789926e+01	-8.679490e+01
2.000000e-07	-5.463820e-06	-1.294328e-09	-3.784765e+01	-8.678095e+01
2.100000e-07	-5.456051e-06	-1.270221e-09	-3.779384e+01	-8.676329e+01
2.200000e-07	-5.448064e-06	-1.327467e-09	-3.773851e+01	-8.674166e+01
2.300000e-07	-5.439890e-06	-1.386299e-09	-3.768189e+01	-8.671579e+01
2.400000e-07	-5.431380e-06	-1.340213e-09	-3.762294e+01	-8.668546e+01
2.500000e-07	-5.422320e-06	-1.330428e-09	-3.756018e+01	-8.665044e+01
2.600000e-07	-5.412475e-06	-1.334479e-09	-3.749198e+01	-8.661053e+01
2.700000e-07	-5.401878e-06	-1.362872e-09	-3.741858e+01	-8.656556e+01
2.800000e-07	-5.390776e-06	-1.311238e-09	-3.734168e+01	-8.651535e+01
2.900000e-07	-5.379288e-06	-1.315163e-09	-3.726210e+01	-8.645977e+01
3.000000e-07	-5.367429e-06	-1.324574e-09	-3.717996e+01	-8.639870e+01
3.100000e-07	-5.355243e-06	-1.343773e-09	-3.709554e+01	-8.633206e+01
3.200000e-07	-5.342629e-06	-1.298098e-09	-3.700816e+01	-8.625978e+01
3.300000e-07	-5.329555e-06	-1.300622e-09	-3.691761e+01	-8.618181e+01
3.400000e-07	-5.316118e-06	-1.317301e-09	-3.682453e+01	-8.609813e+01
3.500000e-07	-5.302389e-06	-1.334031e-09	-3.672942e+01	-8.600874e+01
3.600000e-07	-5.288242e-06	-1.302704e-09	-3.663143e+01	-8.591367e+01
3.700000e-07	-5.273493e-06	-1.309667e-09	-3.652927e+01	-8.581296e+01
3.800000e-07	-5.258225e-06	-1.320521e-09	-3.642350e+01	-8.570668e+01
3.900000e-07	-5.242506e-06	-1.312362e-09	-3.631462e+01	-8.559490e+01
4.000000e-07	-5.226197e-06	-1.293786e-09	-3.620164e+01	-8.547774e+01
4.100000e-07	-5.209474e-06	-1.314316e-09	-3.608580e+01	-8.535529e+01
4.200000e-07	-5.192497e-06	-1.319090e-09	-3.596821e+01	-8.522770e+01
4.300000e-07	-5.175168e-06	-1.280026e-09	-3.584817e+01	-8.509509e+01
4.400000e-07	-5.157602e-06	-1.290502e-09	-3.572649e+01	-8.495761e+01
4.500000e-07	-5.139777e-06	-1.321325e-09	-3.560302e+01	-8.481543e+01
4.600000e-07	-5.121439e-06	-1.306554e-09	-3.547599e+01	-8.466869e+01
4.700000e-07	-5.102541e-06	-1.258032e-09	-3.534509e+01	-8.451756e+01
4.800000e-07	-5.083315e-06	-1.286836e-09	-3.521191e+01	-8.436219e+01
4.900000e-07	-5.063858e-06	-1.294823e-09	-3.507713e+01	-8.420277e+01
5.000000e-07	-5.044172e-06	-1.272421e-09	-3.494077e+01	-8.403943e+01
5.100000e-07	-5.024288e-06	-1.263346e-09	-3.480303e+01	-8.387233e+01
5.200000e-07	-5.004114e-06	-1.288855e-09	-3.466329e+01	-8.370163e+01
5.300000e-07	-4.983575e-06	-1.253409e-09	-3.452102e+01	-8.352745e+01
5.400000e-07	-4.962699e-06	-1.252970e-09	-3.437640e+01	-8.334993e+01
5.500000e-07	-4.941429e-06	-1.281012e-09	-3.422907e+01	-8.316920e+01
5.600000e-07	-4.919735e-06	-1.276217e-09	-3.407879e+01	-8.298534e+01
5.700000e-07	-4.897710e-06	-1.231545e-09	-3.392623e+01	-8.279848e+01
5.800000e-07	-4.875421e-06	-1.256764e-09	-3.377184e+01	-8.260867e+01
5.900000e-07	-4.852790e-06	-1.261681e-09	-3.361507e+01	-8.241601e+01
6.000000e-07	-4.829761e-06	-1.230029e-09	-3.345555e+01	-8.222054e+01
6.100000e-07	-4.806410e-06	-1.225427e-09	-3.329380e+01	-8.202231e+01
6.200000e-07	-4.782865e-06	-1.248662e-09	-3.313070e+01	-8.182135e+01
6.300000e-07	-4.759141e-06	-1.222949e-09	-3.296637e+01	-8.161768e+01
6.400000e-07	-4.735225e-06	-1.214703e-09	-3.280070e+01	-8.141131e+01
6.500000e-07	-4.711015e-06	-1.232260e-09	-3.263300e+01	-8.120223e+01
6.600000e-07	-4.686316e-06	-1.224210e-09	-3.246191e+01	-8.099044e+01
6.700000e-07	-4.661006e-06	-1.204863e-09	-3.228659e+01	-8.077591e+01
6.800000e-07	-4.635088e-06	-1.215035e-09	-3.210706e+01	-8.055860e+01
6.900000e-07	-4.608697e-06	-1.211537e-09	-3.192425e+01	-8.033849e+01
7.000000e-07	-4.581829e-06	-1.197431e-09	-3.173814e+01	-8.011553e+01
7.100000e-07	-4.554543e-06	-1.206136e-09	-3.154913e+01	-7.988967e+01
7.200000e-07	-4.526987e-06	-1.205552e-09	-3.135824e+01	-7.966087e+01
7.300000e-07	-4.499268e-06	-1.189752e-09	-3.116624e+01	-7.942906e+01
7.400000e-07	-4.471443e-06	-1.187544e-09	-3.097350e+01	-7.919421e+01
7.500000e-07	-4.443397e-06	-1.195742e-09	-3.077922e+01	-7.895625e+01
7.600000e-07	-4.414994e-06	-1.182874e-09	-3.058247e+01	-7.871514e+01
7.700000e-07	-4.386235e-06	-1.182560e-09	-3.038326e+01	-7.847084e+01
7.800000e-07	-4.357141e-06	-1.180871e-09	-3.018173e+01	-7.822329e+01
7.900000e-07	-4.327763e-06	-1.172365e-09	-2.997823e+01	-7.797248e+01
8.000000e-07	-4.298195e-06	-1.161264e-09	-2.977341e+01	-7.771835e+01
8.100000e-07	-4.268384e-06	-1.164991e-09	-2.956691e+01	-7.746089e+01
8.200000e-07	-4.238195e-06	-1.153033e-09	-2.935780e+01	-7.720008e+01
8.300000e-07	-4.207603e-06	-1.150367e-09	-2.914589e+01	-7.693591e+01
8.400000e-07	-4.176696e-06	-1.156098e-09	-2.893180e+01	-7.666836e+01
8.500000e-07	-4.145609e-06	-1.159010e-09	-2.871646e+01	-7.639745e+01
8.600000e-07	-4.114319e-06	-1.143540e-09	-2.849971e+01	-7.612317e+01
8.700000e-07	-4.082783e-06	-1.139256e-09	-2.828127e+01	-7.584554e+01
8.800000e-07	-4.051145e-06	-1.130007e-09	-2.806211e+01	-7.556458e+01
8.900000e-07	-4.019369e-06	-1.119302e-09	-2.784200e+01	-7.528031e+01
9.000000e-07	-3.987359e-06	-1.113057e-09	-2.762027e+01	-7.499276e+01
9.100000e-07	-3.955117e-06	-1.115279e-09	-2.739693e+01	-7.470194e+01
9.200000e-07	-3.922539e-06	-1.105215e-09	-2.717126e+01	-7.440790e+01
9.300000e-07	-3.889410e-06	-1.100206e-09	-2.694178e+01	-7.411066e+01
9.400000e-07	-3.855741e-06	-1.101572e-09	-2.670856e+01	-7.381024e+01
9.500000e-07	-3.821591e-06	-1.097687e-09	-2.647200e+01	-7.350668e+01
9.600000e-07	-3.786916e-06	-1.087683e-09	-2.623181e+01	-7.320000e+01
9.700000e-07	-3.751929e-06	-1.086548e-09	-2.598945e+01	-7.289020e+01
9.800000e-07	-3.716705e-06	-1.084406e-09	-2.574546e+01	-7.257729e+01
9.900000e-07	-3.681162e-06	-1.074916e-09	-2.549925e+01	-7.226128e+01
1.000000e-06	-3.645480e-06	-1.071175e-09	-2.525208e+01	-7.194216e+01
1.010000e-06	-3.609736e-06	-1.068814e-09	-2.500449e+01	-7.161990e+01
1.020000e-06	-3.573823e-06	-1.063575e-09	-2.475572e+01	-7.129446e+01
1.030000e-06	-3.537785e-06	-1.057123e-09	-2.450609e+01	-7.096581e+01
1.040000e-06	-3.501618e-06	-1.056627e-09	-2.425556e+01	-7.063388e+01
1.050000e-06	-3.465132e-06	-1.049081e-09	-2.400282e+01	-7.029860e+01
1.060000e-06	-3.428280e-06	-1.040313e-09	-2.374755e+01	-6.995986e+01
1.070000e-06	-3.391148e-06	-1.033249e-09	-2.349034e+01	-6.961758e+01
1.080000e-06	-3.353764e-06	-1.027040e-09	-2.323138e+01	-6.927161e+01
1.090000e-06	-3.316195e-06	-1.017374e-09	-2.297114e+01	-6.892182e+01
1.100000e-06	-3.278373e-06	-1.012903e-09	-2.270915e+01	-6.856806e+01
1.110000e-06	-3.240278e-06	-1.006438e-09	-2.244527e+01	-6.821016e+01
1.120000e-06	-3.201989e-06	-9.975375e-10	-2.218004e+01	-6.784791e+01
1.130000e-06	-3.163497e-06	-9.878424e-10	-2.191341e+01	-6.748114e+01
1.140000e-06	-3.124794e-06	-9.849993e-10	-2.164531e+01	-6.710960e+01
1.150000e-06	-3.085862e-06	-9.777933e-10	-2.137564e+01	-6.673309e+01
1.160000e-06	-3.046718e-06	-9.717118e-10	-2.110448e+01	-6.635136e+01
1.170000e-06	-3.007409e-06	-9.649793e-10	-2.083219e+01	-6.596417e+01
1.180000e-06	-2.967953e-06	-9.601442e-10	-2.055889e+01	-6.557125e+01
1.190000e-06	-2.928332e-06	-9.526097e-10	-2.028443e+01	-6.517233e+01
1.200000e-06	-2.888635e-06	-9.460104e-10	-2.000945e+01	-6.476716e+01
1.210000e-06	-2.848861e-06	-9.370995e-10	-1.973394e+01	-6.435546e+01
1.220000e-06	-2.808952e-06	-9.291567e-10	-1.945749e+01	-6.393695e+01
1.230000e-06	-2.768871e-06	-9.233502e-10	-1.917985e+01	-6.351137e+01
1.240000e-06	-2.728467e-06	-9.189516e-10	-1.889998e+01	-6.307843e+01
1.250000e-06	-2.687831e-06	-9.112286e-10	-1.861849e+01	-6.263787e+01
1.260000e-06	-2.647112e-06	-9.033325e-10	-1.833643e+01	-6.218944e+01
1.270000e-06	-2.606146e-06	-8.989262e-10	-1.805266e+01	-6.173287e+01
1.280000e-06	-2.564737e-06	-8.927987e-10	-1.776582e+01	-6.126791e+01
1.290000e-06	-2.522895e-06	-8.831372e-10	-1.747599e+01	-6.079434e+01
1.300000e-06	-2.480710e-06	-8.714535e-10	-1.718377e+01	-6.031193e+01
1.310000e-06	-2.438239e-06	-8.601169e-10	-1.688958e+01	-5.982045e+01
1.320000e-06	-2.395616e-06	-8.511118e-10	-1.659433e+01	-5.931972e+01
1.330000e-06	-2.352829e-06	-8.446999e-10	-1.629795e+01	-5.880955e+01
1.340000e-06	-2.309694e-06	-8.407538e-10	-1.599916e+01	-5.828976e+01
1.350000e-06	-2.266320e-06	-8.363734e-10	-1.569870e+01	-5.776019e+01
1.360000e-06	-2.222882e-06	-8.274424e-10	-1.539781e+01	-5.722071e+01
1.370000e-06	-2.179361e-06	-8.160766e-10	-1.509634e+01	-5.667117e+01
1.380000e-06	-2.135710e-06	-8.023580e-10	-1.479397e+01	-5.611146e+01
1.390000e-06	-2.091955e-06	-7.904415e-10	-1.449089e+01	-5.554148e+01
1.400000e-06	-2.048146e-06	-7.794427e-10	-1.418742e+01	-5.496112e+01
1.410000e-06	-2.004282e-06	-7.719666e-10	-1.388358e+01	-5.437031e+01
1.420000e-06	-1.960322e-06	-7.641860e-10	-1.357907e+01	-5.376896e+01
1.430000e-06	-1.916235e-06	-7.576685e-10	-1.327368e+01	-5.315701e+01
1.440000e-06	-1.872058e-06	-7.490128e-10	-1.296767e+01	-5.253439e+01
1.450000e-06	-1.827767e-06	-7.388421e-10	-1.266087e+01	-5.190104e+01
1.460000e-06	-1.783292e-06	-7.252586e-10	-1.235279e+01	-5.125688e+01
1.470000e-06	-1.738655e-06	-7.115984e-10	-1.204359e+01	-5.060188e+01
1.480000e-06	-1.693918e-06	-6.997008e-10	-1.173370e+01	-4.993594e+01
1.490000e-06	-1.648986e-06	-6.893479e-10	-1.142246e+01	-4.925900e+01
1.500000e-06	-1.603888e-06	-6.790807e-10	-1.111006e+01	-4.857099e+01
1.510000e-06	-1.558682e-06	-6.701474e-10	-1.079693e+01	-4.787180e+01
1.520000e-06	-1.513383e-06	-6.596483e-10	-1.048314e+01	-4.716134e+01
1.530000e-06	-1.467997e-06	-6.465417e-10	-1.016876e+01	-4.643949e+01
1.540000e-06	-1.422492e-06	-6.295236e-10	-9.853542e+00	-4.570612e+01
1.550000e-06	-1.376832e-06	-6.135833e-10	-9.537259e+00	-4.496107e+01
1.560000e-06	-1.331051e-06	-6.000600e-10	-9.220132e+00	-4.420418e+01
1.570000e-06	-1.285267e-06	-5.885010e-10	-8.902990e+00	-4.343526e+01
1.580000e-06	-1.239433e-06	-5.795850e-10	-8.585500e+00	-4.265409e+01
1.590000e-06	-1.193479e-06	-5.697149e-10	-8.267180e+00	-4.186046e+01
1.600000e-06	-1.147465e-06	-5.556801e-10	-7.948441e+00	-4.105410e+01
1.610000e-06	-1.101407e-06	-5.413195e-10	-7.629402e+00	-4.023475e+01
1.620000e-06	-1.055273e-06	-5.280371e-10	-7.309833e+00	-3.940211e+01
1.630000e-06	-1.009060e-06	-5.154483e-10	-6.989719e+00	-3.855588e+01
1.640000e-06	-9.627579e-07	-5.027753e-10	-6.668983e+00	-3.769571e+01
1.650000e-06	-9.164057e-07	-4.873269e-10	-6.347903e+00	-3.682128e+01
1.660000e-06	-8.700343e-07	-4.725114e-10	-6.026691e+00	-3.593222e+01
1.670000e-06	-8.235919e-07	-4.559281e-10	-5.704986e+00	-3.502816e+01
1.680000e-06	-7.771554e-07	-4.398287e-10	-5.383323e+00	-3.410872e+01
1.690000e-06	-7.306816e-07	-4.248469e-10	-5.061400e+00	-3.317352e+01
1.700000e-06	-6.840522e-07	-4.128000e-10	-4.738401e+00	-3.222218e+01
1.710000e-06	-6.373688e-07	-3.998709e-10	-4.415027e+00	-3.125431e+01
1.720000e-06	-5.906396e-07	-3.841653e-10	-4.091336e+00	-3.026955e+01
1.730000e-06	-5.437756e-07	-3.661314e-10	-3.766711e+00	-2.926752e+01
1.740000e-06	-4.968866e-07	-3.487742e-10	-3.441913e+00	-2.824789e+01
1.750000e-06	-4.500130e-07	-3.321840e-10	-3.117221e+00	-2.721032e+01
1.760000e-06	-4.030937e-07	-3.180979e-10	-2.792213e+00	-2.615452e+01
1.770000e-06	-3.561897e-07	-3.033312e-10	-2.467311e+00	-2.508022e+01
1.780000e-06	-3.092248e-07	-2.893446e-10	-2.141987e+00	-2.398719e+01
1.790000e-06	-2.622292e-07	-2.745792e-10	-1.816451e+00	-2.287524e+01
1.800000e-06	-2.152732e-07	-2.560851e-10	-1.491189e+00	-2.174423e+01
1.810000e-06	-1.683017e-07	-2.368353e-10	-1.165819e+00	-2.059406e+01
1.820000e-06	-1.212743e-07	-2.190503e-10	-8.400616e-01	-1.942470e+01
1.830000e-06	-7.421935e-08	-2.032957e-10	-5.141143e-01	-1.823616e+01
1.840000e-06	-2.721597e-08	-1.881833e-10	-1.885239e-01	-1.702854e+01
1.850000e-06	1.969252e-08	-1.739491e-10	1.364093e-01	-1.580200e+01
1.860000e-06	6.656739e-08	-1.619566e-10	4.611095e-01	-1.455676e+01
1.870000e-06	1.135130e-07	-1.468888e-10	7.862996e-01	-1.329312e+01
1.880000e-06	1.605284e-07	-1.274763e-10	1.111974e+00	-1.201145e+01
1.890000e-06	2.075318e-07	-1.070617e-10	1.437564e+00	-1.071223e+01
1.900000e-06	2.544590e-07	-8.608826e-11	1.762627e+00	-9.395982e+00
1.910000e-06	3.013518e-07	-6.655488e-11	2.087451e+00	-8.063325e+00
1.920000e-06	3.482491e-07	-4.937249e-11	2.412307e+00	-6.714960e+00
1.930000e-06	3.951326e-07	-3.463517e-11	2.737067e+00	-5.351666e+00
1.940000e-06	4.419955e-07	-1.900577e-11	3.061684e+00	-3.974301e+00
1.950000e-06	4.888437e-07	-4.643345e-12	3.386200e+00	-2.583804e+00
1.960000e-06	5.356471e-07	1.187721e-11	3.710405e+00	-1.181184e+00
1.970000e-06	5.824760e-07	3.028025e-11	4.034787e+00	2.324717e-01
1.980000e-06	6.292885e-07	5.042513e-11	4.359055e+00	1.656012e+00
1.990000e-06	6.759312e-07	7.141918e-11	4.682147e+00	3.088218e+00
2.000000e-06	7.224981e-07	9.348496e-11	5.004713e+00	4.527813e+00
2.010000e-06	7.690571e-07	1.159883e-10	5.327226e+00	5.973466e+00
2.020000e-06	8.155105e-07	1.368577e-10	5.649007e+00	7.423797e+00
2.030000e-06	8.618107e-07	1.552734e-10	5.969726e+00	8.877384e+00
2.040000e-06	9.080819e-07	1.729222e-10	6.290245e+00	1.033277e+01
2.050000e-06	9.543874e-07	1.899204e-10	6.611001e+00	1.178847e+01
2.060000e-06	1.000562e-06	2.084172e-10	6.930849e+00	1.324298e+01
2.070000e-06	1.046739e-06	2.293039e-10	7.250718e+00	1.469477e+01
2.080000e-06	1.092984e-06	2.524419e-10	7.571054e+00	1.614233e+01
2.090000e-06	1.139021e-06	2.748245e-10	7.889953e+00	1.758414e+01
2.100000e-06	1.184937e-06	2.949819e-10	8.208007e+00	1.901868e+01
2.110000e-06	1.230794e-06	3.142064e-10	8.525659e+00	2.044447e+01
2.120000e-06	1.276501e-06	3.316919e-10	8.842266e+00	2.186004e+01
2.130000e-06	1.322152e-06	3.489278e-10	9.158494e+00	2.326397e+01
2.140000e-06	1.367745e-06	3.655187e-10	9.474314e+00	2.465487e+01
2.150000e-06	1.413186e-06	3.823124e-10	9.789082e+00	2.603140e+01
2.160000e-06	1.458456e-06	4.012316e-10	1.010266e+01	2.739229e+01
2.170000e-06	1.503672e-06	4.233315e-10	1.041587e+01	2.873632e+01
2.180000e-06	1.548847e-06	4.453004e-10	1.072880e+01	3.006236e+01
2.190000e-06	1.593889e-06	4.638193e-10	1.104080e+01	3.136933e+01
2.200000e-06	1.638791e-06	4.807577e-10	1.135183e+01	3.265625e+01
2.210000e-06	1.683489e-06	4.974403e-10	1.166146e+01	3.392221e+01
2.220000e-06	1.727996e-06	5.141189e-10	1.196976e+01	3.516641e+01
2.230000e-06	1.772443e-06	5.324471e-10	1.227764e+01	3.638813e+01
2.240000e-06	1.816783e-06	5.479453e-10	1.258478e+01	3.758673e+01
2.250000e-06	1.860947e-06	5.609228e-10	1.289070e+01	3.876170e+01
2.260000e-06	1.905023e-06	5.737906e-10	1.319601e+01	3.991259e+01
2.270000e-06	1.949011e-06	5.877466e-10	1.350072e+01	4.103909e+01
2.280000e-06	1.992919e-06	6.024683e-10	1.380486e+01	4.214096e+01
2.290000e-06	2.036746e-06	6.173302e-10	1.410846e+01	4.321804e+01
2.300000e-06	2.080510e-06	6.312286e-10	1.441160e+01	4.427032e+01
2.310000e-06	2.124241e-06	6.451310e-10	1.471453e+01	4.529782e+01
2.320000e-06	2.167930e-06	6.589377e-10	1.501716e+01	4.630068e+01
2.330000e-06	2.211550e-06	6.710922e-10	1.531931e+01	4.727914e+01
2.340000e-06	2.255049e-06	6.817719e-10	1.562063e+01	4.823349e+01
2.350000e-06	2.298410e-06	6.931071e-10	1.592099e+01	4.916410e+01
2.360000e-06	2.341663e-06	7.052035e-10	1.622060e+01	5.007142e+01
2.370000e-06	2.384723e-06	7.175850e-10	1.651888e+01	5.095597e+01
2.380000e-06	2.427456e-06	7.296329e-10	1.681488e+01	5.181831e+01
2.390000e-06	2.469897e-06	7.410920e-10	1.710887e+01	5.265906e+01
2.400000e-06	2.512131e-06	7.525585e-10	1.740143e+01	5.347888e+01
2.410000e-06	2.553999e-06	7.642358e-10	1.769145e+01	5.427848e+01
2.420000e-06	2.595403e-06	7.776601e-10	1.797825e+01	5.505858e+01
2.430000e-06	2.636457e-06	7.908963e-10	1.826262e+01	5.581993e+01
2.440000e-06	2.677271e-06	8.022252e-10	1.854534e+01	5.656331e+01
2.450000e-06	2.717786e-06	8.127695e-10	1.882599e+01	5.728949e+01
2.460000e-06	2.758069e-06	8.228797e-10	1.910503e+01	5.799924e+01
2.470000e-06	2.798229e-06	8.321750e-10	1.938321e+01	5.869334e+01
2.480000e-06	2.838240e-06	8.417229e-10	1.966037e+01	5.937255e+01
2.490000e-06	2.878126e-06	8.518787e-10	1.993666e+01	6.003762e+01
2.500000e-06	2.917858e-06	8.632389e-10	2.021188e+01	6.068925e+01
2.510000e-06	2.957496e-06	8.747814e-10	2.048645e+01	6.132814e+01
2.520000e-06	2.997006e-06	8.856691e-10	2.076013e+01	6.195494e+01
2.530000e-06	3.036324e-06	8.955983e-10	2.103249e+01	6.257028e+01
2.540000e-06	3.075487e-06	9.026683e-10	2.130377e+01	6.317472e+01
2.550000e-06	3.114519e-06	9.073895e-10	2.157414e+01	6.376880e+01
2.560000e-06	3.153292e-06	9.130619e-10	2.184272e+01	6.435299e+01
2.570000e-06	3.191746e-06	9.196444e-10	2.210909e+01	6.492773e+01
2.580000e-06	3.229975e-06	9.278729e-10	2.237390e+01	6.549341e+01
2.590000e-06	3.267943e-06	9.376648e-10	2.263690e+01	6.605034e+01
2.600000e-06	3.305657e-06	9.474715e-10	2.289815e+01	6.659880e+01
2.610000e-06	3.343197e-06	9.560051e-10	2.315818e+01	6.713903e+01
2.620000e-06	3.380562e-06	9.646793e-10	2.341701e+01	6.767119e+01
2.630000e-06	3.417713e-06	9.737290e-10	2.367435e+01	6.819541e+01
2.640000e-06	3.454539e-06	9.798725e-10	2.392945e+01	6.871176e+01
2.650000e-06	3.491079e-06	9.842770e-10	2.418255e+01	6.922028e+01
2.660000e-06	3.527334e-06	9.907053e-10	2.443369e+01	6.972096e+01
2.670000e-06	3.563290e-06	9.976264e-10	2.468276e+01	7.021374e+01
2.680000e-06	3.599150e-06	1.004002e-09	2.493116e+01	7.069856e+01
2.690000e-06	3.634957e-06	1.010801e-09	2.517920e+01	7.117530e+01
2.700000e-06	3.670653e-06	1.018517e-09	2.542645e+01	7.164381e+01
2.710000e-06	3.706221e-06	1.026143e-09	2.567284e+01	7.210394e+01
2.720000e-06	3.741591e-06	1.032793e-09	2.591784e+01	7.255552e+01
2.730000e-06	3.776588e-06	1.041870e-09	2.616027e+01	7.299834e+01
2.740000e-06	3.811194e-06	1.052008e-09	2.639998e+01	7.343222e+01
2.750000e-06	3.845439e-06	1.059387e-09	2.663719e+01	7.385695e+01
2.760000e-06	3.879230e-06	1.063836e-09	2.687126e+01	7.427234e+01
2.770000e-06	3.912456e-06	1.068129e-09	2.710142e+01	7.467820e+01
2.780000e-06	3.945175e-06	1.073980e-09	2.732806e+01	7.507434e+01
2.790000e-06	3.977614e-06	1.081411e-09	2.755276e+01	7.546059e+01
2.800000e-06	4.009772e-06	1.090220e-09	2.777552e+01	7.583682e+01
2.810000e-06	4.041676e-06	1.100144e-09	2.799652e+01	7.620289e+01
2.820000e-06	4.073453e-06	1.108304e-09	2.821664e+01	7.655870e+01
2.830000e-06	4.105112e-06	1.113444e-09	2.843594e+01	7.690418e+01
2.840000e-06	4.136604e-06	1.115416e-09	2.865408e+01	7.723928e+01
2.850000e-06	4.167817e-06	1.115742e-09	2.887029e+01	7.756400e+01
2.860000e-06	4.198682e-06	1.118507e-09	2.908409e+01	7.787836e+01
2.870000e-06	4.229230e-06	1.123248e-09	2.929570e+01	7.818241e+01
2.880000e-06	4.259478e-06	1.128357e-09	2.950522e+01	7.847624e+01
2.890000e-06	4.289373e-06	1.134403e-09	2.971231e+01	7.875999e+01
2.900000e-06	4.319042e-06	1.141715e-09	2.991782e+01	7.903381e+01
