# Temperatura_=_-4.38
# Concentracion g/m^3_=_1620.0
# C_Vs_to_Am_M_A/Vsm_=_65563218390.804596
# pendiente_HvsI_1/m_=_3716.3
# ordenada_HvsI_A/m_=_1297.0
# frecuencia_Hz_=_135095.7129480065

Tiempo_(s)	Campo_(V.s)	Magnetizacion_(V.s)	Campo_(kA/m)	Magnetizacion_(A/m)
0.000000e+00	-5.541550e-06	-9.967724e-10	-3.838004e+01	-6.633805e+01
1.000000e-08	-5.541861e-06	-9.919415e-10	-3.838219e+01	-6.632779e+01
2.000000e-08	-5.541900e-06	-9.868944e-10	-3.838246e+01	-6.631807e+01
3.000000e-08	-5.541728e-06	-9.858768e-10	-3.838127e+01	-6.630889e+01
4.000000e-08	-5.541146e-06	-9.859943e-10	-3.837724e+01	-6.630024e+01
5.000000e-08	-5.539970e-06	-9.856922e-10	-3.836909e+01	-6.629208e+01
6.000000e-08	-5.538249e-06	-9.845915e-10	-3.835717e+01	-6.628437e+01
7.000000e-08	-5.535914e-06	-9.749929e-10	-3.834100e+01	-6.627701e+01
8.000000e-08	-5.533023e-06	-9.749542e-10	-3.832098e+01	-6.626994e+01
9.000000e-08	-5.529604e-06	-9.791359e-10	-3.829730e+01	-6.626302e+01
1.000000e-07	-5.525702e-06	-1.031259e-09	-3.827028e+01	-6.625614e+01
1.100000e-07	-5.521467e-06	-1.077745e-09	-3.824094e+01	-6.624915e+01
1.200000e-07	-5.516927e-06	-9.775937e-10	-3.820950e+01	-6.624189e+01
1.300000e-07	-5.512312e-06	-9.101560e-10	-3.817754e+01	-6.623418e+01
1.400000e-07	-5.507462e-06	-9.689114e-10	-3.814395e+01	-6.622583e+01
1.500000e-07	-5.502074e-06	-1.035928e-09	-3.810663e+01	-6.621663e+01
1.600000e-07	-5.496288e-06	-1.001881e-09	-3.806656e+01	-6.620637e+01
1.700000e-07	-5.490105e-06	-8.816324e-10	-3.802374e+01	-6.619483e+01
1.800000e-07	-5.483575e-06	-1.007917e-09	-3.797851e+01	-6.618178e+01
1.900000e-07	-5.476636e-06	-1.053287e-09	-3.793045e+01	-6.616698e+01
2.000000e-07	-5.469311e-06	-1.037560e-09	-3.787972e+01	-6.615019e+01
2.100000e-07	-5.461766e-06	-9.197151e-10	-3.782746e+01	-6.613118e+01
2.200000e-07	-5.453940e-06	-1.013617e-09	-3.777326e+01	-6.610970e+01
2.300000e-07	-5.445786e-06	-1.074956e-09	-3.771679e+01	-6.608551e+01
2.400000e-07	-5.437299e-06	-1.067699e-09	-3.765800e+01	-6.605839e+01
2.500000e-07	-5.428287e-06	-9.976581e-10	-3.759559e+01	-6.602811e+01
2.600000e-07	-5.418583e-06	-1.035987e-09	-3.752838e+01	-6.599445e+01
2.700000e-07	-5.408083e-06	-1.074891e-09	-3.745566e+01	-6.595720e+01
2.800000e-07	-5.397030e-06	-1.045507e-09	-3.737911e+01	-6.591618e+01
2.900000e-07	-5.385646e-06	-1.023394e-09	-3.730026e+01	-6.587119e+01
3.000000e-07	-5.373836e-06	-1.031154e-09	-3.721847e+01	-6.582207e+01
3.100000e-07	-5.361648e-06	-1.073048e-09	-3.713406e+01	-6.576867e+01
3.200000e-07	-5.349164e-06	-1.016515e-09	-3.704760e+01	-6.571086e+01
3.300000e-07	-5.336206e-06	-1.022228e-09	-3.695785e+01	-6.564853e+01
3.400000e-07	-5.322740e-06	-1.007895e-09	-3.686459e+01	-6.558157e+01
3.500000e-07	-5.308823e-06	-1.058184e-09	-3.676820e+01	-6.550992e+01
3.600000e-07	-5.294538e-06	-1.006023e-09	-3.666926e+01	-6.543351e+01
3.700000e-07	-5.279758e-06	-1.009483e-09	-3.656690e+01	-6.535231e+01
3.800000e-07	-5.264360e-06	-1.021945e-09	-3.646025e+01	-6.526632e+01
3.900000e-07	-5.248497e-06	-1.066167e-09	-3.635039e+01	-6.517552e+01
4.000000e-07	-5.232096e-06	-9.861439e-10	-3.623680e+01	-6.507995e+01
4.100000e-07	-5.215311e-06	-9.933582e-10	-3.612055e+01	-6.497966e+01
4.200000e-07	-5.198300e-06	-1.038156e-09	-3.600273e+01	-6.487471e+01
4.300000e-07	-5.181003e-06	-1.024158e-09	-3.588294e+01	-6.476518e+01
4.400000e-07	-5.163335e-06	-9.402665e-10	-3.576057e+01	-6.465116e+01
4.500000e-07	-5.145360e-06	-1.026589e-09	-3.563608e+01	-6.453278e+01
4.600000e-07	-5.126982e-06	-1.055186e-09	-3.550879e+01	-6.441017e+01
4.700000e-07	-5.108145e-06	-9.661701e-10	-3.537833e+01	-6.428347e+01
4.800000e-07	-5.088956e-06	-9.515416e-10	-3.524543e+01	-6.415282e+01
4.900000e-07	-5.069494e-06	-1.052713e-09	-3.511064e+01	-6.401841e+01
5.000000e-07	-5.049838e-06	-9.915064e-10	-3.497451e+01	-6.388040e+01
5.100000e-07	-5.030024e-06	-9.351481e-10	-3.483727e+01	-6.373897e+01
5.200000e-07	-5.009963e-06	-1.008163e-09	-3.469834e+01	-6.359431e+01
5.300000e-07	-4.989568e-06	-1.003584e-09	-3.455709e+01	-6.344662e+01
5.400000e-07	-4.968692e-06	-9.209526e-10	-3.441250e+01	-6.329608e+01
5.500000e-07	-4.947448e-06	-9.867478e-10	-3.426536e+01	-6.314288e+01
5.600000e-07	-4.925999e-06	-1.031692e-09	-3.411681e+01	-6.298723e+01
5.700000e-07	-4.904242e-06	-9.291744e-10	-3.396613e+01	-6.282931e+01
5.800000e-07	-4.882087e-06	-9.393228e-10	-3.381268e+01	-6.266930e+01
5.900000e-07	-4.859539e-06	-1.014879e-09	-3.365652e+01	-6.250738e+01
6.000000e-07	-4.836611e-06	-9.595328e-10	-3.349772e+01	-6.234373e+01
6.100000e-07	-4.813330e-06	-9.124747e-10	-3.333648e+01	-6.217852e+01
6.200000e-07	-4.789826e-06	-9.914860e-10	-3.317370e+01	-6.201189e+01
6.300000e-07	-4.766126e-06	-9.618907e-10	-3.300956e+01	-6.184400e+01
6.400000e-07	-4.742184e-06	-9.086400e-10	-3.284373e+01	-6.167497e+01
6.500000e-07	-4.717990e-06	-9.488211e-10	-3.267617e+01	-6.150493e+01
6.600000e-07	-4.693404e-06	-9.739411e-10	-3.250589e+01	-6.133398e+01
6.700000e-07	-4.668229e-06	-9.119331e-10	-3.233153e+01	-6.116224e+01
6.800000e-07	-4.642444e-06	-9.424291e-10	-3.215295e+01	-6.098977e+01
6.900000e-07	-4.616117e-06	-9.607188e-10	-3.197061e+01	-6.081665e+01
7.000000e-07	-4.589288e-06	-9.279677e-10	-3.178480e+01	-6.064293e+01
7.100000e-07	-4.562010e-06	-9.155861e-10	-3.159588e+01	-6.046865e+01
7.200000e-07	-4.534471e-06	-9.490813e-10	-3.140514e+01	-6.029385e+01
7.300000e-07	-4.506782e-06	-9.111361e-10	-3.121337e+01	-6.011854e+01
7.400000e-07	-4.478975e-06	-9.010958e-10	-3.102078e+01	-5.994273e+01
7.500000e-07	-4.451018e-06	-9.232511e-10	-3.082716e+01	-5.976639e+01
7.600000e-07	-4.422715e-06	-9.194778e-10	-3.063113e+01	-5.958951e+01
7.700000e-07	-4.393959e-06	-8.937232e-10	-3.043197e+01	-5.941205e+01
7.800000e-07	-4.364897e-06	-9.139599e-10	-3.023070e+01	-5.923397e+01
7.900000e-07	-4.335527e-06	-9.087676e-10	-3.002728e+01	-5.905521e+01
8.000000e-07	-4.305866e-06	-8.904572e-10	-2.982185e+01	-5.887572e+01
8.100000e-07	-4.276035e-06	-8.973665e-10	-2.961525e+01	-5.869540e+01
8.200000e-07	-4.245883e-06	-9.019644e-10	-2.940642e+01	-5.851420e+01
8.300000e-07	-4.215423e-06	-8.789214e-10	-2.919546e+01	-5.833200e+01
8.400000e-07	-4.184630e-06	-8.786416e-10	-2.898219e+01	-5.814872e+01
8.500000e-07	-4.153473e-06	-8.901762e-10	-2.876640e+01	-5.796426e+01
8.600000e-07	-4.122133e-06	-8.745712e-10	-2.854935e+01	-5.777852e+01
8.700000e-07	-4.090628e-06	-8.698188e-10	-2.833115e+01	-5.759137e+01
8.800000e-07	-4.058972e-06	-8.800272e-10	-2.811190e+01	-5.740272e+01
8.900000e-07	-4.027193e-06	-8.752993e-10	-2.789180e+01	-5.721243e+01
9.000000e-07	-3.995230e-06	-8.564135e-10	-2.767043e+01	-5.702040e+01
9.100000e-07	-3.962976e-06	-8.634252e-10	-2.744704e+01	-5.682650e+01
9.200000e-07	-3.930356e-06	-8.537522e-10	-2.722112e+01	-5.663061e+01
9.300000e-07	-3.897255e-06	-8.398359e-10	-2.699187e+01	-5.643260e+01
9.400000e-07	-3.863688e-06	-8.405340e-10	-2.675939e+01	-5.623236e+01
9.500000e-07	-3.829697e-06	-8.543046e-10	-2.652397e+01	-5.602975e+01
9.600000e-07	-3.795243e-06	-8.416005e-10	-2.628535e+01	-5.582466e+01
9.700000e-07	-3.760411e-06	-8.422745e-10	-2.604411e+01	-5.561696e+01
9.800000e-07	-3.725301e-06	-8.447249e-10	-2.580094e+01	-5.540652e+01
9.900000e-07	-3.689967e-06	-8.371641e-10	-2.555622e+01	-5.519322e+01
1.000000e-06	-3.654459e-06	-8.210851e-10	-2.531029e+01	-5.497693e+01
1.010000e-06	-3.618780e-06	-8.260996e-10	-2.506319e+01	-5.475754e+01
1.020000e-06	-3.582939e-06	-8.188151e-10	-2.481496e+01	-5.453492e+01
1.030000e-06	-3.546978e-06	-8.115035e-10	-2.456589e+01	-5.430895e+01
1.040000e-06	-3.510764e-06	-8.108147e-10	-2.431509e+01	-5.407949e+01
1.050000e-06	-3.474229e-06	-8.134562e-10	-2.406204e+01	-5.384644e+01
1.060000e-06	-3.437430e-06	-7.983393e-10	-2.380718e+01	-5.360966e+01
1.070000e-06	-3.400435e-06	-7.910173e-10	-2.355096e+01	-5.336903e+01
1.080000e-06	-3.363169e-06	-7.907258e-10	-2.329286e+01	-5.312442e+01
1.090000e-06	-3.325616e-06	-7.882784e-10	-2.303277e+01	-5.287571e+01
1.100000e-06	-3.287897e-06	-7.838976e-10	-2.277154e+01	-5.262277e+01
1.110000e-06	-3.249938e-06	-7.847204e-10	-2.250864e+01	-5.236548e+01
1.120000e-06	-3.211624e-06	-7.783025e-10	-2.224328e+01	-5.210370e+01
1.130000e-06	-3.173047e-06	-7.674485e-10	-2.197610e+01	-5.183731e+01
1.140000e-06	-3.134269e-06	-7.622441e-10	-2.170753e+01	-5.156617e+01
1.150000e-06	-3.095355e-06	-7.551477e-10	-2.143801e+01	-5.129015e+01
1.160000e-06	-3.056312e-06	-7.473838e-10	-2.116761e+01	-5.100912e+01
1.170000e-06	-3.017075e-06	-7.433284e-10	-2.089586e+01	-5.072294e+01
1.180000e-06	-2.977632e-06	-7.437762e-10	-2.062268e+01	-5.043148e+01
1.190000e-06	-2.938014e-06	-7.392052e-10	-2.034829e+01	-5.013460e+01
1.200000e-06	-2.898327e-06	-7.368921e-10	-2.007343e+01	-4.983216e+01
1.210000e-06	-2.858578e-06	-7.306231e-10	-1.979813e+01	-4.952403e+01
1.220000e-06	-2.818677e-06	-7.223748e-10	-1.952178e+01	-4.921007e+01
1.230000e-06	-2.778547e-06	-7.099647e-10	-1.924385e+01	-4.889013e+01
1.240000e-06	-2.738139e-06	-7.068052e-10	-1.896399e+01	-4.856410e+01
1.250000e-06	-2.697484e-06	-7.003453e-10	-1.868241e+01	-4.823181e+01
1.260000e-06	-2.656564e-06	-6.962370e-10	-1.839901e+01	-4.789315e+01
1.270000e-06	-2.615413e-06	-6.945551e-10	-1.811400e+01	-4.754798e+01
1.280000e-06	-2.574119e-06	-6.935776e-10	-1.782800e+01	-4.719615e+01
1.290000e-06	-2.532466e-06	-6.866561e-10	-1.753952e+01	-4.683754e+01
1.300000e-06	-2.490411e-06	-6.799806e-10	-1.724826e+01	-4.647202e+01
1.310000e-06	-2.448134e-06	-6.689054e-10	-1.695545e+01	-4.609946e+01
1.320000e-06	-2.405703e-06	-6.586611e-10	-1.666157e+01	-4.571973e+01
1.330000e-06	-2.362949e-06	-6.486201e-10	-1.636547e+01	-4.533271e+01
1.340000e-06	-2.319842e-06	-6.448743e-10	-1.606692e+01	-4.493828e+01
1.350000e-06	-2.276532e-06	-6.400855e-10	-1.576696e+01	-4.453631e+01
1.360000e-06	-2.233061e-06	-6.355462e-10	-1.546588e+01	-4.412669e+01
1.370000e-06	-2.189518e-06	-6.280555e-10	-1.516431e+01	-4.370931e+01
1.380000e-06	-2.145906e-06	-6.210197e-10	-1.486226e+01	-4.328404e+01
1.390000e-06	-2.102161e-06	-6.128441e-10	-1.455929e+01	-4.285079e+01
1.400000e-06	-2.058306e-06	-6.038133e-10	-1.425555e+01	-4.240943e+01
1.410000e-06	-2.014416e-06	-5.931822e-10	-1.395158e+01	-4.195986e+01
1.420000e-06	-1.970432e-06	-5.839400e-10	-1.364695e+01	-4.150197e+01
1.430000e-06	-1.926295e-06	-5.755005e-10	-1.334126e+01	-4.103566e+01
1.440000e-06	-1.882084e-06	-5.688251e-10	-1.303506e+01	-4.056082e+01
1.450000e-06	-1.837809e-06	-5.648960e-10	-1.272842e+01	-4.007734e+01
1.460000e-06	-1.793428e-06	-5.604231e-10	-1.242105e+01	-3.958511e+01
1.470000e-06	-1.748873e-06	-5.510086e-10	-1.211246e+01	-3.908403e+01
1.480000e-06	-1.704205e-06	-5.370056e-10	-1.180310e+01	-3.857398e+01
1.490000e-06	-1.659419e-06	-5.250320e-10	-1.149292e+01	-3.805484e+01
1.500000e-06	-1.614451e-06	-5.141289e-10	-1.118147e+01	-3.752650e+01
1.510000e-06	-1.569338e-06	-5.065158e-10	-1.086902e+01	-3.698884e+01
1.520000e-06	-1.524090e-06	-4.997757e-10	-1.055565e+01	-3.644174e+01
1.530000e-06	-1.478750e-06	-4.912249e-10	-1.024162e+01	-3.588505e+01
1.540000e-06	-1.433303e-06	-4.773592e-10	-9.926869e+00	-3.531866e+01
1.550000e-06	-1.387803e-06	-4.671530e-10	-9.611741e+00	-3.474241e+01
1.560000e-06	-1.342202e-06	-4.538056e-10	-9.295912e+00	-3.415617e+01
1.570000e-06	-1.296528e-06	-4.420137e-10	-8.979578e+00	-3.355978e+01
1.580000e-06	-1.250750e-06	-4.331439e-10	-8.662529e+00	-3.295308e+01
1.590000e-06	-1.204821e-06	-4.281193e-10	-8.344427e+00	-3.233591e+01
1.600000e-06	-1.158884e-06	-4.187564e-10	-8.026278e+00	-3.170810e+01
1.610000e-06	-1.112845e-06	-4.099200e-10	-7.707414e+00	-3.106947e+01
1.620000e-06	-1.066626e-06	-3.987552e-10	-7.387312e+00	-3.041986e+01
1.630000e-06	-1.020322e-06	-3.861540e-10	-7.066611e+00	-2.975907e+01
1.640000e-06	-9.739424e-07	-3.730806e-10	-6.745395e+00	-2.908692e+01
1.650000e-06	-9.275245e-07	-3.588845e-10	-6.423911e+00	-2.840322e+01
1.660000e-06	-8.811409e-07	-3.463197e-10	-6.102664e+00	-2.770778e+01
1.670000e-06	-8.346553e-07	-3.352885e-10	-5.780711e+00	-2.700041e+01
1.680000e-06	-7.880628e-07	-3.277366e-10	-5.458018e+00	-2.628092e+01
1.690000e-06	-7.414381e-07	-3.193587e-10	-5.135101e+00	-2.554911e+01
1.700000e-06	-6.947781e-07	-3.110593e-10	-4.811941e+00	-2.480482e+01
1.710000e-06	-6.481248e-07	-2.998230e-10	-4.488826e+00	-2.404786e+01
1.720000e-06	-6.014211e-07	-2.833624e-10	-4.165362e+00	-2.327807e+01
1.730000e-06	-5.546179e-07	-2.662754e-10	-3.841209e+00	-2.249528e+01
1.740000e-06	-5.077848e-07	-2.507321e-10	-3.516850e+00	-2.169935e+01
1.750000e-06	-4.609448e-07	-2.377966e-10	-3.192442e+00	-2.089015e+01
1.760000e-06	-4.141136e-07	-2.275197e-10	-2.868095e+00	-2.006756e+01
1.770000e-06	-3.671623e-07	-2.173135e-10	-2.542917e+00	-1.923149e+01
1.780000e-06	-3.201147e-07	-2.086142e-10	-2.217071e+00	-1.838187e+01
1.790000e-06	-2.730518e-07	-2.009019e-10	-1.891120e+00	-1.751864e+01
1.800000e-06	-2.259084e-07	-1.892247e-10	-1.564611e+00	-1.664178e+01
1.810000e-06	-1.788338e-07	-1.712674e-10	-1.238579e+00	-1.575130e+01
1.820000e-06	-1.317878e-07	-1.522023e-10	-9.127450e-01	-1.484722e+01
1.830000e-06	-8.471725e-08	-1.360980e-10	-5.867404e-01	-1.392963e+01
1.840000e-06	-3.775071e-08	-1.238642e-10	-2.614564e-01	-1.299861e+01
1.850000e-06	9.163428e-09	-1.125550e-10	6.346468e-02	-1.205432e+01
1.860000e-06	5.623964e-08	-1.042901e-10	3.895082e-01	-1.109694e+01
1.870000e-06	1.033155e-07	-9.403443e-11	7.155491e-01	-1.012667e+01
1.880000e-06	1.502812e-07	-8.113768e-11	1.040827e+00	-9.143790e+00
1.890000e-06	1.972105e-07	-6.687783e-11	1.365853e+00	-8.148596e+00
1.900000e-06	2.441071e-07	-5.115007e-11	1.690653e+00	-7.141438e+00
1.910000e-06	2.910607e-07	-3.586409e-11	2.015847e+00	-6.122708e+00
1.920000e-06	3.380086e-07	-2.213674e-11	2.341003e+00	-5.092845e+00
1.930000e-06	3.849483e-07	-9.351783e-12	2.666101e+00	-4.052328e+00
1.940000e-06	4.318651e-07	3.479917e-12	2.991040e+00	-3.001687e+00
1.950000e-06	4.787288e-07	1.369931e-11	3.315612e+00	-1.941492e+00
1.960000e-06	5.255109e-07	2.298278e-11	3.639618e+00	-8.723579e-01
1.970000e-06	5.721934e-07	3.455636e-11	3.962935e+00	2.050591e-01
1.980000e-06	6.188164e-07	4.847810e-11	4.285840e+00	1.290061e+00
1.990000e-06	6.653720e-07	6.373478e-11	4.608277e+00	2.381912e+00
2.000000e-06	7.119069e-07	8.020526e-11	4.930573e+00	3.479838e+00
2.010000e-06	7.584636e-07	9.701400e-11	5.253018e+00	4.583032e+00
2.020000e-06	8.050203e-07	1.133247e-10	5.575463e+00	5.690653e+00
2.030000e-06	8.516271e-07	1.276229e-10	5.898256e+00	6.801833e+00
2.040000e-06	8.981601e-07	1.411198e-10	6.220537e+00	7.915677e+00
2.050000e-06	9.444520e-07	1.537710e-10	6.541148e+00	9.031270e+00
2.060000e-06	9.906472e-07	1.666818e-10	6.861090e+00	1.014767e+01
2.070000e-06	1.036833e-06	1.805526e-10	7.180970e+00	1.126394e+01
2.080000e-06	1.082925e-06	1.967045e-10	7.500196e+00	1.237911e+01
2.090000e-06	1.128921e-06	2.122748e-10	7.818759e+00	1.349222e+01
2.100000e-06	1.174801e-06	2.274676e-10	8.136516e+00	1.460229e+01
2.110000e-06	1.220575e-06	2.427184e-10	8.453541e+00	1.570835e+01
2.120000e-06	1.266270e-06	2.569071e-10	8.770015e+00	1.680945e+01
2.130000e-06	1.311873e-06	2.724533e-10	9.085856e+00	1.790464e+01
2.140000e-06	1.357476e-06	2.882399e-10	9.401696e+00	1.899297e+01
2.150000e-06	1.403002e-06	3.017421e-10	9.717003e+00	2.007353e+01
2.160000e-06	1.448430e-06	3.141758e-10	1.003163e+01	2.114543e+01
2.170000e-06	1.493762e-06	3.278633e-10	1.034560e+01	2.220780e+01
2.180000e-06	1.538893e-06	3.429937e-10	1.065817e+01	2.325980e+01
2.190000e-06	1.583950e-06	3.589150e-10	1.097023e+01	2.430064e+01
2.200000e-06	1.628921e-06	3.739643e-10	1.128169e+01	2.532955e+01
2.210000e-06	1.673722e-06	3.873705e-10	1.159197e+01	2.634581e+01
2.220000e-06	1.718397e-06	3.992791e-10	1.190139e+01	2.734874e+01
2.230000e-06	1.762964e-06	4.125988e-10	1.221005e+01	2.833772e+01
2.240000e-06	1.807413e-06	4.266564e-10	1.251790e+01	2.931216e+01
2.250000e-06	1.851738e-06	4.393385e-10	1.282489e+01	3.027155e+01
2.260000e-06	1.895899e-06	4.515430e-10	1.313074e+01	3.121539e+01
2.270000e-06	1.939913e-06	4.640945e-10	1.343558e+01	3.214327e+01
2.280000e-06	1.983799e-06	4.761921e-10	1.373953e+01	3.305481e+01
2.290000e-06	2.027624e-06	4.868883e-10	1.404305e+01	3.394972e+01
2.300000e-06	2.071447e-06	4.964853e-10	1.434657e+01	3.482774e+01
2.310000e-06	2.115177e-06	5.068071e-10	1.464944e+01	3.568865e+01
2.320000e-06	2.158815e-06	5.205751e-10	1.495166e+01	3.653232e+01
2.330000e-06	2.202333e-06	5.348525e-10	1.525306e+01	3.735865e+01
2.340000e-06	2.245728e-06	5.453088e-10	1.555361e+01	3.816760e+01
2.350000e-06	2.289067e-06	5.545319e-10	1.585377e+01	3.895918e+01
2.360000e-06	2.332308e-06	5.626607e-10	1.615326e+01	3.973344e+01
2.370000e-06	2.375361e-06	5.687599e-10	1.645143e+01	4.049050e+01
2.380000e-06	2.418140e-06	5.747702e-10	1.674771e+01	4.123049e+01
2.390000e-06	2.460647e-06	5.832891e-10	1.704211e+01	4.195360e+01
2.400000e-06	2.502938e-06	5.950250e-10	1.733502e+01	4.266005e+01
2.410000e-06	2.544951e-06	6.076475e-10	1.762599e+01	4.335010e+01
2.420000e-06	2.586591e-06	6.203305e-10	1.791439e+01	4.402405e+01
2.430000e-06	2.627854e-06	6.327669e-10	1.820017e+01	4.468219e+01
2.440000e-06	2.668838e-06	6.443271e-10	1.848402e+01	4.532488e+01
2.450000e-06	2.709578e-06	6.547481e-10	1.876618e+01	4.595246e+01
2.460000e-06	2.750020e-06	6.644629e-10	1.904627e+01	4.656531e+01
2.470000e-06	2.790213e-06	6.729886e-10	1.932464e+01	4.716382e+01
2.480000e-06	2.830262e-06	6.807664e-10	1.960202e+01	4.774836e+01
2.490000e-06	2.870126e-06	6.875156e-10	1.987811e+01	4.831934e+01
2.500000e-06	2.909799e-06	6.940743e-10	2.015288e+01	4.887716e+01
2.510000e-06	2.949398e-06	7.030347e-10	2.042713e+01	4.942221e+01
2.520000e-06	2.988961e-06	7.120840e-10	2.070115e+01	4.995487e+01
2.530000e-06	3.028333e-06	7.206971e-10	2.097383e+01	5.047553e+01
2.540000e-06	3.067523e-06	7.282958e-10	2.124526e+01	5.098455e+01
2.550000e-06	3.106549e-06	7.334791e-10	2.151554e+01	5.148229e+01
2.560000e-06	3.145220e-06	7.377042e-10	2.178337e+01	5.196907e+01
2.570000e-06	3.183640e-06	7.424206e-10	2.204947e+01	5.244522e+01
2.580000e-06	3.221830e-06	7.469299e-10	2.231396e+01	5.291104e+01
2.590000e-06	3.259814e-06	7.512042e-10	2.257704e+01	5.336680e+01
2.600000e-06	3.297600e-06	7.564834e-10	2.283873e+01	5.381275e+01
2.610000e-06	3.335168e-06	7.628108e-10	2.309893e+01	5.424912e+01
2.620000e-06	3.372551e-06	7.717749e-10	2.335784e+01	5.467612e+01
2.630000e-06	3.409654e-06	7.808986e-10	2.361481e+01	5.509392e+01
2.640000e-06	3.446499e-06	7.886761e-10	2.386999e+01	5.550269e+01
2.650000e-06	3.483087e-06	7.924624e-10	2.412340e+01	5.590254e+01
2.660000e-06	3.519395e-06	7.954694e-10	2.437486e+01	5.629360e+01
2.670000e-06	3.555495e-06	7.981542e-10	2.462488e+01	5.667595e+01
2.680000e-06	3.591416e-06	8.020604e-10	2.487367e+01	5.704966e+01
2.690000e-06	3.627156e-06	8.086508e-10	2.512120e+01	5.741477e+01
2.700000e-06	3.662779e-06	8.165392e-10	2.536792e+01	5.777131e+01
2.710000e-06	3.698305e-06	8.246199e-10	2.561397e+01	5.811930e+01
2.720000e-06	3.733625e-06	8.303598e-10	2.585859e+01	5.845874e+01
2.730000e-06	3.768716e-06	8.369411e-10	2.610163e+01	5.878962e+01
2.740000e-06	3.803604e-06	8.425272e-10	2.634325e+01	5.911191e+01
2.750000e-06	3.838042e-06	8.472692e-10	2.658177e+01	5.942560e+01
2.760000e-06	3.871890e-06	8.521380e-10	2.681619e+01	5.973064e+01
2.770000e-06	3.905271e-06	8.563156e-10	2.704739e+01	6.002701e+01
2.780000e-06	3.938179e-06	8.622883e-10	2.727530e+01	6.031468e+01
2.790000e-06	3.970666e-06	8.681357e-10	2.750030e+01	6.059361e+01
2.800000e-06	4.002823e-06	8.721887e-10	2.772302e+01	6.086378e+01
2.810000e-06	4.034718e-06	8.770090e-10	2.794392e+01	6.112517e+01
2.820000e-06	4.066471e-06	8.819105e-10	2.816384e+01	6.137777e+01
2.830000e-06	4.098093e-06	8.871322e-10	2.838285e+01	6.162160e+01
2.840000e-06	4.129554e-06	8.911493e-10	2.860074e+01	6.185666e+01
2.850000e-06	4.160767e-06	8.948435e-10	2.881692e+01	6.208299e+01
2.860000e-06	4.191649e-06	8.997476e-10	2.903080e+01	6.230063e+01
2.870000e-06	4.222188e-06	9.053054e-10	2.924231e+01	6.250964e+01
2.880000e-06	4.252464e-06	9.068960e-10	2.945200e+01	6.271012e+01
2.890000e-06	4.282436e-06	9.078754e-10	2.965958e+01	6.290216e+01
2.900000e-06	4.312109e-06	9.092210e-10	2.986509e+01	6.308588e+01
