# Temperatura_=_-0.25
# Concentracion g/m^3_=_1620.0
# C_Vs_to_Am_M_A/Vsm_=_65563218390.804596
# pendiente_HvsI_1/m_=_3716.3
# ordenada_HvsI_A/m_=_1297.0
# frecuencia_Hz_=_135108.35278314567

Tiempo_(s)	Campo_(V.s)	Magnetizacion_(V.s)	Campo_(kA/m)	Magnetizacion_(A/m)
0.000000e+00	-5.520937e-06	-1.137085e-09	-3.836020e+01	-7.486402e+01
1.000000e-08	-5.521183e-06	-1.139355e-09	-3.836191e+01	-7.487530e+01
2.000000e-08	-5.521000e-06	-1.143565e-09	-3.836064e+01	-7.488453e+01
3.000000e-08	-5.520372e-06	-1.146963e-09	-3.835628e+01	-7.489168e+01
4.000000e-08	-5.519297e-06	-1.145763e-09	-3.834881e+01	-7.489670e+01
5.000000e-08	-5.517650e-06	-1.139543e-09	-3.833736e+01	-7.489954e+01
6.000000e-08	-5.515394e-06	-1.119302e-09	-3.832169e+01	-7.490016e+01
7.000000e-08	-5.512551e-06	-1.097410e-09	-3.830194e+01	-7.489851e+01
8.000000e-08	-5.509251e-06	-1.128389e-09	-3.827901e+01	-7.489454e+01
9.000000e-08	-5.505575e-06	-1.212888e-09	-3.825347e+01	-7.488822e+01
1.000000e-07	-5.501416e-06	-1.216525e-09	-3.822457e+01	-7.487949e+01
1.100000e-07	-5.496781e-06	-1.119180e-09	-3.819236e+01	-7.486831e+01
1.200000e-07	-5.491983e-06	-1.052889e-09	-3.815903e+01	-7.485466e+01
1.300000e-07	-5.487071e-06	-1.124376e-09	-3.812490e+01	-7.483849e+01
1.400000e-07	-5.481757e-06	-1.179379e-09	-3.808798e+01	-7.481978e+01
1.500000e-07	-5.475991e-06	-1.102995e-09	-3.804791e+01	-7.479851e+01
1.600000e-07	-5.469959e-06	-1.064231e-09	-3.800600e+01	-7.477465e+01
1.700000e-07	-5.463648e-06	-1.156664e-09	-3.796215e+01	-7.474821e+01
1.800000e-07	-5.456814e-06	-1.229190e-09	-3.791467e+01	-7.471916e+01
1.900000e-07	-5.449536e-06	-1.143182e-09	-3.786410e+01	-7.468753e+01
2.000000e-07	-5.442074e-06	-1.062395e-09	-3.781225e+01	-7.465331e+01
2.100000e-07	-5.434424e-06	-1.114163e-09	-3.775910e+01	-7.461653e+01
2.200000e-07	-5.426395e-06	-1.197889e-09	-3.770332e+01	-7.457719e+01
2.300000e-07	-5.417983e-06	-1.187639e-09	-3.764487e+01	-7.453533e+01
2.400000e-07	-5.409113e-06	-1.158782e-09	-3.758324e+01	-7.449098e+01
2.500000e-07	-5.399570e-06	-1.171168e-09	-3.751693e+01	-7.444417e+01
2.600000e-07	-5.389237e-06	-1.184856e-09	-3.744513e+01	-7.439495e+01
2.700000e-07	-5.378291e-06	-1.155144e-09	-3.736908e+01	-7.434334e+01
2.800000e-07	-5.367007e-06	-1.138604e-09	-3.729068e+01	-7.428940e+01
2.900000e-07	-5.355368e-06	-1.165128e-09	-3.720981e+01	-7.423316e+01
3.000000e-07	-5.343343e-06	-1.173300e-09	-3.712626e+01	-7.417467e+01
3.100000e-07	-5.330910e-06	-1.141684e-09	-3.703987e+01	-7.411396e+01
3.200000e-07	-5.318083e-06	-1.127654e-09	-3.695075e+01	-7.405109e+01
3.300000e-07	-5.304870e-06	-1.149273e-09	-3.685894e+01	-7.398606e+01
3.400000e-07	-5.291282e-06	-1.152758e-09	-3.676453e+01	-7.391893e+01
3.500000e-07	-5.277262e-06	-1.119691e-09	-3.666712e+01	-7.384970e+01
3.600000e-07	-5.262738e-06	-1.110794e-09	-3.656620e+01	-7.377838e+01
3.700000e-07	-5.247803e-06	-1.145683e-09	-3.646243e+01	-7.370500e+01
3.800000e-07	-5.232272e-06	-1.142867e-09	-3.635452e+01	-7.362953e+01
3.900000e-07	-5.216054e-06	-1.110963e-09	-3.624184e+01	-7.355197e+01
4.000000e-07	-5.199490e-06	-1.126505e-09	-3.612675e+01	-7.347229e+01
4.100000e-07	-5.182721e-06	-1.157025e-09	-3.601023e+01	-7.339046e+01
4.200000e-07	-5.165659e-06	-1.111435e-09	-3.589168e+01	-7.330643e+01
4.300000e-07	-5.148269e-06	-1.089430e-09	-3.577086e+01	-7.322013e+01
4.400000e-07	-5.130535e-06	-1.141283e-09	-3.564764e+01	-7.313150e+01
4.500000e-07	-5.112376e-06	-1.143844e-09	-3.552147e+01	-7.304045e+01
4.600000e-07	-5.093779e-06	-1.084971e-09	-3.539225e+01	-7.294690e+01
4.700000e-07	-5.074788e-06	-1.102211e-09	-3.526030e+01	-7.285073e+01
4.800000e-07	-5.055518e-06	-1.143614e-09	-3.512641e+01	-7.275183e+01
4.900000e-07	-5.036075e-06	-1.108778e-09	-3.499132e+01	-7.265008e+01
5.000000e-07	-5.016447e-06	-1.087877e-09	-3.485494e+01	-7.254534e+01
5.100000e-07	-4.996583e-06	-1.115718e-09	-3.471693e+01	-7.243748e+01
5.200000e-07	-4.976370e-06	-1.094313e-09	-3.457648e+01	-7.232636e+01
5.300000e-07	-4.955715e-06	-1.074322e-09	-3.443297e+01	-7.221183e+01
5.400000e-07	-4.934669e-06	-1.117339e-09	-3.428673e+01	-7.209374e+01
5.500000e-07	-4.913290e-06	-1.114610e-09	-3.413819e+01	-7.197194e+01
5.600000e-07	-4.891625e-06	-1.062311e-09	-3.398766e+01	-7.184628e+01
5.700000e-07	-4.869717e-06	-1.075500e-09	-3.383544e+01	-7.171662e+01
5.800000e-07	-4.847355e-06	-1.100550e-09	-3.368006e+01	-7.158283e+01
5.900000e-07	-4.824518e-06	-1.065129e-09	-3.352140e+01	-7.144478e+01
6.000000e-07	-4.801414e-06	-1.057549e-09	-3.336086e+01	-7.130234e+01
6.100000e-07	-4.778072e-06	-1.084699e-09	-3.319868e+01	-7.115541e+01
6.200000e-07	-4.754512e-06	-1.066907e-09	-3.303498e+01	-7.100389e+01
6.300000e-07	-4.730775e-06	-1.044395e-09	-3.287005e+01	-7.084771e+01
6.400000e-07	-4.706789e-06	-1.064229e-09	-3.270339e+01	-7.068679e+01
6.500000e-07	-4.682362e-06	-1.063978e-09	-3.253367e+01	-7.052110e+01
6.600000e-07	-4.657417e-06	-1.045807e-09	-3.236035e+01	-7.035062e+01
6.700000e-07	-4.631973e-06	-1.053122e-09	-3.218357e+01	-7.017534e+01
6.800000e-07	-4.605893e-06	-1.055833e-09	-3.200236e+01	-6.999527e+01
6.900000e-07	-4.579193e-06	-1.038520e-09	-3.181684e+01	-6.981046e+01
7.000000e-07	-4.552130e-06	-1.036554e-09	-3.162880e+01	-6.962098e+01
7.100000e-07	-4.524842e-06	-1.038426e-09	-3.143920e+01	-6.942691e+01
7.200000e-07	-4.497379e-06	-1.028581e-09	-3.124838e+01	-6.922835e+01
7.300000e-07	-4.469727e-06	-1.027947e-09	-3.105626e+01	-6.902545e+01
7.400000e-07	-4.441849e-06	-1.036425e-09	-3.086256e+01	-6.881835e+01
7.500000e-07	-4.413732e-06	-1.031021e-09	-3.066720e+01	-6.860723e+01
7.600000e-07	-4.385315e-06	-1.024262e-09	-3.046975e+01	-6.839228e+01
7.700000e-07	-4.356463e-06	-1.024359e-09	-3.026928e+01	-6.817372e+01
7.800000e-07	-4.327243e-06	-1.020565e-09	-3.006626e+01	-6.795177e+01
7.900000e-07	-4.297798e-06	-1.016566e-09	-2.986167e+01	-6.772668e+01
8.000000e-07	-4.268178e-06	-1.018168e-09	-2.965587e+01	-6.749869e+01
8.100000e-07	-4.238282e-06	-1.012457e-09	-2.944814e+01	-6.726807e+01
8.200000e-07	-4.208051e-06	-1.004103e-09	-2.923810e+01	-6.703509e+01
8.300000e-07	-4.177529e-06	-1.005358e-09	-2.902603e+01	-6.680003e+01
8.400000e-07	-4.146654e-06	-1.006229e-09	-2.881150e+01	-6.656314e+01
8.500000e-07	-4.115509e-06	-1.000225e-09	-2.859511e+01	-6.632471e+01
8.600000e-07	-4.084210e-06	-9.977363e-10	-2.837764e+01	-6.608500e+01
8.700000e-07	-4.052761e-06	-9.959609e-10	-2.815912e+01	-6.584426e+01
8.800000e-07	-4.021152e-06	-9.888567e-10	-2.793950e+01	-6.560273e+01
8.900000e-07	-3.989311e-06	-9.848240e-10	-2.771826e+01	-6.536064e+01
9.000000e-07	-3.957117e-06	-9.829158e-10	-2.749458e+01	-6.511819e+01
9.100000e-07	-3.924609e-06	-9.750521e-10	-2.726871e+01	-6.487558e+01
9.200000e-07	-3.891785e-06	-9.683694e-10	-2.704064e+01	-6.463296e+01
9.300000e-07	-3.858503e-06	-9.704688e-10	-2.680939e+01	-6.439047e+01
9.400000e-07	-3.824678e-06	-9.704243e-10	-2.657437e+01	-6.414821e+01
9.500000e-07	-3.790382e-06	-9.668189e-10	-2.633608e+01	-6.390624e+01
9.600000e-07	-3.755693e-06	-9.652151e-10	-2.609505e+01	-6.366461e+01
9.700000e-07	-3.720657e-06	-9.626602e-10	-2.585162e+01	-6.342332e+01
9.800000e-07	-3.685380e-06	-9.553762e-10	-2.560651e+01	-6.318232e+01
9.900000e-07	-3.649939e-06	-9.506105e-10	-2.536026e+01	-6.294155e+01
1.000000e-06	-3.614373e-06	-9.485603e-10	-2.511314e+01	-6.270089e+01
1.010000e-06	-3.578666e-06	-9.444505e-10	-2.486505e+01	-6.246018e+01
1.020000e-06	-3.542794e-06	-9.404151e-10	-2.461580e+01	-6.221924e+01
1.030000e-06	-3.506740e-06	-9.389782e-10	-2.436530e+01	-6.197783e+01
1.040000e-06	-3.470454e-06	-9.346647e-10	-2.411318e+01	-6.173569e+01
1.050000e-06	-3.433886e-06	-9.265610e-10	-2.385910e+01	-6.149250e+01
1.060000e-06	-3.396977e-06	-9.180540e-10	-2.360265e+01	-6.124795e+01
1.070000e-06	-3.359786e-06	-9.125414e-10	-2.334424e+01	-6.100164e+01
1.080000e-06	-3.322463e-06	-9.096263e-10	-2.308491e+01	-6.075318e+01
1.090000e-06	-3.284939e-06	-9.080000e-10	-2.282420e+01	-6.050215e+01
1.100000e-06	-3.247106e-06	-9.032445e-10	-2.256132e+01	-6.024809e+01
1.110000e-06	-3.208971e-06	-8.945372e-10	-2.229636e+01	-5.999052e+01
1.120000e-06	-3.170689e-06	-8.862231e-10	-2.203037e+01	-5.972896e+01
1.130000e-06	-3.132248e-06	-8.805871e-10	-2.176327e+01	-5.946290e+01
1.140000e-06	-3.093558e-06	-8.755763e-10	-2.149445e+01	-5.919182e+01
1.150000e-06	-3.054678e-06	-8.683714e-10	-2.122431e+01	-5.891522e+01
1.160000e-06	-3.015580e-06	-8.610267e-10	-2.095265e+01	-5.863256e+01
1.170000e-06	-2.976271e-06	-8.565060e-10	-2.067953e+01	-5.834333e+01
1.180000e-06	-2.936824e-06	-8.533018e-10	-2.040544e+01	-5.804701e+01
1.190000e-06	-2.897233e-06	-8.494555e-10	-2.013036e+01	-5.774311e+01
1.200000e-06	-2.857547e-06	-8.442412e-10	-1.985462e+01	-5.743113e+01
1.210000e-06	-2.817812e-06	-8.372361e-10	-1.957853e+01	-5.711062e+01
1.220000e-06	-2.777868e-06	-8.303872e-10	-1.930100e+01	-5.678111e+01
1.230000e-06	-2.737639e-06	-8.240423e-10	-1.902148e+01	-5.644219e+01
1.240000e-06	-2.697201e-06	-8.186596e-10	-1.874051e+01	-5.609347e+01
1.250000e-06	-2.656505e-06	-8.135045e-10	-1.845775e+01	-5.573457e+01
1.260000e-06	-2.615527e-06	-8.096930e-10	-1.817303e+01	-5.536519e+01
1.270000e-06	-2.574274e-06	-8.042110e-10	-1.788640e+01	-5.498500e+01
1.280000e-06	-2.532744e-06	-7.950488e-10	-1.759784e+01	-5.459377e+01
1.290000e-06	-2.491058e-06	-7.854064e-10	-1.730820e+01	-5.419127e+01
1.300000e-06	-2.449067e-06	-7.768773e-10	-1.701645e+01	-5.377732e+01
1.310000e-06	-2.406708e-06	-7.695102e-10	-1.672212e+01	-5.335177e+01
1.320000e-06	-2.364061e-06	-7.620395e-10	-1.642581e+01	-5.291453e+01
1.330000e-06	-2.321117e-06	-7.569789e-10	-1.612743e+01	-5.246552e+01
1.340000e-06	-2.277929e-06	-7.527930e-10	-1.582735e+01	-5.200471e+01
1.350000e-06	-2.234597e-06	-7.446946e-10	-1.552628e+01	-5.153212e+01
1.360000e-06	-2.191168e-06	-7.349275e-10	-1.522452e+01	-5.104778e+01
1.370000e-06	-2.147570e-06	-7.256837e-10	-1.492160e+01	-5.055175e+01
1.380000e-06	-2.103903e-06	-7.171721e-10	-1.461820e+01	-5.004414e+01
1.390000e-06	-2.060262e-06	-7.089098e-10	-1.431498e+01	-4.952506e+01
1.400000e-06	-2.016593e-06	-7.012807e-10	-1.401156e+01	-4.899465e+01
1.410000e-06	-1.972820e-06	-6.919425e-10	-1.370742e+01	-4.845308e+01
1.420000e-06	-1.928957e-06	-6.808152e-10	-1.340265e+01	-4.790051e+01
1.430000e-06	-1.884972e-06	-6.714754e-10	-1.309704e+01	-4.733712e+01
1.440000e-06	-1.840770e-06	-6.647738e-10	-1.278991e+01	-4.676310e+01
1.450000e-06	-1.796395e-06	-6.587980e-10	-1.248159e+01	-4.617863e+01
1.460000e-06	-1.751938e-06	-6.503584e-10	-1.217270e+01	-4.558390e+01
1.470000e-06	-1.707413e-06	-6.379889e-10	-1.186333e+01	-4.497906e+01
1.480000e-06	-1.662743e-06	-6.247679e-10	-1.155296e+01	-4.436429e+01
1.490000e-06	-1.617943e-06	-6.141693e-10	-1.124168e+01	-4.373971e+01
1.500000e-06	-1.573004e-06	-6.073705e-10	-1.092944e+01	-4.310544e+01
1.510000e-06	-1.527892e-06	-6.019489e-10	-1.061600e+01	-4.246159e+01
1.520000e-06	-1.482677e-06	-5.933641e-10	-1.030184e+01	-4.180820e+01
1.530000e-06	-1.437367e-06	-5.796133e-10	-9.987017e+00	-4.114531e+01
1.540000e-06	-1.391972e-06	-5.657800e-10	-9.671608e+00	-4.047292e+01
1.550000e-06	-1.346529e-06	-5.538478e-10	-9.355863e+00	-3.979099e+01
1.560000e-06	-1.301010e-06	-5.421664e-10	-9.039592e+00	-3.909943e+01
1.570000e-06	-1.255414e-06	-5.328864e-10	-8.722784e+00	-3.839813e+01
1.580000e-06	-1.209745e-06	-5.264699e-10	-8.405467e+00	-3.768692e+01
1.590000e-06	-1.163964e-06	-5.181753e-10	-8.087373e+00	-3.696560e+01
1.600000e-06	-1.118077e-06	-5.060520e-10	-7.768546e+00	-3.623393e+01
1.610000e-06	-1.072111e-06	-4.923941e-10	-7.449168e+00	-3.549162e+01
1.620000e-06	-1.026077e-06	-4.789627e-10	-7.129318e+00	-3.473835e+01
1.630000e-06	-9.800534e-07	-4.656206e-10	-6.809541e+00	-3.397376e+01
1.640000e-06	-9.339625e-07	-4.497596e-10	-6.489295e+00	-3.319746e+01
1.650000e-06	-8.877333e-07	-4.353601e-10	-6.168089e+00	-3.240903e+01
1.660000e-06	-8.413572e-07	-4.241059e-10	-5.845861e+00	-3.160802e+01
1.670000e-06	-7.948883e-07	-4.147369e-10	-5.522990e+00	-3.079395e+01
1.680000e-06	-7.484622e-07	-4.038083e-10	-5.200415e+00	-2.996634e+01
1.690000e-06	-7.019764e-07	-3.907737e-10	-4.877425e+00	-2.912469e+01
1.700000e-06	-6.554171e-07	-3.768851e-10	-4.553925e+00	-2.826849e+01
1.710000e-06	-6.088182e-07	-3.606836e-10	-4.230150e+00	-2.739723e+01
1.720000e-06	-5.621762e-07	-3.432562e-10	-3.906075e+00	-2.651040e+01
1.730000e-06	-5.154772e-07	-3.291791e-10	-3.581604e+00	-2.560752e+01
1.740000e-06	-4.687025e-07	-3.170548e-10	-3.256607e+00	-2.468812e+01
1.750000e-06	-4.219795e-07	-3.039618e-10	-2.931970e+00	-2.375174e+01
1.760000e-06	-3.752676e-07	-2.897074e-10	-2.607409e+00	-2.279798e+01
1.770000e-06	-3.284141e-07	-2.758769e-10	-2.281865e+00	-2.182646e+01
1.780000e-06	-2.815637e-07	-2.632371e-10	-1.956342e+00	-2.083684e+01
1.790000e-06	-2.348088e-07	-2.488067e-10	-1.631483e+00	-1.982885e+01
1.800000e-06	-1.880199e-07	-2.318698e-10	-1.306387e+00	-1.880228e+01
1.810000e-06	-1.412270e-07	-2.141347e-10	-9.812642e-01	-1.775695e+01
1.820000e-06	-9.446363e-08	-1.968621e-10	-6.563458e-01	-1.669279e+01
1.830000e-06	-4.767608e-08	-1.816492e-10	-3.312597e-01	-1.560977e+01
1.840000e-06	-8.781044e-10	-1.685854e-10	-6.101186e-03	-1.450798e+01
1.850000e-06	4.593848e-08	-1.565855e-10	3.191867e-01	-1.338755e+01
1.860000e-06	9.276462e-08	-1.431581e-10	6.445409e-01	-1.224872e+01
1.870000e-06	1.395899e-07	-1.263740e-10	9.698893e-01	-1.109180e+01
1.880000e-06	1.864286e-07	-1.074547e-10	1.295331e+00	-9.917223e+00
1.890000e-06	2.332134e-07	-8.726380e-11	1.620397e+00	-8.725483e+00
1.900000e-06	2.800348e-07	-6.808575e-11	1.945719e+00	-7.517180e+00
1.910000e-06	3.268089e-07	-5.007604e-11	2.270712e+00	-6.293002e+00
1.920000e-06	3.735041e-07	-3.432398e-11	2.595156e+00	-5.053732e+00
1.930000e-06	4.202464e-07	-1.912744e-11	2.919928e+00	-3.800240e+00
1.940000e-06	4.669096e-07	-4.305568e-12	3.244150e+00	-2.533484e+00
1.950000e-06	5.134520e-07	9.853334e-12	3.567532e+00	-1.254503e+00
1.960000e-06	5.599111e-07	2.445110e-11	3.890337e+00	3.557994e-02
1.970000e-06	6.063747e-07	4.199324e-11	4.213172e+00	1.335570e+00
1.980000e-06	6.528200e-07	6.088850e-11	4.535880e+00	2.644203e+00
1.990000e-06	6.991935e-07	8.035009e-11	4.858089e+00	3.960149e+00
2.000000e-06	7.454821e-07	1.006659e-10	5.179709e+00	5.282024e+00
2.010000e-06	7.917502e-07	1.192993e-10	5.501185e+00	6.608391e+00
2.020000e-06	8.380496e-07	1.358618e-10	5.822880e+00	7.937774e+00
2.030000e-06	8.843076e-07	1.532871e-10	6.144287e+00	9.268662e+00
2.040000e-06	9.304005e-07	1.712176e-10	6.464546e+00	1.059952e+01
2.050000e-06	9.763382e-07	1.879611e-10	6.783728e+00	1.192878e+01
2.060000e-06	1.022301e-06	2.050092e-10	7.103086e+00	1.325490e+01
2.070000e-06	1.068246e-06	2.239841e-10	7.422316e+00	1.457631e+01
2.080000e-06	1.114108e-06	2.429089e-10	7.740970e+00	1.589145e+01
2.090000e-06	1.159936e-06	2.601400e-10	8.059391e+00	1.719880e+01
2.100000e-06	1.205687e-06	2.777295e-10	8.377272e+00	1.849684e+01
2.110000e-06	1.251371e-06	2.948133e-10	8.694694e+00	1.978410e+01
2.120000e-06	1.296999e-06	3.104639e-10	9.011722e+00	2.105917e+01
2.130000e-06	1.342527e-06	3.265857e-10	9.328058e+00	2.232066e+01
2.140000e-06	1.387965e-06	3.441162e-10	9.643764e+00	2.356726e+01
2.150000e-06	1.433228e-06	3.606959e-10	9.958259e+00	2.479773e+01
2.160000e-06	1.478330e-06	3.773642e-10	1.027163e+01	2.601088e+01
2.170000e-06	1.523327e-06	3.952710e-10	1.058428e+01	2.720564e+01
2.180000e-06	1.568189e-06	4.128516e-10	1.089598e+01	2.838098e+01
2.190000e-06	1.612929e-06	4.301617e-10	1.120685e+01	2.953599e+01
2.200000e-06	1.657541e-06	4.468106e-10	1.151682e+01	3.066985e+01
2.210000e-06	1.702054e-06	4.616030e-10	1.182610e+01	3.178182e+01
2.220000e-06	1.746494e-06	4.763492e-10	1.213487e+01	3.287128e+01
2.230000e-06	1.790762e-06	4.907079e-10	1.244245e+01	3.393769e+01
2.240000e-06	1.834853e-06	5.044964e-10	1.274880e+01	3.498064e+01
2.250000e-06	1.878845e-06	5.171396e-10	1.305446e+01	3.599980e+01
2.260000e-06	1.922730e-06	5.284387e-10	1.335938e+01	3.699493e+01
2.270000e-06	1.966517e-06	5.400864e-10	1.366362e+01	3.796593e+01
2.280000e-06	2.010216e-06	5.522260e-10	1.396725e+01	3.891275e+01
2.290000e-06	2.053864e-06	5.641736e-10	1.427052e+01	3.983547e+01
2.300000e-06	2.097513e-06	5.774741e-10	1.457380e+01	4.073425e+01
2.310000e-06	2.141137e-06	5.921638e-10	1.487690e+01	4.160933e+01
2.320000e-06	2.184709e-06	6.051683e-10	1.517965e+01	4.246103e+01
2.330000e-06	2.228178e-06	6.147558e-10	1.548168e+01	4.328975e+01
2.340000e-06	2.271519e-06	6.239328e-10	1.578281e+01	4.409597e+01
2.350000e-06	2.314740e-06	6.343646e-10	1.608312e+01	4.488022e+01
2.360000e-06	2.357708e-06	6.454306e-10	1.638167e+01	4.564309e+01
2.370000e-06	2.400388e-06	6.569384e-10	1.667821e+01	4.638522e+01
2.380000e-06	2.442835e-06	6.680854e-10	1.697314e+01	4.710730e+01
2.390000e-06	2.485041e-06	6.793934e-10	1.726639e+01	4.781004e+01
2.400000e-06	2.526900e-06	6.905173e-10	1.755723e+01	4.849419e+01
2.410000e-06	2.568444e-06	7.009813e-10	1.784589e+01	4.916051e+01
2.420000e-06	2.609679e-06	7.105319e-10	1.813240e+01	4.980979e+01
2.430000e-06	2.650552e-06	7.195823e-10	1.841639e+01	5.044280e+01
2.440000e-06	2.691229e-06	7.298672e-10	1.869901e+01	5.106034e+01
2.450000e-06	2.731703e-06	7.403261e-10	1.898023e+01	5.166317e+01
2.460000e-06	2.771873e-06	7.491386e-10	1.925934e+01	5.225205e+01
2.470000e-06	2.811782e-06	7.591486e-10	1.953663e+01	5.282772e+01
2.480000e-06	2.851524e-06	7.708540e-10	1.981276e+01	5.339090e+01
2.490000e-06	2.891186e-06	7.814994e-10	2.008834e+01	5.394225e+01
2.500000e-06	2.930725e-06	7.898567e-10	2.036307e+01	5.448243e+01
2.510000e-06	2.970111e-06	7.964902e-10	2.063672e+01	5.501203e+01
2.520000e-06	3.009393e-06	8.031340e-10	2.090966e+01	5.553162e+01
2.530000e-06	3.048504e-06	8.108919e-10	2.118141e+01	5.604169e+01
2.540000e-06	3.087363e-06	8.188251e-10	2.145141e+01	5.654271e+01
2.550000e-06	3.126008e-06	8.265027e-10	2.171992e+01	5.703509e+01
2.560000e-06	3.164410e-06	8.349356e-10	2.198674e+01	5.751918e+01
2.570000e-06	3.202456e-06	8.424534e-10	2.225109e+01	5.799529e+01
2.580000e-06	3.240319e-06	8.461465e-10	2.251417e+01	5.846366e+01
2.590000e-06	3.278107e-06	8.483281e-10	2.277672e+01	5.892448e+01
2.600000e-06	3.315715e-06	8.545932e-10	2.303803e+01	5.937791e+01
2.610000e-06	3.353089e-06	8.654162e-10	2.329771e+01	5.982404e+01
2.620000e-06	3.390225e-06	8.766706e-10	2.355574e+01	6.026292e+01
2.630000e-06	3.427142e-06	8.852911e-10	2.381223e+01	6.069455e+01
2.640000e-06	3.463766e-06	8.893092e-10	2.406671e+01	6.111889e+01
2.650000e-06	3.500081e-06	8.905893e-10	2.431903e+01	6.153587e+01
2.660000e-06	3.536123e-06	8.927293e-10	2.456946e+01	6.194539e+01
2.670000e-06	3.571934e-06	8.975386e-10	2.481827e+01	6.234731e+01
2.680000e-06	3.607610e-06	9.027869e-10	2.506615e+01	6.274146e+01
2.690000e-06	3.643207e-06	9.094950e-10	2.531349e+01	6.312766e+01
2.700000e-06	3.678710e-06	9.180363e-10	2.556017e+01	6.350571e+01
2.710000e-06	3.714065e-06	9.238795e-10	2.580582e+01	6.387541e+01
2.720000e-06	3.749205e-06	9.302841e-10	2.604997e+01	6.423655e+01
2.730000e-06	3.784120e-06	9.356997e-10	2.629257e+01	6.458889e+01
2.740000e-06	3.818669e-06	9.394852e-10	2.653262e+01	6.493224e+01
2.750000e-06	3.852677e-06	9.417822e-10	2.676891e+01	6.526639e+01
2.760000e-06	3.886138e-06	9.454861e-10	2.700140e+01	6.559114e+01
2.770000e-06	3.919048e-06	9.509772e-10	2.723006e+01	6.590631e+01
2.780000e-06	3.951468e-06	9.565787e-10	2.745532e+01	6.621175e+01
2.790000e-06	3.983601e-06	9.633582e-10	2.767859e+01	6.650733e+01
2.800000e-06	4.015532e-06	9.710634e-10	2.790045e+01	6.679294e+01
2.810000e-06	4.047260e-06	9.779064e-10	2.812090e+01	6.706849e+01
2.820000e-06	4.078846e-06	9.817871e-10	2.834037e+01	6.733394e+01
2.830000e-06	4.110270e-06	9.839544e-10	2.855870e+01	6.758927e+01
2.840000e-06	4.141471e-06	9.852537e-10	2.877549e+01	6.783450e+01
2.850000e-06	4.172387e-06	9.885681e-10	2.899030e+01	6.806970e+01
2.860000e-06	4.202948e-06	9.944540e-10	2.920264e+01	6.829493e+01
2.870000e-06	4.233196e-06	9.982765e-10	2.941281e+01	6.851035e+01
2.880000e-06	4.263162e-06	1.001893e-09	2.962102e+01	6.871610e+01
2.890000e-06	4.292819e-06	1.005583e-09	2.982708e+01	6.891238e+01
2.900000e-06	4.322148e-06	1.008495e-09	3.003086e+01	6.909942e+01
