# Temperatura_=_-3.15
# Concentracion g/m^3_=_1620.0
# C_Vs_to_Am_M_A/Vsm_=_65563218390.804596
# pendiente_HvsI_1/m_=_3716.3
# ordenada_HvsI_A/m_=_1297.0
# frecuencia_Hz_=_135094.22226770697

Tiempo_(s)	Campo_(V.s)	Magnetizacion_(V.s)	Campo_(kA/m)	Magnetizacion_(A/m)
0.000000e+00	-5.537631e-06	-1.048364e-09	-3.838960e+01	-6.948109e+01
1.000000e-08	-5.537905e-06	-1.046495e-09	-3.839150e+01	-6.943649e+01
2.000000e-08	-5.537919e-06	-1.045670e-09	-3.839160e+01	-6.939228e+01
3.000000e-08	-5.537530e-06	-1.045518e-09	-3.838890e+01	-6.934849e+01
4.000000e-08	-5.536604e-06	-1.041866e-09	-3.838248e+01	-6.930513e+01
5.000000e-08	-5.535008e-06	-1.035331e-09	-3.837142e+01	-6.926219e+01
6.000000e-08	-5.532834e-06	-1.027202e-09	-3.835635e+01	-6.921966e+01
7.000000e-08	-5.530239e-06	-1.037680e-09	-3.833836e+01	-6.917747e+01
8.000000e-08	-5.527152e-06	-1.064060e-09	-3.831696e+01	-6.913556e+01
9.000000e-08	-5.523530e-06	-1.056504e-09	-3.829184e+01	-6.909383e+01
1.000000e-07	-5.519410e-06	-9.925618e-10	-3.826328e+01	-6.905218e+01
1.100000e-07	-5.514981e-06	-9.728253e-10	-3.823258e+01	-6.901048e+01
1.200000e-07	-5.510384e-06	-1.011154e-09	-3.820071e+01	-6.896859e+01
1.300000e-07	-5.505533e-06	-1.051978e-09	-3.816708e+01	-6.892635e+01
1.400000e-07	-5.500359e-06	-1.035197e-09	-3.813121e+01	-6.888358e+01
1.500000e-07	-5.494856e-06	-9.859788e-10	-3.809306e+01	-6.884010e+01
1.600000e-07	-5.488921e-06	-9.851572e-10	-3.805192e+01	-6.879574e+01
1.700000e-07	-5.482491e-06	-1.036924e-09	-3.800734e+01	-6.875027e+01
1.800000e-07	-5.475632e-06	-1.053529e-09	-3.795979e+01	-6.870351e+01
1.900000e-07	-5.468425e-06	-1.013175e-09	-3.790983e+01	-6.865524e+01
2.000000e-07	-5.460937e-06	-9.963455e-10	-3.785792e+01	-6.860526e+01
2.100000e-07	-5.453206e-06	-1.056083e-09	-3.780433e+01	-6.855335e+01
2.200000e-07	-5.445185e-06	-1.101074e-09	-3.774872e+01	-6.849932e+01
2.300000e-07	-5.436874e-06	-1.069597e-09	-3.769110e+01	-6.844297e+01
2.400000e-07	-5.428152e-06	-1.044110e-09	-3.763064e+01	-6.838409e+01
2.500000e-07	-5.418704e-06	-1.063421e-09	-3.756514e+01	-6.832252e+01
2.600000e-07	-5.408482e-06	-1.069039e-09	-3.749427e+01	-6.825808e+01
2.700000e-07	-5.397700e-06	-1.039463e-09	-3.741953e+01	-6.819059e+01
2.800000e-07	-5.386505e-06	-1.034171e-09	-3.734192e+01	-6.811992e+01
2.900000e-07	-5.374910e-06	-1.051962e-09	-3.726154e+01	-6.804593e+01
3.000000e-07	-5.362989e-06	-1.056144e-09	-3.717889e+01	-6.796851e+01
3.100000e-07	-5.350665e-06	-1.027245e-09	-3.709346e+01	-6.788754e+01
3.200000e-07	-5.337850e-06	-1.027360e-09	-3.700462e+01	-6.780294e+01
3.300000e-07	-5.324691e-06	-1.042479e-09	-3.691340e+01	-6.771465e+01
3.400000e-07	-5.311206e-06	-1.033286e-09	-3.681991e+01	-6.762261e+01
3.500000e-07	-5.297327e-06	-1.008314e-09	-3.672369e+01	-6.752679e+01
3.600000e-07	-5.282985e-06	-1.016019e-09	-3.662427e+01	-6.742718e+01
3.700000e-07	-5.268157e-06	-1.024312e-09	-3.652147e+01	-6.732376e+01
3.800000e-07	-5.252863e-06	-1.022081e-09	-3.641545e+01	-6.721658e+01
3.900000e-07	-5.236973e-06	-1.035302e-09	-3.630529e+01	-6.710565e+01
4.000000e-07	-5.220530e-06	-1.035711e-09	-3.619130e+01	-6.699103e+01
4.100000e-07	-5.203720e-06	-1.004437e-09	-3.607477e+01	-6.687278e+01
4.200000e-07	-5.186622e-06	-1.000909e-09	-3.595623e+01	-6.675098e+01
4.300000e-07	-5.169215e-06	-1.022462e-09	-3.583556e+01	-6.662572e+01
4.400000e-07	-5.151498e-06	-1.012948e-09	-3.571274e+01	-6.649710e+01
4.500000e-07	-5.133478e-06	-9.995187e-10	-3.558781e+01	-6.636522e+01
4.600000e-07	-5.115059e-06	-1.016764e-09	-3.546012e+01	-6.623022e+01
4.700000e-07	-5.096164e-06	-1.011285e-09	-3.532913e+01	-6.609220e+01
4.800000e-07	-5.076911e-06	-9.922478e-10	-3.519566e+01	-6.595131e+01
4.900000e-07	-5.057409e-06	-1.010556e-09	-3.506046e+01	-6.580766e+01
5.000000e-07	-5.037683e-06	-1.007738e-09	-3.492371e+01	-6.566140e+01
5.100000e-07	-5.017711e-06	-9.719863e-10	-3.478526e+01	-6.551266e+01
5.200000e-07	-4.997392e-06	-9.840624e-10	-3.464440e+01	-6.536158e+01
5.300000e-07	-4.976684e-06	-1.016251e-09	-3.450084e+01	-6.520827e+01
5.400000e-07	-4.955660e-06	-9.949974e-10	-3.435509e+01	-6.505288e+01
5.500000e-07	-4.934395e-06	-9.832936e-10	-3.420767e+01	-6.489551e+01
5.600000e-07	-4.912772e-06	-9.995501e-10	-3.405777e+01	-6.473629e+01
5.700000e-07	-4.890784e-06	-9.850633e-10	-3.390534e+01	-6.457533e+01
5.800000e-07	-4.868467e-06	-9.692109e-10	-3.375063e+01	-6.441271e+01
5.900000e-07	-4.845768e-06	-9.841135e-10	-3.359326e+01	-6.424853e+01
6.000000e-07	-4.822725e-06	-9.720201e-10	-3.343352e+01	-6.408288e+01
6.100000e-07	-4.799327e-06	-9.527145e-10	-3.327131e+01	-6.391581e+01
6.200000e-07	-4.775676e-06	-9.675034e-10	-3.310735e+01	-6.374739e+01
6.300000e-07	-4.751810e-06	-9.666257e-10	-3.294190e+01	-6.357766e+01
6.400000e-07	-4.727680e-06	-9.432564e-10	-3.277462e+01	-6.340667e+01
6.500000e-07	-4.703287e-06	-9.545057e-10	-3.260551e+01	-6.323443e+01
6.600000e-07	-4.678549e-06	-9.614296e-10	-3.243402e+01	-6.306096e+01
6.700000e-07	-4.653251e-06	-9.408978e-10	-3.225864e+01	-6.288626e+01
6.800000e-07	-4.627315e-06	-9.413399e-10	-3.207884e+01	-6.271033e+01
6.900000e-07	-4.600905e-06	-9.494442e-10	-3.189575e+01	-6.253314e+01
7.000000e-07	-4.574038e-06	-9.342476e-10	-3.170949e+01	-6.235466e+01
7.100000e-07	-4.546786e-06	-9.318735e-10	-3.152058e+01	-6.217487e+01
7.200000e-07	-4.519300e-06	-9.422509e-10	-3.133003e+01	-6.199372e+01
7.300000e-07	-4.491598e-06	-9.320682e-10	-3.113798e+01	-6.181115e+01
7.400000e-07	-4.463630e-06	-9.261301e-10	-3.094410e+01	-6.162711e+01
7.500000e-07	-4.435450e-06	-9.344457e-10	-3.074873e+01	-6.144153e+01
7.600000e-07	-4.407049e-06	-9.223838e-10	-3.055185e+01	-6.125434e+01
7.700000e-07	-4.378346e-06	-9.065731e-10	-3.035286e+01	-6.106546e+01
7.800000e-07	-4.349305e-06	-9.130275e-10	-3.015153e+01	-6.087483e+01
7.900000e-07	-4.319918e-06	-9.120494e-10	-2.994781e+01	-6.068236e+01
8.000000e-07	-4.290236e-06	-9.002977e-10	-2.974204e+01	-6.048797e+01
8.100000e-07	-4.260306e-06	-9.038806e-10	-2.953455e+01	-6.029158e+01
8.200000e-07	-4.229957e-06	-9.096353e-10	-2.932416e+01	-6.009310e+01
8.300000e-07	-4.199254e-06	-8.997633e-10	-2.911131e+01	-5.989246e+01
8.400000e-07	-4.168328e-06	-8.940628e-10	-2.889691e+01	-5.968956e+01
8.500000e-07	-4.137192e-06	-8.941256e-10	-2.868106e+01	-5.948433e+01
8.600000e-07	-4.105883e-06	-8.866398e-10	-2.846401e+01	-5.927670e+01
8.700000e-07	-4.074379e-06	-8.793830e-10	-2.824561e+01	-5.906657e+01
8.800000e-07	-4.042731e-06	-8.838728e-10	-2.802622e+01	-5.885388e+01
8.900000e-07	-4.010931e-06	-8.827280e-10	-2.780576e+01	-5.863855e+01
9.000000e-07	-3.978864e-06	-8.727610e-10	-2.758346e+01	-5.842052e+01
9.100000e-07	-3.946417e-06	-8.688107e-10	-2.735852e+01	-5.819971e+01
9.200000e-07	-3.913637e-06	-8.670757e-10	-2.713127e+01	-5.797605e+01
9.300000e-07	-3.880404e-06	-8.584603e-10	-2.690088e+01	-5.774948e+01
9.400000e-07	-3.846742e-06	-8.551697e-10	-2.666752e+01	-5.751993e+01
9.500000e-07	-3.812692e-06	-8.590674e-10	-2.643147e+01	-5.728735e+01
9.600000e-07	-3.778231e-06	-8.559649e-10	-2.619257e+01	-5.705166e+01
9.700000e-07	-3.743412e-06	-8.491675e-10	-2.595119e+01	-5.681280e+01
9.800000e-07	-3.708261e-06	-8.478505e-10	-2.570750e+01	-5.657071e+01
9.900000e-07	-3.672861e-06	-8.441075e-10	-2.546209e+01	-5.632532e+01
1.000000e-06	-3.637230e-06	-8.373171e-10	-2.521508e+01	-5.607657e+01
1.010000e-06	-3.601458e-06	-8.343032e-10	-2.496709e+01	-5.582439e+01
1.020000e-06	-3.565536e-06	-8.335796e-10	-2.471806e+01	-5.556869e+01
1.030000e-06	-3.529430e-06	-8.311767e-10	-2.446775e+01	-5.530942e+01
1.040000e-06	-3.493098e-06	-8.289756e-10	-2.421588e+01	-5.504649e+01
1.050000e-06	-3.456520e-06	-8.248444e-10	-2.396231e+01	-5.477982e+01
1.060000e-06	-3.419700e-06	-8.132941e-10	-2.370705e+01	-5.450932e+01
1.070000e-06	-3.382543e-06	-8.029294e-10	-2.344946e+01	-5.423489e+01
1.080000e-06	-3.345098e-06	-7.995262e-10	-2.318988e+01	-5.395644e+01
1.090000e-06	-3.307468e-06	-7.968757e-10	-2.292901e+01	-5.367387e+01
1.100000e-06	-3.269647e-06	-7.922367e-10	-2.266681e+01	-5.338707e+01
1.110000e-06	-3.231579e-06	-7.892053e-10	-2.240290e+01	-5.309592e+01
1.120000e-06	-3.193299e-06	-7.846220e-10	-2.213753e+01	-5.280030e+01
1.130000e-06	-3.154739e-06	-7.767644e-10	-2.187022e+01	-5.250010e+01
1.140000e-06	-3.115954e-06	-7.676940e-10	-2.160134e+01	-5.219517e+01
1.150000e-06	-3.077053e-06	-7.580856e-10	-2.133166e+01	-5.188538e+01
1.160000e-06	-3.037947e-06	-7.494337e-10	-2.106055e+01	-5.157060e+01
1.170000e-06	-2.998680e-06	-7.453121e-10	-2.078834e+01	-5.125069e+01
1.180000e-06	-2.959237e-06	-7.428475e-10	-2.051490e+01	-5.092548e+01
1.190000e-06	-2.919591e-06	-7.391591e-10	-2.024005e+01	-5.059485e+01
1.200000e-06	-2.879797e-06	-7.339168e-10	-1.996418e+01	-5.025862e+01
1.210000e-06	-2.839928e-06	-7.267006e-10	-1.968779e+01	-4.991666e+01
1.220000e-06	-2.799990e-06	-7.174480e-10	-1.941092e+01	-4.956881e+01
1.230000e-06	-2.759844e-06	-7.082474e-10	-1.913261e+01	-4.921491e+01
1.240000e-06	-2.719375e-06	-7.014942e-10	-1.885206e+01	-4.885482e+01
1.250000e-06	-2.678744e-06	-6.964625e-10	-1.857038e+01	-4.848837e+01
1.260000e-06	-2.637977e-06	-6.917343e-10	-1.828776e+01	-4.811543e+01
1.270000e-06	-2.596909e-06	-6.898746e-10	-1.800306e+01	-4.773584e+01
1.280000e-06	-2.555425e-06	-6.867401e-10	-1.771547e+01	-4.734947e+01
1.290000e-06	-2.513693e-06	-6.808955e-10	-1.742616e+01	-4.695618e+01
1.300000e-06	-2.471749e-06	-6.730964e-10	-1.713539e+01	-4.655584e+01
1.310000e-06	-2.429371e-06	-6.624339e-10	-1.684161e+01	-4.614831e+01
1.320000e-06	-2.386671e-06	-6.517039e-10	-1.654559e+01	-4.573348e+01
1.330000e-06	-2.343778e-06	-6.441720e-10	-1.624823e+01	-4.531123e+01
1.340000e-06	-2.300789e-06	-6.395329e-10	-1.595021e+01	-4.488146e+01
1.350000e-06	-2.257580e-06	-6.330350e-10	-1.565066e+01	-4.444407e+01
1.360000e-06	-2.214080e-06	-6.257051e-10	-1.534910e+01	-4.399895e+01
1.370000e-06	-2.170419e-06	-6.189431e-10	-1.504642e+01	-4.354602e+01
1.380000e-06	-2.126677e-06	-6.114426e-10	-1.474318e+01	-4.308519e+01
1.390000e-06	-2.082869e-06	-6.039679e-10	-1.443948e+01	-4.261640e+01
1.400000e-06	-2.039014e-06	-5.963206e-10	-1.413546e+01	-4.213957e+01
1.410000e-06	-1.995126e-06	-5.874638e-10	-1.383120e+01	-4.165462e+01
1.420000e-06	-1.951162e-06	-5.787685e-10	-1.352642e+01	-4.116151e+01
1.430000e-06	-1.907019e-06	-5.718797e-10	-1.322040e+01	-4.066017e+01
1.440000e-06	-1.862750e-06	-5.666740e-10	-1.291350e+01	-4.015054e+01
1.450000e-06	-1.818492e-06	-5.601144e-10	-1.260669e+01	-3.963257e+01
1.460000e-06	-1.774170e-06	-5.516760e-10	-1.229943e+01	-3.910620e+01
1.470000e-06	-1.729709e-06	-5.416031e-10	-1.199120e+01	-3.857137e+01
1.480000e-06	-1.685010e-06	-5.305333e-10	-1.168133e+01	-3.802804e+01
1.490000e-06	-1.640173e-06	-5.194758e-10	-1.137049e+01	-3.747613e+01
1.500000e-06	-1.595216e-06	-5.113818e-10	-1.105883e+01	-3.691559e+01
1.510000e-06	-1.550060e-06	-5.033529e-10	-1.074578e+01	-3.634635e+01
1.520000e-06	-1.504777e-06	-4.928493e-10	-1.043186e+01	-3.576832e+01
1.530000e-06	-1.459380e-06	-4.812064e-10	-1.011714e+01	-3.518143e+01
1.540000e-06	-1.413930e-06	-4.669699e-10	-9.802066e+00	-3.458559e+01
1.550000e-06	-1.368451e-06	-4.558023e-10	-9.486782e+00	-3.398069e+01
1.560000e-06	-1.322887e-06	-4.459272e-10	-9.170907e+00	-3.336663e+01
1.570000e-06	-1.277160e-06	-4.375239e-10	-8.853904e+00	-3.274328e+01
1.580000e-06	-1.231300e-06	-4.280021e-10	-8.535985e+00	-3.211052e+01
1.590000e-06	-1.185396e-06	-4.178654e-10	-8.217753e+00	-3.146821e+01
1.600000e-06	-1.139435e-06	-4.084541e-10	-7.899127e+00	-3.081618e+01
1.610000e-06	-1.093424e-06	-3.969249e-10	-7.580153e+00	-3.015429e+01
1.620000e-06	-1.047388e-06	-3.865311e-10	-7.261016e+00	-2.948235e+01
1.630000e-06	-1.001277e-06	-3.779810e-10	-6.941346e+00	-2.880017e+01
1.640000e-06	-9.550444e-07	-3.697648e-10	-6.620841e+00	-2.810757e+01
1.650000e-06	-9.086370e-07	-3.598748e-10	-6.299121e+00	-2.740435e+01
1.660000e-06	-8.621900e-07	-3.488989e-10	-5.977128e+00	-2.669028e+01
1.670000e-06	-8.157016e-07	-3.370951e-10	-5.654847e+00	-2.596516e+01
1.680000e-06	-7.691766e-07	-3.233952e-10	-5.332313e+00	-2.522877e+01
1.690000e-06	-7.226540e-07	-3.105115e-10	-5.009795e+00	-2.448087e+01
1.700000e-06	-6.759711e-07	-3.018904e-10	-4.686167e+00	-2.372125e+01
1.710000e-06	-6.292041e-07	-2.927292e-10	-4.361954e+00	-2.294969e+01
1.720000e-06	-5.824305e-07	-2.815819e-10	-4.037697e+00	-2.216596e+01
1.730000e-06	-5.355641e-07	-2.686442e-10	-3.712796e+00	-2.136985e+01
1.740000e-06	-4.886506e-07	-2.571834e-10	-3.387568e+00	-2.056116e+01
1.750000e-06	-4.417629e-07	-2.444441e-10	-3.062520e+00	-1.973969e+01
1.760000e-06	-3.948440e-07	-2.313731e-10	-2.737254e+00	-1.890528e+01
1.770000e-06	-3.478710e-07	-2.170725e-10	-2.411614e+00	-1.805775e+01
1.780000e-06	-3.009087e-07	-2.031746e-10	-2.086048e+00	-1.719697e+01
1.790000e-06	-2.540123e-07	-1.907254e-10	-1.760939e+00	-1.632282e+01
1.800000e-06	-2.070717e-07	-1.756882e-10	-1.435523e+00	-1.543521e+01
1.810000e-06	-1.601212e-07	-1.597803e-10	-1.110039e+00	-1.453409e+01
1.820000e-06	-1.131927e-07	-1.460307e-10	-7.847077e-01	-1.361942e+01
1.830000e-06	-6.619123e-08	-1.352084e-10	-4.588704e-01	-1.269121e+01
1.840000e-06	-1.916955e-08	-1.236402e-10	-1.328928e-01	-1.174950e+01
1.850000e-06	2.783360e-08	-1.099833e-10	1.929563e-01	-1.079438e+01
1.860000e-06	7.492038e-08	-9.735432e-11	5.193852e-01	-9.825967e+00
1.870000e-06	1.219753e-07	-8.372337e-11	8.455933e-01	-8.844437e+00
1.880000e-06	1.690034e-07	-7.040988e-11	1.171615e+00	-7.850002e+00
1.890000e-06	2.160484e-07	-5.754877e-11	1.497755e+00	-6.842924e+00
1.900000e-06	2.629894e-07	-4.372096e-11	1.823173e+00	-5.823513e+00
1.910000e-06	3.099061e-07	-3.128204e-11	2.148422e+00	-4.792129e+00
1.920000e-06	3.568286e-07	-1.816558e-11	2.473713e+00	-3.749179e+00
1.930000e-06	4.037661e-07	-4.400973e-12	2.799106e+00	-2.695123e+00
1.940000e-06	4.506457e-07	9.659950e-12	3.124099e+00	-1.630469e+00
1.950000e-06	4.973483e-07	2.186251e-11	3.447865e+00	-5.557729e-01
1.960000e-06	5.439979e-07	3.474428e-11	3.771263e+00	5.283601e-01
1.970000e-06	5.907469e-07	4.799878e-11	4.095350e+00	1.621278e+00
1.980000e-06	6.374733e-07	6.080400e-11	4.419281e+00	2.722286e+00
1.990000e-06	6.840881e-07	7.578816e-11	4.742438e+00	3.830642e+00
2.000000e-06	7.306549e-07	9.268569e-11	5.065261e+00	4.945568e+00
2.010000e-06	7.771495e-07	1.087722e-10	5.387585e+00	6.066244e+00
2.020000e-06	8.235537e-07	1.243788e-10	5.709282e+00	7.191820e+00
2.030000e-06	8.698584e-07	1.399411e-10	6.030290e+00	8.321410e+00
2.040000e-06	9.160524e-07	1.544523e-10	6.350529e+00	9.454102e+00
2.050000e-06	9.620900e-07	1.671474e-10	6.669685e+00	1.058896e+01
2.060000e-06	1.008092e-06	1.822426e-10	6.988593e+00	1.172503e+01
2.070000e-06	1.054135e-06	1.986763e-10	7.307785e+00	1.286134e+01
2.080000e-06	1.100139e-06	2.166176e-10	7.626711e+00	1.399691e+01
2.090000e-06	1.146090e-06	2.349448e-10	7.945261e+00	1.513074e+01
2.100000e-06	1.191951e-06	2.510550e-10	8.263194e+00	1.626186e+01
2.110000e-06	1.237683e-06	2.655657e-10	8.580235e+00	1.738926e+01
2.120000e-06	1.283320e-06	2.784213e-10	8.896609e+00	1.851197e+01
2.130000e-06	1.328902e-06	2.923342e-10	9.212606e+00	1.962902e+01
2.140000e-06	1.374388e-06	3.076735e-10	9.527942e+00	2.073946e+01
2.150000e-06	1.419850e-06	3.217790e-10	9.843102e+00	2.184237e+01
2.160000e-06	1.465217e-06	3.351321e-10	1.015761e+01	2.293682e+01
2.170000e-06	1.510368e-06	3.514027e-10	1.047062e+01	2.402195e+01
2.180000e-06	1.555331e-06	3.691023e-10	1.078232e+01	2.509693e+01
2.190000e-06	1.600282e-06	3.849338e-10	1.109395e+01	2.616093e+01
2.200000e-06	1.645231e-06	3.980573e-10	1.140555e+01	2.721321e+01
2.210000e-06	1.690010e-06	4.098095e-10	1.171598e+01	2.825304e+01
2.220000e-06	1.734575e-06	4.215672e-10	1.202493e+01	2.927975e+01
2.230000e-06	1.778991e-06	4.330443e-10	1.233285e+01	3.029273e+01
2.240000e-06	1.823306e-06	4.443880e-10	1.264006e+01	3.129138e+01
2.250000e-06	1.867524e-06	4.572961e-10	1.294660e+01	3.227521e+01
2.260000e-06	1.911600e-06	4.695955e-10	1.325216e+01	3.324373e+01
2.270000e-06	1.955548e-06	4.819741e-10	1.355683e+01	3.419655e+01
2.280000e-06	1.999464e-06	4.948911e-10	1.386128e+01	3.513331e+01
2.290000e-06	2.043305e-06	5.074630e-10	1.416521e+01	3.605371e+01
2.300000e-06	2.087094e-06	5.184146e-10	1.446877e+01	3.695751e+01
2.310000e-06	2.130850e-06	5.274177e-10	1.477211e+01	3.784452e+01
2.320000e-06	2.174519e-06	5.363660e-10	1.507484e+01	3.871459e+01
2.330000e-06	2.218023e-06	5.470888e-10	1.537644e+01	3.956766e+01
2.340000e-06	2.261446e-06	5.592260e-10	1.567746e+01	4.040368e+01
2.350000e-06	2.304811e-06	5.719946e-10	1.597809e+01	4.122266e+01
2.360000e-06	2.347906e-06	5.841347e-10	1.627684e+01	4.202467e+01
2.370000e-06	2.390647e-06	5.956878e-10	1.657315e+01	4.280980e+01
2.380000e-06	2.433138e-06	6.069498e-10	1.686772e+01	4.357820e+01
2.390000e-06	2.475364e-06	6.174032e-10	1.716045e+01	4.433003e+01
2.400000e-06	2.517263e-06	6.285835e-10	1.745092e+01	4.506552e+01
2.410000e-06	2.558773e-06	6.399805e-10	1.773868e+01	4.578489e+01
2.420000e-06	2.599861e-06	6.511314e-10	1.802352e+01	4.648840e+01
2.430000e-06	2.640702e-06	6.615754e-10	1.830665e+01	4.717635e+01
2.440000e-06	2.681439e-06	6.736643e-10	1.858907e+01	4.784903e+01
2.450000e-06	2.722019e-06	6.870651e-10	1.887039e+01	4.850676e+01
2.460000e-06	2.762347e-06	6.980186e-10	1.914996e+01	4.914987e+01
2.470000e-06	2.802510e-06	7.078182e-10	1.942839e+01	4.977868e+01
2.480000e-06	2.842510e-06	7.127996e-10	1.970568e+01	5.039354e+01
2.490000e-06	2.882380e-06	7.156566e-10	1.998209e+01	5.099477e+01
2.500000e-06	2.922229e-06	7.219245e-10	2.025834e+01	5.158272e+01
2.510000e-06	2.961941e-06	7.333953e-10	2.053364e+01	5.215770e+01
2.520000e-06	3.001390e-06	7.437983e-10	2.080712e+01	5.272004e+01
2.530000e-06	3.040627e-06	7.542278e-10	2.107913e+01	5.327004e+01
2.540000e-06	3.079627e-06	7.640590e-10	2.134950e+01	5.380799e+01
2.550000e-06	3.118401e-06	7.669238e-10	2.161830e+01	5.433417e+01
2.560000e-06	3.156964e-06	7.678057e-10	2.188564e+01	5.484883e+01
2.570000e-06	3.195315e-06	7.723696e-10	2.215150e+01	5.535221e+01
2.580000e-06	3.233449e-06	7.789869e-10	2.241587e+01	5.584454e+01
2.590000e-06	3.271373e-06	7.872777e-10	2.267878e+01	5.632601e+01
2.600000e-06	3.309150e-06	7.986193e-10	2.294066e+01	5.679680e+01
2.610000e-06	3.346648e-06	8.102282e-10	2.320062e+01	5.725707e+01
2.620000e-06	3.383890e-06	8.195791e-10	2.345880e+01	5.770695e+01
2.630000e-06	3.420888e-06	8.255387e-10	2.371529e+01	5.814658e+01
2.640000e-06	3.457559e-06	8.285075e-10	2.396951e+01	5.857603e+01
2.650000e-06	3.493970e-06	8.275993e-10	2.422193e+01	5.899541e+01
2.660000e-06	3.530209e-06	8.313269e-10	2.447316e+01	5.940476e+01
2.670000e-06	3.566275e-06	8.385840e-10	2.472319e+01	5.980415e+01
2.680000e-06	3.602162e-06	8.455611e-10	2.497197e+01	6.019361e+01
2.690000e-06	3.637925e-06	8.532451e-10	2.521990e+01	6.057316e+01
2.700000e-06	3.673634e-06	8.600676e-10	2.546745e+01	6.094283e+01
2.710000e-06	3.709183e-06	8.630964e-10	2.571389e+01	6.130263e+01
2.720000e-06	3.744446e-06	8.650178e-10	2.595835e+01	6.165257e+01
2.730000e-06	3.779276e-06	8.690324e-10	2.619981e+01	6.199265e+01
2.740000e-06	3.813627e-06	8.728236e-10	2.643795e+01	6.232288e+01
2.750000e-06	3.847611e-06	8.753411e-10	2.667354e+01	6.264327e+01
2.760000e-06	3.881214e-06	8.809546e-10	2.690650e+01	6.295383e+01
2.770000e-06	3.914325e-06	8.868100e-10	2.713604e+01	6.325459e+01
2.780000e-06	3.946955e-06	8.933784e-10	2.736224e+01	6.354558e+01
2.790000e-06	3.979303e-06	9.003577e-10	2.758650e+01	6.382684e+01
2.800000e-06	4.011453e-06	9.050867e-10	2.780938e+01	6.409843e+01
2.810000e-06	4.043418e-06	9.077810e-10	2.803098e+01	6.436042e+01
2.820000e-06	4.075249e-06	9.090480e-10	2.825165e+01	6.461290e+01
2.830000e-06	4.106909e-06	9.111300e-10	2.847113e+01	6.485598e+01
2.840000e-06	4.138289e-06	9.136254e-10	2.868867e+01	6.508977e+01
2.850000e-06	4.169438e-06	9.177008e-10	2.890461e+01	6.531443e+01
2.860000e-06	4.200252e-06	9.244652e-10	2.911822e+01	6.553012e+01
2.870000e-06	4.230676e-06	9.297005e-10	2.932914e+01	6.573702e+01
2.880000e-06	4.260845e-06	9.310744e-10	2.953829e+01	6.593532e+01
2.890000e-06	4.290801e-06	9.340071e-10	2.974596e+01	6.612526e+01
2.900000e-06	4.320506e-06	9.387496e-10	2.995189e+01	6.630708e+01
