# Temperatura_=_-0.42
# Concentracion g/m^3_=_1620.0
# C_Vs_to_Am_M_A/Vsm_=_65563218390.804596
# pendiente_HvsI_1/m_=_3716.3
# ordenada_HvsI_A/m_=_1297.0
# frecuencia_Hz_=_135089.45676157234

Tiempo_(s)	Campo_(V.s)	Magnetizacion_(V.s)	Campo_(kA/m)	Magnetizacion_(A/m)
0.000000e+00	-5.504193e-06	-1.378158e-09	-3.838557e+01	-8.843155e+01
1.000000e-08	-5.504276e-06	-1.376338e-09	-3.838615e+01	-8.845874e+01
2.000000e-08	-5.504042e-06	-1.377105e-09	-3.838452e+01	-8.848507e+01
3.000000e-08	-5.503513e-06	-1.375601e-09	-3.838083e+01	-8.851035e+01
4.000000e-08	-5.502571e-06	-1.374124e-09	-3.837427e+01	-8.853437e+01
5.000000e-08	-5.501000e-06	-1.376477e-09	-3.836331e+01	-8.855690e+01
6.000000e-08	-5.498830e-06	-1.373383e-09	-3.834817e+01	-8.857770e+01
7.000000e-08	-5.496047e-06	-1.361400e-09	-3.832876e+01	-8.859651e+01
8.000000e-08	-5.492637e-06	-1.374158e-09	-3.830499e+01	-8.861309e+01
9.000000e-08	-5.488780e-06	-1.395771e-09	-3.827809e+01	-8.862715e+01
1.000000e-07	-5.484609e-06	-1.384480e-09	-3.824899e+01	-8.863842e+01
1.100000e-07	-5.480219e-06	-1.402157e-09	-3.821838e+01	-8.864663e+01
1.200000e-07	-5.475539e-06	-1.322618e-09	-3.818574e+01	-8.865151e+01
1.300000e-07	-5.470555e-06	-1.346236e-09	-3.815098e+01	-8.865278e+01
1.400000e-07	-5.465221e-06	-1.345744e-09	-3.811379e+01	-8.865016e+01
1.500000e-07	-5.459439e-06	-1.365174e-09	-3.807347e+01	-8.864341e+01
1.600000e-07	-5.453319e-06	-1.373281e-09	-3.803079e+01	-8.863228e+01
1.700000e-07	-5.446839e-06	-1.342196e-09	-3.798560e+01	-8.861651e+01
1.800000e-07	-5.439954e-06	-1.403151e-09	-3.793758e+01	-8.859590e+01
1.900000e-07	-5.432647e-06	-1.349552e-09	-3.788662e+01	-8.857023e+01
2.000000e-07	-5.424987e-06	-1.371601e-09	-3.783320e+01	-8.853932e+01
2.100000e-07	-5.417088e-06	-1.331255e-09	-3.777811e+01	-8.850300e+01
2.200000e-07	-5.408951e-06	-1.399702e-09	-3.772136e+01	-8.846111e+01
2.300000e-07	-5.400536e-06	-1.376538e-09	-3.766268e+01	-8.841355e+01
2.400000e-07	-5.391798e-06	-1.401536e-09	-3.760175e+01	-8.836019e+01
2.500000e-07	-5.382382e-06	-1.367614e-09	-3.753608e+01	-8.830097e+01
2.600000e-07	-5.372153e-06	-1.391268e-09	-3.746474e+01	-8.823584e+01
2.700000e-07	-5.361318e-06	-1.352475e-09	-3.738918e+01	-8.816476e+01
2.800000e-07	-5.349974e-06	-1.348411e-09	-3.731007e+01	-8.808773e+01
2.900000e-07	-5.338286e-06	-1.344678e-09	-3.722856e+01	-8.800477e+01
3.000000e-07	-5.326288e-06	-1.351658e-09	-3.714489e+01	-8.791593e+01
3.100000e-07	-5.313866e-06	-1.351742e-09	-3.705826e+01	-8.782128e+01
3.200000e-07	-5.301053e-06	-1.335006e-09	-3.696890e+01	-8.772090e+01
3.300000e-07	-5.287768e-06	-1.342122e-09	-3.687625e+01	-8.761492e+01
3.400000e-07	-5.274058e-06	-1.315861e-09	-3.678064e+01	-8.750345e+01
3.500000e-07	-5.259999e-06	-1.328590e-09	-3.668260e+01	-8.738665e+01
3.600000e-07	-5.245476e-06	-1.318900e-09	-3.658131e+01	-8.726469e+01
3.700000e-07	-5.230547e-06	-1.332064e-09	-3.647720e+01	-8.713774e+01
3.800000e-07	-5.215098e-06	-1.319192e-09	-3.636946e+01	-8.700600e+01
3.900000e-07	-5.199092e-06	-1.342308e-09	-3.625784e+01	-8.686967e+01
4.000000e-07	-5.182638e-06	-1.307247e-09	-3.614309e+01	-8.672895e+01
4.100000e-07	-5.165776e-06	-1.310478e-09	-3.602549e+01	-8.658408e+01
4.200000e-07	-5.148620e-06	-1.310359e-09	-3.590585e+01	-8.643525e+01
4.300000e-07	-5.131241e-06	-1.327092e-09	-3.578465e+01	-8.628270e+01
4.400000e-07	-5.113471e-06	-1.279930e-09	-3.566073e+01	-8.612665e+01
4.500000e-07	-5.095238e-06	-1.318725e-09	-3.553357e+01	-8.596730e+01
4.600000e-07	-5.076564e-06	-1.318229e-09	-3.540334e+01	-8.580488e+01
4.700000e-07	-5.057449e-06	-1.295632e-09	-3.527004e+01	-8.563958e+01
4.800000e-07	-5.038004e-06	-1.273338e-09	-3.513443e+01	-8.547160e+01
4.900000e-07	-5.018356e-06	-1.330833e-09	-3.499740e+01	-8.530112e+01
5.000000e-07	-4.998498e-06	-1.288379e-09	-3.485892e+01	-8.512831e+01
5.100000e-07	-4.978441e-06	-1.259210e-09	-3.471904e+01	-8.495332e+01
5.200000e-07	-4.958085e-06	-1.283820e-09	-3.457708e+01	-8.477630e+01
5.300000e-07	-4.937416e-06	-1.301944e-09	-3.443294e+01	-8.459736e+01
5.400000e-07	-4.916545e-06	-1.251472e-09	-3.428739e+01	-8.441661e+01
5.500000e-07	-4.895334e-06	-1.279628e-09	-3.413947e+01	-8.423414e+01
5.600000e-07	-4.873583e-06	-1.297652e-09	-3.398777e+01	-8.405000e+01
5.700000e-07	-4.851443e-06	-1.257427e-09	-3.383337e+01	-8.386426e+01
5.800000e-07	-4.829078e-06	-1.254163e-09	-3.367740e+01	-8.367694e+01
5.900000e-07	-4.806384e-06	-1.291491e-09	-3.351914e+01	-8.348804e+01
6.000000e-07	-4.783282e-06	-1.256191e-09	-3.335803e+01	-8.329756e+01
6.100000e-07	-4.759913e-06	-1.232478e-09	-3.319506e+01	-8.310547e+01
6.200000e-07	-4.736248e-06	-1.265936e-09	-3.303002e+01	-8.291172e+01
6.300000e-07	-4.712273e-06	-1.247928e-09	-3.286282e+01	-8.271624e+01
6.400000e-07	-4.688104e-06	-1.223557e-09	-3.269427e+01	-8.251897e+01
6.500000e-07	-4.663627e-06	-1.244322e-09	-3.252357e+01	-8.231980e+01
6.600000e-07	-4.638760e-06	-1.254804e-09	-3.235015e+01	-8.211863e+01
6.700000e-07	-4.613481e-06	-1.218231e-09	-3.217385e+01	-8.191534e+01
6.800000e-07	-4.587717e-06	-1.237122e-09	-3.199418e+01	-8.170981e+01
6.900000e-07	-4.561461e-06	-1.236605e-09	-3.181108e+01	-8.150189e+01
7.000000e-07	-4.534667e-06	-1.216986e-09	-3.162422e+01	-8.129144e+01
7.100000e-07	-4.507419e-06	-1.206076e-09	-3.143419e+01	-8.107832e+01
7.200000e-07	-4.479858e-06	-1.223790e-09	-3.124199e+01	-8.086236e+01
7.300000e-07	-4.452074e-06	-1.203259e-09	-3.104822e+01	-8.064342e+01
7.400000e-07	-4.424044e-06	-1.212592e-09	-3.085274e+01	-8.042134e+01
7.500000e-07	-4.395804e-06	-1.219240e-09	-3.065581e+01	-8.019596e+01
7.600000e-07	-4.367345e-06	-1.216082e-09	-3.045734e+01	-7.996713e+01
7.700000e-07	-4.338609e-06	-1.196791e-09	-3.025693e+01	-7.973471e+01
7.800000e-07	-4.309556e-06	-1.206738e-09	-3.005432e+01	-7.949855e+01
7.900000e-07	-4.280152e-06	-1.190090e-09	-2.984926e+01	-7.925852e+01
8.000000e-07	-4.250504e-06	-1.183021e-09	-2.964250e+01	-7.901450e+01
8.100000e-07	-4.220522e-06	-1.184244e-09	-2.943341e+01	-7.876636e+01
8.200000e-07	-4.190292e-06	-1.188717e-09	-2.922259e+01	-7.851399e+01
8.300000e-07	-4.159841e-06	-1.173029e-09	-2.901022e+01	-7.825730e+01
8.400000e-07	-4.129032e-06	-1.174041e-09	-2.879537e+01	-7.799620e+01
8.500000e-07	-4.097928e-06	-1.170267e-09	-2.857846e+01	-7.773061e+01
8.600000e-07	-4.066552e-06	-1.155941e-09	-2.835964e+01	-7.746047e+01
8.700000e-07	-4.034981e-06	-1.148521e-09	-2.813947e+01	-7.718572e+01
8.800000e-07	-4.003307e-06	-1.152682e-09	-2.791858e+01	-7.690632e+01
8.900000e-07	-3.971461e-06	-1.145810e-09	-2.769649e+01	-7.662224e+01
9.000000e-07	-3.939380e-06	-1.134354e-09	-2.747276e+01	-7.633344e+01
9.100000e-07	-3.907021e-06	-1.132596e-09	-2.724709e+01	-7.603993e+01
9.200000e-07	-3.874392e-06	-1.124005e-09	-2.701954e+01	-7.574169e+01
9.300000e-07	-3.841406e-06	-1.114519e-09	-2.678950e+01	-7.543873e+01
9.400000e-07	-3.807887e-06	-1.111818e-09	-2.655574e+01	-7.513105e+01
9.500000e-07	-3.773911e-06	-1.115653e-09	-2.631880e+01	-7.481868e+01
9.600000e-07	-3.739536e-06	-1.103185e-09	-2.607907e+01	-7.450164e+01
9.700000e-07	-3.704701e-06	-1.100486e-09	-2.583613e+01	-7.417994e+01
9.800000e-07	-3.669485e-06	-1.094974e-09	-2.559054e+01	-7.385362e+01
9.900000e-07	-3.634016e-06	-1.087036e-09	-2.534318e+01	-7.352270e+01
1.000000e-06	-3.598366e-06	-1.072066e-09	-2.509457e+01	-7.318721e+01
1.010000e-06	-3.562570e-06	-1.072650e-09	-2.484493e+01	-7.284717e+01
1.020000e-06	-3.526637e-06	-1.065335e-09	-2.459434e+01	-7.250262e+01
1.030000e-06	-3.490548e-06	-1.060509e-09	-2.434266e+01	-7.215356e+01
1.040000e-06	-3.454325e-06	-1.054598e-09	-2.409004e+01	-7.180002e+01
1.050000e-06	-3.417825e-06	-1.052563e-09	-2.383550e+01	-7.144199e+01
1.060000e-06	-3.381031e-06	-1.037965e-09	-2.357890e+01	-7.107949e+01
1.070000e-06	-3.343964e-06	-1.033250e-09	-2.332040e+01	-7.071250e+01
1.080000e-06	-3.306559e-06	-1.028792e-09	-2.305954e+01	-7.034101e+01
1.090000e-06	-3.268942e-06	-1.024222e-09	-2.279720e+01	-6.996500e+01
1.100000e-06	-3.231157e-06	-1.014367e-09	-2.253369e+01	-6.958441e+01
1.110000e-06	-3.193143e-06	-1.009287e-09	-2.226859e+01	-6.919922e+01
1.120000e-06	-3.154977e-06	-9.977967e-10	-2.200242e+01	-6.880935e+01
1.130000e-06	-3.116642e-06	-9.882986e-10	-2.173508e+01	-6.841475e+01
1.140000e-06	-3.078099e-06	-9.826409e-10	-2.146629e+01	-6.801532e+01
1.150000e-06	-3.039335e-06	-9.780617e-10	-2.119595e+01	-6.761098e+01
1.160000e-06	-3.000295e-06	-9.690826e-10	-2.092369e+01	-6.720161e+01
1.170000e-06	-2.961035e-06	-9.632457e-10	-2.064990e+01	-6.678711e+01
1.180000e-06	-2.921575e-06	-9.582728e-10	-2.037471e+01	-6.636734e+01
1.190000e-06	-2.881974e-06	-9.498849e-10	-2.009854e+01	-6.594217e+01
1.200000e-06	-2.842253e-06	-9.444045e-10	-1.982153e+01	-6.551143e+01
1.210000e-06	-2.802421e-06	-9.397605e-10	-1.954375e+01	-6.507499e+01
1.220000e-06	-2.762490e-06	-9.333269e-10	-1.926527e+01	-6.463266e+01
1.230000e-06	-2.722438e-06	-9.235743e-10	-1.898595e+01	-6.418426e+01
1.240000e-06	-2.682216e-06	-9.170150e-10	-1.870545e+01	-6.372961e+01
1.250000e-06	-2.641787e-06	-9.081464e-10	-1.842350e+01	-6.326852e+01
1.260000e-06	-2.601155e-06	-9.042713e-10	-1.814014e+01	-6.280078e+01
1.270000e-06	-2.560259e-06	-8.995953e-10	-1.785493e+01	-6.232619e+01
1.280000e-06	-2.519079e-06	-8.949581e-10	-1.756775e+01	-6.184453e+01
1.290000e-06	-2.477701e-06	-8.860204e-10	-1.727919e+01	-6.135558e+01
1.300000e-06	-2.436020e-06	-8.763210e-10	-1.698851e+01	-6.085912e+01
1.310000e-06	-2.393942e-06	-8.654571e-10	-1.669506e+01	-6.035492e+01
1.320000e-06	-2.351638e-06	-8.578595e-10	-1.640004e+01	-5.984275e+01
1.330000e-06	-2.309010e-06	-8.506644e-10	-1.610275e+01	-5.932239e+01
1.340000e-06	-2.266155e-06	-8.464163e-10	-1.580389e+01	-5.879358e+01
1.350000e-06	-2.223069e-06	-8.389986e-10	-1.550341e+01	-5.825611e+01
1.360000e-06	-2.179693e-06	-8.335627e-10	-1.520091e+01	-5.770972e+01
1.370000e-06	-2.136193e-06	-8.260526e-10	-1.489755e+01	-5.715417e+01
1.380000e-06	-2.092583e-06	-8.206886e-10	-1.459342e+01	-5.658923e+01
1.390000e-06	-2.048899e-06	-8.124962e-10	-1.428877e+01	-5.601465e+01
1.400000e-06	-2.005124e-06	-8.035597e-10	-1.398349e+01	-5.543018e+01
1.410000e-06	-1.961303e-06	-7.893744e-10	-1.367789e+01	-5.483558e+01
1.420000e-06	-1.917394e-06	-7.764469e-10	-1.337168e+01	-5.423060e+01
1.430000e-06	-1.873384e-06	-7.633376e-10	-1.306475e+01	-5.361500e+01
1.440000e-06	-1.829312e-06	-7.542445e-10	-1.275740e+01	-5.298852e+01
1.450000e-06	-1.785092e-06	-7.453618e-10	-1.244902e+01	-5.235091e+01
1.460000e-06	-1.740813e-06	-7.363939e-10	-1.214022e+01	-5.170191e+01
1.470000e-06	-1.696426e-06	-7.260170e-10	-1.183067e+01	-5.104128e+01
1.480000e-06	-1.651915e-06	-7.122993e-10	-1.152026e+01	-5.036875e+01
1.490000e-06	-1.607317e-06	-6.962699e-10	-1.120923e+01	-4.968406e+01
1.500000e-06	-1.562619e-06	-6.810103e-10	-1.089751e+01	-4.898696e+01
1.510000e-06	-1.517747e-06	-6.680460e-10	-1.058458e+01	-4.827718e+01
1.520000e-06	-1.472672e-06	-6.541579e-10	-1.027024e+01	-4.755445e+01
1.530000e-06	-1.427544e-06	-6.398268e-10	-9.955517e+00	-4.681851e+01
1.540000e-06	-1.382349e-06	-6.238906e-10	-9.640331e+00	-4.606909e+01
1.550000e-06	-1.337066e-06	-6.095188e-10	-9.324535e+00	-4.530592e+01
1.560000e-06	-1.291619e-06	-5.966480e-10	-9.007598e+00	-4.452873e+01
1.570000e-06	-1.246089e-06	-5.876792e-10	-8.690075e+00	-4.373724e+01
1.580000e-06	-1.200520e-06	-5.754849e-10	-8.372281e+00	-4.293120e+01
1.590000e-06	-1.154864e-06	-5.614927e-10	-8.053880e+00	-4.211034e+01
1.600000e-06	-1.109141e-06	-5.471056e-10	-7.735013e+00	-4.127439e+01
1.610000e-06	-1.063305e-06	-5.337276e-10	-7.415362e+00	-4.042309e+01
1.620000e-06	-1.017396e-06	-5.182962e-10	-7.095198e+00	-3.955620e+01
1.630000e-06	-9.714895e-07	-5.049871e-10	-6.775050e+00	-3.867346e+01
1.640000e-06	-9.255287e-07	-4.889851e-10	-6.454525e+00	-3.777464e+01
1.650000e-06	-8.794908e-07	-4.723607e-10	-6.133462e+00	-3.685952e+01
1.660000e-06	-8.333503e-07	-4.577997e-10	-5.811684e+00	-3.592788e+01
1.670000e-06	-7.870903e-07	-4.456851e-10	-5.489072e+00	-3.497953e+01
1.680000e-06	-7.408503e-07	-4.358221e-10	-5.166600e+00	-3.401428e+01
1.690000e-06	-6.946089e-07	-4.267524e-10	-4.844118e+00	-3.303198e+01
1.700000e-06	-6.483423e-07	-4.156249e-10	-4.521460e+00	-3.203248e+01
1.710000e-06	-6.020526e-07	-3.978292e-10	-4.198641e+00	-3.101569e+01
1.720000e-06	-5.556688e-07	-3.770417e-10	-3.875167e+00	-2.998149e+01
1.730000e-06	-5.091828e-07	-3.560901e-10	-3.550979e+00	-2.892985e+01
1.740000e-06	-4.626851e-07	-3.347629e-10	-3.226710e+00	-2.786073e+01
1.750000e-06	-4.161787e-07	-3.204438e-10	-2.902380e+00	-2.677414e+01
1.760000e-06	-3.696292e-07	-3.090707e-10	-2.577749e+00	-2.567012e+01
1.770000e-06	-3.230421e-07	-2.987474e-10	-2.252856e+00	-2.454877e+01
1.780000e-06	-2.763469e-07	-2.870000e-10	-1.927210e+00	-2.341019e+01
1.790000e-06	-2.296874e-07	-2.677619e-10	-1.601812e+00	-2.225455e+01
1.800000e-06	-1.831491e-07	-2.450461e-10	-1.277260e+00	-2.108208e+01
1.810000e-06	-1.365974e-07	-2.197283e-10	-9.526138e-01	-1.989302e+01
1.820000e-06	-8.997429e-08	-1.966207e-10	-6.274698e-01	-1.868768e+01
1.830000e-06	-4.340685e-08	-1.809312e-10	-3.027141e-01	-1.746641e+01
1.840000e-06	3.117823e-09	-1.675230e-10	2.174332e-02	-1.622961e+01
1.850000e-06	4.962141e-08	-1.581631e-10	3.460537e-01	-1.497774e+01
1.860000e-06	9.611799e-08	-1.454625e-10	6.703152e-01	-1.371131e+01
1.870000e-06	1.426849e-07	-1.291962e-10	9.950672e-01	-1.243086e+01
1.880000e-06	1.893087e-07	-1.086236e-10	1.320216e+00	-1.113700e+01
1.890000e-06	2.359160e-07	-8.523251e-11	1.645250e+00	-9.830381e+00
1.900000e-06	2.824726e-07	-6.543883e-11	1.969929e+00	-8.511716e+00
1.910000e-06	3.290102e-07	-4.559778e-11	2.294477e+00	-7.181750e+00
1.920000e-06	3.755325e-07	-2.944233e-11	2.618918e+00	-5.841282e+00
1.930000e-06	4.220630e-07	-1.405038e-11	2.943416e+00	-4.491150e+00
1.940000e-06	4.685190e-07	-5.014670e-13	3.267395e+00	-3.132239e+00
1.950000e-06	5.149761e-07	1.344337e-11	3.591381e+00	-1.765468e+00
1.960000e-06	5.615018e-07	3.019157e-11	3.915845e+00	-3.917958e-01
1.970000e-06	6.079349e-07	4.927976e-11	4.239664e+00	9.877878e-01
1.980000e-06	6.542965e-07	7.078749e-11	4.562984e+00	2.372263e+00
1.990000e-06	7.005574e-07	9.297341e-11	4.885602e+00	3.760586e+00
2.000000e-06	7.469016e-07	1.144145e-10	5.208801e+00	5.151689e+00
2.010000e-06	7.932028e-07	1.345594e-10	5.531700e+00	6.544488e+00
2.020000e-06	8.392227e-07	1.517408e-10	5.852637e+00	7.937887e+00
2.030000e-06	8.852902e-07	1.682559e-10	6.173906e+00	9.330780e+00
2.040000e-06	9.313691e-07	1.852965e-10	6.495255e+00	1.072206e+01
2.050000e-06	9.773393e-07	2.047795e-10	6.815846e+00	1.211061e+01
2.060000e-06	1.023197e-06	2.248055e-10	7.135652e+00	1.349534e+01
2.070000e-06	1.068943e-06	2.462892e-10	7.454678e+00	1.487515e+01
2.080000e-06	1.114645e-06	2.666464e-10	7.773396e+00	1.624895e+01
2.090000e-06	1.160285e-06	2.845380e-10	8.091686e+00	1.761571e+01
2.100000e-06	1.205840e-06	3.035972e-10	8.409385e+00	1.897437e+01
2.110000e-06	1.251239e-06	3.232524e-10	8.725987e+00	2.032393e+01
2.120000e-06	1.296592e-06	3.436207e-10	9.042276e+00	2.166343e+01
2.130000e-06	1.341997e-06	3.639953e-10	9.358923e+00	2.299191e+01
2.140000e-06	1.387190e-06	3.821987e-10	9.674095e+00	2.430849e+01
2.150000e-06	1.432176e-06	3.968874e-10	9.987825e+00	2.561231e+01
2.160000e-06	1.477133e-06	4.127035e-10	1.030134e+01	2.690257e+01
2.170000e-06	1.522029e-06	4.315450e-10	1.061444e+01	2.817851e+01
2.180000e-06	1.566761e-06	4.487605e-10	1.092640e+01	2.943942e+01
2.190000e-06	1.611356e-06	4.650089e-10	1.123740e+01	3.068465e+01
2.200000e-06	1.655760e-06	4.829112e-10	1.154707e+01	3.191362e+01
2.210000e-06	1.700077e-06	5.014576e-10	1.185613e+01	3.312577e+01
2.220000e-06	1.744434e-06	5.206384e-10	1.216547e+01	3.432064e+01
2.230000e-06	1.788642e-06	5.378806e-10	1.247377e+01	3.549781e+01
2.240000e-06	1.832667e-06	5.525526e-10	1.278080e+01	3.665690e+01
2.250000e-06	1.876600e-06	5.660670e-10	1.308718e+01	3.779763e+01
2.260000e-06	1.920522e-06	5.816322e-10	1.339349e+01	3.891974e+01
2.270000e-06	1.964393e-06	5.979233e-10	1.369944e+01	4.002305e+01
2.280000e-06	2.008190e-06	6.134313e-10	1.400487e+01	4.110743e+01
2.290000e-06	2.051968e-06	6.282137e-10	1.431017e+01	4.217279e+01
2.300000e-06	2.095665e-06	6.431312e-10	1.461491e+01	4.321912e+01
2.310000e-06	2.139278e-06	6.579499e-10	1.491906e+01	4.424643e+01
2.320000e-06	2.182792e-06	6.717412e-10	1.522253e+01	4.525479e+01
2.330000e-06	2.226092e-06	6.848602e-10	1.552449e+01	4.624432e+01
2.340000e-06	2.269188e-06	6.986881e-10	1.582504e+01	4.721516e+01
2.350000e-06	2.312012e-06	7.116959e-10	1.612369e+01	4.816752e+01
2.360000e-06	2.354536e-06	7.243607e-10	1.642025e+01	4.910160e+01
2.370000e-06	2.396762e-06	7.369572e-10	1.671473e+01	5.001767e+01
2.380000e-06	2.438729e-06	7.481589e-10	1.700740e+01	5.091601e+01
2.390000e-06	2.480392e-06	7.609573e-10	1.729796e+01	5.179691e+01
2.400000e-06	2.521699e-06	7.766925e-10	1.758602e+01	5.266069e+01
2.410000e-06	2.562661e-06	7.905349e-10	1.787169e+01	5.350770e+01
2.420000e-06	2.603367e-06	8.018925e-10	1.815557e+01	5.433827e+01
2.430000e-06	2.643919e-06	8.127883e-10	1.843837e+01	5.515276e+01
2.440000e-06	2.684264e-06	8.231919e-10	1.871973e+01	5.595153e+01
2.450000e-06	2.724458e-06	8.343417e-10	1.900004e+01	5.673493e+01
2.460000e-06	2.764496e-06	8.424229e-10	1.927926e+01	5.750332e+01
2.470000e-06	2.804401e-06	8.505897e-10	1.955755e+01	5.825705e+01
2.480000e-06	2.844223e-06	8.597244e-10	1.983527e+01	5.899645e+01
2.490000e-06	2.883974e-06	8.693921e-10	2.011248e+01	5.972187e+01
2.500000e-06	2.923533e-06	8.802138e-10	2.038837e+01	6.043361e+01
2.510000e-06	2.962865e-06	8.908095e-10	2.066266e+01	6.113197e+01
2.520000e-06	3.002031e-06	9.015752e-10	2.093580e+01	6.181725e+01
2.530000e-06	3.040934e-06	9.110401e-10	2.120710e+01	6.248971e+01
2.540000e-06	3.079534e-06	9.173223e-10	2.147630e+01	6.314960e+01
2.550000e-06	3.117883e-06	9.231202e-10	2.174373e+01	6.379715e+01
2.560000e-06	3.156058e-06	9.316969e-10	2.200997e+01	6.443257e+01
2.570000e-06	3.194122e-06	9.389527e-10	2.227542e+01	6.505605e+01
2.580000e-06	3.232008e-06	9.470760e-10	2.253963e+01	6.566776e+01
2.590000e-06	3.269590e-06	9.544866e-10	2.280173e+01	6.626785e+01
2.600000e-06	3.307023e-06	9.622177e-10	2.306277e+01	6.685645e+01
2.610000e-06	3.344299e-06	9.699735e-10	2.332274e+01	6.743368e+01
2.620000e-06	3.381241e-06	9.748715e-10	2.358037e+01	6.799964e+01
2.630000e-06	3.417875e-06	9.804940e-10	2.383584e+01	6.855441e+01
2.640000e-06	3.454213e-06	9.869076e-10	2.408926e+01	6.909806e+01
2.650000e-06	3.490375e-06	9.966606e-10	2.434145e+01	6.963067e+01
2.660000e-06	3.526371e-06	1.004599e-09	2.459248e+01	7.015226e+01
2.670000e-06	3.562255e-06	1.012538e-09	2.484273e+01	7.066290e+01
2.680000e-06	3.598054e-06	1.018965e-09	2.509239e+01	7.116262e+01
2.690000e-06	3.633703e-06	1.024951e-09	2.534101e+01	7.165146e+01
2.700000e-06	3.669127e-06	1.031978e-09	2.558804e+01	7.212944e+01
2.710000e-06	3.704243e-06	1.040211e-09	2.583294e+01	7.259661e+01
2.720000e-06	3.739009e-06	1.052197e-09	2.607540e+01	7.305300e+01
2.730000e-06	3.773359e-06	1.064285e-09	2.631495e+01	7.349866e+01
2.740000e-06	3.807258e-06	1.071948e-09	2.655135e+01	7.393364e+01
2.750000e-06	3.840718e-06	1.076539e-09	2.678470e+01	7.435800e+01
2.760000e-06	3.873749e-06	1.080853e-09	2.701505e+01	7.477181e+01
2.770000e-06	3.906331e-06	1.084210e-09	2.724228e+01	7.517515e+01
2.780000e-06	3.938630e-06	1.089584e-09	2.746752e+01	7.556811e+01
2.790000e-06	3.970701e-06	1.097919e-09	2.769119e+01	7.595081e+01
2.800000e-06	4.002598e-06	1.107115e-09	2.791363e+01	7.632336e+01
2.810000e-06	4.034417e-06	1.114870e-09	2.813553e+01	7.668590e+01
2.820000e-06	4.066029e-06	1.120398e-09	2.835599e+01	7.703859e+01
2.830000e-06	4.097384e-06	1.125310e-09	2.857466e+01	7.738160e+01
2.840000e-06	4.128489e-06	1.129343e-09	2.879158e+01	7.771511e+01
2.850000e-06	4.159311e-06	1.134664e-09	2.900653e+01	7.803932e+01
2.860000e-06	4.189761e-06	1.142477e-09	2.921889e+01	7.835444e+01
2.870000e-06	4.219862e-06	1.148731e-09	2.942880e+01	7.866070e+01
2.880000e-06	4.249688e-06	1.152917e-09	2.963681e+01	7.895835e+01
2.890000e-06	4.279331e-06	1.155728e-09	2.984354e+01	7.924764e+01
2.900000e-06	4.308761e-06	1.161365e-09	3.004878e+01	7.952883e+01
