# Temperatura_=_-6.37
# Concentracion g/m^3_=_1620.0
# C_Vs_to_Am_M_A/Vsm_=_65563218390.804596
# pendiente_HvsI_1/m_=_3716.3
# ordenada_HvsI_A/m_=_1297.0
# frecuencia_Hz_=_135096.17723799986

Tiempo_(s)	Campo_(V.s)	Magnetizacion_(V.s)	Campo_(kA/m)	Magnetizacion_(A/m)
0.000000e+00	-5.538750e-06	-9.111289e-10	-3.836689e+01	-6.032799e+01
1.000000e-08	-5.538940e-06	-9.097470e-10	-3.836821e+01	-6.030319e+01
2.000000e-08	-5.538898e-06	-9.096637e-10	-3.836792e+01	-6.028067e+01
3.000000e-08	-5.538539e-06	-9.103116e-10	-3.836544e+01	-6.026054e+01
4.000000e-08	-5.537688e-06	-9.105918e-10	-3.835954e+01	-6.024288e+01
5.000000e-08	-5.536260e-06	-9.123572e-10	-3.834964e+01	-6.022773e+01
6.000000e-08	-5.534234e-06	-9.198054e-10	-3.833561e+01	-6.021511e+01
7.000000e-08	-5.531658e-06	-9.273379e-10	-3.831777e+01	-6.020500e+01
8.000000e-08	-5.528508e-06	-9.000114e-10	-3.829595e+01	-6.019736e+01
9.000000e-08	-5.524812e-06	-8.685607e-10	-3.827035e+01	-6.019209e+01
1.000000e-07	-5.520786e-06	-9.042285e-10	-3.824246e+01	-6.018908e+01
1.100000e-07	-5.516529e-06	-9.731691e-10	-3.821297e+01	-6.018820e+01
1.200000e-07	-5.512001e-06	-9.301628e-10	-3.818161e+01	-6.018927e+01
1.300000e-07	-5.507110e-06	-8.321499e-10	-3.814772e+01	-6.019209e+01
1.400000e-07	-5.501864e-06	-8.585177e-10	-3.811139e+01	-6.019644e+01
1.500000e-07	-5.496295e-06	-9.383979e-10	-3.807281e+01	-6.020208e+01
1.600000e-07	-5.490275e-06	-9.258215e-10	-3.803111e+01	-6.020875e+01
1.700000e-07	-5.483863e-06	-8.718957e-10	-3.798669e+01	-6.021617e+01
1.800000e-07	-5.477119e-06	-8.915978e-10	-3.793998e+01	-6.022403e+01
1.900000e-07	-5.469946e-06	-9.835455e-10	-3.789029e+01	-6.023204e+01
2.000000e-07	-5.462387e-06	-9.547013e-10	-3.783793e+01	-6.023987e+01
2.100000e-07	-5.454568e-06	-9.115701e-10	-3.778377e+01	-6.024720e+01
2.200000e-07	-5.446517e-06	-8.895193e-10	-3.772800e+01	-6.025371e+01
2.300000e-07	-5.438175e-06	-9.484922e-10	-3.767022e+01	-6.025907e+01
2.400000e-07	-5.429313e-06	-9.610939e-10	-3.760883e+01	-6.026296e+01
2.500000e-07	-5.419861e-06	-9.468727e-10	-3.754336e+01	-6.026504e+01
2.600000e-07	-5.409872e-06	-9.283857e-10	-3.747416e+01	-6.026502e+01
2.700000e-07	-5.399235e-06	-9.494026e-10	-3.740048e+01	-6.026258e+01
2.800000e-07	-5.388086e-06	-9.381660e-10	-3.732325e+01	-6.025744e+01
2.900000e-07	-5.376513e-06	-9.146418e-10	-3.724308e+01	-6.024931e+01
3.000000e-07	-5.364485e-06	-9.257719e-10	-3.715976e+01	-6.023795e+01
3.100000e-07	-5.352116e-06	-9.449713e-10	-3.707409e+01	-6.022309e+01
3.200000e-07	-5.339393e-06	-9.523458e-10	-3.698595e+01	-6.020453e+01
3.300000e-07	-5.326244e-06	-9.172835e-10	-3.689487e+01	-6.018206e+01
3.400000e-07	-5.312658e-06	-9.303076e-10	-3.680076e+01	-6.015549e+01
3.500000e-07	-5.298667e-06	-9.345247e-10	-3.670384e+01	-6.012468e+01
3.600000e-07	-5.284282e-06	-9.234269e-10	-3.660420e+01	-6.008949e+01
3.700000e-07	-5.269371e-06	-8.925010e-10	-3.650091e+01	-6.004981e+01
3.800000e-07	-5.253997e-06	-9.438313e-10	-3.639441e+01	-6.000556e+01
3.900000e-07	-5.238161e-06	-9.568080e-10	-3.628472e+01	-5.995668e+01
4.000000e-07	-5.221716e-06	-9.060799e-10	-3.617080e+01	-5.990313e+01
4.100000e-07	-5.204859e-06	-8.928229e-10	-3.605403e+01	-5.984491e+01
4.200000e-07	-5.187840e-06	-9.553922e-10	-3.593614e+01	-5.978202e+01
4.300000e-07	-5.170505e-06	-9.189444e-10	-3.581606e+01	-5.971450e+01
4.400000e-07	-5.152699e-06	-8.711620e-10	-3.569273e+01	-5.964241e+01
4.500000e-07	-5.134588e-06	-9.205788e-10	-3.556727e+01	-5.956583e+01
4.600000e-07	-5.116226e-06	-9.588585e-10	-3.544007e+01	-5.948486e+01
4.700000e-07	-5.097426e-06	-8.778398e-10	-3.530984e+01	-5.939960e+01
4.800000e-07	-5.078194e-06	-8.839488e-10	-3.517663e+01	-5.931019e+01
4.900000e-07	-5.058687e-06	-9.393562e-10	-3.504150e+01	-5.921679e+01
5.000000e-07	-5.039012e-06	-9.050918e-10	-3.490521e+01	-5.911954e+01
5.100000e-07	-5.019150e-06	-8.650813e-10	-3.476763e+01	-5.901862e+01
5.200000e-07	-4.999008e-06	-9.243704e-10	-3.462811e+01	-5.891422e+01
5.300000e-07	-4.978451e-06	-9.145505e-10	-3.448571e+01	-5.880652e+01
5.400000e-07	-4.957439e-06	-8.630721e-10	-3.434016e+01	-5.869572e+01
5.500000e-07	-4.936102e-06	-8.990055e-10	-3.419236e+01	-5.858202e+01
5.600000e-07	-4.914445e-06	-9.226666e-10	-3.404234e+01	-5.846564e+01
5.700000e-07	-4.892425e-06	-8.617044e-10	-3.388980e+01	-5.834676e+01
5.800000e-07	-4.870074e-06	-8.639916e-10	-3.373498e+01	-5.822561e+01
5.900000e-07	-4.847337e-06	-9.082119e-10	-3.357748e+01	-5.810239e+01
6.000000e-07	-4.824274e-06	-8.766332e-10	-3.341772e+01	-5.797729e+01
6.100000e-07	-4.800993e-06	-8.558750e-10	-3.325645e+01	-5.785053e+01
6.200000e-07	-4.777385e-06	-8.840513e-10	-3.309292e+01	-5.772228e+01
6.300000e-07	-4.753533e-06	-8.742765e-10	-3.292770e+01	-5.759273e+01
6.400000e-07	-4.729467e-06	-8.465877e-10	-3.276099e+01	-5.746207e+01
6.500000e-07	-4.704961e-06	-8.731056e-10	-3.259124e+01	-5.733045e+01
6.600000e-07	-4.680027e-06	-8.759517e-10	-3.241852e+01	-5.719804e+01
6.700000e-07	-4.654609e-06	-8.586594e-10	-3.224245e+01	-5.706499e+01
6.800000e-07	-4.628648e-06	-8.618449e-10	-3.206263e+01	-5.693143e+01
6.900000e-07	-4.602199e-06	-8.697748e-10	-3.187941e+01	-5.679748e+01
7.000000e-07	-4.575281e-06	-8.473289e-10	-3.169295e+01	-5.666325e+01
7.100000e-07	-4.548023e-06	-8.506559e-10	-3.150414e+01	-5.652885e+01
7.200000e-07	-4.520528e-06	-8.536084e-10	-3.131368e+01	-5.639436e+01
7.300000e-07	-4.492846e-06	-8.474599e-10	-3.112193e+01	-5.625985e+01
7.400000e-07	-4.464953e-06	-8.476094e-10	-3.092871e+01	-5.612537e+01
7.500000e-07	-4.436801e-06	-8.606285e-10	-3.073370e+01	-5.599097e+01
7.600000e-07	-4.408337e-06	-8.481982e-10	-3.053653e+01	-5.585668e+01
7.700000e-07	-4.379603e-06	-8.458258e-10	-3.033749e+01	-5.572251e+01
7.800000e-07	-4.350520e-06	-8.486357e-10	-3.013603e+01	-5.558846e+01
7.900000e-07	-4.321014e-06	-8.397946e-10	-2.993165e+01	-5.545452e+01
8.000000e-07	-4.291265e-06	-8.290893e-10	-2.972557e+01	-5.532066e+01
8.100000e-07	-4.261329e-06	-8.386113e-10	-2.951820e+01	-5.518684e+01
8.200000e-07	-4.231089e-06	-8.361158e-10	-2.930873e+01	-5.505299e+01
8.300000e-07	-4.200500e-06	-8.274744e-10	-2.909684e+01	-5.491906e+01
8.400000e-07	-4.169560e-06	-8.324975e-10	-2.888253e+01	-5.478496e+01
8.500000e-07	-4.138321e-06	-8.376261e-10	-2.866613e+01	-5.465059e+01
8.600000e-07	-4.106913e-06	-8.279804e-10	-2.844857e+01	-5.451584e+01
8.700000e-07	-4.075346e-06	-8.241287e-10	-2.822990e+01	-5.438059e+01
8.800000e-07	-4.043589e-06	-8.276405e-10	-2.800992e+01	-5.424471e+01
8.900000e-07	-4.011641e-06	-8.181680e-10	-2.778862e+01	-5.410805e+01
9.000000e-07	-3.979523e-06	-8.099114e-10	-2.756614e+01	-5.397046e+01
9.100000e-07	-3.947128e-06	-8.096094e-10	-2.734174e+01	-5.383175e+01
9.200000e-07	-3.914320e-06	-8.045651e-10	-2.711448e+01	-5.369177e+01
9.300000e-07	-3.881023e-06	-7.949952e-10	-2.688383e+01	-5.355030e+01
9.400000e-07	-3.847239e-06	-8.008045e-10	-2.664981e+01	-5.340716e+01
9.500000e-07	-3.812993e-06	-8.034847e-10	-2.641259e+01	-5.326213e+01
9.600000e-07	-3.778290e-06	-7.991380e-10	-2.617220e+01	-5.311499e+01
9.700000e-07	-3.743301e-06	-7.949944e-10	-2.592983e+01	-5.296552e+01
9.800000e-07	-3.708060e-06	-7.971336e-10	-2.568572e+01	-5.281349e+01
9.900000e-07	-3.672561e-06	-7.896595e-10	-2.543981e+01	-5.265864e+01
1.000000e-06	-3.636903e-06	-7.859061e-10	-2.519281e+01	-5.250074e+01
1.010000e-06	-3.601088e-06	-7.852094e-10	-2.494472e+01	-5.233953e+01
1.020000e-06	-3.565126e-06	-7.824466e-10	-2.469561e+01	-5.217476e+01
1.030000e-06	-3.529055e-06	-7.735745e-10	-2.444575e+01	-5.200616e+01
1.040000e-06	-3.492851e-06	-7.712663e-10	-2.419496e+01	-5.183347e+01
1.050000e-06	-3.456398e-06	-7.654830e-10	-2.394245e+01	-5.165643e+01
1.060000e-06	-3.419509e-06	-7.563401e-10	-2.368692e+01	-5.147477e+01
1.070000e-06	-3.382273e-06	-7.495546e-10	-2.342899e+01	-5.128824e+01
1.080000e-06	-3.344834e-06	-7.491709e-10	-2.316965e+01	-5.109656e+01
1.090000e-06	-3.307156e-06	-7.440908e-10	-2.290866e+01	-5.089948e+01
1.100000e-06	-3.269257e-06	-7.383179e-10	-2.264613e+01	-5.069676e+01
1.110000e-06	-3.231132e-06	-7.328619e-10	-2.238203e+01	-5.048813e+01
1.120000e-06	-3.192764e-06	-7.249482e-10	-2.211626e+01	-5.027337e+01
1.130000e-06	-3.154210e-06	-7.178123e-10	-2.184920e+01	-5.005223e+01
1.140000e-06	-3.115506e-06	-7.158135e-10	-2.158110e+01	-4.982451e+01
1.150000e-06	-3.076547e-06	-7.131587e-10	-2.131122e+01	-4.958998e+01
1.160000e-06	-3.037354e-06	-7.105467e-10	-2.103974e+01	-4.934844e+01
1.170000e-06	-2.998013e-06	-7.104227e-10	-2.076722e+01	-4.909973e+01
1.180000e-06	-2.958544e-06	-7.093772e-10	-2.049382e+01	-4.884365e+01
1.190000e-06	-2.918977e-06	-7.040841e-10	-2.021974e+01	-4.858005e+01
1.200000e-06	-2.879230e-06	-6.970263e-10	-1.994441e+01	-4.830881e+01
1.210000e-06	-2.839295e-06	-6.901917e-10	-1.966778e+01	-4.802978e+01
1.220000e-06	-2.799187e-06	-6.809680e-10	-1.938995e+01	-4.774288e+01
1.230000e-06	-2.758902e-06	-6.771996e-10	-1.911090e+01	-4.744800e+01
1.240000e-06	-2.718383e-06	-6.770141e-10	-1.883023e+01	-4.714509e+01
1.250000e-06	-2.677644e-06	-6.766723e-10	-1.854803e+01	-4.683408e+01
1.260000e-06	-2.636732e-06	-6.741870e-10	-1.826463e+01	-4.651496e+01
1.270000e-06	-2.595485e-06	-6.728805e-10	-1.797892e+01	-4.618771e+01
1.280000e-06	-2.553947e-06	-6.669749e-10	-1.769118e+01	-4.585233e+01
1.290000e-06	-2.512255e-06	-6.580468e-10	-1.740238e+01	-4.550884e+01
1.300000e-06	-2.470226e-06	-6.477316e-10	-1.711124e+01	-4.515729e+01
1.310000e-06	-2.427786e-06	-6.402701e-10	-1.681726e+01	-4.479774e+01
1.320000e-06	-2.385106e-06	-6.332354e-10	-1.652162e+01	-4.443024e+01
1.330000e-06	-2.342189e-06	-6.310064e-10	-1.622433e+01	-4.405489e+01
1.340000e-06	-2.299024e-06	-6.324099e-10	-1.592533e+01	-4.367179e+01
1.350000e-06	-2.255682e-06	-6.300803e-10	-1.562510e+01	-4.328103e+01
1.360000e-06	-2.212242e-06	-6.224807e-10	-1.532419e+01	-4.288274e+01
1.370000e-06	-2.168662e-06	-6.127576e-10	-1.502231e+01	-4.247703e+01
1.380000e-06	-2.124920e-06	-6.026477e-10	-1.471931e+01	-4.206403e+01
1.390000e-06	-2.081113e-06	-5.954974e-10	-1.441586e+01	-4.164388e+01
1.400000e-06	-2.037313e-06	-5.895138e-10	-1.411246e+01	-4.121669e+01
1.410000e-06	-1.993405e-06	-5.841156e-10	-1.380831e+01	-4.078259e+01
1.420000e-06	-1.949362e-06	-5.783241e-10	-1.350322e+01	-4.034171e+01
1.430000e-06	-1.905281e-06	-5.741708e-10	-1.319787e+01	-3.989415e+01
1.440000e-06	-1.861057e-06	-5.682511e-10	-1.289153e+01	-3.944002e+01
1.450000e-06	-1.816675e-06	-5.599186e-10	-1.258410e+01	-3.897941e+01
1.460000e-06	-1.772188e-06	-5.481832e-10	-1.227594e+01	-3.851239e+01
1.470000e-06	-1.727615e-06	-5.373270e-10	-1.196718e+01	-3.803902e+01
1.480000e-06	-1.682865e-06	-5.271007e-10	-1.165720e+01	-3.755934e+01
1.490000e-06	-1.638044e-06	-5.180024e-10	-1.134673e+01	-3.707337e+01
1.500000e-06	-1.593125e-06	-5.123763e-10	-1.103557e+01	-3.658110e+01
1.510000e-06	-1.547946e-06	-5.072777e-10	-1.072261e+01	-3.608250e+01
1.520000e-06	-1.502652e-06	-5.014651e-10	-1.040886e+01	-3.557750e+01
1.530000e-06	-1.457228e-06	-4.923055e-10	-1.009421e+01	-3.506602e+01
1.540000e-06	-1.411655e-06	-4.796731e-10	-9.778525e+00	-3.454794e+01
1.550000e-06	-1.365989e-06	-4.658891e-10	-9.462198e+00	-3.402313e+01
1.560000e-06	-1.320306e-06	-4.544610e-10	-9.145753e+00	-3.349139e+01
1.570000e-06	-1.274652e-06	-4.476580e-10	-8.829505e+00	-3.295253e+01
1.580000e-06	-1.228892e-06	-4.472925e-10	-8.512526e+00	-3.240631e+01
1.590000e-06	-1.182962e-06	-4.449313e-10	-8.194376e+00	-3.185246e+01
1.600000e-06	-1.136962e-06	-4.376935e-10	-7.875733e+00	-3.129070e+01
1.610000e-06	-1.090897e-06	-4.232238e-10	-7.556641e+00	-3.072069e+01
1.620000e-06	-1.044760e-06	-4.085016e-10	-7.237048e+00	-3.014209e+01
1.630000e-06	-9.984965e-07	-3.959247e-10	-6.916581e+00	-2.955453e+01
1.640000e-06	-9.521612e-07	-3.863862e-10	-6.595616e+00	-2.895763e+01
1.650000e-06	-9.058456e-07	-3.802331e-10	-6.274788e+00	-2.835098e+01
1.660000e-06	-8.594306e-07	-3.757089e-10	-5.953272e+00	-2.773414e+01
1.670000e-06	-8.129300e-07	-3.713671e-10	-5.631162e+00	-2.710669e+01
1.680000e-06	-7.663920e-07	-3.657439e-10	-5.308794e+00	-2.646818e+01
1.690000e-06	-7.198009e-07	-3.573126e-10	-4.986058e+00	-2.581817e+01
1.700000e-06	-6.732148e-07	-3.459829e-10	-4.663356e+00	-2.515621e+01
1.710000e-06	-6.266039e-07	-3.311152e-10	-4.340483e+00	-2.448186e+01
1.720000e-06	-5.798141e-07	-3.174430e-10	-4.016370e+00	-2.379468e+01
1.730000e-06	-5.329201e-07	-3.070397e-10	-3.691535e+00	-2.309425e+01
1.740000e-06	-4.860508e-07	-2.978150e-10	-3.366872e+00	-2.238017e+01
1.750000e-06	-4.392242e-07	-2.884135e-10	-3.042504e+00	-2.165206e+01
1.760000e-06	-3.924476e-07	-2.772213e-10	-2.718483e+00	-2.090957e+01
1.770000e-06	-3.455948e-07	-2.666653e-10	-2.393933e+00	-2.015237e+01
1.780000e-06	-2.985711e-07	-2.550070e-10	-2.068200e+00	-1.938019e+01
1.790000e-06	-2.515660e-07	-2.406673e-10	-1.742597e+00	-1.859278e+01
1.800000e-06	-2.046280e-07	-2.244707e-10	-1.417457e+00	-1.778993e+01
1.810000e-06	-1.577306e-07	-2.086124e-10	-1.092599e+00	-1.697151e+01
1.820000e-06	-1.108597e-07	-1.940095e-10	-7.679243e-01	-1.613742e+01
1.830000e-06	-6.391130e-08	-1.822772e-10	-4.427133e-01	-1.528761e+01
1.840000e-06	-1.701095e-08	-1.726168e-10	-1.178348e-01	-1.442210e+01
1.850000e-06	2.990768e-08	-1.644054e-10	2.071704e-01	-1.354098e+01
1.860000e-06	7.687621e-08	-1.529523e-10	5.325211e-01	-1.264438e+01
1.870000e-06	1.238394e-07	-1.409145e-10	8.578352e-01	-1.173253e+01
1.880000e-06	1.709098e-07	-1.288728e-10	1.183892e+00	-1.080569e+01
1.890000e-06	2.179747e-07	-1.150087e-10	1.509910e+00	-9.864206e+00
1.900000e-06	2.649292e-07	-9.941272e-11	1.835163e+00	-8.908499e+00
1.910000e-06	3.118739e-07	-8.280390e-11	2.160349e+00	-7.939045e+00
1.920000e-06	3.587505e-07	-6.756029e-11	2.485063e+00	-6.956394e+00
1.930000e-06	4.055359e-07	-5.436927e-11	2.809145e+00	-5.961159e+00
1.940000e-06	4.524315e-07	-4.244583e-11	3.133991e+00	-4.954018e+00
1.950000e-06	4.993002e-07	-3.225742e-11	3.458650e+00	-3.935711e+00
1.960000e-06	5.460642e-07	-2.369751e-11	3.782585e+00	-2.907036e+00
1.970000e-06	5.928603e-07	-1.330250e-11	4.106741e+00	-1.868848e+00
1.980000e-06	6.395183e-07	8.263940e-13	4.429940e+00	-8.220519e-01
1.990000e-06	6.860885e-07	1.752785e-11	4.752532e+00	2.323983e-01
2.000000e-06	7.326076e-07	3.469034e-11	5.074770e+00	1.293507e+00
2.010000e-06	7.790628e-07	5.197758e-11	5.396564e+00	2.360239e+00
2.020000e-06	8.255644e-07	6.785560e-11	5.718681e+00	3.431530e+00
2.030000e-06	8.720162e-07	8.065073e-11	6.040452e+00	4.506286e+00
2.040000e-06	9.184047e-07	9.160156e-11	6.361785e+00	5.583392e+00
2.050000e-06	9.647083e-07	1.024850e-10	6.682530e+00	6.661720e+00
2.060000e-06	1.010846e-06	1.151636e-10	7.002128e+00	7.740133e+00
2.070000e-06	1.056901e-06	1.315298e-10	7.321146e+00	8.817491e+00
2.080000e-06	1.102896e-06	1.506950e-10	7.639758e+00	9.892658e+00
2.090000e-06	1.148851e-06	1.705152e-10	7.958085e+00	1.096451e+01
2.100000e-06	1.194819e-06	1.870753e-10	8.276508e+00	1.203194e+01
2.110000e-06	1.240683e-06	2.009623e-10	8.594204e+00	1.309385e+01
2.120000e-06	1.286402e-06	2.136636e-10	8.910899e+00	1.414921e+01
2.130000e-06	1.332040e-06	2.255093e-10	9.227032e+00	1.519697e+01
2.140000e-06	1.377561e-06	2.358274e-10	9.542361e+00	1.623616e+01
2.150000e-06	1.423014e-06	2.457627e-10	9.857209e+00	1.726584e+01
2.160000e-06	1.468431e-06	2.590537e-10	1.017181e+01	1.828513e+01
2.170000e-06	1.513737e-06	2.752783e-10	1.048565e+01	1.929319e+01
2.180000e-06	1.558891e-06	2.912665e-10	1.079843e+01	2.028924e+01
2.190000e-06	1.603848e-06	3.046179e-10	1.110984e+01	2.127257e+01
2.200000e-06	1.648674e-06	3.170485e-10	1.142035e+01	2.224254e+01
2.210000e-06	1.693464e-06	3.288011e-10	1.173062e+01	2.319855e+01
2.220000e-06	1.738137e-06	3.400398e-10	1.204007e+01	2.414008e+01
2.230000e-06	1.782632e-06	3.528677e-10	1.234829e+01	2.506671e+01
2.240000e-06	1.826909e-06	3.673502e-10	1.265499e+01	2.597804e+01
2.250000e-06	1.871028e-06	3.809426e-10	1.296060e+01	2.687377e+01
2.260000e-06	1.915095e-06	3.933097e-10	1.326585e+01	2.775366e+01
2.270000e-06	1.959075e-06	4.038235e-10	1.357050e+01	2.861754e+01
2.280000e-06	2.003008e-06	4.140866e-10	1.387483e+01	2.946531e+01
2.290000e-06	2.046872e-06	4.232696e-10	1.417867e+01	3.029693e+01
2.300000e-06	2.090661e-06	4.325395e-10	1.448200e+01	3.111242e+01
2.310000e-06	2.134381e-06	4.444211e-10	1.478484e+01	3.191186e+01
2.320000e-06	2.177985e-06	4.577768e-10	1.508689e+01	3.269539e+01
2.330000e-06	2.221508e-06	4.717814e-10	1.538837e+01	3.346320e+01
2.340000e-06	2.264930e-06	4.835849e-10	1.568916e+01	3.421551e+01
2.350000e-06	2.308160e-06	4.924922e-10	1.598861e+01	3.495259e+01
2.360000e-06	2.351199e-06	4.982719e-10	1.628675e+01	3.567477e+01
2.370000e-06	2.394093e-06	5.044575e-10	1.658387e+01	3.638237e+01
2.380000e-06	2.436757e-06	5.118892e-10	1.687940e+01	3.707577e+01
2.390000e-06	2.479020e-06	5.242901e-10	1.717216e+01	3.775535e+01
2.400000e-06	2.520947e-06	5.386854e-10	1.746259e+01	3.842152e+01
2.410000e-06	2.562655e-06	5.513392e-10	1.775150e+01	3.907469e+01
2.420000e-06	2.604076e-06	5.621194e-10	1.803842e+01	3.971527e+01
2.430000e-06	2.645134e-06	5.702619e-10	1.832283e+01	4.034368e+01
2.440000e-06	2.685853e-06	5.783080e-10	1.860489e+01	4.096033e+01
2.450000e-06	2.726408e-06	5.865477e-10	1.888581e+01	4.156562e+01
2.460000e-06	2.766776e-06	5.959632e-10	1.916544e+01	4.215993e+01
2.470000e-06	2.806841e-06	6.046638e-10	1.944297e+01	4.274362e+01
2.480000e-06	2.846702e-06	6.105569e-10	1.971909e+01	4.331703e+01
2.490000e-06	2.886484e-06	6.179385e-10	1.999466e+01	4.388048e+01
2.500000e-06	2.926220e-06	6.272581e-10	2.026991e+01	4.443423e+01
2.510000e-06	2.965878e-06	6.364596e-10	2.054462e+01	4.497855e+01
2.520000e-06	3.005372e-06	6.450545e-10	2.081820e+01	4.551365e+01
2.530000e-06	3.044620e-06	6.538465e-10	2.109007e+01	4.603969e+01
2.540000e-06	3.083619e-06	6.612783e-10	2.136022e+01	4.655681e+01
2.550000e-06	3.122455e-06	6.651070e-10	2.162923e+01	4.706513e+01
2.560000e-06	3.161065e-06	6.694397e-10	2.189668e+01	4.756468e+01
2.570000e-06	3.199410e-06	6.751156e-10	2.216230e+01	4.805550e+01
2.580000e-06	3.237530e-06	6.810219e-10	2.242635e+01	4.853757e+01
2.590000e-06	3.275458e-06	6.873197e-10	2.268908e+01	4.901083e+01
2.600000e-06	3.313235e-06	6.942069e-10	2.295076e+01	4.947520e+01
2.610000e-06	3.350822e-06	7.018236e-10	2.321113e+01	4.993056e+01
2.620000e-06	3.388182e-06	7.089024e-10	2.346992e+01	5.037675e+01
2.630000e-06	3.425348e-06	7.140975e-10	2.372737e+01	5.081361e+01
2.640000e-06	3.462220e-06	7.175060e-10	2.398278e+01	5.124094e+01
2.650000e-06	3.498769e-06	7.198178e-10	2.423596e+01	5.165851e+01
2.660000e-06	3.535020e-06	7.242408e-10	2.448707e+01	5.206609e+01
2.670000e-06	3.571034e-06	7.291520e-10	2.473654e+01	5.246345e+01
2.680000e-06	3.606915e-06	7.338463e-10	2.498508e+01	5.285032e+01
2.690000e-06	3.642699e-06	7.390820e-10	2.523296e+01	5.322646e+01
2.700000e-06	3.678365e-06	7.450464e-10	2.548002e+01	5.359161e+01
2.710000e-06	3.713826e-06	7.511338e-10	2.572566e+01	5.394552e+01
2.720000e-06	3.749081e-06	7.563983e-10	2.596987e+01	5.428798e+01
2.730000e-06	3.784049e-06	7.630931e-10	2.621209e+01	5.461875e+01
2.740000e-06	3.818596e-06	7.703632e-10	2.645140e+01	5.493763e+01
2.750000e-06	3.852710e-06	7.745960e-10	2.668770e+01	5.524445e+01
2.760000e-06	3.886350e-06	7.761664e-10	2.692073e+01	5.553907e+01
2.770000e-06	3.919527e-06	7.776962e-10	2.715055e+01	5.582135e+01
2.780000e-06	3.952327e-06	7.808278e-10	2.737775e+01	5.609123e+01
2.790000e-06	3.984751e-06	7.854935e-10	2.760235e+01	5.634864e+01
2.800000e-06	4.016873e-06	7.922222e-10	2.782486e+01	5.659359e+01
2.810000e-06	4.048722e-06	8.006904e-10	2.804548e+01	5.682609e+01
2.820000e-06	4.080424e-06	8.068568e-10	2.826508e+01	5.704624e+01
2.830000e-06	4.111984e-06	8.093066e-10	2.848370e+01	5.725413e+01
2.840000e-06	4.143286e-06	8.093832e-10	2.870053e+01	5.744994e+01
2.850000e-06	4.174342e-06	8.097032e-10	2.891565e+01	5.763387e+01
2.860000e-06	4.205088e-06	8.118892e-10	2.912863e+01	5.780617e+01
2.870000e-06	4.235520e-06	8.143009e-10	2.933943e+01	5.796714e+01
2.880000e-06	4.265642e-06	8.169874e-10	2.954808e+01	5.811709e+01
2.890000e-06	4.295492e-06	8.226677e-10	2.975485e+01	5.825642e+01
2.900000e-06	4.325117e-06	8.284752e-10	2.996007e+01	5.838552e+01
