# Temperatura_=_-0.2
# Concentracion g/m^3_=_1620.0
# C_Vs_to_Am_M_A/Vsm_=_65563218390.804596
# pendiente_HvsI_1/m_=_3716.3
# ordenada_HvsI_A/m_=_1297.0
# frecuencia_Hz_=_135106.4059066491

Tiempo_(s)	Campo_(V.s)	Magnetizacion_(V.s)	Campo_(kA/m)	Magnetizacion_(A/m)
0.000000e+00	-5.523537e-06	-1.360106e-09	-3.836987e+01	-9.056964e+01
1.000000e-08	-5.523573e-06	-1.363623e-09	-3.837012e+01	-9.058337e+01
2.000000e-08	-5.523325e-06	-1.365668e-09	-3.836840e+01	-9.059665e+01
3.000000e-08	-5.522694e-06	-1.361057e-09	-3.836402e+01	-9.060940e+01
4.000000e-08	-5.521528e-06	-1.353676e-09	-3.835592e+01	-9.062153e+01
5.000000e-08	-5.519747e-06	-1.350044e-09	-3.834354e+01	-9.063291e+01
6.000000e-08	-5.517389e-06	-1.354139e-09	-3.832716e+01	-9.064339e+01
7.000000e-08	-5.514477e-06	-1.361613e-09	-3.830693e+01	-9.065281e+01
8.000000e-08	-5.511028e-06	-1.324650e-09	-3.828298e+01	-9.066098e+01
9.000000e-08	-5.507163e-06	-1.278791e-09	-3.825612e+01	-9.066770e+01
1.000000e-07	-5.503013e-06	-1.355148e-09	-3.822730e+01	-9.067274e+01
1.100000e-07	-5.498549e-06	-1.452065e-09	-3.819629e+01	-9.067587e+01
1.200000e-07	-5.493766e-06	-1.349023e-09	-3.816307e+01	-9.067684e+01
1.300000e-07	-5.488794e-06	-1.246802e-09	-3.812852e+01	-9.067539e+01
1.400000e-07	-5.483555e-06	-1.292626e-09	-3.809214e+01	-9.067125e+01
1.500000e-07	-5.477898e-06	-1.430962e-09	-3.805283e+01	-9.066415e+01
1.600000e-07	-5.471814e-06	-1.363802e-09	-3.801057e+01	-9.065382e+01
1.700000e-07	-5.465328e-06	-1.228133e-09	-3.796552e+01	-9.063997e+01
1.800000e-07	-5.458442e-06	-1.280876e-09	-3.791768e+01	-9.062234e+01
1.900000e-07	-5.451088e-06	-1.402682e-09	-3.786660e+01	-9.060063e+01
2.000000e-07	-5.443392e-06	-1.417910e-09	-3.781313e+01	-9.057460e+01
2.100000e-07	-5.435539e-06	-1.332007e-09	-3.775858e+01	-9.054398e+01
2.200000e-07	-5.427528e-06	-1.340635e-09	-3.770293e+01	-9.050852e+01
2.300000e-07	-5.419089e-06	-1.387699e-09	-3.764431e+01	-9.046798e+01
2.400000e-07	-5.410096e-06	-1.408683e-09	-3.758184e+01	-9.042215e+01
2.500000e-07	-5.400617e-06	-1.352848e-09	-3.751600e+01	-9.037083e+01
2.600000e-07	-5.390406e-06	-1.369217e-09	-3.744506e+01	-9.031382e+01
2.700000e-07	-5.379487e-06	-1.412495e-09	-3.736921e+01	-9.025096e+01
2.800000e-07	-5.368188e-06	-1.422753e-09	-3.729072e+01	-9.018210e+01
2.900000e-07	-5.356554e-06	-1.364472e-09	-3.720990e+01	-9.010711e+01
3.000000e-07	-5.344461e-06	-1.364870e-09	-3.712590e+01	-9.002591e+01
3.100000e-07	-5.331985e-06	-1.400386e-09	-3.703923e+01	-8.993840e+01
3.200000e-07	-5.319128e-06	-1.402521e-09	-3.694992e+01	-8.984453e+01
3.300000e-07	-5.305744e-06	-1.346686e-09	-3.685695e+01	-8.974427e+01
3.400000e-07	-5.291943e-06	-1.353498e-09	-3.676108e+01	-8.963761e+01
3.500000e-07	-5.277902e-06	-1.416570e-09	-3.666354e+01	-8.952457e+01
3.600000e-07	-5.263508e-06	-1.391498e-09	-3.656355e+01	-8.940517e+01
3.700000e-07	-5.248466e-06	-1.332687e-09	-3.645906e+01	-8.927949e+01
3.800000e-07	-5.232842e-06	-1.373722e-09	-3.635053e+01	-8.914760e+01
3.900000e-07	-5.216880e-06	-1.395434e-09	-3.623964e+01	-8.900959e+01
4.000000e-07	-5.200399e-06	-1.302690e-09	-3.612515e+01	-8.886559e+01
4.100000e-07	-5.183497e-06	-1.330479e-09	-3.600774e+01	-8.871573e+01
4.200000e-07	-5.166419e-06	-1.430936e-09	-3.588911e+01	-8.856016e+01
4.300000e-07	-5.149045e-06	-1.359027e-09	-3.576842e+01	-8.839905e+01
4.400000e-07	-5.131221e-06	-1.268246e-09	-3.564461e+01	-8.823256e+01
4.500000e-07	-5.112950e-06	-1.383324e-09	-3.551768e+01	-8.806088e+01
4.600000e-07	-5.094250e-06	-1.390134e-09	-3.538778e+01	-8.788421e+01
4.700000e-07	-5.075072e-06	-1.256108e-09	-3.525456e+01	-8.770275e+01
4.800000e-07	-5.055606e-06	-1.304228e-09	-3.511934e+01	-8.751669e+01
4.900000e-07	-5.036012e-06	-1.406117e-09	-3.498323e+01	-8.732625e+01
5.000000e-07	-5.016217e-06	-1.290452e-09	-3.484571e+01	-8.713164e+01
5.100000e-07	-4.996136e-06	-1.276964e-09	-3.470622e+01	-8.693305e+01
5.200000e-07	-4.975835e-06	-1.397547e-09	-3.456520e+01	-8.673069e+01
5.300000e-07	-4.955153e-06	-1.323033e-09	-3.442153e+01	-8.652476e+01
5.400000e-07	-4.934027e-06	-1.220243e-09	-3.427478e+01	-8.631545e+01
5.500000e-07	-4.912656e-06	-1.345778e-09	-3.412632e+01	-8.610295e+01
5.600000e-07	-4.890955e-06	-1.360334e-09	-3.397557e+01	-8.588742e+01
5.700000e-07	-4.868847e-06	-1.237632e-09	-3.382199e+01	-8.566903e+01
5.800000e-07	-4.846379e-06	-1.290327e-09	-3.366592e+01	-8.544794e+01
5.900000e-07	-4.823542e-06	-1.359222e-09	-3.350728e+01	-8.522430e+01
6.000000e-07	-4.800366e-06	-1.253635e-09	-3.334628e+01	-8.499821e+01
6.100000e-07	-4.777016e-06	-1.251299e-09	-3.318408e+01	-8.476981e+01
6.200000e-07	-4.753462e-06	-1.331562e-09	-3.302046e+01	-8.453920e+01
6.300000e-07	-4.729544e-06	-1.274004e-09	-3.285431e+01	-8.430646e+01
6.400000e-07	-4.705328e-06	-1.238526e-09	-3.268609e+01	-8.407166e+01
6.500000e-07	-4.680825e-06	-1.305342e-09	-3.251587e+01	-8.383488e+01
6.600000e-07	-4.655777e-06	-1.278160e-09	-3.234188e+01	-8.359615e+01
6.700000e-07	-4.630130e-06	-1.223192e-09	-3.216372e+01	-8.335550e+01
6.800000e-07	-4.603997e-06	-1.268037e-09	-3.198219e+01	-8.311297e+01
6.900000e-07	-4.577405e-06	-1.269658e-09	-3.179746e+01	-8.286855e+01
7.000000e-07	-4.550360e-06	-1.224272e-09	-3.160959e+01	-8.262225e+01
7.100000e-07	-4.522986e-06	-1.249238e-09	-3.141943e+01	-8.237405e+01
7.200000e-07	-4.495380e-06	-1.267716e-09	-3.122766e+01	-8.212392e+01
7.300000e-07	-4.467550e-06	-1.221460e-09	-3.103434e+01	-8.187184e+01
7.400000e-07	-4.439584e-06	-1.222451e-09	-3.084007e+01	-8.161776e+01
7.500000e-07	-4.411446e-06	-1.237114e-09	-3.064461e+01	-8.136163e+01
7.600000e-07	-4.382951e-06	-1.210369e-09	-3.044666e+01	-8.110340e+01
7.700000e-07	-4.354093e-06	-1.206802e-09	-3.024619e+01	-8.084300e+01
7.800000e-07	-4.324946e-06	-1.230363e-09	-3.004373e+01	-8.058038e+01
7.900000e-07	-4.295505e-06	-1.205106e-09	-2.983921e+01	-8.031546e+01
8.000000e-07	-4.265803e-06	-1.192372e-09	-2.963288e+01	-8.004818e+01
8.100000e-07	-4.235815e-06	-1.212585e-09	-2.942457e+01	-7.977845e+01
8.200000e-07	-4.205485e-06	-1.203996e-09	-2.921388e+01	-7.950621e+01
8.300000e-07	-4.174759e-06	-1.177154e-09	-2.900043e+01	-7.923137e+01
8.400000e-07	-4.143737e-06	-1.194405e-09	-2.878493e+01	-7.895386e+01
8.500000e-07	-4.112485e-06	-1.199836e-09	-2.856784e+01	-7.867361e+01
8.600000e-07	-4.081032e-06	-1.174143e-09	-2.834935e+01	-7.839054e+01
8.700000e-07	-4.049475e-06	-1.172461e-09	-2.813013e+01	-7.810458e+01
8.800000e-07	-4.017788e-06	-1.183500e-09	-2.791002e+01	-7.781565e+01
8.900000e-07	-3.985902e-06	-1.159408e-09	-2.768852e+01	-7.752369e+01
9.000000e-07	-3.953724e-06	-1.145661e-09	-2.746499e+01	-7.722861e+01
9.100000e-07	-3.921157e-06	-1.156579e-09	-2.723876e+01	-7.693037e+01
9.200000e-07	-3.888182e-06	-1.145213e-09	-2.700969e+01	-7.662887e+01
9.300000e-07	-3.854769e-06	-1.127370e-09	-2.677758e+01	-7.632407e+01
9.400000e-07	-3.820874e-06	-1.140204e-09	-2.654213e+01	-7.601589e+01
9.500000e-07	-3.786493e-06	-1.141753e-09	-2.630330e+01	-7.570426e+01
9.600000e-07	-3.751717e-06	-1.118307e-09	-2.606173e+01	-7.538912e+01
9.700000e-07	-3.716655e-06	-1.116616e-09	-2.581816e+01	-7.507041e+01
9.800000e-07	-3.681322e-06	-1.120875e-09	-2.557272e+01	-7.474804e+01
9.900000e-07	-3.645787e-06	-1.102894e-09	-2.532587e+01	-7.442197e+01
1.000000e-06	-3.610123e-06	-1.092617e-09	-2.507812e+01	-7.409210e+01
1.010000e-06	-3.574348e-06	-1.101741e-09	-2.482961e+01	-7.375837e+01
1.020000e-06	-3.538467e-06	-1.093000e-09	-2.458036e+01	-7.342069e+01
1.030000e-06	-3.502460e-06	-1.079961e-09	-2.433023e+01	-7.307900e+01
1.040000e-06	-3.466193e-06	-1.080651e-09	-2.407830e+01	-7.273319e+01
1.050000e-06	-3.429537e-06	-1.074587e-09	-2.382367e+01	-7.238318e+01
1.060000e-06	-3.392540e-06	-1.055861e-09	-2.356666e+01	-7.202888e+01
1.070000e-06	-3.355289e-06	-1.052021e-09	-2.330789e+01	-7.167018e+01
1.080000e-06	-3.317840e-06	-1.049767e-09	-2.304775e+01	-7.130698e+01
1.090000e-06	-3.280154e-06	-1.038798e-09	-2.278596e+01	-7.093916e+01
1.100000e-06	-3.242231e-06	-1.031504e-09	-2.252252e+01	-7.056661e+01
1.110000e-06	-3.204158e-06	-1.031375e-09	-2.225805e+01	-7.018921e+01
1.120000e-06	-3.165915e-06	-1.020748e-09	-2.199238e+01	-6.980682e+01
1.130000e-06	-3.127396e-06	-1.011586e-09	-2.172481e+01	-6.941931e+01
1.140000e-06	-3.088678e-06	-1.008721e-09	-2.145585e+01	-6.902653e+01
1.150000e-06	-3.049797e-06	-1.000211e-09	-2.118576e+01	-6.862835e+01
1.160000e-06	-3.010612e-06	-9.868879e-10	-2.091355e+01	-6.822462e+01
1.170000e-06	-2.971204e-06	-9.821448e-10	-2.063980e+01	-6.781516e+01
1.180000e-06	-2.931666e-06	-9.769617e-10	-2.036514e+01	-6.739983e+01
1.190000e-06	-2.891977e-06	-9.683327e-10	-2.008944e+01	-6.697846e+01
1.200000e-06	-2.852207e-06	-9.647202e-10	-1.981318e+01	-6.655087e+01
1.210000e-06	-2.812346e-06	-9.630695e-10	-1.953628e+01	-6.611690e+01
1.220000e-06	-2.772305e-06	-9.540528e-10	-1.925813e+01	-6.567638e+01
1.230000e-06	-2.732049e-06	-9.433254e-10	-1.897848e+01	-6.522911e+01
1.240000e-06	-2.691593e-06	-9.355561e-10	-1.869746e+01	-6.477493e+01
1.250000e-06	-2.650944e-06	-9.264231e-10	-1.841508e+01	-6.431364e+01
1.260000e-06	-2.610021e-06	-9.197407e-10	-1.813081e+01	-6.384507e+01
1.270000e-06	-2.568723e-06	-9.159909e-10	-1.784393e+01	-6.336904e+01
1.280000e-06	-2.527089e-06	-9.107336e-10	-1.755471e+01	-6.288534e+01
1.290000e-06	-2.485247e-06	-9.008579e-10	-1.726405e+01	-6.239381e+01
1.300000e-06	-2.443204e-06	-8.909741e-10	-1.697199e+01	-6.189425e+01
1.310000e-06	-2.400894e-06	-8.836197e-10	-1.667808e+01	-6.138648e+01
1.320000e-06	-2.358272e-06	-8.763038e-10	-1.638200e+01	-6.087031e+01
1.330000e-06	-2.315370e-06	-8.707455e-10	-1.608398e+01	-6.034554e+01
1.340000e-06	-2.272323e-06	-8.661542e-10	-1.578495e+01	-5.981200e+01
1.350000e-06	-2.229196e-06	-8.569774e-10	-1.548536e+01	-5.926948e+01
1.360000e-06	-2.185854e-06	-8.470590e-10	-1.518428e+01	-5.871780e+01
1.370000e-06	-2.142297e-06	-8.365028e-10	-1.488170e+01	-5.815676e+01
1.380000e-06	-2.098618e-06	-8.264351e-10	-1.457828e+01	-5.758617e+01
1.390000e-06	-2.054857e-06	-8.155217e-10	-1.427430e+01	-5.700583e+01
1.400000e-06	-2.011030e-06	-8.074928e-10	-1.396985e+01	-5.641553e+01
1.410000e-06	-1.967137e-06	-8.000683e-10	-1.366494e+01	-5.581507e+01
1.420000e-06	-1.923174e-06	-7.920313e-10	-1.335955e+01	-5.520423e+01
1.430000e-06	-1.879100e-06	-7.820136e-10	-1.305338e+01	-5.458279e+01
1.440000e-06	-1.834929e-06	-7.710064e-10	-1.274654e+01	-5.395054e+01
1.450000e-06	-1.790656e-06	-7.578222e-10	-1.243899e+01	-5.330724e+01
1.460000e-06	-1.746231e-06	-7.442630e-10	-1.213039e+01	-5.265264e+01
1.470000e-06	-1.701699e-06	-7.302742e-10	-1.182105e+01	-5.198650e+01
1.480000e-06	-1.657018e-06	-7.177960e-10	-1.151066e+01	-5.130857e+01
1.490000e-06	-1.612183e-06	-7.067424e-10	-1.119921e+01	-5.061857e+01
1.500000e-06	-1.567248e-06	-6.964818e-10	-1.088706e+01	-4.991623e+01
1.510000e-06	-1.522188e-06	-6.852010e-10	-1.057405e+01	-4.920126e+01
1.520000e-06	-1.477010e-06	-6.706233e-10	-1.026022e+01	-4.847336e+01
1.530000e-06	-1.431704e-06	-6.555641e-10	-9.945492e+00	-4.773221e+01
1.540000e-06	-1.386317e-06	-6.419268e-10	-9.630204e+00	-4.697751e+01
1.550000e-06	-1.340809e-06	-6.275976e-10	-9.314081e+00	-4.620893e+01
1.560000e-06	-1.295191e-06	-6.125750e-10	-8.997188e+00	-4.542611e+01
1.570000e-06	-1.249533e-06	-5.998904e-10	-8.680024e+00	-4.462872e+01
1.580000e-06	-1.203816e-06	-5.891142e-10	-8.362444e+00	-4.381641e+01
1.590000e-06	-1.157996e-06	-5.768936e-10	-8.044152e+00	-4.298880e+01
1.600000e-06	-1.112064e-06	-5.635294e-10	-7.725079e+00	-4.214553e+01
1.610000e-06	-1.066030e-06	-5.481254e-10	-7.405300e+00	-4.128623e+01
1.620000e-06	-1.019931e-06	-5.326636e-10	-7.085062e+00	-4.041053e+01
1.630000e-06	-9.737622e-07	-5.200668e-10	-6.764349e+00	-3.951806e+01
1.640000e-06	-9.275058e-07	-5.058141e-10	-6.443024e+00	-3.860845e+01
1.650000e-06	-8.812268e-07	-4.923550e-10	-6.121541e+00	-3.768134e+01
1.660000e-06	-8.349424e-07	-4.770262e-10	-5.800022e+00	-3.673637e+01
1.670000e-06	-7.885633e-07	-4.654573e-10	-5.477844e+00	-3.577320e+01
1.680000e-06	-7.421557e-07	-4.517807e-10	-5.155468e+00	-3.479151e+01
1.690000e-06	-6.957611e-07	-4.373818e-10	-4.833183e+00	-3.379099e+01
1.700000e-06	-6.492910e-07	-4.222991e-10	-4.510373e+00	-3.277134e+01
1.710000e-06	-6.027627e-07	-4.044012e-10	-4.187159e+00	-3.173231e+01
1.720000e-06	-5.561857e-07	-3.857406e-10	-3.863606e+00	-3.067365e+01
1.730000e-06	-5.095600e-07	-3.672910e-10	-3.539716e+00	-2.959517e+01
1.740000e-06	-4.629062e-07	-3.522745e-10	-3.215630e+00	-2.849671e+01
1.750000e-06	-4.162294e-07	-3.379538e-10	-2.891384e+00	-2.737812e+01
1.760000e-06	-3.695003e-07	-3.241964e-10	-2.566775e+00	-2.623934e+01
1.770000e-06	-3.227107e-07	-3.091474e-10	-2.241746e+00	-2.508032e+01
1.780000e-06	-2.759176e-07	-2.930139e-10	-1.916692e+00	-2.390107e+01
1.790000e-06	-2.291211e-07	-2.745461e-10	-1.591616e+00	-2.270167e+01
1.800000e-06	-1.823053e-07	-2.549545e-10	-1.266404e+00	-2.148224e+01
1.810000e-06	-1.354771e-07	-2.344901e-10	-9.411069e-01	-2.024295e+01
1.820000e-06	-8.861952e-08	-2.154449e-10	-6.156055e-01	-1.898405e+01
1.830000e-06	-4.172618e-08	-1.992536e-10	-2.898556e-01	-1.770585e+01
1.840000e-06	5.154900e-09	-1.839144e-10	3.580909e-02	-1.640872e+01
1.850000e-06	5.203863e-08	-1.683408e-10	3.614922e-01	-1.509309e+01
1.860000e-06	9.898902e-08	-1.507606e-10	6.876383e-01	-1.375949e+01
1.870000e-06	1.458712e-07	-1.292208e-10	1.013311e+00	-1.240848e+01
1.880000e-06	1.926486e-07	-1.067191e-10	1.338255e+00	-1.104071e+01
1.890000e-06	2.394294e-07	-8.622122e-11	1.663223e+00	-9.656900e+00
1.900000e-06	2.862224e-07	-6.846986e-11	1.988276e+00	-8.257826e+00
1.910000e-06	3.330006e-07	-5.155302e-11	2.313226e+00	-6.844343e+00
1.920000e-06	3.796900e-07	-3.614535e-11	2.637560e+00	-5.417365e+00
1.930000e-06	4.263277e-07	-1.869945e-11	2.961533e+00	-3.977873e+00
1.940000e-06	4.729589e-07	2.890808e-13	3.285462e+00	-2.526907e+00
1.950000e-06	5.196334e-07	2.004648e-11	3.609692e+00	-1.065565e+00
1.960000e-06	5.662992e-07	3.917504e-11	3.933861e+00	4.050002e-01
1.970000e-06	6.128396e-07	5.864313e-11	4.257159e+00	1.883586e+00
1.980000e-06	6.593218e-07	7.858770e-11	4.580053e+00	3.368943e+00
1.990000e-06	7.058034e-07	9.891228e-11	4.902943e+00	4.859781e+00
2.000000e-06	7.522354e-07	1.213170e-10	5.225488e+00	6.354774e+00
2.010000e-06	7.985571e-07	1.435271e-10	5.547267e+00	7.852566e+00
2.020000e-06	8.447856e-07	1.646197e-10	5.868398e+00	9.351774e+00
2.030000e-06	8.909994e-07	1.853243e-10	6.189427e+00	1.085100e+01
2.040000e-06	9.371698e-07	2.029793e-10	6.510156e+00	1.234883e+01
2.050000e-06	9.832419e-07	2.204083e-10	6.830201e+00	1.384384e+01
2.060000e-06	1.029262e-06	2.415159e-10	7.149884e+00	1.533462e+01
2.070000e-06	1.075211e-06	2.654060e-10	7.469075e+00	1.681975e+01
2.080000e-06	1.121037e-06	2.896501e-10	7.787406e+00	1.829784e+01
2.090000e-06	1.166783e-06	3.115204e-10	8.105189e+00	1.976750e+01
2.100000e-06	1.212478e-06	3.327873e-10	8.422615e+00	2.122739e+01
2.110000e-06	1.258106e-06	3.517112e-10	8.739575e+00	2.267619e+01
2.120000e-06	1.303665e-06	3.684014e-10	9.056056e+00	2.411262e+01
2.130000e-06	1.349104e-06	3.853056e-10	9.371701e+00	2.553545e+01
2.140000e-06	1.394470e-06	4.032186e-10	9.686840e+00	2.694348e+01
2.150000e-06	1.439796e-06	4.210107e-10	1.000170e+01	2.833561e+01
2.160000e-06	1.485024e-06	4.403986e-10	1.031589e+01	2.971076e+01
2.170000e-06	1.530159e-06	4.630625e-10	1.062942e+01	3.106793e+01
2.180000e-06	1.575155e-06	4.849352e-10	1.094199e+01	3.240620e+01
2.190000e-06	1.620026e-06	5.022718e-10	1.125369e+01	3.372471e+01
2.200000e-06	1.664771e-06	5.177833e-10	1.156452e+01	3.502268e+01
2.210000e-06	1.709346e-06	5.330547e-10	1.187417e+01	3.629941e+01
2.220000e-06	1.753754e-06	5.510484e-10	1.218265e+01	3.755429e+01
2.230000e-06	1.798024e-06	5.686875e-10	1.249018e+01	3.878678e+01
2.240000e-06	1.842178e-06	5.849718e-10	1.279690e+01	3.999643e+01
2.250000e-06	1.886256e-06	6.009146e-10	1.310309e+01	4.118288e+01
2.260000e-06	1.930287e-06	6.166104e-10	1.340895e+01	4.234583e+01
2.270000e-06	1.974192e-06	6.332465e-10	1.371395e+01	4.348511e+01
2.280000e-06	2.018015e-06	6.495422e-10	1.401837e+01	4.460058e+01
2.290000e-06	2.061820e-06	6.640665e-10	1.432267e+01	4.569221e+01
2.300000e-06	2.105548e-06	6.787601e-10	1.462642e+01	4.676004e+01
2.310000e-06	2.149131e-06	6.927910e-10	1.492918e+01	4.780418e+01
2.320000e-06	2.192651e-06	7.056682e-10	1.523150e+01	4.882483e+01
2.330000e-06	2.236106e-06	7.177545e-10	1.553336e+01	4.982222e+01
2.340000e-06	2.279419e-06	7.297512e-10	1.583424e+01	5.079668e+01
2.350000e-06	2.322448e-06	7.423167e-10	1.613315e+01	5.174859e+01
2.360000e-06	2.365190e-06	7.556041e-10	1.643006e+01	5.267835e+01
2.370000e-06	2.407793e-06	7.691363e-10	1.672601e+01	5.358646e+01
2.380000e-06	2.450119e-06	7.819606e-10	1.702003e+01	5.447342e+01
2.390000e-06	2.492056e-06	7.955668e-10	1.731135e+01	5.533979e+01
2.400000e-06	2.533690e-06	8.088402e-10	1.760056e+01	5.618615e+01
2.410000e-06	2.575106e-06	8.213595e-10	1.788826e+01	5.701311e+01
2.420000e-06	2.616197e-06	8.338638e-10	1.817371e+01	5.782130e+01
2.430000e-06	2.656878e-06	8.465825e-10	1.845630e+01	5.861135e+01
2.440000e-06	2.697284e-06	8.596941e-10	1.873699e+01	5.938392e+01
2.450000e-06	2.737533e-06	8.732522e-10	1.901658e+01	6.013965e+01
2.460000e-06	2.777644e-06	8.849509e-10	1.929522e+01	6.087920e+01
2.470000e-06	2.817606e-06	8.937275e-10	1.957282e+01	6.160319e+01
2.480000e-06	2.857482e-06	9.020219e-10	1.984982e+01	6.231226e+01
2.490000e-06	2.897289e-06	9.128937e-10	2.012634e+01	6.300701e+01
2.500000e-06	2.936920e-06	9.267455e-10	2.040164e+01	6.368802e+01
2.510000e-06	2.976330e-06	9.398564e-10	2.067541e+01	6.435585e+01
2.520000e-06	3.015547e-06	9.506726e-10	2.094784e+01	6.501104e+01
2.530000e-06	3.054586e-06	9.595616e-10	2.121902e+01	6.565407e+01
2.540000e-06	3.093408e-06	9.653395e-10	2.148871e+01	6.628541e+01
2.550000e-06	3.131972e-06	9.704270e-10	2.175660e+01	6.690548e+01
2.560000e-06	3.170315e-06	9.767441e-10	2.202295e+01	6.751467e+01
2.570000e-06	3.208452e-06	9.849702e-10	2.228788e+01	6.811332e+01
2.580000e-06	3.246454e-06	9.941883e-10	2.255186e+01	6.870173e+01
2.590000e-06	3.284314e-06	1.003693e-09	2.281486e+01	6.928017e+01
2.600000e-06	3.321895e-06	1.012753e-09	2.307592e+01	6.984886e+01
2.610000e-06	3.359245e-06	1.022499e-09	2.333537e+01	7.040799e+01
2.620000e-06	3.396362e-06	1.031052e-09	2.359321e+01	7.095769e+01
2.630000e-06	3.433173e-06	1.035029e-09	2.384892e+01	7.149809e+01
2.640000e-06	3.469666e-06	1.039073e-09	2.410243e+01	7.202925e+01
2.650000e-06	3.505912e-06	1.043307e-09	2.435421e+01	7.255121e+01
2.660000e-06	3.541992e-06	1.049312e-09	2.460484e+01	7.306399e+01
2.670000e-06	3.577928e-06	1.056589e-09	2.485448e+01	7.356757e+01
2.680000e-06	3.613703e-06	1.065130e-09	2.510300e+01	7.406191e+01
2.690000e-06	3.649257e-06	1.074213e-09	2.534997e+01	7.454694e+01
2.700000e-06	3.684685e-06	1.081381e-09	2.559608e+01	7.502260e+01
2.710000e-06	3.720022e-06	1.086890e-09	2.584155e+01	7.548879e+01
2.720000e-06	3.755056e-06	1.092815e-09	2.608492e+01	7.594541e+01
2.730000e-06	3.789618e-06	1.099639e-09	2.632501e+01	7.639236e+01
2.740000e-06	3.823701e-06	1.103893e-09	2.656177e+01	7.682952e+01
2.750000e-06	3.857451e-06	1.107142e-09	2.679622e+01	7.725679e+01
2.760000e-06	3.890864e-06	1.112405e-09	2.702833e+01	7.767407e+01
2.770000e-06	3.923814e-06	1.119080e-09	2.725721e+01	7.808125e+01
2.780000e-06	3.956315e-06	1.127434e-09	2.748299e+01	7.847827e+01
2.790000e-06	3.988443e-06	1.136435e-09	2.770616e+01	7.886503e+01
2.800000e-06	4.020346e-06	1.145688e-09	2.792779e+01	7.924151e+01
2.810000e-06	4.052075e-06	1.153416e-09	2.814820e+01	7.960765e+01
2.820000e-06	4.083616e-06	1.158340e-09	2.836730e+01	7.996345e+01
2.830000e-06	4.114951e-06	1.163352e-09	2.858497e+01	8.030892e+01
2.840000e-06	4.146034e-06	1.166653e-09	2.880089e+01	8.064410e+01
2.850000e-06	4.176858e-06	1.172433e-09	2.901502e+01	8.096905e+01
2.860000e-06	4.207432e-06	1.179599e-09	2.922740e+01	8.128385e+01
2.870000e-06	4.237767e-06	1.184472e-09	2.943812e+01	8.158862e+01
2.880000e-06	4.267792e-06	1.189819e-09	2.964670e+01	8.188351e+01
2.890000e-06	4.297478e-06	1.195936e-09	2.985292e+01	8.216868e+01
2.900000e-06	4.326901e-06	1.202922e-09	3.005731e+01	8.244433e+01
