# Temperatura_=_14.8
# Concentracion g/m^3_=_1620.0
# C_Vs_to_Am_M_A/Vsm_=_65563218390.804596
# pendiente_HvsI_1/m_=_3716.3
# ordenada_HvsI_A/m_=_1297.0
# frecuencia_Hz_=_135100.094225486

Tiempo_(s)	Campo_(V.s)	Magnetizacion_(V.s)	Campo_(kA/m)	Magnetizacion_(A/m)
0.000000e+00	-5.529186e-06	-8.385325e-10	-3.837535e+01	-5.624633e+01
1.000000e-08	-5.529433e-06	-8.419685e-10	-3.837707e+01	-5.625550e+01
2.000000e-08	-5.529443e-06	-8.448117e-10	-3.837713e+01	-5.626494e+01
3.000000e-08	-5.529062e-06	-8.444560e-10	-3.837449e+01	-5.627441e+01
4.000000e-08	-5.528179e-06	-8.432076e-10	-3.836836e+01	-5.628367e+01
5.000000e-08	-5.526688e-06	-8.389664e-10	-3.835801e+01	-5.629246e+01
6.000000e-08	-5.524653e-06	-8.289175e-10	-3.834388e+01	-5.630050e+01
7.000000e-08	-5.522225e-06	-7.985804e-10	-3.832703e+01	-5.630751e+01
8.000000e-08	-5.519271e-06	-7.831444e-10	-3.830653e+01	-5.631321e+01
9.000000e-08	-5.515731e-06	-8.682672e-10	-3.828196e+01	-5.631729e+01
1.000000e-07	-5.511641e-06	-9.635187e-10	-3.825357e+01	-5.631948e+01
1.100000e-07	-5.507165e-06	-8.590941e-10	-3.822251e+01	-5.631947e+01
1.200000e-07	-5.502671e-06	-7.287986e-10	-3.819132e+01	-5.631699e+01
1.300000e-07	-5.498035e-06	-7.523684e-10	-3.815914e+01	-5.631178e+01
1.400000e-07	-5.492940e-06	-9.109658e-10	-3.812378e+01	-5.630356e+01
1.500000e-07	-5.487297e-06	-8.589767e-10	-3.808462e+01	-5.629210e+01
1.600000e-07	-5.481274e-06	-7.196536e-10	-3.804281e+01	-5.627716e+01
1.700000e-07	-5.474954e-06	-7.771325e-10	-3.799895e+01	-5.625855e+01
1.800000e-07	-5.468070e-06	-9.169758e-10	-3.795117e+01	-5.623608e+01
1.900000e-07	-5.460709e-06	-8.997807e-10	-3.790008e+01	-5.620959e+01
2.000000e-07	-5.453120e-06	-7.488791e-10	-3.784741e+01	-5.617893e+01
2.100000e-07	-5.445322e-06	-7.791765e-10	-3.779329e+01	-5.614402e+01
2.200000e-07	-5.437233e-06	-8.853304e-10	-3.773715e+01	-5.610475e+01
2.300000e-07	-5.428914e-06	-9.235206e-10	-3.767941e+01	-5.606109e+01
2.400000e-07	-5.420361e-06	-8.389908e-10	-3.762005e+01	-5.601300e+01
2.500000e-07	-5.411162e-06	-8.443442e-10	-3.755620e+01	-5.596049e+01
2.600000e-07	-5.401134e-06	-8.771913e-10	-3.748660e+01	-5.590358e+01
2.700000e-07	-5.390442e-06	-8.788892e-10	-3.741239e+01	-5.584235e+01
2.800000e-07	-5.379198e-06	-8.215184e-10	-3.733436e+01	-5.577687e+01
2.900000e-07	-5.367499e-06	-8.471259e-10	-3.725316e+01	-5.570725e+01
3.000000e-07	-5.355470e-06	-8.947566e-10	-3.716967e+01	-5.563363e+01
3.100000e-07	-5.343177e-06	-8.876432e-10	-3.708435e+01	-5.555616e+01
3.200000e-07	-5.330439e-06	-8.287634e-10	-3.699594e+01	-5.547501e+01
3.300000e-07	-5.317232e-06	-8.316655e-10	-3.690428e+01	-5.539039e+01
3.400000e-07	-5.303725e-06	-8.799651e-10	-3.681053e+01	-5.530249e+01
3.500000e-07	-5.289929e-06	-8.554199e-10	-3.671478e+01	-5.521154e+01
3.600000e-07	-5.275612e-06	-8.058388e-10	-3.661542e+01	-5.511777e+01
3.700000e-07	-5.260740e-06	-8.497206e-10	-3.651220e+01	-5.502141e+01
3.800000e-07	-5.245407e-06	-8.968429e-10	-3.640578e+01	-5.492271e+01
3.900000e-07	-5.229433e-06	-8.206607e-10	-3.629491e+01	-5.482192e+01
4.000000e-07	-5.212878e-06	-8.066728e-10	-3.618001e+01	-5.471927e+01
4.100000e-07	-5.196132e-06	-8.871085e-10	-3.606378e+01	-5.461501e+01
4.200000e-07	-5.179149e-06	-8.592505e-10	-3.594592e+01	-5.450937e+01
4.300000e-07	-5.161756e-06	-7.626761e-10	-3.582520e+01	-5.440259e+01
4.400000e-07	-5.144106e-06	-8.511593e-10	-3.570270e+01	-5.429487e+01
4.500000e-07	-5.126247e-06	-9.065359e-10	-3.557875e+01	-5.418642e+01
4.600000e-07	-5.107890e-06	-8.037311e-10	-3.545134e+01	-5.407742e+01
4.700000e-07	-5.088903e-06	-7.828379e-10	-3.531956e+01	-5.396806e+01
4.800000e-07	-5.069605e-06	-8.861826e-10	-3.518563e+01	-5.385848e+01
4.900000e-07	-5.050089e-06	-8.297595e-10	-3.505017e+01	-5.374882e+01
5.000000e-07	-5.030335e-06	-7.785283e-10	-3.491307e+01	-5.363919e+01
5.100000e-07	-5.010420e-06	-8.522336e-10	-3.477485e+01	-5.352970e+01
5.200000e-07	-4.990235e-06	-8.471834e-10	-3.463475e+01	-5.342040e+01
5.300000e-07	-4.969582e-06	-7.595594e-10	-3.449141e+01	-5.331135e+01
5.400000e-07	-4.948569e-06	-8.352849e-10	-3.434557e+01	-5.320258e+01
5.500000e-07	-4.927200e-06	-8.786654e-10	-3.419726e+01	-5.309410e+01
5.600000e-07	-4.905446e-06	-7.834318e-10	-3.404628e+01	-5.298590e+01
5.700000e-07	-4.883384e-06	-7.801804e-10	-3.389316e+01	-5.287794e+01
5.800000e-07	-4.861064e-06	-8.612054e-10	-3.373825e+01	-5.277018e+01
5.900000e-07	-4.838402e-06	-8.094608e-10	-3.358096e+01	-5.266254e+01
6.000000e-07	-4.815363e-06	-7.739395e-10	-3.342106e+01	-5.255494e+01
6.100000e-07	-4.792031e-06	-8.356044e-10	-3.325912e+01	-5.244728e+01
6.200000e-07	-4.768419e-06	-8.239257e-10	-3.309524e+01	-5.233945e+01
6.300000e-07	-4.744598e-06	-7.724874e-10	-3.292991e+01	-5.223132e+01
6.400000e-07	-4.720562e-06	-8.053536e-10	-3.276309e+01	-5.212278e+01
6.500000e-07	-4.696080e-06	-8.169568e-10	-3.259317e+01	-5.201366e+01
6.600000e-07	-4.671145e-06	-7.759236e-10	-3.242011e+01	-5.190385e+01
6.700000e-07	-4.645890e-06	-7.917889e-10	-3.224483e+01	-5.179317e+01
6.800000e-07	-4.620155e-06	-8.088182e-10	-3.206622e+01	-5.168149e+01
6.900000e-07	-4.593653e-06	-7.812509e-10	-3.188227e+01	-5.156867e+01
7.000000e-07	-4.566522e-06	-7.807024e-10	-3.169398e+01	-5.145455e+01
7.100000e-07	-4.539097e-06	-8.038082e-10	-3.150363e+01	-5.133899e+01
7.200000e-07	-4.511445e-06	-7.827856e-10	-3.131171e+01	-5.122187e+01
7.300000e-07	-4.483718e-06	-7.790385e-10	-3.111927e+01	-5.110305e+01
7.400000e-07	-4.455890e-06	-7.950914e-10	-3.092613e+01	-5.098241e+01
7.500000e-07	-4.427730e-06	-7.898691e-10	-3.073069e+01	-5.085986e+01
7.600000e-07	-4.399263e-06	-7.732740e-10	-3.053311e+01	-5.073529e+01
7.700000e-07	-4.370612e-06	-7.847217e-10	-3.033426e+01	-5.060862e+01
7.800000e-07	-4.341643e-06	-7.752381e-10	-3.013320e+01	-5.047976e+01
7.900000e-07	-4.312312e-06	-7.645700e-10	-2.992962e+01	-5.034867e+01
8.000000e-07	-4.282635e-06	-7.745989e-10	-2.972365e+01	-5.021529e+01
8.100000e-07	-4.252724e-06	-7.803161e-10	-2.951606e+01	-5.007959e+01
8.200000e-07	-4.222576e-06	-7.618584e-10	-2.930681e+01	-4.994153e+01
8.300000e-07	-4.192090e-06	-7.675290e-10	-2.909523e+01	-4.980111e+01
8.400000e-07	-4.161275e-06	-7.747724e-10	-2.888135e+01	-4.965832e+01
8.500000e-07	-4.130101e-06	-7.615779e-10	-2.866499e+01	-4.951316e+01
8.600000e-07	-4.098709e-06	-7.536138e-10	-2.844712e+01	-4.936565e+01
8.700000e-07	-4.067201e-06	-7.638037e-10	-2.822843e+01	-4.921580e+01
8.800000e-07	-4.035554e-06	-7.544328e-10	-2.800878e+01	-4.906365e+01
8.900000e-07	-4.003695e-06	-7.457938e-10	-2.778767e+01	-4.890922e+01
9.000000e-07	-3.971582e-06	-7.553641e-10	-2.756479e+01	-4.875255e+01
9.100000e-07	-3.939203e-06	-7.530204e-10	-2.734006e+01	-4.859366e+01
9.200000e-07	-3.906406e-06	-7.384790e-10	-2.711244e+01	-4.843258e+01
9.300000e-07	-3.873139e-06	-7.436646e-10	-2.688154e+01	-4.826936e+01
9.400000e-07	-3.839471e-06	-7.506046e-10	-2.664787e+01	-4.810400e+01
9.500000e-07	-3.805322e-06	-7.383360e-10	-2.641086e+01	-4.793652e+01
9.600000e-07	-3.770766e-06	-7.348532e-10	-2.617102e+01	-4.776695e+01
9.700000e-07	-3.735948e-06	-7.388599e-10	-2.592937e+01	-4.759527e+01
9.800000e-07	-3.700805e-06	-7.308520e-10	-2.568546e+01	-4.742148e+01
9.900000e-07	-3.665351e-06	-7.194077e-10	-2.543939e+01	-4.724556e+01
1.000000e-06	-3.629664e-06	-7.239585e-10	-2.519171e+01	-4.706748e+01
1.010000e-06	-3.593808e-06	-7.212918e-10	-2.494285e+01	-4.688719e+01
1.020000e-06	-3.557824e-06	-7.139836e-10	-2.469310e+01	-4.670462e+01
1.030000e-06	-3.521715e-06	-7.150310e-10	-2.444248e+01	-4.651970e+01
1.040000e-06	-3.485430e-06	-7.177495e-10	-2.419065e+01	-4.633235e+01
1.050000e-06	-3.448878e-06	-7.074342e-10	-2.393696e+01	-4.614245e+01
1.060000e-06	-3.412109e-06	-7.008516e-10	-2.368176e+01	-4.594988e+01
1.070000e-06	-3.375103e-06	-6.963767e-10	-2.342492e+01	-4.575451e+01
1.080000e-06	-3.337783e-06	-6.898618e-10	-2.316590e+01	-4.555619e+01
1.090000e-06	-3.300227e-06	-6.846187e-10	-2.290524e+01	-4.535476e+01
1.100000e-06	-3.262504e-06	-6.875328e-10	-2.264343e+01	-4.515003e+01
1.110000e-06	-3.224565e-06	-6.841553e-10	-2.238011e+01	-4.494183e+01
1.120000e-06	-3.186336e-06	-6.795846e-10	-2.211478e+01	-4.472995e+01
1.130000e-06	-3.147902e-06	-6.789633e-10	-2.184804e+01	-4.451419e+01
1.140000e-06	-3.109235e-06	-6.770193e-10	-2.157966e+01	-4.429434e+01
1.150000e-06	-3.070313e-06	-6.675408e-10	-2.130952e+01	-4.407017e+01
1.160000e-06	-3.031187e-06	-6.592670e-10	-2.103797e+01	-4.384146e+01
1.170000e-06	-2.991859e-06	-6.540953e-10	-2.076501e+01	-4.360799e+01
1.180000e-06	-2.952350e-06	-6.523580e-10	-2.049080e+01	-4.336954e+01
1.190000e-06	-2.912714e-06	-6.532264e-10	-2.021571e+01	-4.312587e+01
1.200000e-06	-2.872961e-06	-6.564453e-10	-1.993980e+01	-4.287676e+01
1.210000e-06	-2.833130e-06	-6.535623e-10	-1.966335e+01	-4.262201e+01
1.220000e-06	-2.793158e-06	-6.466306e-10	-1.938593e+01	-4.236138e+01
1.230000e-06	-2.752923e-06	-6.393049e-10	-1.910668e+01	-4.209470e+01
1.240000e-06	-2.712544e-06	-6.305686e-10	-1.882643e+01	-4.182174e+01
1.250000e-06	-2.671932e-06	-6.230633e-10	-1.854456e+01	-4.154234e+01
1.260000e-06	-2.631023e-06	-6.186606e-10	-1.826063e+01	-4.125632e+01
1.270000e-06	-2.589932e-06	-6.184926e-10	-1.797544e+01	-4.096351e+01
1.280000e-06	-2.548652e-06	-6.147843e-10	-1.768893e+01	-4.066377e+01
1.290000e-06	-2.507085e-06	-6.092751e-10	-1.740043e+01	-4.035696e+01
1.300000e-06	-2.465199e-06	-6.031572e-10	-1.710973e+01	-4.004294e+01
1.310000e-06	-2.423035e-06	-5.972873e-10	-1.681709e+01	-3.972162e+01
1.320000e-06	-2.380493e-06	-5.897568e-10	-1.652183e+01	-3.939289e+01
1.330000e-06	-2.337619e-06	-5.851575e-10	-1.622426e+01	-3.905666e+01
1.340000e-06	-2.294524e-06	-5.829215e-10	-1.592516e+01	-3.871286e+01
1.350000e-06	-2.251236e-06	-5.797862e-10	-1.562472e+01	-3.836142e+01
1.360000e-06	-2.207842e-06	-5.735835e-10	-1.532354e+01	-3.800227e+01
1.370000e-06	-2.164365e-06	-5.666690e-10	-1.502179e+01	-3.763537e+01
1.380000e-06	-2.120756e-06	-5.582398e-10	-1.471912e+01	-3.726067e+01
1.390000e-06	-2.077039e-06	-5.509932e-10	-1.441570e+01	-3.687812e+01
1.400000e-06	-2.033219e-06	-5.451437e-10	-1.411157e+01	-3.648769e+01
1.410000e-06	-1.989326e-06	-5.397875e-10	-1.380693e+01	-3.608933e+01
1.420000e-06	-1.945343e-06	-5.314343e-10	-1.350167e+01	-3.568300e+01
1.430000e-06	-1.901197e-06	-5.243817e-10	-1.319527e+01	-3.526865e+01
1.440000e-06	-1.856988e-06	-5.179163e-10	-1.288843e+01	-3.484623e+01
1.450000e-06	-1.812727e-06	-5.116532e-10	-1.258124e+01	-3.441566e+01
1.460000e-06	-1.768335e-06	-5.029597e-10	-1.227314e+01	-3.397688e+01
1.470000e-06	-1.723861e-06	-4.921250e-10	-1.196447e+01	-3.352979e+01
1.480000e-06	-1.679241e-06	-4.818698e-10	-1.165478e+01	-3.307429e+01
1.490000e-06	-1.634404e-06	-4.727942e-10	-1.134359e+01	-3.261027e+01
1.500000e-06	-1.589399e-06	-4.647869e-10	-1.103123e+01	-3.213757e+01
1.510000e-06	-1.544244e-06	-4.578485e-10	-1.071783e+01	-3.165605e+01
1.520000e-06	-1.498972e-06	-4.510502e-10	-1.040362e+01	-3.116553e+01
1.530000e-06	-1.453631e-06	-4.426456e-10	-1.008894e+01	-3.066580e+01
1.540000e-06	-1.408248e-06	-4.325366e-10	-9.773951e+00	-3.015665e+01
1.550000e-06	-1.362786e-06	-4.231869e-10	-9.458427e+00	-2.963783e+01
1.560000e-06	-1.317194e-06	-4.128314e-10	-9.141995e+00	-2.910909e+01
1.570000e-06	-1.271456e-06	-4.001869e-10	-8.824545e+00	-2.857013e+01
1.580000e-06	-1.225656e-06	-3.891378e-10	-8.506671e+00	-2.802065e+01
1.590000e-06	-1.179818e-06	-3.789129e-10	-8.188532e+00	-2.746034e+01
1.600000e-06	-1.133910e-06	-3.695287e-10	-7.869912e+00	-2.688885e+01
1.610000e-06	-1.087899e-06	-3.616390e-10	-7.550573e+00	-2.630583e+01
1.620000e-06	-1.041779e-06	-3.528380e-10	-7.230475e+00	-2.571091e+01
1.630000e-06	-9.956506e-07	-3.424947e-10	-6.910319e+00	-2.510373e+01
1.640000e-06	-9.494162e-07	-3.312530e-10	-6.589429e+00	-2.448390e+01
1.650000e-06	-9.030173e-07	-3.166976e-10	-6.267397e+00	-2.385104e+01
1.660000e-06	-8.565585e-07	-3.027884e-10	-5.944949e+00	-2.320477e+01
1.670000e-06	-8.101368e-07	-2.906741e-10	-5.622759e+00	-2.254472e+01
1.680000e-06	-7.637319e-07	-2.820088e-10	-5.300685e+00	-2.187051e+01
1.690000e-06	-7.172632e-07	-2.748317e-10	-4.978169e+00	-2.118181e+01
1.700000e-06	-6.706678e-07	-2.680292e-10	-4.654774e+00	-2.047828e+01
1.710000e-06	-6.239641e-07	-2.580344e-10	-4.330627e+00	-1.975961e+01
1.720000e-06	-5.772354e-07	-2.447194e-10	-4.006306e+00	-1.902552e+01
1.730000e-06	-5.305587e-07	-2.302786e-10	-3.682346e+00	-1.827577e+01
1.740000e-06	-4.838714e-07	-2.162642e-10	-3.358313e+00	-1.751015e+01
1.750000e-06	-4.371420e-07	-2.035998e-10	-3.033986e+00	-1.672849e+01
1.760000e-06	-3.903510e-07	-1.921948e-10	-2.709233e+00	-1.593067e+01
1.770000e-06	-3.434706e-07	-1.809785e-10	-2.383860e+00	-1.511662e+01
1.780000e-06	-2.965643e-07	-1.716008e-10	-2.058306e+00	-1.428634e+01
1.790000e-06	-2.496062e-07	-1.623708e-10	-1.732393e+00	-1.343987e+01
1.800000e-06	-2.026743e-07	-1.485387e-10	-1.406662e+00	-1.257731e+01
1.810000e-06	-1.557812e-07	-1.317856e-10	-1.081200e+00	-1.169885e+01
1.820000e-06	-1.088880e-07	-1.155209e-10	-7.557376e-01	-1.080471e+01
1.830000e-06	-6.202912e-08	-1.035091e-10	-4.305135e-01	-9.895222e+00
1.840000e-06	-1.522578e-08	-9.331866e-11	-1.056746e-01	-8.970754e+00
1.850000e-06	3.157267e-08	-8.265839e-11	2.191303e-01	-8.031766e+00
1.860000e-06	7.834859e-08	-7.262866e-11	5.437789e-01	-7.078784e+00
1.870000e-06	1.251783e-07	-6.071641e-11	8.688005e-01	-6.112410e+00
1.880000e-06	1.721256e-07	-4.716928e-11	1.194638e+00	-5.133315e+00
1.890000e-06	2.190611e-07	-3.233263e-11	1.520395e+00	-4.142243e+00
1.900000e-06	2.659248e-07	-1.724086e-11	1.845653e+00	-3.140005e+00
1.910000e-06	3.127579e-07	-3.327670e-12	2.170698e+00	-2.127481e+00
1.920000e-06	3.596163e-07	1.098943e-11	2.495919e+00	-1.105612e+00
1.930000e-06	4.064515e-07	2.418995e-11	2.820979e+00	-7.540146e-02
1.940000e-06	4.531958e-07	3.792886e-11	3.145408e+00	9.620942e-01
1.950000e-06	4.999199e-07	5.005797e-11	3.469697e+00	2.005766e+00
1.960000e-06	5.466166e-07	6.116396e-11	3.793795e+00	3.054459e+00
1.970000e-06	5.932659e-07	7.381180e-11	4.117565e+00	4.106978e+00
1.980000e-06	6.398793e-07	8.805814e-11	4.441086e+00	5.162094e+00
1.990000e-06	6.864140e-07	1.035482e-10	4.764060e+00	6.218549e+00
2.000000e-06	7.329249e-07	1.189258e-10	5.086869e+00	7.275065e+00
2.010000e-06	7.793664e-07	1.329028e-10	5.409197e+00	8.330349e+00
2.020000e-06	8.257450e-07	1.459749e-10	5.731088e+00	9.383100e+00
2.030000e-06	8.720538e-07	1.591329e-10	6.052495e+00	1.043202e+01
2.040000e-06	9.182384e-07	1.722486e-10	6.373039e+00	1.147581e+01
2.050000e-06	9.643696e-07	1.849022e-10	6.693213e+00	1.251319e+01
2.060000e-06	1.010461e-06	1.992497e-10	7.013110e+00	1.354291e+01
2.070000e-06	1.056429e-06	2.149841e-10	7.332152e+00	1.456374e+01
2.080000e-06	1.102273e-06	2.313444e-10	7.650331e+00	1.557448e+01
2.090000e-06	1.148112e-06	2.472679e-10	7.968481e+00	1.657399e+01
2.100000e-06	1.193893e-06	2.628540e-10	8.286219e+00	1.756116e+01
2.110000e-06	1.239528e-06	2.765799e-10	8.602952e+00	1.853494e+01
2.120000e-06	1.285128e-06	2.880039e-10	8.919439e+00	1.949435e+01
2.130000e-06	1.330715e-06	2.994495e-10	9.235838e+00	2.043847e+01
2.140000e-06	1.376222e-06	3.104867e-10	9.551675e+00	2.136644e+01
2.150000e-06	1.421584e-06	3.224181e-10	9.866510e+00	2.227749e+01
2.160000e-06	1.466762e-06	3.356442e-10	1.018007e+01	2.317092e+01
2.170000e-06	1.511867e-06	3.490262e-10	1.049313e+01	2.404611e+01
2.180000e-06	1.556949e-06	3.608162e-10	1.080601e+01	2.490252e+01
2.190000e-06	1.601951e-06	3.709226e-10	1.111835e+01	2.573970e+01
2.200000e-06	1.646822e-06	3.801476e-10	1.142978e+01	2.655729e+01
2.210000e-06	1.691527e-06	3.908162e-10	1.174005e+01	2.735501e+01
2.220000e-06	1.736034e-06	4.030592e-10	1.204896e+01	2.813265e+01
2.230000e-06	1.780427e-06	4.144629e-10	1.235706e+01	2.889012e+01
2.240000e-06	1.824698e-06	4.248382e-10	1.266433e+01	2.962737e+01
2.250000e-06	1.868816e-06	4.329839e-10	1.297053e+01	3.034447e+01
2.260000e-06	1.912839e-06	4.391788e-10	1.327607e+01	3.104154e+01
2.270000e-06	1.956760e-06	4.467334e-10	1.358091e+01	3.171878e+01
2.280000e-06	2.000681e-06	4.554861e-10	1.388574e+01	3.237647e+01
2.290000e-06	2.044559e-06	4.650565e-10	1.419028e+01	3.301493e+01
2.300000e-06	2.088290e-06	4.753258e-10	1.449379e+01	3.363458e+01
2.310000e-06	2.131944e-06	4.857297e-10	1.479677e+01	3.423586e+01
2.320000e-06	2.175564e-06	4.939584e-10	1.509952e+01	3.481928e+01
2.330000e-06	2.219089e-06	5.001734e-10	1.540160e+01	3.538538e+01
2.340000e-06	2.262506e-06	5.053424e-10	1.570293e+01	3.593474e+01
2.350000e-06	2.305792e-06	5.115342e-10	1.600336e+01	3.646798e+01
2.360000e-06	2.348875e-06	5.200173e-10	1.630238e+01	3.698574e+01
2.370000e-06	2.391715e-06	5.294711e-10	1.659972e+01	3.748867e+01
2.380000e-06	2.434222e-06	5.388319e-10	1.689473e+01	3.797744e+01
2.390000e-06	2.476453e-06	5.476658e-10	1.718784e+01	3.845274e+01
2.400000e-06	2.518339e-06	5.555269e-10	1.747855e+01	3.891522e+01
2.410000e-06	2.559810e-06	5.622874e-10	1.776638e+01	3.936557e+01
2.420000e-06	2.600914e-06	5.696212e-10	1.805166e+01	3.980445e+01
2.430000e-06	2.641673e-06	5.773615e-10	1.833455e+01	4.023248e+01
2.440000e-06	2.682219e-06	5.852714e-10	1.861595e+01	4.065029e+01
2.450000e-06	2.722620e-06	5.932219e-10	1.889636e+01	4.105847e+01
2.460000e-06	2.762938e-06	6.009683e-10	1.917619e+01	4.145758e+01
2.470000e-06	2.803078e-06	6.095633e-10	1.945478e+01	4.184814e+01
2.480000e-06	2.842987e-06	6.174254e-10	1.973177e+01	4.223066e+01
2.490000e-06	2.882773e-06	6.213903e-10	2.000791e+01	4.260557e+01
2.500000e-06	2.922436e-06	6.255407e-10	2.028319e+01	4.297329e+01
2.510000e-06	2.961972e-06	6.321131e-10	2.055759e+01	4.333418e+01
2.520000e-06	3.001324e-06	6.391668e-10	2.083071e+01	4.368856e+01
2.530000e-06	3.040490e-06	6.455638e-10	2.110254e+01	4.403671e+01
2.540000e-06	3.079577e-06	6.500080e-10	2.137382e+01	4.437885e+01
2.550000e-06	3.118431e-06	6.535828e-10	2.164349e+01	4.471518e+01
2.560000e-06	3.156918e-06	6.573933e-10	2.191060e+01	4.504584e+01
2.570000e-06	3.195197e-06	6.618059e-10	2.217628e+01	4.537093e+01
2.580000e-06	3.233262e-06	6.661697e-10	2.244048e+01	4.569052e+01
2.590000e-06	3.271076e-06	6.700726e-10	2.270292e+01	4.600464e+01
2.600000e-06	3.308727e-06	6.734789e-10	2.296424e+01	4.631327e+01
2.610000e-06	3.346167e-06	6.788480e-10	2.322409e+01	4.661639e+01
2.620000e-06	3.383362e-06	6.865958e-10	2.348224e+01	4.691394e+01
2.630000e-06	3.420325e-06	6.915798e-10	2.373878e+01	4.720581e+01
2.640000e-06	3.457037e-06	6.929759e-10	2.399358e+01	4.749192e+01
2.650000e-06	3.493397e-06	6.947207e-10	2.424594e+01	4.777214e+01
2.660000e-06	3.529482e-06	6.985010e-10	2.449639e+01	4.804633e+01
2.670000e-06	3.565485e-06	7.025543e-10	2.474627e+01	4.831436e+01
2.680000e-06	3.601356e-06	7.071984e-10	2.499523e+01	4.857609e+01
2.690000e-06	3.637095e-06	7.130922e-10	2.524328e+01	4.883137e+01
2.700000e-06	3.672744e-06	7.189301e-10	2.549070e+01	4.908008e+01
2.710000e-06	3.708228e-06	7.228109e-10	2.573698e+01	4.932208e+01
2.720000e-06	3.743539e-06	7.273499e-10	2.598205e+01	4.955725e+01
2.730000e-06	3.778561e-06	7.337634e-10	2.622512e+01	4.978551e+01
2.740000e-06	3.813117e-06	7.389531e-10	2.646496e+01	5.000677e+01
2.750000e-06	3.847248e-06	7.434491e-10	2.670185e+01	5.022096e+01
2.760000e-06	3.880865e-06	7.458785e-10	2.693517e+01	5.042807e+01
2.770000e-06	3.913994e-06	7.474862e-10	2.716510e+01	5.062807e+01
2.780000e-06	3.946680e-06	7.512463e-10	2.739195e+01	5.082098e+01
2.790000e-06	3.978966e-06	7.574602e-10	2.761603e+01	5.100685e+01
2.800000e-06	4.011033e-06	7.643416e-10	2.783860e+01	5.118576e+01
2.810000e-06	4.042934e-06	7.706619e-10	2.806000e+01	5.135781e+01
2.820000e-06	4.074665e-06	7.754946e-10	2.828024e+01	5.152312e+01
2.830000e-06	4.106178e-06	7.768880e-10	2.849895e+01	5.168187e+01
2.840000e-06	4.137506e-06	7.765808e-10	2.871638e+01	5.183424e+01
2.850000e-06	4.168603e-06	7.773178e-10	2.893221e+01	5.198045e+01
2.860000e-06	4.199259e-06	7.787166e-10	2.914499e+01	5.212074e+01
2.870000e-06	4.229497e-06	7.805485e-10	2.935485e+01	5.225536e+01
2.880000e-06	4.259517e-06	7.846505e-10	2.956320e+01	5.238462e+01
2.890000e-06	4.289315e-06	7.911714e-10	2.977001e+01	5.250879e+01
2.900000e-06	4.318862e-06	7.966708e-10	2.997509e+01	5.262821e+01
