# Temperatura_=_-0.67
# Concentracion g/m^3_=_1620.0
# C_Vs_to_Am_M_A/Vsm_=_65563218390.804596
# pendiente_HvsI_1/m_=_3716.3
# ordenada_HvsI_A/m_=_1297.0
# frecuencia_Hz_=_135088.38692732228

Tiempo_(s)	Campo_(V.s)	Magnetizacion_(V.s)	Campo_(kA/m)	Magnetizacion_(A/m)
0.000000e+00	-5.516463e-06	-1.295561e-09	-3.836965e+01	-8.480842e+01
1.000000e-08	-5.516758e-06	-1.298088e-09	-3.837171e+01	-8.481088e+01
2.000000e-08	-5.516808e-06	-1.298924e-09	-3.837206e+01	-8.481041e+01
3.000000e-08	-5.516537e-06	-1.297468e-09	-3.837017e+01	-8.480699e+01
4.000000e-08	-5.515889e-06	-1.293307e-09	-3.836566e+01	-8.480061e+01
5.000000e-08	-5.514580e-06	-1.289464e-09	-3.835656e+01	-8.479123e+01
6.000000e-08	-5.512670e-06	-1.291285e-09	-3.834327e+01	-8.477883e+01
7.000000e-08	-5.510352e-06	-1.293493e-09	-3.832715e+01	-8.476339e+01
8.000000e-08	-5.507525e-06	-1.302748e-09	-3.830748e+01	-8.474487e+01
9.000000e-08	-5.504165e-06	-1.300836e-09	-3.828411e+01	-8.472325e+01
1.000000e-07	-5.500325e-06	-1.281482e-09	-3.825740e+01	-8.469850e+01
1.100000e-07	-5.496102e-06	-1.244614e-09	-3.822803e+01	-8.467060e+01
1.200000e-07	-5.491641e-06	-1.303123e-09	-3.819701e+01	-8.463952e+01
1.300000e-07	-5.486965e-06	-1.292476e-09	-3.816448e+01	-8.460523e+01
1.400000e-07	-5.481921e-06	-1.278945e-09	-3.812939e+01	-8.456770e+01
1.500000e-07	-5.476442e-06	-1.220629e-09	-3.809129e+01	-8.452691e+01
1.600000e-07	-5.470677e-06	-1.274929e-09	-3.805119e+01	-8.448285e+01
1.700000e-07	-5.464497e-06	-1.320198e-09	-3.800821e+01	-8.443548e+01
1.800000e-07	-5.457711e-06	-1.307020e-09	-3.796101e+01	-8.438478e+01
1.900000e-07	-5.450493e-06	-1.252123e-09	-3.791080e+01	-8.433075e+01
2.000000e-07	-5.443057e-06	-1.273511e-09	-3.785908e+01	-8.427336e+01
2.100000e-07	-5.435400e-06	-1.318127e-09	-3.780582e+01	-8.421260e+01
2.200000e-07	-5.427521e-06	-1.321743e-09	-3.775102e+01	-8.414846e+01
2.300000e-07	-5.419396e-06	-1.297415e-09	-3.769450e+01	-8.408094e+01
2.400000e-07	-5.410847e-06	-1.295566e-09	-3.763505e+01	-8.401002e+01
2.500000e-07	-5.401645e-06	-1.337511e-09	-3.757104e+01	-8.393570e+01
2.600000e-07	-5.391800e-06	-1.305250e-09	-3.750256e+01	-8.385799e+01
2.700000e-07	-5.381341e-06	-1.288080e-09	-3.742982e+01	-8.377689e+01
2.800000e-07	-5.370391e-06	-1.270521e-09	-3.735365e+01	-8.369239e+01
2.900000e-07	-5.359032e-06	-1.303891e-09	-3.727465e+01	-8.360452e+01
3.000000e-07	-5.347252e-06	-1.271245e-09	-3.719271e+01	-8.351327e+01
3.100000e-07	-5.335122e-06	-1.261881e-09	-3.710834e+01	-8.341865e+01
3.200000e-07	-5.322541e-06	-1.244639e-09	-3.702083e+01	-8.332069e+01
3.300000e-07	-5.309518e-06	-1.284497e-09	-3.693025e+01	-8.321940e+01
3.400000e-07	-5.296180e-06	-1.250802e-09	-3.683748e+01	-8.311479e+01
3.500000e-07	-5.282491e-06	-1.240105e-09	-3.674227e+01	-8.300688e+01
3.600000e-07	-5.268322e-06	-1.229388e-09	-3.664371e+01	-8.289568e+01
3.700000e-07	-5.253800e-06	-1.270541e-09	-3.654271e+01	-8.278123e+01
3.800000e-07	-5.238810e-06	-1.241308e-09	-3.643844e+01	-8.266354e+01
3.900000e-07	-5.223186e-06	-1.237182e-09	-3.632977e+01	-8.254263e+01
4.000000e-07	-5.207074e-06	-1.252168e-09	-3.621770e+01	-8.241851e+01
4.100000e-07	-5.190533e-06	-1.251591e-09	-3.610265e+01	-8.229122e+01
4.200000e-07	-5.173637e-06	-1.219567e-09	-3.598514e+01	-8.216078e+01
4.300000e-07	-5.156475e-06	-1.246836e-09	-3.586576e+01	-8.202719e+01
4.400000e-07	-5.139030e-06	-1.276167e-09	-3.574443e+01	-8.189049e+01
4.500000e-07	-5.121198e-06	-1.226650e-09	-3.562039e+01	-8.175069e+01
4.600000e-07	-5.102814e-06	-1.209300e-09	-3.549252e+01	-8.160781e+01
4.700000e-07	-5.083999e-06	-1.250936e-09	-3.536166e+01	-8.146187e+01
4.800000e-07	-5.064905e-06	-1.245972e-09	-3.522885e+01	-8.131288e+01
4.900000e-07	-5.045466e-06	-1.206380e-09	-3.509364e+01	-8.116086e+01
5.000000e-07	-5.025787e-06	-1.247695e-09	-3.495677e+01	-8.100582e+01
5.100000e-07	-5.005972e-06	-1.250032e-09	-3.481894e+01	-8.084778e+01
5.200000e-07	-4.985905e-06	-1.205515e-09	-3.467937e+01	-8.068675e+01
5.300000e-07	-4.965481e-06	-1.207626e-09	-3.453730e+01	-8.052274e+01
5.400000e-07	-4.944785e-06	-1.241933e-09	-3.439336e+01	-8.035576e+01
5.500000e-07	-4.923674e-06	-1.187790e-09	-3.424652e+01	-8.018582e+01
5.600000e-07	-4.902018e-06	-1.181710e-09	-3.409589e+01	-8.001293e+01
5.700000e-07	-4.880048e-06	-1.222279e-09	-3.394308e+01	-7.983710e+01
5.800000e-07	-4.857927e-06	-1.213178e-09	-3.378922e+01	-7.965833e+01
5.900000e-07	-4.835458e-06	-1.171771e-09	-3.363294e+01	-7.947664e+01
6.000000e-07	-4.812591e-06	-1.202518e-09	-3.347389e+01	-7.929204e+01
6.100000e-07	-4.789386e-06	-1.194380e-09	-3.331249e+01	-7.910452e+01
6.200000e-07	-4.765905e-06	-1.163441e-09	-3.314916e+01	-7.891411e+01
6.300000e-07	-4.742213e-06	-1.168170e-09	-3.298437e+01	-7.872080e+01
6.400000e-07	-4.718269e-06	-1.184236e-09	-3.281783e+01	-7.852461e+01
6.500000e-07	-4.694007e-06	-1.159322e-09	-3.264908e+01	-7.832555e+01
6.600000e-07	-4.669338e-06	-1.169531e-09	-3.247749e+01	-7.812363e+01
6.700000e-07	-4.644215e-06	-1.176457e-09	-3.230275e+01	-7.791885e+01
6.800000e-07	-4.618654e-06	-1.158774e-09	-3.212496e+01	-7.771123e+01
6.900000e-07	-4.592636e-06	-1.151966e-09	-3.194399e+01	-7.750079e+01
7.000000e-07	-4.566106e-06	-1.164047e-09	-3.175946e+01	-7.728754e+01
7.100000e-07	-4.539078e-06	-1.147539e-09	-3.157147e+01	-7.707148e+01
7.200000e-07	-4.511664e-06	-1.140215e-09	-3.138080e+01	-7.685264e+01
7.300000e-07	-4.484040e-06	-1.149403e-09	-3.118866e+01	-7.663102e+01
7.400000e-07	-4.456265e-06	-1.139515e-09	-3.099547e+01	-7.640665e+01
7.500000e-07	-4.428290e-06	-1.132672e-09	-3.080088e+01	-7.617954e+01
7.600000e-07	-4.400113e-06	-1.139702e-09	-3.060490e+01	-7.594970e+01
7.700000e-07	-4.371668e-06	-1.131414e-09	-3.040705e+01	-7.571715e+01
7.800000e-07	-4.342878e-06	-1.117628e-09	-3.020680e+01	-7.548190e+01
7.900000e-07	-4.313718e-06	-1.121286e-09	-3.000398e+01	-7.524396e+01
8.000000e-07	-4.284244e-06	-1.115618e-09	-2.979898e+01	-7.500334e+01
8.100000e-07	-4.254461e-06	-1.108520e-09	-2.959182e+01	-7.476006e+01
8.200000e-07	-4.224279e-06	-1.112622e-09	-2.938189e+01	-7.451412e+01
8.300000e-07	-4.193865e-06	-1.119429e-09	-2.917035e+01	-7.426552e+01
8.400000e-07	-4.163303e-06	-1.099886e-09	-2.895777e+01	-7.401427e+01
8.500000e-07	-4.132521e-06	-1.096067e-09	-2.874367e+01	-7.376035e+01
8.600000e-07	-4.101409e-06	-1.094315e-09	-2.852727e+01	-7.350378e+01
8.700000e-07	-4.069968e-06	-1.086675e-09	-2.830859e+01	-7.324453e+01
8.800000e-07	-4.038357e-06	-1.075892e-09	-2.808871e+01	-7.298259e+01
8.900000e-07	-4.006586e-06	-1.084790e-09	-2.786773e+01	-7.271795e+01
9.000000e-07	-3.974611e-06	-1.079511e-09	-2.764533e+01	-7.245056e+01
9.100000e-07	-3.942398e-06	-1.069880e-09	-2.742127e+01	-7.218042e+01
9.200000e-07	-3.909874e-06	-1.064235e-09	-2.719506e+01	-7.190747e+01
9.300000e-07	-3.876972e-06	-1.061598e-09	-2.696620e+01	-7.163169e+01
9.400000e-07	-3.843561e-06	-1.045720e-09	-2.673381e+01	-7.135301e+01
9.500000e-07	-3.809757e-06	-1.039712e-09	-2.649869e+01	-7.107138e+01
9.600000e-07	-3.775620e-06	-1.041637e-09	-2.626125e+01	-7.078675e+01
9.700000e-07	-3.740959e-06	-1.041446e-09	-2.602017e+01	-7.049904e+01
9.800000e-07	-3.705848e-06	-1.035790e-09	-2.577595e+01	-7.020818e+01
9.900000e-07	-3.670453e-06	-1.038013e-09	-2.552976e+01	-6.991409e+01
1.000000e-06	-3.634894e-06	-1.031405e-09	-2.528243e+01	-6.961668e+01
1.010000e-06	-3.599210e-06	-1.019414e-09	-2.503424e+01	-6.931586e+01
1.020000e-06	-3.563396e-06	-1.012048e-09	-2.478513e+01	-6.901154e+01
1.030000e-06	-3.527435e-06	-1.007642e-09	-2.453501e+01	-6.870360e+01
1.040000e-06	-3.491264e-06	-1.000714e-09	-2.428342e+01	-6.839194e+01
1.050000e-06	-3.454942e-06	-9.951579e-10	-2.403078e+01	-6.807645e+01
1.060000e-06	-3.418395e-06	-9.947932e-10	-2.377658e+01	-6.775700e+01
1.070000e-06	-3.381523e-06	-9.873044e-10	-2.352012e+01	-6.743348e+01
1.080000e-06	-3.344425e-06	-9.813020e-10	-2.326209e+01	-6.710575e+01
1.090000e-06	-3.307072e-06	-9.764542e-10	-2.300228e+01	-6.677369e+01
1.100000e-06	-3.269393e-06	-9.687883e-10	-2.274020e+01	-6.643718e+01
1.110000e-06	-3.231460e-06	-9.567203e-10	-2.247635e+01	-6.609606e+01
1.120000e-06	-3.193348e-06	-9.522182e-10	-2.221127e+01	-6.575022e+01
1.130000e-06	-3.155082e-06	-9.473430e-10	-2.194511e+01	-6.539952e+01
1.140000e-06	-3.116564e-06	-9.416750e-10	-2.167720e+01	-6.504381e+01
1.150000e-06	-3.077877e-06	-9.341632e-10	-2.140812e+01	-6.468297e+01
1.160000e-06	-3.038997e-06	-9.291124e-10	-2.113769e+01	-6.431685e+01
1.170000e-06	-2.999843e-06	-9.211802e-10	-2.086535e+01	-6.394532e+01
1.180000e-06	-2.960500e-06	-9.176528e-10	-2.059170e+01	-6.356826e+01
1.190000e-06	-2.921006e-06	-9.114258e-10	-2.031700e+01	-6.318551e+01
1.200000e-06	-2.881384e-06	-9.070756e-10	-2.004141e+01	-6.279697e+01
1.210000e-06	-2.841561e-06	-9.012317e-10	-1.976443e+01	-6.240248e+01
1.220000e-06	-2.801628e-06	-8.949640e-10	-1.948667e+01	-6.200193e+01
1.230000e-06	-2.761604e-06	-8.850031e-10	-1.920828e+01	-6.159519e+01
1.240000e-06	-2.721491e-06	-8.785764e-10	-1.892928e+01	-6.118213e+01
1.250000e-06	-2.681187e-06	-8.720212e-10	-1.864894e+01	-6.076263e+01
1.260000e-06	-2.640625e-06	-8.644342e-10	-1.836682e+01	-6.033656e+01
1.270000e-06	-2.599883e-06	-8.580100e-10	-1.808343e+01	-5.990381e+01
1.280000e-06	-2.558893e-06	-8.556205e-10	-1.779833e+01	-5.946425e+01
1.290000e-06	-2.517703e-06	-8.515517e-10	-1.751184e+01	-5.901776e+01
1.300000e-06	-2.476256e-06	-8.457202e-10	-1.722355e+01	-5.856422e+01
1.310000e-06	-2.434431e-06	-8.389763e-10	-1.693264e+01	-5.810349e+01
1.320000e-06	-2.392180e-06	-8.297837e-10	-1.663876e+01	-5.763546e+01
1.330000e-06	-2.349638e-06	-8.172406e-10	-1.634286e+01	-5.715999e+01
1.340000e-06	-2.306853e-06	-8.104000e-10	-1.604527e+01	-5.667694e+01
1.350000e-06	-2.263832e-06	-8.058677e-10	-1.574604e+01	-5.618618e+01
1.360000e-06	-2.220657e-06	-7.974760e-10	-1.544574e+01	-5.568757e+01
1.370000e-06	-2.177210e-06	-7.898053e-10	-1.514354e+01	-5.518095e+01
1.380000e-06	-2.133533e-06	-7.829054e-10	-1.483975e+01	-5.466615e+01
1.390000e-06	-2.089767e-06	-7.748300e-10	-1.453533e+01	-5.414303e+01
1.400000e-06	-2.046023e-06	-7.648987e-10	-1.423107e+01	-5.361138e+01
1.410000e-06	-2.002259e-06	-7.563344e-10	-1.392668e+01	-5.307104e+01
1.420000e-06	-1.958358e-06	-7.454363e-10	-1.362132e+01	-5.252181e+01
1.430000e-06	-1.914347e-06	-7.368504e-10	-1.331520e+01	-5.196346e+01
1.440000e-06	-1.870250e-06	-7.303048e-10	-1.300849e+01	-5.139579e+01
1.450000e-06	-1.826070e-06	-7.226654e-10	-1.270119e+01	-5.081856e+01
1.460000e-06	-1.781777e-06	-7.108372e-10	-1.239312e+01	-5.023152e+01
1.470000e-06	-1.737360e-06	-7.012825e-10	-1.208417e+01	-4.963442e+01
1.480000e-06	-1.692851e-06	-6.913269e-10	-1.177460e+01	-4.902697e+01
1.490000e-06	-1.648168e-06	-6.796569e-10	-1.146380e+01	-4.840890e+01
1.500000e-06	-1.603310e-06	-6.674929e-10	-1.115179e+01	-4.777991e+01
1.510000e-06	-1.558340e-06	-6.580792e-10	-1.083900e+01	-4.713968e+01
1.520000e-06	-1.513247e-06	-6.449191e-10	-1.052536e+01	-4.648788e+01
1.530000e-06	-1.468010e-06	-6.287405e-10	-1.021071e+01	-4.582420e+01
1.540000e-06	-1.422665e-06	-6.137354e-10	-9.895323e+00	-4.514827e+01
1.550000e-06	-1.377287e-06	-6.027419e-10	-9.579692e+00	-4.445974e+01
1.560000e-06	-1.331817e-06	-5.886385e-10	-9.263429e+00	-4.375826e+01
1.570000e-06	-1.286182e-06	-5.775533e-10	-8.946015e+00	-4.304346e+01
1.580000e-06	-1.240514e-06	-5.664310e-10	-8.628372e+00	-4.231495e+01
1.590000e-06	-1.194816e-06	-5.588038e-10	-8.310522e+00	-4.157237e+01
1.600000e-06	-1.148984e-06	-5.493579e-10	-7.991735e+00	-4.081534e+01
1.610000e-06	-1.103079e-06	-5.381084e-10	-7.672446e+00	-4.004347e+01
1.620000e-06	-1.057086e-06	-5.221506e-10	-7.352540e+00	-3.925641e+01
1.630000e-06	-1.011029e-06	-5.051710e-10	-7.032195e+00	-3.845379e+01
1.640000e-06	-9.650122e-07	-4.913528e-10	-6.712124e+00	-3.763524e+01
1.650000e-06	-9.189161e-07	-4.768487e-10	-6.391503e+00	-3.680043e+01
1.660000e-06	-8.726713e-07	-4.675691e-10	-6.069848e+00	-3.594903e+01
1.670000e-06	-8.263276e-07	-4.585442e-10	-5.747506e+00	-3.508073e+01
1.680000e-06	-7.799307e-07	-4.505718e-10	-5.424793e+00	-3.419523e+01
1.690000e-06	-7.335717e-07	-4.364791e-10	-5.102344e+00	-3.329227e+01
1.700000e-06	-6.871398e-07	-4.210799e-10	-4.779388e+00	-3.237160e+01
1.710000e-06	-6.406829e-07	-4.073769e-10	-4.456258e+00	-3.143302e+01
1.720000e-06	-5.942436e-07	-3.921772e-10	-4.133250e+00	-3.047635e+01
1.730000e-06	-5.476625e-07	-3.744850e-10	-3.809256e+00	-2.950145e+01
1.740000e-06	-5.010829e-07	-3.608201e-10	-3.485272e+00	-2.850821e+01
1.750000e-06	-4.545247e-07	-3.480158e-10	-3.161438e+00	-2.749656e+01
1.760000e-06	-4.079127e-07	-3.346632e-10	-2.837229e+00	-2.646649e+01
1.770000e-06	-3.612502e-07	-3.183801e-10	-2.512669e+00	-2.541802e+01
1.780000e-06	-3.146126e-07	-3.055324e-10	-2.188282e+00	-2.435123e+01
1.790000e-06	-2.680387e-07	-2.917954e-10	-1.864338e+00	-2.326624e+01
1.800000e-06	-2.213619e-07	-2.743327e-10	-1.539678e+00	-2.216322e+01
1.810000e-06	-1.746767e-07	-2.558373e-10	-1.214960e+00	-2.104239e+01
1.820000e-06	-1.279667e-07	-2.380826e-10	-8.900697e-01	-1.990405e+01
1.830000e-06	-8.113130e-08	-2.213520e-10	-5.643072e-01	-1.874852e+01
1.840000e-06	-3.431993e-08	-2.050841e-10	-2.387116e-01	-1.757620e+01
1.850000e-06	1.239601e-08	-1.883509e-10	8.622023e-02	-1.638753e+01
1.860000e-06	5.910290e-08	-1.730677e-10	4.110891e-01	-1.518302e+01
1.870000e-06	1.058895e-07	-1.547825e-10	7.365122e-01	-1.396321e+01
1.880000e-06	1.526799e-07	-1.363868e-10	1.061962e+00	-1.272873e+01
1.890000e-06	1.994204e-07	-1.188332e-10	1.387065e+00	-1.148023e+01
1.900000e-06	2.461502e-07	-1.016767e-10	1.712093e+00	-1.021843e+01
1.910000e-06	2.929895e-07	-8.635650e-11	2.037883e+00	-8.944090e+00
1.920000e-06	3.398576e-07	-7.024877e-11	2.363873e+00	-7.658028e+00
1.930000e-06	3.865946e-07	-5.562681e-11	2.688951e+00	-6.361097e+00
1.940000e-06	4.332092e-07	-3.721780e-11	3.013178e+00	-5.054199e+00
1.950000e-06	4.797186e-07	-1.690282e-11	3.336673e+00	-3.738270e+00
1.960000e-06	5.262310e-07	3.470185e-12	3.660190e+00	-2.414285e+00
1.970000e-06	5.727389e-07	2.047907e-11	3.983675e+00	-1.083252e+00
1.980000e-06	6.191304e-07	3.613962e-11	4.306349e+00	2.537940e-01
1.990000e-06	6.655343e-07	5.141814e-11	4.629111e+00	1.595794e+00
2.000000e-06	7.119722e-07	6.795879e-11	4.952109e+00	2.941667e+00
2.010000e-06	7.582330e-07	8.570461e-11	5.273875e+00	4.290316e+00
2.020000e-06	8.044404e-07	1.052804e-10	5.595270e+00	5.640634e+00
2.030000e-06	8.506627e-07	1.262433e-10	5.916768e+00	6.991506e+00
2.040000e-06	8.967599e-07	1.469192e-10	6.237396e+00	8.341812e+00
2.050000e-06	9.428036e-07	1.645276e-10	6.557652e+00	9.690439e+00
2.060000e-06	9.887897e-07	1.806044e-10	6.877508e+00	1.103628e+01
2.070000e-06	1.034774e-06	1.969132e-10	7.197352e+00	1.237822e+01
2.080000e-06	1.080761e-06	2.156000e-10	7.517215e+00	1.371520e+01
2.090000e-06	1.126586e-06	2.333866e-10	7.835949e+00	1.504615e+01
2.100000e-06	1.172286e-06	2.511198e-10	8.153815e+00	1.637003e+01
2.110000e-06	1.217879e-06	2.697325e-10	8.470932e+00	1.768583e+01
2.120000e-06	1.263355e-06	2.892728e-10	8.787240e+00	1.899257e+01
2.130000e-06	1.308827e-06	3.073936e-10	9.103522e+00	2.028932e+01
2.140000e-06	1.354304e-06	3.240879e-10	9.419832e+00	2.157516e+01
2.150000e-06	1.399653e-06	3.408600e-10	9.735262e+00	2.284925e+01
2.160000e-06	1.444800e-06	3.585513e-10	1.004928e+01	2.411076e+01
2.170000e-06	1.489932e-06	3.777326e-10	1.036319e+01	2.535894e+01
2.180000e-06	1.535031e-06	3.963753e-10	1.067688e+01	2.659305e+01
2.190000e-06	1.579905e-06	4.138555e-10	1.098900e+01	2.781245e+01
2.200000e-06	1.624633e-06	4.317958e-10	1.130010e+01	2.901651e+01
2.210000e-06	1.669167e-06	4.485000e-10	1.160986e+01	3.020469e+01
2.220000e-06	1.713529e-06	4.663117e-10	1.191842e+01	3.137648e+01
2.230000e-06	1.757877e-06	4.851930e-10	1.222688e+01	3.253143e+01
2.240000e-06	1.802123e-06	5.001108e-10	1.253463e+01	3.366917e+01
2.250000e-06	1.846212e-06	5.134674e-10	1.284129e+01	3.478935e+01
2.260000e-06	1.890177e-06	5.263522e-10	1.314709e+01	3.589170e+01
2.270000e-06	1.934029e-06	5.426827e-10	1.345210e+01	3.697600e+01
2.280000e-06	1.977857e-06	5.605648e-10	1.375695e+01	3.804208e+01
2.290000e-06	2.021673e-06	5.762125e-10	1.406171e+01	3.908981e+01
2.300000e-06	2.065457e-06	5.887301e-10	1.436625e+01	4.011914e+01
2.310000e-06	2.109134e-06	6.019712e-10	1.467004e+01	4.113004e+01
2.320000e-06	2.152702e-06	6.153405e-10	1.497308e+01	4.212253e+01
2.330000e-06	2.196225e-06	6.269788e-10	1.527580e+01	4.309669e+01
2.340000e-06	2.239646e-06	6.373593e-10	1.557782e+01	4.405261e+01
2.350000e-06	2.282893e-06	6.496634e-10	1.587862e+01	4.499045e+01
2.360000e-06	2.325843e-06	6.625855e-10	1.617736e+01	4.591039e+01
2.370000e-06	2.368574e-06	6.755635e-10	1.647457e+01	4.681263e+01
2.380000e-06	2.411016e-06	6.874533e-10	1.676978e+01	4.769741e+01
2.390000e-06	2.453031e-06	6.988288e-10	1.706201e+01	4.856499e+01
2.400000e-06	2.494713e-06	7.103228e-10	1.735193e+01	4.941566e+01
2.410000e-06	2.536122e-06	7.230746e-10	1.763995e+01	5.024970e+01
2.420000e-06	2.577332e-06	7.368338e-10	1.792658e+01	5.106745e+01
2.430000e-06	2.618271e-06	7.494319e-10	1.821134e+01	5.186921e+01
2.440000e-06	2.658921e-06	7.607578e-10	1.849407e+01	5.265534e+01
2.450000e-06	2.699292e-06	7.738522e-10	1.877488e+01	5.342615e+01
2.460000e-06	2.739382e-06	7.872641e-10	1.905372e+01	5.418199e+01
2.470000e-06	2.779428e-06	7.979839e-10	1.933226e+01	5.492319e+01
2.480000e-06	2.819409e-06	8.082952e-10	1.961035e+01	5.565010e+01
2.490000e-06	2.859221e-06	8.170103e-10	1.988726e+01	5.636304e+01
2.500000e-06	2.898928e-06	8.246742e-10	2.016344e+01	5.706233e+01
2.510000e-06	2.938517e-06	8.336862e-10	2.043880e+01	5.774827e+01
2.520000e-06	2.977886e-06	8.438770e-10	2.071263e+01	5.842118e+01
2.530000e-06	3.017073e-06	8.548212e-10	2.098519e+01	5.908132e+01
2.540000e-06	3.056090e-06	8.652389e-10	2.125658e+01	5.972897e+01
2.550000e-06	3.094774e-06	8.738511e-10	2.152564e+01	6.036438e+01
2.560000e-06	3.133192e-06	8.828279e-10	2.179286e+01	6.098779e+01
2.570000e-06	3.171407e-06	8.917283e-10	2.205866e+01	6.159942e+01
2.580000e-06	3.209417e-06	8.994346e-10	2.232304e+01	6.219947e+01
2.590000e-06	3.247155e-06	9.041813e-10	2.258552e+01	6.278812e+01
2.600000e-06	3.284737e-06	9.101167e-10	2.284693e+01	6.336555e+01
2.610000e-06	3.322222e-06	9.187467e-10	2.310765e+01	6.393190e+01
2.620000e-06	3.359394e-06	9.292082e-10	2.336620e+01	6.448731e+01
2.630000e-06	3.396263e-06	9.398970e-10	2.362264e+01	6.503189e+01
2.640000e-06	3.432935e-06	9.487868e-10	2.387772e+01	6.556576e+01
2.650000e-06	3.469400e-06	9.551329e-10	2.413134e+01	6.608899e+01
2.660000e-06	3.505577e-06	9.595340e-10	2.438298e+01	6.660168e+01
2.670000e-06	3.541569e-06	9.643206e-10	2.463332e+01	6.710388e+01
2.680000e-06	3.577480e-06	9.696064e-10	2.488309e+01	6.759566e+01
2.690000e-06	3.613206e-06	9.751739e-10	2.513159e+01	6.807707e+01
2.700000e-06	3.648771e-06	9.823066e-10	2.537896e+01	6.854816e+01
2.710000e-06	3.684235e-06	9.899842e-10	2.562562e+01	6.900895e+01
2.720000e-06	3.719488e-06	9.964294e-10	2.587083e+01	6.945950e+01
2.730000e-06	3.754317e-06	1.004141e-09	2.611308e+01	6.989984e+01
2.740000e-06	3.788771e-06	1.011704e-09	2.635272e+01	7.033000e+01
2.750000e-06	3.822915e-06	1.015474e-09	2.659021e+01	7.075003e+01
2.760000e-06	3.856424e-06	1.018687e-09	2.682328e+01	7.115996e+01
2.770000e-06	3.889398e-06	1.024210e-09	2.705263e+01	7.155985e+01
2.780000e-06	3.922164e-06	1.030417e-09	2.728054e+01	7.194975e+01
2.790000e-06	3.954626e-06	1.037576e-09	2.750633e+01	7.232972e+01
2.800000e-06	3.986745e-06	1.044787e-09	2.772973e+01	7.269983e+01
2.810000e-06	4.018628e-06	1.051800e-09	2.795149e+01	7.306017e+01
2.820000e-06	4.050372e-06	1.060045e-09	2.817229e+01	7.341082e+01
2.830000e-06	4.081970e-06	1.067521e-09	2.839207e+01	7.375189e+01
2.840000e-06	4.113385e-06	1.071223e-09	2.861057e+01	7.408350e+01
2.850000e-06	4.144483e-06	1.072432e-09	2.882687e+01	7.440576e+01
2.860000e-06	4.175201e-06	1.076877e-09	2.904053e+01	7.471882e+01
2.870000e-06	4.205632e-06	1.084688e-09	2.925219e+01	7.502284e+01
2.880000e-06	4.235769e-06	1.089004e-09	2.946181e+01	7.531797e+01
2.890000e-06	4.265667e-06	1.096462e-09	2.966976e+01	7.560439e+01
2.900000e-06	4.295295e-06	1.100795e-09	2.987584e+01	7.588230e+01
