# Temperatura_=_6.4
# Concentracion g/m^3_=_1620.0
# C_Vs_to_Am_M_A/Vsm_=_65563218390.804596
# pendiente_HvsI_1/m_=_3716.3
# ordenada_HvsI_A/m_=_1297.0
# frecuencia_Hz_=_135106.4193634502

Tiempo_(s)	Campo_(V.s)	Magnetizacion_(V.s)	Campo_(kA/m)	Magnetizacion_(A/m)
0.000000e+00	-5.518592e-06	-6.664786e-10	-3.836995e+01	-4.489189e+01
1.000000e-08	-5.518716e-06	-6.633302e-10	-3.837081e+01	-4.488655e+01
2.000000e-08	-5.518624e-06	-6.626162e-10	-3.837017e+01	-4.488088e+01
3.000000e-08	-5.518120e-06	-6.614213e-10	-3.836667e+01	-4.487477e+01
4.000000e-08	-5.517096e-06	-6.612918e-10	-3.835955e+01	-4.486813e+01
5.000000e-08	-5.515532e-06	-6.659312e-10	-3.834868e+01	-4.486084e+01
6.000000e-08	-5.513319e-06	-6.704260e-10	-3.833329e+01	-4.485279e+01
7.000000e-08	-5.510565e-06	-6.544250e-10	-3.831414e+01	-4.484389e+01
8.000000e-08	-5.507349e-06	-6.146216e-10	-3.829178e+01	-4.483403e+01
9.000000e-08	-5.503698e-06	-6.324650e-10	-3.826639e+01	-4.482311e+01
1.000000e-07	-5.499655e-06	-7.146442e-10	-3.823829e+01	-4.481105e+01
1.100000e-07	-5.495167e-06	-7.242065e-10	-3.820708e+01	-4.479776e+01
1.200000e-07	-5.490377e-06	-6.008361e-10	-3.817378e+01	-4.478317e+01
1.300000e-07	-5.485461e-06	-6.045518e-10	-3.813960e+01	-4.476721e+01
1.400000e-07	-5.480263e-06	-6.746734e-10	-3.810346e+01	-4.474981e+01
1.500000e-07	-5.474590e-06	-7.191121e-10	-3.806401e+01	-4.473093e+01
1.600000e-07	-5.468479e-06	-6.057813e-10	-3.802152e+01	-4.471053e+01
1.700000e-07	-5.462008e-06	-5.914157e-10	-3.797653e+01	-4.468857e+01
1.800000e-07	-5.455068e-06	-6.902329e-10	-3.792828e+01	-4.466504e+01
1.900000e-07	-5.447712e-06	-7.257610e-10	-3.787713e+01	-4.463992e+01
2.000000e-07	-5.440158e-06	-6.831564e-10	-3.782461e+01	-4.461322e+01
2.100000e-07	-5.432372e-06	-6.479957e-10	-3.777047e+01	-4.458494e+01
2.200000e-07	-5.424235e-06	-7.142436e-10	-3.771390e+01	-4.455511e+01
2.300000e-07	-5.415803e-06	-7.353659e-10	-3.765527e+01	-4.452374e+01
2.400000e-07	-5.407022e-06	-7.293128e-10	-3.759422e+01	-4.449087e+01
2.500000e-07	-5.397616e-06	-6.934257e-10	-3.752882e+01	-4.445654e+01
2.600000e-07	-5.387375e-06	-7.314810e-10	-3.745762e+01	-4.442080e+01
2.700000e-07	-5.376451e-06	-7.218783e-10	-3.738167e+01	-4.438370e+01
2.800000e-07	-5.365142e-06	-7.117821e-10	-3.730303e+01	-4.434528e+01
2.900000e-07	-5.353513e-06	-6.940102e-10	-3.722218e+01	-4.430561e+01
3.000000e-07	-5.341413e-06	-7.409086e-10	-3.713805e+01	-4.426474e+01
3.100000e-07	-5.328875e-06	-7.450581e-10	-3.705088e+01	-4.422273e+01
3.200000e-07	-5.315937e-06	-7.239848e-10	-3.696092e+01	-4.417963e+01
3.300000e-07	-5.302573e-06	-6.887287e-10	-3.686800e+01	-4.413549e+01
3.400000e-07	-5.288941e-06	-7.171111e-10	-3.677322e+01	-4.409036e+01
3.500000e-07	-5.274913e-06	-7.133603e-10	-3.667569e+01	-4.404427e+01
3.600000e-07	-5.260371e-06	-6.761958e-10	-3.657458e+01	-4.399728e+01
3.700000e-07	-5.245368e-06	-6.829130e-10	-3.647026e+01	-4.394939e+01
3.800000e-07	-5.229922e-06	-7.412176e-10	-3.636287e+01	-4.390064e+01
3.900000e-07	-5.213902e-06	-7.094825e-10	-3.625149e+01	-4.385103e+01
4.000000e-07	-5.197387e-06	-6.651019e-10	-3.613666e+01	-4.380057e+01
4.100000e-07	-5.180616e-06	-7.269050e-10	-3.602005e+01	-4.374923e+01
4.200000e-07	-5.163587e-06	-7.362160e-10	-3.590166e+01	-4.369701e+01
4.300000e-07	-5.146204e-06	-6.516865e-10	-3.578079e+01	-4.364387e+01
4.400000e-07	-5.128403e-06	-6.617475e-10	-3.565702e+01	-4.358977e+01
4.500000e-07	-5.110230e-06	-7.489848e-10	-3.553067e+01	-4.353467e+01
4.600000e-07	-5.091617e-06	-6.785578e-10	-3.540126e+01	-4.347848e+01
4.700000e-07	-5.072566e-06	-6.342557e-10	-3.526880e+01	-4.342116e+01
4.800000e-07	-5.053260e-06	-7.117587e-10	-3.513457e+01	-4.336261e+01
4.900000e-07	-5.033733e-06	-7.185227e-10	-3.499880e+01	-4.330276e+01
5.000000e-07	-5.013944e-06	-6.295884e-10	-3.486121e+01	-4.324150e+01
5.100000e-07	-4.993953e-06	-6.907967e-10	-3.472221e+01	-4.317873e+01
5.200000e-07	-4.973680e-06	-7.185388e-10	-3.458126e+01	-4.311436e+01
5.300000e-07	-4.952980e-06	-6.338242e-10	-3.443733e+01	-4.304828e+01
5.400000e-07	-4.931864e-06	-6.407783e-10	-3.429052e+01	-4.298038e+01
5.500000e-07	-4.910411e-06	-7.319769e-10	-3.414136e+01	-4.291055e+01
5.600000e-07	-4.888558e-06	-6.638463e-10	-3.398942e+01	-4.283869e+01
5.700000e-07	-4.866367e-06	-6.273092e-10	-3.383512e+01	-4.276469e+01
5.800000e-07	-4.843898e-06	-6.994740e-10	-3.367890e+01	-4.268847e+01
5.900000e-07	-4.821092e-06	-6.879542e-10	-3.352034e+01	-4.260993e+01
6.000000e-07	-4.797965e-06	-6.177031e-10	-3.335954e+01	-4.252898e+01
6.100000e-07	-4.774579e-06	-6.699118e-10	-3.319694e+01	-4.244557e+01
6.200000e-07	-4.750965e-06	-6.845134e-10	-3.303275e+01	-4.235964e+01
6.300000e-07	-4.727075e-06	-6.237335e-10	-3.286665e+01	-4.227113e+01
6.400000e-07	-4.702894e-06	-6.404669e-10	-3.269853e+01	-4.218002e+01
6.500000e-07	-4.678388e-06	-6.779924e-10	-3.252814e+01	-4.208629e+01
6.600000e-07	-4.653473e-06	-6.317504e-10	-3.235490e+01	-4.198994e+01
6.700000e-07	-4.628050e-06	-6.256365e-10	-3.217814e+01	-4.189099e+01
6.800000e-07	-4.602057e-06	-6.635045e-10	-3.199742e+01	-4.178948e+01
6.900000e-07	-4.575599e-06	-6.370547e-10	-3.181346e+01	-4.168545e+01
7.000000e-07	-4.548651e-06	-6.189836e-10	-3.162610e+01	-4.157899e+01
7.100000e-07	-4.521289e-06	-6.494136e-10	-3.143585e+01	-4.147017e+01
7.200000e-07	-4.493734e-06	-6.426802e-10	-3.124426e+01	-4.135911e+01
7.300000e-07	-4.466022e-06	-6.132525e-10	-3.105159e+01	-4.124592e+01
7.400000e-07	-4.438122e-06	-6.362500e-10	-3.085760e+01	-4.113076e+01
7.500000e-07	-4.409983e-06	-6.383046e-10	-3.066196e+01	-4.101376e+01
7.600000e-07	-4.381517e-06	-6.177578e-10	-3.046404e+01	-4.089509e+01
7.700000e-07	-4.352712e-06	-6.248693e-10	-3.026376e+01	-4.077494e+01
7.800000e-07	-4.323619e-06	-6.361469e-10	-3.006148e+01	-4.065350e+01
7.900000e-07	-4.294233e-06	-6.105071e-10	-2.985717e+01	-4.053095e+01
8.000000e-07	-4.264572e-06	-6.164024e-10	-2.965094e+01	-4.040751e+01
8.100000e-07	-4.234616e-06	-6.313628e-10	-2.944266e+01	-4.028339e+01
8.200000e-07	-4.204363e-06	-6.201082e-10	-2.923231e+01	-4.015878e+01
8.300000e-07	-4.173762e-06	-6.082027e-10	-2.901955e+01	-4.003391e+01
8.400000e-07	-4.142792e-06	-6.265907e-10	-2.880422e+01	-3.990897e+01
8.500000e-07	-4.111533e-06	-6.169784e-10	-2.858688e+01	-3.978417e+01
8.600000e-07	-4.080112e-06	-6.025424e-10	-2.836841e+01	-3.965970e+01
8.700000e-07	-4.048589e-06	-6.087527e-10	-2.814924e+01	-3.953574e+01
8.800000e-07	-4.016899e-06	-6.119792e-10	-2.792890e+01	-3.941245e+01
8.900000e-07	-3.984974e-06	-5.943143e-10	-2.770693e+01	-3.928999e+01
9.000000e-07	-3.952813e-06	-5.994591e-10	-2.748332e+01	-3.916850e+01
9.100000e-07	-3.920403e-06	-6.059301e-10	-2.725798e+01	-3.904808e+01
9.200000e-07	-3.887603e-06	-5.924345e-10	-2.702993e+01	-3.892883e+01
9.300000e-07	-3.854289e-06	-5.861928e-10	-2.679830e+01	-3.881082e+01
9.400000e-07	-3.820567e-06	-5.974259e-10	-2.656383e+01	-3.869410e+01
9.500000e-07	-3.786397e-06	-5.920115e-10	-2.632625e+01	-3.857867e+01
9.600000e-07	-3.751683e-06	-5.825505e-10	-2.608489e+01	-3.846453e+01
9.700000e-07	-3.716581e-06	-5.891227e-10	-2.584083e+01	-3.835164e+01
9.800000e-07	-3.681212e-06	-5.871852e-10	-2.559492e+01	-3.823993e+01
9.900000e-07	-3.645629e-06	-5.768377e-10	-2.534752e+01	-3.812931e+01
1.000000e-06	-3.609933e-06	-5.802523e-10	-2.509933e+01	-3.801964e+01
1.010000e-06	-3.574154e-06	-5.870384e-10	-2.485056e+01	-3.791078e+01
1.020000e-06	-3.538238e-06	-5.781821e-10	-2.460084e+01	-3.780254e+01
1.030000e-06	-3.502162e-06	-5.758098e-10	-2.435001e+01	-3.769470e+01
1.040000e-06	-3.465832e-06	-5.764493e-10	-2.409741e+01	-3.758703e+01
1.050000e-06	-3.429155e-06	-5.674891e-10	-2.384241e+01	-3.747928e+01
1.060000e-06	-3.392192e-06	-5.554079e-10	-2.358541e+01	-3.737116e+01
1.070000e-06	-3.354972e-06	-5.586829e-10	-2.332662e+01	-3.726235e+01
1.080000e-06	-3.317557e-06	-5.583197e-10	-2.306648e+01	-3.715255e+01
1.090000e-06	-3.279965e-06	-5.568809e-10	-2.280511e+01	-3.704142e+01
1.100000e-06	-3.242158e-06	-5.589832e-10	-2.254224e+01	-3.692859e+01
1.110000e-06	-3.204082e-06	-5.599400e-10	-2.227751e+01	-3.681372e+01
1.120000e-06	-3.165763e-06	-5.484904e-10	-2.201108e+01	-3.669643e+01
1.130000e-06	-3.127209e-06	-5.427972e-10	-2.174302e+01	-3.657634e+01
1.140000e-06	-3.088359e-06	-5.403464e-10	-2.147290e+01	-3.645309e+01
1.150000e-06	-3.049348e-06	-5.372604e-10	-2.120166e+01	-3.632629e+01
1.160000e-06	-3.010159e-06	-5.350907e-10	-2.092919e+01	-3.619558e+01
1.170000e-06	-2.970805e-06	-5.383635e-10	-2.065557e+01	-3.606059e+01
1.180000e-06	-2.931356e-06	-5.352238e-10	-2.038128e+01	-3.592098e+01
1.190000e-06	-2.891789e-06	-5.317553e-10	-2.010618e+01	-3.577639e+01
1.200000e-06	-2.852088e-06	-5.311249e-10	-1.983015e+01	-3.562650e+01
1.210000e-06	-2.812232e-06	-5.284143e-10	-1.955303e+01	-3.547101e+01
1.220000e-06	-2.772203e-06	-5.209446e-10	-1.927472e+01	-3.530962e+01
1.230000e-06	-2.732036e-06	-5.172765e-10	-1.899544e+01	-3.514207e+01
1.240000e-06	-2.691701e-06	-5.150224e-10	-1.871500e+01	-3.496811e+01
1.250000e-06	-2.651138e-06	-5.111930e-10	-1.843297e+01	-3.478751e+01
1.260000e-06	-2.610346e-06	-5.093878e-10	-1.814935e+01	-3.460009e+01
1.270000e-06	-2.569250e-06	-5.084650e-10	-1.786362e+01	-3.440567e+01
1.280000e-06	-2.527830e-06	-5.046075e-10	-1.757563e+01	-3.420410e+01
1.290000e-06	-2.486121e-06	-4.989939e-10	-1.728563e+01	-3.399526e+01
1.300000e-06	-2.444112e-06	-4.968049e-10	-1.699355e+01	-3.377905e+01
1.310000e-06	-2.401735e-06	-4.941122e-10	-1.669891e+01	-3.355541e+01
1.320000e-06	-2.359010e-06	-4.913268e-10	-1.640184e+01	-3.332427e+01
1.330000e-06	-2.316102e-06	-4.900139e-10	-1.610351e+01	-3.308562e+01
1.340000e-06	-2.273097e-06	-4.892429e-10	-1.580450e+01	-3.283945e+01
1.350000e-06	-2.229876e-06	-4.819480e-10	-1.550400e+01	-3.258576e+01
1.360000e-06	-2.186438e-06	-4.747899e-10	-1.520198e+01	-3.232457e+01
1.370000e-06	-2.142867e-06	-4.698073e-10	-1.489904e+01	-3.205592e+01
1.380000e-06	-2.099203e-06	-4.670255e-10	-1.459545e+01	-3.177986e+01
1.390000e-06	-2.055522e-06	-4.646872e-10	-1.429174e+01	-3.149644e+01
1.400000e-06	-2.011803e-06	-4.654622e-10	-1.398776e+01	-3.120572e+01
1.410000e-06	-1.968015e-06	-4.622296e-10	-1.368331e+01	-3.090774e+01
1.420000e-06	-1.924100e-06	-4.581886e-10	-1.337798e+01	-3.060256e+01
1.430000e-06	-1.880100e-06	-4.548147e-10	-1.307205e+01	-3.029023e+01
1.440000e-06	-1.836045e-06	-4.507831e-10	-1.276575e+01	-2.997079e+01
1.450000e-06	-1.791864e-06	-4.437830e-10	-1.245857e+01	-2.964425e+01
1.460000e-06	-1.747534e-06	-4.384455e-10	-1.215035e+01	-2.931063e+01
1.470000e-06	-1.703043e-06	-4.336391e-10	-1.184100e+01	-2.896991e+01
1.480000e-06	-1.658421e-06	-4.282697e-10	-1.153076e+01	-2.862207e+01
1.490000e-06	-1.613743e-06	-4.227815e-10	-1.122011e+01	-2.826704e+01
1.500000e-06	-1.568920e-06	-4.188501e-10	-1.090847e+01	-2.790475e+01
1.510000e-06	-1.523890e-06	-4.136305e-10	-1.059538e+01	-2.753508e+01
1.520000e-06	-1.478772e-06	-4.071371e-10	-1.028168e+01	-2.715789e+01
1.530000e-06	-1.433572e-06	-3.988691e-10	-9.967411e+00	-2.677300e+01
1.540000e-06	-1.388258e-06	-3.897552e-10	-9.652350e+00	-2.638023e+01
1.550000e-06	-1.342774e-06	-3.814440e-10	-9.336107e+00	-2.597933e+01
1.560000e-06	-1.297160e-06	-3.725081e-10	-9.018964e+00	-2.557003e+01
1.570000e-06	-1.251526e-06	-3.642974e-10	-8.701672e+00	-2.515204e+01
1.580000e-06	-1.205783e-06	-3.593561e-10	-8.383629e+00	-2.472503e+01
1.590000e-06	-1.159935e-06	-3.548217e-10	-8.064857e+00	-2.428865e+01
1.600000e-06	-1.114043e-06	-3.481266e-10	-7.745774e+00	-2.384250e+01
1.610000e-06	-1.068056e-06	-3.397432e-10	-7.426037e+00	-2.338619e+01
1.620000e-06	-1.021974e-06	-3.308471e-10	-7.105632e+00	-2.291928e+01
1.630000e-06	-9.758144e-07	-3.221206e-10	-6.784693e+00	-2.244132e+01
1.640000e-06	-9.295337e-07	-3.095130e-10	-6.462910e+00	-2.195186e+01
1.650000e-06	-8.832372e-07	-2.990002e-10	-6.141017e+00	-2.145042e+01
1.660000e-06	-8.369274e-07	-2.897008e-10	-5.819032e+00	-2.093652e+01
1.670000e-06	-7.905368e-07	-2.814897e-10	-5.496485e+00	-2.040969e+01
1.680000e-06	-7.441406e-07	-2.741944e-10	-5.173899e+00	-1.986944e+01
1.690000e-06	-6.977335e-07	-2.703109e-10	-4.851237e+00	-1.931531e+01
1.700000e-06	-6.512976e-07	-2.652262e-10	-4.528375e+00	-1.874685e+01
1.710000e-06	-6.048444e-07	-2.555477e-10	-4.205393e+00	-1.816362e+01
1.720000e-06	-5.583859e-07	-2.434867e-10	-3.882374e+00	-1.756520e+01
1.730000e-06	-5.118721e-07	-2.315124e-10	-3.558971e+00	-1.695123e+01
1.740000e-06	-4.652188e-07	-2.194383e-10	-3.234598e+00	-1.632135e+01
1.750000e-06	-4.185253e-07	-2.079409e-10	-2.909944e+00	-1.567527e+01
1.760000e-06	-3.718545e-07	-1.960073e-10	-2.585449e+00	-1.501273e+01
1.770000e-06	-3.251350e-07	-1.874790e-10	-2.260615e+00	-1.433351e+01
1.780000e-06	-2.783743e-07	-1.812788e-10	-1.935496e+00	-1.363748e+01
1.790000e-06	-2.315511e-07	-1.725741e-10	-1.609940e+00	-1.292454e+01
1.800000e-06	-1.846806e-07	-1.590599e-10	-1.284057e+00	-1.219466e+01
1.810000e-06	-1.378017e-07	-1.432655e-10	-9.581150e-01	-1.144789e+01
1.820000e-06	-9.093423e-08	-1.281579e-10	-6.322522e-01	-1.068434e+01
1.830000e-06	-4.409068e-08	-1.153281e-10	-3.065559e-01	-9.904195e+00
1.840000e-06	2.699354e-09	-1.049319e-10	1.876821e-02	-9.107715e+00
1.850000e-06	4.945900e-08	-9.649409e-11	3.438811e-01	-8.295237e+00
1.860000e-06	9.625048e-08	-8.645070e-11	6.692153e-01	-7.467179e+00
1.870000e-06	1.430529e-07	-7.403218e-11	9.946257e-01	-6.624032e+00
1.880000e-06	1.898215e-07	-6.154387e-11	1.319801e+00	-5.766369e+00
1.890000e-06	2.365714e-07	-4.765097e-11	1.644846e+00	-4.894836e+00
1.900000e-06	2.833819e-07	-3.342111e-11	1.970313e+00	-4.010156e+00
1.910000e-06	3.302164e-07	-2.024133e-11	2.295946e+00	-3.113126e+00
1.920000e-06	3.769461e-07	-9.988977e-12	2.620850e+00	-2.204611e+00
1.930000e-06	4.235947e-07	-2.347450e-13	2.945191e+00	-1.285545e+00
1.940000e-06	4.702337e-07	7.665015e-12	3.269465e+00	-3.569223e-01
1.950000e-06	5.168481e-07	1.745704e-11	3.593568e+00	5.802028e-01
1.960000e-06	5.633802e-07	3.081901e-11	3.917099e+00	1.524723e+00
1.970000e-06	6.098221e-07	4.496338e-11	4.240002e+00	2.475485e+00
1.980000e-06	6.562517e-07	5.849919e-11	4.562820e+00	3.431290e+00
1.990000e-06	7.026301e-07	7.394854e-11	4.885282e+00	4.390907e+00
2.000000e-06	7.489195e-07	8.969250e-11	5.207126e+00	5.353075e+00
2.010000e-06	7.951325e-07	1.030145e-10	5.528438e+00	6.316510e+00
2.020000e-06	8.413223e-07	1.137930e-10	5.849589e+00	7.279915e+00
2.030000e-06	8.875043e-07	1.250954e-10	6.170686e+00	8.241984e+00
2.040000e-06	9.337022e-07	1.364873e-10	6.491893e+00	9.201409e+00
2.050000e-06	9.798428e-07	1.485159e-10	6.812702e+00	1.015689e+01
2.060000e-06	1.025839e-06	1.623119e-10	7.132504e+00	1.110715e+01
2.070000e-06	1.071764e-06	1.776960e-10	7.451817e+00	1.205092e+01
2.080000e-06	1.117644e-06	1.915484e-10	7.770813e+00	1.298696e+01
2.090000e-06	1.163430e-06	2.026531e-10	8.089156e+00	1.391408e+01
2.100000e-06	1.209076e-06	2.130794e-10	8.406526e+00	1.483111e+01
2.110000e-06	1.254591e-06	2.238318e-10	8.722984e+00	1.573695e+01
2.120000e-06	1.300059e-06	2.356752e-10	9.039118e+00	1.663055e+01
2.130000e-06	1.345577e-06	2.477075e-10	9.355595e+00	1.751091e+01
2.140000e-06	1.391014e-06	2.591827e-10	9.671514e+00	1.837709e+01
2.150000e-06	1.436274e-06	2.709882e-10	9.986197e+00	1.922824e+01
2.160000e-06	1.481338e-06	2.843921e-10	1.029952e+01	2.006356e+01
2.170000e-06	1.526258e-06	2.983289e-10	1.061184e+01	2.088234e+01
2.180000e-06	1.571091e-06	3.110673e-10	1.092356e+01	2.168395e+01
2.190000e-06	1.615763e-06	3.218893e-10	1.123416e+01	2.246782e+01
2.200000e-06	1.660362e-06	3.314384e-10	1.154425e+01	2.323349e+01
2.210000e-06	1.704902e-06	3.412404e-10	1.185393e+01	2.398057e+01
2.220000e-06	1.749294e-06	3.517419e-10	1.216258e+01	2.470875e+01
2.230000e-06	1.793584e-06	3.615367e-10	1.247052e+01	2.541780e+01
2.240000e-06	1.837708e-06	3.717986e-10	1.277731e+01	2.610757e+01
2.250000e-06	1.881665e-06	3.812777e-10	1.308294e+01	2.677802e+01
2.260000e-06	1.925596e-06	3.915087e-10	1.338838e+01	2.742913e+01
2.270000e-06	1.969496e-06	4.016677e-10	1.369361e+01	2.806101e+01
2.280000e-06	2.013291e-06	4.115870e-10	1.399811e+01	2.867381e+01
2.290000e-06	2.057007e-06	4.199710e-10	1.430206e+01	2.926775e+01
2.300000e-06	2.100672e-06	4.267894e-10	1.460566e+01	2.984311e+01
2.310000e-06	2.144274e-06	4.349639e-10	1.490882e+01	3.040025e+01
2.320000e-06	2.187809e-06	4.428755e-10	1.521151e+01	3.093956e+01
2.330000e-06	2.231233e-06	4.493246e-10	1.551343e+01	3.146148e+01
2.340000e-06	2.274507e-06	4.565872e-10	1.581431e+01	3.196649e+01
2.350000e-06	2.317514e-06	4.638214e-10	1.611333e+01	3.245513e+01
2.360000e-06	2.360194e-06	4.698388e-10	1.641008e+01	3.292793e+01
2.370000e-06	2.402688e-06	4.754650e-10	1.670554e+01	3.338549e+01
2.380000e-06	2.444914e-06	4.819233e-10	1.699913e+01	3.382838e+01
2.390000e-06	2.486876e-06	4.888021e-10	1.729088e+01	3.425723e+01
2.400000e-06	2.528684e-06	4.957216e-10	1.758156e+01	3.467263e+01
2.410000e-06	2.570158e-06	5.030611e-10	1.786993e+01	3.507522e+01
2.420000e-06	2.611256e-06	5.098850e-10	1.815568e+01	3.546559e+01
2.430000e-06	2.652073e-06	5.165104e-10	1.843947e+01	3.584435e+01
2.440000e-06	2.692613e-06	5.233220e-10	1.872134e+01	3.621209e+01
2.450000e-06	2.732917e-06	5.307974e-10	1.900157e+01	3.656937e+01
2.460000e-06	2.773055e-06	5.364449e-10	1.928064e+01	3.691674e+01
2.470000e-06	2.812992e-06	5.402318e-10	1.955831e+01	3.725471e+01
2.480000e-06	2.852745e-06	5.450040e-10	1.983472e+01	3.758378e+01
2.490000e-06	2.892403e-06	5.513360e-10	2.011045e+01	3.790440e+01
2.500000e-06	2.931970e-06	5.581230e-10	2.038555e+01	3.821699e+01
2.510000e-06	2.971340e-06	5.641548e-10	2.065929e+01	3.852194e+01
2.520000e-06	3.010538e-06	5.691640e-10	2.093182e+01	3.881958e+01
2.530000e-06	3.049587e-06	5.736305e-10	2.120332e+01	3.911022e+01
2.540000e-06	3.088398e-06	5.770743e-10	2.147317e+01	3.939413e+01
2.550000e-06	3.127007e-06	5.795819e-10	2.174162e+01	3.967154e+01
2.560000e-06	3.165349e-06	5.827650e-10	2.200820e+01	3.994262e+01
2.570000e-06	3.203436e-06	5.874438e-10	2.227301e+01	4.020753e+01
2.580000e-06	3.241294e-06	5.916725e-10	2.253623e+01	4.046638e+01
2.590000e-06	3.278967e-06	5.953314e-10	2.279817e+01	4.071924e+01
2.600000e-06	3.316498e-06	5.996299e-10	2.305912e+01	4.096616e+01
2.610000e-06	3.353766e-06	6.043442e-10	2.331824e+01	4.120715e+01
2.620000e-06	3.390713e-06	6.079912e-10	2.357512e+01	4.144218e+01
2.630000e-06	3.427360e-06	6.101055e-10	2.382992e+01	4.167123e+01
2.640000e-06	3.463831e-06	6.116633e-10	2.408350e+01	4.189422e+01
2.650000e-06	3.500129e-06	6.143956e-10	2.433588e+01	4.211107e+01
2.660000e-06	3.536184e-06	6.182314e-10	2.458656e+01	4.232169e+01
2.670000e-06	3.572066e-06	6.210438e-10	2.483604e+01	4.252597e+01
2.680000e-06	3.607869e-06	6.225433e-10	2.508498e+01	4.272378e+01
2.690000e-06	3.643563e-06	6.245471e-10	2.533316e+01	4.291502e+01
2.700000e-06	3.679096e-06	6.269836e-10	2.558021e+01	4.309954e+01
2.710000e-06	3.714370e-06	6.286496e-10	2.582546e+01	4.327725e+01
2.720000e-06	3.749374e-06	6.317203e-10	2.606884e+01	4.344801e+01
2.730000e-06	3.784066e-06	6.351600e-10	2.631005e+01	4.361173e+01
2.740000e-06	3.818316e-06	6.376439e-10	2.654819e+01	4.376831e+01
2.750000e-06	3.852149e-06	6.406402e-10	2.678342e+01	4.391766e+01
2.760000e-06	3.885480e-06	6.436931e-10	2.701516e+01	4.405974e+01
2.770000e-06	3.918346e-06	6.459452e-10	2.724368e+01	4.419449e+01
2.780000e-06	3.950875e-06	6.482758e-10	2.746985e+01	4.432188e+01
2.790000e-06	3.983074e-06	6.511891e-10	2.769372e+01	4.444193e+01
2.800000e-06	4.014970e-06	6.542206e-10	2.791549e+01	4.455464e+01
2.810000e-06	4.046664e-06	6.573570e-10	2.813586e+01	4.466008e+01
2.820000e-06	4.078216e-06	6.598922e-10	2.835523e+01	4.475830e+01
2.830000e-06	4.109630e-06	6.597793e-10	2.857364e+01	4.484940e+01
2.840000e-06	4.140821e-06	6.583803e-10	2.879051e+01	4.493352e+01
2.850000e-06	4.171693e-06	6.602624e-10	2.900516e+01	4.501079e+01
2.860000e-06	4.202309e-06	6.643786e-10	2.921803e+01	4.508138e+01
2.870000e-06	4.232593e-06	6.664327e-10	2.942859e+01	4.514549e+01
2.880000e-06	4.262523e-06	6.688736e-10	2.963669e+01	4.520334e+01
2.890000e-06	4.292181e-06	6.719209e-10	2.984290e+01	4.525516e+01
2.900000e-06	4.321573e-06	6.739172e-10	3.004726e+01	4.530119e+01
