# Temperatura_=_-2.02
# Concentracion g/m^3_=_1620.0
# C_Vs_to_Am_M_A/Vsm_=_65563218390.804596
# pendiente_HvsI_1/m_=_3716.3
# ordenada_HvsI_A/m_=_1297.0
# frecuencia_Hz_=_135093.74074289206

Tiempo_(s)	Campo_(V.s)	Magnetizacion_(V.s)	Campo_(kA/m)	Magnetizacion_(A/m)
0.000000e+00	-5.535539e-06	-1.040186e-09	-3.837520e+01	-7.023297e+01
1.000000e-08	-5.535653e-06	-1.038096e-09	-3.837599e+01	-7.019669e+01
2.000000e-08	-5.535570e-06	-1.037580e-09	-3.837542e+01	-7.015988e+01
3.000000e-08	-5.535151e-06	-1.037533e-09	-3.837251e+01	-7.012239e+01
4.000000e-08	-5.534193e-06	-1.035184e-09	-3.836587e+01	-7.008404e+01
5.000000e-08	-5.532713e-06	-1.029029e-09	-3.835561e+01	-7.004465e+01
6.000000e-08	-5.530762e-06	-1.014766e-09	-3.834208e+01	-7.000401e+01
7.000000e-08	-5.528180e-06	-9.973754e-10	-3.832418e+01	-6.996192e+01
8.000000e-08	-5.524950e-06	-1.026713e-09	-3.830179e+01	-6.991819e+01
9.000000e-08	-5.521279e-06	-1.096967e-09	-3.827634e+01	-6.987259e+01
1.000000e-07	-5.517232e-06	-1.081890e-09	-3.824828e+01	-6.982494e+01
1.100000e-07	-5.512949e-06	-9.853566e-10	-3.821859e+01	-6.977502e+01
1.200000e-07	-5.508429e-06	-9.793747e-10	-3.818726e+01	-6.972264e+01
1.300000e-07	-5.503566e-06	-1.008498e-09	-3.815355e+01	-6.966761e+01
1.400000e-07	-5.498291e-06	-1.067137e-09	-3.811698e+01	-6.960975e+01
1.500000e-07	-5.492596e-06	-9.699679e-10	-3.807749e+01	-6.954889e+01
1.600000e-07	-5.486579e-06	-9.730101e-10	-3.803578e+01	-6.948489e+01
1.700000e-07	-5.480198e-06	-1.036559e-09	-3.799155e+01	-6.941759e+01
1.800000e-07	-5.473315e-06	-1.084114e-09	-3.794383e+01	-6.934689e+01
1.900000e-07	-5.466042e-06	-1.053988e-09	-3.789341e+01	-6.927267e+01
2.000000e-07	-5.458498e-06	-9.996189e-10	-3.784111e+01	-6.919486e+01
2.100000e-07	-5.450722e-06	-1.044476e-09	-3.778720e+01	-6.911339e+01
2.200000e-07	-5.442740e-06	-1.066189e-09	-3.773187e+01	-6.902821e+01
2.300000e-07	-5.434481e-06	-1.083989e-09	-3.767461e+01	-6.893931e+01
2.400000e-07	-5.425736e-06	-1.053195e-09	-3.761399e+01	-6.884669e+01
2.500000e-07	-5.416229e-06	-1.092856e-09	-3.754808e+01	-6.875035e+01
2.600000e-07	-5.405923e-06	-1.085633e-09	-3.747664e+01	-6.865034e+01
2.700000e-07	-5.395139e-06	-1.081646e-09	-3.740187e+01	-6.854671e+01
2.800000e-07	-5.384004e-06	-1.032412e-09	-3.732468e+01	-6.843954e+01
2.900000e-07	-5.372419e-06	-1.068384e-09	-3.724437e+01	-6.832892e+01
3.000000e-07	-5.360465e-06	-1.076468e-09	-3.716150e+01	-6.821496e+01
3.100000e-07	-5.348147e-06	-1.066811e-09	-3.707610e+01	-6.809777e+01
3.200000e-07	-5.335335e-06	-1.030059e-09	-3.698728e+01	-6.797750e+01
3.300000e-07	-5.322123e-06	-1.069438e-09	-3.689569e+01	-6.785427e+01
3.400000e-07	-5.308609e-06	-1.073559e-09	-3.680201e+01	-6.772825e+01
3.500000e-07	-5.294651e-06	-1.035529e-09	-3.670524e+01	-6.759959e+01
3.600000e-07	-5.280176e-06	-1.026096e-09	-3.660489e+01	-6.746844e+01
3.700000e-07	-5.265313e-06	-1.067181e-09	-3.650185e+01	-6.733498e+01
3.800000e-07	-5.249937e-06	-1.044722e-09	-3.639526e+01	-6.719935e+01
3.900000e-07	-5.233837e-06	-1.023927e-09	-3.628365e+01	-6.706173e+01
4.000000e-07	-5.217224e-06	-1.070719e-09	-3.616848e+01	-6.692226e+01
4.100000e-07	-5.200353e-06	-1.060681e-09	-3.605152e+01	-6.678109e+01
4.200000e-07	-5.183253e-06	-9.955437e-10	-3.593297e+01	-6.663835e+01
4.300000e-07	-5.165874e-06	-1.015059e-09	-3.581249e+01	-6.649419e+01
4.400000e-07	-5.148210e-06	-1.076585e-09	-3.569003e+01	-6.634870e+01
4.500000e-07	-5.130127e-06	-1.010532e-09	-3.556468e+01	-6.620200e+01
4.600000e-07	-5.111624e-06	-9.954100e-10	-3.543640e+01	-6.605416e+01
4.700000e-07	-5.092743e-06	-1.046309e-09	-3.530551e+01	-6.590527e+01
4.800000e-07	-5.073509e-06	-1.032832e-09	-3.517217e+01	-6.575538e+01
4.900000e-07	-5.053989e-06	-9.742151e-10	-3.503685e+01	-6.560453e+01
5.000000e-07	-5.034239e-06	-1.037486e-09	-3.489993e+01	-6.545273e+01
5.100000e-07	-5.014300e-06	-1.030426e-09	-3.476170e+01	-6.529999e+01
5.200000e-07	-4.994047e-06	-9.661888e-10	-3.462130e+01	-6.514631e+01
5.300000e-07	-4.973401e-06	-9.853808e-10	-3.447817e+01	-6.499164e+01
5.400000e-07	-4.952362e-06	-1.044518e-09	-3.433232e+01	-6.483595e+01
5.500000e-07	-4.930946e-06	-9.811610e-10	-3.418385e+01	-6.467916e+01
5.600000e-07	-4.909271e-06	-9.722089e-10	-3.403358e+01	-6.452122e+01
5.700000e-07	-4.887295e-06	-1.012769e-09	-3.388124e+01	-6.436203e+01
5.800000e-07	-4.864910e-06	-9.919627e-10	-3.372605e+01	-6.420148e+01
5.900000e-07	-4.842180e-06	-9.574378e-10	-3.356848e+01	-6.403948e+01
6.000000e-07	-4.819158e-06	-9.982899e-10	-3.340888e+01	-6.387590e+01
6.100000e-07	-4.795760e-06	-9.860997e-10	-3.324667e+01	-6.371063e+01
6.200000e-07	-4.772106e-06	-9.544117e-10	-3.308269e+01	-6.354353e+01
6.300000e-07	-4.748320e-06	-9.696247e-10	-3.291779e+01	-6.337448e+01
6.400000e-07	-4.724305e-06	-9.730932e-10	-3.275130e+01	-6.320334e+01
6.500000e-07	-4.699902e-06	-9.464660e-10	-3.258213e+01	-6.302999e+01
6.600000e-07	-4.675142e-06	-9.638486e-10	-3.241048e+01	-6.285431e+01
6.700000e-07	-4.649958e-06	-9.740916e-10	-3.223589e+01	-6.267617e+01
6.800000e-07	-4.624132e-06	-9.498323e-10	-3.205686e+01	-6.249546e+01
6.900000e-07	-4.597679e-06	-9.544765e-10	-3.187347e+01	-6.231208e+01
7.000000e-07	-4.570711e-06	-9.619325e-10	-3.168652e+01	-6.212595e+01
7.100000e-07	-4.543342e-06	-9.430969e-10	-3.149678e+01	-6.193697e+01
7.200000e-07	-4.515725e-06	-9.362636e-10	-3.130533e+01	-6.174508e+01
7.300000e-07	-4.487966e-06	-9.508853e-10	-3.111288e+01	-6.155023e+01
7.400000e-07	-4.460030e-06	-9.386025e-10	-3.091921e+01	-6.135237e+01
7.500000e-07	-4.431846e-06	-9.400479e-10	-3.072383e+01	-6.115149e+01
7.600000e-07	-4.403421e-06	-9.472594e-10	-3.052677e+01	-6.094757e+01
7.700000e-07	-4.374700e-06	-9.396822e-10	-3.032766e+01	-6.074062e+01
7.800000e-07	-4.345579e-06	-9.236615e-10	-3.012578e+01	-6.053067e+01
7.900000e-07	-4.316146e-06	-9.354056e-10	-2.992174e+01	-6.031774e+01
8.000000e-07	-4.286495e-06	-9.285800e-10	-2.971618e+01	-6.010189e+01
8.100000e-07	-4.256623e-06	-9.152055e-10	-2.950910e+01	-5.988318e+01
8.200000e-07	-4.226447e-06	-9.126406e-10	-2.929990e+01	-5.966168e+01
8.300000e-07	-4.195952e-06	-9.213588e-10	-2.908850e+01	-5.943748e+01
8.400000e-07	-4.165163e-06	-9.057861e-10	-2.887505e+01	-5.921068e+01
8.500000e-07	-4.134048e-06	-9.030484e-10	-2.865934e+01	-5.898136e+01
8.600000e-07	-4.102662e-06	-9.061490e-10	-2.844176e+01	-5.874963e+01
8.700000e-07	-4.071087e-06	-9.012511e-10	-2.822286e+01	-5.851560e+01
8.800000e-07	-4.039335e-06	-8.914214e-10	-2.800274e+01	-5.827937e+01
8.900000e-07	-4.007435e-06	-8.999086e-10	-2.778160e+01	-5.804105e+01
9.000000e-07	-3.975291e-06	-8.948818e-10	-2.755875e+01	-5.780073e+01
9.100000e-07	-3.942819e-06	-8.810411e-10	-2.733364e+01	-5.755851e+01
9.200000e-07	-3.909986e-06	-8.763751e-10	-2.710603e+01	-5.731447e+01
9.300000e-07	-3.876837e-06	-8.795467e-10	-2.687623e+01	-5.706868e+01
9.400000e-07	-3.843233e-06	-8.710398e-10	-2.664326e+01	-5.682120e+01
9.500000e-07	-3.808995e-06	-8.677742e-10	-2.640591e+01	-5.657207e+01
9.600000e-07	-3.774323e-06	-8.707652e-10	-2.616554e+01	-5.632132e+01
9.700000e-07	-3.739331e-06	-8.616214e-10	-2.592296e+01	-5.606894e+01
9.800000e-07	-3.704078e-06	-8.517120e-10	-2.567857e+01	-5.581492e+01
9.900000e-07	-3.668645e-06	-8.494510e-10	-2.543293e+01	-5.555922e+01
1.000000e-06	-3.633016e-06	-8.453920e-10	-2.518593e+01	-5.530178e+01
1.010000e-06	-3.597221e-06	-8.337991e-10	-2.493778e+01	-5.504251e+01
1.020000e-06	-3.561291e-06	-8.334241e-10	-2.468870e+01	-5.478129e+01
1.030000e-06	-3.525185e-06	-8.337220e-10	-2.443839e+01	-5.451799e+01
1.040000e-06	-3.488896e-06	-8.266592e-10	-2.418682e+01	-5.425244e+01
1.050000e-06	-3.452276e-06	-8.166652e-10	-2.393295e+01	-5.398445e+01
1.060000e-06	-3.415396e-06	-8.113411e-10	-2.367728e+01	-5.371381e+01
1.070000e-06	-3.378250e-06	-8.002714e-10	-2.341976e+01	-5.344027e+01
1.080000e-06	-3.340847e-06	-7.969170e-10	-2.316047e+01	-5.316359e+01
1.090000e-06	-3.303291e-06	-7.965698e-10	-2.290011e+01	-5.288346e+01
1.100000e-06	-3.265401e-06	-7.959617e-10	-2.263744e+01	-5.259961e+01
1.110000e-06	-3.227237e-06	-7.848747e-10	-2.237286e+01	-5.231170e+01
1.120000e-06	-3.188954e-06	-7.753857e-10	-2.210747e+01	-5.201941e+01
1.130000e-06	-3.150372e-06	-7.648016e-10	-2.184000e+01	-5.172239e+01
1.140000e-06	-3.111546e-06	-7.563742e-10	-2.157083e+01	-5.142029e+01
1.150000e-06	-3.072618e-06	-7.478177e-10	-2.130097e+01	-5.111274e+01
1.160000e-06	-3.033496e-06	-7.453542e-10	-2.102975e+01	-5.079938e+01
1.170000e-06	-2.994220e-06	-7.425089e-10	-2.075747e+01	-5.047984e+01
1.180000e-06	-2.954755e-06	-7.418449e-10	-2.048388e+01	-5.015375e+01
1.190000e-06	-2.915116e-06	-7.395283e-10	-2.020908e+01	-4.982077e+01
1.200000e-06	-2.875353e-06	-7.341967e-10	-1.993342e+01	-4.948053e+01
1.210000e-06	-2.835421e-06	-7.236818e-10	-1.965659e+01	-4.913270e+01
1.220000e-06	-2.795328e-06	-7.142464e-10	-1.937865e+01	-4.877694e+01
1.230000e-06	-2.755064e-06	-7.065708e-10	-1.909952e+01	-4.841296e+01
1.240000e-06	-2.714571e-06	-6.992303e-10	-1.881880e+01	-4.804046e+01
1.250000e-06	-2.673874e-06	-6.947989e-10	-1.853666e+01	-4.765918e+01
1.260000e-06	-2.633076e-06	-6.926733e-10	-1.825383e+01	-4.726886e+01
1.270000e-06	-2.591965e-06	-6.908695e-10	-1.796883e+01	-4.686929e+01
1.280000e-06	-2.550452e-06	-6.873117e-10	-1.768105e+01	-4.646029e+01
1.290000e-06	-2.508776e-06	-6.805517e-10	-1.739212e+01	-4.604167e+01
1.300000e-06	-2.466855e-06	-6.705645e-10	-1.710151e+01	-4.561332e+01
1.310000e-06	-2.424596e-06	-6.593712e-10	-1.680855e+01	-4.517513e+01
1.320000e-06	-2.381999e-06	-6.469347e-10	-1.651324e+01	-4.472703e+01
1.330000e-06	-2.339154e-06	-6.389251e-10	-1.621621e+01	-4.426897e+01
1.340000e-06	-2.296193e-06	-6.368178e-10	-1.591839e+01	-4.380094e+01
1.350000e-06	-2.252975e-06	-6.360557e-10	-1.561878e+01	-4.332294e+01
1.360000e-06	-2.209507e-06	-6.292020e-10	-1.531744e+01	-4.283504e+01
1.370000e-06	-2.165956e-06	-6.207626e-10	-1.501552e+01	-4.233729e+01
1.380000e-06	-2.122298e-06	-6.098774e-10	-1.471286e+01	-4.182978e+01
1.390000e-06	-2.078567e-06	-5.991151e-10	-1.440969e+01	-4.131262e+01
1.400000e-06	-2.034767e-06	-5.866293e-10	-1.410605e+01	-4.078596e+01
1.410000e-06	-1.990876e-06	-5.774158e-10	-1.380177e+01	-4.024993e+01
1.420000e-06	-1.946868e-06	-5.688715e-10	-1.349669e+01	-3.970470e+01
1.430000e-06	-1.902757e-06	-5.618511e-10	-1.319089e+01	-3.915043e+01
1.440000e-06	-1.858533e-06	-5.552783e-10	-1.288430e+01	-3.858730e+01
1.450000e-06	-1.814225e-06	-5.483275e-10	-1.257714e+01	-3.801550e+01
1.460000e-06	-1.769871e-06	-5.366220e-10	-1.226965e+01	-3.743520e+01
1.470000e-06	-1.725327e-06	-5.247571e-10	-1.196085e+01	-3.684658e+01
1.480000e-06	-1.680630e-06	-5.135873e-10	-1.165099e+01	-3.624980e+01
1.490000e-06	-1.635777e-06	-5.028910e-10	-1.134005e+01	-3.564502e+01
1.500000e-06	-1.590796e-06	-4.923341e-10	-1.102822e+01	-3.503238e+01
1.510000e-06	-1.545716e-06	-4.839272e-10	-1.071569e+01	-3.441200e+01
1.520000e-06	-1.500471e-06	-4.722257e-10	-1.040204e+01	-3.378399e+01
1.530000e-06	-1.455079e-06	-4.579290e-10	-1.008735e+01	-3.314842e+01
1.540000e-06	-1.409604e-06	-4.462508e-10	-9.772095e+00	-3.250535e+01
1.550000e-06	-1.364170e-06	-4.366692e-10	-9.457129e+00	-3.185479e+01
1.560000e-06	-1.318639e-06	-4.263132e-10	-9.141483e+00	-3.119675e+01
1.570000e-06	-1.272994e-06	-4.172920e-10	-8.825051e+00	-3.053118e+01
1.580000e-06	-1.227308e-06	-4.094630e-10	-8.508330e+00	-2.985801e+01
1.590000e-06	-1.181504e-06	-4.000755e-10	-8.190795e+00	-2.917713e+01
1.600000e-06	-1.135590e-06	-3.891105e-10	-7.872493e+00	-2.848842e+01
1.610000e-06	-1.089629e-06	-3.780054e-10	-7.553869e+00	-2.779168e+01
1.620000e-06	-1.043549e-06	-3.689297e-10	-7.234418e+00	-2.708673e+01
1.630000e-06	-9.972706e-07	-3.592359e-10	-6.913592e+00	-2.637332e+01
1.640000e-06	-9.509167e-07	-3.474872e-10	-6.592243e+00	-2.565119e+01
1.650000e-06	-9.045057e-07	-3.334532e-10	-6.270498e+00	-2.492005e+01
1.660000e-06	-8.580258e-07	-3.199273e-10	-5.948276e+00	-2.417957e+01
1.670000e-06	-8.114753e-07	-3.072734e-10	-5.625563e+00	-2.342942e+01
1.680000e-06	-7.648674e-07	-2.989041e-10	-5.302453e+00	-2.266925e+01
1.690000e-06	-7.181609e-07	-2.901805e-10	-4.978660e+00	-2.189867e+01
1.700000e-06	-6.715440e-07	-2.813334e-10	-4.655488e+00	-2.111731e+01
1.710000e-06	-6.249491e-07	-2.700146e-10	-4.332468e+00	-2.032478e+01
1.720000e-06	-5.782667e-07	-2.561940e-10	-4.008841e+00	-1.952069e+01
1.730000e-06	-5.316059e-07	-2.402919e-10	-3.685365e+00	-1.870466e+01
1.740000e-06	-4.848470e-07	-2.247890e-10	-3.361209e+00	-1.787630e+01
1.750000e-06	-4.379855e-07	-2.101513e-10	-3.036340e+00	-1.703527e+01
1.760000e-06	-3.910142e-07	-1.971125e-10	-2.710711e+00	-1.618121e+01
1.770000e-06	-3.439639e-07	-1.853093e-10	-2.384534e+00	-1.531381e+01
1.780000e-06	-2.969143e-07	-1.754822e-10	-2.058363e+00	-1.443279e+01
1.790000e-06	-2.499368e-07	-1.655542e-10	-1.732691e+00	-1.353789e+01
1.800000e-06	-2.029838e-07	-1.526655e-10	-1.407188e+00	-1.262890e+01
1.810000e-06	-1.559587e-07	-1.369584e-10	-1.081186e+00	-1.170566e+01
1.820000e-06	-1.090317e-07	-1.191748e-10	-7.558637e-01	-1.076806e+01
1.830000e-06	-6.225868e-08	-1.013901e-10	-4.316091e-01	-9.816018e+00
1.840000e-06	-1.533937e-08	-8.488923e-11	-1.063404e-01	-8.849546e+00
1.850000e-06	3.174498e-08	-7.161361e-11	2.200725e-01	-7.868697e+00
1.860000e-06	7.877879e-08	-6.267314e-11	5.461350e-01	-6.873591e+00
1.870000e-06	1.256931e-07	-5.250537e-11	8.713690e-01	-5.864416e+00
1.880000e-06	1.725658e-07	-3.825214e-11	1.196314e+00	-4.841428e+00
1.890000e-06	2.194976e-07	-2.096219e-11	1.521670e+00	-3.804953e+00
1.900000e-06	2.663875e-07	-2.304624e-12	1.846735e+00	-2.755387e+00
1.910000e-06	3.132171e-07	1.467336e-11	2.171382e+00	-1.693197e+00
1.920000e-06	3.600823e-07	3.123739e-11	2.496276e+00	-6.189205e-01
1.930000e-06	4.069008e-07	4.520002e-11	2.820845e+00	4.668354e-01
1.940000e-06	4.536676e-07	5.667295e-11	3.145057e+00	1.563396e+00
1.950000e-06	5.004851e-07	6.726841e-11	3.469619e+00	2.670020e+00
1.960000e-06	5.472116e-07	7.923811e-11	3.793552e+00	3.785905e+00
1.970000e-06	5.938158e-07	9.322195e-11	4.116636e+00	4.910187e+00
1.980000e-06	6.403675e-07	1.107712e-10	4.439356e+00	6.041947e+00
1.990000e-06	6.868919e-07	1.304967e-10	4.761887e+00	7.180215e+00
2.000000e-06	7.334332e-07	1.492599e-10	5.084535e+00	8.323975e+00
2.010000e-06	7.798485e-07	1.642423e-10	5.406310e+00	9.472167e+00
2.020000e-06	8.262244e-07	1.764179e-10	5.727812e+00	1.062370e+01
2.030000e-06	8.725770e-07	1.892757e-10	6.049152e+00	1.177744e+01
2.040000e-06	9.188256e-07	2.040631e-10	6.369771e+00	1.293226e+01
2.050000e-06	9.649907e-07	2.172949e-10	6.689811e+00	1.408697e+01
2.060000e-06	1.011083e-06	2.318397e-10	7.009344e+00	1.524042e+01
2.070000e-06	1.057155e-06	2.494700e-10	7.328742e+00	1.639142e+01
2.080000e-06	1.103149e-06	2.669177e-10	7.647596e+00	1.753879e+01
2.090000e-06	1.149100e-06	2.836269e-10	7.966149e+00	1.868136e+01
2.100000e-06	1.195016e-06	2.991417e-10	8.284464e+00	1.981800e+01
2.110000e-06	1.240792e-06	3.141829e-10	8.601810e+00	2.094757e+01
2.120000e-06	1.286360e-06	3.295731e-10	8.917709e+00	2.206898e+01
2.130000e-06	1.331861e-06	3.434141e-10	9.233142e+00	2.318116e+01
2.140000e-06	1.377375e-06	3.576020e-10	9.548672e+00	2.428309e+01
2.150000e-06	1.422707e-06	3.701544e-10	9.862937e+00	2.537381e+01
2.160000e-06	1.467929e-06	3.820455e-10	1.017644e+01	2.645238e+01
2.170000e-06	1.513109e-06	3.965360e-10	1.048965e+01	2.751793e+01
2.180000e-06	1.558187e-06	4.125494e-10	1.080215e+01	2.856968e+01
2.190000e-06	1.603161e-06	4.287676e-10	1.111394e+01	2.960686e+01
2.200000e-06	1.647959e-06	4.436160e-10	1.142450e+01	3.062880e+01
2.210000e-06	1.692612e-06	4.580383e-10	1.173406e+01	3.163490e+01
2.220000e-06	1.737155e-06	4.715313e-10	1.204285e+01	3.262462e+01
2.230000e-06	1.781593e-06	4.847999e-10	1.235092e+01	3.359750e+01
2.240000e-06	1.826005e-06	4.959169e-10	1.265880e+01	3.455314e+01
2.250000e-06	1.870333e-06	5.071910e-10	1.296611e+01	3.549122e+01
2.260000e-06	1.914492e-06	5.186345e-10	1.327224e+01	3.641149e+01
2.270000e-06	1.958535e-06	5.297667e-10	1.357757e+01	3.731379e+01
2.280000e-06	2.002492e-06	5.401123e-10	1.388230e+01	3.819800e+01
2.290000e-06	2.046387e-06	5.503699e-10	1.418660e+01	3.906409e+01
2.300000e-06	2.090261e-06	5.624721e-10	1.449076e+01	3.991207e+01
2.310000e-06	2.134030e-06	5.748441e-10	1.479419e+01	4.074203e+01
2.320000e-06	2.177719e-06	5.855639e-10	1.509707e+01	4.155411e+01
2.330000e-06	2.221280e-06	5.960508e-10	1.539906e+01	4.234852e+01
2.340000e-06	2.264627e-06	6.055022e-10	1.569956e+01	4.312549e+01
2.350000e-06	2.307965e-06	6.153078e-10	1.600000e+01	4.388531e+01
2.360000e-06	2.351170e-06	6.246096e-10	1.629952e+01	4.462832e+01
2.370000e-06	2.393940e-06	6.346440e-10	1.659602e+01	4.535487e+01
2.380000e-06	2.436372e-06	6.454071e-10	1.689018e+01	4.606535e+01
2.390000e-06	2.478501e-06	6.566606e-10	1.718224e+01	4.676019e+01
2.400000e-06	2.520290e-06	6.680570e-10	1.747194e+01	4.743981e+01
2.410000e-06	2.561782e-06	6.792530e-10	1.775959e+01	4.810466e+01
2.420000e-06	2.602934e-06	6.897109e-10	1.804487e+01	4.875520e+01
2.430000e-06	2.643917e-06	6.978729e-10	1.832899e+01	4.939188e+01
2.440000e-06	2.684758e-06	7.063892e-10	1.861212e+01	5.001516e+01
2.450000e-06	2.725288e-06	7.165008e-10	1.889310e+01	5.062549e+01
2.460000e-06	2.765579e-06	7.275205e-10	1.917241e+01	5.122331e+01
2.470000e-06	2.805709e-06	7.376075e-10	1.945062e+01	5.180903e+01
2.480000e-06	2.845739e-06	7.468957e-10	1.972812e+01	5.238308e+01
2.490000e-06	2.885679e-06	7.541254e-10	2.000501e+01	5.294582e+01
2.500000e-06	2.925434e-06	7.621133e-10	2.028061e+01	5.349761e+01
2.510000e-06	2.965035e-06	7.713094e-10	2.055514e+01	5.403880e+01
2.520000e-06	3.004462e-06	7.817544e-10	2.082847e+01	5.456967e+01
2.530000e-06	3.043631e-06	7.921094e-10	2.110001e+01	5.509050e+01
2.540000e-06	3.082617e-06	8.013710e-10	2.137028e+01	5.560153e+01
2.550000e-06	3.121414e-06	8.067435e-10	2.163924e+01	5.610296e+01
2.560000e-06	3.159963e-06	8.105138e-10	2.190648e+01	5.659498e+01
2.570000e-06	3.198278e-06	8.161648e-10	2.217211e+01	5.707772e+01
2.580000e-06	3.236378e-06	8.225308e-10	2.243623e+01	5.755129e+01
2.590000e-06	3.274292e-06	8.290188e-10	2.269907e+01	5.801577e+01
2.600000e-06	3.311972e-06	8.368373e-10	2.296029e+01	5.847121e+01
2.610000e-06	3.349435e-06	8.449980e-10	2.322000e+01	5.891765e+01
2.620000e-06	3.386705e-06	8.524075e-10	2.347838e+01	5.935507e+01
2.630000e-06	3.423702e-06	8.582736e-10	2.373486e+01	5.978346e+01
2.640000e-06	3.460378e-06	8.617483e-10	2.398911e+01	6.020277e+01
2.650000e-06	3.496831e-06	8.645981e-10	2.424183e+01	6.061294e+01
2.660000e-06	3.533157e-06	8.695001e-10	2.449366e+01	6.101390e+01
2.670000e-06	3.569293e-06	8.755568e-10	2.474417e+01	6.140558e+01
2.680000e-06	3.605211e-06	8.813685e-10	2.499317e+01	6.178787e+01
2.690000e-06	3.640989e-06	8.879817e-10	2.524121e+01	6.216069e+01
2.700000e-06	3.676642e-06	8.956002e-10	2.548837e+01	6.252394e+01
2.710000e-06	3.712081e-06	9.029565e-10	2.573405e+01	6.287753e+01
2.720000e-06	3.747252e-06	9.097045e-10	2.597787e+01	6.322139e+01
2.730000e-06	3.782067e-06	9.168446e-10	2.621923e+01	6.355542e+01
2.740000e-06	3.816581e-06	9.233617e-10	2.645850e+01	6.387958e+01
2.750000e-06	3.850619e-06	9.288985e-10	2.669447e+01	6.419381e+01
2.760000e-06	3.883991e-06	9.320768e-10	2.692582e+01	6.449808e+01
2.770000e-06	3.917001e-06	9.338664e-10	2.715466e+01	6.479239e+01
2.780000e-06	3.949663e-06	9.369191e-10	2.738109e+01	6.507673e+01
2.790000e-06	3.982043e-06	9.432016e-10	2.760557e+01	6.535116e+01
2.800000e-06	4.014263e-06	9.508446e-10	2.782893e+01	6.561571e+01
2.810000e-06	4.046172e-06	9.580542e-10	2.805014e+01	6.587048e+01
2.820000e-06	4.077883e-06	9.629321e-10	2.826998e+01	6.611558e+01
2.830000e-06	4.109507e-06	9.659664e-10	2.848921e+01	6.635113e+01
2.840000e-06	4.140918e-06	9.666677e-10	2.870697e+01	6.657729e+01
2.850000e-06	4.172059e-06	9.652164e-10	2.892286e+01	6.679426e+01
2.860000e-06	4.202855e-06	9.655081e-10	2.913635e+01	6.700223e+01
2.870000e-06	4.233275e-06	9.672750e-10	2.934723e+01	6.720144e+01
2.880000e-06	4.263414e-06	9.700818e-10	2.955617e+01	6.739215e+01
2.890000e-06	4.293281e-06	9.741131e-10	2.976323e+01	6.757461e+01
2.900000e-06	4.322876e-06	9.793453e-10	2.996839e+01	6.774914e+01
