# Temperatura_=_-0.2
# Concentracion g/m^3_=_1620.0
# C_Vs_to_Am_M_A/Vsm_=_65563218390.804596
# pendiente_HvsI_1/m_=_3716.3
# ordenada_HvsI_A/m_=_1297.0
# frecuencia_Hz_=_135110.16559510236

Tiempo_(s)	Campo_(V.s)	Magnetizacion_(V.s)	Campo_(kA/m)	Magnetizacion_(A/m)
0.000000e+00	-5.516147e-06	-1.056081e-09	-3.836362e+01	-7.010304e+01
1.000000e-08	-5.516257e-06	-1.054786e-09	-3.836438e+01	-7.010101e+01
2.000000e-08	-5.516038e-06	-1.054817e-09	-3.836286e+01	-7.010093e+01
3.000000e-08	-5.515371e-06	-1.053100e-09	-3.835822e+01	-7.010286e+01
4.000000e-08	-5.514250e-06	-1.053104e-09	-3.835042e+01	-7.010687e+01
5.000000e-08	-5.512586e-06	-1.060383e-09	-3.833885e+01	-7.011296e+01
6.000000e-08	-5.510338e-06	-1.064932e-09	-3.832322e+01	-7.012113e+01
7.000000e-08	-5.507521e-06	-1.037645e-09	-3.830363e+01	-7.013134e+01
8.000000e-08	-5.504202e-06	-9.925444e-10	-3.828054e+01	-7.014353e+01
9.000000e-08	-5.500463e-06	-1.022785e-09	-3.825454e+01	-7.015759e+01
1.000000e-07	-5.496296e-06	-1.099918e-09	-3.822556e+01	-7.017339e+01
1.100000e-07	-5.491712e-06	-1.097876e-09	-3.819368e+01	-7.019079e+01
1.200000e-07	-5.486891e-06	-9.920796e-10	-3.816015e+01	-7.020958e+01
1.300000e-07	-5.481950e-06	-9.817162e-10	-3.812579e+01	-7.022956e+01
1.400000e-07	-5.476680e-06	-1.066376e-09	-3.808914e+01	-7.025050e+01
1.500000e-07	-5.470873e-06	-1.072640e-09	-3.804875e+01	-7.027213e+01
1.600000e-07	-5.464637e-06	-9.873491e-10	-3.800538e+01	-7.029418e+01
1.700000e-07	-5.458066e-06	-9.792701e-10	-3.795968e+01	-7.031633e+01
1.800000e-07	-5.451053e-06	-1.089712e-09	-3.791090e+01	-7.033828e+01
1.900000e-07	-5.443626e-06	-1.116901e-09	-3.785925e+01	-7.035969e+01
2.000000e-07	-5.435963e-06	-1.054627e-09	-3.780596e+01	-7.038022e+01
2.100000e-07	-5.428041e-06	-1.022307e-09	-3.775086e+01	-7.039951e+01
2.200000e-07	-5.419813e-06	-1.080765e-09	-3.769364e+01	-7.041719e+01
2.300000e-07	-5.411296e-06	-1.108180e-09	-3.763441e+01	-7.043290e+01
2.400000e-07	-5.402366e-06	-1.103941e-09	-3.757230e+01	-7.044628e+01
2.500000e-07	-5.392846e-06	-1.100684e-09	-3.750609e+01	-7.045695e+01
2.600000e-07	-5.382686e-06	-1.123378e-09	-3.743543e+01	-7.046454e+01
2.700000e-07	-5.371975e-06	-1.114735e-09	-3.736093e+01	-7.046870e+01
2.800000e-07	-5.360720e-06	-1.091756e-09	-3.728266e+01	-7.046908e+01
2.900000e-07	-5.348996e-06	-1.090490e-09	-3.720112e+01	-7.046534e+01
3.000000e-07	-5.336918e-06	-1.108541e-09	-3.711712e+01	-7.045714e+01
3.100000e-07	-5.324493e-06	-1.108150e-09	-3.703071e+01	-7.044419e+01
3.200000e-07	-5.311654e-06	-1.087503e-09	-3.694142e+01	-7.042617e+01
3.300000e-07	-5.298362e-06	-1.083067e-09	-3.684897e+01	-7.040283e+01
3.400000e-07	-5.284678e-06	-1.102923e-09	-3.675380e+01	-7.037391e+01
3.500000e-07	-5.270563e-06	-1.102580e-09	-3.665564e+01	-7.033916e+01
3.600000e-07	-5.255945e-06	-1.069719e-09	-3.655397e+01	-7.029840e+01
3.700000e-07	-5.240801e-06	-1.080071e-09	-3.644865e+01	-7.025143e+01
3.800000e-07	-5.225202e-06	-1.110068e-09	-3.634016e+01	-7.019810e+01
3.900000e-07	-5.209155e-06	-1.081029e-09	-3.622856e+01	-7.013828e+01
4.000000e-07	-5.192537e-06	-1.047406e-09	-3.611298e+01	-7.007186e+01
4.100000e-07	-5.175585e-06	-1.099678e-09	-3.599509e+01	-6.999878e+01
4.200000e-07	-5.158393e-06	-1.102298e-09	-3.587551e+01	-6.991899e+01
4.300000e-07	-5.140820e-06	-1.034536e-09	-3.575330e+01	-6.983247e+01
4.400000e-07	-5.122963e-06	-1.047207e-09	-3.562911e+01	-6.973922e+01
4.500000e-07	-5.104789e-06	-1.114576e-09	-3.550271e+01	-6.963929e+01
4.600000e-07	-5.086157e-06	-1.063855e-09	-3.537313e+01	-6.953273e+01
4.700000e-07	-5.067106e-06	-1.022098e-09	-3.524064e+01	-6.941964e+01
4.800000e-07	-5.047765e-06	-1.080893e-09	-3.510612e+01	-6.930012e+01
4.900000e-07	-5.028124e-06	-1.083617e-09	-3.496952e+01	-6.917432e+01
5.000000e-07	-5.008245e-06	-1.016535e-09	-3.483127e+01	-6.904240e+01
5.100000e-07	-4.988207e-06	-1.046718e-09	-3.469191e+01	-6.890452e+01
5.200000e-07	-4.967924e-06	-1.069562e-09	-3.455084e+01	-6.876090e+01
5.300000e-07	-4.947255e-06	-1.009372e-09	-3.440710e+01	-6.861174e+01
5.400000e-07	-4.926180e-06	-1.024206e-09	-3.426053e+01	-6.845728e+01
5.500000e-07	-4.904745e-06	-1.093147e-09	-3.411145e+01	-6.829778e+01
5.600000e-07	-4.882977e-06	-1.046463e-09	-3.396006e+01	-6.813348e+01
5.700000e-07	-4.860878e-06	-1.003642e-09	-3.380636e+01	-6.796466e+01
5.800000e-07	-4.838431e-06	-1.049117e-09	-3.365025e+01	-6.779159e+01
5.900000e-07	-4.815584e-06	-1.035989e-09	-3.349136e+01	-6.761457e+01
6.000000e-07	-4.792348e-06	-9.837515e-10	-3.332975e+01	-6.743389e+01
6.100000e-07	-4.768849e-06	-1.017211e-09	-3.316632e+01	-6.724983e+01
6.200000e-07	-4.745153e-06	-1.037620e-09	-3.300152e+01	-6.706270e+01
6.300000e-07	-4.721229e-06	-9.953358e-10	-3.283513e+01	-6.687278e+01
6.400000e-07	-4.697060e-06	-1.006736e-09	-3.266705e+01	-6.668037e+01
6.500000e-07	-4.672517e-06	-1.035629e-09	-3.249635e+01	-6.648575e+01
6.600000e-07	-4.647461e-06	-1.004479e-09	-3.232209e+01	-6.628920e+01
6.700000e-07	-4.621960e-06	-9.874311e-10	-3.214474e+01	-6.609099e+01
6.800000e-07	-4.595993e-06	-1.006755e-09	-3.196415e+01	-6.589139e+01
6.900000e-07	-4.569449e-06	-9.903238e-10	-3.177954e+01	-6.569064e+01
7.000000e-07	-4.542343e-06	-9.780324e-10	-3.159102e+01	-6.548898e+01
7.100000e-07	-4.514951e-06	-9.976897e-10	-3.140052e+01	-6.528663e+01
7.200000e-07	-4.487407e-06	-9.964366e-10	-3.120895e+01	-6.508379e+01
7.300000e-07	-4.459682e-06	-9.770710e-10	-3.101613e+01	-6.488067e+01
7.400000e-07	-4.431749e-06	-9.877076e-10	-3.082186e+01	-6.467742e+01
7.500000e-07	-4.403513e-06	-9.891065e-10	-3.062549e+01	-6.447421e+01
7.600000e-07	-4.375030e-06	-9.731820e-10	-3.042740e+01	-6.427115e+01
7.700000e-07	-4.346280e-06	-9.741266e-10	-3.022744e+01	-6.406837e+01
7.800000e-07	-4.317154e-06	-9.772394e-10	-3.002488e+01	-6.386595e+01
7.900000e-07	-4.287715e-06	-9.602774e-10	-2.982014e+01	-6.366397e+01
8.000000e-07	-4.258013e-06	-9.595190e-10	-2.961357e+01	-6.346246e+01
8.100000e-07	-4.228016e-06	-9.667416e-10	-2.940494e+01	-6.326145e+01
8.200000e-07	-4.197706e-06	-9.575267e-10	-2.919414e+01	-6.306093e+01
8.300000e-07	-4.167132e-06	-9.479914e-10	-2.898151e+01	-6.286089e+01
8.400000e-07	-4.136262e-06	-9.545810e-10	-2.876681e+01	-6.266128e+01
8.500000e-07	-4.105058e-06	-9.481338e-10	-2.854980e+01	-6.246203e+01
8.600000e-07	-4.073627e-06	-9.358441e-10	-2.833120e+01	-6.226304e+01
8.700000e-07	-4.042024e-06	-9.379220e-10	-2.811141e+01	-6.206420e+01
8.800000e-07	-4.010237e-06	-9.363718e-10	-2.789034e+01	-6.186537e+01
8.900000e-07	-3.978231e-06	-9.226404e-10	-2.766774e+01	-6.166641e+01
9.000000e-07	-3.945995e-06	-9.201773e-10	-2.744355e+01	-6.146712e+01
9.100000e-07	-3.913395e-06	-9.214053e-10	-2.721683e+01	-6.126731e+01
9.200000e-07	-3.880391e-06	-9.101228e-10	-2.698729e+01	-6.106677e+01
9.300000e-07	-3.846977e-06	-9.065823e-10	-2.675490e+01	-6.086527e+01
9.400000e-07	-3.813159e-06	-9.122910e-10	-2.651971e+01	-6.066255e+01
9.500000e-07	-3.778868e-06	-9.081262e-10	-2.628122e+01	-6.045836e+01
9.600000e-07	-3.744134e-06	-9.013269e-10	-2.603965e+01	-6.025241e+01
9.700000e-07	-3.709151e-06	-9.045137e-10	-2.579635e+01	-6.004441e+01
9.800000e-07	-3.673871e-06	-9.010009e-10	-2.555099e+01	-5.983408e+01
9.900000e-07	-3.638341e-06	-8.895536e-10	-2.530388e+01	-5.962109e+01
1.000000e-06	-3.602653e-06	-8.848698e-10	-2.505568e+01	-5.940514e+01
1.010000e-06	-3.566885e-06	-8.841302e-10	-2.480692e+01	-5.918590e+01
1.020000e-06	-3.531030e-06	-8.763188e-10	-2.455756e+01	-5.896306e+01
1.030000e-06	-3.494992e-06	-8.742326e-10	-2.430692e+01	-5.873627e+01
1.040000e-06	-3.458667e-06	-8.768253e-10	-2.405429e+01	-5.850523e+01
1.050000e-06	-3.422040e-06	-8.729995e-10	-2.379955e+01	-5.826960e+01
1.060000e-06	-3.385116e-06	-8.638538e-10	-2.354275e+01	-5.802907e+01
1.070000e-06	-3.347940e-06	-8.618899e-10	-2.328421e+01	-5.778332e+01
1.080000e-06	-3.310489e-06	-8.578660e-10	-2.302374e+01	-5.753205e+01
1.090000e-06	-3.272771e-06	-8.512982e-10	-2.276142e+01	-5.727495e+01
1.100000e-06	-3.234891e-06	-8.466060e-10	-2.249797e+01	-5.701175e+01
1.110000e-06	-3.196797e-06	-8.424173e-10	-2.223304e+01	-5.674217e+01
1.120000e-06	-3.158421e-06	-8.347638e-10	-2.196614e+01	-5.646595e+01
1.130000e-06	-3.119843e-06	-8.296979e-10	-2.169784e+01	-5.618284e+01
1.140000e-06	-3.081087e-06	-8.276155e-10	-2.142830e+01	-5.589263e+01
1.150000e-06	-3.042112e-06	-8.220215e-10	-2.115724e+01	-5.559509e+01
1.160000e-06	-3.002985e-06	-8.152220e-10	-2.088511e+01	-5.529005e+01
1.170000e-06	-2.963699e-06	-8.146525e-10	-2.061189e+01	-5.497734e+01
1.180000e-06	-2.924198e-06	-8.114099e-10	-2.033717e+01	-5.465680e+01
1.190000e-06	-2.884538e-06	-8.038976e-10	-2.006134e+01	-5.432830e+01
1.200000e-06	-2.844804e-06	-7.971212e-10	-1.978500e+01	-5.399175e+01
1.210000e-06	-2.804954e-06	-7.880764e-10	-1.950786e+01	-5.364706e+01
1.220000e-06	-2.764904e-06	-7.785186e-10	-1.922932e+01	-5.329417e+01
1.230000e-06	-2.724704e-06	-7.730112e-10	-1.894973e+01	-5.293304e+01
1.240000e-06	-2.684360e-06	-7.705036e-10	-1.866915e+01	-5.256365e+01
1.250000e-06	-2.643793e-06	-7.667420e-10	-1.838701e+01	-5.218600e+01
1.260000e-06	-2.603003e-06	-7.604565e-10	-1.810333e+01	-5.180011e+01
1.270000e-06	-2.561891e-06	-7.544062e-10	-1.781740e+01	-5.140602e+01
1.280000e-06	-2.520440e-06	-7.489259e-10	-1.752912e+01	-5.100379e+01
1.290000e-06	-2.478661e-06	-7.410296e-10	-1.723855e+01	-5.059349e+01
1.300000e-06	-2.436572e-06	-7.346223e-10	-1.694584e+01	-5.017521e+01
1.310000e-06	-2.394209e-06	-7.278678e-10	-1.665121e+01	-4.974903e+01
1.320000e-06	-2.351525e-06	-7.208304e-10	-1.635436e+01	-4.931507e+01
1.330000e-06	-2.308685e-06	-7.138190e-10	-1.605641e+01	-4.887344e+01
1.340000e-06	-2.265678e-06	-7.073795e-10	-1.575731e+01	-4.842425e+01
1.350000e-06	-2.222411e-06	-7.003160e-10	-1.545639e+01	-4.796764e+01
1.360000e-06	-2.178948e-06	-6.964750e-10	-1.515412e+01	-4.750370e+01
1.370000e-06	-2.135356e-06	-6.946309e-10	-1.485094e+01	-4.703257e+01
1.380000e-06	-2.091697e-06	-6.914183e-10	-1.454731e+01	-4.655435e+01
1.390000e-06	-2.047946e-06	-6.826118e-10	-1.424302e+01	-4.606914e+01
1.400000e-06	-2.004132e-06	-6.716486e-10	-1.393831e+01	-4.557704e+01
1.410000e-06	-1.960253e-06	-6.588743e-10	-1.363314e+01	-4.507810e+01
1.420000e-06	-1.916357e-06	-6.471904e-10	-1.332785e+01	-4.457240e+01
1.430000e-06	-1.872387e-06	-6.418611e-10	-1.302205e+01	-4.405996e+01
1.440000e-06	-1.828237e-06	-6.406342e-10	-1.271500e+01	-4.354080e+01
1.450000e-06	-1.784007e-06	-6.358881e-10	-1.240739e+01	-4.301491e+01
1.460000e-06	-1.739698e-06	-6.284486e-10	-1.209923e+01	-4.248225e+01
1.470000e-06	-1.695276e-06	-6.176991e-10	-1.179028e+01	-4.194275e+01
1.480000e-06	-1.650747e-06	-6.051317e-10	-1.148059e+01	-4.139631e+01
1.490000e-06	-1.606039e-06	-5.928086e-10	-1.116966e+01	-4.084279e+01
1.500000e-06	-1.561114e-06	-5.826764e-10	-1.085721e+01	-4.028205e+01
1.510000e-06	-1.516015e-06	-5.746424e-10	-1.054356e+01	-3.971386e+01
1.520000e-06	-1.470773e-06	-5.653423e-10	-1.022891e+01	-3.913799e+01
1.530000e-06	-1.425413e-06	-5.550752e-10	-9.913441e+00	-3.855418e+01
1.540000e-06	-1.379993e-06	-5.449140e-10	-9.597558e+00	-3.796210e+01
1.550000e-06	-1.334565e-06	-5.364472e-10	-9.281614e+00	-3.736143e+01
1.560000e-06	-1.289122e-06	-5.283054e-10	-8.965569e+00	-3.675177e+01
1.570000e-06	-1.243564e-06	-5.216524e-10	-8.648723e+00	-3.613272e+01
1.580000e-06	-1.197866e-06	-5.138816e-10	-8.330904e+00	-3.550384e+01
1.590000e-06	-1.152112e-06	-5.038963e-10	-8.012692e+00	-3.486465e+01
1.600000e-06	-1.106321e-06	-4.928334e-10	-7.694223e+00	-3.421466e+01
1.610000e-06	-1.060363e-06	-4.790278e-10	-7.374594e+00	-3.355334e+01
1.620000e-06	-1.014263e-06	-4.642335e-10	-7.053984e+00	-3.288014e+01
1.630000e-06	-9.681990e-07	-4.517726e-10	-6.733617e+00	-3.219452e+01
1.640000e-06	-9.221303e-07	-4.385598e-10	-6.413219e+00	-3.149589e+01
1.650000e-06	-8.759867e-07	-4.260893e-10	-6.092299e+00	-3.078367e+01
1.660000e-06	-8.297127e-07	-4.137977e-10	-5.770474e+00	-3.005727e+01
1.670000e-06	-7.834047e-07	-4.049272e-10	-5.448412e+00	-2.931611e+01
1.680000e-06	-7.370613e-07	-3.969841e-10	-5.126103e+00	-2.855960e+01
1.690000e-06	-6.905925e-07	-3.884626e-10	-4.802923e+00	-2.778718e+01
1.700000e-06	-6.441010e-07	-3.773946e-10	-4.479584e+00	-2.699829e+01
1.710000e-06	-5.975578e-07	-3.611616e-10	-4.155887e+00	-2.619240e+01
1.720000e-06	-5.509801e-07	-3.433423e-10	-3.831948e+00	-2.536899e+01
1.730000e-06	-5.043360e-07	-3.283629e-10	-3.507549e+00	-2.452760e+01
1.740000e-06	-4.575634e-07	-3.158961e-10	-3.182256e+00	-2.366779e+01
1.750000e-06	-4.108077e-07	-3.065010e-10	-2.857080e+00	-2.278917e+01
1.760000e-06	-3.641295e-07	-2.955901e-10	-2.532443e+00	-2.189139e+01
1.770000e-06	-3.174214e-07	-2.835183e-10	-2.207598e+00	-2.097416e+01
1.780000e-06	-2.705902e-07	-2.705000e-10	-1.881897e+00	-2.003726e+01
1.790000e-06	-2.237685e-07	-2.549998e-10	-1.556262e+00	-1.908051e+01
1.800000e-06	-1.770125e-07	-2.382019e-10	-1.231084e+00	-1.810381e+01
1.810000e-06	-1.302407e-07	-2.184708e-10	-9.057963e-01	-1.710714e+01
1.820000e-06	-8.347295e-08	-2.004385e-10	-5.805365e-01	-1.609053e+01
1.830000e-06	-3.676689e-08	-1.854584e-10	-2.557058e-01	-1.505412e+01
1.840000e-06	1.000917e-08	-1.727779e-10	6.961161e-02	-1.399811e+01
1.850000e-06	5.683706e-08	-1.619937e-10	3.952895e-01	-1.292279e+01
1.860000e-06	1.036224e-07	-1.500231e-10	7.206717e-01	-1.182853e+01
1.870000e-06	1.503989e-07	-1.359267e-10	1.045992e+00	-1.071578e+01
1.880000e-06	1.971305e-07	-1.205420e-10	1.371000e+00	-9.585095e+00
1.890000e-06	2.438558e-07	-1.036080e-10	1.695965e+00	-8.437098e+00
1.900000e-06	2.905836e-07	-8.692495e-11	2.020947e+00	-7.272503e+00
1.910000e-06	3.372912e-07	-6.862161e-11	2.345788e+00	-6.092108e+00
1.920000e-06	3.839606e-07	-5.103507e-11	2.670363e+00	-4.896790e+00
1.930000e-06	4.306117e-07	-3.381875e-11	2.994812e+00	-3.687505e+00
1.940000e-06	4.772431e-07	-2.099571e-11	3.319124e+00	-2.465288e+00
1.950000e-06	5.238236e-07	-9.789880e-12	3.643081e+00	-1.231240e+00
1.960000e-06	5.703354e-07	3.476953e-12	3.966560e+00	1.346806e-02
1.970000e-06	6.168429e-07	2.083634e-11	4.290010e+00	1.267602e+00
1.980000e-06	6.633388e-07	3.985808e-11	4.613379e+00	2.529873e+00
1.990000e-06	7.097468e-07	5.910989e-11	4.936137e+00	3.798940e+00
2.000000e-06	7.560938e-07	7.777615e-11	5.258470e+00	5.073418e+00
2.010000e-06	8.023415e-07	9.554891e-11	5.580113e+00	6.351884e+00
2.020000e-06	8.485046e-07	1.138387e-10	5.901167e+00	7.632883e+00
2.030000e-06	8.946578e-07	1.333163e-10	6.222153e+00	8.914939e+00
2.040000e-06	9.408117e-07	1.525304e-10	6.543144e+00	1.019656e+01
2.050000e-06	9.868818e-07	1.708235e-10	6.863551e+00	1.147623e+01
2.060000e-06	1.032773e-06	1.877285e-10	7.182714e+00	1.275247e+01
2.070000e-06	1.078574e-06	2.032975e-10	7.501254e+00	1.402377e+01
2.080000e-06	1.124347e-06	2.194566e-10	7.819592e+00	1.528865e+01
2.090000e-06	1.170082e-06	2.372268e-10	8.137668e+00	1.654566e+01
2.100000e-06	1.215808e-06	2.573508e-10	8.455682e+00	1.779336e+01
2.110000e-06	1.261446e-06	2.780200e-10	8.773089e+00	1.903038e+01
2.120000e-06	1.306897e-06	2.998026e-10	9.089191e+00	2.025536e+01
2.130000e-06	1.352159e-06	3.181272e-10	9.403974e+00	2.146701e+01
2.140000e-06	1.397358e-06	3.303703e-10	9.718325e+00	2.266411e+01
2.150000e-06	1.442574e-06	3.390040e-10	1.003279e+01	2.384548e+01
2.160000e-06	1.487716e-06	3.506372e-10	1.034675e+01	2.501002e+01
2.170000e-06	1.532735e-06	3.651336e-10	1.065985e+01	2.615671e+01
2.180000e-06	1.577637e-06	3.817573e-10	1.097213e+01	2.728461e+01
2.190000e-06	1.622390e-06	4.008217e-10	1.128337e+01	2.839286e+01
2.200000e-06	1.666978e-06	4.212153e-10	1.159348e+01	2.948068e+01
2.210000e-06	1.711430e-06	4.401644e-10	1.190263e+01	3.054740e+01
2.220000e-06	1.755750e-06	4.559898e-10	1.221087e+01	3.159242e+01
2.230000e-06	1.799963e-06	4.669576e-10	1.251835e+01	3.261524e+01
2.240000e-06	1.844074e-06	4.753314e-10	1.282514e+01	3.361546e+01
2.250000e-06	1.888059e-06	4.840561e-10	1.313105e+01	3.459278e+01
2.260000e-06	1.931954e-06	4.956107e-10	1.343633e+01	3.554697e+01
2.270000e-06	1.975837e-06	5.105962e-10	1.374152e+01	3.647792e+01
2.280000e-06	2.019646e-06	5.280899e-10	1.404621e+01	3.738558e+01
2.290000e-06	2.063350e-06	5.455410e-10	1.435016e+01	3.827002e+01
2.300000e-06	2.106998e-06	5.606843e-10	1.465372e+01	3.913137e+01
2.310000e-06	2.150569e-06	5.726558e-10	1.495675e+01	3.996986e+01
2.320000e-06	2.194047e-06	5.815598e-10	1.525913e+01	4.078577e+01
2.330000e-06	2.237381e-06	5.886249e-10	1.556050e+01	4.157947e+01
2.340000e-06	2.280531e-06	5.963245e-10	1.586060e+01	4.235141e+01
2.350000e-06	2.323504e-06	6.070415e-10	1.615947e+01	4.310206e+01
2.360000e-06	2.366258e-06	6.205612e-10	1.645682e+01	4.383199e+01
2.370000e-06	2.408701e-06	6.330193e-10	1.675200e+01	4.454180e+01
2.380000e-06	2.450785e-06	6.440262e-10	1.704469e+01	4.523211e+01
2.390000e-06	2.492526e-06	6.547811e-10	1.733498e+01	4.590361e+01
2.400000e-06	2.534052e-06	6.638607e-10	1.762379e+01	4.655701e+01
2.410000e-06	2.575316e-06	6.746235e-10	1.791077e+01	4.719302e+01
2.420000e-06	2.616239e-06	6.863603e-10	1.819538e+01	4.781241e+01
2.430000e-06	2.656941e-06	6.971516e-10	1.847846e+01	4.841590e+01
2.440000e-06	2.697407e-06	7.081303e-10	1.875989e+01	4.900427e+01
2.450000e-06	2.737662e-06	7.187429e-10	1.903985e+01	4.957826e+01
2.460000e-06	2.777759e-06	7.259991e-10	1.931872e+01	5.013861e+01
2.470000e-06	2.817739e-06	7.316931e-10	1.959677e+01	5.068604e+01
2.480000e-06	2.857606e-06	7.377176e-10	1.987404e+01	5.122125e+01
2.490000e-06	2.897307e-06	7.458565e-10	2.015015e+01	5.174493e+01
2.500000e-06	2.936874e-06	7.564608e-10	2.042533e+01	5.225771e+01
2.510000e-06	2.976283e-06	7.681984e-10	2.069941e+01	5.276021e+01
2.520000e-06	3.015475e-06	7.793172e-10	2.097198e+01	5.325298e+01
2.530000e-06	3.054415e-06	7.884917e-10	2.124280e+01	5.373657e+01
2.540000e-06	3.093146e-06	7.942810e-10	2.151217e+01	5.421145e+01
2.550000e-06	3.131671e-06	7.977613e-10	2.178010e+01	5.467805e+01
2.560000e-06	3.169951e-06	8.019149e-10	2.204633e+01	5.513676e+01
2.570000e-06	3.208026e-06	8.077585e-10	2.231113e+01	5.558791e+01
2.580000e-06	3.245919e-06	8.141665e-10	2.257467e+01	5.603180e+01
2.590000e-06	3.283606e-06	8.211770e-10	2.283678e+01	5.646865e+01
2.600000e-06	3.321063e-06	8.299100e-10	2.309728e+01	5.689864e+01
2.610000e-06	3.358258e-06	8.399339e-10	2.335597e+01	5.732192e+01
2.620000e-06	3.395194e-06	8.494810e-10	2.361285e+01	5.773857e+01
2.630000e-06	3.431947e-06	8.563801e-10	2.386846e+01	5.814864e+01
2.640000e-06	3.468475e-06	8.607992e-10	2.412250e+01	5.855212e+01
2.650000e-06	3.504696e-06	8.640961e-10	2.437441e+01	5.894898e+01
2.660000e-06	3.540726e-06	8.668034e-10	2.462499e+01	5.933914e+01
2.670000e-06	3.576606e-06	8.694555e-10	2.487453e+01	5.972250e+01
2.680000e-06	3.612320e-06	8.737574e-10	2.512291e+01	6.009891e+01
2.690000e-06	3.647895e-06	8.800279e-10	2.537033e+01	6.046823e+01
2.700000e-06	3.683297e-06	8.868502e-10	2.561654e+01	6.083026e+01
2.710000e-06	3.718472e-06	8.929284e-10	2.586118e+01	6.118480e+01
2.720000e-06	3.753401e-06	9.014366e-10	2.610410e+01	6.153166e+01
2.730000e-06	3.787982e-06	9.098045e-10	2.634460e+01	6.187062e+01
2.740000e-06	3.822103e-06	9.142065e-10	2.658191e+01	6.220144e+01
2.750000e-06	3.855741e-06	9.159076e-10	2.681585e+01	6.252392e+01
2.760000e-06	3.888827e-06	9.168117e-10	2.704596e+01	6.283785e+01
2.770000e-06	3.921484e-06	9.193684e-10	2.727308e+01	6.314303e+01
2.780000e-06	3.953888e-06	9.252900e-10	2.749844e+01	6.343926e+01
2.790000e-06	3.986076e-06	9.332431e-10	2.772231e+01	6.372638e+01
2.800000e-06	4.018034e-06	9.418173e-10	2.794456e+01	6.400424e+01
2.810000e-06	4.049753e-06	9.489902e-10	2.816516e+01	6.427272e+01
2.820000e-06	4.081288e-06	9.538074e-10	2.838448e+01	6.453172e+01
2.830000e-06	4.112671e-06	9.566800e-10	2.860274e+01	6.478118e+01
2.840000e-06	4.143833e-06	9.572852e-10	2.881947e+01	6.502105e+01
2.850000e-06	4.174651e-06	9.581588e-10	2.903380e+01	6.525134e+01
2.860000e-06	4.205159e-06	9.598797e-10	2.924598e+01	6.547207e+01
2.870000e-06	4.235364e-06	9.606376e-10	2.945605e+01	6.568331e+01
2.880000e-06	4.265240e-06	9.627002e-10	2.966383e+01	6.588517e+01
2.890000e-06	4.294831e-06	9.657867e-10	2.986963e+01	6.607777e+01
2.900000e-06	4.324102e-06	9.705489e-10	3.007320e+01	6.626129e+01
