# Temperatura_=_-0.4
# Concentracion g/m^3_=_1620.0
# C_Vs_to_Am_M_A/Vsm_=_65563218390.804596
# pendiente_HvsI_1/m_=_3716.3
# ordenada_HvsI_A/m_=_1297.0
# frecuencia_Hz_=_135090.59469365704

Tiempo_(s)	Campo_(V.s)	Magnetizacion_(V.s)	Campo_(kA/m)	Magnetizacion_(A/m)
0.000000e+00	-5.518723e-06	-1.355897e-09	-3.838091e+01	-8.753536e+01
1.000000e-08	-5.518815e-06	-1.356149e-09	-3.838155e+01	-8.754933e+01
2.000000e-08	-5.518697e-06	-1.356869e-09	-3.838073e+01	-8.756370e+01
3.000000e-08	-5.518292e-06	-1.356098e-09	-3.837792e+01	-8.757843e+01
4.000000e-08	-5.517506e-06	-1.354541e-09	-3.837245e+01	-8.759346e+01
5.000000e-08	-5.516128e-06	-1.353334e-09	-3.836287e+01	-8.760872e+01
6.000000e-08	-5.513960e-06	-1.350498e-09	-3.834779e+01	-8.762409e+01
7.000000e-08	-5.511112e-06	-1.351523e-09	-3.832798e+01	-8.763942e+01
8.000000e-08	-5.507719e-06	-1.352349e-09	-3.830438e+01	-8.765456e+01
9.000000e-08	-5.503943e-06	-1.363944e-09	-3.827813e+01	-8.766933e+01
1.000000e-07	-5.499856e-06	-1.374589e-09	-3.824970e+01	-8.768351e+01
1.100000e-07	-5.495475e-06	-1.323855e-09	-3.821923e+01	-8.769688e+01
1.200000e-07	-5.490835e-06	-1.304711e-09	-3.818696e+01	-8.770918e+01
1.300000e-07	-5.485870e-06	-1.323273e-09	-3.815243e+01	-8.772017e+01
1.400000e-07	-5.480529e-06	-1.385569e-09	-3.811529e+01	-8.772955e+01
1.500000e-07	-5.474796e-06	-1.334944e-09	-3.807542e+01	-8.773704e+01
1.600000e-07	-5.468695e-06	-1.284004e-09	-3.803299e+01	-8.774234e+01
1.700000e-07	-5.462313e-06	-1.328721e-09	-3.798860e+01	-8.774514e+01
1.800000e-07	-5.455479e-06	-1.389317e-09	-3.794107e+01	-8.774513e+01
1.900000e-07	-5.448206e-06	-1.360030e-09	-3.789049e+01	-8.774201e+01
2.000000e-07	-5.440683e-06	-1.278383e-09	-3.783817e+01	-8.773545e+01
2.100000e-07	-5.432915e-06	-1.331675e-09	-3.778415e+01	-8.772516e+01
2.200000e-07	-5.424924e-06	-1.385644e-09	-3.772857e+01	-8.771082e+01
2.300000e-07	-5.416634e-06	-1.387447e-09	-3.767092e+01	-8.769215e+01
2.400000e-07	-5.407897e-06	-1.329899e-09	-3.761016e+01	-8.766886e+01
2.500000e-07	-5.398549e-06	-1.365598e-09	-3.754514e+01	-8.764068e+01
2.600000e-07	-5.388511e-06	-1.384004e-09	-3.747533e+01	-8.760737e+01
2.700000e-07	-5.377894e-06	-1.383668e-09	-3.740149e+01	-8.756867e+01
2.800000e-07	-5.366742e-06	-1.333336e-09	-3.732393e+01	-8.752438e+01
2.900000e-07	-5.355121e-06	-1.340964e-09	-3.724311e+01	-8.747430e+01
3.000000e-07	-5.343157e-06	-1.353455e-09	-3.715991e+01	-8.741826e+01
3.100000e-07	-5.330868e-06	-1.354072e-09	-3.707444e+01	-8.735610e+01
3.200000e-07	-5.318133e-06	-1.327894e-09	-3.698588e+01	-8.728771e+01
3.300000e-07	-5.304995e-06	-1.327542e-09	-3.689451e+01	-8.721299e+01
3.400000e-07	-5.291539e-06	-1.345521e-09	-3.680093e+01	-8.713186e+01
3.500000e-07	-5.277619e-06	-1.339570e-09	-3.670412e+01	-8.704427e+01
3.600000e-07	-5.263140e-06	-1.305976e-09	-3.660342e+01	-8.695022e+01
3.700000e-07	-5.248259e-06	-1.312809e-09	-3.649992e+01	-8.684970e+01
3.800000e-07	-5.232950e-06	-1.340549e-09	-3.639346e+01	-8.674275e+01
3.900000e-07	-5.217067e-06	-1.315054e-09	-3.628300e+01	-8.662944e+01
4.000000e-07	-5.200638e-06	-1.292053e-09	-3.616874e+01	-8.650984e+01
4.100000e-07	-5.183893e-06	-1.317790e-09	-3.605228e+01	-8.638406e+01
4.200000e-07	-5.166859e-06	-1.316690e-09	-3.593381e+01	-8.625224e+01
4.300000e-07	-5.149450e-06	-1.260645e-09	-3.581274e+01	-8.611453e+01
4.400000e-07	-5.131801e-06	-1.299474e-09	-3.569000e+01	-8.597110e+01
4.500000e-07	-5.113787e-06	-1.332302e-09	-3.556471e+01	-8.582213e+01
4.600000e-07	-5.095351e-06	-1.285368e-09	-3.543650e+01	-8.566784e+01
4.700000e-07	-5.076443e-06	-1.250188e-09	-3.530500e+01	-8.550844e+01
4.800000e-07	-5.057192e-06	-1.324230e-09	-3.517111e+01	-8.534416e+01
4.900000e-07	-5.037716e-06	-1.297791e-09	-3.503567e+01	-8.517524e+01
5.000000e-07	-5.017939e-06	-1.247314e-09	-3.489813e+01	-8.500193e+01
5.100000e-07	-4.997936e-06	-1.280201e-09	-3.475901e+01	-8.482448e+01
5.200000e-07	-4.977699e-06	-1.308926e-09	-3.461827e+01	-8.464315e+01
5.300000e-07	-4.957103e-06	-1.237301e-09	-3.447503e+01	-8.445818e+01
5.400000e-07	-4.936153e-06	-1.264031e-09	-3.432933e+01	-8.426984e+01
5.500000e-07	-4.914924e-06	-1.308635e-09	-3.418169e+01	-8.407837e+01
5.600000e-07	-4.893399e-06	-1.255378e-09	-3.403199e+01	-8.388402e+01
5.700000e-07	-4.871539e-06	-1.223750e-09	-3.387996e+01	-8.368701e+01
5.800000e-07	-4.849329e-06	-1.289053e-09	-3.372550e+01	-8.348757e+01
5.900000e-07	-4.826745e-06	-1.262755e-09	-3.356843e+01	-8.328592e+01
6.000000e-07	-4.803701e-06	-1.209267e-09	-3.340817e+01	-8.308226e+01
6.100000e-07	-4.780395e-06	-1.245995e-09	-3.324609e+01	-8.287676e+01
6.200000e-07	-4.756894e-06	-1.259146e-09	-3.308264e+01	-8.266959e+01
6.300000e-07	-4.733052e-06	-1.203338e-09	-3.291683e+01	-8.246090e+01
6.400000e-07	-4.708984e-06	-1.223166e-09	-3.274945e+01	-8.225082e+01
6.500000e-07	-4.684611e-06	-1.261734e-09	-3.257994e+01	-8.203946e+01
6.600000e-07	-4.659872e-06	-1.224663e-09	-3.240788e+01	-8.182691e+01
6.700000e-07	-4.634704e-06	-1.218945e-09	-3.223285e+01	-8.161324e+01
6.800000e-07	-4.609037e-06	-1.244628e-09	-3.205435e+01	-8.139849e+01
6.900000e-07	-4.582847e-06	-1.216773e-09	-3.187220e+01	-8.118270e+01
7.000000e-07	-4.556021e-06	-1.187639e-09	-3.168564e+01	-8.096585e+01
7.100000e-07	-4.528760e-06	-1.218188e-09	-3.149605e+01	-8.074795e+01
7.200000e-07	-4.501284e-06	-1.208990e-09	-3.130496e+01	-8.052894e+01
7.300000e-07	-4.473569e-06	-1.186364e-09	-3.111221e+01	-8.030877e+01
7.400000e-07	-4.445619e-06	-1.202353e-09	-3.091782e+01	-8.008737e+01
7.500000e-07	-4.417472e-06	-1.214832e-09	-3.072207e+01	-7.986464e+01
7.600000e-07	-4.389116e-06	-1.183598e-09	-3.052486e+01	-7.964046e+01
7.700000e-07	-4.360429e-06	-1.187452e-09	-3.032536e+01	-7.941471e+01
7.800000e-07	-4.331384e-06	-1.190555e-09	-3.012336e+01	-7.918724e+01
7.900000e-07	-4.302052e-06	-1.169417e-09	-2.991936e+01	-7.895789e+01
8.000000e-07	-4.272445e-06	-1.158715e-09	-2.971345e+01	-7.872649e+01
8.100000e-07	-4.242579e-06	-1.177453e-09	-2.950575e+01	-7.849286e+01
8.200000e-07	-4.212486e-06	-1.164504e-09	-2.929646e+01	-7.825680e+01
8.300000e-07	-4.182065e-06	-1.158640e-09	-2.908489e+01	-7.801812e+01
8.400000e-07	-4.151243e-06	-1.168642e-09	-2.887054e+01	-7.777661e+01
8.500000e-07	-4.120135e-06	-1.163931e-09	-2.865419e+01	-7.753205e+01
8.600000e-07	-4.088780e-06	-1.142944e-09	-2.843613e+01	-7.728423e+01
8.700000e-07	-4.057203e-06	-1.148708e-09	-2.821652e+01	-7.703294e+01
8.800000e-07	-4.025513e-06	-1.147610e-09	-2.799612e+01	-7.677795e+01
8.900000e-07	-3.993655e-06	-1.130193e-09	-2.777456e+01	-7.651905e+01
9.000000e-07	-3.961600e-06	-1.127143e-09	-2.755163e+01	-7.625602e+01
9.100000e-07	-3.929240e-06	-1.131951e-09	-2.732658e+01	-7.598866e+01
9.200000e-07	-3.896469e-06	-1.117389e-09	-2.709867e+01	-7.571676e+01
9.300000e-07	-3.863388e-06	-1.108283e-09	-2.686860e+01	-7.544011e+01
9.400000e-07	-3.829955e-06	-1.113814e-09	-2.663608e+01	-7.515852e+01
9.500000e-07	-3.796107e-06	-1.107479e-09	-2.640068e+01	-7.487182e+01
9.600000e-07	-3.761755e-06	-1.099011e-09	-2.616177e+01	-7.457982e+01
9.700000e-07	-3.726950e-06	-1.103239e-09	-2.591972e+01	-7.428235e+01
9.800000e-07	-3.691805e-06	-1.100665e-09	-2.567529e+01	-7.397927e+01
9.900000e-07	-3.656325e-06	-1.083144e-09	-2.542854e+01	-7.367042e+01
1.000000e-06	-3.620667e-06	-1.079537e-09	-2.518056e+01	-7.335566e+01
1.010000e-06	-3.584922e-06	-1.075670e-09	-2.493196e+01	-7.303489e+01
1.020000e-06	-3.549039e-06	-1.066490e-09	-2.468241e+01	-7.270798e+01
1.030000e-06	-3.512979e-06	-1.060517e-09	-2.443162e+01	-7.237483e+01
1.040000e-06	-3.476647e-06	-1.066222e-09	-2.417894e+01	-7.203535e+01
1.050000e-06	-3.440064e-06	-1.055861e-09	-2.392452e+01	-7.168948e+01
1.060000e-06	-3.403259e-06	-1.042640e-09	-2.366855e+01	-7.133713e+01
1.070000e-06	-3.366222e-06	-1.036280e-09	-2.341097e+01	-7.097826e+01
1.080000e-06	-3.328929e-06	-1.032043e-09	-2.315161e+01	-7.061281e+01
1.090000e-06	-3.291366e-06	-1.021211e-09	-2.289037e+01	-7.024076e+01
1.100000e-06	-3.253654e-06	-1.020744e-09	-2.262810e+01	-6.986207e+01
1.110000e-06	-3.215652e-06	-1.014070e-09	-2.236380e+01	-6.947673e+01
1.120000e-06	-3.177355e-06	-9.999771e-10	-2.209746e+01	-6.908472e+01
1.130000e-06	-3.138953e-06	-9.910504e-10	-2.183039e+01	-6.868603e+01
1.140000e-06	-3.100381e-06	-9.892072e-10	-2.156213e+01	-6.828068e+01
1.150000e-06	-3.061534e-06	-9.793885e-10	-2.129197e+01	-6.786865e+01
1.160000e-06	-3.022437e-06	-9.719802e-10	-2.102006e+01	-6.744997e+01
1.170000e-06	-2.983164e-06	-9.694600e-10	-2.074693e+01	-6.702463e+01
1.180000e-06	-2.943740e-06	-9.640436e-10	-2.047275e+01	-6.659267e+01
1.190000e-06	-2.904172e-06	-9.564195e-10	-2.019757e+01	-6.615408e+01
1.200000e-06	-2.864484e-06	-9.525433e-10	-1.992155e+01	-6.570888e+01
1.210000e-06	-2.824626e-06	-9.450866e-10	-1.964435e+01	-6.525708e+01
1.220000e-06	-2.784632e-06	-9.298058e-10	-1.936620e+01	-6.479869e+01
1.230000e-06	-2.744558e-06	-9.189117e-10	-1.908751e+01	-6.433371e+01
1.240000e-06	-2.704290e-06	-9.134925e-10	-1.880745e+01	-6.386214e+01
1.250000e-06	-2.663765e-06	-9.063079e-10	-1.852562e+01	-6.338397e+01
1.260000e-06	-2.623069e-06	-9.016835e-10	-1.824259e+01	-6.289919e+01
1.270000e-06	-2.582141e-06	-9.021035e-10	-1.795794e+01	-6.240778e+01
1.280000e-06	-2.540960e-06	-8.972769e-10	-1.767154e+01	-6.190969e+01
1.290000e-06	-2.499536e-06	-8.878113e-10	-1.738345e+01	-6.140490e+01
1.300000e-06	-2.457901e-06	-8.768835e-10	-1.709390e+01	-6.089333e+01
1.310000e-06	-2.415930e-06	-8.646245e-10	-1.680200e+01	-6.037493e+01
1.320000e-06	-2.373390e-06	-8.516528e-10	-1.650615e+01	-5.984961e+01
1.330000e-06	-2.330489e-06	-8.461087e-10	-1.620779e+01	-5.931729e+01
1.340000e-06	-2.287398e-06	-8.429699e-10	-1.590810e+01	-5.877785e+01
1.350000e-06	-2.244072e-06	-8.399115e-10	-1.560679e+01	-5.823116e+01
1.360000e-06	-2.200553e-06	-8.335077e-10	-1.530413e+01	-5.767709e+01
1.370000e-06	-2.156996e-06	-8.248440e-10	-1.500120e+01	-5.711548e+01
1.380000e-06	-2.113331e-06	-8.123367e-10	-1.469753e+01	-5.654616e+01
1.390000e-06	-2.069548e-06	-8.009907e-10	-1.439303e+01	-5.596894e+01
1.400000e-06	-2.025726e-06	-7.884225e-10	-1.408826e+01	-5.538361e+01
1.410000e-06	-1.981837e-06	-7.788496e-10	-1.378303e+01	-5.478994e+01
1.420000e-06	-1.937900e-06	-7.699126e-10	-1.347746e+01	-5.418770e+01
1.430000e-06	-1.893897e-06	-7.636633e-10	-1.317144e+01	-5.357662e+01
1.440000e-06	-1.849776e-06	-7.579434e-10	-1.286458e+01	-5.295642e+01
1.450000e-06	-1.805520e-06	-7.502731e-10	-1.255680e+01	-5.232682e+01
1.460000e-06	-1.761107e-06	-7.388923e-10	-1.224792e+01	-5.168749e+01
1.470000e-06	-1.716648e-06	-7.264598e-10	-1.193873e+01	-5.103813e+01
1.480000e-06	-1.672148e-06	-7.105967e-10	-1.162924e+01	-5.037838e+01
1.490000e-06	-1.627452e-06	-6.959165e-10	-1.131840e+01	-4.970788e+01
1.500000e-06	-1.582587e-06	-6.847130e-10	-1.100637e+01	-4.902628e+01
1.510000e-06	-1.537570e-06	-6.743018e-10	-1.069329e+01	-4.833320e+01
1.520000e-06	-1.492410e-06	-6.651636e-10	-1.037923e+01	-4.762823e+01
1.530000e-06	-1.447151e-06	-6.546877e-10	-1.006446e+01	-4.691099e+01
1.540000e-06	-1.401778e-06	-6.421776e-10	-9.748905e+00	-4.618105e+01
1.550000e-06	-1.356232e-06	-6.285895e-10	-9.432148e+00	-4.543802e+01
1.560000e-06	-1.310581e-06	-6.140336e-10	-9.114659e+00	-4.468147e+01
1.570000e-06	-1.264924e-06	-5.994736e-10	-8.797130e+00	-4.391099e+01
1.580000e-06	-1.219257e-06	-5.870084e-10	-8.479530e+00	-4.312614e+01
1.590000e-06	-1.173550e-06	-5.747294e-10	-8.161658e+00	-4.232652e+01
1.600000e-06	-1.127747e-06	-5.631337e-10	-7.843110e+00	-4.151171e+01
1.610000e-06	-1.081780e-06	-5.516813e-10	-7.523426e+00	-4.068130e+01
1.620000e-06	-1.035757e-06	-5.390413e-10	-7.203353e+00	-3.983490e+01
1.630000e-06	-9.897259e-07	-5.275460e-10	-6.883220e+00	-3.897212e+01
1.640000e-06	-9.435227e-07	-5.106381e-10	-6.561892e+00	-3.809259e+01
1.650000e-06	-8.972603e-07	-4.933315e-10	-6.240152e+00	-3.719595e+01
1.660000e-06	-8.510295e-07	-4.800785e-10	-5.918632e+00	-3.628189e+01
1.670000e-06	-8.047303e-07	-4.655934e-10	-5.596636e+00	-3.535007e+01
1.680000e-06	-7.583354e-07	-4.519721e-10	-5.273975e+00	-3.440023e+01
1.690000e-06	-7.119092e-07	-4.380267e-10	-4.951095e+00	-3.343210e+01
1.700000e-06	-6.655150e-07	-4.281718e-10	-4.628439e+00	-3.244547e+01
1.710000e-06	-6.190129e-07	-4.142534e-10	-4.305032e+00	-3.144013e+01
1.720000e-06	-5.724118e-07	-4.009058e-10	-3.980937e+00	-3.041595e+01
1.730000e-06	-5.258021e-07	-3.821106e-10	-3.656782e+00	-2.937279e+01
1.740000e-06	-4.790879e-07	-3.643199e-10	-3.331900e+00	-2.831060e+01
1.750000e-06	-4.323349e-07	-3.440964e-10	-3.006748e+00	-2.722934e+01
1.760000e-06	-3.856100e-07	-3.240446e-10	-2.681792e+00	-2.612904e+01
1.770000e-06	-3.388140e-07	-3.098707e-10	-2.356341e+00	-2.500975e+01
1.780000e-06	-2.921130e-07	-3.010034e-10	-2.031550e+00	-2.387159e+01
1.790000e-06	-2.453311e-07	-2.919991e-10	-1.706198e+00	-2.271474e+01
1.800000e-06	-1.984347e-07	-2.750704e-10	-1.380048e+00	-2.153942e+01
1.810000e-06	-1.516885e-07	-2.516756e-10	-1.054944e+00	-2.034590e+01
1.820000e-06	-1.048787e-07	-2.257831e-10	-7.293972e-01	-1.913450e+01
1.830000e-06	-5.806931e-08	-1.990612e-10	-4.038531e-01	-1.790563e+01
1.840000e-06	-1.130084e-08	-1.762748e-10	-7.859367e-02	-1.665972e+01
1.850000e-06	3.550915e-08	-1.613815e-10	2.469545e-01	-1.539727e+01
1.860000e-06	8.233192e-08	-1.536552e-10	5.725916e-01	-1.411883e+01
1.870000e-06	1.292080e-07	-1.483092e-10	8.985993e-01	-1.282503e+01
1.880000e-06	1.761142e-07	-1.347877e-10	1.224817e+00	-1.151651e+01
1.890000e-06	2.230596e-07	-1.151279e-10	1.551306e+00	-1.019401e+01
1.900000e-06	2.699366e-07	-8.903188e-11	1.877321e+00	-8.858291e+00
1.910000e-06	3.166755e-07	-6.154399e-11	2.202375e+00	-7.510175e+00
1.920000e-06	3.633664e-07	-3.655900e-11	2.527095e+00	-6.150529e+00
1.930000e-06	4.101057e-07	-1.828795e-11	2.852151e+00	-4.780269e+00
1.940000e-06	4.568545e-07	-8.094719e-12	3.177274e+00	-3.400351e+00
1.950000e-06	5.034361e-07	-2.393231e-13	3.501233e+00	-2.011771e+00
1.960000e-06	5.499667e-07	9.913326e-12	3.824839e+00	-6.155608e-01
1.970000e-06	5.964703e-07	2.629931e-11	4.148256e+00	7.872129e-01
1.980000e-06	6.429385e-07	5.093823e-11	4.471427e+00	2.195456e+00
1.990000e-06	6.894046e-07	7.864229e-11	4.794583e+00	3.608049e+00
2.000000e-06	7.357568e-07	1.069088e-10	5.116948e+00	5.023852e+00
2.010000e-06	7.820224e-07	1.293422e-10	5.438710e+00	6.441707e+00
2.020000e-06	8.282388e-07	1.478830e-10	5.760130e+00	7.860446e+00
2.030000e-06	8.743688e-07	1.616637e-10	6.080949e+00	9.278891e+00
2.040000e-06	9.204006e-07	1.764102e-10	6.401085e+00	1.069586e+01
2.050000e-06	9.664175e-07	1.930944e-10	6.721118e+00	1.211018e+01
2.060000e-06	1.012407e-06	2.113796e-10	7.040957e+00	1.352068e+01
2.070000e-06	1.058356e-06	2.331564e-10	7.360517e+00	1.492620e+01
2.080000e-06	1.104246e-06	2.564397e-10	7.679673e+00	1.632559e+01
2.090000e-06	1.150008e-06	2.786417e-10	7.997927e+00	1.771774e+01
2.100000e-06	1.195671e-06	2.988275e-10	8.315503e+00	1.910153e+01
2.110000e-06	1.241293e-06	3.154050e-10	8.632789e+00	2.047590e+01
2.120000e-06	1.286890e-06	3.311058e-10	8.949902e+00	2.183982e+01
2.130000e-06	1.332331e-06	3.478548e-10	9.265926e+00	2.319229e+01
2.140000e-06	1.377717e-06	3.655437e-10	9.581570e+00	2.453234e+01
2.150000e-06	1.423044e-06	3.838241e-10	9.896808e+00	2.585906e+01
2.160000e-06	1.468161e-06	4.033457e-10	1.021058e+01	2.717159e+01
2.170000e-06	1.513196e-06	4.237206e-10	1.052379e+01	2.846911e+01
2.180000e-06	1.558106e-06	4.431737e-10	1.083612e+01	2.975086e+01
2.190000e-06	1.602960e-06	4.620668e-10	1.114807e+01	3.101612e+01
2.200000e-06	1.647678e-06	4.775539e-10	1.145906e+01	3.226424e+01
2.210000e-06	1.692077e-06	4.917428e-10	1.176784e+01	3.349464e+01
2.220000e-06	1.736343e-06	5.068025e-10	1.207570e+01	3.470677e+01
2.230000e-06	1.780543e-06	5.234078e-10	1.238310e+01	3.590017e+01
2.240000e-06	1.824627e-06	5.406580e-10	1.268968e+01	3.707442e+01
2.250000e-06	1.868668e-06	5.577902e-10	1.299598e+01	3.822916e+01
2.260000e-06	1.912660e-06	5.723034e-10	1.330192e+01	3.936410e+01
2.270000e-06	1.956577e-06	5.864327e-10	1.360736e+01	4.047901e+01
2.280000e-06	2.000458e-06	6.001630e-10	1.391253e+01	4.157371e+01
2.290000e-06	2.044279e-06	6.134723e-10	1.421729e+01	4.264809e+01
2.300000e-06	2.088052e-06	6.272726e-10	1.452172e+01	4.370207e+01
2.310000e-06	2.131708e-06	6.423012e-10	1.482533e+01	4.473565e+01
2.320000e-06	2.175260e-06	6.574724e-10	1.512822e+01	4.574886e+01
2.330000e-06	2.218725e-06	6.721312e-10	1.543051e+01	4.674178e+01
2.340000e-06	2.262021e-06	6.861880e-10	1.573162e+01	4.771456e+01
2.350000e-06	2.305146e-06	7.001941e-10	1.603154e+01	4.866735e+01
2.360000e-06	2.348089e-06	7.128648e-10	1.633019e+01	4.960038e+01
2.370000e-06	2.390676e-06	7.232672e-10	1.662637e+01	5.051388e+01
2.380000e-06	2.432867e-06	7.343580e-10	1.691980e+01	5.140813e+01
2.390000e-06	2.474821e-06	7.478642e-10	1.721157e+01	5.228343e+01
2.400000e-06	2.516449e-06	7.621405e-10	1.750108e+01	5.314012e+01
2.410000e-06	2.557682e-06	7.775060e-10	1.778784e+01	5.397853e+01
2.420000e-06	2.598689e-06	7.931375e-10	1.807303e+01	5.479904e+01
2.430000e-06	2.639464e-06	8.069393e-10	1.835661e+01	5.560202e+01
2.440000e-06	2.680027e-06	8.179456e-10	1.863871e+01	5.638787e+01
2.450000e-06	2.720361e-06	8.280383e-10	1.891922e+01	5.715696e+01
2.460000e-06	2.760424e-06	8.377446e-10	1.919785e+01	5.790970e+01
2.470000e-06	2.800371e-06	8.463830e-10	1.947567e+01	5.864648e+01
2.480000e-06	2.840261e-06	8.566243e-10	1.975309e+01	5.936769e+01
2.490000e-06	2.880098e-06	8.678349e-10	2.003014e+01	6.007372e+01
2.500000e-06	2.919807e-06	8.787772e-10	2.030630e+01	6.076495e+01
2.510000e-06	2.959269e-06	8.894110e-10	2.058075e+01	6.144173e+01
2.520000e-06	2.998432e-06	9.005658e-10	2.085311e+01	6.210443e+01
2.530000e-06	3.037451e-06	9.114030e-10	2.112448e+01	6.275337e+01
2.540000e-06	3.076329e-06	9.202384e-10	2.139486e+01	6.338889e+01
2.550000e-06	3.114914e-06	9.267751e-10	2.166321e+01	6.401128e+01
2.560000e-06	3.153387e-06	9.339439e-10	2.193078e+01	6.462083e+01
2.570000e-06	3.191681e-06	9.403894e-10	2.219710e+01	6.521780e+01
2.580000e-06	3.229673e-06	9.457238e-10	2.246132e+01	6.580244e+01
2.590000e-06	3.267491e-06	9.522521e-10	2.272433e+01	6.637499e+01
2.600000e-06	3.305020e-06	9.615647e-10	2.298533e+01	6.693564e+01
2.610000e-06	3.342161e-06	9.710105e-10	2.324364e+01	6.748460e+01
2.620000e-06	3.379135e-06	9.803115e-10	2.350078e+01	6.802202e+01
2.630000e-06	3.415990e-06	9.891022e-10	2.375709e+01	6.854808e+01
2.640000e-06	3.452570e-06	9.938860e-10	2.401149e+01	6.906291e+01
2.650000e-06	3.488903e-06	9.979793e-10	2.426418e+01	6.956663e+01
2.660000e-06	3.525029e-06	1.004612e-09	2.451542e+01	7.005936e+01
2.670000e-06	3.560998e-06	1.014666e-09	2.476558e+01	7.054121e+01
2.680000e-06	3.596822e-06	1.023016e-09	2.501472e+01	7.101227e+01
2.690000e-06	3.632568e-06	1.029548e-09	2.526332e+01	7.147262e+01
2.700000e-06	3.668245e-06	1.035213e-09	2.551144e+01	7.192236e+01
2.710000e-06	3.703667e-06	1.042051e-09	2.575779e+01	7.236154e+01
2.720000e-06	3.738653e-06	1.050468e-09	2.600111e+01	7.279027e+01
2.730000e-06	3.773157e-06	1.060171e-09	2.624108e+01	7.320861e+01
2.740000e-06	3.807342e-06	1.069230e-09	2.647882e+01	7.361664e+01
2.750000e-06	3.841118e-06	1.076112e-09	2.671372e+01	7.401445e+01
2.760000e-06	3.874322e-06	1.082955e-09	2.694464e+01	7.440214e+01
2.770000e-06	3.907102e-06	1.088280e-09	2.717261e+01	7.477980e+01
2.780000e-06	3.939593e-06	1.092168e-09	2.739858e+01	7.514754e+01
2.790000e-06	3.971804e-06	1.097062e-09	2.762260e+01	7.550549e+01
2.800000e-06	4.003822e-06	1.103902e-09	2.784527e+01	7.585377e+01
2.810000e-06	4.035732e-06	1.111538e-09	2.806720e+01	7.619254e+01
2.820000e-06	4.067491e-06	1.118219e-09	2.828807e+01	7.652194e+01
2.830000e-06	4.098904e-06	1.123428e-09	2.850654e+01	7.684216e+01
2.840000e-06	4.130073e-06	1.128532e-09	2.872330e+01	7.715339e+01
2.850000e-06	4.161064e-06	1.130744e-09	2.893884e+01	7.745581e+01
2.860000e-06	4.191724e-06	1.131489e-09	2.915207e+01	7.774966e+01
2.870000e-06	4.222044e-06	1.131380e-09	2.936293e+01	7.803515e+01
2.880000e-06	4.251992e-06	1.133580e-09	2.957121e+01	7.831255e+01
2.890000e-06	4.281700e-06	1.139898e-09	2.977782e+01	7.858209e+01
2.900000e-06	4.311209e-06	1.147324e-09	2.998305e+01	7.884406e+01
