# Temperatura_=_13.4
# Concentracion g/m^3_=_1620.0
# C_Vs_to_Am_M_A/Vsm_=_65563218390.804596
# pendiente_HvsI_1/m_=_3716.3
# ordenada_HvsI_A/m_=_1297.0
# frecuencia_Hz_=_135102.01103480416

Tiempo_(s)	Campo_(V.s)	Magnetizacion_(V.s)	Campo_(kA/m)	Magnetizacion_(A/m)
0.000000e+00	-5.533759e-06	-8.486693e-10	-3.837398e+01	-5.567449e+01
1.000000e-08	-5.533843e-06	-8.475579e-10	-3.837457e+01	-5.568176e+01
2.000000e-08	-5.533660e-06	-8.471392e-10	-3.837330e+01	-5.568506e+01
3.000000e-08	-5.533052e-06	-8.448413e-10	-3.836908e+01	-5.568424e+01
4.000000e-08	-5.531951e-06	-8.423162e-10	-3.836144e+01	-5.567923e+01
5.000000e-08	-5.530267e-06	-8.451393e-10	-3.834977e+01	-5.566993e+01
6.000000e-08	-5.527932e-06	-8.503435e-10	-3.833358e+01	-5.565629e+01
7.000000e-08	-5.524981e-06	-8.363777e-10	-3.831311e+01	-5.563826e+01
8.000000e-08	-5.521544e-06	-8.088435e-10	-3.828928e+01	-5.561582e+01
9.000000e-08	-5.517686e-06	-8.353347e-10	-3.826252e+01	-5.558896e+01
1.000000e-07	-5.513451e-06	-8.851583e-10	-3.823315e+01	-5.555772e+01
1.100000e-07	-5.508898e-06	-8.718201e-10	-3.820159e+01	-5.552213e+01
1.200000e-07	-5.504143e-06	-7.807957e-10	-3.816861e+01	-5.548225e+01
1.300000e-07	-5.499185e-06	-7.881994e-10	-3.813423e+01	-5.543819e+01
1.400000e-07	-5.493879e-06	-8.372275e-10	-3.809743e+01	-5.539003e+01
1.500000e-07	-5.488180e-06	-8.493192e-10	-3.805792e+01	-5.533792e+01
1.600000e-07	-5.482046e-06	-7.874720e-10	-3.801538e+01	-5.528200e+01
1.700000e-07	-5.475434e-06	-8.202827e-10	-3.796953e+01	-5.522243e+01
1.800000e-07	-5.468280e-06	-8.742038e-10	-3.791992e+01	-5.515940e+01
1.900000e-07	-5.460755e-06	-8.507948e-10	-3.786774e+01	-5.509312e+01
2.000000e-07	-5.453096e-06	-7.795076e-10	-3.781462e+01	-5.502380e+01
2.100000e-07	-5.445247e-06	-7.816761e-10	-3.776020e+01	-5.495166e+01
2.200000e-07	-5.437124e-06	-8.225958e-10	-3.770387e+01	-5.487695e+01
2.300000e-07	-5.428619e-06	-8.289101e-10	-3.764489e+01	-5.479991e+01
2.400000e-07	-5.419704e-06	-8.210358e-10	-3.758307e+01	-5.472080e+01
2.500000e-07	-5.410147e-06	-8.161120e-10	-3.751679e+01	-5.463987e+01
2.600000e-07	-5.399820e-06	-8.291631e-10	-3.744518e+01	-5.455739e+01
2.700000e-07	-5.388940e-06	-8.105068e-10	-3.736973e+01	-5.447362e+01
2.800000e-07	-5.377623e-06	-8.147459e-10	-3.729125e+01	-5.438881e+01
2.900000e-07	-5.365905e-06	-8.157298e-10	-3.720999e+01	-5.430322e+01
3.000000e-07	-5.353784e-06	-8.392033e-10	-3.712594e+01	-5.421708e+01
3.100000e-07	-5.341287e-06	-8.361801e-10	-3.703928e+01	-5.413064e+01
3.200000e-07	-5.328351e-06	-8.365888e-10	-3.694958e+01	-5.404411e+01
3.300000e-07	-5.314979e-06	-8.057201e-10	-3.685685e+01	-5.395771e+01
3.400000e-07	-5.301211e-06	-8.214391e-10	-3.676138e+01	-5.387160e+01
3.500000e-07	-5.287014e-06	-8.075916e-10	-3.666292e+01	-5.378598e+01
3.600000e-07	-5.272347e-06	-7.965205e-10	-3.656121e+01	-5.370098e+01
3.700000e-07	-5.257282e-06	-8.051831e-10	-3.645675e+01	-5.361673e+01
3.800000e-07	-5.241852e-06	-8.574649e-10	-3.634974e+01	-5.353334e+01
3.900000e-07	-5.225746e-06	-8.222353e-10	-3.623806e+01	-5.345088e+01
4.000000e-07	-5.209179e-06	-7.914253e-10	-3.612317e+01	-5.336940e+01
4.100000e-07	-5.192395e-06	-8.260619e-10	-3.600678e+01	-5.328893e+01
4.200000e-07	-5.175130e-06	-8.299246e-10	-3.588706e+01	-5.320947e+01
4.300000e-07	-5.157480e-06	-7.731274e-10	-3.576467e+01	-5.313098e+01
4.400000e-07	-5.139604e-06	-7.994599e-10	-3.564071e+01	-5.305341e+01
4.500000e-07	-5.121359e-06	-8.563196e-10	-3.551418e+01	-5.297667e+01
4.600000e-07	-5.102656e-06	-8.037438e-10	-3.538449e+01	-5.290066e+01
4.700000e-07	-5.083563e-06	-7.787963e-10	-3.525209e+01	-5.282524e+01
4.800000e-07	-5.064224e-06	-8.338336e-10	-3.511798e+01	-5.275025e+01
4.900000e-07	-5.044681e-06	-8.220471e-10	-3.498246e+01	-5.267552e+01
5.000000e-07	-5.024846e-06	-7.641002e-10	-3.484492e+01	-5.260084e+01
5.100000e-07	-5.004739e-06	-8.067617e-10	-3.470548e+01	-5.252600e+01
5.200000e-07	-4.984389e-06	-8.170751e-10	-3.456436e+01	-5.245076e+01
5.300000e-07	-4.963689e-06	-7.690281e-10	-3.442082e+01	-5.237487e+01
5.400000e-07	-4.942566e-06	-7.902903e-10	-3.427434e+01	-5.229808e+01
5.500000e-07	-4.921013e-06	-8.357042e-10	-3.412488e+01	-5.222011e+01
5.600000e-07	-4.899091e-06	-7.753963e-10	-3.397286e+01	-5.214069e+01
5.700000e-07	-4.876928e-06	-7.628033e-10	-3.381917e+01	-5.205955e+01
5.800000e-07	-4.854505e-06	-8.076465e-10	-3.366368e+01	-5.197642e+01
5.900000e-07	-4.831759e-06	-7.900434e-10	-3.350595e+01	-5.189101e+01
6.000000e-07	-4.808659e-06	-7.521060e-10	-3.334576e+01	-5.180306e+01
6.100000e-07	-4.785259e-06	-7.918775e-10	-3.318349e+01	-5.171233e+01
6.200000e-07	-4.761609e-06	-7.864796e-10	-3.301949e+01	-5.161855e+01
6.300000e-07	-4.737682e-06	-7.480110e-10	-3.285356e+01	-5.152151e+01
6.400000e-07	-4.713394e-06	-7.620195e-10	-3.268514e+01	-5.142098e+01
6.500000e-07	-4.688685e-06	-7.829611e-10	-3.251380e+01	-5.131678e+01
6.600000e-07	-4.663561e-06	-7.515934e-10	-3.233958e+01	-5.120873e+01
6.700000e-07	-4.637994e-06	-7.519956e-10	-3.216228e+01	-5.109669e+01
6.800000e-07	-4.612021e-06	-7.679911e-10	-3.198217e+01	-5.098053e+01
6.900000e-07	-4.585574e-06	-7.516523e-10	-3.179877e+01	-5.086016e+01
7.000000e-07	-4.558567e-06	-7.392993e-10	-3.161149e+01	-5.073550e+01
7.100000e-07	-4.531180e-06	-7.527859e-10	-3.142157e+01	-5.060652e+01
7.200000e-07	-4.503559e-06	-7.436687e-10	-3.123004e+01	-5.047321e+01
7.300000e-07	-4.475751e-06	-7.327103e-10	-3.103720e+01	-5.033559e+01
7.400000e-07	-4.447796e-06	-7.498321e-10	-3.084335e+01	-5.019371e+01
7.500000e-07	-4.419605e-06	-7.538907e-10	-3.064785e+01	-5.004763e+01
7.600000e-07	-4.391100e-06	-7.399525e-10	-3.045019e+01	-4.989748e+01
7.700000e-07	-4.362309e-06	-7.399438e-10	-3.025054e+01	-4.974337e+01
7.800000e-07	-4.333238e-06	-7.413585e-10	-3.004894e+01	-4.958547e+01
7.900000e-07	-4.303837e-06	-7.233108e-10	-2.984506e+01	-4.942396e+01
8.000000e-07	-4.274021e-06	-7.234690e-10	-2.963830e+01	-4.925903e+01
8.100000e-07	-4.243906e-06	-7.327359e-10	-2.942947e+01	-4.909092e+01
8.200000e-07	-4.213563e-06	-7.280281e-10	-2.921905e+01	-4.891985e+01
8.300000e-07	-4.183001e-06	-7.205735e-10	-2.900712e+01	-4.874609e+01
8.400000e-07	-4.152145e-06	-7.303105e-10	-2.879315e+01	-4.856988e+01
8.500000e-07	-4.120959e-06	-7.211810e-10	-2.857689e+01	-4.839151e+01
8.600000e-07	-4.089530e-06	-7.082218e-10	-2.835894e+01	-4.821125e+01
8.700000e-07	-4.057869e-06	-7.094723e-10	-2.813939e+01	-4.802937e+01
8.800000e-07	-4.026062e-06	-7.142375e-10	-2.791882e+01	-4.784614e+01
8.900000e-07	-3.994068e-06	-7.036527e-10	-2.769696e+01	-4.766185e+01
9.000000e-07	-3.961834e-06	-7.049140e-10	-2.747343e+01	-4.747675e+01
9.100000e-07	-3.929185e-06	-7.042486e-10	-2.724703e+01	-4.729108e+01
9.200000e-07	-3.896095e-06	-6.941692e-10	-2.701756e+01	-4.710509e+01
9.300000e-07	-3.862635e-06	-6.891879e-10	-2.678553e+01	-4.691899e+01
9.400000e-07	-3.828751e-06	-6.981200e-10	-2.655056e+01	-4.673297e+01
9.500000e-07	-3.794434e-06	-6.957382e-10	-2.631259e+01	-4.654720e+01
9.600000e-07	-3.759731e-06	-6.920827e-10	-2.607195e+01	-4.636183e+01
9.700000e-07	-3.724731e-06	-6.944528e-10	-2.582923e+01	-4.617699e+01
9.800000e-07	-3.689421e-06	-6.911430e-10	-2.558438e+01	-4.599275e+01
9.900000e-07	-3.653838e-06	-6.804503e-10	-2.533763e+01	-4.580917e+01
1.000000e-06	-3.618112e-06	-6.778988e-10	-2.508988e+01	-4.562628e+01
1.010000e-06	-3.582303e-06	-6.776260e-10	-2.484157e+01	-4.544407e+01
1.020000e-06	-3.546325e-06	-6.733336e-10	-2.459207e+01	-4.526248e+01
1.030000e-06	-3.510107e-06	-6.728591e-10	-2.434092e+01	-4.508145e+01
1.040000e-06	-3.473632e-06	-6.756794e-10	-2.408799e+01	-4.490086e+01
1.050000e-06	-3.436867e-06	-6.695550e-10	-2.383304e+01	-4.472056e+01
1.060000e-06	-3.399827e-06	-6.585868e-10	-2.357618e+01	-4.454038e+01
1.070000e-06	-3.362579e-06	-6.578647e-10	-2.331788e+01	-4.436009e+01
1.080000e-06	-3.325069e-06	-6.579473e-10	-2.305777e+01	-4.417946e+01
1.090000e-06	-3.287299e-06	-6.576456e-10	-2.279585e+01	-4.399821e+01
1.100000e-06	-3.249402e-06	-6.561671e-10	-2.253306e+01	-4.381606e+01
1.110000e-06	-3.211282e-06	-6.513920e-10	-2.226871e+01	-4.363267e+01
1.120000e-06	-3.172921e-06	-6.392484e-10	-2.200270e+01	-4.344771e+01
1.130000e-06	-3.134329e-06	-6.325505e-10	-2.173508e+01	-4.326080e+01
1.140000e-06	-3.095450e-06	-6.297230e-10	-2.146547e+01	-4.307158e+01
1.150000e-06	-3.056371e-06	-6.260570e-10	-2.119448e+01	-4.287966e+01
1.160000e-06	-3.017198e-06	-6.212634e-10	-2.092283e+01	-4.268462e+01
1.170000e-06	-2.977978e-06	-6.231405e-10	-2.065086e+01	-4.248607e+01
1.180000e-06	-2.938610e-06	-6.214408e-10	-2.037786e+01	-4.228360e+01
1.190000e-06	-2.899005e-06	-6.177144e-10	-2.010322e+01	-4.207679e+01
1.200000e-06	-2.859261e-06	-6.147928e-10	-1.982761e+01	-4.186524e+01
1.210000e-06	-2.819393e-06	-6.106062e-10	-1.955115e+01	-4.164855e+01
1.220000e-06	-2.779288e-06	-6.023476e-10	-1.927304e+01	-4.142633e+01
1.230000e-06	-2.738965e-06	-5.985048e-10	-1.899342e+01	-4.119820e+01
1.240000e-06	-2.698421e-06	-5.965734e-10	-1.871227e+01	-4.096380e+01
1.250000e-06	-2.657566e-06	-5.946030e-10	-1.842896e+01	-4.072278e+01
1.260000e-06	-2.616499e-06	-5.932695e-10	-1.814418e+01	-4.047482e+01
1.270000e-06	-2.575230e-06	-5.929423e-10	-1.785799e+01	-4.021960e+01
1.280000e-06	-2.533680e-06	-5.878983e-10	-1.756986e+01	-3.995686e+01
1.290000e-06	-2.491902e-06	-5.801033e-10	-1.728016e+01	-3.968632e+01
1.300000e-06	-2.449792e-06	-5.721893e-10	-1.698814e+01	-3.940775e+01
1.310000e-06	-2.407339e-06	-5.661314e-10	-1.669375e+01	-3.912095e+01
1.320000e-06	-2.364699e-06	-5.614732e-10	-1.639806e+01	-3.882573e+01
1.330000e-06	-2.321842e-06	-5.596614e-10	-1.610087e+01	-3.852194e+01
1.340000e-06	-2.278723e-06	-5.590478e-10	-1.580186e+01	-3.820943e+01
1.350000e-06	-2.235441e-06	-5.548475e-10	-1.550172e+01	-3.788811e+01
1.360000e-06	-2.192029e-06	-5.496132e-10	-1.520068e+01	-3.755788e+01
1.370000e-06	-2.148430e-06	-5.450553e-10	-1.489834e+01	-3.721869e+01
1.380000e-06	-2.104682e-06	-5.407547e-10	-1.459497e+01	-3.687047e+01
1.390000e-06	-2.060895e-06	-5.331722e-10	-1.429132e+01	-3.651321e+01
1.400000e-06	-2.017041e-06	-5.269093e-10	-1.398722e+01	-3.614689e+01
1.410000e-06	-1.973111e-06	-5.211305e-10	-1.368259e+01	-3.577151e+01
1.420000e-06	-1.929060e-06	-5.152027e-10	-1.337711e+01	-3.538708e+01
1.430000e-06	-1.884775e-06	-5.081555e-10	-1.307002e+01	-3.499360e+01
1.440000e-06	-1.840409e-06	-5.024936e-10	-1.276236e+01	-3.459111e+01
1.450000e-06	-1.796061e-06	-4.968073e-10	-1.245483e+01	-3.417961e+01
1.460000e-06	-1.751555e-06	-4.913549e-10	-1.214620e+01	-3.375913e+01
1.470000e-06	-1.706824e-06	-4.833446e-10	-1.183601e+01	-3.332968e+01
1.480000e-06	-1.661936e-06	-4.745848e-10	-1.152473e+01	-3.289125e+01
1.490000e-06	-1.616852e-06	-4.660348e-10	-1.121210e+01	-3.244385e+01
1.500000e-06	-1.571718e-06	-4.593118e-10	-1.089912e+01	-3.198745e+01
1.510000e-06	-1.526591e-06	-4.524244e-10	-1.058618e+01	-3.152200e+01
1.520000e-06	-1.481324e-06	-4.450282e-10	-1.027227e+01	-3.104746e+01
1.530000e-06	-1.436000e-06	-4.351721e-10	-9.957978e+00	-3.056375e+01
1.540000e-06	-1.390557e-06	-4.253853e-10	-9.642848e+00	-3.007076e+01
1.550000e-06	-1.344980e-06	-4.157790e-10	-9.326794e+00	-2.956837e+01
1.560000e-06	-1.299309e-06	-4.071794e-10	-9.010088e+00	-2.905644e+01
1.570000e-06	-1.253509e-06	-3.997130e-10	-8.692489e+00	-2.853479e+01
1.580000e-06	-1.207637e-06	-3.935808e-10	-8.374387e+00	-2.800322e+01
1.590000e-06	-1.161724e-06	-3.855789e-10	-8.056001e+00	-2.746150e+01
1.600000e-06	-1.115781e-06	-3.751914e-10	-7.737407e+00	-2.690939e+01
1.610000e-06	-1.069688e-06	-3.638576e-10	-7.417775e+00	-2.634661e+01
1.620000e-06	-1.023503e-06	-3.515735e-10	-7.097504e+00	-2.577288e+01
1.630000e-06	-9.772157e-07	-3.397784e-10	-6.776525e+00	-2.518787e+01
1.640000e-06	-9.307925e-07	-3.275161e-10	-6.454603e+00	-2.459125e+01
1.650000e-06	-8.844105e-07	-3.165832e-10	-6.132966e+00	-2.398267e+01
1.660000e-06	-8.379311e-07	-3.063478e-10	-5.810653e+00	-2.336179e+01
1.670000e-06	-7.912946e-07	-3.002509e-10	-5.487251e+00	-2.272822e+01
1.680000e-06	-7.446916e-07	-2.950827e-10	-5.164081e+00	-2.208160e+01
1.690000e-06	-6.981319e-07	-2.895907e-10	-4.841212e+00	-2.142156e+01
1.700000e-06	-6.515246e-07	-2.811584e-10	-4.518013e+00	-2.074773e+01
1.710000e-06	-6.048684e-07	-2.690089e-10	-4.194474e+00	-2.005975e+01
1.720000e-06	-5.581880e-07	-2.566152e-10	-3.870768e+00	-1.935729e+01
1.730000e-06	-5.114420e-07	-2.457446e-10	-3.546607e+00	-1.864001e+01
1.740000e-06	-4.645784e-07	-2.355283e-10	-3.221630e+00	-1.790761e+01
1.750000e-06	-4.176093e-07	-2.277249e-10	-2.895922e+00	-1.715983e+01
1.760000e-06	-3.706141e-07	-2.193733e-10	-2.570032e+00	-1.639643e+01
1.770000e-06	-3.236538e-07	-2.113521e-10	-2.244385e+00	-1.561721e+01
1.780000e-06	-2.767044e-07	-2.033516e-10	-1.918813e+00	-1.482202e+01
1.790000e-06	-2.297439e-07	-1.909604e-10	-1.593164e+00	-1.401074e+01
1.800000e-06	-1.828041e-07	-1.743799e-10	-1.267660e+00	-1.318333e+01
1.810000e-06	-1.358766e-07	-1.577469e-10	-9.422395e-01	-1.233980e+01
1.820000e-06	-8.894323e-08	-1.436791e-10	-6.167790e-01	-1.148021e+01
1.830000e-06	-4.196151e-08	-1.321720e-10	-2.909831e-01	-1.060469e+01
1.840000e-06	5.005726e-09	-1.207016e-10	3.471233e-02	-9.713433e+00
1.850000e-06	5.197624e-08	-1.100651e-10	3.604305e-01	-8.806718e+00
1.860000e-06	9.900224e-08	-9.787778e-11	6.865334e-01	-7.884879e+00
1.870000e-06	1.460429e-07	-8.400583e-11	1.012738e+00	-6.948331e+00
1.880000e-06	1.930880e-07	-6.979000e-11	1.338974e+00	-5.997562e+00
1.890000e-06	2.400821e-07	-5.386361e-11	1.664855e+00	-5.033134e+00
1.900000e-06	2.870133e-07	-3.804849e-11	1.990301e+00	-4.055684e+00
1.910000e-06	3.339480e-07	-2.314147e-11	2.315770e+00	-3.065922e+00
1.920000e-06	3.809638e-07	-1.067259e-11	2.641802e+00	-2.064632e+00
1.930000e-06	4.279885e-07	2.339045e-12	2.967896e+00	-1.052666e+00
1.940000e-06	4.747999e-07	1.422787e-11	3.292511e+00	-3.094484e-02
1.950000e-06	5.215175e-07	2.524515e-11	3.616476e+00	9.995481e-01
1.960000e-06	5.683034e-07	3.824642e-11	3.940913e+00	2.037768e+00
1.970000e-06	6.150243e-07	5.477284e-11	4.264901e+00	3.082614e+00
1.980000e-06	6.616622e-07	7.231531e-11	4.588312e+00	4.132935e+00
1.990000e-06	7.082174e-07	8.975064e-11	4.911150e+00	5.187533e+00
2.000000e-06	7.547170e-07	1.060921e-10	5.233603e+00	6.245171e+00
2.010000e-06	8.011573e-07	1.205576e-10	5.555644e+00	7.304578e+00
2.020000e-06	8.475259e-07	1.334692e-10	5.877189e+00	8.364456e+00
2.030000e-06	8.938096e-07	1.469269e-10	6.198144e+00	9.423485e+00
2.040000e-06	9.400823e-07	1.599280e-10	6.519023e+00	1.048033e+01
2.050000e-06	9.863105e-07	1.740845e-10	6.839593e+00	1.153366e+01
2.060000e-06	1.032430e-06	1.897419e-10	7.159412e+00	1.258213e+01
2.070000e-06	1.078466e-06	2.064953e-10	7.478650e+00	1.362442e+01
2.080000e-06	1.124393e-06	2.224691e-10	7.797132e+00	1.465920e+01
2.090000e-06	1.170235e-06	2.365409e-10	8.115024e+00	1.568520e+01
2.100000e-06	1.216006e-06	2.498487e-10	8.432420e+00	1.670114e+01
2.110000e-06	1.261707e-06	2.616556e-10	8.749340e+00	1.770581e+01
2.120000e-06	1.307313e-06	2.740299e-10	9.065593e+00	1.869802e+01
2.130000e-06	1.352867e-06	2.869182e-10	9.381485e+00	1.967665e+01
2.140000e-06	1.398368e-06	2.999434e-10	9.697015e+00	2.064063e+01
2.150000e-06	1.443732e-06	3.131256e-10	1.001160e+01	2.158894e+01
2.160000e-06	1.489022e-06	3.275697e-10	1.032566e+01	2.252063e+01
2.170000e-06	1.534211e-06	3.414054e-10	1.063902e+01	2.343485e+01
2.180000e-06	1.579189e-06	3.520884e-10	1.095093e+01	2.433079e+01
2.190000e-06	1.624066e-06	3.623955e-10	1.126212e+01	2.520773e+01
2.200000e-06	1.668947e-06	3.727735e-10	1.157335e+01	2.606504e+01
2.210000e-06	1.713721e-06	3.846043e-10	1.188384e+01	2.690218e+01
2.220000e-06	1.758203e-06	3.979046e-10	1.219230e+01	2.771868e+01
2.230000e-06	1.802536e-06	4.084983e-10	1.249973e+01	2.851417e+01
2.240000e-06	1.846802e-06	4.169926e-10	1.280669e+01	2.928836e+01
2.250000e-06	1.890914e-06	4.253856e-10	1.311259e+01	3.004106e+01
2.260000e-06	1.934878e-06	4.344032e-10	1.341745e+01	3.077215e+01
2.270000e-06	1.978734e-06	4.421754e-10	1.372158e+01	3.148161e+01
2.280000e-06	2.022552e-06	4.493512e-10	1.402543e+01	3.216950e+01
2.290000e-06	2.066321e-06	4.566477e-10	1.432896e+01	3.283597e+01
2.300000e-06	2.110037e-06	4.653564e-10	1.463210e+01	3.348122e+01
2.310000e-06	2.153646e-06	4.741770e-10	1.493451e+01	3.410555e+01
2.320000e-06	2.197135e-06	4.831070e-10	1.523608e+01	3.470934e+01
2.330000e-06	2.240571e-06	4.907569e-10	1.553729e+01	3.529299e+01
2.340000e-06	2.283896e-06	4.978532e-10	1.583773e+01	3.585702e+01
2.350000e-06	2.327076e-06	5.050599e-10	1.613716e+01	3.640195e+01
2.360000e-06	2.369983e-06	5.112600e-10	1.643471e+01	3.692839e+01
2.370000e-06	2.412581e-06	5.174158e-10	1.673010e+01	3.743697e+01
2.380000e-06	2.455020e-06	5.246181e-10	1.702440e+01	3.792837e+01
2.390000e-06	2.497149e-06	5.334121e-10	1.731654e+01	3.840329e+01
2.400000e-06	2.538980e-06	5.427836e-10	1.760662e+01	3.886247e+01
2.410000e-06	2.580440e-06	5.516782e-10	1.789412e+01	3.930666e+01
2.420000e-06	2.621461e-06	5.601971e-10	1.817858e+01	3.973662e+01
2.430000e-06	2.662274e-06	5.674005e-10	1.846160e+01	4.015312e+01
2.440000e-06	2.702846e-06	5.744758e-10	1.874295e+01	4.055693e+01
2.450000e-06	2.743166e-06	5.803598e-10	1.902255e+01	4.094882e+01
2.460000e-06	2.783263e-06	5.844361e-10	1.930061e+01	4.132954e+01
2.470000e-06	2.823186e-06	5.912872e-10	1.957745e+01	4.169983e+01
2.480000e-06	2.863069e-06	5.980203e-10	1.985402e+01	4.206040e+01
2.490000e-06	2.902858e-06	6.032767e-10	2.012994e+01	4.241194e+01
2.500000e-06	2.942493e-06	6.082243e-10	2.040479e+01	4.275512e+01
2.510000e-06	2.982029e-06	6.120303e-10	2.067895e+01	4.309055e+01
2.520000e-06	3.021453e-06	6.159281e-10	2.095234e+01	4.341883e+01
2.530000e-06	3.060647e-06	6.204500e-10	2.122413e+01	4.374051e+01
2.540000e-06	3.099556e-06	6.253586e-10	2.149394e+01	4.405609e+01
2.550000e-06	3.138185e-06	6.298916e-10	2.176182e+01	4.436602e+01
2.560000e-06	3.176573e-06	6.338074e-10	2.202802e+01	4.467074e+01
2.570000e-06	3.214729e-06	6.374528e-10	2.229262e+01	4.497059e+01
2.580000e-06	3.252682e-06	6.402052e-10	2.255580e+01	4.526590e+01
2.590000e-06	3.290475e-06	6.435259e-10	2.281788e+01	4.555695e+01
2.600000e-06	3.328029e-06	6.471696e-10	2.307829e+01	4.584395e+01
2.610000e-06	3.365423e-06	6.525351e-10	2.333760e+01	4.612709e+01
2.620000e-06	3.402655e-06	6.599590e-10	2.359579e+01	4.640649e+01
2.630000e-06	3.439554e-06	6.663546e-10	2.385167e+01	4.668224e+01
2.640000e-06	3.476084e-06	6.706215e-10	2.410499e+01	4.695440e+01
2.650000e-06	3.512305e-06	6.747818e-10	2.435616e+01	4.722296e+01
2.660000e-06	3.548343e-06	6.787742e-10	2.460607e+01	4.748790e+01
2.670000e-06	3.584246e-06	6.816447e-10	2.485504e+01	4.774917e+01
2.680000e-06	3.620027e-06	6.841918e-10	2.510316e+01	4.800666e+01
2.690000e-06	3.655725e-06	6.884456e-10	2.535071e+01	4.826025e+01
2.700000e-06	3.691340e-06	6.942537e-10	2.559768e+01	4.850981e+01
2.710000e-06	3.726733e-06	7.006201e-10	2.584312e+01	4.875516e+01
2.720000e-06	3.761794e-06	7.080307e-10	2.608625e+01	4.899614e+01
2.730000e-06	3.796571e-06	7.147543e-10	2.632741e+01	4.923254e+01
2.740000e-06	3.830953e-06	7.183664e-10	2.656584e+01	4.946416e+01
2.750000e-06	3.864832e-06	7.192081e-10	2.680077e+01	4.969079e+01
2.760000e-06	3.898218e-06	7.200487e-10	2.703229e+01	4.991223e+01
2.770000e-06	3.931108e-06	7.221575e-10	2.726036e+01	5.012826e+01
2.780000e-06	3.963511e-06	7.261079e-10	2.748506e+01	5.033869e+01
2.790000e-06	3.995588e-06	7.314580e-10	2.770750e+01	5.054331e+01
2.800000e-06	4.027501e-06	7.364149e-10	2.792880e+01	5.074193e+01
2.810000e-06	4.059312e-06	7.389569e-10	2.814940e+01	5.093439e+01
2.820000e-06	4.091009e-06	7.404230e-10	2.836920e+01	5.112053e+01
2.830000e-06	4.122516e-06	7.419900e-10	2.858769e+01	5.130020e+01
2.840000e-06	4.153748e-06	7.424456e-10	2.880427e+01	5.147329e+01
2.850000e-06	4.184605e-06	7.447051e-10	2.901824e+01	5.163970e+01
2.860000e-06	4.215103e-06	7.493397e-10	2.922973e+01	5.179935e+01
2.870000e-06	4.245292e-06	7.525841e-10	2.943908e+01	5.195219e+01
2.880000e-06	4.275190e-06	7.555961e-10	2.964641e+01	5.209818e+01
2.890000e-06	4.304824e-06	7.583691e-10	2.985190e+01	5.223734e+01
2.900000e-06	4.334260e-06	7.596059e-10	3.005603e+01	5.236967e+01
