# Temperatura_=_-0.57
# Concentracion g/m^3_=_1620.0
# C_Vs_to_Am_M_A/Vsm_=_65563218390.804596
# pendiente_HvsI_1/m_=_3716.3
# ordenada_HvsI_A/m_=_1297.0
# frecuencia_Hz_=_135088.33176157527

Tiempo_(s)	Campo_(V.s)	Magnetizacion_(V.s)	Campo_(kA/m)	Magnetizacion_(A/m)
0.000000e+00	-5.531496e-06	-1.322307e-09	-3.837400e+01	-8.547728e+01
1.000000e-08	-5.531745e-06	-1.322754e-09	-3.837573e+01	-8.545947e+01
2.000000e-08	-5.531745e-06	-1.325000e-09	-3.837573e+01	-8.543895e+01
3.000000e-08	-5.531368e-06	-1.327276e-09	-3.837312e+01	-8.541572e+01
4.000000e-08	-5.530563e-06	-1.328361e-09	-3.836754e+01	-8.538977e+01
5.000000e-08	-5.529168e-06	-1.326191e-09	-3.835786e+01	-8.536111e+01
6.000000e-08	-5.527083e-06	-1.315313e-09	-3.834339e+01	-8.532974e+01
7.000000e-08	-5.524420e-06	-1.290896e-09	-3.832492e+01	-8.529567e+01
8.000000e-08	-5.521268e-06	-1.292294e-09	-3.830305e+01	-8.525892e+01
9.000000e-08	-5.517693e-06	-1.348140e-09	-3.827825e+01	-8.521950e+01
1.000000e-07	-5.513693e-06	-1.397239e-09	-3.825050e+01	-8.517744e+01
1.100000e-07	-5.509274e-06	-1.337034e-09	-3.821985e+01	-8.513278e+01
1.200000e-07	-5.504739e-06	-1.246535e-09	-3.818838e+01	-8.508555e+01
1.300000e-07	-5.500114e-06	-1.232683e-09	-3.815630e+01	-8.503579e+01
1.400000e-07	-5.495060e-06	-1.348781e-09	-3.812124e+01	-8.498354e+01
1.500000e-07	-5.489530e-06	-1.316930e-09	-3.808288e+01	-8.492885e+01
1.600000e-07	-5.483683e-06	-1.268997e-09	-3.804231e+01	-8.487177e+01
1.700000e-07	-5.477425e-06	-1.260517e-09	-3.799890e+01	-8.481236e+01
1.800000e-07	-5.470724e-06	-1.366620e-09	-3.795241e+01	-8.475066e+01
1.900000e-07	-5.463611e-06	-1.344452e-09	-3.790307e+01	-8.468674e+01
2.000000e-07	-5.456146e-06	-1.269915e-09	-3.785128e+01	-8.462066e+01
2.100000e-07	-5.448496e-06	-1.248440e-09	-3.779820e+01	-8.455245e+01
2.200000e-07	-5.440634e-06	-1.307338e-09	-3.774366e+01	-8.448217e+01
2.300000e-07	-5.432505e-06	-1.333906e-09	-3.768727e+01	-8.440988e+01
2.400000e-07	-5.423930e-06	-1.289486e-09	-3.762778e+01	-8.433561e+01
2.500000e-07	-5.414659e-06	-1.278285e-09	-3.756346e+01	-8.425940e+01
2.600000e-07	-5.404512e-06	-1.279821e-09	-3.749308e+01	-8.418128e+01
2.700000e-07	-5.393735e-06	-1.297284e-09	-3.741831e+01	-8.410129e+01
2.800000e-07	-5.382678e-06	-1.259563e-09	-3.734160e+01	-8.401942e+01
2.900000e-07	-5.371226e-06	-1.275394e-09	-3.726216e+01	-8.393569e+01
3.000000e-07	-5.359276e-06	-1.271076e-09	-3.717925e+01	-8.385011e+01
3.100000e-07	-5.346982e-06	-1.300631e-09	-3.709396e+01	-8.376264e+01
3.200000e-07	-5.334381e-06	-1.266663e-09	-3.700655e+01	-8.367328e+01
3.300000e-07	-5.321316e-06	-1.273086e-09	-3.691591e+01	-8.358198e+01
3.400000e-07	-5.307854e-06	-1.255727e-09	-3.682252e+01	-8.348871e+01
3.500000e-07	-5.294030e-06	-1.280402e-09	-3.672662e+01	-8.339339e+01
3.600000e-07	-5.279700e-06	-1.249697e-09	-3.662721e+01	-8.329597e+01
3.700000e-07	-5.264895e-06	-1.261824e-09	-3.652450e+01	-8.319637e+01
3.800000e-07	-5.249615e-06	-1.258730e-09	-3.641849e+01	-8.309448e+01
3.900000e-07	-5.233780e-06	-1.260441e-09	-3.630864e+01	-8.299022e+01
4.000000e-07	-5.217481e-06	-1.232383e-09	-3.619557e+01	-8.288347e+01
4.100000e-07	-5.200852e-06	-1.255474e-09	-3.608021e+01	-8.277411e+01
4.200000e-07	-5.183856e-06	-1.254013e-09	-3.596230e+01	-8.266202e+01
4.300000e-07	-5.166500e-06	-1.223940e-09	-3.584190e+01	-8.254705e+01
4.400000e-07	-5.148859e-06	-1.231354e-09	-3.571952e+01	-8.242908e+01
4.500000e-07	-5.130825e-06	-1.270425e-09	-3.559441e+01	-8.230796e+01
4.600000e-07	-5.112381e-06	-1.248809e-09	-3.546646e+01	-8.218354e+01
4.700000e-07	-5.093529e-06	-1.204925e-09	-3.533567e+01	-8.205568e+01
4.800000e-07	-5.074318e-06	-1.233078e-09	-3.520240e+01	-8.192423e+01
4.900000e-07	-5.054859e-06	-1.241333e-09	-3.506740e+01	-8.178905e+01
5.000000e-07	-5.035216e-06	-1.207717e-09	-3.493113e+01	-8.164999e+01
5.100000e-07	-5.015402e-06	-1.204979e-09	-3.479368e+01	-8.150692e+01
5.200000e-07	-4.995282e-06	-1.236790e-09	-3.465410e+01	-8.135972e+01
5.300000e-07	-4.974749e-06	-1.207579e-09	-3.451165e+01	-8.120827e+01
5.400000e-07	-4.953746e-06	-1.207446e-09	-3.436595e+01	-8.105246e+01
5.500000e-07	-4.932450e-06	-1.235075e-09	-3.421821e+01	-8.089219e+01
5.600000e-07	-4.910928e-06	-1.222238e-09	-3.406890e+01	-8.072738e+01
5.700000e-07	-4.889041e-06	-1.172471e-09	-3.391706e+01	-8.055797e+01
5.800000e-07	-4.866784e-06	-1.200756e-09	-3.376266e+01	-8.038390e+01
5.900000e-07	-4.844166e-06	-1.204718e-09	-3.360575e+01	-8.020514e+01
6.000000e-07	-4.821198e-06	-1.175237e-09	-3.344641e+01	-8.002167e+01
6.100000e-07	-4.797900e-06	-1.176239e-09	-3.328478e+01	-7.983350e+01
6.200000e-07	-4.774371e-06	-1.209069e-09	-3.312155e+01	-7.964065e+01
6.300000e-07	-4.750692e-06	-1.175369e-09	-3.295729e+01	-7.944316e+01
6.400000e-07	-4.726766e-06	-1.160913e-09	-3.279130e+01	-7.924108e+01
6.500000e-07	-4.702467e-06	-1.176818e-09	-3.262273e+01	-7.903451e+01
6.600000e-07	-4.677622e-06	-1.173111e-09	-3.245037e+01	-7.882353e+01
6.700000e-07	-4.652288e-06	-1.148307e-09	-3.227462e+01	-7.860825e+01
6.800000e-07	-4.626520e-06	-1.167839e-09	-3.209586e+01	-7.838883e+01
6.900000e-07	-4.600175e-06	-1.169678e-09	-3.191310e+01	-7.816539e+01
7.000000e-07	-4.573322e-06	-1.151726e-09	-3.172681e+01	-7.793812e+01
7.100000e-07	-4.546092e-06	-1.150313e-09	-3.153790e+01	-7.770717e+01
7.200000e-07	-4.518630e-06	-1.160082e-09	-3.134739e+01	-7.747275e+01
7.300000e-07	-4.491022e-06	-1.140495e-09	-3.115586e+01	-7.723505e+01
7.400000e-07	-4.463275e-06	-1.132155e-09	-3.096337e+01	-7.699428e+01
7.500000e-07	-4.435357e-06	-1.144625e-09	-3.076969e+01	-7.675065e+01
7.600000e-07	-4.407111e-06	-1.137042e-09	-3.057374e+01	-7.650437e+01
7.700000e-07	-4.378473e-06	-1.123866e-09	-3.037507e+01	-7.625566e+01
7.800000e-07	-4.349488e-06	-1.127169e-09	-3.017399e+01	-7.600472e+01
7.900000e-07	-4.320220e-06	-1.126035e-09	-2.997095e+01	-7.575178e+01
8.000000e-07	-4.290655e-06	-1.110791e-09	-2.976584e+01	-7.549702e+01
8.100000e-07	-4.260876e-06	-1.113753e-09	-2.955925e+01	-7.524065e+01
8.200000e-07	-4.230802e-06	-1.113641e-09	-2.935062e+01	-7.498284e+01
8.300000e-07	-4.200377e-06	-1.105889e-09	-2.913955e+01	-7.472376e+01
8.400000e-07	-4.169637e-06	-1.102237e-09	-2.892629e+01	-7.446356e+01
8.500000e-07	-4.138619e-06	-1.110209e-09	-2.871111e+01	-7.420236e+01
8.600000e-07	-4.107362e-06	-1.099150e-09	-2.849427e+01	-7.394028e+01
8.700000e-07	-4.075884e-06	-1.093460e-09	-2.827589e+01	-7.367739e+01
8.800000e-07	-4.044332e-06	-1.089459e-09	-2.805701e+01	-7.341376e+01
8.900000e-07	-4.012607e-06	-1.086080e-09	-2.783692e+01	-7.314943e+01
9.000000e-07	-3.980628e-06	-1.070404e-09	-2.761507e+01	-7.288440e+01
9.100000e-07	-3.948284e-06	-1.069407e-09	-2.739069e+01	-7.261864e+01
9.200000e-07	-3.915541e-06	-1.066558e-09	-2.716354e+01	-7.235211e+01
9.300000e-07	-3.882332e-06	-1.065251e-09	-2.693315e+01	-7.208473e+01
9.400000e-07	-3.848646e-06	-1.067677e-09	-2.669946e+01	-7.181637e+01
9.500000e-07	-3.814543e-06	-1.068894e-09	-2.646287e+01	-7.154691e+01
9.600000e-07	-3.779935e-06	-1.056601e-09	-2.622279e+01	-7.127617e+01
9.700000e-07	-3.744893e-06	-1.049068e-09	-2.597969e+01	-7.100395e+01
9.800000e-07	-3.709617e-06	-1.045448e-09	-2.573497e+01	-7.073002e+01
9.900000e-07	-3.674196e-06	-1.040690e-09	-2.548924e+01	-7.045413e+01
1.000000e-06	-3.638616e-06	-1.033671e-09	-2.524240e+01	-7.017601e+01
1.010000e-06	-3.602879e-06	-1.033057e-09	-2.499449e+01	-6.989534e+01
1.020000e-06	-3.567048e-06	-1.029363e-09	-2.474592e+01	-6.961181e+01
1.030000e-06	-3.531109e-06	-1.023009e-09	-2.449659e+01	-6.932508e+01
1.040000e-06	-3.494928e-06	-1.020278e-09	-2.424559e+01	-6.903479e+01
1.050000e-06	-3.458377e-06	-1.015136e-09	-2.399202e+01	-6.874057e+01
1.060000e-06	-3.421500e-06	-1.000541e-09	-2.373619e+01	-6.844203e+01
1.070000e-06	-3.384372e-06	-9.904855e-10	-2.347862e+01	-6.813880e+01
1.080000e-06	-3.346987e-06	-9.890792e-10	-2.321927e+01	-6.783047e+01
1.090000e-06	-3.309377e-06	-9.851551e-10	-2.295836e+01	-6.751665e+01
1.100000e-06	-3.271500e-06	-9.832266e-10	-2.269559e+01	-6.719695e+01
1.110000e-06	-3.233465e-06	-9.805304e-10	-2.243173e+01	-6.687097e+01
1.120000e-06	-3.195331e-06	-9.729186e-10	-2.216718e+01	-6.653835e+01
1.130000e-06	-3.156959e-06	-9.581794e-10	-2.190098e+01	-6.619869e+01
1.140000e-06	-3.118422e-06	-9.517871e-10	-2.163364e+01	-6.585165e+01
1.150000e-06	-3.079666e-06	-9.443297e-10	-2.136477e+01	-6.549689e+01
1.160000e-06	-3.040626e-06	-9.356851e-10	-2.109393e+01	-6.513407e+01
1.170000e-06	-3.001435e-06	-9.322495e-10	-2.082205e+01	-6.476291e+01
1.180000e-06	-2.962034e-06	-9.330953e-10	-2.054871e+01	-6.438310e+01
1.190000e-06	-2.922476e-06	-9.275179e-10	-2.027428e+01	-6.399441e+01
1.200000e-06	-2.882858e-06	-9.208897e-10	-1.999944e+01	-6.359660e+01
1.210000e-06	-2.843099e-06	-9.124649e-10	-1.972362e+01	-6.318946e+01
1.220000e-06	-2.803157e-06	-9.015804e-10	-1.944653e+01	-6.277282e+01
1.230000e-06	-2.763067e-06	-8.880531e-10	-1.916840e+01	-6.234653e+01
1.240000e-06	-2.722779e-06	-8.838477e-10	-1.888891e+01	-6.191048e+01
1.250000e-06	-2.682243e-06	-8.797719e-10	-1.860770e+01	-6.146456e+01
1.260000e-06	-2.641465e-06	-8.753489e-10	-1.832481e+01	-6.100872e+01
1.270000e-06	-2.600350e-06	-8.742659e-10	-1.803958e+01	-6.054293e+01
1.280000e-06	-2.558863e-06	-8.719233e-10	-1.775177e+01	-6.006715e+01
1.290000e-06	-2.517045e-06	-8.619518e-10	-1.746166e+01	-5.958142e+01
1.300000e-06	-2.474983e-06	-8.488891e-10	-1.716986e+01	-5.908577e+01
1.310000e-06	-2.432737e-06	-8.377614e-10	-1.687679e+01	-5.858024e+01
1.320000e-06	-2.390186e-06	-8.292689e-10	-1.658159e+01	-5.806491e+01
1.330000e-06	-2.347283e-06	-8.225703e-10	-1.628396e+01	-5.753986e+01
1.340000e-06	-2.304155e-06	-8.216498e-10	-1.598476e+01	-5.700521e+01
1.350000e-06	-2.260918e-06	-8.182899e-10	-1.568481e+01	-5.646104e+01
1.360000e-06	-2.217529e-06	-8.096919e-10	-1.538381e+01	-5.590747e+01
1.370000e-06	-2.174023e-06	-8.005471e-10	-1.508199e+01	-5.534462e+01
1.380000e-06	-2.130422e-06	-7.908388e-10	-1.477952e+01	-5.477261e+01
1.390000e-06	-2.086741e-06	-7.805249e-10	-1.447649e+01	-5.419153e+01
1.400000e-06	-2.042997e-06	-7.692251e-10	-1.417301e+01	-5.360149e+01
1.410000e-06	-1.999119e-06	-7.608982e-10	-1.386862e+01	-5.300258e+01
1.420000e-06	-1.955138e-06	-7.531263e-10	-1.356351e+01	-5.239487e+01
1.430000e-06	-1.911133e-06	-7.461257e-10	-1.325823e+01	-5.177842e+01
1.440000e-06	-1.866968e-06	-7.414160e-10	-1.295184e+01	-5.115327e+01
1.450000e-06	-1.822596e-06	-7.347512e-10	-1.264402e+01	-5.051942e+01
1.460000e-06	-1.778269e-06	-7.216222e-10	-1.233650e+01	-4.987687e+01
1.470000e-06	-1.733859e-06	-7.049042e-10	-1.202842e+01	-4.922556e+01
1.480000e-06	-1.689211e-06	-6.884996e-10	-1.171867e+01	-4.856543e+01
1.490000e-06	-1.644360e-06	-6.747600e-10	-1.140752e+01	-4.789637e+01
1.500000e-06	-1.599342e-06	-6.645319e-10	-1.109522e+01	-4.721824e+01
1.510000e-06	-1.554261e-06	-6.566804e-10	-1.078247e+01	-4.653087e+01
1.520000e-06	-1.509082e-06	-6.472577e-10	-1.046905e+01	-4.583406e+01
1.530000e-06	-1.463780e-06	-6.364166e-10	-1.015478e+01	-4.512756e+01
1.540000e-06	-1.418463e-06	-6.207291e-10	-9.840396e+00	-4.441110e+01
1.550000e-06	-1.373087e-06	-6.046090e-10	-9.525605e+00	-4.368437e+01
1.560000e-06	-1.327597e-06	-5.884802e-10	-9.210027e+00	-4.294703e+01
1.570000e-06	-1.281999e-06	-5.752412e-10	-8.893695e+00	-4.219872e+01
1.580000e-06	-1.236320e-06	-5.632750e-10	-8.576802e+00	-4.143903e+01
1.590000e-06	-1.190541e-06	-5.522146e-10	-8.259217e+00	-4.066756e+01
1.600000e-06	-1.144629e-06	-5.414546e-10	-7.940711e+00	-3.988384e+01
1.610000e-06	-1.098713e-06	-5.293522e-10	-7.622170e+00	-3.908743e+01
1.620000e-06	-1.052725e-06	-5.114442e-10	-7.303139e+00	-3.827784e+01
1.630000e-06	-1.006612e-06	-4.959018e-10	-6.983233e+00	-3.745460e+01
1.640000e-06	-9.604406e-07	-4.803538e-10	-6.662927e+00	-3.661720e+01
1.650000e-06	-9.141840e-07	-4.660763e-10	-6.342028e+00	-3.576515e+01
1.660000e-06	-8.678711e-07	-4.547612e-10	-6.020738e+00	-3.489796e+01
1.670000e-06	-8.215289e-07	-4.422194e-10	-5.699246e+00	-3.401515e+01
1.680000e-06	-7.751278e-07	-4.280670e-10	-5.377345e+00	-3.311624e+01
1.690000e-06	-7.286953e-07	-4.138892e-10	-5.055225e+00	-3.220079e+01
1.700000e-06	-6.822329e-07	-4.019867e-10	-4.732899e+00	-3.126837e+01
1.710000e-06	-6.356264e-07	-3.864537e-10	-4.409573e+00	-3.031858e+01
1.720000e-06	-5.889264e-07	-3.707118e-10	-4.085598e+00	-2.935105e+01
1.730000e-06	-5.421835e-07	-3.555352e-10	-3.761325e+00	-2.836546e+01
1.740000e-06	-4.954069e-07	-3.416518e-10	-3.436818e+00	-2.736152e+01
1.750000e-06	-4.486139e-07	-3.274965e-10	-3.112198e+00	-2.633900e+01
1.760000e-06	-4.017382e-07	-3.127828e-10	-2.787005e+00	-2.529772e+01
1.770000e-06	-3.548428e-07	-2.968668e-10	-2.461674e+00	-2.423756e+01
1.780000e-06	-3.079158e-07	-2.813395e-10	-2.136125e+00	-2.315845e+01
1.790000e-06	-2.609105e-07	-2.678732e-10	-1.810032e+00	-2.206039e+01
1.800000e-06	-2.139189e-07	-2.513496e-10	-1.484033e+00	-2.094344e+01
1.810000e-06	-1.669230e-07	-2.304570e-10	-1.158006e+00	-1.980775e+01
1.820000e-06	-1.199406e-07	-2.106738e-10	-8.320716e-01	-1.865351e+01
1.830000e-06	-7.292253e-08	-1.914666e-10	-5.058902e-01	-1.748101e+01
1.840000e-06	-2.585241e-08	-1.758744e-10	-1.793476e-01	-1.629059e+01
1.850000e-06	2.116600e-08	-1.608742e-10	1.468363e-01	-1.508268e+01
1.860000e-06	6.804524e-08	-1.500912e-10	4.720547e-01	-1.385778e+01
1.870000e-06	1.149116e-07	-1.372687e-10	7.971836e-01	-1.261647e+01
1.880000e-06	1.617973e-07	-1.174304e-10	1.122447e+00	-1.135937e+01
1.890000e-06	2.087170e-07	-9.811921e-11	1.447946e+00	-1.008721e+01
1.900000e-06	2.557390e-07	-7.562856e-11	1.774155e+00	-8.800755e+00
1.910000e-06	3.026967e-07	-5.626899e-11	2.099918e+00	-7.500862e+00
1.920000e-06	3.496114e-07	-4.411612e-11	2.425382e+00	-6.188432e+00
1.930000e-06	3.964532e-07	-3.246528e-11	2.750341e+00	-4.864426e+00
1.940000e-06	4.433151e-07	-1.964970e-11	3.075438e+00	-3.529862e+00
1.950000e-06	4.901739e-07	-4.108971e-12	3.400515e+00	-2.185804e+00
1.960000e-06	5.368855e-07	1.246870e-11	3.724571e+00	-8.333602e-01
1.970000e-06	5.835793e-07	3.329553e-11	4.048503e+00	5.263208e-01
1.980000e-06	6.302639e-07	5.353697e-11	4.372371e+00	1.892059e+00
1.990000e-06	6.768525e-07	7.164197e-11	4.695573e+00	3.262646e+00
2.000000e-06	7.232983e-07	8.723943e-11	5.017785e+00	4.636853e+00
2.010000e-06	7.696765e-07	1.029219e-10	5.339527e+00	6.013435e+00
2.020000e-06	8.160603e-07	1.196149e-10	5.661309e+00	7.391138e+00
2.030000e-06	8.624350e-07	1.373808e-10	5.983027e+00	8.768704e+00
2.040000e-06	9.087178e-07	1.588552e-10	6.304107e+00	1.014488e+01
2.050000e-06	9.548653e-07	1.792100e-10	6.624249e+00	1.151842e+01
2.060000e-06	1.000940e-06	1.995137e-10	6.943885e+00	1.288809e+01
2.070000e-06	1.047005e-06	2.177396e-10	7.263456e+00	1.425269e+01
2.080000e-06	1.093022e-06	2.351311e-10	7.582695e+00	1.561103e+01
2.090000e-06	1.138815e-06	2.510748e-10	7.900376e+00	1.696196e+01
2.100000e-06	1.184459e-06	2.678633e-10	8.217024e+00	1.830436e+01
2.110000e-06	1.230181e-06	2.864939e-10	8.534213e+00	1.963717e+01
2.120000e-06	1.275901e-06	3.060210e-10	8.851393e+00	2.095935e+01
2.130000e-06	1.321457e-06	3.285396e-10	9.167428e+00	2.226993e+01
2.140000e-06	1.366901e-06	3.502614e-10	9.482692e+00	2.356798e+01
2.150000e-06	1.412243e-06	3.668996e-10	9.797247e+00	2.485263e+01
2.160000e-06	1.457548e-06	3.809553e-10	1.011154e+01	2.612307e+01
2.170000e-06	1.502798e-06	3.938494e-10	1.042546e+01	2.737856e+01
2.180000e-06	1.547919e-06	4.098076e-10	1.073848e+01	2.861841e+01
2.190000e-06	1.592979e-06	4.271704e-10	1.105108e+01	2.984199e+01
2.200000e-06	1.637918e-06	4.475602e-10	1.136283e+01	3.104875e+01
2.210000e-06	1.682703e-06	4.687929e-10	1.167352e+01	3.223819e+01
2.220000e-06	1.727404e-06	4.894421e-10	1.198363e+01	3.340990e+01
2.230000e-06	1.771932e-06	5.066920e-10	1.229254e+01	3.456349e+01
2.240000e-06	1.816221e-06	5.203554e-10	1.259979e+01	3.569867e+01
2.250000e-06	1.860367e-06	5.329895e-10	1.290604e+01	3.681521e+01
2.260000e-06	1.904420e-06	5.445539e-10	1.321166e+01	3.791291e+01
2.270000e-06	1.948355e-06	5.565579e-10	1.351645e+01	3.899165e+01
2.280000e-06	1.992227e-06	5.713068e-10	1.382081e+01	4.005137e+01
2.290000e-06	2.036026e-06	5.892985e-10	1.412466e+01	4.109204e+01
2.300000e-06	2.079702e-06	6.067945e-10	1.442765e+01	4.211369e+01
2.310000e-06	2.123326e-06	6.235159e-10	1.473029e+01	4.311641e+01
2.320000e-06	2.166904e-06	6.393151e-10	1.503261e+01	4.410030e+01
2.330000e-06	2.210364e-06	6.517030e-10	1.533410e+01	4.506552e+01
2.340000e-06	2.253701e-06	6.607901e-10	1.563474e+01	4.601226e+01
2.350000e-06	2.296937e-06	6.700294e-10	1.593469e+01	4.694074e+01
2.360000e-06	2.339968e-06	6.797829e-10	1.623321e+01	4.785119e+01
2.370000e-06	2.382843e-06	6.915684e-10	1.653065e+01	4.874389e+01
2.380000e-06	2.425520e-06	7.054769e-10	1.682672e+01	4.961913e+01
2.390000e-06	2.467863e-06	7.211041e-10	1.712047e+01	5.047720e+01
2.400000e-06	2.509869e-06	7.366844e-10	1.741188e+01	5.131841e+01
2.410000e-06	2.551626e-06	7.508264e-10	1.770156e+01	5.214309e+01
2.420000e-06	2.593157e-06	7.642880e-10	1.798968e+01	5.295156e+01
2.430000e-06	2.634244e-06	7.749997e-10	1.827472e+01	5.374413e+01
2.440000e-06	2.674933e-06	7.841479e-10	1.855699e+01	5.452115e+01
2.450000e-06	2.715429e-06	7.943545e-10	1.883792e+01	5.528292e+01
2.460000e-06	2.755788e-06	8.043474e-10	1.911791e+01	5.602976e+01
2.470000e-06	2.795930e-06	8.149375e-10	1.939639e+01	5.676197e+01
2.480000e-06	2.835885e-06	8.254543e-10	1.967357e+01	5.747985e+01
2.490000e-06	2.875690e-06	8.356654e-10	1.994971e+01	5.818369e+01
2.500000e-06	2.915335e-06	8.459861e-10	2.022474e+01	5.887374e+01
2.510000e-06	2.954876e-06	8.560845e-10	2.049906e+01	5.955028e+01
2.520000e-06	2.994287e-06	8.642068e-10	2.077247e+01	6.021353e+01
2.530000e-06	3.033537e-06	8.719036e-10	2.104476e+01	6.086373e+01
2.540000e-06	3.072605e-06	8.787386e-10	2.131578e+01	6.150109e+01
2.550000e-06	3.111388e-06	8.825222e-10	2.158483e+01	6.212580e+01
2.560000e-06	3.149901e-06	8.862164e-10	2.185202e+01	6.273806e+01
2.570000e-06	3.188307e-06	8.929390e-10	2.211845e+01	6.333802e+01
2.580000e-06	3.226486e-06	9.007505e-10	2.238331e+01	6.392585e+01
2.590000e-06	3.264343e-06	9.088374e-10	2.264594e+01	6.450168e+01
2.600000e-06	3.302019e-06	9.185576e-10	2.290731e+01	6.506567e+01
2.610000e-06	3.339485e-06	9.287489e-10	2.316723e+01	6.561792e+01
2.620000e-06	3.376715e-06	9.382543e-10	2.342550e+01	6.615856e+01
2.630000e-06	3.413753e-06	9.462590e-10	2.368245e+01	6.668770e+01
2.640000e-06	3.450446e-06	9.526089e-10	2.393700e+01	6.720545e+01
2.650000e-06	3.486856e-06	9.573215e-10	2.418959e+01	6.771190e+01
2.660000e-06	3.523066e-06	9.611464e-10	2.444080e+01	6.820716e+01
2.670000e-06	3.559043e-06	9.661270e-10	2.469038e+01	6.869132e+01
2.680000e-06	3.594826e-06	9.721776e-10	2.493862e+01	6.916450e+01
2.690000e-06	3.630461e-06	9.793457e-10	2.518583e+01	6.962679e+01
2.700000e-06	3.666035e-06	9.883305e-10	2.543262e+01	7.007831e+01
2.710000e-06	3.701476e-06	9.954877e-10	2.567849e+01	7.051917e+01
2.720000e-06	3.736699e-06	1.001844e-09	2.592284e+01	7.094948e+01
2.730000e-06	3.771684e-06	1.010137e-09	2.616555e+01	7.136939e+01
2.740000e-06	3.806402e-06	1.016807e-09	2.640640e+01	7.177901e+01
2.750000e-06	3.840676e-06	1.021004e-09	2.664417e+01	7.217851e+01
2.760000e-06	3.874342e-06	1.024615e-09	2.687773e+01	7.256802e+01
2.770000e-06	3.907499e-06	1.029043e-09	2.710775e+01	7.294773e+01
2.780000e-06	3.940234e-06	1.034559e-09	2.733484e+01	7.331779e+01
2.790000e-06	3.972621e-06	1.041628e-09	2.755952e+01	7.367840e+01
2.800000e-06	4.004718e-06	1.051413e-09	2.778219e+01	7.402975e+01
2.810000e-06	4.036547e-06	1.061499e-09	2.800300e+01	7.437203e+01
2.820000e-06	4.068215e-06	1.069610e-09	2.822270e+01	7.470547e+01
2.830000e-06	4.099780e-06	1.074840e-09	2.844167e+01	7.503028e+01
2.840000e-06	4.131220e-06	1.077996e-09	2.865978e+01	7.534669e+01
2.850000e-06	4.162359e-06	1.078429e-09	2.887581e+01	7.565493e+01
2.860000e-06	4.193126e-06	1.079965e-09	2.908925e+01	7.595524e+01
2.870000e-06	4.223659e-06	1.084331e-09	2.930106e+01	7.624786e+01
2.880000e-06	4.253854e-06	1.089257e-09	2.951054e+01	7.653304e+01
2.890000e-06	4.283628e-06	1.096688e-09	2.971709e+01	7.681102e+01
2.900000e-06	4.313176e-06	1.105852e-09	2.992208e+01	7.708206e+01
