# Temperatura_=_-0.3
# Concentracion g/m^3_=_1620.0
# C_Vs_to_Am_M_A/Vsm_=_65563218390.804596
# pendiente_HvsI_1/m_=_3716.3
# ordenada_HvsI_A/m_=_1297.0
# frecuencia_Hz_=_135108.1968652605

Tiempo_(s)	Campo_(V.s)	Magnetizacion_(V.s)	Campo_(kA/m)	Magnetizacion_(A/m)
0.000000e+00	-5.522261e-06	-1.204934e-09	-3.837332e+01	-7.920267e+01
1.000000e-08	-5.522488e-06	-1.207038e-09	-3.837489e+01	-7.919963e+01
2.000000e-08	-5.522475e-06	-1.207811e-09	-3.837480e+01	-7.919545e+01
3.000000e-08	-5.522072e-06	-1.206226e-09	-3.837200e+01	-7.919008e+01
4.000000e-08	-5.521133e-06	-1.202480e-09	-3.836548e+01	-7.918347e+01
5.000000e-08	-5.519531e-06	-1.196668e-09	-3.835435e+01	-7.917553e+01
6.000000e-08	-5.517343e-06	-1.186338e-09	-3.833914e+01	-7.916617e+01
7.000000e-08	-5.514619e-06	-1.173762e-09	-3.832021e+01	-7.915527e+01
8.000000e-08	-5.511355e-06	-1.168317e-09	-3.829753e+01	-7.914273e+01
9.000000e-08	-5.507650e-06	-1.213667e-09	-3.827179e+01	-7.912839e+01
1.000000e-07	-5.503578e-06	-1.259741e-09	-3.824349e+01	-7.911213e+01
1.100000e-07	-5.499128e-06	-1.202338e-09	-3.821257e+01	-7.909377e+01
1.200000e-07	-5.494439e-06	-1.110330e-09	-3.817998e+01	-7.907317e+01
1.300000e-07	-5.489570e-06	-1.156551e-09	-3.814615e+01	-7.905016e+01
1.400000e-07	-5.484251e-06	-1.207800e-09	-3.810919e+01	-7.902457e+01
1.500000e-07	-5.478555e-06	-1.200311e-09	-3.806961e+01	-7.899624e+01
1.600000e-07	-5.472555e-06	-1.111936e-09	-3.802792e+01	-7.896501e+01
1.700000e-07	-5.466165e-06	-1.195978e-09	-3.798352e+01	-7.893070e+01
1.800000e-07	-5.459319e-06	-1.246904e-09	-3.793594e+01	-7.889318e+01
1.900000e-07	-5.452053e-06	-1.212861e-09	-3.788545e+01	-7.885229e+01
2.000000e-07	-5.444521e-06	-1.117357e-09	-3.783312e+01	-7.880790e+01
2.100000e-07	-5.436800e-06	-1.169625e-09	-3.777946e+01	-7.875987e+01
2.200000e-07	-5.428784e-06	-1.248728e-09	-3.772376e+01	-7.870808e+01
2.300000e-07	-5.420393e-06	-1.254104e-09	-3.766545e+01	-7.865244e+01
2.400000e-07	-5.411623e-06	-1.207478e-09	-3.760451e+01	-7.859285e+01
2.500000e-07	-5.402267e-06	-1.211213e-09	-3.753950e+01	-7.852924e+01
2.600000e-07	-5.392027e-06	-1.247970e-09	-3.746834e+01	-7.846154e+01
2.700000e-07	-5.381149e-06	-1.211376e-09	-3.739275e+01	-7.838972e+01
2.800000e-07	-5.369958e-06	-1.199261e-09	-3.731499e+01	-7.831372e+01
2.900000e-07	-5.358325e-06	-1.215109e-09	-3.723415e+01	-7.823355e+01
3.000000e-07	-5.346317e-06	-1.258671e-09	-3.715071e+01	-7.814920e+01
3.100000e-07	-5.334002e-06	-1.218052e-09	-3.706514e+01	-7.806068e+01
3.200000e-07	-5.321222e-06	-1.221777e-09	-3.697633e+01	-7.796802e+01
3.300000e-07	-5.307961e-06	-1.215394e-09	-3.688418e+01	-7.787126e+01
3.400000e-07	-5.294369e-06	-1.245403e-09	-3.678973e+01	-7.777045e+01
3.500000e-07	-5.280442e-06	-1.188563e-09	-3.669296e+01	-7.766565e+01
3.600000e-07	-5.266093e-06	-1.189651e-09	-3.659325e+01	-7.755694e+01
3.700000e-07	-5.251297e-06	-1.215772e-09	-3.649043e+01	-7.744439e+01
3.800000e-07	-5.235987e-06	-1.260816e-09	-3.638405e+01	-7.732810e+01
3.900000e-07	-5.220025e-06	-1.194768e-09	-3.627313e+01	-7.720815e+01
4.000000e-07	-5.203570e-06	-1.190640e-09	-3.615878e+01	-7.708464e+01
4.100000e-07	-5.186759e-06	-1.228984e-09	-3.604196e+01	-7.695768e+01
4.200000e-07	-5.169640e-06	-1.213447e-09	-3.592301e+01	-7.682737e+01
4.300000e-07	-5.152145e-06	-1.149805e-09	-3.580144e+01	-7.669380e+01
4.400000e-07	-5.134292e-06	-1.200487e-09	-3.567738e+01	-7.655707e+01
4.500000e-07	-5.116172e-06	-1.232332e-09	-3.555147e+01	-7.641730e+01
4.600000e-07	-5.097679e-06	-1.160429e-09	-3.542297e+01	-7.627456e+01
4.700000e-07	-5.078741e-06	-1.142698e-09	-3.529137e+01	-7.612895e+01
4.800000e-07	-5.059465e-06	-1.204869e-09	-3.515742e+01	-7.598056e+01
4.900000e-07	-5.039969e-06	-1.176737e-09	-3.502194e+01	-7.582945e+01
5.000000e-07	-5.020235e-06	-1.126694e-09	-3.488481e+01	-7.567571e+01
5.100000e-07	-5.000271e-06	-1.173017e-09	-3.474609e+01	-7.551938e+01
5.200000e-07	-4.980000e-06	-1.170827e-09	-3.460523e+01	-7.536054e+01
5.300000e-07	-4.959342e-06	-1.127308e-09	-3.446168e+01	-7.519922e+01
5.400000e-07	-4.938326e-06	-1.161971e-09	-3.431565e+01	-7.503547e+01
5.500000e-07	-4.916939e-06	-1.188978e-09	-3.416703e+01	-7.486931e+01
5.600000e-07	-4.895166e-06	-1.108445e-09	-3.401573e+01	-7.470077e+01
5.700000e-07	-4.873111e-06	-1.109246e-09	-3.386247e+01	-7.452987e+01
5.800000e-07	-4.850739e-06	-1.156672e-09	-3.370702e+01	-7.435662e+01
5.900000e-07	-4.827906e-06	-1.130129e-09	-3.354835e+01	-7.418101e+01
6.000000e-07	-4.804753e-06	-1.099231e-09	-3.338747e+01	-7.400306e+01
6.100000e-07	-4.781421e-06	-1.152162e-09	-3.322534e+01	-7.382276e+01
6.200000e-07	-4.757819e-06	-1.133195e-09	-3.306133e+01	-7.364009e+01
6.300000e-07	-4.733961e-06	-1.094009e-09	-3.289554e+01	-7.345505e+01
6.400000e-07	-4.709877e-06	-1.110663e-09	-3.272819e+01	-7.326763e+01
6.500000e-07	-4.685448e-06	-1.125584e-09	-3.255844e+01	-7.307781e+01
6.600000e-07	-4.660560e-06	-1.084051e-09	-3.238550e+01	-7.288559e+01
6.700000e-07	-4.635163e-06	-1.098781e-09	-3.220901e+01	-7.269096e+01
6.800000e-07	-4.609141e-06	-1.115216e-09	-3.202819e+01	-7.249390e+01
6.900000e-07	-4.582558e-06	-1.097292e-09	-3.184347e+01	-7.229443e+01
7.000000e-07	-4.555590e-06	-1.085838e-09	-3.165608e+01	-7.209254e+01
7.100000e-07	-4.528279e-06	-1.102322e-09	-3.146629e+01	-7.188823e+01
7.200000e-07	-4.500695e-06	-1.083644e-09	-3.127462e+01	-7.168153e+01
7.300000e-07	-4.472983e-06	-1.078091e-09	-3.108205e+01	-7.147245e+01
7.400000e-07	-4.445089e-06	-1.094897e-09	-3.088822e+01	-7.126101e+01
7.500000e-07	-4.416887e-06	-1.090118e-09	-3.069225e+01	-7.104725e+01
7.600000e-07	-4.388358e-06	-1.068308e-09	-3.049401e+01	-7.083122e+01
7.700000e-07	-4.359604e-06	-1.072077e-09	-3.029419e+01	-7.061295e+01
7.800000e-07	-4.330573e-06	-1.069573e-09	-3.009247e+01	-7.039249e+01
7.900000e-07	-4.301193e-06	-1.054468e-09	-2.988831e+01	-7.016990e+01
8.000000e-07	-4.271503e-06	-1.062008e-09	-2.968200e+01	-6.994525e+01
8.100000e-07	-4.241527e-06	-1.068625e-09	-2.947370e+01	-6.971860e+01
8.200000e-07	-4.211213e-06	-1.057440e-09	-2.926306e+01	-6.949001e+01
8.300000e-07	-4.180574e-06	-1.051973e-09	-2.905015e+01	-6.925956e+01
8.400000e-07	-4.149665e-06	-1.058878e-09	-2.883536e+01	-6.902732e+01
8.500000e-07	-4.118469e-06	-1.043885e-09	-2.861859e+01	-6.879335e+01
8.600000e-07	-4.087097e-06	-1.036944e-09	-2.840059e+01	-6.855772e+01
8.700000e-07	-4.055579e-06	-1.038876e-09	-2.818158e+01	-6.832050e+01
8.800000e-07	-4.023872e-06	-1.035703e-09	-2.796125e+01	-6.808174e+01
8.900000e-07	-3.991980e-06	-1.023091e-09	-2.773963e+01	-6.784148e+01
9.000000e-07	-3.959846e-06	-1.028422e-09	-2.751634e+01	-6.759978e+01
9.100000e-07	-3.927404e-06	-1.021376e-09	-2.729091e+01	-6.735666e+01
9.200000e-07	-3.894590e-06	-1.012432e-09	-2.706289e+01	-6.711213e+01
9.300000e-07	-3.861314e-06	-1.010524e-09	-2.683166e+01	-6.686621e+01
9.400000e-07	-3.827593e-06	-1.015222e-09	-2.659734e+01	-6.661887e+01
9.500000e-07	-3.793362e-06	-1.003476e-09	-2.635947e+01	-6.637009e+01
9.600000e-07	-3.758682e-06	-1.000173e-09	-2.611849e+01	-6.611983e+01
9.700000e-07	-3.723696e-06	-9.974567e-10	-2.587538e+01	-6.586801e+01
9.800000e-07	-3.688439e-06	-9.895508e-10	-2.563038e+01	-6.561456e+01
9.900000e-07	-3.652971e-06	-9.797284e-10	-2.538392e+01	-6.535937e+01
1.000000e-06	-3.617358e-06	-9.820997e-10	-2.513645e+01	-6.510232e+01
1.010000e-06	-3.581647e-06	-9.786998e-10	-2.488830e+01	-6.484325e+01
1.020000e-06	-3.545783e-06	-9.738375e-10	-2.463908e+01	-6.458200e+01
1.030000e-06	-3.509670e-06	-9.725796e-10	-2.438814e+01	-6.431839e+01
1.040000e-06	-3.473323e-06	-9.708821e-10	-2.413557e+01	-6.405220e+01
1.050000e-06	-3.436752e-06	-9.590234e-10	-2.388144e+01	-6.378321e+01
1.060000e-06	-3.399915e-06	-9.478870e-10	-2.362547e+01	-6.351117e+01
1.070000e-06	-3.362769e-06	-9.396890e-10	-2.336735e+01	-6.323582e+01
1.080000e-06	-3.325325e-06	-9.289726e-10	-2.310716e+01	-6.295688e+01
1.090000e-06	-3.287704e-06	-9.245904e-10	-2.284573e+01	-6.267405e+01
1.100000e-06	-3.249953e-06	-9.249796e-10	-2.258341e+01	-6.238703e+01
1.110000e-06	-3.212002e-06	-9.232281e-10	-2.231969e+01	-6.209551e+01
1.120000e-06	-3.173752e-06	-9.179026e-10	-2.205390e+01	-6.179916e+01
1.130000e-06	-3.135198e-06	-9.154050e-10	-2.178600e+01	-6.149765e+01
1.140000e-06	-3.096486e-06	-9.067696e-10	-2.151699e+01	-6.119064e+01
1.150000e-06	-3.057611e-06	-8.961911e-10	-2.124685e+01	-6.087780e+01
1.160000e-06	-3.018459e-06	-8.875626e-10	-2.097479e+01	-6.055880e+01
1.170000e-06	-2.979074e-06	-8.856670e-10	-2.070111e+01	-6.023331e+01
1.180000e-06	-2.939584e-06	-8.815577e-10	-2.042670e+01	-5.990101e+01
1.190000e-06	-2.899991e-06	-8.806949e-10	-2.015158e+01	-5.956157e+01
1.200000e-06	-2.860236e-06	-8.772108e-10	-1.987533e+01	-5.921470e+01
1.210000e-06	-2.820358e-06	-8.732381e-10	-1.959822e+01	-5.886011e+01
1.220000e-06	-2.780422e-06	-8.654634e-10	-1.932071e+01	-5.849752e+01
1.230000e-06	-2.740322e-06	-8.602546e-10	-1.904206e+01	-5.812667e+01
1.240000e-06	-2.699960e-06	-8.514803e-10	-1.876160e+01	-5.774733e+01
1.250000e-06	-2.659451e-06	-8.450478e-10	-1.848010e+01	-5.735928e+01
1.260000e-06	-2.618728e-06	-8.405593e-10	-1.819713e+01	-5.696231e+01
1.270000e-06	-2.577563e-06	-8.375203e-10	-1.791107e+01	-5.655627e+01
1.280000e-06	-2.536100e-06	-8.297924e-10	-1.762296e+01	-5.614099e+01
1.290000e-06	-2.494405e-06	-8.207357e-10	-1.733323e+01	-5.571635e+01
1.300000e-06	-2.452301e-06	-8.116808e-10	-1.704065e+01	-5.528225e+01
1.310000e-06	-2.409984e-06	-8.041340e-10	-1.674659e+01	-5.483859e+01
1.320000e-06	-2.367454e-06	-7.980298e-10	-1.645106e+01	-5.438534e+01
1.330000e-06	-2.324587e-06	-7.963967e-10	-1.615319e+01	-5.392243e+01
1.340000e-06	-2.281444e-06	-7.956032e-10	-1.585339e+01	-5.344987e+01
1.350000e-06	-2.238062e-06	-7.889027e-10	-1.555194e+01	-5.296764e+01
1.360000e-06	-2.194547e-06	-7.776501e-10	-1.524956e+01	-5.247576e+01
1.370000e-06	-2.150977e-06	-7.663321e-10	-1.494679e+01	-5.197427e+01
1.380000e-06	-2.107327e-06	-7.569515e-10	-1.464348e+01	-5.146320e+01
1.390000e-06	-2.063608e-06	-7.496596e-10	-1.433968e+01	-5.094260e+01
1.400000e-06	-2.019819e-06	-7.437670e-10	-1.403540e+01	-5.041254e+01
1.410000e-06	-1.975924e-06	-7.372589e-10	-1.373038e+01	-4.987306e+01
1.420000e-06	-1.931977e-06	-7.316854e-10	-1.342500e+01	-4.932422e+01
1.430000e-06	-1.888010e-06	-7.232859e-10	-1.311948e+01	-4.876607e+01
1.440000e-06	-1.843907e-06	-7.127883e-10	-1.281302e+01	-4.819867e+01
1.450000e-06	-1.799616e-06	-6.998670e-10	-1.250525e+01	-4.762205e+01
1.460000e-06	-1.755161e-06	-6.874268e-10	-1.219633e+01	-4.703622e+01
1.470000e-06	-1.710533e-06	-6.742262e-10	-1.188622e+01	-4.644119e+01
1.480000e-06	-1.665826e-06	-6.624319e-10	-1.157556e+01	-4.583694e+01
1.490000e-06	-1.621079e-06	-6.504551e-10	-1.126462e+01	-4.522344e+01
1.500000e-06	-1.576157e-06	-6.395264e-10	-1.095246e+01	-4.460061e+01
1.510000e-06	-1.531080e-06	-6.305585e-10	-1.063923e+01	-4.396836e+01
1.520000e-06	-1.485878e-06	-6.229444e-10	-1.032513e+01	-4.332656e+01
1.530000e-06	-1.440574e-06	-6.120337e-10	-1.001032e+01	-4.267505e+01
1.540000e-06	-1.395198e-06	-5.993039e-10	-9.695008e+00	-4.201365e+01
1.550000e-06	-1.349750e-06	-5.838442e-10	-9.379202e+00	-4.134211e+01
1.560000e-06	-1.304262e-06	-5.680273e-10	-9.063107e+00	-4.066019e+01
1.570000e-06	-1.258643e-06	-5.525978e-10	-8.746109e+00	-3.996758e+01
1.580000e-06	-1.212902e-06	-5.397565e-10	-8.428264e+00	-3.926395e+01
1.590000e-06	-1.167108e-06	-5.279999e-10	-8.110050e+00	-3.854894e+01
1.600000e-06	-1.121297e-06	-5.186997e-10	-7.791716e+00	-3.782213e+01
1.610000e-06	-1.075441e-06	-5.098316e-10	-7.473066e+00	-3.708311e+01
1.620000e-06	-1.029454e-06	-5.000171e-10	-7.153515e+00	-3.633141e+01
1.630000e-06	-9.833652e-07	-4.896535e-10	-6.833249e+00	-3.556654e+01
1.640000e-06	-9.372032e-07	-4.758258e-10	-6.512476e+00	-3.478801e+01
1.650000e-06	-8.909336e-07	-4.599337e-10	-6.190956e+00	-3.399529e+01
1.660000e-06	-8.446122e-07	-4.439812e-10	-5.869077e+00	-3.318785e+01
1.670000e-06	-7.981917e-07	-4.292726e-10	-5.546508e+00	-3.236513e+01
1.680000e-06	-7.516734e-07	-4.163331e-10	-5.223259e+00	-3.152659e+01
1.690000e-06	-7.051691e-07	-4.050659e-10	-4.900108e+00	-3.067168e+01
1.700000e-06	-6.586433e-07	-3.945686e-10	-4.576808e+00	-2.979986e+01
1.710000e-06	-6.121363e-07	-3.829465e-10	-4.253638e+00	-2.891060e+01
1.720000e-06	-5.655645e-07	-3.681597e-10	-3.930018e+00	-2.800341e+01
1.730000e-06	-5.188752e-07	-3.524570e-10	-3.605581e+00	-2.707779e+01
1.740000e-06	-4.722534e-07	-3.370208e-10	-3.281614e+00	-2.613331e+01
1.750000e-06	-4.255643e-07	-3.222633e-10	-2.957179e+00	-2.516954e+01
1.760000e-06	-3.787358e-07	-3.076870e-10	-2.631775e+00	-2.418613e+01
1.770000e-06	-3.318765e-07	-2.941417e-10	-2.306157e+00	-2.318277e+01
1.780000e-06	-2.850496e-07	-2.802448e-10	-1.980765e+00	-2.215920e+01
1.790000e-06	-2.382133e-07	-2.640454e-10	-1.655307e+00	-2.111523e+01
1.800000e-06	-1.913218e-07	-2.463976e-10	-1.329465e+00	-2.005072e+01
1.810000e-06	-1.444641e-07	-2.298440e-10	-1.003858e+00	-1.896564e+01
1.820000e-06	-9.768457e-08	-2.135073e-10	-6.787946e-01	-1.786000e+01
1.830000e-06	-5.091171e-08	-1.975704e-10	-3.537774e-01	-1.673392e+01
1.840000e-06	-4.048772e-09	-1.814477e-10	-2.813428e-02	-1.558758e+01
1.850000e-06	4.281734e-08	-1.673508e-10	2.975309e-01	-1.442127e+01
1.860000e-06	8.964717e-08	-1.520587e-10	6.229440e-01	-1.323536e+01
1.870000e-06	1.364667e-07	-1.341103e-10	9.482853e-01	-1.203031e+01
1.880000e-06	1.832792e-07	-1.143046e-10	1.273578e+00	-1.080668e+01
1.890000e-06	2.301175e-07	-9.279380e-11	1.599050e+00	-9.565119e+00
1.900000e-06	2.769145e-07	-7.204300e-11	1.924235e+00	-8.306368e+00
1.910000e-06	3.236804e-07	-5.577988e-11	2.249204e+00	-7.031260e+00
1.920000e-06	3.704246e-07	-4.407537e-11	2.574022e+00	-5.740718e+00
1.930000e-06	4.170825e-07	-3.204047e-11	2.898240e+00	-4.435750e+00
1.940000e-06	4.636938e-07	-1.727462e-11	3.222135e+00	-3.117449e+00
1.950000e-06	5.103193e-07	-1.058396e-12	3.546128e+00	-1.786985e+00
1.960000e-06	5.569561e-07	1.756983e-11	3.870200e+00	-4.456030e-01
1.970000e-06	6.035899e-07	3.828164e-11	4.194251e+00	9.053854e-01
1.980000e-06	6.501936e-07	5.922862e-11	4.518092e+00	2.264605e+00
1.990000e-06	6.966866e-07	7.918460e-11	4.841165e+00	3.630626e+00
2.000000e-06	7.430931e-07	9.781678e-11	5.163636e+00	5.001970e+00
2.010000e-06	7.894609e-07	1.168368e-10	5.485839e+00	6.377119e+00
2.020000e-06	8.357487e-07	1.340999e-10	5.807485e+00	7.754521e+00
2.030000e-06	8.819464e-07	1.498127e-10	6.128506e+00	9.132603e+00
2.040000e-06	9.280851e-07	1.649222e-10	6.449116e+00	1.050977e+01
2.050000e-06	9.741947e-07	1.816119e-10	6.769525e+00	1.188444e+01
2.060000e-06	1.020273e-06	2.013197e-10	7.089717e+00	1.325500e+01
2.070000e-06	1.066223e-06	2.242715e-10	7.409014e+00	1.461987e+01
2.080000e-06	1.112128e-06	2.471279e-10	7.727999e+00	1.597751e+01
2.090000e-06	1.157983e-06	2.671268e-10	8.046643e+00	1.732636e+01
2.100000e-06	1.203699e-06	2.854449e-10	8.364317e+00	1.866494e+01
2.110000e-06	1.249334e-06	3.020760e-10	8.681425e+00	1.999180e+01
2.120000e-06	1.294882e-06	3.171840e-10	8.997927e+00	2.130554e+01
2.130000e-06	1.340308e-06	3.336362e-10	9.313591e+00	2.260484e+01
2.140000e-06	1.385663e-06	3.511753e-10	9.628752e+00	2.388842e+01
2.150000e-06	1.430954e-06	3.689080e-10	9.943472e+00	2.515510e+01
2.160000e-06	1.476090e-06	3.881463e-10	1.025711e+01	2.640378e+01
2.170000e-06	1.521114e-06	4.065998e-10	1.056998e+01	2.763343e+01
2.180000e-06	1.566092e-06	4.223625e-10	1.088252e+01	2.884312e+01
2.190000e-06	1.610982e-06	4.383715e-10	1.119446e+01	3.003202e+01
2.200000e-06	1.655643e-06	4.549678e-10	1.150480e+01	3.119940e+01
2.210000e-06	1.700084e-06	4.706427e-10	1.181361e+01	3.234462e+01
2.220000e-06	1.744417e-06	4.858785e-10	1.212167e+01	3.346714e+01
2.230000e-06	1.788693e-06	5.020401e-10	1.242935e+01	3.456654e+01
2.240000e-06	1.832880e-06	5.166260e-10	1.273640e+01	3.564248e+01
2.250000e-06	1.876891e-06	5.291748e-10	1.304222e+01	3.669475e+01
2.260000e-06	1.920781e-06	5.417806e-10	1.334720e+01	3.772321e+01
2.270000e-06	1.964608e-06	5.560501e-10	1.365175e+01	3.872783e+01
2.280000e-06	2.008358e-06	5.713804e-10	1.395576e+01	3.970869e+01
2.290000e-06	2.052034e-06	5.864931e-10	1.425926e+01	4.066593e+01
2.300000e-06	2.095645e-06	6.005110e-10	1.456231e+01	4.159981e+01
2.310000e-06	2.139201e-06	6.140087e-10	1.486497e+01	4.251063e+01
2.320000e-06	2.182743e-06	6.267925e-10	1.516753e+01	4.339880e+01
2.330000e-06	2.226220e-06	6.380563e-10	1.546965e+01	4.426478e+01
2.340000e-06	2.269617e-06	6.476100e-10	1.577121e+01	4.510911e+01
2.350000e-06	2.312866e-06	6.579592e-10	1.607174e+01	4.593236e+01
2.360000e-06	2.355836e-06	6.703589e-10	1.637033e+01	4.673517e+01
2.370000e-06	2.398498e-06	6.834876e-10	1.666678e+01	4.751821e+01
2.380000e-06	2.440829e-06	6.976954e-10	1.696093e+01	4.828218e+01
2.390000e-06	2.482852e-06	7.119439e-10	1.725294e+01	4.902781e+01
2.400000e-06	2.524532e-06	7.249199e-10	1.754258e+01	4.975586e+01
2.410000e-06	2.565891e-06	7.345719e-10	1.782997e+01	5.046707e+01
2.420000e-06	2.606982e-06	7.437496e-10	1.811551e+01	5.116221e+01
2.430000e-06	2.647804e-06	7.523825e-10	1.839917e+01	5.184202e+01
2.440000e-06	2.688310e-06	7.620966e-10	1.868064e+01	5.250727e+01
2.450000e-06	2.728554e-06	7.737348e-10	1.896029e+01	5.315865e+01
2.460000e-06	2.768628e-06	7.851439e-10	1.923875e+01	5.379689e+01
2.470000e-06	2.808537e-06	7.965305e-10	1.951608e+01	5.442264e+01
2.480000e-06	2.848338e-06	8.068349e-10	1.979265e+01	5.503655e+01
2.490000e-06	2.888026e-06	8.162844e-10	2.006844e+01	5.563919e+01
2.500000e-06	2.927578e-06	8.256583e-10	2.034327e+01	5.623113e+01
2.510000e-06	2.967039e-06	8.337985e-10	2.061749e+01	5.681287e+01
2.520000e-06	3.006379e-06	8.419437e-10	2.089085e+01	5.738485e+01
2.530000e-06	3.045522e-06	8.499939e-10	2.116285e+01	5.794749e+01
2.540000e-06	3.084458e-06	8.558604e-10	2.143341e+01	5.850111e+01
2.550000e-06	3.123113e-06	8.586102e-10	2.170201e+01	5.904602e+01
2.560000e-06	3.161492e-06	8.635049e-10	2.196871e+01	5.958245e+01
2.570000e-06	3.199660e-06	8.726702e-10	2.223393e+01	6.011058e+01
2.580000e-06	3.237622e-06	8.835195e-10	2.249773e+01	6.063054e+01
2.590000e-06	3.275369e-06	8.942625e-10	2.276002e+01	6.114241e+01
2.600000e-06	3.312930e-06	9.037814e-10	2.302103e+01	6.164621e+01
2.610000e-06	3.350345e-06	9.117051e-10	2.328102e+01	6.214194e+01
2.620000e-06	3.387510e-06	9.171111e-10	2.353927e+01	6.262952e+01
2.630000e-06	3.424344e-06	9.201339e-10	2.379523e+01	6.310885e+01
2.640000e-06	3.460870e-06	9.215159e-10	2.404904e+01	6.357982e+01
2.650000e-06	3.497116e-06	9.244047e-10	2.430091e+01	6.404224e+01
2.660000e-06	3.533204e-06	9.295805e-10	2.455168e+01	6.449593e+01
2.670000e-06	3.569183e-06	9.369368e-10	2.480169e+01	6.494068e+01
2.680000e-06	3.604956e-06	9.461689e-10	2.505027e+01	6.537626e+01
2.690000e-06	3.640591e-06	9.561883e-10	2.529789e+01	6.580243e+01
2.700000e-06	3.676102e-06	9.642243e-10	2.554465e+01	6.621897e+01
2.710000e-06	3.711443e-06	9.693615e-10	2.579023e+01	6.662562e+01
2.720000e-06	3.746619e-06	9.740168e-10	2.603466e+01	6.702215e+01
2.730000e-06	3.781534e-06	9.766758e-10	2.627728e+01	6.740833e+01
2.740000e-06	3.816064e-06	9.769234e-10	2.651723e+01	6.778397e+01
2.750000e-06	3.850055e-06	9.769408e-10	2.675342e+01	6.814886e+01
2.760000e-06	3.883503e-06	9.808420e-10	2.698584e+01	6.850286e+01
2.770000e-06	3.916485e-06	9.892136e-10	2.721503e+01	6.884581e+01
2.780000e-06	3.949040e-06	1.000607e-09	2.744125e+01	6.917762e+01
2.790000e-06	3.981325e-06	1.012979e-09	2.766560e+01	6.949822e+01
2.800000e-06	4.013346e-06	1.021787e-09	2.788811e+01	6.980757e+01
2.810000e-06	4.045102e-06	1.025981e-09	2.810877e+01	7.010568e+01
2.820000e-06	4.076717e-06	1.027051e-09	2.832846e+01	7.039261e+01
2.830000e-06	4.108185e-06	1.025883e-09	2.854713e+01	7.066843e+01
2.840000e-06	4.139447e-06	1.025015e-09	2.876436e+01	7.093328e+01
2.850000e-06	4.170422e-06	1.028700e-09	2.897960e+01	7.118734e+01
2.860000e-06	4.201084e-06	1.035851e-09	2.919267e+01	7.143083e+01
2.870000e-06	4.231409e-06	1.043535e-09	2.940339e+01	7.166399e+01
2.880000e-06	4.261350e-06	1.050376e-09	2.961144e+01	7.188714e+01
2.890000e-06	4.290984e-06	1.054133e-09	2.981737e+01	7.210060e+01
2.900000e-06	4.320438e-06	1.056744e-09	3.002204e+01	7.230474e+01
