# Temperatura_=_-0.8
# Concentracion g/m^3_=_1620.0
# C_Vs_to_Am_M_A/Vsm_=_65563218390.804596
# pendiente_HvsI_1/m_=_3716.3
# ordenada_HvsI_A/m_=_1297.0
# frecuencia_Hz_=_135092.46594059188

Tiempo_(s)	Campo_(V.s)	Magnetizacion_(V.s)	Campo_(kA/m)	Magnetizacion_(A/m)
0.000000e+00	-5.527567e-06	-1.153350e-09	-3.836516e+01	-7.439470e+01
1.000000e-08	-5.527774e-06	-1.153076e-09	-3.836660e+01	-7.440197e+01
2.000000e-08	-5.527774e-06	-1.154990e-09	-3.836660e+01	-7.440863e+01
3.000000e-08	-5.527488e-06	-1.155364e-09	-3.836462e+01	-7.441462e+01
4.000000e-08	-5.526736e-06	-1.154097e-09	-3.835939e+01	-7.441983e+01
5.000000e-08	-5.525449e-06	-1.153248e-09	-3.835046e+01	-7.442416e+01
6.000000e-08	-5.523627e-06	-1.146748e-09	-3.833782e+01	-7.442748e+01
7.000000e-08	-5.521247e-06	-1.138025e-09	-3.832130e+01	-7.442965e+01
8.000000e-08	-5.518199e-06	-1.129039e-09	-3.830014e+01	-7.443053e+01
9.000000e-08	-5.514615e-06	-1.147181e-09	-3.827527e+01	-7.442996e+01
1.000000e-07	-5.510666e-06	-1.198403e-09	-3.824786e+01	-7.442776e+01
1.100000e-07	-5.506370e-06	-1.219317e-09	-3.821804e+01	-7.442377e+01
1.200000e-07	-5.501769e-06	-1.125545e-09	-3.818611e+01	-7.441780e+01
1.300000e-07	-5.497036e-06	-1.060510e-09	-3.815326e+01	-7.440967e+01
1.400000e-07	-5.491996e-06	-1.138946e-09	-3.811828e+01	-7.439919e+01
1.500000e-07	-5.486447e-06	-1.175787e-09	-3.807976e+01	-7.438618e+01
1.600000e-07	-5.480545e-06	-1.106110e-09	-3.803880e+01	-7.437046e+01
1.700000e-07	-5.474307e-06	-1.068858e-09	-3.799551e+01	-7.435185e+01
1.800000e-07	-5.467626e-06	-1.179675e-09	-3.794913e+01	-7.433017e+01
1.900000e-07	-5.460445e-06	-1.233335e-09	-3.789929e+01	-7.430527e+01
2.000000e-07	-5.452923e-06	-1.157370e-09	-3.784708e+01	-7.427698e+01
2.100000e-07	-5.445279e-06	-1.103655e-09	-3.779403e+01	-7.424517e+01
2.200000e-07	-5.437390e-06	-1.157652e-09	-3.773927e+01	-7.420969e+01
2.300000e-07	-5.429118e-06	-1.195087e-09	-3.768186e+01	-7.417043e+01
2.400000e-07	-5.420451e-06	-1.177132e-09	-3.762170e+01	-7.412728e+01
2.500000e-07	-5.411192e-06	-1.162394e-09	-3.755744e+01	-7.408015e+01
2.600000e-07	-5.401174e-06	-1.170229e-09	-3.748791e+01	-7.402896e+01
2.700000e-07	-5.390551e-06	-1.174259e-09	-3.741418e+01	-7.397365e+01
2.800000e-07	-5.379501e-06	-1.140678e-09	-3.733748e+01	-7.391419e+01
2.900000e-07	-5.368013e-06	-1.125879e-09	-3.725774e+01	-7.385054e+01
3.000000e-07	-5.356137e-06	-1.140451e-09	-3.717532e+01	-7.378270e+01
3.100000e-07	-5.343959e-06	-1.149706e-09	-3.709079e+01	-7.371066e+01
3.200000e-07	-5.331318e-06	-1.123149e-09	-3.700306e+01	-7.363445e+01
3.300000e-07	-5.318075e-06	-1.109025e-09	-3.691114e+01	-7.355411e+01
3.400000e-07	-5.304500e-06	-1.118267e-09	-3.681693e+01	-7.346970e+01
3.500000e-07	-5.290755e-06	-1.131562e-09	-3.672153e+01	-7.338126e+01
3.600000e-07	-5.276573e-06	-1.096158e-09	-3.662309e+01	-7.328889e+01
3.700000e-07	-5.261771e-06	-1.087149e-09	-3.652035e+01	-7.319268e+01
3.800000e-07	-5.246471e-06	-1.119337e-09	-3.641416e+01	-7.309271e+01
3.900000e-07	-5.230672e-06	-1.132947e-09	-3.630451e+01	-7.298911e+01
4.000000e-07	-5.214333e-06	-1.077131e-09	-3.619110e+01	-7.288200e+01
4.100000e-07	-5.197598e-06	-1.093623e-09	-3.607495e+01	-7.277148e+01
4.200000e-07	-5.180601e-06	-1.136408e-09	-3.595698e+01	-7.265770e+01
4.300000e-07	-5.163329e-06	-1.087057e-09	-3.583710e+01	-7.254079e+01
4.400000e-07	-5.145709e-06	-1.048340e-09	-3.571480e+01	-7.242087e+01
4.500000e-07	-5.127784e-06	-1.121170e-09	-3.559039e+01	-7.229809e+01
4.600000e-07	-5.109452e-06	-1.127794e-09	-3.546315e+01	-7.217259e+01
4.700000e-07	-5.090569e-06	-1.035502e-09	-3.533209e+01	-7.204448e+01
4.800000e-07	-5.071277e-06	-1.067031e-09	-3.519819e+01	-7.191390e+01
4.900000e-07	-5.051856e-06	-1.137804e-09	-3.506340e+01	-7.178099e+01
5.000000e-07	-5.032242e-06	-1.073961e-09	-3.492726e+01	-7.164584e+01
5.100000e-07	-5.012312e-06	-1.037116e-09	-3.478893e+01	-7.150859e+01
5.200000e-07	-4.992074e-06	-1.108545e-09	-3.464847e+01	-7.136933e+01
5.300000e-07	-4.971445e-06	-1.076445e-09	-3.450529e+01	-7.122816e+01
5.400000e-07	-4.950402e-06	-1.021714e-09	-3.435924e+01	-7.108516e+01
5.500000e-07	-4.929083e-06	-1.089194e-09	-3.421127e+01	-7.094043e+01
5.600000e-07	-4.907486e-06	-1.105412e-09	-3.406137e+01	-7.079402e+01
5.700000e-07	-4.885579e-06	-1.018213e-09	-3.390932e+01	-7.064599e+01
5.800000e-07	-4.863418e-06	-1.050369e-09	-3.375551e+01	-7.049640e+01
5.900000e-07	-4.840875e-06	-1.100981e-09	-3.359904e+01	-7.034528e+01
6.000000e-07	-4.817815e-06	-1.034776e-09	-3.343899e+01	-7.019267e+01
6.100000e-07	-4.794391e-06	-1.017758e-09	-3.327641e+01	-7.003858e+01
6.200000e-07	-4.770805e-06	-1.080718e-09	-3.311271e+01	-6.988303e+01
6.300000e-07	-4.747033e-06	-1.044510e-09	-3.294772e+01	-6.972601e+01
6.400000e-07	-4.723048e-06	-1.007466e-09	-3.278124e+01	-6.956752e+01
6.500000e-07	-4.698801e-06	-1.054178e-09	-3.261295e+01	-6.940755e+01
6.600000e-07	-4.674090e-06	-1.050074e-09	-3.244144e+01	-6.924607e+01
6.700000e-07	-4.648811e-06	-1.003601e-09	-3.226599e+01	-6.908306e+01
6.800000e-07	-4.622921e-06	-1.030296e-09	-3.208629e+01	-6.891849e+01
6.900000e-07	-4.596457e-06	-1.041261e-09	-3.190261e+01	-6.875232e+01
7.000000e-07	-4.569518e-06	-1.003072e-09	-3.171564e+01	-6.858451e+01
7.100000e-07	-4.542204e-06	-1.009320e-09	-3.152606e+01	-6.841501e+01
7.200000e-07	-4.514685e-06	-1.029308e-09	-3.133506e+01	-6.824379e+01
7.300000e-07	-4.487030e-06	-1.003826e-09	-3.114311e+01	-6.807078e+01
7.400000e-07	-4.459231e-06	-1.003036e-09	-3.095017e+01	-6.789595e+01
7.500000e-07	-4.431172e-06	-1.028233e-09	-3.075542e+01	-6.771925e+01
7.600000e-07	-4.402898e-06	-1.012529e-09	-3.055918e+01	-6.754063e+01
7.700000e-07	-4.374379e-06	-9.974365e-10	-3.036124e+01	-6.736004e+01
7.800000e-07	-4.345401e-06	-1.009624e-09	-3.016011e+01	-6.717744e+01
7.900000e-07	-4.316069e-06	-1.000521e-09	-2.995653e+01	-6.699278e+01
8.000000e-07	-4.286517e-06	-9.821121e-10	-2.975141e+01	-6.680602e+01
8.100000e-07	-4.256711e-06	-9.963699e-10	-2.954454e+01	-6.661712e+01
8.200000e-07	-4.226609e-06	-9.995169e-10	-2.933561e+01	-6.642604e+01
8.300000e-07	-4.196157e-06	-9.837967e-10	-2.912425e+01	-6.623275e+01
8.400000e-07	-4.165386e-06	-9.872322e-10	-2.891068e+01	-6.603721e+01
8.500000e-07	-4.134339e-06	-9.937173e-10	-2.869519e+01	-6.583938e+01
8.600000e-07	-4.103009e-06	-9.764343e-10	-2.847774e+01	-6.563924e+01
8.700000e-07	-4.071467e-06	-9.731696e-10	-2.825881e+01	-6.543675e+01
8.800000e-07	-4.039756e-06	-9.815842e-10	-2.803872e+01	-6.523189e+01
8.900000e-07	-4.007830e-06	-9.733689e-10	-2.781713e+01	-6.502462e+01
9.000000e-07	-3.975709e-06	-9.607377e-10	-2.759419e+01	-6.481490e+01
9.100000e-07	-3.943324e-06	-9.650286e-10	-2.736941e+01	-6.460272e+01
9.200000e-07	-3.910644e-06	-9.564327e-10	-2.714260e+01	-6.438801e+01
9.300000e-07	-3.877577e-06	-9.436901e-10	-2.691308e+01	-6.417076e+01
9.400000e-07	-3.844027e-06	-9.505249e-10	-2.668022e+01	-6.395091e+01
9.500000e-07	-3.809972e-06	-9.569199e-10	-2.644386e+01	-6.372842e+01
9.600000e-07	-3.775358e-06	-9.458324e-10	-2.620361e+01	-6.350324e+01
9.700000e-07	-3.740383e-06	-9.437677e-10	-2.596086e+01	-6.327530e+01
9.800000e-07	-3.705200e-06	-9.455619e-10	-2.571667e+01	-6.304454e+01
9.900000e-07	-3.669739e-06	-9.327720e-10	-2.547055e+01	-6.281089e+01
1.000000e-06	-3.634035e-06	-9.217919e-10	-2.522274e+01	-6.257426e+01
1.010000e-06	-3.598281e-06	-9.233598e-10	-2.497458e+01	-6.233458e+01
1.020000e-06	-3.562442e-06	-9.181621e-10	-2.472582e+01	-6.209173e+01
1.030000e-06	-3.526393e-06	-9.125928e-10	-2.447562e+01	-6.184563e+01
1.040000e-06	-3.490121e-06	-9.151555e-10	-2.422387e+01	-6.159616e+01
1.050000e-06	-3.453525e-06	-9.102270e-10	-2.396987e+01	-6.134318e+01
1.060000e-06	-3.416699e-06	-8.929452e-10	-2.371427e+01	-6.108658e+01
1.070000e-06	-3.379708e-06	-8.838257e-10	-2.345752e+01	-6.082621e+01
1.080000e-06	-3.342430e-06	-8.852922e-10	-2.319879e+01	-6.056193e+01
1.090000e-06	-3.304870e-06	-8.804918e-10	-2.293810e+01	-6.029358e+01
1.100000e-06	-3.267025e-06	-8.772109e-10	-2.267543e+01	-6.002100e+01
1.110000e-06	-3.229002e-06	-8.749890e-10	-2.241152e+01	-5.974401e+01
1.120000e-06	-3.190823e-06	-8.668980e-10	-2.214653e+01	-5.946244e+01
1.130000e-06	-3.152320e-06	-8.565776e-10	-2.187930e+01	-5.917612e+01
1.140000e-06	-3.113496e-06	-8.528658e-10	-2.160983e+01	-5.888485e+01
1.150000e-06	-3.074607e-06	-8.477411e-10	-2.133991e+01	-5.858845e+01
1.160000e-06	-3.035534e-06	-8.381400e-10	-2.106872e+01	-5.828672e+01
1.170000e-06	-2.996214e-06	-8.304962e-10	-2.079581e+01	-5.797947e+01
1.180000e-06	-2.956778e-06	-8.242977e-10	-2.052210e+01	-5.766650e+01
1.190000e-06	-2.917175e-06	-8.151683e-10	-2.024722e+01	-5.734763e+01
1.200000e-06	-2.877454e-06	-8.115596e-10	-1.997154e+01	-5.702265e+01
1.210000e-06	-2.837641e-06	-8.105024e-10	-1.969520e+01	-5.669138e+01
1.220000e-06	-2.797721e-06	-8.067484e-10	-1.941813e+01	-5.635363e+01
1.230000e-06	-2.757619e-06	-8.012136e-10	-1.913979e+01	-5.600920e+01
1.240000e-06	-2.717232e-06	-7.969910e-10	-1.885948e+01	-5.565793e+01
1.250000e-06	-2.676596e-06	-7.886481e-10	-1.857744e+01	-5.529964e+01
1.260000e-06	-2.635833e-06	-7.796470e-10	-1.829451e+01	-5.493416e+01
1.270000e-06	-2.594987e-06	-7.746816e-10	-1.801102e+01	-5.456132e+01
1.280000e-06	-2.553750e-06	-7.704106e-10	-1.772480e+01	-5.418097e+01
1.290000e-06	-2.512207e-06	-7.649987e-10	-1.743646e+01	-5.379297e+01
1.300000e-06	-2.470485e-06	-7.599463e-10	-1.714688e+01	-5.339716e+01
1.310000e-06	-2.428390e-06	-7.536123e-10	-1.685472e+01	-5.299343e+01
1.320000e-06	-2.385965e-06	-7.449119e-10	-1.656026e+01	-5.258163e+01
1.330000e-06	-2.343164e-06	-7.361123e-10	-1.626319e+01	-5.216164e+01
1.340000e-06	-2.300142e-06	-7.331810e-10	-1.596459e+01	-5.173336e+01
1.350000e-06	-2.256955e-06	-7.322644e-10	-1.566484e+01	-5.129667e+01
1.360000e-06	-2.213636e-06	-7.284539e-10	-1.536418e+01	-5.085147e+01
1.370000e-06	-2.170161e-06	-7.229610e-10	-1.506243e+01	-5.039766e+01
1.380000e-06	-2.126467e-06	-7.156572e-10	-1.475916e+01	-4.993513e+01
1.390000e-06	-2.082698e-06	-7.069203e-10	-1.445537e+01	-4.946381e+01
1.400000e-06	-2.038885e-06	-6.972427e-10	-1.415128e+01	-4.898357e+01
1.410000e-06	-1.995014e-06	-6.887182e-10	-1.384679e+01	-4.849435e+01
1.420000e-06	-1.951079e-06	-6.801705e-10	-1.354184e+01	-4.799602e+01
1.430000e-06	-1.907002e-06	-6.729465e-10	-1.323592e+01	-4.748850e+01
1.440000e-06	-1.862799e-06	-6.671431e-10	-1.292912e+01	-4.697169e+01
1.450000e-06	-1.818553e-06	-6.627272e-10	-1.262202e+01	-4.644546e+01
1.460000e-06	-1.774272e-06	-6.550580e-10	-1.231468e+01	-4.590970e+01
1.470000e-06	-1.729866e-06	-6.428742e-10	-1.200648e+01	-4.536428e+01
1.480000e-06	-1.685236e-06	-6.284116e-10	-1.169671e+01	-4.480907e+01
1.490000e-06	-1.640479e-06	-6.158415e-10	-1.138607e+01	-4.424392e+01
1.500000e-06	-1.595645e-06	-6.072054e-10	-1.107489e+01	-4.366867e+01
1.510000e-06	-1.550628e-06	-6.008402e-10	-1.076243e+01	-4.308315e+01
1.520000e-06	-1.505420e-06	-5.938369e-10	-1.044866e+01	-4.248718e+01
1.530000e-06	-1.460075e-06	-5.853853e-10	-1.013394e+01	-4.188054e+01
1.540000e-06	-1.414697e-06	-5.766754e-10	-9.818981e+00	-4.126304e+01
1.550000e-06	-1.369224e-06	-5.670755e-10	-9.503367e+00	-4.063445e+01
1.560000e-06	-1.323690e-06	-5.539603e-10	-9.187328e+00	-3.999451e+01
1.570000e-06	-1.278171e-06	-5.409506e-10	-8.871399e+00	-3.934298e+01
1.580000e-06	-1.232492e-06	-5.301642e-10	-8.554351e+00	-3.867959e+01
1.590000e-06	-1.186644e-06	-5.215265e-10	-8.236139e+00	-3.800406e+01
1.600000e-06	-1.140660e-06	-5.119069e-10	-7.916971e+00	-3.731608e+01
1.610000e-06	-1.094622e-06	-5.015498e-10	-7.597440e+00	-3.661537e+01
1.620000e-06	-1.048592e-06	-4.898167e-10	-7.277956e+00	-3.590160e+01
1.630000e-06	-1.002438e-06	-4.777935e-10	-6.957615e+00	-3.517447e+01
1.640000e-06	-9.562021e-07	-4.648296e-10	-6.636709e+00	-3.443364e+01
1.650000e-06	-9.099593e-07	-4.478601e-10	-6.315751e+00	-3.367880e+01
1.660000e-06	-8.637107e-07	-4.303451e-10	-5.994754e+00	-3.290963e+01
1.670000e-06	-8.173906e-07	-4.172402e-10	-5.673260e+00	-3.212580e+01
1.680000e-06	-7.709494e-07	-4.073962e-10	-5.350926e+00	-3.132700e+01
1.690000e-06	-7.244425e-07	-3.966406e-10	-5.028135e+00	-3.051293e+01
1.700000e-06	-6.778715e-07	-3.877719e-10	-4.704900e+00	-2.968330e+01
1.710000e-06	-6.312943e-07	-3.753718e-10	-4.381622e+00	-2.883783e+01
1.720000e-06	-5.847811e-07	-3.587896e-10	-4.058788e+00	-2.797628e+01
1.730000e-06	-5.382138e-07	-3.411164e-10	-3.735579e+00	-2.709842e+01
1.740000e-06	-4.915502e-07	-3.253596e-10	-3.411701e+00	-2.620403e+01
1.750000e-06	-4.447571e-07	-3.119521e-10	-3.086924e+00	-2.529296e+01
1.760000e-06	-3.978584e-07	-2.989798e-10	-2.761414e+00	-2.436505e+01
1.770000e-06	-3.509919e-07	-2.857511e-10	-2.436128e+00	-2.342022e+01
1.780000e-06	-3.041482e-07	-2.735777e-10	-2.111001e+00	-2.245840e+01
1.790000e-06	-2.572404e-07	-2.611213e-10	-1.785427e+00	-2.147959e+01
1.800000e-06	-2.102757e-07	-2.453453e-10	-1.459459e+00	-2.048380e+01
1.810000e-06	-1.633780e-07	-2.277587e-10	-1.133957e+00	-1.947112e+01
1.820000e-06	-1.165547e-07	-2.110364e-10	-8.089705e-01	-1.844169e+01
1.830000e-06	-6.971751e-08	-1.955106e-10	-4.838881e-01	-1.739570e+01
1.840000e-06	-2.285068e-08	-1.812479e-10	-1.585997e-01	-1.633338e+01
1.850000e-06	2.400834e-08	-1.677720e-10	1.666346e-01	-1.525504e+01
1.860000e-06	7.094618e-08	-1.560527e-10	4.924159e-01	-1.416105e+01
1.870000e-06	1.178621e-07	-1.438458e-10	8.180451e-01	-1.305181e+01
1.880000e-06	1.647000e-07	-1.295452e-10	1.143133e+00	-1.192781e+01
1.890000e-06	2.115063e-07	-1.126132e-10	1.468001e+00	-1.078959e+01
1.900000e-06	2.583359e-07	-9.453811e-11	1.793031e+00	-9.637745e+00
1.910000e-06	3.052908e-07	-7.827555e-11	2.118930e+00	-8.472934e+00
1.920000e-06	3.521912e-07	-6.230514e-11	2.444452e+00	-7.295868e+00
1.930000e-06	3.989921e-07	-4.701930e-11	2.769283e+00	-6.107315e+00
1.940000e-06	4.457912e-07	-3.383113e-11	3.094101e+00	-4.908097e+00
1.950000e-06	4.925573e-07	-2.316162e-11	3.418691e+00	-3.699083e+00
1.960000e-06	5.392064e-07	-1.055993e-11	3.742468e+00	-2.481190e+00
1.970000e-06	5.857658e-07	5.595316e-12	4.065623e+00	-1.255380e+00
1.980000e-06	6.322742e-07	2.342219e-11	4.388424e+00	-2.265215e-02
1.990000e-06	6.787739e-07	4.083626e-11	4.711163e+00	1.215957e+00
2.000000e-06	7.252479e-07	5.920208e-11	5.033725e+00	2.459380e+00
2.010000e-06	7.716947e-07	7.736551e-11	5.356098e+00	3.706524e+00
2.020000e-06	8.181072e-07	9.354499e-11	5.678233e+00	4.956275e+00
2.030000e-06	8.644112e-07	1.089014e-10	5.999616e+00	6.207502e+00
2.040000e-06	9.107263e-07	1.251630e-10	6.321074e+00	7.459062e+00
2.050000e-06	9.569930e-07	1.406836e-10	6.642198e+00	8.709810e+00
2.060000e-06	1.003066e-06	1.557132e-10	6.961975e+00	9.958596e+00
2.070000e-06	1.049035e-06	1.723454e-10	7.281035e+00	1.120428e+01
2.080000e-06	1.095031e-06	1.912605e-10	7.600277e+00	1.244573e+01
2.090000e-06	1.140930e-06	2.103191e-10	7.918850e+00	1.368183e+01
2.100000e-06	1.186707e-06	2.282954e-10	8.236573e+00	1.491150e+01
2.110000e-06	1.232490e-06	2.455015e-10	8.554337e+00	1.613365e+01
2.120000e-06	1.278161e-06	2.618818e-10	8.871328e+00	1.734727e+01
2.130000e-06	1.323715e-06	2.774800e-10	9.187505e+00	1.855134e+01
2.140000e-06	1.369198e-06	2.917172e-10	9.503188e+00	1.974492e+01
2.150000e-06	1.414577e-06	3.048306e-10	9.818150e+00	2.092709e+01
2.160000e-06	1.459885e-06	3.178281e-10	1.013262e+01	2.209699e+01
2.170000e-06	1.505164e-06	3.340090e-10	1.044689e+01	2.325381e+01
2.180000e-06	1.550307e-06	3.525089e-10	1.076021e+01	2.439679e+01
2.190000e-06	1.595243e-06	3.693669e-10	1.107209e+01	2.552524e+01
2.200000e-06	1.640055e-06	3.845681e-10	1.138312e+01	2.663851e+01
2.210000e-06	1.684729e-06	4.001227e-10	1.169319e+01	2.773603e+01
2.220000e-06	1.729237e-06	4.156959e-10	1.200211e+01	2.881729e+01
2.230000e-06	1.773545e-06	4.288518e-10	1.230963e+01	2.988184e+01
2.240000e-06	1.817794e-06	4.388066e-10	1.261676e+01	3.092929e+01
2.250000e-06	1.861920e-06	4.487346e-10	1.292302e+01	3.195932e+01
2.260000e-06	1.905853e-06	4.623101e-10	1.322795e+01	3.297167e+01
2.270000e-06	1.949762e-06	4.773441e-10	1.353270e+01	3.396613e+01
2.280000e-06	1.993621e-06	4.961537e-10	1.383712e+01	3.494258e+01
2.290000e-06	2.037419e-06	5.124206e-10	1.414111e+01	3.590093e+01
2.300000e-06	2.081164e-06	5.234669e-10	1.444473e+01	3.684116e+01
2.310000e-06	2.124835e-06	5.347799e-10	1.474783e+01	3.776329e+01
2.320000e-06	2.168429e-06	5.476402e-10	1.505040e+01	3.866741e+01
2.330000e-06	2.211988e-06	5.599806e-10	1.535274e+01	3.955364e+01
2.340000e-06	2.255398e-06	5.688996e-10	1.565403e+01	4.042215e+01
2.350000e-06	2.298599e-06	5.794956e-10	1.595388e+01	4.127314e+01
2.360000e-06	2.341682e-06	5.897690e-10	1.625290e+01	4.210686e+01
2.370000e-06	2.384454e-06	6.005536e-10	1.654977e+01	4.292357e+01
2.380000e-06	2.426907e-06	6.120251e-10	1.684443e+01	4.372359e+01
2.390000e-06	2.469034e-06	6.256784e-10	1.713681e+01	4.450721e+01
2.400000e-06	2.510781e-06	6.396358e-10	1.742657e+01	4.527480e+01
2.410000e-06	2.552247e-06	6.509081e-10	1.771437e+01	4.602669e+01
2.420000e-06	2.593395e-06	6.613449e-10	1.799997e+01	4.676324e+01
2.430000e-06	2.634329e-06	6.694708e-10	1.828408e+01	4.748483e+01
2.440000e-06	2.675032e-06	6.791699e-10	1.856659e+01	4.819181e+01
2.450000e-06	2.715444e-06	6.920288e-10	1.884707e+01	4.888456e+01
2.460000e-06	2.755645e-06	7.035995e-10	1.912610e+01	4.956343e+01
2.470000e-06	2.795714e-06	7.162885e-10	1.940420e+01	5.022876e+01
2.480000e-06	2.835646e-06	7.276667e-10	1.968136e+01	5.088088e+01
2.490000e-06	2.875412e-06	7.375677e-10	1.995736e+01	5.152013e+01
2.500000e-06	2.915061e-06	7.447460e-10	2.023255e+01	5.214679e+01
2.510000e-06	2.954604e-06	7.519088e-10	2.050701e+01	5.276114e+01
2.520000e-06	2.994048e-06	7.625943e-10	2.078078e+01	5.336346e+01
2.530000e-06	3.033327e-06	7.752803e-10	2.105340e+01	5.395396e+01
2.540000e-06	3.072320e-06	7.871059e-10	2.132404e+01	5.453286e+01
2.550000e-06	3.111157e-06	7.947114e-10	2.159359e+01	5.510036e+01
2.560000e-06	3.149830e-06	7.996021e-10	2.186202e+01	5.565660e+01
2.570000e-06	3.188116e-06	8.049530e-10	2.212774e+01	5.620173e+01
2.580000e-06	3.226160e-06	8.104077e-10	2.239180e+01	5.673586e+01
2.590000e-06	3.264075e-06	8.181591e-10	2.265495e+01	5.725908e+01
2.600000e-06	3.301778e-06	8.280693e-10	2.291664e+01	5.777146e+01
2.610000e-06	3.339272e-06	8.366119e-10	2.317687e+01	5.827305e+01
2.620000e-06	3.376552e-06	8.463604e-10	2.343562e+01	5.876387e+01
2.630000e-06	3.413570e-06	8.535812e-10	2.369255e+01	5.924394e+01
2.640000e-06	3.450335e-06	8.558029e-10	2.394773e+01	5.971326e+01
2.650000e-06	3.486821e-06	8.561362e-10	2.420097e+01	6.017180e+01
2.660000e-06	3.523011e-06	8.591643e-10	2.445215e+01	6.061956e+01
2.670000e-06	3.559014e-06	8.643346e-10	2.470204e+01	6.105649e+01
2.680000e-06	3.594901e-06	8.709209e-10	2.495111e+01	6.148256e+01
2.690000e-06	3.630674e-06	8.782626e-10	2.519940e+01	6.189773e+01
2.700000e-06	3.666313e-06	8.867449e-10	2.544676e+01	6.230198e+01
2.710000e-06	3.701802e-06	8.948830e-10	2.569308e+01	6.269527e+01
2.720000e-06	3.737141e-06	9.015593e-10	2.593836e+01	6.307759e+01
2.730000e-06	3.772163e-06	9.076177e-10	2.618144e+01	6.344890e+01
2.740000e-06	3.806729e-06	9.124115e-10	2.642135e+01	6.380923e+01
2.750000e-06	3.840860e-06	9.155116e-10	2.665824e+01	6.415857e+01
2.760000e-06	3.874441e-06	9.182045e-10	2.689132e+01	6.449696e+01
2.770000e-06	3.907399e-06	9.224975e-10	2.712007e+01	6.482445e+01
2.780000e-06	3.939907e-06	9.286862e-10	2.734570e+01	6.514111e+01
2.790000e-06	3.972134e-06	9.355185e-10	2.756938e+01	6.544703e+01
2.800000e-06	4.004191e-06	9.433239e-10	2.779188e+01	6.574233e+01
2.810000e-06	4.036107e-06	9.498926e-10	2.801339e+01	6.602713e+01
2.820000e-06	4.067825e-06	9.539393e-10	2.823354e+01	6.630161e+01
2.830000e-06	4.099461e-06	9.574516e-10	2.845312e+01	6.656594e+01
2.840000e-06	4.130894e-06	9.598349e-10	2.867128e+01	6.682035e+01
2.850000e-06	4.161963e-06	9.599542e-10	2.888692e+01	6.706506e+01
2.860000e-06	4.192697e-06	9.618579e-10	2.910024e+01	6.730033e+01
2.870000e-06	4.223076e-06	9.651897e-10	2.931109e+01	6.752645e+01
2.880000e-06	4.253169e-06	9.679363e-10	2.951996e+01	6.774371e+01
2.890000e-06	4.283033e-06	9.722439e-10	2.972723e+01	6.795243e+01
2.900000e-06	4.312636e-06	9.777608e-10	2.993270e+01	6.815296e+01
