# Temperatura_=_-0.5
# Concentracion g/m^3_=_1620.0
# C_Vs_to_Am_M_A/Vsm_=_65563218390.804596
# pendiente_HvsI_1/m_=_3716.3
# ordenada_HvsI_A/m_=_1297.0
# frecuencia_Hz_=_135088.88482886972

Tiempo_(s)	Campo_(V.s)	Magnetizacion_(V.s)	Campo_(kA/m)	Magnetizacion_(A/m)
0.000000e+00	-5.526733e-06	-1.325908e-09	-3.838432e+01	-8.616417e+01
1.000000e-08	-5.526989e-06	-1.324492e-09	-3.838609e+01	-8.618054e+01
2.000000e-08	-5.527058e-06	-1.324085e-09	-3.838658e+01	-8.619742e+01
3.000000e-08	-5.526845e-06	-1.326717e-09	-3.838509e+01	-8.621464e+01
4.000000e-08	-5.526153e-06	-1.328952e-09	-3.838029e+01	-8.623202e+01
5.000000e-08	-5.524976e-06	-1.329636e-09	-3.837211e+01	-8.624936e+01
6.000000e-08	-5.523219e-06	-1.331062e-09	-3.835991e+01	-8.626642e+01
7.000000e-08	-5.520820e-06	-1.329782e-09	-3.834325e+01	-8.628295e+01
8.000000e-08	-5.517835e-06	-1.310729e-09	-3.832252e+01	-8.629869e+01
9.000000e-08	-5.514371e-06	-1.272871e-09	-3.829846e+01	-8.631333e+01
1.000000e-07	-5.510449e-06	-1.294896e-09	-3.827122e+01	-8.632658e+01
1.100000e-07	-5.506237e-06	-1.349484e-09	-3.824197e+01	-8.633812e+01
1.200000e-07	-5.501809e-06	-1.350481e-09	-3.821122e+01	-8.634764e+01
1.300000e-07	-5.496995e-06	-1.248302e-09	-3.817778e+01	-8.635481e+01
1.400000e-07	-5.491817e-06	-1.265999e-09	-3.814181e+01	-8.635930e+01
1.500000e-07	-5.486352e-06	-1.330409e-09	-3.810386e+01	-8.636079e+01
1.600000e-07	-5.480536e-06	-1.336906e-09	-3.806347e+01	-8.635896e+01
1.700000e-07	-5.474327e-06	-1.221467e-09	-3.802034e+01	-8.635350e+01
1.800000e-07	-5.467731e-06	-1.249423e-09	-3.797453e+01	-8.634411e+01
1.900000e-07	-5.460687e-06	-1.362090e-09	-3.792561e+01	-8.633050e+01
2.000000e-07	-5.453284e-06	-1.379435e-09	-3.787419e+01	-8.631239e+01
2.100000e-07	-5.445694e-06	-1.289793e-09	-3.782148e+01	-8.628955e+01
2.200000e-07	-5.437888e-06	-1.280424e-09	-3.776726e+01	-8.626172e+01
2.300000e-07	-5.429711e-06	-1.364485e-09	-3.771048e+01	-8.622870e+01
2.400000e-07	-5.421154e-06	-1.370310e-09	-3.765105e+01	-8.619031e+01
2.500000e-07	-5.412202e-06	-1.339009e-09	-3.758887e+01	-8.614639e+01
2.600000e-07	-5.402631e-06	-1.318550e-09	-3.752240e+01	-8.609679e+01
2.700000e-07	-5.392284e-06	-1.356392e-09	-3.745054e+01	-8.604141e+01
2.800000e-07	-5.381361e-06	-1.330452e-09	-3.737467e+01	-8.598017e+01
2.900000e-07	-5.370040e-06	-1.307174e-09	-3.729605e+01	-8.591302e+01
3.000000e-07	-5.358320e-06	-1.299271e-09	-3.721465e+01	-8.583992e+01
3.100000e-07	-5.346174e-06	-1.344558e-09	-3.713029e+01	-8.576089e+01
3.200000e-07	-5.333605e-06	-1.327152e-09	-3.704300e+01	-8.567593e+01
3.300000e-07	-5.320581e-06	-1.313573e-09	-3.695255e+01	-8.558512e+01
3.400000e-07	-5.307118e-06	-1.292292e-09	-3.685904e+01	-8.548851e+01
3.500000e-07	-5.293332e-06	-1.328366e-09	-3.676329e+01	-8.538622e+01
3.600000e-07	-5.279151e-06	-1.306473e-09	-3.666480e+01	-8.527835e+01
3.700000e-07	-5.264335e-06	-1.280574e-09	-3.656191e+01	-8.516504e+01
3.800000e-07	-5.249023e-06	-1.287629e-09	-3.645556e+01	-8.504645e+01
3.900000e-07	-5.233359e-06	-1.336963e-09	-3.634677e+01	-8.492274e+01
4.000000e-07	-5.217136e-06	-1.294604e-09	-3.623410e+01	-8.479410e+01
4.100000e-07	-5.200542e-06	-1.259832e-09	-3.611885e+01	-8.466070e+01
4.200000e-07	-5.183763e-06	-1.308192e-09	-3.600232e+01	-8.452276e+01
4.300000e-07	-5.166619e-06	-1.308418e-09	-3.588325e+01	-8.438046e+01
4.400000e-07	-5.149103e-06	-1.236582e-09	-3.576160e+01	-8.423401e+01
4.500000e-07	-5.131222e-06	-1.262616e-09	-3.563741e+01	-8.408362e+01
4.600000e-07	-5.112939e-06	-1.332172e-09	-3.551043e+01	-8.392948e+01
4.700000e-07	-5.094250e-06	-1.266487e-09	-3.538063e+01	-8.377179e+01
4.800000e-07	-5.075158e-06	-1.226217e-09	-3.524803e+01	-8.361075e+01
4.900000e-07	-5.055763e-06	-1.287187e-09	-3.511333e+01	-8.344652e+01
5.000000e-07	-5.036126e-06	-1.278713e-09	-3.497695e+01	-8.327928e+01
5.100000e-07	-5.016250e-06	-1.209757e-09	-3.483890e+01	-8.310919e+01
5.200000e-07	-4.996138e-06	-1.265204e-09	-3.469922e+01	-8.293639e+01
5.300000e-07	-4.975715e-06	-1.285892e-09	-3.455738e+01	-8.276102e+01
5.400000e-07	-4.954858e-06	-1.222206e-09	-3.441252e+01	-8.258317e+01
5.500000e-07	-4.933616e-06	-1.239458e-09	-3.426499e+01	-8.240296e+01
5.600000e-07	-4.912053e-06	-1.302337e-09	-3.411523e+01	-8.222047e+01
5.700000e-07	-4.890253e-06	-1.227391e-09	-3.396383e+01	-8.203574e+01
5.800000e-07	-4.868130e-06	-1.197926e-09	-3.381018e+01	-8.184884e+01
5.900000e-07	-4.845590e-06	-1.255506e-09	-3.365364e+01	-8.165979e+01
6.000000e-07	-4.822757e-06	-1.241091e-09	-3.349505e+01	-8.146861e+01
6.100000e-07	-4.799600e-06	-1.191071e-09	-3.333423e+01	-8.127528e+01
6.200000e-07	-4.776072e-06	-1.244597e-09	-3.317082e+01	-8.107979e+01
6.300000e-07	-4.752280e-06	-1.248651e-09	-3.300558e+01	-8.088211e+01
6.400000e-07	-4.728361e-06	-1.198230e-09	-3.283946e+01	-8.068219e+01
6.500000e-07	-4.704139e-06	-1.213810e-09	-3.267123e+01	-8.047998e+01
6.600000e-07	-4.679439e-06	-1.239200e-09	-3.249968e+01	-8.027540e+01
6.700000e-07	-4.654237e-06	-1.194721e-09	-3.232465e+01	-8.006839e+01
6.800000e-07	-4.628592e-06	-1.195268e-09	-3.214654e+01	-7.985885e+01
6.900000e-07	-4.602448e-06	-1.216534e-09	-3.196496e+01	-7.964670e+01
7.000000e-07	-4.575767e-06	-1.192767e-09	-3.177966e+01	-7.943184e+01
7.100000e-07	-4.548664e-06	-1.180181e-09	-3.159142e+01	-7.921419e+01
7.200000e-07	-4.521239e-06	-1.201898e-09	-3.140095e+01	-7.899364e+01
7.300000e-07	-4.493599e-06	-1.190079e-09	-3.120899e+01	-7.877010e+01
7.400000e-07	-4.465775e-06	-1.173340e-09	-3.101574e+01	-7.854348e+01
7.500000e-07	-4.437798e-06	-1.194318e-09	-3.082143e+01	-7.831370e+01
7.600000e-07	-4.409579e-06	-1.188201e-09	-3.062545e+01	-7.808067e+01
7.700000e-07	-4.381004e-06	-1.167689e-09	-3.042699e+01	-7.784431e+01
7.800000e-07	-4.352170e-06	-1.170984e-09	-3.022673e+01	-7.760457e+01
7.900000e-07	-4.323014e-06	-1.167402e-09	-3.002423e+01	-7.736137e+01
8.000000e-07	-4.293455e-06	-1.143778e-09	-2.981895e+01	-7.711467e+01
8.100000e-07	-4.263577e-06	-1.151509e-09	-2.961143e+01	-7.686443e+01
8.200000e-07	-4.233447e-06	-1.159553e-09	-2.940217e+01	-7.661061e+01
8.300000e-07	-4.203033e-06	-1.146889e-09	-2.919094e+01	-7.635321e+01
8.400000e-07	-4.172244e-06	-1.140117e-09	-2.897711e+01	-7.609220e+01
8.500000e-07	-4.141215e-06	-1.151511e-09	-2.876161e+01	-7.582758e+01
8.600000e-07	-4.109906e-06	-1.136816e-09	-2.854416e+01	-7.555936e+01
8.700000e-07	-4.078333e-06	-1.123110e-09	-2.832487e+01	-7.528757e+01
8.800000e-07	-4.046730e-06	-1.126658e-09	-2.810539e+01	-7.501221e+01
8.900000e-07	-4.015030e-06	-1.125986e-09	-2.788522e+01	-7.473333e+01
9.000000e-07	-3.983124e-06	-1.108691e-09	-2.766363e+01	-7.445095e+01
9.100000e-07	-3.950935e-06	-1.111773e-09	-2.744007e+01	-7.416512e+01
9.200000e-07	-3.918342e-06	-1.109524e-09	-2.721370e+01	-7.387588e+01
9.300000e-07	-3.885358e-06	-1.094067e-09	-2.698462e+01	-7.358327e+01
9.400000e-07	-3.852000e-06	-1.085788e-09	-2.675295e+01	-7.328735e+01
9.500000e-07	-3.818136e-06	-1.090786e-09	-2.651775e+01	-7.298814e+01
9.600000e-07	-3.783754e-06	-1.083503e-09	-2.627896e+01	-7.268570e+01
9.700000e-07	-3.749035e-06	-1.076983e-09	-2.603783e+01	-7.238005e+01
9.800000e-07	-3.714019e-06	-1.079001e-09	-2.579464e+01	-7.207122e+01
9.900000e-07	-3.678710e-06	-1.071786e-09	-2.554941e+01	-7.175923e+01
1.000000e-06	-3.643155e-06	-1.057604e-09	-2.530247e+01	-7.144410e+01
1.010000e-06	-3.607453e-06	-1.054908e-09	-2.505451e+01	-7.112582e+01
1.020000e-06	-3.571576e-06	-1.052181e-09	-2.480534e+01	-7.080438e+01
1.030000e-06	-3.535552e-06	-1.042137e-09	-2.455514e+01	-7.047976e+01
1.040000e-06	-3.499459e-06	-1.041305e-09	-2.430447e+01	-7.015192e+01
1.050000e-06	-3.463198e-06	-1.042725e-09	-2.405263e+01	-6.982080e+01
1.060000e-06	-3.426597e-06	-1.032162e-09	-2.379844e+01	-6.948633e+01
1.070000e-06	-3.389654e-06	-1.018824e-09	-2.354186e+01	-6.914843e+01
1.080000e-06	-3.352431e-06	-1.013930e-09	-2.328333e+01	-6.880700e+01
1.090000e-06	-3.314979e-06	-1.004990e-09	-2.302322e+01	-6.846192e+01
1.100000e-06	-3.277289e-06	-9.986085e-10	-2.276146e+01	-6.811305e+01
1.110000e-06	-3.239383e-06	-9.956614e-10	-2.249819e+01	-6.776026e+01
1.120000e-06	-3.201230e-06	-9.902129e-10	-2.223321e+01	-6.740336e+01
1.130000e-06	-3.162802e-06	-9.785269e-10	-2.196632e+01	-6.704219e+01
1.140000e-06	-3.124260e-06	-9.739105e-10	-2.169864e+01	-6.667654e+01
1.150000e-06	-3.085513e-06	-9.685485e-10	-2.142953e+01	-6.630622e+01
1.160000e-06	-3.046517e-06	-9.613117e-10	-2.115870e+01	-6.593100e+01
1.170000e-06	-3.007306e-06	-9.542633e-10	-2.088637e+01	-6.555066e+01
1.180000e-06	-2.967891e-06	-9.526231e-10	-2.061262e+01	-6.516495e+01
1.190000e-06	-2.928298e-06	-9.482239e-10	-2.033764e+01	-6.477365e+01
1.200000e-06	-2.888565e-06	-9.430377e-10	-2.006169e+01	-6.437648e+01
1.210000e-06	-2.848746e-06	-9.349088e-10	-1.978513e+01	-6.397320e+01
1.220000e-06	-2.808799e-06	-9.237421e-10	-1.950769e+01	-6.356356e+01
1.230000e-06	-2.768668e-06	-9.117475e-10	-1.922898e+01	-6.314728e+01
1.240000e-06	-2.728397e-06	-9.071952e-10	-1.894928e+01	-6.272412e+01
1.250000e-06	-2.688102e-06	-9.031491e-10	-1.866943e+01	-6.229382e+01
1.260000e-06	-2.647525e-06	-8.981980e-10	-1.838761e+01	-6.185612e+01
1.270000e-06	-2.606615e-06	-8.959290e-10	-1.810348e+01	-6.141078e+01
1.280000e-06	-2.565486e-06	-8.927047e-10	-1.781783e+01	-6.095755e+01
1.290000e-06	-2.523958e-06	-8.832463e-10	-1.752941e+01	-6.049620e+01
1.300000e-06	-2.482040e-06	-8.688602e-10	-1.723829e+01	-6.002650e+01
1.310000e-06	-2.439860e-06	-8.543716e-10	-1.694534e+01	-5.954824e+01
1.320000e-06	-2.397503e-06	-8.441226e-10	-1.665116e+01	-5.906120e+01
1.330000e-06	-2.354890e-06	-8.383045e-10	-1.635520e+01	-5.856520e+01
1.340000e-06	-2.311938e-06	-8.373624e-10	-1.605689e+01	-5.806004e+01
1.350000e-06	-2.268770e-06	-8.372529e-10	-1.575708e+01	-5.754555e+01
1.360000e-06	-2.225427e-06	-8.313768e-10	-1.545605e+01	-5.702156e+01
1.370000e-06	-2.181958e-06	-8.204439e-10	-1.515416e+01	-5.648791e+01
1.380000e-06	-2.138363e-06	-8.064176e-10	-1.485138e+01	-5.594445e+01
1.390000e-06	-2.094603e-06	-7.932585e-10	-1.454745e+01	-5.539106e+01
1.400000e-06	-2.050818e-06	-7.810683e-10	-1.424336e+01	-5.482759e+01
1.410000e-06	-2.007025e-06	-7.733040e-10	-1.393921e+01	-5.425392e+01
1.420000e-06	-1.963061e-06	-7.657259e-10	-1.363387e+01	-5.366994e+01
1.430000e-06	-1.918939e-06	-7.595258e-10	-1.332743e+01	-5.307552e+01
1.440000e-06	-1.874767e-06	-7.516615e-10	-1.302065e+01	-5.247056e+01
1.450000e-06	-1.830501e-06	-7.420330e-10	-1.271321e+01	-5.185494e+01
1.460000e-06	-1.786176e-06	-7.315427e-10	-1.240536e+01	-5.122855e+01
1.470000e-06	-1.741830e-06	-7.199954e-10	-1.209737e+01	-5.059126e+01
1.480000e-06	-1.697309e-06	-7.056009e-10	-1.178816e+01	-4.994297e+01
1.490000e-06	-1.652618e-06	-6.911426e-10	-1.147778e+01	-4.928355e+01
1.500000e-06	-1.607732e-06	-6.802559e-10	-1.116604e+01	-4.861285e+01
1.510000e-06	-1.562663e-06	-6.715344e-10	-1.085302e+01	-4.793074e+01
1.520000e-06	-1.517527e-06	-6.615986e-10	-1.053954e+01	-4.723707e+01
1.530000e-06	-1.472317e-06	-6.490859e-10	-1.022555e+01	-4.653167e+01
1.540000e-06	-1.427045e-06	-6.346148e-10	-9.911124e+00	-4.581435e+01
1.550000e-06	-1.381606e-06	-6.232806e-10	-9.595542e+00	-4.508494e+01
1.560000e-06	-1.336045e-06	-6.110279e-10	-9.279114e+00	-4.434322e+01
1.570000e-06	-1.290439e-06	-5.982705e-10	-8.962366e+00	-4.358897e+01
1.580000e-06	-1.244672e-06	-5.842637e-10	-8.644506e+00	-4.282195e+01
1.590000e-06	-1.198809e-06	-5.727881e-10	-8.325976e+00	-4.204192e+01
1.600000e-06	-1.153003e-06	-5.606579e-10	-8.007848e+00	-4.124861e+01
1.610000e-06	-1.107111e-06	-5.464220e-10	-7.689114e+00	-4.044174e+01
1.620000e-06	-1.061062e-06	-5.306376e-10	-7.369295e+00	-3.962102e+01
1.630000e-06	-1.014917e-06	-5.146297e-10	-7.048812e+00	-3.878615e+01
1.640000e-06	-9.687385e-07	-5.012700e-10	-6.728091e+00	-3.793681e+01
1.650000e-06	-9.225002e-07	-4.866524e-10	-6.406957e+00	-3.707269e+01
1.660000e-06	-8.761453e-07	-4.752028e-10	-6.085012e+00	-3.619346e+01
1.670000e-06	-8.297303e-07	-4.629795e-10	-5.762650e+00	-3.529880e+01
1.680000e-06	-7.832635e-07	-4.507567e-10	-5.439929e+00	-3.438838e+01
1.690000e-06	-7.368049e-07	-4.358814e-10	-5.117264e+00	-3.346188e+01
1.700000e-06	-6.902647e-07	-4.205045e-10	-4.794033e+00	-3.251898e+01
1.710000e-06	-6.436028e-07	-4.042951e-10	-4.469956e+00	-3.155939e+01
1.720000e-06	-5.970139e-07	-3.868056e-10	-4.146386e+00	-3.058281e+01
1.730000e-06	-5.504116e-07	-3.703545e-10	-3.822723e+00	-2.958898e+01
1.740000e-06	-5.037147e-07	-3.572023e-10	-3.498404e+00	-2.857764e+01
1.750000e-06	-4.570666e-07	-3.453678e-10	-3.174423e+00	-2.754858e+01
1.760000e-06	-4.104265e-07	-3.324734e-10	-2.850498e+00	-2.650162e+01
1.770000e-06	-3.637236e-07	-3.160226e-10	-2.526136e+00	-2.543659e+01
1.780000e-06	-3.169272e-07	-2.999113e-10	-2.201126e+00	-2.435339e+01
1.790000e-06	-2.701259e-07	-2.839645e-10	-1.876081e+00	-2.325194e+01
1.800000e-06	-2.233137e-07	-2.639374e-10	-1.550960e+00	-2.213222e+01
1.810000e-06	-1.763862e-07	-2.442298e-10	-1.225039e+00	-2.099426e+01
1.820000e-06	-1.294598e-07	-2.244103e-10	-8.991254e-01	-1.983815e+01
1.830000e-06	-8.261194e-08	-2.074709e-10	-5.737572e-01	-1.866401e+01
1.840000e-06	-3.570137e-08	-1.924937e-10	-2.479535e-01	-1.747205e+01
1.850000e-06	1.124211e-08	-1.783838e-10	7.807881e-02	-1.626254e+01
1.860000e-06	5.807467e-08	-1.654164e-10	4.033407e-01	-1.503580e+01
1.870000e-06	1.049489e-07	-1.492227e-10	7.288919e-01	-1.379222e+01
1.880000e-06	1.519266e-07	-1.298157e-10	1.055162e+00	-1.253226e+01
1.890000e-06	1.988278e-07	-1.089772e-10	1.380900e+00	-1.125645e+01
1.900000e-06	2.456892e-07	-8.760172e-11	1.706363e+00	-9.965399e+00
1.910000e-06	2.925745e-07	-6.871717e-11	2.031991e+00	-8.659758e+00
1.920000e-06	3.393863e-07	-5.462176e-11	2.357109e+00	-7.340263e+00
1.930000e-06	3.861011e-07	-4.244937e-11	2.681552e+00	-6.007712e+00
1.940000e-06	4.327628e-07	-2.832443e-11	3.005628e+00	-4.662966e+00
1.950000e-06	4.794411e-07	-1.204179e-11	3.329818e+00	-3.306949e+00
1.960000e-06	5.260573e-07	5.464723e-12	3.653578e+00	-1.940642e+00
1.970000e-06	5.726172e-07	2.384378e-11	3.976946e+00	-5.650819e-01
1.980000e-06	6.191576e-07	4.323389e-11	4.300179e+00	8.186439e-01
1.990000e-06	6.656951e-07	6.160029e-11	4.623391e+00	2.209400e+00
2.000000e-06	7.122295e-07	8.045530e-11	4.946582e+00	3.606011e+00
2.010000e-06	7.587450e-07	9.964706e-11	5.269643e+00	5.007261e+00
2.020000e-06	8.050966e-07	1.171193e-10	5.591564e+00	6.411907e+00
2.030000e-06	8.512983e-07	1.341571e-10	5.912444e+00	7.818676e+00
2.040000e-06	8.974948e-07	1.524309e-10	6.233289e+00	9.226278e+00
2.050000e-06	9.437728e-07	1.699728e-10	6.554699e+00	1.063341e+01
2.060000e-06	9.900339e-07	1.863822e-10	6.875992e+00	1.203876e+01
2.070000e-06	1.036148e-06	2.038644e-10	7.196265e+00	1.344101e+01
2.080000e-06	1.082166e-06	2.247079e-10	7.515872e+00	1.483887e+01
2.090000e-06	1.128056e-06	2.456673e-10	7.834582e+00	1.623103e+01
2.100000e-06	1.173844e-06	2.669287e-10	8.152591e+00	1.761623e+01
2.110000e-06	1.219575e-06	2.881336e-10	8.470202e+00	1.899322e+01
2.120000e-06	1.265204e-06	3.082081e-10	8.787105e+00	2.036077e+01
2.130000e-06	1.310704e-06	3.271149e-10	9.103112e+00	2.171771e+01
2.140000e-06	1.356098e-06	3.438578e-10	9.418385e+00	2.306291e+01
2.150000e-06	1.401461e-06	3.599483e-10	9.733441e+00	2.439527e+01
2.160000e-06	1.446801e-06	3.758317e-10	1.004834e+01	2.571377e+01
2.170000e-06	1.492032e-06	3.932480e-10	1.036247e+01	2.701742e+01
2.180000e-06	1.537127e-06	4.125446e-10	1.067567e+01	2.830532e+01
2.190000e-06	1.581993e-06	4.323020e-10	1.098727e+01	2.957661e+01
2.200000e-06	1.626743e-06	4.516126e-10	1.129807e+01	3.083052e+01
2.210000e-06	1.671481e-06	4.692102e-10	1.160878e+01	3.206635e+01
2.220000e-06	1.716110e-06	4.857392e-10	1.191874e+01	3.328346e+01
2.230000e-06	1.760628e-06	5.012519e-10	1.222793e+01	3.448129e+01
2.240000e-06	1.804980e-06	5.150528e-10	1.253596e+01	3.565936e+01
2.250000e-06	1.849141e-06	5.284804e-10	1.284267e+01	3.681727e+01
2.260000e-06	1.893226e-06	5.418037e-10	1.314885e+01	3.795469e+01
2.270000e-06	1.937259e-06	5.575675e-10	1.345467e+01	3.907136e+01
2.280000e-06	1.981218e-06	5.755680e-10	1.375997e+01	4.016711e+01
2.290000e-06	2.025068e-06	5.949950e-10	1.406452e+01	4.124183e+01
2.300000e-06	2.068837e-06	6.123575e-10	1.436850e+01	4.229548e+01
2.310000e-06	2.112573e-06	6.272036e-10	1.467226e+01	4.332809e+01
2.320000e-06	2.156233e-06	6.421015e-10	1.497549e+01	4.433976e+01
2.330000e-06	2.199740e-06	6.536013e-10	1.527766e+01	4.533062e+01
2.340000e-06	2.243098e-06	6.628855e-10	1.557878e+01	4.630090e+01
2.350000e-06	2.286241e-06	6.701895e-10	1.587842e+01	4.725084e+01
2.360000e-06	2.329213e-06	6.785351e-10	1.617687e+01	4.818076e+01
2.370000e-06	2.372027e-06	6.908195e-10	1.647423e+01	4.909099e+01
2.380000e-06	2.414542e-06	7.064010e-10	1.676950e+01	4.998192e+01
2.390000e-06	2.456750e-06	7.236055e-10	1.706264e+01	5.085397e+01
2.400000e-06	2.498698e-06	7.417995e-10	1.735398e+01	5.170757e+01
2.410000e-06	2.540367e-06	7.573529e-10	1.764338e+01	5.254317e+01
2.420000e-06	2.581748e-06	7.682655e-10	1.793078e+01	5.336125e+01
2.430000e-06	2.622845e-06	7.773755e-10	1.821621e+01	5.416230e+01
2.440000e-06	2.663650e-06	7.844401e-10	1.849960e+01	5.494680e+01
2.450000e-06	2.704166e-06	7.961395e-10	1.878100e+01	5.571524e+01
2.460000e-06	2.744421e-06	8.109406e-10	1.906058e+01	5.646810e+01
2.470000e-06	2.784521e-06	8.243738e-10	1.933908e+01	5.720586e+01
2.480000e-06	2.824465e-06	8.354933e-10	1.961650e+01	5.792898e+01
2.490000e-06	2.864285e-06	8.455305e-10	1.989306e+01	5.863790e+01
2.500000e-06	2.903985e-06	8.545799e-10	2.016878e+01	5.933305e+01
2.510000e-06	2.943523e-06	8.633348e-10	2.044338e+01	6.001482e+01
2.520000e-06	2.982849e-06	8.727758e-10	2.071651e+01	6.068360e+01
2.530000e-06	3.022046e-06	8.825680e-10	2.098874e+01	6.133973e+01
2.540000e-06	3.061024e-06	8.923894e-10	2.125945e+01	6.198353e+01
2.550000e-06	3.099738e-06	9.005099e-10	2.152833e+01	6.261529e+01
2.560000e-06	3.138255e-06	9.073261e-10	2.179584e+01	6.323528e+01
2.570000e-06	3.176523e-06	9.165158e-10	2.206162e+01	6.384371e+01
2.580000e-06	3.214592e-06	9.241511e-10	2.232601e+01	6.444079e+01
2.590000e-06	3.252548e-06	9.308704e-10	2.258962e+01	6.502668e+01
2.600000e-06	3.290298e-06	9.389096e-10	2.285181e+01	6.560153e+01
2.610000e-06	3.327739e-06	9.476815e-10	2.311184e+01	6.616544e+01
2.620000e-06	3.365046e-06	9.578880e-10	2.337095e+01	6.671849e+01
2.630000e-06	3.402130e-06	9.665857e-10	2.362850e+01	6.726076e+01
2.640000e-06	3.438896e-06	9.743944e-10	2.388385e+01	6.779228e+01
2.650000e-06	3.475397e-06	9.788822e-10	2.413736e+01	6.831306e+01
2.660000e-06	3.511618e-06	9.835796e-10	2.438892e+01	6.882313e+01
2.670000e-06	3.547662e-06	9.887316e-10	2.463925e+01	6.932246e+01
2.680000e-06	3.583571e-06	9.949174e-10	2.488865e+01	6.981106e+01
2.690000e-06	3.619317e-06	1.002478e-09	2.513692e+01	7.028888e+01
2.700000e-06	3.654936e-06	1.011037e-09	2.538430e+01	7.075591e+01
2.710000e-06	3.690419e-06	1.020783e-09	2.563073e+01	7.121212e+01
2.720000e-06	3.725666e-06	1.030028e-09	2.587553e+01	7.165749e+01
2.730000e-06	3.760653e-06	1.039126e-09	2.611852e+01	7.209200e+01
2.740000e-06	3.795292e-06	1.046062e-09	2.635910e+01	7.251565e+01
2.750000e-06	3.829560e-06	1.049215e-09	2.659710e+01	7.292844e+01
2.760000e-06	3.863313e-06	1.050216e-09	2.683152e+01	7.333039e+01
2.770000e-06	3.896534e-06	1.052333e-09	2.706224e+01	7.372155e+01
2.780000e-06	3.929343e-06	1.058118e-09	2.729011e+01	7.410196e+01
2.790000e-06	3.961702e-06	1.066858e-09	2.751485e+01	7.447171e+01
2.800000e-06	3.993788e-06	1.078030e-09	2.773769e+01	7.483089e+01
2.810000e-06	4.025708e-06	1.088940e-09	2.795938e+01	7.517963e+01
2.820000e-06	4.057506e-06	1.095410e-09	2.818023e+01	7.551808e+01
2.830000e-06	4.089132e-06	1.098252e-09	2.839988e+01	7.584640e+01
2.840000e-06	4.120555e-06	1.099121e-09	2.861812e+01	7.616480e+01
2.850000e-06	4.151655e-06	1.098153e-09	2.883411e+01	7.647349e+01
2.860000e-06	4.182433e-06	1.101194e-09	2.904787e+01	7.677272e+01
2.870000e-06	4.212973e-06	1.108010e-09	2.925998e+01	7.706275e+01
2.880000e-06	4.243098e-06	1.115253e-09	2.946920e+01	7.734387e+01
2.890000e-06	4.272944e-06	1.124636e-09	2.967649e+01	7.761640e+01
2.900000e-06	4.302560e-06	1.132877e-09	2.988218e+01	7.788064e+01
