# Temperatura_=_13.1
# Concentracion g/m^3_=_1620.0
# C_Vs_to_Am_M_A/Vsm_=_65563218390.804596
# pendiente_HvsI_1/m_=_3716.3
# ordenada_HvsI_A/m_=_1297.0
# frecuencia_Hz_=_135101.59702686509

Tiempo_(s)	Campo_(V.s)	Magnetizacion_(V.s)	Campo_(kA/m)	Magnetizacion_(A/m)
0.000000e+00	-5.544360e-06	-7.739895e-10	-3.836325e+01	-5.204464e+01
1.000000e-08	-5.544409e-06	-7.768853e-10	-3.836358e+01	-5.202667e+01
2.000000e-08	-5.544242e-06	-7.815424e-10	-3.836243e+01	-5.200865e+01
3.000000e-08	-5.543641e-06	-7.832982e-10	-3.835827e+01	-5.199055e+01
4.000000e-08	-5.542565e-06	-7.821584e-10	-3.835083e+01	-5.197230e+01
5.000000e-08	-5.540971e-06	-7.780611e-10	-3.833980e+01	-5.195385e+01
6.000000e-08	-5.538740e-06	-7.565020e-10	-3.832436e+01	-5.193512e+01
7.000000e-08	-5.535914e-06	-7.476481e-10	-3.830481e+01	-5.191604e+01
8.000000e-08	-5.532523e-06	-7.955936e-10	-3.828134e+01	-5.189654e+01
9.000000e-08	-5.528614e-06	-8.626608e-10	-3.825430e+01	-5.187652e+01
1.000000e-07	-5.524229e-06	-8.019720e-10	-3.822396e+01	-5.185590e+01
1.100000e-07	-5.519668e-06	-7.092606e-10	-3.819239e+01	-5.183459e+01
1.200000e-07	-5.515113e-06	-7.077052e-10	-3.816087e+01	-5.181249e+01
1.300000e-07	-5.510202e-06	-8.131641e-10	-3.812689e+01	-5.178952e+01
1.400000e-07	-5.504724e-06	-7.894990e-10	-3.808899e+01	-5.176559e+01
1.500000e-07	-5.498869e-06	-7.127192e-10	-3.804848e+01	-5.174060e+01
1.600000e-07	-5.492756e-06	-7.113558e-10	-3.800618e+01	-5.171448e+01
1.700000e-07	-5.486204e-06	-8.174174e-10	-3.796084e+01	-5.168714e+01
1.800000e-07	-5.479164e-06	-7.961940e-10	-3.791213e+01	-5.165850e+01
1.900000e-07	-5.471755e-06	-7.240891e-10	-3.786087e+01	-5.162849e+01
2.000000e-07	-5.464062e-06	-7.155744e-10	-3.780764e+01	-5.159704e+01
2.100000e-07	-5.456111e-06	-7.893561e-10	-3.775262e+01	-5.156410e+01
2.200000e-07	-5.447915e-06	-8.023110e-10	-3.769591e+01	-5.152961e+01
2.300000e-07	-5.439502e-06	-7.587980e-10	-3.763770e+01	-5.149352e+01
2.400000e-07	-5.430552e-06	-7.567968e-10	-3.757577e+01	-5.145579e+01
2.500000e-07	-5.420793e-06	-7.764159e-10	-3.750824e+01	-5.141639e+01
2.600000e-07	-5.410353e-06	-7.851925e-10	-3.743601e+01	-5.137528e+01
2.700000e-07	-5.399418e-06	-7.622123e-10	-3.736034e+01	-5.133245e+01
2.800000e-07	-5.387996e-06	-7.783200e-10	-3.728131e+01	-5.128788e+01
2.900000e-07	-5.376183e-06	-7.826268e-10	-3.719957e+01	-5.124156e+01
3.000000e-07	-5.364048e-06	-8.059190e-10	-3.711561e+01	-5.119349e+01
3.100000e-07	-5.351462e-06	-7.753571e-10	-3.702852e+01	-5.114366e+01
3.200000e-07	-5.338333e-06	-7.766307e-10	-3.693767e+01	-5.109208e+01
3.300000e-07	-5.324844e-06	-7.687259e-10	-3.684434e+01	-5.103876e+01
3.400000e-07	-5.311157e-06	-7.946133e-10	-3.674964e+01	-5.098371e+01
3.500000e-07	-5.297041e-06	-7.582235e-10	-3.665197e+01	-5.092694e+01
3.600000e-07	-5.282478e-06	-7.713429e-10	-3.655120e+01	-5.086847e+01
3.700000e-07	-5.267508e-06	-7.862625e-10	-3.644762e+01	-5.080831e+01
3.800000e-07	-5.251924e-06	-7.838413e-10	-3.633979e+01	-5.074648e+01
3.900000e-07	-5.235641e-06	-7.528129e-10	-3.622712e+01	-5.068301e+01
4.000000e-07	-5.218897e-06	-7.917880e-10	-3.611126e+01	-5.061789e+01
4.100000e-07	-5.201842e-06	-7.932819e-10	-3.599325e+01	-5.055116e+01
4.200000e-07	-5.184477e-06	-7.418042e-10	-3.587310e+01	-5.048282e+01
4.300000e-07	-5.166871e-06	-7.499159e-10	-3.575128e+01	-5.041289e+01
4.400000e-07	-5.148984e-06	-8.034402e-10	-3.562751e+01	-5.034137e+01
4.500000e-07	-5.130691e-06	-7.614228e-10	-3.550094e+01	-5.026827e+01
4.600000e-07	-5.111912e-06	-7.193306e-10	-3.537100e+01	-5.019360e+01
4.700000e-07	-5.092799e-06	-7.707268e-10	-3.523875e+01	-5.011737e+01
4.800000e-07	-5.073409e-06	-7.762314e-10	-3.510458e+01	-5.003956e+01
4.900000e-07	-5.053663e-06	-7.249593e-10	-3.496795e+01	-4.996018e+01
5.000000e-07	-5.033723e-06	-7.441897e-10	-3.482998e+01	-4.987923e+01
5.100000e-07	-5.013604e-06	-7.730806e-10	-3.469077e+01	-4.979670e+01
5.200000e-07	-4.993106e-06	-7.216833e-10	-3.454894e+01	-4.971259e+01
5.300000e-07	-4.972246e-06	-7.303985e-10	-3.440460e+01	-4.962688e+01
5.400000e-07	-4.951058e-06	-7.774401e-10	-3.425800e+01	-4.953956e+01
5.500000e-07	-4.929530e-06	-7.456477e-10	-3.410904e+01	-4.945064e+01
5.600000e-07	-4.907647e-06	-7.035224e-10	-3.395762e+01	-4.936010e+01
5.700000e-07	-4.885412e-06	-7.521558e-10	-3.380377e+01	-4.926793e+01
5.800000e-07	-4.862834e-06	-7.505834e-10	-3.364755e+01	-4.917414e+01
5.900000e-07	-4.839927e-06	-7.117693e-10	-3.348904e+01	-4.907872e+01
6.000000e-07	-4.816718e-06	-7.300805e-10	-3.332845e+01	-4.898167e+01
6.100000e-07	-4.793068e-06	-7.588855e-10	-3.316481e+01	-4.888300e+01
6.200000e-07	-4.769187e-06	-7.145038e-10	-3.299957e+01	-4.878272e+01
6.300000e-07	-4.745267e-06	-7.095037e-10	-3.283406e+01	-4.868083e+01
6.400000e-07	-4.721109e-06	-7.314250e-10	-3.266690e+01	-4.857737e+01
6.500000e-07	-4.696512e-06	-7.202212e-10	-3.249671e+01	-4.847236e+01
6.600000e-07	-4.671423e-06	-7.020534e-10	-3.232311e+01	-4.836582e+01
6.700000e-07	-4.645795e-06	-7.276022e-10	-3.214578e+01	-4.825779e+01
6.800000e-07	-4.619573e-06	-7.224357e-10	-3.196434e+01	-4.814831e+01
6.900000e-07	-4.592760e-06	-7.058970e-10	-3.177882e+01	-4.803744e+01
7.000000e-07	-4.565450e-06	-7.135626e-10	-3.158984e+01	-4.792522e+01
7.100000e-07	-4.537870e-06	-7.211845e-10	-3.139901e+01	-4.781172e+01
7.200000e-07	-4.510093e-06	-7.018582e-10	-3.120682e+01	-4.769699e+01
7.300000e-07	-4.482160e-06	-7.027190e-10	-3.101353e+01	-4.758110e+01
7.400000e-07	-4.454096e-06	-7.161300e-10	-3.081935e+01	-4.746413e+01
7.500000e-07	-4.425803e-06	-7.109300e-10	-3.062358e+01	-4.734616e+01
7.600000e-07	-4.397221e-06	-7.018153e-10	-3.042582e+01	-4.722724e+01
7.700000e-07	-4.368274e-06	-7.064629e-10	-3.022552e+01	-4.710747e+01
7.800000e-07	-4.338941e-06	-7.023648e-10	-3.002255e+01	-4.698692e+01
7.900000e-07	-4.309307e-06	-6.935820e-10	-2.981751e+01	-4.686566e+01
8.000000e-07	-4.279443e-06	-7.012728e-10	-2.961087e+01	-4.674377e+01
8.100000e-07	-4.249302e-06	-7.025548e-10	-2.940231e+01	-4.662131e+01
8.200000e-07	-4.218852e-06	-6.976476e-10	-2.919162e+01	-4.649835e+01
8.300000e-07	-4.188163e-06	-6.989708e-10	-2.897928e+01	-4.637495e+01
8.400000e-07	-4.157149e-06	-7.025300e-10	-2.876468e+01	-4.625115e+01
8.500000e-07	-4.125817e-06	-6.903819e-10	-2.854788e+01	-4.612699e+01
8.600000e-07	-4.094307e-06	-6.877658e-10	-2.832986e+01	-4.600250e+01
8.700000e-07	-4.062621e-06	-6.879827e-10	-2.811061e+01	-4.587771e+01
8.800000e-07	-4.030753e-06	-6.856502e-10	-2.789010e+01	-4.575260e+01
8.900000e-07	-3.998693e-06	-6.797122e-10	-2.766827e+01	-4.562717e+01
9.000000e-07	-3.966379e-06	-6.838580e-10	-2.744468e+01	-4.550140e+01
9.100000e-07	-3.933791e-06	-6.783731e-10	-2.721919e+01	-4.537524e+01
9.200000e-07	-3.900847e-06	-6.747306e-10	-2.699124e+01	-4.524863e+01
9.300000e-07	-3.867474e-06	-6.762514e-10	-2.676032e+01	-4.512150e+01
9.400000e-07	-3.833543e-06	-6.789874e-10	-2.652554e+01	-4.499374e+01
9.500000e-07	-3.799052e-06	-6.716072e-10	-2.628689e+01	-4.486525e+01
9.600000e-07	-3.764213e-06	-6.714570e-10	-2.604583e+01	-4.473589e+01
9.700000e-07	-3.729115e-06	-6.704327e-10	-2.580297e+01	-4.460551e+01
9.800000e-07	-3.693658e-06	-6.650360e-10	-2.555763e+01	-4.447395e+01
9.900000e-07	-3.657881e-06	-6.612031e-10	-2.531008e+01	-4.434102e+01
1.000000e-06	-3.621978e-06	-6.655965e-10	-2.506165e+01	-4.420651e+01
1.010000e-06	-3.586000e-06	-6.612565e-10	-2.481271e+01	-4.407020e+01
1.020000e-06	-3.549889e-06	-6.560820e-10	-2.456285e+01	-4.393187e+01
1.030000e-06	-3.513574e-06	-6.565822e-10	-2.431157e+01	-4.379126e+01
1.040000e-06	-3.477037e-06	-6.539483e-10	-2.405876e+01	-4.364812e+01
1.050000e-06	-3.440272e-06	-6.455051e-10	-2.380437e+01	-4.350217e+01
1.060000e-06	-3.403234e-06	-6.422678e-10	-2.354809e+01	-4.335314e+01
1.070000e-06	-3.365919e-06	-6.409786e-10	-2.328990e+01	-4.320074e+01
1.080000e-06	-3.328319e-06	-6.338298e-10	-2.302973e+01	-4.304468e+01
1.090000e-06	-3.290468e-06	-6.309001e-10	-2.276783e+01	-4.288466e+01
1.100000e-06	-3.252380e-06	-6.306643e-10	-2.250429e+01	-4.272040e+01
1.110000e-06	-3.214061e-06	-6.265849e-10	-2.223914e+01	-4.255159e+01
1.120000e-06	-3.175553e-06	-6.172180e-10	-2.197269e+01	-4.237796e+01
1.130000e-06	-3.136799e-06	-6.147353e-10	-2.170454e+01	-4.219920e+01
1.140000e-06	-3.097726e-06	-6.131996e-10	-2.143418e+01	-4.201506e+01
1.150000e-06	-3.058451e-06	-6.084659e-10	-2.116242e+01	-4.182526e+01
1.160000e-06	-3.019112e-06	-6.043134e-10	-2.089023e+01	-4.162954e+01
1.170000e-06	-2.979615e-06	-6.039255e-10	-2.061693e+01	-4.142768e+01
1.180000e-06	-2.939918e-06	-5.980893e-10	-2.034226e+01	-4.121943e+01
1.190000e-06	-2.900086e-06	-5.951885e-10	-2.006664e+01	-4.100460e+01
1.200000e-06	-2.860157e-06	-5.942071e-10	-1.979036e+01	-4.078299e+01
1.210000e-06	-2.820089e-06	-5.931194e-10	-1.951312e+01	-4.055443e+01
1.220000e-06	-2.779868e-06	-5.878860e-10	-1.923482e+01	-4.031878e+01
1.230000e-06	-2.739514e-06	-5.861853e-10	-1.895560e+01	-4.007589e+01
1.240000e-06	-2.699057e-06	-5.830143e-10	-1.867566e+01	-3.982567e+01
1.250000e-06	-2.658370e-06	-5.775447e-10	-1.839413e+01	-3.956803e+01
1.260000e-06	-2.617313e-06	-5.739983e-10	-1.811005e+01	-3.930290e+01
1.270000e-06	-2.575976e-06	-5.746546e-10	-1.782402e+01	-3.903023e+01
1.280000e-06	-2.534369e-06	-5.709233e-10	-1.753613e+01	-3.875001e+01
1.290000e-06	-2.492457e-06	-5.664566e-10	-1.724613e+01	-3.846221e+01
1.300000e-06	-2.450217e-06	-5.630075e-10	-1.695386e+01	-3.816687e+01
1.310000e-06	-2.407589e-06	-5.585869e-10	-1.665890e+01	-3.786400e+01
1.320000e-06	-2.364583e-06	-5.528291e-10	-1.636133e+01	-3.755365e+01
1.330000e-06	-2.321374e-06	-5.522818e-10	-1.606235e+01	-3.723587e+01
1.340000e-06	-2.278032e-06	-5.506471e-10	-1.576245e+01	-3.691073e+01
1.350000e-06	-2.234549e-06	-5.450492e-10	-1.546158e+01	-3.657829e+01
1.360000e-06	-2.190929e-06	-5.396768e-10	-1.515976e+01	-3.623865e+01
1.370000e-06	-2.147172e-06	-5.350908e-10	-1.485699e+01	-3.589187e+01
1.380000e-06	-2.103325e-06	-5.310401e-10	-1.455360e+01	-3.553804e+01
1.390000e-06	-2.059383e-06	-5.268616e-10	-1.424955e+01	-3.517723e+01
1.400000e-06	-2.015386e-06	-5.255713e-10	-1.394512e+01	-3.480951e+01
1.410000e-06	-1.971378e-06	-5.217930e-10	-1.364061e+01	-3.443494e+01
1.420000e-06	-1.927257e-06	-5.165674e-10	-1.333532e+01	-3.405357e+01
1.430000e-06	-1.883024e-06	-5.112527e-10	-1.302926e+01	-3.366543e+01
1.440000e-06	-1.838709e-06	-5.065338e-10	-1.272263e+01	-3.327054e+01
1.450000e-06	-1.794198e-06	-4.982223e-10	-1.241465e+01	-3.286888e+01
1.460000e-06	-1.749532e-06	-4.903106e-10	-1.210559e+01	-3.246043e+01
1.470000e-06	-1.704764e-06	-4.820026e-10	-1.179582e+01	-3.204512e+01
1.480000e-06	-1.659835e-06	-4.738981e-10	-1.148495e+01	-3.162289e+01
1.490000e-06	-1.614818e-06	-4.663646e-10	-1.117346e+01	-3.119360e+01
1.500000e-06	-1.569707e-06	-4.591556e-10	-1.086131e+01	-3.075713e+01
1.510000e-06	-1.524452e-06	-4.502250e-10	-1.054819e+01	-3.031330e+01
1.520000e-06	-1.479123e-06	-4.416554e-10	-1.023453e+01	-2.986190e+01
1.530000e-06	-1.433676e-06	-4.303454e-10	-9.920072e+00	-2.940269e+01
1.540000e-06	-1.387978e-06	-4.192840e-10	-9.603878e+00	-2.893540e+01
1.550000e-06	-1.342131e-06	-4.088654e-10	-9.286646e+00	-2.845972e+01
1.560000e-06	-1.296296e-06	-3.983997e-10	-8.969495e+00	-2.797533e+01
1.570000e-06	-1.250483e-06	-3.888305e-10	-8.652499e+00	-2.748186e+01
1.580000e-06	-1.204598e-06	-3.823801e-10	-8.335012e+00	-2.697892e+01
1.590000e-06	-1.158523e-06	-3.759626e-10	-8.016204e+00	-2.646610e+01
1.600000e-06	-1.112352e-06	-3.682159e-10	-7.696728e+00	-2.594294e+01
1.610000e-06	-1.066161e-06	-3.587331e-10	-7.377117e+00	-2.540901e+01
1.620000e-06	-1.019896e-06	-3.502658e-10	-7.056993e+00	-2.486381e+01
1.630000e-06	-9.734776e-07	-3.398309e-10	-6.735811e+00	-2.430687e+01
1.640000e-06	-9.270182e-07	-3.257514e-10	-6.414343e+00	-2.373770e+01
1.650000e-06	-8.805403e-07	-3.140598e-10	-6.092748e+00	-2.315578e+01
1.660000e-06	-8.339589e-07	-3.036977e-10	-5.770436e+00	-2.256064e+01
1.670000e-06	-7.873195e-07	-2.949892e-10	-5.447722e+00	-2.195176e+01
1.680000e-06	-7.407035e-07	-2.866511e-10	-5.125171e+00	-2.132869e+01
1.690000e-06	-6.941004e-07	-2.801064e-10	-4.802708e+00	-2.069094e+01
1.700000e-06	-6.473829e-07	-2.715432e-10	-4.479455e+00	-2.003809e+01
1.710000e-06	-6.005286e-07	-2.584391e-10	-4.155254e+00	-1.936971e+01
1.720000e-06	-5.536923e-07	-2.436171e-10	-3.831178e+00	-1.868543e+01
1.730000e-06	-5.068559e-07	-2.298398e-10	-3.507102e+00	-1.798490e+01
1.740000e-06	-4.599754e-07	-2.174700e-10	-3.182721e+00	-1.726781e+01
1.750000e-06	-4.131425e-07	-2.084290e-10	-2.858668e+00	-1.653392e+01
1.760000e-06	-3.662107e-07	-1.998280e-10	-2.533932e+00	-1.578302e+01
1.770000e-06	-3.191948e-07	-1.928557e-10	-2.208613e+00	-1.501498e+01
1.780000e-06	-2.721962e-07	-1.856785e-10	-1.883415e+00	-1.422970e+01
1.790000e-06	-2.251918e-07	-1.730856e-10	-1.558176e+00	-1.342717e+01
1.800000e-06	-1.781555e-07	-1.579139e-10	-1.232716e+00	-1.260745e+01
1.810000e-06	-1.310302e-07	-1.430177e-10	-9.066413e-01	-1.177065e+01
1.820000e-06	-8.383733e-08	-1.287743e-10	-5.800980e-01	-1.091698e+01
1.830000e-06	-3.667659e-08	-1.166534e-10	-2.537774e-01	-1.004670e+01
1.840000e-06	1.037158e-08	-1.047227e-10	7.176435e-02	-9.160169e+00
1.850000e-06	5.738988e-08	-9.562700e-11	3.970994e-01	-8.257815e+00
1.860000e-06	1.044025e-07	-8.499069e-11	7.223951e-01	-7.340143e+00
1.870000e-06	1.514387e-07	-7.201805e-11	1.047854e+00	-6.407740e+00
1.880000e-06	1.984947e-07	-5.931459e-11	1.373450e+00	-5.461268e+00
1.890000e-06	2.455582e-07	-4.602694e-11	1.699098e+00	-4.501465e+00
1.900000e-06	2.926541e-07	-3.306585e-11	2.024970e+00	-3.529141e+00
1.910000e-06	3.396942e-07	-1.973226e-11	2.350456e+00	-2.545180e+00
1.920000e-06	3.866195e-07	-6.986273e-12	2.675147e+00	-1.550530e+00
1.930000e-06	4.334589e-07	6.527900e-12	2.999244e+00	-5.462034e-01
1.940000e-06	4.802870e-07	1.916612e-11	3.323263e+00	4.667286e-01
1.950000e-06	5.271463e-07	3.138708e-11	3.647498e+00	1.487141e+00
1.960000e-06	5.739477e-07	4.571214e-11	3.971333e+00	2.513860e+00
1.970000e-06	6.206766e-07	6.131367e-11	4.294665e+00	3.545670e+00
1.980000e-06	6.673911e-07	7.697926e-11	4.617898e+00	4.581317e+00
1.990000e-06	7.140064e-07	9.406795e-11	4.940445e+00	5.619520e+00
2.000000e-06	7.605222e-07	1.081741e-10	5.262303e+00	6.658973e+00
2.010000e-06	8.069424e-07	1.187419e-10	5.583499e+00	7.698353e+00
2.020000e-06	8.532828e-07	1.275434e-10	5.904144e+00	8.736331e+00
2.030000e-06	8.996603e-07	1.405370e-10	6.225045e+00	9.771575e+00
2.040000e-06	9.461078e-07	1.537062e-10	6.546431e+00	1.080276e+01
2.050000e-06	9.924299e-07	1.689049e-10	6.866948e+00	1.182856e+01
2.060000e-06	1.038537e-06	1.857916e-10	7.185982e+00	1.284770e+01
2.070000e-06	1.084616e-06	2.019319e-10	7.504811e+00	1.385891e+01
2.080000e-06	1.130699e-06	2.164189e-10	7.823675e+00	1.486095e+01
2.090000e-06	1.176667e-06	2.298093e-10	8.141747e+00	1.585264e+01
2.100000e-06	1.222540e-06	2.444835e-10	8.459157e+00	1.683282e+01
2.110000e-06	1.268296e-06	2.557192e-10	8.775760e+00	1.780042e+01
2.120000e-06	1.313907e-06	2.679824e-10	9.091356e+00	1.875440e+01
2.130000e-06	1.359501e-06	2.802964e-10	9.406833e+00	1.969378e+01
2.140000e-06	1.405055e-06	2.921808e-10	9.722033e+00	2.061768e+01
2.150000e-06	1.450497e-06	3.041380e-10	1.003646e+01	2.152526e+01
2.160000e-06	1.495836e-06	3.193608e-10	1.035018e+01	2.241578e+01
2.170000e-06	1.541022e-06	3.363330e-10	1.066284e+01	2.328856e+01
2.180000e-06	1.586072e-06	3.494233e-10	1.097455e+01	2.414301e+01
2.190000e-06	1.631040e-06	3.594111e-10	1.128570e+01	2.497861e+01
2.200000e-06	1.675880e-06	3.679363e-10	1.159597e+01	2.579496e+01
2.210000e-06	1.720554e-06	3.760996e-10	1.190508e+01	2.659169e+01
2.220000e-06	1.765173e-06	3.846726e-10	1.221381e+01	2.736856e+01
2.230000e-06	1.809721e-06	3.932087e-10	1.252205e+01	2.812540e+01
2.240000e-06	1.854119e-06	4.035091e-10	1.282926e+01	2.886211e+01
2.250000e-06	1.898421e-06	4.144561e-10	1.313580e+01	2.957867e+01
2.260000e-06	1.942632e-06	4.256198e-10	1.344171e+01	3.027515e+01
2.270000e-06	1.986741e-06	4.354120e-10	1.374691e+01	3.095168e+01
2.280000e-06	2.030744e-06	4.452809e-10	1.405139e+01	3.160848e+01
2.290000e-06	2.074670e-06	4.553101e-10	1.435532e+01	3.224581e+01
2.300000e-06	2.118543e-06	4.631518e-10	1.465889e+01	3.286400e+01
2.310000e-06	2.162343e-06	4.700296e-10	1.496196e+01	3.346346e+01
2.320000e-06	2.206046e-06	4.772019e-10	1.526436e+01	3.404461e+01
2.330000e-06	2.249636e-06	4.844160e-10	1.556597e+01	3.460794e+01
2.340000e-06	2.293060e-06	4.910770e-10	1.586643e+01	3.515399e+01
2.350000e-06	2.336290e-06	4.984019e-10	1.616555e+01	3.568330e+01
2.360000e-06	2.379261e-06	5.062752e-10	1.646289e+01	3.619647e+01
2.370000e-06	2.421910e-06	5.126593e-10	1.675799e+01	3.669411e+01
2.380000e-06	2.464200e-06	5.199736e-10	1.705061e+01	3.717685e+01
2.390000e-06	2.506151e-06	5.294450e-10	1.734088e+01	3.764531e+01
2.400000e-06	2.547886e-06	5.374269e-10	1.762966e+01	3.810015e+01
2.410000e-06	2.589392e-06	5.447645e-10	1.791685e+01	3.854200e+01
2.420000e-06	2.630501e-06	5.514431e-10	1.820130e+01	3.897150e+01
2.430000e-06	2.671297e-06	5.568249e-10	1.848358e+01	3.938926e+01
2.440000e-06	2.711917e-06	5.635692e-10	1.876464e+01	3.979590e+01
2.450000e-06	2.752282e-06	5.725023e-10	1.904394e+01	4.019199e+01
2.460000e-06	2.792400e-06	5.800109e-10	1.932153e+01	4.057810e+01
2.470000e-06	2.832396e-06	5.859270e-10	1.959828e+01	4.095476e+01
2.480000e-06	2.872311e-06	5.907711e-10	1.987446e+01	4.132247e+01
2.490000e-06	2.912078e-06	5.944806e-10	2.014962e+01	4.168169e+01
2.500000e-06	2.951702e-06	5.973592e-10	2.042380e+01	4.203284e+01
2.510000e-06	2.991127e-06	6.004870e-10	2.069659e+01	4.237633e+01
2.520000e-06	3.030420e-06	6.052421e-10	2.096847e+01	4.271250e+01
2.530000e-06	3.069569e-06	6.104709e-10	2.123936e+01	4.304166e+01
2.540000e-06	3.108452e-06	6.155364e-10	2.150840e+01	4.336407e+01
2.550000e-06	3.147133e-06	6.193490e-10	2.177605e+01	4.367997e+01
2.560000e-06	3.185587e-06	6.258234e-10	2.204212e+01	4.398954e+01
2.570000e-06	3.223806e-06	6.321642e-10	2.230657e+01	4.429292e+01
2.580000e-06	3.261843e-06	6.351631e-10	2.256976e+01	4.459024e+01
2.590000e-06	3.299709e-06	6.384244e-10	2.283177e+01	4.488157e+01
2.600000e-06	3.337431e-06	6.420196e-10	2.309278e+01	4.516693e+01
2.610000e-06	3.374961e-06	6.461514e-10	2.335246e+01	4.544636e+01
2.620000e-06	3.412178e-06	6.500885e-10	2.360998e+01	4.571982e+01
2.630000e-06	3.449110e-06	6.538367e-10	2.386553e+01	4.598728e+01
2.640000e-06	3.485790e-06	6.553328e-10	2.411932e+01	4.624867e+01
2.650000e-06	3.522214e-06	6.582024e-10	2.437135e+01	4.650390e+01
2.660000e-06	3.558458e-06	6.599403e-10	2.462214e+01	4.675288e+01
2.670000e-06	3.594507e-06	6.610418e-10	2.487158e+01	4.699551e+01
2.680000e-06	3.630391e-06	6.628498e-10	2.511987e+01	4.723165e+01
2.690000e-06	3.666153e-06	6.668842e-10	2.536732e+01	4.746120e+01
2.700000e-06	3.701762e-06	6.734148e-10	2.561371e+01	4.768402e+01
2.710000e-06	3.737194e-06	6.794462e-10	2.585887e+01	4.790001e+01
2.720000e-06	3.772354e-06	6.855917e-10	2.610215e+01	4.810905e+01
2.730000e-06	3.807119e-06	6.902236e-10	2.634271e+01	4.831103e+01
2.740000e-06	3.841546e-06	6.927419e-10	2.658092e+01	4.850587e+01
2.750000e-06	3.875563e-06	6.939002e-10	2.681630e+01	4.869349e+01
2.760000e-06	3.909001e-06	6.959815e-10	2.704766e+01	4.887384e+01
2.770000e-06	3.941929e-06	7.011421e-10	2.727550e+01	4.904687e+01
2.780000e-06	3.974483e-06	7.058579e-10	2.750075e+01	4.921258e+01
2.790000e-06	4.006758e-06	7.109962e-10	2.772407e+01	4.937097e+01
2.800000e-06	4.038822e-06	7.175526e-10	2.794593e+01	4.952207e+01
2.810000e-06	4.070731e-06	7.215818e-10	2.816672e+01	4.966594e+01
2.820000e-06	4.102477e-06	7.219824e-10	2.838639e+01	4.980267e+01
2.830000e-06	4.134061e-06	7.200520e-10	2.860492e+01	4.993236e+01
2.840000e-06	4.165364e-06	7.208845e-10	2.882152e+01	5.005514e+01
2.850000e-06	4.196392e-06	7.244492e-10	2.903621e+01	5.017119e+01
2.860000e-06	4.227092e-06	7.292660e-10	2.924863e+01	5.028067e+01
2.870000e-06	4.257380e-06	7.322824e-10	2.945821e+01	5.038381e+01
2.880000e-06	4.287363e-06	7.375060e-10	2.966567e+01	5.048082e+01
2.890000e-06	4.317112e-06	7.424817e-10	2.987152e+01	5.057197e+01
2.900000e-06	4.346644e-06	7.455387e-10	3.007585e+01	5.065751e+01
