# Temperatura_=_-0.3
# Concentracion g/m^3_=_1620.0
# C_Vs_to_Am_M_A/Vsm_=_65563218390.804596
# pendiente_HvsI_1/m_=_3716.3
# ordenada_HvsI_A/m_=_1297.0
# frecuencia_Hz_=_135097.89778019654

Tiempo_(s)	Campo_(V.s)	Magnetizacion_(V.s)	Campo_(kA/m)	Magnetizacion_(A/m)
0.000000e+00	-5.529768e-06	-1.419213e-09	-3.837559e+01	-9.272915e+01
1.000000e-08	-5.529846e-06	-1.416320e-09	-3.837613e+01	-9.274243e+01
2.000000e-08	-5.529723e-06	-1.414281e-09	-3.837528e+01	-9.275490e+01
3.000000e-08	-5.529328e-06	-1.414692e-09	-3.837254e+01	-9.276640e+01
4.000000e-08	-5.528555e-06	-1.413928e-09	-3.836718e+01	-9.277674e+01
5.000000e-08	-5.527222e-06	-1.411881e-09	-3.835793e+01	-9.278572e+01
6.000000e-08	-5.525160e-06	-1.400909e-09	-3.834362e+01	-9.279311e+01
7.000000e-08	-5.522465e-06	-1.392981e-09	-3.832491e+01	-9.279868e+01
8.000000e-08	-5.519334e-06	-1.429609e-09	-3.830318e+01	-9.280219e+01
9.000000e-08	-5.515714e-06	-1.462856e-09	-3.827806e+01	-9.280337e+01
1.000000e-07	-5.511621e-06	-1.409699e-09	-3.824966e+01	-9.280199e+01
1.100000e-07	-5.507282e-06	-1.376396e-09	-3.821954e+01	-9.279776e+01
1.200000e-07	-5.502758e-06	-1.386600e-09	-3.818815e+01	-9.279044e+01
1.300000e-07	-5.497976e-06	-1.431831e-09	-3.815496e+01	-9.277976e+01
1.400000e-07	-5.492757e-06	-1.430033e-09	-3.811874e+01	-9.276548e+01
1.500000e-07	-5.487020e-06	-1.351799e-09	-3.807893e+01	-9.274735e+01
1.600000e-07	-5.480938e-06	-1.396301e-09	-3.803672e+01	-9.272513e+01
1.700000e-07	-5.474525e-06	-1.426294e-09	-3.799222e+01	-9.269861e+01
1.800000e-07	-5.467703e-06	-1.469602e-09	-3.794487e+01	-9.266758e+01
1.900000e-07	-5.460464e-06	-1.391883e-09	-3.789463e+01	-9.263185e+01
2.000000e-07	-5.452948e-06	-1.399652e-09	-3.784247e+01	-9.259126e+01
2.100000e-07	-5.445130e-06	-1.426682e-09	-3.778822e+01	-9.254564e+01
2.200000e-07	-5.437043e-06	-1.468054e-09	-3.773210e+01	-9.249488e+01
2.300000e-07	-5.428802e-06	-1.434443e-09	-3.767491e+01	-9.243886e+01
2.400000e-07	-5.420174e-06	-1.433671e-09	-3.761503e+01	-9.237750e+01
2.500000e-07	-5.410850e-06	-1.450682e-09	-3.755032e+01	-9.231073e+01
2.600000e-07	-5.400814e-06	-1.451817e-09	-3.748068e+01	-9.223852e+01
2.700000e-07	-5.390140e-06	-1.432683e-09	-3.740660e+01	-9.216084e+01
2.800000e-07	-5.378970e-06	-1.405774e-09	-3.732908e+01	-9.207771e+01
2.900000e-07	-5.367467e-06	-1.427830e-09	-3.724925e+01	-9.198914e+01
3.000000e-07	-5.355618e-06	-1.419262e-09	-3.716703e+01	-9.189519e+01
3.100000e-07	-5.343320e-06	-1.414415e-09	-3.708167e+01	-9.179590e+01
3.200000e-07	-5.330569e-06	-1.385758e-09	-3.699318e+01	-9.169138e+01
3.300000e-07	-5.317477e-06	-1.425098e-09	-3.690233e+01	-9.158171e+01
3.400000e-07	-5.304016e-06	-1.399436e-09	-3.680892e+01	-9.146701e+01
3.500000e-07	-5.290163e-06	-1.388562e-09	-3.671277e+01	-9.134739e+01
3.600000e-07	-5.275990e-06	-1.375225e-09	-3.661442e+01	-9.122300e+01
3.700000e-07	-5.261456e-06	-1.406564e-09	-3.651355e+01	-9.109397e+01
3.800000e-07	-5.246175e-06	-1.370143e-09	-3.640751e+01	-9.096045e+01
3.900000e-07	-5.230064e-06	-1.389921e-09	-3.629570e+01	-9.082259e+01
4.000000e-07	-5.213518e-06	-1.400038e-09	-3.618088e+01	-9.068055e+01
4.100000e-07	-5.196679e-06	-1.380610e-09	-3.606401e+01	-9.053447e+01
4.200000e-07	-5.179473e-06	-1.335008e-09	-3.594460e+01	-9.038451e+01
4.300000e-07	-5.162023e-06	-1.380242e-09	-3.582351e+01	-9.023080e+01
4.400000e-07	-5.144310e-06	-1.382769e-09	-3.570058e+01	-9.007349e+01
4.500000e-07	-5.126249e-06	-1.345463e-09	-3.557525e+01	-8.991271e+01
4.600000e-07	-5.107852e-06	-1.351230e-09	-3.544757e+01	-8.974858e+01
4.700000e-07	-5.089056e-06	-1.385374e-09	-3.531713e+01	-8.958120e+01
4.800000e-07	-5.069803e-06	-1.352302e-09	-3.518352e+01	-8.941068e+01
4.900000e-07	-5.050206e-06	-1.344583e-09	-3.504752e+01	-8.923709e+01
5.000000e-07	-5.030407e-06	-1.372841e-09	-3.491012e+01	-8.906051e+01
5.100000e-07	-5.010379e-06	-1.343434e-09	-3.477112e+01	-8.888100e+01
5.200000e-07	-4.990070e-06	-1.310024e-09	-3.463019e+01	-8.869859e+01
5.300000e-07	-4.969463e-06	-1.345407e-09	-3.448718e+01	-8.851331e+01
5.400000e-07	-4.948460e-06	-1.356384e-09	-3.434142e+01	-8.832517e+01
5.500000e-07	-4.927082e-06	-1.316524e-09	-3.419306e+01	-8.813417e+01
5.600000e-07	-4.905423e-06	-1.329650e-09	-3.404275e+01	-8.794030e+01
5.700000e-07	-4.883502e-06	-1.338634e-09	-3.389062e+01	-8.774353e+01
5.800000e-07	-4.861164e-06	-1.314610e-09	-3.373560e+01	-8.754381e+01
5.900000e-07	-4.838373e-06	-1.307993e-09	-3.357744e+01	-8.734111e+01
6.000000e-07	-4.815309e-06	-1.327647e-09	-3.341737e+01	-8.713535e+01
6.100000e-07	-4.792039e-06	-1.302999e-09	-3.325588e+01	-8.692648e+01
6.200000e-07	-4.768467e-06	-1.302157e-09	-3.309230e+01	-8.671443e+01
6.300000e-07	-4.744620e-06	-1.308522e-09	-3.292681e+01	-8.649910e+01
6.400000e-07	-4.720556e-06	-1.300674e-09	-3.275981e+01	-8.628044e+01
6.500000e-07	-4.696210e-06	-1.285942e-09	-3.259085e+01	-8.605834e+01
6.600000e-07	-4.671508e-06	-1.303506e-09	-3.241942e+01	-8.583275e+01
6.700000e-07	-4.646353e-06	-1.289072e-09	-3.224485e+01	-8.560356e+01
6.800000e-07	-4.620636e-06	-1.280136e-09	-3.206638e+01	-8.537072e+01
6.900000e-07	-4.594291e-06	-1.282047e-09	-3.188355e+01	-8.513415e+01
7.000000e-07	-4.567301e-06	-1.282977e-09	-3.169625e+01	-8.489380e+01
7.100000e-07	-4.539899e-06	-1.263356e-09	-3.150608e+01	-8.464960e+01
7.200000e-07	-4.512315e-06	-1.267718e-09	-3.131465e+01	-8.440151e+01
7.300000e-07	-4.484555e-06	-1.260903e-09	-3.112200e+01	-8.414949e+01
7.400000e-07	-4.456647e-06	-1.251685e-09	-3.092833e+01	-8.389353e+01
7.500000e-07	-4.428576e-06	-1.251000e-09	-3.073352e+01	-8.363360e+01
7.600000e-07	-4.400319e-06	-1.254580e-09	-3.053742e+01	-8.336971e+01
7.700000e-07	-4.371766e-06	-1.239620e-09	-3.033927e+01	-8.310187e+01
7.800000e-07	-4.342806e-06	-1.235982e-09	-3.013829e+01	-8.283010e+01
7.900000e-07	-4.313475e-06	-1.238553e-09	-2.993474e+01	-8.255443e+01
8.000000e-07	-4.283865e-06	-1.227783e-09	-2.972925e+01	-8.227490e+01
8.100000e-07	-4.253877e-06	-1.217427e-09	-2.952114e+01	-8.199158e+01
8.200000e-07	-4.223555e-06	-1.220036e-09	-2.931071e+01	-8.170452e+01
8.300000e-07	-4.193038e-06	-1.217997e-09	-2.909893e+01	-8.141380e+01
8.400000e-07	-4.162181e-06	-1.204631e-09	-2.888478e+01	-8.111949e+01
8.500000e-07	-4.131013e-06	-1.204349e-09	-2.866848e+01	-8.082168e+01
8.600000e-07	-4.099706e-06	-1.201910e-09	-2.845122e+01	-8.052046e+01
8.700000e-07	-4.068220e-06	-1.193642e-09	-2.823271e+01	-8.021590e+01
8.800000e-07	-4.036518e-06	-1.186761e-09	-2.801270e+01	-7.990811e+01
8.900000e-07	-4.004646e-06	-1.188609e-09	-2.779152e+01	-7.959717e+01
9.000000e-07	-3.972596e-06	-1.175311e-09	-2.756910e+01	-7.928316e+01
9.100000e-07	-3.940259e-06	-1.166286e-09	-2.734468e+01	-7.896615e+01
9.200000e-07	-3.907546e-06	-1.161534e-09	-2.711767e+01	-7.864621e+01
9.300000e-07	-3.874484e-06	-1.158815e-09	-2.688822e+01	-7.832341e+01
9.400000e-07	-3.840998e-06	-1.148060e-09	-2.665583e+01	-7.799779e+01
9.500000e-07	-3.807010e-06	-1.149341e-09	-2.641997e+01	-7.766937e+01
9.600000e-07	-3.772540e-06	-1.145622e-09	-2.618075e+01	-7.733818e+01
9.700000e-07	-3.737556e-06	-1.140898e-09	-2.593796e+01	-7.700421e+01
9.800000e-07	-3.702188e-06	-1.133128e-09	-2.569252e+01	-7.666746e+01
9.900000e-07	-3.666616e-06	-1.130302e-09	-2.544566e+01	-7.632786e+01
1.000000e-06	-3.630892e-06	-1.118780e-09	-2.519774e+01	-7.598538e+01
1.010000e-06	-3.595053e-06	-1.109989e-09	-2.494902e+01	-7.563993e+01
1.020000e-06	-3.559125e-06	-1.105148e-09	-2.469969e+01	-7.529140e+01
1.030000e-06	-3.523039e-06	-1.103577e-09	-2.444926e+01	-7.493967e+01
1.040000e-06	-3.486749e-06	-1.097419e-09	-2.419741e+01	-7.458460e+01
1.050000e-06	-3.450320e-06	-1.091962e-09	-2.394460e+01	-7.422601e+01
1.060000e-06	-3.413621e-06	-1.082335e-09	-2.368992e+01	-7.386373e+01
1.070000e-06	-3.376605e-06	-1.073013e-09	-2.343303e+01	-7.349753e+01
1.080000e-06	-3.339297e-06	-1.067828e-09	-2.317412e+01	-7.312719e+01
1.090000e-06	-3.301715e-06	-1.065006e-09	-2.291330e+01	-7.275246e+01
1.100000e-06	-3.263939e-06	-1.058668e-09	-2.265115e+01	-7.237308e+01
1.110000e-06	-3.225903e-06	-1.049875e-09	-2.238718e+01	-7.198877e+01
1.120000e-06	-3.187601e-06	-1.042974e-09	-2.212138e+01	-7.159923e+01
1.130000e-06	-3.149122e-06	-1.035782e-09	-2.185434e+01	-7.120417e+01
1.140000e-06	-3.110567e-06	-1.028543e-09	-2.158677e+01	-7.080328e+01
1.150000e-06	-3.071735e-06	-1.018719e-09	-2.131729e+01	-7.039623e+01
1.160000e-06	-3.032606e-06	-1.012500e-09	-2.104574e+01	-6.998271e+01
1.170000e-06	-2.993355e-06	-1.005864e-09	-2.077334e+01	-6.956238e+01
1.180000e-06	-2.953917e-06	-1.002567e-09	-2.049965e+01	-6.913494e+01
1.190000e-06	-2.914298e-06	-9.975112e-10	-2.022470e+01	-6.870007e+01
1.200000e-06	-2.874498e-06	-9.923861e-10	-1.994850e+01	-6.825744e+01
1.210000e-06	-2.834590e-06	-9.831851e-10	-1.967154e+01	-6.780676e+01
1.220000e-06	-2.794603e-06	-9.742801e-10	-1.939404e+01	-6.734774e+01
1.230000e-06	-2.754485e-06	-9.635920e-10	-1.911563e+01	-6.688010e+01
1.240000e-06	-2.714113e-06	-9.579776e-10	-1.883545e+01	-6.640356e+01
1.250000e-06	-2.673517e-06	-9.522046e-10	-1.855373e+01	-6.591789e+01
1.260000e-06	-2.632688e-06	-9.496010e-10	-1.827038e+01	-6.542285e+01
1.270000e-06	-2.591636e-06	-9.469635e-10	-1.798549e+01	-6.491823e+01
1.280000e-06	-2.550459e-06	-9.424659e-10	-1.769973e+01	-6.440384e+01
1.290000e-06	-2.508928e-06	-9.323505e-10	-1.741151e+01	-6.387950e+01
1.300000e-06	-2.467044e-06	-9.212125e-10	-1.712084e+01	-6.334507e+01
1.310000e-06	-2.424911e-06	-9.098846e-10	-1.682845e+01	-6.280042e+01
1.320000e-06	-2.382395e-06	-8.997879e-10	-1.653339e+01	-6.224545e+01
1.330000e-06	-2.339460e-06	-8.913405e-10	-1.623543e+01	-6.168005e+01
1.340000e-06	-2.296295e-06	-8.856843e-10	-1.593588e+01	-6.110418e+01
1.350000e-06	-2.253027e-06	-8.767705e-10	-1.563560e+01	-6.051777e+01
1.360000e-06	-2.209556e-06	-8.655891e-10	-1.533392e+01	-5.992080e+01
1.370000e-06	-2.165952e-06	-8.552975e-10	-1.503131e+01	-5.931325e+01
1.380000e-06	-2.122253e-06	-8.473767e-10	-1.472805e+01	-5.869511e+01
1.390000e-06	-2.078418e-06	-8.394927e-10	-1.442384e+01	-5.806639e+01
1.400000e-06	-2.034575e-06	-8.298947e-10	-1.411958e+01	-5.742710e+01
1.410000e-06	-1.990664e-06	-8.180471e-10	-1.381485e+01	-5.677726e+01
1.420000e-06	-1.946638e-06	-8.045871e-10	-1.350932e+01	-5.611690e+01
1.430000e-06	-1.902481e-06	-7.932196e-10	-1.320287e+01	-5.544603e+01
1.440000e-06	-1.858251e-06	-7.832715e-10	-1.289592e+01	-5.476468e+01
1.450000e-06	-1.813983e-06	-7.734120e-10	-1.258871e+01	-5.407285e+01
1.460000e-06	-1.769579e-06	-7.617230e-10	-1.228056e+01	-5.337055e+01
1.470000e-06	-1.725062e-06	-7.524262e-10	-1.197162e+01	-5.265777e+01
1.480000e-06	-1.680403e-06	-7.420382e-10	-1.166170e+01	-5.193448e+01
1.490000e-06	-1.635533e-06	-7.285739e-10	-1.135030e+01	-5.120063e+01
1.500000e-06	-1.590528e-06	-7.149375e-10	-1.103798e+01	-5.045618e+01
1.510000e-06	-1.545421e-06	-7.007645e-10	-1.072494e+01	-4.970102e+01
1.520000e-06	-1.500205e-06	-6.855415e-10	-1.041115e+01	-4.893504e+01
1.530000e-06	-1.454873e-06	-6.720388e-10	-1.009656e+01	-4.815812e+01
1.540000e-06	-1.409379e-06	-6.590041e-10	-9.780836e+00	-4.737007e+01
1.550000e-06	-1.363830e-06	-6.476389e-10	-9.464735e+00	-4.657072e+01
1.560000e-06	-1.318257e-06	-6.341023e-10	-9.148466e+00	-4.575982e+01
1.570000e-06	-1.272545e-06	-6.211503e-10	-8.831236e+00	-4.493713e+01
1.580000e-06	-1.226741e-06	-6.066120e-10	-8.513359e+00	-4.410236e+01
1.590000e-06	-1.180925e-06	-5.918063e-10	-8.195403e+00	-4.325520e+01
1.600000e-06	-1.135056e-06	-5.761650e-10	-7.877082e+00	-4.239531e+01
1.610000e-06	-1.089120e-06	-5.620870e-10	-7.558300e+00	-4.152232e+01
1.620000e-06	-1.043087e-06	-5.461937e-10	-7.238838e+00	-4.063584e+01
1.630000e-06	-9.969820e-07	-5.307135e-10	-6.918875e+00	-3.973545e+01
1.640000e-06	-9.508163e-07	-5.156940e-10	-6.598494e+00	-3.882073e+01
1.650000e-06	-9.045016e-07	-4.997513e-10	-6.277078e+00	-3.789123e+01
1.660000e-06	-8.581286e-07	-4.855780e-10	-5.955258e+00	-3.694649e+01
1.670000e-06	-8.117542e-07	-4.701954e-10	-5.633428e+00	-3.598605e+01
1.680000e-06	-7.653220e-07	-4.561348e-10	-5.311197e+00	-3.500944e+01
1.690000e-06	-7.188472e-07	-4.406772e-10	-4.988670e+00	-3.401620e+01
1.700000e-06	-6.722707e-07	-4.247012e-10	-4.665438e+00	-3.300587e+01
1.710000e-06	-6.256047e-07	-4.081432e-10	-4.341583e+00	-3.197801e+01
1.720000e-06	-5.789649e-07	-3.911385e-10	-4.017912e+00	-3.093219e+01
1.730000e-06	-5.323003e-07	-3.749775e-10	-3.694068e+00	-2.986801e+01
1.740000e-06	-4.855577e-07	-3.574814e-10	-3.369683e+00	-2.878511e+01
1.750000e-06	-4.388274e-07	-3.394989e-10	-3.045383e+00	-2.768314e+01
1.760000e-06	-3.920360e-07	-3.231806e-10	-2.720659e+00	-2.656182e+01
1.770000e-06	-3.450886e-07	-3.058902e-10	-2.394853e+00	-2.542090e+01
1.780000e-06	-2.981168e-07	-2.907585e-10	-2.068877e+00	-2.426018e+01
1.790000e-06	-2.511574e-07	-2.748922e-10	-1.742987e+00	-2.307952e+01
1.800000e-06	-2.041597e-07	-2.562163e-10	-1.416832e+00	-2.187886e+01
1.810000e-06	-1.571242e-07	-2.362161e-10	-1.090414e+00	-2.065818e+01
1.820000e-06	-1.100642e-07	-2.152814e-10	-7.638256e-01	-1.941755e+01
1.830000e-06	-6.300073e-08	-1.958713e-10	-4.372137e-01	-1.815710e+01
1.840000e-06	-1.595687e-08	-1.775505e-10	-1.107378e-01	-1.687705e+01
1.850000e-06	3.099461e-08	-1.620896e-10	2.150970e-01	-1.557769e+01
1.860000e-06	7.794053e-08	-1.492541e-10	5.408932e-01	-1.425940e+01
1.870000e-06	1.248812e-07	-1.336094e-10	8.666528e-01	-1.292265e+01
1.880000e-06	1.717593e-07	-1.155846e-10	1.191978e+00	-1.156797e+01
1.890000e-06	2.186675e-07	-9.645153e-11	1.517513e+00	-1.019600e+01
1.900000e-06	2.656185e-07	-7.572190e-11	1.843344e+00	-8.807461e+00
1.910000e-06	3.125128e-07	-5.568318e-11	2.168782e+00	-7.403142e+00
1.920000e-06	3.593437e-07	-3.691210e-11	2.493780e+00	-5.983926e+00
1.930000e-06	4.061996e-07	-1.713496e-11	2.818952e+00	-4.550772e+00
1.940000e-06	4.529948e-07	2.163421e-12	3.143702e+00	-3.104713e+00
1.950000e-06	4.997036e-07	1.885524e-11	3.467852e+00	-1.646857e+00
1.960000e-06	5.463345e-07	3.610228e-11	3.791463e+00	-1.783764e-01
1.970000e-06	5.929812e-07	5.430455e-11	4.115183e+00	1.299492e+00
1.980000e-06	6.396618e-07	7.421818e-11	4.439137e+00	2.785455e+00
1.990000e-06	6.862137e-07	9.551439e-11	4.762199e+00	4.278168e+00
2.000000e-06	7.327014e-07	1.183258e-10	5.084816e+00	5.776243e+00
2.010000e-06	7.791295e-07	1.400507e-10	5.407018e+00	7.278254e+00
2.020000e-06	8.254511e-07	1.599561e-10	5.728482e+00	8.782744e+00
2.030000e-06	8.717382e-07	1.796605e-10	6.049706e+00	1.028823e+01
2.040000e-06	9.179723e-07	1.993633e-10	6.370562e+00	1.179323e+01
2.050000e-06	9.641396e-07	2.182473e-10	6.690955e+00	1.329623e+01
2.060000e-06	1.010289e-06	2.386162e-10	7.011225e+00	1.479574e+01
2.070000e-06	1.056349e-06	2.608934e-10	7.330872e+00	1.629026e+01
2.080000e-06	1.102312e-06	2.821911e-10	7.649844e+00	1.777831e+01
2.090000e-06	1.148238e-06	3.019130e-10	7.968567e+00	1.925846e+01
2.100000e-06	1.194085e-06	3.229979e-10	8.286737e+00	2.072928e+01
2.110000e-06	1.239805e-06	3.452371e-10	8.604024e+00	2.218939e+01
2.120000e-06	1.285405e-06	3.664475e-10	8.920480e+00	2.363746e+01
2.130000e-06	1.330922e-06	3.875074e-10	9.236358e+00	2.507222e+01
2.140000e-06	1.376385e-06	4.071085e-10	9.551861e+00	2.649244e+01
2.150000e-06	1.421734e-06	4.251315e-10	9.866574e+00	2.789699e+01
2.160000e-06	1.466970e-06	4.436685e-10	1.018051e+01	2.928476e+01
2.170000e-06	1.512167e-06	4.643360e-10	1.049417e+01	3.065477e+01
2.180000e-06	1.557274e-06	4.846915e-10	1.080720e+01	3.200609e+01
2.190000e-06	1.602252e-06	5.026370e-10	1.111934e+01	3.333786e+01
2.200000e-06	1.647110e-06	5.208046e-10	1.143064e+01	3.464934e+01
2.210000e-06	1.691773e-06	5.394507e-10	1.174060e+01	3.593986e+01
2.220000e-06	1.736278e-06	5.580293e-10	1.204946e+01	3.720884e+01
2.230000e-06	1.780673e-06	5.760066e-10	1.235755e+01	3.845578e+01
2.240000e-06	1.824952e-06	5.927613e-10	1.266484e+01	3.968030e+01
2.250000e-06	1.869178e-06	6.077216e-10	1.297176e+01	4.088207e+01
2.260000e-06	1.913271e-06	6.217592e-10	1.327775e+01	4.206087e+01
2.270000e-06	1.957260e-06	6.383020e-10	1.358303e+01	4.321658e+01
2.280000e-06	2.001189e-06	6.553971e-10	1.388789e+01	4.434912e+01
2.290000e-06	2.045032e-06	6.703527e-10	1.419216e+01	4.545854e+01
2.300000e-06	2.088822e-06	6.852659e-10	1.449605e+01	4.654492e+01
2.310000e-06	2.132516e-06	7.018552e-10	1.479928e+01	4.760845e+01
2.320000e-06	2.176091e-06	7.161010e-10	1.510168e+01	4.864936e+01
2.330000e-06	2.219572e-06	7.284028e-10	1.540343e+01	4.966795e+01
2.340000e-06	2.262916e-06	7.413374e-10	1.570423e+01	5.066458e+01
2.350000e-06	2.306114e-06	7.549131e-10	1.600402e+01	5.163965e+01
2.360000e-06	2.349061e-06	7.678577e-10	1.630206e+01	5.259363e+01
2.370000e-06	2.391704e-06	7.813495e-10	1.659800e+01	5.352698e+01
2.380000e-06	2.434138e-06	7.952804e-10	1.689248e+01	5.444025e+01
2.390000e-06	2.476294e-06	8.091010e-10	1.718503e+01	5.533396e+01
2.400000e-06	2.517966e-06	8.239042e-10	1.747423e+01	5.620869e+01
2.410000e-06	2.559167e-06	8.367943e-10	1.776015e+01	5.706500e+01
2.420000e-06	2.600194e-06	8.469970e-10	1.804488e+01	5.790349e+01
2.430000e-06	2.641099e-06	8.573995e-10	1.832875e+01	5.872474e+01
2.440000e-06	2.681773e-06	8.690273e-10	1.861102e+01	5.952933e+01
2.450000e-06	2.722205e-06	8.820119e-10	1.889161e+01	6.031782e+01
2.460000e-06	2.762441e-06	8.957869e-10	1.917084e+01	6.109077e+01
2.470000e-06	2.802480e-06	9.073455e-10	1.944871e+01	6.184871e+01
2.480000e-06	2.842358e-06	9.164225e-10	1.972545e+01	6.259216e+01
2.490000e-06	2.882139e-06	9.240007e-10	2.000152e+01	6.332159e+01
2.500000e-06	2.921853e-06	9.315093e-10	2.027713e+01	6.403745e+01
2.510000e-06	2.961404e-06	9.404201e-10	2.055161e+01	6.474018e+01
2.520000e-06	3.000769e-06	9.503283e-10	2.082479e+01	6.543015e+01
2.530000e-06	3.040062e-06	9.619994e-10	2.109748e+01	6.610770e+01
2.540000e-06	3.079117e-06	9.744429e-10	2.136852e+01	6.677316e+01
2.550000e-06	3.117887e-06	9.860039e-10	2.163757e+01	6.742678e+01
2.560000e-06	3.156409e-06	9.958345e-10	2.190491e+01	6.806882e+01
2.570000e-06	3.194718e-06	1.002945e-09	2.217077e+01	6.869945e+01
2.580000e-06	3.232880e-06	1.008682e-09	2.243561e+01	6.931885e+01
2.590000e-06	3.270823e-06	1.014652e-09	2.269892e+01	6.992715e+01
2.600000e-06	3.308417e-06	1.022150e-09	2.295982e+01	7.052442e+01
2.610000e-06	3.345720e-06	1.031094e-09	2.321869e+01	7.111075e+01
2.620000e-06	3.382847e-06	1.041450e-09	2.347635e+01	7.168616e+01
2.630000e-06	3.419740e-06	1.052314e-09	2.373238e+01	7.225067e+01
2.640000e-06	3.456372e-06	1.060497e-09	2.398660e+01	7.280427e+01
2.650000e-06	3.492715e-06	1.066434e-09	2.423881e+01	7.334693e+01
2.660000e-06	3.528834e-06	1.072591e-09	2.448947e+01	7.387861e+01
2.670000e-06	3.564895e-06	1.077702e-09	2.473973e+01	7.439926e+01
2.680000e-06	3.600892e-06	1.081696e-09	2.498954e+01	7.490882e+01
2.690000e-06	3.636717e-06	1.087433e-09	2.523816e+01	7.540723e+01
2.700000e-06	3.672317e-06	1.097207e-09	2.548522e+01	7.589443e+01
2.710000e-06	3.707700e-06	1.107424e-09	2.573077e+01	7.637038e+01
2.720000e-06	3.742773e-06	1.117382e-09	2.597417e+01	7.683502e+01
2.730000e-06	3.777510e-06	1.128075e-09	2.621524e+01	7.728833e+01
2.740000e-06	3.811961e-06	1.135662e-09	2.645432e+01	7.773028e+01
2.750000e-06	3.845852e-06	1.139245e-09	2.668952e+01	7.816089e+01
2.760000e-06	3.879224e-06	1.141136e-09	2.692112e+01	7.858016e+01
2.770000e-06	3.912300e-06	1.144932e-09	2.715066e+01	7.898814e+01
2.780000e-06	3.944974e-06	1.151163e-09	2.737741e+01	7.938491e+01
2.790000e-06	3.977258e-06	1.159782e-09	2.760145e+01	7.977056e+01
2.800000e-06	4.009289e-06	1.170405e-09	2.782374e+01	8.014521e+01
2.810000e-06	4.041157e-06	1.179965e-09	2.804490e+01	8.050902e+01
2.820000e-06	4.072869e-06	1.185970e-09	2.826497e+01	8.086216e+01
2.830000e-06	4.104416e-06	1.188307e-09	2.848391e+01	8.120485e+01
2.840000e-06	4.135707e-06	1.190200e-09	2.870106e+01	8.153732e+01
2.850000e-06	4.166652e-06	1.194598e-09	2.891582e+01	8.185983e+01
2.860000e-06	4.197288e-06	1.202316e-09	2.912842e+01	8.217269e+01
2.870000e-06	4.227589e-06	1.209694e-09	2.933871e+01	8.247619e+01
2.880000e-06	4.257536e-06	1.214336e-09	2.954653e+01	8.277068e+01
2.890000e-06	4.287287e-06	1.218827e-09	2.975300e+01	8.305652e+01
2.900000e-06	4.316911e-06	1.223274e-09	2.995858e+01	8.333407e+01
