# Temperatura_=_14.21
# Concentracion g/m^3_=_1620.0
# C_Vs_to_Am_M_A/Vsm_=_65563218390.804596
# pendiente_HvsI_1/m_=_3716.3
# ordenada_HvsI_A/m_=_1297.0
# frecuencia_Hz_=_135101.36409600725

Tiempo_(s)	Campo_(V.s)	Magnetizacion_(V.s)	Campo_(kA/m)	Magnetizacion_(A/m)
0.000000e+00	-5.527440e-06	-8.132580e-10	-3.836822e+01	-5.318476e+01
1.000000e-08	-5.527612e-06	-8.122910e-10	-3.836941e+01	-5.317554e+01
2.000000e-08	-5.527471e-06	-8.126245e-10	-3.836843e+01	-5.316533e+01
3.000000e-08	-5.526945e-06	-8.129660e-10	-3.836479e+01	-5.315415e+01
4.000000e-08	-5.525987e-06	-8.104375e-10	-3.835813e+01	-5.314200e+01
5.000000e-08	-5.524389e-06	-8.059883e-10	-3.834704e+01	-5.312890e+01
6.000000e-08	-5.522144e-06	-7.992929e-10	-3.833146e+01	-5.311487e+01
7.000000e-08	-5.519350e-06	-7.978548e-10	-3.831206e+01	-5.309993e+01
8.000000e-08	-5.516083e-06	-7.925312e-10	-3.828939e+01	-5.308410e+01
9.000000e-08	-5.512387e-06	-7.936745e-10	-3.826373e+01	-5.306740e+01
1.000000e-07	-5.508308e-06	-8.266193e-10	-3.823542e+01	-5.304985e+01
1.100000e-07	-5.503914e-06	-8.268227e-10	-3.820492e+01	-5.303149e+01
1.200000e-07	-5.499267e-06	-7.713694e-10	-3.817266e+01	-5.301234e+01
1.300000e-07	-5.494366e-06	-7.511551e-10	-3.813864e+01	-5.299244e+01
1.400000e-07	-5.489131e-06	-7.666820e-10	-3.810230e+01	-5.297181e+01
1.500000e-07	-5.483452e-06	-8.010794e-10	-3.806288e+01	-5.295050e+01
1.600000e-07	-5.477315e-06	-7.495923e-10	-3.802028e+01	-5.292852e+01
1.700000e-07	-5.470821e-06	-7.523932e-10	-3.797520e+01	-5.290593e+01
1.800000e-07	-5.464003e-06	-7.881719e-10	-3.792788e+01	-5.288276e+01
1.900000e-07	-5.456837e-06	-8.218654e-10	-3.787814e+01	-5.285903e+01
2.000000e-07	-5.449291e-06	-7.751591e-10	-3.782575e+01	-5.283478e+01
2.100000e-07	-5.441466e-06	-7.615047e-10	-3.777144e+01	-5.281005e+01
2.200000e-07	-5.433370e-06	-7.857749e-10	-3.771524e+01	-5.278485e+01
2.300000e-07	-5.424959e-06	-8.102834e-10	-3.765686e+01	-5.275920e+01
2.400000e-07	-5.415990e-06	-7.939457e-10	-3.759460e+01	-5.273314e+01
2.500000e-07	-5.406381e-06	-7.872700e-10	-3.752790e+01	-5.270665e+01
2.600000e-07	-5.396164e-06	-8.114272e-10	-3.745698e+01	-5.267976e+01
2.700000e-07	-5.385328e-06	-8.153510e-10	-3.738176e+01	-5.265245e+01
2.800000e-07	-5.374052e-06	-8.174028e-10	-3.730349e+01	-5.262470e+01
2.900000e-07	-5.362440e-06	-8.131696e-10	-3.722288e+01	-5.259651e+01
3.000000e-07	-5.350451e-06	-8.357421e-10	-3.713967e+01	-5.256783e+01
3.100000e-07	-5.338040e-06	-8.231604e-10	-3.705351e+01	-5.253861e+01
3.200000e-07	-5.325211e-06	-8.230584e-10	-3.696446e+01	-5.250881e+01
3.300000e-07	-5.311968e-06	-7.976921e-10	-3.687254e+01	-5.247835e+01
3.400000e-07	-5.298378e-06	-8.130263e-10	-3.677820e+01	-5.244716e+01
3.500000e-07	-5.284427e-06	-8.128644e-10	-3.668137e+01	-5.241513e+01
3.600000e-07	-5.270039e-06	-8.139864e-10	-3.658149e+01	-5.238217e+01
3.700000e-07	-5.255091e-06	-7.951224e-10	-3.647773e+01	-5.234816e+01
3.800000e-07	-5.239598e-06	-8.293261e-10	-3.637019e+01	-5.231296e+01
3.900000e-07	-5.223623e-06	-8.244457e-10	-3.625930e+01	-5.227643e+01
4.000000e-07	-5.207179e-06	-7.951596e-10	-3.614516e+01	-5.223843e+01
4.100000e-07	-5.190483e-06	-7.962145e-10	-3.602926e+01	-5.219878e+01
4.200000e-07	-5.173599e-06	-8.305583e-10	-3.591207e+01	-5.215732e+01
4.300000e-07	-5.156350e-06	-7.985358e-10	-3.579233e+01	-5.211387e+01
4.400000e-07	-5.138658e-06	-7.805829e-10	-3.566952e+01	-5.206823e+01
4.500000e-07	-5.120524e-06	-8.182557e-10	-3.554365e+01	-5.202022e+01
4.600000e-07	-5.101984e-06	-8.141957e-10	-3.541495e+01	-5.196964e+01
4.700000e-07	-5.083049e-06	-7.682626e-10	-3.528352e+01	-5.191630e+01
4.800000e-07	-5.063839e-06	-7.936898e-10	-3.515017e+01	-5.186000e+01
4.900000e-07	-5.044430e-06	-8.249327e-10	-3.501545e+01	-5.180054e+01
5.000000e-07	-5.024767e-06	-7.899997e-10	-3.487896e+01	-5.173774e+01
5.100000e-07	-5.004822e-06	-7.884981e-10	-3.474052e+01	-5.167140e+01
5.200000e-07	-4.984531e-06	-8.150029e-10	-3.459966e+01	-5.160135e+01
5.300000e-07	-4.963865e-06	-7.848181e-10	-3.445621e+01	-5.152744e+01
5.400000e-07	-4.942857e-06	-7.629853e-10	-3.431039e+01	-5.144950e+01
5.500000e-07	-4.921506e-06	-8.047673e-10	-3.416218e+01	-5.136739e+01
5.600000e-07	-4.899796e-06	-7.932095e-10	-3.401149e+01	-5.128101e+01
5.700000e-07	-4.877731e-06	-7.614244e-10	-3.385832e+01	-5.119023e+01
5.800000e-07	-4.855407e-06	-7.845901e-10	-3.370336e+01	-5.109499e+01
5.900000e-07	-4.832694e-06	-7.986947e-10	-3.354570e+01	-5.099522e+01
6.000000e-07	-4.809591e-06	-7.580934e-10	-3.338533e+01	-5.089088e+01
6.100000e-07	-4.786297e-06	-7.647764e-10	-3.322364e+01	-5.078197e+01
6.200000e-07	-4.762747e-06	-7.743784e-10	-3.306017e+01	-5.066849e+01
6.300000e-07	-4.738988e-06	-7.456324e-10	-3.289525e+01	-5.055048e+01
6.400000e-07	-4.715015e-06	-7.359370e-10	-3.272884e+01	-5.042802e+01
6.500000e-07	-4.690626e-06	-7.623322e-10	-3.255955e+01	-5.030119e+01
6.600000e-07	-4.665718e-06	-7.489964e-10	-3.238666e+01	-5.017012e+01
6.700000e-07	-4.640264e-06	-7.422132e-10	-3.220997e+01	-5.003496e+01
6.800000e-07	-4.614292e-06	-7.557466e-10	-3.202969e+01	-4.989588e+01
6.900000e-07	-4.587846e-06	-7.526317e-10	-3.184611e+01	-4.975308e+01
7.000000e-07	-4.560919e-06	-7.340833e-10	-3.165920e+01	-4.960679e+01
7.100000e-07	-4.533615e-06	-7.414226e-10	-3.146967e+01	-4.945724e+01
7.200000e-07	-4.506085e-06	-7.350694e-10	-3.127857e+01	-4.930472e+01
7.300000e-07	-4.478354e-06	-7.210504e-10	-3.108609e+01	-4.914951e+01
7.400000e-07	-4.450457e-06	-7.263392e-10	-3.089244e+01	-4.899190e+01
7.500000e-07	-4.422303e-06	-7.350954e-10	-3.069701e+01	-4.883223e+01
7.600000e-07	-4.393741e-06	-7.257949e-10	-3.049875e+01	-4.867081e+01
7.700000e-07	-4.364884e-06	-7.249853e-10	-3.029845e+01	-4.850799e+01
7.800000e-07	-4.335753e-06	-7.271123e-10	-3.009623e+01	-4.834410e+01
7.900000e-07	-4.306322e-06	-7.157625e-10	-2.989194e+01	-4.817950e+01
8.000000e-07	-4.276641e-06	-7.114189e-10	-2.968591e+01	-4.801451e+01
8.100000e-07	-4.246652e-06	-7.171084e-10	-2.947774e+01	-4.784949e+01
8.200000e-07	-4.216391e-06	-7.145805e-10	-2.926770e+01	-4.768476e+01
8.300000e-07	-4.185845e-06	-7.053991e-10	-2.905566e+01	-4.752064e+01
8.400000e-07	-4.154936e-06	-7.093384e-10	-2.884111e+01	-4.735742e+01
8.500000e-07	-4.123757e-06	-7.072520e-10	-2.862468e+01	-4.719540e+01
8.600000e-07	-4.092434e-06	-6.987627e-10	-2.840725e+01	-4.703484e+01
8.700000e-07	-4.060946e-06	-6.964435e-10	-2.818869e+01	-4.687596e+01
8.800000e-07	-4.029216e-06	-7.006050e-10	-2.796843e+01	-4.671898e+01
8.900000e-07	-3.997264e-06	-6.924974e-10	-2.774664e+01	-4.656407e+01
9.000000e-07	-3.965086e-06	-6.908102e-10	-2.752328e+01	-4.641138e+01
9.100000e-07	-3.932605e-06	-6.909901e-10	-2.729782e+01	-4.626102e+01
9.200000e-07	-3.899737e-06	-6.864175e-10	-2.706967e+01	-4.611305e+01
9.300000e-07	-3.866412e-06	-6.791838e-10	-2.683834e+01	-4.596751e+01
9.400000e-07	-3.832605e-06	-6.842568e-10	-2.660367e+01	-4.582438e+01
9.500000e-07	-3.798340e-06	-6.841271e-10	-2.636583e+01	-4.568363e+01
9.600000e-07	-3.763660e-06	-6.795557e-10	-2.612510e+01	-4.554514e+01
9.700000e-07	-3.728710e-06	-6.785425e-10	-2.588250e+01	-4.540880e+01
9.800000e-07	-3.693550e-06	-6.812501e-10	-2.563844e+01	-4.527443e+01
9.900000e-07	-3.658092e-06	-6.760438e-10	-2.539231e+01	-4.514181e+01
1.000000e-06	-3.622440e-06	-6.740602e-10	-2.514484e+01	-4.501068e+01
1.010000e-06	-3.586750e-06	-6.747976e-10	-2.489710e+01	-4.488075e+01
1.020000e-06	-3.550901e-06	-6.720845e-10	-2.464825e+01	-4.475170e+01
1.030000e-06	-3.514815e-06	-6.670704e-10	-2.439776e+01	-4.462316e+01
1.040000e-06	-3.478498e-06	-6.690508e-10	-2.414568e+01	-4.449474e+01
1.050000e-06	-3.441824e-06	-6.675398e-10	-2.389110e+01	-4.436601e+01
1.060000e-06	-3.404886e-06	-6.603531e-10	-2.363470e+01	-4.423652e+01
1.070000e-06	-3.367696e-06	-6.576110e-10	-2.337655e+01	-4.410582e+01
1.080000e-06	-3.330267e-06	-6.585359e-10	-2.311675e+01	-4.397340e+01
1.090000e-06	-3.292630e-06	-6.578677e-10	-2.285549e+01	-4.383877e+01
1.100000e-06	-3.254728e-06	-6.556082e-10	-2.259240e+01	-4.370141e+01
1.110000e-06	-3.216579e-06	-6.548745e-10	-2.232759e+01	-4.356082e+01
1.120000e-06	-3.178155e-06	-6.485489e-10	-2.206087e+01	-4.341646e+01
1.130000e-06	-3.139575e-06	-6.424544e-10	-2.179307e+01	-4.326783e+01
1.140000e-06	-3.100828e-06	-6.395008e-10	-2.152411e+01	-4.311442e+01
1.150000e-06	-3.061889e-06	-6.373067e-10	-2.125382e+01	-4.295572e+01
1.160000e-06	-3.022847e-06	-6.329395e-10	-2.098281e+01	-4.279125e+01
1.170000e-06	-2.983596e-06	-6.323922e-10	-2.071036e+01	-4.262055e+01
1.180000e-06	-2.944125e-06	-6.319257e-10	-2.043637e+01	-4.244317e+01
1.190000e-06	-2.904526e-06	-6.314024e-10	-2.016150e+01	-4.225869e+01
1.200000e-06	-2.864871e-06	-6.294828e-10	-1.988624e+01	-4.206672e+01
1.210000e-06	-2.825098e-06	-6.276547e-10	-1.961016e+01	-4.186692e+01
1.220000e-06	-2.785114e-06	-6.214297e-10	-1.933261e+01	-4.165893e+01
1.230000e-06	-2.744962e-06	-6.155742e-10	-1.905390e+01	-4.144249e+01
1.240000e-06	-2.704587e-06	-6.088324e-10	-1.877364e+01	-4.121734e+01
1.250000e-06	-2.664036e-06	-6.039409e-10	-1.849216e+01	-4.098325e+01
1.260000e-06	-2.623241e-06	-6.023345e-10	-1.820899e+01	-4.074006e+01
1.270000e-06	-2.582040e-06	-6.037959e-10	-1.792299e+01	-4.048762e+01
1.280000e-06	-2.540549e-06	-6.024617e-10	-1.763499e+01	-4.022585e+01
1.290000e-06	-2.498785e-06	-5.981056e-10	-1.734509e+01	-3.995466e+01
1.300000e-06	-2.456742e-06	-5.920581e-10	-1.705325e+01	-3.967405e+01
1.310000e-06	-2.414429e-06	-5.867456e-10	-1.675954e+01	-3.938402e+01
1.320000e-06	-2.371774e-06	-5.817766e-10	-1.646345e+01	-3.908461e+01
1.330000e-06	-2.328884e-06	-5.774742e-10	-1.616574e+01	-3.877590e+01
1.340000e-06	-2.285851e-06	-5.741516e-10	-1.586703e+01	-3.845799e+01
1.350000e-06	-2.242663e-06	-5.690954e-10	-1.556724e+01	-3.813101e+01
1.360000e-06	-2.199305e-06	-5.637369e-10	-1.526628e+01	-3.779509e+01
1.370000e-06	-2.155801e-06	-5.592846e-10	-1.496430e+01	-3.745040e+01
1.380000e-06	-2.112181e-06	-5.562652e-10	-1.466151e+01	-3.709712e+01
1.390000e-06	-2.068474e-06	-5.507328e-10	-1.435813e+01	-3.673543e+01
1.400000e-06	-2.024697e-06	-5.447522e-10	-1.405425e+01	-3.636552e+01
1.410000e-06	-1.980802e-06	-5.382587e-10	-1.374955e+01	-3.598758e+01
1.420000e-06	-1.936813e-06	-5.319680e-10	-1.344421e+01	-3.560179e+01
1.430000e-06	-1.892771e-06	-5.277257e-10	-1.313850e+01	-3.520832e+01
1.440000e-06	-1.848600e-06	-5.238230e-10	-1.283189e+01	-3.480734e+01
1.450000e-06	-1.804260e-06	-5.181242e-10	-1.252411e+01	-3.439899e+01
1.460000e-06	-1.759812e-06	-5.102569e-10	-1.221557e+01	-3.398338e+01
1.470000e-06	-1.715233e-06	-5.016534e-10	-1.190613e+01	-3.356061e+01
1.480000e-06	-1.670472e-06	-4.914831e-10	-1.159543e+01	-3.313074e+01
1.490000e-06	-1.625670e-06	-4.828107e-10	-1.128444e+01	-3.269381e+01
1.500000e-06	-1.580766e-06	-4.794691e-10	-1.097274e+01	-3.224981e+01
1.510000e-06	-1.535656e-06	-4.749002e-10	-1.065962e+01	-3.179870e+01
1.520000e-06	-1.490455e-06	-4.661806e-10	-1.034585e+01	-3.134040e+01
1.530000e-06	-1.445114e-06	-4.548794e-10	-1.003113e+01	-3.087479e+01
1.540000e-06	-1.399619e-06	-4.429941e-10	-9.715329e+00	-3.040169e+01
1.550000e-06	-1.354126e-06	-4.308983e-10	-9.399538e+00	-2.992089e+01
1.560000e-06	-1.308604e-06	-4.196711e-10	-9.083557e+00	-2.943216e+01
1.570000e-06	-1.262953e-06	-4.111153e-10	-8.766675e+00	-2.893519e+01
1.580000e-06	-1.217181e-06	-4.043017e-10	-8.448949e+00	-2.842964e+01
1.590000e-06	-1.171293e-06	-3.955800e-10	-8.130425e+00	-2.791515e+01
1.600000e-06	-1.125323e-06	-3.865113e-10	-7.811324e+00	-2.739131e+01
1.610000e-06	-1.079331e-06	-3.768361e-10	-7.492079e+00	-2.685766e+01
1.620000e-06	-1.033347e-06	-3.668180e-10	-7.172887e+00	-2.631374e+01
1.630000e-06	-9.872360e-07	-3.567549e-10	-6.852808e+00	-2.575905e+01
1.640000e-06	-9.409622e-07	-3.450335e-10	-6.531603e+00	-2.519307e+01
1.650000e-06	-8.946408e-07	-3.325405e-10	-6.210067e+00	-2.461526e+01
1.660000e-06	-8.483617e-07	-3.222139e-10	-5.888825e+00	-2.402507e+01
1.670000e-06	-8.020685e-07	-3.132059e-10	-5.567485e+00	-2.342195e+01
1.680000e-06	-7.556514e-07	-3.040386e-10	-5.245285e+00	-2.280534e+01
1.690000e-06	-7.091628e-07	-2.971927e-10	-4.922588e+00	-2.217470e+01
1.700000e-06	-6.625724e-07	-2.921602e-10	-4.599186e+00	-2.152949e+01
1.710000e-06	-6.158836e-07	-2.823643e-10	-4.275099e+00	-2.086920e+01
1.720000e-06	-5.691952e-07	-2.694551e-10	-3.951017e+00	-2.019335e+01
1.730000e-06	-5.224809e-07	-2.573236e-10	-3.626753e+00	-1.950147e+01
1.740000e-06	-4.757166e-07	-2.465931e-10	-3.302143e+00	-1.879316e+01
1.750000e-06	-4.289049e-07	-2.362693e-10	-2.977204e+00	-1.806804e+01
1.760000e-06	-3.820820e-07	-2.262962e-10	-2.652188e+00	-1.732579e+01
1.770000e-06	-3.352906e-07	-2.190544e-10	-2.327389e+00	-1.656615e+01
1.780000e-06	-2.884516e-07	-2.126239e-10	-2.002260e+00	-1.578892e+01
1.790000e-06	-2.415309e-07	-2.038312e-10	-1.676565e+00	-1.499397e+01
1.800000e-06	-1.945687e-07	-1.914839e-10	-1.350581e+00	-1.418125e+01
1.810000e-06	-1.476347e-07	-1.765764e-10	-1.024793e+00	-1.335077e+01
1.820000e-06	-1.007471e-07	-1.605937e-10	-6.993270e-01	-1.250264e+01
1.830000e-06	-5.381922e-08	-1.455965e-10	-3.735812e-01	-1.163702e+01
1.840000e-06	-6.851860e-09	-1.306258e-10	-4.756156e-02	-1.075420e+01
1.850000e-06	4.006515e-08	-1.178964e-10	2.781086e-01	-9.854532e+00
1.860000e-06	8.692992e-08	-1.054696e-10	6.034161e-01	-8.938455e+00
1.870000e-06	1.338489e-07	-9.123321e-11	9.291001e-01	-8.006502e+00
1.880000e-06	1.808828e-07	-7.731712e-11	1.255582e+00	-7.059296e+00
1.890000e-06	2.278710e-07	-6.385106e-11	1.581745e+00	-6.097544e+00
1.900000e-06	2.747170e-07	-5.100241e-11	1.906923e+00	-5.122040e+00
1.910000e-06	3.215015e-07	-3.735446e-11	2.231673e+00	-4.133659e+00
1.920000e-06	3.682970e-07	-2.204321e-11	2.556500e+00	-3.133355e+00
1.930000e-06	4.151873e-07	-6.252460e-12	2.881985e+00	-2.122159e+00
1.940000e-06	4.620539e-07	8.066735e-12	3.207305e+00	-1.101171e+00
1.950000e-06	5.087027e-07	2.064311e-11	3.531113e+00	-7.155619e-02
1.960000e-06	5.552925e-07	3.228862e-11	3.854512e+00	9.654602e-01
1.970000e-06	6.019782e-07	4.499666e-11	4.178576e+00	2.008600e+00
1.980000e-06	6.486200e-07	6.040168e-11	4.502336e+00	3.056540e+00
1.990000e-06	6.951198e-07	7.661803e-11	4.825111e+00	4.107917e+00
2.000000e-06	7.414509e-07	9.445468e-11	5.146714e+00	5.161336e+00
2.010000e-06	7.877434e-07	1.133873e-10	5.468048e+00	6.215380e+00
2.020000e-06	8.341477e-07	1.302766e-10	5.790160e+00	7.268618e+00
2.030000e-06	8.805075e-07	1.446017e-10	6.111962e+00	8.319608e+00
2.040000e-06	9.266914e-07	1.569913e-10	6.432544e+00	9.366915e+00
2.050000e-06	9.727863e-07	1.681918e-10	6.752507e+00	1.040911e+01
2.060000e-06	1.018828e-06	1.804429e-10	7.072099e+00	1.144478e+01
2.070000e-06	1.064764e-06	1.972258e-10	7.390960e+00	1.247255e+01
2.080000e-06	1.110657e-06	2.144727e-10	7.709527e+00	1.349107e+01
2.090000e-06	1.156484e-06	2.287248e-10	8.027627e+00	1.449902e+01
2.100000e-06	1.202228e-06	2.415234e-10	8.345157e+00	1.549516e+01
2.110000e-06	1.247950e-06	2.552614e-10	8.662532e+00	1.647829e+01
2.120000e-06	1.293519e-06	2.685932e-10	8.978846e+00	1.744726e+01
2.130000e-06	1.338950e-06	2.812672e-10	9.294197e+00	1.840101e+01
2.140000e-06	1.384293e-06	2.942042e-10	9.608944e+00	1.933855e+01
2.150000e-06	1.429550e-06	3.063666e-10	9.923087e+00	2.025897e+01
2.160000e-06	1.474783e-06	3.183478e-10	1.023707e+01	2.116144e+01
2.170000e-06	1.519966e-06	3.300693e-10	1.055071e+01	2.204520e+01
2.180000e-06	1.565073e-06	3.417437e-10	1.086381e+01	2.290963e+01
2.190000e-06	1.610084e-06	3.540848e-10	1.117625e+01	2.375414e+01
2.200000e-06	1.654938e-06	3.653345e-10	1.148760e+01	2.457829e+01
2.210000e-06	1.699597e-06	3.769197e-10	1.179760e+01	2.538170e+01
2.220000e-06	1.744076e-06	3.899155e-10	1.210634e+01	2.616409e+01
2.230000e-06	1.788389e-06	4.000161e-10	1.241394e+01	2.692528e+01
2.240000e-06	1.832583e-06	4.083706e-10	1.272071e+01	2.766518e+01
2.250000e-06	1.876703e-06	4.137909e-10	1.302696e+01	2.838380e+01
2.260000e-06	1.920698e-06	4.186980e-10	1.333235e+01	2.908122e+01
2.270000e-06	1.964557e-06	4.260936e-10	1.363679e+01	2.975760e+01
2.280000e-06	2.008285e-06	4.352555e-10	1.394033e+01	3.041321e+01
2.290000e-06	2.051924e-06	4.470706e-10	1.424324e+01	3.104837e+01
2.300000e-06	2.095514e-06	4.572485e-10	1.454582e+01	3.166348e+01
2.310000e-06	2.139055e-06	4.653898e-10	1.484805e+01	3.225899e+01
2.320000e-06	2.182560e-06	4.717250e-10	1.515004e+01	3.283544e+01
2.330000e-06	2.225960e-06	4.766218e-10	1.545130e+01	3.339338e+01
2.340000e-06	2.269176e-06	4.815648e-10	1.575128e+01	3.393345e+01
2.350000e-06	2.312345e-06	4.884525e-10	1.605093e+01	3.445630e+01
2.360000e-06	2.355411e-06	4.968015e-10	1.634987e+01	3.496263e+01
2.370000e-06	2.398135e-06	5.039674e-10	1.664643e+01	3.545315e+01
2.380000e-06	2.440565e-06	5.105606e-10	1.694096e+01	3.592860e+01
2.390000e-06	2.482811e-06	5.183776e-10	1.723420e+01	3.638973e+01
2.400000e-06	2.524739e-06	5.261707e-10	1.752525e+01	3.683730e+01
2.410000e-06	2.566276e-06	5.321772e-10	1.781357e+01	3.727206e+01
2.420000e-06	2.607556e-06	5.389065e-10	1.810011e+01	3.769476e+01
2.430000e-06	2.648483e-06	5.460516e-10	1.838420e+01	3.810615e+01
2.440000e-06	2.689009e-06	5.519535e-10	1.866551e+01	3.850693e+01
2.450000e-06	2.729443e-06	5.590889e-10	1.894618e+01	3.889780e+01
2.460000e-06	2.769784e-06	5.659954e-10	1.922620e+01	3.927942e+01
2.470000e-06	2.809814e-06	5.724379e-10	1.950407e+01	3.965243e+01
2.480000e-06	2.849624e-06	5.782297e-10	1.978040e+01	4.001743e+01
2.490000e-06	2.889352e-06	5.828288e-10	2.005618e+01	4.037497e+01
2.500000e-06	2.928947e-06	5.881300e-10	2.033102e+01	4.072555e+01
2.510000e-06	2.968375e-06	5.939923e-10	2.060471e+01	4.106966e+01
2.520000e-06	3.007682e-06	6.001212e-10	2.087755e+01	4.140771e+01
2.530000e-06	3.046816e-06	6.054650e-10	2.114920e+01	4.174007e+01
2.540000e-06	3.085758e-06	6.101954e-10	2.141950e+01	4.206707e+01
2.550000e-06	3.124460e-06	6.142276e-10	2.168815e+01	4.238899e+01
2.560000e-06	3.162878e-06	6.191456e-10	2.195483e+01	4.270604e+01
2.570000e-06	3.201064e-06	6.250705e-10	2.221990e+01	4.301841e+01
2.580000e-06	3.239032e-06	6.297612e-10	2.248344e+01	4.332623e+01
2.590000e-06	3.276789e-06	6.326291e-10	2.274553e+01	4.362958e+01
2.600000e-06	3.314285e-06	6.363159e-10	2.300580e+01	4.392853e+01
2.610000e-06	3.351579e-06	6.417921e-10	2.326468e+01	4.422306e+01
2.620000e-06	3.388801e-06	6.488588e-10	2.352305e+01	4.451315e+01
2.630000e-06	3.425777e-06	6.548569e-10	2.377972e+01	4.479875e+01
2.640000e-06	3.462406e-06	6.588083e-10	2.403397e+01	4.507974e+01
2.650000e-06	3.498708e-06	6.626140e-10	2.428596e+01	4.535603e+01
2.660000e-06	3.534756e-06	6.673390e-10	2.453618e+01	4.562746e+01
2.670000e-06	3.570648e-06	6.719697e-10	2.478532e+01	4.589387e+01
2.680000e-06	3.606375e-06	6.750076e-10	2.503332e+01	4.615510e+01
2.690000e-06	3.642058e-06	6.765800e-10	2.528102e+01	4.641095e+01
2.700000e-06	3.677676e-06	6.790268e-10	2.552825e+01	4.666125e+01
2.710000e-06	3.713032e-06	6.848398e-10	2.577367e+01	4.690578e+01
2.720000e-06	3.748146e-06	6.935154e-10	2.601741e+01	4.714437e+01
2.730000e-06	3.782977e-06	7.014445e-10	2.625919e+01	4.737684e+01
2.740000e-06	3.817367e-06	7.062284e-10	2.649790e+01	4.760299e+01
2.750000e-06	3.851314e-06	7.067118e-10	2.673355e+01	4.782268e+01
2.760000e-06	3.884875e-06	7.041760e-10	2.696651e+01	4.803574e+01
2.770000e-06	3.917977e-06	7.036116e-10	2.719628e+01	4.824206e+01
2.780000e-06	3.950623e-06	7.071080e-10	2.742289e+01	4.844151e+01
2.790000e-06	3.982911e-06	7.121584e-10	2.764701e+01	4.863401e+01
2.800000e-06	4.014933e-06	7.188720e-10	2.786929e+01	4.881950e+01
2.810000e-06	4.046721e-06	7.260138e-10	2.808995e+01	4.899793e+01
2.820000e-06	4.078335e-06	7.292271e-10	2.830939e+01	4.916929e+01
2.830000e-06	4.109845e-06	7.286138e-10	2.852811e+01	4.933360e+01
2.840000e-06	4.141150e-06	7.268063e-10	2.874542e+01	4.949090e+01
2.850000e-06	4.172157e-06	7.266939e-10	2.896065e+01	4.964126e+01
2.860000e-06	4.202842e-06	7.278204e-10	2.917364e+01	4.978477e+01
2.870000e-06	4.233173e-06	7.295392e-10	2.938418e+01	4.992156e+01
2.880000e-06	4.263188e-06	7.321826e-10	2.959253e+01	5.005177e+01
2.890000e-06	4.292884e-06	7.354610e-10	2.979866e+01	5.017559e+01
2.900000e-06	4.322269e-06	7.385874e-10	3.000264e+01	5.029320e+01
