# Temperatura_=_-0.3
# Concentracion g/m^3_=_1620.0
# C_Vs_to_Am_M_A/Vsm_=_65563218390.804596
# pendiente_HvsI_1/m_=_3716.3
# ordenada_HvsI_A/m_=_1297.0
# frecuencia_Hz_=_135108.75729322783

Tiempo_(s)	Campo_(V.s)	Magnetizacion_(V.s)	Campo_(kA/m)	Magnetizacion_(A/m)
0.000000e+00	-5.507324e-06	-1.314165e-09	-3.836136e+01	-8.516775e+01
1.000000e-08	-5.507606e-06	-1.316681e-09	-3.836332e+01	-8.518649e+01
2.000000e-08	-5.507671e-06	-1.318825e-09	-3.836377e+01	-8.520806e+01
3.000000e-08	-5.507479e-06	-1.319983e-09	-3.836243e+01	-8.523239e+01
4.000000e-08	-5.506885e-06	-1.320313e-09	-3.835830e+01	-8.525939e+01
5.000000e-08	-5.505802e-06	-1.316450e-09	-3.835075e+01	-8.528892e+01
6.000000e-08	-5.504153e-06	-1.311543e-09	-3.833927e+01	-8.532080e+01
7.000000e-08	-5.501841e-06	-1.312469e-09	-3.832316e+01	-8.535481e+01
8.000000e-08	-5.498927e-06	-1.311397e-09	-3.830286e+01	-8.539067e+01
9.000000e-08	-5.495531e-06	-1.288154e-09	-3.827921e+01	-8.542809e+01
1.000000e-07	-5.491680e-06	-1.276749e-09	-3.825239e+01	-8.546674e+01
1.100000e-07	-5.487490e-06	-1.331107e-09	-3.822320e+01	-8.550623e+01
1.200000e-07	-5.483033e-06	-1.347640e-09	-3.819216e+01	-8.554619e+01
1.300000e-07	-5.478305e-06	-1.271263e-09	-3.815922e+01	-8.558617e+01
1.400000e-07	-5.473339e-06	-1.235579e-09	-3.812463e+01	-8.562575e+01
1.500000e-07	-5.467995e-06	-1.270358e-09	-3.808741e+01	-8.566446e+01
1.600000e-07	-5.462171e-06	-1.320930e-09	-3.804684e+01	-8.570182e+01
1.700000e-07	-5.455931e-06	-1.282835e-09	-3.800338e+01	-8.573735e+01
1.800000e-07	-5.449364e-06	-1.254906e-09	-3.795763e+01	-8.577055e+01
1.900000e-07	-5.442425e-06	-1.320209e-09	-3.790930e+01	-8.580093e+01
2.000000e-07	-5.435026e-06	-1.351205e-09	-3.785776e+01	-8.582799e+01
2.100000e-07	-5.427352e-06	-1.340096e-09	-3.780431e+01	-8.585126e+01
2.200000e-07	-5.419498e-06	-1.304454e-09	-3.774960e+01	-8.587026e+01
2.300000e-07	-5.411282e-06	-1.337011e-09	-3.769237e+01	-8.588453e+01
2.400000e-07	-5.402612e-06	-1.354539e-09	-3.763198e+01	-8.589362e+01
2.500000e-07	-5.393513e-06	-1.350927e-09	-3.756860e+01	-8.589712e+01
2.600000e-07	-5.383845e-06	-1.322418e-09	-3.750126e+01	-8.589462e+01
2.700000e-07	-5.373437e-06	-1.334648e-09	-3.742876e+01	-8.588577e+01
2.800000e-07	-5.362420e-06	-1.335221e-09	-3.735202e+01	-8.587021e+01
2.900000e-07	-5.351036e-06	-1.332594e-09	-3.727273e+01	-8.584765e+01
3.000000e-07	-5.339325e-06	-1.313701e-09	-3.719115e+01	-8.581781e+01
3.100000e-07	-5.327208e-06	-1.309500e-09	-3.710675e+01	-8.578046e+01
3.200000e-07	-5.314718e-06	-1.325220e-09	-3.701975e+01	-8.573541e+01
3.300000e-07	-5.301825e-06	-1.317812e-09	-3.692995e+01	-8.568249e+01
3.400000e-07	-5.288494e-06	-1.299401e-09	-3.683709e+01	-8.562158e+01
3.500000e-07	-5.274761e-06	-1.298440e-09	-3.674143e+01	-8.555261e+01
3.600000e-07	-5.260671e-06	-1.324411e-09	-3.664329e+01	-8.547554e+01
3.700000e-07	-5.246124e-06	-1.301810e-09	-3.654196e+01	-8.539037e+01
3.800000e-07	-5.231062e-06	-1.296753e-09	-3.643705e+01	-8.529713e+01
3.900000e-07	-5.215499e-06	-1.323964e-09	-3.632864e+01	-8.519590e+01
4.000000e-07	-5.199412e-06	-1.313941e-09	-3.621659e+01	-8.508680e+01
4.100000e-07	-5.182850e-06	-1.260840e-09	-3.610123e+01	-8.496995e+01
4.200000e-07	-5.165931e-06	-1.296678e-09	-3.598338e+01	-8.484555e+01
4.300000e-07	-5.148776e-06	-1.327502e-09	-3.586388e+01	-8.471380e+01
4.400000e-07	-5.131312e-06	-1.274717e-09	-3.574224e+01	-8.457492e+01
4.500000e-07	-5.113466e-06	-1.256135e-09	-3.561793e+01	-8.442918e+01
4.600000e-07	-5.095216e-06	-1.328028e-09	-3.549081e+01	-8.427685e+01
4.700000e-07	-5.076530e-06	-1.298021e-09	-3.536065e+01	-8.411823e+01
4.800000e-07	-5.057488e-06	-1.238172e-09	-3.522801e+01	-8.395363e+01
4.900000e-07	-5.038170e-06	-1.280644e-09	-3.509346e+01	-8.378338e+01
5.000000e-07	-5.018601e-06	-1.305691e-09	-3.495715e+01	-8.360780e+01
5.100000e-07	-4.998761e-06	-1.231388e-09	-3.481895e+01	-8.342724e+01
5.200000e-07	-4.978637e-06	-1.248939e-09	-3.467878e+01	-8.324204e+01
5.300000e-07	-4.958233e-06	-1.299432e-09	-3.453665e+01	-8.305254e+01
5.400000e-07	-4.937484e-06	-1.247644e-09	-3.439213e+01	-8.285907e+01
5.500000e-07	-4.916349e-06	-1.223234e-09	-3.424491e+01	-8.266197e+01
5.600000e-07	-4.894868e-06	-1.287775e-09	-3.409528e+01	-8.246157e+01
5.700000e-07	-4.873039e-06	-1.262814e-09	-3.394323e+01	-8.225816e+01
5.800000e-07	-4.850803e-06	-1.211928e-09	-3.378834e+01	-8.205205e+01
5.900000e-07	-4.828255e-06	-1.254377e-09	-3.363129e+01	-8.184353e+01
6.000000e-07	-4.805404e-06	-1.261243e-09	-3.347212e+01	-8.163284e+01
6.100000e-07	-4.782227e-06	-1.205527e-09	-3.331068e+01	-8.142024e+01
6.200000e-07	-4.758792e-06	-1.224373e-09	-3.314744e+01	-8.120595e+01
6.300000e-07	-4.735131e-06	-1.249471e-09	-3.298263e+01	-8.099017e+01
6.400000e-07	-4.711250e-06	-1.205639e-09	-3.281629e+01	-8.077307e+01
6.500000e-07	-4.687033e-06	-1.210540e-09	-3.264760e+01	-8.055480e+01
6.600000e-07	-4.662455e-06	-1.242857e-09	-3.247640e+01	-8.033550e+01
6.700000e-07	-4.637462e-06	-1.215083e-09	-3.230231e+01	-8.011526e+01
6.800000e-07	-4.611825e-06	-1.198448e-09	-3.212374e+01	-7.989417e+01
6.900000e-07	-4.585587e-06	-1.229657e-09	-3.194098e+01	-7.967227e+01
7.000000e-07	-4.558970e-06	-1.213427e-09	-3.175558e+01	-7.944960e+01
7.100000e-07	-4.531983e-06	-1.193569e-09	-3.156760e+01	-7.922615e+01
7.200000e-07	-4.504623e-06	-1.210946e-09	-3.137702e+01	-7.900192e+01
7.300000e-07	-4.477023e-06	-1.206272e-09	-3.118477e+01	-7.877685e+01
7.400000e-07	-4.449274e-06	-1.177433e-09	-3.099149e+01	-7.855090e+01
7.500000e-07	-4.421368e-06	-1.192917e-09	-3.079711e+01	-7.832398e+01
7.600000e-07	-4.393181e-06	-1.197145e-09	-3.060077e+01	-7.809599e+01
7.700000e-07	-4.364620e-06	-1.176862e-09	-3.040183e+01	-7.786682e+01
7.800000e-07	-4.335781e-06	-1.181167e-09	-3.020096e+01	-7.763634e+01
7.900000e-07	-4.306626e-06	-1.190658e-09	-2.999788e+01	-7.740441e+01
8.000000e-07	-4.277094e-06	-1.163137e-09	-2.979217e+01	-7.717087e+01
8.100000e-07	-4.247364e-06	-1.156117e-09	-2.958508e+01	-7.693556e+01
8.200000e-07	-4.217437e-06	-1.168356e-09	-2.937662e+01	-7.669830e+01
8.300000e-07	-4.187146e-06	-1.157307e-09	-2.916563e+01	-7.645892e+01
8.400000e-07	-4.156576e-06	-1.144555e-09	-2.895270e+01	-7.621724e+01
8.500000e-07	-4.125754e-06	-1.159638e-09	-2.873801e+01	-7.597305e+01
8.600000e-07	-4.094611e-06	-1.155425e-09	-2.852108e+01	-7.572618e+01
8.700000e-07	-4.063181e-06	-1.133926e-09	-2.830216e+01	-7.547643e+01
8.800000e-07	-4.031546e-06	-1.132286e-09	-2.808180e+01	-7.522361e+01
8.900000e-07	-3.999751e-06	-1.129899e-09	-2.786033e+01	-7.496754e+01
9.000000e-07	-3.967780e-06	-1.110422e-09	-2.763764e+01	-7.470801e+01
9.100000e-07	-3.935634e-06	-1.106682e-09	-2.741372e+01	-7.444486e+01
9.200000e-07	-3.903203e-06	-1.113325e-09	-2.718782e+01	-7.417790e+01
9.300000e-07	-3.870412e-06	-1.100565e-09	-2.695942e+01	-7.390696e+01
9.400000e-07	-3.837213e-06	-1.092424e-09	-2.672817e+01	-7.363186e+01
9.500000e-07	-3.803522e-06	-1.099419e-09	-2.649350e+01	-7.335246e+01
9.600000e-07	-3.769326e-06	-1.095564e-09	-2.625530e+01	-7.306860e+01
9.700000e-07	-3.734606e-06	-1.081043e-09	-2.601346e+01	-7.278012e+01
9.800000e-07	-3.699498e-06	-1.081665e-09	-2.576892e+01	-7.248689e+01
9.900000e-07	-3.664160e-06	-1.078774e-09	-2.552276e+01	-7.218877e+01
1.000000e-06	-3.628673e-06	-1.065735e-09	-2.527558e+01	-7.188564e+01
1.010000e-06	-3.593054e-06	-1.060258e-09	-2.502747e+01	-7.157737e+01
1.020000e-06	-3.557266e-06	-1.064112e-09	-2.477819e+01	-7.126386e+01
1.030000e-06	-3.521377e-06	-1.056910e-09	-2.452821e+01	-7.094500e+01
1.040000e-06	-3.485345e-06	-1.051036e-09	-2.427723e+01	-7.062069e+01
1.050000e-06	-3.449097e-06	-1.048860e-09	-2.402474e+01	-7.029083e+01
1.060000e-06	-3.412627e-06	-1.038965e-09	-2.377071e+01	-6.995534e+01
1.070000e-06	-3.375818e-06	-1.023620e-09	-2.351432e+01	-6.961413e+01
1.080000e-06	-3.338693e-06	-1.019559e-09	-2.325572e+01	-6.926712e+01
1.090000e-06	-3.301343e-06	-1.016236e-09	-2.299556e+01	-6.891424e+01
1.100000e-06	-3.263773e-06	-1.009262e-09	-2.273386e+01	-6.855542e+01
1.110000e-06	-3.225988e-06	-1.004702e-09	-2.247067e+01	-6.819059e+01
1.120000e-06	-3.188000e-06	-1.001427e-09	-2.220606e+01	-6.781969e+01
1.130000e-06	-3.149758e-06	-9.910732e-10	-2.193969e+01	-6.744265e+01
1.140000e-06	-3.111271e-06	-9.835797e-10	-2.167161e+01	-6.705941e+01
1.150000e-06	-3.072560e-06	-9.782220e-10	-2.140197e+01	-6.666992e+01
1.160000e-06	-3.033613e-06	-9.693949e-10	-2.113068e+01	-6.627411e+01
1.170000e-06	-2.994454e-06	-9.610770e-10	-2.085792e+01	-6.587194e+01
1.180000e-06	-2.955156e-06	-9.579217e-10	-2.058418e+01	-6.546333e+01
1.190000e-06	-2.915760e-06	-9.539367e-10	-2.030977e+01	-6.504825e+01
1.200000e-06	-2.876166e-06	-9.474779e-10	-2.003398e+01	-6.462663e+01
1.210000e-06	-2.836429e-06	-9.437739e-10	-1.975719e+01	-6.419841e+01
1.220000e-06	-2.796630e-06	-9.357507e-10	-1.947997e+01	-6.376354e+01
1.230000e-06	-2.756712e-06	-9.231552e-10	-1.920192e+01	-6.332196e+01
1.240000e-06	-2.716651e-06	-9.138812e-10	-1.892287e+01	-6.287361e+01
1.250000e-06	-2.676364e-06	-9.083739e-10	-1.864226e+01	-6.241843e+01
1.260000e-06	-2.635803e-06	-9.022763e-10	-1.835973e+01	-6.195635e+01
1.270000e-06	-2.595045e-06	-9.015848e-10	-1.807583e+01	-6.148730e+01
1.280000e-06	-2.554056e-06	-9.020132e-10	-1.779032e+01	-6.101123e+01
1.290000e-06	-2.512811e-06	-8.962960e-10	-1.750302e+01	-6.052804e+01
1.300000e-06	-2.471213e-06	-8.837174e-10	-1.721327e+01	-6.003768e+01
1.310000e-06	-2.429203e-06	-8.695096e-10	-1.692065e+01	-5.954005e+01
1.320000e-06	-2.386980e-06	-8.559509e-10	-1.662655e+01	-5.903507e+01
1.330000e-06	-2.344513e-06	-8.466663e-10	-1.633074e+01	-5.852266e+01
1.340000e-06	-2.301696e-06	-8.426397e-10	-1.603250e+01	-5.800270e+01
1.350000e-06	-2.258595e-06	-8.418474e-10	-1.573228e+01	-5.747511e+01
1.360000e-06	-2.215288e-06	-8.380916e-10	-1.543062e+01	-5.693976e+01
1.370000e-06	-2.171901e-06	-8.296374e-10	-1.512841e+01	-5.639654e+01
1.380000e-06	-2.128388e-06	-8.183862e-10	-1.482532e+01	-5.584532e+01
1.390000e-06	-2.084736e-06	-8.061307e-10	-1.452126e+01	-5.528596e+01
1.400000e-06	-2.041049e-06	-7.955627e-10	-1.421696e+01	-5.471831e+01
1.410000e-06	-1.997306e-06	-7.868357e-10	-1.391227e+01	-5.414222e+01
1.420000e-06	-1.953512e-06	-7.773587e-10	-1.360722e+01	-5.355751e+01
1.430000e-06	-1.909691e-06	-7.718659e-10	-1.330198e+01	-5.296399e+01
1.440000e-06	-1.865735e-06	-7.661060e-10	-1.299581e+01	-5.236147e+01
1.450000e-06	-1.821610e-06	-7.579992e-10	-1.268845e+01	-5.174974e+01
1.460000e-06	-1.777417e-06	-7.445273e-10	-1.238063e+01	-5.112856e+01
1.470000e-06	-1.733089e-06	-7.311518e-10	-1.207186e+01	-5.049769e+01
1.480000e-06	-1.688610e-06	-7.164488e-10	-1.176204e+01	-4.985688e+01
1.490000e-06	-1.644008e-06	-7.027866e-10	-1.145136e+01	-4.920584e+01
1.500000e-06	-1.599208e-06	-6.922336e-10	-1.113931e+01	-4.854429e+01
1.510000e-06	-1.554262e-06	-6.829856e-10	-1.082624e+01	-4.787192e+01
1.520000e-06	-1.509200e-06	-6.721853e-10	-1.051236e+01	-4.718840e+01
1.530000e-06	-1.464034e-06	-6.588040e-10	-1.019775e+01	-4.649339e+01
1.540000e-06	-1.418773e-06	-6.433576e-10	-9.882485e+00	-4.578653e+01
1.550000e-06	-1.373368e-06	-6.254807e-10	-9.566217e+00	-4.506746e+01
1.560000e-06	-1.327853e-06	-6.081074e-10	-9.249179e+00	-4.433578e+01
1.570000e-06	-1.282342e-06	-5.926535e-10	-8.932174e+00	-4.359109e+01
1.580000e-06	-1.236808e-06	-5.835736e-10	-8.615005e+00	-4.283299e+01
1.590000e-06	-1.191163e-06	-5.749871e-10	-8.297065e+00	-4.206105e+01
1.600000e-06	-1.145430e-06	-5.632103e-10	-7.978514e+00	-4.127485e+01
1.610000e-06	-1.099657e-06	-5.486203e-10	-7.659676e+00	-4.047393e+01
1.620000e-06	-1.053811e-06	-5.330288e-10	-7.340338e+00	-3.965787e+01
1.630000e-06	-1.007925e-06	-5.176562e-10	-7.020717e+00	-3.882622e+01
1.640000e-06	-9.620180e-07	-5.029898e-10	-6.700952e+00	-3.797855e+01
1.650000e-06	-9.160270e-07	-4.879209e-10	-6.380601e+00	-3.711440e+01
1.660000e-06	-8.699819e-07	-4.747533e-10	-6.059873e+00	-3.623336e+01
1.670000e-06	-8.238152e-07	-4.615878e-10	-5.738298e+00	-3.533500e+01
1.680000e-06	-7.774753e-07	-4.485045e-10	-5.415517e+00	-3.441892e+01
1.690000e-06	-7.311325e-07	-4.317044e-10	-5.092715e+00	-3.348473e+01
1.700000e-06	-6.849158e-07	-4.176376e-10	-4.770792e+00	-3.253206e+01
1.710000e-06	-6.386554e-07	-4.025432e-10	-4.448564e+00	-3.156057e+01
1.720000e-06	-5.921767e-07	-3.859638e-10	-4.124816e+00	-3.056995e+01
1.730000e-06	-5.455204e-07	-3.702176e-10	-3.799831e+00	-2.955993e+01
1.740000e-06	-4.987750e-07	-3.560812e-10	-3.474225e+00	-2.853026e+01
1.750000e-06	-4.520725e-07	-3.413889e-10	-3.148918e+00	-2.748073e+01
1.760000e-06	-4.053965e-07	-3.250251e-10	-2.823796e+00	-2.641120e+01
1.770000e-06	-3.587176e-07	-3.085378e-10	-2.498653e+00	-2.532156e+01
1.780000e-06	-3.120871e-07	-2.939612e-10	-2.173847e+00	-2.421175e+01
1.790000e-06	-2.654207e-07	-2.804341e-10	-1.848792e+00	-2.308177e+01
1.800000e-06	-2.187122e-07	-2.631871e-10	-1.523443e+00	-2.193169e+01
1.810000e-06	-1.720318e-07	-2.433194e-10	-1.198290e+00	-2.076162e+01
1.820000e-06	-1.253857e-07	-2.219323e-10	-8.733760e-01	-1.957175e+01
1.830000e-06	-7.877906e-08	-2.032013e-10	-5.487368e-01	-1.836233e+01
1.840000e-06	-3.211585e-08	-1.869157e-10	-2.237035e-01	-1.713369e+01
1.850000e-06	1.465116e-08	-1.709901e-10	1.020529e-01	-1.588621e+01
1.860000e-06	6.135205e-08	-1.584315e-10	4.273487e-01	-1.462036e+01
1.870000e-06	1.080497e-07	-1.447648e-10	7.526222e-01	-1.333667e+01
1.880000e-06	1.548003e-07	-1.280052e-10	1.078264e+00	-1.203575e+01
1.890000e-06	2.014623e-07	-1.098271e-10	1.403289e+00	-1.071828e+01
1.900000e-06	2.481462e-07	-8.939287e-11	1.728467e+00	-9.385011e+00
1.910000e-06	2.947823e-07	-6.963984e-11	2.053311e+00	-8.036760e+00
1.920000e-06	3.413095e-07	-4.926697e-11	2.377397e+00	-6.674420e+00
1.930000e-06	3.878134e-07	-3.271059e-11	2.701321e+00	-5.298944e+00
1.940000e-06	4.343167e-07	-1.728931e-11	3.025240e+00	-3.911354e+00
1.950000e-06	4.808283e-07	-4.089103e-12	3.349217e+00	-2.512728e+00
1.960000e-06	5.272893e-07	1.020482e-11	3.672842e+00	-1.104203e+00
1.970000e-06	5.737431e-07	2.640627e-11	3.996417e+00	3.130318e-01
1.980000e-06	6.201135e-07	4.578223e-11	4.319410e+00	1.737738e+00
1.990000e-06	6.663530e-07	6.593513e-11	4.641493e+00	3.168636e+00
2.000000e-06	7.125883e-07	8.597246e-11	4.963545e+00	4.604406e+00
2.010000e-06	7.588241e-07	1.066948e-10	5.285602e+00	6.043698e+00
2.020000e-06	8.049679e-07	1.257576e-10	5.607017e+00	7.485135e+00
2.030000e-06	8.510136e-07	1.427672e-10	5.927749e+00	8.927319e+00
2.040000e-06	8.969830e-07	1.603889e-10	6.247950e+00	1.036884e+01
2.050000e-06	9.429771e-07	1.779518e-10	6.568322e+00	1.180828e+01
2.060000e-06	9.889655e-07	1.951064e-10	6.888655e+00	1.324422e+01
2.070000e-06	1.034868e-06	2.136808e-10	7.208388e+00	1.467525e+01
2.080000e-06	1.080677e-06	2.348419e-10	7.527473e+00	1.609998e+01
2.090000e-06	1.126410e-06	2.561698e-10	7.846029e+00	1.751702e+01
2.100000e-06	1.172109e-06	2.772304e-10	8.164344e+00	1.892502e+01
2.110000e-06	1.217658e-06	2.985796e-10	8.481619e+00	2.032266e+01
2.120000e-06	1.263132e-06	3.173419e-10	8.798364e+00	2.170868e+01
2.130000e-06	1.308514e-06	3.352248e-10	9.114476e+00	2.308182e+01
2.140000e-06	1.353710e-06	3.525960e-10	9.429287e+00	2.444092e+01
2.150000e-06	1.398859e-06	3.698824e-10	9.743777e+00	2.578485e+01
2.160000e-06	1.443918e-06	3.873462e-10	1.005764e+01	2.711255e+01
2.170000e-06	1.488912e-06	4.065616e-10	1.037104e+01	2.842302e+01
2.180000e-06	1.533909e-06	4.257649e-10	1.068447e+01	2.971533e+01
2.190000e-06	1.578818e-06	4.439808e-10	1.099728e+01	3.098864e+01
2.200000e-06	1.623588e-06	4.617808e-10	1.130913e+01	3.224216e+01
2.210000e-06	1.668152e-06	4.787889e-10	1.161954e+01	3.347522e+01
2.220000e-06	1.712514e-06	4.953049e-10	1.192855e+01	3.468719e+01
2.230000e-06	1.756697e-06	5.128860e-10	1.223630e+01	3.587754e+01
2.240000e-06	1.800789e-06	5.286599e-10	1.254343e+01	3.704584e+01
2.250000e-06	1.844815e-06	5.433593e-10	1.285009e+01	3.819171e+01
2.260000e-06	1.888771e-06	5.579893e-10	1.315626e+01	3.931489e+01
2.270000e-06	1.932679e-06	5.722627e-10	1.346211e+01	4.041517e+01
2.280000e-06	1.976483e-06	5.853989e-10	1.376723e+01	4.149245e+01
2.290000e-06	2.020220e-06	5.995915e-10	1.407187e+01	4.254668e+01
2.300000e-06	2.063940e-06	6.139554e-10	1.437641e+01	4.357791e+01
2.310000e-06	2.107617e-06	6.293875e-10	1.468064e+01	4.458625e+01
2.320000e-06	2.151188e-06	6.455573e-10	1.498414e+01	4.557189e+01
2.330000e-06	2.194631e-06	6.594888e-10	1.528673e+01	4.653506e+01
2.340000e-06	2.237909e-06	6.713291e-10	1.558819e+01	4.747609e+01
2.350000e-06	2.281011e-06	6.827799e-10	1.588842e+01	4.839533e+01
2.360000e-06	2.323932e-06	6.938946e-10	1.618738e+01	4.929320e+01
2.370000e-06	2.366577e-06	7.045497e-10	1.648443e+01	5.017015e+01
2.380000e-06	2.408885e-06	7.155233e-10	1.677913e+01	5.102669e+01
2.390000e-06	2.450929e-06	7.274378e-10	1.707198e+01	5.186334e+01
2.400000e-06	2.492673e-06	7.406057e-10	1.736276e+01	5.268066e+01
2.410000e-06	2.534069e-06	7.540257e-10	1.765110e+01	5.347924e+01
2.420000e-06	2.575161e-06	7.674328e-10	1.793733e+01	5.425967e+01
2.430000e-06	2.615927e-06	7.801338e-10	1.822128e+01	5.502256e+01
2.440000e-06	2.656536e-06	7.913520e-10	1.850415e+01	5.576852e+01
2.450000e-06	2.696978e-06	8.018836e-10	1.878584e+01	5.649816e+01
2.460000e-06	2.737111e-06	8.123565e-10	1.906539e+01	5.721209e+01
2.470000e-06	2.777109e-06	8.215154e-10	1.934400e+01	5.791088e+01
2.480000e-06	2.816994e-06	8.303740e-10	1.962182e+01	5.859513e+01
2.490000e-06	2.856762e-06	8.380324e-10	1.989882e+01	5.926539e+01
2.500000e-06	2.896394e-06	8.457856e-10	2.017488e+01	5.992218e+01
2.510000e-06	2.935848e-06	8.556816e-10	2.044970e+01	6.056602e+01
2.520000e-06	2.975130e-06	8.669563e-10	2.072332e+01	6.119737e+01
2.530000e-06	3.014205e-06	8.776461e-10	2.099550e+01	6.181667e+01
2.540000e-06	3.053110e-06	8.859130e-10	2.126649e+01	6.242433e+01
2.550000e-06	3.091860e-06	8.904402e-10	2.153640e+01	6.302071e+01
2.560000e-06	3.130367e-06	8.939215e-10	2.180463e+01	6.360615e+01
2.570000e-06	3.168570e-06	8.978099e-10	2.207073e+01	6.418093e+01
2.580000e-06	3.206528e-06	9.034625e-10	2.233512e+01	6.474530e+01
2.590000e-06	3.244284e-06	9.113306e-10	2.259811e+01	6.529947e+01
2.600000e-06	3.281890e-06	9.202807e-10	2.286006e+01	6.584363e+01
2.610000e-06	3.319361e-06	9.311070e-10	2.312106e+01	6.637790e+01
2.620000e-06	3.356571e-06	9.414407e-10	2.338025e+01	6.690240e+01
2.630000e-06	3.393551e-06	9.502263e-10	2.363784e+01	6.741719e+01
2.640000e-06	3.430318e-06	9.559723e-10	2.389393e+01	6.792233e+01
2.650000e-06	3.466768e-06	9.577222e-10	2.414783e+01	6.841781e+01
2.660000e-06	3.502957e-06	9.604769e-10	2.439990e+01	6.890365e+01
2.670000e-06	3.538964e-06	9.662392e-10	2.465071e+01	6.937979e+01
2.680000e-06	3.574791e-06	9.746751e-10	2.490027e+01	6.984621e+01
2.690000e-06	3.610438e-06	9.830879e-10	2.514857e+01	7.030284e+01
2.700000e-06	3.645951e-06	9.928434e-10	2.539593e+01	7.074961e+01
2.710000e-06	3.681361e-06	1.002132e-09	2.564258e+01	7.118645e+01
2.720000e-06	3.716547e-06	1.009421e-09	2.588767e+01	7.161329e+01
2.730000e-06	3.751340e-06	1.017569e-09	2.613002e+01	7.203004e+01
2.740000e-06	3.785748e-06	1.025971e-09	2.636969e+01	7.243664e+01
2.750000e-06	3.819731e-06	1.031749e-09	2.660640e+01	7.283302e+01
2.760000e-06	3.853249e-06	1.036013e-09	2.683987e+01	7.321916e+01
2.770000e-06	3.886380e-06	1.039930e-09	2.707064e+01	7.359500e+01
2.780000e-06	3.919124e-06	1.044043e-09	2.729872e+01	7.396054e+01
2.790000e-06	3.951465e-06	1.050944e-09	2.752400e+01	7.431579e+01
2.800000e-06	3.983534e-06	1.058925e-09	2.774737e+01	7.466078e+01
2.810000e-06	4.015402e-06	1.066189e-09	2.796935e+01	7.499556e+01
2.820000e-06	4.047082e-06	1.072656e-09	2.819002e+01	7.532022e+01
2.830000e-06	4.078636e-06	1.078630e-09	2.840980e+01	7.563487e+01
2.840000e-06	4.109997e-06	1.082753e-09	2.862825e+01	7.593965e+01
2.850000e-06	4.141072e-06	1.085609e-09	2.884471e+01	7.623473e+01
2.860000e-06	4.171812e-06	1.089986e-09	2.905882e+01	7.652031e+01
2.870000e-06	4.202199e-06	1.095439e-09	2.927048e+01	7.679662e+01
2.880000e-06	4.232330e-06	1.099859e-09	2.948036e+01	7.706390e+01
2.890000e-06	4.262243e-06	1.107258e-09	2.968872e+01	7.732244e+01
2.900000e-06	4.291864e-06	1.115554e-09	2.989505e+01	7.757254e+01
