# Temperatura_=_-0.3
# Concentracion g/m^3_=_1620.0
# C_Vs_to_Am_M_A/Vsm_=_65563218390.804596
# pendiente_HvsI_1/m_=_3716.3
# ordenada_HvsI_A/m_=_1297.0
# frecuencia_Hz_=_135109.8740603084

Tiempo_(s)	Campo_(V.s)	Magnetizacion_(V.s)	Campo_(kA/m)	Magnetizacion_(A/m)
0.000000e+00	-5.517891e-06	-1.078398e-09	-3.836479e+01	-7.090423e+01
1.000000e-08	-5.518082e-06	-1.078710e-09	-3.836612e+01	-7.091115e+01
2.000000e-08	-5.518012e-06	-1.081220e-09	-3.836564e+01	-7.091632e+01
3.000000e-08	-5.517596e-06	-1.083354e-09	-3.836275e+01	-7.091964e+01
4.000000e-08	-5.516725e-06	-1.081129e-09	-3.835669e+01	-7.092100e+01
5.000000e-08	-5.515302e-06	-1.074815e-09	-3.834680e+01	-7.092030e+01
6.000000e-08	-5.513270e-06	-1.058354e-09	-3.833267e+01	-7.091743e+01
7.000000e-08	-5.510694e-06	-1.037629e-09	-3.831475e+01	-7.091226e+01
8.000000e-08	-5.507575e-06	-1.048017e-09	-3.829307e+01	-7.090466e+01
9.000000e-08	-5.503920e-06	-1.104213e-09	-3.826766e+01	-7.089452e+01
1.000000e-07	-5.499832e-06	-1.135620e-09	-3.823923e+01	-7.088171e+01
1.100000e-07	-5.495414e-06	-1.087982e-09	-3.820852e+01	-7.086610e+01
1.200000e-07	-5.490808e-06	-1.012095e-09	-3.817649e+01	-7.084756e+01
1.300000e-07	-5.485964e-06	-1.021569e-09	-3.814281e+01	-7.082598e+01
1.400000e-07	-5.480747e-06	-1.090439e-09	-3.810654e+01	-7.080124e+01
1.500000e-07	-5.475118e-06	-1.064350e-09	-3.806740e+01	-7.077324e+01
1.600000e-07	-5.469077e-06	-1.012223e-09	-3.802540e+01	-7.074187e+01
1.700000e-07	-5.462693e-06	-1.020527e-09	-3.798102e+01	-7.070705e+01
1.800000e-07	-5.455892e-06	-1.096132e-09	-3.793373e+01	-7.066869e+01
1.900000e-07	-5.448581e-06	-1.091218e-09	-3.788289e+01	-7.062673e+01
2.000000e-07	-5.440969e-06	-1.037339e-09	-3.782997e+01	-7.058112e+01
2.100000e-07	-5.433212e-06	-1.044780e-09	-3.777604e+01	-7.053181e+01
2.200000e-07	-5.425232e-06	-1.096420e-09	-3.772056e+01	-7.047876e+01
2.300000e-07	-5.416963e-06	-1.105555e-09	-3.766306e+01	-7.042198e+01
2.400000e-07	-5.408331e-06	-1.075385e-09	-3.760305e+01	-7.036145e+01
2.500000e-07	-5.399083e-06	-1.080007e-09	-3.753875e+01	-7.029719e+01
2.600000e-07	-5.389076e-06	-1.100638e-09	-3.746917e+01	-7.022923e+01
2.700000e-07	-5.378409e-06	-1.105016e-09	-3.739501e+01	-7.015760e+01
2.800000e-07	-5.367208e-06	-1.080585e-09	-3.731713e+01	-7.008237e+01
2.900000e-07	-5.355624e-06	-1.086260e-09	-3.723658e+01	-7.000359e+01
3.000000e-07	-5.343681e-06	-1.100596e-09	-3.715355e+01	-6.992134e+01
3.100000e-07	-5.331335e-06	-1.101312e-09	-3.706771e+01	-6.983572e+01
3.200000e-07	-5.318552e-06	-1.070834e-09	-3.697884e+01	-6.974681e+01
3.300000e-07	-5.305293e-06	-1.069200e-09	-3.688664e+01	-6.965473e+01
3.400000e-07	-5.291663e-06	-1.080037e-09	-3.679188e+01	-6.955958e+01
3.500000e-07	-5.277779e-06	-1.078001e-09	-3.669535e+01	-6.946149e+01
3.600000e-07	-5.263493e-06	-1.055992e-09	-3.659602e+01	-6.936058e+01
3.700000e-07	-5.248680e-06	-1.068315e-09	-3.649303e+01	-6.925696e+01
3.800000e-07	-5.233450e-06	-1.079753e-09	-3.638713e+01	-6.915077e+01
3.900000e-07	-5.217599e-06	-1.063212e-09	-3.627692e+01	-6.904213e+01
4.000000e-07	-5.201067e-06	-1.051211e-09	-3.616198e+01	-6.893117e+01
4.100000e-07	-5.184268e-06	-1.074404e-09	-3.604518e+01	-6.881799e+01
4.200000e-07	-5.167277e-06	-1.066204e-09	-3.592705e+01	-6.870273e+01
4.300000e-07	-5.149996e-06	-1.037561e-09	-3.580690e+01	-6.858548e+01
4.400000e-07	-5.132372e-06	-1.056371e-09	-3.568436e+01	-6.846634e+01
4.500000e-07	-5.114350e-06	-1.080139e-09	-3.555906e+01	-6.834543e+01
4.600000e-07	-5.095902e-06	-1.049490e-09	-3.543079e+01	-6.822281e+01
4.700000e-07	-5.077020e-06	-1.026660e-09	-3.529951e+01	-6.809856e+01
4.800000e-07	-5.057771e-06	-1.056559e-09	-3.516567e+01	-6.797274e+01
4.900000e-07	-5.038264e-06	-1.054740e-09	-3.503004e+01	-6.784542e+01
5.000000e-07	-5.018557e-06	-1.030731e-09	-3.489303e+01	-6.771663e+01
5.100000e-07	-4.998632e-06	-1.039148e-09	-3.475449e+01	-6.758640e+01
5.200000e-07	-4.978442e-06	-1.046121e-09	-3.461411e+01	-6.745476e+01
5.300000e-07	-4.957893e-06	-1.018732e-09	-3.447124e+01	-6.732170e+01
5.400000e-07	-4.936919e-06	-1.027806e-09	-3.432541e+01	-6.718724e+01
5.500000e-07	-4.915553e-06	-1.043736e-09	-3.417686e+01	-6.705136e+01
5.600000e-07	-4.893837e-06	-1.016183e-09	-3.402587e+01	-6.691403e+01
5.700000e-07	-4.871745e-06	-9.949813e-10	-3.387227e+01	-6.677523e+01
5.800000e-07	-4.849360e-06	-1.019837e-09	-3.371663e+01	-6.663492e+01
5.900000e-07	-4.826690e-06	-1.015433e-09	-3.355902e+01	-6.649305e+01
6.000000e-07	-4.803653e-06	-9.973466e-10	-3.339884e+01	-6.634959e+01
6.100000e-07	-4.780303e-06	-1.008882e-09	-3.323650e+01	-6.620446e+01
6.200000e-07	-4.756704e-06	-1.013640e-09	-3.307241e+01	-6.605763e+01
6.300000e-07	-4.732901e-06	-9.893183e-10	-3.290692e+01	-6.590902e+01
6.400000e-07	-4.708905e-06	-9.927492e-10	-3.274008e+01	-6.575859e+01
6.500000e-07	-4.684602e-06	-1.001920e-09	-3.257110e+01	-6.560627e+01
6.600000e-07	-4.659847e-06	-9.886432e-10	-3.239898e+01	-6.545202e+01
6.700000e-07	-4.634724e-06	-9.868062e-10	-3.222431e+01	-6.529578e+01
6.800000e-07	-4.609089e-06	-9.972277e-10	-3.204608e+01	-6.513750e+01
6.900000e-07	-4.582712e-06	-9.841599e-10	-3.186269e+01	-6.497716e+01
7.000000e-07	-4.555818e-06	-9.753630e-10	-3.167570e+01	-6.481471e+01
7.100000e-07	-4.528557e-06	-9.828754e-10	-3.148615e+01	-6.465013e+01
7.200000e-07	-4.500991e-06	-9.760095e-10	-3.129450e+01	-6.448340e+01
7.300000e-07	-4.473244e-06	-9.662425e-10	-3.110157e+01	-6.431453e+01
7.400000e-07	-4.445333e-06	-9.736472e-10	-3.090752e+01	-6.414350e+01
7.500000e-07	-4.417223e-06	-9.719452e-10	-3.071207e+01	-6.397034e+01
7.600000e-07	-4.388883e-06	-9.571439e-10	-3.051503e+01	-6.379506e+01
7.700000e-07	-4.360189e-06	-9.566366e-10	-3.031552e+01	-6.361770e+01
7.800000e-07	-4.331151e-06	-9.532935e-10	-3.011363e+01	-6.343829e+01
7.900000e-07	-4.301768e-06	-9.416426e-10	-2.990934e+01	-6.325689e+01
8.000000e-07	-4.272091e-06	-9.431210e-10	-2.970300e+01	-6.307354e+01
8.100000e-07	-4.242130e-06	-9.489800e-10	-2.949468e+01	-6.288832e+01
8.200000e-07	-4.211809e-06	-9.381567e-10	-2.928387e+01	-6.270129e+01
8.300000e-07	-4.181262e-06	-9.329388e-10	-2.907148e+01	-6.251252e+01
8.400000e-07	-4.150449e-06	-9.346957e-10	-2.885724e+01	-6.232209e+01
8.500000e-07	-4.119340e-06	-9.297135e-10	-2.864095e+01	-6.213007e+01
8.600000e-07	-4.088015e-06	-9.214943e-10	-2.842315e+01	-6.193654e+01
8.700000e-07	-4.056486e-06	-9.244018e-10	-2.820394e+01	-6.174158e+01
8.800000e-07	-4.024769e-06	-9.231466e-10	-2.798342e+01	-6.154525e+01
8.900000e-07	-3.992911e-06	-9.169088e-10	-2.776191e+01	-6.134762e+01
9.000000e-07	-3.960930e-06	-9.147805e-10	-2.753956e+01	-6.114874e+01
9.100000e-07	-3.928719e-06	-9.138632e-10	-2.731560e+01	-6.094866e+01
9.200000e-07	-3.896080e-06	-9.051710e-10	-2.708867e+01	-6.074742e+01
9.300000e-07	-3.862929e-06	-9.016533e-10	-2.685818e+01	-6.054504e+01
9.400000e-07	-3.829347e-06	-9.042072e-10	-2.662469e+01	-6.034152e+01
9.500000e-07	-3.795369e-06	-9.020249e-10	-2.638844e+01	-6.013686e+01
9.600000e-07	-3.760918e-06	-8.961258e-10	-2.614892e+01	-5.993102e+01
9.700000e-07	-3.725985e-06	-8.958348e-10	-2.590603e+01	-5.972397e+01
9.800000e-07	-3.690709e-06	-8.924042e-10	-2.566076e+01	-5.951563e+01
9.900000e-07	-3.655257e-06	-8.860099e-10	-2.541427e+01	-5.930591e+01
1.000000e-06	-3.619630e-06	-8.837098e-10	-2.516657e+01	-5.909471e+01
1.010000e-06	-3.583846e-06	-8.820504e-10	-2.491777e+01	-5.888189e+01
1.020000e-06	-3.547955e-06	-8.783906e-10	-2.466822e+01	-5.866730e+01
1.030000e-06	-3.511888e-06	-8.780150e-10	-2.441746e+01	-5.845075e+01
1.040000e-06	-3.475628e-06	-8.795530e-10	-2.416535e+01	-5.823205e+01
1.050000e-06	-3.439171e-06	-8.742289e-10	-2.391187e+01	-5.801098e+01
1.060000e-06	-3.402371e-06	-8.668410e-10	-2.365601e+01	-5.778729e+01
1.070000e-06	-3.365212e-06	-8.620649e-10	-2.339765e+01	-5.756071e+01
1.080000e-06	-3.327855e-06	-8.564697e-10	-2.313792e+01	-5.733096e+01
1.090000e-06	-3.290360e-06	-8.514899e-10	-2.287722e+01	-5.709776e+01
1.100000e-06	-3.252634e-06	-8.507759e-10	-2.261492e+01	-5.686077e+01
1.110000e-06	-3.214617e-06	-8.464753e-10	-2.235059e+01	-5.661967e+01
1.120000e-06	-3.176396e-06	-8.387967e-10	-2.208485e+01	-5.637412e+01
1.130000e-06	-3.138011e-06	-8.337432e-10	-2.181796e+01	-5.612377e+01
1.140000e-06	-3.099420e-06	-8.313550e-10	-2.154965e+01	-5.586827e+01
1.150000e-06	-3.060596e-06	-8.252135e-10	-2.127971e+01	-5.560725e+01
1.160000e-06	-3.021535e-06	-8.189662e-10	-2.100813e+01	-5.534035e+01
1.170000e-06	-2.982256e-06	-8.144874e-10	-2.073503e+01	-5.506722e+01
1.180000e-06	-2.942801e-06	-8.111766e-10	-2.046071e+01	-5.478749e+01
1.190000e-06	-2.903234e-06	-8.069551e-10	-2.018561e+01	-5.450081e+01
1.200000e-06	-2.863540e-06	-8.027003e-10	-1.990963e+01	-5.420685e+01
1.210000e-06	-2.823704e-06	-7.957070e-10	-1.963265e+01	-5.390528e+01
1.220000e-06	-2.783705e-06	-7.870370e-10	-1.935455e+01	-5.359577e+01
1.230000e-06	-2.743567e-06	-7.807697e-10	-1.907548e+01	-5.327802e+01
1.240000e-06	-2.703283e-06	-7.769831e-10	-1.879539e+01	-5.295177e+01
1.250000e-06	-2.662739e-06	-7.704952e-10	-1.851349e+01	-5.261673e+01
1.260000e-06	-2.622029e-06	-7.644169e-10	-1.823045e+01	-5.227269e+01
1.270000e-06	-2.581111e-06	-7.600164e-10	-1.794595e+01	-5.191941e+01
1.280000e-06	-2.539828e-06	-7.550124e-10	-1.765892e+01	-5.155671e+01
1.290000e-06	-2.498300e-06	-7.481403e-10	-1.737018e+01	-5.118441e+01
1.300000e-06	-2.456499e-06	-7.406075e-10	-1.707955e+01	-5.080238e+01
1.310000e-06	-2.414371e-06	-7.339978e-10	-1.678664e+01	-5.041051e+01
1.320000e-06	-2.371969e-06	-7.274619e-10	-1.649183e+01	-5.000869e+01
1.330000e-06	-2.329245e-06	-7.233104e-10	-1.619478e+01	-4.959687e+01
1.340000e-06	-2.286222e-06	-7.197564e-10	-1.589565e+01	-4.917500e+01
1.350000e-06	-2.242995e-06	-7.127934e-10	-1.559510e+01	-4.874306e+01
1.360000e-06	-2.199645e-06	-7.045681e-10	-1.529369e+01	-4.830106e+01
1.370000e-06	-2.156136e-06	-6.965236e-10	-1.499118e+01	-4.784902e+01
1.380000e-06	-2.112489e-06	-6.879245e-10	-1.468771e+01	-4.738697e+01
1.390000e-06	-2.068755e-06	-6.800866e-10	-1.438364e+01	-4.691498e+01
1.400000e-06	-2.024945e-06	-6.720703e-10	-1.407904e+01	-4.643311e+01
1.410000e-06	-1.981088e-06	-6.635446e-10	-1.377411e+01	-4.594144e+01
1.420000e-06	-1.937177e-06	-6.547113e-10	-1.346881e+01	-4.544006e+01
1.430000e-06	-1.893186e-06	-6.464922e-10	-1.316294e+01	-4.492904e+01
1.440000e-06	-1.849080e-06	-6.378104e-10	-1.285629e+01	-4.440848e+01
1.450000e-06	-1.804879e-06	-6.289472e-10	-1.254896e+01	-4.387847e+01
1.460000e-06	-1.760549e-06	-6.201459e-10	-1.224075e+01	-4.333908e+01
1.470000e-06	-1.716031e-06	-6.113296e-10	-1.193122e+01	-4.279039e+01
1.480000e-06	-1.671363e-06	-6.007747e-10	-1.162066e+01	-4.223245e+01
1.490000e-06	-1.626656e-06	-5.889835e-10	-1.130981e+01	-4.166530e+01
1.500000e-06	-1.581893e-06	-5.789654e-10	-1.099858e+01	-4.108898e+01
1.510000e-06	-1.536962e-06	-5.715593e-10	-1.068619e+01	-4.050347e+01
1.520000e-06	-1.491802e-06	-5.632959e-10	-1.037220e+01	-3.990875e+01
1.530000e-06	-1.446531e-06	-5.525512e-10	-1.005744e+01	-3.930478e+01
1.540000e-06	-1.401294e-06	-5.409472e-10	-9.742920e+00	-3.869148e+01
1.550000e-06	-1.355977e-06	-5.288139e-10	-9.427836e+00	-3.806874e+01
1.560000e-06	-1.310521e-06	-5.155180e-10	-9.111794e+00	-3.743643e+01
1.570000e-06	-1.264963e-06	-5.033486e-10	-8.795035e+00	-3.679436e+01
1.580000e-06	-1.219282e-06	-4.925143e-10	-8.477424e+00	-3.614234e+01
1.590000e-06	-1.173462e-06	-4.805848e-10	-8.158849e+00	-3.548014e+01
1.600000e-06	-1.127520e-06	-4.697505e-10	-7.839423e+00	-3.480748e+01
1.610000e-06	-1.081544e-06	-4.617962e-10	-7.519762e+00	-3.412406e+01
1.620000e-06	-1.035570e-06	-4.533755e-10	-7.200113e+00	-3.342957e+01
1.630000e-06	-9.895234e-07	-4.430322e-10	-6.879959e+00	-3.272363e+01
1.640000e-06	-9.433540e-07	-4.296985e-10	-6.558952e+00	-3.200588e+01
1.650000e-06	-8.971175e-07	-4.137958e-10	-6.237479e+00	-3.127590e+01
1.660000e-06	-8.508244e-07	-3.988112e-10	-5.915612e+00	-3.053328e+01
1.670000e-06	-8.044743e-07	-3.869290e-10	-5.593349e+00	-2.977758e+01
1.680000e-06	-7.581264e-07	-3.765583e-10	-5.271102e+00	-2.900834e+01
1.690000e-06	-7.117588e-07	-3.671432e-10	-4.948717e+00	-2.822512e+01
1.700000e-06	-6.652886e-07	-3.596619e-10	-4.625619e+00	-2.742746e+01
1.710000e-06	-6.187768e-07	-3.492465e-10	-4.302231e+00	-2.661489e+01
1.720000e-06	-5.722230e-07	-3.349609e-10	-3.978552e+00	-2.578699e+01
1.730000e-06	-5.256071e-07	-3.203458e-10	-3.654441e+00	-2.494331e+01
1.740000e-06	-4.789808e-07	-3.068567e-10	-3.330258e+00	-2.408344e+01
1.750000e-06	-4.323550e-07	-2.938803e-10	-3.006078e+00	-2.320700e+01
1.760000e-06	-3.856135e-07	-2.804749e-10	-2.681094e+00	-2.231363e+01
1.770000e-06	-3.388203e-07	-2.671955e-10	-2.355750e+00	-2.140302e+01
1.780000e-06	-2.920215e-07	-2.551888e-10	-2.030368e+00	-2.047488e+01
1.790000e-06	-2.451390e-07	-2.418961e-10	-1.704403e+00	-1.952899e+01
1.800000e-06	-1.982469e-07	-2.257107e-10	-1.378371e+00	-1.856518e+01
1.810000e-06	-1.514141e-07	-2.086127e-10	-1.052752e+00	-1.758332e+01
1.820000e-06	-1.046421e-07	-1.919619e-10	-7.275553e-01	-1.658338e+01
1.830000e-06	-5.787266e-08	-1.774210e-10	-4.023771e-01	-1.556535e+01
1.840000e-06	-1.109169e-08	-1.640224e-10	-7.711833e-02	-1.452932e+01
1.850000e-06	3.567008e-08	-1.510133e-10	2.480070e-01	-1.347547e+01
1.860000e-06	8.239194e-08	-1.384592e-10	5.728547e-01	-1.240401e+01
1.870000e-06	1.291360e-07	-1.238121e-10	8.978570e-01	-1.131527e+01
1.880000e-06	1.759509e-07	-1.061293e-10	1.223352e+00	-1.020966e+01
1.890000e-06	2.227874e-07	-8.702644e-11	1.548996e+00	-9.087640e+00
1.900000e-06	2.695876e-07	-6.979004e-11	1.874389e+00	-7.949789e+00
1.910000e-06	3.163620e-07	-5.396160e-11	2.199602e+00	-6.796753e+00
1.920000e-06	3.631549e-07	-3.827567e-11	2.524944e+00	-5.629261e+00
1.930000e-06	4.099098e-07	-2.366454e-11	2.850021e+00	-4.448125e+00
1.940000e-06	4.565222e-07	-1.101007e-11	3.174108e+00	-3.254237e+00
1.950000e-06	5.030329e-07	1.254143e-13	3.497487e+00	-2.048561e+00
1.960000e-06	5.495404e-07	1.336508e-11	3.820845e+00	-8.321368e-01
1.970000e-06	5.960814e-07	3.126396e-11	4.144435e+00	3.939286e-01
1.980000e-06	6.426102e-07	5.201315e-11	4.467941e+00	1.628465e+00
1.990000e-06	6.890915e-07	7.184414e-11	4.791116e+00	2.870242e+00
2.000000e-06	7.354394e-07	8.988942e-11	5.113364e+00	4.117980e+00
2.010000e-06	7.816904e-07	1.065551e-10	5.434937e+00	5.370349e+00
2.020000e-06	8.279590e-07	1.221312e-10	5.756634e+00	6.625982e+00
2.030000e-06	8.742287e-07	1.372293e-10	6.078338e+00	7.883478e+00
2.040000e-06	9.203963e-07	1.535041e-10	6.399332e+00	9.141412e+00
2.050000e-06	9.664879e-07	1.707087e-10	6.719797e+00	1.039834e+01
2.060000e-06	1.012601e-06	1.896676e-10	7.040414e+00	1.165281e+01
2.070000e-06	1.058687e-06	2.114110e-10	7.360839e+00	1.290337e+01
2.080000e-06	1.104593e-06	2.325731e-10	7.680012e+00	1.414856e+01
2.090000e-06	1.150299e-06	2.512649e-10	7.997798e+00	1.538696e+01
2.100000e-06	1.195984e-06	2.676391e-10	8.315439e+00	1.661715e+01
2.110000e-06	1.241704e-06	2.821727e-10	8.633321e+00	1.783775e+01
2.120000e-06	1.287307e-06	2.960170e-10	8.950387e+00	1.904742e+01
2.130000e-06	1.332735e-06	3.112468e-10	9.266240e+00	2.024486e+01
2.140000e-06	1.378071e-06	3.293477e-10	9.581449e+00	2.142882e+01
2.150000e-06	1.423308e-06	3.473898e-10	9.895975e+00	2.259811e+01
2.160000e-06	1.468445e-06	3.643623e-10	1.020981e+01	2.375161e+01
2.170000e-06	1.513493e-06	3.813815e-10	1.052302e+01	2.488827e+01
2.180000e-06	1.558378e-06	3.967920e-10	1.083509e+01	2.600711e+01
2.190000e-06	1.603063e-06	4.099881e-10	1.114578e+01	2.710723e+01
2.200000e-06	1.647604e-06	4.235618e-10	1.145546e+01	2.818782e+01
2.210000e-06	1.692036e-06	4.382946e-10	1.176439e+01	2.924815e+01
2.220000e-06	1.736377e-06	4.534237e-10	1.207269e+01	3.028759e+01
2.230000e-06	1.780612e-06	4.677625e-10	1.238024e+01	3.130560e+01
2.240000e-06	1.824730e-06	4.805020e-10	1.268698e+01	3.230171e+01
2.250000e-06	1.868822e-06	4.923990e-10	1.299355e+01	3.327558e+01
2.260000e-06	1.912852e-06	5.041698e-10	1.329968e+01	3.422694e+01
2.270000e-06	1.956788e-06	5.164617e-10	1.360515e+01	3.515561e+01
2.280000e-06	2.000642e-06	5.286810e-10	1.391006e+01	3.606150e+01
2.290000e-06	2.044421e-06	5.410523e-10	1.421445e+01	3.694464e+01
2.300000e-06	2.088189e-06	5.544011e-10	1.451876e+01	3.780509e+01
2.310000e-06	2.131875e-06	5.668199e-10	1.482250e+01	3.864304e+01
2.320000e-06	2.175446e-06	5.768947e-10	1.512544e+01	3.945874e+01
2.330000e-06	2.218853e-06	5.850623e-10	1.542725e+01	4.025250e+01
2.340000e-06	2.262068e-06	5.915616e-10	1.572771e+01	4.102471e+01
2.350000e-06	2.305104e-06	5.994278e-10	1.602693e+01	4.177583e+01
2.360000e-06	2.347965e-06	6.086809e-10	1.632493e+01	4.250636e+01
2.370000e-06	2.390583e-06	6.192416e-10	1.662124e+01	4.321686e+01
2.380000e-06	2.432853e-06	6.309045e-10	1.691514e+01	4.390793e+01
2.390000e-06	2.474801e-06	6.419670e-10	1.720680e+01	4.458021e+01
2.400000e-06	2.516521e-06	6.526445e-10	1.749687e+01	4.523437e+01
2.410000e-06	2.557991e-06	6.633594e-10	1.778520e+01	4.587110e+01
2.420000e-06	2.599165e-06	6.736659e-10	1.807148e+01	4.649110e+01
2.430000e-06	2.640011e-06	6.816114e-10	1.835547e+01	4.709511e+01
2.440000e-06	2.680513e-06	6.888491e-10	1.863707e+01	4.768385e+01
2.450000e-06	2.720831e-06	6.990816e-10	1.891740e+01	4.825803e+01
2.460000e-06	2.761075e-06	7.100411e-10	1.919720e+01	4.881837e+01
2.470000e-06	2.801151e-06	7.195320e-10	1.947585e+01	4.936558e+01
2.480000e-06	2.841057e-06	7.283550e-10	1.975330e+01	4.990032e+01
2.490000e-06	2.880850e-06	7.357192e-10	2.002997e+01	5.042326e+01
2.500000e-06	2.920545e-06	7.437151e-10	2.030597e+01	5.093502e+01
2.510000e-06	2.960101e-06	7.534147e-10	2.058099e+01	5.143620e+01
2.520000e-06	2.999425e-06	7.632837e-10	2.085440e+01	5.192735e+01
2.530000e-06	3.038543e-06	7.709821e-10	2.112638e+01	5.240899e+01
2.540000e-06	3.077430e-06	7.767045e-10	2.139676e+01	5.288160e+01
2.550000e-06	3.116102e-06	7.815086e-10	2.166564e+01	5.334561e+01
2.560000e-06	3.154586e-06	7.866944e-10	2.193321e+01	5.380140e+01
2.570000e-06	3.192753e-06	7.935805e-10	2.219858e+01	5.424930e+01
2.580000e-06	3.230629e-06	8.009558e-10	2.246192e+01	5.468962e+01
2.590000e-06	3.268371e-06	8.084132e-10	2.272433e+01	5.512260e+01
2.600000e-06	3.305987e-06	8.175287e-10	2.298587e+01	5.554844e+01
2.610000e-06	3.343404e-06	8.280619e-10	2.324602e+01	5.596729e+01
2.620000e-06	3.380585e-06	8.372959e-10	2.350453e+01	5.637927e+01
2.630000e-06	3.417455e-06	8.431949e-10	2.376088e+01	5.678444e+01
2.640000e-06	3.454004e-06	8.445840e-10	2.401500e+01	5.718284e+01
2.650000e-06	3.490284e-06	8.447034e-10	2.426725e+01	5.757447e+01
2.660000e-06	3.526368e-06	8.464830e-10	2.451813e+01	5.795929e+01
2.670000e-06	3.562348e-06	8.517438e-10	2.476829e+01	5.833725e+01
2.680000e-06	3.598199e-06	8.602418e-10	2.501756e+01	5.870825e+01
2.690000e-06	3.633902e-06	8.705415e-10	2.526580e+01	5.907218e+01
2.700000e-06	3.669413e-06	8.805968e-10	2.551270e+01	5.942892e+01
2.710000e-06	3.704742e-06	8.868207e-10	2.575833e+01	5.977832e+01
2.720000e-06	3.739914e-06	8.898926e-10	2.600288e+01	6.012025e+01
2.730000e-06	3.774715e-06	8.929966e-10	2.624484e+01	6.045455e+01
2.740000e-06	3.808997e-06	8.968087e-10	2.648319e+01	6.078107e+01
2.750000e-06	3.842832e-06	9.011545e-10	2.671844e+01	6.109966e+01
2.760000e-06	3.876202e-06	9.058465e-10	2.695046e+01	6.141017e+01
2.770000e-06	3.909109e-06	9.119690e-10	2.717926e+01	6.171247e+01
2.780000e-06	3.941636e-06	9.201767e-10	2.740541e+01	6.200645e+01
2.790000e-06	3.973841e-06	9.277764e-10	2.762932e+01	6.229201e+01
2.800000e-06	4.005833e-06	9.332086e-10	2.785176e+01	6.256906e+01
2.810000e-06	4.037681e-06	9.357430e-10	2.807319e+01	6.283755e+01
2.820000e-06	4.069383e-06	9.358468e-10	2.829361e+01	6.309744e+01
2.830000e-06	4.100939e-06	9.347582e-10	2.851301e+01	6.334872e+01
2.840000e-06	4.132282e-06	9.329720e-10	2.873093e+01	6.359142e+01
2.850000e-06	4.163284e-06	9.355740e-10	2.894648e+01	6.382558e+01
2.860000e-06	4.193929e-06	9.426617e-10	2.915955e+01	6.405127e+01
2.870000e-06	4.224253e-06	9.484403e-10	2.937039e+01	6.426861e+01
2.880000e-06	4.254277e-06	9.533679e-10	2.957914e+01	6.447773e+01
2.890000e-06	4.284060e-06	9.585280e-10	2.978621e+01	6.467879e+01
2.900000e-06	4.313618e-06	9.611005e-10	2.999172e+01	6.487198e+01
