# Temperatura_=_-0.2
# Concentracion g/m^3_=_1620.0
# C_Vs_to_Am_M_A/Vsm_=_65563218390.804596
# pendiente_HvsI_1/m_=_3716.3
# ordenada_HvsI_A/m_=_1297.0
# frecuencia_Hz_=_135105.82242670527

Tiempo_(s)	Campo_(V.s)	Magnetizacion_(V.s)	Campo_(kA/m)	Magnetizacion_(A/m)
0.000000e+00	-5.519425e-06	-9.334837e-10	-3.835997e+01	-6.092873e+01
1.000000e-08	-5.519658e-06	-9.361501e-10	-3.836160e+01	-6.094557e+01
2.000000e-08	-5.519619e-06	-9.380388e-10	-3.836133e+01	-6.096101e+01
3.000000e-08	-5.519256e-06	-9.391104e-10	-3.835880e+01	-6.097481e+01
4.000000e-08	-5.518407e-06	-9.374097e-10	-3.835290e+01	-6.098671e+01
5.000000e-08	-5.516948e-06	-9.364257e-10	-3.834276e+01	-6.099647e+01
6.000000e-08	-5.514987e-06	-9.458377e-10	-3.832913e+01	-6.100383e+01
7.000000e-08	-5.512552e-06	-9.433438e-10	-3.831221e+01	-6.100854e+01
8.000000e-08	-5.509542e-06	-9.148657e-10	-3.829129e+01	-6.101037e+01
9.000000e-08	-5.506096e-06	-8.979935e-10	-3.826734e+01	-6.100907e+01
1.000000e-07	-5.502265e-06	-9.217271e-10	-3.824072e+01	-6.100444e+01
1.100000e-07	-5.498002e-06	-9.150648e-10	-3.821109e+01	-6.099625e+01
1.200000e-07	-5.493502e-06	-9.523868e-10	-3.817981e+01	-6.098432e+01
1.300000e-07	-5.488789e-06	-9.359388e-10	-3.814706e+01	-6.096847e+01
1.400000e-07	-5.483675e-06	-9.540650e-10	-3.811152e+01	-6.094857e+01
1.500000e-07	-5.478117e-06	-8.834150e-10	-3.807288e+01	-6.092448e+01
1.600000e-07	-5.472232e-06	-8.891115e-10	-3.803198e+01	-6.089610e+01
1.700000e-07	-5.466018e-06	-9.242308e-10	-3.798880e+01	-6.086336e+01
1.800000e-07	-5.459398e-06	-9.571516e-10	-3.794279e+01	-6.082620e+01
1.900000e-07	-5.452356e-06	-9.294266e-10	-3.789385e+01	-6.078461e+01
2.000000e-07	-5.444983e-06	-9.017797e-10	-3.784260e+01	-6.073861e+01
2.100000e-07	-5.437354e-06	-9.440711e-10	-3.778959e+01	-6.068822e+01
2.200000e-07	-5.429394e-06	-9.555043e-10	-3.773426e+01	-6.063352e+01
2.300000e-07	-5.421039e-06	-9.533296e-10	-3.767620e+01	-6.057460e+01
2.400000e-07	-5.412284e-06	-9.148523e-10	-3.761535e+01	-6.051159e+01
2.500000e-07	-5.403051e-06	-9.585908e-10	-3.755118e+01	-6.044464e+01
2.600000e-07	-5.393168e-06	-9.601915e-10	-3.748249e+01	-6.037391e+01
2.700000e-07	-5.382681e-06	-9.625116e-10	-3.740961e+01	-6.029962e+01
2.800000e-07	-5.371711e-06	-9.161621e-10	-3.733337e+01	-6.022197e+01
2.900000e-07	-5.360248e-06	-9.487824e-10	-3.725370e+01	-6.014120e+01
3.000000e-07	-5.348353e-06	-9.451042e-10	-3.717103e+01	-6.005757e+01
3.100000e-07	-5.336171e-06	-9.483488e-10	-3.708636e+01	-5.997134e+01
3.200000e-07	-5.323574e-06	-9.078945e-10	-3.699881e+01	-5.988279e+01
3.300000e-07	-5.310481e-06	-9.287887e-10	-3.690781e+01	-5.979220e+01
3.400000e-07	-5.296997e-06	-9.276738e-10	-3.681410e+01	-5.969985e+01
3.500000e-07	-5.283158e-06	-9.153891e-10	-3.671792e+01	-5.960604e+01
3.600000e-07	-5.268878e-06	-8.758903e-10	-3.661867e+01	-5.951106e+01
3.700000e-07	-5.254151e-06	-9.139947e-10	-3.651632e+01	-5.941517e+01
3.800000e-07	-5.239000e-06	-9.310997e-10	-3.641103e+01	-5.931866e+01
3.900000e-07	-5.223371e-06	-9.050544e-10	-3.630241e+01	-5.922177e+01
4.000000e-07	-5.207338e-06	-8.965474e-10	-3.619097e+01	-5.912477e+01
4.100000e-07	-5.190920e-06	-9.304094e-10	-3.607687e+01	-5.902786e+01
4.200000e-07	-5.174046e-06	-9.072832e-10	-3.595959e+01	-5.893126e+01
4.300000e-07	-5.156689e-06	-8.714548e-10	-3.583896e+01	-5.883516e+01
4.400000e-07	-5.138998e-06	-9.203740e-10	-3.571601e+01	-5.873971e+01
4.500000e-07	-5.121029e-06	-9.180226e-10	-3.559113e+01	-5.864505e+01
4.600000e-07	-5.102616e-06	-8.672058e-10	-3.546315e+01	-5.855128e+01
4.700000e-07	-5.083844e-06	-8.771010e-10	-3.533269e+01	-5.845847e+01
4.800000e-07	-5.064812e-06	-9.324553e-10	-3.520042e+01	-5.836669e+01
4.900000e-07	-5.045457e-06	-8.702334e-10	-3.506590e+01	-5.827594e+01
5.000000e-07	-5.025837e-06	-8.623042e-10	-3.492955e+01	-5.818621e+01
5.100000e-07	-5.006032e-06	-9.110438e-10	-3.479190e+01	-5.809746e+01
5.200000e-07	-4.985896e-06	-8.991014e-10	-3.465196e+01	-5.800961e+01
5.300000e-07	-4.965390e-06	-8.406332e-10	-3.450943e+01	-5.792257e+01
5.400000e-07	-4.944631e-06	-9.017455e-10	-3.436516e+01	-5.783620e+01
5.500000e-07	-4.923543e-06	-9.018997e-10	-3.421860e+01	-5.775035e+01
5.600000e-07	-4.902029e-06	-8.486602e-10	-3.406907e+01	-5.766485e+01
5.700000e-07	-4.880178e-06	-8.613576e-10	-3.391722e+01	-5.757949e+01
5.800000e-07	-4.858080e-06	-9.063937e-10	-3.376363e+01	-5.749406e+01
5.900000e-07	-4.835628e-06	-8.491498e-10	-3.360759e+01	-5.740832e+01
6.000000e-07	-4.812870e-06	-8.468750e-10	-3.344943e+01	-5.732202e+01
6.100000e-07	-4.789864e-06	-8.851090e-10	-3.328953e+01	-5.723491e+01
6.200000e-07	-4.766473e-06	-8.656093e-10	-3.312697e+01	-5.714671e+01
6.300000e-07	-4.742761e-06	-8.326608e-10	-3.296217e+01	-5.705716e+01
6.400000e-07	-4.718899e-06	-8.664304e-10	-3.279632e+01	-5.696598e+01
6.500000e-07	-4.694782e-06	-8.576048e-10	-3.262872e+01	-5.687291e+01
6.600000e-07	-4.670210e-06	-8.307216e-10	-3.245793e+01	-5.677766e+01
6.700000e-07	-4.645074e-06	-8.492640e-10	-3.228324e+01	-5.668000e+01
6.800000e-07	-4.619415e-06	-8.555756e-10	-3.210491e+01	-5.657966e+01
6.900000e-07	-4.593218e-06	-8.305372e-10	-3.192284e+01	-5.647641e+01
7.000000e-07	-4.566592e-06	-8.412085e-10	-3.173779e+01	-5.637004e+01
7.100000e-07	-4.539659e-06	-8.553339e-10	-3.155061e+01	-5.626035e+01
7.200000e-07	-4.512326e-06	-8.321367e-10	-3.136064e+01	-5.614716e+01
7.300000e-07	-4.484686e-06	-8.315132e-10	-3.116854e+01	-5.603031e+01
7.400000e-07	-4.456831e-06	-8.411864e-10	-3.097495e+01	-5.590967e+01
7.500000e-07	-4.428746e-06	-8.334701e-10	-3.077976e+01	-5.578514e+01
7.600000e-07	-4.400436e-06	-8.244862e-10	-3.058301e+01	-5.565662e+01
7.700000e-07	-4.371822e-06	-8.371911e-10	-3.038414e+01	-5.552408e+01
7.800000e-07	-4.342852e-06	-8.243518e-10	-3.018280e+01	-5.538747e+01
7.900000e-07	-4.313595e-06	-8.192541e-10	-2.997946e+01	-5.524680e+01
8.000000e-07	-4.284040e-06	-8.249992e-10	-2.977406e+01	-5.510209e+01
8.100000e-07	-4.254207e-06	-8.282140e-10	-2.956672e+01	-5.495339e+01
8.200000e-07	-4.224114e-06	-8.149738e-10	-2.935757e+01	-5.480077e+01
8.300000e-07	-4.193684e-06	-8.265714e-10	-2.914608e+01	-5.464434e+01
8.400000e-07	-4.162902e-06	-8.254589e-10	-2.893215e+01	-5.448420e+01
8.500000e-07	-4.131874e-06	-8.170790e-10	-2.871650e+01	-5.432048e+01
8.600000e-07	-4.100679e-06	-8.143376e-10	-2.849970e+01	-5.415335e+01
8.700000e-07	-4.069308e-06	-8.244336e-10	-2.828167e+01	-5.398296e+01
8.800000e-07	-4.037709e-06	-8.106069e-10	-2.806206e+01	-5.380949e+01
8.900000e-07	-4.005821e-06	-8.048382e-10	-2.784044e+01	-5.363311e+01
9.000000e-07	-3.973716e-06	-8.062383e-10	-2.761731e+01	-5.345402e+01
9.100000e-07	-3.941385e-06	-8.021450e-10	-2.739261e+01	-5.327240e+01
9.200000e-07	-3.908734e-06	-7.902316e-10	-2.716568e+01	-5.308844e+01
9.300000e-07	-3.875689e-06	-7.950884e-10	-2.693602e+01	-5.290232e+01
9.400000e-07	-3.842265e-06	-7.950028e-10	-2.670372e+01	-5.271422e+01
9.500000e-07	-3.808449e-06	-7.873694e-10	-2.646870e+01	-5.252429e+01
9.600000e-07	-3.774228e-06	-7.867019e-10	-2.623087e+01	-5.233270e+01
9.700000e-07	-3.739655e-06	-7.897501e-10	-2.599058e+01	-5.213957e+01
9.800000e-07	-3.704706e-06	-7.813462e-10	-2.574769e+01	-5.194502e+01
9.900000e-07	-3.669385e-06	-7.749409e-10	-2.550221e+01	-5.174915e+01
1.000000e-06	-3.633794e-06	-7.805135e-10	-2.525485e+01	-5.155202e+01
1.010000e-06	-3.598073e-06	-7.773283e-10	-2.500659e+01	-5.135369e+01
1.020000e-06	-3.562193e-06	-7.720013e-10	-2.475723e+01	-5.115417e+01
1.030000e-06	-3.526126e-06	-7.731436e-10	-2.450656e+01	-5.095345e+01
1.040000e-06	-3.489852e-06	-7.741274e-10	-2.425446e+01	-5.075151e+01
1.050000e-06	-3.453385e-06	-7.646881e-10	-2.400101e+01	-5.054828e+01
1.060000e-06	-3.416754e-06	-7.606497e-10	-2.374642e+01	-5.034367e+01
1.070000e-06	-3.379907e-06	-7.541071e-10	-2.349034e+01	-5.013756e+01
1.080000e-06	-3.342750e-06	-7.477176e-10	-2.323210e+01	-4.992980e+01
1.090000e-06	-3.305297e-06	-7.439370e-10	-2.297180e+01	-4.972022e+01
1.100000e-06	-3.267695e-06	-7.470823e-10	-2.271047e+01	-4.950862e+01
1.110000e-06	-3.229916e-06	-7.394669e-10	-2.244790e+01	-4.929478e+01
1.120000e-06	-3.191820e-06	-7.326040e-10	-2.218313e+01	-4.907846e+01
1.130000e-06	-3.153492e-06	-7.262207e-10	-2.191676e+01	-4.885938e+01
1.140000e-06	-3.114932e-06	-7.210147e-10	-2.164877e+01	-4.863728e+01
1.150000e-06	-3.076074e-06	-7.113834e-10	-2.137870e+01	-4.841184e+01
1.160000e-06	-3.037025e-06	-7.089596e-10	-2.110731e+01	-4.818278e+01
1.170000e-06	-2.997865e-06	-7.034709e-10	-2.083515e+01	-4.794976e+01
1.180000e-06	-2.958551e-06	-6.961582e-10	-2.056192e+01	-4.771247e+01
1.190000e-06	-2.919000e-06	-6.901484e-10	-2.028703e+01	-4.747057e+01
1.200000e-06	-2.879313e-06	-6.902715e-10	-2.001121e+01	-4.722376e+01
1.210000e-06	-2.839541e-06	-6.869956e-10	-1.973480e+01	-4.697169e+01
1.220000e-06	-2.799607e-06	-6.825969e-10	-1.945726e+01	-4.671407e+01
1.230000e-06	-2.759528e-06	-6.761809e-10	-1.917871e+01	-4.645057e+01
1.240000e-06	-2.719253e-06	-6.685220e-10	-1.889879e+01	-4.618090e+01
1.250000e-06	-2.678755e-06	-6.608181e-10	-1.861734e+01	-4.590478e+01
1.260000e-06	-2.638090e-06	-6.577775e-10	-1.833471e+01	-4.562195e+01
1.270000e-06	-2.597178e-06	-6.569127e-10	-1.805037e+01	-4.533215e+01
1.280000e-06	-2.555916e-06	-6.543121e-10	-1.776360e+01	-4.503516e+01
1.290000e-06	-2.514397e-06	-6.491907e-10	-1.747505e+01	-4.473077e+01
1.300000e-06	-2.472594e-06	-6.406783e-10	-1.718452e+01	-4.441879e+01
1.310000e-06	-2.430409e-06	-6.325824e-10	-1.689133e+01	-4.409907e+01
1.320000e-06	-2.387992e-06	-6.240382e-10	-1.659654e+01	-4.377146e+01
1.330000e-06	-2.345345e-06	-6.190365e-10	-1.630013e+01	-4.343585e+01
1.340000e-06	-2.302373e-06	-6.171773e-10	-1.600148e+01	-4.309215e+01
1.350000e-06	-2.259165e-06	-6.167307e-10	-1.570118e+01	-4.274028e+01
1.360000e-06	-2.215828e-06	-6.124621e-10	-1.540000e+01	-4.238020e+01
1.370000e-06	-2.172384e-06	-6.080192e-10	-1.509806e+01	-4.201188e+01
1.380000e-06	-2.128858e-06	-6.007260e-10	-1.479555e+01	-4.163530e+01
1.390000e-06	-2.085221e-06	-5.939222e-10	-1.449228e+01	-4.125046e+01
1.400000e-06	-2.041463e-06	-5.863699e-10	-1.418816e+01	-4.085739e+01
1.410000e-06	-1.997603e-06	-5.820544e-10	-1.388333e+01	-4.045610e+01
1.420000e-06	-1.953641e-06	-5.771963e-10	-1.357779e+01	-4.004662e+01
1.430000e-06	-1.909587e-06	-5.739059e-10	-1.327162e+01	-3.962900e+01
1.440000e-06	-1.865442e-06	-5.680009e-10	-1.296481e+01	-3.920327e+01
1.450000e-06	-1.821241e-06	-5.615900e-10	-1.265762e+01	-3.876947e+01
1.460000e-06	-1.777030e-06	-5.523205e-10	-1.235035e+01	-3.832762e+01
1.470000e-06	-1.732732e-06	-5.442899e-10	-1.204248e+01	-3.787775e+01
1.480000e-06	-1.688256e-06	-5.334397e-10	-1.173337e+01	-3.741985e+01
1.490000e-06	-1.643602e-06	-5.247815e-10	-1.142302e+01	-3.695393e+01
1.500000e-06	-1.598771e-06	-5.196382e-10	-1.111145e+01	-3.647996e+01
1.510000e-06	-1.553822e-06	-5.149608e-10	-1.079906e+01	-3.599787e+01
1.520000e-06	-1.508834e-06	-5.086268e-10	-1.048639e+01	-3.550761e+01
1.530000e-06	-1.463709e-06	-4.993527e-10	-1.017277e+01	-3.500906e+01
1.540000e-06	-1.418446e-06	-4.894796e-10	-9.858194e+00	-3.450210e+01
1.550000e-06	-1.373058e-06	-4.801442e-10	-9.542749e+00	-3.398657e+01
1.560000e-06	-1.327570e-06	-4.739873e-10	-9.226606e+00	-3.346226e+01
1.570000e-06	-1.282071e-06	-4.669239e-10	-8.910389e+00	-3.292897e+01
1.580000e-06	-1.236445e-06	-4.588644e-10	-8.593286e+00	-3.238643e+01
1.590000e-06	-1.190699e-06	-4.498604e-10	-8.275351e+00	-3.183434e+01
1.600000e-06	-1.144883e-06	-4.375187e-10	-7.956930e+00	-3.127239e+01
1.610000e-06	-1.098976e-06	-4.256343e-10	-7.637877e+00	-3.070021e+01
1.620000e-06	-1.053013e-06	-4.177577e-10	-7.318432e+00	-3.011743e+01
1.630000e-06	-1.006911e-06	-4.091928e-10	-6.998025e+00	-2.952362e+01
1.640000e-06	-9.607573e-07	-3.991175e-10	-6.677258e+00	-2.891836e+01
1.650000e-06	-9.146394e-07	-3.883281e-10	-6.356739e+00	-2.830118e+01
1.660000e-06	-8.684711e-07	-3.787293e-10	-6.035870e+00	-2.767161e+01
1.670000e-06	-8.222254e-07	-3.658495e-10	-5.714462e+00	-2.702914e+01
1.680000e-06	-7.758678e-07	-3.537319e-10	-5.392277e+00	-2.637330e+01
1.690000e-06	-7.294870e-07	-3.431344e-10	-5.069931e+00	-2.570355e+01
1.700000e-06	-6.830986e-07	-3.352623e-10	-4.747532e+00	-2.501941e+01
1.710000e-06	-6.366365e-07	-3.276834e-10	-4.424621e+00	-2.432036e+01
1.720000e-06	-5.900335e-07	-3.186474e-10	-4.100730e+00	-2.360593e+01
1.730000e-06	-5.433984e-07	-3.063059e-10	-3.776616e+00	-2.287564e+01
1.740000e-06	-4.968440e-07	-2.922031e-10	-3.453063e+00	-2.212904e+01
1.750000e-06	-4.502695e-07	-2.776807e-10	-3.129371e+00	-2.136571e+01
1.760000e-06	-4.036346e-07	-2.641342e-10	-2.805258e+00	-2.058527e+01
1.770000e-06	-3.569127e-07	-2.515853e-10	-2.480542e+00	-1.978738e+01
1.780000e-06	-3.100877e-07	-2.424635e-10	-2.155108e+00	-1.897173e+01
1.790000e-06	-2.632947e-07	-2.322799e-10	-1.829897e+00	-1.813810e+01
1.800000e-06	-2.165251e-07	-2.165466e-10	-1.504848e+00	-1.728629e+01
1.810000e-06	-1.696916e-07	-1.996598e-10	-1.179356e+00	-1.641618e+01
1.820000e-06	-1.228454e-07	-1.835857e-10	-8.537750e-01	-1.552773e+01
1.830000e-06	-7.600182e-08	-1.683020e-10	-5.282123e-01	-1.462094e+01
1.840000e-06	-2.920249e-08	-1.545878e-10	-2.029571e-01	-1.369591e+01
1.850000e-06	1.762169e-08	-1.425280e-10	1.224706e-01	-1.275283e+01
1.860000e-06	6.459735e-08	-1.327014e-10	4.489513e-01	-1.179193e+01
1.870000e-06	1.115561e-07	-1.206527e-10	7.753142e-01	-1.081357e+01
1.880000e-06	1.583984e-07	-1.061768e-10	1.100868e+00	-9.818164e+00
1.890000e-06	2.051742e-07	-9.141626e-11	1.425960e+00	-8.806227e+00
1.900000e-06	2.518762e-07	-7.576097e-11	1.750538e+00	-7.778356e+00
1.910000e-06	2.986329e-07	-6.211736e-11	2.075497e+00	-6.735233e+00
1.920000e-06	3.454111e-07	-4.842548e-11	2.400605e+00	-5.677623e+00
1.930000e-06	3.921717e-07	-3.538647e-11	2.725591e+00	-4.606376e+00
1.940000e-06	4.389283e-07	-2.098452e-11	3.050549e+00	-3.522419e+00
1.950000e-06	4.855616e-07	-8.220481e-12	3.374651e+00	-2.426754e+00
1.960000e-06	5.321042e-07	4.737288e-12	3.698122e+00	-1.320456e+00
1.970000e-06	5.786260e-07	1.849928e-11	4.021448e+00	-2.046658e-01
1.980000e-06	6.251082e-07	3.382377e-11	4.344499e+00	9.194144e-01
1.990000e-06	6.715617e-07	4.956181e-11	4.667351e+00	2.050527e+00
2.000000e-06	7.179280e-07	6.625231e-11	4.989596e+00	3.187366e+00
2.010000e-06	7.641974e-07	8.319702e-11	5.311168e+00	4.328583e+00
2.020000e-06	8.104383e-07	1.004495e-10	5.632542e+00	5.472795e+00
2.030000e-06	8.566725e-07	1.163651e-10	5.953869e+00	6.618593e+00
2.040000e-06	9.029312e-07	1.311908e-10	6.275368e+00	7.764547e+00
2.050000e-06	9.491098e-07	1.442062e-10	6.596308e+00	8.909219e+00
2.060000e-06	9.951316e-07	1.570930e-10	6.916160e+00	1.005117e+01
2.070000e-06	1.041091e-06	1.719274e-10	7.235574e+00	1.118895e+01
2.080000e-06	1.086985e-06	1.880779e-10	7.554537e+00	1.232116e+01
2.090000e-06	1.132777e-06	2.067825e-10	7.872796e+00	1.344638e+01
2.100000e-06	1.178420e-06	2.254372e-10	8.190013e+00	1.456324e+01
2.110000e-06	1.224013e-06	2.433730e-10	8.506887e+00	1.567043e+01
2.120000e-06	1.269616e-06	2.590572e-10	8.823823e+00	1.676664e+01
2.130000e-06	1.315095e-06	2.719501e-10	9.139902e+00	1.785065e+01
2.140000e-06	1.360478e-06	2.829227e-10	9.455314e+00	1.892129e+01
2.150000e-06	1.405749e-06	2.951221e-10	9.769949e+00	1.997744e+01
2.160000e-06	1.450902e-06	3.074873e-10	1.008376e+01	2.101808e+01
2.170000e-06	1.496009e-06	3.214782e-10	1.039726e+01	2.204223e+01
2.180000e-06	1.541004e-06	3.374656e-10	1.070997e+01	2.304903e+01
2.190000e-06	1.585847e-06	3.544227e-10	1.102163e+01	2.403768e+01
2.200000e-06	1.630615e-06	3.698993e-10	1.133276e+01	2.500748e+01
2.210000e-06	1.675309e-06	3.830139e-10	1.164339e+01	2.595781e+01
2.220000e-06	1.719839e-06	3.949595e-10	1.195288e+01	2.688815e+01
2.230000e-06	1.764215e-06	4.056273e-10	1.226128e+01	2.779806e+01
2.240000e-06	1.808435e-06	4.140547e-10	1.256862e+01	2.868722e+01
2.250000e-06	1.852529e-06	4.225430e-10	1.287507e+01	2.955538e+01
2.260000e-06	1.896546e-06	4.322843e-10	1.318098e+01	3.040238e+01
2.270000e-06	1.940467e-06	4.426228e-10	1.348624e+01	3.122816e+01
2.280000e-06	1.984349e-06	4.546797e-10	1.379121e+01	3.203274e+01
2.290000e-06	2.028171e-06	4.674077e-10	1.409578e+01	3.281624e+01
2.300000e-06	2.071900e-06	4.787185e-10	1.439969e+01	3.357883e+01
2.310000e-06	2.115531e-06	4.895592e-10	1.470293e+01	3.432077e+01
2.320000e-06	2.159079e-06	4.986986e-10	1.500559e+01	3.504239e+01
2.330000e-06	2.202496e-06	5.057638e-10	1.530734e+01	3.574409e+01
2.340000e-06	2.245758e-06	5.131053e-10	1.560800e+01	3.642632e+01
2.350000e-06	2.288942e-06	5.221187e-10	1.590813e+01	3.708958e+01
2.360000e-06	2.331955e-06	5.327878e-10	1.620708e+01	3.773442e+01
2.370000e-06	2.374580e-06	5.433104e-10	1.650332e+01	3.836143e+01
2.380000e-06	2.416872e-06	5.542886e-10	1.679725e+01	3.897123e+01
2.390000e-06	2.458897e-06	5.656384e-10	1.708933e+01	3.956447e+01
2.400000e-06	2.500611e-06	5.759680e-10	1.737923e+01	4.014181e+01
2.410000e-06	2.542083e-06	5.842954e-10	1.766747e+01	4.070392e+01
2.420000e-06	2.583341e-06	5.922151e-10	1.795421e+01	4.125150e+01
2.430000e-06	2.624324e-06	6.003667e-10	1.823904e+01	4.178521e+01
2.440000e-06	2.664995e-06	6.091705e-10	1.852170e+01	4.230573e+01
2.450000e-06	2.705433e-06	6.180041e-10	1.880274e+01	4.281373e+01
2.460000e-06	2.745691e-06	6.261055e-10	1.908254e+01	4.330984e+01
2.470000e-06	2.785743e-06	6.328696e-10	1.936090e+01	4.379468e+01
2.480000e-06	2.825634e-06	6.395917e-10	1.963814e+01	4.426883e+01
2.490000e-06	2.865401e-06	6.458247e-10	1.991453e+01	4.473286e+01
2.500000e-06	2.905034e-06	6.528133e-10	2.018998e+01	4.518728e+01
2.510000e-06	2.944543e-06	6.609572e-10	2.046456e+01	4.563257e+01
2.520000e-06	2.983847e-06	6.684090e-10	2.073772e+01	4.606916e+01
2.530000e-06	3.023017e-06	6.754488e-10	2.100995e+01	4.649746e+01
2.540000e-06	3.062090e-06	6.821896e-10	2.128151e+01	4.691782e+01
2.550000e-06	3.100911e-06	6.869868e-10	2.155132e+01	4.733053e+01
2.560000e-06	3.139441e-06	6.907453e-10	2.181910e+01	4.773585e+01
2.570000e-06	3.177680e-06	6.979309e-10	2.208486e+01	4.813399e+01
2.580000e-06	3.215661e-06	7.068149e-10	2.234883e+01	4.852512e+01
2.590000e-06	3.253438e-06	7.142175e-10	2.261138e+01	4.890936e+01
2.600000e-06	3.291017e-06	7.207675e-10	2.287255e+01	4.928680e+01
2.610000e-06	3.328429e-06	7.276779e-10	2.313256e+01	4.965747e+01
2.620000e-06	3.365677e-06	7.346264e-10	2.339144e+01	5.002139e+01
2.630000e-06	3.402667e-06	7.406317e-10	2.364852e+01	5.037851e+01
2.640000e-06	3.439362e-06	7.456024e-10	2.390355e+01	5.072879e+01
2.650000e-06	3.475790e-06	7.495442e-10	2.415672e+01	5.107214e+01
2.660000e-06	3.512012e-06	7.525869e-10	2.440846e+01	5.140846e+01
2.670000e-06	3.548052e-06	7.559061e-10	2.465895e+01	5.173761e+01
2.680000e-06	3.583917e-06	7.597219e-10	2.490820e+01	5.205947e+01
2.690000e-06	3.619641e-06	7.639477e-10	2.515648e+01	5.237388e+01
2.700000e-06	3.655251e-06	7.686759e-10	2.540398e+01	5.268069e+01
2.710000e-06	3.690726e-06	7.738864e-10	2.565053e+01	5.297974e+01
2.720000e-06	3.725992e-06	7.787592e-10	2.589563e+01	5.327089e+01
2.730000e-06	3.760920e-06	7.839637e-10	2.613838e+01	5.355397e+01
2.740000e-06	3.795416e-06	7.902372e-10	2.637812e+01	5.382887e+01
2.750000e-06	3.829471e-06	7.953003e-10	2.661481e+01	5.409545e+01
2.760000e-06	3.863071e-06	7.985865e-10	2.684832e+01	5.435362e+01
2.770000e-06	3.896169e-06	8.019311e-10	2.707836e+01	5.460328e+01
2.780000e-06	3.928812e-06	8.047878e-10	2.730523e+01	5.484437e+01
2.790000e-06	3.961136e-06	8.087502e-10	2.752988e+01	5.507686e+01
2.800000e-06	3.993239e-06	8.146808e-10	2.775299e+01	5.530074e+01
2.810000e-06	4.025180e-06	8.228428e-10	2.797498e+01	5.551602e+01
2.820000e-06	4.056965e-06	8.293799e-10	2.819589e+01	5.572274e+01
2.830000e-06	4.088519e-06	8.315623e-10	2.841519e+01	5.592100e+01
2.840000e-06	4.119820e-06	8.295368e-10	2.863273e+01	5.611088e+01
2.850000e-06	4.150908e-06	8.257170e-10	2.884879e+01	5.629253e+01
2.860000e-06	4.181707e-06	8.246528e-10	2.906284e+01	5.646611e+01
2.870000e-06	4.212106e-06	8.269739e-10	2.927411e+01	5.663181e+01
2.880000e-06	4.242210e-06	8.319308e-10	2.948334e+01	5.678985e+01
2.890000e-06	4.272120e-06	8.372769e-10	2.969121e+01	5.694047e+01
2.900000e-06	4.301743e-06	8.424535e-10	2.989709e+01	5.708395e+01
