# Temperatura_=_-0.2
# Concentracion g/m^3_=_1620.0
# C_Vs_to_Am_M_A/Vsm_=_65563218390.804596
# pendiente_HvsI_1/m_=_3716.3
# ordenada_HvsI_A/m_=_1297.0
# frecuencia_Hz_=_135106.41857272395

Tiempo_(s)	Campo_(V.s)	Magnetizacion_(V.s)	Campo_(kA/m)	Magnetizacion_(A/m)
0.000000e+00	-5.535615e-06	-9.055815e-10	-3.836076e+01	-5.985083e+01
1.000000e-08	-5.535978e-06	-9.072773e-10	-3.836327e+01	-5.986535e+01
2.000000e-08	-5.535982e-06	-9.114008e-10	-3.836330e+01	-5.987980e+01
3.000000e-08	-5.535645e-06	-9.154109e-10	-3.836097e+01	-5.989397e+01
4.000000e-08	-5.534927e-06	-9.146070e-10	-3.835599e+01	-5.990762e+01
5.000000e-08	-5.533708e-06	-9.108633e-10	-3.834755e+01	-5.992051e+01
6.000000e-08	-5.531839e-06	-9.139943e-10	-3.833460e+01	-5.993238e+01
7.000000e-08	-5.529322e-06	-9.139315e-10	-3.831715e+01	-5.994298e+01
8.000000e-08	-5.526359e-06	-8.959639e-10	-3.829662e+01	-5.995207e+01
9.000000e-08	-5.523041e-06	-8.748807e-10	-3.827363e+01	-5.995938e+01
1.000000e-07	-5.519230e-06	-8.685225e-10	-3.824722e+01	-5.996466e+01
1.100000e-07	-5.514963e-06	-8.758805e-10	-3.821765e+01	-5.996769e+01
1.200000e-07	-5.510439e-06	-9.217463e-10	-3.818629e+01	-5.996821e+01
1.300000e-07	-5.505658e-06	-9.276281e-10	-3.815316e+01	-5.996602e+01
1.400000e-07	-5.500528e-06	-8.778338e-10	-3.811761e+01	-5.996089e+01
1.500000e-07	-5.495049e-06	-8.535647e-10	-3.807964e+01	-5.995265e+01
1.600000e-07	-5.489225e-06	-8.746416e-10	-3.803929e+01	-5.994110e+01
1.700000e-07	-5.483028e-06	-9.153676e-10	-3.799634e+01	-5.992610e+01
1.800000e-07	-5.476365e-06	-8.844906e-10	-3.795017e+01	-5.990751e+01
1.900000e-07	-5.469311e-06	-8.686481e-10	-3.790129e+01	-5.988520e+01
2.000000e-07	-5.462020e-06	-9.118665e-10	-3.785076e+01	-5.985909e+01
2.100000e-07	-5.454376e-06	-9.396535e-10	-3.779779e+01	-5.982910e+01
2.200000e-07	-5.446363e-06	-9.092091e-10	-3.774226e+01	-5.979518e+01
2.300000e-07	-5.438137e-06	-8.670578e-10	-3.768526e+01	-5.975731e+01
2.400000e-07	-5.429577e-06	-8.853847e-10	-3.762593e+01	-5.971547e+01
2.500000e-07	-5.420411e-06	-9.164754e-10	-3.756242e+01	-5.966969e+01
2.600000e-07	-5.410622e-06	-9.205571e-10	-3.749458e+01	-5.962000e+01
2.700000e-07	-5.400231e-06	-9.009155e-10	-3.742257e+01	-5.956646e+01
2.800000e-07	-5.389256e-06	-8.992351e-10	-3.734652e+01	-5.950916e+01
2.900000e-07	-5.377786e-06	-8.976094e-10	-3.726703e+01	-5.944818e+01
3.000000e-07	-5.365930e-06	-8.969067e-10	-3.718488e+01	-5.938364e+01
3.100000e-07	-5.353693e-06	-8.931487e-10	-3.710007e+01	-5.931566e+01
3.200000e-07	-5.341112e-06	-9.023345e-10	-3.701289e+01	-5.924438e+01
3.300000e-07	-5.328157e-06	-9.070135e-10	-3.692311e+01	-5.916995e+01
3.400000e-07	-5.314830e-06	-9.057945e-10	-3.683076e+01	-5.909253e+01
3.500000e-07	-5.301110e-06	-8.865319e-10	-3.673568e+01	-5.901228e+01
3.600000e-07	-5.286847e-06	-8.785232e-10	-3.663684e+01	-5.892937e+01
3.700000e-07	-5.272203e-06	-8.972947e-10	-3.653537e+01	-5.884397e+01
3.800000e-07	-5.257193e-06	-8.958877e-10	-3.643134e+01	-5.875624e+01
3.900000e-07	-5.241655e-06	-8.785542e-10	-3.632367e+01	-5.866635e+01
4.000000e-07	-5.225638e-06	-8.947288e-10	-3.621268e+01	-5.857447e+01
4.100000e-07	-5.209192e-06	-9.065906e-10	-3.609871e+01	-5.848075e+01
4.200000e-07	-5.192351e-06	-8.671390e-10	-3.598200e+01	-5.838534e+01
4.300000e-07	-5.175164e-06	-8.692440e-10	-3.586290e+01	-5.828837e+01
4.400000e-07	-5.157741e-06	-9.146241e-10	-3.574216e+01	-5.818998e+01
4.500000e-07	-5.139895e-06	-8.911936e-10	-3.561850e+01	-5.809027e+01
4.600000e-07	-5.121492e-06	-8.502870e-10	-3.549096e+01	-5.798935e+01
4.700000e-07	-5.102720e-06	-9.013285e-10	-3.536088e+01	-5.788730e+01
4.800000e-07	-5.083604e-06	-9.119514e-10	-3.522841e+01	-5.778419e+01
4.900000e-07	-5.064215e-06	-8.486403e-10	-3.509405e+01	-5.768008e+01
5.000000e-07	-5.044579e-06	-8.644541e-10	-3.495797e+01	-5.757500e+01
5.100000e-07	-5.024698e-06	-9.181401e-10	-3.482020e+01	-5.746899e+01
5.200000e-07	-5.004548e-06	-8.666995e-10	-3.468057e+01	-5.736204e+01
5.300000e-07	-4.984073e-06	-8.455192e-10	-3.453868e+01	-5.725415e+01
5.400000e-07	-4.963263e-06	-8.981649e-10	-3.439447e+01	-5.714530e+01
5.500000e-07	-4.942022e-06	-8.776390e-10	-3.424727e+01	-5.703546e+01
5.600000e-07	-4.920311e-06	-8.336740e-10	-3.409682e+01	-5.692457e+01
5.700000e-07	-4.898345e-06	-8.825096e-10	-3.394460e+01	-5.681258e+01
5.800000e-07	-4.876090e-06	-8.874241e-10	-3.379038e+01	-5.669942e+01
5.900000e-07	-4.853469e-06	-8.308602e-10	-3.363361e+01	-5.658501e+01
6.000000e-07	-4.830564e-06	-8.504661e-10	-3.347489e+01	-5.646928e+01
6.100000e-07	-4.807363e-06	-8.809112e-10	-3.331411e+01	-5.635213e+01
6.200000e-07	-4.783921e-06	-8.360671e-10	-3.315166e+01	-5.623347e+01
6.300000e-07	-4.760222e-06	-8.297274e-10	-3.298743e+01	-5.611320e+01
6.400000e-07	-4.736237e-06	-8.638129e-10	-3.282122e+01	-5.599125e+01
6.500000e-07	-4.711943e-06	-8.435508e-10	-3.265287e+01	-5.586751e+01
6.600000e-07	-4.687285e-06	-8.289454e-10	-3.248199e+01	-5.574190e+01
6.700000e-07	-4.662168e-06	-8.543064e-10	-3.230794e+01	-5.561433e+01
6.800000e-07	-4.636406e-06	-8.438608e-10	-3.212941e+01	-5.548474e+01
6.900000e-07	-4.609953e-06	-8.199608e-10	-3.194610e+01	-5.535305e+01
7.000000e-07	-4.583086e-06	-8.362311e-10	-3.175991e+01	-5.521921e+01
7.100000e-07	-4.555912e-06	-8.371789e-10	-3.157161e+01	-5.508316e+01
7.200000e-07	-4.528420e-06	-8.208005e-10	-3.138109e+01	-5.494487e+01
7.300000e-07	-4.500743e-06	-8.288753e-10	-3.118929e+01	-5.480432e+01
7.400000e-07	-4.472872e-06	-8.353173e-10	-3.099615e+01	-5.466149e+01
7.500000e-07	-4.444782e-06	-8.242711e-10	-3.080149e+01	-5.451637e+01
7.600000e-07	-4.416468e-06	-8.293974e-10	-3.060529e+01	-5.436899e+01
7.700000e-07	-4.387875e-06	-8.332814e-10	-3.040714e+01	-5.421936e+01
7.800000e-07	-4.358897e-06	-8.216441e-10	-3.020633e+01	-5.406752e+01
7.900000e-07	-4.329600e-06	-8.146547e-10	-3.000330e+01	-5.391351e+01
8.000000e-07	-4.300099e-06	-8.153075e-10	-2.979887e+01	-5.375739e+01
8.100000e-07	-4.270284e-06	-8.053653e-10	-2.959226e+01	-5.359922e+01
8.200000e-07	-4.240116e-06	-8.019918e-10	-2.938320e+01	-5.343908e+01
8.300000e-07	-4.209683e-06	-8.090653e-10	-2.917230e+01	-5.327704e+01
8.400000e-07	-4.179032e-06	-8.093990e-10	-2.895990e+01	-5.311319e+01
8.500000e-07	-4.148110e-06	-8.042465e-10	-2.874562e+01	-5.294762e+01
8.600000e-07	-4.116905e-06	-8.088293e-10	-2.852937e+01	-5.278041e+01
8.700000e-07	-4.085466e-06	-8.059617e-10	-2.831151e+01	-5.261164e+01
8.800000e-07	-4.053810e-06	-7.928485e-10	-2.809213e+01	-5.244141e+01
8.900000e-07	-4.021976e-06	-7.887493e-10	-2.787153e+01	-5.226980e+01
9.000000e-07	-3.989957e-06	-7.903423e-10	-2.764964e+01	-5.209688e+01
9.100000e-07	-3.957583e-06	-7.839278e-10	-2.742529e+01	-5.192271e+01
9.200000e-07	-3.924850e-06	-7.814351e-10	-2.719846e+01	-5.174735e+01
9.300000e-07	-3.891753e-06	-7.858361e-10	-2.696911e+01	-5.157085e+01
9.400000e-07	-3.858188e-06	-7.818112e-10	-2.673651e+01	-5.139324e+01
9.500000e-07	-3.824166e-06	-7.748543e-10	-2.650074e+01	-5.121453e+01
9.600000e-07	-3.789741e-06	-7.760398e-10	-2.626219e+01	-5.103471e+01
9.700000e-07	-3.754962e-06	-7.744275e-10	-2.602117e+01	-5.085379e+01
9.800000e-07	-3.719839e-06	-7.649428e-10	-2.577778e+01	-5.067171e+01
9.900000e-07	-3.684475e-06	-7.622526e-10	-2.553271e+01	-5.048842e+01
1.000000e-06	-3.648936e-06	-7.640486e-10	-2.528643e+01	-5.030384e+01
1.010000e-06	-3.613218e-06	-7.599866e-10	-2.503891e+01	-5.011788e+01
1.020000e-06	-3.577336e-06	-7.537107e-10	-2.479026e+01	-4.993042e+01
1.030000e-06	-3.541371e-06	-7.526838e-10	-2.454103e+01	-4.974133e+01
1.040000e-06	-3.505177e-06	-7.485781e-10	-2.429021e+01	-4.955045e+01
1.050000e-06	-3.468654e-06	-7.428909e-10	-2.403711e+01	-4.935760e+01
1.060000e-06	-3.431901e-06	-7.389253e-10	-2.378242e+01	-4.916259e+01
1.070000e-06	-3.394901e-06	-7.351248e-10	-2.352602e+01	-4.896522e+01
1.080000e-06	-3.357582e-06	-7.298330e-10	-2.326741e+01	-4.876525e+01
1.090000e-06	-3.319987e-06	-7.296905e-10	-2.300688e+01	-4.856246e+01
1.100000e-06	-3.282221e-06	-7.298245e-10	-2.274517e+01	-4.835658e+01
1.110000e-06	-3.244279e-06	-7.241445e-10	-2.248224e+01	-4.814736e+01
1.120000e-06	-3.206083e-06	-7.160442e-10	-2.221755e+01	-4.793454e+01
1.130000e-06	-3.167639e-06	-7.115165e-10	-2.195113e+01	-4.771783e+01
1.140000e-06	-3.128929e-06	-7.077800e-10	-2.168288e+01	-4.749697e+01
1.150000e-06	-3.090019e-06	-7.058680e-10	-2.141325e+01	-4.727166e+01
1.160000e-06	-3.050979e-06	-7.059490e-10	-2.114271e+01	-4.704165e+01
1.170000e-06	-3.011731e-06	-7.038799e-10	-2.087073e+01	-4.680665e+01
1.180000e-06	-2.972352e-06	-6.987378e-10	-2.059784e+01	-4.656640e+01
1.190000e-06	-2.932833e-06	-6.931801e-10	-2.032397e+01	-4.632065e+01
1.200000e-06	-2.893181e-06	-6.887842e-10	-2.004919e+01	-4.606913e+01
1.210000e-06	-2.853433e-06	-6.849611e-10	-1.977375e+01	-4.581163e+01
1.220000e-06	-2.813471e-06	-6.809603e-10	-1.949682e+01	-4.554791e+01
1.230000e-06	-2.773280e-06	-6.758627e-10	-1.921830e+01	-4.527778e+01
1.240000e-06	-2.732882e-06	-6.706703e-10	-1.893835e+01	-4.500104e+01
1.250000e-06	-2.692261e-06	-6.654694e-10	-1.865686e+01	-4.471754e+01
1.260000e-06	-2.651461e-06	-6.611225e-10	-1.837412e+01	-4.442712e+01
1.270000e-06	-2.610340e-06	-6.589156e-10	-1.808916e+01	-4.412964e+01
1.280000e-06	-2.568862e-06	-6.548045e-10	-1.780173e+01	-4.382502e+01
1.290000e-06	-2.527195e-06	-6.475180e-10	-1.751298e+01	-4.351314e+01
1.300000e-06	-2.485268e-06	-6.411394e-10	-1.722243e+01	-4.319396e+01
1.310000e-06	-2.442956e-06	-6.340702e-10	-1.692922e+01	-4.286742e+01
1.320000e-06	-2.400379e-06	-6.273604e-10	-1.663417e+01	-4.253349e+01
1.330000e-06	-2.357612e-06	-6.215383e-10	-1.633780e+01	-4.219216e+01
1.340000e-06	-2.314613e-06	-6.195866e-10	-1.603983e+01	-4.184343e+01
1.350000e-06	-2.271397e-06	-6.161700e-10	-1.574035e+01	-4.148732e+01
1.360000e-06	-2.227974e-06	-6.114848e-10	-1.543943e+01	-4.112387e+01
1.370000e-06	-2.184444e-06	-6.058855e-10	-1.513778e+01	-4.075311e+01
1.380000e-06	-2.140833e-06	-5.981573e-10	-1.483557e+01	-4.037509e+01
1.390000e-06	-2.097121e-06	-5.886981e-10	-1.453265e+01	-3.998986e+01
1.400000e-06	-2.053329e-06	-5.794143e-10	-1.422918e+01	-3.959748e+01
1.410000e-06	-2.009444e-06	-5.716121e-10	-1.392507e+01	-3.919798e+01
1.420000e-06	-1.965468e-06	-5.662212e-10	-1.362032e+01	-3.879143e+01
1.430000e-06	-1.921434e-06	-5.629719e-10	-1.331517e+01	-3.837787e+01
1.440000e-06	-1.877378e-06	-5.587311e-10	-1.300987e+01	-3.795731e+01
1.450000e-06	-1.833259e-06	-5.516783e-10	-1.270414e+01	-3.752977e+01
1.460000e-06	-1.788948e-06	-5.432145e-10	-1.239707e+01	-3.709526e+01
1.470000e-06	-1.744417e-06	-5.348052e-10	-1.208848e+01	-3.665374e+01
1.480000e-06	-1.699752e-06	-5.254480e-10	-1.177896e+01	-3.620518e+01
1.490000e-06	-1.654896e-06	-5.148384e-10	-1.146811e+01	-3.574951e+01
1.500000e-06	-1.609892e-06	-5.063795e-10	-1.115625e+01	-3.528663e+01
1.510000e-06	-1.564769e-06	-5.022012e-10	-1.084355e+01	-3.481640e+01
1.520000e-06	-1.519497e-06	-4.978157e-10	-1.052982e+01	-3.433869e+01
1.530000e-06	-1.474152e-06	-4.923319e-10	-1.021559e+01	-3.385330e+01
1.540000e-06	-1.428742e-06	-4.837885e-10	-9.900907e+00	-3.336000e+01
1.550000e-06	-1.383259e-06	-4.728393e-10	-9.585722e+00	-3.285855e+01
1.560000e-06	-1.337627e-06	-4.614846e-10	-9.269503e+00	-3.234866e+01
1.570000e-06	-1.291917e-06	-4.507849e-10	-8.952736e+00	-3.183000e+01
1.580000e-06	-1.246173e-06	-4.407225e-10	-8.635744e+00	-3.130223e+01
1.590000e-06	-1.200335e-06	-4.332797e-10	-8.318096e+00	-3.076495e+01
1.600000e-06	-1.154333e-06	-4.247943e-10	-7.999307e+00	-3.021777e+01
1.610000e-06	-1.108181e-06	-4.159688e-10	-7.679486e+00	-2.966024e+01
1.620000e-06	-1.062020e-06	-4.065928e-10	-7.359596e+00	-2.909190e+01
1.630000e-06	-1.015831e-06	-3.965798e-10	-7.039518e+00	-2.851227e+01
1.640000e-06	-9.695993e-07	-3.852549e-10	-6.719139e+00	-2.792084e+01
1.650000e-06	-9.233193e-07	-3.716425e-10	-6.398427e+00	-2.731711e+01
1.660000e-06	-8.769289e-07	-3.598526e-10	-6.076950e+00	-2.670055e+01
1.670000e-06	-8.304933e-07	-3.484715e-10	-5.755161e+00	-2.607064e+01
1.680000e-06	-7.840347e-07	-3.381467e-10	-5.433212e+00	-2.542685e+01
1.690000e-06	-7.374633e-07	-3.285385e-10	-5.110480e+00	-2.476867e+01
1.700000e-06	-6.908298e-07	-3.213476e-10	-4.787319e+00	-2.409559e+01
1.710000e-06	-6.442297e-07	-3.135329e-10	-4.464389e+00	-2.340711e+01
1.720000e-06	-5.975337e-07	-3.020670e-10	-4.140795e+00	-2.270277e+01
1.730000e-06	-5.506970e-07	-2.896642e-10	-3.816226e+00	-2.198214e+01
1.740000e-06	-5.038177e-07	-2.780171e-10	-3.491361e+00	-2.124480e+01
1.750000e-06	-4.569572e-07	-2.651409e-10	-3.166626e+00	-2.049039e+01
1.760000e-06	-4.100459e-07	-2.544297e-10	-2.841540e+00	-1.971860e+01
1.770000e-06	-3.630208e-07	-2.434774e-10	-2.515665e+00	-1.892915e+01
1.780000e-06	-3.160310e-07	-2.319598e-10	-2.190035e+00	-1.812183e+01
1.790000e-06	-2.690723e-07	-2.230837e-10	-1.864620e+00	-1.729648e+01
1.800000e-06	-2.220601e-07	-2.118022e-10	-1.538834e+00	-1.645302e+01
1.810000e-06	-1.750347e-07	-1.974127e-10	-1.212957e+00	-1.559142e+01
1.820000e-06	-1.280396e-07	-1.815271e-10	-8.872903e-01	-1.471174e+01
1.830000e-06	-8.106091e-08	-1.665796e-10	-5.617367e-01	-1.381411e+01
1.840000e-06	-3.401503e-08	-1.524876e-10	-2.357177e-01	-1.289872e+01
1.850000e-06	1.302448e-08	-1.385068e-10	9.025720e-02	-1.196586e+01
1.860000e-06	5.999711e-08	-1.284590e-10	4.157686e-01	-1.101590e+01
1.870000e-06	1.069238e-07	-1.178762e-10	7.409615e-01	-1.004928e+01
1.880000e-06	1.537921e-07	-1.062772e-10	1.065750e+00	-9.066537e+00
1.890000e-06	2.007502e-07	-9.475370e-11	1.391161e+00	-8.068273e+00
1.900000e-06	2.478136e-07	-8.114283e-11	1.717301e+00	-7.055180e+00
1.910000e-06	2.948536e-07	-6.626484e-11	2.043279e+00	-6.028027e+00
1.920000e-06	3.418159e-07	-4.970534e-11	2.368719e+00	-4.987657e+00
1.930000e-06	3.887245e-07	-3.512756e-11	2.693787e+00	-3.934987e+00
1.940000e-06	4.355615e-07	-2.037425e-11	3.018359e+00	-2.871001e+00
1.950000e-06	4.823096e-07	-8.487821e-12	3.342314e+00	-1.796749e+00
1.960000e-06	5.289740e-07	1.402932e-12	3.665689e+00	-7.133419e-01
1.970000e-06	5.755979e-07	1.347591e-11	3.988784e+00	3.780582e-01
1.980000e-06	6.222617e-07	2.865060e-11	4.312155e+00	1.476239e+00
1.990000e-06	6.689506e-07	4.582272e-11	4.635701e+00	2.579946e+00
2.000000e-06	7.155967e-07	6.570328e-11	4.958949e+00	3.687890e+00
2.010000e-06	7.621083e-07	8.633315e-11	5.281266e+00	4.798754e+00
2.020000e-06	8.085282e-07	1.043928e-10	5.602947e+00	5.911197e+00
2.030000e-06	8.548751e-07	1.195345e-10	5.924122e+00	7.023868e+00
2.040000e-06	9.010963e-07	1.337542e-10	6.244426e+00	8.135407e+00
2.050000e-06	9.472526e-07	1.459058e-10	6.564280e+00	9.244457e+00
2.060000e-06	9.934288e-07	1.578191e-10	6.884273e+00	1.034967e+01
2.070000e-06	1.039577e-06	1.722665e-10	7.204071e+00	1.144971e+01
2.080000e-06	1.085662e-06	1.896383e-10	7.523434e+00	1.254328e+01
2.090000e-06	1.131722e-06	2.087233e-10	7.842617e+00	1.362909e+01
2.100000e-06	1.177643e-06	2.273507e-10	8.160842e+00	1.470591e+01
2.110000e-06	1.223402e-06	2.444660e-10	8.477942e+00	1.577256e+01
2.120000e-06	1.269065e-06	2.587726e-10	8.794380e+00	1.682787e+01
2.130000e-06	1.314694e-06	2.720914e-10	9.110576e+00	1.787078e+01
2.140000e-06	1.360300e-06	2.833871e-10	9.426617e+00	1.890027e+01
2.150000e-06	1.405840e-06	2.942596e-10	9.742203e+00	1.991537e+01
2.160000e-06	1.451324e-06	3.070036e-10	1.005740e+01	2.091521e+01
2.170000e-06	1.496725e-06	3.215423e-10	1.037202e+01	2.189898e+01
2.180000e-06	1.541893e-06	3.360746e-10	1.068502e+01	2.286595e+01
2.190000e-06	1.586830e-06	3.501456e-10	1.099643e+01	2.381549e+01
2.200000e-06	1.631679e-06	3.640981e-10	1.130723e+01	2.474703e+01
2.210000e-06	1.676463e-06	3.772063e-10	1.161757e+01	2.566008e+01
2.220000e-06	1.721144e-06	3.904412e-10	1.192720e+01	2.655427e+01
2.230000e-06	1.765689e-06	4.039885e-10	1.223589e+01	2.742927e+01
2.240000e-06	1.810107e-06	4.140536e-10	1.254370e+01	2.828486e+01
2.250000e-06	1.854348e-06	4.225327e-10	1.285028e+01	2.912091e+01
2.260000e-06	1.898467e-06	4.329666e-10	1.315602e+01	2.993734e+01
2.270000e-06	1.942459e-06	4.445142e-10	1.346087e+01	3.073417e+01
2.280000e-06	1.986317e-06	4.545389e-10	1.376480e+01	3.151149e+01
2.290000e-06	2.030172e-06	4.640538e-10	1.406871e+01	3.226947e+01
2.300000e-06	2.073988e-06	4.724828e-10	1.437234e+01	3.300831e+01
2.310000e-06	2.117709e-06	4.825637e-10	1.467532e+01	3.372832e+01
2.320000e-06	2.161359e-06	4.960548e-10	1.497780e+01	3.442982e+01
2.330000e-06	2.204952e-06	5.076658e-10	1.527990e+01	3.511323e+01
2.340000e-06	2.248424e-06	5.146890e-10	1.558115e+01	3.577896e+01
2.350000e-06	2.291750e-06	5.202189e-10	1.588139e+01	3.642751e+01
2.360000e-06	2.334903e-06	5.265270e-10	1.618043e+01	3.705938e+01
2.370000e-06	2.377756e-06	5.341063e-10	1.647739e+01	3.767512e+01
2.380000e-06	2.420355e-06	5.426294e-10	1.677260e+01	3.827527e+01
2.390000e-06	2.462809e-06	5.518884e-10	1.706680e+01	3.886043e+01
2.400000e-06	2.505044e-06	5.627308e-10	1.735948e+01	3.943116e+01
2.410000e-06	2.546901e-06	5.736544e-10	1.764954e+01	3.998807e+01
2.420000e-06	2.588392e-06	5.836997e-10	1.793706e+01	4.053173e+01
2.430000e-06	2.629671e-06	5.926639e-10	1.822312e+01	4.106273e+01
2.440000e-06	2.670692e-06	5.998867e-10	1.850739e+01	4.158162e+01
2.450000e-06	2.711390e-06	6.069335e-10	1.878942e+01	4.208897e+01
2.460000e-06	2.751832e-06	6.142527e-10	1.906967e+01	4.258529e+01
2.470000e-06	2.792091e-06	6.210390e-10	1.934866e+01	4.307109e+01
2.480000e-06	2.832138e-06	6.286507e-10	1.962617e+01	4.354684e+01
2.490000e-06	2.872002e-06	6.361968e-10	1.990243e+01	4.401298e+01
2.500000e-06	2.911753e-06	6.442682e-10	2.017789e+01	4.446992e+01
2.510000e-06	2.951393e-06	6.521610e-10	2.045259e+01	4.491803e+01
2.520000e-06	2.990879e-06	6.581930e-10	2.072623e+01	4.535764e+01
2.530000e-06	3.030148e-06	6.646999e-10	2.099835e+01	4.578904e+01
2.540000e-06	3.069205e-06	6.711431e-10	2.126901e+01	4.621250e+01
2.550000e-06	3.108060e-06	6.743164e-10	2.153826e+01	4.662822e+01
2.560000e-06	3.146700e-06	6.777400e-10	2.180603e+01	4.703639e+01
2.570000e-06	3.185094e-06	6.829329e-10	2.207210e+01	4.743714e+01
2.580000e-06	3.223208e-06	6.862647e-10	2.233622e+01	4.783059e+01
2.590000e-06	3.261131e-06	6.885728e-10	2.259901e+01	4.821679e+01
2.600000e-06	3.298922e-06	6.940734e-10	2.286090e+01	4.859578e+01
2.610000e-06	3.336485e-06	7.010784e-10	2.312120e+01	4.896758e+01
2.620000e-06	3.373832e-06	7.084734e-10	2.338001e+01	4.933217e+01
2.630000e-06	3.410984e-06	7.157364e-10	2.363747e+01	4.968950e+01
2.640000e-06	3.447916e-06	7.199853e-10	2.389340e+01	5.003952e+01
2.650000e-06	3.484614e-06	7.212496e-10	2.414771e+01	5.038214e+01
2.660000e-06	3.520989e-06	7.225192e-10	2.439979e+01	5.071727e+01
2.670000e-06	3.557060e-06	7.251834e-10	2.464975e+01	5.104482e+01
2.680000e-06	3.592943e-06	7.280562e-10	2.489841e+01	5.136467e+01
2.690000e-06	3.628725e-06	7.316608e-10	2.514637e+01	5.167671e+01
2.700000e-06	3.664382e-06	7.378298e-10	2.539347e+01	5.198084e+01
2.710000e-06	3.699889e-06	7.461618e-10	2.563953e+01	5.227696e+01
2.720000e-06	3.735202e-06	7.534506e-10	2.588424e+01	5.256496e+01
2.730000e-06	3.770278e-06	7.604032e-10	2.612731e+01	5.284477e+01
2.740000e-06	3.805175e-06	7.661028e-10	2.636914e+01	5.311631e+01
2.750000e-06	3.839629e-06	7.684221e-10	2.660790e+01	5.337953e+01
2.760000e-06	3.873441e-06	7.692528e-10	2.684221e+01	5.363440e+01
2.770000e-06	3.906758e-06	7.711075e-10	2.707309e+01	5.388089e+01
2.780000e-06	3.939718e-06	7.739636e-10	2.730149e+01	5.411903e+01
2.790000e-06	3.972339e-06	7.782648e-10	2.752755e+01	5.434884e+01
2.800000e-06	4.004589e-06	7.845824e-10	2.775104e+01	5.457037e+01
2.810000e-06	4.036534e-06	7.920445e-10	2.797241e+01	5.478372e+01
2.820000e-06	4.068246e-06	7.987462e-10	2.819217e+01	5.498898e+01
2.830000e-06	4.099788e-06	8.029667e-10	2.841075e+01	5.518630e+01
2.840000e-06	4.131176e-06	8.038271e-10	2.862826e+01	5.537582e+01
2.850000e-06	4.162373e-06	8.023255e-10	2.884445e+01	5.555773e+01
2.860000e-06	4.193262e-06	8.013161e-10	2.905851e+01	5.573223e+01
2.870000e-06	4.223851e-06	8.010522e-10	2.927049e+01	5.589955e+01
2.880000e-06	4.254167e-06	8.017554e-10	2.948057e+01	5.605994e+01
2.890000e-06	4.284141e-06	8.068972e-10	2.968828e+01	5.621364e+01
2.900000e-06	4.313779e-06	8.145285e-10	2.989367e+01	5.636095e+01
