# Temperatura_=_7.73
# Concentracion g/m^3_=_1620.0
# C_Vs_to_Am_M_A/Vsm_=_65563218390.804596
# pendiente_HvsI_1/m_=_3716.3
# ordenada_HvsI_A/m_=_1297.0
# frecuencia_Hz_=_135105.57006294702

Tiempo_(s)	Campo_(V.s)	Magnetizacion_(V.s)	Campo_(kA/m)	Magnetizacion_(A/m)
0.000000e+00	-5.529411e-06	-7.719009e-10	-3.837654e+01	-5.050360e+01
1.000000e-08	-5.529663e-06	-7.729065e-10	-3.837829e+01	-5.051233e+01
2.000000e-08	-5.529634e-06	-7.768533e-10	-3.837809e+01	-5.052197e+01
3.000000e-08	-5.529071e-06	-7.798885e-10	-3.837418e+01	-5.053243e+01
4.000000e-08	-5.527858e-06	-7.795482e-10	-3.836576e+01	-5.054359e+01
5.000000e-08	-5.526157e-06	-7.736146e-10	-3.835396e+01	-5.055534e+01
6.000000e-08	-5.524025e-06	-7.531581e-10	-3.833916e+01	-5.056754e+01
7.000000e-08	-5.521301e-06	-7.271242e-10	-3.832026e+01	-5.058005e+01
8.000000e-08	-5.518046e-06	-7.749162e-10	-3.829766e+01	-5.059271e+01
9.000000e-08	-5.514330e-06	-8.787664e-10	-3.827187e+01	-5.060535e+01
1.000000e-07	-5.510073e-06	-8.402461e-10	-3.824233e+01	-5.061781e+01
1.100000e-07	-5.505571e-06	-6.844917e-10	-3.821108e+01	-5.062991e+01
1.200000e-07	-5.501004e-06	-6.835316e-10	-3.817938e+01	-5.064147e+01
1.300000e-07	-5.496141e-06	-8.020928e-10	-3.814563e+01	-5.065231e+01
1.400000e-07	-5.490850e-06	-8.259028e-10	-3.810891e+01	-5.066224e+01
1.500000e-07	-5.485178e-06	-6.667785e-10	-3.806955e+01	-5.067109e+01
1.600000e-07	-5.479252e-06	-6.645874e-10	-3.802841e+01	-5.067866e+01
1.700000e-07	-5.472950e-06	-8.152939e-10	-3.798468e+01	-5.068479e+01
1.800000e-07	-5.466078e-06	-8.614531e-10	-3.793699e+01	-5.068929e+01
1.900000e-07	-5.458840e-06	-7.414976e-10	-3.788674e+01	-5.069201e+01
2.000000e-07	-5.451405e-06	-7.014823e-10	-3.783514e+01	-5.069278e+01
2.100000e-07	-5.443650e-06	-7.990357e-10	-3.778132e+01	-5.069145e+01
2.200000e-07	-5.435598e-06	-8.478518e-10	-3.772544e+01	-5.068787e+01
2.300000e-07	-5.427226e-06	-7.864512e-10	-3.766733e+01	-5.068191e+01
2.400000e-07	-5.418351e-06	-7.515365e-10	-3.760574e+01	-5.067346e+01
2.500000e-07	-5.408666e-06	-8.114900e-10	-3.753852e+01	-5.066238e+01
2.600000e-07	-5.398234e-06	-8.305745e-10	-3.746611e+01	-5.064859e+01
2.700000e-07	-5.387341e-06	-7.936780e-10	-3.739051e+01	-5.063200e+01
2.800000e-07	-5.376048e-06	-7.676552e-10	-3.731213e+01	-5.061252e+01
2.900000e-07	-5.364366e-06	-8.154437e-10	-3.723105e+01	-5.059008e+01
3.000000e-07	-5.352317e-06	-8.216018e-10	-3.714743e+01	-5.056464e+01
3.100000e-07	-5.339901e-06	-7.818234e-10	-3.706126e+01	-5.053614e+01
3.200000e-07	-5.327002e-06	-7.464448e-10	-3.697173e+01	-5.050456e+01
3.300000e-07	-5.313702e-06	-7.997627e-10	-3.687942e+01	-5.046988e+01
3.400000e-07	-5.300157e-06	-8.108672e-10	-3.678542e+01	-5.043207e+01
3.500000e-07	-5.286099e-06	-7.572558e-10	-3.668785e+01	-5.039113e+01
3.600000e-07	-5.271347e-06	-7.508070e-10	-3.658546e+01	-5.034708e+01
3.700000e-07	-5.256333e-06	-8.232251e-10	-3.648126e+01	-5.029993e+01
3.800000e-07	-5.241084e-06	-7.876882e-10	-3.637543e+01	-5.024969e+01
3.900000e-07	-5.225229e-06	-7.385912e-10	-3.626538e+01	-5.019639e+01
4.000000e-07	-5.208918e-06	-8.129392e-10	-3.615218e+01	-5.014007e+01
4.100000e-07	-5.192284e-06	-8.309499e-10	-3.603673e+01	-5.008077e+01
4.200000e-07	-5.175219e-06	-7.086795e-10	-3.591829e+01	-5.001853e+01
4.300000e-07	-5.157803e-06	-7.331733e-10	-3.579742e+01	-4.995339e+01
4.400000e-07	-5.140052e-06	-8.537202e-10	-3.567422e+01	-4.988541e+01
4.500000e-07	-5.121806e-06	-7.738224e-10	-3.554758e+01	-4.981463e+01
4.600000e-07	-5.103092e-06	-6.968784e-10	-3.541770e+01	-4.974112e+01
4.700000e-07	-5.084117e-06	-8.169730e-10	-3.528600e+01	-4.966492e+01
4.800000e-07	-5.064908e-06	-8.271330e-10	-3.515268e+01	-4.958609e+01
4.900000e-07	-5.045408e-06	-7.041568e-10	-3.501735e+01	-4.950469e+01
5.000000e-07	-5.025702e-06	-7.666262e-10	-3.488058e+01	-4.942077e+01
5.100000e-07	-5.005791e-06	-8.283725e-10	-3.474239e+01	-4.933439e+01
5.200000e-07	-4.985499e-06	-7.139240e-10	-3.460156e+01	-4.924560e+01
5.300000e-07	-4.964816e-06	-7.214442e-10	-3.445800e+01	-4.915446e+01
5.400000e-07	-4.943770e-06	-8.435254e-10	-3.431194e+01	-4.906102e+01
5.500000e-07	-4.922365e-06	-7.675611e-10	-3.416338e+01	-4.896533e+01
5.600000e-07	-4.900647e-06	-6.974700e-10	-3.401264e+01	-4.886745e+01
5.700000e-07	-4.878646e-06	-7.953440e-10	-3.385995e+01	-4.876742e+01
5.800000e-07	-4.856221e-06	-7.929359e-10	-3.370431e+01	-4.866531e+01
5.900000e-07	-4.833280e-06	-6.989713e-10	-3.354509e+01	-4.856117e+01
6.000000e-07	-4.810075e-06	-7.555921e-10	-3.338403e+01	-4.845504e+01
6.100000e-07	-4.786706e-06	-7.901333e-10	-3.322184e+01	-4.834699e+01
6.200000e-07	-4.763142e-06	-7.148936e-10	-3.305830e+01	-4.823706e+01
6.300000e-07	-4.739384e-06	-7.217602e-10	-3.289341e+01	-4.812532e+01
6.400000e-07	-4.715267e-06	-7.701999e-10	-3.272603e+01	-4.801182e+01
6.500000e-07	-4.690634e-06	-7.250534e-10	-3.255506e+01	-4.789662e+01
6.600000e-07	-4.665599e-06	-7.188086e-10	-3.238130e+01	-4.777979e+01
6.700000e-07	-4.640097e-06	-7.622004e-10	-3.220431e+01	-4.766140e+01
6.800000e-07	-4.614062e-06	-7.382532e-10	-3.202362e+01	-4.754150e+01
6.900000e-07	-4.587496e-06	-7.143760e-10	-3.183924e+01	-4.742018e+01
7.000000e-07	-4.560422e-06	-7.452050e-10	-3.165133e+01	-4.729751e+01
7.100000e-07	-4.533071e-06	-7.322234e-10	-3.146150e+01	-4.717355e+01
7.200000e-07	-4.505554e-06	-7.033197e-10	-3.127052e+01	-4.704841e+01
7.300000e-07	-4.477875e-06	-7.173227e-10	-3.107842e+01	-4.692214e+01
7.400000e-07	-4.449989e-06	-7.213324e-10	-3.088488e+01	-4.679485e+01
7.500000e-07	-4.421773e-06	-7.085303e-10	-3.068905e+01	-4.666661e+01
7.600000e-07	-4.393228e-06	-7.239395e-10	-3.049093e+01	-4.653752e+01
7.700000e-07	-4.364402e-06	-7.295691e-10	-3.029087e+01	-4.640766e+01
7.800000e-07	-4.335268e-06	-7.105258e-10	-3.008866e+01	-4.627711e+01
7.900000e-07	-4.305866e-06	-7.158468e-10	-2.988460e+01	-4.614598e+01
8.000000e-07	-4.276192e-06	-7.213550e-10	-2.967865e+01	-4.601433e+01
8.100000e-07	-4.246225e-06	-7.008866e-10	-2.947067e+01	-4.588226e+01
8.200000e-07	-4.215916e-06	-6.961885e-10	-2.926031e+01	-4.574985e+01
8.300000e-07	-4.185289e-06	-7.157528e-10	-2.904775e+01	-4.561717e+01
8.400000e-07	-4.154444e-06	-7.105723e-10	-2.883366e+01	-4.548428e+01
8.500000e-07	-4.123432e-06	-7.026952e-10	-2.861843e+01	-4.535127e+01
8.600000e-07	-4.092195e-06	-7.148665e-10	-2.840163e+01	-4.521817e+01
8.700000e-07	-4.060681e-06	-7.132445e-10	-2.818291e+01	-4.508503e+01
8.800000e-07	-4.028982e-06	-6.938511e-10	-2.796291e+01	-4.495190e+01
8.900000e-07	-3.997101e-06	-6.968703e-10	-2.774163e+01	-4.481880e+01
9.000000e-07	-3.964972e-06	-6.999336e-10	-2.751865e+01	-4.468574e+01
9.100000e-07	-3.932438e-06	-6.842463e-10	-2.729284e+01	-4.455272e+01
9.200000e-07	-3.899471e-06	-6.798357e-10	-2.706404e+01	-4.441974e+01
9.300000e-07	-3.866134e-06	-6.935965e-10	-2.683267e+01	-4.428676e+01
9.400000e-07	-3.832317e-06	-6.865142e-10	-2.659796e+01	-4.415374e+01
9.500000e-07	-3.798007e-06	-6.788881e-10	-2.635984e+01	-4.402062e+01
9.600000e-07	-3.763269e-06	-6.889984e-10	-2.611874e+01	-4.388734e+01
9.700000e-07	-3.728216e-06	-6.909139e-10	-2.587546e+01	-4.375380e+01
9.800000e-07	-3.692996e-06	-6.778512e-10	-2.563101e+01	-4.361988e+01
9.900000e-07	-3.657610e-06	-6.776344e-10	-2.538542e+01	-4.348548e+01
1.000000e-06	-3.622008e-06	-6.791012e-10	-2.513832e+01	-4.335045e+01
1.010000e-06	-3.586275e-06	-6.659943e-10	-2.489032e+01	-4.321463e+01
1.020000e-06	-3.550398e-06	-6.585520e-10	-2.464132e+01	-4.307785e+01
1.030000e-06	-3.514258e-06	-6.634370e-10	-2.439049e+01	-4.293992e+01
1.040000e-06	-3.477892e-06	-6.610319e-10	-2.413810e+01	-4.280065e+01
1.050000e-06	-3.441308e-06	-6.547347e-10	-2.388419e+01	-4.265982e+01
1.060000e-06	-3.404442e-06	-6.553641e-10	-2.362832e+01	-4.251721e+01
1.070000e-06	-3.367228e-06	-6.530032e-10	-2.337004e+01	-4.237257e+01
1.080000e-06	-3.329783e-06	-6.471117e-10	-2.311016e+01	-4.222566e+01
1.090000e-06	-3.292137e-06	-6.474620e-10	-2.284888e+01	-4.207623e+01
1.100000e-06	-3.254206e-06	-6.471678e-10	-2.258562e+01	-4.192402e+01
1.110000e-06	-3.216049e-06	-6.373614e-10	-2.232080e+01	-4.176875e+01
1.120000e-06	-3.177737e-06	-6.313952e-10	-2.205489e+01	-4.161017e+01
1.130000e-06	-3.139285e-06	-6.306040e-10	-2.178801e+01	-4.144800e+01
1.140000e-06	-3.100568e-06	-6.264001e-10	-2.151930e+01	-4.128196e+01
1.150000e-06	-3.061574e-06	-6.191297e-10	-2.124867e+01	-4.111180e+01
1.160000e-06	-3.022431e-06	-6.177395e-10	-2.097700e+01	-4.093725e+01
1.170000e-06	-2.983130e-06	-6.170528e-10	-2.070424e+01	-4.075805e+01
1.180000e-06	-2.943671e-06	-6.144000e-10	-2.043037e+01	-4.057394e+01
1.190000e-06	-2.904124e-06	-6.130771e-10	-2.015590e+01	-4.038469e+01
1.200000e-06	-2.864476e-06	-6.119403e-10	-1.988072e+01	-4.019006e+01
1.210000e-06	-2.824626e-06	-6.052977e-10	-1.960415e+01	-3.998983e+01
1.220000e-06	-2.784584e-06	-5.972739e-10	-1.932624e+01	-3.978379e+01
1.230000e-06	-2.744373e-06	-5.906814e-10	-1.904716e+01	-3.957173e+01
1.240000e-06	-2.703943e-06	-5.865252e-10	-1.876656e+01	-3.935349e+01
1.250000e-06	-2.663279e-06	-5.837838e-10	-1.848433e+01	-3.912890e+01
1.260000e-06	-2.622458e-06	-5.868803e-10	-1.820101e+01	-3.889779e+01
1.270000e-06	-2.581356e-06	-5.877408e-10	-1.791574e+01	-3.866004e+01
1.280000e-06	-2.539827e-06	-5.836597e-10	-1.762751e+01	-3.841552e+01
1.290000e-06	-2.498024e-06	-5.766549e-10	-1.733738e+01	-3.816413e+01
1.300000e-06	-2.455818e-06	-5.684816e-10	-1.704446e+01	-3.790577e+01
1.310000e-06	-2.413233e-06	-5.603217e-10	-1.674890e+01	-3.764037e+01
1.320000e-06	-2.370472e-06	-5.528280e-10	-1.645212e+01	-3.736785e+01
1.330000e-06	-2.327511e-06	-5.498488e-10	-1.615395e+01	-3.708818e+01
1.340000e-06	-2.284360e-06	-5.494515e-10	-1.585446e+01	-3.680130e+01
1.350000e-06	-2.241067e-06	-5.484358e-10	-1.555399e+01	-3.650718e+01
1.360000e-06	-2.197650e-06	-5.457077e-10	-1.525266e+01	-3.620579e+01
1.370000e-06	-2.154153e-06	-5.418222e-10	-1.495077e+01	-3.589711e+01
1.380000e-06	-2.110539e-06	-5.369724e-10	-1.464807e+01	-3.558113e+01
1.390000e-06	-2.066783e-06	-5.320714e-10	-1.434438e+01	-3.525782e+01
1.400000e-06	-2.022990e-06	-5.265320e-10	-1.404044e+01	-3.492717e+01
1.410000e-06	-1.979129e-06	-5.201602e-10	-1.373603e+01	-3.458916e+01
1.420000e-06	-1.935197e-06	-5.139701e-10	-1.343112e+01	-3.424376e+01
1.430000e-06	-1.891201e-06	-5.099326e-10	-1.312576e+01	-3.389094e+01
1.440000e-06	-1.847089e-06	-5.044312e-10	-1.281961e+01	-3.353065e+01
1.450000e-06	-1.802838e-06	-4.989925e-10	-1.251248e+01	-3.316284e+01
1.460000e-06	-1.758395e-06	-4.928374e-10	-1.220404e+01	-3.278744e+01
1.470000e-06	-1.713830e-06	-4.845561e-10	-1.189473e+01	-3.240436e+01
1.480000e-06	-1.669151e-06	-4.741640e-10	-1.158464e+01	-3.201351e+01
1.490000e-06	-1.624310e-06	-4.663060e-10	-1.127342e+01	-3.161475e+01
1.500000e-06	-1.579282e-06	-4.602295e-10	-1.096091e+01	-3.120795e+01
1.510000e-06	-1.534124e-06	-4.519190e-10	-1.064749e+01	-3.079293e+01
1.520000e-06	-1.488914e-06	-4.414862e-10	-1.033372e+01	-3.036953e+01
1.530000e-06	-1.443634e-06	-4.305206e-10	-1.001945e+01	-2.993751e+01
1.540000e-06	-1.398280e-06	-4.207316e-10	-9.704680e+00	-2.949666e+01
1.550000e-06	-1.352794e-06	-4.129702e-10	-9.388985e+00	-2.904670e+01
1.560000e-06	-1.307179e-06	-4.069046e-10	-9.072396e+00	-2.858738e+01
1.570000e-06	-1.261466e-06	-3.997982e-10	-8.755130e+00	-2.811837e+01
1.580000e-06	-1.215712e-06	-3.921536e-10	-8.437578e+00	-2.763936e+01
1.590000e-06	-1.169912e-06	-3.846087e-10	-8.119706e+00	-2.715001e+01
1.600000e-06	-1.124020e-06	-3.758797e-10	-7.801190e+00	-2.664995e+01
1.610000e-06	-1.078059e-06	-3.660285e-10	-7.482203e+00	-2.613882e+01
1.620000e-06	-1.032018e-06	-3.550310e-10	-7.162657e+00	-2.561622e+01
1.630000e-06	-9.858629e-07	-3.435826e-10	-6.842322e+00	-2.508175e+01
1.640000e-06	-9.395678e-07	-3.305691e-10	-6.521014e+00	-2.453501e+01
1.650000e-06	-8.932194e-07	-3.185190e-10	-6.199335e+00	-2.397559e+01
1.660000e-06	-8.469023e-07	-3.100072e-10	-5.877874e+00	-2.340307e+01
1.670000e-06	-8.005628e-07	-3.031259e-10	-5.556257e+00	-2.281706e+01
1.680000e-06	-7.541458e-07	-2.959302e-10	-5.234103e+00	-2.221716e+01
1.690000e-06	-7.076115e-07	-2.916505e-10	-4.911134e+00	-2.160298e+01
1.700000e-06	-6.610535e-07	-2.860871e-10	-4.588002e+00	-2.097415e+01
1.710000e-06	-6.145767e-07	-2.751529e-10	-4.265432e+00	-2.033032e+01
1.720000e-06	-5.679927e-07	-2.618027e-10	-3.942119e+00	-1.967119e+01
1.730000e-06	-5.212622e-07	-2.471630e-10	-3.617789e+00	-1.899644e+01
1.740000e-06	-4.745038e-07	-2.338567e-10	-3.293265e+00	-1.830584e+01
1.750000e-06	-4.276914e-07	-2.237273e-10	-2.968366e+00	-1.759916e+01
1.760000e-06	-3.808501e-07	-2.160768e-10	-2.643267e+00	-1.687623e+01
1.770000e-06	-3.339741e-07	-2.078477e-10	-2.317927e+00	-1.613692e+01
1.780000e-06	-2.870416e-07	-1.997151e-10	-1.992195e+00	-1.538117e+01
1.790000e-06	-2.400998e-07	-1.888544e-10	-1.666398e+00	-1.460894e+01
1.800000e-06	-1.931682e-07	-1.734558e-10	-1.340672e+00	-1.382030e+01
1.810000e-06	-1.462232e-07	-1.559284e-10	-1.014853e+00	-1.301533e+01
1.820000e-06	-9.924116e-08	-1.397330e-10	-6.887773e-01	-1.219420e+01
1.830000e-06	-5.225512e-08	-1.266707e-10	-3.626735e-01	-1.135715e+01
1.840000e-06	-5.252124e-09	-1.155974e-10	-3.645205e-02	-1.050448e+01
1.850000e-06	4.167880e-08	-1.067406e-10	2.892692e-01	-9.636562e+00
1.860000e-06	8.855483e-08	-9.900683e-11	6.146094e-01	-8.753832e+00
1.870000e-06	1.354810e-07	-8.875344e-11	9.402975e-01	-7.856805e+00
1.880000e-06	1.823723e-07	-7.578932e-11	1.265744e+00	-6.946063e+00
1.890000e-06	2.292535e-07	-6.101605e-11	1.591120e+00	-6.022259e+00
1.900000e-06	2.760878e-07	-4.582406e-11	1.916171e+00	-5.086113e+00
1.910000e-06	3.228547e-07	-3.142383e-11	2.240753e+00	-4.138413e+00
1.920000e-06	3.697071e-07	-1.918104e-11	2.565930e+00	-3.180010e+00
1.930000e-06	4.165989e-07	-7.767141e-12	2.891379e+00	-2.211817e+00
1.940000e-06	4.633980e-07	1.952262e-12	3.216186e+00	-1.234805e+00
1.950000e-06	5.101202e-07	1.066305e-11	3.540458e+00	-2.499978e-01
1.960000e-06	5.568018e-07	2.160285e-11	3.864449e+00	7.415295e-01
1.970000e-06	6.034437e-07	3.547569e-11	4.188165e+00	1.738658e+00
1.980000e-06	6.500000e-07	5.111136e-11	4.511285e+00	2.740228e+00
1.990000e-06	6.964793e-07	6.714119e-11	4.833872e+00	3.745046e+00
2.000000e-06	7.429441e-07	8.267534e-11	5.156359e+00	4.751891e+00
2.010000e-06	7.894147e-07	9.497906e-11	5.478885e+00	5.759518e+00
2.020000e-06	8.358344e-07	1.038980e-10	5.801058e+00	6.766667e+00
2.030000e-06	8.821146e-07	1.144890e-10	6.122263e+00	7.772068e+00
2.040000e-06	9.283308e-07	1.275268e-10	6.443024e+00	8.774450e+00
2.050000e-06	9.745235e-07	1.409212e-10	6.763621e+00	9.772543e+00
2.060000e-06	1.020572e-06	1.560480e-10	7.083221e+00	1.076509e+01
2.070000e-06	1.066516e-06	1.718784e-10	7.402092e+00	1.175085e+01
2.080000e-06	1.112382e-06	1.854749e-10	7.720420e+00	1.272860e+01
2.090000e-06	1.158139e-06	1.970757e-10	8.037996e+00	1.369717e+01
2.100000e-06	1.203824e-06	2.088432e-10	8.355070e+00	1.465539e+01
2.110000e-06	1.249462e-06	2.213211e-10	8.671813e+00	1.560217e+01
2.120000e-06	1.295025e-06	2.351890e-10	8.988046e+00	1.653643e+01
2.130000e-06	1.340483e-06	2.496600e-10	9.303538e+00	1.745719e+01
2.140000e-06	1.385854e-06	2.618786e-10	9.618437e+00	1.836348e+01
2.150000e-06	1.431136e-06	2.723000e-10	9.932712e+00	1.925442e+01
2.160000e-06	1.476335e-06	2.826539e-10	1.024641e+01	2.012921e+01
2.170000e-06	1.521519e-06	2.930967e-10	1.056001e+01	2.098708e+01
2.180000e-06	1.566602e-06	3.036411e-10	1.087291e+01	2.182738e+01
2.190000e-06	1.611480e-06	3.135439e-10	1.118438e+01	2.264949e+01
2.200000e-06	1.656215e-06	3.234326e-10	1.149486e+01	2.345291e+01
2.210000e-06	1.700839e-06	3.340271e-10	1.180457e+01	2.423719e+01
2.220000e-06	1.745292e-06	3.458633e-10	1.211310e+01	2.500198e+01
2.230000e-06	1.789636e-06	3.571878e-10	1.242086e+01	2.574700e+01
2.240000e-06	1.833895e-06	3.681293e-10	1.272804e+01	2.647204e+01
2.250000e-06	1.877972e-06	3.785305e-10	1.303395e+01	2.717700e+01
2.260000e-06	1.921954e-06	3.867709e-10	1.333921e+01	2.786183e+01
2.270000e-06	1.965835e-06	3.937852e-10	1.364376e+01	2.852657e+01
2.280000e-06	2.009589e-06	4.010402e-10	1.394743e+01	2.917132e+01
2.290000e-06	2.053286e-06	4.089737e-10	1.425071e+01	2.979626e+01
2.300000e-06	2.096975e-06	4.175919e-10	1.455393e+01	3.040164e+01
2.310000e-06	2.140600e-06	4.272948e-10	1.485670e+01	3.098777e+01
2.320000e-06	2.184153e-06	4.366834e-10	1.515898e+01	3.155500e+01
2.330000e-06	2.227623e-06	4.432738e-10	1.546068e+01	3.210377e+01
2.340000e-06	2.270947e-06	4.493559e-10	1.576137e+01	3.263455e+01
2.350000e-06	2.314108e-06	4.562563e-10	1.606092e+01	3.314784e+01
2.360000e-06	2.357007e-06	4.610671e-10	1.635866e+01	3.364419e+01
2.370000e-06	2.399595e-06	4.657109e-10	1.665424e+01	3.412420e+01
2.380000e-06	2.442062e-06	4.731095e-10	1.694898e+01	3.458847e+01
2.390000e-06	2.484373e-06	4.815407e-10	1.724264e+01	3.503765e+01
2.400000e-06	2.526258e-06	4.911856e-10	1.753334e+01	3.547237e+01
2.410000e-06	2.567760e-06	5.008606e-10	1.782138e+01	3.589331e+01
2.420000e-06	2.609001e-06	5.103860e-10	1.810761e+01	3.630112e+01
2.430000e-06	2.649957e-06	5.166391e-10	1.839186e+01	3.669649e+01
2.440000e-06	2.690620e-06	5.197125e-10	1.867408e+01	3.708006e+01
2.450000e-06	2.731102e-06	5.252159e-10	1.895505e+01	3.745250e+01
2.460000e-06	2.771344e-06	5.318643e-10	1.923434e+01	3.781444e+01
2.470000e-06	2.811319e-06	5.388776e-10	1.951179e+01	3.816650e+01
2.480000e-06	2.851177e-06	5.448199e-10	1.978842e+01	3.850928e+01
2.490000e-06	2.890902e-06	5.497261e-10	2.006413e+01	3.884335e+01
2.500000e-06	2.930484e-06	5.539279e-10	2.033885e+01	3.916926e+01
2.510000e-06	2.969960e-06	5.574312e-10	2.061283e+01	3.948751e+01
2.520000e-06	3.009279e-06	5.599022e-10	2.088572e+01	3.979858e+01
2.530000e-06	3.048427e-06	5.660232e-10	2.115742e+01	4.010291e+01
2.540000e-06	3.087380e-06	5.749330e-10	2.142778e+01	4.040091e+01
2.550000e-06	3.126062e-06	5.829997e-10	2.169624e+01	4.069293e+01
2.560000e-06	3.164537e-06	5.888589e-10	2.196328e+01	4.097931e+01
2.570000e-06	3.202813e-06	5.906435e-10	2.222893e+01	4.126034e+01
2.580000e-06	3.240828e-06	5.908312e-10	2.249277e+01	4.153625e+01
2.590000e-06	3.278618e-06	5.900931e-10	2.275505e+01	4.180726e+01
2.600000e-06	3.316144e-06	5.922945e-10	2.301550e+01	4.207355e+01
2.610000e-06	3.353443e-06	6.000293e-10	2.327437e+01	4.233525e+01
2.620000e-06	3.390612e-06	6.091394e-10	2.353234e+01	4.259245e+01
2.630000e-06	3.427606e-06	6.169482e-10	2.378909e+01	4.284525e+01
2.640000e-06	3.464281e-06	6.205904e-10	2.404364e+01	4.309367e+01
2.650000e-06	3.500624e-06	6.205691e-10	2.429587e+01	4.333773e+01
2.660000e-06	3.536711e-06	6.201659e-10	2.454633e+01	4.357743e+01
2.670000e-06	3.572552e-06	6.200728e-10	2.479508e+01	4.381273e+01
2.680000e-06	3.608206e-06	6.224636e-10	2.504254e+01	4.404358e+01
2.690000e-06	3.643783e-06	6.259382e-10	2.528945e+01	4.426992e+01
2.700000e-06	3.679253e-06	6.305328e-10	2.553563e+01	4.449168e+01
2.710000e-06	3.714553e-06	6.367530e-10	2.578063e+01	4.470876e+01
2.720000e-06	3.749658e-06	6.429378e-10	2.602428e+01	4.492109e+01
2.730000e-06	3.784579e-06	6.485157e-10	2.626664e+01	4.512856e+01
2.740000e-06	3.819185e-06	6.527323e-10	2.650683e+01	4.533108e+01
2.750000e-06	3.853315e-06	6.551162e-10	2.674370e+01	4.552856e+01
2.760000e-06	3.886860e-06	6.565982e-10	2.697652e+01	4.572091e+01
2.770000e-06	3.919869e-06	6.593810e-10	2.720561e+01	4.590807e+01
2.780000e-06	3.952470e-06	6.651541e-10	2.743188e+01	4.608995e+01
2.790000e-06	3.984700e-06	6.715221e-10	2.765557e+01	4.626651e+01
2.800000e-06	4.016687e-06	6.764969e-10	2.787757e+01	4.643771e+01
2.810000e-06	4.048506e-06	6.792589e-10	2.809841e+01	4.660351e+01
2.820000e-06	4.080149e-06	6.793992e-10	2.831803e+01	4.676392e+01
2.830000e-06	4.111587e-06	6.794051e-10	2.853622e+01	4.691893e+01
2.840000e-06	4.142805e-06	6.804072e-10	2.875289e+01	4.706858e+01
2.850000e-06	4.173821e-06	6.828760e-10	2.896815e+01	4.721291e+01
2.860000e-06	4.204507e-06	6.880956e-10	2.918112e+01	4.735197e+01
2.870000e-06	4.234759e-06	6.924074e-10	2.939109e+01	4.748587e+01
2.880000e-06	4.264677e-06	6.970244e-10	2.959873e+01	4.761468e+01
2.890000e-06	4.294319e-06	7.000793e-10	2.980446e+01	4.773853e+01
2.900000e-06	4.323696e-06	6.997391e-10	3.000835e+01	4.785756e+01
