# Temperatura_=_-0.3
# Concentracion g/m^3_=_1620.0
# C_Vs_to_Am_M_A/Vsm_=_65563218390.804596
# pendiente_HvsI_1/m_=_3716.3
# ordenada_HvsI_A/m_=_1297.0
# frecuencia_Hz_=_135105.0419935948

Tiempo_(s)	Campo_(V.s)	Magnetizacion_(V.s)	Campo_(kA/m)	Magnetizacion_(A/m)
0.000000e+00	-5.513679e-06	-1.437103e-09	-3.836991e+01	-9.334498e+01
1.000000e-08	-5.513855e-06	-1.438500e-09	-3.837113e+01	-9.333652e+01
2.000000e-08	-5.513822e-06	-1.439690e-09	-3.837090e+01	-9.332597e+01
3.000000e-08	-5.513439e-06	-1.439229e-09	-3.836824e+01	-9.331323e+01
4.000000e-08	-5.512568e-06	-1.435950e-09	-3.836218e+01	-9.329821e+01
5.000000e-08	-5.511056e-06	-1.431834e-09	-3.835165e+01	-9.328083e+01
6.000000e-08	-5.508880e-06	-1.424730e-09	-3.833651e+01	-9.326096e+01
7.000000e-08	-5.506202e-06	-1.412772e-09	-3.831787e+01	-9.323849e+01
8.000000e-08	-5.503042e-06	-1.419935e-09	-3.829588e+01	-9.321331e+01
9.000000e-08	-5.499338e-06	-1.459700e-09	-3.827011e+01	-9.318527e+01
1.000000e-07	-5.495214e-06	-1.479077e-09	-3.824141e+01	-9.315425e+01
1.100000e-07	-5.490821e-06	-1.438188e-09	-3.821083e+01	-9.312012e+01
1.200000e-07	-5.486220e-06	-1.379303e-09	-3.817882e+01	-9.308274e+01
1.300000e-07	-5.481406e-06	-1.398047e-09	-3.814532e+01	-9.304199e+01
1.400000e-07	-5.476197e-06	-1.443933e-09	-3.810907e+01	-9.299773e+01
1.500000e-07	-5.470544e-06	-1.421823e-09	-3.806973e+01	-9.294985e+01
1.600000e-07	-5.464534e-06	-1.378299e-09	-3.802791e+01	-9.289823e+01
1.700000e-07	-5.458096e-06	-1.382458e-09	-3.798310e+01	-9.284277e+01
1.800000e-07	-5.451237e-06	-1.440328e-09	-3.793537e+01	-9.278337e+01
1.900000e-07	-5.444054e-06	-1.435309e-09	-3.788538e+01	-9.271993e+01
2.000000e-07	-5.436561e-06	-1.420226e-09	-3.783324e+01	-9.265239e+01
2.100000e-07	-5.428796e-06	-1.416313e-09	-3.777920e+01	-9.258068e+01
2.200000e-07	-5.420743e-06	-1.451622e-09	-3.772316e+01	-9.250475e+01
2.300000e-07	-5.412326e-06	-1.447732e-09	-3.766459e+01	-9.242456e+01
2.400000e-07	-5.403561e-06	-1.439526e-09	-3.760359e+01	-9.234008e+01
2.500000e-07	-5.394204e-06	-1.437359e-09	-3.753848e+01	-9.225131e+01
2.600000e-07	-5.384103e-06	-1.447609e-09	-3.746818e+01	-9.215825e+01
2.700000e-07	-5.373406e-06	-1.442137e-09	-3.739374e+01	-9.206092e+01
2.800000e-07	-5.362175e-06	-1.423842e-09	-3.731559e+01	-9.195934e+01
2.900000e-07	-5.350507e-06	-1.421692e-09	-3.723438e+01	-9.185355e+01
3.000000e-07	-5.338477e-06	-1.428676e-09	-3.715067e+01	-9.174361e+01
3.100000e-07	-5.326076e-06	-1.428276e-09	-3.706437e+01	-9.162959e+01
3.200000e-07	-5.313216e-06	-1.402478e-09	-3.697488e+01	-9.151156e+01
3.300000e-07	-5.299947e-06	-1.401897e-09	-3.688254e+01	-9.138960e+01
3.400000e-07	-5.286384e-06	-1.404037e-09	-3.678815e+01	-9.126379e+01
3.500000e-07	-5.272485e-06	-1.402684e-09	-3.669143e+01	-9.113425e+01
3.600000e-07	-5.258194e-06	-1.382961e-09	-3.659198e+01	-9.100106e+01
3.700000e-07	-5.243496e-06	-1.393486e-09	-3.648969e+01	-9.086433e+01
3.800000e-07	-5.228197e-06	-1.390940e-09	-3.638323e+01	-9.072417e+01
3.900000e-07	-5.212312e-06	-1.381073e-09	-3.627268e+01	-9.058068e+01
4.000000e-07	-5.195960e-06	-1.381414e-09	-3.615889e+01	-9.043397e+01
4.100000e-07	-5.179221e-06	-1.402777e-09	-3.604240e+01	-9.028414e+01
4.200000e-07	-5.162197e-06	-1.379437e-09	-3.592393e+01	-9.013129e+01
4.300000e-07	-5.144836e-06	-1.357747e-09	-3.580312e+01	-8.997552e+01
4.400000e-07	-5.127220e-06	-1.372017e-09	-3.568052e+01	-8.981690e+01
4.500000e-07	-5.109247e-06	-1.380798e-09	-3.555545e+01	-8.965552e+01
4.600000e-07	-5.090748e-06	-1.345917e-09	-3.542671e+01	-8.949145e+01
4.700000e-07	-5.071757e-06	-1.342295e-09	-3.529456e+01	-8.932475e+01
4.800000e-07	-5.052402e-06	-1.360624e-09	-3.515986e+01	-8.915548e+01
4.900000e-07	-5.032806e-06	-1.348163e-09	-3.502349e+01	-8.898366e+01
5.000000e-07	-5.012987e-06	-1.328609e-09	-3.488557e+01	-8.880935e+01
5.100000e-07	-4.992963e-06	-1.346350e-09	-3.474622e+01	-8.863254e+01
5.200000e-07	-4.972717e-06	-1.342062e-09	-3.460533e+01	-8.845325e+01
5.300000e-07	-4.952182e-06	-1.316149e-09	-3.446243e+01	-8.827147e+01
5.400000e-07	-4.931311e-06	-1.325084e-09	-3.431718e+01	-8.808720e+01
5.500000e-07	-4.910038e-06	-1.343831e-09	-3.416914e+01	-8.790040e+01
5.600000e-07	-4.888291e-06	-1.320543e-09	-3.401781e+01	-8.771104e+01
5.700000e-07	-4.866208e-06	-1.307224e-09	-3.386413e+01	-8.751907e+01
5.800000e-07	-4.843851e-06	-1.324615e-09	-3.370855e+01	-8.732444e+01
5.900000e-07	-4.821083e-06	-1.316523e-09	-3.355010e+01	-8.712708e+01
6.000000e-07	-4.797953e-06	-1.300058e-09	-3.338914e+01	-8.692694e+01
6.100000e-07	-4.774554e-06	-1.313394e-09	-3.322631e+01	-8.672394e+01
6.200000e-07	-4.750924e-06	-1.317130e-09	-3.306187e+01	-8.651799e+01
6.300000e-07	-4.727071e-06	-1.291155e-09	-3.289587e+01	-8.630903e+01
6.400000e-07	-4.702954e-06	-1.289418e-09	-3.272804e+01	-8.609696e+01
6.500000e-07	-4.678511e-06	-1.294395e-09	-3.255794e+01	-8.588171e+01
6.600000e-07	-4.653660e-06	-1.279773e-09	-3.238500e+01	-8.566320e+01
6.700000e-07	-4.628351e-06	-1.272275e-09	-3.220888e+01	-8.544134e+01
6.800000e-07	-4.602503e-06	-1.286623e-09	-3.202900e+01	-8.521606e+01
6.900000e-07	-4.576122e-06	-1.278846e-09	-3.184541e+01	-8.498728e+01
7.000000e-07	-4.549247e-06	-1.271295e-09	-3.165838e+01	-8.475495e+01
7.100000e-07	-4.521925e-06	-1.277770e-09	-3.146825e+01	-8.451901e+01
7.200000e-07	-4.494321e-06	-1.273696e-09	-3.127616e+01	-8.427939e+01
7.300000e-07	-4.466542e-06	-1.252981e-09	-3.108284e+01	-8.403606e+01
7.400000e-07	-4.438622e-06	-1.253655e-09	-3.088854e+01	-8.378898e+01
7.500000e-07	-4.410538e-06	-1.255998e-09	-3.069311e+01	-8.353813e+01
7.600000e-07	-4.382165e-06	-1.247847e-09	-3.049566e+01	-8.328349e+01
7.700000e-07	-4.353416e-06	-1.244408e-09	-3.029559e+01	-8.302504e+01
7.800000e-07	-4.324339e-06	-1.248175e-09	-3.009325e+01	-8.276280e+01
7.900000e-07	-4.294934e-06	-1.238393e-09	-2.988861e+01	-8.249677e+01
8.000000e-07	-4.265209e-06	-1.233503e-09	-2.968175e+01	-8.222697e+01
8.100000e-07	-4.235251e-06	-1.235595e-09	-2.947328e+01	-8.195344e+01
8.200000e-07	-4.205033e-06	-1.229164e-09	-2.926299e+01	-8.167619e+01
8.300000e-07	-4.174547e-06	-1.220842e-09	-2.905083e+01	-8.139528e+01
8.400000e-07	-4.143756e-06	-1.222544e-09	-2.883656e+01	-8.111075e+01
8.500000e-07	-4.112601e-06	-1.218998e-09	-2.861975e+01	-8.082266e+01
8.600000e-07	-4.081269e-06	-1.208930e-09	-2.840171e+01	-8.053104e+01
8.700000e-07	-4.049803e-06	-1.204961e-09	-2.818274e+01	-8.023597e+01
8.800000e-07	-4.018182e-06	-1.200265e-09	-2.796268e+01	-7.993749e+01
8.900000e-07	-3.986345e-06	-1.191780e-09	-2.774113e+01	-7.963566e+01
9.000000e-07	-3.954248e-06	-1.187707e-09	-2.751776e+01	-7.933054e+01
9.100000e-07	-3.921928e-06	-1.187145e-09	-2.729285e+01	-7.902215e+01
9.200000e-07	-3.889317e-06	-1.178368e-09	-2.706591e+01	-7.871056e+01
9.300000e-07	-3.856320e-06	-1.172911e-09	-2.683628e+01	-7.839579e+01
9.400000e-07	-3.822914e-06	-1.170662e-09	-2.660381e+01	-7.807786e+01
9.500000e-07	-3.789092e-06	-1.163448e-09	-2.636844e+01	-7.775679e+01
9.600000e-07	-3.754766e-06	-1.151972e-09	-2.612956e+01	-7.743258e+01
9.700000e-07	-3.719968e-06	-1.150152e-09	-2.588740e+01	-7.710522e+01
9.800000e-07	-3.684740e-06	-1.146025e-09	-2.564225e+01	-7.677469e+01
9.900000e-07	-3.649185e-06	-1.136910e-09	-2.539482e+01	-7.644095e+01
1.000000e-06	-3.613518e-06	-1.132126e-09	-2.514661e+01	-7.610393e+01
1.010000e-06	-3.577799e-06	-1.130932e-09	-2.489804e+01	-7.576358e+01
1.020000e-06	-3.541898e-06	-1.123949e-09	-2.464821e+01	-7.541980e+01
1.030000e-06	-3.505815e-06	-1.119591e-09	-2.439710e+01	-7.507248e+01
1.040000e-06	-3.469591e-06	-1.114867e-09	-2.414502e+01	-7.472151e+01
1.050000e-06	-3.433143e-06	-1.104858e-09	-2.389138e+01	-7.436675e+01
1.060000e-06	-3.396447e-06	-1.090620e-09	-2.363600e+01	-7.400803e+01
1.070000e-06	-3.359472e-06	-1.083491e-09	-2.337869e+01	-7.364519e+01
1.080000e-06	-3.322178e-06	-1.080398e-09	-2.311917e+01	-7.327804e+01
1.090000e-06	-3.284609e-06	-1.077379e-09	-2.285772e+01	-7.290638e+01
1.100000e-06	-3.246786e-06	-1.075788e-09	-2.259451e+01	-7.252999e+01
1.110000e-06	-3.208737e-06	-1.069539e-09	-2.232973e+01	-7.214865e+01
1.120000e-06	-3.170511e-06	-1.057772e-09	-2.206371e+01	-7.176212e+01
1.130000e-06	-3.132088e-06	-1.046782e-09	-2.179632e+01	-7.137014e+01
1.140000e-06	-3.093373e-06	-1.036822e-09	-2.152690e+01	-7.097248e+01
1.150000e-06	-3.054484e-06	-1.026043e-09	-2.125627e+01	-7.056885e+01
1.160000e-06	-3.015512e-06	-1.018662e-09	-2.098507e+01	-7.015900e+01
1.170000e-06	-2.976292e-06	-1.015254e-09	-2.071213e+01	-6.974266e+01
1.180000e-06	-2.936787e-06	-1.011505e-09	-2.043721e+01	-6.931957e+01
1.190000e-06	-2.897172e-06	-1.005816e-09	-2.016153e+01	-6.888944e+01
1.200000e-06	-2.857489e-06	-1.001537e-09	-1.988537e+01	-6.845202e+01
1.210000e-06	-2.817646e-06	-9.938114e-10	-1.960811e+01	-6.800705e+01
1.220000e-06	-2.777670e-06	-9.823332e-10	-1.932991e+01	-6.755427e+01
1.230000e-06	-2.737518e-06	-9.722834e-10	-1.905049e+01	-6.709343e+01
1.240000e-06	-2.697192e-06	-9.651984e-10	-1.876986e+01	-6.662430e+01
1.250000e-06	-2.656737e-06	-9.581563e-10	-1.848833e+01	-6.614665e+01
1.260000e-06	-2.616101e-06	-9.530580e-10	-1.820555e+01	-6.566026e+01
1.270000e-06	-2.575234e-06	-9.478780e-10	-1.792115e+01	-6.516493e+01
1.280000e-06	-2.534090e-06	-9.408285e-10	-1.763483e+01	-6.466046e+01
1.290000e-06	-2.492603e-06	-9.305332e-10	-1.734612e+01	-6.414667e+01
1.300000e-06	-2.450822e-06	-9.196386e-10	-1.705536e+01	-6.362341e+01
1.310000e-06	-2.408757e-06	-9.098940e-10	-1.676263e+01	-6.309052e+01
1.320000e-06	-2.366429e-06	-9.016714e-10	-1.646807e+01	-6.254786e+01
1.330000e-06	-2.323872e-06	-8.947390e-10	-1.617191e+01	-6.199530e+01
1.340000e-06	-2.280996e-06	-8.876912e-10	-1.587354e+01	-6.143273e+01
1.350000e-06	-2.237764e-06	-8.778697e-10	-1.557269e+01	-6.086004e+01
1.360000e-06	-2.194270e-06	-8.668817e-10	-1.527001e+01	-6.027715e+01
1.370000e-06	-2.150648e-06	-8.561911e-10	-1.496644e+01	-5.968397e+01
1.380000e-06	-2.106987e-06	-8.469183e-10	-1.466260e+01	-5.908041e+01
1.390000e-06	-2.063298e-06	-8.384865e-10	-1.435857e+01	-5.846642e+01
1.400000e-06	-2.019548e-06	-8.319580e-10	-1.405411e+01	-5.784191e+01
1.410000e-06	-1.975685e-06	-8.251836e-10	-1.374887e+01	-5.720682e+01
1.420000e-06	-1.931745e-06	-8.151864e-10	-1.344309e+01	-5.656108e+01
1.430000e-06	-1.887752e-06	-8.036859e-10	-1.313694e+01	-5.590463e+01
1.440000e-06	-1.843667e-06	-7.905234e-10	-1.283015e+01	-5.523737e+01
1.450000e-06	-1.799506e-06	-7.748294e-10	-1.252283e+01	-5.455924e+01
1.460000e-06	-1.755210e-06	-7.594419e-10	-1.221457e+01	-5.387014e+01
1.470000e-06	-1.710720e-06	-7.467988e-10	-1.190497e+01	-5.316996e+01
1.480000e-06	-1.666081e-06	-7.362287e-10	-1.159433e+01	-5.245859e+01
1.490000e-06	-1.621372e-06	-7.257246e-10	-1.128319e+01	-5.173589e+01
1.500000e-06	-1.576587e-06	-7.153422e-10	-1.097153e+01	-5.100172e+01
1.510000e-06	-1.531680e-06	-7.052567e-10	-1.065902e+01	-5.025591e+01
1.520000e-06	-1.486607e-06	-6.927794e-10	-1.034536e+01	-4.949827e+01
1.530000e-06	-1.441349e-06	-6.777800e-10	-1.003040e+01	-4.872858e+01
1.540000e-06	-1.396006e-06	-6.607206e-10	-9.714863e+00	-4.794664e+01
1.550000e-06	-1.350622e-06	-6.433324e-10	-9.399031e+00	-4.715217e+01
1.560000e-06	-1.305177e-06	-6.269781e-10	-9.082781e+00	-4.634492e+01
1.570000e-06	-1.259658e-06	-6.145012e-10	-8.766010e+00	-4.552458e+01
1.580000e-06	-1.214014e-06	-6.039024e-10	-8.448372e+00	-4.469084e+01
1.590000e-06	-1.168296e-06	-5.919062e-10	-8.130218e+00	-4.384337e+01
1.600000e-06	-1.122467e-06	-5.779579e-10	-7.811293e+00	-4.298181e+01
1.610000e-06	-1.076544e-06	-5.634703e-10	-7.491711e+00	-4.210579e+01
1.620000e-06	-1.030597e-06	-5.495055e-10	-7.171961e+00	-4.121493e+01
1.630000e-06	-9.846178e-07	-5.358879e-10	-6.851994e+00	-4.030883e+01
1.640000e-06	-9.385114e-07	-5.185221e-10	-6.531137e+00	-3.938708e+01
1.650000e-06	-8.922804e-07	-4.989110e-10	-6.209414e+00	-3.844927e+01
1.660000e-06	-8.460122e-07	-4.807041e-10	-5.887431e+00	-3.749499e+01
1.670000e-06	-7.997036e-07	-4.643509e-10	-5.565168e+00	-3.652382e+01
1.680000e-06	-7.533522e-07	-4.509615e-10	-5.242607e+00	-3.553534e+01
1.690000e-06	-7.069737e-07	-4.419753e-10	-4.919857e+00	-3.452917e+01
1.700000e-06	-6.605872e-07	-4.320448e-10	-4.597052e+00	-3.350492e+01
1.710000e-06	-6.141446e-07	-4.163503e-10	-4.273856e+00	-3.246221e+01
1.720000e-06	-5.675970e-07	-3.964985e-10	-3.949930e+00	-3.140070e+01
1.730000e-06	-5.209891e-07	-3.758270e-10	-3.625583e+00	-3.032008e+01
1.740000e-06	-4.743824e-07	-3.559226e-10	-3.301246e+00	-2.922007e+01
1.750000e-06	-4.276978e-07	-3.383748e-10	-2.976365e+00	-2.810042e+01
1.760000e-06	-3.810676e-07	-3.231885e-10	-2.651864e+00	-2.696092e+01
1.770000e-06	-3.344775e-07	-3.060100e-10	-2.327642e+00	-2.580143e+01
1.780000e-06	-2.877734e-07	-2.896192e-10	-2.002626e+00	-2.462183e+01
1.790000e-06	-2.410506e-07	-2.719677e-10	-1.677481e+00	-2.342209e+01
1.800000e-06	-1.942694e-07	-2.516528e-10	-1.351928e+00	-2.220222e+01
1.810000e-06	-1.474784e-07	-2.308120e-10	-1.026308e+00	-2.096229e+01
1.820000e-06	-1.007299e-07	-2.112497e-10	-7.009834e-01	-1.970244e+01
1.830000e-06	-5.396761e-08	-1.958345e-10	-3.755627e-01	-1.842290e+01
1.840000e-06	-7.164620e-09	-1.811918e-10	-4.985887e-02	-1.712396e+01
1.850000e-06	3.960505e-08	-1.658674e-10	2.756131e-01	-1.580596e+01
1.860000e-06	8.634747e-08	-1.468564e-10	6.008954e-01	-1.446935e+01
1.870000e-06	1.331376e-07	-1.256600e-10	9.265098e-01	-1.311466e+01
1.880000e-06	1.799466e-07	-1.053876e-10	1.252256e+00	-1.174246e+01
1.890000e-06	2.267316e-07	-8.616673e-11	1.577834e+00	-1.035344e+01
1.900000e-06	2.734903e-07	-6.992374e-11	1.903229e+00	-8.948343e+00
1.910000e-06	3.202770e-07	-5.499405e-11	2.228820e+00	-7.527994e+00
1.920000e-06	3.670025e-07	-3.801469e-11	2.553985e+00	-6.093293e+00
1.930000e-06	4.136106e-07	-1.832358e-11	2.878332e+00	-4.645210e+00
1.940000e-06	4.601219e-07	2.149959e-12	3.202006e+00	-3.184787e+00
1.950000e-06	5.066275e-07	2.132608e-11	3.525640e+00	-1.713128e+00
1.960000e-06	5.530993e-07	3.972192e-11	3.849039e+00	-2.314002e-01
1.970000e-06	5.994998e-07	5.865347e-11	4.171942e+00	1.259174e+00
1.980000e-06	6.459317e-07	7.802292e-11	4.495064e+00	2.757321e+00
1.990000e-06	6.923381e-07	9.828590e-11	4.818008e+00	4.261719e+00
2.000000e-06	7.386623e-07	1.188020e-10	5.140379e+00	5.771007e+00
2.010000e-06	7.849409e-07	1.393102e-10	5.462434e+00	7.283792e+00
2.020000e-06	8.311531e-07	1.577521e-10	5.784027e+00	8.798652e+00
2.030000e-06	8.772803e-07	1.752528e-10	6.105027e+00	1.031414e+01
2.040000e-06	9.233807e-07	1.943186e-10	6.425842e+00	1.182881e+01
2.050000e-06	9.694630e-07	2.149583e-10	6.746530e+00	1.334120e+01
2.060000e-06	1.015485e-06	2.372534e-10	7.066797e+00	1.484984e+01
2.070000e-06	1.061413e-06	2.627913e-10	7.386417e+00	1.635328e+01
2.080000e-06	1.107194e-06	2.893790e-10	7.705009e+00	1.785009e+01
2.090000e-06	1.152918e-06	3.128793e-10	8.023198e+00	1.933885e+01
2.100000e-06	1.198588e-06	3.320460e-10	8.341017e+00	2.081819e+01
2.110000e-06	1.244168e-06	3.487727e-10	8.658211e+00	2.228675e+01
2.120000e-06	1.289647e-06	3.644566e-10	8.974704e+00	2.374323e+01
2.130000e-06	1.334942e-06	3.816255e-10	9.289914e+00	2.518638e+01
2.140000e-06	1.380099e-06	4.014294e-10	9.604166e+00	2.661500e+01
2.150000e-06	1.425210e-06	4.228489e-10	9.918090e+00	2.802795e+01
2.160000e-06	1.470279e-06	4.481395e-10	1.023173e+01	2.942418e+01
2.170000e-06	1.515269e-06	4.712630e-10	1.054482e+01	3.080266e+01
2.180000e-06	1.560149e-06	4.889182e-10	1.085714e+01	3.216249e+01
2.190000e-06	1.604889e-06	5.024167e-10	1.116849e+01	3.350282e+01
2.200000e-06	1.649545e-06	5.148104e-10	1.147925e+01	3.482288e+01
2.210000e-06	1.694116e-06	5.289087e-10	1.178942e+01	3.612199e+01
2.220000e-06	1.738544e-06	5.466410e-10	1.209859e+01	3.739955e+01
2.230000e-06	1.782871e-06	5.686810e-10	1.240707e+01	3.865505e+01
2.240000e-06	1.827112e-06	5.903553e-10	1.271495e+01	3.988807e+01
2.250000e-06	1.871237e-06	6.092105e-10	1.302201e+01	4.109827e+01
2.260000e-06	1.915262e-06	6.239971e-10	1.332838e+01	4.228539e+01
2.270000e-06	1.959181e-06	6.365810e-10	1.363401e+01	4.344927e+01
2.280000e-06	2.003012e-06	6.484134e-10	1.393903e+01	4.458981e+01
2.290000e-06	2.046784e-06	6.607848e-10	1.424365e+01	4.570701e+01
2.300000e-06	2.090504e-06	6.752218e-10	1.454790e+01	4.680094e+01
2.310000e-06	2.134154e-06	6.900717e-10	1.485166e+01	4.787172e+01
2.320000e-06	2.177667e-06	7.061786e-10	1.515447e+01	4.891957e+01
2.330000e-06	2.221044e-06	7.221244e-10	1.545633e+01	4.994476e+01
2.340000e-06	2.264316e-06	7.360816e-10	1.575747e+01	5.094761e+01
2.350000e-06	2.307422e-06	7.486843e-10	1.605744e+01	5.192850e+01
2.360000e-06	2.350239e-06	7.589091e-10	1.635540e+01	5.288787e+01
2.370000e-06	2.392722e-06	7.698826e-10	1.665104e+01	5.382618e+01
2.380000e-06	2.434878e-06	7.816681e-10	1.694441e+01	5.474394e+01
2.390000e-06	2.476733e-06	7.961264e-10	1.723568e+01	5.564170e+01
2.400000e-06	2.518244e-06	8.139406e-10	1.752455e+01	5.652000e+01
2.410000e-06	2.559458e-06	8.318513e-10	1.781137e+01	5.737944e+01
2.420000e-06	2.600464e-06	8.477649e-10	1.809673e+01	5.822061e+01
2.430000e-06	2.641148e-06	8.595743e-10	1.837985e+01	5.904411e+01
2.440000e-06	2.681515e-06	8.681022e-10	1.866077e+01	5.985055e+01
2.450000e-06	2.721714e-06	8.758221e-10	1.894051e+01	6.064051e+01
2.460000e-06	2.761770e-06	8.839277e-10	1.921926e+01	6.141461e+01
2.470000e-06	2.801687e-06	8.938155e-10	1.949705e+01	6.217340e+01
2.480000e-06	2.841518e-06	9.066871e-10	1.977423e+01	6.291745e+01
2.490000e-06	2.881215e-06	9.218685e-10	2.005049e+01	6.364730e+01
2.500000e-06	2.920815e-06	9.361280e-10	2.032606e+01	6.436347e+01
2.510000e-06	2.960330e-06	9.463495e-10	2.060105e+01	6.506643e+01
2.520000e-06	2.999603e-06	9.532614e-10	2.087435e+01	6.575664e+01
2.530000e-06	3.038567e-06	9.593853e-10	2.114551e+01	6.643452e+01
2.540000e-06	3.077319e-06	9.659428e-10	2.141518e+01	6.710046e+01
2.550000e-06	3.115947e-06	9.743314e-10	2.168400e+01	6.775480e+01
2.560000e-06	3.154368e-06	9.855701e-10	2.195137e+01	6.839786e+01
2.570000e-06	3.192494e-06	9.977947e-10	2.221669e+01	6.902991e+01
2.580000e-06	3.230400e-06	1.009679e-09	2.248048e+01	6.965119e+01
2.590000e-06	3.268150e-06	1.019272e-09	2.274318e+01	7.026190e+01
2.600000e-06	3.305643e-06	1.026908e-09	2.300410e+01	7.086222e+01
2.610000e-06	3.342867e-06	1.033305e-09	2.326314e+01	7.145226e+01
2.620000e-06	3.379859e-06	1.038732e-09	2.352057e+01	7.203213e+01
2.630000e-06	3.416559e-06	1.044327e-09	2.377596e+01	7.260191e+01
2.640000e-06	3.453046e-06	1.051112e-09	2.402988e+01	7.316163e+01
2.650000e-06	3.489376e-06	1.060014e-09	2.428271e+01	7.371132e+01
2.660000e-06	3.525515e-06	1.070109e-09	2.453420e+01	7.425096e+01
2.670000e-06	3.561501e-06	1.077806e-09	2.478462e+01	7.478055e+01
2.680000e-06	3.597339e-06	1.083305e-09	2.503402e+01	7.530004e+01
2.690000e-06	3.633010e-06	1.089212e-09	2.528226e+01	7.580938e+01
2.700000e-06	3.668522e-06	1.096237e-09	2.552939e+01	7.630852e+01
2.710000e-06	3.703819e-06	1.103148e-09	2.577502e+01	7.679739e+01
2.720000e-06	3.738884e-06	1.110095e-09	2.601904e+01	7.727593e+01
2.730000e-06	3.773647e-06	1.117642e-09	2.626096e+01	7.774408e+01
2.740000e-06	3.807958e-06	1.124624e-09	2.649972e+01	7.820178e+01
2.750000e-06	3.841708e-06	1.131068e-09	2.673460e+01	7.864898e+01
2.760000e-06	3.874955e-06	1.138204e-09	2.696596e+01	7.908565e+01
2.770000e-06	3.907722e-06	1.146888e-09	2.719399e+01	7.951176e+01
2.780000e-06	3.940118e-06	1.155786e-09	2.741943e+01	7.992729e+01
2.790000e-06	3.972318e-06	1.164035e-09	2.764351e+01	8.033227e+01
2.800000e-06	4.004323e-06	1.171816e-09	2.786624e+01	8.072671e+01
2.810000e-06	4.036143e-06	1.177993e-09	2.808768e+01	8.111068e+01
2.820000e-06	4.067741e-06	1.183151e-09	2.830757e+01	8.148423e+01
2.830000e-06	4.099127e-06	1.187120e-09	2.852598e+01	8.184748e+01
2.840000e-06	4.130335e-06	1.190793e-09	2.874316e+01	8.220053e+01
2.850000e-06	4.161305e-06	1.197336e-09	2.895868e+01	8.254353e+01
2.860000e-06	4.191905e-06	1.205300e-09	2.917163e+01	8.287666e+01
2.870000e-06	4.222137e-06	1.212861e-09	2.938201e+01	8.320011e+01
2.880000e-06	4.252080e-06	1.218356e-09	2.959039e+01	8.351408e+01
2.890000e-06	4.281762e-06	1.221306e-09	2.979695e+01	8.381882e+01
2.900000e-06	4.311267e-06	1.225220e-09	3.000228e+01	8.411458e+01
