# Temperatura_=_-0.4
# Concentracion g/m^3_=_1620.0
# C_Vs_to_Am_M_A/Vsm_=_65563218390.804596
# pendiente_HvsI_1/m_=_3716.3
# ordenada_HvsI_A/m_=_1297.0
# frecuencia_Hz_=_135091.71324966438

Tiempo_(s)	Campo_(V.s)	Magnetizacion_(V.s)	Campo_(kA/m)	Magnetizacion_(A/m)
0.000000e+00	-5.517513e-06	-1.355288e-09	-3.838009e+01	-8.790697e+01
1.000000e-08	-5.517640e-06	-1.358620e-09	-3.838097e+01	-8.795967e+01
2.000000e-08	-5.517612e-06	-1.361591e-09	-3.838077e+01	-8.801118e+01
3.000000e-08	-5.517327e-06	-1.362106e-09	-3.837879e+01	-8.806141e+01
4.000000e-08	-5.516522e-06	-1.355858e-09	-3.837319e+01	-8.811024e+01
5.000000e-08	-5.515178e-06	-1.348131e-09	-3.836384e+01	-8.815754e+01
6.000000e-08	-5.513283e-06	-1.338705e-09	-3.835066e+01	-8.820319e+01
7.000000e-08	-5.510865e-06	-1.329891e-09	-3.833384e+01	-8.824705e+01
8.000000e-08	-5.507915e-06	-1.332535e-09	-3.831332e+01	-8.828897e+01
9.000000e-08	-5.504325e-06	-1.378189e-09	-3.828834e+01	-8.832879e+01
1.000000e-07	-5.500288e-06	-1.431941e-09	-3.826026e+01	-8.836635e+01
1.100000e-07	-5.495902e-06	-1.344066e-09	-3.822976e+01	-8.840150e+01
1.200000e-07	-5.491363e-06	-1.277382e-09	-3.819818e+01	-8.843406e+01
1.300000e-07	-5.486710e-06	-1.278177e-09	-3.816582e+01	-8.846386e+01
1.400000e-07	-5.481593e-06	-1.377190e-09	-3.813022e+01	-8.849073e+01
1.500000e-07	-5.475970e-06	-1.344145e-09	-3.809111e+01	-8.851451e+01
1.600000e-07	-5.469990e-06	-1.274695e-09	-3.804951e+01	-8.853502e+01
1.700000e-07	-5.463670e-06	-1.327375e-09	-3.800555e+01	-8.855210e+01
1.800000e-07	-5.456871e-06	-1.410059e-09	-3.795826e+01	-8.856559e+01
1.900000e-07	-5.449600e-06	-1.399073e-09	-3.790768e+01	-8.857533e+01
2.000000e-07	-5.442049e-06	-1.285017e-09	-3.785516e+01	-8.858117e+01
2.100000e-07	-5.434262e-06	-1.312106e-09	-3.780098e+01	-8.858297e+01
2.200000e-07	-5.426219e-06	-1.382128e-09	-3.774504e+01	-8.858058e+01
2.300000e-07	-5.417951e-06	-1.421348e-09	-3.768752e+01	-8.857390e+01
2.400000e-07	-5.409289e-06	-1.355249e-09	-3.762727e+01	-8.856279e+01
2.500000e-07	-5.400074e-06	-1.373703e-09	-3.756317e+01	-8.854716e+01
2.600000e-07	-5.390008e-06	-1.385291e-09	-3.749315e+01	-8.852691e+01
2.700000e-07	-5.379271e-06	-1.371912e-09	-3.741846e+01	-8.850195e+01
2.800000e-07	-5.368162e-06	-1.320592e-09	-3.734119e+01	-8.847221e+01
2.900000e-07	-5.356624e-06	-1.353501e-09	-3.726093e+01	-8.843763e+01
3.000000e-07	-5.344758e-06	-1.379734e-09	-3.717839e+01	-8.839817e+01
3.100000e-07	-5.332497e-06	-1.367091e-09	-3.709310e+01	-8.835378e+01
3.200000e-07	-5.319707e-06	-1.335649e-09	-3.700414e+01	-8.830443e+01
3.300000e-07	-5.306492e-06	-1.354050e-09	-3.691221e+01	-8.825011e+01
3.400000e-07	-5.292942e-06	-1.372772e-09	-3.681796e+01	-8.819082e+01
3.500000e-07	-5.279039e-06	-1.350150e-09	-3.672125e+01	-8.812655e+01
3.600000e-07	-5.264737e-06	-1.321149e-09	-3.662177e+01	-8.805731e+01
3.700000e-07	-5.249873e-06	-1.349387e-09	-3.651837e+01	-8.798314e+01
3.800000e-07	-5.234564e-06	-1.377242e-09	-3.641188e+01	-8.790404e+01
3.900000e-07	-5.218727e-06	-1.337913e-09	-3.630172e+01	-8.782006e+01
4.000000e-07	-5.202259e-06	-1.323251e-09	-3.618716e+01	-8.773124e+01
4.100000e-07	-5.185519e-06	-1.359281e-09	-3.607072e+01	-8.763761e+01
4.200000e-07	-5.168541e-06	-1.359618e-09	-3.595262e+01	-8.753922e+01
4.300000e-07	-5.151183e-06	-1.297967e-09	-3.583188e+01	-8.743612e+01
4.400000e-07	-5.133568e-06	-1.336176e-09	-3.570935e+01	-8.732836e+01
4.500000e-07	-5.115601e-06	-1.366310e-09	-3.558436e+01	-8.721598e+01
4.600000e-07	-5.097129e-06	-1.318618e-09	-3.545587e+01	-8.709904e+01
4.700000e-07	-5.078310e-06	-1.275924e-09	-3.532497e+01	-8.697759e+01
4.800000e-07	-5.059138e-06	-1.338937e-09	-3.519160e+01	-8.685165e+01
4.900000e-07	-5.039630e-06	-1.326868e-09	-3.505591e+01	-8.672129e+01
5.000000e-07	-5.019876e-06	-1.295256e-09	-3.491850e+01	-8.658652e+01
5.100000e-07	-4.999922e-06	-1.312929e-09	-3.477970e+01	-8.644739e+01
5.200000e-07	-4.979680e-06	-1.324744e-09	-3.463889e+01	-8.630392e+01
5.300000e-07	-4.959008e-06	-1.268428e-09	-3.449509e+01	-8.615614e+01
5.400000e-07	-4.938019e-06	-1.295493e-09	-3.434910e+01	-8.600405e+01
5.500000e-07	-4.916796e-06	-1.323853e-09	-3.420146e+01	-8.584768e+01
5.600000e-07	-4.895255e-06	-1.282446e-09	-3.405163e+01	-8.568703e+01
5.700000e-07	-4.873258e-06	-1.260699e-09	-3.389862e+01	-8.552209e+01
5.800000e-07	-4.850928e-06	-1.307955e-09	-3.374329e+01	-8.535286e+01
5.900000e-07	-4.828284e-06	-1.283838e-09	-3.358578e+01	-8.517934e+01
6.000000e-07	-4.805161e-06	-1.247964e-09	-3.342493e+01	-8.500150e+01
6.100000e-07	-4.781704e-06	-1.272288e-09	-3.326176e+01	-8.481933e+01
6.200000e-07	-4.758048e-06	-1.277073e-09	-3.309721e+01	-8.463281e+01
6.300000e-07	-4.734213e-06	-1.240005e-09	-3.293141e+01	-8.444192e+01
6.400000e-07	-4.710180e-06	-1.251405e-09	-3.276423e+01	-8.424662e+01
6.500000e-07	-4.685913e-06	-1.271546e-09	-3.259543e+01	-8.404690e+01
6.600000e-07	-4.661369e-06	-1.245890e-09	-3.242470e+01	-8.384272e+01
6.700000e-07	-4.636371e-06	-1.239808e-09	-3.225082e+01	-8.363407e+01
6.800000e-07	-4.610691e-06	-1.246704e-09	-3.207219e+01	-8.342092e+01
6.900000e-07	-4.584294e-06	-1.231865e-09	-3.188857e+01	-8.320325e+01
7.000000e-07	-4.557378e-06	-1.218654e-09	-3.170134e+01	-8.298105e+01
7.100000e-07	-4.530062e-06	-1.233017e-09	-3.151133e+01	-8.275430e+01
7.200000e-07	-4.502478e-06	-1.224609e-09	-3.131945e+01	-8.252300e+01
7.300000e-07	-4.474707e-06	-1.216882e-09	-3.112628e+01	-8.228716e+01
7.400000e-07	-4.446775e-06	-1.220198e-09	-3.093198e+01	-8.204678e+01
7.500000e-07	-4.418705e-06	-1.221833e-09	-3.073672e+01	-8.180187e+01
7.600000e-07	-4.390370e-06	-1.199968e-09	-3.053963e+01	-8.155247e+01
7.700000e-07	-4.361782e-06	-1.201623e-09	-3.034076e+01	-8.129861e+01
7.800000e-07	-4.332865e-06	-1.195068e-09	-3.013962e+01	-8.104032e+01
7.900000e-07	-4.303498e-06	-1.186685e-09	-2.993534e+01	-8.077766e+01
8.000000e-07	-4.273856e-06	-1.183886e-09	-2.972915e+01	-8.051069e+01
8.100000e-07	-4.243985e-06	-1.190527e-09	-2.952136e+01	-8.023947e+01
8.200000e-07	-4.213818e-06	-1.176994e-09	-2.931152e+01	-7.996409e+01
8.300000e-07	-4.183365e-06	-1.174067e-09	-2.909969e+01	-7.968462e+01
8.400000e-07	-4.152525e-06	-1.173843e-09	-2.888517e+01	-7.940117e+01
8.500000e-07	-4.121387e-06	-1.165808e-09	-2.866857e+01	-7.911381e+01
8.600000e-07	-4.090069e-06	-1.155616e-09	-2.845072e+01	-7.882267e+01
8.700000e-07	-4.058569e-06	-1.156910e-09	-2.823160e+01	-7.852785e+01
8.800000e-07	-4.026886e-06	-1.149417e-09	-2.801121e+01	-7.822946e+01
8.900000e-07	-3.994996e-06	-1.139574e-09	-2.778938e+01	-7.792761e+01
9.000000e-07	-3.962904e-06	-1.135977e-09	-2.756615e+01	-7.762241e+01
9.100000e-07	-3.930635e-06	-1.133384e-09	-2.734168e+01	-7.731399e+01
9.200000e-07	-3.898080e-06	-1.126203e-09	-2.711523e+01	-7.700244e+01
9.300000e-07	-3.865107e-06	-1.128889e-09	-2.688587e+01	-7.668789e+01
9.400000e-07	-3.831658e-06	-1.135931e-09	-2.665319e+01	-7.637042e+01
9.500000e-07	-3.797707e-06	-1.128215e-09	-2.641703e+01	-7.605013e+01
9.600000e-07	-3.763355e-06	-1.116787e-09	-2.617808e+01	-7.572711e+01
9.700000e-07	-3.728626e-06	-1.105345e-09	-2.593650e+01	-7.540144e+01
9.800000e-07	-3.693424e-06	-1.095411e-09	-2.569164e+01	-7.507317e+01
9.900000e-07	-3.657950e-06	-1.088181e-09	-2.544487e+01	-7.474236e+01
1.000000e-06	-3.622386e-06	-1.093492e-09	-2.519749e+01	-7.440904e+01
1.010000e-06	-3.586639e-06	-1.091489e-09	-2.494883e+01	-7.407323e+01
1.020000e-06	-3.550753e-06	-1.086094e-09	-2.469920e+01	-7.373494e+01
1.030000e-06	-3.514643e-06	-1.080436e-09	-2.444802e+01	-7.339414e+01
1.040000e-06	-3.478353e-06	-1.075489e-09	-2.419559e+01	-7.305080e+01
1.050000e-06	-3.441986e-06	-1.064547e-09	-2.394262e+01	-7.270487e+01
1.060000e-06	-3.405330e-06	-1.057847e-09	-2.368764e+01	-7.235628e+01
1.070000e-06	-3.368280e-06	-1.052173e-09	-2.342992e+01	-7.200491e+01
1.080000e-06	-3.330939e-06	-1.048954e-09	-2.317017e+01	-7.165067e+01
1.090000e-06	-3.293332e-06	-1.042867e-09	-2.290858e+01	-7.129340e+01
1.100000e-06	-3.255552e-06	-1.040112e-09	-2.264577e+01	-7.093295e+01
1.110000e-06	-3.217655e-06	-1.031037e-09	-2.238216e+01	-7.056914e+01
1.120000e-06	-3.179580e-06	-1.021295e-09	-2.211731e+01	-7.020177e+01
1.130000e-06	-3.141272e-06	-1.013540e-09	-2.185084e+01	-6.983061e+01
1.140000e-06	-3.102694e-06	-1.011578e-09	-2.158249e+01	-6.945544e+01
1.150000e-06	-3.063863e-06	-1.006860e-09	-2.131238e+01	-6.907600e+01
1.160000e-06	-3.024753e-06	-9.992967e-10	-2.104033e+01	-6.869202e+01
1.170000e-06	-2.985426e-06	-9.893138e-10	-2.076677e+01	-6.830320e+01
1.180000e-06	-2.945989e-06	-9.792828e-10	-2.049244e+01	-6.790927e+01
1.190000e-06	-2.906447e-06	-9.714707e-10	-2.021739e+01	-6.750989e+01
1.200000e-06	-2.866740e-06	-9.663305e-10	-1.994118e+01	-6.710477e+01
1.210000e-06	-2.826899e-06	-9.624338e-10	-1.966405e+01	-6.669356e+01
1.220000e-06	-2.786965e-06	-9.578400e-10	-1.938626e+01	-6.627595e+01
1.230000e-06	-2.746910e-06	-9.514410e-10	-1.910764e+01	-6.585158e+01
1.240000e-06	-2.706681e-06	-9.410488e-10	-1.882780e+01	-6.542014e+01
1.250000e-06	-2.666253e-06	-9.307932e-10	-1.854659e+01	-6.498127e+01
1.260000e-06	-2.625662e-06	-9.236671e-10	-1.826423e+01	-6.453464e+01
1.270000e-06	-2.584817e-06	-9.193541e-10	-1.798011e+01	-6.407993e+01
1.280000e-06	-2.543681e-06	-9.122069e-10	-1.769397e+01	-6.361680e+01
1.290000e-06	-2.502250e-06	-9.031665e-10	-1.740577e+01	-6.314494e+01
1.300000e-06	-2.460435e-06	-8.931260e-10	-1.711490e+01	-6.266404e+01
1.310000e-06	-2.418276e-06	-8.829165e-10	-1.682164e+01	-6.217379e+01
1.320000e-06	-2.375762e-06	-8.723583e-10	-1.652592e+01	-6.167391e+01
1.330000e-06	-2.333042e-06	-8.651382e-10	-1.622875e+01	-6.116413e+01
1.340000e-06	-2.290176e-06	-8.598436e-10	-1.593057e+01	-6.064417e+01
1.350000e-06	-2.246986e-06	-8.549214e-10	-1.563014e+01	-6.011381e+01
1.360000e-06	-2.203631e-06	-8.446746e-10	-1.532856e+01	-5.957279e+01
1.370000e-06	-2.160203e-06	-8.331141e-10	-1.502648e+01	-5.902091e+01
1.380000e-06	-2.116642e-06	-8.196247e-10	-1.472346e+01	-5.845795e+01
1.390000e-06	-2.072945e-06	-8.081456e-10	-1.441950e+01	-5.788375e+01
1.400000e-06	-2.029147e-06	-7.975801e-10	-1.411484e+01	-5.729811e+01
1.410000e-06	-1.985265e-06	-7.894774e-10	-1.380960e+01	-5.670088e+01
1.420000e-06	-1.941272e-06	-7.824257e-10	-1.350358e+01	-5.609193e+01
1.430000e-06	-1.897200e-06	-7.764288e-10	-1.319701e+01	-5.547111e+01
1.440000e-06	-1.853082e-06	-7.668036e-10	-1.289013e+01	-5.483831e+01
1.450000e-06	-1.808889e-06	-7.554221e-10	-1.258272e+01	-5.419342e+01
1.460000e-06	-1.764648e-06	-7.409006e-10	-1.227497e+01	-5.353633e+01
1.470000e-06	-1.720344e-06	-7.252754e-10	-1.196679e+01	-5.286697e+01
1.480000e-06	-1.675813e-06	-7.118958e-10	-1.165703e+01	-5.218523e+01
1.490000e-06	-1.631038e-06	-7.003207e-10	-1.134558e+01	-5.149105e+01
1.500000e-06	-1.586063e-06	-6.889134e-10	-1.103273e+01	-5.078434e+01
1.510000e-06	-1.540978e-06	-6.795883e-10	-1.071912e+01	-5.006502e+01
1.520000e-06	-1.495776e-06	-6.690127e-10	-1.040469e+01	-4.933303e+01
1.530000e-06	-1.450489e-06	-6.533593e-10	-1.008967e+01	-4.858828e+01
1.540000e-06	-1.405122e-06	-6.385241e-10	-9.774094e+00	-4.783069e+01
1.550000e-06	-1.359638e-06	-6.269321e-10	-9.457705e+00	-4.706018e+01
1.560000e-06	-1.314140e-06	-6.171625e-10	-9.141219e+00	-4.627665e+01
1.570000e-06	-1.268582e-06	-6.073900e-10	-8.824318e+00	-4.548001e+01
1.580000e-06	-1.222904e-06	-5.978156e-10	-8.506578e+00	-4.467014e+01
1.590000e-06	-1.177072e-06	-5.859982e-10	-8.187767e+00	-4.384695e+01
1.600000e-06	-1.131241e-06	-5.706340e-10	-7.868965e+00	-4.301029e+01
1.610000e-06	-1.085370e-06	-5.552272e-10	-7.549885e+00	-4.216003e+01
1.620000e-06	-1.039363e-06	-5.419307e-10	-7.229861e+00	-4.129604e+01
1.630000e-06	-9.933362e-07	-5.291839e-10	-6.909694e+00	-4.041815e+01
1.640000e-06	-9.472548e-07	-5.164079e-10	-6.589150e+00	-3.952621e+01
1.650000e-06	-9.011373e-07	-5.016342e-10	-6.268354e+00	-3.862003e+01
1.660000e-06	-8.549652e-07	-4.877345e-10	-5.947179e+00	-3.769945e+01
1.670000e-06	-8.086664e-07	-4.734941e-10	-5.625122e+00	-3.676427e+01
1.680000e-06	-7.622913e-07	-4.600093e-10	-5.302535e+00	-3.581431e+01
1.690000e-06	-7.159107e-07	-4.448237e-10	-4.979909e+00	-3.484937e+01
1.700000e-06	-6.695499e-07	-4.291188e-10	-4.657421e+00	-3.386926e+01
1.710000e-06	-6.231728e-07	-4.117381e-10	-4.334820e+00	-3.287378e+01
1.720000e-06	-5.767019e-07	-3.958367e-10	-4.011566e+00	-3.186276e+01
1.730000e-06	-5.300984e-07	-3.818261e-10	-3.687390e+00	-3.083600e+01
1.740000e-06	-4.833187e-07	-3.685055e-10	-3.361988e+00	-2.979335e+01
1.750000e-06	-4.364939e-07	-3.556480e-10	-3.036273e+00	-2.873463e+01
1.760000e-06	-3.896973e-07	-3.428528e-10	-2.710753e+00	-2.765972e+01
1.770000e-06	-3.429031e-07	-3.268669e-10	-2.385250e+00	-2.656850e+01
1.780000e-06	-2.961694e-07	-3.084353e-10	-2.060169e+00	-2.546086e+01
1.790000e-06	-2.494478e-07	-2.892048e-10	-1.735171e+00	-2.433673e+01
1.800000e-06	-2.026360e-07	-2.695781e-10	-1.409546e+00	-2.319609e+01
1.810000e-06	-1.557937e-07	-2.510727e-10	-1.083709e+00	-2.203892e+01
1.820000e-06	-1.090020e-07	-2.349749e-10	-7.582234e-01	-2.086527e+01
1.830000e-06	-6.218211e-08	-2.224378e-10	-4.325417e-01	-1.967519e+01
1.840000e-06	-1.536180e-08	-2.094268e-10	-1.068574e-01	-1.846883e+01
1.850000e-06	3.144792e-08	-1.946080e-10	2.187532e-01	-1.724633e+01
1.860000e-06	7.822234e-08	-1.788872e-10	5.441183e-01	-1.600792e+01
1.870000e-06	1.249374e-07	-1.609332e-10	8.690705e-01	-1.475386e+01
1.880000e-06	1.717332e-07	-1.395899e-10	1.194584e+00	-1.348449e+01
1.890000e-06	2.185734e-07	-1.177819e-10	1.520407e+00	-1.220017e+01
1.900000e-06	2.653946e-07	-9.810635e-11	1.846097e+00	-1.090135e+01
1.910000e-06	3.122526e-07	-8.138697e-11	2.172044e+00	-9.588521e+00
1.920000e-06	3.590131e-07	-6.590536e-11	2.497312e+00	-8.262245e+00
1.930000e-06	4.057014e-07	-5.121647e-11	2.822078e+00	-6.923137e+00
1.940000e-06	4.522926e-07	-3.587199e-11	3.146169e+00	-5.571875e+00
1.950000e-06	4.988692e-07	-1.966495e-11	3.470158e+00	-4.209195e+00
1.960000e-06	5.453642e-07	-1.094820e-12	3.793579e+00	-2.835892e+00
1.970000e-06	5.917465e-07	1.949345e-11	4.116217e+00	-1.452820e+00
1.980000e-06	6.381729e-07	4.243807e-11	4.439161e+00	-6.088508e-02
1.990000e-06	6.845741e-07	6.531352e-11	4.761930e+00	1.338953e+00
2.000000e-06	7.309774e-07	8.686413e-11	5.084714e+00	2.745685e+00
2.010000e-06	7.773116e-07	1.072956e-10	5.407016e+00	4.158255e+00
2.020000e-06	8.235050e-07	1.267840e-10	5.728340e+00	5.575564e+00
2.030000e-06	8.696795e-07	1.445335e-10	6.049532e+00	6.996475e+00
2.040000e-06	9.157944e-07	1.640988e-10	6.370310e+00	8.419817e+00
2.050000e-06	9.618180e-07	1.843403e-10	6.690452e+00	9.844389e+00
2.060000e-06	1.007827e-06	2.034717e-10	7.010493e+00	1.126897e+01
2.070000e-06	1.053712e-06	2.256543e-10	7.329672e+00	1.269231e+01
2.080000e-06	1.099573e-06	2.494515e-10	7.648685e+00	1.411315e+01
2.090000e-06	1.145358e-06	2.716132e-10	7.967164e+00	1.553023e+01
2.100000e-06	1.191030e-06	2.917798e-10	8.284864e+00	1.694229e+01
2.110000e-06	1.236725e-06	3.098669e-10	8.602720e+00	1.834806e+01
2.120000e-06	1.282338e-06	3.260123e-10	8.920006e+00	1.974629e+01
2.130000e-06	1.327761e-06	3.425830e-10	9.235967e+00	2.113574e+01
2.140000e-06	1.373104e-06	3.611235e-10	9.551374e+00	2.251520e+01
2.150000e-06	1.418405e-06	3.781936e-10	9.866492e+00	2.388349e+01
2.160000e-06	1.463578e-06	3.924229e-10	1.018072e+01	2.523945e+01
2.170000e-06	1.508678e-06	4.091891e-10	1.049444e+01	2.658198e+01
2.180000e-06	1.553688e-06	4.279787e-10	1.080753e+01	2.791000e+01
2.190000e-06	1.598529e-06	4.467285e-10	1.111944e+01	2.922249e+01
2.200000e-06	1.643198e-06	4.655717e-10	1.143016e+01	3.051849e+01
2.210000e-06	1.687693e-06	4.838081e-10	1.173968e+01	3.179710e+01
2.220000e-06	1.732042e-06	4.988171e-10	1.204817e+01	3.305747e+01
2.230000e-06	1.776292e-06	5.126283e-10	1.235597e+01	3.429882e+01
2.240000e-06	1.820498e-06	5.265515e-10	1.266347e+01	3.552044e+01
2.250000e-06	1.864613e-06	5.415082e-10	1.297034e+01	3.672170e+01
2.260000e-06	1.908578e-06	5.554122e-10	1.327616e+01	3.790203e+01
2.270000e-06	1.952495e-06	5.689593e-10	1.358165e+01	3.906093e+01
2.280000e-06	1.996379e-06	5.850936e-10	1.388691e+01	4.019800e+01
2.290000e-06	2.040162e-06	6.031955e-10	1.419147e+01	4.131289e+01
2.300000e-06	2.083835e-06	6.196013e-10	1.449526e+01	4.240534e+01
2.310000e-06	2.127443e-06	6.337620e-10	1.479859e+01	4.347516e+01
2.320000e-06	2.171004e-06	6.456658e-10	1.510160e+01	4.452225e+01
2.330000e-06	2.214481e-06	6.563931e-10	1.540404e+01	4.554655e+01
2.340000e-06	2.257831e-06	6.648893e-10	1.570558e+01	4.654810e+01
2.350000e-06	2.300919e-06	6.725926e-10	1.600530e+01	4.752700e+01
2.360000e-06	2.343734e-06	6.843402e-10	1.630313e+01	4.848341e+01
2.370000e-06	2.386371e-06	6.980832e-10	1.659971e+01	4.941755e+01
2.380000e-06	2.428693e-06	7.136230e-10	1.689411e+01	5.032971e+01
2.390000e-06	2.470610e-06	7.308343e-10	1.718568e+01	5.122023e+01
2.400000e-06	2.512174e-06	7.466153e-10	1.747480e+01	5.208948e+01
2.410000e-06	2.553440e-06	7.578772e-10	1.776185e+01	5.293791e+01
2.420000e-06	2.594443e-06	7.672275e-10	1.804707e+01	5.376598e+01
2.430000e-06	2.635170e-06	7.763272e-10	1.833037e+01	5.457420e+01
2.440000e-06	2.675622e-06	7.855479e-10	1.861176e+01	5.536311e+01
2.450000e-06	2.715882e-06	7.978205e-10	1.889180e+01	5.613327e+01
2.460000e-06	2.755966e-06	8.113816e-10	1.917063e+01	5.688527e+01
2.470000e-06	2.795893e-06	8.231614e-10	1.944836e+01	5.761969e+01
2.480000e-06	2.835746e-06	8.354180e-10	1.972558e+01	5.833715e+01
2.490000e-06	2.875485e-06	8.471791e-10	2.000201e+01	5.903825e+01
2.500000e-06	2.915092e-06	8.591669e-10	2.027752e+01	5.972362e+01
2.510000e-06	2.954577e-06	8.713255e-10	2.055218e+01	6.039385e+01
2.520000e-06	2.994010e-06	8.825862e-10	2.082648e+01	6.104954e+01
2.530000e-06	3.033253e-06	8.919935e-10	2.109946e+01	6.169127e+01
2.540000e-06	3.072110e-06	8.980938e-10	2.136974e+01	6.231962e+01
2.550000e-06	3.110636e-06	9.021752e-10	2.163773e+01	6.293512e+01
2.560000e-06	3.148991e-06	9.090462e-10	2.190453e+01	6.353831e+01
2.570000e-06	3.187159e-06	9.195457e-10	2.217003e+01	6.412967e+01
2.580000e-06	3.225069e-06	9.296844e-10	2.243373e+01	6.470968e+01
2.590000e-06	3.262814e-06	9.396471e-10	2.269629e+01	6.527876e+01
2.600000e-06	3.300411e-06	9.504455e-10	2.295782e+01	6.583732e+01
2.610000e-06	3.337768e-06	9.598957e-10	2.321767e+01	6.638573e+01
2.620000e-06	3.374859e-06	9.680866e-10	2.347568e+01	6.692432e+01
2.630000e-06	3.411726e-06	9.748055e-10	2.373213e+01	6.745340e+01
2.640000e-06	3.448315e-06	9.798157e-10	2.398665e+01	6.797322e+01
2.650000e-06	3.484688e-06	9.858357e-10	2.423966e+01	6.848401e+01
2.660000e-06	3.520873e-06	9.933336e-10	2.449136e+01	6.898597e+01
2.670000e-06	3.556808e-06	9.997468e-10	2.474133e+01	6.947926e+01
2.680000e-06	3.592615e-06	1.004971e-09	2.499040e+01	6.996401e+01
2.690000e-06	3.628309e-06	1.012251e-09	2.523869e+01	7.044031e+01
2.700000e-06	3.663887e-06	1.021197e-09	2.548618e+01	7.090825e+01
2.710000e-06	3.699289e-06	1.030465e-09	2.573243e+01	7.136785e+01
2.720000e-06	3.734422e-06	1.040143e-09	2.597682e+01	7.181915e+01
2.730000e-06	3.769226e-06	1.048828e-09	2.621891e+01	7.226215e+01
2.740000e-06	3.803550e-06	1.054293e-09	2.645767e+01	7.269682e+01
2.750000e-06	3.837329e-06	1.057319e-09	2.669264e+01	7.312314e+01
2.760000e-06	3.870552e-06	1.060210e-09	2.692374e+01	7.354105e+01
2.770000e-06	3.903342e-06	1.066121e-09	2.715183e+01	7.395051e+01
2.780000e-06	3.935830e-06	1.074817e-09	2.737782e+01	7.435144e+01
2.790000e-06	3.967983e-06	1.085297e-09	2.760148e+01	7.474379e+01
2.800000e-06	3.999942e-06	1.097955e-09	2.782379e+01	7.512749e+01
2.810000e-06	4.031818e-06	1.109977e-09	2.804552e+01	7.550246e+01
2.820000e-06	4.063563e-06	1.116642e-09	2.826634e+01	7.586865e+01
2.830000e-06	4.095188e-06	1.118052e-09	2.848633e+01	7.622601e+01
2.840000e-06	4.126519e-06	1.117086e-09	2.870426e+01	7.657448e+01
2.850000e-06	4.157532e-06	1.116417e-09	2.891999e+01	7.691404e+01
2.860000e-06	4.188212e-06	1.118712e-09	2.913340e+01	7.724467e+01
2.870000e-06	4.218572e-06	1.123539e-09	2.934459e+01	7.756635e+01
2.880000e-06	4.248709e-06	1.131310e-09	2.955422e+01	7.787909e+01
2.890000e-06	4.278529e-06	1.140271e-09	2.976165e+01	7.818293e+01
2.900000e-06	4.308001e-06	1.146951e-09	2.996666e+01	7.847791e+01
