# Temperatura_=_12.55
# Concentracion g/m^3_=_1620.0
# C_Vs_to_Am_M_A/Vsm_=_65563218390.804596
# pendiente_HvsI_1/m_=_3716.3
# ordenada_HvsI_A/m_=_1297.0
# frecuencia_Hz_=_135102.36115983236

Tiempo_(s)	Campo_(V.s)	Magnetizacion_(V.s)	Campo_(kA/m)	Magnetizacion_(A/m)
0.000000e+00	-5.548973e-06	-7.490661e-10	-3.837752e+01	-5.141957e+01
1.000000e-08	-5.549141e-06	-7.496054e-10	-3.837869e+01	-5.142894e+01
2.000000e-08	-5.549073e-06	-7.520438e-10	-3.837822e+01	-5.144109e+01
3.000000e-08	-5.548697e-06	-7.540841e-10	-3.837562e+01	-5.145587e+01
4.000000e-08	-5.547831e-06	-7.522810e-10	-3.836963e+01	-5.147311e+01
5.000000e-08	-5.546460e-06	-7.480511e-10	-3.836015e+01	-5.149261e+01
6.000000e-08	-5.544539e-06	-7.436121e-10	-3.834686e+01	-5.151412e+01
7.000000e-08	-5.541953e-06	-7.388319e-10	-3.832897e+01	-5.153739e+01
8.000000e-08	-5.538747e-06	-7.192152e-10	-3.830680e+01	-5.156216e+01
9.000000e-08	-5.535097e-06	-7.063869e-10	-3.828156e+01	-5.158813e+01
1.000000e-07	-5.531129e-06	-7.630040e-10	-3.825411e+01	-5.161498e+01
1.100000e-07	-5.526845e-06	-8.065946e-10	-3.822448e+01	-5.164242e+01
1.200000e-07	-5.522265e-06	-7.635540e-10	-3.819281e+01	-5.167009e+01
1.300000e-07	-5.517453e-06	-6.649161e-10	-3.815953e+01	-5.169768e+01
1.400000e-07	-5.512354e-06	-7.034752e-10	-3.812426e+01	-5.172485e+01
1.500000e-07	-5.506806e-06	-7.704101e-10	-3.808589e+01	-5.175126e+01
1.600000e-07	-5.500821e-06	-7.461565e-10	-3.804450e+01	-5.177658e+01
1.700000e-07	-5.494512e-06	-6.799598e-10	-3.800087e+01	-5.180049e+01
1.800000e-07	-5.487825e-06	-7.169576e-10	-3.795462e+01	-5.182267e+01
1.900000e-07	-5.480701e-06	-8.101209e-10	-3.790535e+01	-5.184282e+01
2.000000e-07	-5.473194e-06	-7.848418e-10	-3.785343e+01	-5.186065e+01
2.100000e-07	-5.465462e-06	-7.318739e-10	-3.779995e+01	-5.187588e+01
2.200000e-07	-5.457513e-06	-7.245883e-10	-3.774497e+01	-5.188827e+01
2.300000e-07	-5.449150e-06	-7.836092e-10	-3.768714e+01	-5.189757e+01
2.400000e-07	-5.440280e-06	-7.836857e-10	-3.762579e+01	-5.190359e+01
2.500000e-07	-5.430904e-06	-7.735336e-10	-3.756095e+01	-5.190612e+01
2.600000e-07	-5.420895e-06	-7.654812e-10	-3.749172e+01	-5.190500e+01
2.700000e-07	-5.410177e-06	-7.949886e-10	-3.741760e+01	-5.190010e+01
2.800000e-07	-5.398949e-06	-7.854613e-10	-3.733994e+01	-5.189129e+01
2.900000e-07	-5.387353e-06	-7.782209e-10	-3.725974e+01	-5.187849e+01
3.000000e-07	-5.375416e-06	-7.786279e-10	-3.717718e+01	-5.186162e+01
3.100000e-07	-5.363107e-06	-8.018724e-10	-3.709205e+01	-5.184066e+01
3.200000e-07	-5.350407e-06	-8.013456e-10	-3.700421e+01	-5.181557e+01
3.300000e-07	-5.337300e-06	-7.822075e-10	-3.691356e+01	-5.178637e+01
3.400000e-07	-5.323777e-06	-7.771200e-10	-3.682004e+01	-5.175308e+01
3.500000e-07	-5.309843e-06	-7.979845e-10	-3.672367e+01	-5.171575e+01
3.600000e-07	-5.295518e-06	-7.878279e-10	-3.662460e+01	-5.167445e+01
3.700000e-07	-5.280729e-06	-7.639248e-10	-3.652231e+01	-5.162924e+01
3.800000e-07	-5.265442e-06	-7.893134e-10	-3.641658e+01	-5.158025e+01
3.900000e-07	-5.249635e-06	-8.113919e-10	-3.630726e+01	-5.152757e+01
4.000000e-07	-5.233287e-06	-7.699453e-10	-3.619420e+01	-5.147133e+01
4.100000e-07	-5.216568e-06	-7.547701e-10	-3.607856e+01	-5.141167e+01
4.200000e-07	-5.199521e-06	-8.060567e-10	-3.596067e+01	-5.134872e+01
4.300000e-07	-5.182093e-06	-7.796903e-10	-3.584013e+01	-5.128263e+01
4.400000e-07	-5.164338e-06	-7.353829e-10	-3.571733e+01	-5.121356e+01
4.500000e-07	-5.146308e-06	-7.808119e-10	-3.559263e+01	-5.114166e+01
4.600000e-07	-5.127907e-06	-8.230634e-10	-3.546537e+01	-5.106708e+01
4.700000e-07	-5.109054e-06	-7.472714e-10	-3.533498e+01	-5.098998e+01
4.800000e-07	-5.089791e-06	-7.427328e-10	-3.520176e+01	-5.091049e+01
4.900000e-07	-5.070268e-06	-7.949801e-10	-3.506673e+01	-5.082878e+01
5.000000e-07	-5.050575e-06	-7.685727e-10	-3.493054e+01	-5.074498e+01
5.100000e-07	-5.030680e-06	-7.267835e-10	-3.479294e+01	-5.065921e+01
5.200000e-07	-5.010469e-06	-7.901064e-10	-3.465315e+01	-5.057162e+01
5.300000e-07	-4.989781e-06	-7.864863e-10	-3.451008e+01	-5.048230e+01
5.400000e-07	-4.968719e-06	-7.365863e-10	-3.436440e+01	-5.039137e+01
5.500000e-07	-4.947344e-06	-7.733639e-10	-3.421657e+01	-5.029893e+01
5.600000e-07	-4.925616e-06	-8.059196e-10	-3.406630e+01	-5.020506e+01
5.700000e-07	-4.903612e-06	-7.328980e-10	-3.391411e+01	-5.010984e+01
5.800000e-07	-4.881248e-06	-7.317613e-10	-3.375944e+01	-5.001334e+01
5.900000e-07	-4.858454e-06	-7.829813e-10	-3.360179e+01	-4.991561e+01
6.000000e-07	-4.835277e-06	-7.567203e-10	-3.344150e+01	-4.981670e+01
6.100000e-07	-4.811875e-06	-7.352197e-10	-3.327965e+01	-4.971664e+01
6.200000e-07	-4.788305e-06	-7.821751e-10	-3.311664e+01	-4.961548e+01
6.300000e-07	-4.764474e-06	-7.658183e-10	-3.295181e+01	-4.951322e+01
6.400000e-07	-4.740393e-06	-7.187447e-10	-3.278527e+01	-4.940988e+01
6.500000e-07	-4.716004e-06	-7.460852e-10	-3.261659e+01	-4.930547e+01
6.600000e-07	-4.691104e-06	-7.591764e-10	-3.244438e+01	-4.919999e+01
6.700000e-07	-4.665616e-06	-7.273772e-10	-3.226810e+01	-4.909343e+01
6.800000e-07	-4.639598e-06	-7.387598e-10	-3.208815e+01	-4.898579e+01
6.900000e-07	-4.613108e-06	-7.632146e-10	-3.190495e+01	-4.887705e+01
7.000000e-07	-4.586115e-06	-7.347180e-10	-3.171826e+01	-4.876720e+01
7.100000e-07	-4.558740e-06	-7.291656e-10	-3.152893e+01	-4.865623e+01
7.200000e-07	-4.531203e-06	-7.482691e-10	-3.133848e+01	-4.854411e+01
7.300000e-07	-4.503460e-06	-7.349684e-10	-3.114660e+01	-4.843082e+01
7.400000e-07	-4.475523e-06	-7.193780e-10	-3.095339e+01	-4.831635e+01
7.500000e-07	-4.447392e-06	-7.422524e-10	-3.075883e+01	-4.820068e+01
7.600000e-07	-4.418924e-06	-7.386342e-10	-3.056194e+01	-4.808379e+01
7.700000e-07	-4.390074e-06	-7.249901e-10	-3.036241e+01	-4.796566e+01
7.800000e-07	-4.360985e-06	-7.318356e-10	-3.016122e+01	-4.784628e+01
7.900000e-07	-4.331613e-06	-7.336498e-10	-2.995809e+01	-4.772563e+01
8.000000e-07	-4.301865e-06	-7.146141e-10	-2.975234e+01	-4.760368e+01
8.100000e-07	-4.271866e-06	-7.254686e-10	-2.954486e+01	-4.748044e+01
8.200000e-07	-4.241617e-06	-7.377155e-10	-2.933566e+01	-4.735588e+01
8.300000e-07	-4.211120e-06	-7.263797e-10	-2.912474e+01	-4.722998e+01
8.400000e-07	-4.180367e-06	-7.210305e-10	-2.891204e+01	-4.710272e+01
8.500000e-07	-4.149297e-06	-7.297671e-10	-2.869716e+01	-4.697409e+01
8.600000e-07	-4.117929e-06	-7.137461e-10	-2.848022e+01	-4.684407e+01
8.700000e-07	-4.086325e-06	-7.006204e-10	-2.826164e+01	-4.671262e+01
8.800000e-07	-4.054593e-06	-7.060258e-10	-2.804217e+01	-4.657972e+01
8.900000e-07	-4.022710e-06	-7.038664e-10	-2.782166e+01	-4.644533e+01
9.000000e-07	-3.990538e-06	-6.935438e-10	-2.759916e+01	-4.630941e+01
9.100000e-07	-3.957941e-06	-6.997227e-10	-2.737371e+01	-4.617191e+01
9.200000e-07	-3.924920e-06	-7.011821e-10	-2.714534e+01	-4.603279e+01
9.300000e-07	-3.891576e-06	-6.883112e-10	-2.691472e+01	-4.589197e+01
9.400000e-07	-3.857860e-06	-6.870565e-10	-2.668154e+01	-4.574938e+01
9.500000e-07	-3.823706e-06	-6.921880e-10	-2.644533e+01	-4.560495e+01
9.600000e-07	-3.789110e-06	-6.831419e-10	-2.620605e+01	-4.545859e+01
9.700000e-07	-3.754091e-06	-6.753584e-10	-2.596386e+01	-4.531019e+01
9.800000e-07	-3.718730e-06	-6.804583e-10	-2.571929e+01	-4.515965e+01
9.900000e-07	-3.683117e-06	-6.753100e-10	-2.547299e+01	-4.500685e+01
1.000000e-06	-3.647390e-06	-6.661217e-10	-2.522589e+01	-4.485165e+01
1.010000e-06	-3.611570e-06	-6.663662e-10	-2.497816e+01	-4.469392e+01
1.020000e-06	-3.575591e-06	-6.687544e-10	-2.472932e+01	-4.453352e+01
1.030000e-06	-3.539459e-06	-6.621611e-10	-2.447943e+01	-4.437027e+01
1.040000e-06	-3.503132e-06	-6.618554e-10	-2.422818e+01	-4.420403e+01
1.050000e-06	-3.466477e-06	-6.608658e-10	-2.397468e+01	-4.403461e+01
1.060000e-06	-3.429506e-06	-6.514549e-10	-2.371897e+01	-4.386185e+01
1.070000e-06	-3.392290e-06	-6.430868e-10	-2.346158e+01	-4.368555e+01
1.080000e-06	-3.354869e-06	-6.453750e-10	-2.320278e+01	-4.350553e+01
1.090000e-06	-3.317240e-06	-6.436026e-10	-2.294253e+01	-4.332160e+01
1.100000e-06	-3.279314e-06	-6.411255e-10	-2.268023e+01	-4.313358e+01
1.110000e-06	-3.241126e-06	-6.391647e-10	-2.241611e+01	-4.294128e+01
1.120000e-06	-3.202753e-06	-6.354598e-10	-2.215072e+01	-4.274451e+01
1.130000e-06	-3.164194e-06	-6.274242e-10	-2.188404e+01	-4.254309e+01
1.140000e-06	-3.125393e-06	-6.251133e-10	-2.161569e+01	-4.233684e+01
1.150000e-06	-3.086382e-06	-6.231228e-10	-2.134588e+01	-4.212560e+01
1.160000e-06	-3.047174e-06	-6.162888e-10	-2.107471e+01	-4.190920e+01
1.170000e-06	-3.007776e-06	-6.094662e-10	-2.080223e+01	-4.168750e+01
1.180000e-06	-2.968209e-06	-6.068134e-10	-2.052858e+01	-4.146036e+01
1.190000e-06	-2.928500e-06	-6.024307e-10	-2.025394e+01	-4.122766e+01
1.200000e-06	-2.888656e-06	-5.997617e-10	-1.997838e+01	-4.098928e+01
1.210000e-06	-2.848629e-06	-5.992908e-10	-1.970155e+01	-4.074512e+01
1.220000e-06	-2.808473e-06	-5.961845e-10	-1.942382e+01	-4.049512e+01
1.230000e-06	-2.768175e-06	-5.923302e-10	-1.914511e+01	-4.023919e+01
1.240000e-06	-2.727699e-06	-5.909261e-10	-1.886518e+01	-3.997731e+01
1.250000e-06	-2.687022e-06	-5.888282e-10	-1.858384e+01	-3.970942e+01
1.260000e-06	-2.646043e-06	-5.827612e-10	-1.830043e+01	-3.943553e+01
1.270000e-06	-2.604740e-06	-5.784378e-10	-1.801477e+01	-3.915563e+01
1.280000e-06	-2.563093e-06	-5.764496e-10	-1.772674e+01	-3.886973e+01
1.290000e-06	-2.521109e-06	-5.723169e-10	-1.743637e+01	-3.857788e+01
1.300000e-06	-2.478854e-06	-5.650293e-10	-1.714412e+01	-3.828010e+01
1.310000e-06	-2.436389e-06	-5.618798e-10	-1.685043e+01	-3.797645e+01
1.320000e-06	-2.393650e-06	-5.583847e-10	-1.655484e+01	-3.766700e+01
1.330000e-06	-2.350609e-06	-5.537895e-10	-1.625716e+01	-3.735182e+01
1.340000e-06	-2.307372e-06	-5.511751e-10	-1.595813e+01	-3.703098e+01
1.350000e-06	-2.264048e-06	-5.474386e-10	-1.565849e+01	-3.670457e+01
1.360000e-06	-2.220646e-06	-5.398506e-10	-1.535832e+01	-3.637265e+01
1.370000e-06	-2.177088e-06	-5.341963e-10	-1.505706e+01	-3.603530e+01
1.380000e-06	-2.133370e-06	-5.296920e-10	-1.475470e+01	-3.569260e+01
1.390000e-06	-2.089579e-06	-5.271914e-10	-1.445184e+01	-3.534460e+01
1.400000e-06	-2.045740e-06	-5.251027e-10	-1.414864e+01	-3.499134e+01
1.410000e-06	-2.001808e-06	-5.230741e-10	-1.384480e+01	-3.463288e+01
1.420000e-06	-1.957764e-06	-5.183120e-10	-1.354019e+01	-3.426921e+01
1.430000e-06	-1.913620e-06	-5.128808e-10	-1.323488e+01	-3.390033e+01
1.440000e-06	-1.869340e-06	-5.060005e-10	-1.292864e+01	-3.352621e+01
1.450000e-06	-1.824911e-06	-4.981099e-10	-1.262136e+01	-3.314679e+01
1.460000e-06	-1.780386e-06	-4.892061e-10	-1.231342e+01	-3.276199e+01
1.470000e-06	-1.735747e-06	-4.808737e-10	-1.200468e+01	-3.237169e+01
1.480000e-06	-1.690975e-06	-4.746417e-10	-1.169503e+01	-3.197574e+01
1.490000e-06	-1.646045e-06	-4.684842e-10	-1.138429e+01	-3.157394e+01
1.500000e-06	-1.600951e-06	-4.623498e-10	-1.107242e+01	-3.116607e+01
1.510000e-06	-1.555698e-06	-4.554902e-10	-1.075944e+01	-3.075187e+01
1.520000e-06	-1.510297e-06	-4.451802e-10	-1.044544e+01	-3.033105e+01
1.530000e-06	-1.464873e-06	-4.329993e-10	-1.013128e+01	-2.990325e+01
1.540000e-06	-1.419340e-06	-4.218087e-10	-9.816367e+00	-2.946811e+01
1.550000e-06	-1.373704e-06	-4.135514e-10	-9.500745e+00	-2.902520e+01
1.560000e-06	-1.328079e-06	-4.094411e-10	-9.185194e+00	-2.857407e+01
1.570000e-06	-1.282389e-06	-4.072228e-10	-8.869197e+00	-2.811424e+01
1.580000e-06	-1.236578e-06	-4.037934e-10	-8.552356e+00	-2.764519e+01
1.590000e-06	-1.190596e-06	-3.960444e-10	-8.234339e+00	-2.716636e+01
1.600000e-06	-1.144507e-06	-3.843116e-10	-7.915579e+00	-2.667719e+01
1.610000e-06	-1.098370e-06	-3.701872e-10	-7.596492e+00	-2.617707e+01
1.620000e-06	-1.052190e-06	-3.575705e-10	-7.277105e+00	-2.566539e+01
1.630000e-06	-1.005869e-06	-3.489398e-10	-6.956739e+00	-2.514152e+01
1.640000e-06	-9.594512e-07	-3.413479e-10	-6.635708e+00	-2.460481e+01
1.650000e-06	-9.129693e-07	-3.324140e-10	-6.314232e+00	-2.405462e+01
1.660000e-06	-8.663351e-07	-3.253357e-10	-5.991703e+00	-2.349031e+01
1.670000e-06	-8.197712e-07	-3.166097e-10	-5.669660e+00	-2.291125e+01
1.680000e-06	-7.732844e-07	-3.071944e-10	-5.348151e+00	-2.231680e+01
1.690000e-06	-7.266414e-07	-2.959849e-10	-5.025561e+00	-2.170638e+01
1.700000e-06	-6.798834e-07	-2.831716e-10	-4.702175e+00	-2.107941e+01
1.710000e-06	-6.331041e-07	-2.691945e-10	-4.378642e+00	-2.043533e+01
1.720000e-06	-5.863203e-07	-2.573835e-10	-4.055079e+00	-1.977366e+01
1.730000e-06	-5.394989e-07	-2.487447e-10	-3.731255e+00	-1.909392e+01
1.740000e-06	-4.926804e-07	-2.414448e-10	-3.407452e+00	-1.839573e+01
1.750000e-06	-4.458132e-07	-2.336688e-10	-3.083310e+00	-1.767872e+01
1.760000e-06	-3.987812e-07	-2.240959e-10	-2.758031e+00	-1.694261e+01
1.770000e-06	-3.517229e-07	-2.110784e-10	-2.432568e+00	-1.618719e+01
1.780000e-06	-3.046475e-07	-1.976503e-10	-2.106988e+00	-1.541232e+01
1.790000e-06	-2.575885e-07	-1.849365e-10	-1.781520e+00	-1.461793e+01
1.800000e-06	-2.106013e-07	-1.695383e-10	-1.456550e+00	-1.380405e+01
1.810000e-06	-1.635913e-07	-1.545663e-10	-1.131422e+00	-1.297077e+01
1.820000e-06	-1.165810e-07	-1.423847e-10	-8.062913e-01	-1.211831e+01
1.830000e-06	-6.960813e-08	-1.338700e-10	-4.814202e-01	-1.124693e+01
1.840000e-06	-2.260853e-08	-1.256962e-10	-1.563640e-01	-1.035703e+01
1.850000e-06	2.450428e-08	-1.146571e-10	1.694753e-01	-9.449079e+00
1.860000e-06	7.160789e-08	-1.028918e-10	4.952509e-01	-8.523650e+00
1.870000e-06	1.186201e-07	-8.905889e-11	8.203943e-01	-7.581405e+00
1.880000e-06	1.656565e-07	-7.259723e-11	1.145705e+00	-6.623103e+00
1.890000e-06	2.127287e-07	-5.711708e-11	1.471264e+00	-5.649592e+00
1.900000e-06	2.597376e-07	-4.342115e-11	1.796384e+00	-4.661810e+00
1.910000e-06	3.066911e-07	-3.201713e-11	2.121121e+00	-3.660777e+00
1.920000e-06	3.536275e-07	-2.189380e-11	2.445741e+00	-2.647596e+00
1.930000e-06	4.005406e-07	-1.291471e-11	2.770199e+00	-1.623445e+00
1.940000e-06	4.474819e-07	-1.296117e-12	3.094852e+00	-5.895729e-01
1.950000e-06	4.944330e-07	1.144447e-11	3.419573e+00	4.527092e-01
1.960000e-06	5.412593e-07	2.517263e-11	3.743430e+00	1.502032e+00
1.970000e-06	5.879841e-07	3.984438e-11	4.066586e+00	2.556975e+00
1.980000e-06	6.347088e-07	5.549545e-11	4.389741e+00	3.616079e+00
1.990000e-06	6.813637e-07	7.110304e-11	4.712413e+00	4.677846e+00
2.000000e-06	7.279684e-07	8.556162e-11	5.034739e+00	5.740758e+00
2.010000e-06	7.745614e-07	9.867556e-11	5.356983e+00	6.803276e+00
2.020000e-06	8.211188e-07	1.108442e-10	5.678981e+00	7.863855e+00
2.030000e-06	8.676215e-07	1.235253e-10	6.000600e+00	8.920952e+00
2.040000e-06	9.140581e-07	1.376347e-10	6.321762e+00	9.973034e+00
2.050000e-06	9.603917e-07	1.520140e-10	6.642213e+00	1.101859e+01
2.060000e-06	1.006664e-06	1.668996e-10	6.962237e+00	1.205613e+01
2.070000e-06	1.052905e-06	1.820703e-10	7.282048e+00	1.308421e+01
2.080000e-06	1.099080e-06	1.967477e-10	7.601403e+00	1.410143e+01
2.090000e-06	1.145140e-06	2.106453e-10	7.919962e+00	1.510645e+01
2.100000e-06	1.191083e-06	2.233593e-10	8.237711e+00	1.609798e+01
2.110000e-06	1.237010e-06	2.352567e-10	8.555349e+00	1.707480e+01
2.120000e-06	1.282761e-06	2.474195e-10	8.871767e+00	1.803578e+01
2.130000e-06	1.328363e-06	2.609858e-10	9.187156e+00	1.897986e+01
2.140000e-06	1.373930e-06	2.738119e-10	9.502304e+00	1.990607e+01
2.150000e-06	1.419462e-06	2.853464e-10	9.817211e+00	2.081355e+01
2.160000e-06	1.464948e-06	2.965412e-10	1.013180e+01	2.170150e+01
2.170000e-06	1.510336e-06	3.081996e-10	1.044571e+01	2.256926e+01
2.180000e-06	1.555593e-06	3.194563e-10	1.075871e+01	2.341624e+01
2.190000e-06	1.600728e-06	3.306786e-10	1.107088e+01	2.424198e+01
2.200000e-06	1.645841e-06	3.419189e-10	1.138288e+01	2.504612e+01
2.210000e-06	1.690763e-06	3.534707e-10	1.169357e+01	2.582838e+01
2.220000e-06	1.735430e-06	3.651510e-10	1.200249e+01	2.658861e+01
2.230000e-06	1.780040e-06	3.761717e-10	1.231102e+01	2.732676e+01
2.240000e-06	1.824570e-06	3.857417e-10	1.261900e+01	2.804288e+01
2.250000e-06	1.868890e-06	3.946916e-10	1.292552e+01	2.873710e+01
2.260000e-06	1.913037e-06	4.027018e-10	1.323085e+01	2.940966e+01
2.270000e-06	1.957041e-06	4.116957e-10	1.353519e+01	3.006089e+01
2.280000e-06	2.000916e-06	4.225951e-10	1.383864e+01	3.069119e+01
2.290000e-06	2.044755e-06	4.336007e-10	1.414183e+01	3.130105e+01
2.300000e-06	2.088532e-06	4.426200e-10	1.444460e+01	3.189102e+01
2.310000e-06	2.132231e-06	4.502112e-10	1.474683e+01	3.246172e+01
2.320000e-06	2.175878e-06	4.569542e-10	1.504870e+01	3.301381e+01
2.330000e-06	2.219431e-06	4.633957e-10	1.534992e+01	3.354804e+01
2.340000e-06	2.262920e-06	4.697551e-10	1.565069e+01	3.406515e+01
2.350000e-06	2.306330e-06	4.760930e-10	1.595092e+01	3.456595e+01
2.360000e-06	2.349542e-06	4.828928e-10	1.624979e+01	3.505125e+01
2.370000e-06	2.392603e-06	4.898939e-10	1.654760e+01	3.552191e+01
2.380000e-06	2.435567e-06	4.966251e-10	1.684475e+01	3.597876e+01
2.390000e-06	2.478170e-06	5.040938e-10	1.713940e+01	3.642265e+01
2.400000e-06	2.520305e-06	5.125514e-10	1.743081e+01	3.685442e+01
2.410000e-06	2.562148e-06	5.201308e-10	1.772020e+01	3.727491e+01
2.420000e-06	2.603670e-06	5.266119e-10	1.800737e+01	3.768491e+01
2.430000e-06	2.644797e-06	5.327068e-10	1.829181e+01	3.808521e+01
2.440000e-06	2.685679e-06	5.381780e-10	1.857456e+01	3.847654e+01
2.450000e-06	2.726354e-06	5.439303e-10	1.885587e+01	3.885962e+01
2.460000e-06	2.766794e-06	5.513742e-10	1.913556e+01	3.923509e+01
2.470000e-06	2.806990e-06	5.570157e-10	1.941356e+01	3.960358e+01
2.480000e-06	2.846945e-06	5.608413e-10	1.968990e+01	3.996564e+01
2.490000e-06	2.886766e-06	5.656936e-10	1.996531e+01	4.032176e+01
2.500000e-06	2.926474e-06	5.721615e-10	2.023993e+01	4.067238e+01
2.510000e-06	2.966069e-06	5.794718e-10	2.051378e+01	4.101790e+01
2.520000e-06	3.005519e-06	5.855695e-10	2.078662e+01	4.135863e+01
2.530000e-06	3.044835e-06	5.892580e-10	2.105853e+01	4.169482e+01
2.540000e-06	3.083947e-06	5.920140e-10	2.132904e+01	4.202668e+01
2.550000e-06	3.122845e-06	5.936884e-10	2.159807e+01	4.235433e+01
2.560000e-06	3.161531e-06	5.967560e-10	2.186562e+01	4.267786e+01
2.570000e-06	3.199973e-06	6.028476e-10	2.213149e+01	4.299728e+01
2.580000e-06	3.238185e-06	6.096603e-10	2.239577e+01	4.331257e+01
2.590000e-06	3.276157e-06	6.156099e-10	2.265839e+01	4.362364e+01
2.600000e-06	3.313941e-06	6.206449e-10	2.291971e+01	4.393037e+01
2.610000e-06	3.351540e-06	6.245384e-10	2.317975e+01	4.423257e+01
2.620000e-06	3.388948e-06	6.281035e-10	2.343847e+01	4.453005e+01
2.630000e-06	3.426104e-06	6.325041e-10	2.369545e+01	4.482256e+01
2.640000e-06	3.463007e-06	6.358964e-10	2.395067e+01	4.510984e+01
2.650000e-06	3.499630e-06	6.372047e-10	2.420396e+01	4.539160e+01
2.660000e-06	3.535963e-06	6.385974e-10	2.445525e+01	4.566754e+01
2.670000e-06	3.572116e-06	6.412471e-10	2.470529e+01	4.593735e+01
2.680000e-06	3.608098e-06	6.451190e-10	2.495414e+01	4.620070e+01
2.690000e-06	3.643885e-06	6.495551e-10	2.520165e+01	4.645729e+01
2.700000e-06	3.679547e-06	6.537311e-10	2.544830e+01	4.670681e+01
2.710000e-06	3.715087e-06	6.573382e-10	2.569409e+01	4.694895e+01
2.720000e-06	3.750437e-06	6.606184e-10	2.593858e+01	4.718345e+01
2.730000e-06	3.785595e-06	6.646236e-10	2.618174e+01	4.741004e+01
2.740000e-06	3.820457e-06	6.688017e-10	2.642285e+01	4.762849e+01
2.750000e-06	3.854875e-06	6.720421e-10	2.666089e+01	4.783861e+01
2.760000e-06	3.888791e-06	6.737504e-10	2.689546e+01	4.804023e+01
2.770000e-06	3.922205e-06	6.758421e-10	2.712656e+01	4.823322e+01
2.780000e-06	3.955066e-06	6.804332e-10	2.735383e+01	4.841749e+01
2.790000e-06	3.987499e-06	6.864527e-10	2.757814e+01	4.859299e+01
2.800000e-06	4.019652e-06	6.918935e-10	2.780052e+01	4.875972e+01
2.810000e-06	4.051588e-06	6.968193e-10	2.802139e+01	4.891772e+01
2.820000e-06	4.083385e-06	6.997113e-10	2.824130e+01	4.906706e+01
2.830000e-06	4.115027e-06	7.004050e-10	2.846014e+01	4.920787e+01
2.840000e-06	4.146455e-06	7.009269e-10	2.867750e+01	4.934033e+01
2.850000e-06	4.177659e-06	7.016413e-10	2.889332e+01	4.946465e+01
2.860000e-06	4.208600e-06	7.043576e-10	2.910731e+01	4.958107e+01
2.870000e-06	4.239165e-06	7.093025e-10	2.931870e+01	4.968988e+01
2.880000e-06	4.269379e-06	7.140365e-10	2.952766e+01	4.979141e+01
2.890000e-06	4.299261e-06	7.195229e-10	2.973433e+01	4.988602e+01
2.900000e-06	4.328895e-06	7.237772e-10	2.993928e+01	4.997408e+01
