# Temperatura_=_-0.3
# Concentracion g/m^3_=_1620.0
# C_Vs_to_Am_M_A/Vsm_=_65563218390.804596
# pendiente_HvsI_1/m_=_3716.3
# ordenada_HvsI_A/m_=_1297.0
# frecuencia_Hz_=_135105.75079399638

Tiempo_(s)	Campo_(V.s)	Magnetizacion_(V.s)	Campo_(kA/m)	Magnetizacion_(A/m)
0.000000e+00	-5.514762e-06	-1.393404e-09	-3.837123e+01	-9.097594e+01
1.000000e-08	-5.514976e-06	-1.392850e-09	-3.837272e+01	-9.098097e+01
2.000000e-08	-5.514839e-06	-1.395964e-09	-3.837176e+01	-9.098468e+01
3.000000e-08	-5.514249e-06	-1.400229e-09	-3.836766e+01	-9.098699e+01
4.000000e-08	-5.513098e-06	-1.401604e-09	-3.835965e+01	-9.098784e+01
5.000000e-08	-5.511244e-06	-1.398260e-09	-3.834675e+01	-9.098714e+01
6.000000e-08	-5.508778e-06	-1.383884e-09	-3.832959e+01	-9.098480e+01
7.000000e-08	-5.505775e-06	-1.371614e-09	-3.830870e+01	-9.098069e+01
8.000000e-08	-5.502313e-06	-1.405932e-09	-3.828461e+01	-9.097471e+01
9.000000e-08	-5.498456e-06	-1.454733e-09	-3.825777e+01	-9.096672e+01
1.000000e-07	-5.494162e-06	-1.381336e-09	-3.822790e+01	-9.095658e+01
1.100000e-07	-5.489690e-06	-1.303164e-09	-3.819678e+01	-9.094417e+01
1.200000e-07	-5.485098e-06	-1.340173e-09	-3.816483e+01	-9.092932e+01
1.300000e-07	-5.480114e-06	-1.447544e-09	-3.813015e+01	-9.091190e+01
1.400000e-07	-5.474703e-06	-1.400148e-09	-3.809250e+01	-9.089175e+01
1.500000e-07	-5.468958e-06	-1.296680e-09	-3.805253e+01	-9.086872e+01
1.600000e-07	-5.462862e-06	-1.336393e-09	-3.801011e+01	-9.084267e+01
1.700000e-07	-5.456218e-06	-1.455282e-09	-3.796388e+01	-9.081343e+01
1.800000e-07	-5.449113e-06	-1.428859e-09	-3.791445e+01	-9.078089e+01
1.900000e-07	-5.441797e-06	-1.323684e-09	-3.786354e+01	-9.074488e+01
2.000000e-07	-5.434256e-06	-1.348383e-09	-3.781108e+01	-9.070529e+01
2.100000e-07	-5.426425e-06	-1.451341e-09	-3.775658e+01	-9.066198e+01
2.200000e-07	-5.418275e-06	-1.470457e-09	-3.769988e+01	-9.061485e+01
2.300000e-07	-5.409760e-06	-1.400355e-09	-3.764063e+01	-9.056377e+01
2.400000e-07	-5.400778e-06	-1.401289e-09	-3.757814e+01	-9.050865e+01
2.500000e-07	-5.391136e-06	-1.448247e-09	-3.751105e+01	-9.044940e+01
2.600000e-07	-5.380696e-06	-1.446398e-09	-3.743841e+01	-9.038593e+01
2.700000e-07	-5.369703e-06	-1.376732e-09	-3.736192e+01	-9.031818e+01
2.800000e-07	-5.358308e-06	-1.378288e-09	-3.728264e+01	-9.024608e+01
2.900000e-07	-5.346483e-06	-1.420537e-09	-3.720036e+01	-9.016957e+01
3.000000e-07	-5.334344e-06	-1.425066e-09	-3.711590e+01	-9.008862e+01
3.100000e-07	-5.321828e-06	-1.369609e-09	-3.702881e+01	-9.000318e+01
3.200000e-07	-5.308868e-06	-1.378782e-09	-3.693863e+01	-8.991323e+01
3.300000e-07	-5.295615e-06	-1.420687e-09	-3.684642e+01	-8.981875e+01
3.400000e-07	-5.282015e-06	-1.412570e-09	-3.675180e+01	-8.971973e+01
3.500000e-07	-5.267827e-06	-1.347345e-09	-3.665308e+01	-8.961615e+01
3.600000e-07	-5.253131e-06	-1.376446e-09	-3.655083e+01	-8.950802e+01
3.700000e-07	-5.238028e-06	-1.419983e-09	-3.644573e+01	-8.939533e+01
3.800000e-07	-5.222371e-06	-1.380057e-09	-3.633680e+01	-8.927810e+01
3.900000e-07	-5.206266e-06	-1.346459e-09	-3.622474e+01	-8.915633e+01
4.000000e-07	-5.189814e-06	-1.408349e-09	-3.611027e+01	-8.903003e+01
4.100000e-07	-5.173016e-06	-1.388682e-09	-3.599339e+01	-8.889921e+01
4.200000e-07	-5.155868e-06	-1.304365e-09	-3.587408e+01	-8.876388e+01
4.300000e-07	-5.138363e-06	-1.355172e-09	-3.575228e+01	-8.862405e+01
4.400000e-07	-5.120494e-06	-1.414800e-09	-3.562795e+01	-8.847974e+01
4.500000e-07	-5.102178e-06	-1.330559e-09	-3.550051e+01	-8.833094e+01
4.600000e-07	-5.083477e-06	-1.301192e-09	-3.537039e+01	-8.817766e+01
4.700000e-07	-5.064482e-06	-1.396732e-09	-3.523822e+01	-8.801991e+01
4.800000e-07	-5.045184e-06	-1.358771e-09	-3.510395e+01	-8.785768e+01
4.900000e-07	-5.025625e-06	-1.284916e-09	-3.496786e+01	-8.769097e+01
5.000000e-07	-5.005922e-06	-1.344949e-09	-3.483076e+01	-8.751977e+01
5.100000e-07	-4.985973e-06	-1.357683e-09	-3.469196e+01	-8.734406e+01
5.200000e-07	-4.965646e-06	-1.261003e-09	-3.455052e+01	-8.716385e+01
5.300000e-07	-4.944957e-06	-1.312223e-09	-3.440657e+01	-8.697910e+01
5.400000e-07	-4.923914e-06	-1.378252e-09	-3.426016e+01	-8.678980e+01
5.500000e-07	-4.902476e-06	-1.292977e-09	-3.411100e+01	-8.659593e+01
5.600000e-07	-4.880656e-06	-1.262441e-09	-3.395917e+01	-8.639748e+01
5.700000e-07	-4.858511e-06	-1.348168e-09	-3.380509e+01	-8.619441e+01
5.800000e-07	-4.836046e-06	-1.305546e-09	-3.364878e+01	-8.598671e+01
5.900000e-07	-4.813277e-06	-1.245721e-09	-3.349036e+01	-8.577436e+01
6.000000e-07	-4.790217e-06	-1.302418e-09	-3.332991e+01	-8.555734e+01
6.100000e-07	-4.766856e-06	-1.309763e-09	-3.316737e+01	-8.533564e+01
6.200000e-07	-4.743196e-06	-1.241994e-09	-3.300274e+01	-8.510925e+01
6.300000e-07	-4.719327e-06	-1.270782e-09	-3.283666e+01	-8.487817e+01
6.400000e-07	-4.695230e-06	-1.296433e-09	-3.266900e+01	-8.464240e+01
6.500000e-07	-4.670792e-06	-1.250909e-09	-3.249896e+01	-8.440195e+01
6.600000e-07	-4.645867e-06	-1.255738e-09	-3.232553e+01	-8.415684e+01
6.700000e-07	-4.620266e-06	-1.283777e-09	-3.214740e+01	-8.390709e+01
6.800000e-07	-4.594090e-06	-1.245082e-09	-3.196528e+01	-8.365274e+01
6.900000e-07	-4.567472e-06	-1.232698e-09	-3.178006e+01	-8.339385e+01
7.000000e-07	-4.540401e-06	-1.257576e-09	-3.159171e+01	-8.313045e+01
7.100000e-07	-4.512977e-06	-1.233671e-09	-3.140089e+01	-8.286263e+01
7.200000e-07	-4.485360e-06	-1.214826e-09	-3.120874e+01	-8.259046e+01
7.300000e-07	-4.457625e-06	-1.240042e-09	-3.101576e+01	-8.231402e+01
7.400000e-07	-4.429748e-06	-1.240197e-09	-3.082180e+01	-8.203343e+01
7.500000e-07	-4.401606e-06	-1.219387e-09	-3.062599e+01	-8.174878e+01
7.600000e-07	-4.373078e-06	-1.227116e-09	-3.042749e+01	-8.146020e+01
7.700000e-07	-4.344208e-06	-1.218804e-09	-3.022662e+01	-8.116783e+01
7.800000e-07	-4.315068e-06	-1.196563e-09	-3.002386e+01	-8.087179e+01
7.900000e-07	-4.285668e-06	-1.201586e-09	-2.981930e+01	-8.057223e+01
8.000000e-07	-4.255958e-06	-1.210211e-09	-2.961258e+01	-8.026931e+01
8.100000e-07	-4.225904e-06	-1.189920e-09	-2.940347e+01	-7.996318e+01
8.200000e-07	-4.195511e-06	-1.191758e-09	-2.919199e+01	-7.965400e+01
8.300000e-07	-4.164870e-06	-1.200629e-09	-2.897880e+01	-7.934193e+01
8.400000e-07	-4.133997e-06	-1.183135e-09	-2.876399e+01	-7.902714e+01
8.500000e-07	-4.102887e-06	-1.166634e-09	-2.854753e+01	-7.870979e+01
8.600000e-07	-4.071560e-06	-1.177471e-09	-2.832955e+01	-7.839002e+01
8.700000e-07	-4.040026e-06	-1.167993e-09	-2.811015e+01	-7.806800e+01
8.800000e-07	-4.008338e-06	-1.150880e-09	-2.788966e+01	-7.774386e+01
8.900000e-07	-3.976479e-06	-1.153904e-09	-2.766799e+01	-7.741775e+01
9.000000e-07	-3.944389e-06	-1.153036e-09	-2.744471e+01	-7.708978e+01
9.100000e-07	-3.911947e-06	-1.130410e-09	-2.721898e+01	-7.676007e+01
9.200000e-07	-3.879129e-06	-1.127936e-09	-2.699064e+01	-7.642871e+01
9.300000e-07	-3.845891e-06	-1.134495e-09	-2.675937e+01	-7.609578e+01
9.400000e-07	-3.812134e-06	-1.123783e-09	-2.652449e+01	-7.576133e+01
9.500000e-07	-3.777881e-06	-1.116643e-09	-2.628617e+01	-7.542542e+01
9.600000e-07	-3.743163e-06	-1.124912e-09	-2.604460e+01	-7.508806e+01
9.700000e-07	-3.708046e-06	-1.117073e-09	-2.580026e+01	-7.474925e+01
9.800000e-07	-3.672681e-06	-1.101177e-09	-2.555419e+01	-7.440895e+01
9.900000e-07	-3.637147e-06	-1.100696e-09	-2.530695e+01	-7.406713e+01
1.000000e-06	-3.601484e-06	-1.095968e-09	-2.505881e+01	-7.372370e+01
1.010000e-06	-3.565678e-06	-1.080528e-09	-2.480967e+01	-7.337856e+01
1.020000e-06	-3.529714e-06	-1.078291e-09	-2.455944e+01	-7.303160e+01
1.030000e-06	-3.493624e-06	-1.080189e-09	-2.430833e+01	-7.268265e+01
1.040000e-06	-3.457357e-06	-1.067594e-09	-2.405598e+01	-7.233156e+01
1.050000e-06	-3.420801e-06	-1.057310e-09	-2.380163e+01	-7.197811e+01
1.060000e-06	-3.384018e-06	-1.051327e-09	-2.354570e+01	-7.162209e+01
1.070000e-06	-3.346972e-06	-1.040686e-09	-2.328794e+01	-7.126326e+01
1.080000e-06	-3.309626e-06	-1.031239e-09	-2.302809e+01	-7.090135e+01
1.090000e-06	-3.272090e-06	-1.032983e-09	-2.276691e+01	-7.053609e+01
1.100000e-06	-3.234352e-06	-1.026875e-09	-2.250433e+01	-7.016717e+01
1.110000e-06	-3.196421e-06	-1.014599e-09	-2.224041e+01	-6.979428e+01
1.120000e-06	-3.158226e-06	-1.007406e-09	-2.197466e+01	-6.941710e+01
1.130000e-06	-3.119737e-06	-1.004573e-09	-2.170685e+01	-6.903529e+01
1.140000e-06	-3.081028e-06	-9.968412e-10	-2.143752e+01	-6.864850e+01
1.150000e-06	-3.042156e-06	-9.935302e-10	-2.116705e+01	-6.825639e+01
1.160000e-06	-3.003117e-06	-9.912692e-10	-2.089542e+01	-6.785861e+01
1.170000e-06	-2.963851e-06	-9.856235e-10	-2.062221e+01	-6.745479e+01
1.180000e-06	-2.924400e-06	-9.755716e-10	-2.034771e+01	-6.704459e+01
1.190000e-06	-2.884843e-06	-9.665315e-10	-2.007248e+01	-6.662766e+01
1.200000e-06	-2.845153e-06	-9.565966e-10	-1.979633e+01	-6.620366e+01
1.210000e-06	-2.805298e-06	-9.482983e-10	-1.951902e+01	-6.577225e+01
1.220000e-06	-2.765261e-06	-9.421695e-10	-1.924044e+01	-6.533311e+01
1.230000e-06	-2.725049e-06	-9.361761e-10	-1.896065e+01	-6.488595e+01
1.240000e-06	-2.684677e-06	-9.283774e-10	-1.867975e+01	-6.443045e+01
1.250000e-06	-2.644073e-06	-9.242253e-10	-1.839722e+01	-6.396635e+01
1.260000e-06	-2.603228e-06	-9.214612e-10	-1.811303e+01	-6.349340e+01
1.270000e-06	-2.562232e-06	-9.134765e-10	-1.782778e+01	-6.301134e+01
1.280000e-06	-2.520926e-06	-9.020529e-10	-1.754038e+01	-6.251996e+01
1.290000e-06	-2.479205e-06	-8.912813e-10	-1.725009e+01	-6.201907e+01
1.300000e-06	-2.437225e-06	-8.821940e-10	-1.695800e+01	-6.150848e+01
1.310000e-06	-2.395013e-06	-8.750460e-10	-1.666429e+01	-6.098804e+01
1.320000e-06	-2.352508e-06	-8.688134e-10	-1.636854e+01	-6.045761e+01
1.330000e-06	-2.309744e-06	-8.645034e-10	-1.607099e+01	-5.991708e+01
1.340000e-06	-2.266780e-06	-8.613041e-10	-1.577205e+01	-5.936635e+01
1.350000e-06	-2.223585e-06	-8.553029e-10	-1.547151e+01	-5.880534e+01
1.360000e-06	-2.180227e-06	-8.467999e-10	-1.516983e+01	-5.823398e+01
1.370000e-06	-2.136773e-06	-8.354293e-10	-1.486748e+01	-5.765223e+01
1.380000e-06	-2.093177e-06	-8.245102e-10	-1.456414e+01	-5.706006e+01
1.390000e-06	-2.049439e-06	-8.131092e-10	-1.425981e+01	-5.645743e+01
1.400000e-06	-2.005630e-06	-8.030150e-10	-1.395500e+01	-5.584432e+01
1.410000e-06	-1.961802e-06	-7.930327e-10	-1.365005e+01	-5.522073e+01
1.420000e-06	-1.917912e-06	-7.835048e-10	-1.334466e+01	-5.458665e+01
1.430000e-06	-1.873890e-06	-7.744972e-10	-1.303836e+01	-5.394206e+01
1.440000e-06	-1.829700e-06	-7.663404e-10	-1.273089e+01	-5.328696e+01
1.450000e-06	-1.785349e-06	-7.552375e-10	-1.242230e+01	-5.262131e+01
1.460000e-06	-1.740910e-06	-7.440265e-10	-1.211310e+01	-5.194510e+01
1.470000e-06	-1.696412e-06	-7.328994e-10	-1.180349e+01	-5.125828e+01
1.480000e-06	-1.651759e-06	-7.206247e-10	-1.149279e+01	-5.056080e+01
1.490000e-06	-1.606968e-06	-7.067451e-10	-1.118114e+01	-4.985259e+01
1.500000e-06	-1.562067e-06	-6.930920e-10	-1.086872e+01	-4.913356e+01
1.510000e-06	-1.517066e-06	-6.806635e-10	-1.055561e+01	-4.840360e+01
1.520000e-06	-1.471998e-06	-6.685444e-10	-1.024203e+01	-4.766257e+01
1.530000e-06	-1.426814e-06	-6.562580e-10	-9.927647e+00	-4.691031e+01
1.540000e-06	-1.381474e-06	-6.455952e-10	-9.612178e+00	-4.614664e+01
1.550000e-06	-1.335998e-06	-6.361149e-10	-9.295759e+00	-4.537135e+01
1.560000e-06	-1.290453e-06	-6.263542e-10	-8.978857e+00	-4.458418e+01
1.570000e-06	-1.244869e-06	-6.153049e-10	-8.661690e+00	-4.378488e+01
1.580000e-06	-1.199236e-06	-6.042673e-10	-8.344180e+00	-4.297315e+01
1.590000e-06	-1.153546e-06	-5.892867e-10	-8.026269e+00	-4.214866e+01
1.600000e-06	-1.107656e-06	-5.735994e-10	-7.706975e+00	-4.131107e+01
1.610000e-06	-1.061618e-06	-5.596560e-10	-7.386642e+00	-4.046001e+01
1.620000e-06	-1.015566e-06	-5.475397e-10	-7.066216e+00	-3.959507e+01
1.630000e-06	-9.694713e-07	-5.352388e-10	-6.745496e+00	-3.871586e+01
1.640000e-06	-9.233186e-07	-5.209445e-10	-6.424369e+00	-3.782192e+01
1.650000e-06	-8.770598e-07	-5.098237e-10	-6.102505e+00	-3.691283e+01
1.660000e-06	-8.308156e-07	-4.962671e-10	-5.780742e+00	-3.598812e+01
1.670000e-06	-7.845991e-07	-4.811611e-10	-5.459171e+00	-3.504734e+01
1.680000e-06	-7.382798e-07	-4.661650e-10	-5.136886e+00	-3.409002e+01
1.690000e-06	-6.918155e-07	-4.537560e-10	-4.813591e+00	-3.311572e+01
1.700000e-06	-6.453110e-07	-4.395944e-10	-4.490017e+00	-3.212397e+01
1.710000e-06	-5.988464e-07	-4.230814e-10	-4.166720e+00	-3.111435e+01
1.720000e-06	-5.523407e-07	-4.059731e-10	-3.843138e+00	-3.008644e+01
1.730000e-06	-5.057201e-07	-3.882146e-10	-3.518756e+00	-2.903984e+01
1.740000e-06	-4.590518e-07	-3.712343e-10	-3.194042e+00	-2.797419e+01
1.750000e-06	-4.124133e-07	-3.567673e-10	-2.869536e+00	-2.688918e+01
1.760000e-06	-3.657222e-07	-3.421097e-10	-2.544663e+00	-2.578450e+01
1.770000e-06	-3.190573e-07	-3.272443e-10	-2.219973e+00	-2.465992e+01
1.780000e-06	-2.723907e-07	-3.131687e-10	-1.895271e+00	-2.351526e+01
1.790000e-06	-2.255973e-07	-2.949244e-10	-1.569686e+00	-2.235037e+01
1.800000e-06	-1.787581e-07	-2.722834e-10	-1.243783e+00	-2.116519e+01
1.810000e-06	-1.319527e-07	-2.488191e-10	-9.181155e-01	-1.995972e+01
1.820000e-06	-8.510167e-08	-2.268506e-10	-5.921299e-01	-1.873401e+01
1.830000e-06	-3.818070e-08	-2.089101e-10	-2.656579e-01	-1.748820e+01
1.840000e-06	8.710675e-09	-1.942304e-10	6.060811e-02	-1.622251e+01
1.850000e-06	5.556852e-08	-1.826356e-10	3.866409e-01	-1.493723e+01
1.860000e-06	1.023596e-07	-1.681133e-10	7.122090e-01	-1.363274e+01
1.870000e-06	1.490535e-07	-1.477866e-10	1.037101e+00	-1.230949e+01
1.880000e-06	1.957649e-07	-1.248022e-10	1.362115e+00	-1.096802e+01
1.890000e-06	2.425475e-07	-1.012708e-10	1.687624e+00	-9.608956e+00
1.900000e-06	2.893640e-07	-7.987347e-11	2.013369e+00	-8.233007e+00
1.910000e-06	3.361622e-07	-6.096425e-11	2.338987e+00	-6.840965e+00
1.920000e-06	3.829082e-07	-4.525305e-11	2.664241e+00	-5.433702e+00
1.930000e-06	4.296401e-07	-2.851759e-11	2.989398e+00	-4.012170e+00
1.940000e-06	4.763621e-07	-1.163095e-11	3.314486e+00	-2.577395e+00
1.950000e-06	5.229801e-07	5.904749e-12	3.638849e+00	-1.130480e+00
1.960000e-06	5.694983e-07	2.406034e-11	3.962519e+00	3.274089e-01
1.970000e-06	6.160522e-07	4.405895e-11	4.286437e+00	1.795038e+00
1.980000e-06	6.625965e-07	6.560265e-11	4.610288e+00	3.271115e+00
1.990000e-06	7.089929e-07	8.770924e-11	4.933110e+00	4.754298e+00
2.000000e-06	7.551897e-07	1.097516e-10	5.254543e+00	6.243196e+00
2.010000e-06	8.013465e-07	1.317330e-10	5.575698e+00	7.736378e+00
2.020000e-06	8.474945e-07	1.525953e-10	5.896792e+00	9.232382e+00
2.030000e-06	8.936388e-07	1.724615e-10	6.217860e+00	1.072972e+01
2.040000e-06	9.398217e-07	1.898108e-10	6.539196e+00	1.222688e+01
2.050000e-06	9.858535e-07	2.073790e-10	6.859481e+00	1.372235e+01
2.060000e-06	1.031751e-06	2.271163e-10	7.178829e+00	1.521461e+01
2.070000e-06	1.077680e-06	2.496688e-10	7.498405e+00	1.670215e+01
2.080000e-06	1.123582e-06	2.738781e-10	7.817786e+00	1.818346e+01
2.090000e-06	1.169288e-06	2.983132e-10	8.135802e+00	1.965707e+01
2.100000e-06	1.214843e-06	3.217897e-10	8.452772e+00	2.112152e+01
2.110000e-06	1.260368e-06	3.416629e-10	8.769530e+00	2.257541e+01
2.120000e-06	1.305845e-06	3.590650e-10	9.085954e+00	2.401736e+01
2.130000e-06	1.351197e-06	3.749341e-10	9.401508e+00	2.544606e+01
2.140000e-06	1.396469e-06	3.910512e-10	9.716508e+00	2.686025e+01
2.150000e-06	1.441684e-06	4.078832e-10	1.003111e+01	2.825872e+01
2.160000e-06	1.486788e-06	4.269517e-10	1.034494e+01	2.964035e+01
2.170000e-06	1.531787e-06	4.489901e-10	1.065804e+01	3.100408e+01
2.180000e-06	1.576689e-06	4.718246e-10	1.097047e+01	3.234895e+01
2.190000e-06	1.621405e-06	4.930813e-10	1.128159e+01	3.367405e+01
2.200000e-06	1.665954e-06	5.119366e-10	1.159156e+01	3.497857e+01
2.210000e-06	1.710396e-06	5.282444e-10	1.190079e+01	3.626181e+01
2.220000e-06	1.754668e-06	5.444380e-10	1.220883e+01	3.752313e+01
2.230000e-06	1.798818e-06	5.600905e-10	1.251602e+01	3.876200e+01
2.240000e-06	1.842887e-06	5.759256e-10	1.282265e+01	3.997796e+01
2.250000e-06	1.886865e-06	5.928263e-10	1.312864e+01	4.117068e+01
2.260000e-06	1.930736e-06	6.095456e-10	1.343389e+01	4.233988e+01
2.270000e-06	1.974529e-06	6.250386e-10	1.373860e+01	4.348539e+01
2.280000e-06	2.018267e-06	6.399733e-10	1.404293e+01	4.460713e+01
2.290000e-06	2.061919e-06	6.537586e-10	1.434665e+01	4.570510e+01
2.300000e-06	2.105497e-06	6.678393e-10	1.464986e+01	4.677938e+01
2.310000e-06	2.149073e-06	6.812951e-10	1.495306e+01	4.783013e+01
2.320000e-06	2.192571e-06	6.941058e-10	1.525572e+01	4.885758e+01
2.330000e-06	2.235919e-06	7.066417e-10	1.555733e+01	4.986203e+01
2.340000e-06	2.279130e-06	7.195893e-10	1.585799e+01	5.084384e+01
2.350000e-06	2.322144e-06	7.328679e-10	1.615728e+01	5.180343e+01
2.360000e-06	2.364846e-06	7.460912e-10	1.645439e+01	5.274127e+01
2.370000e-06	2.407217e-06	7.586992e-10	1.674921e+01	5.365788e+01
2.380000e-06	2.449362e-06	7.719498e-10	1.704244e+01	5.455381e+01
2.390000e-06	2.491314e-06	7.870054e-10	1.733434e+01	5.542965e+01
2.400000e-06	2.533053e-06	8.016036e-10	1.762476e+01	5.628601e+01
2.410000e-06	2.574460e-06	8.165438e-10	1.791286e+01	5.712351e+01
2.420000e-06	2.615489e-06	8.307625e-10	1.819834e+01	5.794281e+01
2.430000e-06	2.656185e-06	8.414460e-10	1.848150e+01	5.874455e+01
2.440000e-06	2.696568e-06	8.515817e-10	1.876248e+01	5.952938e+01
2.450000e-06	2.736718e-06	8.641456e-10	1.904184e+01	6.029795e+01
2.460000e-06	2.776708e-06	8.762873e-10	1.932009e+01	6.105090e+01
2.470000e-06	2.816569e-06	8.868704e-10	1.959744e+01	6.178883e+01
2.480000e-06	2.856336e-06	8.967726e-10	1.987413e+01	6.251235e+01
2.490000e-06	2.895985e-06	9.087655e-10	2.015000e+01	6.322202e+01
2.500000e-06	2.935436e-06	9.222212e-10	2.042451e+01	6.391839e+01
2.510000e-06	2.974734e-06	9.358242e-10	2.069794e+01	6.460197e+01
2.520000e-06	3.013873e-06	9.495504e-10	2.097026e+01	6.527321e+01
2.530000e-06	3.052842e-06	9.618592e-10	2.124141e+01	6.593257e+01
2.540000e-06	3.091627e-06	9.704506e-10	2.151127e+01	6.658043e+01
2.550000e-06	3.130137e-06	9.757066e-10	2.177922e+01	6.721714e+01
2.560000e-06	3.168377e-06	9.811213e-10	2.204529e+01	6.784300e+01
2.570000e-06	3.206420e-06	9.892752e-10	2.230999e+01	6.845829e+01
2.580000e-06	3.244287e-06	9.991234e-10	2.257346e+01	6.906323e+01
2.590000e-06	3.281930e-06	1.009843e-09	2.283538e+01	6.965800e+01
2.600000e-06	3.319323e-06	1.021931e-09	2.309556e+01	7.024272e+01
2.610000e-06	3.356476e-06	1.033624e-09	2.335406e+01	7.081752e+01
2.620000e-06	3.393376e-06	1.044470e-09	2.361081e+01	7.138244e+01
2.630000e-06	3.430016e-06	1.051205e-09	2.386575e+01	7.193751e+01
2.640000e-06	3.466439e-06	1.054485e-09	2.411917e+01	7.248274e+01
2.650000e-06	3.502651e-06	1.059604e-09	2.437114e+01	7.301809e+01
2.660000e-06	3.538637e-06	1.066634e-09	2.462153e+01	7.354350e+01
2.670000e-06	3.574455e-06	1.076278e-09	2.487074e+01	7.405889e+01
2.680000e-06	3.610167e-06	1.085811e-09	2.511922e+01	7.456417e+01
2.690000e-06	3.645781e-06	1.094822e-09	2.536702e+01	7.505922e+01
2.700000e-06	3.681216e-06	1.103435e-09	2.561358e+01	7.554392e+01
2.710000e-06	3.716460e-06	1.110750e-09	2.585880e+01	7.601816e+01
2.720000e-06	3.751462e-06	1.118452e-09	2.610235e+01	7.648179e+01
2.730000e-06	3.785957e-06	1.126717e-09	2.634235e+01	7.693469e+01
2.740000e-06	3.819968e-06	1.132562e-09	2.657900e+01	7.737674e+01
2.750000e-06	3.853643e-06	1.136777e-09	2.681331e+01	7.780784e+01
2.760000e-06	3.886807e-06	1.140849e-09	2.704406e+01	7.822787e+01
2.770000e-06	3.919434e-06	1.145255e-09	2.727108e+01	7.863677e+01
2.780000e-06	3.951758e-06	1.150068e-09	2.749598e+01	7.903447e+01
2.790000e-06	3.983837e-06	1.156461e-09	2.771918e+01	7.942092e+01
2.800000e-06	4.015675e-06	1.165835e-09	2.794072e+01	7.979611e+01
2.810000e-06	4.047351e-06	1.175072e-09	2.816111e+01	8.016006e+01
2.820000e-06	4.078881e-06	1.181893e-09	2.838050e+01	8.051279e+01
2.830000e-06	4.110270e-06	1.186117e-09	2.859890e+01	8.085438e+01
2.840000e-06	4.141439e-06	1.187040e-09	2.881577e+01	8.118491e+01
2.850000e-06	4.172341e-06	1.188110e-09	2.903078e+01	8.150452e+01
2.860000e-06	4.202925e-06	1.190936e-09	2.924358e+01	8.181337e+01
2.870000e-06	4.233121e-06	1.194497e-09	2.945368e+01	8.211164e+01
2.880000e-06	4.262970e-06	1.201635e-09	2.966137e+01	8.239954e+01
2.890000e-06	4.292500e-06	1.210228e-09	2.986684e+01	8.267732e+01
2.900000e-06	4.321699e-06	1.218040e-09	3.007000e+01	8.294525e+01
