# Temperatura_=_-0.2
# Concentracion g/m^3_=_1620.0
# C_Vs_to_Am_M_A/Vsm_=_65563218390.804596
# pendiente_HvsI_1/m_=_3716.3
# ordenada_HvsI_A/m_=_1297.0
# frecuencia_Hz_=_135109.38021490516

Tiempo_(s)	Campo_(V.s)	Magnetizacion_(V.s)	Campo_(kA/m)	Magnetizacion_(A/m)
0.000000e+00	-5.516741e-06	-1.067385e-09	-3.836652e+01	-6.916754e+01
1.000000e-08	-5.516976e-06	-1.069139e-09	-3.836816e+01	-6.916879e+01
2.000000e-08	-5.516983e-06	-1.069910e-09	-3.836821e+01	-6.916990e+01
3.000000e-08	-5.516697e-06	-1.072287e-09	-3.836622e+01	-6.917080e+01
4.000000e-08	-5.515961e-06	-1.073332e-09	-3.836110e+01	-6.917140e+01
5.000000e-08	-5.514681e-06	-1.070930e-09	-3.835220e+01	-6.917159e+01
6.000000e-08	-5.512802e-06	-1.064133e-09	-3.833913e+01	-6.917126e+01
7.000000e-08	-5.510336e-06	-1.053539e-09	-3.832198e+01	-6.917030e+01
8.000000e-08	-5.507441e-06	-1.067509e-09	-3.830185e+01	-6.916857e+01
9.000000e-08	-5.504025e-06	-1.077208e-09	-3.827809e+01	-6.916593e+01
1.000000e-07	-5.500074e-06	-1.029370e-09	-3.825061e+01	-6.916224e+01
1.100000e-07	-5.495891e-06	-1.013349e-09	-3.822152e+01	-6.915735e+01
1.200000e-07	-5.491532e-06	-1.097267e-09	-3.819121e+01	-6.915112e+01
1.300000e-07	-5.486827e-06	-1.086360e-09	-3.815849e+01	-6.914340e+01
1.400000e-07	-5.481790e-06	-1.043477e-09	-3.812346e+01	-6.913405e+01
1.500000e-07	-5.476434e-06	-9.945079e-10	-3.808621e+01	-6.912292e+01
1.600000e-07	-5.470703e-06	-1.078775e-09	-3.804635e+01	-6.910989e+01
1.700000e-07	-5.464488e-06	-1.090234e-09	-3.800313e+01	-6.909481e+01
1.800000e-07	-5.457793e-06	-1.027339e-09	-3.795657e+01	-6.907758e+01
1.900000e-07	-5.450745e-06	-1.032098e-09	-3.790756e+01	-6.905809e+01
2.000000e-07	-5.443377e-06	-1.080091e-09	-3.785631e+01	-6.903622e+01
2.100000e-07	-5.435744e-06	-1.110390e-09	-3.780323e+01	-6.901190e+01
2.200000e-07	-5.427884e-06	-1.048797e-09	-3.774857e+01	-6.898505e+01
2.300000e-07	-5.419797e-06	-1.046286e-09	-3.769232e+01	-6.895560e+01
2.400000e-07	-5.411312e-06	-1.060649e-09	-3.763332e+01	-6.892350e+01
2.500000e-07	-5.402200e-06	-1.101507e-09	-3.756994e+01	-6.888871e+01
2.600000e-07	-5.392407e-06	-1.066760e-09	-3.750184e+01	-6.885122e+01
2.700000e-07	-5.382020e-06	-1.064925e-09	-3.742960e+01	-6.881100e+01
2.800000e-07	-5.371057e-06	-1.064840e-09	-3.735336e+01	-6.876805e+01
2.900000e-07	-5.359577e-06	-1.092879e-09	-3.727352e+01	-6.872238e+01
3.000000e-07	-5.347755e-06	-1.068386e-09	-3.719130e+01	-6.867401e+01
3.100000e-07	-5.335608e-06	-1.065475e-09	-3.710682e+01	-6.862297e+01
3.200000e-07	-5.323043e-06	-1.070190e-09	-3.701944e+01	-6.856930e+01
3.300000e-07	-5.310093e-06	-1.094945e-09	-3.692938e+01	-6.851303e+01
3.400000e-07	-5.296802e-06	-1.069400e-09	-3.683695e+01	-6.845421e+01
3.500000e-07	-5.283066e-06	-1.047925e-09	-3.674142e+01	-6.839290e+01
3.600000e-07	-5.268848e-06	-1.075082e-09	-3.664254e+01	-6.832914e+01
3.700000e-07	-5.254242e-06	-1.088656e-09	-3.654096e+01	-6.826300e+01
3.800000e-07	-5.239118e-06	-1.046534e-09	-3.643578e+01	-6.819451e+01
3.900000e-07	-5.223435e-06	-1.060641e-09	-3.632672e+01	-6.812374e+01
4.000000e-07	-5.207341e-06	-1.116046e-09	-3.621479e+01	-6.805073e+01
4.100000e-07	-5.190886e-06	-1.061546e-09	-3.610034e+01	-6.797551e+01
4.200000e-07	-5.174002e-06	-1.019952e-09	-3.598292e+01	-6.789812e+01
4.300000e-07	-5.156801e-06	-1.093656e-09	-3.586330e+01	-6.781859e+01
4.400000e-07	-5.139423e-06	-1.107857e-09	-3.574244e+01	-6.773692e+01
4.500000e-07	-5.121632e-06	-1.006113e-09	-3.561871e+01	-6.765314e+01
4.600000e-07	-5.103343e-06	-1.051248e-09	-3.549153e+01	-6.756722e+01
4.700000e-07	-5.084626e-06	-1.117453e-09	-3.536136e+01	-6.747916e+01
4.800000e-07	-5.065509e-06	-1.035246e-09	-3.522840e+01	-6.738893e+01
4.900000e-07	-5.046068e-06	-9.933297e-10	-3.509320e+01	-6.729649e+01
5.000000e-07	-5.026420e-06	-1.093995e-09	-3.495655e+01	-6.720179e+01
5.100000e-07	-5.006571e-06	-1.047756e-09	-3.481852e+01	-6.710476e+01
5.200000e-07	-4.986388e-06	-9.773542e-10	-3.467815e+01	-6.700534e+01
5.300000e-07	-4.965825e-06	-1.055827e-09	-3.453514e+01	-6.690343e+01
5.400000e-07	-4.944908e-06	-1.083009e-09	-3.438968e+01	-6.679896e+01
5.500000e-07	-4.923645e-06	-9.802194e-10	-3.424180e+01	-6.669181e+01
5.600000e-07	-4.902150e-06	-1.025547e-09	-3.409231e+01	-6.658189e+01
5.700000e-07	-4.880368e-06	-1.080484e-09	-3.394083e+01	-6.646908e+01
5.800000e-07	-4.858173e-06	-9.956718e-10	-3.378647e+01	-6.635327e+01
5.900000e-07	-4.835620e-06	-9.752003e-10	-3.362963e+01	-6.623434e+01
6.000000e-07	-4.812709e-06	-1.054951e-09	-3.347029e+01	-6.611217e+01
6.100000e-07	-4.789446e-06	-1.010784e-09	-3.330851e+01	-6.598665e+01
6.200000e-07	-4.765952e-06	-9.712718e-10	-3.314512e+01	-6.585767e+01
6.300000e-07	-4.742275e-06	-1.029106e-09	-3.298046e+01	-6.572513e+01
6.400000e-07	-4.718326e-06	-1.019472e-09	-3.281390e+01	-6.558892e+01
6.500000e-07	-4.694101e-06	-9.682522e-10	-3.264542e+01	-6.544895e+01
6.600000e-07	-4.669597e-06	-1.007266e-09	-3.247501e+01	-6.530517e+01
6.700000e-07	-4.644622e-06	-1.018641e-09	-3.230132e+01	-6.515749e+01
6.800000e-07	-4.619028e-06	-9.688071e-10	-3.212333e+01	-6.500587e+01
6.900000e-07	-4.592874e-06	-9.815348e-10	-3.194144e+01	-6.485029e+01
7.000000e-07	-4.566276e-06	-1.000168e-09	-3.175646e+01	-6.469072e+01
7.100000e-07	-4.539264e-06	-9.682360e-10	-3.156860e+01	-6.452717e+01
7.200000e-07	-4.511889e-06	-9.708906e-10	-3.137822e+01	-6.435967e+01
7.300000e-07	-4.484323e-06	-1.004136e-09	-3.118651e+01	-6.418826e+01
7.400000e-07	-4.456535e-06	-9.861289e-10	-3.099326e+01	-6.401300e+01
7.500000e-07	-4.428428e-06	-9.804817e-10	-3.079779e+01	-6.383398e+01
7.600000e-07	-4.400104e-06	-9.920711e-10	-3.060080e+01	-6.365131e+01
7.700000e-07	-4.371522e-06	-9.703636e-10	-3.040203e+01	-6.346511e+01
7.800000e-07	-4.342638e-06	-9.437626e-10	-3.020116e+01	-6.327552e+01
7.900000e-07	-4.313477e-06	-9.604929e-10	-2.999835e+01	-6.308271e+01
8.000000e-07	-4.283984e-06	-9.538201e-10	-2.979324e+01	-6.288685e+01
8.100000e-07	-4.254156e-06	-9.440041e-10	-2.958580e+01	-6.268814e+01
8.200000e-07	-4.224038e-06	-9.612468e-10	-2.937634e+01	-6.248678e+01
8.300000e-07	-4.193688e-06	-9.712850e-10	-2.916527e+01	-6.228300e+01
8.400000e-07	-4.163082e-06	-9.426943e-10	-2.895242e+01	-6.207701e+01
8.500000e-07	-4.132177e-06	-9.386592e-10	-2.873749e+01	-6.186905e+01
8.600000e-07	-4.100986e-06	-9.429107e-10	-2.852057e+01	-6.165935e+01
8.700000e-07	-4.069531e-06	-9.279212e-10	-2.830182e+01	-6.144816e+01
8.800000e-07	-4.037928e-06	-9.196458e-10	-2.808203e+01	-6.123570e+01
8.900000e-07	-4.006240e-06	-9.364550e-10	-2.786165e+01	-6.102220e+01
9.000000e-07	-3.974328e-06	-9.300753e-10	-2.763971e+01	-6.080789e+01
9.100000e-07	-3.942087e-06	-9.158870e-10	-2.741550e+01	-6.059296e+01
9.200000e-07	-3.909537e-06	-9.206356e-10	-2.718912e+01	-6.037762e+01
9.300000e-07	-3.876559e-06	-9.180555e-10	-2.695978e+01	-6.016204e+01
9.400000e-07	-3.843095e-06	-8.983423e-10	-2.672705e+01	-5.994637e+01
9.500000e-07	-3.809249e-06	-8.988181e-10	-2.649166e+01	-5.973075e+01
9.600000e-07	-3.774941e-06	-9.077090e-10	-2.625307e+01	-5.951529e+01
9.700000e-07	-3.740225e-06	-8.988840e-10	-2.601163e+01	-5.930006e+01
9.800000e-07	-3.705255e-06	-8.956434e-10	-2.576843e+01	-5.908511e+01
9.900000e-07	-3.669998e-06	-9.018405e-10	-2.552324e+01	-5.887047e+01
1.000000e-06	-3.634502e-06	-8.942919e-10	-2.527637e+01	-5.865610e+01
1.010000e-06	-3.598816e-06	-8.807710e-10	-2.502819e+01	-5.844197e+01
1.020000e-06	-3.562997e-06	-8.831120e-10	-2.477909e+01	-5.822799e+01
1.030000e-06	-3.527015e-06	-8.803655e-10	-2.452885e+01	-5.801402e+01
1.040000e-06	-3.490804e-06	-8.704753e-10	-2.427702e+01	-5.779993e+01
1.050000e-06	-3.454387e-06	-8.679421e-10	-2.402375e+01	-5.758550e+01
1.060000e-06	-3.417713e-06	-8.719153e-10	-2.376870e+01	-5.737052e+01
1.070000e-06	-3.380788e-06	-8.646678e-10	-2.351191e+01	-5.715471e+01
1.080000e-06	-3.343616e-06	-8.615921e-10	-2.325339e+01	-5.693779e+01
1.090000e-06	-3.306157e-06	-8.579853e-10	-2.299288e+01	-5.671941e+01
1.100000e-06	-3.268479e-06	-8.470513e-10	-2.273085e+01	-5.649924e+01
1.110000e-06	-3.230637e-06	-8.334637e-10	-2.246767e+01	-5.627687e+01
1.120000e-06	-3.192568e-06	-8.307354e-10	-2.220291e+01	-5.605191e+01
1.130000e-06	-3.154204e-06	-8.273189e-10	-2.193611e+01	-5.582393e+01
1.140000e-06	-3.115610e-06	-8.261820e-10	-2.166771e+01	-5.559247e+01
1.150000e-06	-3.076839e-06	-8.270291e-10	-2.139807e+01	-5.535707e+01
1.160000e-06	-3.037865e-06	-8.254003e-10	-2.112703e+01	-5.511727e+01
1.170000e-06	-2.998718e-06	-8.156403e-10	-2.085478e+01	-5.487258e+01
1.180000e-06	-2.959395e-06	-8.084767e-10	-2.058130e+01	-5.462252e+01
1.190000e-06	-2.919908e-06	-8.017135e-10	-2.030669e+01	-5.436660e+01
1.200000e-06	-2.880264e-06	-7.955720e-10	-2.003098e+01	-5.410435e+01
1.210000e-06	-2.840475e-06	-7.926342e-10	-1.975427e+01	-5.383528e+01
1.220000e-06	-2.800573e-06	-7.934332e-10	-1.947676e+01	-5.355895e+01
1.230000e-06	-2.760505e-06	-7.913511e-10	-1.919811e+01	-5.327490e+01
1.240000e-06	-2.720258e-06	-7.879193e-10	-1.891821e+01	-5.298270e+01
1.250000e-06	-2.679848e-06	-7.828389e-10	-1.863718e+01	-5.268195e+01
1.260000e-06	-2.639266e-06	-7.747996e-10	-1.835494e+01	-5.237227e+01
1.270000e-06	-2.598425e-06	-7.691842e-10	-1.807091e+01	-5.205330e+01
1.280000e-06	-2.557177e-06	-7.640134e-10	-1.778405e+01	-5.172471e+01
1.290000e-06	-2.515550e-06	-7.568213e-10	-1.749455e+01	-5.138622e+01
1.300000e-06	-2.473724e-06	-7.471266e-10	-1.720367e+01	-5.103754e+01
1.310000e-06	-2.431694e-06	-7.405219e-10	-1.691137e+01	-5.067846e+01
1.320000e-06	-2.389378e-06	-7.356454e-10	-1.661708e+01	-5.030878e+01
1.330000e-06	-2.346777e-06	-7.322377e-10	-1.632081e+01	-4.992833e+01
1.340000e-06	-2.303988e-06	-7.297929e-10	-1.602323e+01	-4.953700e+01
1.350000e-06	-2.260976e-06	-7.264576e-10	-1.572410e+01	-4.913469e+01
1.360000e-06	-2.217692e-06	-7.177040e-10	-1.542308e+01	-4.872133e+01
1.370000e-06	-2.174299e-06	-7.078147e-10	-1.512130e+01	-4.829690e+01
1.380000e-06	-2.130831e-06	-6.983482e-10	-1.481900e+01	-4.786140e+01
1.390000e-06	-2.087241e-06	-6.896809e-10	-1.451585e+01	-4.741485e+01
1.400000e-06	-2.043565e-06	-6.812056e-10	-1.421211e+01	-4.695731e+01
1.410000e-06	-1.999822e-06	-6.753170e-10	-1.390789e+01	-4.648884e+01
1.420000e-06	-1.955925e-06	-6.668679e-10	-1.360261e+01	-4.600955e+01
1.430000e-06	-1.911869e-06	-6.591172e-10	-1.329622e+01	-4.551953e+01
1.440000e-06	-1.867743e-06	-6.526876e-10	-1.298934e+01	-4.501890e+01
1.450000e-06	-1.823504e-06	-6.476749e-10	-1.268168e+01	-4.450778e+01
1.460000e-06	-1.779206e-06	-6.376023e-10	-1.237360e+01	-4.398631e+01
1.470000e-06	-1.734858e-06	-6.240380e-10	-1.206518e+01	-4.345460e+01
1.480000e-06	-1.690338e-06	-6.096723e-10	-1.175556e+01	-4.291277e+01
1.490000e-06	-1.645660e-06	-5.977877e-10	-1.144485e+01	-4.236094e+01
1.500000e-06	-1.600877e-06	-5.871842e-10	-1.113340e+01	-4.179920e+01
1.510000e-06	-1.555911e-06	-5.797377e-10	-1.082068e+01	-4.122763e+01
1.520000e-06	-1.510770e-06	-5.742072e-10	-1.050675e+01	-4.064630e+01
1.530000e-06	-1.465524e-06	-5.650575e-10	-1.019208e+01	-4.005523e+01
1.540000e-06	-1.420202e-06	-5.546898e-10	-9.876888e+00	-3.945443e+01
1.550000e-06	-1.374885e-06	-5.427558e-10	-9.561725e+00	-3.884388e+01
1.560000e-06	-1.329540e-06	-5.315207e-10	-9.246368e+00	-3.822353e+01
1.570000e-06	-1.284100e-06	-5.205392e-10	-8.930354e+00	-3.759329e+01
1.580000e-06	-1.238553e-06	-5.105792e-10	-8.613596e+00	-3.695304e+01
1.590000e-06	-1.192879e-06	-5.010922e-10	-8.295955e+00	-3.630260e+01
1.600000e-06	-1.147088e-06	-4.904348e-10	-7.977494e+00	-3.564179e+01
1.610000e-06	-1.101218e-06	-4.795880e-10	-7.658492e+00	-3.497037e+01
1.620000e-06	-1.055287e-06	-4.684717e-10	-7.339061e+00	-3.428806e+01
1.630000e-06	-1.009216e-06	-4.564428e-10	-7.018659e+00	-3.359457e+01
1.640000e-06	-9.630007e-07	-4.460410e-10	-6.697250e+00	-3.288954e+01
1.650000e-06	-9.167377e-07	-4.345341e-10	-6.375511e+00	-3.217262e+01
1.660000e-06	-8.703738e-07	-4.213529e-10	-6.053070e+00	-3.144339e+01
1.670000e-06	-8.240077e-07	-4.068335e-10	-5.730614e+00	-3.070145e+01
1.680000e-06	-7.776345e-07	-3.955574e-10	-5.408109e+00	-2.994633e+01
1.690000e-06	-7.311780e-07	-3.834569e-10	-5.085024e+00	-2.917759e+01
1.700000e-06	-6.847163e-07	-3.730565e-10	-4.761903e+00	-2.839475e+01
1.710000e-06	-6.382040e-07	-3.602935e-10	-4.438430e+00	-2.759733e+01
1.720000e-06	-5.916612e-07	-3.457946e-10	-4.114745e+00	-2.678484e+01
1.730000e-06	-5.451233e-07	-3.306823e-10	-3.791095e+00	-2.595683e+01
1.740000e-06	-4.985817e-07	-3.165806e-10	-3.467418e+00	-2.511282e+01
1.750000e-06	-4.519445e-07	-3.048960e-10	-3.143077e+00	-2.425237e+01
1.760000e-06	-4.052320e-07	-2.937372e-10	-2.818212e+00	-2.337506e+01
1.770000e-06	-3.585109e-07	-2.825639e-10	-2.493287e+00	-2.248049e+01
1.780000e-06	-3.117103e-07	-2.702977e-10	-2.167809e+00	-2.156831e+01
1.790000e-06	-2.649493e-07	-2.568422e-10	-1.842607e+00	-2.063822e+01
1.800000e-06	-2.181779e-07	-2.387337e-10	-1.517332e+00	-1.968993e+01
1.810000e-06	-1.713183e-07	-2.200409e-10	-1.191444e+00	-1.872326e+01
1.820000e-06	-1.244493e-07	-2.018251e-10	-8.654904e-01	-1.773805e+01
1.830000e-06	-7.756004e-08	-1.868596e-10	-5.393963e-01	-1.673423e+01
1.840000e-06	-3.069310e-08	-1.755041e-10	-2.134571e-01	-1.571177e+01
1.850000e-06	1.615179e-08	-1.648703e-10	1.123287e-01	-1.467076e+01
1.860000e-06	6.294936e-08	-1.555903e-10	4.377853e-01	-1.361132e+01
1.870000e-06	1.097245e-07	-1.414268e-10	7.630858e-01	-1.253371e+01
1.880000e-06	1.565009e-07	-1.217353e-10	1.088395e+00	-1.143821e+01
1.890000e-06	2.031886e-07	-1.028896e-10	1.413088e+00	-1.032525e+01
1.900000e-06	2.499318e-07	-8.568323e-11	1.738167e+00	-9.195302e+00
1.910000e-06	2.968004e-07	-7.208159e-11	2.064117e+00	-8.048952e+00
1.920000e-06	3.435582e-07	-5.806198e-11	2.389297e+00	-6.886867e+00
1.930000e-06	3.901372e-07	-4.678160e-11	2.713234e+00	-5.709805e+00
1.940000e-06	4.367320e-07	-3.357909e-11	3.037280e+00	-4.518610e+00
1.950000e-06	4.833830e-07	-1.963824e-11	3.361718e+00	-3.314211e+00
1.960000e-06	5.299819e-07	-5.631987e-12	3.685793e+00	-2.097619e+00
1.970000e-06	5.764965e-07	9.450559e-12	4.009281e+00	-8.699212e-01
1.980000e-06	6.229896e-07	2.622245e-11	4.332621e+00	3.677206e-01
1.990000e-06	6.694166e-07	4.406924e-11	4.655500e+00	1.614077e+00
2.000000e-06	7.156693e-07	6.329771e-11	4.977168e+00	2.867856e+00
2.010000e-06	7.618745e-07	8.377635e-11	5.298505e+00	4.127711e+00
2.020000e-06	8.080970e-07	1.028855e-10	5.619962e+00	5.392244e+00
2.030000e-06	8.543339e-07	1.193608e-10	5.941519e+00	6.660018e+00
2.040000e-06	9.005343e-07	1.352412e-10	6.262823e+00	7.929560e+00
2.050000e-06	9.466759e-07	1.500161e-10	6.583718e+00	9.199372e+00
2.060000e-06	9.927690e-07	1.651689e-10	6.904276e+00	1.046794e+01
2.070000e-06	1.038752e-06	1.826040e-10	7.224065e+00	1.173374e+01
2.080000e-06	1.084662e-06	2.030897e-10	7.543354e+00	1.299525e+01
2.090000e-06	1.130519e-06	2.244925e-10	7.862266e+00	1.425094e+01
2.100000e-06	1.176314e-06	2.439810e-10	8.180750e+00	1.549933e+01
2.110000e-06	1.222065e-06	2.623775e-10	8.498929e+00	1.673895e+01
2.120000e-06	1.267717e-06	2.779045e-10	8.816415e+00	1.796835e+01
2.130000e-06	1.313174e-06	2.932614e-10	9.132552e+00	1.918614e+01
2.140000e-06	1.358481e-06	3.074121e-10	9.447642e+00	2.039097e+01
2.150000e-06	1.403730e-06	3.209365e-10	9.762332e+00	2.158157e+01
2.160000e-06	1.448878e-06	3.356141e-10	1.007631e+01	2.275670e+01
2.170000e-06	1.493872e-06	3.543337e-10	1.038923e+01	2.391523e+01
2.180000e-06	1.538716e-06	3.739488e-10	1.070110e+01	2.505607e+01
2.190000e-06	1.583494e-06	3.909367e-10	1.101251e+01	2.617825e+01
2.200000e-06	1.628235e-06	4.047031e-10	1.132367e+01	2.728085e+01
2.210000e-06	1.672831e-06	4.176868e-10	1.163381e+01	2.836307e+01
2.220000e-06	1.717234e-06	4.318664e-10	1.194261e+01	2.942419e+01
2.230000e-06	1.761534e-06	4.467542e-10	1.225070e+01	3.046360e+01
2.240000e-06	1.805782e-06	4.590342e-10	1.255842e+01	3.148077e+01
2.250000e-06	1.849956e-06	4.699109e-10	1.286563e+01	3.247528e+01
2.260000e-06	1.894020e-06	4.809783e-10	1.317209e+01	3.344681e+01
2.270000e-06	1.937955e-06	4.934662e-10	1.347763e+01	3.439514e+01
2.280000e-06	1.981788e-06	5.062370e-10	1.378247e+01	3.532013e+01
2.290000e-06	2.025556e-06	5.191743e-10	1.408686e+01	3.622177e+01
2.300000e-06	2.069261e-06	5.319558e-10	1.439081e+01	3.710011e+01
2.310000e-06	2.112898e-06	5.440585e-10	1.469429e+01	3.795530e+01
2.320000e-06	2.156461e-06	5.560130e-10	1.499725e+01	3.878757e+01
2.330000e-06	2.199985e-06	5.665584e-10	1.529993e+01	3.959723e+01
2.340000e-06	2.243381e-06	5.752797e-10	1.560173e+01	4.038468e+01
2.350000e-06	2.286501e-06	5.853409e-10	1.590161e+01	4.115037e+01
2.360000e-06	2.329454e-06	5.960200e-10	1.620034e+01	4.189481e+01
2.370000e-06	2.372254e-06	6.055193e-10	1.649799e+01	4.261858e+01
2.380000e-06	2.414692e-06	6.155767e-10	1.679313e+01	4.332229e+01
2.390000e-06	2.456739e-06	6.258495e-10	1.708555e+01	4.400662e+01
2.400000e-06	2.498481e-06	6.371263e-10	1.737585e+01	4.467224e+01
2.410000e-06	2.539981e-06	6.479833e-10	1.766446e+01	4.531989e+01
2.420000e-06	2.581324e-06	6.582725e-10	1.795198e+01	4.595031e+01
2.430000e-06	2.622386e-06	6.690411e-10	1.823755e+01	4.656424e+01
2.440000e-06	2.663129e-06	6.799756e-10	1.852090e+01	4.716246e+01
2.450000e-06	2.703627e-06	6.896565e-10	1.880255e+01	4.774571e+01
2.460000e-06	2.743848e-06	6.982182e-10	1.908227e+01	4.831474e+01
2.470000e-06	2.783867e-06	7.063175e-10	1.936058e+01	4.887029e+01
2.480000e-06	2.823710e-06	7.147002e-10	1.963767e+01	4.941306e+01
2.490000e-06	2.863444e-06	7.227720e-10	1.991400e+01	4.994376e+01
2.500000e-06	2.903087e-06	7.320275e-10	2.018971e+01	5.046302e+01
2.510000e-06	2.942602e-06	7.419538e-10	2.046451e+01	5.097147e+01
2.520000e-06	2.981936e-06	7.502384e-10	2.073807e+01	5.146969e+01
2.530000e-06	3.021098e-06	7.570679e-10	2.101042e+01	5.195822e+01
2.540000e-06	3.060086e-06	7.628714e-10	2.128156e+01	5.243755e+01
2.550000e-06	3.098840e-06	7.667463e-10	2.155108e+01	5.290812e+01
2.560000e-06	3.137395e-06	7.702235e-10	2.181921e+01	5.337032e+01
2.570000e-06	3.175687e-06	7.747572e-10	2.208551e+01	5.382450e+01
2.580000e-06	3.213700e-06	7.803396e-10	2.234988e+01	5.427094e+01
2.590000e-06	3.251510e-06	7.869110e-10	2.261284e+01	5.470991e+01
2.600000e-06	3.289115e-06	7.941181e-10	2.287436e+01	5.514157e+01
2.610000e-06	3.326519e-06	8.018473e-10	2.313449e+01	5.556609e+01
2.620000e-06	3.363713e-06	8.107381e-10	2.339315e+01	5.598355e+01
2.630000e-06	3.400662e-06	8.181998e-10	2.365012e+01	5.639401e+01
2.640000e-06	3.437385e-06	8.227062e-10	2.390551e+01	5.679749e+01
2.650000e-06	3.473819e-06	8.247483e-10	2.415890e+01	5.719396e+01
2.660000e-06	3.509971e-06	8.262191e-10	2.441032e+01	5.758336e+01
2.670000e-06	3.545927e-06	8.287704e-10	2.466038e+01	5.796561e+01
2.680000e-06	3.581775e-06	8.330002e-10	2.490969e+01	5.834058e+01
2.690000e-06	3.617537e-06	8.406771e-10	2.515839e+01	5.870814e+01
2.700000e-06	3.653156e-06	8.492349e-10	2.540610e+01	5.906814e+01
2.710000e-06	3.688588e-06	8.565999e-10	2.565252e+01	5.942041e+01
2.720000e-06	3.723748e-06	8.635577e-10	2.589704e+01	5.976477e+01
2.730000e-06	3.758532e-06	8.716368e-10	2.613895e+01	6.010105e+01
2.740000e-06	3.792929e-06	8.757450e-10	2.637817e+01	6.042907e+01
2.750000e-06	3.826924e-06	8.772730e-10	2.661458e+01	6.074865e+01
2.760000e-06	3.860475e-06	8.795237e-10	2.684792e+01	6.105964e+01
2.770000e-06	3.893511e-06	8.829949e-10	2.707767e+01	6.136187e+01
2.780000e-06	3.926147e-06	8.881475e-10	2.730464e+01	6.165523e+01
2.790000e-06	3.958521e-06	8.937914e-10	2.752978e+01	6.193960e+01
2.800000e-06	3.990599e-06	9.008935e-10	2.775288e+01	6.221488e+01
2.810000e-06	4.022430e-06	9.078095e-10	2.797424e+01	6.248101e+01
2.820000e-06	4.054112e-06	9.152762e-10	2.819458e+01	6.273797e+01
2.830000e-06	4.085690e-06	9.212266e-10	2.841419e+01	6.298573e+01
2.840000e-06	4.117095e-06	9.231624e-10	2.863260e+01	6.322432e+01
2.850000e-06	4.148210e-06	9.220758e-10	2.884899e+01	6.345381e+01
2.860000e-06	4.179004e-06	9.204548e-10	2.906315e+01	6.367428e+01
2.870000e-06	4.209436e-06	9.209935e-10	2.927479e+01	6.388585e+01
2.880000e-06	4.239507e-06	9.238723e-10	2.948392e+01	6.408868e+01
2.890000e-06	4.269342e-06	9.301978e-10	2.969141e+01	6.428295e+01
2.900000e-06	4.298962e-06	9.375502e-10	2.989741e+01	6.446888e+01
