# Temperatura_=_-0.26
# Concentracion g/m^3_=_1620.0
# C_Vs_to_Am_M_A/Vsm_=_65563218390.804596
# pendiente_HvsI_1/m_=_3716.3
# ordenada_HvsI_A/m_=_1297.0
# frecuencia_Hz_=_135108.39098300273

Tiempo_(s)	Campo_(V.s)	Magnetizacion_(V.s)	Campo_(kA/m)	Magnetizacion_(A/m)
0.000000e+00	-5.514277e-06	-1.220810e-09	-3.837518e+01	-8.087715e+01
1.000000e-08	-5.514353e-06	-1.222639e-09	-3.837571e+01	-8.088267e+01
2.000000e-08	-5.514114e-06	-1.222590e-09	-3.837405e+01	-8.088575e+01
3.000000e-08	-5.513456e-06	-1.219075e-09	-3.836947e+01	-8.088615e+01
4.000000e-08	-5.512254e-06	-1.212422e-09	-3.836111e+01	-8.088364e+01
5.000000e-08	-5.510494e-06	-1.207431e-09	-3.834885e+01	-8.087799e+01
6.000000e-08	-5.508179e-06	-1.207529e-09	-3.833275e+01	-8.086896e+01
7.000000e-08	-5.505366e-06	-1.217187e-09	-3.831317e+01	-8.085634e+01
8.000000e-08	-5.502034e-06	-1.208634e-09	-3.828998e+01	-8.083989e+01
9.000000e-08	-5.498202e-06	-1.176880e-09	-3.826331e+01	-8.081942e+01
1.000000e-07	-5.493960e-06	-1.175596e-09	-3.823379e+01	-8.079471e+01
1.100000e-07	-5.489490e-06	-1.208629e-09	-3.820268e+01	-8.076560e+01
1.200000e-07	-5.484858e-06	-1.218036e-09	-3.817045e+01	-8.073189e+01
1.300000e-07	-5.479890e-06	-1.208023e-09	-3.813587e+01	-8.069345e+01
1.400000e-07	-5.474574e-06	-1.189069e-09	-3.809888e+01	-8.065012e+01
1.500000e-07	-5.468913e-06	-1.201681e-09	-3.805948e+01	-8.060179e+01
1.600000e-07	-5.462824e-06	-1.208942e-09	-3.801711e+01	-8.054836e+01
1.700000e-07	-5.456273e-06	-1.202800e-09	-3.797152e+01	-8.048974e+01
1.800000e-07	-5.449388e-06	-1.194685e-09	-3.792361e+01	-8.042590e+01
1.900000e-07	-5.442134e-06	-1.182032e-09	-3.787312e+01	-8.035678e+01
2.000000e-07	-5.434490e-06	-1.192551e-09	-3.781992e+01	-8.028237e+01
2.100000e-07	-5.426624e-06	-1.226859e-09	-3.776518e+01	-8.020269e+01
2.200000e-07	-5.418478e-06	-1.253834e-09	-3.770849e+01	-8.011776e+01
2.300000e-07	-5.409899e-06	-1.255102e-09	-3.764879e+01	-8.002764e+01
2.400000e-07	-5.400754e-06	-1.254515e-09	-3.758515e+01	-7.993240e+01
2.500000e-07	-5.390980e-06	-1.252144e-09	-3.751713e+01	-7.983213e+01
2.600000e-07	-5.380639e-06	-1.244355e-09	-3.744516e+01	-7.972695e+01
2.700000e-07	-5.369795e-06	-1.234779e-09	-3.736970e+01	-7.961699e+01
2.800000e-07	-5.358516e-06	-1.235110e-09	-3.729120e+01	-7.950240e+01
2.900000e-07	-5.346868e-06	-1.235897e-09	-3.721014e+01	-7.938334e+01
3.000000e-07	-5.334807e-06	-1.238186e-09	-3.712620e+01	-7.925999e+01
3.100000e-07	-5.322304e-06	-1.235720e-09	-3.703920e+01	-7.913254e+01
3.200000e-07	-5.309369e-06	-1.237731e-09	-3.694918e+01	-7.900118e+01
3.300000e-07	-5.296047e-06	-1.221341e-09	-3.685646e+01	-7.886612e+01
3.400000e-07	-5.282333e-06	-1.205081e-09	-3.676103e+01	-7.872758e+01
3.500000e-07	-5.268240e-06	-1.204018e-09	-3.666295e+01	-7.858577e+01
3.600000e-07	-5.253686e-06	-1.201833e-09	-3.656166e+01	-7.844092e+01
3.700000e-07	-5.238601e-06	-1.197935e-09	-3.645668e+01	-7.829324e+01
3.800000e-07	-5.223064e-06	-1.216954e-09	-3.634856e+01	-7.814296e+01
3.900000e-07	-5.207070e-06	-1.222404e-09	-3.623726e+01	-7.799028e+01
4.000000e-07	-5.190639e-06	-1.187648e-09	-3.612291e+01	-7.783542e+01
4.100000e-07	-5.173841e-06	-1.183671e-09	-3.600601e+01	-7.767858e+01
4.200000e-07	-5.156756e-06	-1.207060e-09	-3.588711e+01	-7.751996e+01
4.300000e-07	-5.139428e-06	-1.189002e-09	-3.576652e+01	-7.735974e+01
4.400000e-07	-5.121716e-06	-1.169743e-09	-3.564325e+01	-7.719809e+01
4.500000e-07	-5.103515e-06	-1.198977e-09	-3.551659e+01	-7.703518e+01
4.600000e-07	-5.084915e-06	-1.196507e-09	-3.538715e+01	-7.687114e+01
4.700000e-07	-5.065967e-06	-1.160120e-09	-3.525528e+01	-7.670613e+01
4.800000e-07	-5.046708e-06	-1.182043e-09	-3.512126e+01	-7.654024e+01
4.900000e-07	-5.027161e-06	-1.198457e-09	-3.498522e+01	-7.637359e+01
5.000000e-07	-5.007338e-06	-1.154416e-09	-3.484727e+01	-7.620626e+01
5.100000e-07	-4.987266e-06	-1.156306e-09	-3.470758e+01	-7.603831e+01
5.200000e-07	-4.966935e-06	-1.197606e-09	-3.456610e+01	-7.586981e+01
5.300000e-07	-4.946305e-06	-1.169681e-09	-3.442253e+01	-7.570079e+01
5.400000e-07	-4.925327e-06	-1.145399e-09	-3.427654e+01	-7.553127e+01
5.500000e-07	-4.903938e-06	-1.180096e-09	-3.412768e+01	-7.536125e+01
5.600000e-07	-4.882222e-06	-1.167042e-09	-3.397656e+01	-7.519073e+01
5.700000e-07	-4.860214e-06	-1.129031e-09	-3.382340e+01	-7.501968e+01
5.800000e-07	-4.837873e-06	-1.156762e-09	-3.366793e+01	-7.484808e+01
5.900000e-07	-4.815116e-06	-1.167490e-09	-3.350955e+01	-7.467586e+01
6.000000e-07	-4.791953e-06	-1.129361e-09	-3.334835e+01	-7.450298e+01
6.100000e-07	-4.768549e-06	-1.140143e-09	-3.318548e+01	-7.432937e+01
6.200000e-07	-4.744926e-06	-1.160452e-09	-3.302108e+01	-7.415494e+01
6.300000e-07	-4.721031e-06	-1.129610e-09	-3.285479e+01	-7.397961e+01
6.400000e-07	-4.696786e-06	-1.124933e-09	-3.268606e+01	-7.380329e+01
6.500000e-07	-4.672132e-06	-1.150323e-09	-3.251449e+01	-7.362588e+01
6.600000e-07	-4.647082e-06	-1.131275e-09	-3.234016e+01	-7.344729e+01
6.700000e-07	-4.621609e-06	-1.113087e-09	-3.216289e+01	-7.326741e+01
6.800000e-07	-4.595592e-06	-1.127158e-09	-3.198183e+01	-7.308613e+01
6.900000e-07	-4.569024e-06	-1.119960e-09	-3.179694e+01	-7.290335e+01
7.000000e-07	-4.541987e-06	-1.101198e-09	-3.160878e+01	-7.271897e+01
7.100000e-07	-4.514600e-06	-1.110232e-09	-3.141819e+01	-7.253288e+01
7.200000e-07	-4.487056e-06	-1.110898e-09	-3.122650e+01	-7.234498e+01
7.300000e-07	-4.459355e-06	-1.095231e-09	-3.103372e+01	-7.215518e+01
7.400000e-07	-4.431409e-06	-1.097526e-09	-3.083924e+01	-7.196337e+01
7.500000e-07	-4.403267e-06	-1.098395e-09	-3.064340e+01	-7.176947e+01
7.600000e-07	-4.374849e-06	-1.079529e-09	-3.044563e+01	-7.157340e+01
7.700000e-07	-4.346036e-06	-1.072953e-09	-3.024511e+01	-7.137507e+01
7.800000e-07	-4.316829e-06	-1.076117e-09	-3.004185e+01	-7.117440e+01
7.900000e-07	-4.287276e-06	-1.065498e-09	-2.983618e+01	-7.097133e+01
8.000000e-07	-4.257482e-06	-1.060098e-09	-2.962884e+01	-7.076579e+01
8.100000e-07	-4.227414e-06	-1.068421e-09	-2.941959e+01	-7.055772e+01
8.200000e-07	-4.197086e-06	-1.065364e-09	-2.920853e+01	-7.034705e+01
8.300000e-07	-4.166538e-06	-1.053759e-09	-2.899594e+01	-7.013374e+01
8.400000e-07	-4.135636e-06	-1.052573e-09	-2.878089e+01	-6.991774e+01
8.500000e-07	-4.104454e-06	-1.046915e-09	-2.856388e+01	-6.969900e+01
8.600000e-07	-4.073136e-06	-1.032902e-09	-2.834594e+01	-6.947747e+01
8.700000e-07	-4.041650e-06	-1.030087e-09	-2.812682e+01	-6.925311e+01
8.800000e-07	-4.009963e-06	-1.033445e-09	-2.790630e+01	-6.902587e+01
8.900000e-07	-3.978012e-06	-1.025462e-09	-2.768394e+01	-6.879572e+01
9.000000e-07	-3.945780e-06	-1.019449e-09	-2.745963e+01	-6.856260e+01
9.100000e-07	-3.913254e-06	-1.019668e-09	-2.723328e+01	-6.832648e+01
9.200000e-07	-3.880309e-06	-1.011558e-09	-2.700400e+01	-6.808729e+01
9.300000e-07	-3.846876e-06	-1.003167e-09	-2.677133e+01	-6.784500e+01
9.400000e-07	-3.812961e-06	-1.006949e-09	-2.653531e+01	-6.759955e+01
9.500000e-07	-3.778678e-06	-1.005400e-09	-2.629673e+01	-6.735086e+01
9.600000e-07	-3.744042e-06	-9.941804e-10	-2.605569e+01	-6.709889e+01
9.700000e-07	-3.709091e-06	-9.907066e-10	-2.581246e+01	-6.684356e+01
9.800000e-07	-3.673879e-06	-9.897865e-10	-2.556741e+01	-6.658478e+01
9.900000e-07	-3.638417e-06	-9.814186e-10	-2.532062e+01	-6.632248e+01
1.000000e-06	-3.602827e-06	-9.764185e-10	-2.507294e+01	-6.605657e+01
1.010000e-06	-3.567090e-06	-9.764796e-10	-2.482424e+01	-6.578695e+01
1.020000e-06	-3.531138e-06	-9.711679e-10	-2.457404e+01	-6.551351e+01
1.030000e-06	-3.494958e-06	-9.636323e-10	-2.432225e+01	-6.523615e+01
1.040000e-06	-3.458547e-06	-9.609515e-10	-2.406886e+01	-6.495474e+01
1.050000e-06	-3.421973e-06	-9.533174e-10	-2.381433e+01	-6.466917e+01
1.060000e-06	-3.385203e-06	-9.406288e-10	-2.355844e+01	-6.437930e+01
1.070000e-06	-3.348126e-06	-9.354391e-10	-2.330042e+01	-6.408499e+01
1.080000e-06	-3.310746e-06	-9.335549e-10	-2.304028e+01	-6.378611e+01
1.090000e-06	-3.273120e-06	-9.282999e-10	-2.277843e+01	-6.348252e+01
1.100000e-06	-3.235326e-06	-9.243876e-10	-2.251542e+01	-6.317405e+01
1.110000e-06	-3.197359e-06	-9.214080e-10	-2.225119e+01	-6.286057e+01
1.120000e-06	-3.159042e-06	-9.148870e-10	-2.198453e+01	-6.254191e+01
1.130000e-06	-3.120463e-06	-9.090510e-10	-2.171606e+01	-6.221791e+01
1.140000e-06	-3.081775e-06	-9.036633e-10	-2.144681e+01	-6.188844e+01
1.150000e-06	-3.042961e-06	-8.942778e-10	-2.117670e+01	-6.155331e+01
1.160000e-06	-3.003967e-06	-8.845874e-10	-2.090533e+01	-6.121239e+01
1.170000e-06	-2.964762e-06	-8.790453e-10	-2.063249e+01	-6.086551e+01
1.180000e-06	-2.925355e-06	-8.738156e-10	-2.035825e+01	-6.051253e+01
1.190000e-06	-2.885773e-06	-8.686604e-10	-2.008279e+01	-6.015328e+01
1.200000e-06	-2.846050e-06	-8.654745e-10	-1.980634e+01	-5.978764e+01
1.210000e-06	-2.806148e-06	-8.617345e-10	-1.952866e+01	-5.941544e+01
1.220000e-06	-2.766068e-06	-8.553330e-10	-1.924974e+01	-5.903656e+01
1.230000e-06	-2.725906e-06	-8.508763e-10	-1.897023e+01	-5.865086e+01
1.240000e-06	-2.685660e-06	-8.467322e-10	-1.869016e+01	-5.825822e+01
1.250000e-06	-2.645163e-06	-8.399888e-10	-1.840833e+01	-5.785849e+01
1.260000e-06	-2.604289e-06	-8.351529e-10	-1.812387e+01	-5.745157e+01
1.270000e-06	-2.563096e-06	-8.331336e-10	-1.783720e+01	-5.703734e+01
1.280000e-06	-2.521740e-06	-8.290530e-10	-1.754940e+01	-5.661568e+01
1.290000e-06	-2.480109e-06	-8.206765e-10	-1.725968e+01	-5.618648e+01
1.300000e-06	-2.438244e-06	-8.107334e-10	-1.696833e+01	-5.574963e+01
1.310000e-06	-2.396088e-06	-8.026079e-10	-1.667496e+01	-5.530504e+01
1.320000e-06	-2.353573e-06	-7.971362e-10	-1.637908e+01	-5.485259e+01
1.330000e-06	-2.310915e-06	-7.940697e-10	-1.608221e+01	-5.439217e+01
1.340000e-06	-2.268030e-06	-7.900702e-10	-1.578377e+01	-5.392369e+01
1.350000e-06	-2.224830e-06	-7.817801e-10	-1.548313e+01	-5.344703e+01
1.360000e-06	-2.181447e-06	-7.710284e-10	-1.518121e+01	-5.296207e+01
1.370000e-06	-2.137953e-06	-7.607856e-10	-1.487853e+01	-5.246870e+01
1.380000e-06	-2.094356e-06	-7.511823e-10	-1.457513e+01	-5.196679e+01
1.390000e-06	-2.050718e-06	-7.407108e-10	-1.427144e+01	-5.145622e+01
1.400000e-06	-2.006983e-06	-7.309204e-10	-1.396708e+01	-5.093682e+01
1.410000e-06	-1.963080e-06	-7.229573e-10	-1.366155e+01	-5.040847e+01
1.420000e-06	-1.919114e-06	-7.155610e-10	-1.335558e+01	-4.987097e+01
1.430000e-06	-1.875141e-06	-7.078588e-10	-1.304956e+01	-4.932417e+01
1.440000e-06	-1.831066e-06	-6.999255e-10	-1.274283e+01	-4.876786e+01
1.450000e-06	-1.786830e-06	-6.892973e-10	-1.243498e+01	-4.820184e+01
1.460000e-06	-1.742430e-06	-6.763464e-10	-1.212599e+01	-4.762589e+01
1.470000e-06	-1.697896e-06	-6.615648e-10	-1.181607e+01	-4.703975e+01
1.480000e-06	-1.653281e-06	-6.474891e-10	-1.150558e+01	-4.644318e+01
1.490000e-06	-1.608536e-06	-6.367619e-10	-1.119419e+01	-4.583589e+01
1.500000e-06	-1.563664e-06	-6.277629e-10	-1.088192e+01	-4.521760e+01
1.510000e-06	-1.518696e-06	-6.170951e-10	-1.056897e+01	-4.458798e+01
1.520000e-06	-1.473596e-06	-6.042549e-10	-1.025511e+01	-4.394671e+01
1.530000e-06	-1.428378e-06	-5.909591e-10	-9.940426e+00	-4.329344e+01
1.540000e-06	-1.383047e-06	-5.774667e-10	-9.624956e+00	-4.262780e+01
1.550000e-06	-1.337633e-06	-5.632939e-10	-9.308912e+00	-4.194943e+01
1.560000e-06	-1.292162e-06	-5.490467e-10	-8.992466e+00	-4.125793e+01
1.570000e-06	-1.246565e-06	-5.374499e-10	-8.675147e+00	-4.055289e+01
1.580000e-06	-1.200886e-06	-5.273031e-10	-8.357258e+00	-3.983391e+01
1.590000e-06	-1.155220e-06	-5.157316e-10	-8.039453e+00	-3.910056e+01
1.600000e-06	-1.109488e-06	-5.049633e-10	-7.721193e+00	-3.835241e+01
1.610000e-06	-1.063661e-06	-4.943950e-10	-7.402274e+00	-3.758905e+01
1.620000e-06	-1.017718e-06	-4.829037e-10	-7.082544e+00	-3.681003e+01
1.630000e-06	-9.716137e-07	-4.704406e-10	-6.761694e+00	-3.601494e+01
1.640000e-06	-9.253917e-07	-4.550982e-10	-6.440024e+00	-3.520336e+01
1.650000e-06	-8.791567e-07	-4.396139e-10	-6.118263e+00	-3.437488e+01
1.660000e-06	-8.329291e-07	-4.259692e-10	-5.796554e+00	-3.352912e+01
1.670000e-06	-7.866560e-07	-4.140325e-10	-5.474529e+00	-3.266569e+01
1.680000e-06	-7.403320e-07	-4.014393e-10	-5.152149e+00	-3.178424e+01
1.690000e-06	-6.939489e-07	-3.900020e-10	-4.829358e+00	-3.088444e+01
1.700000e-06	-6.475185e-07	-3.791327e-10	-4.506237e+00	-2.996601e+01
1.710000e-06	-6.010280e-07	-3.649264e-10	-4.182698e+00	-2.902866e+01
1.720000e-06	-5.545005e-07	-3.494836e-10	-3.858902e+00	-2.807218e+01
1.730000e-06	-5.079072e-07	-3.356298e-10	-3.534648e+00	-2.709637e+01
1.740000e-06	-4.612455e-07	-3.216775e-10	-3.209919e+00	-2.610109e+01
1.750000e-06	-4.145546e-07	-3.068542e-10	-2.884985e+00	-2.508625e+01
1.760000e-06	-3.678181e-07	-2.912035e-10	-2.559735e+00	-2.405179e+01
1.770000e-06	-3.210804e-07	-2.771490e-10	-2.234476e+00	-2.299774e+01
1.780000e-06	-2.743423e-07	-2.643540e-10	-1.909214e+00	-2.192415e+01
1.790000e-06	-2.275435e-07	-2.493588e-10	-1.583530e+00	-2.083115e+01
1.800000e-06	-1.806688e-07	-2.322567e-10	-1.257317e+00	-1.971893e+01
1.810000e-06	-1.338033e-07	-2.142433e-10	-9.311692e-01	-1.858773e+01
1.820000e-06	-8.695926e-08	-1.981146e-10	-6.051704e-01	-1.743786e+01
1.830000e-06	-4.010523e-08	-1.845207e-10	-2.791020e-01	-1.626970e+01
1.840000e-06	6.673545e-09	-1.716648e-10	4.644281e-02	-1.508370e+01
1.850000e-06	5.340718e-08	-1.591854e-10	3.716734e-01	-1.388037e+01
1.860000e-06	1.001745e-07	-1.431491e-10	6.971388e-01	-1.266028e+01
1.870000e-06	1.469696e-07	-1.245943e-10	1.022797e+00	-1.142406e+01
1.880000e-06	1.937746e-07	-1.055635e-10	1.348524e+00	-1.017244e+01
1.890000e-06	2.405566e-07	-8.554605e-11	1.674092e+00	-8.906159e+00
1.900000e-06	2.872564e-07	-6.729689e-11	1.999087e+00	-7.626061e+00
1.910000e-06	3.338624e-07	-5.094855e-11	2.323429e+00	-6.333027e+00
1.920000e-06	3.804969e-07	-3.703198e-11	2.647970e+00	-5.027996e+00
1.930000e-06	4.271594e-07	-2.285962e-11	2.972705e+00	-3.711961e+00
1.940000e-06	4.738355e-07	-9.426102e-12	3.297535e+00	-2.385962e+00
1.950000e-06	5.205094e-07	5.588489e-12	3.622351e+00	-1.051085e+00
1.960000e-06	5.670513e-07	2.364093e-11	3.946247e+00	2.915463e-01
1.970000e-06	6.134784e-07	4.393365e-11	4.269344e+00	1.640770e+00
1.980000e-06	6.598855e-07	6.501436e-11	4.592302e+00	2.995395e+00
1.990000e-06	7.062360e-07	8.626992e-11	4.914866e+00	4.354204e+00
2.000000e-06	7.525447e-07	1.065296e-10	5.237140e+00	5.715959e+00
2.010000e-06	7.988655e-07	1.253111e-10	5.559497e+00	7.079405e+00
2.020000e-06	8.450519e-07	1.433279e-10	5.880919e+00	8.443280e+00
2.030000e-06	8.911595e-07	1.616366e-10	6.201793e+00	9.806317e+00
2.040000e-06	9.372780e-07	1.806774e-10	6.522743e+00	1.116725e+01
2.050000e-06	9.832969e-07	2.013823e-10	6.843000e+00	1.252482e+01
2.060000e-06	1.029219e-06	2.227382e-10	7.162585e+00	1.387777e+01
2.070000e-06	1.075045e-06	2.450997e-10	7.481500e+00	1.522489e+01
2.080000e-06	1.120831e-06	2.673925e-10	7.800134e+00	1.656496e+01
2.090000e-06	1.166569e-06	2.873569e-10	8.118432e+00	1.789680e+01
2.100000e-06	1.212169e-06	3.056880e-10	8.435776e+00	1.921927e+01
2.110000e-06	1.257692e-06	3.234291e-10	8.752584e+00	2.053127e+01
2.120000e-06	1.303164e-06	3.414780e-10	9.069030e+00	2.183171e+01
2.130000e-06	1.348569e-06	3.570702e-10	9.385015e+00	2.311960e+01
2.140000e-06	1.393928e-06	3.721982e-10	9.700679e+00	2.439394e+01
2.150000e-06	1.439126e-06	3.880349e-10	1.001522e+01	2.565383e+01
2.160000e-06	1.484116e-06	4.056601e-10	1.032832e+01	2.689840e+01
2.170000e-06	1.528977e-06	4.252443e-10	1.064052e+01	2.812684e+01
2.180000e-06	1.573715e-06	4.446436e-10	1.095186e+01	2.933842e+01
2.190000e-06	1.618364e-06	4.628164e-10	1.126259e+01	3.053245e+01
2.200000e-06	1.662918e-06	4.792083e-10	1.157265e+01	3.170831e+01
2.210000e-06	1.707410e-06	4.952718e-10	1.188228e+01	3.286545e+01
2.220000e-06	1.751795e-06	5.118935e-10	1.219116e+01	3.400338e+01
2.230000e-06	1.795999e-06	5.262467e-10	1.249879e+01	3.512166e+01
2.240000e-06	1.840060e-06	5.399523e-10	1.280542e+01	3.621995e+01
2.250000e-06	1.884060e-06	5.542413e-10	1.311163e+01	3.729794e+01
2.260000e-06	1.928005e-06	5.693178e-10	1.341745e+01	3.835540e+01
2.270000e-06	1.971852e-06	5.855615e-10	1.372259e+01	3.939214e+01
2.280000e-06	2.015613e-06	6.025137e-10	1.402714e+01	4.040806e+01
2.290000e-06	2.059288e-06	6.176615e-10	1.433108e+01	4.140310e+01
2.300000e-06	2.102875e-06	6.308804e-10	1.463441e+01	4.237724e+01
2.310000e-06	2.146392e-06	6.438205e-10	1.493726e+01	4.333054e+01
2.320000e-06	2.189879e-06	6.564058e-10	1.523990e+01	4.426308e+01
2.330000e-06	2.233281e-06	6.674228e-10	1.554194e+01	4.517501e+01
2.340000e-06	2.276570e-06	6.773424e-10	1.584320e+01	4.606651e+01
2.350000e-06	2.319669e-06	6.880512e-10	1.614314e+01	4.693779e+01
2.360000e-06	2.362453e-06	7.003000e-10	1.644088e+01	4.778910e+01
2.370000e-06	2.404968e-06	7.124097e-10	1.673675e+01	4.862075e+01
2.380000e-06	2.447179e-06	7.242573e-10	1.703051e+01	4.943303e+01
2.390000e-06	2.488975e-06	7.376520e-10	1.732137e+01	5.022628e+01
2.400000e-06	2.530399e-06	7.500982e-10	1.760966e+01	5.100086e+01
2.410000e-06	2.571519e-06	7.600335e-10	1.789582e+01	5.175715e+01
2.420000e-06	2.612353e-06	7.691247e-10	1.817999e+01	5.249553e+01
2.430000e-06	2.652958e-06	7.781967e-10	1.846257e+01	5.321641e+01
2.440000e-06	2.693401e-06	7.886813e-10	1.874403e+01	5.392018e+01
2.450000e-06	2.733665e-06	8.004668e-10	1.902423e+01	5.460726e+01
2.460000e-06	2.773758e-06	8.106718e-10	1.930325e+01	5.527806e+01
2.470000e-06	2.813677e-06	8.194991e-10	1.958105e+01	5.593299e+01
2.480000e-06	2.853455e-06	8.278612e-10	1.985788e+01	5.657247e+01
2.490000e-06	2.893120e-06	8.376831e-10	2.013392e+01	5.719688e+01
2.500000e-06	2.932600e-06	8.483598e-10	2.040867e+01	5.780663e+01
2.510000e-06	2.971897e-06	8.582494e-10	2.068215e+01	5.840210e+01
2.520000e-06	3.011076e-06	8.672082e-10	2.095480e+01	5.898367e+01
2.530000e-06	3.050032e-06	8.748894e-10	2.122591e+01	5.955171e+01
2.540000e-06	3.088678e-06	8.812412e-10	2.149485e+01	6.010657e+01
2.550000e-06	3.127070e-06	8.875381e-10	2.176204e+01	6.064859e+01
2.560000e-06	3.165195e-06	8.943395e-10	2.202735e+01	6.117810e+01
2.570000e-06	3.203216e-06	9.012408e-10	2.229195e+01	6.169542e+01
2.580000e-06	3.241128e-06	9.083194e-10	2.255579e+01	6.220085e+01
2.590000e-06	3.278799e-06	9.156083e-10	2.281795e+01	6.269468e+01
2.600000e-06	3.316260e-06	9.238913e-10	2.307865e+01	6.317719e+01
2.610000e-06	3.353468e-06	9.333028e-10	2.333759e+01	6.364863e+01
2.620000e-06	3.390445e-06	9.413822e-10	2.359493e+01	6.410928e+01
2.630000e-06	3.427221e-06	9.466390e-10	2.385085e+01	6.455937e+01
2.640000e-06	3.463769e-06	9.502042e-10	2.410520e+01	6.499914e+01
2.650000e-06	3.499995e-06	9.538149e-10	2.435731e+01	6.542882e+01
2.660000e-06	3.535987e-06	9.590575e-10	2.460778e+01	6.584862e+01
2.670000e-06	3.571902e-06	9.651805e-10	2.485772e+01	6.625875e+01
2.680000e-06	3.607658e-06	9.728114e-10	2.510656e+01	6.665944e+01
2.690000e-06	3.643280e-06	9.836662e-10	2.535446e+01	6.705088e+01
2.700000e-06	3.678728e-06	9.955016e-10	2.560116e+01	6.743326e+01
2.710000e-06	3.713924e-06	1.004213e-09	2.584609e+01	6.780679e+01
2.720000e-06	3.748853e-06	1.009836e-09	2.608917e+01	6.817167e+01
2.730000e-06	3.783479e-06	1.014030e-09	2.633014e+01	6.852809e+01
2.740000e-06	3.817746e-06	1.015485e-09	2.656862e+01	6.887623e+01
2.750000e-06	3.851484e-06	1.018999e-09	2.680340e+01	6.921631e+01
2.760000e-06	3.884647e-06	1.026623e-09	2.703420e+01	6.954850e+01
2.770000e-06	3.917356e-06	1.034708e-09	2.726182e+01	6.987302e+01
2.780000e-06	3.949728e-06	1.043444e-09	2.748711e+01	7.019004e+01
2.790000e-06	3.981848e-06	1.051640e-09	2.771064e+01	7.049979e+01
2.800000e-06	4.013772e-06	1.058967e-09	2.793281e+01	7.080245e+01
2.810000e-06	4.045516e-06	1.066703e-09	2.815372e+01	7.109822e+01
2.820000e-06	4.077095e-06	1.072187e-09	2.837348e+01	7.138730e+01
2.830000e-06	4.108536e-06	1.075579e-09	2.859229e+01	7.166990e+01
2.840000e-06	4.139667e-06	1.079145e-09	2.880894e+01	7.194621e+01
2.850000e-06	4.170370e-06	1.084428e-09	2.902261e+01	7.221644e+01
2.860000e-06	4.200752e-06	1.091946e-09	2.923405e+01	7.248077e+01
2.870000e-06	4.230868e-06	1.097874e-09	2.944363e+01	7.273941e+01
2.880000e-06	4.260728e-06	1.103113e-09	2.965143e+01	7.299254e+01
2.890000e-06	4.290341e-06	1.108865e-09	2.985751e+01	7.324034e+01
2.900000e-06	4.319683e-06	1.116522e-09	3.006172e+01	7.348301e+01
