# Temperatura_=_-0.2
# Concentracion g/m^3_=_1620.0
# C_Vs_to_Am_M_A/Vsm_=_65563218390.804596
# pendiente_HvsI_1/m_=_3716.3
# ordenada_HvsI_A/m_=_1297.0
# frecuencia_Hz_=_135105.1004870208

Tiempo_(s)	Campo_(V.s)	Magnetizacion_(V.s)	Campo_(kA/m)	Magnetizacion_(A/m)
0.000000e+00	-5.522526e-06	-9.144761e-10	-3.836553e+01	-5.875605e+01
1.000000e-08	-5.522623e-06	-9.113593e-10	-3.836619e+01	-5.878224e+01
2.000000e-08	-5.522426e-06	-9.100434e-10	-3.836483e+01	-5.880743e+01
3.000000e-08	-5.521789e-06	-9.099206e-10	-3.836040e+01	-5.883135e+01
4.000000e-08	-5.520637e-06	-9.122270e-10	-3.835240e+01	-5.885370e+01
5.000000e-08	-5.518935e-06	-9.171004e-10	-3.834058e+01	-5.887418e+01
6.000000e-08	-5.516673e-06	-9.182989e-10	-3.832486e+01	-5.889248e+01
7.000000e-08	-5.513905e-06	-9.044470e-10	-3.830563e+01	-5.890832e+01
8.000000e-08	-5.510564e-06	-8.774454e-10	-3.828242e+01	-5.892139e+01
9.000000e-08	-5.506716e-06	-8.910937e-10	-3.825569e+01	-5.893142e+01
1.000000e-07	-5.502526e-06	-9.406153e-10	-3.822658e+01	-5.893813e+01
1.100000e-07	-5.498059e-06	-9.389529e-10	-3.819555e+01	-5.894126e+01
1.200000e-07	-5.493368e-06	-8.465038e-10	-3.816296e+01	-5.894057e+01
1.300000e-07	-5.488381e-06	-8.694347e-10	-3.812831e+01	-5.893583e+01
1.400000e-07	-5.483043e-06	-8.962741e-10	-3.809123e+01	-5.892684e+01
1.500000e-07	-5.477275e-06	-9.132254e-10	-3.805116e+01	-5.891341e+01
1.600000e-07	-5.471108e-06	-8.462950e-10	-3.800832e+01	-5.889540e+01
1.700000e-07	-5.464589e-06	-8.695620e-10	-3.796303e+01	-5.887268e+01
1.800000e-07	-5.457621e-06	-9.460320e-10	-3.791462e+01	-5.884513e+01
1.900000e-07	-5.450236e-06	-9.062484e-10	-3.786331e+01	-5.881268e+01
2.000000e-07	-5.442646e-06	-8.615889e-10	-3.781059e+01	-5.877530e+01
2.100000e-07	-5.434869e-06	-8.468307e-10	-3.775656e+01	-5.873296e+01
2.200000e-07	-5.426711e-06	-9.313538e-10	-3.769988e+01	-5.868568e+01
2.300000e-07	-5.418136e-06	-9.158264e-10	-3.764031e+01	-5.863350e+01
2.400000e-07	-5.409115e-06	-9.054019e-10	-3.757765e+01	-5.857649e+01
2.500000e-07	-5.399432e-06	-8.793508e-10	-3.751038e+01	-5.851475e+01
2.600000e-07	-5.389030e-06	-9.072475e-10	-3.743811e+01	-5.844841e+01
2.700000e-07	-5.378045e-06	-8.743938e-10	-3.736180e+01	-5.837762e+01
2.800000e-07	-5.366605e-06	-8.765641e-10	-3.728233e+01	-5.830256e+01
2.900000e-07	-5.354812e-06	-8.698929e-10	-3.720040e+01	-5.822341e+01
3.000000e-07	-5.342684e-06	-8.929333e-10	-3.711615e+01	-5.814040e+01
3.100000e-07	-5.330170e-06	-8.796698e-10	-3.702921e+01	-5.805375e+01
3.200000e-07	-5.317237e-06	-8.665556e-10	-3.693936e+01	-5.796371e+01
3.300000e-07	-5.303885e-06	-8.512769e-10	-3.684661e+01	-5.787055e+01
3.400000e-07	-5.290158e-06	-8.581625e-10	-3.675124e+01	-5.777452e+01
3.500000e-07	-5.275997e-06	-8.569678e-10	-3.665286e+01	-5.767590e+01
3.600000e-07	-5.261466e-06	-8.390055e-10	-3.655191e+01	-5.757497e+01
3.700000e-07	-5.246536e-06	-8.696650e-10	-3.644820e+01	-5.747200e+01
3.800000e-07	-5.231086e-06	-9.042747e-10	-3.634086e+01	-5.736728e+01
3.900000e-07	-5.215074e-06	-8.695686e-10	-3.622962e+01	-5.726106e+01
4.000000e-07	-5.198605e-06	-8.228594e-10	-3.611521e+01	-5.715362e+01
4.100000e-07	-5.181882e-06	-8.763589e-10	-3.599904e+01	-5.704520e+01
4.200000e-07	-5.164764e-06	-8.775286e-10	-3.588011e+01	-5.693604e+01
4.300000e-07	-5.147203e-06	-8.242649e-10	-3.575812e+01	-5.682637e+01
4.400000e-07	-5.129283e-06	-8.429205e-10	-3.563362e+01	-5.671639e+01
4.500000e-07	-5.110936e-06	-9.175636e-10	-3.550617e+01	-5.660629e+01
4.600000e-07	-5.092176e-06	-8.450525e-10	-3.537584e+01	-5.649624e+01
4.700000e-07	-5.073136e-06	-8.178310e-10	-3.524357e+01	-5.638639e+01
4.800000e-07	-5.053816e-06	-8.823315e-10	-3.510935e+01	-5.627686e+01
4.900000e-07	-5.034218e-06	-8.794893e-10	-3.497320e+01	-5.616775e+01
5.000000e-07	-5.014411e-06	-7.940665e-10	-3.483560e+01	-5.605913e+01
5.100000e-07	-4.994356e-06	-8.504126e-10	-3.469627e+01	-5.595105e+01
5.200000e-07	-4.973936e-06	-8.723809e-10	-3.455441e+01	-5.584355e+01
5.300000e-07	-4.953167e-06	-8.110375e-10	-3.441013e+01	-5.573662e+01
5.400000e-07	-4.932072e-06	-8.249812e-10	-3.426358e+01	-5.563025e+01
5.500000e-07	-4.910590e-06	-8.934498e-10	-3.411434e+01	-5.552439e+01
5.600000e-07	-4.888752e-06	-8.273586e-10	-3.396263e+01	-5.541898e+01
5.700000e-07	-4.866541e-06	-8.099658e-10	-3.380833e+01	-5.531393e+01
5.800000e-07	-4.843981e-06	-8.728131e-10	-3.365161e+01	-5.520914e+01
5.900000e-07	-4.821101e-06	-8.504861e-10	-3.349265e+01	-5.510449e+01
6.000000e-07	-4.797878e-06	-7.964134e-10	-3.333132e+01	-5.499984e+01
6.100000e-07	-4.774399e-06	-8.447366e-10	-3.316821e+01	-5.489506e+01
6.200000e-07	-4.750734e-06	-8.442263e-10	-3.300381e+01	-5.478997e+01
6.300000e-07	-4.726885e-06	-7.919127e-10	-3.283813e+01	-5.468443e+01
6.400000e-07	-4.702750e-06	-8.219742e-10	-3.267046e+01	-5.457824e+01
6.500000e-07	-4.678133e-06	-8.479900e-10	-3.249944e+01	-5.447124e+01
6.600000e-07	-4.653070e-06	-8.077592e-10	-3.232533e+01	-5.436326e+01
6.700000e-07	-4.627626e-06	-8.117672e-10	-3.214857e+01	-5.425410e+01
6.800000e-07	-4.601630e-06	-8.409148e-10	-3.196797e+01	-5.414360e+01
6.900000e-07	-4.575057e-06	-8.060819e-10	-3.178336e+01	-5.403158e+01
7.000000e-07	-4.548043e-06	-8.001795e-10	-3.159570e+01	-5.391789e+01
7.100000e-07	-4.520756e-06	-8.219318e-10	-3.140613e+01	-5.380237e+01
7.200000e-07	-4.493195e-06	-8.088507e-10	-3.121466e+01	-5.368488e+01
7.300000e-07	-4.465350e-06	-7.939776e-10	-3.102122e+01	-5.356529e+01
7.400000e-07	-4.437329e-06	-8.261926e-10	-3.082655e+01	-5.344347e+01
7.500000e-07	-4.409131e-06	-8.158156e-10	-3.063066e+01	-5.331932e+01
7.600000e-07	-4.380682e-06	-7.979140e-10	-3.043302e+01	-5.319275e+01
7.700000e-07	-4.351906e-06	-8.050494e-10	-3.023311e+01	-5.306370e+01
7.800000e-07	-4.322762e-06	-8.040160e-10	-3.003064e+01	-5.293209e+01
7.900000e-07	-4.293285e-06	-7.749305e-10	-2.982587e+01	-5.279789e+01
8.000000e-07	-4.263539e-06	-7.857865e-10	-2.961922e+01	-5.266108e+01
8.100000e-07	-4.233498e-06	-7.912766e-10	-2.941052e+01	-5.252164e+01
8.200000e-07	-4.203075e-06	-7.769493e-10	-2.919917e+01	-5.237957e+01
8.300000e-07	-4.172384e-06	-7.720312e-10	-2.898595e+01	-5.223489e+01
8.400000e-07	-4.141497e-06	-7.886284e-10	-2.877138e+01	-5.208765e+01
8.500000e-07	-4.110351e-06	-7.766136e-10	-2.855500e+01	-5.193787e+01
8.600000e-07	-4.078983e-06	-7.694881e-10	-2.833709e+01	-5.178561e+01
8.700000e-07	-4.047380e-06	-7.780554e-10	-2.811754e+01	-5.163093e+01
8.800000e-07	-4.015595e-06	-7.753067e-10	-2.789673e+01	-5.147391e+01
8.900000e-07	-3.983630e-06	-7.587107e-10	-2.767466e+01	-5.131462e+01
9.000000e-07	-3.951406e-06	-7.613052e-10	-2.745080e+01	-5.115313e+01
9.100000e-07	-3.918837e-06	-7.596795e-10	-2.722454e+01	-5.098952e+01
9.200000e-07	-3.885885e-06	-7.447939e-10	-2.699562e+01	-5.082388e+01
9.300000e-07	-3.852514e-06	-7.449010e-10	-2.676379e+01	-5.065628e+01
9.400000e-07	-3.818657e-06	-7.545568e-10	-2.652858e+01	-5.048680e+01
9.500000e-07	-3.784408e-06	-7.502851e-10	-2.629065e+01	-5.031549e+01
9.600000e-07	-3.749724e-06	-7.443828e-10	-2.604969e+01	-5.014243e+01
9.700000e-07	-3.714616e-06	-7.507451e-10	-2.580579e+01	-4.996765e+01
9.800000e-07	-3.679259e-06	-7.450411e-10	-2.556017e+01	-4.979119e+01
9.900000e-07	-3.643695e-06	-7.344446e-10	-2.531310e+01	-4.961308e+01
1.000000e-06	-3.608010e-06	-7.311348e-10	-2.506519e+01	-4.943333e+01
1.010000e-06	-3.572226e-06	-7.300150e-10	-2.481660e+01	-4.925194e+01
1.020000e-06	-3.536255e-06	-7.184502e-10	-2.456670e+01	-4.906887e+01
1.030000e-06	-3.500063e-06	-7.188099e-10	-2.431527e+01	-4.888411e+01
1.040000e-06	-3.463595e-06	-7.198971e-10	-2.406193e+01	-4.869759e+01
1.050000e-06	-3.426851e-06	-7.149948e-10	-2.380666e+01	-4.850924e+01
1.060000e-06	-3.389907e-06	-7.080773e-10	-2.355002e+01	-4.831898e+01
1.070000e-06	-3.352796e-06	-7.126995e-10	-2.329220e+01	-4.812669e+01
1.080000e-06	-3.315421e-06	-7.107929e-10	-2.303255e+01	-4.793226e+01
1.090000e-06	-3.277755e-06	-7.080552e-10	-2.277088e+01	-4.773555e+01
1.100000e-06	-3.239880e-06	-7.027356e-10	-2.250776e+01	-4.753639e+01
1.110000e-06	-3.201790e-06	-6.942669e-10	-2.224314e+01	-4.733463e+01
1.120000e-06	-3.163402e-06	-6.803793e-10	-2.197646e+01	-4.713009e+01
1.130000e-06	-3.124839e-06	-6.781762e-10	-2.170856e+01	-4.692256e+01
1.140000e-06	-3.086169e-06	-6.793514e-10	-2.143992e+01	-4.671184e+01
1.150000e-06	-3.047248e-06	-6.800713e-10	-2.116953e+01	-4.649773e+01
1.160000e-06	-3.008103e-06	-6.817929e-10	-2.089758e+01	-4.627999e+01
1.170000e-06	-2.968808e-06	-6.854116e-10	-2.062460e+01	-4.605841e+01
1.180000e-06	-2.929320e-06	-6.810738e-10	-2.035027e+01	-4.583276e+01
1.190000e-06	-2.889642e-06	-6.740896e-10	-2.007462e+01	-4.560279e+01
1.200000e-06	-2.849811e-06	-6.677385e-10	-1.979792e+01	-4.536829e+01
1.210000e-06	-2.809880e-06	-6.605420e-10	-1.952051e+01	-4.512902e+01
1.220000e-06	-2.769835e-06	-6.527107e-10	-1.924232e+01	-4.488475e+01
1.230000e-06	-2.729584e-06	-6.487922e-10	-1.896268e+01	-4.463526e+01
1.240000e-06	-2.689110e-06	-6.478526e-10	-1.868151e+01	-4.438032e+01
1.250000e-06	-2.648468e-06	-6.461241e-10	-1.839916e+01	-4.411973e+01
1.260000e-06	-2.607636e-06	-6.471338e-10	-1.811550e+01	-4.385329e+01
1.270000e-06	-2.566577e-06	-6.472028e-10	-1.783026e+01	-4.358079e+01
1.280000e-06	-2.525222e-06	-6.439911e-10	-1.754296e+01	-4.330205e+01
1.290000e-06	-2.483483e-06	-6.357310e-10	-1.725300e+01	-4.301690e+01
1.300000e-06	-2.441467e-06	-6.276348e-10	-1.696111e+01	-4.272518e+01
1.310000e-06	-2.399223e-06	-6.182915e-10	-1.666764e+01	-4.242672e+01
1.320000e-06	-2.356629e-06	-6.121863e-10	-1.637173e+01	-4.212138e+01
1.330000e-06	-2.313718e-06	-6.098010e-10	-1.607362e+01	-4.180903e+01
1.340000e-06	-2.270705e-06	-6.107508e-10	-1.577481e+01	-4.148953e+01
1.350000e-06	-2.227512e-06	-6.086713e-10	-1.547474e+01	-4.116278e+01
1.360000e-06	-2.184037e-06	-6.064135e-10	-1.517271e+01	-4.082866e+01
1.370000e-06	-2.140441e-06	-6.014803e-10	-1.486985e+01	-4.048706e+01
1.380000e-06	-2.096796e-06	-5.954638e-10	-1.456665e+01	-4.013788e+01
1.390000e-06	-2.053041e-06	-5.862922e-10	-1.426268e+01	-3.978103e+01
1.400000e-06	-2.009208e-06	-5.776094e-10	-1.395816e+01	-3.941640e+01
1.410000e-06	-1.965353e-06	-5.673930e-10	-1.365350e+01	-3.904390e+01
1.420000e-06	-1.921389e-06	-5.621126e-10	-1.334807e+01	-3.866342e+01
1.430000e-06	-1.877306e-06	-5.598003e-10	-1.304183e+01	-3.827486e+01
1.440000e-06	-1.833147e-06	-5.578699e-10	-1.273505e+01	-3.787810e+01
1.450000e-06	-1.788890e-06	-5.483155e-10	-1.242759e+01	-3.747303e+01
1.460000e-06	-1.744477e-06	-5.367942e-10	-1.211905e+01	-3.705950e+01
1.470000e-06	-1.699936e-06	-5.257420e-10	-1.180962e+01	-3.663739e+01
1.480000e-06	-1.655250e-06	-5.135966e-10	-1.149918e+01	-3.620651e+01
1.490000e-06	-1.610424e-06	-5.049055e-10	-1.118777e+01	-3.576671e+01
1.500000e-06	-1.565497e-06	-5.010046e-10	-1.087566e+01	-3.531779e+01
1.510000e-06	-1.520438e-06	-4.971248e-10	-1.056263e+01	-3.485954e+01
1.520000e-06	-1.475295e-06	-4.894394e-10	-1.024902e+01	-3.439172e+01
1.530000e-06	-1.430117e-06	-4.778433e-10	-9.935160e+00	-3.391410e+01
1.540000e-06	-1.384867e-06	-4.638499e-10	-9.620807e+00	-3.342640e+01
1.550000e-06	-1.339450e-06	-4.501135e-10	-9.305288e+00	-3.292833e+01
1.560000e-06	-1.293849e-06	-4.376759e-10	-8.988494e+00	-3.241959e+01
1.570000e-06	-1.248150e-06	-4.292729e-10	-8.671019e+00	-3.189983e+01
1.580000e-06	-1.202444e-06	-4.241125e-10	-8.353495e+00	-3.136873e+01
1.590000e-06	-1.156740e-06	-4.205539e-10	-8.035983e+00	-3.082590e+01
1.600000e-06	-1.110953e-06	-4.137668e-10	-7.717895e+00	-3.027098e+01
1.610000e-06	-1.065026e-06	-4.037554e-10	-7.398839e+00	-2.970357e+01
1.620000e-06	-1.019015e-06	-3.902937e-10	-7.079198e+00	-2.912326e+01
1.630000e-06	-9.728723e-07	-3.751058e-10	-6.758638e+00	-2.852964e+01
1.640000e-06	-9.266528e-07	-3.581958e-10	-6.437547e+00	-2.792230e+01
1.650000e-06	-8.803895e-07	-3.473324e-10	-6.116151e+00	-2.730081e+01
1.660000e-06	-8.340977e-07	-3.404055e-10	-5.794558e+00	-2.666476e+01
1.670000e-06	-7.877972e-07	-3.364204e-10	-5.472903e+00	-2.601374e+01
1.680000e-06	-7.413769e-07	-3.324001e-10	-5.150417e+00	-2.534733e+01
1.690000e-06	-6.948483e-07	-3.287580e-10	-4.827178e+00	-2.466516e+01
1.700000e-06	-6.482975e-07	-3.191957e-10	-4.503785e+00	-2.396686e+01
1.710000e-06	-6.017960e-07	-3.028336e-10	-4.180735e+00	-2.325207e+01
1.720000e-06	-5.552538e-07	-2.839558e-10	-3.857402e+00	-2.252048e+01
1.730000e-06	-5.085797e-07	-2.683329e-10	-3.533153e+00	-2.177180e+01
1.740000e-06	-4.617968e-07	-2.568803e-10	-3.208147e+00	-2.100578e+01
1.750000e-06	-4.149998e-07	-2.500899e-10	-2.883043e+00	-2.022221e+01
1.760000e-06	-3.682376e-07	-2.467018e-10	-2.558182e+00	-1.942094e+01
1.770000e-06	-3.214039e-07	-2.442774e-10	-2.232824e+00	-1.860183e+01
1.780000e-06	-2.745329e-07	-2.380918e-10	-1.907207e+00	-1.776484e+01
1.790000e-06	-2.277193e-07	-2.230846e-10	-1.581988e+00	-1.690996e+01
1.800000e-06	-1.809190e-07	-2.026949e-10	-1.256862e+00	-1.603725e+01
1.810000e-06	-1.340939e-07	-1.822664e-10	-9.315635e-01	-1.514684e+01
1.820000e-06	-8.725435e-08	-1.652604e-10	-6.061644e-01	-1.423891e+01
1.830000e-06	-4.038851e-08	-1.520331e-10	-2.805829e-01	-1.331372e+01
1.840000e-06	6.539091e-09	-1.435961e-10	4.542770e-02	-1.237161e+01
1.850000e-06	5.343273e-08	-1.383867e-10	3.712024e-01	-1.141296e+01
1.860000e-06	1.002472e-07	-1.294543e-10	6.964269e-01	-1.043826e+01
1.870000e-06	1.470393e-07	-1.168500e-10	1.021496e+00	-9.448049e+00
1.880000e-06	1.938096e-07	-1.034288e-10	1.346414e+00	-8.442948e+00
1.890000e-06	2.406324e-07	-8.724543e-11	1.671696e+00	-7.423648e+00
1.900000e-06	2.874867e-07	-7.020567e-11	1.997198e+00	-6.390909e+00
1.910000e-06	3.342776e-07	-5.297452e-11	2.322259e+00	-5.345561e+00
1.920000e-06	3.810265e-07	-3.925650e-11	2.647028e+00	-4.288498e+00
1.930000e-06	4.277947e-07	-2.734712e-11	2.971931e+00	-3.220678e+00
1.940000e-06	4.745269e-07	-1.829887e-11	3.296584e+00	-2.143117e+00
1.950000e-06	5.211887e-07	-9.252395e-12	3.620748e+00	-1.056887e+00
1.960000e-06	5.677811e-07	1.724639e-12	3.944430e+00	3.689012e-02
1.970000e-06	6.142853e-07	1.763350e-11	4.267500e+00	1.137048e+00
1.980000e-06	6.607408e-07	3.704537e-11	4.590230e+00	2.242379e+00
1.990000e-06	7.071666e-07	5.715872e-11	4.912755e+00	3.351643e+00
2.000000e-06	7.535345e-07	7.609182e-11	5.234877e+00	4.463570e+00
2.010000e-06	7.998367e-07	9.315389e-11	5.556543e+00	5.576871e+00
2.020000e-06	8.461549e-07	1.070842e-10	5.878320e+00	6.690238e+00
2.030000e-06	8.924474e-07	1.202504e-10	6.199918e+00	7.802359e+00
2.040000e-06	9.386598e-07	1.332987e-10	6.520961e+00	8.911917e+00
2.050000e-06	9.847984e-07	1.467695e-10	6.841490e+00	1.001760e+01
2.060000e-06	1.030842e-06	1.624148e-10	7.161361e+00	1.111812e+01
2.070000e-06	1.076808e-06	1.815152e-10	7.480689e+00	1.221219e+01
2.080000e-06	1.122690e-06	1.993881e-10	7.799438e+00	1.329855e+01
2.090000e-06	1.168504e-06	2.135191e-10	8.117707e+00	1.437600e+01
2.100000e-06	1.214287e-06	2.256516e-10	8.435767e+00	1.544334e+01
2.110000e-06	1.259977e-06	2.365797e-10	8.753181e+00	1.649945e+01
2.120000e-06	1.305573e-06	2.497912e-10	9.069940e+00	1.754322e+01
2.130000e-06	1.351066e-06	2.661580e-10	9.385985e+00	1.857364e+01
2.140000e-06	1.396373e-06	2.834262e-10	9.700741e+00	1.958973e+01
2.150000e-06	1.441579e-06	2.978987e-10	1.001479e+01	2.059058e+01
2.160000e-06	1.486736e-06	3.123889e-10	1.032850e+01	2.157537e+01
2.170000e-06	1.531804e-06	3.266248e-10	1.064159e+01	2.254331e+01
2.180000e-06	1.576768e-06	3.389456e-10	1.095396e+01	2.349373e+01
2.190000e-06	1.621645e-06	3.507414e-10	1.126572e+01	2.442600e+01
2.200000e-06	1.666395e-06	3.628029e-10	1.157660e+01	2.533960e+01
2.210000e-06	1.710920e-06	3.754482e-10	1.188593e+01	2.623407e+01
2.220000e-06	1.755291e-06	3.901147e-10	1.219418e+01	2.710903e+01
2.230000e-06	1.799548e-06	4.045696e-10	1.250164e+01	2.796418e+01
2.240000e-06	1.843693e-06	4.166130e-10	1.280832e+01	2.879932e+01
2.250000e-06	1.887780e-06	4.246676e-10	1.311459e+01	2.961430e+01
2.260000e-06	1.931777e-06	4.316335e-10	1.342024e+01	3.040905e+01
2.270000e-06	1.975712e-06	4.383188e-10	1.372546e+01	3.118360e+01
2.280000e-06	2.019571e-06	4.460460e-10	1.403015e+01	3.193801e+01
2.290000e-06	2.063359e-06	4.552254e-10	1.433435e+01	3.267245e+01
2.300000e-06	2.107088e-06	4.671624e-10	1.463814e+01	3.338712e+01
2.310000e-06	2.150726e-06	4.798995e-10	1.494130e+01	3.408229e+01
2.320000e-06	2.194266e-06	4.904836e-10	1.524378e+01	3.475828e+01
2.330000e-06	2.237679e-06	4.986637e-10	1.554537e+01	3.541548e+01
2.340000e-06	2.280926e-06	5.054770e-10	1.584581e+01	3.605430e+01
2.350000e-06	2.323933e-06	5.112126e-10	1.614459e+01	3.667521e+01
2.360000e-06	2.366725e-06	5.169783e-10	1.644187e+01	3.727869e+01
2.370000e-06	2.409300e-06	5.247856e-10	1.673764e+01	3.786527e+01
2.380000e-06	2.451622e-06	5.338587e-10	1.703166e+01	3.843549e+01
2.390000e-06	2.493613e-06	5.427540e-10	1.732337e+01	3.898992e+01
2.400000e-06	2.535226e-06	5.518859e-10	1.761246e+01	3.952913e+01
2.410000e-06	2.576514e-06	5.618978e-10	1.789930e+01	4.005371e+01
2.420000e-06	2.617433e-06	5.711126e-10	1.818356e+01	4.056424e+01
2.430000e-06	2.658059e-06	5.792607e-10	1.846580e+01	4.106130e+01
2.440000e-06	2.698477e-06	5.880964e-10	1.874658e+01	4.154546e+01
2.450000e-06	2.738653e-06	5.963511e-10	1.902568e+01	4.201728e+01
2.460000e-06	2.778681e-06	6.004480e-10	1.930377e+01	4.247732e+01
2.470000e-06	2.818619e-06	6.041026e-10	1.958122e+01	4.292609e+01
2.480000e-06	2.858440e-06	6.088237e-10	1.985786e+01	4.336410e+01
2.490000e-06	2.898183e-06	6.150299e-10	2.013396e+01	4.379183e+01
2.500000e-06	2.937829e-06	6.234932e-10	2.040939e+01	4.420972e+01
2.510000e-06	2.977267e-06	6.319213e-10	2.068336e+01	4.461819e+01
2.520000e-06	3.016510e-06	6.388813e-10	2.095599e+01	4.501763e+01
2.530000e-06	3.055618e-06	6.456847e-10	2.122768e+01	4.540839e+01
2.540000e-06	3.094458e-06	6.490479e-10	2.149750e+01	4.579079e+01
2.550000e-06	3.132981e-06	6.515733e-10	2.176512e+01	4.616511e+01
2.560000e-06	3.171280e-06	6.549911e-10	2.203119e+01	4.653162e+01
2.570000e-06	3.209395e-06	6.586497e-10	2.229598e+01	4.689053e+01
2.580000e-06	3.247270e-06	6.616604e-10	2.255910e+01	4.724202e+01
2.590000e-06	3.284963e-06	6.666453e-10	2.282096e+01	4.758626e+01
2.600000e-06	3.322456e-06	6.728784e-10	2.308142e+01	4.792336e+01
2.610000e-06	3.359704e-06	6.781982e-10	2.334019e+01	4.825344e+01
2.620000e-06	3.396785e-06	6.839976e-10	2.359779e+01	4.857656e+01
2.630000e-06	3.433643e-06	6.904955e-10	2.385385e+01	4.889278e+01
2.640000e-06	3.470193e-06	6.963379e-10	2.410777e+01	4.920214e+01
2.650000e-06	3.506480e-06	7.006166e-10	2.435986e+01	4.950464e+01
2.660000e-06	3.542582e-06	7.039265e-10	2.461066e+01	4.980029e+01
2.670000e-06	3.578496e-06	7.058879e-10	2.486016e+01	5.008908e+01
2.680000e-06	3.614301e-06	7.074182e-10	2.510890e+01	5.037100e+01
2.690000e-06	3.650007e-06	7.108548e-10	2.535695e+01	5.064601e+01
2.700000e-06	3.685525e-06	7.172877e-10	2.560370e+01	5.091410e+01
2.710000e-06	3.720791e-06	7.237851e-10	2.584870e+01	5.117524e+01
2.720000e-06	3.755847e-06	7.325436e-10	2.609223e+01	5.142940e+01
2.730000e-06	3.790534e-06	7.402375e-10	2.633320e+01	5.167658e+01
2.740000e-06	3.824701e-06	7.448497e-10	2.657057e+01	5.191676e+01
2.750000e-06	3.858356e-06	7.474649e-10	2.680437e+01	5.214994e+01
2.760000e-06	3.891522e-06	7.496961e-10	2.703478e+01	5.237614e+01
2.770000e-06	3.924283e-06	7.515726e-10	2.726237e+01	5.259539e+01
2.780000e-06	3.956647e-06	7.538947e-10	2.748721e+01	5.280772e+01
2.790000e-06	3.988737e-06	7.581370e-10	2.771014e+01	5.301320e+01
2.800000e-06	4.020710e-06	7.648208e-10	2.793226e+01	5.321190e+01
2.810000e-06	4.052522e-06	7.715695e-10	2.815326e+01	5.340391e+01
2.820000e-06	4.084093e-06	7.772432e-10	2.837259e+01	5.358934e+01
2.830000e-06	4.115533e-06	7.816454e-10	2.859101e+01	5.376832e+01
2.840000e-06	4.146768e-06	7.836036e-10	2.880800e+01	5.394100e+01
2.850000e-06	4.177634e-06	7.858663e-10	2.902243e+01	5.410753e+01
2.860000e-06	4.208128e-06	7.891978e-10	2.923428e+01	5.426809e+01
2.870000e-06	4.238353e-06	7.902941e-10	2.944425e+01	5.442287e+01
2.880000e-06	4.268319e-06	7.922621e-10	2.965243e+01	5.457207e+01
2.890000e-06	4.298032e-06	7.956470e-10	2.985884e+01	5.471590e+01
2.900000e-06	4.327497e-06	7.998434e-10	3.006354e+01	5.485459e+01
