# Temperatura_=_-0.6
# Concentracion g/m^3_=_1620.0
# C_Vs_to_Am_M_A/Vsm_=_65563218390.804596
# pendiente_HvsI_1/m_=_3716.3
# ordenada_HvsI_A/m_=_1297.0
# frecuencia_Hz_=_135089.8323467104

Tiempo_(s)	Campo_(V.s)	Magnetizacion_(V.s)	Campo_(kA/m)	Magnetizacion_(A/m)
0.000000e+00	-5.523398e-06	-1.313263e-09	-3.837560e+01	-8.421158e+01
1.000000e-08	-5.523606e-06	-1.311942e-09	-3.837704e+01	-8.422789e+01
2.000000e-08	-5.523658e-06	-1.311765e-09	-3.837741e+01	-8.424134e+01
3.000000e-08	-5.523420e-06	-1.311668e-09	-3.837576e+01	-8.425175e+01
4.000000e-08	-5.522631e-06	-1.310270e-09	-3.837027e+01	-8.425898e+01
5.000000e-08	-5.521310e-06	-1.308443e-09	-3.836110e+01	-8.426285e+01
6.000000e-08	-5.519475e-06	-1.299784e-09	-3.834834e+01	-8.426320e+01
7.000000e-08	-5.517008e-06	-1.271530e-09	-3.833121e+01	-8.425985e+01
8.000000e-08	-5.513960e-06	-1.267055e-09	-3.831003e+01	-8.425266e+01
9.000000e-08	-5.510409e-06	-1.352050e-09	-3.828536e+01	-8.424145e+01
1.000000e-07	-5.506392e-06	-1.431502e-09	-3.825745e+01	-8.422609e+01
1.100000e-07	-5.501876e-06	-1.318987e-09	-3.822607e+01	-8.420643e+01
1.200000e-07	-5.497212e-06	-1.206121e-09	-3.819367e+01	-8.418234e+01
1.300000e-07	-5.492510e-06	-1.201692e-09	-3.816100e+01	-8.415370e+01
1.400000e-07	-5.487449e-06	-1.367669e-09	-3.812584e+01	-8.412041e+01
1.500000e-07	-5.481859e-06	-1.300376e-09	-3.808700e+01	-8.408238e+01
1.600000e-07	-5.475920e-06	-1.201101e-09	-3.804573e+01	-8.403955e+01
1.700000e-07	-5.469771e-06	-1.242603e-09	-3.800301e+01	-8.399186e+01
1.800000e-07	-5.463139e-06	-1.401163e-09	-3.795693e+01	-8.393928e+01
1.900000e-07	-5.456040e-06	-1.379178e-09	-3.790761e+01	-8.388179e+01
2.000000e-07	-5.448657e-06	-1.215330e-09	-3.785632e+01	-8.381941e+01
2.100000e-07	-5.441008e-06	-1.202708e-09	-3.780317e+01	-8.375216e+01
2.200000e-07	-5.433109e-06	-1.302631e-09	-3.774829e+01	-8.368008e+01
2.300000e-07	-5.424882e-06	-1.352128e-09	-3.769113e+01	-8.360326e+01
2.400000e-07	-5.416250e-06	-1.268854e-09	-3.763116e+01	-8.352177e+01
2.500000e-07	-5.406983e-06	-1.283492e-09	-3.756677e+01	-8.343573e+01
2.600000e-07	-5.396921e-06	-1.312670e-09	-3.749687e+01	-8.334526e+01
2.700000e-07	-5.386259e-06	-1.321565e-09	-3.742278e+01	-8.325049e+01
2.800000e-07	-5.375131e-06	-1.233698e-09	-3.734547e+01	-8.315160e+01
2.900000e-07	-5.363609e-06	-1.258481e-09	-3.726541e+01	-8.304874e+01
3.000000e-07	-5.351770e-06	-1.284504e-09	-3.718316e+01	-8.294210e+01
3.100000e-07	-5.339687e-06	-1.290864e-09	-3.709921e+01	-8.283187e+01
3.200000e-07	-5.327142e-06	-1.220131e-09	-3.701205e+01	-8.271824e+01
3.300000e-07	-5.314084e-06	-1.247698e-09	-3.692133e+01	-8.260143e+01
3.400000e-07	-5.300658e-06	-1.268494e-09	-3.682805e+01	-8.248164e+01
3.500000e-07	-5.286873e-06	-1.258148e-09	-3.673227e+01	-8.235908e+01
3.600000e-07	-5.272659e-06	-1.199662e-09	-3.663351e+01	-8.223394e+01
3.700000e-07	-5.257948e-06	-1.245831e-09	-3.653130e+01	-8.210644e+01
3.800000e-07	-5.242655e-06	-1.266964e-09	-3.642505e+01	-8.197676e+01
3.900000e-07	-5.226817e-06	-1.228166e-09	-3.631501e+01	-8.184510e+01
4.000000e-07	-5.210506e-06	-1.212259e-09	-3.620168e+01	-8.171162e+01
4.100000e-07	-5.193851e-06	-1.272282e-09	-3.608597e+01	-8.157649e+01
4.200000e-07	-5.176847e-06	-1.243217e-09	-3.596782e+01	-8.143986e+01
4.300000e-07	-5.159437e-06	-1.168290e-09	-3.584687e+01	-8.130184e+01
4.400000e-07	-5.141792e-06	-1.230168e-09	-3.572427e+01	-8.116256e+01
4.500000e-07	-5.123893e-06	-1.275863e-09	-3.559991e+01	-8.102209e+01
4.600000e-07	-5.105505e-06	-1.203217e-09	-3.547215e+01	-8.088052e+01
4.700000e-07	-5.086527e-06	-1.168748e-09	-3.534030e+01	-8.073789e+01
4.800000e-07	-5.067296e-06	-1.253962e-09	-3.520669e+01	-8.059423e+01
4.900000e-07	-5.047885e-06	-1.222174e-09	-3.507182e+01	-8.044953e+01
5.000000e-07	-5.028196e-06	-1.175491e-09	-3.493503e+01	-8.030378e+01
5.100000e-07	-5.008340e-06	-1.209254e-09	-3.479707e+01	-8.015694e+01
5.200000e-07	-4.988255e-06	-1.220638e-09	-3.465752e+01	-8.000894e+01
5.300000e-07	-4.967817e-06	-1.143917e-09	-3.451552e+01	-7.985969e+01
5.400000e-07	-4.946966e-06	-1.194626e-09	-3.437065e+01	-7.970909e+01
5.500000e-07	-4.925709e-06	-1.237703e-09	-3.422296e+01	-7.955701e+01
5.600000e-07	-4.904136e-06	-1.177826e-09	-3.407308e+01	-7.940331e+01
5.700000e-07	-4.882299e-06	-1.144484e-09	-3.392136e+01	-7.924783e+01
5.800000e-07	-4.860139e-06	-1.215970e-09	-3.376739e+01	-7.909040e+01
5.900000e-07	-4.837571e-06	-1.184470e-09	-3.361059e+01	-7.893083e+01
6.000000e-07	-4.814616e-06	-1.143847e-09	-3.345111e+01	-7.876893e+01
6.100000e-07	-4.791390e-06	-1.175846e-09	-3.328974e+01	-7.860450e+01
6.200000e-07	-4.767893e-06	-1.189727e-09	-3.312648e+01	-7.843733e+01
6.300000e-07	-4.744187e-06	-1.137326e-09	-3.296178e+01	-7.826722e+01
6.400000e-07	-4.720299e-06	-1.151425e-09	-3.279581e+01	-7.809394e+01
6.500000e-07	-4.696102e-06	-1.169132e-09	-3.262769e+01	-7.791731e+01
6.600000e-07	-4.671501e-06	-1.143946e-09	-3.245677e+01	-7.773712e+01
6.700000e-07	-4.646426e-06	-1.140324e-09	-3.228255e+01	-7.755316e+01
6.800000e-07	-4.620849e-06	-1.161200e-09	-3.210485e+01	-7.736527e+01
6.900000e-07	-4.594555e-06	-1.142346e-09	-3.192216e+01	-7.717327e+01
7.000000e-07	-4.567608e-06	-1.133069e-09	-3.173494e+01	-7.697699e+01
7.100000e-07	-4.540306e-06	-1.143324e-09	-3.154525e+01	-7.677630e+01
7.200000e-07	-4.512803e-06	-1.130145e-09	-3.135416e+01	-7.657108e+01
7.300000e-07	-4.485182e-06	-1.119496e-09	-3.116226e+01	-7.636121e+01
7.400000e-07	-4.457411e-06	-1.129068e-09	-3.096931e+01	-7.614660e+01
7.500000e-07	-4.429448e-06	-1.135911e-09	-3.077503e+01	-7.592720e+01
7.600000e-07	-4.401153e-06	-1.124409e-09	-3.057844e+01	-7.570296e+01
7.700000e-07	-4.372560e-06	-1.128409e-09	-3.037978e+01	-7.547384e+01
7.800000e-07	-4.343644e-06	-1.119131e-09	-3.017888e+01	-7.523986e+01
7.900000e-07	-4.314359e-06	-1.113211e-09	-2.997541e+01	-7.500102e+01
8.000000e-07	-4.284810e-06	-1.112327e-09	-2.977011e+01	-7.475737e+01
8.100000e-07	-4.254991e-06	-1.114503e-09	-2.956293e+01	-7.450897e+01
8.200000e-07	-4.224886e-06	-1.098673e-09	-2.935377e+01	-7.425589e+01
8.300000e-07	-4.194482e-06	-1.102828e-09	-2.914253e+01	-7.399824e+01
8.400000e-07	-4.163704e-06	-1.103494e-09	-2.892869e+01	-7.373611e+01
8.500000e-07	-4.132685e-06	-1.097144e-09	-2.871317e+01	-7.346963e+01
8.600000e-07	-4.101446e-06	-1.086552e-09	-2.849613e+01	-7.319894e+01
8.700000e-07	-4.069935e-06	-1.092938e-09	-2.827720e+01	-7.292419e+01
8.800000e-07	-4.038299e-06	-1.084662e-09	-2.805740e+01	-7.264552e+01
8.900000e-07	-4.006500e-06	-1.080617e-09	-2.783646e+01	-7.236310e+01
9.000000e-07	-3.974510e-06	-1.079207e-09	-2.761420e+01	-7.207709e+01
9.100000e-07	-3.942296e-06	-1.077406e-09	-2.739038e+01	-7.178763e+01
9.200000e-07	-3.909680e-06	-1.062488e-09	-2.716377e+01	-7.149489e+01
9.300000e-07	-3.876628e-06	-1.063112e-09	-2.693413e+01	-7.119902e+01
9.400000e-07	-3.843068e-06	-1.061978e-09	-2.670097e+01	-7.090016e+01
9.500000e-07	-3.809098e-06	-1.054063e-09	-2.646495e+01	-7.059844e+01
9.600000e-07	-3.774765e-06	-1.049559e-09	-2.622640e+01	-7.029398e+01
9.700000e-07	-3.739877e-06	-1.052459e-09	-2.598401e+01	-6.998687e+01
9.800000e-07	-3.704672e-06	-1.044638e-09	-2.573941e+01	-6.967720e+01
9.900000e-07	-3.669277e-06	-1.032455e-09	-2.549349e+01	-6.936504e+01
1.000000e-06	-3.633695e-06	-1.030741e-09	-2.524628e+01	-6.905044e+01
1.010000e-06	-3.597992e-06	-1.025780e-09	-2.499822e+01	-6.873340e+01
1.020000e-06	-3.562178e-06	-1.016038e-09	-2.474939e+01	-6.841393e+01
1.030000e-06	-3.526238e-06	-1.012861e-09	-2.449968e+01	-6.809200e+01
1.040000e-06	-3.490047e-06	-1.012931e-09	-2.424823e+01	-6.776756e+01
1.050000e-06	-3.453560e-06	-1.004282e-09	-2.399473e+01	-6.744053e+01
1.060000e-06	-3.416882e-06	-9.968031e-10	-2.373990e+01	-6.711080e+01
1.070000e-06	-3.379985e-06	-9.887760e-10	-2.348355e+01	-6.677826e+01
1.080000e-06	-3.342724e-06	-9.835148e-10	-2.322466e+01	-6.644274e+01
1.090000e-06	-3.305225e-06	-9.758079e-10	-2.296412e+01	-6.610406e+01
1.100000e-06	-3.267522e-06	-9.744839e-10	-2.270217e+01	-6.576204e+01
1.110000e-06	-3.229597e-06	-9.652346e-10	-2.243867e+01	-6.541645e+01
1.120000e-06	-3.191335e-06	-9.554750e-10	-2.217283e+01	-6.506705e+01
1.130000e-06	-3.152822e-06	-9.470686e-10	-2.190525e+01	-6.471358e+01
1.140000e-06	-3.114197e-06	-9.440491e-10	-2.163689e+01	-6.435578e+01
1.150000e-06	-3.075338e-06	-9.361433e-10	-2.136691e+01	-6.399335e+01
1.160000e-06	-3.036264e-06	-9.319992e-10	-2.109543e+01	-6.362601e+01
1.170000e-06	-2.997016e-06	-9.276819e-10	-2.082274e+01	-6.325344e+01
1.180000e-06	-2.957661e-06	-9.233415e-10	-2.054931e+01	-6.287535e+01
1.190000e-06	-2.918161e-06	-9.134632e-10	-2.027487e+01	-6.249141e+01
1.200000e-06	-2.878473e-06	-9.069669e-10	-1.999913e+01	-6.210133e+01
1.210000e-06	-2.838716e-06	-8.995700e-10	-1.972290e+01	-6.170478e+01
1.220000e-06	-2.798852e-06	-8.933833e-10	-1.944593e+01	-6.130147e+01
1.230000e-06	-2.758845e-06	-8.854376e-10	-1.916797e+01	-6.089110e+01
1.240000e-06	-2.718730e-06	-8.782770e-10	-1.888926e+01	-6.047338e+01
1.250000e-06	-2.678273e-06	-8.689114e-10	-1.860818e+01	-6.004803e+01
1.260000e-06	-2.637435e-06	-8.613506e-10	-1.832444e+01	-5.961480e+01
1.270000e-06	-2.596348e-06	-8.577881e-10	-1.803897e+01	-5.917344e+01
1.280000e-06	-2.554975e-06	-8.541622e-10	-1.775152e+01	-5.872372e+01
1.290000e-06	-2.513293e-06	-8.472271e-10	-1.746192e+01	-5.826544e+01
1.300000e-06	-2.471390e-06	-8.376815e-10	-1.717079e+01	-5.779838e+01
1.310000e-06	-2.429225e-06	-8.285230e-10	-1.687783e+01	-5.732240e+01
1.320000e-06	-2.386816e-06	-8.200870e-10	-1.658318e+01	-5.683733e+01
1.330000e-06	-2.344208e-06	-8.119605e-10	-1.628715e+01	-5.634303e+01
1.340000e-06	-2.301319e-06	-8.059456e-10	-1.598916e+01	-5.583941e+01
1.350000e-06	-2.258200e-06	-7.995695e-10	-1.568958e+01	-5.532635e+01
1.360000e-06	-2.214940e-06	-7.894126e-10	-1.538902e+01	-5.480378e+01
1.370000e-06	-2.171463e-06	-7.816697e-10	-1.508695e+01	-5.427164e+01
1.380000e-06	-2.127795e-06	-7.753561e-10	-1.478354e+01	-5.372989e+01
1.390000e-06	-2.084036e-06	-7.707440e-10	-1.447952e+01	-5.317848e+01
1.400000e-06	-2.040223e-06	-7.595341e-10	-1.417511e+01	-5.261739e+01
1.410000e-06	-1.996417e-06	-7.484082e-10	-1.387076e+01	-5.204660e+01
1.420000e-06	-1.952499e-06	-7.369373e-10	-1.356562e+01	-5.146611e+01
1.430000e-06	-1.908479e-06	-7.260064e-10	-1.325978e+01	-5.087590e+01
1.440000e-06	-1.864441e-06	-7.168605e-10	-1.295381e+01	-5.027596e+01
1.450000e-06	-1.820258e-06	-7.072656e-10	-1.264683e+01	-4.966628e+01
1.460000e-06	-1.775908e-06	-6.975014e-10	-1.233870e+01	-4.904685e+01
1.470000e-06	-1.731445e-06	-6.899209e-10	-1.202978e+01	-4.841763e+01
1.480000e-06	-1.686906e-06	-6.798830e-10	-1.172033e+01	-4.777858e+01
1.490000e-06	-1.642257e-06	-6.674938e-10	-1.141011e+01	-4.712966e+01
1.500000e-06	-1.597472e-06	-6.527594e-10	-1.109896e+01	-4.647078e+01
1.510000e-06	-1.552524e-06	-6.415529e-10	-1.078666e+01	-4.580186e+01
1.520000e-06	-1.507379e-06	-6.302015e-10	-1.047301e+01	-4.512279e+01
1.530000e-06	-1.462134e-06	-6.208875e-10	-1.015865e+01	-4.443344e+01
1.540000e-06	-1.416816e-06	-6.097337e-10	-9.843792e+00	-4.373363e+01
1.550000e-06	-1.371325e-06	-6.002675e-10	-9.527724e+00	-4.302317e+01
1.560000e-06	-1.325715e-06	-5.883642e-10	-9.210836e+00	-4.230187e+01
1.570000e-06	-1.280090e-06	-5.744767e-10	-8.893840e+00	-4.156946e+01
1.580000e-06	-1.234429e-06	-5.628693e-10	-8.576597e+00	-4.082569e+01
1.590000e-06	-1.188725e-06	-5.495422e-10	-8.259056e+00	-4.007024e+01
1.600000e-06	-1.142868e-06	-5.343092e-10	-7.940446e+00	-3.930279e+01
1.610000e-06	-1.096904e-06	-5.229340e-10	-7.621098e+00	-3.852300e+01
1.620000e-06	-1.050924e-06	-5.142366e-10	-7.301634e+00	-3.773047e+01
1.630000e-06	-1.004868e-06	-5.089635e-10	-6.981646e+00	-3.692482e+01
1.640000e-06	-9.587385e-07	-5.007507e-10	-6.661147e+00	-3.610562e+01
1.650000e-06	-9.125848e-07	-4.852165e-10	-6.340479e+00	-3.527245e+01
1.660000e-06	-8.663466e-07	-4.651445e-10	-6.019225e+00	-3.442485e+01
1.670000e-06	-8.200275e-07	-4.438084e-10	-5.697408e+00	-3.356238e+01
1.680000e-06	-7.736032e-07	-4.280262e-10	-5.374859e+00	-3.268456e+01
1.690000e-06	-7.270831e-07	-4.157564e-10	-5.051646e+00	-3.179095e+01
1.700000e-06	-6.805106e-07	-4.080524e-10	-4.728069e+00	-3.088109e+01
1.710000e-06	-6.339974e-07	-3.966309e-10	-4.404903e+00	-2.995453e+01
1.720000e-06	-5.875175e-07	-3.820544e-10	-4.081969e+00	-2.901085e+01
1.730000e-06	-5.408778e-07	-3.643859e-10	-3.757924e+00	-2.804963e+01
1.740000e-06	-4.942316e-07	-3.476287e-10	-3.433835e+00	-2.707051e+01
1.750000e-06	-4.476322e-07	-3.295251e-10	-3.110070e+00	-2.607312e+01
1.760000e-06	-4.008727e-07	-3.114944e-10	-2.785193e+00	-2.505717e+01
1.770000e-06	-3.539826e-07	-2.957397e-10	-2.459409e+00	-2.402238e+01
1.780000e-06	-3.071568e-07	-2.831006e-10	-2.134072e+00	-2.296853e+01
1.790000e-06	-2.603233e-07	-2.694495e-10	-1.808680e+00	-2.189547e+01
1.800000e-06	-2.134230e-07	-2.506146e-10	-1.482826e+00	-2.080309e+01
1.810000e-06	-1.664820e-07	-2.303762e-10	-1.156688e+00	-1.969135e+01
1.820000e-06	-1.195755e-07	-2.119085e-10	-8.307899e-01	-1.856028e+01
1.830000e-06	-7.281159e-08	-1.947122e-10	-5.058822e-01	-1.740997e+01
1.840000e-06	-2.609874e-08	-1.783419e-10	-1.813295e-01	-1.624060e+01
1.850000e-06	2.066473e-08	-1.614498e-10	1.435749e-01	-1.505243e+01
1.860000e-06	6.750705e-08	-1.454981e-10	4.690271e-01	-1.384579e+01
1.870000e-06	1.144145e-07	-1.284977e-10	7.949317e-01	-1.262110e+01
1.880000e-06	1.612859e-07	-1.130164e-10	1.120586e+00	-1.137885e+01
1.890000e-06	2.081724e-07	-9.730580e-11	1.446345e+00	-1.011964e+01
1.900000e-06	2.550234e-07	-7.919166e-11	1.771858e+00	-8.844128e+00
1.910000e-06	3.019467e-07	-6.164369e-11	2.097873e+00	-7.553069e+00
1.920000e-06	3.488681e-07	-4.234992e-11	2.423875e+00	-6.247297e+00
1.930000e-06	3.957168e-07	-2.337507e-11	2.749371e+00	-4.927724e+00
1.940000e-06	4.425105e-07	-4.805178e-12	3.074485e+00	-3.595340e+00
1.950000e-06	4.891628e-07	1.008817e-11	3.398618e+00	-2.251208e+00
1.960000e-06	5.358511e-07	2.387596e-11	3.723000e+00	-8.964605e-01
1.970000e-06	5.824528e-07	3.954120e-11	4.046780e+00	4.677077e-01
1.980000e-06	6.289103e-07	5.777470e-11	4.369559e+00	1.840041e+00
1.990000e-06	6.752868e-07	7.833654e-11	4.691774e+00	3.219232e+00
2.000000e-06	7.215525e-07	9.953411e-11	5.013220e+00	4.603926e+00
2.010000e-06	7.678180e-07	1.197852e-10	5.334665e+00	5.992729e+00
2.020000e-06	8.141252e-07	1.389985e-10	5.656399e+00	7.384213e+00
2.030000e-06	8.604119e-07	1.574799e-10	5.977991e+00	8.776925e+00
2.040000e-06	9.067053e-07	1.750709e-10	6.299630e+00	1.016940e+01
2.050000e-06	9.529456e-07	1.916767e-10	6.620899e+00	1.156015e+01
2.060000e-06	9.990295e-07	2.109532e-10	6.941082e+00	1.294770e+01
2.070000e-06	1.044981e-06	2.309831e-10	7.260345e+00	1.433058e+01
2.080000e-06	1.090877e-06	2.518037e-10	7.579221e+00	1.570733e+01
2.090000e-06	1.136681e-06	2.716357e-10	7.897460e+00	1.707650e+01
2.100000e-06	1.182373e-06	2.903070e-10	8.214920e+00	1.843671e+01
2.110000e-06	1.228026e-06	3.069609e-10	8.532108e+00	1.978658e+01
2.120000e-06	1.273643e-06	3.213654e-10	8.849050e+00	2.112479e+01
2.130000e-06	1.319109e-06	3.381714e-10	9.164935e+00	2.245007e+01
2.140000e-06	1.364417e-06	3.552751e-10	9.479732e+00	2.376122e+01
2.150000e-06	1.409721e-06	3.721986e-10	9.794496e+00	2.505710e+01
2.160000e-06	1.454979e-06	3.905688e-10	1.010894e+01	2.633664e+01
2.170000e-06	1.500169e-06	4.108117e-10	1.042291e+01	2.759885e+01
2.180000e-06	1.545221e-06	4.299611e-10	1.073593e+01	2.884281e+01
2.190000e-06	1.590018e-06	4.458972e-10	1.104717e+01	3.006770e+01
2.200000e-06	1.634743e-06	4.606523e-10	1.135791e+01	3.127278e+01
2.210000e-06	1.679361e-06	4.735695e-10	1.166791e+01	3.245740e+01
2.220000e-06	1.723809e-06	4.885550e-10	1.197672e+01	3.362102e+01
2.230000e-06	1.768136e-06	5.071280e-10	1.228470e+01	3.476316e+01
2.240000e-06	1.812418e-06	5.236891e-10	1.259236e+01	3.588347e+01
2.250000e-06	1.856598e-06	5.378219e-10	1.289932e+01	3.698165e+01
2.260000e-06	1.900607e-06	5.512319e-10	1.320509e+01	3.805755e+01
2.270000e-06	1.944558e-06	5.649974e-10	1.351045e+01	3.911105e+01
2.280000e-06	1.988417e-06	5.776517e-10	1.381517e+01	4.014216e+01
2.290000e-06	2.032197e-06	5.903053e-10	1.411935e+01	4.115095e+01
2.300000e-06	2.075926e-06	6.040676e-10	1.442317e+01	4.213759e+01
2.310000e-06	2.119616e-06	6.187535e-10	1.472672e+01	4.310231e+01
2.320000e-06	2.163207e-06	6.315914e-10	1.502959e+01	4.404541e+01
2.330000e-06	2.206695e-06	6.421638e-10	1.533173e+01	4.496727e+01
2.340000e-06	2.250070e-06	6.506564e-10	1.563309e+01	4.586832e+01
2.350000e-06	2.293295e-06	6.623413e-10	1.593341e+01	4.674905e+01
2.360000e-06	2.336362e-06	6.759624e-10	1.623263e+01	4.760999e+01
2.370000e-06	2.379031e-06	6.900480e-10	1.652909e+01	4.845172e+01
2.380000e-06	2.421445e-06	7.037635e-10	1.682378e+01	4.927484e+01
2.390000e-06	2.463624e-06	7.169828e-10	1.711683e+01	5.007999e+01
2.400000e-06	2.505441e-06	7.302672e-10	1.740737e+01	5.086782e+01
2.410000e-06	2.546955e-06	7.415033e-10	1.769580e+01	5.163901e+01
2.420000e-06	2.588151e-06	7.520144e-10	1.798202e+01	5.239422e+01
2.430000e-06	2.628985e-06	7.632574e-10	1.826573e+01	5.313414e+01
2.440000e-06	2.669522e-06	7.754966e-10	1.854737e+01	5.385942e+01
2.450000e-06	2.709853e-06	7.903786e-10	1.882758e+01	5.457074e+01
2.460000e-06	2.750008e-06	8.053087e-10	1.910658e+01	5.526872e+01
2.470000e-06	2.790022e-06	8.155689e-10	1.938459e+01	5.595397e+01
2.480000e-06	2.829849e-06	8.240679e-10	1.966129e+01	5.662709e+01
2.490000e-06	2.869608e-06	8.307410e-10	1.993753e+01	5.728863e+01
2.500000e-06	2.909333e-06	8.378477e-10	2.021354e+01	5.793909e+01
2.510000e-06	2.948926e-06	8.474739e-10	2.048862e+01	5.857896e+01
2.520000e-06	2.988311e-06	8.592696e-10	2.076226e+01	5.920867e+01
2.530000e-06	3.027577e-06	8.718905e-10	2.103508e+01	5.982860e+01
2.540000e-06	3.066624e-06	8.828072e-10	2.130637e+01	6.043910e+01
2.550000e-06	3.105394e-06	8.905700e-10	2.157574e+01	6.104045e+01
2.560000e-06	3.143896e-06	8.964849e-10	2.184324e+01	6.163290e+01
2.570000e-06	3.182135e-06	9.037932e-10	2.210892e+01	6.221664e+01
2.580000e-06	3.220175e-06	9.108146e-10	2.237321e+01	6.279182e+01
2.590000e-06	3.257956e-06	9.160675e-10	2.263571e+01	6.335854e+01
2.600000e-06	3.295605e-06	9.225445e-10	2.289729e+01	6.391685e+01
2.610000e-06	3.333113e-06	9.306759e-10	2.315788e+01	6.446677e+01
2.620000e-06	3.370391e-06	9.418630e-10	2.341688e+01	6.500828e+01
2.630000e-06	3.407405e-06	9.502162e-10	2.367405e+01	6.554129e+01
2.640000e-06	3.444118e-06	9.556910e-10	2.392913e+01	6.606573e+01
2.650000e-06	3.480570e-06	9.613640e-10	2.418239e+01	6.658146e+01
2.660000e-06	3.516775e-06	9.664082e-10	2.443394e+01	6.708833e+01
2.670000e-06	3.552755e-06	9.723127e-10	2.468392e+01	6.758616e+01
2.680000e-06	3.588623e-06	9.810098e-10	2.493313e+01	6.807477e+01
2.690000e-06	3.624374e-06	9.861759e-10	2.518152e+01	6.855394e+01
2.700000e-06	3.659982e-06	9.920069e-10	2.542891e+01	6.902347e+01
2.710000e-06	3.695486e-06	9.973143e-10	2.567559e+01	6.948313e+01
2.720000e-06	3.730798e-06	9.999640e-10	2.592093e+01	6.993272e+01
2.730000e-06	3.765815e-06	1.005610e-09	2.616422e+01	7.037203e+01
2.740000e-06	3.800485e-06	1.013232e-09	2.640511e+01	7.080085e+01
2.750000e-06	3.834594e-06	1.022211e-09	2.664209e+01	7.121899e+01
2.760000e-06	3.868008e-06	1.029734e-09	2.687424e+01	7.162630e+01
2.770000e-06	3.901012e-06	1.036747e-09	2.710355e+01	7.202261e+01
2.780000e-06	3.933714e-06	1.040251e-09	2.733075e+01	7.240780e+01
2.790000e-06	3.966111e-06	1.043574e-09	2.755584e+01	7.278178e+01
2.800000e-06	3.998262e-06	1.046737e-09	2.777923e+01	7.314447e+01
2.810000e-06	4.030178e-06	1.052762e-09	2.800097e+01	7.349585e+01
2.820000e-06	4.061927e-06	1.060324e-09	2.822156e+01	7.383589e+01
2.830000e-06	4.093462e-06	1.068306e-09	2.844065e+01	7.416465e+01
2.840000e-06	4.124703e-06	1.074962e-09	2.865771e+01	7.448217e+01
2.850000e-06	4.155719e-06	1.075781e-09	2.887321e+01	7.478855e+01
2.860000e-06	4.186477e-06	1.077408e-09	2.908691e+01	7.508395e+01
2.870000e-06	4.216886e-06	1.078136e-09	2.929819e+01	7.536851e+01
2.880000e-06	4.246968e-06	1.076860e-09	2.950719e+01	7.564246e+01
2.890000e-06	4.276766e-06	1.081138e-09	2.971422e+01	7.590602e+01
2.900000e-06	4.306340e-06	1.086013e-09	2.991970e+01	7.615946e+01
