# Temperatura_=_12.79
# Concentracion g/m^3_=_1620.0
# C_Vs_to_Am_M_A/Vsm_=_65563218390.804596
# pendiente_HvsI_1/m_=_3716.3
# ordenada_HvsI_A/m_=_1297.0
# frecuencia_Hz_=_135105.88918760864

Tiempo_(s)	Campo_(V.s)	Magnetizacion_(V.s)	Campo_(kA/m)	Magnetizacion_(A/m)
0.000000e+00	-5.510199e-06	-7.821494e-10	-3.835821e+01	-5.131860e+01
1.000000e-08	-5.510445e-06	-7.806943e-10	-3.835992e+01	-5.130189e+01
2.000000e-08	-5.510478e-06	-7.801757e-10	-3.836015e+01	-5.128271e+01
3.000000e-08	-5.510192e-06	-7.816186e-10	-3.835816e+01	-5.126101e+01
4.000000e-08	-5.509469e-06	-7.804323e-10	-3.835313e+01	-5.123675e+01
5.000000e-08	-5.508257e-06	-7.777228e-10	-3.834469e+01	-5.120991e+01
6.000000e-08	-5.506533e-06	-7.762875e-10	-3.833269e+01	-5.118047e+01
7.000000e-08	-5.504170e-06	-7.813112e-10	-3.831624e+01	-5.114844e+01
8.000000e-08	-5.501205e-06	-7.781443e-10	-3.829560e+01	-5.111384e+01
9.000000e-08	-5.497753e-06	-7.548300e-10	-3.827156e+01	-5.107669e+01
1.000000e-07	-5.493870e-06	-7.521663e-10	-3.824453e+01	-5.103705e+01
1.100000e-07	-5.489662e-06	-7.860012e-10	-3.821524e+01	-5.099498e+01
1.200000e-07	-5.485103e-06	-7.773461e-10	-3.818351e+01	-5.095055e+01
1.300000e-07	-5.480232e-06	-7.302173e-10	-3.814959e+01	-5.090386e+01
1.400000e-07	-5.475124e-06	-7.484651e-10	-3.811404e+01	-5.085501e+01
1.500000e-07	-5.469655e-06	-7.634568e-10	-3.807597e+01	-5.080413e+01
1.600000e-07	-5.463740e-06	-7.785320e-10	-3.803479e+01	-5.075135e+01
1.700000e-07	-5.457417e-06	-7.487968e-10	-3.799077e+01	-5.069682e+01
1.800000e-07	-5.450755e-06	-7.766035e-10	-3.794440e+01	-5.064069e+01
1.900000e-07	-5.443760e-06	-7.917001e-10	-3.789571e+01	-5.058313e+01
2.000000e-07	-5.436407e-06	-7.403036e-10	-3.784452e+01	-5.052431e+01
2.100000e-07	-5.428782e-06	-7.189840e-10	-3.779144e+01	-5.046442e+01
2.200000e-07	-5.420928e-06	-7.426265e-10	-3.773677e+01	-5.040363e+01
2.300000e-07	-5.412769e-06	-7.885691e-10	-3.767996e+01	-5.034215e+01
2.400000e-07	-5.404062e-06	-7.769752e-10	-3.761935e+01	-5.028014e+01
2.500000e-07	-5.394788e-06	-7.744214e-10	-3.755479e+01	-5.021781e+01
2.600000e-07	-5.384953e-06	-7.625107e-10	-3.748633e+01	-5.015534e+01
2.700000e-07	-5.374446e-06	-7.698281e-10	-3.741319e+01	-5.009289e+01
2.800000e-07	-5.363373e-06	-7.426393e-10	-3.733610e+01	-5.003064e+01
2.900000e-07	-5.351868e-06	-7.573837e-10	-3.725602e+01	-4.996874e+01
3.000000e-07	-5.340051e-06	-7.657455e-10	-3.717375e+01	-4.990735e+01
3.100000e-07	-5.327902e-06	-7.809353e-10	-3.708918e+01	-4.984659e+01
3.200000e-07	-5.315307e-06	-7.838516e-10	-3.700150e+01	-4.978657e+01
3.300000e-07	-5.302303e-06	-7.892464e-10	-3.691098e+01	-4.972739e+01
3.400000e-07	-5.288834e-06	-7.731471e-10	-3.681721e+01	-4.966914e+01
3.500000e-07	-5.274937e-06	-7.727284e-10	-3.672048e+01	-4.961186e+01
3.600000e-07	-5.260726e-06	-7.686544e-10	-3.662155e+01	-4.955559e+01
3.700000e-07	-5.246137e-06	-7.512114e-10	-3.651999e+01	-4.950034e+01
3.800000e-07	-5.231060e-06	-7.622064e-10	-3.641503e+01	-4.944610e+01
3.900000e-07	-5.215414e-06	-7.998597e-10	-3.630612e+01	-4.939282e+01
4.000000e-07	-5.199126e-06	-7.741570e-10	-3.619273e+01	-4.934045e+01
4.100000e-07	-5.182443e-06	-7.391522e-10	-3.607660e+01	-4.928891e+01
4.200000e-07	-5.165598e-06	-7.796398e-10	-3.595933e+01	-4.923806e+01
4.300000e-07	-5.148367e-06	-7.886184e-10	-3.583939e+01	-4.918780e+01
4.400000e-07	-5.130776e-06	-7.390624e-10	-3.571693e+01	-4.913795e+01
4.500000e-07	-5.112931e-06	-7.482889e-10	-3.559270e+01	-4.908834e+01
4.600000e-07	-5.094703e-06	-7.983435e-10	-3.546581e+01	-4.903877e+01
4.700000e-07	-5.075950e-06	-7.417399e-10	-3.533526e+01	-4.898903e+01
4.800000e-07	-5.056747e-06	-7.215439e-10	-3.520159e+01	-4.893888e+01
4.900000e-07	-5.037245e-06	-7.750227e-10	-3.506583e+01	-4.888808e+01
5.000000e-07	-5.017480e-06	-7.703937e-10	-3.492824e+01	-4.883637e+01
5.100000e-07	-4.997535e-06	-7.096138e-10	-3.478940e+01	-4.878349e+01
5.200000e-07	-4.977415e-06	-7.542054e-10	-3.464933e+01	-4.872916e+01
5.300000e-07	-4.957009e-06	-7.654081e-10	-3.450728e+01	-4.867310e+01
5.400000e-07	-4.936299e-06	-7.142220e-10	-3.436311e+01	-4.861504e+01
5.500000e-07	-4.915247e-06	-7.274026e-10	-3.421656e+01	-4.855471e+01
5.600000e-07	-4.893823e-06	-7.720156e-10	-3.406743e+01	-4.849183e+01
5.700000e-07	-4.872004e-06	-7.161942e-10	-3.391553e+01	-4.842615e+01
5.800000e-07	-4.849780e-06	-7.075615e-10	-3.376083e+01	-4.835743e+01
5.900000e-07	-4.827259e-06	-7.513009e-10	-3.360405e+01	-4.828542e+01
6.000000e-07	-4.804400e-06	-7.246320e-10	-3.344492e+01	-4.820991e+01
6.100000e-07	-4.781154e-06	-6.884552e-10	-3.328310e+01	-4.813070e+01
6.200000e-07	-4.757640e-06	-7.314989e-10	-3.311941e+01	-4.804762e+01
6.300000e-07	-4.733883e-06	-7.245990e-10	-3.295403e+01	-4.796052e+01
6.400000e-07	-4.709965e-06	-6.869479e-10	-3.278753e+01	-4.786928e+01
6.500000e-07	-4.685819e-06	-7.147797e-10	-3.261944e+01	-4.777379e+01
6.600000e-07	-4.661264e-06	-7.286758e-10	-3.244851e+01	-4.767399e+01
6.700000e-07	-4.636293e-06	-6.912089e-10	-3.227467e+01	-4.756984e+01
6.800000e-07	-4.610897e-06	-6.963143e-10	-3.209789e+01	-4.746135e+01
6.900000e-07	-4.584875e-06	-7.159808e-10	-3.191674e+01	-4.734852e+01
7.000000e-07	-4.558204e-06	-6.896724e-10	-3.173107e+01	-4.723143e+01
7.100000e-07	-4.531103e-06	-6.876206e-10	-3.154242e+01	-4.711015e+01
7.200000e-07	-4.503696e-06	-7.031188e-10	-3.135163e+01	-4.698480e+01
7.300000e-07	-4.476043e-06	-6.864979e-10	-3.115913e+01	-4.685554e+01
7.400000e-07	-4.448177e-06	-6.744384e-10	-3.096514e+01	-4.672253e+01
7.500000e-07	-4.420166e-06	-6.957960e-10	-3.077015e+01	-4.658598e+01
7.600000e-07	-4.391971e-06	-6.869301e-10	-3.057388e+01	-4.644611e+01
7.700000e-07	-4.363466e-06	-6.731852e-10	-3.037544e+01	-4.630317e+01
7.800000e-07	-4.334570e-06	-6.812194e-10	-3.017429e+01	-4.615741e+01
7.900000e-07	-4.305371e-06	-6.832216e-10	-2.997103e+01	-4.600913e+01
8.000000e-07	-4.275938e-06	-6.646981e-10	-2.976613e+01	-4.585861e+01
8.100000e-07	-4.246237e-06	-6.739490e-10	-2.955937e+01	-4.570615e+01
8.200000e-07	-4.216261e-06	-6.798177e-10	-2.935070e+01	-4.555207e+01
8.300000e-07	-4.186001e-06	-6.686796e-10	-2.914005e+01	-4.539667e+01
8.400000e-07	-4.155420e-06	-6.646413e-10	-2.892717e+01	-4.524025e+01
8.500000e-07	-4.124508e-06	-6.767790e-10	-2.871198e+01	-4.508313e+01
8.600000e-07	-4.093291e-06	-6.683788e-10	-2.849467e+01	-4.492559e+01
8.700000e-07	-4.061870e-06	-6.620133e-10	-2.827594e+01	-4.476791e+01
8.800000e-07	-4.030308e-06	-6.674982e-10	-2.805623e+01	-4.461036e+01
8.900000e-07	-3.998513e-06	-6.660527e-10	-2.783489e+01	-4.445317e+01
9.000000e-07	-3.966510e-06	-6.518609e-10	-2.761211e+01	-4.429657e+01
9.100000e-07	-3.934301e-06	-6.515825e-10	-2.738789e+01	-4.414075e+01
9.200000e-07	-3.901777e-06	-6.515295e-10	-2.716148e+01	-4.398587e+01
9.300000e-07	-3.868874e-06	-6.432011e-10	-2.693243e+01	-4.383207e+01
9.400000e-07	-3.835541e-06	-6.445974e-10	-2.670039e+01	-4.367945e+01
9.500000e-07	-3.801726e-06	-6.535910e-10	-2.646499e+01	-4.352805e+01
9.600000e-07	-3.767441e-06	-6.498666e-10	-2.622633e+01	-4.337792e+01
9.700000e-07	-3.732777e-06	-6.444543e-10	-2.598502e+01	-4.322903e+01
9.800000e-07	-3.697797e-06	-6.476287e-10	-2.574151e+01	-4.308133e+01
9.900000e-07	-3.662517e-06	-6.436055e-10	-2.549592e+01	-4.293472e+01
1.000000e-06	-3.626999e-06	-6.370445e-10	-2.524866e+01	-4.278908e+01
1.010000e-06	-3.591303e-06	-6.394101e-10	-2.500018e+01	-4.264423e+01
1.020000e-06	-3.555485e-06	-6.435792e-10	-2.475084e+01	-4.249996e+01
1.030000e-06	-3.519577e-06	-6.374280e-10	-2.450087e+01	-4.235602e+01
1.040000e-06	-3.483512e-06	-6.365404e-10	-2.424981e+01	-4.221214e+01
1.050000e-06	-3.447157e-06	-6.356235e-10	-2.399673e+01	-4.206799e+01
1.060000e-06	-3.410488e-06	-6.258702e-10	-2.374146e+01	-4.192324e+01
1.070000e-06	-3.373618e-06	-6.149820e-10	-2.348480e+01	-4.177751e+01
1.080000e-06	-3.336534e-06	-6.153440e-10	-2.322665e+01	-4.163041e+01
1.090000e-06	-3.299111e-06	-6.124858e-10	-2.296614e+01	-4.148151e+01
1.100000e-06	-3.261421e-06	-6.100511e-10	-2.270376e+01	-4.133040e+01
1.110000e-06	-3.223555e-06	-6.084766e-10	-2.244016e+01	-4.117662e+01
1.120000e-06	-3.185505e-06	-6.056374e-10	-2.217529e+01	-4.101972e+01
1.130000e-06	-3.147217e-06	-5.974125e-10	-2.190876e+01	-4.085923e+01
1.140000e-06	-3.108658e-06	-5.940012e-10	-2.164033e+01	-4.069471e+01
1.150000e-06	-3.069850e-06	-5.904135e-10	-2.137018e+01	-4.052568e+01
1.160000e-06	-3.030898e-06	-5.839449e-10	-2.109902e+01	-4.035171e+01
1.170000e-06	-2.991813e-06	-5.786819e-10	-2.082694e+01	-4.017235e+01
1.180000e-06	-2.952565e-06	-5.797459e-10	-2.055372e+01	-3.998718e+01
1.190000e-06	-2.913141e-06	-5.784933e-10	-2.027928e+01	-3.979580e+01
1.200000e-06	-2.873492e-06	-5.766662e-10	-2.000327e+01	-3.959783e+01
1.210000e-06	-2.833760e-06	-5.748239e-10	-1.972668e+01	-3.939291e+01
1.220000e-06	-2.793958e-06	-5.709609e-10	-1.944961e+01	-3.918073e+01
1.230000e-06	-2.753997e-06	-5.635673e-10	-1.917143e+01	-3.896097e+01
1.240000e-06	-2.713857e-06	-5.566661e-10	-1.889200e+01	-3.873339e+01
1.250000e-06	-2.673459e-06	-5.511125e-10	-1.861078e+01	-3.849776e+01
1.260000e-06	-2.632791e-06	-5.467855e-10	-1.832768e+01	-3.825389e+01
1.270000e-06	-2.591932e-06	-5.473888e-10	-1.804325e+01	-3.800162e+01
1.280000e-06	-2.550927e-06	-5.486273e-10	-1.775779e+01	-3.774083e+01
1.290000e-06	-2.509651e-06	-5.453142e-10	-1.747046e+01	-3.747146e+01
1.300000e-06	-2.468017e-06	-5.370321e-10	-1.718063e+01	-3.719346e+01
1.310000e-06	-2.426040e-06	-5.286200e-10	-1.688842e+01	-3.690682e+01
1.320000e-06	-2.383724e-06	-5.212313e-10	-1.659384e+01	-3.661158e+01
1.330000e-06	-2.341071e-06	-5.184796e-10	-1.629692e+01	-3.630778e+01
1.340000e-06	-2.298183e-06	-5.180099e-10	-1.599836e+01	-3.599553e+01
1.350000e-06	-2.255116e-06	-5.176043e-10	-1.569856e+01	-3.567494e+01
1.360000e-06	-2.211818e-06	-5.143778e-10	-1.539715e+01	-3.534614e+01
1.370000e-06	-2.168329e-06	-5.094801e-10	-1.509441e+01	-3.500930e+01
1.380000e-06	-2.124743e-06	-5.026335e-10	-1.479100e+01	-3.466459e+01
1.390000e-06	-2.081114e-06	-4.955532e-10	-1.448728e+01	-3.431220e+01
1.400000e-06	-2.037407e-06	-4.878405e-10	-1.418302e+01	-3.395232e+01
1.410000e-06	-1.993617e-06	-4.822874e-10	-1.387819e+01	-3.358516e+01
1.420000e-06	-1.949735e-06	-4.772067e-10	-1.357271e+01	-3.321090e+01
1.430000e-06	-1.905759e-06	-4.747881e-10	-1.326658e+01	-3.282975e+01
1.440000e-06	-1.861731e-06	-4.727126e-10	-1.296009e+01	-3.244187e+01
1.450000e-06	-1.817628e-06	-4.692851e-10	-1.265307e+01	-3.204743e+01
1.460000e-06	-1.773380e-06	-4.606833e-10	-1.234505e+01	-3.164659e+01
1.470000e-06	-1.728962e-06	-4.499207e-10	-1.203584e+01	-3.123944e+01
1.480000e-06	-1.684424e-06	-4.391767e-10	-1.172580e+01	-3.082610e+01
1.490000e-06	-1.639771e-06	-4.298228e-10	-1.141496e+01	-3.040663e+01
1.500000e-06	-1.594941e-06	-4.239529e-10	-1.110288e+01	-2.998104e+01
1.510000e-06	-1.550008e-06	-4.185808e-10	-1.079009e+01	-2.954932e+01
1.520000e-06	-1.505009e-06	-4.121249e-10	-1.047683e+01	-2.911143e+01
1.530000e-06	-1.459902e-06	-4.031210e-10	-1.016283e+01	-2.866727e+01
1.540000e-06	-1.414669e-06	-3.937228e-10	-9.847953e+00	-2.821670e+01
1.550000e-06	-1.369320e-06	-3.893356e-10	-9.532264e+00	-2.775954e+01
1.560000e-06	-1.323923e-06	-3.858735e-10	-9.216241e+00	-2.729556e+01
1.570000e-06	-1.278479e-06	-3.803420e-10	-8.899891e+00	-2.682448e+01
1.580000e-06	-1.232914e-06	-3.722769e-10	-8.582701e+00	-2.634600e+01
1.590000e-06	-1.187218e-06	-3.637422e-10	-8.264593e+00	-2.585973e+01
1.600000e-06	-1.141459e-06	-3.545916e-10	-7.946048e+00	-2.536530e+01
1.610000e-06	-1.095708e-06	-3.465247e-10	-7.627566e+00	-2.486224e+01
1.620000e-06	-1.049873e-06	-3.408023e-10	-7.308492e+00	-2.435009e+01
1.630000e-06	-1.003913e-06	-3.348179e-10	-6.988552e+00	-2.382833e+01
1.640000e-06	-9.578920e-07	-3.265195e-10	-6.668184e+00	-2.329644e+01
1.650000e-06	-9.118399e-07	-3.139711e-10	-6.347601e+00	-2.275385e+01
1.660000e-06	-8.657379e-07	-3.018729e-10	-6.026671e+00	-2.219999e+01
1.670000e-06	-8.195371e-07	-2.893719e-10	-5.705053e+00	-2.163426e+01
1.680000e-06	-7.732490e-07	-2.803144e-10	-5.382826e+00	-2.105608e+01
1.690000e-06	-7.269339e-07	-2.733099e-10	-5.060413e+00	-2.046484e+01
1.700000e-06	-6.805400e-07	-2.695245e-10	-4.737450e+00	-1.985996e+01
1.710000e-06	-6.340512e-07	-2.648813e-10	-4.413828e+00	-1.924087e+01
1.720000e-06	-5.875565e-07	-2.559293e-10	-4.090164e+00	-1.860700e+01
1.730000e-06	-5.410813e-07	-2.445816e-10	-3.766635e+00	-1.795783e+01
1.740000e-06	-4.945722e-07	-2.322247e-10	-3.442871e+00	-1.729287e+01
1.750000e-06	-4.480067e-07	-2.211474e-10	-3.118714e+00	-1.661165e+01
1.760000e-06	-4.014158e-07	-2.122144e-10	-2.794380e+00	-1.591377e+01
1.770000e-06	-3.547592e-07	-2.031186e-10	-2.469589e+00	-1.519888e+01
1.780000e-06	-3.080323e-07	-1.950766e-10	-2.144308e+00	-1.446667e+01
1.790000e-06	-2.613524e-07	-1.859364e-10	-1.819355e+00	-1.371692e+01
1.800000e-06	-2.147051e-07	-1.741442e-10	-1.494629e+00	-1.294947e+01
1.810000e-06	-1.680439e-07	-1.603138e-10	-1.169806e+00	-1.216422e+01
1.820000e-06	-1.214091e-07	-1.444522e-10	-8.451667e-01	-1.136118e+01
1.830000e-06	-7.473962e-08	-1.293457e-10	-5.202857e-01	-1.054041e+01
1.840000e-06	-2.805802e-08	-1.165057e-10	-1.953206e-01	-9.702078e+00
1.850000e-06	1.867902e-08	-1.057507e-10	1.300304e-01	-8.846436e+00
1.860000e-06	6.547181e-08	-9.735029e-11	4.557696e-01	-7.973823e+00
1.870000e-06	1.122107e-07	-8.648629e-11	7.811333e-01	-7.084669e+00
1.880000e-06	1.589018e-07	-7.237435e-11	1.106165e+00	-6.179496e+00
1.890000e-06	2.056578e-07	-5.766445e-11	1.431648e+00	-5.258918e+00
1.900000e-06	2.524971e-07	-4.240776e-11	1.757711e+00	-4.323635e+00
1.910000e-06	2.992764e-07	-2.883064e-11	2.083356e+00	-3.374439e+00
1.920000e-06	3.459930e-07	-1.614341e-11	2.408565e+00	-2.412204e+00
1.930000e-06	3.926524e-07	-4.867560e-12	2.733375e+00	-1.437885e+00
1.940000e-06	4.391728e-07	5.770261e-12	3.057218e+00	-4.525150e-01
1.950000e-06	4.855777e-07	1.542667e-11	3.380257e+00	5.428012e-01
1.960000e-06	5.319812e-07	2.633143e-11	3.703287e+00	1.546892e+00
1.970000e-06	5.783982e-07	3.913894e-11	4.026409e+00	2.558526e+00
1.980000e-06	6.248200e-07	5.581380e-11	4.349566e+00	3.576417e+00
1.990000e-06	6.712335e-07	7.512992e-11	4.672665e+00	4.599231e+00
2.000000e-06	7.175597e-07	9.458854e-11	4.995156e+00	5.625597e+00
2.010000e-06	7.638715e-07	1.107514e-10	5.317547e+00	6.654111e+00
2.020000e-06	8.101112e-07	1.222276e-10	5.639435e+00	7.683345e+00
2.030000e-06	8.562545e-07	1.320542e-10	5.960653e+00	8.711858e+00
2.040000e-06	9.023469e-07	1.433556e-10	6.281517e+00	9.738202e+00
2.050000e-06	9.483535e-07	1.545278e-10	6.601784e+00	1.076093e+01
2.060000e-06	9.943490e-07	1.671106e-10	6.921972e+00	1.177860e+01
2.070000e-06	1.040332e-06	1.815215e-10	7.242072e+00	1.278981e+01
2.080000e-06	1.086214e-06	1.976164e-10	7.561473e+00	1.379316e+01
2.090000e-06	1.132001e-06	2.134623e-10	7.880210e+00	1.478730e+01
2.100000e-06	1.177707e-06	2.267940e-10	8.198383e+00	1.577092e+01
2.110000e-06	1.223303e-06	2.379306e-10	8.515795e+00	1.674277e+01
2.120000e-06	1.268771e-06	2.490797e-10	8.832307e+00	1.770163e+01
2.130000e-06	1.314083e-06	2.615762e-10	9.147737e+00	1.864639e+01
2.140000e-06	1.359372e-06	2.729833e-10	9.463014e+00	1.957596e+01
2.150000e-06	1.404642e-06	2.842799e-10	9.778152e+00	2.048937e+01
2.160000e-06	1.449830e-06	2.959371e-10	1.009271e+01	2.138570e+01
2.170000e-06	1.494937e-06	3.077488e-10	1.040672e+01	2.226414e+01
2.180000e-06	1.539874e-06	3.194566e-10	1.071954e+01	2.312394e+01
2.190000e-06	1.584734e-06	3.311343e-10	1.103183e+01	2.396448e+01
2.200000e-06	1.629472e-06	3.425888e-10	1.134326e+01	2.478519e+01
2.210000e-06	1.674004e-06	3.537143e-10	1.165326e+01	2.558562e+01
2.220000e-06	1.718382e-06	3.645615e-10	1.196219e+01	2.636542e+01
2.230000e-06	1.762581e-06	3.761934e-10	1.226987e+01	2.712431e+01
2.240000e-06	1.806692e-06	3.866242e-10	1.257694e+01	2.786214e+01
2.250000e-06	1.850753e-06	3.944412e-10	1.288367e+01	2.857881e+01
2.260000e-06	1.894743e-06	4.023221e-10	1.318990e+01	2.927435e+01
2.270000e-06	1.938659e-06	4.113938e-10	1.349561e+01	2.994884e+01
2.280000e-06	1.982500e-06	4.192219e-10	1.380080e+01	3.060248e+01
2.290000e-06	2.026283e-06	4.267729e-10	1.410559e+01	3.123551e+01
2.300000e-06	2.070009e-06	4.336143e-10	1.440998e+01	3.184828e+01
2.310000e-06	2.113652e-06	4.406180e-10	1.471379e+01	3.244119e+01
2.320000e-06	2.157130e-06	4.483630e-10	1.501645e+01	3.301470e+01
2.330000e-06	2.200484e-06	4.562811e-10	1.531826e+01	3.356934e+01
2.340000e-06	2.243692e-06	4.625013e-10	1.561903e+01	3.410569e+01
2.350000e-06	2.286747e-06	4.678615e-10	1.591876e+01	3.462435e+01
2.360000e-06	2.329694e-06	4.747149e-10	1.621773e+01	3.512599e+01
2.370000e-06	2.372356e-06	4.821115e-10	1.651471e+01	3.561130e+01
2.380000e-06	2.414654e-06	4.894565e-10	1.680916e+01	3.608099e+01
2.390000e-06	2.456578e-06	4.970583e-10	1.710101e+01	3.653578e+01
2.400000e-06	2.498158e-06	5.046733e-10	1.739046e+01	3.697641e+01
2.410000e-06	2.539435e-06	5.129640e-10	1.767779e+01	3.740363e+01
2.420000e-06	2.580476e-06	5.217397e-10	1.796349e+01	3.781818e+01
2.430000e-06	2.621234e-06	5.296311e-10	1.824722e+01	3.822078e+01
2.440000e-06	2.661763e-06	5.362284e-10	1.852936e+01	3.861216e+01
2.450000e-06	2.702200e-06	5.428787e-10	1.881085e+01	3.899301e+01
2.460000e-06	2.742409e-06	5.502414e-10	1.909076e+01	3.936399e+01
2.470000e-06	2.782423e-06	5.579734e-10	1.936931e+01	3.972576e+01
2.480000e-06	2.822325e-06	5.651687e-10	1.964708e+01	4.007892e+01
2.490000e-06	2.862118e-06	5.699793e-10	1.992410e+01	4.042404e+01
2.500000e-06	2.901752e-06	5.747036e-10	2.020000e+01	4.076164e+01
2.510000e-06	2.941197e-06	5.803509e-10	2.047459e+01	4.109221e+01
2.520000e-06	2.980540e-06	5.860448e-10	2.074847e+01	4.141620e+01
2.530000e-06	3.019706e-06	5.917853e-10	2.102111e+01	4.173399e+01
2.540000e-06	3.058609e-06	5.968907e-10	2.129193e+01	4.204593e+01
2.550000e-06	3.097252e-06	5.993432e-10	2.156094e+01	4.235233e+01
2.560000e-06	3.135645e-06	6.011726e-10	2.182820e+01	4.265342e+01
2.570000e-06	3.173858e-06	6.060783e-10	2.209421e+01	4.294941e+01
2.580000e-06	3.211853e-06	6.126528e-10	2.235871e+01	4.324046e+01
2.590000e-06	3.249633e-06	6.180011e-10	2.262171e+01	4.352667e+01
2.600000e-06	3.287205e-06	6.226541e-10	2.288326e+01	4.380813e+01
2.610000e-06	3.324550e-06	6.283044e-10	2.314322e+01	4.408485e+01
2.620000e-06	3.361696e-06	6.347640e-10	2.340181e+01	4.435684e+01
2.630000e-06	3.398575e-06	6.400343e-10	2.365854e+01	4.462404e+01
2.640000e-06	3.435147e-06	6.424169e-10	2.391313e+01	4.488638e+01
2.650000e-06	3.471469e-06	6.424820e-10	2.416598e+01	4.514377e+01
2.660000e-06	3.507600e-06	6.437886e-10	2.441749e+01	4.539608e+01
2.670000e-06	3.543580e-06	6.463234e-10	2.466796e+01	4.564317e+01
2.680000e-06	3.579439e-06	6.495229e-10	2.491759e+01	4.588488e+01
2.690000e-06	3.615189e-06	6.534005e-10	2.516645e+01	4.612104e+01
2.700000e-06	3.650799e-06	6.581614e-10	2.541435e+01	4.635147e+01
2.710000e-06	3.686215e-06	6.636930e-10	2.566089e+01	4.657599e+01
2.720000e-06	3.721383e-06	6.679027e-10	2.590570e+01	4.679442e+01
2.730000e-06	3.756192e-06	6.716687e-10	2.614802e+01	4.700659e+01
2.740000e-06	3.790624e-06	6.748812e-10	2.638771e+01	4.721231e+01
2.750000e-06	3.824658e-06	6.765406e-10	2.662463e+01	4.741144e+01
2.760000e-06	3.858068e-06	6.779973e-10	2.685721e+01	4.760383e+01
2.770000e-06	3.890905e-06	6.810434e-10	2.708580e+01	4.778935e+01
2.780000e-06	3.923406e-06	6.858166e-10	2.731205e+01	4.796789e+01
2.790000e-06	3.955650e-06	6.917373e-10	2.753651e+01	4.813935e+01
2.800000e-06	3.987693e-06	6.967706e-10	2.775957e+01	4.830368e+01
2.810000e-06	4.019598e-06	7.006042e-10	2.798167e+01	4.846084e+01
2.820000e-06	4.051374e-06	7.030465e-10	2.820287e+01	4.861080e+01
2.830000e-06	4.082876e-06	7.036710e-10	2.842217e+01	4.875358e+01
2.840000e-06	4.114101e-06	7.030358e-10	2.863954e+01	4.888921e+01
2.850000e-06	4.145115e-06	7.017808e-10	2.885543e+01	4.901776e+01
2.860000e-06	4.175819e-06	7.022949e-10	2.906917e+01	4.913932e+01
2.870000e-06	4.206211e-06	7.050960e-10	2.928074e+01	4.925401e+01
2.880000e-06	4.236339e-06	7.079592e-10	2.949047e+01	4.936197e+01
2.890000e-06	4.266176e-06	7.108982e-10	2.969818e+01	4.946336e+01
2.900000e-06	4.295734e-06	7.140685e-10	2.990394e+01	4.955837e+01
