# Temperatura_=_-0.3
# Concentracion g/m^3_=_1620.0
# C_Vs_to_Am_M_A/Vsm_=_65563218390.804596
# pendiente_HvsI_1/m_=_3716.3
# ordenada_HvsI_A/m_=_1297.0
# frecuencia_Hz_=_135106.415851841

Tiempo_(s)	Campo_(V.s)	Magnetizacion_(V.s)	Campo_(kA/m)	Magnetizacion_(A/m)
0.000000e+00	-5.523574e-06	-1.421676e-09	-3.837729e+01	-9.083088e+01
1.000000e-08	-5.523798e-06	-1.421318e-09	-3.837885e+01	-9.084128e+01
2.000000e-08	-5.523825e-06	-1.421000e-09	-3.837903e+01	-9.085254e+01
3.000000e-08	-5.523613e-06	-1.419623e-09	-3.837756e+01	-9.086456e+01
4.000000e-08	-5.522922e-06	-1.416165e-09	-3.837276e+01	-9.087719e+01
5.000000e-08	-5.521554e-06	-1.411643e-09	-3.836326e+01	-9.089026e+01
6.000000e-08	-5.519546e-06	-1.400770e-09	-3.834930e+01	-9.090358e+01
7.000000e-08	-5.516862e-06	-1.380083e-09	-3.833065e+01	-9.091693e+01
8.000000e-08	-5.513605e-06	-1.389707e-09	-3.830802e+01	-9.093005e+01
9.000000e-08	-5.509966e-06	-1.457267e-09	-3.828274e+01	-9.094267e+01
1.000000e-07	-5.505951e-06	-1.485981e-09	-3.825485e+01	-9.095450e+01
1.100000e-07	-5.501621e-06	-1.398100e-09	-3.822476e+01	-9.096524e+01
1.200000e-07	-5.497094e-06	-1.328385e-09	-3.819331e+01	-9.097455e+01
1.300000e-07	-5.492401e-06	-1.361712e-09	-3.816070e+01	-9.098208e+01
1.400000e-07	-5.487304e-06	-1.449468e-09	-3.812529e+01	-9.098750e+01
1.500000e-07	-5.481707e-06	-1.385992e-09	-3.808640e+01	-9.099044e+01
1.600000e-07	-5.475826e-06	-1.324754e-09	-3.804554e+01	-9.099053e+01
1.700000e-07	-5.469642e-06	-1.377738e-09	-3.800257e+01	-9.098740e+01
1.800000e-07	-5.462982e-06	-1.465573e-09	-3.795630e+01	-9.098070e+01
1.900000e-07	-5.455814e-06	-1.430677e-09	-3.790650e+01	-9.097005e+01
2.000000e-07	-5.448341e-06	-1.344748e-09	-3.785458e+01	-9.095509e+01
2.100000e-07	-5.440616e-06	-1.379487e-09	-3.780090e+01	-9.093549e+01
2.200000e-07	-5.432635e-06	-1.457641e-09	-3.774546e+01	-9.091090e+01
2.300000e-07	-5.424451e-06	-1.471421e-09	-3.768859e+01	-9.088100e+01
2.400000e-07	-5.415903e-06	-1.420142e-09	-3.762920e+01	-9.084548e+01
2.500000e-07	-5.406646e-06	-1.428426e-09	-3.756489e+01	-9.080407e+01
2.600000e-07	-5.396686e-06	-1.446048e-09	-3.749568e+01	-9.075650e+01
2.700000e-07	-5.386219e-06	-1.447543e-09	-3.742296e+01	-9.070252e+01
2.800000e-07	-5.375178e-06	-1.402654e-09	-3.734625e+01	-9.064192e+01
2.900000e-07	-5.363649e-06	-1.418122e-09	-3.726615e+01	-9.057452e+01
3.000000e-07	-5.351756e-06	-1.437286e-09	-3.718351e+01	-9.050015e+01
3.100000e-07	-5.339471e-06	-1.426408e-09	-3.709816e+01	-9.041869e+01
3.200000e-07	-5.326779e-06	-1.386787e-09	-3.700998e+01	-9.033003e+01
3.300000e-07	-5.313631e-06	-1.405151e-09	-3.691862e+01	-9.023410e+01
3.400000e-07	-5.300056e-06	-1.423422e-09	-3.682431e+01	-9.013087e+01
3.500000e-07	-5.286130e-06	-1.400140e-09	-3.672755e+01	-9.002032e+01
3.600000e-07	-5.271777e-06	-1.374798e-09	-3.662783e+01	-8.990247e+01
3.700000e-07	-5.257031e-06	-1.406945e-09	-3.652537e+01	-8.977739e+01
3.800000e-07	-5.241800e-06	-1.407675e-09	-3.641955e+01	-8.964514e+01
3.900000e-07	-5.225890e-06	-1.368386e-09	-3.630900e+01	-8.950584e+01
4.000000e-07	-5.209533e-06	-1.377368e-09	-3.619536e+01	-8.935963e+01
4.100000e-07	-5.192994e-06	-1.411320e-09	-3.608045e+01	-8.920667e+01
4.200000e-07	-5.176117e-06	-1.375459e-09	-3.596319e+01	-8.904714e+01
4.300000e-07	-5.158865e-06	-1.342941e-09	-3.584332e+01	-8.888125e+01
4.400000e-07	-5.141280e-06	-1.393415e-09	-3.572115e+01	-8.870924e+01
4.500000e-07	-5.123386e-06	-1.392093e-09	-3.559682e+01	-8.853135e+01
4.600000e-07	-5.105081e-06	-1.336439e-09	-3.546964e+01	-8.834783e+01
4.700000e-07	-5.086311e-06	-1.340946e-09	-3.533923e+01	-8.815898e+01
4.800000e-07	-5.067177e-06	-1.382702e-09	-3.520628e+01	-8.796508e+01
4.900000e-07	-5.047729e-06	-1.349023e-09	-3.507116e+01	-8.776641e+01
5.000000e-07	-5.028067e-06	-1.343108e-09	-3.493455e+01	-8.756330e+01
5.100000e-07	-5.008209e-06	-1.368328e-09	-3.479658e+01	-8.735604e+01
5.200000e-07	-4.988064e-06	-1.345535e-09	-3.465661e+01	-8.714493e+01
5.300000e-07	-4.967564e-06	-1.308518e-09	-3.451418e+01	-8.693030e+01
5.400000e-07	-4.946711e-06	-1.351019e-09	-3.436929e+01	-8.671243e+01
5.500000e-07	-4.925520e-06	-1.354087e-09	-3.422207e+01	-8.649163e+01
5.600000e-07	-4.903994e-06	-1.310755e-09	-3.407250e+01	-8.626818e+01
5.700000e-07	-4.882118e-06	-1.313325e-09	-3.392051e+01	-8.604236e+01
5.800000e-07	-4.859913e-06	-1.341634e-09	-3.376623e+01	-8.581443e+01
5.900000e-07	-4.837298e-06	-1.309033e-09	-3.360910e+01	-8.558465e+01
6.000000e-07	-4.814290e-06	-1.297717e-09	-3.344925e+01	-8.535324e+01
6.100000e-07	-4.791034e-06	-1.319270e-09	-3.328767e+01	-8.512043e+01
6.200000e-07	-4.767561e-06	-1.310053e-09	-3.312458e+01	-8.488640e+01
6.300000e-07	-4.743887e-06	-1.286212e-09	-3.296010e+01	-8.465134e+01
6.400000e-07	-4.719996e-06	-1.299202e-09	-3.279410e+01	-8.441539e+01
6.500000e-07	-4.695756e-06	-1.299646e-09	-3.262569e+01	-8.417869e+01
6.600000e-07	-4.670975e-06	-1.280415e-09	-3.245351e+01	-8.394134e+01
6.700000e-07	-4.645612e-06	-1.279118e-09	-3.227729e+01	-8.370343e+01
6.800000e-07	-4.619807e-06	-1.280694e-09	-3.209800e+01	-8.346502e+01
6.900000e-07	-4.593554e-06	-1.267077e-09	-3.191560e+01	-8.322615e+01
7.000000e-07	-4.566781e-06	-1.263926e-09	-3.172958e+01	-8.298682e+01
7.100000e-07	-4.539583e-06	-1.270554e-09	-3.154061e+01	-8.274703e+01
7.200000e-07	-4.512097e-06	-1.258559e-09	-3.134964e+01	-8.250673e+01
7.300000e-07	-4.484453e-06	-1.247384e-09	-3.115757e+01	-8.226588e+01
7.400000e-07	-4.456660e-06	-1.243689e-09	-3.096447e+01	-8.202440e+01
7.500000e-07	-4.428587e-06	-1.239546e-09	-3.076942e+01	-8.178218e+01
7.600000e-07	-4.400207e-06	-1.229409e-09	-3.057224e+01	-8.153910e+01
7.700000e-07	-4.371537e-06	-1.229819e-09	-3.037304e+01	-8.129503e+01
7.800000e-07	-4.342569e-06	-1.226650e-09	-3.017177e+01	-8.104982e+01
7.900000e-07	-4.313264e-06	-1.221037e-09	-2.996817e+01	-8.080329e+01
8.000000e-07	-4.283647e-06	-1.215011e-09	-2.976239e+01	-8.055525e+01
8.100000e-07	-4.253789e-06	-1.209429e-09	-2.955494e+01	-8.030552e+01
8.200000e-07	-4.223653e-06	-1.198295e-09	-2.934556e+01	-8.005388e+01
8.300000e-07	-4.193278e-06	-1.198680e-09	-2.913451e+01	-7.980012e+01
8.400000e-07	-4.162596e-06	-1.198849e-09	-2.892134e+01	-7.954400e+01
8.500000e-07	-4.131534e-06	-1.193857e-09	-2.870552e+01	-7.928531e+01
8.600000e-07	-4.100232e-06	-1.186346e-09	-2.848804e+01	-7.902380e+01
8.700000e-07	-4.068742e-06	-1.181794e-09	-2.826925e+01	-7.875924e+01
8.800000e-07	-4.037093e-06	-1.167860e-09	-2.804935e+01	-7.849139e+01
8.900000e-07	-4.005324e-06	-1.159535e-09	-2.782863e+01	-7.822000e+01
9.000000e-07	-3.973374e-06	-1.154413e-09	-2.760664e+01	-7.794486e+01
9.100000e-07	-3.941168e-06	-1.147863e-09	-2.738287e+01	-7.766571e+01
9.200000e-07	-3.908645e-06	-1.140411e-09	-2.715691e+01	-7.738234e+01
9.300000e-07	-3.875635e-06	-1.141706e-09	-2.692756e+01	-7.709453e+01
9.400000e-07	-3.842063e-06	-1.140128e-09	-2.669430e+01	-7.680206e+01
9.500000e-07	-3.807993e-06	-1.130260e-09	-2.645759e+01	-7.650472e+01
9.600000e-07	-3.773449e-06	-1.121548e-09	-2.621758e+01	-7.620233e+01
9.700000e-07	-3.738558e-06	-1.116540e-09	-2.597516e+01	-7.589470e+01
9.800000e-07	-3.703434e-06	-1.107179e-09	-2.573113e+01	-7.558166e+01
9.900000e-07	-3.668052e-06	-1.100155e-09	-2.548529e+01	-7.526304e+01
1.000000e-06	-3.632458e-06	-1.098213e-09	-2.523799e+01	-7.493869e+01
1.010000e-06	-3.596722e-06	-1.093282e-09	-2.498969e+01	-7.460849e+01
1.020000e-06	-3.560849e-06	-1.087510e-09	-2.474046e+01	-7.427231e+01
1.030000e-06	-3.524812e-06	-1.084014e-09	-2.449007e+01	-7.393004e+01
1.040000e-06	-3.488570e-06	-1.081000e-09	-2.423827e+01	-7.358159e+01
1.050000e-06	-3.452085e-06	-1.071134e-09	-2.398477e+01	-7.322687e+01
1.060000e-06	-3.415327e-06	-1.060902e-09	-2.372938e+01	-7.286582e+01
1.070000e-06	-3.378311e-06	-1.050178e-09	-2.347220e+01	-7.249838e+01
1.080000e-06	-3.341002e-06	-1.042308e-09	-2.321298e+01	-7.212451e+01
1.090000e-06	-3.303415e-06	-1.038070e-09	-2.295183e+01	-7.174417e+01
1.100000e-06	-3.265635e-06	-1.038042e-09	-2.268933e+01	-7.135735e+01
1.110000e-06	-3.227651e-06	-1.033260e-09	-2.242543e+01	-7.096403e+01
1.120000e-06	-3.189457e-06	-1.025931e-09	-2.216005e+01	-7.056422e+01
1.130000e-06	-3.151037e-06	-1.018075e-09	-2.189312e+01	-7.015793e+01
1.140000e-06	-3.112377e-06	-1.011387e-09	-2.162451e+01	-6.974516e+01
1.150000e-06	-3.073539e-06	-1.000665e-09	-2.135467e+01	-6.932595e+01
1.160000e-06	-3.034511e-06	-9.922485e-10	-2.108351e+01	-6.890033e+01
1.170000e-06	-2.995301e-06	-9.863281e-10	-2.081108e+01	-6.846832e+01
1.180000e-06	-2.955929e-06	-9.815765e-10	-2.053753e+01	-6.802997e+01
1.190000e-06	-2.916360e-06	-9.766966e-10	-2.026261e+01	-6.758530e+01
1.200000e-06	-2.876680e-06	-9.739431e-10	-1.998691e+01	-6.713437e+01
1.210000e-06	-2.836899e-06	-9.689141e-10	-1.971051e+01	-6.667720e+01
1.220000e-06	-2.796937e-06	-9.621981e-10	-1.943286e+01	-6.621384e+01
1.230000e-06	-2.756815e-06	-9.548979e-10	-1.915410e+01	-6.574431e+01
1.240000e-06	-2.716569e-06	-9.474227e-10	-1.887447e+01	-6.526865e+01
1.250000e-06	-2.676098e-06	-9.386623e-10	-1.859329e+01	-6.478687e+01
1.260000e-06	-2.635293e-06	-9.308042e-10	-1.830978e+01	-6.429898e+01
1.270000e-06	-2.594260e-06	-9.251785e-10	-1.802468e+01	-6.380498e+01
1.280000e-06	-2.553046e-06	-9.188577e-10	-1.773833e+01	-6.330488e+01
1.290000e-06	-2.511521e-06	-9.122047e-10	-1.744982e+01	-6.279865e+01
1.300000e-06	-2.469669e-06	-9.054422e-10	-1.715903e+01	-6.228625e+01
1.310000e-06	-2.427550e-06	-8.971383e-10	-1.686640e+01	-6.176763e+01
1.320000e-06	-2.385155e-06	-8.860389e-10	-1.657184e+01	-6.124274e+01
1.330000e-06	-2.342414e-06	-8.749036e-10	-1.627488e+01	-6.071149e+01
1.340000e-06	-2.299337e-06	-8.652849e-10	-1.597558e+01	-6.017378e+01
1.350000e-06	-2.256124e-06	-8.570965e-10	-1.567534e+01	-5.962949e+01
1.360000e-06	-2.212801e-06	-8.502296e-10	-1.537434e+01	-5.907848e+01
1.370000e-06	-2.169290e-06	-8.429117e-10	-1.507203e+01	-5.852060e+01
1.380000e-06	-2.125657e-06	-8.343963e-10	-1.476887e+01	-5.795567e+01
1.390000e-06	-2.081902e-06	-8.240948e-10	-1.446487e+01	-5.738347e+01
1.400000e-06	-2.038049e-06	-8.123091e-10	-1.416018e+01	-5.680379e+01
1.410000e-06	-1.994190e-06	-8.035035e-10	-1.385545e+01	-5.621637e+01
1.420000e-06	-1.950266e-06	-7.943450e-10	-1.355027e+01	-5.562096e+01
1.430000e-06	-1.906186e-06	-7.861023e-10	-1.324401e+01	-5.501724e+01
1.440000e-06	-1.862058e-06	-7.768728e-10	-1.293741e+01	-5.440491e+01
1.450000e-06	-1.817945e-06	-7.688639e-10	-1.263092e+01	-5.378363e+01
1.460000e-06	-1.773629e-06	-7.576343e-10	-1.232301e+01	-5.315303e+01
1.470000e-06	-1.729069e-06	-7.440932e-10	-1.201342e+01	-5.251274e+01
1.480000e-06	-1.684490e-06	-7.298346e-10	-1.170368e+01	-5.186234e+01
1.490000e-06	-1.639903e-06	-7.155685e-10	-1.139389e+01	-5.120143e+01
1.500000e-06	-1.595189e-06	-7.030294e-10	-1.108323e+01	-5.052955e+01
1.510000e-06	-1.550278e-06	-6.936533e-10	-1.077119e+01	-4.984626e+01
1.520000e-06	-1.505178e-06	-6.832777e-10	-1.045784e+01	-4.915107e+01
1.530000e-06	-1.459934e-06	-6.697959e-10	-1.014349e+01	-4.844351e+01
1.540000e-06	-1.414589e-06	-6.541125e-10	-9.828436e+00	-4.772307e+01
1.550000e-06	-1.369146e-06	-6.382960e-10	-9.512705e+00	-4.698925e+01
1.560000e-06	-1.323683e-06	-6.231364e-10	-9.196828e+00	-4.624154e+01
1.570000e-06	-1.278177e-06	-6.097647e-10	-8.880659e+00	-4.547941e+01
1.580000e-06	-1.232515e-06	-5.977146e-10	-8.563401e+00	-4.470235e+01
1.590000e-06	-1.186750e-06	-5.860504e-10	-8.245434e+00	-4.390984e+01
1.600000e-06	-1.140944e-06	-5.742965e-10	-7.927174e+00	-4.310136e+01
1.610000e-06	-1.095091e-06	-5.640839e-10	-7.608595e+00	-4.227640e+01
1.620000e-06	-1.049109e-06	-5.536476e-10	-7.289111e+00	-4.143446e+01
1.630000e-06	-1.002986e-06	-5.409139e-10	-6.968655e+00	-4.057506e+01
1.640000e-06	-9.567806e-07	-5.250921e-10	-6.647624e+00	-3.969772e+01
1.650000e-06	-9.105206e-07	-5.049208e-10	-6.326214e+00	-3.880199e+01
1.660000e-06	-8.641946e-07	-4.848365e-10	-6.004345e+00	-3.788745e+01
1.670000e-06	-8.177739e-07	-4.674548e-10	-5.681818e+00	-3.695370e+01
1.680000e-06	-7.713540e-07	-4.570022e-10	-5.359297e+00	-3.600035e+01
1.690000e-06	-7.248678e-07	-4.477217e-10	-5.036315e+00	-3.502708e+01
1.700000e-06	-6.782958e-07	-4.377335e-10	-4.712737e+00	-3.403358e+01
1.710000e-06	-6.317908e-07	-4.216041e-10	-4.389625e+00	-3.301959e+01
1.720000e-06	-5.852883e-07	-4.033312e-10	-4.066530e+00	-3.198489e+01
1.730000e-06	-5.387136e-07	-3.856172e-10	-3.742933e+00	-3.092930e+01
1.740000e-06	-4.920676e-07	-3.686872e-10	-3.418841e+00	-2.985270e+01
1.750000e-06	-4.453457e-07	-3.534709e-10	-3.094222e+00	-2.875502e+01
1.760000e-06	-3.986259e-07	-3.400597e-10	-2.769616e+00	-2.763623e+01
1.770000e-06	-3.518966e-07	-3.257307e-10	-2.444945e+00	-2.649637e+01
1.780000e-06	-3.051414e-07	-3.112545e-10	-2.120094e+00	-2.533554e+01
1.790000e-06	-2.583578e-07	-2.958285e-10	-1.795047e+00	-2.415388e+01
1.800000e-06	-2.115378e-07	-2.776105e-10	-1.469745e+00	-2.295163e+01
1.810000e-06	-1.646853e-07	-2.574068e-10	-1.144219e+00	-2.172905e+01
1.820000e-06	-1.177592e-07	-2.379858e-10	-8.181800e-01	-2.048648e+01
1.830000e-06	-7.084672e-08	-2.224515e-10	-4.922366e-01	-1.922434e+01
1.840000e-06	-2.394702e-08	-2.076887e-10	-1.663817e-01	-1.794309e+01
1.850000e-06	2.295461e-08	-1.914967e-10	1.594866e-01	-1.664327e+01
1.860000e-06	6.984210e-08	-1.731817e-10	4.852565e-01	-1.532549e+01
1.870000e-06	1.167170e-07	-1.526693e-10	8.109391e-01	-1.399039e+01
1.880000e-06	1.635825e-07	-1.335468e-10	1.136556e+00	-1.263871e+01
1.890000e-06	2.104811e-07	-1.170471e-10	1.462403e+00	-1.127124e+01
1.900000e-06	2.573833e-07	-1.011883e-10	1.788276e+00	-9.888813e+00
1.910000e-06	3.042247e-07	-8.630495e-11	2.113725e+00	-8.492333e+00
1.920000e-06	3.510105e-07	-6.945171e-11	2.438789e+00	-7.082753e+00
1.930000e-06	3.977978e-07	-5.137526e-11	2.763863e+00	-5.661078e+00
1.940000e-06	4.445419e-07	-3.050730e-11	3.088637e+00	-4.228361e+00
1.950000e-06	4.912163e-07	-1.188007e-11	3.412926e+00	-2.785698e+00
1.960000e-06	5.378485e-07	4.618587e-12	3.736922e+00	-1.334224e+00
1.970000e-06	5.844838e-07	2.157308e-11	4.060940e+00	1.248868e-01
1.980000e-06	6.310647e-07	4.055575e-11	4.384580e+00	1.590432e+00
1.990000e-06	6.774663e-07	6.083054e-11	4.706974e+00	3.061180e+00
2.000000e-06	7.237674e-07	8.354817e-11	5.028670e+00	4.535877e+00
2.010000e-06	7.701421e-07	1.077234e-10	5.350878e+00	6.013254e+00
2.020000e-06	8.165447e-07	1.301422e-10	5.673278e+00	7.492025e+00
2.030000e-06	8.628123e-07	1.501312e-10	5.994741e+00	8.970902e+00
2.040000e-06	9.089825e-07	1.690255e-10	6.315527e+00	1.044859e+01
2.050000e-06	9.551012e-07	1.867387e-10	6.635956e+00	1.192380e+01
2.060000e-06	1.001108e-06	2.052850e-10	6.955606e+00	1.339526e+01
2.070000e-06	1.047087e-06	2.261063e-10	7.275062e+00	1.486169e+01
2.080000e-06	1.093053e-06	2.502738e-10	7.594435e+00	1.632184e+01
2.090000e-06	1.138951e-06	2.745872e-10	7.913326e+00	1.777449e+01
2.100000e-06	1.184759e-06	2.974435e-10	8.231600e+00	1.921845e+01
2.110000e-06	1.230437e-06	3.180740e-10	8.548962e+00	2.065255e+01
2.120000e-06	1.275973e-06	3.345555e-10	8.865344e+00	2.207566e+01
2.130000e-06	1.321420e-06	3.512458e-10	9.181108e+00	2.348670e+01
2.140000e-06	1.366846e-06	3.696200e-10	9.496720e+00	2.488463e+01
2.150000e-06	1.412247e-06	3.893884e-10	9.812164e+00	2.626846e+01
2.160000e-06	1.457535e-06	4.104433e-10	1.012682e+01	2.763725e+01
2.170000e-06	1.502651e-06	4.344046e-10	1.044028e+01	2.899012e+01
2.180000e-06	1.547669e-06	4.582452e-10	1.075306e+01	3.032626e+01
2.190000e-06	1.592611e-06	4.794358e-10	1.106532e+01	3.164489e+01
2.200000e-06	1.637374e-06	4.964313e-10	1.137633e+01	3.294531e+01
2.210000e-06	1.681962e-06	5.094152e-10	1.168612e+01	3.422689e+01
2.220000e-06	1.726421e-06	5.225449e-10	1.199502e+01	3.548907e+01
2.230000e-06	1.770747e-06	5.387603e-10	1.230299e+01	3.673132e+01
2.240000e-06	1.814895e-06	5.573623e-10	1.260973e+01	3.795321e+01
2.250000e-06	1.858983e-06	5.776473e-10	1.291605e+01	3.915437e+01
2.260000e-06	1.903093e-06	5.966014e-10	1.322252e+01	4.033449e+01
2.270000e-06	1.947049e-06	6.140104e-10	1.352792e+01	4.149332e+01
2.280000e-06	1.990871e-06	6.288475e-10	1.383239e+01	4.263068e+01
2.290000e-06	2.034640e-06	6.418817e-10	1.413650e+01	4.374645e+01
2.300000e-06	2.078370e-06	6.534437e-10	1.444032e+01	4.484056e+01
2.310000e-06	2.122027e-06	6.658087e-10	1.474365e+01	4.591302e+01
2.320000e-06	2.165618e-06	6.811592e-10	1.504651e+01	4.696387e+01
2.330000e-06	2.209197e-06	6.969252e-10	1.534930e+01	4.799321e+01
2.340000e-06	2.252721e-06	7.117677e-10	1.565170e+01	4.900120e+01
2.350000e-06	2.296007e-06	7.259061e-10	1.595245e+01	4.998803e+01
2.360000e-06	2.339074e-06	7.381731e-10	1.625167e+01	5.095393e+01
2.370000e-06	2.381915e-06	7.487043e-10	1.654933e+01	5.189919e+01
2.380000e-06	2.424409e-06	7.600209e-10	1.684457e+01	5.282411e+01
2.390000e-06	2.466588e-06	7.743924e-10	1.713763e+01	5.372903e+01
2.400000e-06	2.508444e-06	7.901237e-10	1.742844e+01	5.461432e+01
2.410000e-06	2.549936e-06	8.040292e-10	1.771672e+01	5.548037e+01
2.420000e-06	2.591069e-06	8.163585e-10	1.800251e+01	5.632759e+01
2.430000e-06	2.631889e-06	8.286478e-10	1.828612e+01	5.715641e+01
2.440000e-06	2.672441e-06	8.412034e-10	1.856787e+01	5.796725e+01
2.450000e-06	2.712782e-06	8.540423e-10	1.884816e+01	5.876057e+01
2.460000e-06	2.752942e-06	8.667224e-10	1.912719e+01	5.953682e+01
2.470000e-06	2.792935e-06	8.773567e-10	1.940506e+01	6.029644e+01
2.480000e-06	2.832798e-06	8.869560e-10	1.968202e+01	6.103988e+01
2.490000e-06	2.872555e-06	8.948827e-10	1.995825e+01	6.176759e+01
2.500000e-06	2.912201e-06	9.024757e-10	2.023371e+01	6.248001e+01
2.510000e-06	2.951703e-06	9.123180e-10	2.050816e+01	6.317755e+01
2.520000e-06	2.991030e-06	9.224685e-10	2.078141e+01	6.386065e+01
2.530000e-06	3.030197e-06	9.311463e-10	2.105354e+01	6.452969e+01
2.540000e-06	3.069139e-06	9.400696e-10	2.132410e+01	6.518507e+01
2.550000e-06	3.107791e-06	9.487737e-10	2.159265e+01	6.582715e+01
2.560000e-06	3.146162e-06	9.560174e-10	2.185924e+01	6.645629e+01
2.570000e-06	3.184279e-06	9.637426e-10	2.212408e+01	6.707282e+01
2.580000e-06	3.222253e-06	9.733184e-10	2.238792e+01	6.767706e+01
2.590000e-06	3.260076e-06	9.814633e-10	2.265071e+01	6.826930e+01
2.600000e-06	3.297694e-06	9.897168e-10	2.291208e+01	6.884981e+01
2.610000e-06	3.335160e-06	9.997998e-10	2.317239e+01	6.941886e+01
2.620000e-06	3.372350e-06	1.009047e-09	2.343078e+01	6.997668e+01
2.630000e-06	3.409241e-06	1.016591e-09	2.368710e+01	7.052349e+01
2.640000e-06	3.445927e-06	1.022802e-09	2.394199e+01	7.105951e+01
2.650000e-06	3.482403e-06	1.028111e-09	2.419542e+01	7.158491e+01
2.660000e-06	3.518611e-06	1.033329e-09	2.444699e+01	7.209988e+01
2.670000e-06	3.554548e-06	1.039983e-09	2.469667e+01	7.260458e+01
2.680000e-06	3.590366e-06	1.047459e-09	2.494554e+01	7.309915e+01
2.690000e-06	3.626151e-06	1.055162e-09	2.519417e+01	7.358373e+01
2.700000e-06	3.661838e-06	1.064315e-09	2.544212e+01	7.405847e+01
2.710000e-06	3.697308e-06	1.073419e-09	2.568856e+01	7.452347e+01
2.720000e-06	3.732574e-06	1.080847e-09	2.593358e+01	7.497887e+01
2.730000e-06	3.767515e-06	1.088917e-09	2.617635e+01	7.542478e+01
2.740000e-06	3.801999e-06	1.096507e-09	2.641594e+01	7.586132e+01
2.750000e-06	3.836064e-06	1.102164e-09	2.665262e+01	7.628859e+01
2.760000e-06	3.869581e-06	1.107250e-09	2.688550e+01	7.670672e+01
2.770000e-06	3.902590e-06	1.113993e-09	2.711484e+01	7.711581e+01
2.780000e-06	3.935252e-06	1.123062e-09	2.734177e+01	7.751600e+01
2.790000e-06	3.967538e-06	1.133645e-09	2.756609e+01	7.790741e+01
2.800000e-06	3.999493e-06	1.144461e-09	2.778811e+01	7.829017e+01
2.810000e-06	4.031279e-06	1.153985e-09	2.800896e+01	7.866441e+01
2.820000e-06	4.062986e-06	1.159266e-09	2.822925e+01	7.903028e+01
2.830000e-06	4.094629e-06	1.161760e-09	2.844911e+01	7.938794e+01
2.840000e-06	4.126106e-06	1.165019e-09	2.866781e+01	7.973753e+01
2.850000e-06	4.157255e-06	1.169083e-09	2.888423e+01	8.007923e+01
2.860000e-06	4.188085e-06	1.174961e-09	2.909843e+01	8.041321e+01
2.870000e-06	4.218608e-06	1.181611e-09	2.931050e+01	8.073965e+01
2.880000e-06	4.248743e-06	1.188467e-09	2.951988e+01	8.105874e+01
2.890000e-06	4.278509e-06	1.195900e-09	2.972669e+01	8.137066e+01
2.900000e-06	4.308039e-06	1.201791e-09	2.993186e+01	8.167562e+01
