# Temperatura_=_15.04
# Concentracion g/m^3_=_1620.0
# C_Vs_to_Am_M_A/Vsm_=_65563218390.804596
# pendiente_HvsI_1/m_=_3716.3
# ordenada_HvsI_A/m_=_1297.0
# frecuencia_Hz_=_135099.95284621627

Tiempo_(s)	Campo_(V.s)	Magnetizacion_(V.s)	Campo_(kA/m)	Magnetizacion_(A/m)
0.000000e+00	-5.537568e-06	-8.502764e-10	-3.836062e+01	-5.640716e+01
1.000000e-08	-5.537796e-06	-8.541797e-10	-3.836219e+01	-5.639550e+01
2.000000e-08	-5.537848e-06	-8.578602e-10	-3.836255e+01	-5.638242e+01
3.000000e-08	-5.537544e-06	-8.599792e-10	-3.836045e+01	-5.636785e+01
4.000000e-08	-5.536781e-06	-8.552114e-10	-3.835516e+01	-5.635170e+01
5.000000e-08	-5.535443e-06	-8.449282e-10	-3.834589e+01	-5.633391e+01
6.000000e-08	-5.533527e-06	-8.291417e-10	-3.833262e+01	-5.631441e+01
7.000000e-08	-5.531099e-06	-8.025279e-10	-3.831580e+01	-5.629314e+01
8.000000e-08	-5.528069e-06	-8.215685e-10	-3.829481e+01	-5.627007e+01
9.000000e-08	-5.524600e-06	-9.049404e-10	-3.827078e+01	-5.624515e+01
1.000000e-07	-5.520693e-06	-9.407868e-10	-3.824372e+01	-5.621836e+01
1.100000e-07	-5.516352e-06	-8.387762e-10	-3.821365e+01	-5.618970e+01
1.200000e-07	-5.511843e-06	-8.060928e-10	-3.818241e+01	-5.615916e+01
1.300000e-07	-5.507106e-06	-7.894531e-10	-3.814960e+01	-5.612675e+01
1.400000e-07	-5.501997e-06	-8.931243e-10	-3.811421e+01	-5.609252e+01
1.500000e-07	-5.496480e-06	-8.039477e-10	-3.807599e+01	-5.605651e+01
1.600000e-07	-5.490658e-06	-7.990653e-10	-3.803566e+01	-5.601876e+01
1.700000e-07	-5.484460e-06	-8.319991e-10	-3.799272e+01	-5.597936e+01
1.800000e-07	-5.477747e-06	-9.029642e-10	-3.794621e+01	-5.593838e+01
1.900000e-07	-5.470528e-06	-8.760855e-10	-3.789621e+01	-5.589592e+01
2.000000e-07	-5.463012e-06	-7.937345e-10	-3.784414e+01	-5.585209e+01
2.100000e-07	-5.455319e-06	-8.036011e-10	-3.779085e+01	-5.580700e+01
2.200000e-07	-5.447447e-06	-8.278778e-10	-3.773632e+01	-5.576076e+01
2.300000e-07	-5.439358e-06	-8.629651e-10	-3.768028e+01	-5.571351e+01
2.400000e-07	-5.430869e-06	-8.136884e-10	-3.762148e+01	-5.566539e+01
2.500000e-07	-5.421673e-06	-8.430944e-10	-3.755777e+01	-5.561652e+01
2.600000e-07	-5.411640e-06	-8.243352e-10	-3.748827e+01	-5.556704e+01
2.700000e-07	-5.401085e-06	-8.597227e-10	-3.741515e+01	-5.551708e+01
2.800000e-07	-5.390068e-06	-8.151281e-10	-3.733883e+01	-5.546678e+01
2.900000e-07	-5.378607e-06	-8.553807e-10	-3.725944e+01	-5.541626e+01
3.000000e-07	-5.366748e-06	-8.446074e-10	-3.717729e+01	-5.536563e+01
3.100000e-07	-5.354481e-06	-8.688749e-10	-3.709231e+01	-5.531500e+01
3.200000e-07	-5.341762e-06	-8.171815e-10	-3.700420e+01	-5.526447e+01
3.300000e-07	-5.328594e-06	-8.487418e-10	-3.691298e+01	-5.521411e+01
3.400000e-07	-5.315096e-06	-8.434800e-10	-3.681948e+01	-5.516398e+01
3.500000e-07	-5.301278e-06	-8.451898e-10	-3.672375e+01	-5.511415e+01
3.600000e-07	-5.287036e-06	-8.143419e-10	-3.662510e+01	-5.506463e+01
3.700000e-07	-5.272417e-06	-8.523198e-10	-3.652382e+01	-5.501543e+01
3.800000e-07	-5.257088e-06	-8.337720e-10	-3.641764e+01	-5.496654e+01
3.900000e-07	-5.241068e-06	-8.192624e-10	-3.630666e+01	-5.491793e+01
4.000000e-07	-5.224646e-06	-8.366588e-10	-3.619290e+01	-5.486954e+01
4.100000e-07	-5.207855e-06	-8.497404e-10	-3.607658e+01	-5.482129e+01
4.200000e-07	-5.190806e-06	-8.137285e-10	-3.595848e+01	-5.477308e+01
4.300000e-07	-5.173525e-06	-8.089374e-10	-3.583877e+01	-5.472479e+01
4.400000e-07	-5.155937e-06	-8.542173e-10	-3.571693e+01	-5.467627e+01
4.500000e-07	-5.137867e-06	-8.205994e-10	-3.559175e+01	-5.462735e+01
4.600000e-07	-5.119295e-06	-8.099435e-10	-3.546309e+01	-5.457786e+01
4.700000e-07	-5.100339e-06	-8.236639e-10	-3.533178e+01	-5.452758e+01
4.800000e-07	-5.081086e-06	-8.308822e-10	-3.519841e+01	-5.447630e+01
4.900000e-07	-5.061573e-06	-7.919769e-10	-3.506324e+01	-5.442380e+01
5.000000e-07	-5.041907e-06	-8.366292e-10	-3.492700e+01	-5.436981e+01
5.100000e-07	-5.022056e-06	-8.219546e-10	-3.478949e+01	-5.431409e+01
5.200000e-07	-5.001915e-06	-7.923292e-10	-3.464996e+01	-5.425638e+01
5.300000e-07	-4.981348e-06	-7.937941e-10	-3.450749e+01	-5.419640e+01
5.400000e-07	-4.960450e-06	-8.404739e-10	-3.436273e+01	-5.413390e+01
5.500000e-07	-4.939239e-06	-7.932089e-10	-3.421578e+01	-5.406861e+01
5.600000e-07	-4.917663e-06	-7.943943e-10	-3.406632e+01	-5.400026e+01
5.700000e-07	-4.895815e-06	-8.061908e-10	-3.391497e+01	-5.392860e+01
5.800000e-07	-4.873626e-06	-8.011663e-10	-3.376126e+01	-5.385338e+01
5.900000e-07	-4.850994e-06	-7.768615e-10	-3.360449e+01	-5.377438e+01
6.000000e-07	-4.827979e-06	-8.130119e-10	-3.344505e+01	-5.369138e+01
6.100000e-07	-4.804626e-06	-7.991295e-10	-3.328328e+01	-5.360418e+01
6.200000e-07	-4.781031e-06	-7.867044e-10	-3.311983e+01	-5.351261e+01
6.300000e-07	-4.757293e-06	-7.903469e-10	-3.295539e+01	-5.341652e+01
6.400000e-07	-4.733396e-06	-7.934757e-10	-3.278985e+01	-5.331577e+01
6.500000e-07	-4.709115e-06	-7.716387e-10	-3.262164e+01	-5.321028e+01
6.600000e-07	-4.684315e-06	-7.840753e-10	-3.244984e+01	-5.309997e+01
6.700000e-07	-4.659028e-06	-7.898348e-10	-3.227467e+01	-5.298480e+01
6.800000e-07	-4.633168e-06	-7.772983e-10	-3.209553e+01	-5.286476e+01
6.900000e-07	-4.606792e-06	-7.763999e-10	-3.191282e+01	-5.273987e+01
7.000000e-07	-4.579997e-06	-7.851349e-10	-3.172719e+01	-5.261019e+01
7.100000e-07	-4.552769e-06	-7.780204e-10	-3.153858e+01	-5.247580e+01
7.200000e-07	-4.525209e-06	-7.692764e-10	-3.134766e+01	-5.233682e+01
7.300000e-07	-4.497489e-06	-7.752157e-10	-3.115564e+01	-5.219339e+01
7.400000e-07	-4.469641e-06	-7.685921e-10	-3.096272e+01	-5.204569e+01
7.500000e-07	-4.441568e-06	-7.721514e-10	-3.076825e+01	-5.189391e+01
7.600000e-07	-4.413282e-06	-7.717735e-10	-3.057230e+01	-5.173829e+01
7.700000e-07	-4.384673e-06	-7.732542e-10	-3.037412e+01	-5.157907e+01
7.800000e-07	-4.355596e-06	-7.595613e-10	-3.017269e+01	-5.141653e+01
7.900000e-07	-4.326206e-06	-7.652196e-10	-2.996910e+01	-5.125093e+01
8.000000e-07	-4.296570e-06	-7.609290e-10	-2.976380e+01	-5.108259e+01
8.100000e-07	-4.266589e-06	-7.609114e-10	-2.955611e+01	-5.091182e+01
8.200000e-07	-4.236336e-06	-7.516925e-10	-2.934654e+01	-5.073892e+01
8.300000e-07	-4.205810e-06	-7.604340e-10	-2.913507e+01	-5.056423e+01
8.400000e-07	-4.174993e-06	-7.518710e-10	-2.892160e+01	-5.038805e+01
8.500000e-07	-4.143918e-06	-7.539766e-10	-2.870633e+01	-5.021071e+01
8.600000e-07	-4.112554e-06	-7.497282e-10	-2.848906e+01	-5.003250e+01
8.700000e-07	-4.081004e-06	-7.498850e-10	-2.827050e+01	-4.985374e+01
8.800000e-07	-4.049324e-06	-7.388634e-10	-2.805104e+01	-4.967469e+01
8.900000e-07	-4.017504e-06	-7.442163e-10	-2.783062e+01	-4.949561e+01
9.000000e-07	-3.985468e-06	-7.405110e-10	-2.760869e+01	-4.931675e+01
9.100000e-07	-3.953139e-06	-7.376352e-10	-2.738474e+01	-4.913830e+01
9.200000e-07	-3.920326e-06	-7.323169e-10	-2.715743e+01	-4.896046e+01
9.300000e-07	-3.887053e-06	-7.356284e-10	-2.692694e+01	-4.878338e+01
9.400000e-07	-3.853504e-06	-7.304431e-10	-2.669453e+01	-4.860717e+01
9.500000e-07	-3.819555e-06	-7.287187e-10	-2.645935e+01	-4.843191e+01
9.600000e-07	-3.785081e-06	-7.282403e-10	-2.622054e+01	-4.825765e+01
9.700000e-07	-3.750131e-06	-7.259345e-10	-2.597843e+01	-4.808438e+01
9.800000e-07	-3.714868e-06	-7.207869e-10	-2.573415e+01	-4.791207e+01
9.900000e-07	-3.679438e-06	-7.177401e-10	-2.548872e+01	-4.774065e+01
1.000000e-06	-3.643858e-06	-7.177615e-10	-2.524224e+01	-4.757000e+01
1.010000e-06	-3.608096e-06	-7.121305e-10	-2.499451e+01	-4.739995e+01
1.020000e-06	-3.572175e-06	-7.127585e-10	-2.474567e+01	-4.723031e+01
1.030000e-06	-3.536072e-06	-7.136083e-10	-2.449557e+01	-4.706085e+01
1.040000e-06	-3.499763e-06	-7.132252e-10	-2.424404e+01	-4.689130e+01
1.050000e-06	-3.463193e-06	-7.051545e-10	-2.399071e+01	-4.672135e+01
1.060000e-06	-3.426354e-06	-7.002635e-10	-2.373552e+01	-4.655066e+01
1.070000e-06	-3.389237e-06	-6.886077e-10	-2.347840e+01	-4.637887e+01
1.080000e-06	-3.351809e-06	-6.847628e-10	-2.321912e+01	-4.620559e+01
1.090000e-06	-3.314154e-06	-6.859291e-10	-2.295827e+01	-4.603039e+01
1.100000e-06	-3.276389e-06	-6.910854e-10	-2.269666e+01	-4.585286e+01
1.110000e-06	-3.238438e-06	-6.840903e-10	-2.243376e+01	-4.567254e+01
1.120000e-06	-3.200161e-06	-6.792615e-10	-2.216861e+01	-4.548897e+01
1.130000e-06	-3.161662e-06	-6.708916e-10	-2.190191e+01	-4.530169e+01
1.140000e-06	-3.122876e-06	-6.675701e-10	-2.163323e+01	-4.511023e+01
1.150000e-06	-3.083815e-06	-6.595518e-10	-2.136263e+01	-4.491413e+01
1.160000e-06	-3.044609e-06	-6.576046e-10	-2.109104e+01	-4.471292e+01
1.170000e-06	-3.005266e-06	-6.534718e-10	-2.081850e+01	-4.450615e+01
1.180000e-06	-2.965788e-06	-6.530165e-10	-2.054502e+01	-4.429339e+01
1.190000e-06	-2.926198e-06	-6.514477e-10	-2.027077e+01	-4.407423e+01
1.200000e-06	-2.886502e-06	-6.521263e-10	-1.999578e+01	-4.384825e+01
1.210000e-06	-2.846707e-06	-6.487204e-10	-1.972011e+01	-4.361510e+01
1.220000e-06	-2.806793e-06	-6.440230e-10	-1.944361e+01	-4.337442e+01
1.230000e-06	-2.766610e-06	-6.377184e-10	-1.916525e+01	-4.312590e+01
1.240000e-06	-2.726198e-06	-6.329959e-10	-1.888530e+01	-4.286925e+01
1.250000e-06	-2.685611e-06	-6.274443e-10	-1.860414e+01	-4.260423e+01
1.260000e-06	-2.644770e-06	-6.247301e-10	-1.832122e+01	-4.233063e+01
1.270000e-06	-2.603588e-06	-6.250835e-10	-1.803594e+01	-4.204826e+01
1.280000e-06	-2.562055e-06	-6.220299e-10	-1.774823e+01	-4.175699e+01
1.290000e-06	-2.520262e-06	-6.176650e-10	-1.745871e+01	-4.145671e+01
1.300000e-06	-2.478167e-06	-6.118683e-10	-1.716710e+01	-4.114735e+01
1.310000e-06	-2.435744e-06	-6.062304e-10	-1.687323e+01	-4.082888e+01
1.320000e-06	-2.393101e-06	-5.987787e-10	-1.657782e+01	-4.050130e+01
1.330000e-06	-2.350224e-06	-5.948954e-10	-1.628080e+01	-4.016465e+01
1.340000e-06	-2.307082e-06	-5.924067e-10	-1.598194e+01	-3.981898e+01
1.350000e-06	-2.263755e-06	-5.905760e-10	-1.568180e+01	-3.946439e+01
1.360000e-06	-2.220332e-06	-5.859794e-10	-1.538099e+01	-3.910098e+01
1.370000e-06	-2.176800e-06	-5.823940e-10	-1.507944e+01	-3.872889e+01
1.380000e-06	-2.133121e-06	-5.771047e-10	-1.477685e+01	-3.834826e+01
1.390000e-06	-2.089317e-06	-5.729727e-10	-1.447341e+01	-3.795925e+01
1.400000e-06	-2.045464e-06	-5.657146e-10	-1.416963e+01	-3.756203e+01
1.410000e-06	-2.001583e-06	-5.604240e-10	-1.386565e+01	-3.715677e+01
1.420000e-06	-1.957664e-06	-5.550329e-10	-1.356141e+01	-3.674364e+01
1.430000e-06	-1.913674e-06	-5.524032e-10	-1.325667e+01	-3.632280e+01
1.440000e-06	-1.869522e-06	-5.476425e-10	-1.295081e+01	-3.589440e+01
1.450000e-06	-1.825180e-06	-5.416788e-10	-1.264365e+01	-3.545859e+01
1.460000e-06	-1.780718e-06	-5.326577e-10	-1.233564e+01	-3.501548e+01
1.470000e-06	-1.736153e-06	-5.244036e-10	-1.202692e+01	-3.456516e+01
1.480000e-06	-1.691440e-06	-5.148107e-10	-1.171718e+01	-3.410771e+01
1.490000e-06	-1.646557e-06	-5.073302e-10	-1.140626e+01	-3.364316e+01
1.500000e-06	-1.601554e-06	-5.026579e-10	-1.109451e+01	-3.317152e+01
1.510000e-06	-1.556414e-06	-4.980430e-10	-1.078181e+01	-3.269276e+01
1.520000e-06	-1.511128e-06	-4.896789e-10	-1.046810e+01	-3.220679e+01
1.530000e-06	-1.465846e-06	-4.790570e-10	-1.015441e+01	-3.171352e+01
1.540000e-06	-1.420445e-06	-4.666897e-10	-9.839902e+00	-3.121278e+01
1.550000e-06	-1.374861e-06	-4.557917e-10	-9.524126e+00	-3.070437e+01
1.560000e-06	-1.329295e-06	-4.451737e-10	-9.208479e+00	-3.018806e+01
1.570000e-06	-1.283665e-06	-4.350129e-10	-8.892383e+00	-2.966355e+01
1.580000e-06	-1.237824e-06	-4.290067e-10	-8.574829e+00	-2.913053e+01
1.590000e-06	-1.191826e-06	-4.237307e-10	-8.256184e+00	-2.858861e+01
1.600000e-06	-1.145757e-06	-4.159897e-10	-7.937047e+00	-2.803740e+01
1.610000e-06	-1.099757e-06	-4.065362e-10	-7.618392e+00	-2.747645e+01
1.620000e-06	-1.053769e-06	-3.971831e-10	-7.299815e+00	-2.690529e+01
1.630000e-06	-1.007602e-06	-3.863976e-10	-6.980005e+00	-2.632341e+01
1.640000e-06	-9.612656e-07	-3.753203e-10	-6.659014e+00	-2.573028e+01
1.650000e-06	-9.149172e-07	-3.604795e-10	-6.337943e+00	-2.512536e+01
1.660000e-06	-8.685370e-07	-3.467468e-10	-6.016651e+00	-2.450808e+01
1.670000e-06	-8.220325e-07	-3.353836e-10	-5.694498e+00	-2.387787e+01
1.680000e-06	-7.754404e-07	-3.275369e-10	-5.371739e+00	-2.323416e+01
1.690000e-06	-7.288289e-07	-3.193007e-10	-5.048846e+00	-2.257638e+01
1.700000e-06	-6.821960e-07	-3.124822e-10	-4.725804e+00	-2.190398e+01
1.710000e-06	-6.355078e-07	-3.037033e-10	-4.402378e+00	-2.121640e+01
1.720000e-06	-5.888229e-07	-2.914990e-10	-4.078976e+00	-2.051314e+01
1.730000e-06	-5.421164e-07	-2.784814e-10	-3.755425e+00	-1.979370e+01
1.740000e-06	-4.953534e-07	-2.669771e-10	-3.431482e+00	-1.905764e+01
1.750000e-06	-4.485003e-07	-2.547218e-10	-3.106914e+00	-1.830454e+01
1.760000e-06	-4.015836e-07	-2.438096e-10	-2.781906e+00	-1.753407e+01
1.770000e-06	-3.547084e-07	-2.318747e-10	-2.457186e+00	-1.674591e+01
1.780000e-06	-3.078184e-07	-2.210613e-10	-2.132363e+00	-1.593984e+01
1.790000e-06	-2.608649e-07	-2.104915e-10	-1.807100e+00	-1.511569e+01
1.800000e-06	-2.139108e-07	-1.970992e-10	-1.481833e+00	-1.427337e+01
1.810000e-06	-1.670262e-07	-1.825521e-10	-1.157047e+00	-1.341286e+01
1.820000e-06	-1.201686e-07	-1.672969e-10	-8.324484e-01	-1.253423e+01
1.830000e-06	-7.319760e-08	-1.539518e-10	-5.070646e-01	-1.163764e+01
1.840000e-06	-2.615738e-08	-1.422585e-10	-1.812011e-01	-1.072332e+01
1.850000e-06	2.082790e-08	-1.295267e-10	1.442819e-01	-9.791603e+00
1.860000e-06	6.776829e-08	-1.176496e-10	4.694540e-01	-8.842921e+00
1.870000e-06	1.147641e-07	-1.053256e-10	7.950100e-01	-7.877786e+00
1.880000e-06	1.617990e-07	-9.208068e-11	1.120836e+00	-6.896805e+00
1.890000e-06	2.087865e-07	-7.804121e-11	1.446335e+00	-5.900676e+00
1.900000e-06	2.557467e-07	-6.297180e-11	1.771644e+00	-4.890186e+00
1.910000e-06	3.026719e-07	-4.901208e-11	2.096711e+00	-3.866212e+00
1.920000e-06	3.495258e-07	-3.528972e-11	2.421284e+00	-2.829710e+00
1.930000e-06	3.963423e-07	-2.308289e-11	2.745598e+00	-1.781719e+00
1.940000e-06	4.432251e-07	-9.638093e-12	3.070371e+00	-7.233518e-01
1.950000e-06	4.901340e-07	3.083145e-12	3.395325e+00	3.442102e-01
1.960000e-06	5.369492e-07	1.664147e-11	3.719630e+00	1.419721e+00
1.970000e-06	5.836017e-07	3.109091e-11	4.042807e+00	2.501877e+00
1.980000e-06	6.301685e-07	4.739887e-11	4.365392e+00	3.589325e+00
1.990000e-06	6.767501e-07	6.508687e-11	4.688078e+00	4.680670e+00
2.000000e-06	7.232917e-07	8.309407e-11	5.010487e+00	5.774481e+00
2.010000e-06	7.698058e-07	9.948496e-11	5.332707e+00	6.869302e+00
2.020000e-06	8.162432e-07	1.142434e-10	5.654394e+00	7.963658e+00
2.030000e-06	8.625520e-07	1.277409e-10	5.975191e+00	9.056064e+00
2.040000e-06	9.087877e-07	1.415694e-10	6.295481e+00	1.014504e+01
2.050000e-06	9.549328e-07	1.552774e-10	6.615144e+00	1.122910e+01
2.060000e-06	1.001134e-06	1.714349e-10	6.935193e+00	1.230680e+01
2.070000e-06	1.047336e-06	1.882404e-10	7.255255e+00	1.337669e+01
2.080000e-06	1.093363e-06	2.049845e-10	7.574099e+00	1.443738e+01
2.090000e-06	1.139269e-06	2.206309e-10	7.892103e+00	1.548751e+01
2.100000e-06	1.185119e-06	2.345930e-10	8.209724e+00	1.652577e+01
2.110000e-06	1.230916e-06	2.478717e-10	8.526976e+00	1.755092e+01
2.120000e-06	1.276574e-06	2.600414e-10	8.843265e+00	1.856177e+01
2.130000e-06	1.322064e-06	2.716948e-10	9.158384e+00	1.955720e+01
2.140000e-06	1.367454e-06	2.826592e-10	9.472815e+00	2.053618e+01
2.150000e-06	1.412836e-06	2.948802e-10	9.787196e+00	2.149775e+01
2.160000e-06	1.458207e-06	3.064381e-10	1.010150e+01	2.244103e+01
2.170000e-06	1.503504e-06	3.190346e-10	1.041528e+01	2.336526e+01
2.180000e-06	1.548676e-06	3.332991e-10	1.072821e+01	2.426974e+01
2.190000e-06	1.593664e-06	3.466208e-10	1.103985e+01	2.515387e+01
2.200000e-06	1.638460e-06	3.600100e-10	1.135017e+01	2.601718e+01
2.210000e-06	1.683233e-06	3.722727e-10	1.166032e+01	2.685924e+01
2.220000e-06	1.727923e-06	3.824221e-10	1.196991e+01	2.767978e+01
2.230000e-06	1.772376e-06	3.928786e-10	1.227785e+01	2.847858e+01
2.240000e-06	1.816706e-06	4.018454e-10	1.258494e+01	2.925553e+01
2.250000e-06	1.860954e-06	4.098764e-10	1.289146e+01	3.001063e+01
2.260000e-06	1.905102e-06	4.189733e-10	1.319729e+01	3.074393e+01
2.270000e-06	1.949148e-06	4.303784e-10	1.350241e+01	3.145562e+01
2.280000e-06	1.993084e-06	4.415727e-10	1.380677e+01	3.214593e+01
2.290000e-06	2.036955e-06	4.514949e-10	1.411068e+01	3.281518e+01
2.300000e-06	2.080794e-06	4.589746e-10	1.441437e+01	3.346376e+01
2.310000e-06	2.124549e-06	4.661003e-10	1.471748e+01	3.409214e+01
2.320000e-06	2.168184e-06	4.745742e-10	1.501975e+01	3.470084e+01
2.330000e-06	2.211760e-06	4.834598e-10	1.532161e+01	3.529043e+01
2.340000e-06	2.255278e-06	4.926983e-10	1.562308e+01	3.586154e+01
2.350000e-06	2.298654e-06	5.019125e-10	1.592355e+01	3.641482e+01
2.360000e-06	2.341828e-06	5.091604e-10	1.622264e+01	3.695098e+01
2.370000e-06	2.384822e-06	5.154185e-10	1.652047e+01	3.747074e+01
2.380000e-06	2.427523e-06	5.239271e-10	1.681628e+01	3.797483e+01
2.390000e-06	2.469915e-06	5.335390e-10	1.710994e+01	3.846402e+01
2.400000e-06	2.512005e-06	5.425346e-10	1.740151e+01	3.893906e+01
2.410000e-06	2.553736e-06	5.515992e-10	1.769059e+01	3.940072e+01
2.420000e-06	2.595162e-06	5.608636e-10	1.797757e+01	3.984975e+01
2.430000e-06	2.636233e-06	5.682285e-10	1.826208e+01	4.028688e+01
2.440000e-06	2.676982e-06	5.742732e-10	1.854437e+01	4.071284e+01
2.450000e-06	2.717526e-06	5.825300e-10	1.882523e+01	4.112831e+01
2.460000e-06	2.757942e-06	5.927076e-10	1.910520e+01	4.153398e+01
2.470000e-06	2.798169e-06	6.018356e-10	1.938387e+01	4.193047e+01
2.480000e-06	2.838144e-06	6.090906e-10	1.966079e+01	4.231838e+01
2.490000e-06	2.878009e-06	6.142580e-10	1.993694e+01	4.269826e+01
2.500000e-06	2.917781e-06	6.189615e-10	2.021246e+01	4.307062e+01
2.510000e-06	2.957408e-06	6.246631e-10	2.048697e+01	4.343594e+01
2.520000e-06	2.996920e-06	6.311473e-10	2.076069e+01	4.379463e+01
2.530000e-06	3.036277e-06	6.383019e-10	2.103332e+01	4.414707e+01
2.540000e-06	3.075378e-06	6.451657e-10	2.130419e+01	4.449358e+01
2.550000e-06	3.114268e-06	6.492662e-10	2.157359e+01	4.483444e+01
2.560000e-06	3.152954e-06	6.518756e-10	2.184159e+01	4.516988e+01
2.570000e-06	3.191349e-06	6.558475e-10	2.210756e+01	4.550007e+01
2.580000e-06	3.229449e-06	6.611327e-10	2.237149e+01	4.582516e+01
2.590000e-06	3.267385e-06	6.656402e-10	2.263429e+01	4.614525e+01
2.600000e-06	3.305162e-06	6.689934e-10	2.289598e+01	4.646038e+01
2.610000e-06	3.342745e-06	6.738345e-10	2.315633e+01	4.677059e+01
2.620000e-06	3.380111e-06	6.803906e-10	2.341518e+01	4.707584e+01
2.630000e-06	3.417176e-06	6.849411e-10	2.367194e+01	4.737610e+01
2.640000e-06	3.454006e-06	6.877016e-10	2.392707e+01	4.767130e+01
2.650000e-06	3.490547e-06	6.897797e-10	2.418021e+01	4.796132e+01
2.660000e-06	3.526797e-06	6.933625e-10	2.443132e+01	4.824607e+01
2.670000e-06	3.562863e-06	6.979465e-10	2.468117e+01	4.852541e+01
2.680000e-06	3.598796e-06	7.019549e-10	2.493009e+01	4.879920e+01
2.690000e-06	3.634624e-06	7.056031e-10	2.517828e+01	4.906728e+01
2.700000e-06	3.670325e-06	7.089737e-10	2.542559e+01	4.932951e+01
2.710000e-06	3.705799e-06	7.142544e-10	2.567133e+01	4.958573e+01
2.720000e-06	3.741030e-06	7.186864e-10	2.591539e+01	4.983580e+01
2.730000e-06	3.776042e-06	7.250703e-10	2.615793e+01	5.007957e+01
2.740000e-06	3.810720e-06	7.303361e-10	2.639815e+01	5.031692e+01
2.750000e-06	3.844981e-06	7.295937e-10	2.663549e+01	5.054773e+01
2.760000e-06	3.878856e-06	7.279196e-10	2.687016e+01	5.077190e+01
2.770000e-06	3.912244e-06	7.279018e-10	2.710144e+01	5.098934e+01
2.780000e-06	3.945137e-06	7.338036e-10	2.732930e+01	5.120001e+01
2.790000e-06	3.977618e-06	7.415753e-10	2.755431e+01	5.140386e+01
2.800000e-06	4.009707e-06	7.488782e-10	2.777660e+01	5.160088e+01
2.810000e-06	4.041573e-06	7.556269e-10	2.799735e+01	5.179108e+01
2.820000e-06	4.073342e-06	7.592794e-10	2.821742e+01	5.197449e+01
2.830000e-06	4.105020e-06	7.592303e-10	2.843687e+01	5.215117e+01
2.840000e-06	4.136543e-06	7.568877e-10	2.865524e+01	5.232121e+01
2.850000e-06	4.167780e-06	7.560913e-10	2.887163e+01	5.248472e+01
2.860000e-06	4.198650e-06	7.609768e-10	2.908548e+01	5.264182e+01
2.870000e-06	4.229134e-06	7.671473e-10	2.929665e+01	5.279268e+01
2.880000e-06	4.259313e-06	7.715820e-10	2.950571e+01	5.293746e+01
2.890000e-06	4.289237e-06	7.759304e-10	2.971301e+01	5.307637e+01
2.900000e-06	4.318888e-06	7.781175e-10	2.991841e+01	5.320961e+01
