# Temperatura_=_13.02
# Concentracion g/m^3_=_1620.0
# C_Vs_to_Am_M_A/Vsm_=_65563218390.804596
# pendiente_HvsI_1/m_=_3716.3
# ordenada_HvsI_A/m_=_1297.0
# frecuencia_Hz_=_135101.48486905114

Tiempo_(s)	Campo_(V.s)	Magnetizacion_(V.s)	Campo_(kA/m)	Magnetizacion_(A/m)
0.000000e+00	-5.527603e-06	-7.973223e-10	-3.836454e+01	-5.249938e+01
1.000000e-08	-5.527796e-06	-7.972845e-10	-3.836588e+01	-5.250600e+01
2.000000e-08	-5.527737e-06	-8.003723e-10	-3.836547e+01	-5.251157e+01
3.000000e-08	-5.527263e-06	-8.029873e-10	-3.836218e+01	-5.251596e+01
4.000000e-08	-5.526126e-06	-8.032223e-10	-3.835429e+01	-5.251907e+01
5.000000e-08	-5.524326e-06	-8.045584e-10	-3.834180e+01	-5.252080e+01
6.000000e-08	-5.521964e-06	-8.080097e-10	-3.832541e+01	-5.252103e+01
7.000000e-08	-5.519101e-06	-8.146301e-10	-3.830554e+01	-5.251968e+01
8.000000e-08	-5.515852e-06	-7.935675e-10	-3.828299e+01	-5.251666e+01
9.000000e-08	-5.512216e-06	-7.537371e-10	-3.825775e+01	-5.251187e+01
1.000000e-07	-5.508150e-06	-7.672563e-10	-3.822952e+01	-5.250526e+01
1.100000e-07	-5.503763e-06	-8.114920e-10	-3.819908e+01	-5.249677e+01
1.200000e-07	-5.499105e-06	-8.262172e-10	-3.816675e+01	-5.248633e+01
1.300000e-07	-5.494127e-06	-7.630832e-10	-3.813220e+01	-5.247391e+01
1.400000e-07	-5.488842e-06	-7.416318e-10	-3.809552e+01	-5.245949e+01
1.500000e-07	-5.483238e-06	-7.878851e-10	-3.805662e+01	-5.244305e+01
1.600000e-07	-5.477229e-06	-7.990453e-10	-3.801492e+01	-5.242459e+01
1.700000e-07	-5.470726e-06	-7.795423e-10	-3.796978e+01	-5.240412e+01
1.800000e-07	-5.463837e-06	-7.482403e-10	-3.792197e+01	-5.238165e+01
1.900000e-07	-5.456715e-06	-8.058495e-10	-3.787254e+01	-5.235722e+01
2.000000e-07	-5.449243e-06	-8.111844e-10	-3.782068e+01	-5.233088e+01
2.100000e-07	-5.441482e-06	-7.932073e-10	-3.776682e+01	-5.230266e+01
2.200000e-07	-5.433427e-06	-7.495646e-10	-3.771091e+01	-5.227265e+01
2.300000e-07	-5.424973e-06	-7.737696e-10	-3.765224e+01	-5.224089e+01
2.400000e-07	-5.416036e-06	-7.927274e-10	-3.759021e+01	-5.220748e+01
2.500000e-07	-5.406422e-06	-8.049360e-10	-3.752348e+01	-5.217248e+01
2.600000e-07	-5.396191e-06	-7.875632e-10	-3.745247e+01	-5.213598e+01
2.700000e-07	-5.385481e-06	-7.926181e-10	-3.737814e+01	-5.209806e+01
2.800000e-07	-5.374278e-06	-7.946795e-10	-3.730039e+01	-5.205881e+01
2.900000e-07	-5.362641e-06	-7.905741e-10	-3.721961e+01	-5.201831e+01
3.000000e-07	-5.350565e-06	-7.877741e-10	-3.713581e+01	-5.197665e+01
3.100000e-07	-5.338074e-06	-7.924755e-10	-3.704911e+01	-5.193390e+01
3.200000e-07	-5.325266e-06	-8.179501e-10	-3.696022e+01	-5.189012e+01
3.300000e-07	-5.312075e-06	-7.982877e-10	-3.686866e+01	-5.184539e+01
3.400000e-07	-5.298409e-06	-7.889742e-10	-3.677381e+01	-5.179975e+01
3.500000e-07	-5.284319e-06	-7.850740e-10	-3.667602e+01	-5.175326e+01
3.600000e-07	-5.269707e-06	-7.936192e-10	-3.657461e+01	-5.170593e+01
3.700000e-07	-5.254622e-06	-7.702387e-10	-3.646991e+01	-5.165780e+01
3.800000e-07	-5.239138e-06	-7.897958e-10	-3.636244e+01	-5.160886e+01
3.900000e-07	-5.223146e-06	-8.003347e-10	-3.625145e+01	-5.155911e+01
4.000000e-07	-5.206734e-06	-7.854777e-10	-3.613754e+01	-5.150854e+01
4.100000e-07	-5.189914e-06	-7.666788e-10	-3.602080e+01	-5.145710e+01
4.200000e-07	-5.172761e-06	-8.016828e-10	-3.590175e+01	-5.140474e+01
4.300000e-07	-5.155312e-06	-7.890786e-10	-3.578064e+01	-5.135140e+01
4.400000e-07	-5.137478e-06	-7.644735e-10	-3.565686e+01	-5.129700e+01
4.500000e-07	-5.119228e-06	-7.757948e-10	-3.553020e+01	-5.124144e+01
4.600000e-07	-5.100552e-06	-8.034109e-10	-3.540058e+01	-5.118463e+01
4.700000e-07	-5.081567e-06	-7.648281e-10	-3.526881e+01	-5.112645e+01
4.800000e-07	-5.062325e-06	-7.628435e-10	-3.513526e+01	-5.106676e+01
4.900000e-07	-5.042795e-06	-7.817785e-10	-3.499971e+01	-5.100544e+01
5.000000e-07	-5.023015e-06	-7.691700e-10	-3.486243e+01	-5.094233e+01
5.100000e-07	-5.003005e-06	-7.494309e-10	-3.472355e+01	-5.087729e+01
5.200000e-07	-4.982724e-06	-7.796451e-10	-3.458279e+01	-5.081017e+01
5.300000e-07	-4.962095e-06	-7.737226e-10	-3.443961e+01	-5.074081e+01
5.400000e-07	-4.941152e-06	-7.496829e-10	-3.429425e+01	-5.066905e+01
5.500000e-07	-4.919778e-06	-7.632085e-10	-3.414591e+01	-5.059475e+01
5.600000e-07	-4.898032e-06	-7.728757e-10	-3.399498e+01	-5.051774e+01
5.700000e-07	-4.875917e-06	-7.425977e-10	-3.384149e+01	-5.043789e+01
5.800000e-07	-4.853346e-06	-7.382727e-10	-3.368483e+01	-5.035507e+01
5.900000e-07	-4.830514e-06	-7.547845e-10	-3.352637e+01	-5.026914e+01
6.000000e-07	-4.807467e-06	-7.438485e-10	-3.336641e+01	-5.017999e+01
6.100000e-07	-4.784095e-06	-7.416930e-10	-3.320420e+01	-5.008752e+01
6.200000e-07	-4.760408e-06	-7.485827e-10	-3.303979e+01	-4.999166e+01
6.300000e-07	-4.736425e-06	-7.391352e-10	-3.287334e+01	-4.989232e+01
6.400000e-07	-4.712145e-06	-7.271209e-10	-3.270483e+01	-4.978947e+01
6.500000e-07	-4.687501e-06	-7.429640e-10	-3.253378e+01	-4.968307e+01
6.600000e-07	-4.662489e-06	-7.395930e-10	-3.236018e+01	-4.957311e+01
6.700000e-07	-4.637016e-06	-7.333100e-10	-3.218339e+01	-4.945960e+01
6.800000e-07	-4.610929e-06	-7.350741e-10	-3.200233e+01	-4.934258e+01
6.900000e-07	-4.584318e-06	-7.392252e-10	-3.181763e+01	-4.922210e+01
7.000000e-07	-4.557313e-06	-7.247481e-10	-3.163021e+01	-4.909822e+01
7.100000e-07	-4.530034e-06	-7.279545e-10	-3.144087e+01	-4.897105e+01
7.200000e-07	-4.502518e-06	-7.259226e-10	-3.124990e+01	-4.884070e+01
7.300000e-07	-4.474820e-06	-7.217657e-10	-3.105766e+01	-4.870730e+01
7.400000e-07	-4.446889e-06	-7.217951e-10	-3.086380e+01	-4.857099e+01
7.500000e-07	-4.418734e-06	-7.311097e-10	-3.066840e+01	-4.843196e+01
7.600000e-07	-4.390330e-06	-7.213435e-10	-3.047125e+01	-4.829037e+01
7.700000e-07	-4.361570e-06	-7.202705e-10	-3.027165e+01	-4.814641e+01
7.800000e-07	-4.332474e-06	-7.211677e-10	-3.006970e+01	-4.800030e+01
7.900000e-07	-4.303091e-06	-7.146302e-10	-2.986577e+01	-4.785223e+01
8.000000e-07	-4.273360e-06	-7.059080e-10	-2.965942e+01	-4.770242e+01
8.100000e-07	-4.243318e-06	-7.153190e-10	-2.945092e+01	-4.755109e+01
8.200000e-07	-4.213050e-06	-7.182708e-10	-2.924084e+01	-4.739846e+01
8.300000e-07	-4.182469e-06	-7.134378e-10	-2.902858e+01	-4.724472e+01
8.400000e-07	-4.151553e-06	-7.144976e-10	-2.881402e+01	-4.709010e+01
8.500000e-07	-4.120419e-06	-7.163088e-10	-2.859793e+01	-4.693478e+01
8.600000e-07	-4.089060e-06	-7.075718e-10	-2.838028e+01	-4.677896e+01
8.700000e-07	-4.057531e-06	-7.017129e-10	-2.816145e+01	-4.662280e+01
8.800000e-07	-4.025861e-06	-7.026717e-10	-2.794164e+01	-4.646645e+01
8.900000e-07	-3.993915e-06	-6.961813e-10	-2.771992e+01	-4.631005e+01
9.000000e-07	-3.961677e-06	-6.912192e-10	-2.749617e+01	-4.615372e+01
9.100000e-07	-3.929103e-06	-6.929527e-10	-2.727009e+01	-4.599753e+01
9.200000e-07	-3.896099e-06	-6.948553e-10	-2.704103e+01	-4.584155e+01
9.300000e-07	-3.862688e-06	-6.900382e-10	-2.680913e+01	-4.568581e+01
9.400000e-07	-3.829019e-06	-6.934016e-10	-2.657546e+01	-4.553032e+01
9.500000e-07	-3.794952e-06	-6.945196e-10	-2.633901e+01	-4.537506e+01
9.600000e-07	-3.760379e-06	-6.906432e-10	-2.609905e+01	-4.521997e+01
9.700000e-07	-3.725432e-06	-6.845873e-10	-2.585650e+01	-4.506496e+01
9.800000e-07	-3.690184e-06	-6.849696e-10	-2.561187e+01	-4.490992e+01
9.900000e-07	-3.654706e-06	-6.781875e-10	-2.536563e+01	-4.475471e+01
1.000000e-06	-3.619055e-06	-6.735687e-10	-2.511819e+01	-4.459913e+01
1.010000e-06	-3.583291e-06	-6.710955e-10	-2.486997e+01	-4.444300e+01
1.020000e-06	-3.547386e-06	-6.727456e-10	-2.462077e+01	-4.428608e+01
1.030000e-06	-3.511269e-06	-6.711563e-10	-2.437010e+01	-4.412810e+01
1.040000e-06	-3.474910e-06	-6.723855e-10	-2.411775e+01	-4.396879e+01
1.050000e-06	-3.438276e-06	-6.666628e-10	-2.386349e+01	-4.380784e+01
1.060000e-06	-3.401442e-06	-6.557779e-10	-2.360784e+01	-4.364494e+01
1.070000e-06	-3.364404e-06	-6.456798e-10	-2.335077e+01	-4.347974e+01
1.080000e-06	-3.327041e-06	-6.432888e-10	-2.309146e+01	-4.331190e+01
1.090000e-06	-3.289382e-06	-6.395055e-10	-2.283008e+01	-4.314104e+01
1.100000e-06	-3.251562e-06	-6.381390e-10	-2.256759e+01	-4.296682e+01
1.110000e-06	-3.213569e-06	-6.379743e-10	-2.230390e+01	-4.278885e+01
1.120000e-06	-3.175310e-06	-6.372619e-10	-2.203836e+01	-4.260676e+01
1.130000e-06	-3.136775e-06	-6.338191e-10	-2.177091e+01	-4.242019e+01
1.140000e-06	-3.097989e-06	-6.313814e-10	-2.150171e+01	-4.222879e+01
1.150000e-06	-3.059072e-06	-6.291145e-10	-2.123161e+01	-4.203219e+01
1.160000e-06	-3.020074e-06	-6.223171e-10	-2.096094e+01	-4.183007e+01
1.170000e-06	-2.980884e-06	-6.151017e-10	-2.068894e+01	-4.162211e+01
1.180000e-06	-2.941492e-06	-6.098529e-10	-2.041554e+01	-4.140801e+01
1.190000e-06	-2.902001e-06	-6.080644e-10	-2.014145e+01	-4.118750e+01
1.200000e-06	-2.862371e-06	-6.065287e-10	-1.986640e+01	-4.096032e+01
1.210000e-06	-2.822530e-06	-6.055067e-10	-1.958988e+01	-4.072624e+01
1.220000e-06	-2.782459e-06	-6.010340e-10	-1.931177e+01	-4.048508e+01
1.230000e-06	-2.742278e-06	-5.977795e-10	-1.903289e+01	-4.023666e+01
1.240000e-06	-2.701972e-06	-5.938446e-10	-1.875314e+01	-3.998086e+01
1.250000e-06	-2.661435e-06	-5.882390e-10	-1.847179e+01	-3.971756e+01
1.260000e-06	-2.620615e-06	-5.817942e-10	-1.818848e+01	-3.944669e+01
1.270000e-06	-2.579320e-06	-5.800138e-10	-1.790187e+01	-3.916822e+01
1.280000e-06	-2.537685e-06	-5.769940e-10	-1.761290e+01	-3.888213e+01
1.290000e-06	-2.495770e-06	-5.748287e-10	-1.732199e+01	-3.858844e+01
1.300000e-06	-2.453540e-06	-5.694666e-10	-1.702889e+01	-3.828719e+01
1.310000e-06	-2.411141e-06	-5.651548e-10	-1.673461e+01	-3.797846e+01
1.320000e-06	-2.368556e-06	-5.585482e-10	-1.643906e+01	-3.766235e+01
1.330000e-06	-2.325700e-06	-5.535502e-10	-1.614161e+01	-3.733896e+01
1.340000e-06	-2.282593e-06	-5.495659e-10	-1.584243e+01	-3.700844e+01
1.350000e-06	-2.239356e-06	-5.475168e-10	-1.554234e+01	-3.667094e+01
1.360000e-06	-2.195953e-06	-5.444554e-10	-1.524110e+01	-3.632661e+01
1.370000e-06	-2.152377e-06	-5.406122e-10	-1.493866e+01	-3.597562e+01
1.380000e-06	-2.108720e-06	-5.369255e-10	-1.463565e+01	-3.561814e+01
1.390000e-06	-2.064962e-06	-5.316529e-10	-1.433195e+01	-3.525434e+01
1.400000e-06	-2.021129e-06	-5.245358e-10	-1.402772e+01	-3.488438e+01
1.410000e-06	-1.977265e-06	-5.178673e-10	-1.372328e+01	-3.450842e+01
1.420000e-06	-1.933334e-06	-5.111762e-10	-1.341838e+01	-3.412658e+01
1.430000e-06	-1.889253e-06	-5.073663e-10	-1.311244e+01	-3.373901e+01
1.440000e-06	-1.845030e-06	-5.067769e-10	-1.280550e+01	-3.334578e+01
1.450000e-06	-1.800661e-06	-5.045228e-10	-1.249756e+01	-3.294698e+01
1.460000e-06	-1.756163e-06	-5.003788e-10	-1.218872e+01	-3.254264e+01
1.470000e-06	-1.711545e-06	-4.920134e-10	-1.187905e+01	-3.213277e+01
1.480000e-06	-1.666824e-06	-4.821997e-10	-1.156866e+01	-3.171735e+01
1.490000e-06	-1.622001e-06	-4.715323e-10	-1.125756e+01	-3.129630e+01
1.500000e-06	-1.577045e-06	-4.623068e-10	-1.094554e+01	-3.086952e+01
1.510000e-06	-1.531975e-06	-4.562001e-10	-1.063273e+01	-3.043685e+01
1.520000e-06	-1.486777e-06	-4.496014e-10	-1.031903e+01	-2.999809e+01
1.530000e-06	-1.441530e-06	-4.413665e-10	-1.000500e+01	-2.955300e+01
1.540000e-06	-1.396198e-06	-4.353479e-10	-9.690364e+00	-2.910129e+01
1.550000e-06	-1.350798e-06	-4.281011e-10	-9.375268e+00	-2.864263e+01
1.560000e-06	-1.305337e-06	-4.175953e-10	-9.059743e+00	-2.817663e+01
1.570000e-06	-1.259717e-06	-4.048808e-10	-8.743112e+00	-2.770286e+01
1.580000e-06	-1.214008e-06	-3.928357e-10	-8.425869e+00	-2.722087e+01
1.590000e-06	-1.168165e-06	-3.793280e-10	-8.107692e+00	-2.673015e+01
1.600000e-06	-1.122223e-06	-3.702354e-10	-7.788830e+00	-2.623016e+01
1.610000e-06	-1.076260e-06	-3.637781e-10	-7.469821e+00	-2.572032e+01
1.620000e-06	-1.030210e-06	-3.585279e-10	-7.150209e+00	-2.520004e+01
1.630000e-06	-9.840914e-07	-3.516590e-10	-6.830124e+00	-2.466870e+01
1.640000e-06	-9.379232e-07	-3.412355e-10	-6.509692e+00	-2.412565e+01
1.650000e-06	-8.916999e-07	-3.276994e-10	-6.188877e+00	-2.357024e+01
1.660000e-06	-8.453330e-07	-3.131989e-10	-5.867066e+00	-2.300182e+01
1.670000e-06	-7.988107e-07	-3.006599e-10	-5.544176e+00	-2.241972e+01
1.680000e-06	-7.523695e-07	-2.934705e-10	-5.221850e+00	-2.182330e+01
1.690000e-06	-7.059798e-07	-2.876957e-10	-4.899880e+00	-2.121192e+01
1.700000e-06	-6.595595e-07	-2.834111e-10	-4.577698e+00	-2.058495e+01
1.710000e-06	-6.130620e-07	-2.755936e-10	-4.254980e+00	-1.994181e+01
1.720000e-06	-5.664108e-07	-2.649290e-10	-3.931196e+00	-1.928195e+01
1.730000e-06	-5.197142e-07	-2.534426e-10	-3.607096e+00	-1.860484e+01
1.740000e-06	-4.729956e-07	-2.405380e-10	-3.282844e+00	-1.791003e+01
1.750000e-06	-4.261780e-07	-2.269346e-10	-2.957905e+00	-1.719709e+01
1.760000e-06	-3.793023e-07	-2.131205e-10	-2.632562e+00	-1.646568e+01
1.770000e-06	-3.324889e-07	-2.036830e-10	-2.307652e+00	-1.571550e+01
1.780000e-06	-2.857173e-07	-1.961072e-10	-1.983032e+00	-1.494636e+01
1.790000e-06	-2.387944e-07	-1.879162e-10	-1.657361e+00	-1.415811e+01
1.800000e-06	-1.918005e-07	-1.736956e-10	-1.331199e+00	-1.335069e+01
1.810000e-06	-1.448981e-07	-1.549342e-10	-1.005671e+00	-1.252415e+01
1.820000e-06	-9.803305e-08	-1.355661e-10	-6.804022e-01	-1.167859e+01
1.830000e-06	-5.111397e-08	-1.190296e-10	-3.547585e-01	-1.081423e+01
1.840000e-06	-4.177858e-09	-1.066914e-10	-2.899658e-02	-9.931384e+00
1.850000e-06	4.268287e-08	-1.004282e-10	2.962421e-01	-9.030443e+00
1.860000e-06	8.954614e-08	-9.517219e-11	6.214985e-01	-8.111908e+00
1.870000e-06	1.365045e-07	-8.642893e-11	9.474151e-01	-7.176370e+00
1.880000e-06	1.834910e-07	-7.265302e-11	1.273527e+00	-6.224516e+00
1.890000e-06	2.303938e-07	-5.766318e-11	1.599057e+00	-5.257124e+00
1.900000e-06	2.773267e-07	-4.061821e-11	1.924796e+00	-4.275064e+00
1.910000e-06	3.242903e-07	-2.348262e-11	2.250749e+00	-3.279292e+00
1.920000e-06	3.711953e-07	-9.909468e-12	2.576295e+00	-2.270847e+00
1.930000e-06	4.180757e-07	1.074438e-12	2.901670e+00	-1.250844e+00
1.940000e-06	4.649180e-07	9.007438e-12	3.226781e+00	-2.204730e-01
1.950000e-06	5.116430e-07	1.549428e-11	3.551078e+00	8.190092e-01
1.960000e-06	5.583254e-07	2.679846e-11	3.875079e+00	1.866287e+00
1.970000e-06	6.049959e-07	4.382133e-11	4.198997e+00	2.919991e+00
1.980000e-06	6.516724e-07	6.383771e-11	4.522957e+00	3.978707e+00
1.990000e-06	6.982460e-07	8.452550e-11	4.846203e+00	5.040983e+00
2.000000e-06	7.446926e-07	1.037362e-10	5.168568e+00	6.105337e+00
2.010000e-06	7.910979e-07	1.181242e-10	5.490645e+00	7.170268e+00
2.020000e-06	8.373683e-07	1.270730e-10	5.811787e+00	8.234263e+00
2.030000e-06	8.836363e-07	1.365413e-10	6.132912e+00	9.295803e+00
2.040000e-06	9.299094e-07	1.492501e-10	6.454072e+00	1.035338e+01
2.050000e-06	9.760750e-07	1.631808e-10	6.774487e+00	1.140550e+01
2.060000e-06	1.022093e-06	1.789658e-10	7.093875e+00	1.245068e+01
2.070000e-06	1.068038e-06	1.990825e-10	7.412760e+00	1.348749e+01
2.080000e-06	1.113920e-06	2.189315e-10	7.731206e+00	1.451453e+01
2.090000e-06	1.159682e-06	2.343068e-10	8.048820e+00	1.553044e+01
2.100000e-06	1.205334e-06	2.467230e-10	8.365670e+00	1.653393e+01
2.110000e-06	1.250880e-06	2.589468e-10	8.681780e+00	1.752377e+01
2.120000e-06	1.296438e-06	2.704136e-10	8.997978e+00	1.849880e+01
2.130000e-06	1.341966e-06	2.816411e-10	9.313964e+00	1.945792e+01
2.140000e-06	1.387362e-06	2.931044e-10	9.629036e+00	2.040014e+01
2.150000e-06	1.432693e-06	3.050591e-10	9.943661e+00	2.132453e+01
2.160000e-06	1.477942e-06	3.180916e-10	1.025771e+01	2.223026e+01
2.170000e-06	1.523015e-06	3.327762e-10	1.057055e+01	2.311659e+01
2.180000e-06	1.568005e-06	3.465337e-10	1.088280e+01	2.398289e+01
2.190000e-06	1.613003e-06	3.592867e-10	1.119511e+01	2.482861e+01
2.200000e-06	1.657814e-06	3.698881e-10	1.150612e+01	2.565330e+01
2.210000e-06	1.702448e-06	3.787698e-10	1.181591e+01	2.645662e+01
2.220000e-06	1.746948e-06	3.881135e-10	1.212476e+01	2.723833e+01
2.230000e-06	1.791230e-06	3.968952e-10	1.243210e+01	2.799825e+01
2.240000e-06	1.835373e-06	4.055353e-10	1.273848e+01	2.873636e+01
2.250000e-06	1.879359e-06	4.151518e-10	1.304376e+01	2.945266e+01
2.260000e-06	1.923225e-06	4.257008e-10	1.334822e+01	3.014731e+01
2.270000e-06	1.967065e-06	4.364642e-10	1.365249e+01	3.082049e+01
2.280000e-06	2.010816e-06	4.468283e-10	1.395614e+01	3.147251e+01
2.290000e-06	2.054446e-06	4.548191e-10	1.425896e+01	3.210372e+01
2.300000e-06	2.098025e-06	4.611825e-10	1.456142e+01	3.271456e+01
2.310000e-06	2.141586e-06	4.684443e-10	1.486376e+01	3.330553e+01
2.320000e-06	2.185077e-06	4.771553e-10	1.516561e+01	3.387719e+01
2.330000e-06	2.228473e-06	4.859885e-10	1.546680e+01	3.443014e+01
2.340000e-06	2.271856e-06	4.948713e-10	1.576791e+01	3.496503e+01
2.350000e-06	2.315132e-06	5.031829e-10	1.606826e+01	3.548254e+01
2.360000e-06	2.358174e-06	5.107403e-10	1.636700e+01	3.598340e+01
2.370000e-06	2.400995e-06	5.184979e-10	1.666420e+01	3.646834e+01
2.380000e-06	2.443464e-06	5.260104e-10	1.695896e+01	3.693811e+01
2.390000e-06	2.485516e-06	5.334117e-10	1.725082e+01	3.739347e+01
2.400000e-06	2.527370e-06	5.407499e-10	1.754131e+01	3.783520e+01
2.410000e-06	2.569052e-06	5.486256e-10	1.783060e+01	3.826404e+01
2.420000e-06	2.610350e-06	5.566227e-10	1.811724e+01	3.868075e+01
2.430000e-06	2.651318e-06	5.639238e-10	1.840158e+01	3.908605e+01
2.440000e-06	2.692059e-06	5.705704e-10	1.868434e+01	3.948066e+01
2.450000e-06	2.732526e-06	5.763032e-10	1.896520e+01	3.986524e+01
2.460000e-06	2.772674e-06	5.807806e-10	1.924385e+01	4.024046e+01
2.470000e-06	2.812564e-06	5.855313e-10	1.952071e+01	4.060692e+01
2.480000e-06	2.852284e-06	5.910868e-10	1.979639e+01	4.096518e+01
2.490000e-06	2.891907e-06	5.964680e-10	2.007139e+01	4.131579e+01
2.500000e-06	2.931468e-06	6.039927e-10	2.034596e+01	4.165922e+01
2.510000e-06	2.970920e-06	6.119327e-10	2.061979e+01	4.199590e+01
2.520000e-06	3.010186e-06	6.169664e-10	2.089231e+01	4.232623e+01
2.530000e-06	3.049320e-06	6.196541e-10	2.116392e+01	4.265054e+01
2.540000e-06	3.088281e-06	6.207723e-10	2.143433e+01	4.296911e+01
2.550000e-06	3.126993e-06	6.204802e-10	2.170302e+01	4.328219e+01
2.560000e-06	3.165458e-06	6.218206e-10	2.196999e+01	4.358996e+01
2.570000e-06	3.203631e-06	6.283968e-10	2.223492e+01	4.389257e+01
2.580000e-06	3.241570e-06	6.366645e-10	2.249824e+01	4.419012e+01
2.590000e-06	3.279306e-06	6.427293e-10	2.276015e+01	4.448265e+01
2.600000e-06	3.316877e-06	6.488068e-10	2.302092e+01	4.477020e+01
2.610000e-06	3.354253e-06	6.549516e-10	2.328032e+01	4.505273e+01
2.620000e-06	3.391392e-06	6.588708e-10	2.353808e+01	4.533019e+01
2.630000e-06	3.428309e-06	6.603387e-10	2.379431e+01	4.560249e+01
2.640000e-06	3.464967e-06	6.588948e-10	2.404874e+01	4.586954e+01
2.650000e-06	3.501377e-06	6.567370e-10	2.430144e+01	4.613118e+01
2.660000e-06	3.537520e-06	6.570938e-10	2.455229e+01	4.638728e+01
2.670000e-06	3.573385e-06	6.599771e-10	2.480122e+01	4.663767e+01
2.680000e-06	3.609113e-06	6.650696e-10	2.504919e+01	4.688217e+01
2.690000e-06	3.644733e-06	6.717795e-10	2.529641e+01	4.712061e+01
2.700000e-06	3.680177e-06	6.781763e-10	2.554241e+01	4.735280e+01
2.710000e-06	3.715542e-06	6.825845e-10	2.578786e+01	4.757857e+01
2.720000e-06	3.750775e-06	6.867149e-10	2.603240e+01	4.779775e+01
2.730000e-06	3.785634e-06	6.911800e-10	2.627434e+01	4.801018e+01
2.740000e-06	3.820116e-06	6.937398e-10	2.651366e+01	4.821570e+01
2.750000e-06	3.854208e-06	6.944848e-10	2.675028e+01	4.841419e+01
2.760000e-06	3.887790e-06	6.965046e-10	2.698335e+01	4.860553e+01
2.770000e-06	3.920841e-06	6.994659e-10	2.721275e+01	4.878964e+01
2.780000e-06	3.953568e-06	7.026840e-10	2.743989e+01	4.896643e+01
2.790000e-06	3.985969e-06	7.077247e-10	2.766477e+01	4.913588e+01
2.800000e-06	4.017933e-06	7.117262e-10	2.788662e+01	4.929795e+01
2.810000e-06	4.049666e-06	7.128307e-10	2.810686e+01	4.945267e+01
2.820000e-06	4.081258e-06	7.132952e-10	2.832613e+01	4.960008e+01
2.830000e-06	4.112692e-06	7.125666e-10	2.854430e+01	4.974022e+01
2.840000e-06	4.143910e-06	7.111972e-10	2.876097e+01	4.987321e+01
2.850000e-06	4.174863e-06	7.128093e-10	2.897580e+01	4.999916e+01
2.860000e-06	4.205531e-06	7.155554e-10	2.918865e+01	5.011822e+01
2.870000e-06	4.235870e-06	7.177502e-10	2.939922e+01	5.023056e+01
2.880000e-06	4.265868e-06	7.211654e-10	2.960742e+01	5.033637e+01
2.890000e-06	4.295566e-06	7.246844e-10	2.981354e+01	5.043588e+01
2.900000e-06	4.325032e-06	7.290579e-10	3.001805e+01	5.052933e+01
