# Temperatura_=_-0.3
# Concentracion g/m^3_=_1620.0
# C_Vs_to_Am_M_A/Vsm_=_65563218390.804596
# pendiente_HvsI_1/m_=_3716.3
# ordenada_HvsI_A/m_=_1297.0
# frecuencia_Hz_=_135103.279318958

Tiempo_(s)	Campo_(V.s)	Magnetizacion_(V.s)	Campo_(kA/m)	Magnetizacion_(A/m)
0.000000e+00	-5.523142e-06	-1.428598e-09	-3.837846e+01	-9.178902e+01
1.000000e-08	-5.523269e-06	-1.431891e-09	-3.837935e+01	-9.179937e+01
2.000000e-08	-5.523030e-06	-1.435408e-09	-3.837769e+01	-9.181010e+01
3.000000e-08	-5.522384e-06	-1.435205e-09	-3.837320e+01	-9.182118e+01
4.000000e-08	-5.521202e-06	-1.431934e-09	-3.836498e+01	-9.183256e+01
5.000000e-08	-5.519360e-06	-1.432623e-09	-3.835219e+01	-9.184413e+01
6.000000e-08	-5.516963e-06	-1.428869e-09	-3.833553e+01	-9.185579e+01
7.000000e-08	-5.514041e-06	-1.420244e-09	-3.831522e+01	-9.186739e+01
8.000000e-08	-5.510582e-06	-1.418254e-09	-3.829119e+01	-9.187877e+01
9.000000e-08	-5.506726e-06	-1.422876e-09	-3.826440e+01	-9.188974e+01
1.000000e-07	-5.502548e-06	-1.404057e-09	-3.823536e+01	-9.190009e+01
1.100000e-07	-5.498023e-06	-1.443911e-09	-3.820392e+01	-9.190960e+01
1.200000e-07	-5.493249e-06	-1.444332e-09	-3.817075e+01	-9.191802e+01
1.300000e-07	-5.488172e-06	-1.418507e-09	-3.813547e+01	-9.192509e+01
1.400000e-07	-5.482734e-06	-1.392489e-09	-3.809769e+01	-9.193055e+01
1.500000e-07	-5.476999e-06	-1.401054e-09	-3.805783e+01	-9.193412e+01
1.600000e-07	-5.470879e-06	-1.435509e-09	-3.801531e+01	-9.193551e+01
1.700000e-07	-5.464241e-06	-1.408236e-09	-3.796918e+01	-9.193442e+01
1.800000e-07	-5.457218e-06	-1.415102e-09	-3.792038e+01	-9.193058e+01
1.900000e-07	-5.449976e-06	-1.442468e-09	-3.787006e+01	-9.192368e+01
2.000000e-07	-5.442376e-06	-1.472985e-09	-3.781725e+01	-9.191344e+01
2.100000e-07	-5.434468e-06	-1.440914e-09	-3.776230e+01	-9.189957e+01
2.200000e-07	-5.426352e-06	-1.423207e-09	-3.770590e+01	-9.188179e+01
2.300000e-07	-5.417905e-06	-1.436875e-09	-3.764721e+01	-9.185984e+01
2.400000e-07	-5.408873e-06	-1.473147e-09	-3.758445e+01	-9.183345e+01
2.500000e-07	-5.399166e-06	-1.465433e-09	-3.751700e+01	-9.180239e+01
2.600000e-07	-5.388817e-06	-1.447599e-09	-3.744509e+01	-9.176643e+01
2.700000e-07	-5.377889e-06	-1.444473e-09	-3.736915e+01	-9.172534e+01
2.800000e-07	-5.366505e-06	-1.442355e-09	-3.729005e+01	-9.167893e+01
2.900000e-07	-5.354733e-06	-1.428947e-09	-3.720825e+01	-9.162702e+01
3.000000e-07	-5.342649e-06	-1.426813e-09	-3.712428e+01	-9.156946e+01
3.100000e-07	-5.330133e-06	-1.434721e-09	-3.703731e+01	-9.150609e+01
3.200000e-07	-5.317149e-06	-1.431727e-09	-3.694709e+01	-9.143680e+01
3.300000e-07	-5.303795e-06	-1.425562e-09	-3.685430e+01	-9.136150e+01
3.400000e-07	-5.290067e-06	-1.413219e-09	-3.675891e+01	-9.128009e+01
3.500000e-07	-5.275924e-06	-1.409102e-09	-3.666063e+01	-9.119252e+01
3.600000e-07	-5.261417e-06	-1.412953e-09	-3.655983e+01	-9.109875e+01
3.700000e-07	-5.246456e-06	-1.406968e-09	-3.645587e+01	-9.099876e+01
3.800000e-07	-5.230828e-06	-1.391930e-09	-3.634727e+01	-9.089254e+01
3.900000e-07	-5.214700e-06	-1.416211e-09	-3.623520e+01	-9.078013e+01
4.000000e-07	-5.198191e-06	-1.418172e-09	-3.612049e+01	-9.066154e+01
4.100000e-07	-5.181254e-06	-1.378419e-09	-3.600280e+01	-9.053684e+01
4.200000e-07	-5.164053e-06	-1.371009e-09	-3.588328e+01	-9.040609e+01
4.300000e-07	-5.146686e-06	-1.412101e-09	-3.576260e+01	-9.026937e+01
4.400000e-07	-5.128943e-06	-1.382995e-09	-3.563931e+01	-9.012679e+01
4.500000e-07	-5.110666e-06	-1.347603e-09	-3.551231e+01	-8.997844e+01
4.600000e-07	-5.091938e-06	-1.387203e-09	-3.538218e+01	-8.982446e+01
4.700000e-07	-5.072835e-06	-1.395840e-09	-3.524944e+01	-8.966496e+01
4.800000e-07	-5.053448e-06	-1.335554e-09	-3.511472e+01	-8.950008e+01
4.900000e-07	-5.033835e-06	-1.354049e-09	-3.497844e+01	-8.932998e+01
5.000000e-07	-5.014008e-06	-1.394738e-09	-3.484066e+01	-8.915480e+01
5.100000e-07	-4.993927e-06	-1.350581e-09	-3.470113e+01	-8.897470e+01
5.200000e-07	-4.973522e-06	-1.332806e-09	-3.455934e+01	-8.878984e+01
5.300000e-07	-4.952808e-06	-1.376607e-09	-3.441541e+01	-8.860039e+01
5.400000e-07	-4.931756e-06	-1.351672e-09	-3.426912e+01	-8.840650e+01
5.500000e-07	-4.910294e-06	-1.318831e-09	-3.411999e+01	-8.820835e+01
5.600000e-07	-4.888429e-06	-1.357535e-09	-3.396806e+01	-8.800610e+01
5.700000e-07	-4.866230e-06	-1.352599e-09	-3.381381e+01	-8.779992e+01
5.800000e-07	-4.843647e-06	-1.305752e-09	-3.365688e+01	-8.758996e+01
5.900000e-07	-4.820669e-06	-1.330315e-09	-3.349722e+01	-8.737639e+01
6.000000e-07	-4.797491e-06	-1.351123e-09	-3.333616e+01	-8.715936e+01
6.100000e-07	-4.774070e-06	-1.311198e-09	-3.317342e+01	-8.693903e+01
6.200000e-07	-4.750396e-06	-1.312104e-09	-3.300891e+01	-8.671554e+01
6.300000e-07	-4.726570e-06	-1.332853e-09	-3.284335e+01	-8.648904e+01
6.400000e-07	-4.702428e-06	-1.306082e-09	-3.267560e+01	-8.625967e+01
6.500000e-07	-4.677785e-06	-1.297532e-09	-3.250436e+01	-8.602755e+01
6.600000e-07	-4.652696e-06	-1.320688e-09	-3.233003e+01	-8.579281e+01
6.700000e-07	-4.627152e-06	-1.303300e-09	-3.215253e+01	-8.555557e+01
6.800000e-07	-4.601054e-06	-1.286405e-09	-3.197118e+01	-8.531594e+01
6.900000e-07	-4.574449e-06	-1.299364e-09	-3.178632e+01	-8.507403e+01
7.000000e-07	-4.547387e-06	-1.293748e-09	-3.159827e+01	-8.482994e+01
7.100000e-07	-4.520020e-06	-1.278910e-09	-3.140811e+01	-8.458374e+01
7.200000e-07	-4.492490e-06	-1.289382e-09	-3.121681e+01	-8.433553e+01
7.300000e-07	-4.464737e-06	-1.285059e-09	-3.102396e+01	-8.408537e+01
7.400000e-07	-4.436761e-06	-1.272358e-09	-3.082957e+01	-8.383333e+01
7.500000e-07	-4.408547e-06	-1.279252e-09	-3.063352e+01	-8.357946e+01
7.600000e-07	-4.380087e-06	-1.280660e-09	-3.043576e+01	-8.332381e+01
7.700000e-07	-4.351322e-06	-1.266420e-09	-3.023588e+01	-8.306642e+01
7.800000e-07	-4.322095e-06	-1.269166e-09	-3.003280e+01	-8.280730e+01
7.900000e-07	-4.292526e-06	-1.271315e-09	-2.982733e+01	-8.254647e+01
8.000000e-07	-4.262634e-06	-1.259158e-09	-2.961962e+01	-8.228395e+01
8.100000e-07	-4.232463e-06	-1.255897e-09	-2.940997e+01	-8.201971e+01
8.200000e-07	-4.202157e-06	-1.261017e-09	-2.919938e+01	-8.175375e+01
8.300000e-07	-4.171582e-06	-1.250387e-09	-2.898693e+01	-8.148603e+01
8.400000e-07	-4.140619e-06	-1.241446e-09	-2.877177e+01	-8.121651e+01
8.500000e-07	-4.109356e-06	-1.244625e-09	-2.855454e+01	-8.094513e+01
8.600000e-07	-4.077925e-06	-1.237993e-09	-2.833614e+01	-8.067184e+01
8.700000e-07	-4.046345e-06	-1.225891e-09	-2.811670e+01	-8.039654e+01
8.800000e-07	-4.014585e-06	-1.228074e-09	-2.789601e+01	-8.011915e+01
8.900000e-07	-3.982662e-06	-1.226706e-09	-2.767419e+01	-7.983957e+01
9.000000e-07	-3.950531e-06	-1.214269e-09	-2.745092e+01	-7.955766e+01
9.100000e-07	-3.918155e-06	-1.209221e-09	-2.722595e+01	-7.927330e+01
9.200000e-07	-3.885447e-06	-1.206581e-09	-2.699867e+01	-7.898634e+01
9.300000e-07	-3.852194e-06	-1.195142e-09	-2.676761e+01	-7.869663e+01
9.400000e-07	-3.818408e-06	-1.186873e-09	-2.653284e+01	-7.840399e+01
9.500000e-07	-3.784158e-06	-1.187893e-09	-2.629485e+01	-7.810823e+01
9.600000e-07	-3.749434e-06	-1.182023e-09	-2.605356e+01	-7.780916e+01
9.700000e-07	-3.714332e-06	-1.173275e-09	-2.580965e+01	-7.750658e+01
9.800000e-07	-3.679015e-06	-1.170482e-09	-2.556424e+01	-7.720026e+01
9.900000e-07	-3.643519e-06	-1.166543e-09	-2.531760e+01	-7.688998e+01
1.000000e-06	-3.607873e-06	-1.156378e-09	-2.506990e+01	-7.657550e+01
1.010000e-06	-3.572106e-06	-1.150602e-09	-2.482137e+01	-7.625658e+01
1.020000e-06	-3.536190e-06	-1.145773e-09	-2.457180e+01	-7.593295e+01
1.030000e-06	-3.500113e-06	-1.136984e-09	-2.432111e+01	-7.560437e+01
1.040000e-06	-3.463819e-06	-1.129611e-09	-2.406892e+01	-7.527058e+01
1.050000e-06	-3.427279e-06	-1.124291e-09	-2.381502e+01	-7.493130e+01
1.060000e-06	-3.390402e-06	-1.113379e-09	-2.355877e+01	-7.458627e+01
1.070000e-06	-3.353147e-06	-1.103780e-09	-2.329989e+01	-7.423523e+01
1.080000e-06	-3.315649e-06	-1.099103e-09	-2.303934e+01	-7.387791e+01
1.090000e-06	-3.277968e-06	-1.093137e-09	-2.277750e+01	-7.351405e+01
1.100000e-06	-3.240108e-06	-1.082971e-09	-2.251443e+01	-7.314340e+01
1.110000e-06	-3.202034e-06	-1.073991e-09	-2.224986e+01	-7.276570e+01
1.120000e-06	-3.163747e-06	-1.064819e-09	-2.198382e+01	-7.238071e+01
1.130000e-06	-3.125222e-06	-1.056381e-09	-2.171612e+01	-7.198820e+01
1.140000e-06	-3.086442e-06	-1.051355e-09	-2.144665e+01	-7.158796e+01
1.150000e-06	-3.047506e-06	-1.045891e-09	-2.117610e+01	-7.117976e+01
1.160000e-06	-3.008346e-06	-1.035850e-09	-2.090399e+01	-7.076343e+01
1.170000e-06	-2.968976e-06	-1.026413e-09	-2.063042e+01	-7.033877e+01
1.180000e-06	-2.929461e-06	-1.019923e-09	-2.035584e+01	-6.990563e+01
1.190000e-06	-2.889800e-06	-1.012767e-09	-2.008026e+01	-6.946387e+01
1.200000e-06	-2.850053e-06	-1.006859e-09	-1.980407e+01	-6.901334e+01
1.210000e-06	-2.810178e-06	-1.000522e-09	-1.952699e+01	-6.855395e+01
1.220000e-06	-2.770186e-06	-9.928476e-10	-1.924909e+01	-6.808560e+01
1.230000e-06	-2.730054e-06	-9.885074e-10	-1.897023e+01	-6.760821e+01
1.240000e-06	-2.689697e-06	-9.837944e-10	-1.868981e+01	-6.712175e+01
1.250000e-06	-2.649135e-06	-9.747443e-10	-1.840795e+01	-6.662615e+01
1.260000e-06	-2.608359e-06	-9.624648e-10	-1.812461e+01	-6.612142e+01
1.270000e-06	-2.567400e-06	-9.533801e-10	-1.784000e+01	-6.560754e+01
1.280000e-06	-2.526137e-06	-9.461479e-10	-1.755328e+01	-6.508454e+01
1.290000e-06	-2.484413e-06	-9.377092e-10	-1.726336e+01	-6.455243e+01
1.300000e-06	-2.442199e-06	-9.313163e-10	-1.697003e+01	-6.401125e+01
1.310000e-06	-2.399638e-06	-9.239783e-10	-1.667428e+01	-6.346106e+01
1.320000e-06	-2.356937e-06	-9.141096e-10	-1.637757e+01	-6.290191e+01
1.330000e-06	-2.314108e-06	-9.059635e-10	-1.607996e+01	-6.233387e+01
1.340000e-06	-2.271032e-06	-8.979555e-10	-1.578064e+01	-6.175701e+01
1.350000e-06	-2.227690e-06	-8.872840e-10	-1.547947e+01	-6.117140e+01
1.360000e-06	-2.184198e-06	-8.779763e-10	-1.517726e+01	-6.057711e+01
1.370000e-06	-2.140598e-06	-8.694851e-10	-1.487430e+01	-5.997419e+01
1.380000e-06	-2.096889e-06	-8.611459e-10	-1.457058e+01	-5.936272e+01
1.390000e-06	-2.053123e-06	-8.523705e-10	-1.426646e+01	-5.874273e+01
1.400000e-06	-2.009322e-06	-8.453048e-10	-1.396211e+01	-5.811427e+01
1.410000e-06	-1.965485e-06	-8.355642e-10	-1.365749e+01	-5.747734e+01
1.420000e-06	-1.921623e-06	-8.235858e-10	-1.335271e+01	-5.683196e+01
1.430000e-06	-1.877661e-06	-8.135465e-10	-1.304723e+01	-5.617809e+01
1.440000e-06	-1.833574e-06	-8.050062e-10	-1.274089e+01	-5.551570e+01
1.450000e-06	-1.789390e-06	-7.932685e-10	-1.243387e+01	-5.484471e+01
1.460000e-06	-1.745089e-06	-7.792739e-10	-1.212604e+01	-5.416502e+01
1.470000e-06	-1.700527e-06	-7.654533e-10	-1.181640e+01	-5.347650e+01
1.480000e-06	-1.655689e-06	-7.513780e-10	-1.150483e+01	-5.277899e+01
1.490000e-06	-1.610752e-06	-7.383884e-10	-1.119258e+01	-5.207229e+01
1.500000e-06	-1.565706e-06	-7.292701e-10	-1.087957e+01	-5.135616e+01
1.510000e-06	-1.520556e-06	-7.208645e-10	-1.056583e+01	-5.063033e+01
1.520000e-06	-1.475300e-06	-7.080548e-10	-1.025136e+01	-4.989450e+01
1.530000e-06	-1.429925e-06	-6.909379e-10	-9.936073e+00	-4.914833e+01
1.540000e-06	-1.384512e-06	-6.753584e-10	-9.620513e+00	-4.839144e+01
1.550000e-06	-1.339079e-06	-6.612308e-10	-9.304809e+00	-4.762341e+01
1.560000e-06	-1.293585e-06	-6.476387e-10	-8.988689e+00	-4.684380e+01
1.570000e-06	-1.247962e-06	-6.377618e-10	-8.671674e+00	-4.605214e+01
1.580000e-06	-1.202209e-06	-6.283542e-10	-8.353745e+00	-4.524791e+01
1.590000e-06	-1.156404e-06	-6.145657e-10	-8.035462e+00	-4.443058e+01
1.600000e-06	-1.110600e-06	-6.006871e-10	-7.717187e+00	-4.359959e+01
1.610000e-06	-1.064627e-06	-5.875345e-10	-7.397738e+00	-4.275436e+01
1.620000e-06	-1.018498e-06	-5.725234e-10	-7.077203e+00	-4.189430e+01
1.630000e-06	-9.724181e-07	-5.581071e-10	-6.757008e+00	-4.101880e+01
1.640000e-06	-9.263244e-07	-5.419214e-10	-6.436718e+00	-4.012724e+01
1.650000e-06	-8.801641e-07	-5.251398e-10	-6.115966e+00	-3.921901e+01
1.660000e-06	-8.338832e-07	-5.080981e-10	-5.794375e+00	-3.829350e+01
1.670000e-06	-7.874862e-07	-4.921562e-10	-5.471978e+00	-3.735010e+01
1.680000e-06	-7.410769e-07	-4.758539e-10	-5.149495e+00	-3.638821e+01
1.690000e-06	-6.946679e-07	-4.619350e-10	-4.827015e+00	-3.540727e+01
1.700000e-06	-6.481959e-07	-4.488144e-10	-4.504096e+00	-3.440674e+01
1.710000e-06	-6.016621e-07	-4.322195e-10	-4.180749e+00	-3.338609e+01
1.720000e-06	-5.550806e-07	-4.132586e-10	-3.857070e+00	-3.234486e+01
1.730000e-06	-5.084155e-07	-3.939990e-10	-3.532809e+00	-3.128261e+01
1.740000e-06	-4.616886e-07	-3.751975e-10	-3.208119e+00	-3.019896e+01
1.750000e-06	-4.149577e-07	-3.576467e-10	-2.883402e+00	-2.909359e+01
1.760000e-06	-3.681449e-07	-3.401628e-10	-2.558116e+00	-2.796623e+01
1.770000e-06	-3.212131e-07	-3.238778e-10	-2.232002e+00	-2.681668e+01
1.780000e-06	-2.743303e-07	-3.088963e-10	-1.906230e+00	-2.564482e+01
1.790000e-06	-2.274159e-07	-2.905080e-10	-1.580237e+00	-2.445060e+01
1.800000e-06	-1.804754e-07	-2.693557e-10	-1.254063e+00	-2.323403e+01
1.810000e-06	-1.336471e-07	-2.481328e-10	-9.286692e-01	-2.199525e+01
1.820000e-06	-8.689057e-08	-2.285823e-10	-6.037735e-01	-2.073443e+01
1.830000e-06	-4.014654e-08	-2.106601e-10	-2.789649e-01	-1.945188e+01
1.840000e-06	6.669694e-09	-1.940535e-10	4.634547e-02	-1.814795e+01
1.850000e-06	5.352206e-08	-1.797756e-10	3.719069e-01	-1.682313e+01
1.860000e-06	1.003240e-07	-1.630760e-10	6.971178e-01	-1.547797e+01
1.870000e-06	1.471530e-07	-1.419752e-10	1.022517e+00	-1.411313e+01
1.880000e-06	1.939883e-07	-1.186760e-10	1.347960e+00	-1.272934e+01
1.890000e-06	2.408350e-07	-9.547198e-11	1.673482e+00	-1.132745e+01
1.900000e-06	2.877245e-07	-7.431092e-11	1.999301e+00	-9.908369e+00
1.910000e-06	3.345346e-07	-5.503773e-11	2.324569e+00	-8.473114e+00
1.920000e-06	3.812944e-07	-3.966291e-11	2.649488e+00	-7.022772e+00
1.930000e-06	4.280111e-07	-2.389413e-11	2.974106e+00	-5.558510e+00
1.940000e-06	4.746404e-07	-7.953875e-12	3.298117e+00	-4.081568e+00
1.950000e-06	5.212350e-07	8.823921e-12	3.621887e+00	-2.593254e+00
1.960000e-06	5.677169e-07	2.814011e-11	3.944875e+00	-1.094937e+00
1.970000e-06	6.141631e-07	5.003866e-11	4.267614e+00	4.119565e-01
1.980000e-06	6.606361e-07	7.263709e-11	4.590539e+00	1.925952e+00
1.990000e-06	7.070746e-07	9.561983e-11	4.913225e+00	3.445535e+00
2.000000e-06	7.534674e-07	1.171186e-10	5.235593e+00	4.969154e+00
2.010000e-06	7.997821e-07	1.353061e-10	5.557418e+00	6.495233e+00
2.020000e-06	8.460745e-07	1.526365e-10	5.879089e+00	8.022180e+00
2.030000e-06	8.923276e-07	1.717403e-10	6.200486e+00	9.548388e+00
2.040000e-06	9.384459e-07	1.918411e-10	6.520946e+00	1.107225e+01
2.050000e-06	9.844466e-07	2.132311e-10	6.840590e+00	1.259218e+01
2.060000e-06	1.030489e-06	2.354462e-10	7.160523e+00	1.410658e+01
2.070000e-06	1.076495e-06	2.589796e-10	7.480203e+00	1.561390e+01
2.080000e-06	1.122349e-06	2.817913e-10	7.798828e+00	1.711261e+01
2.090000e-06	1.168170e-06	3.025470e-10	8.117225e+00	1.860123e+01
2.100000e-06	1.213924e-06	3.227841e-10	8.435155e+00	2.007830e+01
2.110000e-06	1.259556e-06	3.410219e-10	8.752231e+00	2.154245e+01
2.120000e-06	1.305075e-06	3.595349e-10	9.068529e+00	2.299236e+01
2.130000e-06	1.350525e-06	3.789179e-10	9.384347e+00	2.442676e+01
2.140000e-06	1.395874e-06	3.977544e-10	9.699459e+00	2.584447e+01
2.150000e-06	1.441094e-06	4.160321e-10	1.001368e+01	2.724438e+01
2.160000e-06	1.486189e-06	4.364889e-10	1.032703e+01	2.862548e+01
2.170000e-06	1.531118e-06	4.573228e-10	1.063922e+01	2.998683e+01
2.180000e-06	1.575998e-06	4.759844e-10	1.095108e+01	3.132759e+01
2.190000e-06	1.620868e-06	4.939701e-10	1.126287e+01	3.264700e+01
2.200000e-06	1.665621e-06	5.113104e-10	1.157385e+01	3.394441e+01
2.210000e-06	1.710170e-06	5.282935e-10	1.188340e+01	3.521925e+01
2.220000e-06	1.754537e-06	5.458565e-10	1.219169e+01	3.647107e+01
2.230000e-06	1.798826e-06	5.622870e-10	1.249944e+01	3.769950e+01
2.240000e-06	1.843008e-06	5.779150e-10	1.280645e+01	3.890426e+01
2.250000e-06	1.887013e-06	5.932818e-10	1.311222e+01	4.008517e+01
2.260000e-06	1.930875e-06	6.082705e-10	1.341700e+01	4.124215e+01
2.270000e-06	1.974686e-06	6.236951e-10	1.372144e+01	4.237520e+01
2.280000e-06	2.018498e-06	6.401084e-10	1.402587e+01	4.348439e+01
2.290000e-06	2.062260e-06	6.556667e-10	1.432996e+01	4.456990e+01
2.300000e-06	2.105924e-06	6.709993e-10	1.463336e+01	4.563197e+01
2.310000e-06	2.149520e-06	6.868535e-10	1.493629e+01	4.667090e+01
2.320000e-06	2.193084e-06	7.018528e-10	1.523900e+01	4.768707e+01
2.330000e-06	2.236496e-06	7.148279e-10	1.554066e+01	4.868092e+01
2.340000e-06	2.279761e-06	7.283343e-10	1.584130e+01	4.965292e+01
2.350000e-06	2.322867e-06	7.429978e-10	1.614083e+01	5.060362e+01
2.360000e-06	2.365652e-06	7.569678e-10	1.643812e+01	5.153357e+01
2.370000e-06	2.408195e-06	7.693603e-10	1.673374e+01	5.244339e+01
2.380000e-06	2.450528e-06	7.811135e-10	1.702790e+01	5.333371e+01
2.390000e-06	2.492467e-06	7.932751e-10	1.731932e+01	5.420516e+01
2.400000e-06	2.534007e-06	8.052676e-10	1.760797e+01	5.505841e+01
2.410000e-06	2.575268e-06	8.186993e-10	1.789468e+01	5.589413e+01
2.420000e-06	2.616324e-06	8.327073e-10	1.817996e+01	5.671298e+01
2.430000e-06	2.657081e-06	8.456181e-10	1.846317e+01	5.751561e+01
2.440000e-06	2.697490e-06	8.574817e-10	1.874396e+01	5.830267e+01
2.450000e-06	2.737713e-06	8.689201e-10	1.902345e+01	5.907478e+01
2.460000e-06	2.777802e-06	8.795372e-10	1.930202e+01	5.983255e+01
2.470000e-06	2.817748e-06	8.888537e-10	1.957959e+01	6.057655e+01
2.480000e-06	2.857591e-06	8.966832e-10	1.985645e+01	6.130732e+01
2.490000e-06	2.897307e-06	9.056194e-10	2.013242e+01	6.202537e+01
2.500000e-06	2.936869e-06	9.166998e-10	2.040732e+01	6.273117e+01
2.510000e-06	2.976380e-06	9.280162e-10	2.068187e+01	6.342514e+01
2.520000e-06	3.015766e-06	9.384074e-10	2.095555e+01	6.410766e+01
2.530000e-06	3.054811e-06	9.475931e-10	2.122686e+01	6.477909e+01
2.540000e-06	3.093549e-06	9.545809e-10	2.149604e+01	6.543971e+01
2.550000e-06	3.132139e-06	9.605232e-10	2.176419e+01	6.608977e+01
2.560000e-06	3.170511e-06	9.686238e-10	2.203082e+01	6.672947e+01
2.570000e-06	3.208547e-06	9.777823e-10	2.229512e+01	6.735899e+01
2.580000e-06	3.246401e-06	9.856016e-10	2.255815e+01	6.797844e+01
2.590000e-06	3.284213e-06	9.934209e-10	2.282090e+01	6.858789e+01
2.600000e-06	3.321830e-06	1.002747e-09	2.308229e+01	6.918739e+01
2.610000e-06	3.359129e-06	1.013229e-09	2.334146e+01	6.977694e+01
2.620000e-06	3.396175e-06	1.023847e-09	2.359888e+01	7.035652e+01
2.630000e-06	3.432987e-06	1.032383e-09	2.385468e+01	7.092607e+01
2.640000e-06	3.469527e-06	1.037326e-09	2.410858e+01	7.148552e+01
2.650000e-06	3.505763e-06	1.041894e-09	2.436037e+01	7.203475e+01
2.660000e-06	3.541812e-06	1.048507e-09	2.461087e+01	7.257366e+01
2.670000e-06	3.577749e-06	1.055795e-09	2.486058e+01	7.310211e+01
2.680000e-06	3.613535e-06	1.062627e-09	2.510925e+01	7.361997e+01
2.690000e-06	3.649174e-06	1.070336e-09	2.535689e+01	7.412710e+01
2.700000e-06	3.684648e-06	1.079457e-09	2.560339e+01	7.462335e+01
2.710000e-06	3.719947e-06	1.086612e-09	2.584867e+01	7.510859e+01
2.720000e-06	3.754934e-06	1.093074e-09	2.609178e+01	7.558269e+01
2.730000e-06	3.789521e-06	1.098555e-09	2.633211e+01	7.604555e+01
2.740000e-06	3.823700e-06	1.102285e-09	2.656962e+01	7.649706e+01
2.750000e-06	3.857402e-06	1.105927e-09	2.680380e+01	7.693715e+01
2.760000e-06	3.890635e-06	1.110733e-09	2.703472e+01	7.736577e+01
2.770000e-06	3.923475e-06	1.118470e-09	2.726292e+01	7.778290e+01
2.780000e-06	3.955969e-06	1.128864e-09	2.748871e+01	7.818852e+01
2.790000e-06	3.988147e-06	1.139194e-09	2.771230e+01	7.858268e+01
2.800000e-06	4.020070e-06	1.148464e-09	2.793412e+01	7.896545e+01
2.810000e-06	4.051779e-06	1.154875e-09	2.815446e+01	7.933691e+01
2.820000e-06	4.083346e-06	1.157657e-09	2.837380e+01	7.969721e+01
2.830000e-06	4.114764e-06	1.159118e-09	2.859212e+01	8.004650e+01
2.840000e-06	4.145928e-06	1.160654e-09	2.880867e+01	8.038499e+01
2.850000e-06	4.176785e-06	1.165960e-09	2.902308e+01	8.071292e+01
2.860000e-06	4.207321e-06	1.173985e-09	2.923527e+01	8.103054e+01
2.870000e-06	4.237545e-06	1.180762e-09	2.944528e+01	8.133816e+01
2.880000e-06	4.267492e-06	1.187977e-09	2.965338e+01	8.163610e+01
2.890000e-06	4.297137e-06	1.194575e-09	2.985937e+01	8.192472e+01
2.900000e-06	4.326517e-06	1.198761e-09	3.006352e+01	8.220438e+01
