# Temperatura_=_10.0
# Concentracion g/m^3_=_1620.0
# C_Vs_to_Am_M_A/Vsm_=_65563218390.804596
# pendiente_HvsI_1/m_=_3716.3
# ordenada_HvsI_A/m_=_1297.0
# frecuencia_Hz_=_135105.9382865892

Tiempo_(s)	Campo_(V.s)	Magnetizacion_(V.s)	Campo_(kA/m)	Magnetizacion_(A/m)
0.000000e+00	-5.523803e-06	-7.552687e-10	-3.838027e+01	-4.877443e+01
1.000000e-08	-5.523856e-06	-7.533217e-10	-3.838064e+01	-4.874622e+01
2.000000e-08	-5.523549e-06	-7.548738e-10	-3.837851e+01	-4.871859e+01
3.000000e-08	-5.522822e-06	-7.544290e-10	-3.837345e+01	-4.869160e+01
4.000000e-08	-5.521556e-06	-7.492447e-10	-3.836466e+01	-4.866528e+01
5.000000e-08	-5.519728e-06	-7.447656e-10	-3.835196e+01	-4.863966e+01
6.000000e-08	-5.517352e-06	-7.406092e-10	-3.833545e+01	-4.861474e+01
7.000000e-08	-5.514450e-06	-7.390591e-10	-3.831529e+01	-4.859053e+01
8.000000e-08	-5.511008e-06	-7.369267e-10	-3.829137e+01	-4.856701e+01
9.000000e-08	-5.506998e-06	-7.055462e-10	-3.826351e+01	-4.854414e+01
1.000000e-07	-5.502637e-06	-6.930238e-10	-3.823321e+01	-4.852187e+01
1.100000e-07	-5.498149e-06	-7.736841e-10	-3.820202e+01	-4.850015e+01
1.200000e-07	-5.493415e-06	-7.770710e-10	-3.816913e+01	-4.847891e+01
1.300000e-07	-5.488288e-06	-7.099052e-10	-3.813350e+01	-4.845805e+01
1.400000e-07	-5.482867e-06	-6.698217e-10	-3.809584e+01	-4.843749e+01
1.500000e-07	-5.477069e-06	-7.229253e-10	-3.805555e+01	-4.841712e+01
1.600000e-07	-5.470828e-06	-7.901710e-10	-3.801219e+01	-4.839682e+01
1.700000e-07	-5.464247e-06	-6.984504e-10	-3.796647e+01	-4.837648e+01
1.800000e-07	-5.457354e-06	-6.803729e-10	-3.791857e+01	-4.835596e+01
1.900000e-07	-5.450080e-06	-7.187751e-10	-3.786803e+01	-4.833514e+01
2.000000e-07	-5.442466e-06	-8.027585e-10	-3.781513e+01	-4.831386e+01
2.100000e-07	-5.434627e-06	-7.642637e-10	-3.776066e+01	-4.829200e+01
2.200000e-07	-5.426510e-06	-7.460867e-10	-3.770426e+01	-4.826940e+01
2.300000e-07	-5.417926e-06	-7.520050e-10	-3.764462e+01	-4.824592e+01
2.400000e-07	-5.408709e-06	-7.914657e-10	-3.758058e+01	-4.822141e+01
2.500000e-07	-5.398788e-06	-7.683220e-10	-3.751164e+01	-4.819573e+01
2.600000e-07	-5.388323e-06	-7.465930e-10	-3.743893e+01	-4.816873e+01
2.700000e-07	-5.377393e-06	-7.577917e-10	-3.736299e+01	-4.814028e+01
2.800000e-07	-5.365984e-06	-7.810952e-10	-3.728372e+01	-4.811024e+01
2.900000e-07	-5.354196e-06	-7.768687e-10	-3.720181e+01	-4.807847e+01
3.000000e-07	-5.342014e-06	-7.475020e-10	-3.711717e+01	-4.804486e+01
3.100000e-07	-5.329456e-06	-7.683095e-10	-3.702992e+01	-4.800928e+01
3.200000e-07	-5.316570e-06	-7.744072e-10	-3.694038e+01	-4.797163e+01
3.300000e-07	-5.303364e-06	-7.673862e-10	-3.684862e+01	-4.793179e+01
3.400000e-07	-5.289762e-06	-7.153302e-10	-3.675412e+01	-4.788967e+01
3.500000e-07	-5.275636e-06	-7.468766e-10	-3.665597e+01	-4.784519e+01
3.600000e-07	-5.261002e-06	-7.651552e-10	-3.655428e+01	-4.779826e+01
3.700000e-07	-5.245865e-06	-7.526009e-10	-3.644911e+01	-4.774882e+01
3.800000e-07	-5.230117e-06	-7.280237e-10	-3.633969e+01	-4.769681e+01
3.900000e-07	-5.214023e-06	-7.770414e-10	-3.622787e+01	-4.764217e+01
4.000000e-07	-5.197635e-06	-7.421425e-10	-3.611400e+01	-4.758487e+01
4.100000e-07	-5.180825e-06	-6.975542e-10	-3.599721e+01	-4.752487e+01
4.200000e-07	-5.163658e-06	-7.380056e-10	-3.587792e+01	-4.746217e+01
4.300000e-07	-5.146241e-06	-7.849768e-10	-3.575691e+01	-4.739673e+01
4.400000e-07	-5.128484e-06	-6.995332e-10	-3.563353e+01	-4.732857e+01
4.500000e-07	-5.110192e-06	-6.997421e-10	-3.550644e+01	-4.725769e+01
4.600000e-07	-5.091538e-06	-7.765556e-10	-3.537682e+01	-4.718411e+01
4.700000e-07	-5.072597e-06	-7.396890e-10	-3.524522e+01	-4.710786e+01
4.800000e-07	-5.053284e-06	-6.698037e-10	-3.511103e+01	-4.702896e+01
4.900000e-07	-5.033705e-06	-7.465525e-10	-3.497499e+01	-4.694747e+01
5.000000e-07	-5.013928e-06	-7.543472e-10	-3.483757e+01	-4.686342e+01
5.100000e-07	-4.993854e-06	-6.696679e-10	-3.469810e+01	-4.677689e+01
5.200000e-07	-4.973455e-06	-7.074746e-10	-3.455636e+01	-4.668793e+01
5.300000e-07	-4.952778e-06	-7.657115e-10	-3.441269e+01	-4.659661e+01
5.400000e-07	-4.931701e-06	-6.829253e-10	-3.426625e+01	-4.650302e+01
5.500000e-07	-4.910140e-06	-6.705972e-10	-3.411644e+01	-4.640722e+01
5.600000e-07	-4.888266e-06	-7.535510e-10	-3.396446e+01	-4.630933e+01
5.700000e-07	-4.866131e-06	-7.113324e-10	-3.381066e+01	-4.620941e+01
5.800000e-07	-4.843663e-06	-6.592545e-10	-3.365454e+01	-4.610758e+01
5.900000e-07	-4.820849e-06	-7.202794e-10	-3.349603e+01	-4.600392e+01
6.000000e-07	-4.797652e-06	-7.244476e-10	-3.333486e+01	-4.589855e+01
6.100000e-07	-4.774138e-06	-6.591275e-10	-3.317148e+01	-4.579156e+01
6.200000e-07	-4.750450e-06	-6.918583e-10	-3.300689e+01	-4.568307e+01
6.300000e-07	-4.726621e-06	-7.120503e-10	-3.284132e+01	-4.557318e+01
6.400000e-07	-4.702479e-06	-6.701507e-10	-3.267358e+01	-4.546199e+01
6.500000e-07	-4.677820e-06	-6.747543e-10	-3.250224e+01	-4.534963e+01
6.600000e-07	-4.652757e-06	-7.085878e-10	-3.232811e+01	-4.523618e+01
6.700000e-07	-4.627151e-06	-6.723807e-10	-3.215019e+01	-4.512176e+01
6.800000e-07	-4.600937e-06	-6.665059e-10	-3.196805e+01	-4.500648e+01
6.900000e-07	-4.574346e-06	-6.867089e-10	-3.178329e+01	-4.489043e+01
7.000000e-07	-4.547362e-06	-6.749761e-10	-3.159580e+01	-4.477370e+01
7.100000e-07	-4.520009e-06	-6.583628e-10	-3.140575e+01	-4.465640e+01
7.200000e-07	-4.492466e-06	-6.813265e-10	-3.121437e+01	-4.453861e+01
7.300000e-07	-4.464804e-06	-6.732713e-10	-3.102217e+01	-4.442041e+01
7.400000e-07	-4.436944e-06	-6.630262e-10	-3.082860e+01	-4.430188e+01
7.500000e-07	-4.408799e-06	-6.687111e-10	-3.063305e+01	-4.418308e+01
7.600000e-07	-4.380347e-06	-6.655845e-10	-3.043536e+01	-4.406409e+01
7.700000e-07	-4.351579e-06	-6.514425e-10	-3.023547e+01	-4.394495e+01
7.800000e-07	-4.322481e-06	-6.620777e-10	-3.003329e+01	-4.382570e+01
7.900000e-07	-4.293071e-06	-6.606675e-10	-2.982895e+01	-4.370639e+01
8.000000e-07	-4.263353e-06	-6.480704e-10	-2.962246e+01	-4.358703e+01
8.100000e-07	-4.233338e-06	-6.523275e-10	-2.941391e+01	-4.346764e+01
8.200000e-07	-4.202976e-06	-6.590975e-10	-2.920295e+01	-4.334822e+01
8.300000e-07	-4.172297e-06	-6.443558e-10	-2.898979e+01	-4.322877e+01
8.400000e-07	-4.141355e-06	-6.416290e-10	-2.877480e+01	-4.310925e+01
8.500000e-07	-4.110193e-06	-6.538368e-10	-2.855828e+01	-4.298964e+01
8.600000e-07	-4.078855e-06	-6.444927e-10	-2.834054e+01	-4.286989e+01
8.700000e-07	-4.047309e-06	-6.317688e-10	-2.812135e+01	-4.274993e+01
8.800000e-07	-4.015583e-06	-6.360142e-10	-2.790091e+01	-4.262970e+01
8.900000e-07	-3.983658e-06	-6.357256e-10	-2.767910e+01	-4.250911e+01
9.000000e-07	-3.951469e-06	-6.222431e-10	-2.745544e+01	-4.238805e+01
9.100000e-07	-3.918938e-06	-6.275679e-10	-2.722941e+01	-4.226642e+01
9.200000e-07	-3.886033e-06	-6.321307e-10	-2.700078e+01	-4.214409e+01
9.300000e-07	-3.852677e-06	-6.247417e-10	-2.676902e+01	-4.202092e+01
9.400000e-07	-3.818818e-06	-6.221670e-10	-2.653376e+01	-4.189676e+01
9.500000e-07	-3.784564e-06	-6.319665e-10	-2.629576e+01	-4.177145e+01
9.600000e-07	-3.749872e-06	-6.222178e-10	-2.605471e+01	-4.164481e+01
9.700000e-07	-3.714801e-06	-6.121986e-10	-2.581103e+01	-4.151667e+01
9.800000e-07	-3.679521e-06	-6.144594e-10	-2.556590e+01	-4.138683e+01
9.900000e-07	-3.644036e-06	-6.170139e-10	-2.531935e+01	-4.125508e+01
1.000000e-06	-3.608378e-06	-6.076436e-10	-2.507159e+01	-4.112123e+01
1.010000e-06	-3.572545e-06	-6.105910e-10	-2.482262e+01	-4.098506e+01
1.020000e-06	-3.536539e-06	-6.132264e-10	-2.457244e+01	-4.084635e+01
1.030000e-06	-3.500340e-06	-6.076102e-10	-2.432093e+01	-4.070487e+01
1.040000e-06	-3.463930e-06	-6.009304e-10	-2.406794e+01	-4.056041e+01
1.050000e-06	-3.427218e-06	-5.991486e-10	-2.381286e+01	-4.041274e+01
1.060000e-06	-3.390187e-06	-5.890295e-10	-2.355557e+01	-4.026162e+01
1.070000e-06	-3.352935e-06	-5.841299e-10	-2.329673e+01	-4.010685e+01
1.080000e-06	-3.315484e-06	-5.881264e-10	-2.303652e+01	-3.994819e+01
1.090000e-06	-3.277810e-06	-5.885616e-10	-2.277475e+01	-3.978544e+01
1.100000e-06	-3.239881e-06	-5.820397e-10	-2.251121e+01	-3.961839e+01
1.110000e-06	-3.201706e-06	-5.778301e-10	-2.224597e+01	-3.944682e+01
1.120000e-06	-3.163332e-06	-5.731921e-10	-2.197934e+01	-3.927056e+01
1.130000e-06	-3.124855e-06	-5.658573e-10	-2.171200e+01	-3.908941e+01
1.140000e-06	-3.086231e-06	-5.621989e-10	-2.144363e+01	-3.890320e+01
1.150000e-06	-3.047366e-06	-5.608142e-10	-2.117359e+01	-3.871179e+01
1.160000e-06	-3.008252e-06	-5.568106e-10	-2.090181e+01	-3.851501e+01
1.170000e-06	-2.968961e-06	-5.522388e-10	-2.062882e+01	-3.831273e+01
1.180000e-06	-2.929502e-06	-5.509148e-10	-2.035465e+01	-3.810485e+01
1.190000e-06	-2.889888e-06	-5.478188e-10	-2.007941e+01	-3.789125e+01
1.200000e-06	-2.850192e-06	-5.444301e-10	-1.980359e+01	-3.767185e+01
1.210000e-06	-2.810333e-06	-5.414856e-10	-1.952664e+01	-3.744657e+01
1.220000e-06	-2.770285e-06	-5.394283e-10	-1.924839e+01	-3.721535e+01
1.230000e-06	-2.730060e-06	-5.345263e-10	-1.896890e+01	-3.697817e+01
1.240000e-06	-2.689658e-06	-5.303505e-10	-1.868818e+01	-3.673498e+01
1.250000e-06	-2.649013e-06	-5.251842e-10	-1.840576e+01	-3.648577e+01
1.260000e-06	-2.607969e-06	-5.226082e-10	-1.812059e+01	-3.623055e+01
1.270000e-06	-2.566573e-06	-5.179830e-10	-1.783296e+01	-3.596933e+01
1.280000e-06	-2.524971e-06	-5.146859e-10	-1.754391e+01	-3.570213e+01
1.290000e-06	-2.483147e-06	-5.089192e-10	-1.725330e+01	-3.542898e+01
1.300000e-06	-2.440900e-06	-5.027908e-10	-1.695977e+01	-3.514992e+01
1.310000e-06	-2.398266e-06	-4.964680e-10	-1.666354e+01	-3.486499e+01
1.320000e-06	-2.355417e-06	-4.936075e-10	-1.636582e+01	-3.457426e+01
1.330000e-06	-2.312434e-06	-4.926939e-10	-1.606716e+01	-3.427777e+01
1.340000e-06	-2.269272e-06	-4.918471e-10	-1.576726e+01	-3.397558e+01
1.350000e-06	-2.225942e-06	-4.881093e-10	-1.546620e+01	-3.366773e+01
1.360000e-06	-2.182520e-06	-4.833633e-10	-1.516450e+01	-3.335427e+01
1.370000e-06	-2.138939e-06	-4.777748e-10	-1.486169e+01	-3.303525e+01
1.380000e-06	-2.095267e-06	-4.729380e-10	-1.455825e+01	-3.271069e+01
1.390000e-06	-2.051534e-06	-4.668616e-10	-1.425439e+01	-3.238061e+01
1.400000e-06	-2.007718e-06	-4.599434e-10	-1.394995e+01	-3.204502e+01
1.410000e-06	-1.963852e-06	-4.541541e-10	-1.364516e+01	-3.170391e+01
1.420000e-06	-1.919850e-06	-4.491373e-10	-1.333943e+01	-3.135724e+01
1.430000e-06	-1.875702e-06	-4.475671e-10	-1.303268e+01	-3.100498e+01
1.440000e-06	-1.831524e-06	-4.470000e-10	-1.272572e+01	-3.064704e+01
1.450000e-06	-1.787306e-06	-4.433025e-10	-1.241849e+01	-3.028334e+01
1.460000e-06	-1.742940e-06	-4.340031e-10	-1.211023e+01	-2.991375e+01
1.470000e-06	-1.698375e-06	-4.239154e-10	-1.180058e+01	-2.953812e+01
1.480000e-06	-1.653643e-06	-4.132128e-10	-1.148978e+01	-2.915629e+01
1.490000e-06	-1.608817e-06	-4.052086e-10	-1.117832e+01	-2.876804e+01
1.500000e-06	-1.563854e-06	-4.008282e-10	-1.086591e+01	-2.837314e+01
1.510000e-06	-1.518701e-06	-4.006720e-10	-1.055218e+01	-2.797133e+01
1.520000e-06	-1.473443e-06	-3.966760e-10	-1.023772e+01	-2.756232e+01
1.530000e-06	-1.428092e-06	-3.883723e-10	-9.922615e+00	-2.714579e+01
1.540000e-06	-1.382655e-06	-3.775009e-10	-9.606909e+00	-2.672139e+01
1.550000e-06	-1.337136e-06	-3.672158e-10	-9.290639e+00	-2.628875e+01
1.560000e-06	-1.291538e-06	-3.563391e-10	-8.973815e+00	-2.584746e+01
1.570000e-06	-1.245920e-06	-3.465984e-10	-8.656850e+00	-2.539710e+01
1.580000e-06	-1.200203e-06	-3.406016e-10	-8.339202e+00	-2.493723e+01
1.590000e-06	-1.154306e-06	-3.326639e-10	-8.020304e+00	-2.446738e+01
1.600000e-06	-1.108316e-06	-3.258161e-10	-7.700761e+00	-2.398708e+01
1.610000e-06	-1.062335e-06	-3.184190e-10	-7.381272e+00	-2.349583e+01
1.620000e-06	-1.016333e-06	-3.094655e-10	-7.061647e+00	-2.299313e+01
1.630000e-06	-9.701516e-07	-2.996836e-10	-6.740769e+00	-2.247848e+01
1.640000e-06	-9.237956e-07	-2.873261e-10	-6.418680e+00	-2.195137e+01
1.650000e-06	-8.774567e-07	-2.762929e-10	-6.096710e+00	-2.141130e+01
1.660000e-06	-8.311625e-07	-2.660055e-10	-5.775051e+00	-2.085776e+01
1.670000e-06	-7.847907e-07	-2.588055e-10	-5.452852e+00	-2.029029e+01
1.680000e-06	-7.383786e-07	-2.529703e-10	-5.130373e+00	-1.970840e+01
1.690000e-06	-6.919300e-07	-2.470335e-10	-4.807641e+00	-1.911165e+01
1.700000e-06	-6.453391e-07	-2.406271e-10	-4.483920e+00	-1.849963e+01
1.710000e-06	-5.985924e-07	-2.295116e-10	-4.159116e+00	-1.787194e+01
1.720000e-06	-5.518637e-07	-2.160392e-10	-3.834437e+00	-1.722823e+01
1.730000e-06	-5.052522e-07	-2.019967e-10	-3.510573e+00	-1.656819e+01
1.740000e-06	-4.585802e-07	-1.901530e-10	-3.186289e+00	-1.589156e+01
1.750000e-06	-4.118106e-07	-1.819576e-10	-2.861326e+00	-1.519810e+01
1.760000e-06	-3.650442e-07	-1.744365e-10	-2.536385e+00	-1.448767e+01
1.770000e-06	-3.182151e-07	-1.673053e-10	-2.211010e+00	-1.376015e+01
1.780000e-06	-2.712984e-07	-1.601985e-10	-1.885025e+00	-1.301549e+01
1.790000e-06	-2.244251e-07	-1.477680e-10	-1.559342e+00	-1.225372e+01
1.800000e-06	-1.775745e-07	-1.314579e-10	-1.233816e+00	-1.147492e+01
1.810000e-06	-1.307136e-07	-1.158462e-10	-9.082193e-01	-1.067925e+01
1.820000e-06	-8.378721e-08	-1.040190e-10	-5.821670e-01	-9.866918e+00
1.830000e-06	-3.681056e-08	-9.423308e-11	-2.557656e-01	-9.038238e+00
1.840000e-06	1.005824e-08	-8.428721e-11	6.988625e-02	-8.193578e+00
1.850000e-06	5.685425e-08	-7.486304e-11	3.950325e-01	-7.333386e+00
1.860000e-06	1.037057e-07	-6.272653e-11	7.205642e-01	-6.458181e+00
1.870000e-06	1.506674e-07	-4.821857e-11	1.046862e+00	-5.568560e+00
1.880000e-06	1.976366e-07	-3.338695e-11	1.373211e+00	-4.665190e+00
1.890000e-06	2.445185e-07	-1.773202e-11	1.698954e+00	-3.748810e+00
1.900000e-06	2.913439e-07	-3.219778e-12	2.024304e+00	-2.820228e+00
1.910000e-06	3.381445e-07	1.025442e-11	2.349483e+00	-1.880317e+00
1.920000e-06	3.849203e-07	2.106301e-11	2.674488e+00	-9.300155e-01
1.930000e-06	4.316051e-07	3.134459e-11	2.998861e+00	2.968133e-02
1.940000e-06	4.783135e-07	4.127039e-11	3.323399e+00	9.977216e-01
1.950000e-06	5.250096e-07	5.268718e-11	3.647851e+00	1.973003e+00
1.960000e-06	5.715807e-07	6.641173e-11	3.971434e+00	2.954379e+00
1.970000e-06	6.180388e-07	8.183262e-11	4.294232e+00	3.940662e+00
1.980000e-06	6.643918e-07	9.782926e-11	4.616301e+00	4.930631e+00
1.990000e-06	7.107481e-07	1.123638e-10	4.938392e+00	5.923035e+00
2.000000e-06	7.570782e-07	1.258395e-10	5.260301e+00	6.916603e+00
2.010000e-06	8.033471e-07	1.381734e-10	5.581785e+00	7.910050e+00
2.020000e-06	8.495225e-07	1.501007e-10	5.902619e+00	8.902079e+00
2.030000e-06	8.956457e-07	1.621374e-10	6.223090e+00	9.891395e+00
2.040000e-06	9.417461e-07	1.731314e-10	6.543403e+00	1.087670e+01
2.050000e-06	9.878215e-07	1.855304e-10	6.863542e+00	1.185673e+01
2.060000e-06	1.033931e-06	1.995441e-10	7.183916e+00	1.283021e+01
2.070000e-06	1.079935e-06	2.157470e-10	7.503563e+00	1.379590e+01
2.080000e-06	1.125782e-06	2.326032e-10	7.822117e+00	1.475262e+01
2.090000e-06	1.171550e-06	2.467397e-10	8.140119e+00	1.569918e+01
2.100000e-06	1.217239e-06	2.586694e-10	8.457569e+00	1.663447e+01
2.110000e-06	1.262878e-06	2.683103e-10	8.774677e+00	1.755742e+01
2.120000e-06	1.308445e-06	2.787746e-10	9.091286e+00	1.846702e+01
2.130000e-06	1.353924e-06	2.908875e-10	9.407279e+00	1.936230e+01
2.140000e-06	1.399317e-06	3.029294e-10	9.722678e+00	2.024239e+01
2.150000e-06	1.444548e-06	3.130677e-10	1.003695e+01	2.110645e+01
2.160000e-06	1.489640e-06	3.241557e-10	1.035026e+01	2.195375e+01
2.170000e-06	1.534609e-06	3.360806e-10	1.066271e+01	2.278360e+01
2.180000e-06	1.579395e-06	3.464966e-10	1.097389e+01	2.359542e+01
2.190000e-06	1.624033e-06	3.576393e-10	1.128404e+01	2.438869e+01
2.200000e-06	1.668628e-06	3.698358e-10	1.159390e+01	2.516298e+01
2.210000e-06	1.713204e-06	3.820397e-10	1.190361e+01	2.591793e+01
2.220000e-06	1.757678e-06	3.947416e-10	1.221263e+01	2.665328e+01
2.230000e-06	1.802001e-06	4.055647e-10	1.252059e+01	2.736884e+01
2.240000e-06	1.846154e-06	4.138445e-10	1.282737e+01	2.806450e+01
2.250000e-06	1.890208e-06	4.198858e-10	1.313347e+01	2.874023e+01
2.260000e-06	1.934181e-06	4.258690e-10	1.343900e+01	2.939609e+01
2.270000e-06	1.978036e-06	4.334558e-10	1.374371e+01	3.003219e+01
2.280000e-06	2.021798e-06	4.429648e-10	1.404777e+01	3.064874e+01
2.290000e-06	2.065519e-06	4.534422e-10	1.435156e+01	3.124598e+01
2.300000e-06	2.109222e-06	4.645163e-10	1.465522e+01	3.182424e+01
2.310000e-06	2.152878e-06	4.736903e-10	1.495854e+01	3.238391e+01
2.320000e-06	2.196447e-06	4.799892e-10	1.526127e+01	3.292541e+01
2.330000e-06	2.239877e-06	4.851626e-10	1.556303e+01	3.344925e+01
2.340000e-06	2.283138e-06	4.894263e-10	1.586361e+01	3.395593e+01
2.350000e-06	2.326251e-06	4.933745e-10	1.616316e+01	3.444604e+01
2.360000e-06	2.369216e-06	4.990974e-10	1.646169e+01	3.492016e+01
2.370000e-06	2.411864e-06	5.062835e-10	1.675802e+01	3.537892e+01
2.380000e-06	2.454067e-06	5.143925e-10	1.705125e+01	3.582297e+01
2.390000e-06	2.496009e-06	5.233310e-10	1.734267e+01	3.625296e+01
2.400000e-06	2.537744e-06	5.308577e-10	1.763265e+01	3.666956e+01
2.410000e-06	2.579080e-06	5.377612e-10	1.791986e+01	3.707344e+01
2.420000e-06	2.620005e-06	5.429292e-10	1.820422e+01	3.746526e+01
2.430000e-06	2.660703e-06	5.462902e-10	1.848699e+01	3.784570e+01
2.440000e-06	2.701222e-06	5.514540e-10	1.876853e+01	3.821539e+01
2.450000e-06	2.741516e-06	5.577854e-10	1.904849e+01	3.857497e+01
2.460000e-06	2.781582e-06	5.633763e-10	1.932688e+01	3.892504e+01
2.470000e-06	2.821426e-06	5.692047e-10	1.960372e+01	3.926618e+01
2.480000e-06	2.861193e-06	5.734005e-10	1.988003e+01	3.959894e+01
2.490000e-06	2.900909e-06	5.765163e-10	2.015598e+01	3.992383e+01
2.500000e-06	2.940472e-06	5.816188e-10	2.043087e+01	4.024135e+01
2.510000e-06	2.979920e-06	5.877380e-10	2.070496e+01	4.055193e+01
2.520000e-06	3.019209e-06	5.928964e-10	2.097795e+01	4.085597e+01
2.530000e-06	3.058221e-06	5.976374e-10	2.124901e+01	4.115383e+01
2.540000e-06	3.096995e-06	6.001275e-10	2.151842e+01	4.144583e+01
2.550000e-06	3.135543e-06	6.015990e-10	2.178626e+01	4.173224e+01
2.560000e-06	3.173829e-06	6.054191e-10	2.205227e+01	4.201329e+01
2.570000e-06	3.211874e-06	6.102489e-10	2.231662e+01	4.228916e+01
2.580000e-06	3.249810e-06	6.148958e-10	2.258020e+01	4.256000e+01
2.590000e-06	3.287601e-06	6.186430e-10	2.284278e+01	4.282592e+01
2.600000e-06	3.325114e-06	6.220287e-10	2.310343e+01	4.308697e+01
2.610000e-06	3.362419e-06	6.261292e-10	2.336263e+01	4.334318e+01
2.620000e-06	3.399494e-06	6.292287e-10	2.362023e+01	4.359454e+01
2.630000e-06	3.436278e-06	6.299885e-10	2.387581e+01	4.384101e+01
2.640000e-06	3.472747e-06	6.289247e-10	2.412921e+01	4.408252e+01
2.650000e-06	3.508933e-06	6.293723e-10	2.438063e+01	4.431898e+01
2.660000e-06	3.544918e-06	6.314119e-10	2.463066e+01	4.455026e+01
2.670000e-06	3.580744e-06	6.328803e-10	2.487959e+01	4.477623e+01
2.680000e-06	3.616431e-06	6.351560e-10	2.512754e+01	4.499674e+01
2.690000e-06	3.651983e-06	6.397349e-10	2.537456e+01	4.521162e+01
2.700000e-06	3.687407e-06	6.462344e-10	2.562069e+01	4.542070e+01
2.710000e-06	3.722667e-06	6.519277e-10	2.586569e+01	4.562381e+01
2.720000e-06	3.757722e-06	6.570998e-10	2.610926e+01	4.582077e+01
2.730000e-06	3.792463e-06	6.604989e-10	2.635064e+01	4.601141e+01
2.740000e-06	3.826659e-06	6.606435e-10	2.658824e+01	4.619557e+01
2.750000e-06	3.860360e-06	6.593375e-10	2.682240e+01	4.637309e+01
2.760000e-06	3.893639e-06	6.587661e-10	2.705363e+01	4.654384e+01
2.770000e-06	3.926399e-06	6.605196e-10	2.728125e+01	4.670769e+01
2.780000e-06	3.958763e-06	6.658465e-10	2.750612e+01	4.686453e+01
2.790000e-06	3.990838e-06	6.747763e-10	2.772899e+01	4.701429e+01
2.800000e-06	4.022666e-06	6.846640e-10	2.795013e+01	4.715690e+01
2.810000e-06	4.054373e-06	6.904373e-10	2.817043e+01	4.729234e+01
2.820000e-06	4.085929e-06	6.910410e-10	2.838969e+01	4.742059e+01
2.830000e-06	4.117263e-06	6.867657e-10	2.860741e+01	4.754169e+01
2.840000e-06	4.148395e-06	6.808685e-10	2.882372e+01	4.765567e+01
2.850000e-06	4.179242e-06	6.814364e-10	2.903804e+01	4.776263e+01
2.860000e-06	4.209753e-06	6.872078e-10	2.925004e+01	4.786267e+01
2.870000e-06	4.239931e-06	6.928866e-10	2.945972e+01	4.795592e+01
2.880000e-06	4.269795e-06	6.982237e-10	2.966722e+01	4.804256e+01
2.890000e-06	4.299445e-06	7.017802e-10	2.987323e+01	4.812277e+01
2.900000e-06	4.328840e-06	7.036393e-10	3.007748e+01	4.819678e+01
2.910000e-06	4.357943e-06	7.035735e-10	3.027968e+01	4.826483e+01
