# Temperatura_=_-0.2
# Concentracion g/m^3_=_1620.0
# C_Vs_to_Am_M_A/Vsm_=_65563218390.804596
# pendiente_HvsI_1/m_=_3716.3
# ordenada_HvsI_A/m_=_1297.0
# frecuencia_Hz_=_135106.73349285236

Tiempo_(s)	Campo_(V.s)	Magnetizacion_(V.s)	Campo_(kA/m)	Magnetizacion_(A/m)
0.000000e+00	-5.529506e-06	-9.258919e-10	-3.836858e+01	-6.016953e+01
1.000000e-08	-5.529743e-06	-9.251180e-10	-3.837022e+01	-6.017631e+01
2.000000e-08	-5.529762e-06	-9.220808e-10	-3.837035e+01	-6.018216e+01
3.000000e-08	-5.529414e-06	-9.193103e-10	-3.836794e+01	-6.018691e+01
4.000000e-08	-5.528632e-06	-9.151650e-10	-3.836251e+01	-6.019037e+01
5.000000e-08	-5.527373e-06	-9.108000e-10	-3.835378e+01	-6.019235e+01
6.000000e-08	-5.525477e-06	-9.032572e-10	-3.834062e+01	-6.019267e+01
7.000000e-08	-5.523003e-06	-8.920414e-10	-3.832345e+01	-6.019114e+01
8.000000e-08	-5.519979e-06	-8.980816e-10	-3.830247e+01	-6.018758e+01
9.000000e-08	-5.516355e-06	-9.179461e-10	-3.827732e+01	-6.018179e+01
1.000000e-07	-5.512291e-06	-9.443687e-10	-3.824912e+01	-6.017362e+01
1.100000e-07	-5.507940e-06	-9.771364e-10	-3.821893e+01	-6.016289e+01
1.200000e-07	-5.503372e-06	-9.144552e-10	-3.818724e+01	-6.014944e+01
1.300000e-07	-5.498595e-06	-8.422756e-10	-3.815409e+01	-6.013314e+01
1.400000e-07	-5.493495e-06	-8.712138e-10	-3.811870e+01	-6.011384e+01
1.500000e-07	-5.487985e-06	-9.083685e-10	-3.808047e+01	-6.009143e+01
1.600000e-07	-5.482046e-06	-9.130945e-10	-3.803926e+01	-6.006580e+01
1.700000e-07	-5.475700e-06	-8.418173e-10	-3.799522e+01	-6.003687e+01
1.800000e-07	-5.468989e-06	-9.217302e-10	-3.794866e+01	-6.000457e+01
1.900000e-07	-5.461837e-06	-9.756188e-10	-3.789903e+01	-5.996883e+01
2.000000e-07	-5.454339e-06	-9.379353e-10	-3.784700e+01	-5.992963e+01
2.100000e-07	-5.446661e-06	-8.400796e-10	-3.779372e+01	-5.988693e+01
2.200000e-07	-5.438772e-06	-8.701750e-10	-3.773899e+01	-5.984075e+01
2.300000e-07	-5.430581e-06	-9.426663e-10	-3.768215e+01	-5.979109e+01
2.400000e-07	-5.421973e-06	-9.519701e-10	-3.762242e+01	-5.973797e+01
2.500000e-07	-5.412860e-06	-9.150643e-10	-3.755919e+01	-5.968146e+01
2.600000e-07	-5.403090e-06	-9.061670e-10	-3.749139e+01	-5.962159e+01
2.700000e-07	-5.392513e-06	-9.292937e-10	-3.741800e+01	-5.955846e+01
2.800000e-07	-5.381353e-06	-9.044035e-10	-3.734056e+01	-5.949213e+01
2.900000e-07	-5.369809e-06	-8.955615e-10	-3.726045e+01	-5.942271e+01
3.000000e-07	-5.357888e-06	-9.009920e-10	-3.717774e+01	-5.935030e+01
3.100000e-07	-5.345664e-06	-9.272719e-10	-3.709292e+01	-5.927500e+01
3.200000e-07	-5.333105e-06	-8.998927e-10	-3.700577e+01	-5.919694e+01
3.300000e-07	-5.320090e-06	-8.944587e-10	-3.691546e+01	-5.911624e+01
3.400000e-07	-5.306598e-06	-8.771814e-10	-3.682184e+01	-5.903302e+01
3.500000e-07	-5.292775e-06	-8.969576e-10	-3.672593e+01	-5.894740e+01
3.600000e-07	-5.278674e-06	-8.742823e-10	-3.662808e+01	-5.885951e+01
3.700000e-07	-5.264091e-06	-8.628719e-10	-3.652689e+01	-5.876947e+01
3.800000e-07	-5.248894e-06	-8.746097e-10	-3.642144e+01	-5.867739e+01
3.900000e-07	-5.233245e-06	-9.247681e-10	-3.631285e+01	-5.858338e+01
4.000000e-07	-5.217082e-06	-8.875512e-10	-3.620070e+01	-5.848755e+01
4.100000e-07	-5.200404e-06	-8.597718e-10	-3.608498e+01	-5.839000e+01
4.200000e-07	-5.183477e-06	-8.928821e-10	-3.596752e+01	-5.829081e+01
4.300000e-07	-5.166320e-06	-8.991052e-10	-3.584847e+01	-5.819005e+01
4.400000e-07	-5.148760e-06	-8.288471e-10	-3.572662e+01	-5.808779e+01
4.500000e-07	-5.130817e-06	-8.610614e-10	-3.560212e+01	-5.798409e+01
4.600000e-07	-5.112496e-06	-9.224630e-10	-3.547499e+01	-5.787899e+01
4.700000e-07	-5.093616e-06	-8.608071e-10	-3.534399e+01	-5.777251e+01
4.800000e-07	-5.074301e-06	-8.214302e-10	-3.520996e+01	-5.766468e+01
4.900000e-07	-5.054786e-06	-9.023806e-10	-3.507455e+01	-5.755551e+01
5.000000e-07	-5.035083e-06	-8.951395e-10	-3.493783e+01	-5.744499e+01
5.100000e-07	-5.015162e-06	-8.137255e-10	-3.479961e+01	-5.733310e+01
5.200000e-07	-4.994960e-06	-8.553065e-10	-3.465942e+01	-5.721983e+01
5.300000e-07	-4.974441e-06	-8.835664e-10	-3.451705e+01	-5.710513e+01
5.400000e-07	-4.953490e-06	-8.169292e-10	-3.437167e+01	-5.698897e+01
5.500000e-07	-4.932124e-06	-8.359689e-10	-3.422341e+01	-5.687130e+01
5.600000e-07	-4.910482e-06	-8.996264e-10	-3.407325e+01	-5.675206e+01
5.700000e-07	-4.888540e-06	-8.268147e-10	-3.392099e+01	-5.663119e+01
5.800000e-07	-4.866243e-06	-7.973794e-10	-3.376627e+01	-5.650864e+01
5.900000e-07	-4.843585e-06	-8.681402e-10	-3.360905e+01	-5.638435e+01
6.000000e-07	-4.820613e-06	-8.561793e-10	-3.344966e+01	-5.625825e+01
6.100000e-07	-4.797299e-06	-7.966976e-10	-3.328788e+01	-5.613028e+01
6.200000e-07	-4.773705e-06	-8.471604e-10	-3.312416e+01	-5.600039e+01
6.300000e-07	-4.749925e-06	-8.525299e-10	-3.295916e+01	-5.586852e+01
6.400000e-07	-4.725912e-06	-7.966087e-10	-3.279254e+01	-5.573463e+01
6.500000e-07	-4.701591e-06	-8.118983e-10	-3.262377e+01	-5.559868e+01
6.600000e-07	-4.676820e-06	-8.508371e-10	-3.245189e+01	-5.546064e+01
6.700000e-07	-4.651474e-06	-8.095638e-10	-3.227602e+01	-5.532048e+01
6.800000e-07	-4.625521e-06	-8.085694e-10	-3.209593e+01	-5.517821e+01
6.900000e-07	-4.599016e-06	-8.381000e-10	-3.191202e+01	-5.503381e+01
7.000000e-07	-4.572017e-06	-8.209056e-10	-3.172468e+01	-5.488731e+01
7.100000e-07	-4.544609e-06	-8.003914e-10	-3.153449e+01	-5.473871e+01
7.200000e-07	-4.517031e-06	-8.247879e-10	-3.134314e+01	-5.458806e+01
7.300000e-07	-4.489362e-06	-8.161510e-10	-3.115114e+01	-5.443541e+01
7.400000e-07	-4.461536e-06	-8.002826e-10	-3.095806e+01	-5.428080e+01
7.500000e-07	-4.433461e-06	-8.180313e-10	-3.076325e+01	-5.412432e+01
7.600000e-07	-4.405096e-06	-8.217437e-10	-3.056643e+01	-5.396603e+01
7.700000e-07	-4.376449e-06	-7.979960e-10	-3.036766e+01	-5.380603e+01
7.800000e-07	-4.347484e-06	-8.002082e-10	-3.016667e+01	-5.364441e+01
7.900000e-07	-4.318171e-06	-8.062211e-10	-2.996327e+01	-5.348128e+01
8.000000e-07	-4.288454e-06	-7.937896e-10	-2.975707e+01	-5.331675e+01
8.100000e-07	-4.258477e-06	-7.989771e-10	-2.954906e+01	-5.315092e+01
8.200000e-07	-4.228389e-06	-8.108273e-10	-2.934029e+01	-5.298391e+01
8.300000e-07	-4.197980e-06	-8.021717e-10	-2.912928e+01	-5.281583e+01
8.400000e-07	-4.167123e-06	-7.938641e-10	-2.891516e+01	-5.264681e+01
8.500000e-07	-4.135963e-06	-8.024075e-10	-2.869895e+01	-5.247695e+01
8.600000e-07	-4.104603e-06	-7.916923e-10	-2.848135e+01	-5.230636e+01
8.700000e-07	-4.073042e-06	-7.798268e-10	-2.826235e+01	-5.213513e+01
8.800000e-07	-4.041321e-06	-7.852874e-10	-2.804224e+01	-5.196335e+01
8.900000e-07	-4.009410e-06	-7.899843e-10	-2.782081e+01	-5.179110e+01
9.000000e-07	-3.977273e-06	-7.781526e-10	-2.759782e+01	-5.161845e+01
9.100000e-07	-3.944879e-06	-7.806967e-10	-2.737304e+01	-5.144545e+01
9.200000e-07	-3.912180e-06	-7.772958e-10	-2.714615e+01	-5.127213e+01
9.300000e-07	-3.879080e-06	-7.624990e-10	-2.691647e+01	-5.109850e+01
9.400000e-07	-3.845500e-06	-7.569258e-10	-2.668346e+01	-5.092457e+01
9.500000e-07	-3.811555e-06	-7.670894e-10	-2.644792e+01	-5.075032e+01
9.600000e-07	-3.777139e-06	-7.596873e-10	-2.620911e+01	-5.057570e+01
9.700000e-07	-3.742204e-06	-7.536084e-10	-2.596670e+01	-5.040065e+01
9.800000e-07	-3.706936e-06	-7.577900e-10	-2.572198e+01	-5.022508e+01
9.900000e-07	-3.671441e-06	-7.566266e-10	-2.547568e+01	-5.004889e+01
1.000000e-06	-3.635787e-06	-7.452244e-10	-2.522829e+01	-4.987194e+01
1.010000e-06	-3.600068e-06	-7.447725e-10	-2.498044e+01	-4.969410e+01
1.020000e-06	-3.564278e-06	-7.424823e-10	-2.473210e+01	-4.951518e+01
1.030000e-06	-3.528290e-06	-7.334488e-10	-2.448238e+01	-4.933499e+01
1.040000e-06	-3.491979e-06	-7.296335e-10	-2.423042e+01	-4.915334e+01
1.050000e-06	-3.455387e-06	-7.312708e-10	-2.397651e+01	-4.896998e+01
1.060000e-06	-3.418564e-06	-7.221771e-10	-2.372100e+01	-4.878469e+01
1.070000e-06	-3.381423e-06	-7.134304e-10	-2.346329e+01	-4.859719e+01
1.080000e-06	-3.344008e-06	-7.150204e-10	-2.320367e+01	-4.840723e+01
1.090000e-06	-3.306379e-06	-7.143252e-10	-2.294256e+01	-4.821451e+01
1.100000e-06	-3.268591e-06	-7.112190e-10	-2.268036e+01	-4.801877e+01
1.110000e-06	-3.230613e-06	-7.104182e-10	-2.241684e+01	-4.781969e+01
1.120000e-06	-3.192344e-06	-7.060823e-10	-2.215129e+01	-4.761699e+01
1.130000e-06	-3.153859e-06	-6.943801e-10	-2.188425e+01	-4.741037e+01
1.140000e-06	-3.115148e-06	-6.891460e-10	-2.161563e+01	-4.719954e+01
1.150000e-06	-3.076176e-06	-6.856359e-10	-2.134521e+01	-4.698420e+01
1.160000e-06	-3.037007e-06	-6.806196e-10	-2.107343e+01	-4.676406e+01
1.170000e-06	-2.997680e-06	-6.778919e-10	-2.080054e+01	-4.653887e+01
1.180000e-06	-2.958223e-06	-6.800067e-10	-2.052675e+01	-4.630834e+01
1.190000e-06	-2.918595e-06	-6.778185e-10	-2.025178e+01	-4.607223e+01
1.200000e-06	-2.878840e-06	-6.750506e-10	-1.997592e+01	-4.583030e+01
1.210000e-06	-2.839033e-06	-6.706940e-10	-1.969971e+01	-4.558234e+01
1.220000e-06	-2.799074e-06	-6.638970e-10	-1.942244e+01	-4.532813e+01
1.230000e-06	-2.758905e-06	-6.556065e-10	-1.914371e+01	-4.506751e+01
1.240000e-06	-2.718518e-06	-6.542808e-10	-1.886347e+01	-4.480030e+01
1.250000e-06	-2.677935e-06	-6.512124e-10	-1.858187e+01	-4.452636e+01
1.260000e-06	-2.637165e-06	-6.479562e-10	-1.829897e+01	-4.424558e+01
1.270000e-06	-2.596121e-06	-6.451952e-10	-1.801417e+01	-4.395786e+01
1.280000e-06	-2.554816e-06	-6.443908e-10	-1.772756e+01	-4.366311e+01
1.290000e-06	-2.513353e-06	-6.407174e-10	-1.743986e+01	-4.336128e+01
1.300000e-06	-2.471674e-06	-6.362317e-10	-1.715065e+01	-4.305234e+01
1.310000e-06	-2.429596e-06	-6.321198e-10	-1.685868e+01	-4.273625e+01
1.320000e-06	-2.387054e-06	-6.278228e-10	-1.656348e+01	-4.241302e+01
1.330000e-06	-2.344302e-06	-6.217738e-10	-1.626683e+01	-4.208266e+01
1.340000e-06	-2.301446e-06	-6.178078e-10	-1.596946e+01	-4.174519e+01
1.350000e-06	-2.258292e-06	-6.137689e-10	-1.567002e+01	-4.140064e+01
1.360000e-06	-2.214849e-06	-6.072760e-10	-1.536857e+01	-4.104905e+01
1.370000e-06	-2.171251e-06	-6.007138e-10	-1.506605e+01	-4.069047e+01
1.380000e-06	-2.127532e-06	-5.962660e-10	-1.476269e+01	-4.032494e+01
1.390000e-06	-2.083722e-06	-5.926214e-10	-1.445870e+01	-3.995251e+01
1.400000e-06	-2.039890e-06	-5.882314e-10	-1.415455e+01	-3.957322e+01
1.410000e-06	-1.996018e-06	-5.847439e-10	-1.385013e+01	-3.918710e+01
1.420000e-06	-1.952001e-06	-5.790660e-10	-1.354470e+01	-3.879418e+01
1.430000e-06	-1.907883e-06	-5.725271e-10	-1.323857e+01	-3.839447e+01
1.440000e-06	-1.863809e-06	-5.644671e-10	-1.293275e+01	-3.798794e+01
1.450000e-06	-1.819629e-06	-5.566494e-10	-1.262619e+01	-3.757458e+01
1.460000e-06	-1.775226e-06	-5.484729e-10	-1.231808e+01	-3.715434e+01
1.470000e-06	-1.730713e-06	-5.415084e-10	-1.200921e+01	-3.672713e+01
1.480000e-06	-1.686142e-06	-5.346946e-10	-1.169993e+01	-3.629285e+01
1.490000e-06	-1.641437e-06	-5.294302e-10	-1.138974e+01	-3.585136e+01
1.500000e-06	-1.596464e-06	-5.237139e-10	-1.107767e+01	-3.540250e+01
1.510000e-06	-1.551326e-06	-5.177663e-10	-1.076446e+01	-3.494606e+01
1.520000e-06	-1.506136e-06	-5.086273e-10	-1.045089e+01	-3.448182e+01
1.530000e-06	-1.460850e-06	-4.970889e-10	-1.013666e+01	-3.400949e+01
1.540000e-06	-1.415504e-06	-4.837165e-10	-9.822010e+00	-3.352878e+01
1.550000e-06	-1.370070e-06	-4.732699e-10	-9.506748e+00	-3.303935e+01
1.560000e-06	-1.324492e-06	-4.643627e-10	-9.190493e+00	-3.254081e+01
1.570000e-06	-1.278790e-06	-4.563783e-10	-8.873368e+00	-3.203278e+01
1.580000e-06	-1.233045e-06	-4.481685e-10	-8.555949e+00	-3.151481e+01
1.590000e-06	-1.187229e-06	-4.389778e-10	-8.238038e+00	-3.098643e+01
1.600000e-06	-1.141269e-06	-4.275004e-10	-7.919126e+00	-3.044716e+01
1.610000e-06	-1.095235e-06	-4.193352e-10	-7.599700e+00	-2.989647e+01
1.620000e-06	-1.049182e-06	-4.111173e-10	-7.280146e+00	-2.933384e+01
1.630000e-06	-1.003005e-06	-4.017835e-10	-6.959734e+00	-2.875871e+01
1.640000e-06	-9.567307e-07	-3.928733e-10	-6.638639e+00	-2.817053e+01
1.650000e-06	-9.104513e-07	-3.818068e-10	-6.317512e+00	-2.756872e+01
1.660000e-06	-8.641345e-07	-3.698253e-10	-5.996125e+00	-2.695272e+01
1.670000e-06	-8.178385e-07	-3.597546e-10	-5.674883e+00	-2.632195e+01
1.680000e-06	-7.714287e-07	-3.538892e-10	-5.352851e+00	-2.567586e+01
1.690000e-06	-7.248580e-07	-3.464388e-10	-5.029702e+00	-2.501392e+01
1.700000e-06	-6.783213e-07	-3.392331e-10	-4.706789e+00	-2.433559e+01
1.710000e-06	-6.317099e-07	-3.306073e-10	-4.383359e+00	-2.364038e+01
1.720000e-06	-5.850234e-07	-3.197346e-10	-4.059407e+00	-2.292782e+01
1.730000e-06	-5.383564e-07	-3.059898e-10	-3.735590e+00	-2.219750e+01
1.740000e-06	-4.916929e-07	-2.914104e-10	-3.411798e+00	-2.144902e+01
1.750000e-06	-4.449108e-07	-2.779439e-10	-3.087182e+00	-2.068205e+01
1.760000e-06	-3.980245e-07	-2.660837e-10	-2.761844e+00	-1.989632e+01
1.770000e-06	-3.511442e-07	-2.539483e-10	-2.436547e+00	-1.909160e+01
1.780000e-06	-3.042412e-07	-2.438015e-10	-2.111093e+00	-1.826773e+01
1.790000e-06	-2.572931e-07	-2.334754e-10	-1.785326e+00	-1.742463e+01
1.800000e-06	-2.102820e-07	-2.208632e-10	-1.459121e+00	-1.656229e+01
1.810000e-06	-1.633495e-07	-2.041205e-10	-1.133462e+00	-1.568076e+01
1.820000e-06	-1.165196e-07	-1.866194e-10	-8.085156e-01	-1.478018e+01
1.830000e-06	-6.960113e-08	-1.716895e-10	-4.829538e-01	-1.386077e+01
1.840000e-06	-2.265978e-08	-1.593743e-10	-1.572335e-01	-1.292283e+01
1.850000e-06	2.423067e-08	-1.477305e-10	1.681337e-01	-1.196675e+01
1.860000e-06	7.116562e-08	-1.357314e-10	4.938097e-01	-1.099301e+01
1.870000e-06	1.181700e-07	-1.216165e-10	8.199675e-01	-1.000215e+01
1.880000e-06	1.651759e-07	-1.080761e-10	1.146136e+00	-8.994809e+00
1.890000e-06	2.121313e-07	-9.616853e-11	1.471954e+00	-7.971718e+00
1.900000e-06	2.590825e-07	-8.368301e-11	1.797743e+00	-6.933673e+00
1.910000e-06	3.060030e-07	-7.038325e-11	2.123318e+00	-5.881553e+00
1.920000e-06	3.528529e-07	-5.604563e-11	2.448404e+00	-4.816310e+00
1.930000e-06	3.996440e-07	-4.129434e-11	2.773082e+00	-3.738967e+00
1.940000e-06	4.464594e-07	-2.614853e-11	3.097928e+00	-2.650612e+00
1.950000e-06	4.932547e-07	-1.415611e-11	3.422635e+00	-1.552393e+00
1.960000e-06	5.399317e-07	-2.490355e-12	3.746521e+00	-4.455138e-01
1.970000e-06	5.865311e-07	1.186908e-11	4.069869e+00	6.687728e-01
1.980000e-06	6.330941e-07	2.857549e-11	4.392964e+00	1.789172e+00
1.990000e-06	6.795775e-07	4.631174e-11	4.715506e+00	2.914355e+00
2.000000e-06	7.260086e-07	6.482341e-11	5.037686e+00	4.042960e+00
2.010000e-06	7.724071e-07	8.049603e-11	5.359640e+00	5.173610e+00
2.020000e-06	8.187075e-07	9.386820e-11	5.680913e+00	6.304911e+00
2.030000e-06	8.649756e-07	1.062289e-10	6.001961e+00	7.435462e+00
2.040000e-06	9.111920e-07	1.209098e-10	6.322652e+00	8.563868e+00
2.050000e-06	9.573473e-07	1.379257e-10	6.642918e+00	9.688739e+00
2.060000e-06	1.003479e-06	1.561070e-10	6.963018e+00	1.080871e+01
2.070000e-06	1.049539e-06	1.743144e-10	7.282625e+00	1.192242e+01
2.080000e-06	1.095533e-06	1.916113e-10	7.601770e+00	1.302857e+01
2.090000e-06	1.141423e-06	2.068922e-10	7.920199e+00	1.412588e+01
2.100000e-06	1.187100e-06	2.210580e-10	8.237143e+00	1.521313e+01
2.110000e-06	1.232688e-06	2.340825e-10	8.553471e+00	1.628912e+01
2.120000e-06	1.278280e-06	2.472357e-10	8.869828e+00	1.735275e+01
2.130000e-06	1.323818e-06	2.624628e-10	9.185813e+00	1.840296e+01
2.140000e-06	1.369297e-06	2.781616e-10	9.501386e+00	1.943876e+01
2.150000e-06	1.414653e-06	2.920382e-10	9.816109e+00	2.045923e+01
2.160000e-06	1.459839e-06	3.053526e-10	1.012965e+01	2.146354e+01
2.170000e-06	1.504880e-06	3.194724e-10	1.044218e+01	2.245093e+01
2.180000e-06	1.549890e-06	3.328034e-10	1.075450e+01	2.342071e+01
2.190000e-06	1.594840e-06	3.451504e-10	1.106640e+01	2.437230e+01
2.200000e-06	1.639661e-06	3.579655e-10	1.137741e+01	2.530518e+01
2.210000e-06	1.684379e-06	3.712497e-10	1.168770e+01	2.621893e+01
2.220000e-06	1.728948e-06	3.842780e-10	1.199696e+01	2.711321e+01
2.230000e-06	1.773392e-06	3.975557e-10	1.230536e+01	2.798776e+01
2.240000e-06	1.817761e-06	4.095072e-10	1.261323e+01	2.884241e+01
2.250000e-06	1.862002e-06	4.201793e-10	1.292020e+01	2.967707e+01
2.260000e-06	1.906080e-06	4.306064e-10	1.322606e+01	3.049173e+01
2.270000e-06	1.950048e-06	4.428894e-10	1.353115e+01	3.128644e+01
2.280000e-06	1.993950e-06	4.553399e-10	1.383578e+01	3.206135e+01
2.290000e-06	2.037819e-06	4.657779e-10	1.414018e+01	3.281663e+01
2.300000e-06	2.081637e-06	4.746783e-10	1.444423e+01	3.355257e+01
2.310000e-06	2.125347e-06	4.840752e-10	1.474752e+01	3.426947e+01
2.320000e-06	2.168921e-06	4.923596e-10	1.504988e+01	3.496771e+01
2.330000e-06	2.212396e-06	5.008225e-10	1.535155e+01	3.564771e+01
2.340000e-06	2.255763e-06	5.112275e-10	1.565246e+01	3.630992e+01
2.350000e-06	2.298930e-06	5.225695e-10	1.595200e+01	3.695483e+01
2.360000e-06	2.341846e-06	5.332092e-10	1.624979e+01	3.758297e+01
2.370000e-06	2.384520e-06	5.431964e-10	1.654590e+01	3.819489e+01
2.380000e-06	2.427017e-06	5.518997e-10	1.684078e+01	3.879114e+01
2.390000e-06	2.469354e-06	5.593761e-10	1.713455e+01	3.937230e+01
2.400000e-06	2.511350e-06	5.670347e-10	1.742596e+01	3.993896e+01
2.410000e-06	2.552935e-06	5.749524e-10	1.771451e+01	4.049168e+01
2.420000e-06	2.594282e-06	5.840145e-10	1.800141e+01	4.103104e+01
2.430000e-06	2.635383e-06	5.943722e-10	1.828661e+01	4.155761e+01
2.440000e-06	2.676169e-06	6.037259e-10	1.856961e+01	4.207194e+01
2.450000e-06	2.716691e-06	6.122951e-10	1.885079e+01	4.257456e+01
2.460000e-06	2.757019e-06	6.202463e-10	1.913062e+01	4.306597e+01
2.470000e-06	2.797130e-06	6.268396e-10	1.940895e+01	4.354665e+01
2.480000e-06	2.837061e-06	6.333418e-10	1.968603e+01	4.401706e+01
2.490000e-06	2.876868e-06	6.397043e-10	1.996224e+01	4.447762e+01
2.500000e-06	2.916564e-06	6.463059e-10	2.023768e+01	4.492871e+01
2.510000e-06	2.956150e-06	6.536142e-10	2.051237e+01	4.537068e+01
2.520000e-06	2.995579e-06	6.605406e-10	2.078596e+01	4.580385e+01
2.530000e-06	3.034850e-06	6.676347e-10	2.105846e+01	4.622849e+01
2.540000e-06	3.073955e-06	6.739974e-10	2.132981e+01	4.664484e+01
2.550000e-06	3.112764e-06	6.781886e-10	2.159910e+01	4.705312e+01
2.560000e-06	3.151297e-06	6.834309e-10	2.186647e+01	4.745347e+01
2.570000e-06	3.189642e-06	6.893485e-10	2.213254e+01	4.784604e+01
2.580000e-06	3.227704e-06	6.938346e-10	2.239665e+01	4.823093e+01
2.590000e-06	3.265484e-06	6.972654e-10	2.265880e+01	4.860821e+01
2.600000e-06	3.303035e-06	7.012851e-10	2.291936e+01	4.897791e+01
2.610000e-06	3.340393e-06	7.059050e-10	2.317858e+01	4.934005e+01
2.620000e-06	3.377587e-06	7.115385e-10	2.343667e+01	4.969463e+01
2.630000e-06	3.414595e-06	7.182266e-10	2.369346e+01	5.004161e+01
2.640000e-06	3.451377e-06	7.233192e-10	2.394869e+01	5.038095e+01
2.650000e-06	3.487898e-06	7.260341e-10	2.420210e+01	5.071259e+01
2.660000e-06	3.524156e-06	7.289453e-10	2.445369e+01	5.103646e+01
2.670000e-06	3.560177e-06	7.315870e-10	2.470364e+01	5.135249e+01
2.680000e-06	3.596055e-06	7.341880e-10	2.495259e+01	5.166060e+01
2.690000e-06	3.631811e-06	7.381946e-10	2.520070e+01	5.196071e+01
2.700000e-06	3.667380e-06	7.445247e-10	2.544751e+01	5.225275e+01
2.710000e-06	3.702778e-06	7.515707e-10	2.569313e+01	5.253664e+01
2.720000e-06	3.737945e-06	7.574608e-10	2.593715e+01	5.281234e+01
2.730000e-06	3.772816e-06	7.635408e-10	2.617911e+01	5.307979e+01
2.740000e-06	3.807398e-06	7.674663e-10	2.641907e+01	5.333896e+01
2.750000e-06	3.841544e-06	7.692085e-10	2.665601e+01	5.358984e+01
2.760000e-06	3.875098e-06	7.712339e-10	2.688884e+01	5.383244e+01
2.770000e-06	3.908137e-06	7.735252e-10	2.711809e+01	5.406677e+01
2.780000e-06	3.940837e-06	7.766154e-10	2.734499e+01	5.429289e+01
2.790000e-06	3.973241e-06	7.807497e-10	2.756984e+01	5.451086e+01
2.800000e-06	4.005331e-06	7.862108e-10	2.779251e+01	5.472078e+01
2.810000e-06	4.037197e-06	7.914945e-10	2.801363e+01	5.492276e+01
2.820000e-06	4.068922e-06	7.952498e-10	2.823376e+01	5.511695e+01
2.830000e-06	4.100486e-06	7.977723e-10	2.845278e+01	5.530350e+01
2.840000e-06	4.131853e-06	7.982740e-10	2.867043e+01	5.548260e+01
2.850000e-06	4.162926e-06	7.983124e-10	2.888604e+01	5.565446e+01
2.860000e-06	4.193651e-06	8.003460e-10	2.909924e+01	5.581931e+01
2.870000e-06	4.224103e-06	8.040563e-10	2.931054e+01	5.597738e+01
2.880000e-06	4.254297e-06	8.087966e-10	2.952005e+01	5.612895e+01
2.890000e-06	4.284199e-06	8.153099e-10	2.972754e+01	5.627428e+01
2.900000e-06	4.313835e-06	8.208039e-10	2.993318e+01	5.641367e+01
