# Temperatura_=_-0.3
# Concentracion g/m^3_=_1620.0
# C_Vs_to_Am_M_A/Vsm_=_65563218390.804596
# pendiente_HvsI_1/m_=_3716.3
# ordenada_HvsI_A/m_=_1297.0
# frecuencia_Hz_=_135107.3176090996

Tiempo_(s)	Campo_(V.s)	Magnetizacion_(V.s)	Campo_(kA/m)	Magnetizacion_(A/m)
0.000000e+00	-5.507263e-06	-1.353742e-09	-3.835925e+01	-8.856269e+01
1.000000e-08	-5.507501e-06	-1.353466e-09	-3.836091e+01	-8.858524e+01
2.000000e-08	-5.507477e-06	-1.354384e-09	-3.836073e+01	-8.860633e+01
3.000000e-08	-5.507086e-06	-1.354036e-09	-3.835801e+01	-8.862573e+01
4.000000e-08	-5.506244e-06	-1.350861e-09	-3.835215e+01	-8.864321e+01
5.000000e-08	-5.504828e-06	-1.347833e-09	-3.834229e+01	-8.865852e+01
6.000000e-08	-5.502733e-06	-1.345304e-09	-3.832769e+01	-8.867139e+01
7.000000e-08	-5.500034e-06	-1.342888e-09	-3.830889e+01	-8.868156e+01
8.000000e-08	-5.496927e-06	-1.359945e-09	-3.828725e+01	-8.868877e+01
9.000000e-08	-5.493443e-06	-1.363861e-09	-3.826299e+01	-8.869275e+01
1.000000e-07	-5.489508e-06	-1.318188e-09	-3.823558e+01	-8.869323e+01
1.100000e-07	-5.485257e-06	-1.302349e-09	-3.820597e+01	-8.868994e+01
1.200000e-07	-5.480752e-06	-1.352671e-09	-3.817459e+01	-8.868264e+01
1.300000e-07	-5.475862e-06	-1.363961e-09	-3.814053e+01	-8.867107e+01
1.400000e-07	-5.470620e-06	-1.333131e-09	-3.810402e+01	-8.865500e+01
1.500000e-07	-5.465134e-06	-1.284617e-09	-3.806581e+01	-8.863422e+01
1.600000e-07	-5.459349e-06	-1.345017e-09	-3.802551e+01	-8.860852e+01
1.700000e-07	-5.453094e-06	-1.358536e-09	-3.798195e+01	-8.857772e+01
1.800000e-07	-5.446358e-06	-1.332307e-09	-3.793503e+01	-8.854165e+01
1.900000e-07	-5.439223e-06	-1.301250e-09	-3.788533e+01	-8.850017e+01
2.000000e-07	-5.431805e-06	-1.343928e-09	-3.783367e+01	-8.845316e+01
2.100000e-07	-5.424149e-06	-1.376649e-09	-3.778034e+01	-8.840054e+01
2.200000e-07	-5.416203e-06	-1.375787e-09	-3.772500e+01	-8.834222e+01
2.300000e-07	-5.407937e-06	-1.363739e-09	-3.766742e+01	-8.827816e+01
2.400000e-07	-5.399278e-06	-1.372968e-09	-3.760710e+01	-8.820835e+01
2.500000e-07	-5.389942e-06	-1.397360e-09	-3.754208e+01	-8.813279e+01
2.600000e-07	-5.379902e-06	-1.373209e-09	-3.747215e+01	-8.805152e+01
2.700000e-07	-5.369333e-06	-1.363657e-09	-3.739854e+01	-8.796458e+01
2.800000e-07	-5.358230e-06	-1.366622e-09	-3.732120e+01	-8.787206e+01
2.900000e-07	-5.346691e-06	-1.395609e-09	-3.724083e+01	-8.777406e+01
3.000000e-07	-5.334857e-06	-1.365725e-09	-3.715840e+01	-8.767070e+01
3.100000e-07	-5.322653e-06	-1.358427e-09	-3.707340e+01	-8.756213e+01
3.200000e-07	-5.309983e-06	-1.359313e-09	-3.698515e+01	-8.744851e+01
3.300000e-07	-5.296930e-06	-1.380300e-09	-3.689423e+01	-8.733000e+01
3.400000e-07	-5.283522e-06	-1.343867e-09	-3.680084e+01	-8.720680e+01
3.500000e-07	-5.269701e-06	-1.336377e-09	-3.670458e+01	-8.707912e+01
3.600000e-07	-5.255395e-06	-1.351104e-09	-3.660493e+01	-8.694715e+01
3.700000e-07	-5.240548e-06	-1.366988e-09	-3.650152e+01	-8.681112e+01
3.800000e-07	-5.225185e-06	-1.329959e-09	-3.639452e+01	-8.667123e+01
3.900000e-07	-5.209410e-06	-1.339147e-09	-3.628464e+01	-8.652773e+01
4.000000e-07	-5.193285e-06	-1.355205e-09	-3.617233e+01	-8.638082e+01
4.100000e-07	-5.176744e-06	-1.323863e-09	-3.605711e+01	-8.623072e+01
4.200000e-07	-5.159716e-06	-1.297599e-09	-3.593851e+01	-8.607764e+01
4.300000e-07	-5.142460e-06	-1.339929e-09	-3.581832e+01	-8.592179e+01
4.400000e-07	-5.124980e-06	-1.340844e-09	-3.569656e+01	-8.576336e+01
4.500000e-07	-5.107067e-06	-1.289082e-09	-3.557179e+01	-8.560253e+01
4.600000e-07	-5.088696e-06	-1.307533e-09	-3.544384e+01	-8.543947e+01
4.700000e-07	-5.069899e-06	-1.343889e-09	-3.531291e+01	-8.527434e+01
4.800000e-07	-5.050788e-06	-1.307792e-09	-3.517980e+01	-8.510726e+01
4.900000e-07	-5.031434e-06	-1.292337e-09	-3.504500e+01	-8.493837e+01
5.000000e-07	-5.011858e-06	-1.330325e-09	-3.490864e+01	-8.476775e+01
5.100000e-07	-4.992029e-06	-1.296012e-09	-3.477054e+01	-8.459550e+01
5.200000e-07	-4.971902e-06	-1.262990e-09	-3.463035e+01	-8.442167e+01
5.300000e-07	-4.951446e-06	-1.300376e-09	-3.448786e+01	-8.424631e+01
5.400000e-07	-4.930596e-06	-1.308274e-09	-3.434264e+01	-8.406944e+01
5.500000e-07	-4.909310e-06	-1.259729e-09	-3.419438e+01	-8.389106e+01
5.600000e-07	-4.887693e-06	-1.284884e-09	-3.404381e+01	-8.371116e+01
5.700000e-07	-4.865844e-06	-1.305395e-09	-3.389163e+01	-8.352970e+01
5.800000e-07	-4.843646e-06	-1.267800e-09	-3.373702e+01	-8.334664e+01
5.900000e-07	-4.821031e-06	-1.257318e-09	-3.357950e+01	-8.316191e+01
6.000000e-07	-4.798049e-06	-1.285352e-09	-3.341942e+01	-8.297544e+01
6.100000e-07	-4.774776e-06	-1.254795e-09	-3.325732e+01	-8.278712e+01
6.200000e-07	-4.751303e-06	-1.240853e-09	-3.309382e+01	-8.259686e+01
6.300000e-07	-4.727643e-06	-1.261712e-09	-3.292903e+01	-8.240454e+01
6.400000e-07	-4.703713e-06	-1.255996e-09	-3.276235e+01	-8.221004e+01
6.500000e-07	-4.679447e-06	-1.238522e-09	-3.259334e+01	-8.201324e+01
6.600000e-07	-4.654831e-06	-1.258616e-09	-3.242187e+01	-8.181400e+01
6.700000e-07	-4.629712e-06	-1.251946e-09	-3.224692e+01	-8.161220e+01
6.800000e-07	-4.603974e-06	-1.233050e-09	-3.206765e+01	-8.140770e+01
6.900000e-07	-4.577669e-06	-1.238316e-09	-3.188443e+01	-8.120038e+01
7.000000e-07	-4.550931e-06	-1.238531e-09	-3.169819e+01	-8.099010e+01
7.100000e-07	-4.523818e-06	-1.217198e-09	-3.150934e+01	-8.077674e+01
7.200000e-07	-4.496425e-06	-1.220830e-09	-3.131855e+01	-8.056019e+01
7.300000e-07	-4.468857e-06	-1.226024e-09	-3.112653e+01	-8.034035e+01
7.400000e-07	-4.441088e-06	-1.212633e-09	-3.093311e+01	-8.011712e+01
7.500000e-07	-4.413101e-06	-1.214249e-09	-3.073818e+01	-7.989041e+01
7.600000e-07	-4.384848e-06	-1.220425e-09	-3.054139e+01	-7.966015e+01
7.700000e-07	-4.356256e-06	-1.207236e-09	-3.034224e+01	-7.942627e+01
7.800000e-07	-4.327329e-06	-1.200533e-09	-3.014076e+01	-7.918872e+01
7.900000e-07	-4.298141e-06	-1.206602e-09	-2.993746e+01	-7.894747e+01
8.000000e-07	-4.268698e-06	-1.192940e-09	-2.973238e+01	-7.870249e+01
8.100000e-07	-4.238958e-06	-1.182033e-09	-2.952524e+01	-7.845376e+01
8.200000e-07	-4.208913e-06	-1.187867e-09	-2.931597e+01	-7.820130e+01
8.300000e-07	-4.178502e-06	-1.188813e-09	-2.910415e+01	-7.794509e+01
8.400000e-07	-4.147784e-06	-1.176784e-09	-2.889019e+01	-7.768518e+01
8.500000e-07	-4.116880e-06	-1.180099e-09	-2.867493e+01	-7.742158e+01
8.600000e-07	-4.085753e-06	-1.178030e-09	-2.845813e+01	-7.715433e+01
8.700000e-07	-4.054405e-06	-1.163704e-09	-2.823978e+01	-7.688348e+01
8.800000e-07	-4.022911e-06	-1.152969e-09	-2.802042e+01	-7.660908e+01
8.900000e-07	-3.991222e-06	-1.154088e-09	-2.779970e+01	-7.633119e+01
9.000000e-07	-3.959245e-06	-1.142122e-09	-2.757698e+01	-7.604985e+01
9.100000e-07	-3.926960e-06	-1.134603e-09	-2.735210e+01	-7.576513e+01
9.200000e-07	-3.894271e-06	-1.137291e-09	-2.712441e+01	-7.547707e+01
9.300000e-07	-3.861179e-06	-1.136401e-09	-2.689393e+01	-7.518574e+01
9.400000e-07	-3.827719e-06	-1.125992e-09	-2.666087e+01	-7.489117e+01
9.500000e-07	-3.793863e-06	-1.126004e-09	-2.642506e+01	-7.459341e+01
9.600000e-07	-3.759472e-06	-1.123091e-09	-2.618551e+01	-7.429248e+01
9.700000e-07	-3.724636e-06	-1.113063e-09	-2.594288e+01	-7.398840e+01
9.800000e-07	-3.689583e-06	-1.107780e-09	-2.569872e+01	-7.368119e+01
9.900000e-07	-3.654290e-06	-1.107363e-09	-2.545290e+01	-7.337083e+01
1.000000e-06	-3.618820e-06	-1.097047e-09	-2.520584e+01	-7.305731e+01
1.010000e-06	-3.583208e-06	-1.087774e-09	-2.495780e+01	-7.274058e+01
1.020000e-06	-3.547482e-06	-1.086102e-09	-2.470896e+01	-7.242061e+01
1.030000e-06	-3.511626e-06	-1.081205e-09	-2.445922e+01	-7.209731e+01
1.040000e-06	-3.475544e-06	-1.073780e-09	-2.420789e+01	-7.177060e+01
1.050000e-06	-3.439183e-06	-1.070256e-09	-2.395463e+01	-7.144037e+01
1.060000e-06	-3.402529e-06	-1.064527e-09	-2.369933e+01	-7.110651e+01
1.070000e-06	-3.365616e-06	-1.056238e-09	-2.344222e+01	-7.076886e+01
1.080000e-06	-3.328471e-06	-1.054016e-09	-2.318350e+01	-7.042728e+01
1.090000e-06	-3.291106e-06	-1.050683e-09	-2.292324e+01	-7.008158e+01
1.100000e-06	-3.253508e-06	-1.042529e-09	-2.266137e+01	-6.973157e+01
1.110000e-06	-3.215641e-06	-1.033138e-09	-2.239762e+01	-6.937705e+01
1.120000e-06	-3.177500e-06	-1.026292e-09	-2.213196e+01	-6.901780e+01
1.130000e-06	-3.139132e-06	-1.016410e-09	-2.186472e+01	-6.865358e+01
1.140000e-06	-3.100586e-06	-1.009837e-09	-2.159623e+01	-6.828415e+01
1.150000e-06	-3.061810e-06	-1.003874e-09	-2.132615e+01	-6.790925e+01
1.160000e-06	-3.022828e-06	-9.969038e-10	-2.105463e+01	-6.752863e+01
1.170000e-06	-2.983670e-06	-9.886256e-10	-2.078189e+01	-6.714202e+01
1.180000e-06	-2.944326e-06	-9.841521e-10	-2.050785e+01	-6.674915e+01
1.190000e-06	-2.904847e-06	-9.767663e-10	-2.023287e+01	-6.634974e+01
1.200000e-06	-2.865291e-06	-9.679728e-10	-1.995735e+01	-6.594353e+01
1.210000e-06	-2.825590e-06	-9.607962e-10	-1.968083e+01	-6.553025e+01
1.220000e-06	-2.785704e-06	-9.560503e-10	-1.940302e+01	-6.510963e+01
1.230000e-06	-2.745656e-06	-9.480539e-10	-1.912407e+01	-6.468140e+01
1.240000e-06	-2.705434e-06	-9.416966e-10	-1.884392e+01	-6.424532e+01
1.250000e-06	-2.665107e-06	-9.368392e-10	-1.856303e+01	-6.380115e+01
1.260000e-06	-2.624457e-06	-9.316607e-10	-1.827989e+01	-6.334864e+01
1.270000e-06	-2.583507e-06	-9.265297e-10	-1.799467e+01	-6.288758e+01
1.280000e-06	-2.542462e-06	-9.210230e-10	-1.770878e+01	-6.241776e+01
1.290000e-06	-2.501077e-06	-9.115030e-10	-1.742053e+01	-6.193897e+01
1.300000e-06	-2.459275e-06	-9.000832e-10	-1.712937e+01	-6.145105e+01
1.310000e-06	-2.417198e-06	-8.902306e-10	-1.683629e+01	-6.095381e+01
1.320000e-06	-2.374893e-06	-8.809580e-10	-1.654163e+01	-6.044710e+01
1.330000e-06	-2.332314e-06	-8.738302e-10	-1.624506e+01	-5.993078e+01
1.340000e-06	-2.289442e-06	-8.700045e-10	-1.594644e+01	-5.940473e+01
1.350000e-06	-2.246359e-06	-8.653877e-10	-1.564636e+01	-5.886883e+01
1.360000e-06	-2.203147e-06	-8.574473e-10	-1.534538e+01	-5.832298e+01
1.370000e-06	-2.159807e-06	-8.478318e-10	-1.504351e+01	-5.776708e+01
1.380000e-06	-2.116338e-06	-8.373869e-10	-1.474074e+01	-5.720106e+01
1.390000e-06	-2.072807e-06	-8.267730e-10	-1.443754e+01	-5.662483e+01
1.400000e-06	-2.029261e-06	-8.170129e-10	-1.413423e+01	-5.603834e+01
1.410000e-06	-1.985645e-06	-8.098413e-10	-1.383043e+01	-5.544151e+01
1.420000e-06	-1.941912e-06	-8.021769e-10	-1.352583e+01	-5.483429e+01
1.430000e-06	-1.898080e-06	-7.948587e-10	-1.322053e+01	-5.421661e+01
1.440000e-06	-1.854162e-06	-7.862861e-10	-1.291463e+01	-5.358842e+01
1.450000e-06	-1.810165e-06	-7.754152e-10	-1.260818e+01	-5.294963e+01
1.460000e-06	-1.765985e-06	-7.612259e-10	-1.230046e+01	-5.230018e+01
1.470000e-06	-1.721612e-06	-7.468366e-10	-1.199139e+01	-5.163999e+01
1.480000e-06	-1.677115e-06	-7.321698e-10	-1.168146e+01	-5.096895e+01
1.490000e-06	-1.632430e-06	-7.198387e-10	-1.137022e+01	-5.028696e+01
1.500000e-06	-1.587602e-06	-7.105635e-10	-1.105798e+01	-4.959390e+01
1.510000e-06	-1.542690e-06	-7.017248e-10	-1.074516e+01	-4.888963e+01
1.520000e-06	-1.497654e-06	-6.898662e-10	-1.043148e+01	-4.817398e+01
1.530000e-06	-1.452530e-06	-6.748468e-10	-1.011718e+01	-4.744678e+01
1.540000e-06	-1.407280e-06	-6.579800e-10	-9.802003e+00	-4.670784e+01
1.550000e-06	-1.361940e-06	-6.429660e-10	-9.486197e+00	-4.595692e+01
1.560000e-06	-1.316582e-06	-6.310989e-10	-9.170270e+00	-4.519380e+01
1.570000e-06	-1.271100e-06	-6.219351e-10	-8.853481e+00	-4.441820e+01
1.580000e-06	-1.225546e-06	-6.131924e-10	-8.536184e+00	-4.362983e+01
1.590000e-06	-1.179938e-06	-6.019325e-10	-8.218519e+00	-4.282840e+01
1.600000e-06	-1.134219e-06	-5.872297e-10	-7.900076e+00	-4.201358e+01
1.610000e-06	-1.088441e-06	-5.730409e-10	-7.581222e+00	-4.118501e+01
1.620000e-06	-1.042644e-06	-5.587839e-10	-7.262236e+00	-4.034233e+01
1.630000e-06	-9.967361e-07	-5.439277e-10	-6.942476e+00	-3.948518e+01
1.640000e-06	-9.507039e-07	-5.276974e-10	-6.621852e+00	-3.861315e+01
1.650000e-06	-9.046649e-07	-5.104274e-10	-6.301181e+00	-3.772584e+01
1.660000e-06	-8.585737e-07	-4.963557e-10	-5.980146e+00	-3.682286e+01
1.670000e-06	-8.123613e-07	-4.838001e-10	-5.658268e+00	-3.590379e+01
1.680000e-06	-7.660635e-07	-4.715600e-10	-5.335794e+00	-3.496823e+01
1.690000e-06	-7.197725e-07	-4.584005e-10	-5.013367e+00	-3.401577e+01
1.700000e-06	-6.734549e-07	-4.450483e-10	-4.690755e+00	-3.304603e+01
1.710000e-06	-6.270253e-07	-4.278971e-10	-4.367363e+00	-3.205862e+01
1.720000e-06	-5.805277e-07	-4.083566e-10	-4.043498e+00	-3.105318e+01
1.730000e-06	-5.340212e-07	-3.899888e-10	-3.719570e+00	-3.002938e+01
1.740000e-06	-4.874564e-07	-3.738908e-10	-3.395236e+00	-2.898692e+01
1.750000e-06	-4.408723e-07	-3.594065e-10	-3.070768e+00	-2.792552e+01
1.760000e-06	-3.943004e-07	-3.463525e-10	-2.746385e+00	-2.684495e+01
1.770000e-06	-3.476942e-07	-3.332548e-10	-2.421763e+00	-2.574502e+01
1.780000e-06	-3.010153e-07	-3.193133e-10	-2.096635e+00	-2.462558e+01
1.790000e-06	-2.542685e-07	-3.009253e-10	-1.771033e+00	-2.348654e+01
1.800000e-06	-2.075236e-07	-2.783991e-10	-1.445446e+00	-2.232787e+01
1.810000e-06	-1.607747e-07	-2.560964e-10	-1.119830e+00	-2.114960e+01
1.820000e-06	-1.140376e-07	-2.360633e-10	-7.942959e-01	-1.995181e+01
1.830000e-06	-6.739594e-08	-2.194389e-10	-4.694269e-01	-1.873467e+01
1.840000e-06	-2.079161e-08	-2.059047e-10	-1.448180e-01	-1.749839e+01
1.850000e-06	2.586089e-08	-1.924668e-10	1.801266e-01	-1.624329e+01
1.860000e-06	7.255806e-08	-1.790470e-10	5.053822e-01	-1.496974e+01
1.870000e-06	1.193128e-07	-1.632106e-10	8.310388e-01	-1.367818e+01
1.880000e-06	1.661476e-07	-1.434674e-10	1.157253e+00	-1.236914e+01
1.890000e-06	2.129036e-07	-1.224443e-10	1.482918e+00	-1.104324e+01
1.900000e-06	2.595084e-07	-1.014867e-10	1.807530e+00	-9.701140e+00
1.910000e-06	3.061335e-07	-8.247968e-11	2.132284e+00	-8.343613e+00
1.920000e-06	3.528058e-07	-6.355562e-11	2.457366e+00	-6.971484e+00
1.930000e-06	3.994984e-07	-4.631598e-11	2.782591e+00	-5.585659e+00
1.940000e-06	4.461983e-07	-2.870643e-11	3.107865e+00	-4.187110e+00
1.950000e-06	4.928817e-07	-1.222610e-11	3.433024e+00	-2.776878e+00
1.960000e-06	5.394516e-07	4.381914e-12	3.757394e+00	-1.356067e+00
1.970000e-06	5.859031e-07	2.261817e-11	4.080939e+00	7.416272e-02
1.980000e-06	6.323061e-07	4.296675e-11	4.404145e+00	1.512595e+00
1.990000e-06	6.786902e-07	6.463786e-11	4.727220e+00	2.957964e+00
2.000000e-06	7.249969e-07	8.616154e-11	5.049756e+00	4.408965e+00
2.010000e-06	7.711637e-07	1.069717e-10	5.371317e+00	5.864252e+00
2.020000e-06	8.172633e-07	1.264191e-10	5.692411e+00	7.322451e+00
2.030000e-06	8.633012e-07	1.445028e-10	6.013074e+00	8.782162e+00
2.040000e-06	9.093756e-07	1.617304e-10	6.333993e+00	1.024197e+01
2.050000e-06	9.555158e-07	1.797270e-10	6.655369e+00	1.170045e+01
2.060000e-06	1.001564e-06	1.998630e-10	6.976104e+00	1.315617e+01
2.070000e-06	1.047416e-06	2.219249e-10	7.295470e+00	1.460770e+01
2.080000e-06	1.093171e-06	2.433472e-10	7.614169e+00	1.605363e+01
2.090000e-06	1.138890e-06	2.642006e-10	7.932607e+00	1.749258e+01
2.100000e-06	1.184491e-06	2.861374e-10	8.250230e+00	1.892316e+01
2.110000e-06	1.229979e-06	3.079906e-10	8.567065e+00	2.034403e+01
2.120000e-06	1.275438e-06	3.290855e-10	8.883697e+00	2.175391e+01
2.130000e-06	1.320872e-06	3.491878e-10	9.200150e+00	2.315154e+01
2.140000e-06	1.366230e-06	3.659403e-10	9.516080e+00	2.453571e+01
2.150000e-06	1.411496e-06	3.805686e-10	9.831366e+00	2.590529e+01
2.160000e-06	1.456644e-06	3.971702e-10	1.014584e+01	2.725918e+01
2.170000e-06	1.501700e-06	4.169663e-10	1.045965e+01	2.859637e+01
2.180000e-06	1.546586e-06	4.361731e-10	1.077230e+01	2.991592e+01
2.190000e-06	1.591307e-06	4.546643e-10	1.108379e+01	3.121695e+01
2.200000e-06	1.635924e-06	4.721785e-10	1.139455e+01	3.249866e+01
2.210000e-06	1.680438e-06	4.884537e-10	1.170460e+01	3.376036e+01
2.220000e-06	1.724842e-06	5.050727e-10	1.201389e+01	3.500139e+01
2.230000e-06	1.769049e-06	5.234376e-10	1.232180e+01	3.622121e+01
2.240000e-06	1.813062e-06	5.412142e-10	1.262836e+01	3.741935e+01
2.250000e-06	1.857020e-06	5.572747e-10	1.293453e+01	3.859544e+01
2.260000e-06	1.900913e-06	5.730395e-10	1.324026e+01	3.974916e+01
2.270000e-06	1.944686e-06	5.887111e-10	1.354515e+01	4.088029e+01
2.280000e-06	1.988403e-06	6.034865e-10	1.384964e+01	4.198871e+01
2.290000e-06	2.032116e-06	6.180810e-10	1.415412e+01	4.307433e+01
2.300000e-06	2.075768e-06	6.325984e-10	1.445816e+01	4.413719e+01
2.310000e-06	2.119298e-06	6.478444e-10	1.476136e+01	4.517735e+01
2.320000e-06	2.162732e-06	6.636088e-10	1.506388e+01	4.619497e+01
2.330000e-06	2.206048e-06	6.778443e-10	1.536559e+01	4.719026e+01
2.340000e-06	2.249221e-06	6.903950e-10	1.566630e+01	4.816349e+01
2.350000e-06	2.292178e-06	7.034216e-10	1.596550e+01	4.911499e+01
2.360000e-06	2.334976e-06	7.166825e-10	1.626360e+01	5.004513e+01
2.370000e-06	2.377632e-06	7.285106e-10	1.656071e+01	5.095433e+01
2.380000e-06	2.419943e-06	7.394418e-10	1.685541e+01	5.184303e+01
2.390000e-06	2.461916e-06	7.515024e-10	1.714776e+01	5.271174e+01
2.400000e-06	2.503620e-06	7.651512e-10	1.743824e+01	5.356096e+01
2.410000e-06	2.545067e-06	7.791260e-10	1.772693e+01	5.439123e+01
2.420000e-06	2.586279e-06	7.940826e-10	1.801398e+01	5.520309e+01
2.430000e-06	2.627182e-06	8.086635e-10	1.829888e+01	5.599711e+01
2.440000e-06	2.667781e-06	8.209843e-10	1.858166e+01	5.677385e+01
2.450000e-06	2.708154e-06	8.314815e-10	1.886286e+01	5.753388e+01
2.460000e-06	2.748253e-06	8.420096e-10	1.914216e+01	5.827776e+01
2.470000e-06	2.788153e-06	8.518220e-10	1.942007e+01	5.900603e+01
2.480000e-06	2.827914e-06	8.606132e-10	1.969702e+01	5.971924e+01
2.490000e-06	2.867498e-06	8.697972e-10	1.997273e+01	6.041790e+01
2.500000e-06	2.906942e-06	8.810031e-10	2.024746e+01	6.110251e+01
2.510000e-06	2.946266e-06	8.934471e-10	2.052136e+01	6.177356e+01
2.520000e-06	2.985486e-06	9.053670e-10	2.079453e+01	6.243148e+01
2.530000e-06	3.024569e-06	9.160855e-10	2.106676e+01	6.307670e+01
2.540000e-06	3.063477e-06	9.253670e-10	2.133776e+01	6.370962e+01
2.550000e-06	3.102138e-06	9.332053e-10	2.160705e+01	6.433058e+01
2.560000e-06	3.140527e-06	9.407878e-10	2.187443e+01	6.493992e+01
2.570000e-06	3.178635e-06	9.481625e-10	2.213986e+01	6.553794e+01
2.580000e-06	3.216511e-06	9.553426e-10	2.240367e+01	6.612490e+01
2.590000e-06	3.254223e-06	9.632873e-10	2.266635e+01	6.670103e+01
2.600000e-06	3.291772e-06	9.723362e-10	2.292788e+01	6.726653e+01
2.610000e-06	3.329155e-06	9.814320e-10	2.318827e+01	6.782158e+01
2.620000e-06	3.366334e-06	9.895013e-10	2.344723e+01	6.836632e+01
2.630000e-06	3.403218e-06	9.966611e-10	2.370413e+01	6.890086e+01
2.640000e-06	3.439831e-06	1.002150e-09	2.395915e+01	6.942531e+01
2.650000e-06	3.476234e-06	1.005756e-09	2.421270e+01	6.993974e+01
2.660000e-06	3.512357e-06	1.010080e-09	2.446431e+01	7.044420e+01
2.670000e-06	3.548225e-06	1.015813e-09	2.471414e+01	7.093874e+01
2.680000e-06	3.583946e-06	1.022452e-09	2.496294e+01	7.142337e+01
2.690000e-06	3.619561e-06	1.031422e-09	2.521101e+01	7.189811e+01
2.700000e-06	3.655063e-06	1.042406e-09	2.545828e+01	7.236298e+01
2.710000e-06	3.690430e-06	1.052499e-09	2.570462e+01	7.281798e+01
2.720000e-06	3.725556e-06	1.061011e-09	2.594928e+01	7.326311e+01
2.730000e-06	3.760368e-06	1.069031e-09	2.619176e+01	7.369838e+01
2.740000e-06	3.794818e-06	1.074179e-09	2.643171e+01	7.412380e+01
2.750000e-06	3.828794e-06	1.076971e-09	2.666836e+01	7.453937e+01
2.760000e-06	3.862320e-06	1.079647e-09	2.690187e+01	7.494514e+01
2.770000e-06	3.895370e-06	1.083773e-09	2.713207e+01	7.534113e+01
2.780000e-06	3.928012e-06	1.090380e-09	2.735943e+01	7.572739e+01
2.790000e-06	3.960366e-06	1.098999e-09	2.758478e+01	7.610399e+01
2.800000e-06	3.992423e-06	1.107397e-09	2.780807e+01	7.647100e+01
2.810000e-06	4.024227e-06	1.113993e-09	2.802959e+01	7.682853e+01
2.820000e-06	4.055789e-06	1.119755e-09	2.824942e+01	7.717668e+01
2.830000e-06	4.087155e-06	1.124646e-09	2.846790e+01	7.751560e+01
2.840000e-06	4.118351e-06	1.127731e-09	2.868518e+01	7.784542e+01
2.850000e-06	4.149272e-06	1.131954e-09	2.890055e+01	7.816633e+01
2.860000e-06	4.179858e-06	1.138358e-09	2.911359e+01	7.847850e+01
2.870000e-06	4.210174e-06	1.144639e-09	2.932475e+01	7.878214e+01
2.880000e-06	4.240157e-06	1.150852e-09	2.953359e+01	7.907747e+01
2.890000e-06	4.269810e-06	1.157325e-09	2.974012e+01	7.936472e+01
2.900000e-06	4.299265e-06	1.163046e-09	2.994529e+01	7.964414e+01
