# Temperatura_=_9.05
# Concentracion g/m^3_=_1620.0
# C_Vs_to_Am_M_A/Vsm_=_65563218390.804596
# pendiente_HvsI_1/m_=_3716.3
# ordenada_HvsI_A/m_=_1297.0
# frecuencia_Hz_=_135105.33363866224

Tiempo_(s)	Campo_(V.s)	Magnetizacion_(V.s)	Campo_(kA/m)	Magnetizacion_(A/m)
0.000000e+00	-5.525792e-06	-8.099909e-10	-3.837599e+01	-5.287886e+01
1.000000e-08	-5.525901e-06	-8.108773e-10	-3.837675e+01	-5.288582e+01
2.000000e-08	-5.525789e-06	-8.135800e-10	-3.837597e+01	-5.289403e+01
3.000000e-08	-5.525373e-06	-8.137867e-10	-3.837308e+01	-5.290339e+01
4.000000e-08	-5.524527e-06	-8.089231e-10	-3.836720e+01	-5.291375e+01
5.000000e-08	-5.523054e-06	-8.017535e-10	-3.835697e+01	-5.292497e+01
6.000000e-08	-5.520917e-06	-7.857630e-10	-3.834213e+01	-5.293686e+01
7.000000e-08	-5.518192e-06	-7.669221e-10	-3.832320e+01	-5.294922e+01
8.000000e-08	-5.514970e-06	-7.855569e-10	-3.830083e+01	-5.296185e+01
9.000000e-08	-5.511305e-06	-8.428310e-10	-3.827537e+01	-5.297453e+01
1.000000e-07	-5.507218e-06	-8.560168e-10	-3.824699e+01	-5.298701e+01
1.100000e-07	-5.502803e-06	-7.930225e-10	-3.821633e+01	-5.299906e+01
1.200000e-07	-5.498142e-06	-7.303861e-10	-3.818396e+01	-5.301041e+01
1.300000e-07	-5.493181e-06	-7.692157e-10	-3.814951e+01	-5.302082e+01
1.400000e-07	-5.487864e-06	-8.077476e-10	-3.811258e+01	-5.303003e+01
1.500000e-07	-5.482212e-06	-7.645795e-10	-3.807332e+01	-5.303778e+01
1.600000e-07	-5.476237e-06	-7.262687e-10	-3.803183e+01	-5.304381e+01
1.700000e-07	-5.469849e-06	-7.754187e-10	-3.798747e+01	-5.304787e+01
1.800000e-07	-5.462945e-06	-8.460218e-10	-3.793952e+01	-5.304972e+01
1.900000e-07	-5.455671e-06	-7.978497e-10	-3.788900e+01	-5.304913e+01
2.000000e-07	-5.448151e-06	-7.575522e-10	-3.783678e+01	-5.304586e+01
2.100000e-07	-5.440358e-06	-7.709642e-10	-3.778266e+01	-5.303970e+01
2.200000e-07	-5.432268e-06	-8.251364e-10	-3.772647e+01	-5.303045e+01
2.300000e-07	-5.423869e-06	-8.106252e-10	-3.766814e+01	-5.301794e+01
2.400000e-07	-5.415066e-06	-7.984608e-10	-3.760701e+01	-5.300198e+01
2.500000e-07	-5.405684e-06	-8.152207e-10	-3.754185e+01	-5.298243e+01
2.600000e-07	-5.395673e-06	-8.399297e-10	-3.747233e+01	-5.295916e+01
2.700000e-07	-5.384954e-06	-8.187933e-10	-3.739788e+01	-5.293205e+01
2.800000e-07	-5.373617e-06	-8.054943e-10	-3.731915e+01	-5.290101e+01
2.900000e-07	-5.361942e-06	-8.236390e-10	-3.723807e+01	-5.286595e+01
3.000000e-07	-5.349969e-06	-8.392135e-10	-3.715492e+01	-5.282682e+01
3.100000e-07	-5.337484e-06	-8.229678e-10	-3.706821e+01	-5.278359e+01
3.200000e-07	-5.324527e-06	-8.032770e-10	-3.697823e+01	-5.273623e+01
3.300000e-07	-5.311267e-06	-8.171897e-10	-3.688613e+01	-5.268474e+01
3.400000e-07	-5.297725e-06	-8.128885e-10	-3.679209e+01	-5.262915e+01
3.500000e-07	-5.283766e-06	-7.952892e-10	-3.669514e+01	-5.256947e+01
3.600000e-07	-5.269348e-06	-7.810338e-10	-3.659501e+01	-5.250577e+01
3.700000e-07	-5.254497e-06	-8.099147e-10	-3.649188e+01	-5.243810e+01
3.800000e-07	-5.239142e-06	-8.066363e-10	-3.638524e+01	-5.236654e+01
3.900000e-07	-5.223350e-06	-7.911438e-10	-3.627556e+01	-5.229119e+01
4.000000e-07	-5.207083e-06	-7.928980e-10	-3.616259e+01	-5.221215e+01
4.100000e-07	-5.190257e-06	-8.139836e-10	-3.604573e+01	-5.212953e+01
4.200000e-07	-5.173038e-06	-7.844363e-10	-3.592615e+01	-5.204345e+01
4.300000e-07	-5.155574e-06	-7.732996e-10	-3.580487e+01	-5.195404e+01
4.400000e-07	-5.137820e-06	-8.005278e-10	-3.568157e+01	-5.186144e+01
4.500000e-07	-5.119733e-06	-8.093671e-10	-3.555595e+01	-5.176580e+01
4.600000e-07	-5.101260e-06	-7.675035e-10	-3.542766e+01	-5.166724e+01
4.700000e-07	-5.082376e-06	-7.718022e-10	-3.529651e+01	-5.156594e+01
4.800000e-07	-5.063124e-06	-7.938788e-10	-3.516281e+01	-5.146202e+01
4.900000e-07	-5.043518e-06	-7.855244e-10	-3.502665e+01	-5.135565e+01
5.000000e-07	-5.023640e-06	-7.689624e-10	-3.488860e+01	-5.124698e+01
5.100000e-07	-5.003582e-06	-7.855874e-10	-3.474930e+01	-5.113616e+01
5.200000e-07	-4.983246e-06	-7.773435e-10	-3.460807e+01	-5.102333e+01
5.300000e-07	-4.962604e-06	-7.636585e-10	-3.446471e+01	-5.090864e+01
5.400000e-07	-4.941674e-06	-7.822727e-10	-3.431936e+01	-5.079223e+01
5.500000e-07	-4.920362e-06	-7.883763e-10	-3.417134e+01	-5.067425e+01
5.600000e-07	-4.898632e-06	-7.572324e-10	-3.402043e+01	-5.055482e+01
5.700000e-07	-4.876579e-06	-7.530668e-10	-3.386728e+01	-5.043407e+01
5.800000e-07	-4.854259e-06	-7.699352e-10	-3.371227e+01	-5.031214e+01
5.900000e-07	-4.831621e-06	-7.567925e-10	-3.355505e+01	-5.018914e+01
6.000000e-07	-4.808606e-06	-7.480982e-10	-3.339521e+01	-5.006519e+01
6.100000e-07	-4.785224e-06	-7.656633e-10	-3.323282e+01	-4.994039e+01
6.200000e-07	-4.761553e-06	-7.637866e-10	-3.306843e+01	-4.981485e+01
6.300000e-07	-4.737732e-06	-7.383576e-10	-3.290300e+01	-4.968866e+01
6.400000e-07	-4.713702e-06	-7.420843e-10	-3.273611e+01	-4.956193e+01
6.500000e-07	-4.689310e-06	-7.463855e-10	-3.256672e+01	-4.943474e+01
6.600000e-07	-4.664479e-06	-7.380707e-10	-3.239427e+01	-4.930717e+01
6.700000e-07	-4.639135e-06	-7.375276e-10	-3.221826e+01	-4.917930e+01
6.800000e-07	-4.613263e-06	-7.488804e-10	-3.203858e+01	-4.905120e+01
6.900000e-07	-4.586821e-06	-7.420796e-10	-3.185494e+01	-4.892293e+01
7.000000e-07	-4.559841e-06	-7.400352e-10	-3.166757e+01	-4.879456e+01
7.100000e-07	-4.532446e-06	-7.420189e-10	-3.147732e+01	-4.866614e+01
7.200000e-07	-4.504817e-06	-7.409954e-10	-3.128544e+01	-4.853772e+01
7.300000e-07	-4.477001e-06	-7.321146e-10	-3.109225e+01	-4.840935e+01
7.400000e-07	-4.449029e-06	-7.367479e-10	-3.089799e+01	-4.828105e+01
7.500000e-07	-4.420901e-06	-7.374372e-10	-3.070264e+01	-4.815287e+01
7.600000e-07	-4.392510e-06	-7.351926e-10	-3.050547e+01	-4.802483e+01
7.700000e-07	-4.363796e-06	-7.317365e-10	-3.030606e+01	-4.789694e+01
7.800000e-07	-4.334812e-06	-7.318890e-10	-3.010477e+01	-4.776922e+01
7.900000e-07	-4.305497e-06	-7.272096e-10	-2.990118e+01	-4.764167e+01
8.000000e-07	-4.275801e-06	-7.268819e-10	-2.969494e+01	-4.751428e+01
8.100000e-07	-4.245823e-06	-7.262805e-10	-2.948675e+01	-4.738704e+01
8.200000e-07	-4.215572e-06	-7.240403e-10	-2.927666e+01	-4.725993e+01
8.300000e-07	-4.185079e-06	-7.225425e-10	-2.906489e+01	-4.713291e+01
8.400000e-07	-4.154273e-06	-7.231465e-10	-2.885095e+01	-4.700595e+01
8.500000e-07	-4.123104e-06	-7.185340e-10	-2.863448e+01	-4.687898e+01
8.600000e-07	-4.091680e-06	-7.118998e-10	-2.841624e+01	-4.675195e+01
8.700000e-07	-4.060056e-06	-7.081903e-10	-2.819662e+01	-4.662478e+01
8.800000e-07	-4.028268e-06	-7.043071e-10	-2.797585e+01	-4.649738e+01
8.900000e-07	-3.996338e-06	-7.011469e-10	-2.775410e+01	-4.636966e+01
9.000000e-07	-3.964215e-06	-6.983323e-10	-2.753101e+01	-4.624150e+01
9.100000e-07	-3.931762e-06	-6.941228e-10	-2.730563e+01	-4.611277e+01
9.200000e-07	-3.899004e-06	-6.874346e-10	-2.707813e+01	-4.598335e+01
9.300000e-07	-3.865886e-06	-6.874115e-10	-2.684813e+01	-4.585309e+01
9.400000e-07	-3.832214e-06	-6.869173e-10	-2.661429e+01	-4.572182e+01
9.500000e-07	-3.798070e-06	-6.848790e-10	-2.637716e+01	-4.558937e+01
9.600000e-07	-3.763462e-06	-6.820627e-10	-2.613681e+01	-4.545556e+01
9.700000e-07	-3.728449e-06	-6.821387e-10	-2.589364e+01	-4.532019e+01
9.800000e-07	-3.693168e-06	-6.772770e-10	-2.564862e+01	-4.518307e+01
9.900000e-07	-3.657673e-06	-6.740203e-10	-2.540211e+01	-4.504397e+01
1.000000e-06	-3.622005e-06	-6.706752e-10	-2.515441e+01	-4.490267e+01
1.010000e-06	-3.586163e-06	-6.674478e-10	-2.490549e+01	-4.475894e+01
1.020000e-06	-3.550180e-06	-6.628884e-10	-2.465559e+01	-4.461256e+01
1.030000e-06	-3.514059e-06	-6.625229e-10	-2.440473e+01	-4.446327e+01
1.040000e-06	-3.477760e-06	-6.603576e-10	-2.415264e+01	-4.431083e+01
1.050000e-06	-3.441235e-06	-6.562287e-10	-2.389898e+01	-4.415499e+01
1.060000e-06	-3.404430e-06	-6.495961e-10	-2.364337e+01	-4.399552e+01
1.070000e-06	-3.367307e-06	-6.449738e-10	-2.338556e+01	-4.383216e+01
1.080000e-06	-3.329922e-06	-6.409100e-10	-2.312592e+01	-4.366467e+01
1.090000e-06	-3.292314e-06	-6.388587e-10	-2.286474e+01	-4.349282e+01
1.100000e-06	-3.254442e-06	-6.368274e-10	-2.260172e+01	-4.331637e+01
1.110000e-06	-3.216342e-06	-6.328972e-10	-2.233712e+01	-4.313510e+01
1.120000e-06	-3.178011e-06	-6.264011e-10	-2.207092e+01	-4.294880e+01
1.130000e-06	-3.139531e-06	-6.217222e-10	-2.180368e+01	-4.275727e+01
1.140000e-06	-3.100884e-06	-6.182759e-10	-2.153528e+01	-4.256032e+01
1.150000e-06	-3.061977e-06	-6.123064e-10	-2.126508e+01	-4.235777e+01
1.160000e-06	-3.022819e-06	-6.060408e-10	-2.099313e+01	-4.214947e+01
1.170000e-06	-2.983474e-06	-6.022893e-10	-2.071988e+01	-4.193527e+01
1.180000e-06	-2.943944e-06	-6.009730e-10	-2.044535e+01	-4.171505e+01
1.190000e-06	-2.904199e-06	-6.001313e-10	-2.016933e+01	-4.148871e+01
1.200000e-06	-2.864358e-06	-5.986286e-10	-1.989264e+01	-4.125616e+01
1.210000e-06	-2.824430e-06	-5.951601e-10	-1.961534e+01	-4.101733e+01
1.220000e-06	-2.784367e-06	-5.910940e-10	-1.933711e+01	-4.077217e+01
1.230000e-06	-2.744148e-06	-5.859638e-10	-1.905779e+01	-4.052067e+01
1.240000e-06	-2.703742e-06	-5.814973e-10	-1.877718e+01	-4.026281e+01
1.250000e-06	-2.663138e-06	-5.771804e-10	-1.849518e+01	-3.999860e+01
1.260000e-06	-2.622321e-06	-5.758861e-10	-1.821172e+01	-3.972807e+01
1.270000e-06	-2.581269e-06	-5.747341e-10	-1.792661e+01	-3.945127e+01
1.280000e-06	-2.539918e-06	-5.728237e-10	-1.763944e+01	-3.916826e+01
1.290000e-06	-2.498363e-06	-5.669823e-10	-1.735084e+01	-3.887911e+01
1.300000e-06	-2.456575e-06	-5.604778e-10	-1.706063e+01	-3.858391e+01
1.310000e-06	-2.414474e-06	-5.547336e-10	-1.676824e+01	-3.828275e+01
1.320000e-06	-2.372183e-06	-5.510112e-10	-1.647453e+01	-3.797574e+01
1.330000e-06	-2.329584e-06	-5.479585e-10	-1.617869e+01	-3.766298e+01
1.340000e-06	-2.286573e-06	-5.462852e-10	-1.587998e+01	-3.734459e+01
1.350000e-06	-2.243226e-06	-5.425729e-10	-1.557895e+01	-3.702066e+01
1.360000e-06	-2.199709e-06	-5.373630e-10	-1.527672e+01	-3.669131e+01
1.370000e-06	-2.156142e-06	-5.303136e-10	-1.497415e+01	-3.635663e+01
1.380000e-06	-2.112464e-06	-5.236999e-10	-1.467082e+01	-3.601672e+01
1.390000e-06	-2.068644e-06	-5.178746e-10	-1.436649e+01	-3.567164e+01
1.400000e-06	-2.024730e-06	-5.135320e-10	-1.406152e+01	-3.532145e+01
1.410000e-06	-1.980774e-06	-5.096032e-10	-1.375625e+01	-3.496621e+01
1.420000e-06	-1.936784e-06	-5.046276e-10	-1.345074e+01	-3.460591e+01
1.430000e-06	-1.892703e-06	-4.985651e-10	-1.314461e+01	-3.424056e+01
1.440000e-06	-1.848513e-06	-4.923470e-10	-1.283771e+01	-3.387012e+01
1.450000e-06	-1.804214e-06	-4.857682e-10	-1.253006e+01	-3.349453e+01
1.460000e-06	-1.759803e-06	-4.781495e-10	-1.222162e+01	-3.311369e+01
1.470000e-06	-1.715308e-06	-4.699771e-10	-1.191262e+01	-3.272747e+01
1.480000e-06	-1.670716e-06	-4.616031e-10	-1.160293e+01	-3.233570e+01
1.490000e-06	-1.625865e-06	-4.559233e-10	-1.129144e+01	-3.193819e+01
1.500000e-06	-1.580829e-06	-4.524457e-10	-1.097867e+01	-3.153468e+01
1.510000e-06	-1.535843e-06	-4.482797e-10	-1.066625e+01	-3.112492e+01
1.520000e-06	-1.490815e-06	-4.393858e-10	-1.035354e+01	-3.070856e+01
1.530000e-06	-1.445594e-06	-4.299864e-10	-1.003948e+01	-3.028528e+01
1.540000e-06	-1.400248e-06	-4.217000e-10	-9.724559e+00	-2.985466e+01
1.550000e-06	-1.354813e-06	-4.135273e-10	-9.409018e+00	-2.941629e+01
1.560000e-06	-1.309241e-06	-4.046079e-10	-9.092526e+00	-2.896971e+01
1.570000e-06	-1.263561e-06	-3.971513e-10	-8.775284e+00	-2.851442e+01
1.580000e-06	-1.217804e-06	-3.911521e-10	-8.457511e+00	-2.804990e+01
1.590000e-06	-1.172001e-06	-3.850972e-10	-8.139410e+00	-2.757560e+01
1.600000e-06	-1.126136e-06	-3.781388e-10	-7.820887e+00	-2.709096e+01
1.610000e-06	-1.080108e-06	-3.712114e-10	-7.501223e+00	-2.659538e+01
1.620000e-06	-1.033970e-06	-3.627170e-10	-7.180805e+00	-2.608826e+01
1.630000e-06	-9.877583e-07	-3.528872e-10	-6.859867e+00	-2.556899e+01
1.640000e-06	-9.414427e-07	-3.410507e-10	-6.538211e+00	-2.503695e+01
1.650000e-06	-8.951257e-07	-3.292620e-10	-6.216544e+00	-2.449152e+01
1.660000e-06	-8.487712e-07	-3.200043e-10	-5.894618e+00	-2.393208e+01
1.670000e-06	-8.023483e-07	-3.132145e-10	-5.572216e+00	-2.335804e+01
1.680000e-06	-7.559037e-07	-3.058790e-10	-5.249663e+00	-2.276882e+01
1.690000e-06	-7.094824e-07	-2.984929e-10	-4.927273e+00	-2.216385e+01
1.700000e-06	-6.629967e-07	-2.901855e-10	-4.604435e+00	-2.154260e+01
1.710000e-06	-6.164564e-07	-2.795983e-10	-4.281219e+00	-2.090457e+01
1.720000e-06	-5.698784e-07	-2.679006e-10	-3.957739e+00	-2.024931e+01
1.730000e-06	-5.233001e-07	-2.550430e-10	-3.634259e+00	-1.957641e+01
1.740000e-06	-4.767805e-07	-2.431562e-10	-3.311185e+00	-1.888551e+01
1.750000e-06	-4.301262e-07	-2.324754e-10	-2.987176e+00	-1.817630e+01
1.760000e-06	-3.833136e-07	-2.221058e-10	-2.662069e+00	-1.744855e+01
1.770000e-06	-3.363872e-07	-2.119691e-10	-2.336171e+00	-1.670208e+01
1.780000e-06	-2.894051e-07	-2.022518e-10	-2.009885e+00	-1.593679e+01
1.790000e-06	-2.424828e-07	-1.915816e-10	-1.684015e+00	-1.515266e+01
1.800000e-06	-1.956583e-07	-1.779757e-10	-1.358824e+00	-1.434974e+01
1.810000e-06	-1.487990e-07	-1.620337e-10	-1.033392e+00	-1.352815e+01
1.820000e-06	-1.019206e-07	-1.477790e-10	-7.078268e-01	-1.268811e+01
1.830000e-06	-5.503803e-08	-1.360563e-10	-3.822327e-01	-1.182993e+01
1.840000e-06	-8.039057e-09	-1.248317e-10	-5.583032e-02	-1.095398e+01
1.850000e-06	3.891423e-08	-1.156184e-10	2.702548e-01	-1.006074e+01
1.860000e-06	8.579545e-08	-1.078874e-10	5.958395e-01	-9.150754e+00
1.870000e-06	1.326880e-07	-9.711707e-11	9.215027e-01	-8.224676e+00
1.880000e-06	1.794990e-07	-8.416426e-11	1.246600e+00	-7.283226e+00
1.890000e-06	2.262527e-07	-6.987071e-11	1.571299e+00	-6.327210e+00
1.900000e-06	2.730406e-07	-5.573979e-11	1.896235e+00	-5.357511e+00
1.910000e-06	3.198281e-07	-4.217498e-11	2.221169e+00	-4.375086e+00
1.920000e-06	3.666191e-07	-2.973906e-11	2.546127e+00	-3.380964e+00
1.930000e-06	4.134496e-07	-1.677278e-11	2.871360e+00	-2.376239e+00
1.940000e-06	4.602740e-07	-3.805278e-12	3.196550e+00	-1.362065e+00
1.950000e-06	5.070362e-07	6.691715e-12	3.521307e+00	-3.396501e-01
1.960000e-06	5.537095e-07	1.698461e-11	3.845449e+00	6.897478e-01
1.970000e-06	6.003280e-07	3.044887e-11	4.169209e+00	1.724830e+00
1.980000e-06	6.469547e-07	4.657926e-11	4.493025e+00	2.764264e+00
1.990000e-06	6.934977e-07	6.330560e-11	4.816261e+00	3.806688e+00
2.000000e-06	7.399538e-07	7.990866e-11	5.138894e+00	4.850723e+00
2.010000e-06	7.863473e-07	9.562856e-11	5.461091e+00	5.894975e+00
2.020000e-06	8.326658e-07	1.094241e-10	5.782768e+00	6.938048e+00
2.030000e-06	8.789142e-07	1.212670e-10	6.103957e+00	7.978550e+00
2.040000e-06	9.250955e-07	1.328926e-10	6.424681e+00	9.015101e+00
2.050000e-06	9.712972e-07	1.450695e-10	6.745547e+00	1.004634e+01
2.060000e-06	1.017481e-06	1.588910e-10	7.066289e+00	1.107093e+01
2.070000e-06	1.063570e-06	1.759414e-10	7.386370e+00	1.208757e+01
2.080000e-06	1.109525e-06	1.942846e-10	7.705526e+00	1.309501e+01
2.090000e-06	1.155353e-06	2.107163e-10	8.023795e+00	1.409203e+01
2.100000e-06	1.201139e-06	2.244046e-10	8.341775e+00	1.507749e+01
2.110000e-06	1.246772e-06	2.358992e-10	8.658688e+00	1.605029e+01
2.120000e-06	1.292323e-06	2.474319e-10	8.975031e+00	1.700940e+01
2.130000e-06	1.337942e-06	2.598143e-10	9.291853e+00	1.795388e+01
2.140000e-06	1.383452e-06	2.729538e-10	9.607917e+00	1.888284e+01
2.150000e-06	1.428750e-06	2.858519e-10	9.922501e+00	1.979548e+01
2.160000e-06	1.473929e-06	2.983443e-10	1.023627e+01	2.069110e+01
2.170000e-06	1.519018e-06	3.127401e-10	1.054941e+01	2.156906e+01
2.180000e-06	1.563968e-06	3.285465e-10	1.086158e+01	2.242882e+01
2.190000e-06	1.608794e-06	3.417906e-10	1.117289e+01	2.326992e+01
2.200000e-06	1.653501e-06	3.528791e-10	1.148337e+01	2.409200e+01
2.210000e-06	1.698075e-06	3.641936e-10	1.179293e+01	2.489478e+01
2.220000e-06	1.742528e-06	3.754387e-10	1.210165e+01	2.567806e+01
2.230000e-06	1.786933e-06	3.848590e-10	1.241005e+01	2.644176e+01
2.240000e-06	1.831259e-06	3.933350e-10	1.271788e+01	2.718584e+01
2.250000e-06	1.875409e-06	4.023454e-10	1.302450e+01	2.791036e+01
2.260000e-06	1.919442e-06	4.121950e-10	1.333030e+01	2.861545e+01
2.270000e-06	1.963424e-06	4.231142e-10	1.363575e+01	2.930133e+01
2.280000e-06	2.007304e-06	4.341402e-10	1.394049e+01	2.996827e+01
2.290000e-06	2.051096e-06	4.444341e-10	1.424462e+01	3.061661e+01
2.300000e-06	2.094901e-06	4.532997e-10	1.454885e+01	3.124674e+01
2.310000e-06	2.138673e-06	4.609028e-10	1.485283e+01	3.185911e+01
2.320000e-06	2.182282e-06	4.678439e-10	1.515569e+01	3.245422e+01
2.330000e-06	2.225721e-06	4.749545e-10	1.545737e+01	3.303260e+01
2.340000e-06	2.269028e-06	4.827288e-10	1.575813e+01	3.359481e+01
2.350000e-06	2.312143e-06	4.907276e-10	1.605757e+01	3.414144e+01
2.360000e-06	2.355007e-06	4.985661e-10	1.635525e+01	3.467312e+01
2.370000e-06	2.397536e-06	5.066705e-10	1.665061e+01	3.519046e+01
2.380000e-06	2.439718e-06	5.145922e-10	1.694356e+01	3.569409e+01
2.390000e-06	2.481648e-06	5.228748e-10	1.723476e+01	3.618466e+01
2.400000e-06	2.523270e-06	5.328866e-10	1.752382e+01	3.666279e+01
2.410000e-06	2.564626e-06	5.432484e-10	1.781103e+01	3.712910e+01
2.420000e-06	2.605782e-06	5.518145e-10	1.809685e+01	3.758418e+01
2.430000e-06	2.646580e-06	5.581415e-10	1.838019e+01	3.802862e+01
2.440000e-06	2.687067e-06	5.638935e-10	1.866137e+01	3.846298e+01
2.450000e-06	2.727416e-06	5.695772e-10	1.894159e+01	3.888777e+01
2.460000e-06	2.767617e-06	5.743233e-10	1.922078e+01	3.930348e+01
2.470000e-06	2.807657e-06	5.801931e-10	1.949885e+01	3.971057e+01
2.480000e-06	2.847538e-06	5.867952e-10	1.977582e+01	4.010944e+01
2.490000e-06	2.887289e-06	5.931527e-10	2.005189e+01	4.050047e+01
2.500000e-06	2.926978e-06	6.008196e-10	2.032752e+01	4.088398e+01
2.510000e-06	2.966551e-06	6.080879e-10	2.060235e+01	4.126025e+01
2.520000e-06	3.005851e-06	6.132834e-10	2.087529e+01	4.162952e+01
2.530000e-06	3.044862e-06	6.175983e-10	2.114621e+01	4.199198e+01
2.540000e-06	3.083732e-06	6.216635e-10	2.141616e+01	4.234777e+01
2.550000e-06	3.122451e-06	6.251198e-10	2.168506e+01	4.269701e+01
2.560000e-06	3.160890e-06	6.294064e-10	2.195201e+01	4.303974e+01
2.570000e-06	3.199085e-06	6.347868e-10	2.221728e+01	4.337600e+01
2.580000e-06	3.237051e-06	6.379088e-10	2.248094e+01	4.370577e+01
2.590000e-06	3.274831e-06	6.395560e-10	2.274332e+01	4.402900e+01
2.600000e-06	3.312432e-06	6.436338e-10	2.300446e+01	4.434561e+01
2.610000e-06	3.349800e-06	6.495580e-10	2.326397e+01	4.465551e+01
2.620000e-06	3.386914e-06	6.546227e-10	2.352173e+01	4.495855e+01
2.630000e-06	3.423740e-06	6.590657e-10	2.377748e+01	4.525460e+01
2.640000e-06	3.460340e-06	6.619826e-10	2.403166e+01	4.554349e+01
2.650000e-06	3.496749e-06	6.629848e-10	2.428451e+01	4.582505e+01
2.660000e-06	3.532922e-06	6.648031e-10	2.453573e+01	4.609911e+01
2.670000e-06	3.568913e-06	6.657958e-10	2.478569e+01	4.636548e+01
2.680000e-06	3.604775e-06	6.646639e-10	2.503474e+01	4.662400e+01
2.690000e-06	3.640520e-06	6.655326e-10	2.528299e+01	4.687449e+01
2.700000e-06	3.676156e-06	6.715748e-10	2.553048e+01	4.711679e+01
2.710000e-06	3.711552e-06	6.794579e-10	2.577630e+01	4.735077e+01
2.720000e-06	3.746555e-06	6.860258e-10	2.601939e+01	4.757630e+01
2.730000e-06	3.781174e-06	6.909463e-10	2.625982e+01	4.779328e+01
2.740000e-06	3.815498e-06	6.911699e-10	2.649819e+01	4.800164e+01
2.750000e-06	3.849383e-06	6.881537e-10	2.673352e+01	4.820133e+01
2.760000e-06	3.882706e-06	6.886663e-10	2.696494e+01	4.839233e+01
2.770000e-06	3.915512e-06	6.928390e-10	2.719278e+01	4.857465e+01
2.780000e-06	3.947979e-06	6.990261e-10	2.741826e+01	4.874835e+01
2.790000e-06	3.980271e-06	7.066144e-10	2.764252e+01	4.891351e+01
2.800000e-06	4.012313e-06	7.132718e-10	2.786505e+01	4.907024e+01
2.810000e-06	4.044162e-06	7.163479e-10	2.808624e+01	4.921869e+01
2.820000e-06	4.075884e-06	7.162792e-10	2.830654e+01	4.935907e+01
2.830000e-06	4.107390e-06	7.154480e-10	2.852535e+01	4.949158e+01
2.840000e-06	4.138660e-06	7.145225e-10	2.874251e+01	4.961648e+01
2.850000e-06	4.169651e-06	7.155981e-10	2.895774e+01	4.973406e+01
2.860000e-06	4.200294e-06	7.205405e-10	2.917055e+01	4.984464e+01
2.870000e-06	4.230588e-06	7.269583e-10	2.938094e+01	4.994855e+01
2.880000e-06	4.260621e-06	7.326092e-10	2.958952e+01	5.004616e+01
2.890000e-06	4.290406e-06	7.369636e-10	2.979637e+01	5.013786e+01
2.900000e-06	4.319884e-06	7.401741e-10	3.000109e+01	5.022406e+01
