# Temperatura_=_-0.21
# Concentracion g/m^3_=_1620.0
# C_Vs_to_Am_M_A/Vsm_=_65563218390.804596
# pendiente_HvsI_1/m_=_3716.3
# ordenada_HvsI_A/m_=_1297.0
# frecuencia_Hz_=_135112.02309569772

Tiempo_(s)	Campo_(V.s)	Magnetizacion_(V.s)	Campo_(kA/m)	Magnetizacion_(A/m)
0.000000e+00	-5.512141e-06	-1.317548e-09	-3.836644e+01	-8.450772e+01
1.000000e-08	-5.512339e-06	-1.315606e-09	-3.836782e+01	-8.451466e+01
2.000000e-08	-5.512277e-06	-1.313232e-09	-3.836739e+01	-8.452097e+01
3.000000e-08	-5.511880e-06	-1.310855e-09	-3.836463e+01	-8.452652e+01
4.000000e-08	-5.511006e-06	-1.306269e-09	-3.835854e+01	-8.453110e+01
5.000000e-08	-5.509524e-06	-1.304267e-09	-3.834823e+01	-8.453454e+01
6.000000e-08	-5.507372e-06	-1.309247e-09	-3.833325e+01	-8.453661e+01
7.000000e-08	-5.504693e-06	-1.306279e-09	-3.831461e+01	-8.453710e+01
8.000000e-08	-5.501524e-06	-1.282781e-09	-3.829254e+01	-8.453577e+01
9.000000e-08	-5.497865e-06	-1.275126e-09	-3.826708e+01	-8.453238e+01
1.000000e-07	-5.493803e-06	-1.337281e-09	-3.823881e+01	-8.452667e+01
1.100000e-07	-5.489448e-06	-1.372548e-09	-3.820849e+01	-8.451840e+01
1.200000e-07	-5.484794e-06	-1.300089e-09	-3.817610e+01	-8.450730e+01
1.300000e-07	-5.479917e-06	-1.221726e-09	-3.814215e+01	-8.449313e+01
1.400000e-07	-5.474712e-06	-1.286234e-09	-3.810593e+01	-8.447564e+01
1.500000e-07	-5.468978e-06	-1.349050e-09	-3.806602e+01	-8.445458e+01
1.600000e-07	-5.462903e-06	-1.296116e-09	-3.802373e+01	-8.442972e+01
1.700000e-07	-5.456510e-06	-1.206636e-09	-3.797924e+01	-8.440083e+01
1.800000e-07	-5.449722e-06	-1.283107e-09	-3.793199e+01	-8.436771e+01
1.900000e-07	-5.442596e-06	-1.372360e-09	-3.788239e+01	-8.433015e+01
2.000000e-07	-5.435202e-06	-1.350560e-09	-3.783092e+01	-8.428799e+01
2.100000e-07	-5.427439e-06	-1.276734e-09	-3.777689e+01	-8.424105e+01
2.200000e-07	-5.419324e-06	-1.293921e-09	-3.772041e+01	-8.418920e+01
2.300000e-07	-5.410926e-06	-1.336832e-09	-3.766195e+01	-8.413232e+01
2.400000e-07	-5.402071e-06	-1.320940e-09	-3.760032e+01	-8.407029e+01
2.500000e-07	-5.392713e-06	-1.291604e-09	-3.753518e+01	-8.400306e+01
2.600000e-07	-5.382702e-06	-1.304934e-09	-3.746550e+01	-8.393056e+01
2.700000e-07	-5.371967e-06	-1.335717e-09	-3.739078e+01	-8.385275e+01
2.800000e-07	-5.360693e-06	-1.306871e-09	-3.731231e+01	-8.376962e+01
2.900000e-07	-5.349073e-06	-1.278365e-09	-3.723143e+01	-8.368119e+01
3.000000e-07	-5.337140e-06	-1.279583e-09	-3.714837e+01	-8.358749e+01
3.100000e-07	-5.324804e-06	-1.306451e-09	-3.706251e+01	-8.348856e+01
3.200000e-07	-5.312046e-06	-1.272383e-09	-3.697371e+01	-8.338449e+01
3.300000e-07	-5.298887e-06	-1.252075e-09	-3.688213e+01	-8.327535e+01
3.400000e-07	-5.285348e-06	-1.260113e-09	-3.678789e+01	-8.316126e+01
3.500000e-07	-5.271475e-06	-1.295865e-09	-3.669132e+01	-8.304234e+01
3.600000e-07	-5.257234e-06	-1.260941e-09	-3.659220e+01	-8.291873e+01
3.700000e-07	-5.242429e-06	-1.246830e-09	-3.648916e+01	-8.279057e+01
3.800000e-07	-5.227016e-06	-1.273071e-09	-3.638188e+01	-8.265803e+01
3.900000e-07	-5.211175e-06	-1.283350e-09	-3.627161e+01	-8.252128e+01
4.000000e-07	-5.194883e-06	-1.229728e-09	-3.615822e+01	-8.238049e+01
4.100000e-07	-5.178140e-06	-1.247478e-09	-3.604168e+01	-8.223584e+01
4.200000e-07	-5.161126e-06	-1.290470e-09	-3.592325e+01	-8.208752e+01
4.300000e-07	-5.143847e-06	-1.245125e-09	-3.580299e+01	-8.193572e+01
4.400000e-07	-5.126185e-06	-1.203819e-09	-3.568006e+01	-8.178062e+01
4.500000e-07	-5.108168e-06	-1.265119e-09	-3.555465e+01	-8.162240e+01
4.600000e-07	-5.089748e-06	-1.269536e-09	-3.542644e+01	-8.146125e+01
4.700000e-07	-5.070817e-06	-1.196736e-09	-3.529468e+01	-8.129733e+01
4.800000e-07	-5.051545e-06	-1.219593e-09	-3.516054e+01	-8.113083e+01
4.900000e-07	-5.032097e-06	-1.267644e-09	-3.502517e+01	-8.096191e+01
5.000000e-07	-5.012436e-06	-1.216766e-09	-3.488832e+01	-8.079070e+01
5.100000e-07	-4.992525e-06	-1.197055e-09	-3.474973e+01	-8.061737e+01
5.200000e-07	-4.972335e-06	-1.248463e-09	-3.460920e+01	-8.044204e+01
5.300000e-07	-4.951749e-06	-1.211141e-09	-3.446592e+01	-8.026482e+01
5.400000e-07	-4.930753e-06	-1.173550e-09	-3.431978e+01	-8.008584e+01
5.500000e-07	-4.909406e-06	-1.233292e-09	-3.417120e+01	-7.990518e+01
5.600000e-07	-4.887744e-06	-1.243816e-09	-3.402042e+01	-7.972294e+01
5.700000e-07	-4.865713e-06	-1.171989e-09	-3.386708e+01	-7.953917e+01
5.800000e-07	-4.843321e-06	-1.192882e-09	-3.371122e+01	-7.935395e+01
5.900000e-07	-4.820648e-06	-1.226968e-09	-3.355341e+01	-7.916732e+01
6.000000e-07	-4.797638e-06	-1.181830e-09	-3.339326e+01	-7.897932e+01
6.100000e-07	-4.774261e-06	-1.169631e-09	-3.323054e+01	-7.878997e+01
6.200000e-07	-4.750644e-06	-1.212417e-09	-3.306616e+01	-7.859927e+01
6.300000e-07	-4.726844e-06	-1.183375e-09	-3.290050e+01	-7.840725e+01
6.400000e-07	-4.702811e-06	-1.158505e-09	-3.273322e+01	-7.821388e+01
6.500000e-07	-4.678409e-06	-1.185927e-09	-3.256338e+01	-7.801915e+01
6.600000e-07	-4.653569e-06	-1.182554e-09	-3.239048e+01	-7.782304e+01
6.700000e-07	-4.628347e-06	-1.151105e-09	-3.221492e+01	-7.762552e+01
6.800000e-07	-4.602646e-06	-1.169240e-09	-3.203604e+01	-7.742654e+01
6.900000e-07	-4.576326e-06	-1.174791e-09	-3.185284e+01	-7.722607e+01
7.000000e-07	-4.549460e-06	-1.153455e-09	-3.166585e+01	-7.702405e+01
7.100000e-07	-4.522244e-06	-1.157684e-09	-3.147641e+01	-7.682043e+01
7.200000e-07	-4.494796e-06	-1.166564e-09	-3.128537e+01	-7.661516e+01
7.300000e-07	-4.467145e-06	-1.143498e-09	-3.109290e+01	-7.640816e+01
7.400000e-07	-4.439286e-06	-1.139328e-09	-3.089899e+01	-7.619939e+01
7.500000e-07	-4.411210e-06	-1.150076e-09	-3.070358e+01	-7.598877e+01
7.600000e-07	-4.382796e-06	-1.140562e-09	-3.050581e+01	-7.577624e+01
7.700000e-07	-4.354015e-06	-1.134292e-09	-3.030548e+01	-7.556173e+01
7.800000e-07	-4.325054e-06	-1.140859e-09	-3.010390e+01	-7.534517e+01
7.900000e-07	-4.295849e-06	-1.132927e-09	-2.990062e+01	-7.512648e+01
8.000000e-07	-4.266303e-06	-1.123455e-09	-2.969497e+01	-7.490560e+01
8.100000e-07	-4.236493e-06	-1.130770e-09	-2.948748e+01	-7.468245e+01
8.200000e-07	-4.206362e-06	-1.125455e-09	-2.927776e+01	-7.445697e+01
8.300000e-07	-4.175899e-06	-1.113120e-09	-2.906573e+01	-7.422906e+01
8.400000e-07	-4.145136e-06	-1.116845e-09	-2.885161e+01	-7.399866e+01
8.500000e-07	-4.114151e-06	-1.120095e-09	-2.863594e+01	-7.376568e+01
8.600000e-07	-4.082898e-06	-1.101869e-09	-2.841841e+01	-7.353005e+01
8.700000e-07	-4.051399e-06	-1.094737e-09	-2.819917e+01	-7.329167e+01
8.800000e-07	-4.019817e-06	-1.093904e-09	-2.797934e+01	-7.305046e+01
8.900000e-07	-3.988095e-06	-1.084350e-09	-2.775855e+01	-7.280632e+01
9.000000e-07	-3.956059e-06	-1.077767e-09	-2.753557e+01	-7.255916e+01
9.100000e-07	-3.923651e-06	-1.084802e-09	-2.731000e+01	-7.230888e+01
9.200000e-07	-3.890891e-06	-1.077559e-09	-2.708198e+01	-7.205537e+01
9.300000e-07	-3.857792e-06	-1.067805e-09	-2.685159e+01	-7.179852e+01
9.400000e-07	-3.824269e-06	-1.067976e-09	-2.661826e+01	-7.153821e+01
9.500000e-07	-3.790208e-06	-1.067032e-09	-2.638119e+01	-7.127432e+01
9.600000e-07	-3.755739e-06	-1.055180e-09	-2.614127e+01	-7.100672e+01
9.700000e-07	-3.720931e-06	-1.052427e-09	-2.589899e+01	-7.073527e+01
9.800000e-07	-3.685764e-06	-1.050739e-09	-2.565422e+01	-7.045983e+01
9.900000e-07	-3.650377e-06	-1.041020e-09	-2.540791e+01	-7.018025e+01
1.000000e-06	-3.614846e-06	-1.032638e-09	-2.516061e+01	-6.989639e+01
1.010000e-06	-3.579212e-06	-1.032292e-09	-2.491258e+01	-6.960808e+01
1.020000e-06	-3.543446e-06	-1.027257e-09	-2.466364e+01	-6.931515e+01
1.030000e-06	-3.507435e-06	-1.020316e-09	-2.441298e+01	-6.901745e+01
1.040000e-06	-3.471139e-06	-1.018535e-09	-2.416035e+01	-6.871480e+01
1.050000e-06	-3.434597e-06	-1.012378e-09	-2.390600e+01	-6.840703e+01
1.060000e-06	-3.397754e-06	-9.998095e-10	-2.364957e+01	-6.809396e+01
1.070000e-06	-3.360615e-06	-9.927796e-10	-2.339107e+01	-6.777541e+01
1.080000e-06	-3.323305e-06	-9.889424e-10	-2.313137e+01	-6.745121e+01
1.090000e-06	-3.285835e-06	-9.822677e-10	-2.287057e+01	-6.712118e+01
1.100000e-06	-3.248144e-06	-9.787293e-10	-2.260823e+01	-6.678516e+01
1.110000e-06	-3.210225e-06	-9.764757e-10	-2.234430e+01	-6.644296e+01
1.120000e-06	-3.172097e-06	-9.686878e-10	-2.207891e+01	-6.609443e+01
1.130000e-06	-3.133691e-06	-9.592881e-10	-2.181159e+01	-6.573940e+01
1.140000e-06	-3.095033e-06	-9.548237e-10	-2.154252e+01	-6.537773e+01
1.150000e-06	-3.056245e-06	-9.475201e-10	-2.127254e+01	-6.500927e+01
1.160000e-06	-3.017252e-06	-9.399839e-10	-2.100114e+01	-6.463388e+01
1.170000e-06	-2.978029e-06	-9.342189e-10	-2.072813e+01	-6.425144e+01
1.180000e-06	-2.938669e-06	-9.291567e-10	-2.045417e+01	-6.386183e+01
1.190000e-06	-2.899168e-06	-9.212419e-10	-2.017923e+01	-6.346496e+01
1.200000e-06	-2.859523e-06	-9.162895e-10	-1.990329e+01	-6.306072e+01
1.210000e-06	-2.819712e-06	-9.112507e-10	-1.962619e+01	-6.264905e+01
1.220000e-06	-2.779775e-06	-9.046392e-10	-1.934821e+01	-6.222987e+01
1.230000e-06	-2.739641e-06	-8.986816e-10	-1.906887e+01	-6.180313e+01
1.240000e-06	-2.699370e-06	-8.951707e-10	-1.878856e+01	-6.136879e+01
1.250000e-06	-2.658988e-06	-8.888621e-10	-1.850749e+01	-6.092683e+01
1.260000e-06	-2.618325e-06	-8.834012e-10	-1.822446e+01	-6.047721e+01
1.270000e-06	-2.577413e-06	-8.783622e-10	-1.793971e+01	-6.001995e+01
1.280000e-06	-2.536154e-06	-8.721856e-10	-1.765253e+01	-5.955503e+01
1.290000e-06	-2.494500e-06	-8.637369e-10	-1.736260e+01	-5.908247e+01
1.300000e-06	-2.452607e-06	-8.554306e-10	-1.707101e+01	-5.860230e+01
1.310000e-06	-2.410461e-06	-8.474663e-10	-1.677766e+01	-5.811452e+01
1.320000e-06	-2.368019e-06	-8.412055e-10	-1.648225e+01	-5.761917e+01
1.330000e-06	-2.325348e-06	-8.377199e-10	-1.618524e+01	-5.711628e+01
1.340000e-06	-2.282433e-06	-8.356892e-10	-1.588654e+01	-5.660588e+01
1.350000e-06	-2.239255e-06	-8.294911e-10	-1.558600e+01	-5.608798e+01
1.360000e-06	-2.195854e-06	-8.189386e-10	-1.528392e+01	-5.556261e+01
1.370000e-06	-2.152327e-06	-8.077392e-10	-1.498095e+01	-5.502978e+01
1.380000e-06	-2.108688e-06	-7.980192e-10	-1.467721e+01	-5.448949e+01
1.390000e-06	-2.065009e-06	-7.902573e-10	-1.437319e+01	-5.394172e+01
1.400000e-06	-2.021303e-06	-7.839503e-10	-1.406898e+01	-5.338646e+01
1.410000e-06	-1.977484e-06	-7.773923e-10	-1.376399e+01	-5.282364e+01
1.420000e-06	-1.933560e-06	-7.682610e-10	-1.345826e+01	-5.225320e+01
1.430000e-06	-1.889574e-06	-7.584247e-10	-1.315210e+01	-5.167506e+01
1.440000e-06	-1.845523e-06	-7.494497e-10	-1.284549e+01	-5.108909e+01
1.450000e-06	-1.801349e-06	-7.422109e-10	-1.253802e+01	-5.049515e+01
1.460000e-06	-1.757035e-06	-7.324212e-10	-1.222958e+01	-4.989307e+01
1.470000e-06	-1.712611e-06	-7.213423e-10	-1.192038e+01	-4.928264e+01
1.480000e-06	-1.668087e-06	-7.098407e-10	-1.161047e+01	-4.866363e+01
1.490000e-06	-1.623344e-06	-6.983340e-10	-1.129905e+01	-4.803577e+01
1.500000e-06	-1.578505e-06	-6.860708e-10	-1.098695e+01	-4.739875e+01
1.510000e-06	-1.533665e-06	-6.741685e-10	-1.067485e+01	-4.675224e+01
1.520000e-06	-1.488700e-06	-6.616969e-10	-1.036188e+01	-4.609587e+01
1.530000e-06	-1.443602e-06	-6.483804e-10	-1.004798e+01	-4.542922e+01
1.540000e-06	-1.398354e-06	-6.382187e-10	-9.733040e+00	-4.475185e+01
1.550000e-06	-1.352936e-06	-6.302039e-10	-9.416911e+00	-4.406331e+01
1.560000e-06	-1.307413e-06	-6.181022e-10	-9.100054e+00	-4.336308e+01
1.570000e-06	-1.261827e-06	-6.034824e-10	-8.782758e+00	-4.265063e+01
1.580000e-06	-1.216200e-06	-5.878121e-10	-8.465180e+00	-4.192542e+01
1.590000e-06	-1.170547e-06	-5.715136e-10	-8.147418e+00	-4.118686e+01
1.600000e-06	-1.124797e-06	-5.566223e-10	-7.828985e+00	-4.043436e+01
1.610000e-06	-1.078951e-06	-5.462548e-10	-7.509877e+00	-3.966730e+01
1.620000e-06	-1.033087e-06	-5.375808e-10	-7.190653e+00	-3.888507e+01
1.630000e-06	-9.871615e-07	-5.281760e-10	-6.870992e+00	-3.808703e+01
1.640000e-06	-9.411484e-07	-5.143428e-10	-6.550725e+00	-3.727255e+01
1.650000e-06	-8.950728e-07	-4.952575e-10	-6.230022e+00	-3.644101e+01
1.660000e-06	-8.488490e-07	-4.741437e-10	-5.908288e+00	-3.559178e+01
1.670000e-06	-8.025177e-07	-4.527824e-10	-5.585806e+00	-3.472426e+01
1.680000e-06	-7.561604e-07	-4.358888e-10	-5.263143e+00	-3.383786e+01
1.690000e-06	-7.098204e-07	-4.249217e-10	-4.940601e+00	-3.293202e+01
1.700000e-06	-6.634698e-07	-4.179831e-10	-4.617984e+00	-3.200621e+01
1.710000e-06	-6.170442e-07	-4.078890e-10	-4.294845e+00	-3.105994e+01
1.720000e-06	-5.705789e-07	-3.920278e-10	-3.971431e+00	-3.009275e+01
1.730000e-06	-5.239740e-07	-3.732020e-10	-3.647044e+00	-2.910426e+01
1.740000e-06	-4.773232e-07	-3.521492e-10	-3.322338e+00	-2.809410e+01
1.750000e-06	-4.306551e-07	-3.322076e-10	-2.997512e+00	-2.706199e+01
1.760000e-06	-3.839451e-07	-3.150428e-10	-2.672394e+00	-2.600771e+01
1.770000e-06	-3.372173e-07	-3.003977e-10	-2.347151e+00	-2.493111e+01
1.780000e-06	-2.904240e-07	-2.890120e-10	-2.021454e+00	-2.383209e+01
1.790000e-06	-2.436184e-07	-2.771716e-10	-1.695670e+00	-2.271067e+01
1.800000e-06	-1.968094e-07	-2.619594e-10	-1.369863e+00	-2.156691e+01
1.810000e-06	-1.500995e-07	-2.421876e-10	-1.044746e+00	-2.040098e+01
1.820000e-06	-1.033479e-07	-2.196151e-10	-7.193375e-01	-1.921313e+01
1.830000e-06	-5.651057e-08	-1.979470e-10	-3.933335e-01	-1.800368e+01
1.840000e-06	-9.711924e-09	-1.797632e-10	-6.759842e-02	-1.677308e+01
1.850000e-06	3.714898e-08	-1.658250e-10	2.585700e-01	-1.552182e+01
1.860000e-06	8.404238e-08	-1.538083e-10	5.849646e-01	-1.425052e+01
1.870000e-06	1.308638e-07	-1.387387e-10	9.108580e-01	-1.295988e+01
1.880000e-06	1.776603e-07	-1.204909e-10	1.236578e+00	-1.165067e+01
1.890000e-06	2.244503e-07	-1.021333e-10	1.562253e+00	-1.032376e+01
1.900000e-06	2.711994e-07	-8.360860e-11	1.887643e+00	-8.980118e+00
1.910000e-06	3.179436e-07	-6.450897e-11	2.213000e+00	-7.620763e+00
1.920000e-06	3.647523e-07	-4.739032e-11	2.538805e+00	-6.246807e+00
1.930000e-06	4.114950e-07	-3.133497e-11	2.864150e+00	-4.859433e+00
1.940000e-06	4.581236e-07	-1.542323e-11	3.188702e+00	-3.459889e+00
1.950000e-06	5.046980e-07	-9.700142e-13	3.512876e+00	-2.049483e+00
1.960000e-06	5.512032e-07	1.352305e-11	3.836568e+00	-6.295805e-01
1.970000e-06	5.976545e-07	3.251363e-11	4.159886e+00	7.984061e-01
1.980000e-06	6.440619e-07	5.443086e-11	4.482898e+00	2.233022e+00
1.990000e-06	6.903830e-07	7.645392e-11	4.805309e+00	3.672779e+00
2.000000e-06	7.365823e-07	9.882571e-11	5.126872e+00	5.116161e+00
2.010000e-06	7.827134e-07	1.193839e-10	5.447961e+00	6.561634e+00
2.020000e-06	8.288031e-07	1.362711e-10	5.768762e+00	8.007652e+00
2.030000e-06	8.748702e-07	1.515074e-10	6.089405e+00	9.452666e+00
2.040000e-06	9.208901e-07	1.679213e-10	6.409720e+00	1.089513e+01
2.050000e-06	9.669655e-07	1.850647e-10	6.730421e+00	1.233352e+01
2.060000e-06	1.013040e-06	2.049383e-10	7.051114e+00	1.376633e+01
2.070000e-06	1.058988e-06	2.290323e-10	7.370931e+00	1.519207e+01
2.080000e-06	1.104827e-06	2.538309e-10	7.689986e+00	1.660930e+01
2.090000e-06	1.150530e-06	2.742597e-10	8.008094e+00	1.801662e+01
2.100000e-06	1.196117e-06	2.921763e-10	8.325397e+00	1.941268e+01
2.110000e-06	1.241661e-06	3.088763e-10	8.642395e+00	2.079619e+01
2.120000e-06	1.287115e-06	3.245562e-10	8.958777e+00	2.216592e+01
2.130000e-06	1.332474e-06	3.415702e-10	9.274488e+00	2.352072e+01
2.140000e-06	1.377815e-06	3.608118e-10	9.590079e+00	2.485948e+01
2.150000e-06	1.423078e-06	3.808125e-10	9.905128e+00	2.618121e+01
2.160000e-06	1.468220e-06	4.019837e-10	1.021933e+01	2.748498e+01
2.170000e-06	1.513264e-06	4.230401e-10	1.053285e+01	2.876995e+01
2.180000e-06	1.558178e-06	4.417187e-10	1.084547e+01	3.003536e+01
2.190000e-06	1.602924e-06	4.582216e-10	1.115692e+01	3.128055e+01
2.200000e-06	1.647535e-06	4.752589e-10	1.146742e+01	3.250494e+01
2.210000e-06	1.692014e-06	4.927712e-10	1.177701e+01	3.370805e+01
2.220000e-06	1.736365e-06	5.102222e-10	1.208571e+01	3.488948e+01
2.230000e-06	1.780573e-06	5.271388e-10	1.239342e+01	3.604894e+01
2.240000e-06	1.824665e-06	5.419030e-10	1.270031e+01	3.718619e+01
2.250000e-06	1.868681e-06	5.567544e-10	1.300668e+01	3.830111e+01
2.260000e-06	1.912627e-06	5.716378e-10	1.331256e+01	3.939365e+01
2.270000e-06	1.956492e-06	5.870775e-10	1.361787e+01	4.046384e+01
2.280000e-06	2.000269e-06	6.039741e-10	1.392258e+01	4.151178e+01
2.290000e-06	2.043968e-06	6.204954e-10	1.422674e+01	4.253764e+01
2.300000e-06	2.087598e-06	6.360785e-10	1.453042e+01	4.354167e+01
2.310000e-06	2.131175e-06	6.515466e-10	1.483373e+01	4.452417e+01
2.320000e-06	2.174685e-06	6.654894e-10	1.513657e+01	4.548547e+01
2.330000e-06	2.218094e-06	6.768364e-10	1.543872e+01	4.642600e+01
2.340000e-06	2.261302e-06	6.867643e-10	1.573946e+01	4.734620e+01
2.350000e-06	2.304259e-06	6.975318e-10	1.603846e+01	4.824653e+01
2.360000e-06	2.346983e-06	7.107544e-10	1.633583e+01	4.912753e+01
2.370000e-06	2.389460e-06	7.253295e-10	1.663148e+01	4.998971e+01
2.380000e-06	2.431694e-06	7.395013e-10	1.692545e+01	5.083364e+01
2.390000e-06	2.473698e-06	7.534873e-10	1.721781e+01	5.165987e+01
2.400000e-06	2.515310e-06	7.654178e-10	1.750744e+01	5.246896e+01
2.410000e-06	2.556523e-06	7.760620e-10	1.779430e+01	5.326150e+01
2.420000e-06	2.597488e-06	7.864441e-10	1.807943e+01	5.403803e+01
2.430000e-06	2.638234e-06	7.961409e-10	1.836304e+01	5.479910e+01
2.440000e-06	2.678773e-06	8.080630e-10	1.864520e+01	5.554525e+01
2.450000e-06	2.719086e-06	8.198094e-10	1.892580e+01	5.627699e+01
2.460000e-06	2.759164e-06	8.289591e-10	1.920475e+01	5.699479e+01
2.470000e-06	2.799098e-06	8.373701e-10	1.948271e+01	5.769912e+01
2.480000e-06	2.838941e-06	8.460433e-10	1.976003e+01	5.839040e+01
2.490000e-06	2.878633e-06	8.557368e-10	2.003630e+01	5.906902e+01
2.500000e-06	2.918177e-06	8.665592e-10	2.031154e+01	5.973533e+01
2.510000e-06	2.957577e-06	8.771522e-10	2.058578e+01	6.038965e+01
2.520000e-06	2.996803e-06	8.861607e-10	2.085880e+01	6.103226e+01
2.530000e-06	3.035801e-06	8.942035e-10	2.113024e+01	6.166340e+01
2.540000e-06	3.074547e-06	9.012148e-10	2.139993e+01	6.228326e+01
2.550000e-06	3.113101e-06	9.071513e-10	2.166828e+01	6.289200e+01
2.560000e-06	3.151453e-06	9.151336e-10	2.193522e+01	6.348975e+01
2.570000e-06	3.189508e-06	9.247189e-10	2.220010e+01	6.407660e+01
2.580000e-06	3.227339e-06	9.332575e-10	2.246342e+01	6.465260e+01
2.590000e-06	3.265091e-06	9.406783e-10	2.272618e+01	6.521777e+01
2.600000e-06	3.302663e-06	9.470142e-10	2.298770e+01	6.577211e+01
2.610000e-06	3.339964e-06	9.540100e-10	2.324733e+01	6.631559e+01
2.620000e-06	3.377061e-06	9.612185e-10	2.350553e+01	6.684816e+01
2.630000e-06	3.413907e-06	9.683749e-10	2.376200e+01	6.736975e+01
2.640000e-06	3.450487e-06	9.743718e-10	2.401660e+01	6.788027e+01
2.650000e-06	3.486831e-06	9.789257e-10	2.426958e+01	6.837962e+01
2.660000e-06	3.522942e-06	9.838625e-10	2.452092e+01	6.886772e+01
2.670000e-06	3.558800e-06	9.889033e-10	2.477050e+01	6.934444e+01
2.680000e-06	3.594460e-06	9.937310e-10	2.501871e+01	6.980970e+01
2.690000e-06	3.630051e-06	9.992216e-10	2.526644e+01	7.026340e+01
2.700000e-06	3.665517e-06	1.007422e-09	2.551329e+01	7.070544e+01
2.710000e-06	3.700803e-06	1.017237e-09	2.575889e+01	7.113575e+01
2.720000e-06	3.735883e-06	1.027088e-09	2.600306e+01	7.155428e+01
2.730000e-06	3.770591e-06	1.035422e-09	2.624464e+01	7.196099e+01
2.740000e-06	3.804847e-06	1.039890e-09	2.648308e+01	7.235586e+01
2.750000e-06	3.838716e-06	1.041142e-09	2.671882e+01	7.273890e+01
2.760000e-06	3.872122e-06	1.042760e-09	2.695133e+01	7.311015e+01
2.770000e-06	3.904992e-06	1.047578e-09	2.718012e+01	7.346967e+01
2.780000e-06	3.937457e-06	1.056248e-09	2.740609e+01	7.381755e+01
2.790000e-06	3.969643e-06	1.067124e-09	2.763012e+01	7.415393e+01
2.800000e-06	4.001614e-06	1.077983e-09	2.785265e+01	7.447896e+01
2.810000e-06	4.033392e-06	1.085866e-09	2.807383e+01	7.479284e+01
2.820000e-06	4.064987e-06	1.089634e-09	2.829374e+01	7.509578e+01
2.830000e-06	4.096392e-06	1.090325e-09	2.851233e+01	7.538804e+01
2.840000e-06	4.127588e-06	1.088465e-09	2.872947e+01	7.566991e+01
2.850000e-06	4.158532e-06	1.088683e-09	2.894485e+01	7.594170e+01
2.860000e-06	4.189181e-06	1.093129e-09	2.915818e+01	7.620375e+01
2.870000e-06	4.219502e-06	1.098483e-09	2.936922e+01	7.645642e+01
2.880000e-06	4.249449e-06	1.104574e-09	2.957767e+01	7.670010e+01
2.890000e-06	4.279100e-06	1.111768e-09	2.978405e+01	7.693519e+01
2.900000e-06	4.308532e-06	1.118601e-09	2.998890e+01	7.716213e+01
