# Temperatura_=_-0.3
# Concentracion g/m^3_=_1620.0
# C_Vs_to_Am_M_A/Vsm_=_65563218390.804596
# pendiente_HvsI_1/m_=_3716.3
# ordenada_HvsI_A/m_=_1297.0
# frecuencia_Hz_=_135097.2269796322

Tiempo_(s)	Campo_(V.s)	Magnetizacion_(V.s)	Campo_(kA/m)	Magnetizacion_(A/m)
0.000000e+00	-5.505576e-06	-1.407620e-09	-3.837678e+01	-9.106203e+01
1.000000e-08	-5.505771e-06	-1.405417e-09	-3.837814e+01	-9.110019e+01
2.000000e-08	-5.505774e-06	-1.406254e-09	-3.837815e+01	-9.113811e+01
3.000000e-08	-5.505403e-06	-1.409962e-09	-3.837557e+01	-9.117558e+01
4.000000e-08	-5.504521e-06	-1.410182e-09	-3.836942e+01	-9.121241e+01
5.000000e-08	-5.503221e-06	-1.406981e-09	-3.836036e+01	-9.124837e+01
6.000000e-08	-5.501479e-06	-1.401700e-09	-3.834822e+01	-9.128322e+01
7.000000e-08	-5.499108e-06	-1.383867e-09	-3.833169e+01	-9.131669e+01
8.000000e-08	-5.496096e-06	-1.383504e-09	-3.831070e+01	-9.134852e+01
9.000000e-08	-5.492532e-06	-1.445050e-09	-3.828585e+01	-9.137841e+01
1.000000e-07	-5.488558e-06	-1.486530e-09	-3.825815e+01	-9.140608e+01
1.100000e-07	-5.484291e-06	-1.409071e-09	-3.822841e+01	-9.143122e+01
1.200000e-07	-5.479841e-06	-1.331167e-09	-3.819739e+01	-9.145352e+01
1.300000e-07	-5.475250e-06	-1.365639e-09	-3.816539e+01	-9.147270e+01
1.400000e-07	-5.470235e-06	-1.438925e-09	-3.813043e+01	-9.148842e+01
1.500000e-07	-5.464628e-06	-1.382458e-09	-3.809135e+01	-9.150041e+01
1.600000e-07	-5.458669e-06	-1.309582e-09	-3.804981e+01	-9.150836e+01
1.700000e-07	-5.452455e-06	-1.382214e-09	-3.800649e+01	-9.151198e+01
1.800000e-07	-5.445753e-06	-1.481260e-09	-3.795977e+01	-9.151101e+01
1.900000e-07	-5.438600e-06	-1.440318e-09	-3.790992e+01	-9.150517e+01
2.000000e-07	-5.431176e-06	-1.338528e-09	-3.785817e+01	-9.149421e+01
2.100000e-07	-5.423504e-06	-1.361524e-09	-3.780469e+01	-9.147791e+01
2.200000e-07	-5.415640e-06	-1.444699e-09	-3.774987e+01	-9.145605e+01
2.300000e-07	-5.407542e-06	-1.449472e-09	-3.769342e+01	-9.142844e+01
2.400000e-07	-5.399085e-06	-1.400128e-09	-3.763448e+01	-9.139489e+01
2.500000e-07	-5.390060e-06	-1.414645e-09	-3.757157e+01	-9.135525e+01
2.600000e-07	-5.380205e-06	-1.454931e-09	-3.750287e+01	-9.130939e+01
2.700000e-07	-5.369674e-06	-1.429664e-09	-3.742947e+01	-9.125721e+01
2.800000e-07	-5.358721e-06	-1.374721e-09	-3.735312e+01	-9.119861e+01
2.900000e-07	-5.347278e-06	-1.393018e-09	-3.727336e+01	-9.113352e+01
3.000000e-07	-5.335414e-06	-1.432561e-09	-3.719066e+01	-9.106191e+01
3.100000e-07	-5.323282e-06	-1.411273e-09	-3.710609e+01	-9.098376e+01
3.200000e-07	-5.310677e-06	-1.367070e-09	-3.701823e+01	-9.089906e+01
3.300000e-07	-5.297451e-06	-1.383988e-09	-3.692603e+01	-9.080783e+01
3.400000e-07	-5.283878e-06	-1.410609e-09	-3.683142e+01	-9.071013e+01
3.500000e-07	-5.270048e-06	-1.377532e-09	-3.673502e+01	-9.060600e+01
3.600000e-07	-5.255939e-06	-1.345479e-09	-3.663668e+01	-9.049552e+01
3.700000e-07	-5.241458e-06	-1.384492e-09	-3.653573e+01	-9.037879e+01
3.800000e-07	-5.226455e-06	-1.405280e-09	-3.643115e+01	-9.025591e+01
3.900000e-07	-5.210630e-06	-1.360999e-09	-3.632085e+01	-9.012700e+01
4.000000e-07	-5.194199e-06	-1.359395e-09	-3.620631e+01	-8.999219e+01
4.100000e-07	-5.177624e-06	-1.398071e-09	-3.609078e+01	-8.985162e+01
4.200000e-07	-5.160742e-06	-1.357716e-09	-3.597310e+01	-8.970544e+01
4.300000e-07	-5.143459e-06	-1.309971e-09	-3.585263e+01	-8.955381e+01
4.400000e-07	-5.125863e-06	-1.367521e-09	-3.572998e+01	-8.939687e+01
4.500000e-07	-5.107993e-06	-1.389869e-09	-3.560541e+01	-8.923480e+01
4.600000e-07	-5.089723e-06	-1.320479e-09	-3.547806e+01	-8.906775e+01
4.700000e-07	-5.070935e-06	-1.323486e-09	-3.534710e+01	-8.889589e+01
4.800000e-07	-5.051773e-06	-1.380552e-09	-3.521353e+01	-8.871938e+01
4.900000e-07	-5.032357e-06	-1.340647e-09	-3.507819e+01	-8.853836e+01
5.000000e-07	-5.012671e-06	-1.308129e-09	-3.494097e+01	-8.835301e+01
5.100000e-07	-4.992759e-06	-1.352044e-09	-3.480217e+01	-8.816347e+01
5.200000e-07	-4.972634e-06	-1.332020e-09	-3.466189e+01	-8.796987e+01
5.300000e-07	-4.952224e-06	-1.280244e-09	-3.451962e+01	-8.777236e+01
5.400000e-07	-4.931395e-06	-1.332726e-09	-3.437443e+01	-8.757107e+01
5.500000e-07	-4.910173e-06	-1.359600e-09	-3.422650e+01	-8.736611e+01
5.600000e-07	-4.888642e-06	-1.293459e-09	-3.407642e+01	-8.715761e+01
5.700000e-07	-4.866770e-06	-1.294507e-09	-3.392396e+01	-8.694566e+01
5.800000e-07	-4.844587e-06	-1.344467e-09	-3.376933e+01	-8.673036e+01
5.900000e-07	-4.822043e-06	-1.306259e-09	-3.361219e+01	-8.651180e+01
6.000000e-07	-4.799169e-06	-1.277038e-09	-3.345274e+01	-8.629007e+01
6.100000e-07	-4.776036e-06	-1.316093e-09	-3.329149e+01	-8.606524e+01
6.200000e-07	-4.752602e-06	-1.306958e-09	-3.312815e+01	-8.583737e+01
6.300000e-07	-4.728930e-06	-1.265438e-09	-3.296314e+01	-8.560652e+01
6.400000e-07	-4.705016e-06	-1.281499e-09	-3.279645e+01	-8.537275e+01
6.500000e-07	-4.680873e-06	-1.291255e-09	-3.262816e+01	-8.513610e+01
6.600000e-07	-4.656381e-06	-1.265204e-09	-3.245744e+01	-8.489663e+01
6.700000e-07	-4.631394e-06	-1.271912e-09	-3.228327e+01	-8.465435e+01
6.800000e-07	-4.605864e-06	-1.288084e-09	-3.210531e+01	-8.440932e+01
6.900000e-07	-4.579762e-06	-1.268598e-09	-3.192336e+01	-8.416157e+01
7.000000e-07	-4.553179e-06	-1.261205e-09	-3.173806e+01	-8.391111e+01
7.100000e-07	-4.526207e-06	-1.270471e-09	-3.155005e+01	-8.365799e+01
7.200000e-07	-4.498869e-06	-1.257191e-09	-3.135950e+01	-8.340223e+01
7.300000e-07	-4.471234e-06	-1.246362e-09	-3.116687e+01	-8.314385e+01
7.400000e-07	-4.443413e-06	-1.252728e-09	-3.097294e+01	-8.288288e+01
7.500000e-07	-4.415369e-06	-1.250601e-09	-3.077746e+01	-8.261934e+01
7.600000e-07	-4.387097e-06	-1.240957e-09	-3.058039e+01	-8.235327e+01
7.700000e-07	-4.358581e-06	-1.237929e-09	-3.038161e+01	-8.208468e+01
7.800000e-07	-4.329744e-06	-1.231906e-09	-3.018060e+01	-8.181360e+01
7.900000e-07	-4.300583e-06	-1.223687e-09	-2.997734e+01	-8.154006e+01
8.000000e-07	-4.271113e-06	-1.220748e-09	-2.977192e+01	-8.126408e+01
8.100000e-07	-4.241315e-06	-1.213275e-09	-2.956421e+01	-8.098569e+01
8.200000e-07	-4.211277e-06	-1.199469e-09	-2.935483e+01	-8.070491e+01
8.300000e-07	-4.181073e-06	-1.198258e-09	-2.914429e+01	-8.042176e+01
8.400000e-07	-4.150530e-06	-1.200193e-09	-2.893139e+01	-8.013626e+01
8.500000e-07	-4.119603e-06	-1.191320e-09	-2.871581e+01	-7.984843e+01
8.600000e-07	-4.088356e-06	-1.184176e-09	-2.849800e+01	-7.955829e+01
8.700000e-07	-4.056916e-06	-1.185426e-09	-2.827885e+01	-7.926583e+01
8.800000e-07	-4.025343e-06	-1.177352e-09	-2.805877e+01	-7.897107e+01
8.900000e-07	-3.993532e-06	-1.167902e-09	-2.783703e+01	-7.867401e+01
9.000000e-07	-3.961553e-06	-1.165551e-09	-2.761412e+01	-7.837462e+01
9.100000e-07	-3.929428e-06	-1.155370e-09	-2.739019e+01	-7.807289e+01
9.200000e-07	-3.896969e-06	-1.140758e-09	-2.716393e+01	-7.776880e+01
9.300000e-07	-3.864106e-06	-1.140150e-09	-2.693486e+01	-7.746230e+01
9.400000e-07	-3.830893e-06	-1.141519e-09	-2.670335e+01	-7.715335e+01
9.500000e-07	-3.797226e-06	-1.133577e-09	-2.646867e+01	-7.684188e+01
9.600000e-07	-3.763036e-06	-1.130479e-09	-2.623035e+01	-7.652783e+01
9.700000e-07	-3.728423e-06	-1.131890e-09	-2.598908e+01	-7.621111e+01
9.800000e-07	-3.693447e-06	-1.122622e-09	-2.574528e+01	-7.589161e+01
9.900000e-07	-3.658254e-06	-1.112450e-09	-2.549996e+01	-7.556923e+01
1.000000e-06	-3.622838e-06	-1.108286e-09	-2.525310e+01	-7.524383e+01
1.010000e-06	-3.587146e-06	-1.098566e-09	-2.500431e+01	-7.491529e+01
1.020000e-06	-3.551304e-06	-1.087238e-09	-2.475447e+01	-7.458343e+01
1.030000e-06	-3.515350e-06	-1.084449e-09	-2.450385e+01	-7.424809e+01
1.040000e-06	-3.479274e-06	-1.082102e-09	-2.425238e+01	-7.390910e+01
1.050000e-06	-3.442996e-06	-1.074026e-09	-2.399950e+01	-7.356624e+01
1.060000e-06	-3.406522e-06	-1.067095e-09	-2.374526e+01	-7.321933e+01
1.070000e-06	-3.369796e-06	-1.060073e-09	-2.348926e+01	-7.286813e+01
1.080000e-06	-3.332689e-06	-1.050432e-09	-2.323061e+01	-7.251241e+01
1.090000e-06	-3.295360e-06	-1.044745e-09	-2.297040e+01	-7.215194e+01
1.100000e-06	-3.257770e-06	-1.042772e-09	-2.270838e+01	-7.178647e+01
1.110000e-06	-3.219893e-06	-1.035392e-09	-2.244436e+01	-7.141574e+01
1.120000e-06	-3.181857e-06	-1.026106e-09	-2.217922e+01	-7.103950e+01
1.130000e-06	-3.143629e-06	-1.020410e-09	-2.191275e+01	-7.065748e+01
1.140000e-06	-3.105248e-06	-1.014399e-09	-2.164522e+01	-7.026941e+01
1.150000e-06	-3.066662e-06	-1.004828e-09	-2.137625e+01	-6.987503e+01
1.160000e-06	-3.027837e-06	-9.984268e-10	-2.110562e+01	-6.947408e+01
1.170000e-06	-2.988777e-06	-9.955619e-10	-2.083336e+01	-6.906627e+01
1.180000e-06	-2.949544e-06	-9.922847e-10	-2.055988e+01	-6.865137e+01
1.190000e-06	-2.910180e-06	-9.884986e-10	-2.028550e+01	-6.822911e+01
1.200000e-06	-2.870628e-06	-9.842913e-10	-2.000979e+01	-6.779924e+01
1.210000e-06	-2.830926e-06	-9.759422e-10	-1.973305e+01	-6.736153e+01
1.220000e-06	-2.791099e-06	-9.648278e-10	-1.945544e+01	-6.691576e+01
1.230000e-06	-2.751071e-06	-9.566470e-10	-1.917642e+01	-6.646169e+01
1.240000e-06	-2.710832e-06	-9.512021e-10	-1.889593e+01	-6.599913e+01
1.250000e-06	-2.670467e-06	-9.450498e-10	-1.861456e+01	-6.552789e+01
1.260000e-06	-2.629930e-06	-9.406005e-10	-1.833201e+01	-6.504778e+01
1.270000e-06	-2.589140e-06	-9.393506e-10	-1.804767e+01	-6.455864e+01
1.280000e-06	-2.548104e-06	-9.370260e-10	-1.776164e+01	-6.406032e+01
1.290000e-06	-2.506888e-06	-9.307046e-10	-1.747433e+01	-6.355268e+01
1.300000e-06	-2.465386e-06	-9.212951e-10	-1.718504e+01	-6.303561e+01
1.310000e-06	-2.423496e-06	-9.085407e-10	-1.689305e+01	-6.250899e+01
1.320000e-06	-2.381389e-06	-8.953038e-10	-1.659954e+01	-6.197272e+01
1.330000e-06	-2.338991e-06	-8.859882e-10	-1.630401e+01	-6.142674e+01
1.340000e-06	-2.296190e-06	-8.814111e-10	-1.600566e+01	-6.087095e+01
1.350000e-06	-2.253194e-06	-8.767043e-10	-1.570595e+01	-6.030531e+01
1.360000e-06	-2.210119e-06	-8.690819e-10	-1.540570e+01	-5.972976e+01
1.370000e-06	-2.166929e-06	-8.592030e-10	-1.510464e+01	-5.914426e+01
1.380000e-06	-2.123559e-06	-8.490964e-10	-1.480233e+01	-5.854877e+01
1.390000e-06	-2.079981e-06	-8.384120e-10	-1.449857e+01	-5.794324e+01
1.400000e-06	-2.036283e-06	-8.271234e-10	-1.419397e+01	-5.732764e+01
1.410000e-06	-1.992487e-06	-8.167423e-10	-1.388869e+01	-5.670195e+01
1.420000e-06	-1.948554e-06	-8.054398e-10	-1.358245e+01	-5.606611e+01
1.430000e-06	-1.904557e-06	-7.965178e-10	-1.327577e+01	-5.542008e+01
1.440000e-06	-1.860520e-06	-7.888667e-10	-1.296881e+01	-5.476382e+01
1.450000e-06	-1.816368e-06	-7.789277e-10	-1.266105e+01	-5.409725e+01
1.460000e-06	-1.772155e-06	-7.665506e-10	-1.235286e+01	-5.342032e+01
1.470000e-06	-1.727861e-06	-7.536503e-10	-1.204411e+01	-5.273292e+01
1.480000e-06	-1.683358e-06	-7.413565e-10	-1.173389e+01	-5.203496e+01
1.490000e-06	-1.638748e-06	-7.290742e-10	-1.142294e+01	-5.132631e+01
1.500000e-06	-1.594075e-06	-7.150577e-10	-1.111154e+01	-5.060684e+01
1.510000e-06	-1.549227e-06	-7.005216e-10	-1.079893e+01	-4.987639e+01
1.520000e-06	-1.504255e-06	-6.865024e-10	-1.048545e+01	-4.913477e+01
1.530000e-06	-1.459182e-06	-6.722392e-10	-1.017127e+01	-4.838179e+01
1.540000e-06	-1.414025e-06	-6.588876e-10	-9.856503e+00	-4.761720e+01
1.550000e-06	-1.368818e-06	-6.477380e-10	-9.541382e+00	-4.684077e+01
1.560000e-06	-1.323494e-06	-6.359589e-10	-9.225452e+00	-4.605221e+01
1.570000e-06	-1.278016e-06	-6.227912e-10	-8.908449e+00	-4.525124e+01
1.580000e-06	-1.232459e-06	-6.107361e-10	-8.590889e+00	-4.443753e+01
1.590000e-06	-1.186876e-06	-5.992185e-10	-8.273152e+00	-4.361074e+01
1.600000e-06	-1.141197e-06	-5.851255e-10	-7.954749e+00	-4.277053e+01
1.610000e-06	-1.095411e-06	-5.706903e-10	-7.635597e+00	-4.191650e+01
1.620000e-06	-1.049511e-06	-5.559795e-10	-7.315646e+00	-4.104827e+01
1.630000e-06	-1.003503e-06	-5.414314e-10	-6.994947e+00	-4.016544e+01
1.640000e-06	-9.574621e-07	-5.249763e-10	-6.674017e+00	-3.926759e+01
1.650000e-06	-9.113755e-07	-5.044356e-10	-6.352769e+00	-3.835431e+01
1.660000e-06	-8.652523e-07	-4.871160e-10	-6.031266e+00	-3.742518e+01
1.670000e-06	-8.190973e-07	-4.736246e-10	-5.709541e+00	-3.647976e+01
1.680000e-06	-7.728104e-07	-4.610877e-10	-5.386897e+00	-3.551766e+01
1.690000e-06	-7.264653e-07	-4.479409e-10	-5.063847e+00	-3.453846e+01
1.700000e-06	-6.801167e-07	-4.333539e-10	-4.740773e+00	-3.354178e+01
1.710000e-06	-6.337426e-07	-4.149923e-10	-4.417521e+00	-3.252724e+01
1.720000e-06	-5.874044e-07	-3.935079e-10	-4.094519e+00	-3.149449e+01
1.730000e-06	-5.410649e-07	-3.733400e-10	-3.771508e+00	-3.044322e+01
1.740000e-06	-4.945839e-07	-3.562583e-10	-3.447511e+00	-2.937314e+01
1.750000e-06	-4.480237e-07	-3.424353e-10	-3.122962e+00	-2.828399e+01
1.760000e-06	-4.014964e-07	-3.309266e-10	-2.798642e+00	-2.717558e+01
1.770000e-06	-3.549706e-07	-3.183357e-10	-2.474333e+00	-2.604773e+01
1.780000e-06	-3.083682e-07	-3.042075e-10	-2.149489e+00	-2.490036e+01
1.790000e-06	-2.616908e-07	-2.875766e-10	-1.824123e+00	-2.373339e+01
1.800000e-06	-2.150166e-07	-2.661381e-10	-1.498779e+00	-2.254685e+01
1.810000e-06	-1.683515e-07	-2.426012e-10	-1.173499e+00	-2.134079e+01
1.820000e-06	-1.217009e-07	-2.217465e-10	-8.483194e-01	-2.011535e+01
1.830000e-06	-7.509101e-08	-2.039454e-10	-5.234241e-01	-1.887075e+01
1.840000e-06	-2.849954e-08	-1.893754e-10	-1.986568e-01	-1.760725e+01
1.850000e-06	1.815948e-08	-1.737385e-10	1.265811e-01	-1.632519e+01
1.860000e-06	6.487376e-08	-1.602411e-10	4.522044e-01	-1.502502e+01
1.870000e-06	1.115012e-07	-1.473009e-10	7.772221e-01	-1.370721e+01
1.880000e-06	1.580495e-07	-1.280625e-10	1.101688e+00	-1.237235e+01
1.890000e-06	2.046461e-07	-1.061450e-10	1.426492e+00	-1.102108e+01
1.900000e-06	2.513277e-07	-8.294699e-11	1.751887e+00	-9.654127e+00
1.910000e-06	2.979827e-07	-6.483082e-11	2.077097e+00	-8.272284e+00
1.920000e-06	3.445214e-07	-4.909305e-11	2.401497e+00	-6.876417e+00
1.930000e-06	3.910044e-07	-3.447701e-11	2.725508e+00	-5.467462e+00
1.940000e-06	4.375169e-07	-1.724907e-11	3.049724e+00	-4.046419e+00
1.950000e-06	4.840156e-07	6.921003e-13	3.373845e+00	-2.614352e+00
1.960000e-06	5.304644e-07	2.026928e-11	3.697617e+00	-1.172379e+00
1.970000e-06	5.768950e-07	4.198412e-11	4.021263e+00	2.783236e-01
1.980000e-06	6.233157e-07	6.327199e-11	4.344840e+00	1.736535e+00
1.990000e-06	6.697323e-07	8.397306e-11	4.668388e+00	3.200990e+00
2.000000e-06	7.160673e-07	1.017891e-10	4.991368e+00	4.670386e+00
2.010000e-06	7.623062e-07	1.198988e-10	5.313677e+00	6.143389e+00
2.020000e-06	8.084410e-07	1.376194e-10	5.635261e+00	7.618642e+00
2.030000e-06	8.544959e-07	1.568958e-10	5.956288e+00	9.094768e+00
2.040000e-06	9.004919e-07	1.805801e-10	6.276904e+00	1.057038e+01
2.050000e-06	9.463982e-07	2.032179e-10	6.596896e+00	1.204408e+01
2.060000e-06	9.922488e-07	2.232626e-10	6.916499e+00	1.351449e+01
2.070000e-06	1.038090e-06	2.432824e-10	7.236037e+00	1.498022e+01
2.080000e-06	1.083962e-06	2.633019e-10	7.555787e+00	1.643991e+01
2.090000e-06	1.129772e-06	2.833056e-10	7.875105e+00	1.789221e+01
2.100000e-06	1.175457e-06	3.016284e-10	8.193559e+00	1.933582e+01
2.110000e-06	1.221025e-06	3.224707e-10	8.511189e+00	2.076947e+01
2.120000e-06	1.266541e-06	3.436452e-10	8.828462e+00	2.219191e+01
2.130000e-06	1.311950e-06	3.651343e-10	9.144983e+00	2.360196e+01
2.140000e-06	1.357080e-06	3.878036e-10	9.459566e+00	2.499850e+01
2.150000e-06	1.402183e-06	4.077873e-10	9.773959e+00	2.638044e+01
2.160000e-06	1.447330e-06	4.252042e-10	1.008866e+01	2.774678e+01
2.170000e-06	1.492312e-06	4.426976e-10	1.040220e+01	2.909658e+01
2.180000e-06	1.537161e-06	4.613658e-10	1.071482e+01	3.042896e+01
2.190000e-06	1.581853e-06	4.799831e-10	1.102635e+01	3.174313e+01
2.200000e-06	1.626401e-06	4.971510e-10	1.133688e+01	3.303835e+01
2.210000e-06	1.670836e-06	5.151793e-10	1.164661e+01	3.431400e+01
2.220000e-06	1.715168e-06	5.339764e-10	1.195563e+01	3.556950e+01
2.230000e-06	1.759454e-06	5.541707e-10	1.226432e+01	3.680437e+01
2.240000e-06	1.803568e-06	5.700070e-10	1.257183e+01	3.801819e+01
2.250000e-06	1.847562e-06	5.848567e-10	1.287848e+01	3.921066e+01
2.260000e-06	1.891550e-06	5.986939e-10	1.318510e+01	4.038151e+01
2.270000e-06	1.935496e-06	6.111170e-10	1.349143e+01	4.153058e+01
2.280000e-06	1.979369e-06	6.262252e-10	1.379725e+01	4.265778e+01
2.290000e-06	2.023161e-06	6.428932e-10	1.410250e+01	4.376306e+01
2.300000e-06	2.066913e-06	6.600765e-10	1.440747e+01	4.484649e+01
2.310000e-06	2.110590e-06	6.773992e-10	1.471193e+01	4.590817e+01
2.320000e-06	2.154100e-06	6.918196e-10	1.501522e+01	4.694827e+01
2.330000e-06	2.197449e-06	7.027534e-10	1.531738e+01	4.796701e+01
2.340000e-06	2.240720e-06	7.126116e-10	1.561900e+01	4.896468e+01
2.350000e-06	2.283740e-06	7.230063e-10	1.591888e+01	4.994159e+01
2.360000e-06	2.326444e-06	7.357759e-10	1.621654e+01	5.089812e+01
2.370000e-06	2.368905e-06	7.482953e-10	1.651252e+01	5.183468e+01
2.380000e-06	2.411104e-06	7.629594e-10	1.680667e+01	5.275169e+01
2.390000e-06	2.452939e-06	7.763191e-10	1.709828e+01	5.364961e+01
2.400000e-06	2.494331e-06	7.869922e-10	1.738681e+01	5.452893e+01
2.410000e-06	2.535497e-06	7.979553e-10	1.767376e+01	5.539015e+01
2.420000e-06	2.576507e-06	8.107353e-10	1.795962e+01	5.623376e+01
2.430000e-06	2.617296e-06	8.238051e-10	1.824394e+01	5.706029e+01
2.440000e-06	2.657826e-06	8.363858e-10	1.852645e+01	5.787023e+01
2.450000e-06	2.698089e-06	8.506017e-10	1.880711e+01	5.866410e+01
2.460000e-06	2.738223e-06	8.648539e-10	1.908686e+01	5.944238e+01
2.470000e-06	2.778286e-06	8.765046e-10	1.936612e+01	6.020557e+01
2.480000e-06	2.818193e-06	8.857858e-10	1.964429e+01	6.095412e+01
2.490000e-06	2.857925e-06	8.920610e-10	1.992125e+01	6.168848e+01
2.500000e-06	2.897550e-06	8.999146e-10	2.019746e+01	6.240907e+01
2.510000e-06	2.937110e-06	9.114513e-10	2.047321e+01	6.311629e+01
2.520000e-06	2.976462e-06	9.230816e-10	2.074752e+01	6.381049e+01
2.530000e-06	3.015530e-06	9.346693e-10	2.101984e+01	6.449202e+01
2.540000e-06	3.054407e-06	9.452220e-10	2.129083e+01	6.516118e+01
2.550000e-06	3.093057e-06	9.526452e-10	2.156024e+01	6.581825e+01
2.560000e-06	3.131405e-06	9.594525e-10	2.182755e+01	6.646347e+01
2.570000e-06	3.169561e-06	9.661036e-10	2.209351e+01	6.709705e+01
2.580000e-06	3.207611e-06	9.722169e-10	2.235875e+01	6.771917e+01
2.590000e-06	3.245443e-06	9.787156e-10	2.262245e+01	6.832997e+01
2.600000e-06	3.283023e-06	9.863572e-10	2.288441e+01	6.892960e+01
2.610000e-06	3.320386e-06	9.965022e-10	2.314484e+01	6.951812e+01
2.620000e-06	3.357487e-06	1.006543e-09	2.340346e+01	7.009562e+01
2.630000e-06	3.394327e-06	1.016438e-09	2.366025e+01	7.066215e+01
2.640000e-06	3.430881e-06	1.025342e-09	2.391505e+01	7.121772e+01
2.650000e-06	3.467175e-06	1.031821e-09	2.416804e+01	7.176235e+01
2.660000e-06	3.503303e-06	1.038801e-09	2.441988e+01	7.229603e+01
2.670000e-06	3.539274e-06	1.045408e-09	2.467061e+01	7.281875e+01
2.680000e-06	3.575112e-06	1.050910e-09	2.492042e+01	7.333048e+01
2.690000e-06	3.610767e-06	1.056373e-09	2.516895e+01	7.383119e+01
2.700000e-06	3.646239e-06	1.063240e-09	2.541621e+01	7.432085e+01
2.710000e-06	3.681594e-06	1.071422e-09	2.566266e+01	7.479943e+01
2.720000e-06	3.716693e-06	1.080535e-09	2.590732e+01	7.526691e+01
2.730000e-06	3.751374e-06	1.091678e-09	2.614906e+01	7.572325e+01
2.740000e-06	3.785602e-06	1.101656e-09	2.638764e+01	7.616846e+01
2.750000e-06	3.819354e-06	1.108857e-09	2.662292e+01	7.660254e+01
2.760000e-06	3.852611e-06	1.113468e-09	2.685474e+01	7.702550e+01
2.770000e-06	3.885456e-06	1.116069e-09	2.708368e+01	7.743738e+01
2.780000e-06	3.917967e-06	1.118963e-09	2.731030e+01	7.783824e+01
2.790000e-06	3.950176e-06	1.121942e-09	2.753482e+01	7.822814e+01
2.800000e-06	3.982185e-06	1.127600e-09	2.775793e+01	7.860718e+01
2.810000e-06	4.014038e-06	1.138029e-09	2.797996e+01	7.897549e+01
2.820000e-06	4.045732e-06	1.150401e-09	2.820089e+01	7.933319e+01
2.830000e-06	4.077289e-06	1.159756e-09	2.842086e+01	7.968046e+01
2.840000e-06	4.108678e-06	1.164532e-09	2.863966e+01	8.001748e+01
2.850000e-06	4.139772e-06	1.165769e-09	2.885640e+01	8.034446e+01
2.860000e-06	4.170439e-06	1.165291e-09	2.907017e+01	8.066163e+01
2.870000e-06	4.200792e-06	1.165535e-09	2.928174e+01	8.096925e+01
2.880000e-06	4.230930e-06	1.168174e-09	2.949182e+01	8.126758e+01
2.890000e-06	4.260694e-06	1.176390e-09	2.969929e+01	8.155692e+01
2.900000e-06	4.290105e-06	1.187854e-09	2.990430e+01	8.183757e+01
