# Temperatura_=_-0.2
# Concentracion g/m^3_=_1620.0
# C_Vs_to_Am_M_A/Vsm_=_65563218390.804596
# pendiente_HvsI_1/m_=_3716.3
# ordenada_HvsI_A/m_=_1297.0
# frecuencia_Hz_=_135108.13368888636

Tiempo_(s)	Campo_(V.s)	Magnetizacion_(V.s)	Campo_(kA/m)	Magnetizacion_(A/m)
0.000000e+00	-5.516448e-06	-9.716056e-10	-3.837123e+01	-6.442382e+01
1.000000e-08	-5.516428e-06	-9.718897e-10	-3.837109e+01	-6.444787e+01
2.000000e-08	-5.516182e-06	-9.695647e-10	-3.836938e+01	-6.447202e+01
3.000000e-08	-5.515561e-06	-9.677203e-10	-3.836506e+01	-6.449604e+01
4.000000e-08	-5.514463e-06	-9.679091e-10	-3.835742e+01	-6.451965e+01
5.000000e-08	-5.512788e-06	-9.776367e-10	-3.834577e+01	-6.454258e+01
6.000000e-08	-5.510484e-06	-9.856027e-10	-3.832975e+01	-6.456455e+01
7.000000e-08	-5.507589e-06	-9.654430e-10	-3.830961e+01	-6.458526e+01
8.000000e-08	-5.504210e-06	-9.258479e-10	-3.828611e+01	-6.460440e+01
9.000000e-08	-5.500426e-06	-9.234044e-10	-3.825978e+01	-6.462167e+01
1.000000e-07	-5.496275e-06	-9.490968e-10	-3.823091e+01	-6.463676e+01
1.100000e-07	-5.491856e-06	-1.006420e-09	-3.820018e+01	-6.464938e+01
1.200000e-07	-5.487168e-06	-9.868741e-10	-3.816757e+01	-6.465924e+01
1.300000e-07	-5.482156e-06	-9.421526e-10	-3.813271e+01	-6.466603e+01
1.400000e-07	-5.476765e-06	-9.372211e-10	-3.809520e+01	-6.466950e+01
1.500000e-07	-5.471032e-06	-9.578192e-10	-3.805532e+01	-6.466938e+01
1.600000e-07	-5.464989e-06	-9.634739e-10	-3.801330e+01	-6.466544e+01
1.700000e-07	-5.458483e-06	-9.116696e-10	-3.796804e+01	-6.465745e+01
1.800000e-07	-5.451501e-06	-9.109261e-10	-3.791948e+01	-6.464521e+01
1.900000e-07	-5.444136e-06	-9.823656e-10	-3.786825e+01	-6.462855e+01
2.000000e-07	-5.436475e-06	-1.028779e-09	-3.781496e+01	-6.460732e+01
2.100000e-07	-5.428682e-06	-1.000919e-09	-3.776075e+01	-6.458140e+01
2.200000e-07	-5.420643e-06	-9.551693e-10	-3.770484e+01	-6.455068e+01
2.300000e-07	-5.412176e-06	-9.733440e-10	-3.764594e+01	-6.451509e+01
2.400000e-07	-5.403212e-06	-1.007797e-09	-3.758359e+01	-6.447461e+01
2.500000e-07	-5.393683e-06	-1.015980e-09	-3.751730e+01	-6.442921e+01
2.600000e-07	-5.383497e-06	-1.004019e-09	-3.744646e+01	-6.437891e+01
2.700000e-07	-5.372740e-06	-9.991567e-10	-3.737163e+01	-6.432376e+01
2.800000e-07	-5.361511e-06	-9.921347e-10	-3.729352e+01	-6.426382e+01
2.900000e-07	-5.349861e-06	-9.753327e-10	-3.721249e+01	-6.419919e+01
3.000000e-07	-5.337834e-06	-9.714889e-10	-3.712883e+01	-6.412999e+01
3.100000e-07	-5.325359e-06	-9.864937e-10	-3.704205e+01	-6.405636e+01
3.200000e-07	-5.312469e-06	-9.932593e-10	-3.695240e+01	-6.397848e+01
3.300000e-07	-5.299132e-06	-9.767440e-10	-3.685963e+01	-6.389651e+01
3.400000e-07	-5.285378e-06	-9.722995e-10	-3.676396e+01	-6.381066e+01
3.500000e-07	-5.271248e-06	-9.656956e-10	-3.666567e+01	-6.372114e+01
3.600000e-07	-5.256734e-06	-9.682913e-10	-3.656471e+01	-6.362818e+01
3.700000e-07	-5.241845e-06	-9.569831e-10	-3.646115e+01	-6.353201e+01
3.800000e-07	-5.226297e-06	-9.603028e-10	-3.635301e+01	-6.343287e+01
3.900000e-07	-5.210229e-06	-9.662352e-10	-3.624123e+01	-6.333100e+01
4.000000e-07	-5.193877e-06	-9.710226e-10	-3.612750e+01	-6.322666e+01
4.100000e-07	-5.177046e-06	-9.579267e-10	-3.601043e+01	-6.312010e+01
4.200000e-07	-5.159786e-06	-9.575628e-10	-3.589036e+01	-6.301154e+01
4.300000e-07	-5.142279e-06	-9.642086e-10	-3.576859e+01	-6.290123e+01
4.400000e-07	-5.124490e-06	-9.517169e-10	-3.564486e+01	-6.278941e+01
4.500000e-07	-5.106299e-06	-9.389564e-10	-3.551832e+01	-6.267627e+01
4.600000e-07	-5.087680e-06	-9.615392e-10	-3.538882e+01	-6.256204e+01
4.700000e-07	-5.068639e-06	-9.656458e-10	-3.525637e+01	-6.244691e+01
4.800000e-07	-5.049248e-06	-9.391608e-10	-3.512149e+01	-6.233105e+01
4.900000e-07	-5.029581e-06	-9.412627e-10	-3.498469e+01	-6.221463e+01
5.000000e-07	-5.009690e-06	-9.617348e-10	-3.484633e+01	-6.209778e+01
5.100000e-07	-4.989612e-06	-9.411513e-10	-3.470667e+01	-6.198064e+01
5.200000e-07	-4.969297e-06	-9.261187e-10	-3.456536e+01	-6.186330e+01
5.300000e-07	-4.948625e-06	-9.430780e-10	-3.442158e+01	-6.174585e+01
5.400000e-07	-4.927549e-06	-9.388870e-10	-3.427498e+01	-6.162837e+01
5.500000e-07	-4.906058e-06	-9.304644e-10	-3.412549e+01	-6.151089e+01
5.600000e-07	-4.884179e-06	-9.525889e-10	-3.397330e+01	-6.139344e+01
5.700000e-07	-4.862025e-06	-9.490736e-10	-3.381920e+01	-6.127604e+01
5.800000e-07	-4.839613e-06	-9.183902e-10	-3.366331e+01	-6.115866e+01
5.900000e-07	-4.816886e-06	-9.279110e-10	-3.350522e+01	-6.104130e+01
6.000000e-07	-4.793815e-06	-9.402602e-10	-3.334475e+01	-6.092390e+01
6.100000e-07	-4.770374e-06	-9.210675e-10	-3.318170e+01	-6.080640e+01
6.200000e-07	-4.746655e-06	-9.194489e-10	-3.301672e+01	-6.068875e+01
6.300000e-07	-4.722697e-06	-9.355119e-10	-3.285007e+01	-6.057084e+01
6.400000e-07	-4.698436e-06	-9.234863e-10	-3.268132e+01	-6.045261e+01
6.500000e-07	-4.673838e-06	-9.188648e-10	-3.251021e+01	-6.033393e+01
6.600000e-07	-4.648864e-06	-9.289144e-10	-3.233650e+01	-6.021471e+01
6.700000e-07	-4.623426e-06	-9.216132e-10	-3.215956e+01	-6.009483e+01
6.800000e-07	-4.597403e-06	-9.095499e-10	-3.197855e+01	-5.997417e+01
6.900000e-07	-4.570801e-06	-9.174513e-10	-3.179351e+01	-5.985263e+01
7.000000e-07	-4.543767e-06	-9.133193e-10	-3.160547e+01	-5.973006e+01
7.100000e-07	-4.516348e-06	-9.046544e-10	-3.141475e+01	-5.960637e+01
7.200000e-07	-4.488646e-06	-9.076684e-10	-3.122206e+01	-5.948143e+01
7.300000e-07	-4.460797e-06	-9.075000e-10	-3.102835e+01	-5.935513e+01
7.400000e-07	-4.432781e-06	-9.002125e-10	-3.083348e+01	-5.922736e+01
7.500000e-07	-4.404563e-06	-9.052200e-10	-3.063720e+01	-5.909802e+01
7.600000e-07	-4.376055e-06	-9.038577e-10	-3.043890e+01	-5.896701e+01
7.700000e-07	-4.347231e-06	-8.941252e-10	-3.023841e+01	-5.883424e+01
7.800000e-07	-4.318123e-06	-8.909122e-10	-3.003594e+01	-5.869963e+01
7.900000e-07	-4.288693e-06	-8.895760e-10	-2.983123e+01	-5.856309e+01
8.000000e-07	-4.258975e-06	-8.816785e-10	-2.962452e+01	-5.842457e+01
8.100000e-07	-4.228998e-06	-8.820939e-10	-2.941600e+01	-5.828400e+01
8.200000e-07	-4.198686e-06	-8.878416e-10	-2.920516e+01	-5.814132e+01
8.300000e-07	-4.167999e-06	-8.838227e-10	-2.899171e+01	-5.799649e+01
8.400000e-07	-4.136990e-06	-8.799520e-10	-2.877602e+01	-5.784946e+01
8.500000e-07	-4.105775e-06	-8.810759e-10	-2.855889e+01	-5.770019e+01
8.600000e-07	-4.074410e-06	-8.750170e-10	-2.834072e+01	-5.754865e+01
8.700000e-07	-4.042859e-06	-8.652270e-10	-2.812126e+01	-5.739481e+01
8.800000e-07	-4.011141e-06	-8.640129e-10	-2.790064e+01	-5.723864e+01
8.900000e-07	-3.979258e-06	-8.608427e-10	-2.767887e+01	-5.708010e+01
9.000000e-07	-3.947104e-06	-8.524560e-10	-2.745521e+01	-5.691917e+01
9.100000e-07	-3.914623e-06	-8.468961e-10	-2.722928e+01	-5.675582e+01
9.200000e-07	-3.881756e-06	-8.433947e-10	-2.700067e+01	-5.659000e+01
9.300000e-07	-3.848459e-06	-8.368680e-10	-2.676906e+01	-5.642169e+01
9.400000e-07	-3.814709e-06	-8.367993e-10	-2.653430e+01	-5.625083e+01
9.500000e-07	-3.780506e-06	-8.390423e-10	-2.629639e+01	-5.607738e+01
9.600000e-07	-3.745884e-06	-8.358847e-10	-2.605557e+01	-5.590127e+01
9.700000e-07	-3.710875e-06	-8.286692e-10	-2.581205e+01	-5.572245e+01
9.800000e-07	-3.675587e-06	-8.256703e-10	-2.556660e+01	-5.554082e+01
9.900000e-07	-3.640121e-06	-8.197257e-10	-2.531990e+01	-5.535630e+01
1.000000e-06	-3.604464e-06	-8.119784e-10	-2.507188e+01	-5.516880e+01
1.010000e-06	-3.568595e-06	-8.093728e-10	-2.482238e+01	-5.497820e+01
1.020000e-06	-3.532564e-06	-8.115177e-10	-2.457176e+01	-5.478439e+01
1.030000e-06	-3.496446e-06	-8.095492e-10	-2.432053e+01	-5.458723e+01
1.040000e-06	-3.460152e-06	-8.090280e-10	-2.406808e+01	-5.438658e+01
1.050000e-06	-3.423523e-06	-8.054031e-10	-2.381329e+01	-5.418230e+01
1.060000e-06	-3.386614e-06	-7.959354e-10	-2.355656e+01	-5.397421e+01
1.070000e-06	-3.349426e-06	-7.887046e-10	-2.329789e+01	-5.376214e+01
1.080000e-06	-3.311942e-06	-7.872954e-10	-2.303716e+01	-5.354592e+01
1.090000e-06	-3.274227e-06	-7.841600e-10	-2.277482e+01	-5.332535e+01
1.100000e-06	-3.236360e-06	-7.782443e-10	-2.251143e+01	-5.310024e+01
1.110000e-06	-3.198306e-06	-7.737123e-10	-2.224673e+01	-5.287040e+01
1.120000e-06	-3.159997e-06	-7.685638e-10	-2.198026e+01	-5.263561e+01
1.130000e-06	-3.121481e-06	-7.658659e-10	-2.171235e+01	-5.239568e+01
1.140000e-06	-3.082828e-06	-7.668172e-10	-2.144349e+01	-5.215040e+01
1.150000e-06	-3.043984e-06	-7.665171e-10	-2.117330e+01	-5.189956e+01
1.160000e-06	-3.004948e-06	-7.624030e-10	-2.090177e+01	-5.164296e+01
1.170000e-06	-2.965747e-06	-7.578832e-10	-2.062910e+01	-5.138042e+01
1.180000e-06	-2.926275e-06	-7.519010e-10	-2.035455e+01	-5.111173e+01
1.190000e-06	-2.886622e-06	-7.458900e-10	-2.007873e+01	-5.083672e+01
1.200000e-06	-2.846837e-06	-7.420380e-10	-1.980199e+01	-5.055521e+01
1.210000e-06	-2.806963e-06	-7.404421e-10	-1.952464e+01	-5.026704e+01
1.220000e-06	-2.766988e-06	-7.369921e-10	-1.924657e+01	-4.997205e+01
1.230000e-06	-2.726807e-06	-7.355797e-10	-1.896709e+01	-4.967011e+01
1.240000e-06	-2.686445e-06	-7.335555e-10	-1.868634e+01	-4.936110e+01
1.250000e-06	-2.645982e-06	-7.271453e-10	-1.840489e+01	-4.904490e+01
1.260000e-06	-2.605285e-06	-7.213415e-10	-1.812180e+01	-4.872141e+01
1.270000e-06	-2.564270e-06	-7.178304e-10	-1.783651e+01	-4.839055e+01
1.280000e-06	-2.522994e-06	-7.117829e-10	-1.754941e+01	-4.805227e+01
1.290000e-06	-2.481426e-06	-7.036602e-10	-1.726027e+01	-4.770650e+01
1.300000e-06	-2.439511e-06	-6.949912e-10	-1.696871e+01	-4.735320e+01
1.310000e-06	-2.397233e-06	-6.888912e-10	-1.667464e+01	-4.699235e+01
1.320000e-06	-2.354626e-06	-6.828545e-10	-1.637827e+01	-4.662395e+01
1.330000e-06	-2.311717e-06	-6.809906e-10	-1.607981e+01	-4.624798e+01
1.340000e-06	-2.268616e-06	-6.819742e-10	-1.578001e+01	-4.586445e+01
1.350000e-06	-2.225355e-06	-6.798208e-10	-1.547909e+01	-4.547338e+01
1.360000e-06	-2.181931e-06	-6.721345e-10	-1.517705e+01	-4.507479e+01
1.370000e-06	-2.138406e-06	-6.632296e-10	-1.487429e+01	-4.466870e+01
1.380000e-06	-2.094766e-06	-6.537827e-10	-1.457075e+01	-4.425513e+01
1.390000e-06	-2.051024e-06	-6.434123e-10	-1.426649e+01	-4.383412e+01
1.400000e-06	-2.007233e-06	-6.361479e-10	-1.396188e+01	-4.340568e+01
1.410000e-06	-1.963369e-06	-6.298342e-10	-1.365677e+01	-4.296982e+01
1.420000e-06	-1.919388e-06	-6.239529e-10	-1.335085e+01	-4.252654e+01
1.430000e-06	-1.875325e-06	-6.186827e-10	-1.304436e+01	-4.207584e+01
1.440000e-06	-1.831205e-06	-6.126535e-10	-1.273747e+01	-4.161770e+01
1.450000e-06	-1.787023e-06	-6.043977e-10	-1.243015e+01	-4.115207e+01
1.460000e-06	-1.742696e-06	-5.959439e-10	-1.212182e+01	-4.067890e+01
1.470000e-06	-1.698189e-06	-5.864619e-10	-1.181224e+01	-4.019810e+01
1.480000e-06	-1.653619e-06	-5.759250e-10	-1.150222e+01	-3.970957e+01
1.490000e-06	-1.609000e-06	-5.656707e-10	-1.119186e+01	-3.921317e+01
1.500000e-06	-1.564152e-06	-5.572982e-10	-1.087991e+01	-3.870875e+01
1.510000e-06	-1.519073e-06	-5.469315e-10	-1.056635e+01	-3.819612e+01
1.520000e-06	-1.473805e-06	-5.342466e-10	-1.025148e+01	-3.767506e+01
1.530000e-06	-1.428325e-06	-5.221085e-10	-9.935122e+00	-3.714532e+01
1.540000e-06	-1.382814e-06	-5.138049e-10	-9.618560e+00	-3.660662e+01
1.550000e-06	-1.337395e-06	-5.049676e-10	-9.302635e+00	-3.605865e+01
1.560000e-06	-1.291889e-06	-4.939999e-10	-8.986104e+00	-3.550107e+01
1.570000e-06	-1.246287e-06	-4.820485e-10	-8.668902e+00	-3.493349e+01
1.580000e-06	-1.200676e-06	-4.695047e-10	-8.351647e+00	-3.435554e+01
1.590000e-06	-1.154938e-06	-4.560954e-10	-8.033503e+00	-3.376676e+01
1.600000e-06	-1.109058e-06	-4.440093e-10	-7.714368e+00	-3.316673e+01
1.610000e-06	-1.063081e-06	-4.314086e-10	-7.394566e+00	-3.255495e+01
1.620000e-06	-1.017059e-06	-4.190459e-10	-7.074444e+00	-3.193095e+01
1.630000e-06	-9.709704e-07	-4.099824e-10	-6.753863e+00	-3.129421e+01
1.640000e-06	-9.248511e-07	-4.001888e-10	-6.433066e+00	-3.064422e+01
1.650000e-06	-8.787274e-07	-3.879922e-10	-6.112240e+00	-2.998044e+01
1.660000e-06	-8.325144e-07	-3.744617e-10	-5.790792e+00	-2.930235e+01
1.670000e-06	-7.862492e-07	-3.627909e-10	-5.468981e+00	-2.860942e+01
1.680000e-06	-7.400010e-07	-3.515513e-10	-5.147288e+00	-2.790114e+01
1.690000e-06	-6.937620e-07	-3.418164e-10	-4.825660e+00	-2.717699e+01
1.700000e-06	-6.473876e-07	-3.321692e-10	-4.503090e+00	-2.643648e+01
1.710000e-06	-6.008611e-07	-3.198942e-10	-4.179461e+00	-2.567915e+01
1.720000e-06	-5.543576e-07	-3.059529e-10	-3.855993e+00	-2.490456e+01
1.730000e-06	-5.078255e-07	-2.934683e-10	-3.532325e+00	-2.411231e+01
1.740000e-06	-4.611820e-07	-2.811726e-10	-3.207883e+00	-2.330202e+01
1.750000e-06	-4.145039e-07	-2.690166e-10	-2.883200e+00	-2.247338e+01
1.760000e-06	-3.678183e-07	-2.568597e-10	-2.558465e+00	-2.162613e+01
1.770000e-06	-3.210984e-07	-2.456278e-10	-2.233492e+00	-2.076004e+01
1.780000e-06	-2.743508e-07	-2.355073e-10	-1.908326e+00	-1.987497e+01
1.790000e-06	-2.275949e-07	-2.238619e-10	-1.583102e+00	-1.897082e+01
1.800000e-06	-1.807811e-07	-2.096917e-10	-1.257475e+00	-1.804758e+01
1.810000e-06	-1.339143e-07	-1.924806e-10	-9.314794e-01	-1.710529e+01
1.820000e-06	-8.711196e-08	-1.755980e-10	-6.059321e-01	-1.614409e+01
1.830000e-06	-4.034565e-08	-1.613599e-10	-2.806357e-01	-1.516417e+01
1.840000e-06	6.535041e-09	-1.489600e-10	4.545635e-02	-1.416584e+01
1.850000e-06	5.347346e-08	-1.391986e-10	3.719500e-01	-1.314945e+01
1.860000e-06	1.003792e-07	-1.277387e-10	6.982162e-01	-1.211545e+01
1.870000e-06	1.472207e-07	-1.137587e-10	1.024036e+00	-1.106438e+01
1.880000e-06	1.939902e-07	-9.743270e-11	1.349355e+00	-9.996850e+00
1.890000e-06	2.406973e-07	-7.988854e-11	1.674239e+00	-8.913566e+00
1.900000e-06	2.873449e-07	-6.300582e-11	1.998710e+00	-7.815301e+00
1.910000e-06	3.340420e-07	-4.596589e-11	2.323525e+00	-6.702914e+00
1.920000e-06	3.808626e-07	-3.311977e-11	2.649199e+00	-5.577334e+00
1.930000e-06	4.276315e-07	-2.138632e-11	2.974513e+00	-4.439565e+00
1.940000e-06	4.742099e-07	-1.037773e-11	3.298502e+00	-3.290677e+00
1.950000e-06	5.207049e-07	7.531800e-13	3.621912e+00	-2.131804e+00
1.960000e-06	5.672153e-07	1.441148e-11	3.945428e+00	-9.641359e-01
1.970000e-06	6.137466e-07	3.207746e-11	4.269090e+00	2.110848e-01
1.980000e-06	6.601691e-07	5.218138e-11	4.591995e+00	1.392570e+00
1.990000e-06	7.065340e-07	7.226214e-11	4.914500e+00	2.578991e+00
2.000000e-06	7.529075e-07	9.059122e-11	5.237063e+00	3.768990e+00
2.010000e-06	7.992295e-07	1.057156e-10	5.559270e+00	4.961181e+00
2.020000e-06	8.454561e-07	1.182427e-10	5.880812e+00	6.154162e+00
2.030000e-06	8.915907e-07	1.309439e-10	6.201714e+00	7.346522e+00
2.040000e-06	9.376627e-07	1.450020e-10	6.522181e+00	8.536846e+00
2.050000e-06	9.837224e-07	1.602162e-10	6.842562e+00	9.723726e+00
2.060000e-06	1.029698e-06	1.755498e-10	7.162361e+00	1.090577e+01
2.070000e-06	1.075561e-06	1.936868e-10	7.481372e+00	1.208159e+01
2.080000e-06	1.121414e-06	2.115926e-10	7.800317e+00	1.324986e+01
2.090000e-06	1.167251e-06	2.286759e-10	8.119148e+00	1.440925e+01
2.100000e-06	1.213005e-06	2.450039e-10	8.437404e+00	1.555851e+01
2.110000e-06	1.258626e-06	2.589657e-10	8.754734e+00	1.669642e+01
2.120000e-06	1.304073e-06	2.734734e-10	9.070854e+00	1.782181e+01
2.130000e-06	1.349377e-06	2.878892e-10	9.385980e+00	1.893358e+01
2.140000e-06	1.394637e-06	3.023363e-10	9.700794e+00	2.003070e+01
2.150000e-06	1.439853e-06	3.164051e-10	1.001531e+01	2.111221e+01
2.160000e-06	1.484948e-06	3.341956e-10	1.032898e+01	2.217722e+01
2.170000e-06	1.529907e-06	3.526537e-10	1.064170e+01	2.322492e+01
2.180000e-06	1.574795e-06	3.681866e-10	1.095394e+01	2.425459e+01
2.190000e-06	1.619589e-06	3.811075e-10	1.126552e+01	2.526560e+01
2.200000e-06	1.664234e-06	3.930985e-10	1.157606e+01	2.625737e+01
2.210000e-06	1.708707e-06	4.068362e-10	1.188540e+01	2.722946e+01
2.220000e-06	1.753053e-06	4.235328e-10	1.219386e+01	2.818147e+01
2.230000e-06	1.797274e-06	4.398514e-10	1.250145e+01	2.911312e+01
2.240000e-06	1.841382e-06	4.525770e-10	1.280826e+01	3.002420e+01
2.250000e-06	1.885416e-06	4.627198e-10	1.311455e+01	3.091458e+01
2.260000e-06	1.929350e-06	4.717013e-10	1.342015e+01	3.178422e+01
2.270000e-06	1.973232e-06	4.804092e-10	1.372538e+01	3.263317e+01
2.280000e-06	2.017077e-06	4.923064e-10	1.403036e+01	3.346152e+01
2.290000e-06	2.060819e-06	5.055564e-10	1.433462e+01	3.426946e+01
2.300000e-06	2.104489e-06	5.180355e-10	1.463838e+01	3.505724e+01
2.310000e-06	2.148131e-06	5.307785e-10	1.494194e+01	3.582517e+01
2.320000e-06	2.191652e-06	5.435556e-10	1.524466e+01	3.657362e+01
2.330000e-06	2.234992e-06	5.529358e-10	1.554613e+01	3.730300e+01
2.340000e-06	2.278190e-06	5.589703e-10	1.584661e+01	3.801377e+01
2.350000e-06	2.321280e-06	5.640566e-10	1.614633e+01	3.870643e+01
2.360000e-06	2.364207e-06	5.695903e-10	1.644492e+01	3.938152e+01
2.370000e-06	2.406811e-06	5.772061e-10	1.674126e+01	4.003958e+01
2.380000e-06	2.449021e-06	5.880666e-10	1.703487e+01	4.068121e+01
2.390000e-06	2.490855e-06	6.025376e-10	1.732585e+01	4.130698e+01
2.400000e-06	2.532356e-06	6.162088e-10	1.761453e+01	4.191750e+01
2.410000e-06	2.573542e-06	6.266083e-10	1.790100e+01	4.251336e+01
2.420000e-06	2.614389e-06	6.324793e-10	1.818513e+01	4.309517e+01
2.430000e-06	2.655014e-06	6.364153e-10	1.846771e+01	4.366350e+01
2.440000e-06	2.695446e-06	6.427091e-10	1.874894e+01	4.421894e+01
2.450000e-06	2.735649e-06	6.512620e-10	1.902859e+01	4.476203e+01
2.460000e-06	2.775735e-06	6.592690e-10	1.930742e+01	4.529330e+01
2.470000e-06	2.815694e-06	6.662141e-10	1.958537e+01	4.581325e+01
2.480000e-06	2.855524e-06	6.727828e-10	1.986241e+01	4.632235e+01
2.490000e-06	2.895212e-06	6.798613e-10	2.013847e+01	4.682105e+01
2.500000e-06	2.934747e-06	6.885376e-10	2.041347e+01	4.730974e+01
2.510000e-06	2.974194e-06	6.974648e-10	2.068786e+01	4.778879e+01
2.520000e-06	3.013459e-06	7.052049e-10	2.096097e+01	4.825852e+01
2.530000e-06	3.052452e-06	7.120613e-10	2.123220e+01	4.871922e+01
2.540000e-06	3.091174e-06	7.162882e-10	2.150155e+01	4.917113e+01
2.550000e-06	3.129707e-06	7.189107e-10	2.176957e+01	4.961447e+01
2.560000e-06	3.168032e-06	7.226944e-10	2.203615e+01	5.004938e+01
2.570000e-06	3.206101e-06	7.281296e-10	2.230095e+01	5.047602e+01
2.580000e-06	3.243968e-06	7.326789e-10	2.256435e+01	5.089446e+01
2.590000e-06	3.281679e-06	7.375783e-10	2.282665e+01	5.130478e+01
2.600000e-06	3.319175e-06	7.444193e-10	2.308747e+01	5.170699e+01
2.610000e-06	3.356395e-06	7.518941e-10	2.334636e+01	5.210111e+01
2.620000e-06	3.393353e-06	7.595125e-10	2.360343e+01	5.248710e+01
2.630000e-06	3.430064e-06	7.650370e-10	2.385879e+01	5.286493e+01
2.640000e-06	3.466569e-06	7.681341e-10	2.411271e+01	5.323453e+01
2.650000e-06	3.502839e-06	7.714598e-10	2.436500e+01	5.359581e+01
2.660000e-06	3.538886e-06	7.744294e-10	2.461574e+01	5.394869e+01
2.670000e-06	3.574756e-06	7.761058e-10	2.486524e+01	5.429309e+01
2.680000e-06	3.610488e-06	7.775494e-10	2.511378e+01	5.462888e+01
2.690000e-06	3.646120e-06	7.825564e-10	2.536163e+01	5.495599e+01
2.700000e-06	3.681627e-06	7.905967e-10	2.560861e+01	5.527432e+01
2.710000e-06	3.716899e-06	7.982881e-10	2.585395e+01	5.558377e+01
2.720000e-06	3.751906e-06	8.074885e-10	2.609746e+01	5.588429e+01
2.730000e-06	3.786512e-06	8.147577e-10	2.633817e+01	5.617581e+01
2.740000e-06	3.820573e-06	8.175490e-10	2.657509e+01	5.645830e+01
2.750000e-06	3.854128e-06	8.181884e-10	2.680849e+01	5.673173e+01
2.760000e-06	3.887238e-06	8.185504e-10	2.703879e+01	5.699610e+01
2.770000e-06	3.919961e-06	8.216677e-10	2.726641e+01	5.725145e+01
2.780000e-06	3.952357e-06	8.286390e-10	2.749175e+01	5.749782e+01
2.790000e-06	3.984547e-06	8.377322e-10	2.771566e+01	5.773531e+01
2.800000e-06	4.016528e-06	8.474163e-10	2.793811e+01	5.796401e+01
2.810000e-06	4.048321e-06	8.553537e-10	2.815925e+01	5.818406e+01
2.820000e-06	4.079972e-06	8.598529e-10	2.837941e+01	5.839563e+01
2.830000e-06	4.111370e-06	8.608457e-10	2.859781e+01	5.859892e+01
2.840000e-06	4.142439e-06	8.597658e-10	2.881392e+01	5.879413e+01
2.850000e-06	4.173215e-06	8.598857e-10	2.902799e+01	5.898152e+01
2.860000e-06	4.203684e-06	8.616952e-10	2.923992e+01	5.916136e+01
2.870000e-06	4.233781e-06	8.654707e-10	2.944927e+01	5.933394e+01
2.880000e-06	4.263594e-06	8.732711e-10	2.965665e+01	5.949957e+01
2.890000e-06	4.293242e-06	8.808147e-10	2.986287e+01	5.965858e+01
2.900000e-06	4.322667e-06	8.874783e-10	3.006755e+01	5.981131e+01
