# Temperatura_=_-4.28
# Concentracion g/m^3_=_1620.0
# C_Vs_to_Am_M_A/Vsm_=_65563218390.804596
# pendiente_HvsI_1/m_=_3716.3
# ordenada_HvsI_A/m_=_1297.0
# frecuencia_Hz_=_135096.58179184428

Tiempo_(s)	Campo_(V.s)	Magnetizacion_(V.s)	Campo_(kA/m)	Magnetizacion_(A/m)
0.000000e+00	-5.527462e-06	-9.828296e-10	-3.836740e+01	-6.532583e+01
1.000000e-08	-5.527620e-06	-9.824790e-10	-3.836850e+01	-6.532518e+01
2.000000e-08	-5.527611e-06	-9.797888e-10	-3.836844e+01	-6.532393e+01
3.000000e-08	-5.527270e-06	-9.756111e-10	-3.836607e+01	-6.532200e+01
4.000000e-08	-5.526493e-06	-9.713882e-10	-3.836068e+01	-6.531928e+01
5.000000e-08	-5.525127e-06	-9.670206e-10	-3.835120e+01	-6.531568e+01
6.000000e-08	-5.523063e-06	-9.525267e-10	-3.833687e+01	-6.531108e+01
7.000000e-08	-5.520409e-06	-9.368360e-10	-3.831845e+01	-6.530536e+01
8.000000e-08	-5.517245e-06	-9.685326e-10	-3.829649e+01	-6.529842e+01
9.000000e-08	-5.513561e-06	-1.046616e-09	-3.827091e+01	-6.529012e+01
1.000000e-07	-5.509394e-06	-1.043031e-09	-3.824199e+01	-6.528034e+01
1.100000e-07	-5.504974e-06	-9.530875e-10	-3.821131e+01	-6.526895e+01
1.200000e-07	-5.500423e-06	-8.740067e-10	-3.817972e+01	-6.525584e+01
1.300000e-07	-5.495595e-06	-9.568033e-10	-3.814621e+01	-6.524087e+01
1.400000e-07	-5.490402e-06	-1.015292e-09	-3.811016e+01	-6.522393e+01
1.500000e-07	-5.484731e-06	-9.585789e-10	-3.807080e+01	-6.520490e+01
1.600000e-07	-5.478638e-06	-8.932741e-10	-3.802851e+01	-6.518367e+01
1.700000e-07	-5.472260e-06	-9.540210e-10	-3.798424e+01	-6.516013e+01
1.800000e-07	-5.465401e-06	-1.029929e-09	-3.793662e+01	-6.513417e+01
1.900000e-07	-5.458119e-06	-9.869186e-10	-3.788608e+01	-6.510571e+01
2.000000e-07	-5.450582e-06	-9.343490e-10	-3.783377e+01	-6.507467e+01
2.100000e-07	-5.442805e-06	-9.742297e-10	-3.777978e+01	-6.504096e+01
2.200000e-07	-5.434784e-06	-1.046803e-09	-3.772411e+01	-6.500452e+01
2.300000e-07	-5.426492e-06	-1.026887e-09	-3.766655e+01	-6.496529e+01
2.400000e-07	-5.417830e-06	-9.975043e-10	-3.760642e+01	-6.492323e+01
2.500000e-07	-5.408377e-06	-1.002933e-09	-3.754081e+01	-6.487830e+01
2.600000e-07	-5.398051e-06	-1.038243e-09	-3.746913e+01	-6.483048e+01
2.700000e-07	-5.387263e-06	-1.022362e-09	-3.739425e+01	-6.477974e+01
2.800000e-07	-5.376141e-06	-1.010757e-09	-3.731705e+01	-6.472610e+01
2.900000e-07	-5.364593e-06	-1.014717e-09	-3.723690e+01	-6.466954e+01
3.000000e-07	-5.352663e-06	-1.038491e-09	-3.715408e+01	-6.461009e+01
3.100000e-07	-5.340331e-06	-1.015121e-09	-3.706849e+01	-6.454778e+01
3.200000e-07	-5.327525e-06	-9.952389e-10	-3.697959e+01	-6.448262e+01
3.300000e-07	-5.314270e-06	-9.968252e-10	-3.688759e+01	-6.441468e+01
3.400000e-07	-5.300715e-06	-1.016866e-09	-3.679350e+01	-6.434399e+01
3.500000e-07	-5.286743e-06	-1.002172e-09	-3.669652e+01	-6.427061e+01
3.600000e-07	-5.272327e-06	-1.001030e-09	-3.659646e+01	-6.419460e+01
3.700000e-07	-5.257409e-06	-1.020001e-09	-3.649290e+01	-6.411602e+01
3.800000e-07	-5.241988e-06	-1.014313e-09	-3.638586e+01	-6.403495e+01
3.900000e-07	-5.225934e-06	-9.856998e-10	-3.627443e+01	-6.395145e+01
4.000000e-07	-5.209241e-06	-1.000737e-09	-3.615856e+01	-6.386561e+01
4.100000e-07	-5.192369e-06	-1.023203e-09	-3.604145e+01	-6.377749e+01
4.200000e-07	-5.175272e-06	-9.829964e-10	-3.592277e+01	-6.368716e+01
4.300000e-07	-5.157765e-06	-9.710806e-10	-3.580125e+01	-6.359471e+01
4.400000e-07	-5.139950e-06	-1.017711e-09	-3.567759e+01	-6.350019e+01
4.500000e-07	-5.121936e-06	-1.023460e-09	-3.555255e+01	-6.340368e+01
4.600000e-07	-5.103439e-06	-9.682146e-10	-3.542416e+01	-6.330524e+01
4.700000e-07	-5.084426e-06	-9.805303e-10	-3.529219e+01	-6.320493e+01
4.800000e-07	-5.065132e-06	-1.013671e-09	-3.515826e+01	-6.310280e+01
4.900000e-07	-5.045646e-06	-9.891564e-10	-3.502301e+01	-6.299890e+01
5.000000e-07	-5.025990e-06	-9.660952e-10	-3.488657e+01	-6.289327e+01
5.100000e-07	-5.006086e-06	-9.969413e-10	-3.474841e+01	-6.278594e+01
5.200000e-07	-4.985854e-06	-9.831670e-10	-3.460798e+01	-6.267694e+01
5.300000e-07	-4.965167e-06	-9.555069e-10	-3.446439e+01	-6.256629e+01
5.400000e-07	-4.944109e-06	-9.795624e-10	-3.431822e+01	-6.245400e+01
5.500000e-07	-4.922726e-06	-9.972135e-10	-3.416980e+01	-6.234008e+01
5.600000e-07	-4.900974e-06	-9.538048e-10	-3.401880e+01	-6.222451e+01
5.700000e-07	-4.878991e-06	-9.523719e-10	-3.386621e+01	-6.210730e+01
5.800000e-07	-4.856732e-06	-9.793451e-10	-3.371171e+01	-6.198842e+01
5.900000e-07	-4.834085e-06	-9.594696e-10	-3.355451e+01	-6.186786e+01
6.000000e-07	-4.811065e-06	-9.353703e-10	-3.339473e+01	-6.174558e+01
6.100000e-07	-4.787766e-06	-9.587790e-10	-3.323301e+01	-6.162155e+01
6.200000e-07	-4.764237e-06	-9.559442e-10	-3.306968e+01	-6.149573e+01
6.300000e-07	-4.740408e-06	-9.304349e-10	-3.290428e+01	-6.136808e+01
6.400000e-07	-4.716269e-06	-9.398744e-10	-3.273672e+01	-6.123855e+01
6.500000e-07	-4.691775e-06	-9.490411e-10	-3.256671e+01	-6.110710e+01
6.600000e-07	-4.666823e-06	-9.271142e-10	-3.239351e+01	-6.097368e+01
6.700000e-07	-4.641357e-06	-9.259853e-10	-3.221674e+01	-6.083824e+01
6.800000e-07	-4.615330e-06	-9.375394e-10	-3.203609e+01	-6.070072e+01
6.900000e-07	-4.588767e-06	-9.244412e-10	-3.185171e+01	-6.056109e+01
7.000000e-07	-4.561813e-06	-9.179413e-10	-3.166461e+01	-6.041929e+01
7.100000e-07	-4.534492e-06	-9.288814e-10	-3.147497e+01	-6.027529e+01
7.200000e-07	-4.506893e-06	-9.245485e-10	-3.128340e+01	-6.012904e+01
7.300000e-07	-4.479216e-06	-9.102523e-10	-3.109128e+01	-5.998050e+01
7.400000e-07	-4.451377e-06	-9.139935e-10	-3.089805e+01	-5.982965e+01
7.500000e-07	-4.423257e-06	-9.126043e-10	-3.070286e+01	-5.967645e+01
7.600000e-07	-4.394786e-06	-9.049762e-10	-3.050524e+01	-5.952089e+01
7.700000e-07	-4.365928e-06	-9.043904e-10	-3.030493e+01	-5.936295e+01
7.800000e-07	-4.336788e-06	-9.043894e-10	-3.010266e+01	-5.920263e+01
7.900000e-07	-4.307452e-06	-8.944655e-10	-2.989903e+01	-5.903991e+01
8.000000e-07	-4.277878e-06	-8.973781e-10	-2.969375e+01	-5.887479e+01
8.100000e-07	-4.247986e-06	-8.996967e-10	-2.948626e+01	-5.870730e+01
8.200000e-07	-4.217734e-06	-8.929128e-10	-2.927628e+01	-5.853743e+01
8.300000e-07	-4.187207e-06	-8.882678e-10	-2.906439e+01	-5.836521e+01
8.400000e-07	-4.156431e-06	-8.899935e-10	-2.885076e+01	-5.819067e+01
8.500000e-07	-4.125380e-06	-8.809588e-10	-2.863523e+01	-5.801382e+01
8.600000e-07	-4.094119e-06	-8.731686e-10	-2.841824e+01	-5.783470e+01
8.700000e-07	-4.062646e-06	-8.720286e-10	-2.819978e+01	-5.765335e+01
8.800000e-07	-4.030956e-06	-8.719975e-10	-2.797981e+01	-5.746979e+01
8.900000e-07	-3.999043e-06	-8.688423e-10	-2.775829e+01	-5.728406e+01
9.000000e-07	-3.966927e-06	-8.706715e-10	-2.753537e+01	-5.709620e+01
9.100000e-07	-3.934473e-06	-8.666202e-10	-2.731010e+01	-5.690624e+01
9.200000e-07	-3.901658e-06	-8.563412e-10	-2.708232e+01	-5.671421e+01
9.300000e-07	-3.868502e-06	-8.529645e-10	-2.685217e+01	-5.652014e+01
9.400000e-07	-3.834867e-06	-8.550312e-10	-2.661871e+01	-5.632406e+01
9.500000e-07	-3.800621e-06	-8.507726e-10	-2.638100e+01	-5.612597e+01
9.600000e-07	-3.765760e-06	-8.483381e-10	-2.613902e+01	-5.592590e+01
9.700000e-07	-3.730646e-06	-8.526785e-10	-2.589529e+01	-5.572384e+01
9.800000e-07	-3.695384e-06	-8.498501e-10	-2.565052e+01	-5.551979e+01
9.900000e-07	-3.659894e-06	-8.403109e-10	-2.540418e+01	-5.531373e+01
1.000000e-06	-3.624265e-06	-8.360738e-10	-2.515687e+01	-5.510564e+01
1.010000e-06	-3.588546e-06	-8.327896e-10	-2.490894e+01	-5.489547e+01
1.020000e-06	-3.552640e-06	-8.263263e-10	-2.465971e+01	-5.468318e+01
1.030000e-06	-3.516551e-06	-8.273559e-10	-2.440920e+01	-5.446871e+01
1.040000e-06	-3.480312e-06	-8.280658e-10	-2.415766e+01	-5.425197e+01
1.050000e-06	-3.443756e-06	-8.220671e-10	-2.390392e+01	-5.403287e+01
1.060000e-06	-3.406878e-06	-8.120148e-10	-2.364794e+01	-5.381132e+01
1.070000e-06	-3.369741e-06	-8.087321e-10	-2.339016e+01	-5.358719e+01
1.080000e-06	-3.332408e-06	-8.048693e-10	-2.313102e+01	-5.336035e+01
1.090000e-06	-3.294847e-06	-8.024100e-10	-2.287030e+01	-5.313065e+01
1.100000e-06	-3.256942e-06	-8.009092e-10	-2.260720e+01	-5.289794e+01
1.110000e-06	-3.218778e-06	-7.969562e-10	-2.234229e+01	-5.266204e+01
1.120000e-06	-3.180483e-06	-7.875766e-10	-2.207648e+01	-5.242277e+01
1.130000e-06	-3.141975e-06	-7.812664e-10	-2.180919e+01	-5.217992e+01
1.140000e-06	-3.103196e-06	-7.758533e-10	-2.154001e+01	-5.193330e+01
1.150000e-06	-3.064204e-06	-7.675590e-10	-2.126935e+01	-5.168268e+01
1.160000e-06	-3.025049e-06	-7.600846e-10	-2.099757e+01	-5.142783e+01
1.170000e-06	-2.985751e-06	-7.559742e-10	-2.072479e+01	-5.116853e+01
1.180000e-06	-2.946348e-06	-7.529331e-10	-2.045129e+01	-5.090453e+01
1.190000e-06	-2.906825e-06	-7.509934e-10	-2.017695e+01	-5.063558e+01
1.200000e-06	-2.867145e-06	-7.500222e-10	-1.990152e+01	-5.036143e+01
1.210000e-06	-2.827319e-06	-7.466115e-10	-1.962508e+01	-5.008183e+01
1.220000e-06	-2.787330e-06	-7.376673e-10	-1.934751e+01	-4.979653e+01
1.230000e-06	-2.747207e-06	-7.286804e-10	-1.906901e+01	-4.950526e+01
1.240000e-06	-2.706879e-06	-7.218180e-10	-1.878908e+01	-4.920779e+01
1.250000e-06	-2.666298e-06	-7.157191e-10	-1.850739e+01	-4.890384e+01
1.260000e-06	-2.625367e-06	-7.126458e-10	-1.822328e+01	-4.859319e+01
1.270000e-06	-2.584090e-06	-7.106266e-10	-1.793677e+01	-4.827558e+01
1.280000e-06	-2.542522e-06	-7.085219e-10	-1.764824e+01	-4.795079e+01
1.290000e-06	-2.500745e-06	-7.023771e-10	-1.735826e+01	-4.761857e+01
1.300000e-06	-2.458819e-06	-6.945011e-10	-1.706723e+01	-4.727872e+01
1.310000e-06	-2.416608e-06	-6.873444e-10	-1.677424e+01	-4.693102e+01
1.320000e-06	-2.373987e-06	-6.790211e-10	-1.647840e+01	-4.657527e+01
1.330000e-06	-2.331031e-06	-6.706457e-10	-1.618023e+01	-4.621128e+01
1.340000e-06	-2.287904e-06	-6.645426e-10	-1.588088e+01	-4.583887e+01
1.350000e-06	-2.244677e-06	-6.579471e-10	-1.558083e+01	-4.545787e+01
1.360000e-06	-2.201395e-06	-6.508400e-10	-1.528040e+01	-4.506812e+01
1.370000e-06	-2.157945e-06	-6.439574e-10	-1.497880e+01	-4.466948e+01
1.380000e-06	-2.114314e-06	-6.386775e-10	-1.467595e+01	-4.426180e+01
1.390000e-06	-2.070619e-06	-6.323133e-10	-1.437265e+01	-4.384497e+01
1.400000e-06	-2.026825e-06	-6.246060e-10	-1.406866e+01	-4.341886e+01
1.410000e-06	-1.982894e-06	-6.154974e-10	-1.376373e+01	-4.298337e+01
1.420000e-06	-1.938848e-06	-6.059372e-10	-1.345800e+01	-4.253840e+01
1.430000e-06	-1.894732e-06	-5.965950e-10	-1.315178e+01	-4.208387e+01
1.440000e-06	-1.850571e-06	-5.893742e-10	-1.284525e+01	-4.161969e+01
1.450000e-06	-1.806315e-06	-5.818093e-10	-1.253806e+01	-4.114579e+01
1.460000e-06	-1.761880e-06	-5.751708e-10	-1.222962e+01	-4.066208e+01
1.470000e-06	-1.717329e-06	-5.675683e-10	-1.192038e+01	-4.016852e+01
1.480000e-06	-1.672659e-06	-5.585567e-10	-1.161031e+01	-3.966503e+01
1.490000e-06	-1.627814e-06	-5.484592e-10	-1.129904e+01	-3.915155e+01
1.500000e-06	-1.582896e-06	-5.379380e-10	-1.098725e+01	-3.862801e+01
1.510000e-06	-1.537856e-06	-5.286543e-10	-1.067462e+01	-3.809436e+01
1.520000e-06	-1.492549e-06	-5.181590e-10	-1.036013e+01	-3.755053e+01
1.530000e-06	-1.447125e-06	-5.079358e-10	-1.004483e+01	-3.699644e+01
1.540000e-06	-1.401669e-06	-4.990886e-10	-9.729315e+00	-3.643204e+01
1.550000e-06	-1.356132e-06	-4.899542e-10	-9.413229e+00	-3.585723e+01
1.560000e-06	-1.310632e-06	-4.821269e-10	-9.097405e+00	-3.527194e+01
1.570000e-06	-1.265056e-06	-4.731537e-10	-8.781046e+00	-3.467608e+01
1.580000e-06	-1.219334e-06	-4.658613e-10	-8.463684e+00	-3.406954e+01
1.590000e-06	-1.173539e-06	-4.596065e-10	-8.145809e+00	-3.345224e+01
1.600000e-06	-1.127548e-06	-4.514125e-10	-7.826572e+00	-3.282405e+01
1.610000e-06	-1.081405e-06	-4.425166e-10	-7.506285e+00	-3.218485e+01
1.620000e-06	-1.035286e-06	-4.322278e-10	-7.186164e+00	-3.153453e+01
1.630000e-06	-9.891722e-07	-4.227285e-10	-6.866075e+00	-3.087295e+01
1.640000e-06	-9.429894e-07	-4.110397e-10	-6.545510e+00	-3.019997e+01
1.650000e-06	-8.967157e-07	-3.984431e-10	-6.224314e+00	-2.951545e+01
1.660000e-06	-8.503464e-07	-3.882097e-10	-5.902453e+00	-2.881923e+01
1.670000e-06	-8.039395e-07	-3.790752e-10	-5.580332e+00	-2.811117e+01
1.680000e-06	-7.575728e-07	-3.677993e-10	-5.258490e+00	-2.739112e+01
1.690000e-06	-7.112000e-07	-3.572458e-10	-4.936606e+00	-2.665892e+01
1.700000e-06	-6.647371e-07	-3.458663e-10	-4.614096e+00	-2.591443e+01
1.710000e-06	-6.181322e-07	-3.332705e-10	-4.290600e+00	-2.515748e+01
1.720000e-06	-5.713910e-07	-3.202296e-10	-3.966159e+00	-2.438795e+01
1.730000e-06	-5.246383e-07	-3.067713e-10	-3.641637e+00	-2.360569e+01
1.740000e-06	-4.779246e-07	-2.946555e-10	-3.317387e+00	-2.281059e+01
1.750000e-06	-4.311724e-07	-2.833470e-10	-2.992869e+00	-2.200253e+01
1.760000e-06	-3.843428e-07	-2.696481e-10	-2.667813e+00	-2.118141e+01
1.770000e-06	-3.374499e-07	-2.569594e-10	-2.342318e+00	-2.034717e+01
1.780000e-06	-2.904746e-07	-2.456783e-10	-2.016252e+00	-1.949973e+01
1.790000e-06	-2.434740e-07	-2.345099e-10	-1.690010e+00	-1.863907e+01
1.800000e-06	-1.965435e-07	-2.210686e-10	-1.364254e+00	-1.776517e+01
1.810000e-06	-1.495759e-07	-2.061643e-10	-1.038242e+00	-1.687806e+01
1.820000e-06	-1.025788e-07	-1.916691e-10	-7.120231e-01	-1.597779e+01
1.830000e-06	-5.561376e-08	-1.756965e-10	-3.860281e-01	-1.506442e+01
1.840000e-06	-8.666002e-09	-1.639116e-10	-6.015274e-02	-1.413808e+01
1.850000e-06	3.823799e-08	-1.539043e-10	2.654189e-01	-1.319893e+01
1.860000e-06	8.513077e-08	-1.429325e-10	5.909126e-01	-1.224715e+01
1.870000e-06	1.319855e-07	-1.293174e-10	9.161424e-01	-1.128296e+01
1.880000e-06	1.787628e-07	-1.147331e-10	1.240834e+00	-1.030665e+01
1.890000e-06	2.256161e-07	-9.896783e-11	1.566054e+00	-9.318532e+00
1.900000e-06	2.725233e-07	-8.268049e-11	1.891648e+00	-8.318954e+00
1.910000e-06	3.193807e-07	-6.932388e-11	2.216896e+00	-7.308320e+00
1.920000e-06	3.662312e-07	-5.612467e-11	2.542096e+00	-6.287075e+00
1.930000e-06	4.131117e-07	-4.282349e-11	2.867505e+00	-5.255708e+00
1.940000e-06	4.599185e-07	-3.044820e-11	3.192402e+00	-4.214749e+00
1.950000e-06	5.066349e-07	-1.692665e-11	3.516671e+00	-3.164774e+00
1.960000e-06	5.533258e-07	-3.292805e-12	3.840764e+00	-2.106398e+00
1.970000e-06	5.999387e-07	1.074206e-11	4.164315e+00	-1.040278e+00
1.980000e-06	6.465426e-07	2.508339e-11	4.487804e+00	3.289223e-02
1.990000e-06	6.931254e-07	3.840921e-11	4.811145e+00	1.112380e+00
2.000000e-06	7.396445e-07	5.182024e-11	5.134045e+00	2.197419e+00
2.010000e-06	7.860473e-07	6.749062e-11	5.456138e+00	3.287212e+00
2.020000e-06	8.324291e-07	8.661872e-11	5.778085e+00	4.380931e+00
2.030000e-06	8.788094e-07	1.042232e-10	6.100021e+00	5.477725e+00
2.040000e-06	9.250356e-07	1.197155e-10	6.420889e+00	6.576716e+00
2.050000e-06	9.712010e-07	1.313025e-10	6.741333e+00	7.677010e+00
2.060000e-06	1.017349e-06	1.420027e-10	7.061660e+00	8.777696e+00
2.070000e-06	1.063441e-06	1.547603e-10	7.381591e+00	9.877852e+00
2.080000e-06	1.109395e-06	1.684986e-10	7.700571e+00	1.097655e+01
2.090000e-06	1.155175e-06	1.840548e-10	8.018340e+00	1.207285e+01
2.100000e-06	1.200845e-06	2.014144e-10	8.335345e+00	1.316582e+01
2.110000e-06	1.246409e-06	2.184446e-10	8.651615e+00	1.425454e+01
2.120000e-06	1.291897e-06	2.353209e-10	8.967356e+00	1.533807e+01
2.130000e-06	1.337381e-06	2.502755e-10	9.283071e+00	1.641552e+01
2.140000e-06	1.382794e-06	2.617037e-10	9.598296e+00	1.748599e+01
2.150000e-06	1.428136e-06	2.732878e-10	9.913027e+00	1.854861e+01
2.160000e-06	1.473396e-06	2.875171e-10	1.022718e+01	1.960253e+01
2.170000e-06	1.518440e-06	3.043685e-10	1.053985e+01	2.064693e+01
2.180000e-06	1.563360e-06	3.223725e-10	1.085165e+01	2.168103e+01
2.190000e-06	1.608280e-06	3.387637e-10	1.116345e+01	2.270407e+01
2.200000e-06	1.653121e-06	3.528883e-10	1.147470e+01	2.371532e+01
2.210000e-06	1.697780e-06	3.664675e-10	1.178469e+01	2.471413e+01
2.220000e-06	1.742305e-06	3.796822e-10	1.209375e+01	2.569984e+01
2.230000e-06	1.786672e-06	3.922316e-10	1.240170e+01	2.667188e+01
2.240000e-06	1.830859e-06	4.036222e-10	1.270842e+01	2.762969e+01
2.250000e-06	1.874906e-06	4.158496e-10	1.301416e+01	2.857279e+01
2.260000e-06	1.918835e-06	4.299115e-10	1.331908e+01	2.950073e+01
2.270000e-06	1.962697e-06	4.450263e-10	1.362354e+01	3.041311e+01
2.280000e-06	2.006506e-06	4.584742e-10	1.392763e+01	3.130958e+01
2.290000e-06	2.050271e-06	4.701946e-10	1.423141e+01	3.218985e+01
2.300000e-06	2.093973e-06	4.803072e-10	1.453476e+01	3.305369e+01
2.310000e-06	2.137595e-06	4.896706e-10	1.483755e+01	3.390088e+01
2.320000e-06	2.181169e-06	4.984799e-10	1.514000e+01	3.473129e+01
2.330000e-06	2.224626e-06	5.064675e-10	1.544165e+01	3.554481e+01
2.340000e-06	2.267878e-06	5.158899e-10	1.574187e+01	3.634141e+01
2.350000e-06	2.310934e-06	5.278372e-10	1.604073e+01	3.712107e+01
2.360000e-06	2.353843e-06	5.403399e-10	1.633857e+01	3.788382e+01
2.370000e-06	2.396584e-06	5.512535e-10	1.663525e+01	3.862975e+01
2.380000e-06	2.439027e-06	5.588144e-10	1.692985e+01	3.935898e+01
2.390000e-06	2.481182e-06	5.652190e-10	1.722246e+01	4.007165e+01
2.400000e-06	2.523098e-06	5.729429e-10	1.751342e+01	4.076795e+01
2.410000e-06	2.564677e-06	5.819006e-10	1.780203e+01	4.144809e+01
2.420000e-06	2.605770e-06	5.935898e-10	1.808726e+01	4.211233e+01
2.430000e-06	2.646491e-06	6.060977e-10	1.836991e+01	4.276092e+01
2.440000e-06	2.687007e-06	6.177944e-10	1.865114e+01	4.339415e+01
2.450000e-06	2.727342e-06	6.290179e-10	1.893112e+01	4.401233e+01
2.460000e-06	2.767506e-06	6.386152e-10	1.920991e+01	4.461579e+01
2.470000e-06	2.807512e-06	6.456693e-10	1.948760e+01	4.520486e+01
2.480000e-06	2.847366e-06	6.512505e-10	1.976423e+01	4.577987e+01
2.490000e-06	2.887093e-06	6.577993e-10	2.003998e+01	4.634118e+01
2.500000e-06	2.926690e-06	6.668073e-10	2.031484e+01	4.688914e+01
2.510000e-06	2.966115e-06	6.774042e-10	2.058850e+01	4.742411e+01
2.520000e-06	3.005396e-06	6.865778e-10	2.086116e+01	4.794643e+01
2.530000e-06	3.044552e-06	6.934161e-10	2.113295e+01	4.845646e+01
2.540000e-06	3.083480e-06	6.996032e-10	2.140316e+01	4.895453e+01
2.550000e-06	3.122126e-06	7.037855e-10	2.167141e+01	4.944098e+01
2.560000e-06	3.160587e-06	7.086955e-10	2.193837e+01	4.991613e+01
2.570000e-06	3.198805e-06	7.149430e-10	2.220366e+01	5.038029e+01
2.580000e-06	3.236754e-06	7.210946e-10	2.246707e+01	5.083376e+01
2.590000e-06	3.274491e-06	7.280404e-10	2.272901e+01	5.127683e+01
2.600000e-06	3.312055e-06	7.355600e-10	2.298975e+01	5.170977e+01
2.610000e-06	3.349506e-06	7.451852e-10	2.324970e+01	5.213284e+01
2.620000e-06	3.386732e-06	7.556110e-10	2.350810e+01	5.254626e+01
2.630000e-06	3.423600e-06	7.642597e-10	2.376401e+01	5.295028e+01
2.640000e-06	3.460173e-06	7.692325e-10	2.401787e+01	5.334509e+01
2.650000e-06	3.496481e-06	7.724351e-10	2.426989e+01	5.373089e+01
2.660000e-06	3.532537e-06	7.757938e-10	2.452017e+01	5.410786e+01
2.670000e-06	3.568453e-06	7.794426e-10	2.476947e+01	5.447616e+01
2.680000e-06	3.604212e-06	7.847977e-10	2.501768e+01	5.483594e+01
2.690000e-06	3.639814e-06	7.913990e-10	2.526480e+01	5.518733e+01
2.700000e-06	3.675311e-06	7.989762e-10	2.551119e+01	5.553047e+01
2.710000e-06	3.710654e-06	8.061032e-10	2.575652e+01	5.586546e+01
2.720000e-06	3.745869e-06	8.121305e-10	2.600095e+01	5.619241e+01
2.730000e-06	3.780785e-06	8.179585e-10	2.624331e+01	5.651142e+01
2.740000e-06	3.815216e-06	8.228393e-10	2.648231e+01	5.682257e+01
2.750000e-06	3.849156e-06	8.256234e-10	2.671789e+01	5.712595e+01
2.760000e-06	3.882633e-06	8.267670e-10	2.695026e+01	5.742164e+01
2.770000e-06	3.915642e-06	8.301538e-10	2.717939e+01	5.770970e+01
2.780000e-06	3.948181e-06	8.356392e-10	2.740525e+01	5.799022e+01
2.790000e-06	3.980433e-06	8.409971e-10	2.762912e+01	5.826326e+01
2.800000e-06	4.012457e-06	8.480082e-10	2.785140e+01	5.852891e+01
2.810000e-06	4.044248e-06	8.548331e-10	2.807207e+01	5.878722e+01
2.820000e-06	4.075935e-06	8.579435e-10	2.829202e+01	5.903829e+01
2.830000e-06	4.107524e-06	8.576414e-10	2.851129e+01	5.928219e+01
2.840000e-06	4.138876e-06	8.566869e-10	2.872891e+01	5.951900e+01
2.850000e-06	4.170010e-06	8.588263e-10	2.894501e+01	5.974882e+01
2.860000e-06	4.200853e-06	8.642822e-10	2.915910e+01	5.997173e+01
2.870000e-06	4.231275e-06	8.690512e-10	2.937027e+01	6.018785e+01
2.880000e-06	4.261335e-06	8.729942e-10	2.957893e+01	6.039728e+01
2.890000e-06	4.291109e-06	8.781631e-10	2.978559e+01	6.060012e+01
2.900000e-06	4.320611e-06	8.835726e-10	2.999037e+01	6.079651e+01
