# Temperatura_=_-11.3
# Concentracion g/m^3_=_1620.0
# C_Vs_to_Am_M_A/Vsm_=_65563218390.804596
# pendiente_HvsI_1/m_=_3716.3
# ordenada_HvsI_A/m_=_1297.0
# frecuencia_Hz_=_135093.95470988148

Tiempo_(s)	Campo_(V.s)	Magnetizacion_(V.s)	Campo_(kA/m)	Magnetizacion_(A/m)
0.000000e+00	-5.530292e-06	-8.828340e-10	-3.837411e+01	-5.851692e+01
1.000000e-08	-5.530469e-06	-8.820774e-10	-3.837534e+01	-5.849429e+01
2.000000e-08	-5.530352e-06	-8.832330e-10	-3.837453e+01	-5.847180e+01
3.000000e-08	-5.529915e-06	-8.842152e-10	-3.837149e+01	-5.844952e+01
4.000000e-08	-5.529074e-06	-8.830805e-10	-3.836566e+01	-5.842753e+01
5.000000e-08	-5.527652e-06	-8.799113e-10	-3.835579e+01	-5.840584e+01
6.000000e-08	-5.525704e-06	-8.706861e-10	-3.834228e+01	-5.838451e+01
7.000000e-08	-5.523192e-06	-8.637975e-10	-3.832484e+01	-5.836353e+01
8.000000e-08	-5.520036e-06	-8.795523e-10	-3.830295e+01	-5.834290e+01
9.000000e-08	-5.516377e-06	-9.187470e-10	-3.827756e+01	-5.832261e+01
1.000000e-07	-5.512335e-06	-9.204091e-10	-3.824951e+01	-5.830261e+01
1.100000e-07	-5.508067e-06	-8.577626e-10	-3.821989e+01	-5.828286e+01
1.200000e-07	-5.503577e-06	-8.460131e-10	-3.818874e+01	-5.826329e+01
1.300000e-07	-5.498749e-06	-8.867460e-10	-3.815524e+01	-5.824382e+01
1.400000e-07	-5.493404e-06	-9.113724e-10	-3.811815e+01	-5.822436e+01
1.500000e-07	-5.487600e-06	-8.505096e-10	-3.807788e+01	-5.820480e+01
1.600000e-07	-5.481580e-06	-8.194880e-10	-3.803610e+01	-5.818502e+01
1.700000e-07	-5.475152e-06	-8.931860e-10	-3.799150e+01	-5.816489e+01
1.800000e-07	-5.468244e-06	-9.512259e-10	-3.794357e+01	-5.814428e+01
1.900000e-07	-5.461009e-06	-9.150456e-10	-3.789336e+01	-5.812303e+01
2.000000e-07	-5.453507e-06	-8.596156e-10	-3.784131e+01	-5.810100e+01
2.100000e-07	-5.445805e-06	-8.975139e-10	-3.778787e+01	-5.807801e+01
2.200000e-07	-5.437848e-06	-9.432231e-10	-3.773265e+01	-5.805391e+01
2.300000e-07	-5.429592e-06	-9.294544e-10	-3.767537e+01	-5.802852e+01
2.400000e-07	-5.420930e-06	-9.018969e-10	-3.761526e+01	-5.800168e+01
2.500000e-07	-5.411537e-06	-9.350945e-10	-3.755008e+01	-5.797322e+01
2.600000e-07	-5.401303e-06	-9.484666e-10	-3.747907e+01	-5.794296e+01
2.700000e-07	-5.390548e-06	-9.113969e-10	-3.740444e+01	-5.791075e+01
2.800000e-07	-5.379391e-06	-8.790254e-10	-3.732703e+01	-5.787642e+01
2.900000e-07	-5.367791e-06	-9.032088e-10	-3.724654e+01	-5.783980e+01
3.000000e-07	-5.355803e-06	-9.205181e-10	-3.716335e+01	-5.780076e+01
3.100000e-07	-5.343433e-06	-8.959887e-10	-3.707752e+01	-5.775914e+01
3.200000e-07	-5.330626e-06	-8.780867e-10	-3.698865e+01	-5.771481e+01
3.300000e-07	-5.317389e-06	-8.994666e-10	-3.689680e+01	-5.766765e+01
3.400000e-07	-5.303850e-06	-9.114892e-10	-3.680286e+01	-5.761755e+01
3.500000e-07	-5.289944e-06	-8.842021e-10	-3.670637e+01	-5.756439e+01
3.600000e-07	-5.275501e-06	-8.657170e-10	-3.660615e+01	-5.750810e+01
3.700000e-07	-5.260420e-06	-8.916709e-10	-3.650150e+01	-5.744859e+01
3.800000e-07	-5.244889e-06	-9.007224e-10	-3.639373e+01	-5.738580e+01
3.900000e-07	-5.228919e-06	-8.827509e-10	-3.628291e+01	-5.731968e+01
4.000000e-07	-5.212395e-06	-8.908467e-10	-3.616826e+01	-5.725020e+01
4.100000e-07	-5.195510e-06	-9.050371e-10	-3.605109e+01	-5.717733e+01
4.200000e-07	-5.178307e-06	-8.671769e-10	-3.593173e+01	-5.710106e+01
4.300000e-07	-5.160806e-06	-8.452172e-10	-3.581029e+01	-5.702141e+01
4.400000e-07	-5.143024e-06	-8.872389e-10	-3.568690e+01	-5.693840e+01
4.500000e-07	-5.124857e-06	-8.866347e-10	-3.556084e+01	-5.685207e+01
4.600000e-07	-5.106302e-06	-8.505327e-10	-3.543209e+01	-5.676246e+01
4.700000e-07	-5.087338e-06	-8.679846e-10	-3.530050e+01	-5.666963e+01
4.800000e-07	-5.068023e-06	-8.993969e-10	-3.516648e+01	-5.657368e+01
4.900000e-07	-5.048497e-06	-8.576915e-10	-3.503099e+01	-5.647467e+01
5.000000e-07	-5.028790e-06	-8.460935e-10	-3.489424e+01	-5.637272e+01
5.100000e-07	-5.008832e-06	-8.726828e-10	-3.475575e+01	-5.626792e+01
5.200000e-07	-4.988531e-06	-8.506056e-10	-3.461489e+01	-5.616042e+01
5.300000e-07	-4.967819e-06	-8.269935e-10	-3.447117e+01	-5.605032e+01
5.400000e-07	-4.946816e-06	-8.741050e-10	-3.432543e+01	-5.593778e+01
5.500000e-07	-4.925536e-06	-8.804577e-10	-3.417778e+01	-5.582293e+01
5.600000e-07	-4.903856e-06	-8.347812e-10	-3.402734e+01	-5.570592e+01
5.700000e-07	-4.881858e-06	-8.424766e-10	-3.387470e+01	-5.558691e+01
5.800000e-07	-4.859500e-06	-8.638888e-10	-3.371956e+01	-5.546606e+01
5.900000e-07	-4.836771e-06	-8.256703e-10	-3.356184e+01	-5.534352e+01
6.000000e-07	-4.813691e-06	-8.186719e-10	-3.340169e+01	-5.521946e+01
6.100000e-07	-4.790317e-06	-8.495265e-10	-3.323950e+01	-5.509404e+01
6.200000e-07	-4.766674e-06	-8.355194e-10	-3.307545e+01	-5.496743e+01
6.300000e-07	-4.742792e-06	-8.164136e-10	-3.290973e+01	-5.483977e+01
6.400000e-07	-4.718731e-06	-8.385118e-10	-3.274278e+01	-5.471123e+01
6.500000e-07	-4.694343e-06	-8.391306e-10	-3.257355e+01	-5.458196e+01
6.600000e-07	-4.669478e-06	-8.203322e-10	-3.240102e+01	-5.445211e+01
6.700000e-07	-4.644105e-06	-8.266777e-10	-3.222496e+01	-5.432180e+01
6.800000e-07	-4.618189e-06	-8.227217e-10	-3.204513e+01	-5.419119e+01
6.900000e-07	-4.591701e-06	-8.037796e-10	-3.186133e+01	-5.406038e+01
7.000000e-07	-4.564808e-06	-8.086861e-10	-3.167472e+01	-5.392950e+01
7.100000e-07	-4.537619e-06	-8.184950e-10	-3.148606e+01	-5.379865e+01
7.200000e-07	-4.510079e-06	-8.074964e-10	-3.129496e+01	-5.366792e+01
7.300000e-07	-4.482294e-06	-8.074381e-10	-3.110217e+01	-5.353740e+01
7.400000e-07	-4.454379e-06	-8.139176e-10	-3.090846e+01	-5.340716e+01
7.500000e-07	-4.426257e-06	-8.084607e-10	-3.071333e+01	-5.327724e+01
7.600000e-07	-4.397872e-06	-8.000831e-10	-3.051637e+01	-5.314771e+01
7.700000e-07	-4.369215e-06	-8.006455e-10	-3.031752e+01	-5.301858e+01
7.800000e-07	-4.340197e-06	-7.960120e-10	-3.011617e+01	-5.288988e+01
7.900000e-07	-4.310760e-06	-7.952475e-10	-2.991191e+01	-5.276160e+01
8.000000e-07	-4.281011e-06	-8.000703e-10	-2.970548e+01	-5.263373e+01
8.100000e-07	-4.251061e-06	-8.002422e-10	-2.949766e+01	-5.250625e+01
8.200000e-07	-4.220877e-06	-7.944531e-10	-2.928822e+01	-5.237911e+01
8.300000e-07	-4.190299e-06	-7.937240e-10	-2.907604e+01	-5.225225e+01
8.400000e-07	-4.159408e-06	-7.884609e-10	-2.886169e+01	-5.212561e+01
8.500000e-07	-4.128313e-06	-7.795240e-10	-2.864593e+01	-5.199910e+01
8.600000e-07	-4.097018e-06	-7.768187e-10	-2.842878e+01	-5.187262e+01
8.700000e-07	-4.065563e-06	-7.794862e-10	-2.821051e+01	-5.174605e+01
8.800000e-07	-4.033911e-06	-7.764860e-10	-2.799088e+01	-5.161927e+01
8.900000e-07	-4.002077e-06	-7.759777e-10	-2.776999e+01	-5.149214e+01
9.000000e-07	-3.970025e-06	-7.775267e-10	-2.754758e+01	-5.136451e+01
9.100000e-07	-3.937618e-06	-7.710727e-10	-2.732271e+01	-5.123621e+01
9.200000e-07	-3.904867e-06	-7.620061e-10	-2.709546e+01	-5.110707e+01
9.300000e-07	-3.871774e-06	-7.611957e-10	-2.686583e+01	-5.097691e+01
9.400000e-07	-3.838171e-06	-7.602545e-10	-2.663266e+01	-5.084553e+01
9.500000e-07	-3.804042e-06	-7.587903e-10	-2.639585e+01	-5.071274e+01
9.600000e-07	-3.769482e-06	-7.641437e-10	-2.615604e+01	-5.057833e+01
9.700000e-07	-3.734632e-06	-7.675975e-10	-2.591421e+01	-5.044207e+01
9.800000e-07	-3.699430e-06	-7.615195e-10	-2.566995e+01	-5.030376e+01
9.900000e-07	-3.663870e-06	-7.546420e-10	-2.542321e+01	-5.016317e+01
1.000000e-06	-3.628143e-06	-7.514648e-10	-2.517530e+01	-5.002008e+01
1.010000e-06	-3.592282e-06	-7.441091e-10	-2.492647e+01	-4.987425e+01
1.020000e-06	-3.556317e-06	-7.400415e-10	-2.467691e+01	-4.972547e+01
1.030000e-06	-3.520221e-06	-7.417568e-10	-2.442644e+01	-4.957349e+01
1.040000e-06	-3.483911e-06	-7.414429e-10	-2.417449e+01	-4.941810e+01
1.050000e-06	-3.447369e-06	-7.358506e-10	-2.392093e+01	-4.925908e+01
1.060000e-06	-3.410589e-06	-7.317644e-10	-2.366572e+01	-4.909619e+01
1.070000e-06	-3.373494e-06	-7.270616e-10	-2.340832e+01	-4.892924e+01
1.080000e-06	-3.336043e-06	-7.221140e-10	-2.314845e+01	-4.875801e+01
1.090000e-06	-3.298410e-06	-7.191296e-10	-2.288732e+01	-4.858231e+01
1.100000e-06	-3.260612e-06	-7.172762e-10	-2.262504e+01	-4.840193e+01
1.110000e-06	-3.222591e-06	-7.100127e-10	-2.236122e+01	-4.821669e+01
1.120000e-06	-3.184389e-06	-7.020798e-10	-2.209614e+01	-4.802642e+01
1.130000e-06	-3.145858e-06	-6.978505e-10	-2.182878e+01	-4.783096e+01
1.140000e-06	-3.106977e-06	-6.939707e-10	-2.155899e+01	-4.763015e+01
1.150000e-06	-3.067884e-06	-6.877028e-10	-2.128772e+01	-4.742385e+01
1.160000e-06	-3.028678e-06	-6.839776e-10	-2.101568e+01	-4.721193e+01
1.170000e-06	-2.989345e-06	-6.817268e-10	-2.074275e+01	-4.699426e+01
1.180000e-06	-2.949820e-06	-6.771548e-10	-2.046849e+01	-4.677075e+01
1.190000e-06	-2.910175e-06	-6.722479e-10	-2.019340e+01	-4.654130e+01
1.200000e-06	-2.870420e-06	-6.696318e-10	-1.991754e+01	-4.630583e+01
1.210000e-06	-2.830483e-06	-6.656938e-10	-1.964042e+01	-4.606427e+01
1.220000e-06	-2.790490e-06	-6.608628e-10	-1.936292e+01	-4.581655e+01
1.230000e-06	-2.750450e-06	-6.575704e-10	-1.908508e+01	-4.556264e+01
1.240000e-06	-2.710173e-06	-6.548501e-10	-1.880560e+01	-4.530249e+01
1.250000e-06	-2.669579e-06	-6.504895e-10	-1.852393e+01	-4.503608e+01
1.260000e-06	-2.628707e-06	-6.470798e-10	-1.824032e+01	-4.476339e+01
1.270000e-06	-2.587551e-06	-6.462624e-10	-1.795475e+01	-4.448442e+01
1.280000e-06	-2.546059e-06	-6.433435e-10	-1.766683e+01	-4.419915e+01
1.290000e-06	-2.504280e-06	-6.375695e-10	-1.737693e+01	-4.390760e+01
1.300000e-06	-2.462309e-06	-6.299094e-10	-1.708570e+01	-4.360976e+01
1.310000e-06	-2.420117e-06	-6.229178e-10	-1.679293e+01	-4.330566e+01
1.320000e-06	-2.377621e-06	-6.165463e-10	-1.649806e+01	-4.299530e+01
1.330000e-06	-2.334780e-06	-6.111245e-10	-1.620079e+01	-4.267870e+01
1.340000e-06	-2.291666e-06	-6.072634e-10	-1.590163e+01	-4.235587e+01
1.350000e-06	-2.248364e-06	-6.038464e-10	-1.560116e+01	-4.202681e+01
1.360000e-06	-2.204851e-06	-5.996250e-10	-1.529923e+01	-4.169153e+01
1.370000e-06	-2.161217e-06	-5.952317e-10	-1.499646e+01	-4.135004e+01
1.380000e-06	-2.117552e-06	-5.911245e-10	-1.469347e+01	-4.100231e+01
1.390000e-06	-2.073782e-06	-5.871949e-10	-1.438976e+01	-4.064833e+01
1.400000e-06	-2.029910e-06	-5.827674e-10	-1.408533e+01	-4.028807e+01
1.410000e-06	-1.986013e-06	-5.770085e-10	-1.378073e+01	-3.992149e+01
1.420000e-06	-1.942034e-06	-5.696358e-10	-1.347557e+01	-3.954852e+01
1.430000e-06	-1.897893e-06	-5.644670e-10	-1.316928e+01	-3.916911e+01
1.440000e-06	-1.853623e-06	-5.615716e-10	-1.286210e+01	-3.878316e+01
1.450000e-06	-1.809323e-06	-5.587773e-10	-1.255470e+01	-3.839057e+01
1.460000e-06	-1.764980e-06	-5.530005e-10	-1.224701e+01	-3.799120e+01
1.470000e-06	-1.720568e-06	-5.459130e-10	-1.193884e+01	-3.758493e+01
1.480000e-06	-1.675991e-06	-5.377185e-10	-1.162952e+01	-3.717159e+01
1.490000e-06	-1.631203e-06	-5.285590e-10	-1.131874e+01	-3.675098e+01
1.500000e-06	-1.586190e-06	-5.214313e-10	-1.100640e+01	-3.632292e+01
1.510000e-06	-1.541141e-06	-5.150175e-10	-1.069381e+01	-3.588718e+01
1.520000e-06	-1.496110e-06	-5.075680e-10	-1.038135e+01	-3.544351e+01
1.530000e-06	-1.450913e-06	-4.976888e-10	-1.006774e+01	-3.499165e+01
1.540000e-06	-1.405542e-06	-4.888924e-10	-9.752908e+00	-3.453132e+01
1.550000e-06	-1.359993e-06	-4.833062e-10	-9.436851e+00	-3.406222e+01
1.560000e-06	-1.314351e-06	-4.768004e-10	-9.120141e+00	-3.358403e+01
1.570000e-06	-1.268659e-06	-4.683320e-10	-8.803088e+00	-3.309641e+01
1.580000e-06	-1.222902e-06	-4.610345e-10	-8.485591e+00	-3.259902e+01
1.590000e-06	-1.177113e-06	-4.541001e-10	-8.167866e+00	-3.209149e+01
1.600000e-06	-1.131217e-06	-4.442464e-10	-7.849395e+00	-3.157346e+01
1.610000e-06	-1.085168e-06	-4.335299e-10	-7.529866e+00	-3.104455e+01
1.620000e-06	-1.039072e-06	-4.233959e-10	-7.210010e+00	-3.050437e+01
1.630000e-06	-9.929295e-07	-4.138609e-10	-6.889833e+00	-2.995253e+01
1.640000e-06	-9.467332e-07	-4.025540e-10	-6.569282e+00	-2.938865e+01
1.650000e-06	-9.003635e-07	-3.914965e-10	-6.247527e+00	-2.881233e+01
1.660000e-06	-8.538760e-07	-3.822323e-10	-5.924955e+00	-2.822321e+01
1.670000e-06	-8.074172e-07	-3.738016e-10	-5.602583e+00	-2.762089e+01
1.680000e-06	-7.609053e-07	-3.652992e-10	-5.279841e+00	-2.700504e+01
1.690000e-06	-7.144085e-07	-3.561149e-10	-4.957205e+00	-2.637529e+01
1.700000e-06	-6.680097e-07	-3.482602e-10	-4.635249e+00	-2.573132e+01
1.710000e-06	-6.215186e-07	-3.378352e-10	-4.312652e+00	-2.507282e+01
1.720000e-06	-5.748681e-07	-3.254991e-10	-3.988949e+00	-2.439952e+01
1.730000e-06	-5.281704e-07	-3.122545e-10	-3.664919e+00	-2.371116e+01
1.740000e-06	-4.814241e-07	-2.998636e-10	-3.340551e+00	-2.300752e+01
1.750000e-06	-4.346195e-07	-2.895369e-10	-3.015779e+00	-2.228841e+01
1.760000e-06	-3.877361e-07	-2.789073e-10	-2.690460e+00	-2.155368e+01
1.770000e-06	-3.407595e-07	-2.679786e-10	-2.364494e+00	-2.080322e+01
1.780000e-06	-2.938355e-07	-2.579725e-10	-2.038894e+00	-2.003696e+01
1.790000e-06	-2.469463e-07	-2.470349e-10	-1.713534e+00	-1.925488e+01
1.800000e-06	-2.000258e-07	-2.333203e-10	-1.387958e+00	-1.845700e+01
1.810000e-06	-1.531182e-07	-2.176116e-10	-1.062471e+00	-1.764339e+01
1.820000e-06	-1.061689e-07	-2.020466e-10	-7.366951e-01	-1.681418e+01
1.830000e-06	-5.929143e-08	-1.877046e-10	-4.114170e-01	-1.596953e+01
1.840000e-06	-1.247922e-08	-1.739993e-10	-8.659202e-02	-1.510968e+01
1.850000e-06	3.441187e-08	-1.631598e-10	2.387803e-01	-1.423490e+01
1.860000e-06	8.134489e-08	-1.555528e-10	5.644436e-01	-1.334553e+01
1.870000e-06	1.283739e-07	-1.455923e-10	8.907730e-01	-1.244195e+01
1.880000e-06	1.754343e-07	-1.331646e-10	1.217320e+00	-1.152461e+01
1.890000e-06	2.224257e-07	-1.198723e-10	1.543388e+00	-1.059399e+01
1.900000e-06	2.693534e-07	-1.043889e-10	1.869015e+00	-9.650635e+00
1.910000e-06	3.161544e-07	-8.953376e-11	2.193762e+00	-8.695144e+00
1.920000e-06	3.629688e-07	-7.723235e-11	2.518602e+00	-7.728157e+00
1.930000e-06	4.098155e-07	-6.627805e-11	2.843667e+00	-6.750360e+00
1.940000e-06	4.565999e-07	-5.628470e-11	3.168298e+00	-5.762485e+00
1.950000e-06	5.033348e-07	-4.822376e-11	3.492587e+00	-4.765303e+00
1.960000e-06	5.500751e-07	-3.827615e-11	3.816913e+00	-3.759624e+00
1.970000e-06	5.967944e-07	-2.387431e-11	4.141093e+00	-2.746292e+00
1.980000e-06	6.433671e-07	-7.164865e-12	4.464256e+00	-1.726182e+00
1.990000e-06	6.897758e-07	8.519224e-12	4.786281e+00	-7.001972e-01
2.000000e-06	7.361050e-07	2.307523e-11	5.107755e+00	3.307376e-01
2.010000e-06	7.824485e-07	3.806049e-11	5.429328e+00	1.365677e+00
2.020000e-06	8.288171e-07	5.204041e-11	5.751075e+00	2.403663e+00
2.030000e-06	8.751089e-07	6.393553e-11	6.072288e+00	3.443724e+00
2.040000e-06	9.213149e-07	7.600429e-11	6.392907e+00	4.484884e+00
2.050000e-06	9.675609e-07	9.002719e-11	6.713803e+00	5.526167e+00
2.060000e-06	1.013776e-06	1.041365e-10	7.034483e+00	6.566598e+00
2.070000e-06	1.059834e-06	1.189067e-10	7.354074e+00	7.605209e+00
2.080000e-06	1.105789e-06	1.364380e-10	7.672951e+00	8.641046e+00
2.090000e-06	1.151727e-06	1.522002e-10	7.991709e+00	9.673169e+00
2.100000e-06	1.197545e-06	1.667573e-10	8.309635e+00	1.070066e+01
2.110000e-06	1.243184e-06	1.794986e-10	8.626326e+00	1.172263e+01
2.120000e-06	1.288766e-06	1.917666e-10	8.942610e+00	1.273820e+01
2.130000e-06	1.334253e-06	2.047110e-10	9.258242e+00	1.374654e+01
2.140000e-06	1.379658e-06	2.197136e-10	9.573304e+00	1.474687e+01
2.150000e-06	1.425010e-06	2.353455e-10	9.887991e+00	1.573840e+01
2.160000e-06	1.470297e-06	2.493863e-10	1.020223e+01	1.672043e+01
2.170000e-06	1.515475e-06	2.638659e-10	1.051572e+01	1.769228e+01
2.180000e-06	1.560536e-06	2.752152e-10	1.082840e+01	1.865331e+01
2.190000e-06	1.605532e-06	2.863500e-10	1.114062e+01	1.960295e+01
2.200000e-06	1.650373e-06	2.974939e-10	1.145176e+01	2.054066e+01
2.210000e-06	1.695089e-06	3.110797e-10	1.176204e+01	2.146595e+01
2.220000e-06	1.739672e-06	3.252441e-10	1.207140e+01	2.237840e+01
2.230000e-06	1.784169e-06	3.367458e-10	1.238016e+01	2.327762e+01
2.240000e-06	1.828538e-06	3.476720e-10	1.268803e+01	2.416328e+01
2.250000e-06	1.872745e-06	3.584915e-10	1.299478e+01	2.503510e+01
2.260000e-06	1.916887e-06	3.712820e-10	1.330108e+01	2.589285e+01
2.270000e-06	1.960919e-06	3.842057e-10	1.360661e+01	2.673634e+01
2.280000e-06	2.004854e-06	3.954803e-10	1.391147e+01	2.756545e+01
2.290000e-06	2.048691e-06	4.051335e-10	1.421565e+01	2.838009e+01
2.300000e-06	2.092425e-06	4.140362e-10	1.451912e+01	2.918020e+01
2.310000e-06	2.136058e-06	4.229860e-10	1.482188e+01	2.996580e+01
2.320000e-06	2.179623e-06	4.322471e-10	1.512417e+01	3.073690e+01
2.330000e-06	2.223030e-06	4.414328e-10	1.542537e+01	3.149359e+01
2.340000e-06	2.266182e-06	4.518865e-10	1.572480e+01	3.223597e+01
2.350000e-06	2.309225e-06	4.635359e-10	1.602347e+01	3.296417e+01
2.360000e-06	2.352157e-06	4.741793e-10	1.632137e+01	3.367835e+01
2.370000e-06	2.394814e-06	4.822927e-10	1.661736e+01	3.437871e+01
2.380000e-06	2.437214e-06	4.893739e-10	1.691157e+01	3.506544e+01
2.390000e-06	2.479356e-06	4.981423e-10	1.720399e+01	3.573877e+01
2.400000e-06	2.521154e-06	5.077489e-10	1.749402e+01	3.639894e+01
2.410000e-06	2.562554e-06	5.184743e-10	1.778130e+01	3.704618e+01
2.420000e-06	2.603706e-06	5.317803e-10	1.806684e+01	3.768075e+01
2.430000e-06	2.644634e-06	5.448581e-10	1.835083e+01	3.830290e+01
2.440000e-06	2.685275e-06	5.551010e-10	1.863284e+01	3.891289e+01
2.450000e-06	2.725704e-06	5.643447e-10	1.891337e+01	3.951097e+01
2.460000e-06	2.765972e-06	5.718645e-10	1.919279e+01	4.009739e+01
2.470000e-06	2.806147e-06	5.780009e-10	1.947156e+01	4.067238e+01
2.480000e-06	2.846150e-06	5.836099e-10	1.974914e+01	4.123618e+01
2.490000e-06	2.885936e-06	5.911114e-10	2.002520e+01	4.178899e+01
2.500000e-06	2.925539e-06	6.023401e-10	2.030000e+01	4.233102e+01
2.510000e-06	2.965029e-06	6.137610e-10	2.057402e+01	4.286245e+01
2.520000e-06	3.004360e-06	6.236881e-10	2.084694e+01	4.338345e+01
2.530000e-06	3.043449e-06	6.318898e-10	2.111817e+01	4.389416e+01
2.540000e-06	3.082344e-06	6.368727e-10	2.138806e+01	4.439472e+01
2.550000e-06	3.121009e-06	6.401955e-10	2.165635e+01	4.488523e+01
2.560000e-06	3.159525e-06	6.466940e-10	2.192361e+01	4.536578e+01
2.570000e-06	3.197840e-06	6.555595e-10	2.218947e+01	4.583645e+01
2.580000e-06	3.235905e-06	6.616373e-10	2.245360e+01	4.629727e+01
2.590000e-06	3.273808e-06	6.667415e-10	2.271661e+01	4.674830e+01
2.600000e-06	3.311496e-06	6.735923e-10	2.297812e+01	4.718953e+01
2.610000e-06	3.348995e-06	6.806687e-10	2.323832e+01	4.762097e+01
2.620000e-06	3.386227e-06	6.867332e-10	2.349667e+01	4.804260e+01
2.630000e-06	3.423230e-06	6.915904e-10	2.375343e+01	4.845439e+01
2.640000e-06	3.460016e-06	6.946398e-10	2.400868e+01	4.885630e+01
2.650000e-06	3.496474e-06	6.969784e-10	2.426166e+01	4.924828e+01
2.660000e-06	3.532719e-06	7.005785e-10	2.451317e+01	4.963027e+01
2.670000e-06	3.568764e-06	7.036147e-10	2.476328e+01	5.000220e+01
2.680000e-06	3.604569e-06	7.061246e-10	2.501172e+01	5.036401e+01
2.690000e-06	3.640211e-06	7.114590e-10	2.525904e+01	5.071564e+01
2.700000e-06	3.675697e-06	7.159038e-10	2.550528e+01	5.105701e+01
2.710000e-06	3.711004e-06	7.225523e-10	2.575026e+01	5.138807e+01
2.720000e-06	3.746222e-06	7.290152e-10	2.599464e+01	5.170876e+01
2.730000e-06	3.781178e-06	7.329079e-10	2.623720e+01	5.201904e+01
2.740000e-06	3.815598e-06	7.342051e-10	2.647603e+01	5.231888e+01
2.750000e-06	3.849527e-06	7.359647e-10	2.671146e+01	5.260824e+01
2.760000e-06	3.883009e-06	7.423523e-10	2.694379e+01	5.288713e+01
2.770000e-06	3.916089e-06	7.479729e-10	2.717333e+01	5.315557e+01
2.780000e-06	3.948752e-06	7.524755e-10	2.739997e+01	5.341356e+01
2.790000e-06	3.981027e-06	7.542691e-10	2.762393e+01	5.366118e+01
2.800000e-06	4.013124e-06	7.567107e-10	2.784665e+01	5.389849e+01
2.810000e-06	4.045099e-06	7.585357e-10	2.806851e+01	5.412557e+01
2.820000e-06	4.076819e-06	7.619721e-10	2.828862e+01	5.434256e+01
2.830000e-06	4.108313e-06	7.667027e-10	2.850715e+01	5.454958e+01
2.840000e-06	4.139601e-06	7.711237e-10	2.872426e+01	5.474680e+01
2.850000e-06	4.170590e-06	7.775658e-10	2.893929e+01	5.493441e+01
2.860000e-06	4.201298e-06	7.855116e-10	2.915236e+01	5.511263e+01
2.870000e-06	4.231747e-06	7.896416e-10	2.936364e+01	5.528167e+01
2.880000e-06	4.261870e-06	7.881715e-10	2.957267e+01	5.544180e+01
2.890000e-06	4.291615e-06	7.857880e-10	2.977906e+01	5.559331e+01
2.900000e-06	4.321126e-06	7.858164e-10	2.998383e+01	5.573647e+01
