# Temperatura_=_7.78
# Concentracion g/m^3_=_1620.0
# C_Vs_to_Am_M_A/Vsm_=_65563218390.804596
# pendiente_HvsI_1/m_=_3716.3
# ordenada_HvsI_A/m_=_1297.0
# frecuencia_Hz_=_135103.87683896383

Tiempo_(s)	Campo_(V.s)	Magnetizacion_(V.s)	Campo_(kA/m)	Magnetizacion_(A/m)
0.000000e+00	-5.526798e-06	-7.892270e-10	-3.837096e+01	-5.204418e+01
1.000000e-08	-5.526994e-06	-7.858861e-10	-3.837232e+01	-5.207338e+01
2.000000e-08	-5.526966e-06	-7.844579e-10	-3.837212e+01	-5.210374e+01
3.000000e-08	-5.526587e-06	-7.865361e-10	-3.836949e+01	-5.213507e+01
4.000000e-08	-5.525672e-06	-7.891539e-10	-3.836314e+01	-5.216717e+01
5.000000e-08	-5.524088e-06	-7.877449e-10	-3.835214e+01	-5.219982e+01
6.000000e-08	-5.521756e-06	-7.762538e-10	-3.833595e+01	-5.223280e+01
7.000000e-08	-5.518960e-06	-7.686510e-10	-3.831654e+01	-5.226585e+01
8.000000e-08	-5.515803e-06	-7.984001e-10	-3.829462e+01	-5.229873e+01
9.000000e-08	-5.512133e-06	-8.299470e-10	-3.826914e+01	-5.233117e+01
1.000000e-07	-5.508070e-06	-7.805688e-10	-3.824093e+01	-5.236293e+01
1.100000e-07	-5.503728e-06	-7.260917e-10	-3.821079e+01	-5.239373e+01
1.200000e-07	-5.499112e-06	-7.414333e-10	-3.817874e+01	-5.242330e+01
1.300000e-07	-5.494236e-06	-7.873693e-10	-3.814488e+01	-5.245137e+01
1.400000e-07	-5.488986e-06	-8.056242e-10	-3.810844e+01	-5.247770e+01
1.500000e-07	-5.483338e-06	-7.264750e-10	-3.806923e+01	-5.250201e+01
1.600000e-07	-5.477303e-06	-7.423317e-10	-3.802732e+01	-5.252406e+01
1.700000e-07	-5.470815e-06	-7.855038e-10	-3.798228e+01	-5.254360e+01
1.800000e-07	-5.463982e-06	-8.044534e-10	-3.793484e+01	-5.256040e+01
1.900000e-07	-5.456856e-06	-7.653966e-10	-3.788537e+01	-5.257425e+01
2.000000e-07	-5.449425e-06	-7.478977e-10	-3.783378e+01	-5.258491e+01
2.100000e-07	-5.441731e-06	-7.998872e-10	-3.778036e+01	-5.259222e+01
2.200000e-07	-5.433780e-06	-8.151851e-10	-3.772516e+01	-5.259597e+01
2.300000e-07	-5.425467e-06	-7.939519e-10	-3.766744e+01	-5.259602e+01
2.400000e-07	-5.416576e-06	-7.642386e-10	-3.760572e+01	-5.259220e+01
2.500000e-07	-5.406998e-06	-7.990826e-10	-3.753922e+01	-5.258439e+01
2.600000e-07	-5.396713e-06	-8.015392e-10	-3.746781e+01	-5.257248e+01
2.700000e-07	-5.385888e-06	-7.943525e-10	-3.739266e+01	-5.255637e+01
2.800000e-07	-5.374661e-06	-7.775844e-10	-3.731472e+01	-5.253598e+01
2.900000e-07	-5.363077e-06	-8.064019e-10	-3.723429e+01	-5.251124e+01
3.000000e-07	-5.351115e-06	-7.971545e-10	-3.715124e+01	-5.248213e+01
3.100000e-07	-5.338665e-06	-7.770203e-10	-3.706480e+01	-5.244861e+01
3.200000e-07	-5.325729e-06	-7.694765e-10	-3.697499e+01	-5.241068e+01
3.300000e-07	-5.312465e-06	-8.066206e-10	-3.688290e+01	-5.236834e+01
3.400000e-07	-5.298923e-06	-8.005036e-10	-3.678889e+01	-5.232162e+01
3.500000e-07	-5.284917e-06	-7.765663e-10	-3.669165e+01	-5.227056e+01
3.600000e-07	-5.270317e-06	-7.846057e-10	-3.659028e+01	-5.221521e+01
3.700000e-07	-5.255289e-06	-8.033028e-10	-3.648595e+01	-5.215564e+01
3.800000e-07	-5.239924e-06	-7.794867e-10	-3.637927e+01	-5.209194e+01
3.900000e-07	-5.224153e-06	-7.740321e-10	-3.626978e+01	-5.202419e+01
4.000000e-07	-5.207894e-06	-8.000477e-10	-3.615690e+01	-5.195249e+01
4.100000e-07	-5.191161e-06	-7.885303e-10	-3.604072e+01	-5.187696e+01
4.200000e-07	-5.174130e-06	-7.723812e-10	-3.592249e+01	-5.179772e+01
4.300000e-07	-5.156801e-06	-7.968719e-10	-3.580217e+01	-5.171489e+01
4.400000e-07	-5.139134e-06	-8.082134e-10	-3.567952e+01	-5.162862e+01
4.500000e-07	-5.121077e-06	-7.697872e-10	-3.555415e+01	-5.153904e+01
4.600000e-07	-5.102569e-06	-7.762323e-10	-3.542566e+01	-5.144629e+01
4.700000e-07	-5.083616e-06	-7.830356e-10	-3.529407e+01	-5.135054e+01
4.800000e-07	-5.064348e-06	-7.684484e-10	-3.516030e+01	-5.125193e+01
4.900000e-07	-5.044924e-06	-7.711584e-10	-3.502544e+01	-5.115061e+01
5.000000e-07	-5.025285e-06	-7.968039e-10	-3.488910e+01	-5.104674e+01
5.100000e-07	-5.005328e-06	-7.590284e-10	-3.475054e+01	-5.094049e+01
5.200000e-07	-4.985075e-06	-7.520163e-10	-3.460993e+01	-5.083199e+01
5.300000e-07	-4.964491e-06	-7.863123e-10	-3.446702e+01	-5.072142e+01
5.400000e-07	-4.943499e-06	-7.837469e-10	-3.432128e+01	-5.060893e+01
5.500000e-07	-4.922146e-06	-7.462449e-10	-3.417304e+01	-5.049467e+01
5.600000e-07	-4.900460e-06	-7.729687e-10	-3.402247e+01	-5.037879e+01
5.700000e-07	-4.878470e-06	-7.786497e-10	-3.386980e+01	-5.026144e+01
5.800000e-07	-4.856126e-06	-7.543716e-10	-3.371467e+01	-5.014278e+01
5.900000e-07	-4.833354e-06	-7.602501e-10	-3.355657e+01	-5.002294e+01
6.000000e-07	-4.810317e-06	-7.748568e-10	-3.339664e+01	-4.990206e+01
6.100000e-07	-4.787036e-06	-7.473464e-10	-3.323500e+01	-4.978028e+01
6.200000e-07	-4.763492e-06	-7.508434e-10	-3.307155e+01	-4.965773e+01
6.300000e-07	-4.739750e-06	-7.669914e-10	-3.290671e+01	-4.953455e+01
6.400000e-07	-4.715805e-06	-7.512108e-10	-3.274047e+01	-4.941085e+01
6.500000e-07	-4.691428e-06	-7.484540e-10	-3.257122e+01	-4.928676e+01
6.600000e-07	-4.666566e-06	-7.687578e-10	-3.239861e+01	-4.916238e+01
6.700000e-07	-4.641206e-06	-7.559807e-10	-3.222255e+01	-4.903784e+01
6.800000e-07	-4.615209e-06	-7.404713e-10	-3.204206e+01	-4.891322e+01
6.900000e-07	-4.588679e-06	-7.568720e-10	-3.185787e+01	-4.878863e+01
7.000000e-07	-4.561682e-06	-7.545194e-10	-3.167044e+01	-4.866416e+01
7.100000e-07	-4.534366e-06	-7.387587e-10	-3.148079e+01	-4.853990e+01
7.200000e-07	-4.506862e-06	-7.446794e-10	-3.128984e+01	-4.841591e+01
7.300000e-07	-4.479206e-06	-7.503941e-10	-3.109783e+01	-4.829227e+01
7.400000e-07	-4.451371e-06	-7.358156e-10	-3.090458e+01	-4.816905e+01
7.500000e-07	-4.423305e-06	-7.400892e-10	-3.070972e+01	-4.804629e+01
7.600000e-07	-4.394906e-06	-7.437103e-10	-3.051256e+01	-4.792404e+01
7.700000e-07	-4.366119e-06	-7.345064e-10	-3.031270e+01	-4.780233e+01
7.800000e-07	-4.337002e-06	-7.274784e-10	-3.011054e+01	-4.768120e+01
7.900000e-07	-4.307596e-06	-7.346826e-10	-2.990639e+01	-4.756065e+01
8.000000e-07	-4.277941e-06	-7.212355e-10	-2.970050e+01	-4.744069e+01
8.100000e-07	-4.248095e-06	-7.125947e-10	-2.949329e+01	-4.732132e+01
8.200000e-07	-4.217975e-06	-7.180311e-10	-2.928418e+01	-4.720251e+01
8.300000e-07	-4.187446e-06	-7.244630e-10	-2.907223e+01	-4.708423e+01
8.400000e-07	-4.156566e-06	-7.183250e-10	-2.885783e+01	-4.696644e+01
8.500000e-07	-4.125481e-06	-7.252085e-10	-2.864202e+01	-4.684908e+01
8.600000e-07	-4.094235e-06	-7.259812e-10	-2.842508e+01	-4.673208e+01
8.700000e-07	-4.062799e-06	-7.132551e-10	-2.820683e+01	-4.661537e+01
8.800000e-07	-4.031219e-06	-7.044514e-10	-2.798759e+01	-4.649883e+01
8.900000e-07	-3.999429e-06	-7.072004e-10	-2.776687e+01	-4.638237e+01
9.000000e-07	-3.967295e-06	-6.993940e-10	-2.754378e+01	-4.626585e+01
9.100000e-07	-3.934826e-06	-6.950891e-10	-2.731836e+01	-4.614915e+01
9.200000e-07	-3.902003e-06	-7.022048e-10	-2.709047e+01	-4.603210e+01
9.300000e-07	-3.868708e-06	-7.035060e-10	-2.685932e+01	-4.591456e+01
9.400000e-07	-3.834964e-06	-6.956866e-10	-2.662504e+01	-4.579633e+01
9.500000e-07	-3.800833e-06	-6.961477e-10	-2.638808e+01	-4.567724e+01
9.600000e-07	-3.766295e-06	-6.972608e-10	-2.614830e+01	-4.555709e+01
9.700000e-07	-3.731361e-06	-6.889545e-10	-2.590576e+01	-4.543566e+01
9.800000e-07	-3.696082e-06	-6.862278e-10	-2.566082e+01	-4.531274e+01
9.900000e-07	-3.660619e-06	-6.883808e-10	-2.541462e+01	-4.518811e+01
1.000000e-06	-3.625052e-06	-6.834466e-10	-2.516769e+01	-4.506153e+01
1.010000e-06	-3.589364e-06	-6.779023e-10	-2.491992e+01	-4.493277e+01
1.020000e-06	-3.553546e-06	-6.817174e-10	-2.467124e+01	-4.480157e+01
1.030000e-06	-3.517513e-06	-6.787496e-10	-2.442107e+01	-4.466770e+01
1.040000e-06	-3.481145e-06	-6.753075e-10	-2.416858e+01	-4.453091e+01
1.050000e-06	-3.444492e-06	-6.762478e-10	-2.391411e+01	-4.439094e+01
1.060000e-06	-3.407615e-06	-6.750341e-10	-2.365808e+01	-4.424756e+01
1.070000e-06	-3.370473e-06	-6.652935e-10	-2.340021e+01	-4.410052e+01
1.080000e-06	-3.333125e-06	-6.625847e-10	-2.314092e+01	-4.394958e+01
1.090000e-06	-3.295592e-06	-6.601426e-10	-2.288034e+01	-4.379450e+01
1.100000e-06	-3.257810e-06	-6.535452e-10	-2.261803e+01	-4.363507e+01
1.110000e-06	-3.219825e-06	-6.467437e-10	-2.235431e+01	-4.347107e+01
1.120000e-06	-3.181634e-06	-6.466550e-10	-2.208916e+01	-4.330228e+01
1.130000e-06	-3.143186e-06	-6.425490e-10	-2.182223e+01	-4.312853e+01
1.140000e-06	-3.104497e-06	-6.394997e-10	-2.155362e+01	-4.294962e+01
1.150000e-06	-3.065644e-06	-6.393161e-10	-2.128388e+01	-4.276539e+01
1.160000e-06	-3.026612e-06	-6.376652e-10	-2.101289e+01	-4.257568e+01
1.170000e-06	-2.987391e-06	-6.314905e-10	-2.074059e+01	-4.238037e+01
1.180000e-06	-2.948061e-06	-6.299135e-10	-2.046753e+01	-4.217933e+01
1.190000e-06	-2.908544e-06	-6.289981e-10	-2.019318e+01	-4.197245e+01
1.200000e-06	-2.868865e-06	-6.250544e-10	-1.991770e+01	-4.175966e+01
1.210000e-06	-2.829095e-06	-6.203863e-10	-1.964159e+01	-4.154087e+01
1.220000e-06	-2.789223e-06	-6.168670e-10	-1.936477e+01	-4.131604e+01
1.230000e-06	-2.749139e-06	-6.115117e-10	-1.908647e+01	-4.108513e+01
1.240000e-06	-2.708851e-06	-6.064403e-10	-1.880677e+01	-4.084811e+01
1.250000e-06	-2.668307e-06	-6.040610e-10	-1.852528e+01	-4.060498e+01
1.260000e-06	-2.627470e-06	-6.031800e-10	-1.824177e+01	-4.035575e+01
1.270000e-06	-2.586303e-06	-6.018533e-10	-1.795595e+01	-4.010042e+01
1.280000e-06	-2.544757e-06	-5.990361e-10	-1.766751e+01	-3.983903e+01
1.290000e-06	-2.503016e-06	-5.931309e-10	-1.737771e+01	-3.957163e+01
1.300000e-06	-2.461016e-06	-5.828283e-10	-1.708612e+01	-3.929824e+01
1.310000e-06	-2.418689e-06	-5.754803e-10	-1.679226e+01	-3.901892e+01
1.320000e-06	-2.376056e-06	-5.696531e-10	-1.649627e+01	-3.873372e+01
1.330000e-06	-2.333105e-06	-5.678255e-10	-1.619807e+01	-3.844269e+01
1.340000e-06	-2.289957e-06	-5.707496e-10	-1.589851e+01	-3.814588e+01
1.350000e-06	-2.246663e-06	-5.741228e-10	-1.559793e+01	-3.784334e+01
1.360000e-06	-2.203262e-06	-5.698418e-10	-1.529661e+01	-3.753511e+01
1.370000e-06	-2.159806e-06	-5.619674e-10	-1.499491e+01	-3.722121e+01
1.380000e-06	-2.116265e-06	-5.524881e-10	-1.469261e+01	-3.690166e+01
1.390000e-06	-2.072623e-06	-5.442239e-10	-1.438962e+01	-3.657646e+01
1.400000e-06	-2.028910e-06	-5.368258e-10	-1.408613e+01	-3.624559e+01
1.410000e-06	-1.985113e-06	-5.329191e-10	-1.378206e+01	-3.590903e+01
1.420000e-06	-1.941193e-06	-5.304149e-10	-1.347714e+01	-3.556671e+01
1.430000e-06	-1.897200e-06	-5.288624e-10	-1.317171e+01	-3.521856e+01
1.440000e-06	-1.853065e-06	-5.256842e-10	-1.286529e+01	-3.486446e+01
1.450000e-06	-1.808762e-06	-5.209547e-10	-1.255771e+01	-3.450429e+01
1.460000e-06	-1.764340e-06	-5.125320e-10	-1.224930e+01	-3.413788e+01
1.470000e-06	-1.719741e-06	-5.032532e-10	-1.193967e+01	-3.376505e+01
1.480000e-06	-1.674979e-06	-4.930841e-10	-1.162889e+01	-3.338556e+01
1.490000e-06	-1.630168e-06	-4.830948e-10	-1.131778e+01	-3.299918e+01
1.500000e-06	-1.585289e-06	-4.747877e-10	-1.100620e+01	-3.260561e+01
1.510000e-06	-1.540294e-06	-4.680792e-10	-1.069381e+01	-3.220454e+01
1.520000e-06	-1.495151e-06	-4.618862e-10	-1.038040e+01	-3.179563e+01
1.530000e-06	-1.449900e-06	-4.541949e-10	-1.006623e+01	-3.137850e+01
1.540000e-06	-1.404535e-06	-4.453078e-10	-9.751280e+00	-3.095275e+01
1.550000e-06	-1.359022e-06	-4.346907e-10	-9.435293e+00	-3.051796e+01
1.560000e-06	-1.313442e-06	-4.236730e-10	-9.118849e+00	-3.007368e+01
1.570000e-06	-1.267836e-06	-4.126182e-10	-8.802217e+00	-2.961942e+01
1.580000e-06	-1.222178e-06	-4.045259e-10	-8.485228e+00	-2.915470e+01
1.590000e-06	-1.176477e-06	-3.975466e-10	-8.167940e+00	-2.867901e+01
1.600000e-06	-1.130696e-06	-3.906260e-10	-7.850097e+00	-2.819183e+01
1.610000e-06	-1.084733e-06	-3.847133e-10	-7.530989e+00	-2.769262e+01
1.620000e-06	-1.038659e-06	-3.785179e-10	-7.211109e+00	-2.718086e+01
1.630000e-06	-9.924578e-07	-3.684279e-10	-6.890346e+00	-2.665601e+01
1.640000e-06	-9.460980e-07	-3.556555e-10	-6.568484e+00	-2.611755e+01
1.650000e-06	-8.998256e-07	-3.437159e-10	-6.247228e+00	-2.556494e+01
1.660000e-06	-8.536846e-07	-3.345398e-10	-5.926884e+00	-2.499768e+01
1.670000e-06	-8.074972e-07	-3.274089e-10	-5.606219e+00	-2.441528e+01
1.680000e-06	-7.612088e-07	-3.211500e-10	-5.284852e+00	-2.381727e+01
1.690000e-06	-7.147317e-07	-3.133094e-10	-4.962175e+00	-2.320322e+01
1.700000e-06	-6.681807e-07	-3.036657e-10	-4.638985e+00	-2.257272e+01
1.710000e-06	-6.216972e-07	-2.921370e-10	-4.316264e+00	-2.192540e+01
1.720000e-06	-5.750461e-07	-2.800809e-10	-3.992379e+00	-2.126093e+01
1.730000e-06	-5.282764e-07	-2.669990e-10	-3.667670e+00	-2.057904e+01
1.740000e-06	-4.815709e-07	-2.551340e-10	-3.343407e+00	-1.987949e+01
1.750000e-06	-4.348531e-07	-2.452761e-10	-3.019059e+00	-1.916212e+01
1.760000e-06	-3.880898e-07	-2.367437e-10	-2.694395e+00	-1.842681e+01
1.770000e-06	-3.412414e-07	-2.276061e-10	-2.369140e+00	-1.767351e+01
1.780000e-06	-2.943561e-07	-2.184347e-10	-2.043629e+00	-1.690224e+01
1.790000e-06	-2.474810e-07	-2.071690e-10	-1.718189e+00	-1.611307e+01
1.800000e-06	-2.005864e-07	-1.924998e-10	-1.392614e+00	-1.530616e+01
1.810000e-06	-1.537166e-07	-1.773943e-10	-1.067210e+00	-1.448173e+01
1.820000e-06	-1.069112e-07	-1.628839e-10	-7.422534e-01	-1.364008e+01
1.830000e-06	-6.009462e-08	-1.495559e-10	-4.172195e-01	-1.278157e+01
1.840000e-06	-1.323719e-08	-1.382076e-10	-9.190200e-02	-1.190666e+01
1.850000e-06	3.360899e-08	-1.300949e-10	2.333375e-01	-1.101585e+01
1.860000e-06	8.044795e-08	-1.240838e-10	5.585268e-01	-1.010975e+01
1.870000e-06	1.272620e-07	-1.154617e-10	8.835429e-01	-9.189001e+00
1.880000e-06	1.740880e-07	-1.018960e-10	1.208642e+00	-8.254346e+00
1.890000e-06	2.209353e-07	-8.432675e-11	1.533890e+00	-7.306577e+00
1.900000e-06	2.677871e-07	-6.819253e-11	1.859168e+00	-6.346555e+00
1.910000e-06	3.145934e-07	-5.655476e-11	2.184131e+00	-5.375202e+00
1.920000e-06	3.613298e-07	-4.615335e-11	2.508608e+00	-4.393493e+00
1.930000e-06	4.081081e-07	-3.589392e-11	2.833376e+00	-3.402458e+00
1.940000e-06	4.548826e-07	-2.670684e-11	3.158118e+00	-2.403172e+00
1.950000e-06	5.016063e-07	-1.953063e-11	3.482507e+00	-1.396752e+00
1.960000e-06	5.482622e-07	-1.025532e-11	3.806425e+00	-3.843516e-01
1.970000e-06	5.948313e-07	3.129451e-12	4.129741e+00	6.328439e-01
1.980000e-06	6.413708e-07	1.980830e-11	4.452851e+00	1.653626e+00
1.990000e-06	6.878898e-07	3.773233e-11	4.775819e+00	2.676768e+00
2.000000e-06	7.344314e-07	5.522302e-11	5.098944e+00	3.701030e+00
2.010000e-06	7.809369e-07	7.019323e-11	5.421818e+00	4.725169e+00
2.020000e-06	8.273419e-07	8.328235e-11	5.743995e+00	5.747940e+00
2.030000e-06	8.736561e-07	9.621033e-11	6.065541e+00	6.768108e+00
2.040000e-06	9.198498e-07	1.082836e-10	6.386250e+00	7.784451e+00
2.050000e-06	9.660225e-07	1.191651e-10	6.706814e+00	8.795766e+00
2.060000e-06	1.012139e-06	1.317748e-10	7.026987e+00	9.800879e+00
2.070000e-06	1.058113e-06	1.474022e-10	7.346174e+00	1.079865e+01
2.080000e-06	1.103940e-06	1.652709e-10	7.664338e+00	1.178796e+01
2.090000e-06	1.149668e-06	1.821393e-10	7.981811e+00	1.276777e+01
2.100000e-06	1.195333e-06	1.962831e-10	8.298851e+00	1.373705e+01
2.110000e-06	1.240929e-06	2.094129e-10	8.615413e+00	1.469484e+01
2.120000e-06	1.286547e-06	2.227381e-10	8.932126e+00	1.564024e+01
2.130000e-06	1.332124e-06	2.355299e-10	9.248550e+00	1.657241e+01
2.140000e-06	1.377533e-06	2.473196e-10	9.563811e+00	1.749057e+01
2.150000e-06	1.422818e-06	2.584949e-10	9.878213e+00	1.839400e+01
2.160000e-06	1.468021e-06	2.704927e-10	1.019204e+01	1.928207e+01
2.170000e-06	1.513100e-06	2.844134e-10	1.050501e+01	2.015420e+01
2.180000e-06	1.558081e-06	2.977803e-10	1.081730e+01	2.100989e+01
2.190000e-06	1.602998e-06	3.096242e-10	1.112915e+01	2.184871e+01
2.200000e-06	1.647723e-06	3.206954e-10	1.143966e+01	2.267031e+01
2.210000e-06	1.692312e-06	3.324857e-10	1.174923e+01	2.347441e+01
2.220000e-06	1.736855e-06	3.445140e-10	1.205848e+01	2.426079e+01
2.230000e-06	1.781289e-06	3.552058e-10	1.236697e+01	2.502931e+01
2.240000e-06	1.825620e-06	3.637304e-10	1.267475e+01	2.577990e+01
2.250000e-06	1.869823e-06	3.705738e-10	1.298164e+01	2.651254e+01
2.260000e-06	1.913870e-06	3.782732e-10	1.328745e+01	2.722728e+01
2.270000e-06	1.957800e-06	3.877684e-10	1.359244e+01	2.792425e+01
2.280000e-06	2.001616e-06	3.975574e-10	1.389664e+01	2.860360e+01
2.290000e-06	2.045338e-06	4.078119e-10	1.420019e+01	2.926555e+01
2.300000e-06	2.089029e-06	4.188946e-10	1.450352e+01	2.991037e+01
2.310000e-06	2.132663e-06	4.303515e-10	1.480646e+01	3.053836e+01
2.320000e-06	2.176193e-06	4.400235e-10	1.510867e+01	3.114988e+01
2.330000e-06	2.219615e-06	4.473196e-10	1.541014e+01	3.174530e+01
2.340000e-06	2.262962e-06	4.533675e-10	1.571109e+01	3.232503e+01
2.350000e-06	2.306179e-06	4.583057e-10	1.601113e+01	3.288950e+01
2.360000e-06	2.349166e-06	4.637837e-10	1.630958e+01	3.343917e+01
2.370000e-06	2.391871e-06	4.707675e-10	1.660607e+01	3.397449e+01
2.380000e-06	2.434215e-06	4.782283e-10	1.690005e+01	3.449594e+01
2.390000e-06	2.476358e-06	4.872401e-10	1.719264e+01	3.500400e+01
2.400000e-06	2.518311e-06	4.978012e-10	1.748390e+01	3.549915e+01
2.410000e-06	2.559953e-06	5.078092e-10	1.777301e+01	3.598187e+01
2.420000e-06	2.601402e-06	5.164328e-10	1.806078e+01	3.645261e+01
2.430000e-06	2.642472e-06	5.229201e-10	1.834592e+01	3.691183e+01
2.440000e-06	2.683133e-06	5.287045e-10	1.862821e+01	3.735997e+01
2.450000e-06	2.723579e-06	5.359123e-10	1.890902e+01	3.779746e+01
2.460000e-06	2.763833e-06	5.433052e-10	1.918849e+01	3.822470e+01
2.470000e-06	2.803929e-06	5.501442e-10	1.946687e+01	3.864205e+01
2.480000e-06	2.843909e-06	5.555212e-10	1.974443e+01	3.904988e+01
2.490000e-06	2.883728e-06	5.600098e-10	2.002089e+01	3.944850e+01
2.500000e-06	2.923385e-06	5.660249e-10	2.029622e+01	3.983823e+01
2.510000e-06	2.962911e-06	5.726791e-10	2.057063e+01	4.021932e+01
2.520000e-06	3.002295e-06	5.789134e-10	2.084406e+01	4.059202e+01
2.530000e-06	3.041548e-06	5.850748e-10	2.111659e+01	4.095654e+01
2.540000e-06	3.080519e-06	5.905059e-10	2.138715e+01	4.131306e+01
2.550000e-06	3.119236e-06	5.928767e-10	2.165595e+01	4.166174e+01
2.560000e-06	3.157835e-06	5.926864e-10	2.192394e+01	4.200271e+01
2.570000e-06	3.196176e-06	5.935054e-10	2.219012e+01	4.233608e+01
2.580000e-06	3.234185e-06	5.965285e-10	2.245401e+01	4.266192e+01
2.590000e-06	3.272036e-06	6.029840e-10	2.271680e+01	4.298029e+01
2.600000e-06	3.309715e-06	6.124863e-10	2.297839e+01	4.329124e+01
2.610000e-06	3.347135e-06	6.221413e-10	2.323818e+01	4.359479e+01
2.620000e-06	3.384334e-06	6.306291e-10	2.349645e+01	4.389094e+01
2.630000e-06	3.421249e-06	6.360629e-10	2.375274e+01	4.417970e+01
2.640000e-06	3.457896e-06	6.375407e-10	2.400717e+01	4.446105e+01
2.650000e-06	3.494272e-06	6.364081e-10	2.425972e+01	4.473498e+01
2.660000e-06	3.530422e-06	6.367708e-10	2.451070e+01	4.500146e+01
2.670000e-06	3.566378e-06	6.397761e-10	2.476033e+01	4.526046e+01
2.680000e-06	3.602174e-06	6.427945e-10	2.500885e+01	4.551197e+01
2.690000e-06	3.637873e-06	6.475832e-10	2.525670e+01	4.575597e+01
2.700000e-06	3.673373e-06	6.538869e-10	2.550317e+01	4.599245e+01
2.710000e-06	3.708649e-06	6.597417e-10	2.574807e+01	4.622140e+01
2.720000e-06	3.743728e-06	6.656902e-10	2.599161e+01	4.644284e+01
2.730000e-06	3.778535e-06	6.713039e-10	2.623327e+01	4.665678e+01
2.740000e-06	3.813020e-06	6.753173e-10	2.647269e+01	4.686327e+01
2.750000e-06	3.847096e-06	6.764834e-10	2.670927e+01	4.706235e+01
2.760000e-06	3.880680e-06	6.766327e-10	2.694244e+01	4.725409e+01
2.770000e-06	3.913818e-06	6.769464e-10	2.717250e+01	4.743858e+01
2.780000e-06	3.946492e-06	6.790362e-10	2.739935e+01	4.761593e+01
2.790000e-06	3.978810e-06	6.857200e-10	2.762373e+01	4.778625e+01
2.800000e-06	4.010872e-06	6.947755e-10	2.784632e+01	4.794969e+01
2.810000e-06	4.042668e-06	7.022906e-10	2.806707e+01	4.810642e+01
2.820000e-06	4.074293e-06	7.073026e-10	2.828664e+01	4.825661e+01
2.830000e-06	4.105775e-06	7.081940e-10	2.850520e+01	4.840045e+01
2.840000e-06	4.137026e-06	7.058886e-10	2.872217e+01	4.853817e+01
2.850000e-06	4.167965e-06	7.034988e-10	2.893698e+01	4.866998e+01
2.860000e-06	4.198615e-06	7.033114e-10	2.914977e+01	4.879613e+01
2.870000e-06	4.228995e-06	7.068747e-10	2.936068e+01	4.891688e+01
2.880000e-06	4.259118e-06	7.138351e-10	2.956982e+01	4.903247e+01
2.890000e-06	4.288996e-06	7.227435e-10	2.977726e+01	4.914319e+01
2.900000e-06	4.318578e-06	7.308336e-10	2.998264e+01	4.924931e+01
