# Temperatura_=_-2.33
# Concentracion g/m^3_=_1620.0
# C_Vs_to_Am_M_A/Vsm_=_65563218390.804596
# pendiente_HvsI_1/m_=_3716.3
# ordenada_HvsI_A/m_=_1297.0
# frecuencia_Hz_=_135093.84228170814

Tiempo_(s)	Campo_(V.s)	Magnetizacion_(V.s)	Campo_(kA/m)	Magnetizacion_(A/m)
0.000000e+00	-5.544331e-06	-1.054916e-09	-3.836561e+01	-7.084014e+01
1.000000e-08	-5.544485e-06	-1.049842e-09	-3.836667e+01	-7.081911e+01
2.000000e-08	-5.544395e-06	-1.046601e-09	-3.836605e+01	-7.079789e+01
3.000000e-08	-5.543999e-06	-1.047043e-09	-3.836331e+01	-7.077628e+01
4.000000e-08	-5.543259e-06	-1.048248e-09	-3.835819e+01	-7.075407e+01
5.000000e-08	-5.541981e-06	-1.047449e-09	-3.834935e+01	-7.073105e+01
6.000000e-08	-5.540036e-06	-1.039440e-09	-3.833589e+01	-7.070700e+01
7.000000e-08	-5.537397e-06	-1.028537e-09	-3.831763e+01	-7.068170e+01
8.000000e-08	-5.534219e-06	-1.047093e-09	-3.829563e+01	-7.065493e+01
9.000000e-08	-5.530563e-06	-1.081509e-09	-3.827033e+01	-7.062647e+01
1.000000e-07	-5.526433e-06	-1.076195e-09	-3.824175e+01	-7.059607e+01
1.100000e-07	-5.521920e-06	-1.021122e-09	-3.821053e+01	-7.056354e+01
1.200000e-07	-5.517235e-06	-1.002086e-09	-3.817811e+01	-7.052866e+01
1.300000e-07	-5.512509e-06	-1.034066e-09	-3.814540e+01	-7.049121e+01
1.400000e-07	-5.507380e-06	-1.072022e-09	-3.810991e+01	-7.045100e+01
1.500000e-07	-5.501730e-06	-1.014786e-09	-3.807082e+01	-7.040786e+01
1.600000e-07	-5.495816e-06	-9.949156e-10	-3.802989e+01	-7.036159e+01
1.700000e-07	-5.489578e-06	-1.015321e-09	-3.798672e+01	-7.031205e+01
1.800000e-07	-5.482853e-06	-1.078675e-09	-3.794019e+01	-7.025908e+01
1.900000e-07	-5.475609e-06	-1.054239e-09	-3.789007e+01	-7.020256e+01
2.000000e-07	-5.468040e-06	-1.051332e-09	-3.783769e+01	-7.014238e+01
2.100000e-07	-5.460281e-06	-1.067009e-09	-3.778400e+01	-7.007843e+01
2.200000e-07	-5.452184e-06	-1.102004e-09	-3.772797e+01	-7.001065e+01
2.300000e-07	-5.443791e-06	-1.080223e-09	-3.766989e+01	-6.993896e+01
2.400000e-07	-5.435039e-06	-1.063926e-09	-3.760933e+01	-6.986333e+01
2.500000e-07	-5.425588e-06	-1.082887e-09	-3.754393e+01	-6.978373e+01
2.600000e-07	-5.415390e-06	-1.105470e-09	-3.747336e+01	-6.970016e+01
2.700000e-07	-5.404694e-06	-1.100580e-09	-3.739935e+01	-6.961262e+01
2.800000e-07	-5.393570e-06	-1.074451e-09	-3.732237e+01	-6.952114e+01
2.900000e-07	-5.381985e-06	-1.081280e-09	-3.724221e+01	-6.942576e+01
3.000000e-07	-5.369989e-06	-1.068885e-09	-3.715920e+01	-6.932655e+01
3.100000e-07	-5.357589e-06	-1.063554e-09	-3.707339e+01	-6.922357e+01
3.200000e-07	-5.344815e-06	-1.033436e-09	-3.698500e+01	-6.911690e+01
3.300000e-07	-5.331624e-06	-1.062980e-09	-3.689372e+01	-6.900664e+01
3.400000e-07	-5.318012e-06	-1.055431e-09	-3.679953e+01	-6.889290e+01
3.500000e-07	-5.304046e-06	-1.061077e-09	-3.670289e+01	-6.877578e+01
3.600000e-07	-5.289752e-06	-1.037759e-09	-3.660397e+01	-6.865541e+01
3.700000e-07	-5.274945e-06	-1.059871e-09	-3.650151e+01	-6.853192e+01
3.800000e-07	-5.259637e-06	-1.035554e-09	-3.639559e+01	-6.840542e+01
3.900000e-07	-5.243820e-06	-1.034936e-09	-3.628613e+01	-6.827607e+01
4.000000e-07	-5.227411e-06	-1.043692e-09	-3.617258e+01	-6.814399e+01
4.100000e-07	-5.210617e-06	-1.059152e-09	-3.605638e+01	-6.800931e+01
4.200000e-07	-5.193528e-06	-1.021809e-09	-3.593812e+01	-6.787216e+01
4.300000e-07	-5.176167e-06	-1.021460e-09	-3.581799e+01	-6.773268e+01
4.400000e-07	-5.158469e-06	-1.043007e-09	-3.569552e+01	-6.759099e+01
4.500000e-07	-5.140420e-06	-1.035764e-09	-3.557063e+01	-6.744721e+01
4.600000e-07	-5.121928e-06	-1.009694e-09	-3.544266e+01	-6.730144e+01
4.700000e-07	-5.102919e-06	-1.026289e-09	-3.531113e+01	-6.715380e+01
4.800000e-07	-5.083489e-06	-1.034506e-09	-3.517668e+01	-6.700438e+01
4.900000e-07	-5.063898e-06	-1.013257e-09	-3.504111e+01	-6.685327e+01
5.000000e-07	-5.044182e-06	-1.011375e-09	-3.490468e+01	-6.670054e+01
5.100000e-07	-5.024219e-06	-1.020144e-09	-3.476654e+01	-6.654627e+01
5.200000e-07	-5.004011e-06	-1.004323e-09	-3.462670e+01	-6.639050e+01
5.300000e-07	-4.983404e-06	-9.940929e-10	-3.448411e+01	-6.623329e+01
5.400000e-07	-4.962366e-06	-1.018216e-09	-3.433853e+01	-6.607467e+01
5.500000e-07	-4.940959e-06	-1.015935e-09	-3.419040e+01	-6.591467e+01
5.600000e-07	-4.919192e-06	-1.002489e-09	-3.403977e+01	-6.575329e+01
5.700000e-07	-4.897161e-06	-1.000649e-09	-3.388732e+01	-6.559056e+01
5.800000e-07	-4.874818e-06	-1.005177e-09	-3.373272e+01	-6.542645e+01
5.900000e-07	-4.852059e-06	-9.828232e-10	-3.357523e+01	-6.526096e+01
6.000000e-07	-4.828896e-06	-9.821006e-10	-3.341494e+01	-6.509406e+01
6.100000e-07	-4.805443e-06	-9.856780e-10	-3.325266e+01	-6.492573e+01
6.200000e-07	-4.781831e-06	-9.830101e-10	-3.308927e+01	-6.475592e+01
6.300000e-07	-4.757978e-06	-9.679942e-10	-3.292421e+01	-6.458459e+01
6.400000e-07	-4.733850e-06	-9.727326e-10	-3.275725e+01	-6.441169e+01
6.500000e-07	-4.709413e-06	-9.667409e-10	-3.258815e+01	-6.423717e+01
6.600000e-07	-4.684524e-06	-9.661613e-10	-3.241592e+01	-6.406096e+01
6.700000e-07	-4.659108e-06	-9.626974e-10	-3.224005e+01	-6.388301e+01
6.800000e-07	-4.633160e-06	-9.639306e-10	-3.206049e+01	-6.370326e+01
6.900000e-07	-4.606605e-06	-9.514611e-10	-3.187674e+01	-6.352163e+01
7.000000e-07	-4.579626e-06	-9.534729e-10	-3.169005e+01	-6.333806e+01
7.100000e-07	-4.552434e-06	-9.520348e-10	-3.150188e+01	-6.315249e+01
7.200000e-07	-4.524958e-06	-9.498364e-10	-3.131176e+01	-6.296485e+01
7.300000e-07	-4.497256e-06	-9.410286e-10	-3.112006e+01	-6.277507e+01
7.400000e-07	-4.469355e-06	-9.429399e-10	-3.092700e+01	-6.258309e+01
7.500000e-07	-4.441169e-06	-9.432519e-10	-3.073196e+01	-6.238886e+01
7.600000e-07	-4.412648e-06	-9.423649e-10	-3.053460e+01	-6.219231e+01
7.700000e-07	-4.383851e-06	-9.378696e-10	-3.033533e+01	-6.199338e+01
7.800000e-07	-4.354733e-06	-9.324092e-10	-3.013384e+01	-6.179203e+01
7.900000e-07	-4.325298e-06	-9.261988e-10	-2.993015e+01	-6.158821e+01
8.000000e-07	-4.295601e-06	-9.223742e-10	-2.972466e+01	-6.138186e+01
8.100000e-07	-4.265609e-06	-9.211457e-10	-2.951712e+01	-6.117295e+01
8.200000e-07	-4.235311e-06	-9.180013e-10	-2.930747e+01	-6.096143e+01
8.300000e-07	-4.204609e-06	-9.166186e-10	-2.909501e+01	-6.074726e+01
8.400000e-07	-4.173611e-06	-9.130555e-10	-2.888051e+01	-6.053040e+01
8.500000e-07	-4.142427e-06	-9.089760e-10	-2.866472e+01	-6.031082e+01
8.600000e-07	-4.111036e-06	-9.018224e-10	-2.844751e+01	-6.008848e+01
8.700000e-07	-4.079474e-06	-8.989730e-10	-2.822911e+01	-5.986335e+01
8.800000e-07	-4.047733e-06	-8.918256e-10	-2.800946e+01	-5.963539e+01
8.900000e-07	-4.015805e-06	-8.895195e-10	-2.778853e+01	-5.940456e+01
9.000000e-07	-3.983631e-06	-8.840560e-10	-2.756589e+01	-5.917082e+01
9.100000e-07	-3.951085e-06	-8.808559e-10	-2.734068e+01	-5.893415e+01
9.200000e-07	-3.918178e-06	-8.720659e-10	-2.711297e+01	-5.869449e+01
9.300000e-07	-3.884885e-06	-8.708349e-10	-2.688259e+01	-5.845180e+01
9.400000e-07	-3.851136e-06	-8.661463e-10	-2.664905e+01	-5.820603e+01
9.500000e-07	-3.816981e-06	-8.637883e-10	-2.641271e+01	-5.795714e+01
9.600000e-07	-3.782383e-06	-8.581575e-10	-2.617329e+01	-5.770505e+01
9.700000e-07	-3.747331e-06	-8.565233e-10	-2.593074e+01	-5.744972e+01
9.800000e-07	-3.711944e-06	-8.497610e-10	-2.568587e+01	-5.719108e+01
9.900000e-07	-3.676379e-06	-8.447195e-10	-2.543977e+01	-5.692905e+01
1.000000e-06	-3.640680e-06	-8.396634e-10	-2.519274e+01	-5.666355e+01
1.010000e-06	-3.604813e-06	-8.362853e-10	-2.494455e+01	-5.639450e+01
1.020000e-06	-3.568766e-06	-8.305418e-10	-2.469511e+01	-5.612182e+01
1.030000e-06	-3.532545e-06	-8.272390e-10	-2.444447e+01	-5.584541e+01
1.040000e-06	-3.496167e-06	-8.228146e-10	-2.419274e+01	-5.556517e+01
1.050000e-06	-3.459586e-06	-8.191282e-10	-2.393961e+01	-5.528099e+01
1.060000e-06	-3.422724e-06	-8.116705e-10	-2.368453e+01	-5.499276e+01
1.070000e-06	-3.385572e-06	-8.040991e-10	-2.342745e+01	-5.470037e+01
1.080000e-06	-3.348126e-06	-7.991525e-10	-2.316833e+01	-5.440371e+01
1.090000e-06	-3.310445e-06	-7.948647e-10	-2.290759e+01	-5.410265e+01
1.100000e-06	-3.272552e-06	-7.915035e-10	-2.264537e+01	-5.379706e+01
1.110000e-06	-3.234480e-06	-7.854186e-10	-2.238192e+01	-5.348683e+01
1.120000e-06	-3.196167e-06	-7.778971e-10	-2.211680e+01	-5.317181e+01
1.130000e-06	-3.157522e-06	-7.699712e-10	-2.184939e+01	-5.285190e+01
1.140000e-06	-3.118714e-06	-7.641148e-10	-2.158085e+01	-5.252695e+01
1.150000e-06	-3.079718e-06	-7.563241e-10	-2.131100e+01	-5.219685e+01
1.160000e-06	-3.040477e-06	-7.499827e-10	-2.103946e+01	-5.186146e+01
1.170000e-06	-3.001136e-06	-7.453368e-10	-2.076723e+01	-5.152067e+01
1.180000e-06	-2.961636e-06	-7.432596e-10	-2.049390e+01	-5.117435e+01
1.190000e-06	-2.921929e-06	-7.384136e-10	-2.021913e+01	-5.082239e+01
1.200000e-06	-2.882109e-06	-7.332350e-10	-1.994359e+01	-5.046467e+01
1.210000e-06	-2.842223e-06	-7.240767e-10	-1.966759e+01	-5.010110e+01
1.220000e-06	-2.802200e-06	-7.163660e-10	-1.939063e+01	-4.973156e+01
1.230000e-06	-2.761898e-06	-7.093851e-10	-1.911176e+01	-4.935596e+01
1.240000e-06	-2.721385e-06	-7.073388e-10	-1.883141e+01	-4.897421e+01
1.250000e-06	-2.680728e-06	-7.019143e-10	-1.855007e+01	-4.858622e+01
1.260000e-06	-2.639777e-06	-6.987515e-10	-1.826670e+01	-4.819192e+01
1.270000e-06	-2.598520e-06	-6.984541e-10	-1.798121e+01	-4.779123e+01
1.280000e-06	-2.557084e-06	-6.953859e-10	-1.769448e+01	-4.738408e+01
1.290000e-06	-2.515314e-06	-6.864395e-10	-1.740544e+01	-4.697040e+01
1.300000e-06	-2.473205e-06	-6.795312e-10	-1.711406e+01	-4.655013e+01
1.310000e-06	-2.430898e-06	-6.718462e-10	-1.682130e+01	-4.612323e+01
1.320000e-06	-2.388294e-06	-6.627016e-10	-1.652649e+01	-4.568963e+01
1.330000e-06	-2.345375e-06	-6.562634e-10	-1.622950e+01	-4.524929e+01
1.340000e-06	-2.302199e-06	-6.528504e-10	-1.593073e+01	-4.480215e+01
1.350000e-06	-2.258818e-06	-6.477025e-10	-1.563054e+01	-4.434817e+01
1.360000e-06	-2.215264e-06	-6.398805e-10	-1.532916e+01	-4.388728e+01
1.370000e-06	-2.171641e-06	-6.312096e-10	-1.502730e+01	-4.341945e+01
1.380000e-06	-2.127959e-06	-6.233998e-10	-1.472503e+01	-4.294461e+01
1.390000e-06	-2.084157e-06	-6.136569e-10	-1.442193e+01	-4.246271e+01
1.400000e-06	-2.040268e-06	-6.047835e-10	-1.411823e+01	-4.197366e+01
1.410000e-06	-1.996312e-06	-5.968319e-10	-1.381406e+01	-4.147740e+01
1.420000e-06	-1.952225e-06	-5.869163e-10	-1.350899e+01	-4.097385e+01
1.430000e-06	-1.907981e-06	-5.782068e-10	-1.320283e+01	-4.046291e+01
1.440000e-06	-1.863680e-06	-5.698069e-10	-1.289628e+01	-3.994447e+01
1.450000e-06	-1.819312e-06	-5.618274e-10	-1.258926e+01	-3.941843e+01
1.460000e-06	-1.774882e-06	-5.526586e-10	-1.228181e+01	-3.888464e+01
1.470000e-06	-1.730344e-06	-5.443680e-10	-1.197362e+01	-3.834296e+01
1.480000e-06	-1.685645e-06	-5.333624e-10	-1.166431e+01	-3.779324e+01
1.490000e-06	-1.640760e-06	-5.231692e-10	-1.135372e+01	-3.723530e+01
1.500000e-06	-1.595701e-06	-5.143510e-10	-1.104191e+01	-3.666894e+01
1.510000e-06	-1.550466e-06	-5.061146e-10	-1.072890e+01	-3.609397e+01
1.520000e-06	-1.505123e-06	-4.969817e-10	-1.041513e+01	-3.551016e+01
1.530000e-06	-1.459704e-06	-4.870564e-10	-1.010084e+01	-3.491726e+01
1.540000e-06	-1.414217e-06	-4.759677e-10	-9.786083e+00	-3.431503e+01
1.550000e-06	-1.368669e-06	-4.659146e-10	-9.470901e+00	-3.370319e+01
1.560000e-06	-1.322974e-06	-4.553536e-10	-9.154704e+00	-3.308146e+01
1.570000e-06	-1.277197e-06	-4.463818e-10	-8.837936e+00	-3.244953e+01
1.580000e-06	-1.231318e-06	-4.367257e-10	-8.520460e+00	-3.180711e+01
1.590000e-06	-1.185315e-06	-4.279059e-10	-8.202134e+00	-3.115386e+01
1.600000e-06	-1.139245e-06	-4.181598e-10	-7.883338e+00	-3.048947e+01
1.610000e-06	-1.093144e-06	-4.093993e-10	-7.564330e+00	-2.981358e+01
1.620000e-06	-1.047005e-06	-4.002371e-10	-7.245055e+00	-2.912587e+01
1.630000e-06	-1.000806e-06	-3.895859e-10	-6.925370e+00	-2.842599e+01
1.640000e-06	-9.545041e-07	-3.758666e-10	-6.604968e+00	-2.771359e+01
1.650000e-06	-9.081161e-07	-3.628478e-10	-6.283973e+00	-2.698833e+01
1.660000e-06	-8.616779e-07	-3.539457e-10	-5.962630e+00	-2.624988e+01
1.670000e-06	-8.151561e-07	-3.441412e-10	-5.640709e+00	-2.549792e+01
1.680000e-06	-7.686329e-07	-3.335071e-10	-5.318778e+00	-2.473213e+01
1.690000e-06	-7.220964e-07	-3.228457e-10	-4.996756e+00	-2.395222e+01
1.700000e-06	-6.754606e-07	-3.114299e-10	-4.674045e+00	-2.315789e+01
1.710000e-06	-6.287724e-07	-2.937156e-10	-4.350973e+00	-2.234890e+01
1.720000e-06	-5.820215e-07	-2.773816e-10	-4.027466e+00	-2.152500e+01
1.730000e-06	-5.351771e-07	-2.624202e-10	-3.703313e+00	-2.068600e+01
1.740000e-06	-4.882231e-07	-2.500952e-10	-3.378401e+00	-1.983172e+01
1.750000e-06	-4.412535e-07	-2.415469e-10	-3.053382e+00	-1.896201e+01
1.760000e-06	-3.943274e-07	-2.323722e-10	-2.728663e+00	-1.807677e+01
1.770000e-06	-3.472583e-07	-2.196953e-10	-2.402955e+00	-1.717594e+01
1.780000e-06	-3.000630e-07	-2.043131e-10	-2.076373e+00	-1.625949e+01
1.790000e-06	-2.528983e-07	-1.871585e-10	-1.750003e+00	-1.532744e+01
1.800000e-06	-2.058102e-07	-1.682052e-10	-1.424163e+00	-1.437986e+01
1.810000e-06	-1.587662e-07	-1.512558e-10	-1.098629e+00	-1.341688e+01
1.820000e-06	-1.116398e-07	-1.379125e-10	-7.725242e-01	-1.243864e+01
1.830000e-06	-6.453369e-08	-1.259668e-10	-4.465596e-01	-1.144538e+01
1.840000e-06	-1.747519e-08	-1.145191e-10	-1.209247e-01	-1.043735e+01
1.850000e-06	2.957051e-08	-1.023522e-10	2.046218e-01	-9.414889e+00
1.860000e-06	7.664458e-08	-9.004102e-11	5.303644e-01	-8.378362e+00
1.870000e-06	1.238073e-07	-7.349740e-11	8.567202e-01	-7.328199e+00
1.880000e-06	1.709565e-07	-5.561731e-11	1.182983e+00	-6.264881e+00
1.890000e-06	2.180310e-07	-3.977992e-11	1.508729e+00	-5.188938e+00
1.900000e-06	2.649986e-07	-2.440299e-11	1.833735e+00	-4.100953e+00
1.910000e-06	3.119708e-07	-9.871661e-12	2.158773e+00	-3.001557e+00
1.920000e-06	3.590286e-07	4.606949e-12	2.484402e+00	-1.891429e+00
1.930000e-06	4.060125e-07	1.894308e-11	2.809521e+00	-7.712911e-01
1.940000e-06	4.528319e-07	3.256251e-11	3.133502e+00	3.580897e-01
1.950000e-06	4.997340e-07	4.530072e-11	3.458054e+00	1.495908e+00
1.960000e-06	5.465783e-07	5.974567e-11	3.782207e+00	2.641323e+00
1.970000e-06	5.933406e-07	7.681982e-11	4.105792e+00	3.793458e+00
1.980000e-06	6.401300e-07	9.426724e-11	4.429565e+00	4.951408e+00
1.990000e-06	6.867809e-07	1.100701e-10	4.752380e+00	6.114243e+00
2.000000e-06	7.332873e-07	1.261816e-10	5.074194e+00	7.281008e+00
2.010000e-06	7.797526e-07	1.421125e-10	5.395724e+00	8.450734e+00
2.020000e-06	8.261850e-07	1.578283e-10	5.717027e+00	9.622435e+00
2.030000e-06	8.726264e-07	1.736501e-10	6.038391e+00	1.079512e+01
2.040000e-06	9.190095e-07	1.921399e-10	6.359353e+00	1.196778e+01
2.050000e-06	9.651683e-07	2.083219e-10	6.678762e+00	1.313943e+01
2.060000e-06	1.011362e-06	2.235333e-10	6.998415e+00	1.430906e+01
2.070000e-06	1.057482e-06	2.403139e-10	7.317552e+00	1.547570e+01
2.080000e-06	1.103410e-06	2.555589e-10	7.635367e+00	1.663835e+01
2.090000e-06	1.149383e-06	2.693693e-10	7.953491e+00	1.779607e+01
2.100000e-06	1.195288e-06	2.855959e-10	8.271142e+00	1.894790e+01
2.110000e-06	1.241005e-06	3.031950e-10	8.587493e+00	2.009295e+01
2.120000e-06	1.286671e-06	3.214722e-10	8.903491e+00	2.123031e+01
2.130000e-06	1.332337e-06	3.389539e-10	9.219493e+00	2.235914e+01
2.140000e-06	1.377829e-06	3.535605e-10	9.534284e+00	2.347860e+01
2.150000e-06	1.423184e-06	3.657039e-10	9.848136e+00	2.458792e+01
2.160000e-06	1.468583e-06	3.776809e-10	1.016228e+01	2.568633e+01
2.170000e-06	1.513935e-06	3.920247e-10	1.047611e+01	2.677315e+01
2.180000e-06	1.559162e-06	4.079275e-10	1.078907e+01	2.784770e+01
2.190000e-06	1.604209e-06	4.253268e-10	1.110079e+01	2.890937e+01
2.200000e-06	1.649157e-06	4.414978e-10	1.141182e+01	2.995758e+01
2.210000e-06	1.694005e-06	4.568991e-10	1.172216e+01	3.099181e+01
2.220000e-06	1.738718e-06	4.720749e-10	1.203156e+01	3.201159e+01
2.230000e-06	1.783305e-06	4.852847e-10	1.234009e+01	3.301648e+01
2.240000e-06	1.827695e-06	4.951651e-10	1.264727e+01	3.400610e+01
2.250000e-06	1.871928e-06	5.042156e-10	1.295335e+01	3.498013e+01
2.260000e-06	1.916019e-06	5.152847e-10	1.325845e+01	3.593826e+01
2.270000e-06	1.959986e-06	5.281829e-10	1.356269e+01	3.688026e+01
2.280000e-06	2.003919e-06	5.411880e-10	1.386670e+01	3.780593e+01
2.290000e-06	2.047811e-06	5.549082e-10	1.417043e+01	3.871511e+01
2.300000e-06	2.091626e-06	5.678003e-10	1.447361e+01	3.960770e+01
2.310000e-06	2.135403e-06	5.810452e-10	1.477654e+01	4.048360e+01
2.320000e-06	2.179132e-06	5.926316e-10	1.507914e+01	4.134280e+01
2.330000e-06	2.222800e-06	6.029732e-10	1.538131e+01	4.218528e+01
2.340000e-06	2.266320e-06	6.132157e-10	1.568246e+01	4.301107e+01
2.350000e-06	2.309672e-06	6.241725e-10	1.598244e+01	4.382023e+01
2.360000e-06	2.352884e-06	6.359354e-10	1.628147e+01	4.461284e+01
2.370000e-06	2.395864e-06	6.484816e-10	1.657888e+01	4.538902e+01
2.380000e-06	2.438560e-06	6.607565e-10	1.687432e+01	4.614890e+01
2.390000e-06	2.480994e-06	6.712764e-10	1.716796e+01	4.689262e+01
2.400000e-06	2.523070e-06	6.805476e-10	1.745911e+01	4.762036e+01
2.410000e-06	2.564776e-06	6.882614e-10	1.774771e+01	4.833229e+01
2.420000e-06	2.606242e-06	6.964558e-10	1.803465e+01	4.902862e+01
2.430000e-06	2.647369e-06	7.069315e-10	1.831924e+01	4.970953e+01
2.440000e-06	2.688079e-06	7.195416e-10	1.860094e+01	5.037525e+01
2.450000e-06	2.728538e-06	7.313372e-10	1.888091e+01	5.102598e+01
2.460000e-06	2.768881e-06	7.396303e-10	1.916008e+01	5.166195e+01
2.470000e-06	2.809086e-06	7.439196e-10	1.943829e+01	5.228337e+01
2.480000e-06	2.849092e-06	7.485407e-10	1.971512e+01	5.289047e+01
2.490000e-06	2.888939e-06	7.558761e-10	1.999085e+01	5.348345e+01
2.500000e-06	2.928714e-06	7.648538e-10	2.026609e+01	5.406255e+01
2.510000e-06	2.968381e-06	7.741773e-10	2.054057e+01	5.462796e+01
2.520000e-06	3.007861e-06	7.837327e-10	2.081376e+01	5.517990e+01
2.530000e-06	3.047106e-06	7.928336e-10	2.108533e+01	5.571857e+01
2.540000e-06	3.086108e-06	7.989496e-10	2.135522e+01	5.624416e+01
2.550000e-06	3.124973e-06	8.016619e-10	2.162416e+01	5.675687e+01
2.560000e-06	3.163709e-06	8.047736e-10	2.189220e+01	5.725689e+01
2.570000e-06	3.202204e-06	8.104642e-10	2.215858e+01	5.774439e+01
2.580000e-06	3.240408e-06	8.162077e-10	2.242294e+01	5.821956e+01
2.590000e-06	3.278401e-06	8.237631e-10	2.268584e+01	5.868256e+01
2.600000e-06	3.316138e-06	8.326979e-10	2.294698e+01	5.913356e+01
2.610000e-06	3.353625e-06	8.410457e-10	2.320638e+01	5.957274e+01
2.620000e-06	3.390928e-06	8.479032e-10	2.346451e+01	6.000025e+01
2.630000e-06	3.428021e-06	8.508179e-10	2.372119e+01	6.041625e+01
2.640000e-06	3.464817e-06	8.534298e-10	2.397580e+01	6.082091e+01
2.650000e-06	3.501267e-06	8.559526e-10	2.422803e+01	6.121438e+01
2.660000e-06	3.537575e-06	8.630960e-10	2.447928e+01	6.159683e+01
2.670000e-06	3.573719e-06	8.674099e-10	2.472939e+01	6.196842e+01
2.680000e-06	3.609641e-06	8.698849e-10	2.497795e+01	6.232932e+01
2.690000e-06	3.645456e-06	8.744947e-10	2.522579e+01	6.267971e+01
2.700000e-06	3.681162e-06	8.795248e-10	2.547287e+01	6.301974e+01
2.710000e-06	3.716730e-06	8.844779e-10	2.571899e+01	6.334962e+01
2.720000e-06	3.752049e-06	8.913388e-10	2.596339e+01	6.366952e+01
2.730000e-06	3.787133e-06	9.007547e-10	2.620616e+01	6.397963e+01
2.740000e-06	3.821932e-06	9.075630e-10	2.644697e+01	6.428016e+01
2.750000e-06	3.856238e-06	9.119047e-10	2.668436e+01	6.457131e+01
2.760000e-06	3.889989e-06	9.137620e-10	2.691791e+01	6.485329e+01
2.770000e-06	3.923114e-06	9.146049e-10	2.714712e+01	6.512633e+01
2.780000e-06	3.955765e-06	9.164258e-10	2.737306e+01	6.539064e+01
2.790000e-06	3.988167e-06	9.219027e-10	2.759728e+01	6.564647e+01
2.800000e-06	4.020346e-06	9.304973e-10	2.781995e+01	6.589406e+01
2.810000e-06	4.052293e-06	9.395387e-10	2.804101e+01	6.613363e+01
2.820000e-06	4.084061e-06	9.438626e-10	2.826084e+01	6.636545e+01
2.830000e-06	4.115658e-06	9.433518e-10	2.847949e+01	6.658977e+01
2.840000e-06	4.147057e-06	9.428886e-10	2.869676e+01	6.680683e+01
2.850000e-06	4.178236e-06	9.443989e-10	2.891252e+01	6.701690e+01
2.860000e-06	4.209082e-06	9.482132e-10	2.912597e+01	6.722023e+01
2.870000e-06	4.239530e-06	9.543442e-10	2.933665e+01	6.741708e+01
2.880000e-06	4.269652e-06	9.593444e-10	2.954510e+01	6.760769e+01
2.890000e-06	4.299516e-06	9.628399e-10	2.975175e+01	6.779233e+01
2.900000e-06	4.329094e-06	9.650791e-10	2.995642e+01	6.797123e+01
