# Temperatura_=_-3.7
# Concentracion g/m^3_=_1620.0
# C_Vs_to_Am_M_A/Vsm_=_65563218390.804596
# pendiente_HvsI_1/m_=_3716.3
# ordenada_HvsI_A/m_=_1297.0
# frecuencia_Hz_=_135093.83083443728

Tiempo_(s)	Campo_(V.s)	Magnetizacion_(V.s)	Campo_(kA/m)	Magnetizacion_(A/m)
0.000000e+00	-5.539125e-06	-1.024000e-09	-3.836697e+01	-6.846558e+01
1.000000e-08	-5.539320e-06	-1.021667e-09	-3.836832e+01	-6.845635e+01
2.000000e-08	-5.539373e-06	-1.018061e-09	-3.836869e+01	-6.844667e+01
3.000000e-08	-5.539132e-06	-1.015322e-09	-3.836702e+01	-6.843652e+01
4.000000e-08	-5.538408e-06	-1.014055e-09	-3.836201e+01	-6.842586e+01
5.000000e-08	-5.537041e-06	-1.012303e-09	-3.835254e+01	-6.841463e+01
6.000000e-08	-5.535058e-06	-1.007440e-09	-3.833880e+01	-6.840279e+01
7.000000e-08	-5.532500e-06	-9.914972e-10	-3.832109e+01	-6.839026e+01
8.000000e-08	-5.529382e-06	-9.925604e-10	-3.829949e+01	-6.837696e+01
9.000000e-08	-5.525843e-06	-1.047788e-09	-3.827497e+01	-6.836280e+01
1.000000e-07	-5.521834e-06	-1.104629e-09	-3.824721e+01	-6.834769e+01
1.100000e-07	-5.517476e-06	-1.037806e-09	-3.821702e+01	-6.833153e+01
1.200000e-07	-5.512894e-06	-9.675414e-10	-3.818528e+01	-6.831420e+01
1.300000e-07	-5.508041e-06	-9.544480e-10	-3.815167e+01	-6.829558e+01
1.400000e-07	-5.502832e-06	-1.053803e-09	-3.811559e+01	-6.827557e+01
1.500000e-07	-5.497195e-06	-1.013996e-09	-3.807654e+01	-6.825404e+01
1.600000e-07	-5.491244e-06	-9.531460e-10	-3.803533e+01	-6.823087e+01
1.700000e-07	-5.485009e-06	-9.710729e-10	-3.799213e+01	-6.820592e+01
1.800000e-07	-5.478346e-06	-1.063821e-09	-3.794598e+01	-6.817908e+01
1.900000e-07	-5.471195e-06	-1.075865e-09	-3.789646e+01	-6.815023e+01
2.000000e-07	-5.463694e-06	-9.977749e-10	-3.784449e+01	-6.811924e+01
2.100000e-07	-5.455977e-06	-1.003714e-09	-3.779105e+01	-6.808600e+01
2.200000e-07	-5.448080e-06	-1.038523e-09	-3.773635e+01	-6.805040e+01
2.300000e-07	-5.439900e-06	-1.072891e-09	-3.767969e+01	-6.801232e+01
2.400000e-07	-5.431352e-06	-1.029859e-09	-3.762048e+01	-6.797166e+01
2.500000e-07	-5.422207e-06	-1.045909e-09	-3.755714e+01	-6.792834e+01
2.600000e-07	-5.412262e-06	-1.051251e-09	-3.748825e+01	-6.788227e+01
2.700000e-07	-5.401714e-06	-1.062520e-09	-3.741519e+01	-6.783336e+01
2.800000e-07	-5.390621e-06	-1.014256e-09	-3.733836e+01	-6.778154e+01
2.900000e-07	-5.379007e-06	-1.021544e-09	-3.725791e+01	-6.772676e+01
3.000000e-07	-5.367058e-06	-1.025870e-09	-3.717515e+01	-6.766895e+01
3.100000e-07	-5.354845e-06	-1.031381e-09	-3.709055e+01	-6.760808e+01
3.200000e-07	-5.342163e-06	-9.946880e-10	-3.700271e+01	-6.754410e+01
3.300000e-07	-5.328977e-06	-1.010209e-09	-3.691137e+01	-6.747699e+01
3.400000e-07	-5.315477e-06	-1.027759e-09	-3.681787e+01	-6.740674e+01
3.500000e-07	-5.301580e-06	-1.021452e-09	-3.672161e+01	-6.733332e+01
3.600000e-07	-5.287102e-06	-9.875018e-10	-3.662133e+01	-6.725674e+01
3.700000e-07	-5.272218e-06	-1.007266e-09	-3.651823e+01	-6.717699e+01
3.800000e-07	-5.256911e-06	-1.016966e-09	-3.641220e+01	-6.709410e+01
3.900000e-07	-5.240917e-06	-9.847013e-10	-3.630143e+01	-6.700808e+01
4.000000e-07	-5.224410e-06	-9.841914e-10	-3.618709e+01	-6.691895e+01
4.100000e-07	-5.207686e-06	-1.022603e-09	-3.607124e+01	-6.682674e+01
4.200000e-07	-5.190635e-06	-1.004284e-09	-3.595314e+01	-6.673148e+01
4.300000e-07	-5.173250e-06	-9.569575e-10	-3.583272e+01	-6.663320e+01
4.400000e-07	-5.155633e-06	-1.003024e-09	-3.571070e+01	-6.653195e+01
4.500000e-07	-5.137610e-06	-1.023038e-09	-3.558587e+01	-6.642776e+01
4.600000e-07	-5.119101e-06	-9.748200e-10	-3.545766e+01	-6.632068e+01
4.700000e-07	-5.100190e-06	-9.556106e-10	-3.532667e+01	-6.621074e+01
4.800000e-07	-5.080977e-06	-1.010668e-09	-3.519359e+01	-6.609799e+01
4.900000e-07	-5.061497e-06	-9.864792e-10	-3.505867e+01	-6.598247e+01
5.000000e-07	-5.041820e-06	-9.658351e-10	-3.492237e+01	-6.586422e+01
5.100000e-07	-5.021987e-06	-9.878824e-10	-3.478500e+01	-6.574327e+01
5.200000e-07	-5.001815e-06	-9.926968e-10	-3.464527e+01	-6.561967e+01
5.300000e-07	-4.981218e-06	-9.463046e-10	-3.450261e+01	-6.549344e+01
5.400000e-07	-4.960291e-06	-9.766977e-10	-3.435766e+01	-6.536461e+01
5.500000e-07	-4.939009e-06	-9.938672e-10	-3.421025e+01	-6.523322e+01
5.600000e-07	-4.917388e-06	-9.613805e-10	-3.406048e+01	-6.509929e+01
5.700000e-07	-4.895452e-06	-9.455317e-10	-3.390855e+01	-6.496283e+01
5.800000e-07	-4.873192e-06	-9.801663e-10	-3.375436e+01	-6.482386e+01
5.900000e-07	-4.850542e-06	-9.570566e-10	-3.359748e+01	-6.468240e+01
6.000000e-07	-4.827471e-06	-9.363272e-10	-3.343767e+01	-6.453846e+01
6.100000e-07	-4.804052e-06	-9.530568e-10	-3.327546e+01	-6.439204e+01
6.200000e-07	-4.780431e-06	-9.605944e-10	-3.311185e+01	-6.424315e+01
6.300000e-07	-4.756632e-06	-9.355904e-10	-3.294701e+01	-6.409180e+01
6.400000e-07	-4.732560e-06	-9.440288e-10	-3.278027e+01	-6.393797e+01
6.500000e-07	-4.708210e-06	-9.553676e-10	-3.261161e+01	-6.378167e+01
6.600000e-07	-4.683332e-06	-9.428283e-10	-3.243929e+01	-6.362289e+01
6.700000e-07	-4.657937e-06	-9.379627e-10	-3.226339e+01	-6.346163e+01
6.800000e-07	-4.632108e-06	-9.464373e-10	-3.208449e+01	-6.329789e+01
6.900000e-07	-4.605618e-06	-9.384922e-10	-3.190100e+01	-6.313165e+01
7.000000e-07	-4.578653e-06	-9.269670e-10	-3.171423e+01	-6.296291e+01
7.100000e-07	-4.551393e-06	-9.330334e-10	-3.152541e+01	-6.279167e+01
7.200000e-07	-4.523837e-06	-9.298413e-10	-3.133454e+01	-6.261792e+01
7.300000e-07	-4.496129e-06	-9.219907e-10	-3.114262e+01	-6.244166e+01
7.400000e-07	-4.468325e-06	-9.199218e-10	-3.095003e+01	-6.226288e+01
7.500000e-07	-4.440251e-06	-9.273088e-10	-3.075558e+01	-6.208159e+01
7.600000e-07	-4.411852e-06	-9.187231e-10	-3.055887e+01	-6.189778e+01
7.700000e-07	-4.383149e-06	-9.165880e-10	-3.036006e+01	-6.171147e+01
7.800000e-07	-4.354113e-06	-9.120321e-10	-3.015894e+01	-6.152264e+01
7.900000e-07	-4.324746e-06	-9.097100e-10	-2.995553e+01	-6.133132e+01
8.000000e-07	-4.295157e-06	-9.003408e-10	-2.975058e+01	-6.113751e+01
8.100000e-07	-4.265375e-06	-9.001433e-10	-2.954430e+01	-6.094122e+01
8.200000e-07	-4.235254e-06	-8.927807e-10	-2.933566e+01	-6.074246e+01
8.300000e-07	-4.204770e-06	-8.921213e-10	-2.912451e+01	-6.054125e+01
8.400000e-07	-4.173817e-06	-8.888356e-10	-2.891011e+01	-6.033760e+01
8.500000e-07	-4.142551e-06	-8.890396e-10	-2.869355e+01	-6.013152e+01
8.600000e-07	-4.111166e-06	-8.819343e-10	-2.847616e+01	-5.992302e+01
8.700000e-07	-4.079650e-06	-8.811582e-10	-2.825786e+01	-5.971213e+01
8.800000e-07	-4.048063e-06	-8.764735e-10	-2.803907e+01	-5.949885e+01
8.900000e-07	-4.016312e-06	-8.741480e-10	-2.781915e+01	-5.928318e+01
9.000000e-07	-3.984291e-06	-8.699986e-10	-2.759735e+01	-5.906515e+01
9.100000e-07	-3.951973e-06	-8.673679e-10	-2.737350e+01	-5.884474e+01
9.200000e-07	-3.919266e-06	-8.586082e-10	-2.714696e+01	-5.862197e+01
9.300000e-07	-3.886068e-06	-8.546177e-10	-2.691701e+01	-5.839683e+01
9.400000e-07	-3.852438e-06	-8.537788e-10	-2.668406e+01	-5.816930e+01
9.500000e-07	-3.818342e-06	-8.529409e-10	-2.644790e+01	-5.793937e+01
9.600000e-07	-3.783786e-06	-8.496191e-10	-2.620855e+01	-5.770703e+01
9.700000e-07	-3.748796e-06	-8.478337e-10	-2.596619e+01	-5.747223e+01
9.800000e-07	-3.713429e-06	-8.452627e-10	-2.572121e+01	-5.723495e+01
9.900000e-07	-3.677840e-06	-8.367693e-10	-2.547471e+01	-5.699513e+01
1.000000e-06	-3.642141e-06	-8.305665e-10	-2.522743e+01	-5.675273e+01
1.010000e-06	-3.606394e-06	-8.247239e-10	-2.497983e+01	-5.650768e+01
1.020000e-06	-3.570503e-06	-8.204332e-10	-2.473123e+01	-5.625992e+01
1.030000e-06	-3.534411e-06	-8.159484e-10	-2.448124e+01	-5.600936e+01
1.040000e-06	-3.498075e-06	-8.152143e-10	-2.422956e+01	-5.575592e+01
1.050000e-06	-3.461479e-06	-8.092596e-10	-2.397607e+01	-5.549950e+01
1.060000e-06	-3.424638e-06	-8.020267e-10	-2.372089e+01	-5.523999e+01
1.070000e-06	-3.387500e-06	-7.944582e-10	-2.346366e+01	-5.497728e+01
1.080000e-06	-3.350144e-06	-7.916143e-10	-2.320491e+01	-5.471124e+01
1.090000e-06	-3.312521e-06	-7.862188e-10	-2.294431e+01	-5.444175e+01
1.100000e-06	-3.274679e-06	-7.844273e-10	-2.268220e+01	-5.416867e+01
1.110000e-06	-3.236667e-06	-7.801087e-10	-2.241890e+01	-5.389186e+01
1.120000e-06	-3.198357e-06	-7.769286e-10	-2.215355e+01	-5.361116e+01
1.130000e-06	-3.159853e-06	-7.713319e-10	-2.188685e+01	-5.332642e+01
1.140000e-06	-3.121051e-06	-7.682199e-10	-2.161808e+01	-5.303748e+01
1.150000e-06	-3.081977e-06	-7.598136e-10	-2.134744e+01	-5.274418e+01
1.160000e-06	-3.042835e-06	-7.505698e-10	-2.107632e+01	-5.244635e+01
1.170000e-06	-3.003536e-06	-7.429548e-10	-2.080411e+01	-5.214384e+01
1.180000e-06	-2.964027e-06	-7.407872e-10	-2.053045e+01	-5.183646e+01
1.190000e-06	-2.924405e-06	-7.383328e-10	-2.025601e+01	-5.152405e+01
1.200000e-06	-2.884737e-06	-7.371900e-10	-1.998125e+01	-5.120645e+01
1.210000e-06	-2.844905e-06	-7.341744e-10	-1.970535e+01	-5.088350e+01
1.220000e-06	-2.804873e-06	-7.265612e-10	-1.942807e+01	-5.055503e+01
1.230000e-06	-2.764704e-06	-7.159347e-10	-1.914984e+01	-5.022088e+01
1.240000e-06	-2.724294e-06	-7.099371e-10	-1.886993e+01	-4.988090e+01
1.250000e-06	-2.683670e-06	-7.064961e-10	-1.858855e+01	-4.953495e+01
1.260000e-06	-2.642780e-06	-7.032954e-10	-1.830532e+01	-4.918288e+01
1.270000e-06	-2.601579e-06	-7.029150e-10	-1.801994e+01	-4.882456e+01
1.280000e-06	-2.560165e-06	-7.017326e-10	-1.773309e+01	-4.845985e+01
1.290000e-06	-2.518437e-06	-6.950802e-10	-1.744405e+01	-4.808863e+01
1.300000e-06	-2.476285e-06	-6.836451e-10	-1.715209e+01	-4.771079e+01
1.310000e-06	-2.433780e-06	-6.742602e-10	-1.685768e+01	-4.732621e+01
1.320000e-06	-2.391065e-06	-6.660686e-10	-1.656181e+01	-4.693479e+01
1.330000e-06	-2.348136e-06	-6.588307e-10	-1.626446e+01	-4.653643e+01
1.340000e-06	-2.304989e-06	-6.557286e-10	-1.596560e+01	-4.613104e+01
1.350000e-06	-2.261672e-06	-6.522010e-10	-1.566556e+01	-4.571853e+01
1.360000e-06	-2.218230e-06	-6.431273e-10	-1.536466e+01	-4.529881e+01
1.370000e-06	-2.174686e-06	-6.362867e-10	-1.506305e+01	-4.487181e+01
1.380000e-06	-2.130984e-06	-6.296398e-10	-1.476035e+01	-4.443745e+01
1.390000e-06	-2.087134e-06	-6.233976e-10	-1.445662e+01	-4.399565e+01
1.400000e-06	-2.043268e-06	-6.151497e-10	-1.415278e+01	-4.354633e+01
1.410000e-06	-1.999335e-06	-6.096590e-10	-1.384848e+01	-4.308941e+01
1.420000e-06	-1.955369e-06	-6.036536e-10	-1.354394e+01	-4.262482e+01
1.430000e-06	-1.911385e-06	-5.971105e-10	-1.323928e+01	-4.215248e+01
1.440000e-06	-1.867235e-06	-5.891838e-10	-1.293348e+01	-4.167229e+01
1.450000e-06	-1.822902e-06	-5.832436e-10	-1.262640e+01	-4.118416e+01
1.460000e-06	-1.778439e-06	-5.753325e-10	-1.231843e+01	-4.068799e+01
1.470000e-06	-1.733864e-06	-5.654288e-10	-1.200968e+01	-4.018366e+01
1.480000e-06	-1.689211e-06	-5.571864e-10	-1.170039e+01	-3.967106e+01
1.490000e-06	-1.644355e-06	-5.500140e-10	-1.138969e+01	-3.915005e+01
1.500000e-06	-1.599245e-06	-5.416062e-10	-1.107724e+01	-3.862050e+01
1.510000e-06	-1.554094e-06	-5.345274e-10	-1.076450e+01	-3.808223e+01
1.520000e-06	-1.508796e-06	-5.248367e-10	-1.045074e+01	-3.753509e+01
1.530000e-06	-1.463340e-06	-5.126779e-10	-1.013588e+01	-3.697888e+01
1.540000e-06	-1.417841e-06	-5.010020e-10	-9.820732e+00	-3.641340e+01
1.550000e-06	-1.372226e-06	-4.913557e-10	-9.504780e+00	-3.583844e+01
1.560000e-06	-1.326551e-06	-4.816935e-10	-9.188412e+00	-3.525377e+01
1.570000e-06	-1.280755e-06	-4.727412e-10	-8.871203e+00	-3.465914e+01
1.580000e-06	-1.234889e-06	-4.641231e-10	-8.553505e+00	-3.405428e+01
1.590000e-06	-1.189024e-06	-4.535192e-10	-8.235822e+00	-3.343894e+01
1.600000e-06	-1.143027e-06	-4.417226e-10	-7.917225e+00	-3.281280e+01
1.610000e-06	-1.096914e-06	-4.314453e-10	-7.597821e+00	-3.217559e+01
1.620000e-06	-1.050750e-06	-4.239428e-10	-7.278065e+00	-3.152698e+01
1.630000e-06	-1.004514e-06	-4.168933e-10	-6.957805e+00	-3.086666e+01
1.640000e-06	-9.581957e-07	-4.093684e-10	-6.636981e+00	-3.019430e+01
1.650000e-06	-9.118320e-07	-3.983386e-10	-6.315841e+00	-2.950957e+01
1.660000e-06	-8.653897e-07	-3.839706e-10	-5.994157e+00	-2.881213e+01
1.670000e-06	-8.188058e-07	-3.675270e-10	-5.671491e+00	-2.810166e+01
1.680000e-06	-7.721752e-07	-3.560821e-10	-5.348503e+00	-2.737782e+01
1.690000e-06	-7.255174e-07	-3.462435e-10	-5.025325e+00	-2.664029e+01
1.700000e-06	-6.788171e-07	-3.382651e-10	-4.701854e+00	-2.588875e+01
1.710000e-06	-6.320600e-07	-3.283090e-10	-4.377989e+00	-2.512290e+01
1.720000e-06	-5.852159e-07	-3.154941e-10	-4.053522e+00	-2.434244e+01
1.730000e-06	-5.383353e-07	-3.012563e-10	-3.728801e+00	-2.354712e+01
1.740000e-06	-4.913699e-07	-2.867476e-10	-3.403494e+00	-2.273667e+01
1.750000e-06	-4.444364e-07	-2.728626e-10	-3.078407e+00	-2.191089e+01
1.760000e-06	-3.975317e-07	-2.596795e-10	-2.753520e+00	-2.106956e+01
1.770000e-06	-3.505863e-07	-2.465761e-10	-2.428350e+00	-2.021255e+01
1.780000e-06	-3.036111e-07	-2.347911e-10	-2.102974e+00	-1.933971e+01
1.790000e-06	-2.566143e-07	-2.234219e-10	-1.777449e+00	-1.845096e+01
1.800000e-06	-2.096034e-07	-2.098822e-10	-1.451827e+00	-1.754625e+01
1.810000e-06	-1.626187e-07	-1.932428e-10	-1.126385e+00	-1.662560e+01
1.820000e-06	-1.156504e-07	-1.766440e-10	-8.010569e-01	-1.568904e+01
1.830000e-06	-6.860276e-08	-1.620728e-10	-4.751798e-01	-1.473667e+01
1.840000e-06	-2.155468e-08	-1.492482e-10	-1.492994e-01	-1.376863e+01
1.850000e-06	2.544533e-08	-1.366276e-10	1.762481e-01	-1.278514e+01
1.860000e-06	7.244557e-08	-1.245116e-10	5.017971e-01	-1.178645e+01
1.870000e-06	1.194496e-07	-1.119273e-10	8.273725e-01	-1.077287e+01
1.880000e-06	1.664728e-07	-9.707899e-11	1.153081e+00	-9.744767e+00
1.890000e-06	2.135351e-07	-8.107651e-11	1.479060e+00	-8.702576e+00
1.900000e-06	2.605581e-07	-6.522574e-11	1.804766e+00	-7.646780e+00
1.910000e-06	3.075077e-07	-5.116933e-11	2.129965e+00	-6.577920e+00
1.920000e-06	3.545022e-07	-3.726246e-11	2.455474e+00	-5.496596e+00
1.930000e-06	4.015485e-07	-2.493977e-11	2.781342e+00	-4.403460e+00
1.940000e-06	4.485603e-07	-1.204885e-11	3.106971e+00	-3.299220e+00
1.950000e-06	4.954750e-07	7.558180e-13	3.431927e+00	-2.184633e+00
1.960000e-06	5.422125e-07	1.416431e-11	3.755657e+00	-1.060507e+00
1.970000e-06	5.888647e-07	2.925269e-11	4.078795e+00	7.230451e-02
1.980000e-06	6.354862e-07	4.678246e-11	4.401721e+00	1.212905e+00
1.990000e-06	6.820564e-07	6.524346e-11	4.724291e+00	2.360359e+00
2.000000e-06	7.285657e-07	8.302716e-11	5.046440e+00	3.513694e+00
2.010000e-06	7.750588e-07	9.926242e-11	5.368476e+00	4.671907e+00
2.020000e-06	8.214911e-07	1.149988e-10	5.690091e+00	5.833967e+00
2.030000e-06	8.678073e-07	1.298787e-10	6.010902e+00	6.998820e+00
2.040000e-06	9.141341e-07	1.437040e-10	6.331787e+00	8.165396e+00
2.050000e-06	9.604764e-07	1.573429e-10	6.652778e+00	9.332610e+00
2.060000e-06	1.006716e-06	1.723327e-10	6.973061e+00	1.049937e+01
2.070000e-06	1.052841e-06	1.885715e-10	7.292548e+00	1.166458e+01
2.080000e-06	1.098859e-06	2.069488e-10	7.611291e+00	1.282715e+01
2.090000e-06	1.144789e-06	2.250494e-10	7.929426e+00	1.398599e+01
2.100000e-06	1.190704e-06	2.410688e-10	8.247459e+00	1.514004e+01
2.110000e-06	1.236502e-06	2.558899e-10	8.564680e+00	1.628823e+01
2.120000e-06	1.282230e-06	2.696902e-10	8.881417e+00	1.742954e+01
2.130000e-06	1.327921e-06	2.850197e-10	9.197898e+00	1.856297e+01
2.140000e-06	1.373501e-06	2.999553e-10	9.513611e+00	1.968754e+01
2.150000e-06	1.419016e-06	3.140000e-10	9.828873e+00	2.080232e+01
2.160000e-06	1.464381e-06	3.290202e-10	1.014309e+01	2.190642e+01
2.170000e-06	1.509581e-06	3.448917e-10	1.045617e+01	2.299898e+01
2.180000e-06	1.554683e-06	3.598477e-10	1.076858e+01	2.407921e+01
2.190000e-06	1.599695e-06	3.743781e-10	1.108035e+01	2.514636e+01
2.200000e-06	1.644637e-06	3.875064e-10	1.139164e+01	2.619973e+01
2.210000e-06	1.689448e-06	4.014464e-10	1.170203e+01	2.723867e+01
2.220000e-06	1.734072e-06	4.155838e-10	1.201112e+01	2.826262e+01
2.230000e-06	1.778575e-06	4.283877e-10	1.231937e+01	2.927104e+01
2.240000e-06	1.822998e-06	4.404945e-10	1.262707e+01	3.026348e+01
2.250000e-06	1.867234e-06	4.542347e-10	1.293347e+01	3.123952e+01
2.260000e-06	1.911272e-06	4.670089e-10	1.323850e+01	3.219884e+01
2.270000e-06	1.955216e-06	4.793327e-10	1.354289e+01	3.314115e+01
2.280000e-06	1.999127e-06	4.922888e-10	1.384704e+01	3.406623e+01
2.290000e-06	2.043015e-06	5.038215e-10	1.415102e+01	3.497391e+01
2.300000e-06	2.086794e-06	5.148400e-10	1.445426e+01	3.586411e+01
2.310000e-06	2.130510e-06	5.243646e-10	1.475706e+01	3.673676e+01
2.320000e-06	2.174209e-06	5.335814e-10	1.505975e+01	3.759188e+01
2.330000e-06	2.217751e-06	5.427425e-10	1.536134e+01	3.842951e+01
2.340000e-06	2.261134e-06	5.517932e-10	1.566183e+01	3.924975e+01
2.350000e-06	2.304422e-06	5.637680e-10	1.596167e+01	4.005276e+01
2.360000e-06	2.347564e-06	5.765201e-10	1.626050e+01	4.083873e+01
2.370000e-06	2.390476e-06	5.887144e-10	1.655773e+01	4.160786e+01
2.380000e-06	2.433142e-06	5.989669e-10	1.685326e+01	4.236042e+01
2.390000e-06	2.475465e-06	6.070456e-10	1.714641e+01	4.309670e+01
2.400000e-06	2.517418e-06	6.168425e-10	1.743699e+01	4.381700e+01
2.410000e-06	2.559118e-06	6.272095e-10	1.772584e+01	4.452166e+01
2.420000e-06	2.600559e-06	6.406882e-10	1.801288e+01	4.521102e+01
2.430000e-06	2.641633e-06	6.538640e-10	1.829738e+01	4.588545e+01
2.440000e-06	2.682404e-06	6.646579e-10	1.857978e+01	4.654530e+01
2.450000e-06	2.722961e-06	6.751606e-10	1.886070e+01	4.719096e+01
2.460000e-06	2.763292e-06	6.829105e-10	1.914005e+01	4.782280e+01
2.470000e-06	2.803405e-06	6.887328e-10	1.941789e+01	4.844119e+01
2.480000e-06	2.843349e-06	6.960612e-10	1.969457e+01	4.904650e+01
2.490000e-06	2.883153e-06	7.027224e-10	1.997027e+01	4.963907e+01
2.500000e-06	2.922818e-06	7.104553e-10	2.024502e+01	5.021926e+01
2.510000e-06	2.962355e-06	7.225416e-10	2.051887e+01	5.078738e+01
2.520000e-06	3.001753e-06	7.366725e-10	2.079176e+01	5.134376e+01
2.530000e-06	3.040986e-06	7.457378e-10	2.106351e+01	5.188867e+01
2.540000e-06	3.080007e-06	7.508339e-10	2.133379e+01	5.242240e+01
2.550000e-06	3.118870e-06	7.540198e-10	2.160298e+01	5.294518e+01
2.560000e-06	3.157501e-06	7.563130e-10	2.187056e+01	5.345724e+01
2.570000e-06	3.195819e-06	7.608047e-10	2.213597e+01	5.395877e+01
2.580000e-06	3.233910e-06	7.679567e-10	2.239981e+01	5.444996e+01
2.590000e-06	3.271842e-06	7.772244e-10	2.266255e+01	5.493095e+01
2.600000e-06	3.309538e-06	7.858933e-10	2.292365e+01	5.540186e+01
2.610000e-06	3.346974e-06	7.927026e-10	2.318295e+01	5.586280e+01
2.620000e-06	3.384223e-06	7.966877e-10	2.344096e+01	5.631383e+01
2.630000e-06	3.421267e-06	7.993670e-10	2.369755e+01	5.675503e+01
2.640000e-06	3.458068e-06	8.027834e-10	2.395244e+01	5.718643e+01
2.650000e-06	3.494589e-06	8.054076e-10	2.420541e+01	5.760804e+01
2.660000e-06	3.530858e-06	8.102816e-10	2.445663e+01	5.801986e+01
2.670000e-06	3.566947e-06	8.172333e-10	2.470660e+01	5.842189e+01
2.680000e-06	3.602855e-06	8.235266e-10	2.495532e+01	5.881410e+01
2.690000e-06	3.638591e-06	8.253403e-10	2.520285e+01	5.919645e+01
2.700000e-06	3.674195e-06	8.262512e-10	2.544946e+01	5.956890e+01
2.710000e-06	3.709650e-06	8.285764e-10	2.569504e+01	5.993141e+01
2.720000e-06	3.744885e-06	8.342834e-10	2.593910e+01	6.028393e+01
2.730000e-06	3.779831e-06	8.445670e-10	2.618115e+01	6.062641e+01
2.740000e-06	3.814432e-06	8.530802e-10	2.642082e+01	6.095882e+01
2.750000e-06	3.848583e-06	8.595722e-10	2.665736e+01	6.128110e+01
2.760000e-06	3.882356e-06	8.603162e-10	2.689130e+01	6.159323e+01
2.770000e-06	3.915676e-06	8.599387e-10	2.712209e+01	6.189520e+01
2.780000e-06	3.948434e-06	8.587352e-10	2.734899e+01	6.218698e+01
2.790000e-06	3.980801e-06	8.625163e-10	2.757318e+01	6.246861e+01
2.800000e-06	4.012886e-06	8.721742e-10	2.779542e+01	6.274008e+01
2.810000e-06	4.044745e-06	8.816805e-10	2.801609e+01	6.300146e+01
2.820000e-06	4.076472e-06	8.891526e-10	2.823585e+01	6.325279e+01
2.830000e-06	4.108118e-06	8.930593e-10	2.845504e+01	6.349417e+01
2.840000e-06	4.139565e-06	8.932155e-10	2.867286e+01	6.372568e+01
2.850000e-06	4.170718e-06	8.914124e-10	2.888865e+01	6.394747e+01
2.860000e-06	4.201525e-06	8.899778e-10	2.910203e+01	6.415966e+01
2.870000e-06	4.232026e-06	8.914038e-10	2.931330e+01	6.436244e+01
2.880000e-06	4.262230e-06	8.930499e-10	2.952251e+01	6.455598e+01
2.890000e-06	4.292105e-06	8.981547e-10	2.972944e+01	6.474051e+01
2.900000e-06	4.321715e-06	9.051737e-10	2.993453e+01	6.491625e+01
