# Temperatura_=_-0.21
# Concentracion g/m^3_=_1620.0
# C_Vs_to_Am_M_A/Vsm_=_65563218390.804596
# pendiente_HvsI_1/m_=_3716.3
# ordenada_HvsI_A/m_=_1297.0
# frecuencia_Hz_=_135108.40121002388

Tiempo_(s)	Campo_(V.s)	Magnetizacion_(V.s)	Campo_(kA/m)	Magnetizacion_(A/m)
0.000000e+00	-5.519006e-06	-1.077132e-09	-3.837119e+01	-6.916612e+01
1.000000e-08	-5.519176e-06	-1.078269e-09	-3.837237e+01	-6.918613e+01
2.000000e-08	-5.518962e-06	-1.079351e-09	-3.837089e+01	-6.920515e+01
3.000000e-08	-5.518332e-06	-1.080205e-09	-3.836651e+01	-6.922306e+01
4.000000e-08	-5.517291e-06	-1.079582e-09	-3.835927e+01	-6.923974e+01
5.000000e-08	-5.515704e-06	-1.077718e-09	-3.834824e+01	-6.925504e+01
6.000000e-08	-5.513460e-06	-1.074788e-09	-3.833263e+01	-6.926885e+01
7.000000e-08	-5.510606e-06	-1.076408e-09	-3.831279e+01	-6.928101e+01
8.000000e-08	-5.507251e-06	-1.079665e-09	-3.828947e+01	-6.929137e+01
9.000000e-08	-5.503492e-06	-1.060115e-09	-3.826333e+01	-6.929979e+01
1.000000e-07	-5.499319e-06	-1.048733e-09	-3.823432e+01	-6.930611e+01
1.100000e-07	-5.494792e-06	-1.092533e-09	-3.820285e+01	-6.931018e+01
1.200000e-07	-5.490096e-06	-1.104507e-09	-3.817020e+01	-6.931186e+01
1.300000e-07	-5.485158e-06	-1.062237e-09	-3.813586e+01	-6.931100e+01
1.400000e-07	-5.479847e-06	-1.030466e-09	-3.809893e+01	-6.930745e+01
1.500000e-07	-5.474160e-06	-1.050664e-09	-3.805940e+01	-6.930109e+01
1.600000e-07	-5.468067e-06	-1.096152e-09	-3.801704e+01	-6.929178e+01
1.700000e-07	-5.461533e-06	-1.058315e-09	-3.797161e+01	-6.927942e+01
1.800000e-07	-5.454623e-06	-1.052945e-09	-3.792357e+01	-6.926389e+01
1.900000e-07	-5.447384e-06	-1.059108e-09	-3.787324e+01	-6.924510e+01
2.000000e-07	-5.439846e-06	-1.106930e-09	-3.782083e+01	-6.922296e+01
2.100000e-07	-5.432060e-06	-1.087264e-09	-3.776669e+01	-6.919740e+01
2.200000e-07	-5.424008e-06	-1.079063e-09	-3.771071e+01	-6.916836e+01
2.300000e-07	-5.415609e-06	-1.068915e-09	-3.765232e+01	-6.913578e+01
2.400000e-07	-5.406738e-06	-1.102704e-09	-3.759064e+01	-6.909964e+01
2.500000e-07	-5.397183e-06	-1.109233e-09	-3.752421e+01	-6.905991e+01
2.600000e-07	-5.386849e-06	-1.091729e-09	-3.745237e+01	-6.901658e+01
2.700000e-07	-5.375912e-06	-1.078943e-09	-3.737632e+01	-6.896965e+01
2.800000e-07	-5.364649e-06	-1.090747e-09	-3.729802e+01	-6.891913e+01
2.900000e-07	-5.353022e-06	-1.100419e-09	-3.721718e+01	-6.886505e+01
3.000000e-07	-5.340982e-06	-1.079382e-09	-3.713347e+01	-6.880744e+01
3.100000e-07	-5.328534e-06	-1.082910e-09	-3.704693e+01	-6.874635e+01
3.200000e-07	-5.315641e-06	-1.083506e-09	-3.695728e+01	-6.868182e+01
3.300000e-07	-5.302399e-06	-1.085854e-09	-3.686522e+01	-6.861391e+01
3.400000e-07	-5.288723e-06	-1.044443e-09	-3.677014e+01	-6.854269e+01
3.500000e-07	-5.274611e-06	-1.061201e-09	-3.667203e+01	-6.846823e+01
3.600000e-07	-5.260101e-06	-1.067479e-09	-3.657115e+01	-6.839059e+01
3.700000e-07	-5.245010e-06	-1.070226e-09	-3.646622e+01	-6.830986e+01
3.800000e-07	-5.229288e-06	-1.055641e-09	-3.635691e+01	-6.822610e+01
3.900000e-07	-5.213194e-06	-1.091750e-09	-3.624502e+01	-6.813940e+01
4.000000e-07	-5.196737e-06	-1.065915e-09	-3.613060e+01	-6.804982e+01
4.100000e-07	-5.179870e-06	-1.037724e-09	-3.601333e+01	-6.795744e+01
4.200000e-07	-5.162682e-06	-1.058308e-09	-3.589383e+01	-6.786233e+01
4.300000e-07	-5.145271e-06	-1.088575e-09	-3.577278e+01	-6.776455e+01
4.400000e-07	-5.127534e-06	-1.037041e-09	-3.564946e+01	-6.766416e+01
4.500000e-07	-5.109271e-06	-1.035759e-09	-3.552249e+01	-6.756122e+01
4.600000e-07	-5.090577e-06	-1.077403e-09	-3.539252e+01	-6.745577e+01
4.700000e-07	-5.071534e-06	-1.057297e-09	-3.526012e+01	-6.734786e+01
4.800000e-07	-5.052201e-06	-1.019791e-09	-3.512570e+01	-6.723752e+01
4.900000e-07	-5.032630e-06	-1.063851e-09	-3.498964e+01	-6.712478e+01
5.000000e-07	-5.012837e-06	-1.063529e-09	-3.485203e+01	-6.700965e+01
5.100000e-07	-4.992737e-06	-1.013728e-09	-3.471228e+01	-6.689217e+01
5.200000e-07	-4.972298e-06	-1.033355e-09	-3.457017e+01	-6.677233e+01
5.300000e-07	-4.951609e-06	-1.061096e-09	-3.442634e+01	-6.665014e+01
5.400000e-07	-4.930531e-06	-1.015465e-09	-3.427979e+01	-6.652559e+01
5.500000e-07	-4.909055e-06	-1.008716e-09	-3.413047e+01	-6.639868e+01
5.600000e-07	-4.887321e-06	-1.049428e-09	-3.397937e+01	-6.626941e+01
5.700000e-07	-4.865266e-06	-1.022559e-09	-3.382603e+01	-6.613775e+01
5.800000e-07	-4.842775e-06	-1.000035e-09	-3.366966e+01	-6.600370e+01
5.900000e-07	-4.819849e-06	-1.028818e-09	-3.351026e+01	-6.586723e+01
6.000000e-07	-4.796667e-06	-1.023734e-09	-3.334909e+01	-6.572833e+01
6.100000e-07	-4.773308e-06	-9.910127e-10	-3.318669e+01	-6.558700e+01
6.200000e-07	-4.749740e-06	-1.010892e-09	-3.302283e+01	-6.544321e+01
6.300000e-07	-4.725953e-06	-1.008549e-09	-3.285745e+01	-6.529696e+01
6.400000e-07	-4.701850e-06	-9.860422e-10	-3.268987e+01	-6.514824e+01
6.500000e-07	-4.677331e-06	-9.922226e-10	-3.251940e+01	-6.499707e+01
6.600000e-07	-4.652353e-06	-1.003114e-09	-3.234574e+01	-6.484344e+01
6.700000e-07	-4.626837e-06	-9.782654e-10	-3.216834e+01	-6.468737e+01
6.800000e-07	-4.600795e-06	-9.849063e-10	-3.198728e+01	-6.452889e+01
6.900000e-07	-4.574226e-06	-9.927192e-10	-3.180256e+01	-6.436802e+01
7.000000e-07	-4.547159e-06	-9.795136e-10	-3.161438e+01	-6.420481e+01
7.100000e-07	-4.519792e-06	-9.729092e-10	-3.142410e+01	-6.403930e+01
7.200000e-07	-4.492265e-06	-9.853729e-10	-3.123272e+01	-6.387155e+01
7.300000e-07	-4.464512e-06	-9.691076e-10	-3.103977e+01	-6.370163e+01
7.400000e-07	-4.436497e-06	-9.648793e-10	-3.084499e+01	-6.352962e+01
7.500000e-07	-4.408343e-06	-9.726080e-10	-3.064925e+01	-6.335560e+01
7.600000e-07	-4.380042e-06	-9.641829e-10	-3.045248e+01	-6.317965e+01
7.700000e-07	-4.351355e-06	-9.523078e-10	-3.025303e+01	-6.300188e+01
7.800000e-07	-4.322271e-06	-9.625239e-10	-3.005083e+01	-6.282239e+01
7.900000e-07	-4.292952e-06	-9.561395e-10	-2.984698e+01	-6.264129e+01
8.000000e-07	-4.263333e-06	-9.428870e-10	-2.964106e+01	-6.245869e+01
8.100000e-07	-4.233405e-06	-9.500243e-10	-2.943298e+01	-6.227471e+01
8.200000e-07	-4.203157e-06	-9.563384e-10	-2.922268e+01	-6.208946e+01
8.300000e-07	-4.172554e-06	-9.432320e-10	-2.900991e+01	-6.190305e+01
8.400000e-07	-4.141648e-06	-9.388682e-10	-2.879503e+01	-6.171561e+01
8.500000e-07	-4.110491e-06	-9.460552e-10	-2.857842e+01	-6.152722e+01
8.600000e-07	-4.079102e-06	-9.387421e-10	-2.836018e+01	-6.133800e+01
8.700000e-07	-4.047511e-06	-9.336531e-10	-2.814054e+01	-6.114803e+01
8.800000e-07	-4.015745e-06	-9.383146e-10	-2.791969e+01	-6.095740e+01
8.900000e-07	-3.983782e-06	-9.354976e-10	-2.769746e+01	-6.076619e+01
9.000000e-07	-3.951561e-06	-9.238099e-10	-2.747344e+01	-6.057443e+01
9.100000e-07	-3.919043e-06	-9.264510e-10	-2.724736e+01	-6.038219e+01
9.200000e-07	-3.886200e-06	-9.241345e-10	-2.701902e+01	-6.018947e+01
9.300000e-07	-3.852905e-06	-9.149306e-10	-2.678753e+01	-5.999630e+01
9.400000e-07	-3.819145e-06	-9.115825e-10	-2.655282e+01	-5.980265e+01
9.500000e-07	-3.784943e-06	-9.167684e-10	-2.631503e+01	-5.960849e+01
9.600000e-07	-3.750304e-06	-9.072696e-10	-2.607420e+01	-5.941377e+01
9.700000e-07	-3.715376e-06	-8.997125e-10	-2.583136e+01	-5.921840e+01
9.800000e-07	-3.680168e-06	-8.979511e-10	-2.558657e+01	-5.902229e+01
9.900000e-07	-3.644699e-06	-8.956159e-10	-2.533997e+01	-5.882531e+01
1.000000e-06	-3.609075e-06	-8.891647e-10	-2.509229e+01	-5.862731e+01
1.010000e-06	-3.573327e-06	-8.925139e-10	-2.484376e+01	-5.842812e+01
1.020000e-06	-3.537415e-06	-8.921737e-10	-2.459407e+01	-5.822755e+01
1.030000e-06	-3.501251e-06	-8.856109e-10	-2.434264e+01	-5.802537e+01
1.040000e-06	-3.464796e-06	-8.782486e-10	-2.408918e+01	-5.782135e+01
1.050000e-06	-3.428045e-06	-8.721879e-10	-2.383367e+01	-5.761523e+01
1.060000e-06	-3.391048e-06	-8.618363e-10	-2.357645e+01	-5.740673e+01
1.070000e-06	-3.353829e-06	-8.580579e-10	-2.331768e+01	-5.719555e+01
1.080000e-06	-3.316411e-06	-8.594107e-10	-2.305753e+01	-5.698139e+01
1.090000e-06	-3.278787e-06	-8.582011e-10	-2.279595e+01	-5.676392e+01
1.100000e-06	-3.240957e-06	-8.534747e-10	-2.253293e+01	-5.654281e+01
1.110000e-06	-3.202870e-06	-8.490931e-10	-2.226813e+01	-5.631770e+01
1.120000e-06	-3.164452e-06	-8.414945e-10	-2.200103e+01	-5.608825e+01
1.130000e-06	-3.125836e-06	-8.322106e-10	-2.173255e+01	-5.585409e+01
1.140000e-06	-3.087107e-06	-8.256331e-10	-2.146328e+01	-5.561489e+01
1.150000e-06	-3.048200e-06	-8.190403e-10	-2.119278e+01	-5.537026e+01
1.160000e-06	-3.009050e-06	-8.140220e-10	-2.092058e+01	-5.511987e+01
1.170000e-06	-2.969765e-06	-8.113535e-10	-2.064746e+01	-5.486337e+01
1.180000e-06	-2.930346e-06	-8.088463e-10	-2.037339e+01	-5.460041e+01
1.190000e-06	-2.890755e-06	-8.056501e-10	-2.009813e+01	-5.433068e+01
1.200000e-06	-2.851063e-06	-8.060396e-10	-1.982217e+01	-5.405384e+01
1.210000e-06	-2.811222e-06	-8.044420e-10	-1.954518e+01	-5.376962e+01
1.220000e-06	-2.771268e-06	-7.977923e-10	-1.926739e+01	-5.347772e+01
1.230000e-06	-2.731146e-06	-7.869940e-10	-1.898844e+01	-5.317788e+01
1.240000e-06	-2.690827e-06	-7.787169e-10	-1.870812e+01	-5.286986e+01
1.250000e-06	-2.650324e-06	-7.688899e-10	-1.842652e+01	-5.255345e+01
1.260000e-06	-2.609514e-06	-7.653947e-10	-1.814279e+01	-5.222844e+01
1.270000e-06	-2.568427e-06	-7.652514e-10	-1.785713e+01	-5.189465e+01
1.280000e-06	-2.527065e-06	-7.652731e-10	-1.756956e+01	-5.155195e+01
1.290000e-06	-2.485270e-06	-7.611104e-10	-1.727897e+01	-5.120020e+01
1.300000e-06	-2.443150e-06	-7.550602e-10	-1.698613e+01	-5.083929e+01
1.310000e-06	-2.400837e-06	-7.463291e-10	-1.669195e+01	-5.046915e+01
1.320000e-06	-2.358199e-06	-7.365181e-10	-1.639551e+01	-5.008973e+01
1.330000e-06	-2.315268e-06	-7.305412e-10	-1.609703e+01	-4.970097e+01
1.340000e-06	-2.272200e-06	-7.282962e-10	-1.579760e+01	-4.930287e+01
1.350000e-06	-2.228949e-06	-7.243766e-10	-1.549689e+01	-4.889541e+01
1.360000e-06	-2.185554e-06	-7.189774e-10	-1.519519e+01	-4.847862e+01
1.370000e-06	-2.142101e-06	-7.128267e-10	-1.489307e+01	-4.805252e+01
1.380000e-06	-2.098517e-06	-7.071061e-10	-1.459005e+01	-4.761714e+01
1.390000e-06	-2.054781e-06	-6.987297e-10	-1.428598e+01	-4.717253e+01
1.400000e-06	-2.010946e-06	-6.892494e-10	-1.398121e+01	-4.671873e+01
1.410000e-06	-1.967091e-06	-6.797373e-10	-1.367631e+01	-4.625579e+01
1.420000e-06	-1.923191e-06	-6.723248e-10	-1.337109e+01	-4.578376e+01
1.430000e-06	-1.879167e-06	-6.668313e-10	-1.306501e+01	-4.530268e+01
1.440000e-06	-1.835057e-06	-6.591463e-10	-1.275833e+01	-4.481259e+01
1.450000e-06	-1.790840e-06	-6.492947e-10	-1.245092e+01	-4.431349e+01
1.460000e-06	-1.746513e-06	-6.391480e-10	-1.214273e+01	-4.380541e+01
1.470000e-06	-1.702104e-06	-6.292693e-10	-1.183397e+01	-4.328833e+01
1.480000e-06	-1.657526e-06	-6.170268e-10	-1.152404e+01	-4.276222e+01
1.490000e-06	-1.612729e-06	-6.074334e-10	-1.121259e+01	-4.222702e+01
1.500000e-06	-1.567742e-06	-6.011415e-10	-1.089982e+01	-4.168266e+01
1.510000e-06	-1.522656e-06	-5.943136e-10	-1.058635e+01	-4.112902e+01
1.520000e-06	-1.477449e-06	-5.850294e-10	-1.027205e+01	-4.056598e+01
1.530000e-06	-1.432077e-06	-5.726540e-10	-9.956597e+00	-3.999337e+01
1.540000e-06	-1.386619e-06	-5.593040e-10	-9.640543e+00	-3.941098e+01
1.550000e-06	-1.341085e-06	-5.471382e-10	-9.323966e+00	-3.881859e+01
1.560000e-06	-1.295498e-06	-5.342151e-10	-9.007019e+00	-3.821593e+01
1.570000e-06	-1.249893e-06	-5.227457e-10	-8.689951e+00	-3.760271e+01
1.580000e-06	-1.204183e-06	-5.135196e-10	-8.372146e+00	-3.697861e+01
1.590000e-06	-1.158407e-06	-5.049365e-10	-8.053886e+00	-3.634326e+01
1.600000e-06	-1.112613e-06	-4.962834e-10	-7.735501e+00	-3.569628e+01
1.610000e-06	-1.066675e-06	-4.879904e-10	-7.416116e+00	-3.503727e+01
1.620000e-06	-1.020606e-06	-4.789366e-10	-7.095822e+00	-3.436577e+01
1.630000e-06	-9.744665e-07	-4.675275e-10	-6.775032e+00	-3.368135e+01
1.640000e-06	-9.282781e-07	-4.518456e-10	-6.453905e+00	-3.298351e+01
1.650000e-06	-8.820470e-07	-4.359168e-10	-6.132481e+00	-3.227179e+01
1.660000e-06	-8.356718e-07	-4.212945e-10	-5.810054e+00	-3.154568e+01
1.670000e-06	-7.892544e-07	-4.102622e-10	-5.487335e+00	-3.080467e+01
1.680000e-06	-7.428857e-07	-4.001839e-10	-5.164954e+00	-3.004828e+01
1.690000e-06	-6.964318e-07	-3.931261e-10	-4.841980e+00	-2.927599e+01
1.700000e-06	-6.499283e-07	-3.857246e-10	-4.518662e+00	-2.848734e+01
1.710000e-06	-6.033644e-07	-3.743618e-10	-4.194924e+00	-2.768184e+01
1.720000e-06	-5.567094e-07	-3.599651e-10	-3.870553e+00	-2.685906e+01
1.730000e-06	-5.100229e-07	-3.448022e-10	-3.545962e+00	-2.601857e+01
1.740000e-06	-4.633619e-07	-3.291533e-10	-3.221549e+00	-2.515999e+01
1.750000e-06	-4.166678e-07	-3.144560e-10	-2.896906e+00	-2.428297e+01
1.760000e-06	-3.698341e-07	-3.022050e-10	-2.571292e+00	-2.338721e+01
1.770000e-06	-3.228966e-07	-2.916945e-10	-2.244956e+00	-2.247246e+01
1.780000e-06	-2.760062e-07	-2.812937e-10	-1.918948e+00	-2.153852e+01
1.790000e-06	-2.291721e-07	-2.672706e-10	-1.593332e+00	-2.058525e+01
1.800000e-06	-1.822926e-07	-2.506127e-10	-1.267399e+00	-1.961259e+01
1.810000e-06	-1.354449e-07	-2.324044e-10	-9.416883e-01	-1.862052e+01
1.820000e-06	-8.861442e-08	-2.162149e-10	-6.160967e-01	-1.760913e+01
1.830000e-06	-4.171865e-08	-2.010184e-10	-2.900512e-01	-1.657855e+01
1.840000e-06	5.211355e-09	-1.849108e-10	3.623223e-02	-1.552902e+01
1.850000e-06	5.203751e-08	-1.706529e-10	3.617937e-01	-1.446083e+01
1.860000e-06	9.874269e-08	-1.574656e-10	6.865140e-01	-1.337438e+01
1.870000e-06	1.454551e-07	-1.431969e-10	1.011285e+00	-1.227015e+01
1.880000e-06	1.922478e-07	-1.282448e-10	1.336613e+00	-1.114867e+01
1.890000e-06	2.390991e-07	-1.114589e-10	1.662350e+00	-1.001061e+01
1.900000e-06	2.859874e-07	-9.480631e-11	1.988343e+00	-8.856687e+00
1.910000e-06	3.328154e-07	-7.812879e-11	2.313917e+00	-7.687700e+00
1.920000e-06	3.795117e-07	-6.311551e-11	2.638576e+00	-6.504538e+00
1.930000e-06	4.262093e-07	-4.728720e-11	2.963243e+00	-5.308165e+00
1.940000e-06	4.728462e-07	-3.296905e-11	3.287489e+00	-4.099615e+00
1.950000e-06	5.194183e-07	-1.948097e-11	3.611284e+00	-2.879992e+00
1.960000e-06	5.659701e-07	-4.283273e-12	3.934938e+00	-1.650466e+00
1.970000e-06	6.125054e-07	1.196213e-11	4.258477e+00	-4.122627e-01
1.980000e-06	6.590613e-07	2.865741e-11	4.582160e+00	8.333359e-01
1.990000e-06	7.055422e-07	4.678220e-11	4.905321e+00	2.085002e+00
2.000000e-06	7.519529e-07	6.561557e-11	5.227994e+00	3.341367e+00
2.010000e-06	7.982773e-07	8.303779e-11	5.550067e+00	4.601028e+00
2.020000e-06	8.445628e-07	9.842938e-11	5.871869e+00	5.862558e+00
2.030000e-06	8.908035e-07	1.134182e-10	6.193361e+00	7.124510e+00
2.040000e-06	9.369014e-07	1.284802e-10	6.513859e+00	8.385425e+00
2.050000e-06	9.829524e-07	1.447994e-10	6.834030e+00	9.643842e+00
2.060000e-06	1.029010e-06	1.637086e-10	7.154247e+00	1.089831e+01
2.070000e-06	1.075022e-06	1.849756e-10	7.474149e+00	1.214737e+01
2.080000e-06	1.120917e-06	2.051770e-10	7.793235e+00	1.338962e+01
2.090000e-06	1.166638e-06	2.231588e-10	8.111112e+00	1.462365e+01
2.100000e-06	1.212247e-06	2.393998e-10	8.428216e+00	1.584810e+01
2.110000e-06	1.257841e-06	2.526955e-10	8.745212e+00	1.706167e+01
2.120000e-06	1.303373e-06	2.658558e-10	9.061770e+00	1.826307e+01
2.130000e-06	1.348828e-06	2.799526e-10	9.377798e+00	1.945111e+01
2.140000e-06	1.394183e-06	2.955091e-10	9.693133e+00	2.062463e+01
2.150000e-06	1.439416e-06	3.114227e-10	1.000762e+01	2.178255e+01
2.160000e-06	1.484543e-06	3.288425e-10	1.032136e+01	2.292386e+01
2.170000e-06	1.529535e-06	3.467833e-10	1.063418e+01	2.404764e+01
2.180000e-06	1.574478e-06	3.635930e-10	1.094664e+01	2.515302e+01
2.190000e-06	1.619397e-06	3.797254e-10	1.125895e+01	2.623925e+01
2.200000e-06	1.664158e-06	3.952378e-10	1.157015e+01	2.730564e+01
2.210000e-06	1.708711e-06	4.104237e-10	1.187991e+01	2.835161e+01
2.220000e-06	1.753090e-06	4.255867e-10	1.218846e+01	2.937665e+01
2.230000e-06	1.797303e-06	4.389177e-10	1.249585e+01	3.038034e+01
2.240000e-06	1.841441e-06	4.520051e-10	1.280272e+01	3.136237e+01
2.250000e-06	1.885523e-06	4.654486e-10	1.310920e+01	3.232251e+01
2.260000e-06	1.929485e-06	4.805569e-10	1.341485e+01	3.326060e+01
2.270000e-06	1.973347e-06	4.960651e-10	1.371980e+01	3.417659e+01
2.280000e-06	2.017136e-06	5.099698e-10	1.402425e+01	3.507050e+01
2.290000e-06	2.060853e-06	5.197761e-10	1.432819e+01	3.594242e+01
2.300000e-06	2.104464e-06	5.280664e-10	1.463140e+01	3.679254e+01
2.310000e-06	2.148018e-06	5.383626e-10	1.493421e+01	3.762110e+01
2.320000e-06	2.191513e-06	5.490346e-10	1.523662e+01	3.842842e+01
2.330000e-06	2.234874e-06	5.594512e-10	1.553808e+01	3.921486e+01
2.340000e-06	2.278113e-06	5.709272e-10	1.583871e+01	3.998085e+01
2.350000e-06	2.321186e-06	5.834122e-10	1.613818e+01	4.072687e+01
2.360000e-06	2.364016e-06	5.955814e-10	1.643595e+01	4.145345e+01
2.370000e-06	2.406559e-06	6.061447e-10	1.673173e+01	4.216113e+01
2.380000e-06	2.448858e-06	6.140059e-10	1.702582e+01	4.285052e+01
2.390000e-06	2.490885e-06	6.215905e-10	1.731801e+01	4.352221e+01
2.400000e-06	2.532569e-06	6.312436e-10	1.760783e+01	4.417684e+01
2.410000e-06	2.573859e-06	6.440419e-10	1.789490e+01	4.481506e+01
2.420000e-06	2.614734e-06	6.569907e-10	1.817908e+01	4.543751e+01
2.430000e-06	2.655299e-06	6.672598e-10	1.846111e+01	4.604484e+01
2.440000e-06	2.695680e-06	6.758482e-10	1.874186e+01	4.663769e+01
2.450000e-06	2.735892e-06	6.832807e-10	1.902144e+01	4.721669e+01
2.460000e-06	2.775892e-06	6.900385e-10	1.929954e+01	4.778246e+01
2.470000e-06	2.815757e-06	6.985525e-10	1.957671e+01	4.833559e+01
2.480000e-06	2.855494e-06	7.071954e-10	1.985298e+01	4.887664e+01
2.490000e-06	2.895123e-06	7.156536e-10	2.012850e+01	4.940616e+01
2.500000e-06	2.934684e-06	7.250976e-10	2.040356e+01	4.992465e+01
2.510000e-06	2.974056e-06	7.345474e-10	2.067729e+01	5.043259e+01
2.520000e-06	3.013189e-06	7.431807e-10	2.094936e+01	5.093040e+01
2.530000e-06	3.052164e-06	7.520700e-10	2.122034e+01	5.141848e+01
2.540000e-06	3.090973e-06	7.589764e-10	2.149016e+01	5.189719e+01
2.550000e-06	3.129510e-06	7.636330e-10	2.175809e+01	5.236684e+01
2.560000e-06	3.167793e-06	7.702238e-10	2.202426e+01	5.282770e+01
2.570000e-06	3.205838e-06	7.779809e-10	2.228877e+01	5.328000e+01
2.580000e-06	3.243653e-06	7.848575e-10	2.255168e+01	5.372393e+01
2.590000e-06	3.281305e-06	7.910625e-10	2.281345e+01	5.415963e+01
2.600000e-06	3.318750e-06	7.972210e-10	2.307379e+01	5.458723e+01
2.610000e-06	3.355982e-06	8.051372e-10	2.333265e+01	5.500680e+01
2.620000e-06	3.392943e-06	8.132082e-10	2.358962e+01	5.541837e+01
2.630000e-06	3.429664e-06	8.184799e-10	2.384493e+01	5.582198e+01
2.640000e-06	3.466249e-06	8.218545e-10	2.409929e+01	5.621759e+01
2.650000e-06	3.502540e-06	8.266846e-10	2.435160e+01	5.660518e+01
2.660000e-06	3.538508e-06	8.330093e-10	2.460167e+01	5.698468e+01
2.670000e-06	3.574328e-06	8.380400e-10	2.485071e+01	5.735602e+01
2.680000e-06	3.610054e-06	8.431572e-10	2.509910e+01	5.771912e+01
2.690000e-06	3.645683e-06	8.499760e-10	2.534681e+01	5.807386e+01
2.700000e-06	3.681163e-06	8.568176e-10	2.559349e+01	5.842015e+01
2.710000e-06	3.716365e-06	8.620835e-10	2.583823e+01	5.875788e+01
2.720000e-06	3.751260e-06	8.675775e-10	2.608084e+01	5.908695e+01
2.730000e-06	3.785828e-06	8.734640e-10	2.632118e+01	5.940726e+01
2.740000e-06	3.819910e-06	8.795746e-10	2.655814e+01	5.971872e+01
2.750000e-06	3.853516e-06	8.850817e-10	2.679178e+01	6.002125e+01
2.760000e-06	3.886777e-06	8.898293e-10	2.702303e+01	6.031478e+01
2.770000e-06	3.919632e-06	8.956227e-10	2.725146e+01	6.059928e+01
2.780000e-06	3.951994e-06	9.018640e-10	2.747645e+01	6.087472e+01
2.790000e-06	3.984014e-06	9.061020e-10	2.769907e+01	6.114109e+01
2.800000e-06	4.015887e-06	9.109415e-10	2.792068e+01	6.139841e+01
2.810000e-06	4.047622e-06	9.173585e-10	2.814131e+01	6.164674e+01
2.820000e-06	4.079173e-06	9.216754e-10	2.836068e+01	6.188613e+01
2.830000e-06	4.110514e-06	9.223632e-10	2.857857e+01	6.211670e+01
2.840000e-06	4.141623e-06	9.221092e-10	2.879486e+01	6.233857e+01
2.850000e-06	4.172496e-06	9.248451e-10	2.900951e+01	6.255189e+01
2.860000e-06	4.203048e-06	9.302524e-10	2.922192e+01	6.275683e+01
2.870000e-06	4.233275e-06	9.338628e-10	2.943208e+01	6.295362e+01
2.880000e-06	4.263225e-06	9.361097e-10	2.964031e+01	6.314248e+01
2.890000e-06	4.292907e-06	9.398290e-10	2.984667e+01	6.332365e+01
2.900000e-06	4.322342e-06	9.446603e-10	3.005132e+01	6.349743e+01
