# Temperatura_=_-0.6
# Concentracion g/m^3_=_1620.0
# C_Vs_to_Am_M_A/Vsm_=_65563218390.804596
# pendiente_HvsI_1/m_=_3716.3
# ordenada_HvsI_A/m_=_1297.0
# frecuencia_Hz_=_135088.1641026963

Tiempo_(s)	Campo_(V.s)	Magnetizacion_(V.s)	Campo_(kA/m)	Magnetizacion_(A/m)
0.000000e+00	-5.531711e-06	-1.324933e-09	-3.837422e+01	-8.655044e+01
1.000000e-08	-5.531924e-06	-1.325388e-09	-3.837570e+01	-8.658457e+01
2.000000e-08	-5.531896e-06	-1.326534e-09	-3.837551e+01	-8.661682e+01
3.000000e-08	-5.531603e-06	-1.329534e-09	-3.837348e+01	-8.664699e+01
4.000000e-08	-5.530971e-06	-1.332415e-09	-3.836909e+01	-8.667488e+01
5.000000e-08	-5.529871e-06	-1.330578e-09	-3.836146e+01	-8.670025e+01
6.000000e-08	-5.528144e-06	-1.325774e-09	-3.834948e+01	-8.672289e+01
7.000000e-08	-5.525813e-06	-1.312123e-09	-3.833331e+01	-8.674257e+01
8.000000e-08	-5.522981e-06	-1.301131e-09	-3.831366e+01	-8.675905e+01
9.000000e-08	-5.519564e-06	-1.342938e-09	-3.828996e+01	-8.677211e+01
1.000000e-07	-5.515667e-06	-1.388655e-09	-3.826292e+01	-8.678151e+01
1.100000e-07	-5.511442e-06	-1.314019e-09	-3.823361e+01	-8.678704e+01
1.200000e-07	-5.506938e-06	-1.255888e-09	-3.820237e+01	-8.678849e+01
1.300000e-07	-5.502149e-06	-1.276215e-09	-3.816915e+01	-8.678563e+01
1.400000e-07	-5.497013e-06	-1.397245e-09	-3.813352e+01	-8.677829e+01
1.500000e-07	-5.491466e-06	-1.333119e-09	-3.809504e+01	-8.676626e+01
1.600000e-07	-5.485574e-06	-1.228420e-09	-3.805416e+01	-8.674939e+01
1.700000e-07	-5.479406e-06	-1.264698e-09	-3.801137e+01	-8.672752e+01
1.800000e-07	-5.472717e-06	-1.382724e-09	-3.796497e+01	-8.670050e+01
1.900000e-07	-5.465505e-06	-1.398275e-09	-3.791494e+01	-8.666822e+01
2.000000e-07	-5.458018e-06	-1.255569e-09	-3.786301e+01	-8.663058e+01
2.100000e-07	-5.450343e-06	-1.276902e-09	-3.780977e+01	-8.658748e+01
2.200000e-07	-5.442394e-06	-1.358224e-09	-3.775462e+01	-8.653886e+01
2.300000e-07	-5.434230e-06	-1.414442e-09	-3.769798e+01	-8.648467e+01
2.400000e-07	-5.425737e-06	-1.318533e-09	-3.763907e+01	-8.642489e+01
2.500000e-07	-5.416672e-06	-1.328165e-09	-3.757618e+01	-8.635950e+01
2.600000e-07	-5.406867e-06	-1.353810e-09	-3.750817e+01	-8.628851e+01
2.700000e-07	-5.396495e-06	-1.372460e-09	-3.743621e+01	-8.621195e+01
2.800000e-07	-5.385589e-06	-1.292482e-09	-3.736056e+01	-8.612986e+01
2.900000e-07	-5.374096e-06	-1.299195e-09	-3.728083e+01	-8.604231e+01
3.000000e-07	-5.362285e-06	-1.338949e-09	-3.719889e+01	-8.594935e+01
3.100000e-07	-5.350158e-06	-1.340928e-09	-3.711476e+01	-8.585109e+01
3.200000e-07	-5.337543e-06	-1.283841e-09	-3.702725e+01	-8.574761e+01
3.300000e-07	-5.324450e-06	-1.280389e-09	-3.693643e+01	-8.563904e+01
3.400000e-07	-5.311045e-06	-1.328821e-09	-3.684343e+01	-8.552548e+01
3.500000e-07	-5.297322e-06	-1.316999e-09	-3.674823e+01	-8.540707e+01
3.600000e-07	-5.283134e-06	-1.269711e-09	-3.664981e+01	-8.528393e+01
3.700000e-07	-5.268491e-06	-1.273419e-09	-3.654823e+01	-8.515621e+01
3.800000e-07	-5.253380e-06	-1.314115e-09	-3.644340e+01	-8.502404e+01
3.900000e-07	-5.237686e-06	-1.271266e-09	-3.633453e+01	-8.488757e+01
4.000000e-07	-5.221373e-06	-1.257260e-09	-3.622137e+01	-8.474693e+01
4.100000e-07	-5.204703e-06	-1.296686e-09	-3.610573e+01	-8.460227e+01
4.200000e-07	-5.187844e-06	-1.292299e-09	-3.598877e+01	-8.445372e+01
4.300000e-07	-5.170555e-06	-1.214678e-09	-3.586884e+01	-8.430141e+01
4.400000e-07	-5.152965e-06	-1.273763e-09	-3.574682e+01	-8.414548e+01
4.500000e-07	-5.135086e-06	-1.315356e-09	-3.562278e+01	-8.398604e+01
4.600000e-07	-5.116710e-06	-1.250431e-09	-3.549531e+01	-8.382320e+01
4.700000e-07	-5.097915e-06	-1.206538e-09	-3.536492e+01	-8.365708e+01
4.800000e-07	-5.078818e-06	-1.295393e-09	-3.523245e+01	-8.348777e+01
4.900000e-07	-5.059354e-06	-1.259253e-09	-3.509742e+01	-8.331535e+01
5.000000e-07	-5.039591e-06	-1.209834e-09	-3.496032e+01	-8.313992e+01
5.100000e-07	-5.019663e-06	-1.255403e-09	-3.482208e+01	-8.296155e+01
5.200000e-07	-4.999529e-06	-1.280520e-09	-3.468241e+01	-8.278028e+01
5.300000e-07	-4.979078e-06	-1.192118e-09	-3.454054e+01	-8.259619e+01
5.400000e-07	-4.958322e-06	-1.232099e-09	-3.439655e+01	-8.240932e+01
5.500000e-07	-4.937234e-06	-1.287529e-09	-3.425025e+01	-8.221970e+01
5.600000e-07	-4.915715e-06	-1.222439e-09	-3.410098e+01	-8.202737e+01
5.700000e-07	-4.893775e-06	-1.179881e-09	-3.394878e+01	-8.183236e+01
5.800000e-07	-4.871527e-06	-1.252283e-09	-3.379444e+01	-8.163468e+01
5.900000e-07	-4.848983e-06	-1.228498e-09	-3.363805e+01	-8.143435e+01
6.000000e-07	-4.826006e-06	-1.175477e-09	-3.347865e+01	-8.123138e+01
6.100000e-07	-4.802797e-06	-1.218692e-09	-3.331765e+01	-8.102579e+01
6.200000e-07	-4.779412e-06	-1.236553e-09	-3.315543e+01	-8.081758e+01
6.300000e-07	-4.755724e-06	-1.184292e-09	-3.299109e+01	-8.060675e+01
6.400000e-07	-4.731758e-06	-1.194411e-09	-3.282484e+01	-8.039332e+01
6.500000e-07	-4.707538e-06	-1.221098e-09	-3.265682e+01	-8.017730e+01
6.600000e-07	-4.682973e-06	-1.180921e-09	-3.248641e+01	-7.995868e+01
6.700000e-07	-4.658016e-06	-1.175385e-09	-3.231328e+01	-7.973750e+01
6.800000e-07	-4.632484e-06	-1.193690e-09	-3.213616e+01	-7.951376e+01
6.900000e-07	-4.606316e-06	-1.175399e-09	-3.195464e+01	-7.928748e+01
7.000000e-07	-4.579619e-06	-1.158943e-09	-3.176943e+01	-7.905870e+01
7.100000e-07	-4.552419e-06	-1.186752e-09	-3.158074e+01	-7.882743e+01
7.200000e-07	-4.524892e-06	-1.173176e-09	-3.138979e+01	-7.859372e+01
7.300000e-07	-4.497179e-06	-1.155472e-09	-3.119754e+01	-7.835760e+01
7.400000e-07	-4.469354e-06	-1.156816e-09	-3.100451e+01	-7.811912e+01
7.500000e-07	-4.441346e-06	-1.161633e-09	-3.081022e+01	-7.787833e+01
7.600000e-07	-4.413048e-06	-1.140042e-09	-3.061391e+01	-7.763529e+01
7.700000e-07	-4.384409e-06	-1.147183e-09	-3.041524e+01	-7.739004e+01
7.800000e-07	-4.355435e-06	-1.141320e-09	-3.021424e+01	-7.714265e+01
7.900000e-07	-4.326130e-06	-1.131780e-09	-3.001094e+01	-7.689318e+01
8.000000e-07	-4.296483e-06	-1.127969e-09	-2.980528e+01	-7.664169e+01
8.100000e-07	-4.266615e-06	-1.135321e-09	-2.959808e+01	-7.638826e+01
8.200000e-07	-4.236543e-06	-1.117464e-09	-2.938947e+01	-7.613293e+01
8.300000e-07	-4.206106e-06	-1.115428e-09	-2.917832e+01	-7.587577e+01
8.400000e-07	-4.175307e-06	-1.118748e-09	-2.896467e+01	-7.561683e+01
8.500000e-07	-4.144261e-06	-1.112297e-09	-2.874929e+01	-7.535617e+01
8.600000e-07	-4.113016e-06	-1.099994e-09	-2.853255e+01	-7.509382e+01
8.700000e-07	-4.081496e-06	-1.106578e-09	-2.831389e+01	-7.482983e+01
8.800000e-07	-4.049807e-06	-1.100987e-09	-2.809406e+01	-7.456422e+01
8.900000e-07	-4.018007e-06	-1.087832e-09	-2.787346e+01	-7.429701e+01
9.000000e-07	-3.986035e-06	-1.085749e-09	-2.765166e+01	-7.402819e+01
9.100000e-07	-3.953826e-06	-1.084069e-09	-2.742822e+01	-7.375777e+01
9.200000e-07	-3.921245e-06	-1.069789e-09	-2.720221e+01	-7.348570e+01
9.300000e-07	-3.888287e-06	-1.065778e-09	-2.697357e+01	-7.321196e+01
9.400000e-07	-3.854969e-06	-1.072813e-09	-2.674244e+01	-7.293648e+01
9.500000e-07	-3.821114e-06	-1.064768e-09	-2.650758e+01	-7.265920e+01
9.600000e-07	-3.786757e-06	-1.057861e-09	-2.626924e+01	-7.238001e+01
9.700000e-07	-3.752011e-06	-1.060174e-09	-2.602820e+01	-7.209880e+01
9.800000e-07	-3.716796e-06	-1.055627e-09	-2.578391e+01	-7.181545e+01
9.900000e-07	-3.681315e-06	-1.039735e-09	-2.553778e+01	-7.152981e+01
1.000000e-06	-3.645724e-06	-1.040109e-09	-2.529088e+01	-7.124171e+01
1.010000e-06	-3.609968e-06	-1.036358e-09	-2.504283e+01	-7.095096e+01
1.020000e-06	-3.574036e-06	-1.028347e-09	-2.479357e+01	-7.065736e+01
1.030000e-06	-3.537989e-06	-1.024069e-09	-2.454350e+01	-7.036069e+01
1.040000e-06	-3.501862e-06	-1.028014e-09	-2.429289e+01	-7.006072e+01
1.050000e-06	-3.465550e-06	-1.013497e-09	-2.404098e+01	-6.975719e+01
1.060000e-06	-3.428982e-06	-1.001287e-09	-2.378731e+01	-6.944984e+01
1.070000e-06	-3.392093e-06	-9.933847e-10	-2.353141e+01	-6.913839e+01
1.080000e-06	-3.354892e-06	-9.908054e-10	-2.327334e+01	-6.882257e+01
1.090000e-06	-3.317441e-06	-9.850420e-10	-2.301354e+01	-6.850207e+01
1.100000e-06	-3.279758e-06	-9.881778e-10	-2.275212e+01	-6.817659e+01
1.110000e-06	-3.241797e-06	-9.830181e-10	-2.248878e+01	-6.784584e+01
1.120000e-06	-3.203583e-06	-9.715326e-10	-2.222369e+01	-6.750950e+01
1.130000e-06	-3.165236e-06	-9.609722e-10	-2.195767e+01	-6.716727e+01
1.140000e-06	-3.126668e-06	-9.555795e-10	-2.169012e+01	-6.681884e+01
1.150000e-06	-3.087829e-06	-9.455845e-10	-2.142069e+01	-6.646393e+01
1.160000e-06	-3.048803e-06	-9.387077e-10	-2.114996e+01	-6.610223e+01
1.170000e-06	-3.009536e-06	-9.369152e-10	-2.087755e+01	-6.573346e+01
1.180000e-06	-2.970041e-06	-9.335888e-10	-2.060357e+01	-6.535734e+01
1.190000e-06	-2.930451e-06	-9.277005e-10	-2.032893e+01	-6.497363e+01
1.200000e-06	-2.890730e-06	-9.254424e-10	-2.005338e+01	-6.458207e+01
1.210000e-06	-2.850887e-06	-9.195184e-10	-1.977698e+01	-6.418243e+01
1.220000e-06	-2.810939e-06	-9.095706e-10	-1.949987e+01	-6.377450e+01
1.230000e-06	-2.770876e-06	-9.042237e-10	-1.922194e+01	-6.335810e+01
1.240000e-06	-2.730644e-06	-8.990706e-10	-1.894284e+01	-6.293303e+01
1.250000e-06	-2.690121e-06	-8.907941e-10	-1.866173e+01	-6.249915e+01
1.260000e-06	-2.649360e-06	-8.820733e-10	-1.837897e+01	-6.205633e+01
1.270000e-06	-2.608305e-06	-8.795031e-10	-1.809417e+01	-6.160444e+01
1.280000e-06	-2.567070e-06	-8.735849e-10	-1.780811e+01	-6.114341e+01
1.290000e-06	-2.525708e-06	-8.674114e-10	-1.752118e+01	-6.067316e+01
1.300000e-06	-2.483955e-06	-8.604368e-10	-1.723153e+01	-6.019363e+01
1.310000e-06	-2.441748e-06	-8.522250e-10	-1.693873e+01	-5.970480e+01
1.320000e-06	-2.399206e-06	-8.405764e-10	-1.664362e+01	-5.920663e+01
1.330000e-06	-2.356439e-06	-8.328514e-10	-1.634694e+01	-5.869914e+01
1.340000e-06	-2.313497e-06	-8.288680e-10	-1.604904e+01	-5.818234e+01
1.350000e-06	-2.270344e-06	-8.267385e-10	-1.574968e+01	-5.765625e+01
1.360000e-06	-2.226908e-06	-8.205448e-10	-1.544836e+01	-5.712090e+01
1.370000e-06	-2.183347e-06	-8.123881e-10	-1.514618e+01	-5.657634e+01
1.380000e-06	-2.139769e-06	-8.013063e-10	-1.484387e+01	-5.602261e+01
1.390000e-06	-2.096041e-06	-7.919369e-10	-1.454052e+01	-5.545976e+01
1.400000e-06	-2.052148e-06	-7.798290e-10	-1.423603e+01	-5.488784e+01
1.410000e-06	-2.008187e-06	-7.703922e-10	-1.393106e+01	-5.430689e+01
1.420000e-06	-1.964173e-06	-7.616346e-10	-1.362573e+01	-5.371695e+01
1.430000e-06	-1.920084e-06	-7.552632e-10	-1.331988e+01	-5.311805e+01
1.440000e-06	-1.875932e-06	-7.500821e-10	-1.301359e+01	-5.251020e+01
1.450000e-06	-1.831745e-06	-7.439816e-10	-1.270706e+01	-5.189340e+01
1.460000e-06	-1.787465e-06	-7.337868e-10	-1.239988e+01	-5.126765e+01
1.470000e-06	-1.743026e-06	-7.214936e-10	-1.209161e+01	-5.063289e+01
1.480000e-06	-1.698468e-06	-7.061923e-10	-1.178250e+01	-4.998907e+01
1.490000e-06	-1.653848e-06	-6.904789e-10	-1.147297e+01	-4.933610e+01
1.500000e-06	-1.609034e-06	-6.768065e-10	-1.116209e+01	-4.867388e+01
1.510000e-06	-1.563981e-06	-6.670141e-10	-1.084955e+01	-4.800227e+01
1.520000e-06	-1.518847e-06	-6.602608e-10	-1.053645e+01	-4.732109e+01
1.530000e-06	-1.473536e-06	-6.503720e-10	-1.022212e+01	-4.663015e+01
1.540000e-06	-1.428066e-06	-6.367899e-10	-9.906683e+00	-4.592922e+01
1.550000e-06	-1.382584e-06	-6.203596e-10	-9.591169e+00	-4.521805e+01
1.560000e-06	-1.337073e-06	-6.021562e-10	-9.275454e+00	-4.449634e+01
1.570000e-06	-1.291435e-06	-5.858028e-10	-8.958861e+00	-4.376377e+01
1.580000e-06	-1.245676e-06	-5.746899e-10	-8.641419e+00	-4.302000e+01
1.590000e-06	-1.199885e-06	-5.676101e-10	-8.323763e+00	-4.226465e+01
1.600000e-06	-1.154037e-06	-5.614107e-10	-8.005710e+00	-4.149733e+01
1.610000e-06	-1.108063e-06	-5.535636e-10	-7.686782e+00	-4.071762e+01
1.620000e-06	-1.061954e-06	-5.426324e-10	-7.366918e+00	-3.992507e+01
1.630000e-06	-1.015874e-06	-5.293173e-10	-7.047252e+00	-3.911922e+01
1.640000e-06	-9.697126e-07	-5.132687e-10	-6.727027e+00	-3.829961e+01
1.650000e-06	-9.235095e-07	-4.937508e-10	-6.406510e+00	-3.746576e+01
1.660000e-06	-8.773162e-07	-4.796560e-10	-6.086061e+00	-3.661719e+01
1.670000e-06	-8.309478e-07	-4.671625e-10	-5.764397e+00	-3.575341e+01
1.680000e-06	-7.844916e-07	-4.567693e-10	-5.442124e+00	-3.487393e+01
1.690000e-06	-7.380449e-07	-4.465517e-10	-5.119917e+00	-3.397830e+01
1.700000e-06	-6.914661e-07	-4.375745e-10	-4.796794e+00	-3.306605e+01
1.710000e-06	-6.448248e-07	-4.239549e-10	-4.473237e+00	-3.213674e+01
1.720000e-06	-5.981168e-07	-4.065342e-10	-4.149217e+00	-3.118997e+01
1.730000e-06	-5.513705e-07	-3.862437e-10	-3.824932e+00	-3.022535e+01
1.740000e-06	-5.047141e-07	-3.668484e-10	-3.501270e+00	-2.924252e+01
1.750000e-06	-4.579190e-07	-3.510026e-10	-3.176646e+00	-2.824119e+01
1.760000e-06	-4.110697e-07	-3.386718e-10	-2.851646e+00	-2.722109e+01
1.770000e-06	-3.642955e-07	-3.250294e-10	-2.527167e+00	-2.618201e+01
1.780000e-06	-3.174351e-07	-3.122747e-10	-2.202090e+00	-2.512378e+01
1.790000e-06	-2.705465e-07	-2.997258e-10	-1.876818e+00	-2.404629e+01
1.800000e-06	-2.235729e-07	-2.819588e-10	-1.550955e+00	-2.294953e+01
1.810000e-06	-1.765857e-07	-2.610109e-10	-1.224999e+00	-2.183349e+01
1.820000e-06	-1.297170e-07	-2.390198e-10	-8.998644e-01	-2.069829e+01
1.830000e-06	-8.285017e-08	-2.208991e-10	-5.747428e-01	-1.954408e+01
1.840000e-06	-3.598210e-08	-2.056487e-10	-2.496127e-01	-1.837111e+01
1.850000e-06	1.094744e-08	-1.919009e-10	7.594386e-02	-1.717968e+01
1.860000e-06	5.789836e-08	-1.819460e-10	4.016487e-01	-1.597019e+01
1.870000e-06	1.048773e-07	-1.693116e-10	7.275477e-01	-1.474310e+01
1.880000e-06	1.518200e-07	-1.522678e-10	1.053195e+00	-1.349895e+01
1.890000e-06	1.987020e-07	-1.322258e-10	1.378423e+00	-1.223836e+01
1.900000e-06	2.456328e-07	-1.094160e-10	1.703988e+00	-1.096202e+01
1.910000e-06	2.926010e-07	-8.917677e-11	2.029812e+00	-9.670697e+00
1.920000e-06	3.394765e-07	-7.160880e-11	2.354994e+00	-8.365224e+00
1.930000e-06	3.863015e-07	-5.760204e-11	2.679826e+00	-7.046505e+00
1.940000e-06	4.331748e-07	-4.261094e-11	3.004992e+00	-5.715505e+00
1.950000e-06	4.799353e-07	-3.000338e-11	3.329376e+00	-4.373252e+00
1.960000e-06	5.266197e-07	-1.583351e-11	3.653232e+00	-3.020828e+00
1.970000e-06	5.733422e-07	1.506162e-12	3.977352e+00	-1.659367e+00
1.980000e-06	6.199884e-07	2.117426e-11	4.300943e+00	-2.900478e-01
1.990000e-06	6.665678e-07	4.239202e-11	4.624070e+00	1.085911e+00
2.000000e-06	7.131486e-07	6.465539e-11	4.947208e+00	2.467256e+00
2.010000e-06	7.596209e-07	8.579583e-11	5.269592e+00	3.852706e+00
2.020000e-06	8.060272e-07	1.034636e-10	5.591519e+00	5.240959e+00
2.030000e-06	8.524500e-07	1.183132e-10	5.913561e+00	6.630697e+00
2.040000e-06	8.988287e-07	1.343827e-10	6.235295e+00	8.020596e+00
2.050000e-06	9.450898e-07	1.508559e-10	6.556215e+00	9.409329e+00
2.060000e-06	9.913301e-07	1.700246e-10	6.876990e+00	1.079557e+01
2.070000e-06	1.037508e-06	1.912063e-10	7.197336e+00	1.217802e+01
2.080000e-06	1.083493e-06	2.133455e-10	7.516336e+00	1.355538e+01
2.090000e-06	1.129399e-06	2.337613e-10	7.834790e+00	1.492639e+01
2.100000e-06	1.175225e-06	2.519790e-10	8.152693e+00	1.628981e+01
2.110000e-06	1.220982e-06	2.715012e-10	8.470114e+00	1.764445e+01
2.120000e-06	1.266716e-06	2.898880e-10	8.787382e+00	1.898914e+01
2.130000e-06	1.312359e-06	3.080527e-10	9.104010e+00	2.032279e+01
2.140000e-06	1.357923e-06	3.256665e-10	9.420093e+00	2.164435e+01
2.150000e-06	1.403354e-06	3.453649e-10	9.735255e+00	2.295280e+01
2.160000e-06	1.448664e-06	3.637109e-10	1.004958e+01	2.424723e+01
2.170000e-06	1.493894e-06	3.823500e-10	1.036334e+01	2.552675e+01
2.180000e-06	1.539016e-06	4.015530e-10	1.067636e+01	2.679056e+01
2.190000e-06	1.583996e-06	4.181877e-10	1.098839e+01	2.803794e+01
2.200000e-06	1.628844e-06	4.344348e-10	1.129951e+01	2.926821e+01
2.210000e-06	1.673632e-06	4.503016e-10	1.161021e+01	3.048078e+01
2.220000e-06	1.718280e-06	4.683848e-10	1.191994e+01	3.167515e+01
2.230000e-06	1.762816e-06	4.863694e-10	1.222889e+01	3.285086e+01
2.240000e-06	1.807259e-06	5.019857e-10	1.253720e+01	3.400754e+01
2.250000e-06	1.851517e-06	5.162341e-10	1.284422e+01	3.514490e+01
2.260000e-06	1.895636e-06	5.288542e-10	1.315028e+01	3.626270e+01
2.270000e-06	1.939678e-06	5.437458e-10	1.345581e+01	3.736079e+01
2.280000e-06	1.983668e-06	5.588721e-10	1.376097e+01	3.843907e+01
2.290000e-06	2.027589e-06	5.735445e-10	1.406566e+01	3.949750e+01
2.300000e-06	2.071438e-06	5.878561e-10	1.436985e+01	4.053613e+01
2.310000e-06	2.115241e-06	6.020268e-10	1.467371e+01	4.155502e+01
2.320000e-06	2.158988e-06	6.152622e-10	1.497719e+01	4.255432e+01
2.330000e-06	2.202619e-06	6.265088e-10	1.527987e+01	4.353420e+01
2.340000e-06	2.246105e-06	6.374318e-10	1.558153e+01	4.449491e+01
2.350000e-06	2.289309e-06	6.490556e-10	1.588125e+01	4.543670e+01
2.360000e-06	2.332150e-06	6.607159e-10	1.617844e+01	4.635987e+01
2.370000e-06	2.374866e-06	6.731390e-10	1.647477e+01	4.726475e+01
2.380000e-06	2.417447e-06	6.861399e-10	1.677015e+01	4.815170e+01
2.390000e-06	2.459740e-06	6.991904e-10	1.706355e+01	4.902109e+01
2.400000e-06	2.501618e-06	7.133778e-10	1.735406e+01	4.987331e+01
2.410000e-06	2.543123e-06	7.280767e-10	1.764199e+01	5.070876e+01
2.420000e-06	2.584481e-06	7.402705e-10	1.792889e+01	5.152784e+01
2.430000e-06	2.625574e-06	7.511841e-10	1.821396e+01	5.233095e+01
2.440000e-06	2.666326e-06	7.620422e-10	1.849666e+01	5.311852e+01
2.450000e-06	2.706819e-06	7.734345e-10	1.877757e+01	5.389092e+01
2.460000e-06	2.747093e-06	7.857049e-10	1.905695e+01	5.464855e+01
2.470000e-06	2.787262e-06	7.981187e-10	1.933561e+01	5.539179e+01
2.480000e-06	2.827342e-06	8.104806e-10	1.961365e+01	5.612100e+01
2.490000e-06	2.867266e-06	8.203064e-10	1.989061e+01	5.683652e+01
2.500000e-06	2.907004e-06	8.294187e-10	2.016628e+01	5.753867e+01
2.510000e-06	2.946586e-06	8.393343e-10	2.044086e+01	5.822776e+01
2.520000e-06	2.986016e-06	8.481319e-10	2.071440e+01	5.890406e+01
2.530000e-06	3.025317e-06	8.573406e-10	2.098703e+01	5.956784e+01
2.540000e-06	3.064400e-06	8.670494e-10	2.125815e+01	6.021932e+01
2.550000e-06	3.103252e-06	8.742700e-10	2.152768e+01	6.085872e+01
2.560000e-06	3.141895e-06	8.803749e-10	2.179575e+01	6.148622e+01
2.570000e-06	3.180314e-06	8.880798e-10	2.206227e+01	6.210198e+01
2.580000e-06	3.218551e-06	8.955042e-10	2.232752e+01	6.270614e+01
2.590000e-06	3.256554e-06	9.015320e-10	2.259115e+01	6.329883e+01
2.600000e-06	3.294297e-06	9.091228e-10	2.285298e+01	6.388015e+01
2.610000e-06	3.331772e-06	9.180689e-10	2.311295e+01	6.445018e+01
2.620000e-06	3.369020e-06	9.276646e-10	2.337134e+01	6.500899e+01
2.630000e-06	3.406005e-06	9.371608e-10	2.362791e+01	6.555663e+01
2.640000e-06	3.442816e-06	9.448910e-10	2.388328e+01	6.609316e+01
2.650000e-06	3.479458e-06	9.498372e-10	2.413747e+01	6.661861e+01
2.660000e-06	3.515840e-06	9.545565e-10	2.438986e+01	6.713301e+01
2.670000e-06	3.552040e-06	9.608918e-10	2.464098e+01	6.763640e+01
2.680000e-06	3.588089e-06	9.679424e-10	2.489106e+01	6.812880e+01
2.690000e-06	3.623980e-06	9.746172e-10	2.514004e+01	6.861024e+01
2.700000e-06	3.659652e-06	9.808981e-10	2.538750e+01	6.908076e+01
2.710000e-06	3.695123e-06	9.880603e-10	2.563357e+01	6.954040e+01
2.720000e-06	3.730223e-06	9.954507e-10	2.587706e+01	6.998921e+01
2.730000e-06	3.765000e-06	1.003888e-09	2.611831e+01	7.042725e+01
2.740000e-06	3.799547e-06	1.012284e-09	2.635797e+01	7.085460e+01
2.750000e-06	3.833643e-06	1.018401e-09	2.659450e+01	7.127135e+01
2.760000e-06	3.867273e-06	1.023944e-09	2.682779e+01	7.167760e+01
2.770000e-06	3.900495e-06	1.029849e-09	2.705826e+01	7.207347e+01
2.780000e-06	3.933342e-06	1.035494e-09	2.728612e+01	7.245909e+01
2.790000e-06	3.965812e-06	1.041187e-09	2.751137e+01	7.283464e+01
2.800000e-06	3.997979e-06	1.048398e-09	2.773452e+01	7.320027e+01
2.810000e-06	4.029961e-06	1.056810e-09	2.795638e+01	7.355619e+01
2.820000e-06	4.061736e-06	1.064204e-09	2.817681e+01	7.390260e+01
2.830000e-06	4.093365e-06	1.069788e-09	2.839622e+01	7.423973e+01
2.840000e-06	4.124776e-06	1.074620e-09	2.861413e+01	7.456783e+01
2.850000e-06	4.155892e-06	1.077497e-09	2.882998e+01	7.488716e+01
2.860000e-06	4.186816e-06	1.080628e-09	2.904451e+01	7.519799e+01
2.870000e-06	4.217379e-06	1.085107e-09	2.925653e+01	7.550060e+01
2.880000e-06	4.247573e-06	1.088760e-09	2.946599e+01	7.579530e+01
2.890000e-06	4.277604e-06	1.095040e-09	2.967431e+01	7.608240e+01
2.900000e-06	4.307439e-06	1.103457e-09	2.988128e+01	7.636220e+01
