# Temperatura_=_-0.3
# Concentracion g/m^3_=_1620.0
# C_Vs_to_Am_M_A/Vsm_=_65563218390.804596
# pendiente_HvsI_1/m_=_3716.3
# ordenada_HvsI_A/m_=_1297.0
# frecuencia_Hz_=_135109.261442195

Tiempo_(s)	Campo_(V.s)	Magnetizacion_(V.s)	Campo_(kA/m)	Magnetizacion_(A/m)
0.000000e+00	-5.507802e-06	-1.247149e-09	-3.837755e+01	-8.067819e+01
1.000000e-08	-5.508115e-06	-1.250761e-09	-3.837973e+01	-8.066211e+01
2.000000e-08	-5.508107e-06	-1.251123e-09	-3.837968e+01	-8.064368e+01
3.000000e-08	-5.507606e-06	-1.249364e-09	-3.837618e+01	-8.062280e+01
4.000000e-08	-5.506609e-06	-1.242744e-09	-3.836924e+01	-8.059939e+01
5.000000e-08	-5.505049e-06	-1.233927e-09	-3.835837e+01	-8.057335e+01
6.000000e-08	-5.502875e-06	-1.223987e-09	-3.834322e+01	-8.054457e+01
7.000000e-08	-5.500128e-06	-1.221605e-09	-3.832408e+01	-8.051295e+01
8.000000e-08	-5.496936e-06	-1.278491e-09	-3.830184e+01	-8.047840e+01
9.000000e-08	-5.493342e-06	-1.329465e-09	-3.827680e+01	-8.044081e+01
1.000000e-07	-5.489256e-06	-1.221647e-09	-3.824833e+01	-8.040009e+01
1.100000e-07	-5.484857e-06	-1.108991e-09	-3.821767e+01	-8.035618e+01
1.200000e-07	-5.480409e-06	-1.226741e-09	-3.818668e+01	-8.030898e+01
1.300000e-07	-5.475727e-06	-1.336052e-09	-3.815406e+01	-8.025845e+01
1.400000e-07	-5.470572e-06	-1.291644e-09	-3.811814e+01	-8.020451e+01
1.500000e-07	-5.465031e-06	-1.103365e-09	-3.807953e+01	-8.014715e+01
1.600000e-07	-5.459218e-06	-1.186390e-09	-3.803903e+01	-8.008632e+01
1.700000e-07	-5.452943e-06	-1.333199e-09	-3.799531e+01	-8.002203e+01
1.800000e-07	-5.446193e-06	-1.298294e-09	-3.794827e+01	-7.995427e+01
1.900000e-07	-5.439129e-06	-1.152479e-09	-3.789905e+01	-7.988306e+01
2.000000e-07	-5.431768e-06	-1.176646e-09	-3.784776e+01	-7.980843e+01
2.100000e-07	-5.424056e-06	-1.320072e-09	-3.779402e+01	-7.973044e+01
2.200000e-07	-5.416047e-06	-1.327678e-09	-3.773822e+01	-7.964914e+01
2.300000e-07	-5.407766e-06	-1.228188e-09	-3.768052e+01	-7.956461e+01
2.400000e-07	-5.399023e-06	-1.201343e-09	-3.761960e+01	-7.947695e+01
2.500000e-07	-5.389553e-06	-1.296956e-09	-3.755361e+01	-7.938624e+01
2.600000e-07	-5.379407e-06	-1.298206e-09	-3.748292e+01	-7.929261e+01
2.700000e-07	-5.368835e-06	-1.254736e-09	-3.740925e+01	-7.919617e+01
2.800000e-07	-5.357737e-06	-1.231272e-09	-3.733192e+01	-7.909706e+01
2.900000e-07	-5.346170e-06	-1.297707e-09	-3.725132e+01	-7.899539e+01
3.000000e-07	-5.334330e-06	-1.267859e-09	-3.716883e+01	-7.889132e+01
3.100000e-07	-5.322102e-06	-1.216707e-09	-3.708362e+01	-7.878497e+01
3.200000e-07	-5.309364e-06	-1.201625e-09	-3.699487e+01	-7.867649e+01
3.300000e-07	-5.296279e-06	-1.277876e-09	-3.690369e+01	-7.856601e+01
3.400000e-07	-5.282899e-06	-1.242483e-09	-3.681046e+01	-7.845366e+01
3.500000e-07	-5.269088e-06	-1.184097e-09	-3.671423e+01	-7.833956e+01
3.600000e-07	-5.254746e-06	-1.207290e-09	-3.661429e+01	-7.822384e+01
3.700000e-07	-5.240083e-06	-1.273011e-09	-3.651213e+01	-7.810659e+01
3.800000e-07	-5.224974e-06	-1.198535e-09	-3.640685e+01	-7.798791e+01
3.900000e-07	-5.209252e-06	-1.182561e-09	-3.629730e+01	-7.786788e+01
4.000000e-07	-5.193126e-06	-1.266909e-09	-3.618494e+01	-7.774657e+01
4.100000e-07	-5.176586e-06	-1.234228e-09	-3.606969e+01	-7.762401e+01
4.200000e-07	-5.159550e-06	-1.131571e-09	-3.595099e+01	-7.750025e+01
4.300000e-07	-5.142216e-06	-1.216195e-09	-3.583020e+01	-7.737529e+01
4.400000e-07	-5.124650e-06	-1.291458e-09	-3.570780e+01	-7.724913e+01
4.500000e-07	-5.106625e-06	-1.157976e-09	-3.558221e+01	-7.712174e+01
4.600000e-07	-5.088115e-06	-1.142261e-09	-3.545324e+01	-7.699308e+01
4.700000e-07	-5.069245e-06	-1.262917e-09	-3.532175e+01	-7.686308e+01
4.800000e-07	-5.050155e-06	-1.212159e-09	-3.518874e+01	-7.673167e+01
4.900000e-07	-5.030862e-06	-1.122011e-09	-3.505430e+01	-7.659874e+01
5.000000e-07	-5.011350e-06	-1.229558e-09	-3.491835e+01	-7.646419e+01
5.100000e-07	-4.991560e-06	-1.224283e-09	-3.478046e+01	-7.632787e+01
5.200000e-07	-4.971350e-06	-1.113128e-09	-3.463963e+01	-7.618965e+01
5.300000e-07	-4.950787e-06	-1.178845e-09	-3.449636e+01	-7.604937e+01
5.400000e-07	-4.929951e-06	-1.255391e-09	-3.435117e+01	-7.590686e+01
5.500000e-07	-4.908734e-06	-1.121373e-09	-3.420334e+01	-7.576196e+01
5.600000e-07	-4.887188e-06	-1.113764e-09	-3.405320e+01	-7.561448e+01
5.700000e-07	-4.865346e-06	-1.220571e-09	-3.390102e+01	-7.546424e+01
5.800000e-07	-4.843075e-06	-1.170753e-09	-3.374583e+01	-7.531106e+01
5.900000e-07	-4.820436e-06	-1.099541e-09	-3.358809e+01	-7.515477e+01
6.000000e-07	-4.797506e-06	-1.187133e-09	-3.342832e+01	-7.499517e+01
6.100000e-07	-4.774254e-06	-1.177527e-09	-3.326630e+01	-7.483211e+01
6.200000e-07	-4.750791e-06	-1.103896e-09	-3.310281e+01	-7.466543e+01
6.300000e-07	-4.727166e-06	-1.138357e-09	-3.293820e+01	-7.449498e+01
6.400000e-07	-4.703288e-06	-1.163862e-09	-3.277182e+01	-7.432061e+01
6.500000e-07	-4.678955e-06	-1.102254e-09	-3.260227e+01	-7.414222e+01
6.600000e-07	-4.654151e-06	-1.120508e-09	-3.242944e+01	-7.395971e+01
6.700000e-07	-4.628863e-06	-1.152644e-09	-3.225324e+01	-7.377299e+01
6.800000e-07	-4.603061e-06	-1.112792e-09	-3.207345e+01	-7.358200e+01
6.900000e-07	-4.576816e-06	-1.103463e-09	-3.189058e+01	-7.338671e+01
7.000000e-07	-4.550158e-06	-1.135936e-09	-3.170483e+01	-7.318710e+01
7.100000e-07	-4.523189e-06	-1.112495e-09	-3.151692e+01	-7.298318e+01
7.200000e-07	-4.495892e-06	-1.094170e-09	-3.132671e+01	-7.277498e+01
7.300000e-07	-4.468311e-06	-1.117716e-09	-3.113453e+01	-7.256256e+01
7.400000e-07	-4.440500e-06	-1.108659e-09	-3.094075e+01	-7.234599e+01
7.500000e-07	-4.412468e-06	-1.091009e-09	-3.074543e+01	-7.212538e+01
7.600000e-07	-4.384221e-06	-1.102308e-09	-3.054860e+01	-7.190086e+01
7.700000e-07	-4.355678e-06	-1.100261e-09	-3.034973e+01	-7.167256e+01
7.800000e-07	-4.326786e-06	-1.080952e-09	-3.014841e+01	-7.144064e+01
7.900000e-07	-4.297565e-06	-1.093385e-09	-2.994480e+01	-7.120528e+01
8.000000e-07	-4.268069e-06	-1.090727e-09	-2.973927e+01	-7.096668e+01
8.100000e-07	-4.238249e-06	-1.068880e-09	-2.953149e+01	-7.072504e+01
8.200000e-07	-4.208101e-06	-1.069505e-09	-2.932143e+01	-7.048056e+01
8.300000e-07	-4.177721e-06	-1.086749e-09	-2.910974e+01	-7.023347e+01
8.400000e-07	-4.147048e-06	-1.066921e-09	-2.889602e+01	-6.998398e+01
8.500000e-07	-4.116094e-06	-1.060384e-09	-2.868034e+01	-6.973232e+01
8.600000e-07	-4.084900e-06	-1.071912e-09	-2.846299e+01	-6.947869e+01
8.700000e-07	-4.053446e-06	-1.064098e-09	-2.824382e+01	-6.922330e+01
8.800000e-07	-4.021856e-06	-1.043661e-09	-2.802370e+01	-6.896635e+01
8.900000e-07	-3.990089e-06	-1.054315e-09	-2.780235e+01	-6.870803e+01
9.000000e-07	-3.958070e-06	-1.051596e-09	-2.757925e+01	-6.844850e+01
9.100000e-07	-3.925763e-06	-1.033246e-09	-2.735414e+01	-6.818789e+01
9.200000e-07	-3.893063e-06	-1.035122e-09	-2.712629e+01	-6.792634e+01
9.300000e-07	-3.859942e-06	-1.045645e-09	-2.689551e+01	-6.766395e+01
9.400000e-07	-3.826343e-06	-1.025397e-09	-2.666140e+01	-6.740076e+01
9.500000e-07	-3.792335e-06	-1.014922e-09	-2.642444e+01	-6.713684e+01
9.600000e-07	-3.757997e-06	-1.020408e-09	-2.618517e+01	-6.687216e+01
9.700000e-07	-3.723253e-06	-1.011659e-09	-2.594308e+01	-6.660672e+01
9.800000e-07	-3.688167e-06	-9.999293e-10	-2.569861e+01	-6.634044e+01
9.900000e-07	-3.652891e-06	-1.009078e-09	-2.545281e+01	-6.607322e+01
1.000000e-06	-3.617418e-06	-1.009674e-09	-2.520564e+01	-6.580493e+01
1.010000e-06	-3.581714e-06	-9.932812e-10	-2.495686e+01	-6.553539e+01
1.020000e-06	-3.545850e-06	-9.886574e-10	-2.470696e+01	-6.526439e+01
1.030000e-06	-3.509869e-06	-9.870050e-10	-2.445625e+01	-6.499169e+01
1.040000e-06	-3.473684e-06	-9.721388e-10	-2.420412e+01	-6.471701e+01
1.050000e-06	-3.437197e-06	-9.610474e-10	-2.394988e+01	-6.444005e+01
1.060000e-06	-3.400544e-06	-9.611645e-10	-2.369449e+01	-6.416046e+01
1.070000e-06	-3.363663e-06	-9.525571e-10	-2.343751e+01	-6.387788e+01
1.080000e-06	-3.326478e-06	-9.469365e-10	-2.317841e+01	-6.359192e+01
1.090000e-06	-3.289093e-06	-9.490066e-10	-2.291792e+01	-6.330217e+01
1.100000e-06	-3.251449e-06	-9.454621e-10	-2.265562e+01	-6.300819e+01
1.110000e-06	-3.213544e-06	-9.291716e-10	-2.239150e+01	-6.270956e+01
1.120000e-06	-3.175450e-06	-9.200459e-10	-2.212607e+01	-6.240580e+01
1.130000e-06	-3.137162e-06	-9.098362e-10	-2.185929e+01	-6.209647e+01
1.140000e-06	-3.098605e-06	-8.988215e-10	-2.159062e+01	-6.178111e+01
1.150000e-06	-3.059825e-06	-8.925426e-10	-2.132041e+01	-6.145924e+01
1.160000e-06	-3.020839e-06	-8.928874e-10	-2.104876e+01	-6.113043e+01
1.170000e-06	-2.981635e-06	-8.882675e-10	-2.077559e+01	-6.079423e+01
1.180000e-06	-2.942355e-06	-8.842893e-10	-2.050190e+01	-6.045020e+01
1.190000e-06	-2.902984e-06	-8.794606e-10	-2.022757e+01	-6.009795e+01
1.200000e-06	-2.863421e-06	-8.706639e-10	-1.995189e+01	-5.973709e+01
1.210000e-06	-2.823702e-06	-8.575015e-10	-1.967514e+01	-5.936724e+01
1.220000e-06	-2.783865e-06	-8.513869e-10	-1.939756e+01	-5.898809e+01
1.230000e-06	-2.743820e-06	-8.452568e-10	-1.911854e+01	-5.859933e+01
1.240000e-06	-2.703496e-06	-8.381730e-10	-1.883756e+01	-5.820070e+01
1.250000e-06	-2.662943e-06	-8.330715e-10	-1.855500e+01	-5.779196e+01
1.260000e-06	-2.622176e-06	-8.300884e-10	-1.827094e+01	-5.737292e+01
1.270000e-06	-2.581156e-06	-8.257468e-10	-1.798512e+01	-5.694343e+01
1.280000e-06	-2.539939e-06	-8.197603e-10	-1.769792e+01	-5.650339e+01
1.290000e-06	-2.498525e-06	-8.130882e-10	-1.740935e+01	-5.605270e+01
1.300000e-06	-2.456782e-06	-8.047115e-10	-1.711850e+01	-5.559135e+01
1.310000e-06	-2.414701e-06	-7.971286e-10	-1.682528e+01	-5.511933e+01
1.320000e-06	-2.372410e-06	-7.900647e-10	-1.653060e+01	-5.463670e+01
1.330000e-06	-2.329903e-06	-7.827636e-10	-1.623442e+01	-5.414351e+01
1.340000e-06	-2.287110e-06	-7.761066e-10	-1.593625e+01	-5.363990e+01
1.350000e-06	-2.244073e-06	-7.712888e-10	-1.563637e+01	-5.312599e+01
1.360000e-06	-2.200857e-06	-7.645621e-10	-1.533525e+01	-5.260195e+01
1.370000e-06	-2.157499e-06	-7.563836e-10	-1.503314e+01	-5.206798e+01
1.380000e-06	-2.113975e-06	-7.485823e-10	-1.472987e+01	-5.152428e+01
1.390000e-06	-2.070370e-06	-7.432892e-10	-1.442603e+01	-5.097108e+01
1.400000e-06	-2.026684e-06	-7.363866e-10	-1.412164e+01	-5.040861e+01
1.410000e-06	-1.982854e-06	-7.276366e-10	-1.381624e+01	-4.983710e+01
1.420000e-06	-1.938985e-06	-7.176349e-10	-1.351057e+01	-4.925680e+01
1.430000e-06	-1.895114e-06	-7.097293e-10	-1.320488e+01	-4.866794e+01
1.440000e-06	-1.851124e-06	-7.000578e-10	-1.289836e+01	-4.807074e+01
1.450000e-06	-1.807010e-06	-6.912286e-10	-1.259098e+01	-4.746541e+01
1.460000e-06	-1.762852e-06	-6.803576e-10	-1.228329e+01	-4.685212e+01
1.470000e-06	-1.718576e-06	-6.728631e-10	-1.197478e+01	-4.623104e+01
1.480000e-06	-1.674013e-06	-6.661864e-10	-1.166428e+01	-4.560230e+01
1.490000e-06	-1.629259e-06	-6.577308e-10	-1.135244e+01	-4.496600e+01
1.500000e-06	-1.584443e-06	-6.490814e-10	-1.104016e+01	-4.432217e+01
1.510000e-06	-1.539486e-06	-6.396211e-10	-1.072691e+01	-4.367084e+01
1.520000e-06	-1.494460e-06	-6.270374e-10	-1.041318e+01	-4.301197e+01
1.530000e-06	-1.449355e-06	-6.113092e-10	-1.009890e+01	-4.234548e+01
1.540000e-06	-1.404104e-06	-5.950059e-10	-9.783592e+00	-4.167122e+01
1.550000e-06	-1.358765e-06	-5.800308e-10	-9.467673e+00	-4.098902e+01
1.560000e-06	-1.313395e-06	-5.673768e-10	-9.151545e+00	-4.029863e+01
1.570000e-06	-1.267925e-06	-5.579766e-10	-8.834712e+00	-3.959975e+01
1.580000e-06	-1.222333e-06	-5.487730e-10	-8.517034e+00	-3.889203e+01
1.590000e-06	-1.176682e-06	-5.402205e-10	-8.198946e+00	-3.817508e+01
1.600000e-06	-1.130969e-06	-5.307287e-10	-7.880427e+00	-3.744844e+01
1.610000e-06	-1.085150e-06	-5.207433e-10	-7.561166e+00	-3.671160e+01
1.620000e-06	-1.039133e-06	-5.086427e-10	-7.240525e+00	-3.596403e+01
1.630000e-06	-9.930346e-07	-4.932980e-10	-6.919319e+00	-3.520512e+01
1.640000e-06	-9.469700e-07	-4.788282e-10	-6.598348e+00	-3.443427e+01
1.650000e-06	-9.008909e-07	-4.623100e-10	-6.277275e+00	-3.365081e+01
1.660000e-06	-8.548065e-07	-4.484323e-10	-5.956166e+00	-3.285406e+01
1.670000e-06	-8.086336e-07	-4.351073e-10	-5.634440e+00	-3.204331e+01
1.680000e-06	-7.623300e-07	-4.245347e-10	-5.311803e+00	-3.121786e+01
1.690000e-06	-7.160543e-07	-4.144069e-10	-4.989361e+00	-3.037697e+01
1.700000e-06	-6.697751e-07	-4.033036e-10	-4.666894e+00	-2.951993e+01
1.710000e-06	-6.234222e-07	-3.889645e-10	-4.343914e+00	-2.864602e+01
1.720000e-06	-5.770219e-07	-3.715062e-10	-4.020603e+00	-2.775456e+01
1.730000e-06	-5.305487e-07	-3.546212e-10	-3.696785e+00	-2.684486e+01
1.740000e-06	-4.840394e-07	-3.379936e-10	-3.372716e+00	-2.591629e+01
1.750000e-06	-4.375094e-07	-3.220159e-10	-3.048501e+00	-2.496825e+01
1.760000e-06	-3.909478e-07	-3.092739e-10	-2.724066e+00	-2.400021e+01
1.770000e-06	-3.443415e-07	-2.967041e-10	-2.399321e+00	-2.301166e+01
1.780000e-06	-2.976629e-07	-2.848961e-10	-2.074071e+00	-2.200218e+01
1.790000e-06	-2.509876e-07	-2.696926e-10	-1.748845e+00	-2.097141e+01
1.800000e-06	-2.043556e-07	-2.514294e-10	-1.423920e+00	-1.991909e+01
1.810000e-06	-1.576428e-07	-2.326950e-10	-1.098432e+00	-1.884502e+01
1.820000e-06	-1.108671e-07	-2.137016e-10	-7.725058e-01	-1.774909e+01
1.830000e-06	-6.417490e-08	-1.953395e-10	-4.471613e-01	-1.663131e+01
1.840000e-06	-1.753321e-08	-1.775003e-10	-1.221688e-01	-1.549176e+01
1.850000e-06	2.916040e-08	-1.617079e-10	2.031854e-01	-1.433064e+01
1.860000e-06	7.587548e-08	-1.468238e-10	5.286892e-01	-1.314826e+01
1.870000e-06	1.226349e-07	-1.307329e-10	8.545018e-01	-1.194501e+01
1.880000e-06	1.693277e-07	-1.132573e-10	1.179851e+00	-1.072144e+01
1.890000e-06	2.159014e-07	-9.458341e-11	1.504369e+00	-9.478151e+00
1.900000e-06	2.625287e-07	-7.569906e-11	1.829262e+00	-8.215894e+00
1.910000e-06	3.092122e-07	-5.814682e-11	2.154545e+00	-6.935508e+00
1.920000e-06	3.558775e-07	-4.085029e-11	2.479702e+00	-5.637941e+00
1.930000e-06	4.024924e-07	-2.397731e-11	2.804508e+00	-4.324241e+00
1.940000e-06	4.490719e-07	-6.589518e-12	3.129067e+00	-2.995554e+00
1.950000e-06	4.956493e-07	9.995859e-12	3.453611e+00	-1.653117e+00
1.960000e-06	5.421660e-07	2.782224e-11	3.777733e+00	-2.982498e-01
1.970000e-06	5.885936e-07	4.541049e-11	4.101234e+00	1.067645e+00
1.980000e-06	6.349160e-07	6.352932e-11	4.424001e+00	2.443097e+00
1.990000e-06	6.811526e-07	8.177767e-11	4.746171e+00	3.826568e+00
2.000000e-06	7.273977e-07	1.009755e-10	5.068400e+00	5.216469e+00
2.010000e-06	7.735171e-07	1.209919e-10	5.389753e+00	6.611164e+00
2.020000e-06	8.195148e-07	1.405247e-10	5.710258e+00	8.008978e+00
2.030000e-06	8.655348e-07	1.592785e-10	6.030919e+00	9.408214e+00
2.040000e-06	9.115538e-07	1.783000e-10	6.351573e+00	1.080715e+01
2.050000e-06	9.574841e-07	1.956987e-10	6.671608e+00	1.220408e+01
2.060000e-06	1.003378e-06	2.137137e-10	6.991392e+00	1.359727e+01
2.070000e-06	1.049259e-06	2.332775e-10	7.311082e+00	1.498502e+01
2.080000e-06	1.095043e-06	2.539224e-10	7.630097e+00	1.636565e+01
2.090000e-06	1.140785e-06	2.756062e-10	7.948823e+00	1.773751e+01
2.100000e-06	1.186433e-06	2.937188e-10	8.266888e+00	1.909902e+01
2.110000e-06	1.231953e-06	3.086477e-10	8.584066e+00	2.044860e+01
2.120000e-06	1.277386e-06	3.240957e-10	8.900637e+00	2.178480e+01
2.130000e-06	1.322689e-06	3.424999e-10	9.216302e+00	2.310617e+01
2.140000e-06	1.367916e-06	3.609459e-10	9.531438e+00	2.441140e+01
2.150000e-06	1.413104e-06	3.791091e-10	9.846300e+00	2.569922e+01
2.160000e-06	1.458212e-06	3.988105e-10	1.016060e+01	2.696848e+01
2.170000e-06	1.503229e-06	4.196402e-10	1.047428e+01	2.821812e+01
2.180000e-06	1.548133e-06	4.380115e-10	1.078716e+01	2.944716e+01
2.190000e-06	1.592872e-06	4.521388e-10	1.109890e+01	3.065475e+01
2.200000e-06	1.637405e-06	4.653084e-10	1.140920e+01	3.184015e+01
2.210000e-06	1.681759e-06	4.800239e-10	1.171825e+01	3.300272e+01
2.220000e-06	1.726016e-06	4.968549e-10	1.202663e+01	3.414192e+01
2.230000e-06	1.770182e-06	5.159431e-10	1.233437e+01	3.525735e+01
2.240000e-06	1.814244e-06	5.332140e-10	1.264139e+01	3.634869e+01
2.250000e-06	1.858160e-06	5.475352e-10	1.294739e+01	3.741576e+01
2.260000e-06	1.901950e-06	5.603348e-10	1.325250e+01	3.845846e+01
2.270000e-06	1.945700e-06	5.716089e-10	1.355735e+01	3.947682e+01
2.280000e-06	1.989407e-06	5.836896e-10	1.386190e+01	4.047093e+01
2.290000e-06	2.033037e-06	5.966823e-10	1.416590e+01	4.144103e+01
2.300000e-06	2.076599e-06	6.103336e-10	1.446944e+01	4.238739e+01
2.310000e-06	2.120137e-06	6.243732e-10	1.477280e+01	4.331041e+01
2.320000e-06	2.163612e-06	6.387836e-10	1.507573e+01	4.421054e+01
2.330000e-06	2.207006e-06	6.531632e-10	1.537809e+01	4.508832e+01
2.340000e-06	2.250276e-06	6.646923e-10	1.567959e+01	4.594432e+01
2.350000e-06	2.293383e-06	6.749042e-10	1.597995e+01	4.677920e+01
2.360000e-06	2.336316e-06	6.860636e-10	1.627911e+01	4.759364e+01
2.370000e-06	2.378960e-06	6.980552e-10	1.657624e+01	4.838837e+01
2.380000e-06	2.421238e-06	7.115232e-10	1.687083e+01	4.916415e+01
2.390000e-06	2.463225e-06	7.258654e-10	1.716339e+01	4.992175e+01
2.400000e-06	2.504910e-06	7.383758e-10	1.745385e+01	5.066198e+01
2.410000e-06	2.546184e-06	7.496627e-10	1.774144e+01	5.138561e+01
2.420000e-06	2.587099e-06	7.610039e-10	1.802653e+01	5.209344e+01
2.430000e-06	2.627733e-06	7.713560e-10	1.830965e+01	5.278627e+01
2.440000e-06	2.668153e-06	7.814682e-10	1.859130e+01	5.346484e+01
2.450000e-06	2.708394e-06	7.929535e-10	1.887169e+01	5.412990e+01
2.460000e-06	2.748426e-06	8.062050e-10	1.915063e+01	5.478216e+01
2.470000e-06	2.788273e-06	8.181282e-10	1.942827e+01	5.542229e+01
2.480000e-06	2.828000e-06	8.272230e-10	1.970509e+01	5.605093e+01
2.490000e-06	2.867645e-06	8.343720e-10	1.998133e+01	5.666866e+01
2.500000e-06	2.907170e-06	8.418876e-10	2.025673e+01	5.727602e+01
2.510000e-06	2.946590e-06	8.516866e-10	2.053140e+01	5.787350e+01
2.520000e-06	2.985959e-06	8.627810e-10	2.080572e+01	5.846152e+01
2.530000e-06	3.025148e-06	8.747330e-10	2.107879e+01	5.904046e+01
2.540000e-06	3.064063e-06	8.853118e-10	2.134994e+01	5.961064e+01
2.550000e-06	3.102672e-06	8.924835e-10	2.161896e+01	6.017232e+01
2.560000e-06	3.140963e-06	8.983111e-10	2.188577e+01	6.072571e+01
2.570000e-06	3.179044e-06	9.041064e-10	2.215111e+01	6.127095e+01
2.580000e-06	3.216934e-06	9.095876e-10	2.241512e+01	6.180814e+01
2.590000e-06	3.254652e-06	9.145096e-10	2.267794e+01	6.233732e+01
2.600000e-06	3.292194e-06	9.211274e-10	2.293952e+01	6.285849e+01
2.610000e-06	3.329554e-06	9.308605e-10	2.319984e+01	6.337159e+01
2.620000e-06	3.366753e-06	9.412782e-10	2.345904e+01	6.387655e+01
2.630000e-06	3.403698e-06	9.510010e-10	2.371647e+01	6.437322e+01
2.640000e-06	3.440337e-06	9.587500e-10	2.397176e+01	6.486146e+01
2.650000e-06	3.476671e-06	9.641283e-10	2.422493e+01	6.534107e+01
2.660000e-06	3.512699e-06	9.687308e-10	2.447597e+01	6.581185e+01
2.670000e-06	3.548501e-06	9.738042e-10	2.472543e+01	6.627357e+01
2.680000e-06	3.584200e-06	9.785209e-10	2.497418e+01	6.672600e+01
2.690000e-06	3.619834e-06	9.817418e-10	2.522247e+01	6.716888e+01
2.700000e-06	3.655344e-06	9.865814e-10	2.546990e+01	6.760198e+01
2.710000e-06	3.690692e-06	9.941658e-10	2.571620e+01	6.802507e+01
2.720000e-06	3.725773e-06	1.000980e-09	2.596064e+01	6.843790e+01
2.730000e-06	3.760476e-06	1.007658e-09	2.620244e+01	6.884026e+01
2.740000e-06	3.794806e-06	1.013955e-09	2.644165e+01	6.923196e+01
2.750000e-06	3.828696e-06	1.018330e-09	2.667779e+01	6.961282e+01
2.760000e-06	3.862052e-06	1.021866e-09	2.691021e+01	6.998269e+01
2.770000e-06	3.894923e-06	1.026482e-09	2.713925e+01	7.034147e+01
2.780000e-06	3.927445e-06	1.032456e-09	2.736586e+01	7.068905e+01
2.790000e-06	3.959647e-06	1.038187e-09	2.759024e+01	7.102540e+01
2.800000e-06	3.991527e-06	1.044188e-09	2.781237e+01	7.135051e+01
2.810000e-06	4.023250e-06	1.051152e-09	2.803341e+01	7.166439e+01
2.820000e-06	4.054920e-06	1.056929e-09	2.825409e+01	7.196713e+01
2.830000e-06	4.086395e-06	1.060468e-09	2.847340e+01	7.225882e+01
2.840000e-06	4.117564e-06	1.063363e-09	2.869058e+01	7.253962e+01
2.850000e-06	4.148463e-06	1.066057e-09	2.890588e+01	7.280972e+01
2.860000e-06	4.179045e-06	1.069369e-09	2.911897e+01	7.306933e+01
2.870000e-06	4.209285e-06	1.073102e-09	2.932968e+01	7.331874e+01
2.880000e-06	4.239261e-06	1.077407e-09	2.953855e+01	7.355822e+01
2.890000e-06	4.268975e-06	1.083442e-09	2.974559e+01	7.378813e+01
2.900000e-06	4.298402e-06	1.088392e-09	2.995063e+01	7.400881e+01
