# Temperatura_=_-0.23
# Concentracion g/m^3_=_1620.0
# C_Vs_to_Am_M_A/Vsm_=_65563218390.804596
# pendiente_HvsI_1/m_=_3716.3
# ordenada_HvsI_A/m_=_1297.0
# frecuencia_Hz_=_135108.18259212084

Tiempo_(s)	Campo_(V.s)	Magnetizacion_(V.s)	Campo_(kA/m)	Magnetizacion_(A/m)
0.000000e+00	-5.524871e-06	-1.016659e-09	-3.836716e+01	-6.521135e+01
1.000000e-08	-5.525020e-06	-1.015466e-09	-3.836820e+01	-6.523679e+01
2.000000e-08	-5.524963e-06	-1.013424e-09	-3.836780e+01	-6.525987e+01
3.000000e-08	-5.524591e-06	-1.010232e-09	-3.836522e+01	-6.528030e+01
4.000000e-08	-5.523860e-06	-1.005790e-09	-3.836014e+01	-6.529778e+01
5.000000e-08	-5.522597e-06	-1.000624e-09	-3.835137e+01	-6.531202e+01
6.000000e-08	-5.520758e-06	-9.956245e-10	-3.833860e+01	-6.532274e+01
7.000000e-08	-5.518447e-06	-9.868155e-10	-3.832255e+01	-6.532966e+01
8.000000e-08	-5.515490e-06	-9.849285e-10	-3.830202e+01	-6.533251e+01
9.000000e-08	-5.511878e-06	-9.932505e-10	-3.827693e+01	-6.533104e+01
1.000000e-07	-5.507839e-06	-1.006627e-09	-3.824889e+01	-6.532503e+01
1.100000e-07	-5.503511e-06	-1.019926e-09	-3.821883e+01	-6.531426e+01
1.200000e-07	-5.498932e-06	-1.008784e-09	-3.818703e+01	-6.529854e+01
1.300000e-07	-5.494042e-06	-9.464502e-10	-3.815307e+01	-6.527771e+01
1.400000e-07	-5.488792e-06	-9.518411e-10	-3.811661e+01	-6.525163e+01
1.500000e-07	-5.483235e-06	-9.675688e-10	-3.807802e+01	-6.522020e+01
1.600000e-07	-5.477318e-06	-9.908759e-10	-3.803693e+01	-6.518332e+01
1.700000e-07	-5.470968e-06	-9.610320e-10	-3.799283e+01	-6.514095e+01
1.800000e-07	-5.464195e-06	-9.719331e-10	-3.794580e+01	-6.509309e+01
1.900000e-07	-5.456986e-06	-1.015102e-09	-3.789574e+01	-6.503973e+01
2.000000e-07	-5.449441e-06	-1.006278e-09	-3.784334e+01	-6.498094e+01
2.100000e-07	-5.441668e-06	-9.766781e-10	-3.778936e+01	-6.491679e+01
2.200000e-07	-5.433647e-06	-9.498642e-10	-3.773366e+01	-6.484739e+01
2.300000e-07	-5.425350e-06	-9.831805e-10	-3.767604e+01	-6.477289e+01
2.400000e-07	-5.416689e-06	-9.836104e-10	-3.761590e+01	-6.469346e+01
2.500000e-07	-5.407417e-06	-9.913065e-10	-3.755151e+01	-6.460929e+01
2.600000e-07	-5.397477e-06	-9.778533e-10	-3.748248e+01	-6.452062e+01
2.700000e-07	-5.386952e-06	-9.956722e-10	-3.740939e+01	-6.442768e+01
2.800000e-07	-5.375869e-06	-9.787824e-10	-3.733243e+01	-6.433077e+01
2.900000e-07	-5.364330e-06	-9.764940e-10	-3.725230e+01	-6.423015e+01
3.000000e-07	-5.352390e-06	-9.689481e-10	-3.716938e+01	-6.412615e+01
3.100000e-07	-5.340040e-06	-9.795723e-10	-3.708361e+01	-6.401906e+01
3.200000e-07	-5.327284e-06	-9.697777e-10	-3.699503e+01	-6.390923e+01
3.300000e-07	-5.314165e-06	-9.704040e-10	-3.690392e+01	-6.379698e+01
3.400000e-07	-5.300641e-06	-9.652574e-10	-3.681001e+01	-6.368265e+01
3.500000e-07	-5.286746e-06	-9.644066e-10	-3.671351e+01	-6.356658e+01
3.600000e-07	-5.272485e-06	-9.638462e-10	-3.661448e+01	-6.344908e+01
3.700000e-07	-5.257712e-06	-9.570699e-10	-3.651189e+01	-6.333049e+01
3.800000e-07	-5.242390e-06	-9.559529e-10	-3.640549e+01	-6.321111e+01
3.900000e-07	-5.226529e-06	-9.687211e-10	-3.629534e+01	-6.309124e+01
4.000000e-07	-5.210139e-06	-9.730692e-10	-3.618152e+01	-6.297116e+01
4.100000e-07	-5.193360e-06	-9.445949e-10	-3.606500e+01	-6.285112e+01
4.200000e-07	-5.176297e-06	-9.516114e-10	-3.594651e+01	-6.273136e+01
4.300000e-07	-5.158970e-06	-9.706209e-10	-3.582618e+01	-6.261208e+01
4.400000e-07	-5.141361e-06	-9.548247e-10	-3.570390e+01	-6.249348e+01
4.500000e-07	-5.123367e-06	-9.316481e-10	-3.557894e+01	-6.237570e+01
4.600000e-07	-5.105037e-06	-9.662946e-10	-3.545165e+01	-6.225886e+01
4.700000e-07	-5.086248e-06	-9.569851e-10	-3.532117e+01	-6.214306e+01
4.800000e-07	-5.066990e-06	-9.163648e-10	-3.518743e+01	-6.202834e+01
4.900000e-07	-5.047469e-06	-9.282905e-10	-3.505187e+01	-6.191474e+01
5.000000e-07	-5.027736e-06	-9.643528e-10	-3.491483e+01	-6.180225e+01
5.100000e-07	-5.007773e-06	-9.219622e-10	-3.477620e+01	-6.169082e+01
5.200000e-07	-4.987533e-06	-9.134822e-10	-3.463565e+01	-6.158038e+01
5.300000e-07	-4.966960e-06	-9.424162e-10	-3.449278e+01	-6.147083e+01
5.400000e-07	-4.946051e-06	-9.273317e-10	-3.434758e+01	-6.136204e+01
5.500000e-07	-4.924717e-06	-8.975588e-10	-3.419943e+01	-6.125384e+01
5.600000e-07	-4.903013e-06	-9.339139e-10	-3.404870e+01	-6.114606e+01
5.700000e-07	-4.881121e-06	-9.239401e-10	-3.389668e+01	-6.103848e+01
5.800000e-07	-4.858940e-06	-8.819316e-10	-3.374264e+01	-6.093088e+01
5.900000e-07	-4.836438e-06	-9.009823e-10	-3.358638e+01	-6.082300e+01
6.000000e-07	-4.813549e-06	-9.258187e-10	-3.342742e+01	-6.071460e+01
6.100000e-07	-4.790264e-06	-8.899723e-10	-3.326573e+01	-6.060541e+01
6.200000e-07	-4.766691e-06	-8.912464e-10	-3.310202e+01	-6.049514e+01
6.300000e-07	-4.742835e-06	-9.147494e-10	-3.293636e+01	-6.038351e+01
6.400000e-07	-4.718721e-06	-8.882395e-10	-3.276890e+01	-6.027024e+01
6.500000e-07	-4.694375e-06	-8.702740e-10	-3.259983e+01	-6.015505e+01
6.600000e-07	-4.669749e-06	-8.925027e-10	-3.242882e+01	-6.003767e+01
6.700000e-07	-4.644642e-06	-8.847885e-10	-3.225446e+01	-5.991783e+01
6.800000e-07	-4.618933e-06	-8.658405e-10	-3.207592e+01	-5.979529e+01
6.900000e-07	-4.592635e-06	-8.845314e-10	-3.189330e+01	-5.966979e+01
7.000000e-07	-4.565839e-06	-8.891406e-10	-3.170722e+01	-5.954112e+01
7.100000e-07	-4.538720e-06	-8.724744e-10	-3.151889e+01	-5.940909e+01
7.200000e-07	-4.511288e-06	-8.717413e-10	-3.132839e+01	-5.927352e+01
7.300000e-07	-4.483537e-06	-8.749898e-10	-3.113568e+01	-5.913425e+01
7.400000e-07	-4.455581e-06	-8.599028e-10	-3.094154e+01	-5.899116e+01
7.500000e-07	-4.427426e-06	-8.664771e-10	-3.074602e+01	-5.884416e+01
7.600000e-07	-4.399095e-06	-8.740388e-10	-3.054928e+01	-5.869316e+01
7.700000e-07	-4.370489e-06	-8.659940e-10	-3.035062e+01	-5.853814e+01
7.800000e-07	-4.341476e-06	-8.580653e-10	-3.014914e+01	-5.837908e+01
7.900000e-07	-4.312215e-06	-8.609300e-10	-2.994594e+01	-5.821598e+01
8.000000e-07	-4.282725e-06	-8.509884e-10	-2.974115e+01	-5.804891e+01
8.100000e-07	-4.252884e-06	-8.478964e-10	-2.953392e+01	-5.787792e+01
8.200000e-07	-4.222687e-06	-8.521304e-10	-2.932422e+01	-5.770312e+01
8.300000e-07	-4.192205e-06	-8.516640e-10	-2.911254e+01	-5.752463e+01
8.400000e-07	-4.161450e-06	-8.411681e-10	-2.889896e+01	-5.734258e+01
8.500000e-07	-4.130417e-06	-8.422829e-10	-2.868346e+01	-5.715714e+01
8.600000e-07	-4.099110e-06	-8.380872e-10	-2.846604e+01	-5.696848e+01
8.700000e-07	-4.067530e-06	-8.299078e-10	-2.824674e+01	-5.677680e+01
8.800000e-07	-4.035812e-06	-8.288885e-10	-2.802647e+01	-5.658231e+01
8.900000e-07	-4.003963e-06	-8.337641e-10	-2.780530e+01	-5.638520e+01
9.000000e-07	-3.971906e-06	-8.276664e-10	-2.758268e+01	-5.618570e+01
9.100000e-07	-3.939589e-06	-8.235462e-10	-2.735826e+01	-5.598402e+01
9.200000e-07	-3.906901e-06	-8.233466e-10	-2.713126e+01	-5.578038e+01
9.300000e-07	-3.873819e-06	-8.169113e-10	-2.690152e+01	-5.557498e+01
9.400000e-07	-3.840292e-06	-8.093823e-10	-2.666870e+01	-5.536802e+01
9.500000e-07	-3.806347e-06	-8.111462e-10	-2.643297e+01	-5.515970e+01
9.600000e-07	-3.772038e-06	-8.117513e-10	-2.619471e+01	-5.495017e+01
9.700000e-07	-3.737336e-06	-8.057272e-10	-2.595372e+01	-5.473959e+01
9.800000e-07	-3.702276e-06	-8.039816e-10	-2.571025e+01	-5.452809e+01
9.900000e-07	-3.666858e-06	-8.026447e-10	-2.546429e+01	-5.431577e+01
1.000000e-06	-3.631204e-06	-7.960907e-10	-2.521670e+01	-5.410273e+01
1.010000e-06	-3.595434e-06	-7.894945e-10	-2.496829e+01	-5.388899e+01
1.020000e-06	-3.559493e-06	-7.903170e-10	-2.471870e+01	-5.367460e+01
1.030000e-06	-3.523416e-06	-7.876420e-10	-2.446817e+01	-5.345954e+01
1.040000e-06	-3.487194e-06	-7.857728e-10	-2.421663e+01	-5.324376e+01
1.050000e-06	-3.450684e-06	-7.853556e-10	-2.396308e+01	-5.302719e+01
1.060000e-06	-3.413838e-06	-7.820245e-10	-2.370721e+01	-5.280973e+01
1.070000e-06	-3.376803e-06	-7.732946e-10	-2.345003e+01	-5.259123e+01
1.080000e-06	-3.339604e-06	-7.704145e-10	-2.319170e+01	-5.237152e+01
1.090000e-06	-3.302148e-06	-7.676335e-10	-2.293159e+01	-5.215040e+01
1.100000e-06	-3.264432e-06	-7.624497e-10	-2.266966e+01	-5.192763e+01
1.110000e-06	-3.226472e-06	-7.572424e-10	-2.240605e+01	-5.170296e+01
1.120000e-06	-3.188352e-06	-7.566447e-10	-2.214133e+01	-5.147609e+01
1.130000e-06	-3.150010e-06	-7.522853e-10	-2.187507e+01	-5.124672e+01
1.140000e-06	-3.111332e-06	-7.469047e-10	-2.160647e+01	-5.101451e+01
1.150000e-06	-3.072373e-06	-7.410717e-10	-2.133592e+01	-5.077911e+01
1.160000e-06	-3.033158e-06	-7.359441e-10	-2.106360e+01	-5.054015e+01
1.170000e-06	-2.993737e-06	-7.311095e-10	-2.078984e+01	-5.029726e+01
1.180000e-06	-2.954187e-06	-7.294697e-10	-2.051519e+01	-5.005006e+01
1.190000e-06	-2.914535e-06	-7.275341e-10	-2.023983e+01	-4.979814e+01
1.200000e-06	-2.874793e-06	-7.268682e-10	-1.996384e+01	-4.954112e+01
1.210000e-06	-2.834926e-06	-7.257583e-10	-1.968698e+01	-4.927859e+01
1.220000e-06	-2.794894e-06	-7.210246e-10	-1.940899e+01	-4.901019e+01
1.230000e-06	-2.754692e-06	-7.142950e-10	-1.912980e+01	-4.873551e+01
1.240000e-06	-2.714380e-06	-7.074275e-10	-1.884986e+01	-4.845421e+01
1.250000e-06	-2.673920e-06	-7.016531e-10	-1.856889e+01	-4.816591e+01
1.260000e-06	-2.633223e-06	-6.975966e-10	-1.828627e+01	-4.787029e+01
1.270000e-06	-2.592300e-06	-6.950798e-10	-1.800208e+01	-4.756702e+01
1.280000e-06	-2.551119e-06	-6.900469e-10	-1.771611e+01	-4.725581e+01
1.290000e-06	-2.509580e-06	-6.839481e-10	-1.742764e+01	-4.693638e+01
1.300000e-06	-2.467747e-06	-6.750022e-10	-1.713713e+01	-4.660849e+01
1.310000e-06	-2.425733e-06	-6.652506e-10	-1.684537e+01	-4.627192e+01
1.320000e-06	-2.383402e-06	-6.587522e-10	-1.655140e+01	-4.592645e+01
1.330000e-06	-2.340735e-06	-6.551284e-10	-1.625510e+01	-4.557194e+01
1.340000e-06	-2.297805e-06	-6.517658e-10	-1.595698e+01	-4.520822e+01
1.350000e-06	-2.254633e-06	-6.474841e-10	-1.565717e+01	-4.483520e+01
1.360000e-06	-2.211296e-06	-6.407917e-10	-1.535622e+01	-4.445277e+01
1.370000e-06	-2.167808e-06	-6.326426e-10	-1.505423e+01	-4.406087e+01
1.380000e-06	-2.124200e-06	-6.235708e-10	-1.475139e+01	-4.365946e+01
1.390000e-06	-2.080502e-06	-6.173294e-10	-1.444793e+01	-4.324851e+01
1.400000e-06	-2.036712e-06	-6.115814e-10	-1.414383e+01	-4.282802e+01
1.410000e-06	-1.992791e-06	-6.055120e-10	-1.383883e+01	-4.239800e+01
1.420000e-06	-1.948743e-06	-5.975763e-10	-1.353294e+01	-4.195847e+01
1.430000e-06	-1.904644e-06	-5.906029e-10	-1.322670e+01	-4.150946e+01
1.440000e-06	-1.860511e-06	-5.850746e-10	-1.292021e+01	-4.105102e+01
1.450000e-06	-1.816284e-06	-5.771478e-10	-1.261308e+01	-4.058319e+01
1.460000e-06	-1.771959e-06	-5.671474e-10	-1.230527e+01	-4.010601e+01
1.470000e-06	-1.727519e-06	-5.569252e-10	-1.199666e+01	-3.961952e+01
1.480000e-06	-1.682863e-06	-5.454201e-10	-1.168655e+01	-3.912374e+01
1.490000e-06	-1.638027e-06	-5.355646e-10	-1.137519e+01	-3.861870e+01
1.500000e-06	-1.593117e-06	-5.278928e-10	-1.106331e+01	-3.810439e+01
1.510000e-06	-1.548167e-06	-5.216280e-10	-1.075116e+01	-3.758082e+01
1.520000e-06	-1.503062e-06	-5.149979e-10	-1.043793e+01	-3.704793e+01
1.530000e-06	-1.457761e-06	-5.052955e-10	-1.012334e+01	-3.650567e+01
1.540000e-06	-1.412365e-06	-4.930450e-10	-9.808092e+00	-3.595396e+01
1.550000e-06	-1.366890e-06	-4.801303e-10	-9.492293e+00	-3.539268e+01
1.560000e-06	-1.321329e-06	-4.671396e-10	-9.175897e+00	-3.482169e+01
1.570000e-06	-1.275662e-06	-4.553828e-10	-8.858768e+00	-3.424080e+01
1.580000e-06	-1.229952e-06	-4.468834e-10	-8.541333e+00	-3.364983e+01
1.590000e-06	-1.184205e-06	-4.410011e-10	-8.223648e+00	-3.304851e+01
1.600000e-06	-1.138328e-06	-4.347804e-10	-7.905056e+00	-3.243659e+01
1.610000e-06	-1.092369e-06	-4.282928e-10	-7.585896e+00	-3.181375e+01
1.620000e-06	-1.046399e-06	-4.200902e-10	-7.266658e+00	-3.117966e+01
1.630000e-06	-1.000349e-06	-4.085372e-10	-6.946870e+00	-3.053395e+01
1.640000e-06	-9.541373e-07	-3.949330e-10	-6.625954e+00	-2.987623e+01
1.650000e-06	-9.078452e-07	-3.800800e-10	-6.304481e+00	-2.920609e+01
1.660000e-06	-8.615031e-07	-3.663864e-10	-5.982661e+00	-2.852309e+01
1.670000e-06	-8.150976e-07	-3.560368e-10	-5.660401e+00	-2.782677e+01
1.680000e-06	-7.686407e-07	-3.499566e-10	-5.337783e+00	-2.711666e+01
1.690000e-06	-7.221339e-07	-3.433209e-10	-5.014819e+00	-2.639230e+01
1.700000e-06	-6.755922e-07	-3.351097e-10	-4.691613e+00	-2.565320e+01
1.710000e-06	-6.290059e-07	-3.230288e-10	-4.368097e+00	-2.489888e+01
1.720000e-06	-5.823604e-07	-3.081644e-10	-4.044170e+00	-2.412888e+01
1.730000e-06	-5.356503e-07	-2.932602e-10	-3.719794e+00	-2.334273e+01
1.740000e-06	-4.888988e-07	-2.805721e-10	-3.395131e+00	-2.254001e+01
1.750000e-06	-4.421238e-07	-2.699778e-10	-3.070304e+00	-2.172029e+01
1.760000e-06	-3.953506e-07	-2.607543e-10	-2.745490e+00	-2.088321e+01
1.770000e-06	-3.485380e-07	-2.511861e-10	-2.420403e+00	-2.002840e+01
1.780000e-06	-3.016843e-07	-2.400244e-10	-2.095030e+00	-1.915559e+01
1.790000e-06	-2.548202e-07	-2.258185e-10	-1.769585e+00	-1.826451e+01
1.800000e-06	-2.079653e-07	-2.084404e-10	-1.444203e+00	-1.735498e+01
1.810000e-06	-1.610708e-07	-1.908519e-10	-1.118547e+00	-1.642686e+01
1.820000e-06	-1.141320e-07	-1.744659e-10	-7.925837e-01	-1.548008e+01
1.830000e-06	-6.724473e-08	-1.609389e-10	-4.669773e-01	-1.451465e+01
1.840000e-06	-2.039502e-08	-1.500703e-10	-1.416321e-01	-1.353065e+01
1.850000e-06	2.649641e-08	-1.396114e-10	1.840028e-01	-1.252823e+01
1.860000e-06	7.342203e-08	-1.288800e-10	5.098752e-01	-1.150763e+01
1.870000e-06	1.203182e-07	-1.142373e-10	8.355429e-01	-1.046919e+01
1.880000e-06	1.671570e-07	-9.690636e-11	1.160813e+00	-9.413297e+00
1.890000e-06	2.139394e-07	-7.985940e-11	1.485690e+00	-8.340463e+00
1.900000e-06	2.607714e-07	-6.132661e-11	1.810912e+00	-7.251270e+00
1.910000e-06	3.076664e-07	-4.497781e-11	2.136572e+00	-6.146393e+00
1.920000e-06	3.545355e-07	-3.032403e-11	2.462052e+00	-5.026594e+00
1.930000e-06	4.013677e-07	-1.796184e-11	2.787276e+00	-3.892720e+00
1.940000e-06	4.481457e-07	-7.045082e-12	3.112123e+00	-2.745701e+00
1.950000e-06	4.947573e-07	3.571167e-12	3.435814e+00	-1.586549e+00
1.960000e-06	5.413471e-07	1.835220e-11	3.759355e+00	-4.163496e-01
1.970000e-06	5.879856e-07	3.786362e-11	4.083233e+00	7.637360e-01
1.980000e-06	6.345032e-07	5.891556e-11	4.406273e+00	1.952482e+00
1.990000e-06	6.809853e-07	7.884447e-11	4.729065e+00	3.148600e+00
2.000000e-06	7.274498e-07	9.605334e-11	5.051735e+00	4.350747e+00
2.010000e-06	7.738262e-07	1.109329e-10	5.373794e+00	5.557533e+00
2.020000e-06	8.201600e-07	1.243089e-10	5.695556e+00	6.767524e+00
2.030000e-06	8.664014e-07	1.384604e-10	6.016676e+00	7.979256e+00
2.040000e-06	9.125572e-07	1.542028e-10	6.337203e+00	9.191238e+00
2.050000e-06	9.587274e-07	1.705378e-10	6.657829e+00	1.040196e+01
2.060000e-06	1.004833e-06	1.897687e-10	6.978007e+00	1.160991e+01
2.070000e-06	1.050855e-06	2.116974e-10	7.297604e+00	1.281357e+01
2.080000e-06	1.096844e-06	2.327024e-10	7.616972e+00	1.401143e+01
2.090000e-06	1.142721e-06	2.491877e-10	7.935562e+00	1.520199e+01
2.100000e-06	1.188495e-06	2.601504e-10	8.253439e+00	1.638381e+01
2.110000e-06	1.234190e-06	2.697279e-10	8.570763e+00	1.755544e+01
2.120000e-06	1.279815e-06	2.807279e-10	8.887604e+00	1.871549e+01
2.130000e-06	1.325348e-06	2.959440e-10	9.203808e+00	1.986263e+01
2.140000e-06	1.370730e-06	3.137901e-10	9.518959e+00	2.099559e+01
2.150000e-06	1.416039e-06	3.315921e-10	9.833604e+00	2.211313e+01
2.160000e-06	1.461292e-06	3.482305e-10	1.014786e+01	2.321412e+01
2.170000e-06	1.506427e-06	3.632824e-10	1.046130e+01	2.429749e+01
2.180000e-06	1.551428e-06	3.761628e-10	1.077381e+01	2.536225e+01
2.190000e-06	1.596320e-06	3.878743e-10	1.108556e+01	2.640751e+01
2.200000e-06	1.641079e-06	3.984520e-10	1.139638e+01	2.743244e+01
2.210000e-06	1.685699e-06	4.099176e-10	1.170625e+01	2.843635e+01
2.220000e-06	1.730212e-06	4.251134e-10	1.201536e+01	2.941861e+01
2.230000e-06	1.774625e-06	4.415458e-10	1.232378e+01	3.037870e+01
2.240000e-06	1.818917e-06	4.571096e-10	1.263137e+01	3.131621e+01
2.250000e-06	1.863135e-06	4.712165e-10	1.293844e+01	3.223080e+01
2.260000e-06	1.907292e-06	4.822459e-10	1.324509e+01	3.312225e+01
2.270000e-06	1.951370e-06	4.916684e-10	1.355118e+01	3.399045e+01
2.280000e-06	1.995376e-06	4.998811e-10	1.385678e+01	3.483536e+01
2.290000e-06	2.039298e-06	5.081292e-10	1.416179e+01	3.565704e+01
2.300000e-06	2.083158e-06	5.169469e-10	1.446637e+01	3.645564e+01
2.310000e-06	2.126890e-06	5.270097e-10	1.477007e+01	3.723141e+01
2.320000e-06	2.170443e-06	5.388465e-10	1.507252e+01	3.798465e+01
2.330000e-06	2.213928e-06	5.504562e-10	1.537450e+01	3.871576e+01
2.340000e-06	2.257364e-06	5.610031e-10	1.567614e+01	3.942520e+01
2.350000e-06	2.300534e-06	5.703356e-10	1.597593e+01	4.011350e+01
2.360000e-06	2.343408e-06	5.771800e-10	1.627367e+01	4.078124e+01
2.370000e-06	2.386038e-06	5.828790e-10	1.656971e+01	4.142905e+01
2.380000e-06	2.428353e-06	5.896683e-10	1.686357e+01	4.205760e+01
2.390000e-06	2.470374e-06	5.977455e-10	1.715538e+01	4.266761e+01
2.400000e-06	2.512082e-06	6.078916e-10	1.744501e+01	4.325983e+01
2.410000e-06	2.553498e-06	6.196392e-10	1.773263e+01	4.383500e+01
2.420000e-06	2.594653e-06	6.320778e-10	1.801842e+01	4.439392e+01
2.430000e-06	2.635457e-06	6.417949e-10	1.830178e+01	4.493737e+01
2.440000e-06	2.676047e-06	6.489473e-10	1.858366e+01	4.546613e+01
2.450000e-06	2.716494e-06	6.564097e-10	1.886454e+01	4.598099e+01
2.460000e-06	2.756712e-06	6.631851e-10	1.914383e+01	4.648271e+01
2.470000e-06	2.796806e-06	6.691784e-10	1.942227e+01	4.697205e+01
2.480000e-06	2.836813e-06	6.765397e-10	1.970009e+01	4.744973e+01
2.490000e-06	2.876709e-06	6.840714e-10	1.997714e+01	4.791646e+01
2.500000e-06	2.916446e-06	6.924599e-10	2.025310e+01	4.837289e+01
2.510000e-06	2.956008e-06	7.011673e-10	2.052783e+01	4.881966e+01
2.520000e-06	2.995419e-06	7.085979e-10	2.080152e+01	4.925736e+01
2.530000e-06	3.034647e-06	7.134656e-10	2.107394e+01	4.968653e+01
2.540000e-06	3.073628e-06	7.163255e-10	2.134464e+01	5.010767e+01
2.550000e-06	3.112310e-06	7.196767e-10	2.161327e+01	5.052122e+01
2.560000e-06	3.150745e-06	7.256199e-10	2.188018e+01	5.092759e+01
2.570000e-06	3.188982e-06	7.343591e-10	2.214571e+01	5.132713e+01
2.580000e-06	3.227058e-06	7.421170e-10	2.241012e+01	5.172014e+01
2.590000e-06	3.264968e-06	7.488825e-10	2.267339e+01	5.210686e+01
2.600000e-06	3.302631e-06	7.550775e-10	2.293494e+01	5.248750e+01
2.610000e-06	3.340146e-06	7.609683e-10	2.319546e+01	5.286222e+01
2.620000e-06	3.377448e-06	7.668974e-10	2.345450e+01	5.323111e+01
2.630000e-06	3.414362e-06	7.727295e-10	2.371085e+01	5.359426e+01
2.640000e-06	3.450988e-06	7.785969e-10	2.396519e+01	5.395167e+01
2.650000e-06	3.487406e-06	7.826996e-10	2.421810e+01	5.430335e+01
2.660000e-06	3.523659e-06	7.862670e-10	2.446986e+01	5.464924e+01
2.670000e-06	3.559778e-06	7.920245e-10	2.472068e+01	5.498928e+01
2.680000e-06	3.595726e-06	7.983052e-10	2.497032e+01	5.532335e+01
2.690000e-06	3.631565e-06	8.047452e-10	2.521921e+01	5.565133e+01
2.700000e-06	3.667329e-06	8.124269e-10	2.546756e+01	5.597309e+01
2.710000e-06	3.702945e-06	8.188740e-10	2.571490e+01	5.628847e+01
2.720000e-06	3.738296e-06	8.233201e-10	2.596039e+01	5.659730e+01
2.730000e-06	3.773210e-06	8.285030e-10	2.620285e+01	5.689940e+01
2.740000e-06	3.807616e-06	8.348843e-10	2.644178e+01	5.719462e+01
2.750000e-06	3.841598e-06	8.404811e-10	2.667777e+01	5.748277e+01
2.760000e-06	3.875192e-06	8.450776e-10	2.691105e+01	5.776369e+01
2.770000e-06	3.908314e-06	8.499808e-10	2.714107e+01	5.803723e+01
2.780000e-06	3.941001e-06	8.547348e-10	2.736806e+01	5.830325e+01
2.790000e-06	3.973303e-06	8.594156e-10	2.759238e+01	5.856161e+01
2.800000e-06	4.005372e-06	8.652590e-10	2.781508e+01	5.881221e+01
2.810000e-06	4.037359e-06	8.705579e-10	2.803722e+01	5.905496e+01
2.820000e-06	4.069208e-06	8.739169e-10	2.825839e+01	5.928979e+01
2.830000e-06	4.100819e-06	8.757869e-10	2.847791e+01	5.951666e+01
2.840000e-06	4.132179e-06	8.765103e-10	2.869569e+01	5.973556e+01
2.850000e-06	4.163261e-06	8.782917e-10	2.891154e+01	5.994648e+01
2.860000e-06	4.193962e-06	8.815680e-10	2.912474e+01	6.014947e+01
2.870000e-06	4.224309e-06	8.845778e-10	2.933548e+01	6.034458e+01
2.880000e-06	4.254404e-06	8.875845e-10	2.954447e+01	6.053190e+01
2.890000e-06	4.284220e-06	8.917573e-10	2.975153e+01	6.071155e+01
2.900000e-06	4.313803e-06	8.950538e-10	2.995697e+01	6.088365e+01
