# Temperatura_=_-0.5
# Concentracion g/m^3_=_1620.0
# C_Vs_to_Am_M_A/Vsm_=_65563218390.804596
# pendiente_HvsI_1/m_=_3716.3
# ordenada_HvsI_A/m_=_1297.0
# frecuencia_Hz_=_135089.08074028624

Tiempo_(s)	Campo_(V.s)	Magnetizacion_(V.s)	Campo_(kA/m)	Magnetizacion_(A/m)
0.000000e+00	-5.546225e-06	-1.341864e-09	-3.838261e+01	-8.632761e+01
1.000000e-08	-5.546500e-06	-1.341583e-09	-3.838451e+01	-8.634845e+01
2.000000e-08	-5.546574e-06	-1.342049e-09	-3.838502e+01	-8.636906e+01
3.000000e-08	-5.546285e-06	-1.345580e-09	-3.838302e+01	-8.638933e+01
4.000000e-08	-5.545505e-06	-1.345214e-09	-3.837762e+01	-8.640913e+01
5.000000e-08	-5.544131e-06	-1.341712e-09	-3.836811e+01	-8.642833e+01
6.000000e-08	-5.542179e-06	-1.335170e-09	-3.835461e+01	-8.644676e+01
7.000000e-08	-5.539559e-06	-1.314929e-09	-3.833647e+01	-8.646425e+01
8.000000e-08	-5.536367e-06	-1.308840e-09	-3.831439e+01	-8.648058e+01
9.000000e-08	-5.532812e-06	-1.374763e-09	-3.828978e+01	-8.649556e+01
1.000000e-07	-5.528801e-06	-1.440131e-09	-3.826203e+01	-8.650896e+01
1.100000e-07	-5.524324e-06	-1.374266e-09	-3.823104e+01	-8.652055e+01
1.200000e-07	-5.519646e-06	-1.289636e-09	-3.819866e+01	-8.653009e+01
1.300000e-07	-5.514838e-06	-1.256709e-09	-3.816539e+01	-8.653734e+01
1.400000e-07	-5.509728e-06	-1.388948e-09	-3.813003e+01	-8.654205e+01
1.500000e-07	-5.504198e-06	-1.344122e-09	-3.809176e+01	-8.654398e+01
1.600000e-07	-5.498292e-06	-1.257624e-09	-3.805088e+01	-8.654287e+01
1.700000e-07	-5.492022e-06	-1.269538e-09	-3.800749e+01	-8.653850e+01
1.800000e-07	-5.485165e-06	-1.391587e-09	-3.796004e+01	-8.653063e+01
1.900000e-07	-5.477888e-06	-1.421115e-09	-3.790968e+01	-8.651903e+01
2.000000e-07	-5.470534e-06	-1.313642e-09	-3.785878e+01	-8.650348e+01
2.100000e-07	-5.462994e-06	-1.318391e-09	-3.780661e+01	-8.648379e+01
2.200000e-07	-5.455184e-06	-1.374118e-09	-3.775256e+01	-8.645976e+01
2.300000e-07	-5.447052e-06	-1.399134e-09	-3.769628e+01	-8.643121e+01
2.400000e-07	-5.438496e-06	-1.332011e-09	-3.763707e+01	-8.639800e+01
2.500000e-07	-5.429278e-06	-1.340693e-09	-3.757328e+01	-8.635998e+01
2.600000e-07	-5.419280e-06	-1.351820e-09	-3.750408e+01	-8.631702e+01
2.700000e-07	-5.408585e-06	-1.383136e-09	-3.743007e+01	-8.626902e+01
2.800000e-07	-5.397396e-06	-1.328030e-09	-3.735263e+01	-8.621589e+01
2.900000e-07	-5.385838e-06	-1.337697e-09	-3.727265e+01	-8.615757e+01
3.000000e-07	-5.373858e-06	-1.340576e-09	-3.718974e+01	-8.609401e+01
3.100000e-07	-5.361579e-06	-1.353551e-09	-3.710477e+01	-8.602517e+01
3.200000e-07	-5.348941e-06	-1.299908e-09	-3.701730e+01	-8.595105e+01
3.300000e-07	-5.335886e-06	-1.303245e-09	-3.692696e+01	-8.587165e+01
3.400000e-07	-5.322512e-06	-1.329365e-09	-3.683440e+01	-8.578699e+01
3.500000e-07	-5.308704e-06	-1.336386e-09	-3.673885e+01	-8.569710e+01
3.600000e-07	-5.294372e-06	-1.296227e-09	-3.663966e+01	-8.560204e+01
3.700000e-07	-5.279581e-06	-1.310973e-09	-3.653730e+01	-8.550186e+01
3.800000e-07	-5.264389e-06	-1.324669e-09	-3.643216e+01	-8.539664e+01
3.900000e-07	-5.248663e-06	-1.295024e-09	-3.632333e+01	-8.528647e+01
4.000000e-07	-5.232303e-06	-1.285837e-09	-3.621011e+01	-8.517143e+01
4.100000e-07	-5.215568e-06	-1.328864e-09	-3.609430e+01	-8.505162e+01
4.200000e-07	-5.198602e-06	-1.317695e-09	-3.597688e+01	-8.492715e+01
4.300000e-07	-5.181363e-06	-1.257395e-09	-3.585758e+01	-8.479812e+01
4.400000e-07	-5.163830e-06	-1.303875e-09	-3.573624e+01	-8.466463e+01
4.500000e-07	-5.145916e-06	-1.333131e-09	-3.561227e+01	-8.452680e+01
4.600000e-07	-5.127459e-06	-1.284214e-09	-3.548454e+01	-8.438472e+01
4.700000e-07	-5.108504e-06	-1.248446e-09	-3.535336e+01	-8.423851e+01
4.800000e-07	-5.089209e-06	-1.312901e-09	-3.521983e+01	-8.408827e+01
4.900000e-07	-5.069727e-06	-1.287956e-09	-3.508500e+01	-8.393408e+01
5.000000e-07	-5.050084e-06	-1.258295e-09	-3.494907e+01	-8.377603e+01
5.100000e-07	-5.030256e-06	-1.282859e-09	-3.481184e+01	-8.361421e+01
5.200000e-07	-5.010114e-06	-1.298611e-09	-3.467245e+01	-8.344870e+01
5.300000e-07	-4.989561e-06	-1.233510e-09	-3.453022e+01	-8.327955e+01
5.400000e-07	-4.968590e-06	-1.262399e-09	-3.438508e+01	-8.310683e+01
5.500000e-07	-4.947266e-06	-1.294952e-09	-3.423751e+01	-8.293059e+01
5.600000e-07	-4.925706e-06	-1.256872e-09	-3.408831e+01	-8.275087e+01
5.700000e-07	-4.903821e-06	-1.222332e-09	-3.393685e+01	-8.256770e+01
5.800000e-07	-4.881607e-06	-1.269752e-09	-3.378312e+01	-8.238112e+01
5.900000e-07	-4.859069e-06	-1.250210e-09	-3.362715e+01	-8.219114e+01
6.000000e-07	-4.836146e-06	-1.216021e-09	-3.346851e+01	-8.199776e+01
6.100000e-07	-4.812804e-06	-1.234781e-09	-3.330697e+01	-8.180101e+01
6.200000e-07	-4.789202e-06	-1.248186e-09	-3.314364e+01	-8.160088e+01
6.300000e-07	-4.765485e-06	-1.206364e-09	-3.297950e+01	-8.139738e+01
6.400000e-07	-4.741526e-06	-1.208067e-09	-3.281369e+01	-8.119048e+01
6.500000e-07	-4.717210e-06	-1.225706e-09	-3.264541e+01	-8.098020e+01
6.600000e-07	-4.692452e-06	-1.202694e-09	-3.247408e+01	-8.076651e+01
6.700000e-07	-4.667077e-06	-1.194719e-09	-3.229847e+01	-8.054942e+01
6.800000e-07	-4.641125e-06	-1.215776e-09	-3.211887e+01	-8.032892e+01
6.900000e-07	-4.614715e-06	-1.205997e-09	-3.193609e+01	-8.010500e+01
7.000000e-07	-4.587837e-06	-1.188666e-09	-3.175009e+01	-7.987766e+01
7.100000e-07	-4.560572e-06	-1.204706e-09	-3.156140e+01	-7.964691e+01
7.200000e-07	-4.533050e-06	-1.196923e-09	-3.137093e+01	-7.941276e+01
7.300000e-07	-4.505375e-06	-1.175903e-09	-3.117941e+01	-7.917523e+01
7.400000e-07	-4.477526e-06	-1.175602e-09	-3.098669e+01	-7.893433e+01
7.500000e-07	-4.449435e-06	-1.190739e-09	-3.079228e+01	-7.869010e+01
7.600000e-07	-4.421138e-06	-1.175326e-09	-3.059645e+01	-7.844257e+01
7.700000e-07	-4.392551e-06	-1.177286e-09	-3.039862e+01	-7.819179e+01
7.800000e-07	-4.363528e-06	-1.175027e-09	-3.019776e+01	-7.793781e+01
7.900000e-07	-4.334134e-06	-1.163208e-09	-2.999434e+01	-7.768068e+01
8.000000e-07	-4.304468e-06	-1.153224e-09	-2.978904e+01	-7.742049e+01
8.100000e-07	-4.274557e-06	-1.164319e-09	-2.958204e+01	-7.715730e+01
8.200000e-07	-4.244290e-06	-1.154469e-09	-2.937258e+01	-7.689119e+01
8.300000e-07	-4.213723e-06	-1.152410e-09	-2.916103e+01	-7.662224e+01
8.400000e-07	-4.182929e-06	-1.153845e-09	-2.894793e+01	-7.635055e+01
8.500000e-07	-4.151899e-06	-1.149989e-09	-2.873318e+01	-7.607620e+01
8.600000e-07	-4.120659e-06	-1.132946e-09	-2.851699e+01	-7.579930e+01
8.700000e-07	-4.089177e-06	-1.134404e-09	-2.829912e+01	-7.551993e+01
8.800000e-07	-4.057531e-06	-1.128319e-09	-2.808011e+01	-7.523819e+01
8.900000e-07	-4.025688e-06	-1.117139e-09	-2.785974e+01	-7.495417e+01
9.000000e-07	-3.993564e-06	-1.114117e-09	-2.763742e+01	-7.466795e+01
9.100000e-07	-3.961122e-06	-1.118265e-09	-2.741291e+01	-7.437962e+01
9.200000e-07	-3.928356e-06	-1.106688e-09	-2.718616e+01	-7.408924e+01
9.300000e-07	-3.895189e-06	-1.101506e-09	-2.695662e+01	-7.379689e+01
9.400000e-07	-3.861391e-06	-1.103490e-09	-2.672273e+01	-7.350260e+01
9.500000e-07	-3.827099e-06	-1.097150e-09	-2.648541e+01	-7.320643e+01
9.600000e-07	-3.792465e-06	-1.088432e-09	-2.624572e+01	-7.290839e+01
9.700000e-07	-3.757400e-06	-1.088418e-09	-2.600305e+01	-7.260850e+01
9.800000e-07	-3.722116e-06	-1.086466e-09	-2.575887e+01	-7.230675e+01
9.900000e-07	-3.686682e-06	-1.073827e-09	-2.551365e+01	-7.200311e+01
1.000000e-06	-3.651016e-06	-1.069519e-09	-2.526683e+01	-7.169754e+01
1.010000e-06	-3.615259e-06	-1.066170e-09	-2.501937e+01	-7.138997e+01
1.020000e-06	-3.579399e-06	-1.058795e-09	-2.477120e+01	-7.108033e+01
1.030000e-06	-3.543330e-06	-1.052749e-09	-2.452158e+01	-7.076850e+01
1.040000e-06	-3.507015e-06	-1.053943e-09	-2.427027e+01	-7.045435e+01
1.050000e-06	-3.470440e-06	-1.043134e-09	-2.401715e+01	-7.013775e+01
1.060000e-06	-3.433582e-06	-1.030785e-09	-2.376208e+01	-6.981851e+01
1.070000e-06	-3.396363e-06	-1.021185e-09	-2.350450e+01	-6.949646e+01
1.080000e-06	-3.358955e-06	-1.016430e-09	-2.324562e+01	-6.917139e+01
1.090000e-06	-3.321390e-06	-1.007168e-09	-2.298565e+01	-6.884305e+01
1.100000e-06	-3.283591e-06	-1.007018e-09	-2.272407e+01	-6.851122e+01
1.110000e-06	-3.245532e-06	-1.003740e-09	-2.246068e+01	-6.817563e+01
1.120000e-06	-3.207189e-06	-9.956933e-10	-2.219533e+01	-6.783600e+01
1.130000e-06	-3.168707e-06	-9.875651e-10	-2.192901e+01	-6.749204e+01
1.140000e-06	-3.129992e-06	-9.838401e-10	-2.166108e+01	-6.714346e+01
1.150000e-06	-3.091123e-06	-9.726440e-10	-2.139209e+01	-6.678993e+01
1.160000e-06	-3.052044e-06	-9.645486e-10	-2.112165e+01	-6.643115e+01
1.170000e-06	-3.012692e-06	-9.584415e-10	-2.084931e+01	-6.606679e+01
1.180000e-06	-2.973236e-06	-9.525066e-10	-2.057625e+01	-6.569653e+01
1.190000e-06	-2.933663e-06	-9.434082e-10	-2.030239e+01	-6.532003e+01
1.200000e-06	-2.893963e-06	-9.394209e-10	-2.002765e+01	-6.493698e+01
1.210000e-06	-2.854190e-06	-9.362538e-10	-1.975240e+01	-6.454704e+01
1.220000e-06	-2.814268e-06	-9.290772e-10	-1.947612e+01	-6.414991e+01
1.230000e-06	-2.774068e-06	-9.210007e-10	-1.919792e+01	-6.374528e+01
1.240000e-06	-2.733536e-06	-9.141797e-10	-1.891741e+01	-6.333284e+01
1.250000e-06	-2.692762e-06	-9.062732e-10	-1.863524e+01	-6.291232e+01
1.260000e-06	-2.651920e-06	-8.969273e-10	-1.835259e+01	-6.248343e+01
1.270000e-06	-2.610734e-06	-8.933605e-10	-1.806757e+01	-6.204592e+01
1.280000e-06	-2.569102e-06	-8.901210e-10	-1.777945e+01	-6.159954e+01
1.290000e-06	-2.527158e-06	-8.836408e-10	-1.748918e+01	-6.114408e+01
1.300000e-06	-2.484913e-06	-8.748329e-10	-1.719682e+01	-6.067930e+01
1.310000e-06	-2.442394e-06	-8.670317e-10	-1.690257e+01	-6.020504e+01
1.320000e-06	-2.399598e-06	-8.602949e-10	-1.660640e+01	-5.972111e+01
1.330000e-06	-2.356498e-06	-8.546164e-10	-1.630813e+01	-5.922735e+01
1.340000e-06	-2.313237e-06	-8.532964e-10	-1.600874e+01	-5.872364e+01
1.350000e-06	-2.269915e-06	-8.491345e-10	-1.570893e+01	-5.820984e+01
1.360000e-06	-2.226460e-06	-8.389333e-10	-1.540820e+01	-5.768586e+01
1.370000e-06	-2.182896e-06	-8.296484e-10	-1.510671e+01	-5.715160e+01
1.380000e-06	-2.139263e-06	-8.184586e-10	-1.480475e+01	-5.660699e+01
1.390000e-06	-2.095513e-06	-8.086400e-10	-1.450198e+01	-5.605197e+01
1.400000e-06	-2.051670e-06	-7.980661e-10	-1.419857e+01	-5.548647e+01
1.410000e-06	-2.007817e-06	-7.930534e-10	-1.389508e+01	-5.491046e+01
1.420000e-06	-1.963899e-06	-7.881518e-10	-1.359115e+01	-5.432390e+01
1.430000e-06	-1.919839e-06	-7.818322e-10	-1.328623e+01	-5.372674e+01
1.440000e-06	-1.875646e-06	-7.738313e-10	-1.298039e+01	-5.311895e+01
1.450000e-06	-1.831241e-06	-7.645314e-10	-1.267309e+01	-5.250049e+01
1.460000e-06	-1.786686e-06	-7.501676e-10	-1.236474e+01	-5.187133e+01
1.470000e-06	-1.742093e-06	-7.353183e-10	-1.205614e+01	-5.123141e+01
1.480000e-06	-1.697300e-06	-7.229787e-10	-1.174615e+01	-5.058067e+01
1.490000e-06	-1.652331e-06	-7.133435e-10	-1.143494e+01	-4.991905e+01
1.500000e-06	-1.607266e-06	-7.054650e-10	-1.112307e+01	-4.924646e+01
1.510000e-06	-1.562091e-06	-6.979891e-10	-1.081044e+01	-4.856281e+01
1.520000e-06	-1.516802e-06	-6.861157e-10	-1.049702e+01	-4.786797e+01
1.530000e-06	-1.471390e-06	-6.699296e-10	-1.018274e+01	-4.716181e+01
1.540000e-06	-1.425883e-06	-6.536823e-10	-9.867812e+00	-4.644417e+01
1.550000e-06	-1.380275e-06	-6.405408e-10	-9.552185e+00	-4.571487e+01
1.560000e-06	-1.334488e-06	-6.285294e-10	-9.235317e+00	-4.497371e+01
1.570000e-06	-1.288707e-06	-6.172773e-10	-8.918486e+00	-4.422045e+01
1.580000e-06	-1.242895e-06	-6.063242e-10	-8.601442e+00	-4.345484e+01
1.590000e-06	-1.196927e-06	-5.954298e-10	-8.283322e+00	-4.267661e+01
1.600000e-06	-1.150925e-06	-5.821925e-10	-7.964968e+00	-4.188547e+01
1.610000e-06	-1.104885e-06	-5.662756e-10	-7.646349e+00	-4.108108e+01
1.620000e-06	-1.058712e-06	-5.503014e-10	-7.326811e+00	-4.026311e+01
1.630000e-06	-1.012380e-06	-5.385512e-10	-7.006165e+00	-3.943119e+01
1.640000e-06	-9.659933e-07	-5.269347e-10	-6.685149e+00	-3.858496e+01
1.650000e-06	-9.196181e-07	-5.102742e-10	-6.364210e+00	-3.772402e+01
1.660000e-06	-8.732233e-07	-4.943813e-10	-6.043135e+00	-3.684798e+01
1.670000e-06	-8.266615e-07	-4.770142e-10	-5.720904e+00	-3.595641e+01
1.680000e-06	-7.801036e-07	-4.616340e-10	-5.398701e+00	-3.504893e+01
1.690000e-06	-7.335789e-07	-4.476542e-10	-5.076727e+00	-3.412511e+01
1.700000e-06	-6.869664e-07	-4.366596e-10	-4.754146e+00	-3.318455e+01
1.710000e-06	-6.403126e-07	-4.229037e-10	-4.431278e+00	-3.222687e+01
1.720000e-06	-5.935475e-07	-4.073878e-10	-4.107641e+00	-3.125167e+01
1.730000e-06	-5.467307e-07	-3.904127e-10	-3.783645e+00	-3.025861e+01
1.740000e-06	-4.999126e-07	-3.728285e-10	-3.459641e+00	-2.924734e+01
1.750000e-06	-4.530312e-07	-3.554416e-10	-3.135198e+00	-2.821758e+01
1.760000e-06	-4.060683e-07	-3.393723e-10	-2.810193e+00	-2.716904e+01
1.770000e-06	-3.589831e-07	-3.238615e-10	-2.484340e+00	-2.610150e+01
1.780000e-06	-3.118361e-07	-3.109771e-10	-2.158059e+00	-2.501478e+01
1.790000e-06	-2.647192e-07	-2.980195e-10	-1.831987e+00	-2.390875e+01
1.800000e-06	-2.176020e-07	-2.793389e-10	-1.505913e+00	-2.278334e+01
1.810000e-06	-1.705064e-07	-2.585168e-10	-1.179988e+00	-2.163852e+01
1.820000e-06	-1.234403e-07	-2.383776e-10	-8.542674e-01	-2.047435e+01
1.830000e-06	-7.637180e-08	-2.201993e-10	-5.285304e-01	-1.929093e+01
1.840000e-06	-2.921362e-08	-2.045673e-10	-2.021726e-01	-1.808847e+01
1.850000e-06	1.798812e-08	-1.901813e-10	1.244866e-01	-1.686721e+01
1.860000e-06	6.506069e-08	-1.768670e-10	4.502520e-01	-1.562748e+01
1.870000e-06	1.120967e-07	-1.623349e-10	7.757640e-01	-1.436972e+01
1.880000e-06	1.591044e-07	-1.453770e-10	1.101081e+00	-1.309440e+01
1.890000e-06	2.060920e-07	-1.256103e-10	1.426258e+00	-1.180210e+01
1.900000e-06	2.531830e-07	-1.035955e-10	1.752151e+00	-1.049347e+01
1.910000e-06	3.003716e-07	-8.351009e-11	2.078719e+00	-9.169252e+00
1.920000e-06	3.474755e-07	-6.650845e-11	2.404702e+00	-7.830243e+00
1.930000e-06	3.944420e-07	-5.039492e-11	2.729733e+00	-6.477335e+00
1.940000e-06	4.414079e-07	-3.274856e-11	3.054760e+00	-5.111489e+00
1.950000e-06	4.883242e-07	-1.749781e-11	3.379444e+00	-3.733736e+00
1.960000e-06	5.351810e-07	-1.159970e-12	3.703716e+00	-2.345175e+00
1.970000e-06	5.819422e-07	1.623766e-11	4.027326e+00	-9.469684e-01
1.980000e-06	6.286928e-07	3.628443e-11	4.350863e+00	4.596635e-01
1.990000e-06	6.754739e-07	5.783340e-11	4.674611e+00	1.873447e+00
2.000000e-06	7.221299e-07	7.935719e-11	4.997494e+00	3.293063e+00
2.010000e-06	7.686507e-07	9.927300e-11	5.319441e+00	4.717148e+00
2.020000e-06	8.151454e-07	1.158841e-10	5.641207e+00	6.144308e+00
2.030000e-06	8.616114e-07	1.309455e-10	5.962775e+00	7.573119e+00
2.040000e-06	9.080083e-07	1.481221e-10	6.283864e+00	9.002139e+00
2.050000e-06	9.544073e-07	1.669806e-10	6.604968e+00	1.042991e+01
2.060000e-06	1.000734e-06	1.873199e-10	6.925570e+00	1.185498e+01
2.070000e-06	1.046890e-06	2.085276e-10	7.244991e+00	1.327588e+01
2.080000e-06	1.092888e-06	2.302633e-10	7.563323e+00	1.469117e+01
2.090000e-06	1.138823e-06	2.508024e-10	7.881219e+00	1.609943e+01
2.100000e-06	1.184688e-06	2.693982e-10	8.198623e+00	1.749924e+01
2.110000e-06	1.230492e-06	2.869333e-10	8.515609e+00	1.888924e+01
2.120000e-06	1.276310e-06	3.040084e-10	8.832690e+00	2.026811e+01
2.130000e-06	1.322046e-06	3.224351e-10	9.149206e+00	2.163457e+01
2.140000e-06	1.367609e-06	3.413898e-10	9.464528e+00	2.298739e+01
2.150000e-06	1.413086e-06	3.600621e-10	9.779250e+00	2.432540e+01
2.160000e-06	1.458469e-06	3.786883e-10	1.009332e+01	2.564751e+01
2.170000e-06	1.503719e-06	3.992424e-10	1.040648e+01	2.695270e+01
2.180000e-06	1.548969e-06	4.190720e-10	1.071963e+01	2.824001e+01
2.190000e-06	1.594112e-06	4.359332e-10	1.103204e+01	2.950857e+01
2.200000e-06	1.639073e-06	4.522734e-10	1.134319e+01	3.075761e+01
2.210000e-06	1.683869e-06	4.688285e-10	1.165320e+01	3.198642e+01
2.220000e-06	1.728561e-06	4.846062e-10	1.196249e+01	3.319439e+01
2.230000e-06	1.773093e-06	5.010335e-10	1.227068e+01	3.438101e+01
2.240000e-06	1.817540e-06	5.160624e-10	1.257827e+01	3.554584e+01
2.250000e-06	1.861957e-06	5.313963e-10	1.288566e+01	3.668855e+01
2.260000e-06	1.906188e-06	5.472402e-10	1.319176e+01	3.780890e+01
2.270000e-06	1.950231e-06	5.636994e-10	1.349656e+01	3.890672e+01
2.280000e-06	1.994078e-06	5.777149e-10	1.380000e+01	3.998194e+01
2.290000e-06	2.037826e-06	5.904640e-10	1.410276e+01	4.103459e+01
2.300000e-06	2.081494e-06	6.047363e-10	1.440496e+01	4.206475e+01
2.310000e-06	2.125116e-06	6.202866e-10	1.470684e+01	4.307260e+01
2.320000e-06	2.168723e-06	6.366044e-10	1.500863e+01	4.405838e+01
2.330000e-06	2.212278e-06	6.521186e-10	1.531005e+01	4.502240e+01
2.340000e-06	2.255745e-06	6.651144e-10	1.561087e+01	4.596505e+01
2.350000e-06	2.299170e-06	6.768221e-10	1.591139e+01	4.688676e+01
2.360000e-06	2.342415e-06	6.866596e-10	1.621067e+01	4.778800e+01
2.370000e-06	2.385391e-06	6.966512e-10	1.650808e+01	4.866932e+01
2.380000e-06	2.428172e-06	7.078652e-10	1.680414e+01	4.953127e+01
2.390000e-06	2.470662e-06	7.223073e-10	1.709820e+01	5.037446e+01
2.400000e-06	2.512834e-06	7.394461e-10	1.739005e+01	5.119951e+01
2.410000e-06	2.554816e-06	7.539234e-10	1.768058e+01	5.200707e+01
2.420000e-06	2.596516e-06	7.690326e-10	1.796917e+01	5.279779e+01
2.430000e-06	2.637903e-06	7.800462e-10	1.825559e+01	5.357233e+01
2.440000e-06	2.678948e-06	7.877989e-10	1.853964e+01	5.433136e+01
2.450000e-06	2.719584e-06	7.986801e-10	1.882086e+01	5.507551e+01
2.460000e-06	2.759922e-06	8.102793e-10	1.910002e+01	5.580545e+01
2.470000e-06	2.800036e-06	8.230182e-10	1.937763e+01	5.652178e+01
2.480000e-06	2.840007e-06	8.331049e-10	1.965425e+01	5.722510e+01
2.490000e-06	2.879809e-06	8.399547e-10	1.992969e+01	5.791599e+01
2.500000e-06	2.919527e-06	8.470486e-10	2.020456e+01	5.859498e+01
2.510000e-06	2.959147e-06	8.587213e-10	2.047875e+01	5.926258e+01
2.520000e-06	2.998619e-06	8.712710e-10	2.075192e+01	5.991925e+01
2.530000e-06	3.037986e-06	8.828838e-10	2.102436e+01	6.056541e+01
2.540000e-06	3.077112e-06	8.946142e-10	2.129513e+01	6.120145e+01
2.550000e-06	3.116018e-06	8.995372e-10	2.156438e+01	6.182768e+01
2.560000e-06	3.154744e-06	9.029906e-10	2.183238e+01	6.244441e+01
2.570000e-06	3.193237e-06	9.066749e-10	2.209877e+01	6.305188e+01
2.580000e-06	3.231468e-06	9.132684e-10	2.236335e+01	6.365027e+01
2.590000e-06	3.269369e-06	9.222486e-10	2.262564e+01	6.423974e+01
2.600000e-06	3.307027e-06	9.332821e-10	2.288625e+01	6.482040e+01
2.610000e-06	3.344499e-06	9.455581e-10	2.314558e+01	6.539230e+01
2.620000e-06	3.381829e-06	9.577069e-10	2.340392e+01	6.595548e+01
2.630000e-06	3.418953e-06	9.680071e-10	2.366084e+01	6.650992e+01
2.640000e-06	3.455798e-06	9.704699e-10	2.391582e+01	6.705556e+01
2.650000e-06	3.492376e-06	9.691934e-10	2.416896e+01	6.759234e+01
2.660000e-06	3.528738e-06	9.723191e-10	2.442060e+01	6.812015e+01
2.670000e-06	3.564960e-06	9.762135e-10	2.467128e+01	6.863885e+01
2.680000e-06	3.600945e-06	9.838001e-10	2.492031e+01	6.914830e+01
2.690000e-06	3.636681e-06	9.954304e-10	2.516762e+01	6.964834e+01
2.700000e-06	3.672291e-06	1.008937e-09	2.541406e+01	7.013879e+01
2.710000e-06	3.707728e-06	1.020391e-09	2.565930e+01	7.061946e+01
2.720000e-06	3.743069e-06	1.027266e-09	2.590388e+01	7.109018e+01
2.730000e-06	3.778272e-06	1.031892e-09	2.614750e+01	7.155076e+01
2.740000e-06	3.813118e-06	1.032515e-09	2.638865e+01	7.200104e+01
2.750000e-06	3.847566e-06	1.030427e-09	2.662705e+01	7.244084e+01
2.760000e-06	3.881415e-06	1.031286e-09	2.686130e+01	7.287003e+01
2.770000e-06	3.914705e-06	1.039650e-09	2.709169e+01	7.328846e+01
2.780000e-06	3.947638e-06	1.054481e-09	2.731960e+01	7.369603e+01
2.790000e-06	3.980224e-06	1.068788e-09	2.754511e+01	7.409264e+01
2.800000e-06	4.012388e-06	1.078363e-09	2.776770e+01	7.447825e+01
2.810000e-06	4.044282e-06	1.083533e-09	2.798842e+01	7.485282e+01
2.820000e-06	4.076035e-06	1.082330e-09	2.820817e+01	7.521634e+01
2.830000e-06	4.107630e-06	1.078241e-09	2.842682e+01	7.556886e+01
2.840000e-06	4.139083e-06	1.075101e-09	2.864449e+01	7.591043e+01
2.850000e-06	4.170314e-06	1.077782e-09	2.886062e+01	7.624115e+01
2.860000e-06	4.201336e-06	1.087774e-09	2.907531e+01	7.656116e+01
2.870000e-06	4.232005e-06	1.098995e-09	2.928756e+01	7.687061e+01
2.880000e-06	4.262235e-06	1.107132e-09	2.949677e+01	7.716971e+01
2.890000e-06	4.292166e-06	1.114137e-09	2.970390e+01	7.745868e+01
2.900000e-06	4.321822e-06	1.117740e-09	2.990913e+01	7.773777e+01
