# Temperatura_=_-0.24
# Concentracion g/m^3_=_1620.0
# C_Vs_to_Am_M_A/Vsm_=_65563218390.804596
# pendiente_HvsI_1/m_=_3716.3
# ordenada_HvsI_A/m_=_1297.0
# frecuencia_Hz_=_135106.74822197304

Tiempo_(s)	Campo_(V.s)	Magnetizacion_(V.s)	Campo_(kA/m)	Magnetizacion_(A/m)
0.000000e+00	-5.517119e-06	-9.567553e-10	-3.836463e+01	-6.328654e+01
1.000000e-08	-5.517393e-06	-9.563049e-10	-3.836653e+01	-6.332591e+01
2.000000e-08	-5.517391e-06	-9.580641e-10	-3.836652e+01	-6.336730e+01
3.000000e-08	-5.516977e-06	-9.608147e-10	-3.836364e+01	-6.341054e+01
4.000000e-08	-5.516101e-06	-9.605143e-10	-3.835755e+01	-6.345542e+01
5.000000e-08	-5.514626e-06	-9.559103e-10	-3.834729e+01	-6.350174e+01
6.000000e-08	-5.512570e-06	-9.462580e-10	-3.833300e+01	-6.354922e+01
7.000000e-08	-5.510040e-06	-9.378396e-10	-3.831541e+01	-6.359759e+01
8.000000e-08	-5.507037e-06	-9.591085e-10	-3.829453e+01	-6.364655e+01
9.000000e-08	-5.503521e-06	-9.840144e-10	-3.827007e+01	-6.369577e+01
1.000000e-07	-5.499485e-06	-9.418768e-10	-3.824200e+01	-6.374491e+01
1.100000e-07	-5.495109e-06	-8.961379e-10	-3.821158e+01	-6.379361e+01
1.200000e-07	-5.490555e-06	-9.288051e-10	-3.817991e+01	-6.384151e+01
1.300000e-07	-5.485763e-06	-9.777616e-10	-3.814659e+01	-6.388824e+01
1.400000e-07	-5.480652e-06	-9.499113e-10	-3.811105e+01	-6.393341e+01
1.500000e-07	-5.475171e-06	-8.694786e-10	-3.807293e+01	-6.397665e+01
1.600000e-07	-5.469313e-06	-9.052728e-10	-3.803220e+01	-6.401757e+01
1.700000e-07	-5.463018e-06	-9.787340e-10	-3.798842e+01	-6.405581e+01
1.800000e-07	-5.456279e-06	-9.832019e-10	-3.794156e+01	-6.409100e+01
1.900000e-07	-5.449154e-06	-9.043501e-10	-3.789202e+01	-6.412279e+01
2.000000e-07	-5.441745e-06	-9.168389e-10	-3.784050e+01	-6.415084e+01
2.100000e-07	-5.434091e-06	-9.789977e-10	-3.778728e+01	-6.417484e+01
2.200000e-07	-5.426175e-06	-1.001486e-09	-3.773223e+01	-6.419448e+01
2.300000e-07	-5.418048e-06	-9.566260e-10	-3.767572e+01	-6.420950e+01
2.400000e-07	-5.409441e-06	-9.533553e-10	-3.761587e+01	-6.421964e+01
2.500000e-07	-5.400128e-06	-1.000121e-09	-3.755111e+01	-6.422468e+01
2.600000e-07	-5.390220e-06	-1.003995e-09	-3.748221e+01	-6.422442e+01
2.700000e-07	-5.379686e-06	-9.710320e-10	-3.740896e+01	-6.421870e+01
2.800000e-07	-5.368556e-06	-9.589647e-10	-3.733156e+01	-6.420738e+01
2.900000e-07	-5.357036e-06	-9.992417e-10	-3.725146e+01	-6.419034e+01
3.000000e-07	-5.345247e-06	-9.979731e-10	-3.716948e+01	-6.416753e+01
3.100000e-07	-5.333103e-06	-9.621125e-10	-3.708503e+01	-6.413889e+01
3.200000e-07	-5.320452e-06	-9.496536e-10	-3.699706e+01	-6.410440e+01
3.300000e-07	-5.307428e-06	-9.984923e-10	-3.690650e+01	-6.406409e+01
3.400000e-07	-5.294084e-06	-9.902213e-10	-3.681370e+01	-6.401799e+01
3.500000e-07	-5.280374e-06	-9.529159e-10	-3.671837e+01	-6.396618e+01
3.600000e-07	-5.266276e-06	-9.531806e-10	-3.662033e+01	-6.390876e+01
3.700000e-07	-5.251635e-06	-9.969433e-10	-3.651853e+01	-6.384583e+01
3.800000e-07	-5.236391e-06	-9.685575e-10	-3.641252e+01	-6.377755e+01
3.900000e-07	-5.220590e-06	-9.505038e-10	-3.630264e+01	-6.370408e+01
4.000000e-07	-5.204446e-06	-9.761681e-10	-3.619038e+01	-6.362559e+01
4.100000e-07	-5.188014e-06	-9.744882e-10	-3.607612e+01	-6.354229e+01
4.200000e-07	-5.171156e-06	-9.275659e-10	-3.595889e+01	-6.345437e+01
4.300000e-07	-5.153957e-06	-9.612718e-10	-3.583929e+01	-6.336205e+01
4.400000e-07	-5.136395e-06	-1.000079e-09	-3.571717e+01	-6.326557e+01
4.500000e-07	-5.118427e-06	-9.537788e-10	-3.559223e+01	-6.316514e+01
4.600000e-07	-5.100065e-06	-9.317567e-10	-3.546454e+01	-6.306101e+01
4.700000e-07	-5.081295e-06	-9.833979e-10	-3.533402e+01	-6.295339e+01
4.800000e-07	-5.062128e-06	-9.702658e-10	-3.520074e+01	-6.284253e+01
4.900000e-07	-5.042660e-06	-9.261963e-10	-3.506536e+01	-6.272864e+01
5.000000e-07	-5.023010e-06	-9.594714e-10	-3.492872e+01	-6.261194e+01
5.100000e-07	-5.003141e-06	-9.663608e-10	-3.479056e+01	-6.249265e+01
5.200000e-07	-4.982988e-06	-9.172851e-10	-3.465042e+01	-6.237095e+01
5.300000e-07	-4.962534e-06	-9.413473e-10	-3.450819e+01	-6.224703e+01
5.400000e-07	-4.941695e-06	-9.863380e-10	-3.436328e+01	-6.212107e+01
5.500000e-07	-4.920413e-06	-9.355441e-10	-3.421529e+01	-6.199321e+01
5.600000e-07	-4.898764e-06	-9.160693e-10	-3.406475e+01	-6.186361e+01
5.700000e-07	-4.876764e-06	-9.602192e-10	-3.391177e+01	-6.173239e+01
5.800000e-07	-4.854452e-06	-9.447706e-10	-3.375661e+01	-6.159965e+01
5.900000e-07	-4.831812e-06	-9.036745e-10	-3.359918e+01	-6.146549e+01
6.000000e-07	-4.808846e-06	-9.325387e-10	-3.343948e+01	-6.132998e+01
6.100000e-07	-4.785604e-06	-9.336483e-10	-3.327787e+01	-6.119317e+01
6.200000e-07	-4.762074e-06	-9.011217e-10	-3.311424e+01	-6.105512e+01
6.300000e-07	-4.738330e-06	-9.106998e-10	-3.294913e+01	-6.091583e+01
6.400000e-07	-4.714347e-06	-9.272188e-10	-3.278236e+01	-6.077534e+01
6.500000e-07	-4.689996e-06	-9.032792e-10	-3.261303e+01	-6.063363e+01
6.600000e-07	-4.665291e-06	-9.106000e-10	-3.244124e+01	-6.049068e+01
6.700000e-07	-4.640151e-06	-9.209044e-10	-3.226642e+01	-6.034648e+01
6.800000e-07	-4.614371e-06	-8.984978e-10	-3.208715e+01	-6.020098e+01
6.900000e-07	-4.588002e-06	-8.911324e-10	-3.190379e+01	-6.005415e+01
7.000000e-07	-4.561215e-06	-9.067320e-10	-3.171752e+01	-5.990593e+01
7.100000e-07	-4.534019e-06	-8.888145e-10	-3.152841e+01	-5.975626e+01
7.200000e-07	-4.506569e-06	-8.800263e-10	-3.133752e+01	-5.960509e+01
7.300000e-07	-4.479003e-06	-8.951405e-10	-3.114584e+01	-5.945234e+01
7.400000e-07	-4.451223e-06	-8.923361e-10	-3.095267e+01	-5.929797e+01
7.500000e-07	-4.423132e-06	-8.838632e-10	-3.075732e+01	-5.914191e+01
7.600000e-07	-4.394796e-06	-8.945317e-10	-3.056028e+01	-5.898409e+01
7.700000e-07	-4.366223e-06	-8.882043e-10	-3.036160e+01	-5.882447e+01
7.800000e-07	-4.337298e-06	-8.737038e-10	-3.016046e+01	-5.866298e+01
7.900000e-07	-4.307983e-06	-8.803992e-10	-2.995661e+01	-5.849958e+01
8.000000e-07	-4.278400e-06	-8.785917e-10	-2.975089e+01	-5.833423e+01
8.100000e-07	-4.248587e-06	-8.604859e-10	-2.954358e+01	-5.816688e+01
8.200000e-07	-4.218429e-06	-8.638915e-10	-2.933387e+01	-5.799752e+01
8.300000e-07	-4.187960e-06	-8.756128e-10	-2.912200e+01	-5.782613e+01
8.400000e-07	-4.157200e-06	-8.617798e-10	-2.890810e+01	-5.765268e+01
8.500000e-07	-4.126172e-06	-8.548982e-10	-2.869234e+01	-5.747717e+01
8.600000e-07	-4.094897e-06	-8.623019e-10	-2.847487e+01	-5.729960e+01
8.700000e-07	-4.063406e-06	-8.563901e-10	-2.825588e+01	-5.711998e+01
8.800000e-07	-4.031748e-06	-8.437982e-10	-2.803574e+01	-5.693831e+01
8.900000e-07	-3.999899e-06	-8.488441e-10	-2.781427e+01	-5.675462e+01
9.000000e-07	-3.967907e-06	-8.443140e-10	-2.759181e+01	-5.656892e+01
9.100000e-07	-3.935686e-06	-8.302911e-10	-2.736775e+01	-5.638124e+01
9.200000e-07	-3.903082e-06	-8.301673e-10	-2.714103e+01	-5.619160e+01
9.300000e-07	-3.870065e-06	-8.373667e-10	-2.691144e+01	-5.600003e+01
9.400000e-07	-3.836459e-06	-8.303528e-10	-2.667775e+01	-5.580655e+01
9.500000e-07	-3.802285e-06	-8.312962e-10	-2.644012e+01	-5.561118e+01
9.600000e-07	-3.767751e-06	-8.374408e-10	-2.619998e+01	-5.541394e+01
9.700000e-07	-3.732914e-06	-8.312373e-10	-2.595773e+01	-5.521484e+01
9.800000e-07	-3.697781e-06	-8.199870e-10	-2.571342e+01	-5.501390e+01
9.900000e-07	-3.662407e-06	-8.205218e-10	-2.546744e+01	-5.481109e+01
1.000000e-06	-3.626893e-06	-8.147880e-10	-2.522048e+01	-5.460643e+01
1.010000e-06	-3.591245e-06	-8.017312e-10	-2.497260e+01	-5.439987e+01
1.020000e-06	-3.555475e-06	-7.987336e-10	-2.472386e+01	-5.419140e+01
1.030000e-06	-3.519562e-06	-8.028718e-10	-2.447413e+01	-5.398096e+01
1.040000e-06	-3.483426e-06	-7.991638e-10	-2.422285e+01	-5.376850e+01
1.050000e-06	-3.447006e-06	-7.962041e-10	-2.396959e+01	-5.355394e+01
1.060000e-06	-3.410314e-06	-7.929989e-10	-2.371445e+01	-5.333719e+01
1.070000e-06	-3.373356e-06	-7.822544e-10	-2.345745e+01	-5.311815e+01
1.080000e-06	-3.336123e-06	-7.739072e-10	-2.319855e+01	-5.289670e+01
1.090000e-06	-3.298717e-06	-7.737228e-10	-2.293843e+01	-5.267272e+01
1.100000e-06	-3.261093e-06	-7.707248e-10	-2.267681e+01	-5.244604e+01
1.110000e-06	-3.223203e-06	-7.634780e-10	-2.241333e+01	-5.221652e+01
1.120000e-06	-3.185097e-06	-7.615910e-10	-2.214835e+01	-5.198397e+01
1.130000e-06	-3.146755e-06	-7.598258e-10	-2.188172e+01	-5.174820e+01
1.140000e-06	-3.108185e-06	-7.559935e-10	-2.161352e+01	-5.150902e+01
1.150000e-06	-3.069405e-06	-7.520007e-10	-2.134385e+01	-5.126621e+01
1.160000e-06	-3.030439e-06	-7.483178e-10	-2.107289e+01	-5.101954e+01
1.170000e-06	-2.991297e-06	-7.425739e-10	-2.080071e+01	-5.076879e+01
1.180000e-06	-2.951976e-06	-7.388812e-10	-2.052728e+01	-5.051373e+01
1.190000e-06	-2.912517e-06	-7.355478e-10	-2.025290e+01	-5.025410e+01
1.200000e-06	-2.872904e-06	-7.321364e-10	-1.997743e+01	-4.998966e+01
1.210000e-06	-2.833172e-06	-7.279774e-10	-1.970115e+01	-4.972016e+01
1.220000e-06	-2.793354e-06	-7.263054e-10	-1.942426e+01	-4.944535e+01
1.230000e-06	-2.753334e-06	-7.237361e-10	-1.914598e+01	-4.916498e+01
1.240000e-06	-2.713060e-06	-7.199362e-10	-1.886592e+01	-4.887882e+01
1.250000e-06	-2.672588e-06	-7.152301e-10	-1.858449e+01	-4.858661e+01
1.260000e-06	-2.631922e-06	-7.126655e-10	-1.830171e+01	-4.828812e+01
1.270000e-06	-2.590966e-06	-7.102588e-10	-1.801691e+01	-4.798313e+01
1.280000e-06	-2.549669e-06	-7.071352e-10	-1.772974e+01	-4.767141e+01
1.290000e-06	-2.508022e-06	-7.009721e-10	-1.744014e+01	-4.735275e+01
1.300000e-06	-2.466093e-06	-6.934952e-10	-1.714858e+01	-4.702696e+01
1.310000e-06	-2.423931e-06	-6.870361e-10	-1.685540e+01	-4.669385e+01
1.320000e-06	-2.381556e-06	-6.827182e-10	-1.656073e+01	-4.635324e+01
1.330000e-06	-2.338930e-06	-6.780474e-10	-1.626432e+01	-4.600497e+01
1.340000e-06	-2.295996e-06	-6.777001e-10	-1.596577e+01	-4.564889e+01
1.350000e-06	-2.252810e-06	-6.783312e-10	-1.566546e+01	-4.528486e+01
1.360000e-06	-2.209421e-06	-6.738970e-10	-1.536375e+01	-4.491275e+01
1.370000e-06	-2.165908e-06	-6.667236e-10	-1.506117e+01	-4.453244e+01
1.380000e-06	-2.122342e-06	-6.598998e-10	-1.475822e+01	-4.414384e+01
1.390000e-06	-2.078704e-06	-6.528425e-10	-1.445477e+01	-4.374684e+01
1.400000e-06	-2.035011e-06	-6.443948e-10	-1.415095e+01	-4.334137e+01
1.410000e-06	-1.991252e-06	-6.374421e-10	-1.384665e+01	-4.292733e+01
1.420000e-06	-1.947381e-06	-6.306832e-10	-1.354159e+01	-4.250467e+01
1.430000e-06	-1.903459e-06	-6.236145e-10	-1.323617e+01	-4.207330e+01
1.440000e-06	-1.859440e-06	-6.160020e-10	-1.293007e+01	-4.163316e+01
1.450000e-06	-1.815315e-06	-6.078830e-10	-1.262324e+01	-4.118419e+01
1.460000e-06	-1.771069e-06	-5.986486e-10	-1.231556e+01	-4.072631e+01
1.470000e-06	-1.726594e-06	-5.895786e-10	-1.200629e+01	-4.025946e+01
1.480000e-06	-1.681979e-06	-5.799841e-10	-1.169605e+01	-3.978355e+01
1.490000e-06	-1.637278e-06	-5.697015e-10	-1.138521e+01	-3.929851e+01
1.500000e-06	-1.592408e-06	-5.600453e-10	-1.107320e+01	-3.880423e+01
1.510000e-06	-1.547352e-06	-5.526905e-10	-1.075989e+01	-3.830061e+01
1.520000e-06	-1.502225e-06	-5.433841e-10	-1.044609e+01	-3.778753e+01
1.530000e-06	-1.457076e-06	-5.316099e-10	-1.013213e+01	-3.726486e+01
1.540000e-06	-1.411838e-06	-5.180083e-10	-9.817559e+00	-3.673244e+01
1.550000e-06	-1.366467e-06	-5.064083e-10	-9.502057e+00	-3.619012e+01
1.560000e-06	-1.320950e-06	-4.972586e-10	-9.185546e+00	-3.563769e+01
1.570000e-06	-1.275332e-06	-4.883507e-10	-8.868334e+00	-3.507497e+01
1.580000e-06	-1.229618e-06	-4.783740e-10	-8.550446e+00	-3.450172e+01
1.590000e-06	-1.183855e-06	-4.688462e-10	-8.232227e+00	-3.391770e+01
1.600000e-06	-1.138104e-06	-4.579904e-10	-7.914080e+00	-3.332265e+01
1.610000e-06	-1.092313e-06	-4.474175e-10	-7.595661e+00	-3.271630e+01
1.620000e-06	-1.046378e-06	-4.368508e-10	-7.276247e+00	-3.209833e+01
1.630000e-06	-1.000309e-06	-4.255734e-10	-6.955892e+00	-3.146845e+01
1.640000e-06	-9.542169e-07	-4.138719e-10	-6.635380e+00	-3.082632e+01
1.650000e-06	-9.080900e-07	-4.013306e-10	-6.314625e+00	-3.017160e+01
1.660000e-06	-8.618816e-07	-3.901431e-10	-5.993303e+00	-2.950395e+01
1.670000e-06	-8.155152e-07	-3.803450e-10	-5.670884e+00	-2.882300e+01
1.680000e-06	-7.690010e-07	-3.713373e-10	-5.347436e+00	-2.812840e+01
1.690000e-06	-7.224468e-07	-3.614448e-10	-5.023710e+00	-2.741978e+01
1.700000e-06	-6.759528e-07	-3.526416e-10	-4.700403e+00	-2.669679e+01
1.710000e-06	-6.295597e-07	-3.415772e-10	-4.377797e+00	-2.595908e+01
1.720000e-06	-5.831302e-07	-3.275323e-10	-4.054938e+00	-2.520630e+01
1.730000e-06	-5.366337e-07	-3.128550e-10	-3.731613e+00	-2.443813e+01
1.740000e-06	-4.900728e-07	-3.006893e-10	-3.407840e+00	-2.365426e+01
1.750000e-06	-4.434371e-07	-2.928228e-10	-3.083548e+00	-2.285442e+01
1.760000e-06	-3.967666e-07	-2.857351e-10	-2.759013e+00	-2.203835e+01
1.770000e-06	-3.500204e-07	-2.770078e-10	-2.433952e+00	-2.120583e+01
1.780000e-06	-3.032249e-07	-2.657893e-10	-2.108548e+00	-2.035668e+01
1.790000e-06	-2.563461e-07	-2.506723e-10	-1.782565e+00	-1.949076e+01
1.800000e-06	-2.094345e-07	-2.334154e-10	-1.456354e+00	-1.860798e+01
1.810000e-06	-1.625847e-07	-2.170927e-10	-1.130572e+00	-1.770830e+01
1.820000e-06	-1.157630e-07	-2.019784e-10	-8.049860e-01	-1.679173e+01
1.830000e-06	-6.893649e-08	-1.907574e-10	-4.793666e-01	-1.585834e+01
1.840000e-06	-2.211661e-08	-1.823514e-10	-1.537932e-01	-1.490826e+01
1.850000e-06	2.469453e-08	-1.735854e-10	1.717194e-01	-1.394168e+01
1.860000e-06	7.149315e-08	-1.646740e-10	4.971450e-01	-1.295888e+01
1.870000e-06	1.182686e-07	-1.516308e-10	8.224095e-01	-1.196017e+01
1.880000e-06	1.650835e-07	-1.351835e-10	1.147948e+00	-1.094596e+01
1.890000e-06	2.118892e-07	-1.175274e-10	1.473423e+00	-9.916725e+00
1.900000e-06	2.586247e-07	-1.015099e-10	1.798410e+00	-8.873003e+00
1.910000e-06	3.054078e-07	-8.782515e-11	2.123728e+00	-7.815409e+00
1.920000e-06	3.522570e-07	-7.483871e-11	2.449505e+00	-6.744629e+00
1.930000e-06	3.990088e-07	-6.328774e-11	2.774605e+00	-5.661417e+00
1.940000e-06	4.456275e-07	-5.051724e-11	3.098779e+00	-4.566595e+00
1.950000e-06	4.922209e-07	-3.794861e-11	3.422778e+00	-3.461053e+00
1.960000e-06	5.387903e-07	-2.492374e-11	3.746609e+00	-2.345739e+00
1.970000e-06	5.852959e-07	-9.820725e-12	4.069998e+00	-1.221664e+00
1.980000e-06	6.316975e-07	7.815138e-12	4.392662e+00	-8.989284e-02
1.990000e-06	6.780183e-07	2.669015e-11	4.714766e+00	1.048460e+00
2.000000e-06	7.243691e-07	4.439919e-11	5.037077e+00	2.192234e+00
2.010000e-06	7.707098e-07	6.212106e-11	5.359318e+00	3.340228e+00
2.020000e-06	8.170163e-07	7.887222e-11	5.681322e+00	4.491205e+00
2.030000e-06	8.632763e-07	9.361336e-11	6.003002e+00	5.643903e+00
2.040000e-06	9.094246e-07	1.080152e-10	6.323905e+00	6.797035e+00
2.050000e-06	9.554886e-07	1.228658e-10	6.644222e+00	7.949300e+00
2.060000e-06	1.001493e-06	1.387632e-10	6.964122e+00	9.099388e+00
2.070000e-06	1.047434e-06	1.557297e-10	7.283586e+00	1.024599e+01
2.080000e-06	1.093272e-06	1.739663e-10	7.602330e+00	1.138780e+01
2.090000e-06	1.139000e-06	1.911006e-10	7.920317e+00	1.252352e+01
2.100000e-06	1.184668e-06	2.060016e-10	8.237876e+00	1.365189e+01
2.110000e-06	1.230242e-06	2.209373e-10	8.554784e+00	1.477165e+01
2.120000e-06	1.275740e-06	2.376825e-10	8.871172e+00	1.588159e+01
2.130000e-06	1.321118e-06	2.559074e-10	9.186713e+00	1.698055e+01
2.140000e-06	1.366376e-06	2.713425e-10	9.501428e+00	1.806739e+01
2.150000e-06	1.411639e-06	2.832962e-10	9.816177e+00	1.914105e+01
2.160000e-06	1.456877e-06	2.940914e-10	1.013075e+01	2.020050e+01
2.170000e-06	1.501955e-06	3.074647e-10	1.044421e+01	2.124479e+01
2.180000e-06	1.546846e-06	3.242824e-10	1.075637e+01	2.227304e+01
2.190000e-06	1.591682e-06	3.398018e-10	1.106815e+01	2.328442e+01
2.200000e-06	1.636489e-06	3.545417e-10	1.137972e+01	2.427822e+01
2.210000e-06	1.681142e-06	3.694622e-10	1.169023e+01	2.525375e+01
2.220000e-06	1.725617e-06	3.826449e-10	1.199950e+01	2.621044e+01
2.230000e-06	1.769973e-06	3.949634e-10	1.230794e+01	2.714780e+01
2.240000e-06	1.814235e-06	4.065779e-10	1.261572e+01	2.806539e+01
2.250000e-06	1.858348e-06	4.171005e-10	1.292248e+01	2.896290e+01
2.260000e-06	1.902288e-06	4.265168e-10	1.322802e+01	2.984008e+01
2.270000e-06	1.946107e-06	4.371623e-10	1.353273e+01	3.069675e+01
2.280000e-06	1.989834e-06	4.493601e-10	1.383679e+01	3.153283e+01
2.290000e-06	2.033530e-06	4.602659e-10	1.414065e+01	3.234831e+01
2.300000e-06	2.077181e-06	4.701207e-10	1.444418e+01	3.314326e+01
2.310000e-06	2.120784e-06	4.815661e-10	1.474739e+01	3.391783e+01
2.320000e-06	2.164354e-06	4.930849e-10	1.505036e+01	3.467223e+01
2.330000e-06	2.207814e-06	5.024664e-10	1.535257e+01	3.540673e+01
2.340000e-06	2.251127e-06	5.116211e-10	1.565376e+01	3.612166e+01
2.350000e-06	2.294226e-06	5.204941e-10	1.595346e+01	3.681743e+01
2.360000e-06	2.337100e-06	5.295945e-10	1.625159e+01	3.749447e+01
2.370000e-06	2.379797e-06	5.375530e-10	1.654850e+01	3.815327e+01
2.380000e-06	2.422190e-06	5.452561e-10	1.684329e+01	3.879436e+01
2.390000e-06	2.464156e-06	5.547606e-10	1.713511e+01	3.941829e+01
2.400000e-06	2.505904e-06	5.661965e-10	1.742541e+01	4.002565e+01
2.410000e-06	2.547509e-06	5.794874e-10	1.771473e+01	4.061705e+01
2.420000e-06	2.588849e-06	5.920821e-10	1.800219e+01	4.119310e+01
2.430000e-06	2.629825e-06	6.021616e-10	1.828713e+01	4.175444e+01
2.440000e-06	2.670408e-06	6.096634e-10	1.856933e+01	4.230169e+01
2.450000e-06	2.710742e-06	6.159216e-10	1.884980e+01	4.283549e+01
2.460000e-06	2.750946e-06	6.204118e-10	1.912937e+01	4.335644e+01
2.470000e-06	2.790988e-06	6.256490e-10	1.940781e+01	4.386517e+01
2.480000e-06	2.830887e-06	6.330722e-10	1.968526e+01	4.436224e+01
2.490000e-06	2.870669e-06	6.419720e-10	1.996190e+01	4.484824e+01
2.500000e-06	2.910285e-06	6.523937e-10	2.023738e+01	4.532370e+01
2.510000e-06	2.949777e-06	6.630475e-10	2.051199e+01	4.578912e+01
2.520000e-06	2.989138e-06	6.722474e-10	2.078570e+01	4.624499e+01
2.530000e-06	3.028310e-06	6.791623e-10	2.105809e+01	4.669172e+01
2.540000e-06	3.067254e-06	6.826083e-10	2.132889e+01	4.712974e+01
2.550000e-06	3.105964e-06	6.846974e-10	2.159808e+01	4.755939e+01
2.560000e-06	3.144449e-06	6.873221e-10	2.186569e+01	4.798100e+01
2.570000e-06	3.182698e-06	6.928167e-10	2.213167e+01	4.839484e+01
2.580000e-06	3.220725e-06	6.985472e-10	2.239610e+01	4.880115e+01
2.590000e-06	3.258548e-06	7.041414e-10	2.265911e+01	4.920013e+01
2.600000e-06	3.296165e-06	7.113917e-10	2.292069e+01	4.959194e+01
2.610000e-06	3.333547e-06	7.193876e-10	2.318063e+01	4.997668e+01
2.620000e-06	3.370693e-06	7.270331e-10	2.343893e+01	5.035445e+01
2.630000e-06	3.407555e-06	7.325160e-10	2.369526e+01	5.072530e+01
2.640000e-06	3.444150e-06	7.360037e-10	2.394974e+01	5.108923e+01
2.650000e-06	3.480586e-06	7.380722e-10	2.420310e+01	5.144624e+01
2.660000e-06	3.516780e-06	7.411273e-10	2.445478e+01	5.179630e+01
2.670000e-06	3.552734e-06	7.456701e-10	2.470480e+01	5.213933e+01
2.680000e-06	3.588537e-06	7.513674e-10	2.495377e+01	5.247528e+01
2.690000e-06	3.624218e-06	7.574393e-10	2.520188e+01	5.280404e+01
2.700000e-06	3.659763e-06	7.639171e-10	2.544905e+01	5.312551e+01
2.710000e-06	3.695107e-06	7.697706e-10	2.569483e+01	5.343960e+01
2.720000e-06	3.730233e-06	7.756344e-10	2.593908e+01	5.374618e+01
2.730000e-06	3.765096e-06	7.828428e-10	2.618151e+01	5.404515e+01
2.740000e-06	3.799563e-06	7.886295e-10	2.642119e+01	5.433641e+01
2.750000e-06	3.833610e-06	7.916212e-10	2.665794e+01	5.461986e+01
2.760000e-06	3.867180e-06	7.943133e-10	2.689138e+01	5.489542e+01
2.770000e-06	3.900299e-06	7.968664e-10	2.712168e+01	5.516302e+01
2.780000e-06	3.933017e-06	7.993569e-10	2.734919e+01	5.542260e+01
2.790000e-06	3.965345e-06	8.023325e-10	2.757399e+01	5.567415e+01
2.800000e-06	3.997441e-06	8.075075e-10	2.779718e+01	5.591765e+01
2.810000e-06	4.029365e-06	8.154802e-10	2.801917e+01	5.615312e+01
2.820000e-06	4.061074e-06	8.237745e-10	2.823967e+01	5.638061e+01
2.830000e-06	4.092534e-06	8.300694e-10	2.845843e+01	5.660017e+01
2.840000e-06	4.123728e-06	8.332637e-10	2.867535e+01	5.681193e+01
2.850000e-06	4.154704e-06	8.336750e-10	2.889074e+01	5.701598e+01
2.860000e-06	4.185455e-06	8.352655e-10	2.910458e+01	5.721250e+01
2.870000e-06	4.215869e-06	8.380998e-10	2.931607e+01	5.740167e+01
2.880000e-06	4.246014e-06	8.406175e-10	2.952569e+01	5.758368e+01
2.890000e-06	4.275925e-06	8.447566e-10	2.973369e+01	5.775877e+01
2.900000e-06	4.305499e-06	8.502473e-10	2.993934e+01	5.792721e+01
