# Temperatura_=_11.2
# Concentracion g/m^3_=_1620.0
# C_Vs_to_Am_M_A/Vsm_=_65563218390.804596
# pendiente_HvsI_1/m_=_3716.3
# ordenada_HvsI_A/m_=_1297.0
# frecuencia_Hz_=_135104.7372217769

Tiempo_(s)	Campo_(V.s)	Magnetizacion_(V.s)	Campo_(kA/m)	Magnetizacion_(A/m)
0.000000e+00	-5.518987e-06	-7.752034e-10	-3.835922e+01	-4.953816e+01
1.000000e-08	-5.519155e-06	-7.732624e-10	-3.836039e+01	-4.954466e+01
2.000000e-08	-5.519063e-06	-7.745167e-10	-3.835974e+01	-4.954988e+01
3.000000e-08	-5.518624e-06	-7.761931e-10	-3.835669e+01	-4.955365e+01
4.000000e-08	-5.517756e-06	-7.740917e-10	-3.835066e+01	-4.955580e+01
5.000000e-08	-5.516345e-06	-7.715595e-10	-3.834086e+01	-4.955619e+01
6.000000e-08	-5.514257e-06	-7.650652e-10	-3.832634e+01	-4.955469e+01
7.000000e-08	-5.511551e-06	-7.511557e-10	-3.830753e+01	-4.955117e+01
8.000000e-08	-5.508352e-06	-7.490471e-10	-3.828530e+01	-4.954552e+01
9.000000e-08	-5.504679e-06	-7.787350e-10	-3.825977e+01	-4.953766e+01
1.000000e-07	-5.500524e-06	-8.078103e-10	-3.823089e+01	-4.952751e+01
1.100000e-07	-5.496069e-06	-7.842015e-10	-3.819993e+01	-4.951502e+01
1.200000e-07	-5.491472e-06	-7.165590e-10	-3.816798e+01	-4.950014e+01
1.300000e-07	-5.486627e-06	-6.924681e-10	-3.813430e+01	-4.948287e+01
1.400000e-07	-5.481408e-06	-7.565866e-10	-3.809803e+01	-4.946321e+01
1.500000e-07	-5.475768e-06	-7.632397e-10	-3.805883e+01	-4.944116e+01
1.600000e-07	-5.469724e-06	-7.276718e-10	-3.801682e+01	-4.941678e+01
1.700000e-07	-5.463326e-06	-7.075422e-10	-3.797235e+01	-4.939011e+01
1.800000e-07	-5.456495e-06	-7.671696e-10	-3.792487e+01	-4.936123e+01
1.900000e-07	-5.449247e-06	-7.840243e-10	-3.787450e+01	-4.933022e+01
2.000000e-07	-5.441691e-06	-7.283790e-10	-3.782198e+01	-4.929718e+01
2.100000e-07	-5.433865e-06	-6.945995e-10	-3.776759e+01	-4.926221e+01
2.200000e-07	-5.425745e-06	-7.164130e-10	-3.771115e+01	-4.922545e+01
2.300000e-07	-5.417334e-06	-7.436650e-10	-3.765269e+01	-4.918703e+01
2.400000e-07	-5.408580e-06	-7.281119e-10	-3.759184e+01	-4.914707e+01
2.500000e-07	-5.399210e-06	-7.216158e-10	-3.752672e+01	-4.910571e+01
2.600000e-07	-5.389024e-06	-7.289172e-10	-3.745592e+01	-4.906311e+01
2.700000e-07	-5.378191e-06	-7.436464e-10	-3.738063e+01	-4.901940e+01
2.800000e-07	-5.366946e-06	-7.244686e-10	-3.730247e+01	-4.897472e+01
2.900000e-07	-5.355357e-06	-7.295612e-10	-3.722193e+01	-4.892922e+01
3.000000e-07	-5.343421e-06	-7.410947e-10	-3.713896e+01	-4.888301e+01
3.100000e-07	-5.331102e-06	-7.516620e-10	-3.705334e+01	-4.883623e+01
3.200000e-07	-5.318274e-06	-7.334575e-10	-3.696418e+01	-4.878898e+01
3.300000e-07	-5.304986e-06	-7.320324e-10	-3.687182e+01	-4.874136e+01
3.400000e-07	-5.291385e-06	-7.353568e-10	-3.677729e+01	-4.869346e+01
3.500000e-07	-5.277382e-06	-7.440325e-10	-3.667996e+01	-4.864535e+01
3.600000e-07	-5.262913e-06	-7.334517e-10	-3.657940e+01	-4.859708e+01
3.700000e-07	-5.248005e-06	-7.343192e-10	-3.647578e+01	-4.854870e+01
3.800000e-07	-5.232567e-06	-7.405478e-10	-3.636848e+01	-4.850022e+01
3.900000e-07	-5.216701e-06	-7.440812e-10	-3.625821e+01	-4.845164e+01
4.000000e-07	-5.200428e-06	-7.309318e-10	-3.614510e+01	-4.840296e+01
4.100000e-07	-5.183723e-06	-7.326029e-10	-3.602899e+01	-4.835412e+01
4.200000e-07	-5.166690e-06	-7.362061e-10	-3.591061e+01	-4.830509e+01
4.300000e-07	-5.149328e-06	-7.204193e-10	-3.578994e+01	-4.825578e+01
4.400000e-07	-5.131639e-06	-7.158793e-10	-3.566699e+01	-4.820612e+01
4.500000e-07	-5.113577e-06	-7.382707e-10	-3.554145e+01	-4.815599e+01
4.600000e-07	-5.095098e-06	-7.423865e-10	-3.541301e+01	-4.810528e+01
4.700000e-07	-5.076106e-06	-7.131850e-10	-3.528101e+01	-4.805385e+01
4.800000e-07	-5.056775e-06	-7.167996e-10	-3.514666e+01	-4.800157e+01
4.900000e-07	-5.037271e-06	-7.310924e-10	-3.501109e+01	-4.794828e+01
5.000000e-07	-5.017577e-06	-7.183539e-10	-3.487421e+01	-4.789382e+01
5.100000e-07	-4.997703e-06	-7.037255e-10	-3.473608e+01	-4.783803e+01
5.200000e-07	-4.977464e-06	-7.207892e-10	-3.459541e+01	-4.778073e+01
5.300000e-07	-4.956808e-06	-7.127804e-10	-3.445184e+01	-4.772176e+01
5.400000e-07	-4.935771e-06	-7.065312e-10	-3.430563e+01	-4.766094e+01
5.500000e-07	-4.914430e-06	-7.253545e-10	-3.415730e+01	-4.759812e+01
5.600000e-07	-4.892815e-06	-7.293193e-10	-3.400707e+01	-4.753314e+01
5.700000e-07	-4.870836e-06	-6.982341e-10	-3.385430e+01	-4.746583e+01
5.800000e-07	-4.848554e-06	-7.045617e-10	-3.369944e+01	-4.739607e+01
5.900000e-07	-4.825936e-06	-7.186340e-10	-3.354223e+01	-4.732373e+01
6.000000e-07	-4.802952e-06	-7.025471e-10	-3.338248e+01	-4.724870e+01
6.100000e-07	-4.779614e-06	-6.931024e-10	-3.322027e+01	-4.717087e+01
6.200000e-07	-4.755991e-06	-7.102963e-10	-3.305609e+01	-4.709017e+01
6.300000e-07	-4.732212e-06	-6.971096e-10	-3.289081e+01	-4.700654e+01
6.400000e-07	-4.708229e-06	-6.838633e-10	-3.272412e+01	-4.691995e+01
6.500000e-07	-4.683853e-06	-6.986068e-10	-3.255469e+01	-4.683036e+01
6.600000e-07	-4.658973e-06	-7.040032e-10	-3.238177e+01	-4.673779e+01
6.700000e-07	-4.633568e-06	-6.882476e-10	-3.220519e+01	-4.664227e+01
6.800000e-07	-4.607616e-06	-6.924875e-10	-3.202482e+01	-4.654383e+01
6.900000e-07	-4.581140e-06	-6.967729e-10	-3.184079e+01	-4.644254e+01
7.000000e-07	-4.554198e-06	-6.828485e-10	-3.165354e+01	-4.633850e+01
7.100000e-07	-4.526924e-06	-6.783255e-10	-3.146397e+01	-4.623181e+01
7.200000e-07	-4.499411e-06	-6.840556e-10	-3.127275e+01	-4.612260e+01
7.300000e-07	-4.471729e-06	-6.787204e-10	-3.108034e+01	-4.601102e+01
7.400000e-07	-4.443897e-06	-6.759330e-10	-3.088690e+01	-4.589722e+01
7.500000e-07	-4.415865e-06	-6.885420e-10	-3.069207e+01	-4.578137e+01
7.600000e-07	-4.387542e-06	-6.861677e-10	-3.049521e+01	-4.566367e+01
7.700000e-07	-4.358876e-06	-6.770632e-10	-3.029597e+01	-4.554429e+01
7.800000e-07	-4.329880e-06	-6.764283e-10	-3.009444e+01	-4.542346e+01
7.900000e-07	-4.300562e-06	-6.770403e-10	-2.989067e+01	-4.530135e+01
8.000000e-07	-4.270966e-06	-6.718439e-10	-2.968496e+01	-4.517819e+01
8.100000e-07	-4.241056e-06	-6.756807e-10	-2.947708e+01	-4.505416e+01
8.200000e-07	-4.210850e-06	-6.781968e-10	-2.926713e+01	-4.492947e+01
8.300000e-07	-4.180344e-06	-6.748364e-10	-2.905510e+01	-4.480431e+01
8.400000e-07	-4.149514e-06	-6.718545e-10	-2.884082e+01	-4.467884e+01
8.500000e-07	-4.118389e-06	-6.753245e-10	-2.862449e+01	-4.455324e+01
8.600000e-07	-4.087040e-06	-6.694046e-10	-2.840660e+01	-4.442766e+01
8.700000e-07	-4.055567e-06	-6.650147e-10	-2.818785e+01	-4.430221e+01
8.800000e-07	-4.023961e-06	-6.648154e-10	-2.796818e+01	-4.417701e+01
8.900000e-07	-3.992203e-06	-6.618224e-10	-2.774745e+01	-4.405215e+01
9.000000e-07	-3.960197e-06	-6.549944e-10	-2.752499e+01	-4.392768e+01
9.100000e-07	-3.927861e-06	-6.535175e-10	-2.730024e+01	-4.380363e+01
9.200000e-07	-3.895177e-06	-6.489089e-10	-2.707307e+01	-4.368002e+01
9.300000e-07	-3.862047e-06	-6.438059e-10	-2.684281e+01	-4.355680e+01
9.400000e-07	-3.828367e-06	-6.437798e-10	-2.660872e+01	-4.343394e+01
9.500000e-07	-3.794212e-06	-6.466228e-10	-2.637133e+01	-4.331134e+01
9.600000e-07	-3.759592e-06	-6.440213e-10	-2.613070e+01	-4.318889e+01
9.700000e-07	-3.724594e-06	-6.406006e-10	-2.588745e+01	-4.306645e+01
9.800000e-07	-3.689379e-06	-6.376619e-10	-2.564270e+01	-4.294383e+01
9.900000e-07	-3.653958e-06	-6.311611e-10	-2.539650e+01	-4.282084e+01
1.000000e-06	-3.618368e-06	-6.255053e-10	-2.514914e+01	-4.269725e+01
1.010000e-06	-3.582622e-06	-6.233904e-10	-2.490069e+01	-4.257280e+01
1.020000e-06	-3.546764e-06	-6.204434e-10	-2.465146e+01	-4.244722e+01
1.030000e-06	-3.510798e-06	-6.157922e-10	-2.440148e+01	-4.232020e+01
1.040000e-06	-3.474566e-06	-6.153195e-10	-2.414966e+01	-4.219143e+01
1.050000e-06	-3.438020e-06	-6.137262e-10	-2.389564e+01	-4.206058e+01
1.060000e-06	-3.401212e-06	-6.089615e-10	-2.363982e+01	-4.192729e+01
1.070000e-06	-3.364104e-06	-6.067804e-10	-2.338190e+01	-4.179122e+01
1.080000e-06	-3.326735e-06	-6.088169e-10	-2.312217e+01	-4.165201e+01
1.090000e-06	-3.289212e-06	-6.063146e-10	-2.286137e+01	-4.150928e+01
1.100000e-06	-3.251498e-06	-6.024121e-10	-2.259924e+01	-4.136268e+01
1.110000e-06	-3.213559e-06	-5.985497e-10	-2.233555e+01	-4.121185e+01
1.120000e-06	-3.175323e-06	-5.931377e-10	-2.206979e+01	-4.105643e+01
1.130000e-06	-3.136825e-06	-5.866165e-10	-2.180222e+01	-4.089608e+01
1.140000e-06	-3.098178e-06	-5.855039e-10	-2.153360e+01	-4.073047e+01
1.150000e-06	-3.059322e-06	-5.847973e-10	-2.126354e+01	-4.055929e+01
1.160000e-06	-3.020186e-06	-5.833686e-10	-2.099153e+01	-4.038225e+01
1.170000e-06	-2.980854e-06	-5.823014e-10	-2.071816e+01	-4.019908e+01
1.180000e-06	-2.941416e-06	-5.827903e-10	-2.044405e+01	-4.000952e+01
1.190000e-06	-2.901848e-06	-5.796941e-10	-2.016903e+01	-3.981337e+01
1.200000e-06	-2.862197e-06	-5.743979e-10	-1.989344e+01	-3.961042e+01
1.210000e-06	-2.822450e-06	-5.690609e-10	-1.961718e+01	-3.940052e+01
1.220000e-06	-2.782529e-06	-5.645422e-10	-1.933971e+01	-3.918352e+01
1.230000e-06	-2.742471e-06	-5.602097e-10	-1.906129e+01	-3.895934e+01
1.240000e-06	-2.702272e-06	-5.569350e-10	-1.878190e+01	-3.872789e+01
1.250000e-06	-2.661778e-06	-5.527456e-10	-1.850045e+01	-3.848914e+01
1.260000e-06	-2.621016e-06	-5.500451e-10	-1.821713e+01	-3.824306e+01
1.270000e-06	-2.580034e-06	-5.496759e-10	-1.793229e+01	-3.798969e+01
1.280000e-06	-2.538699e-06	-5.481464e-10	-1.764500e+01	-3.772905e+01
1.290000e-06	-2.496998e-06	-5.425346e-10	-1.735516e+01	-3.746122e+01
1.300000e-06	-2.454960e-06	-5.349236e-10	-1.706297e+01	-3.718629e+01
1.310000e-06	-2.412619e-06	-5.281920e-10	-1.676869e+01	-3.690437e+01
1.320000e-06	-2.369979e-06	-5.219479e-10	-1.647232e+01	-3.661558e+01
1.330000e-06	-2.327132e-06	-5.197307e-10	-1.617452e+01	-3.632006e+01
1.340000e-06	-2.284149e-06	-5.194328e-10	-1.587577e+01	-3.601797e+01
1.350000e-06	-2.240979e-06	-5.170212e-10	-1.557572e+01	-3.570946e+01
1.360000e-06	-2.197659e-06	-5.115470e-10	-1.527463e+01	-3.539469e+01
1.370000e-06	-2.154140e-06	-5.059347e-10	-1.497216e+01	-3.507382e+01
1.380000e-06	-2.110494e-06	-5.005850e-10	-1.466879e+01	-3.474700e+01
1.390000e-06	-2.066875e-06	-4.956934e-10	-1.436562e+01	-3.441436e+01
1.400000e-06	-2.023182e-06	-4.897611e-10	-1.406194e+01	-3.407605e+01
1.410000e-06	-1.979326e-06	-4.835348e-10	-1.375713e+01	-3.373216e+01
1.420000e-06	-1.935353e-06	-4.773786e-10	-1.345149e+01	-3.338279e+01
1.430000e-06	-1.891335e-06	-4.724450e-10	-1.314555e+01	-3.302800e+01
1.440000e-06	-1.847305e-06	-4.659697e-10	-1.283952e+01	-3.266782e+01
1.450000e-06	-1.803175e-06	-4.597454e-10	-1.253280e+01	-3.230224e+01
1.460000e-06	-1.758926e-06	-4.530632e-10	-1.222525e+01	-3.193125e+01
1.470000e-06	-1.714558e-06	-4.474423e-10	-1.191688e+01	-3.155476e+01
1.480000e-06	-1.670024e-06	-4.426630e-10	-1.160735e+01	-3.117266e+01
1.490000e-06	-1.625305e-06	-4.373235e-10	-1.129654e+01	-3.078480e+01
1.500000e-06	-1.580416e-06	-4.313763e-10	-1.098454e+01	-3.039098e+01
1.510000e-06	-1.535412e-06	-4.243620e-10	-1.067174e+01	-2.999097e+01
1.520000e-06	-1.490299e-06	-4.132811e-10	-1.035819e+01	-2.958448e+01
1.530000e-06	-1.444997e-06	-4.000892e-10	-1.004332e+01	-2.917118e+01
1.540000e-06	-1.399620e-06	-3.886905e-10	-9.727934e+00	-2.875072e+01
1.550000e-06	-1.354185e-06	-3.794940e-10	-9.412137e+00	-2.832267e+01
1.560000e-06	-1.308601e-06	-3.729303e-10	-9.095311e+00	-2.788660e+01
1.570000e-06	-1.262928e-06	-3.685987e-10	-8.777865e+00	-2.744202e+01
1.580000e-06	-1.217183e-06	-3.659642e-10	-8.459920e+00	-2.698842e+01
1.590000e-06	-1.171386e-06	-3.605931e-10	-8.141615e+00	-2.652525e+01
1.600000e-06	-1.125569e-06	-3.520476e-10	-7.823167e+00	-2.605195e+01
1.610000e-06	-1.079687e-06	-3.408767e-10	-7.504269e+00	-2.556792e+01
1.620000e-06	-1.033634e-06	-3.286355e-10	-7.184179e+00	-2.507256e+01
1.630000e-06	-9.875196e-07	-3.174299e-10	-6.863665e+00	-2.456525e+01
1.640000e-06	-9.413729e-07	-3.069453e-10	-6.542927e+00	-2.404538e+01
1.650000e-06	-8.951306e-07	-2.982247e-10	-6.221524e+00	-2.351232e+01
1.660000e-06	-8.488273e-07	-2.931651e-10	-5.899697e+00	-2.296546e+01
1.670000e-06	-8.025129e-07	-2.898666e-10	-5.577793e+00	-2.240422e+01
1.680000e-06	-7.562593e-07	-2.846015e-10	-5.256312e+00	-2.182800e+01
1.690000e-06	-7.099956e-07	-2.757132e-10	-4.934760e+00	-2.123626e+01
1.700000e-06	-6.636327e-07	-2.653304e-10	-4.612519e+00	-2.062847e+01
1.710000e-06	-6.171527e-07	-2.528020e-10	-4.289463e+00	-2.000417e+01
1.720000e-06	-5.706029e-07	-2.383740e-10	-3.965924e+00	-1.936292e+01
1.730000e-06	-5.240008e-07	-2.273583e-10	-3.642020e+00	-1.870433e+01
1.740000e-06	-4.773444e-07	-2.208151e-10	-3.317739e+00	-1.802808e+01
1.750000e-06	-4.306475e-07	-2.141179e-10	-2.993176e+00	-1.733391e+01
1.760000e-06	-3.838439e-07	-2.065656e-10	-2.667872e+00	-1.662162e+01
1.770000e-06	-3.369683e-07	-1.959310e-10	-2.342068e+00	-1.589108e+01
1.780000e-06	-2.901020e-07	-1.868893e-10	-2.016328e+00	-1.514225e+01
1.790000e-06	-2.432746e-07	-1.770560e-10	-1.690858e+00	-1.437516e+01
1.800000e-06	-1.964249e-07	-1.635986e-10	-1.365233e+00	-1.358991e+01
1.810000e-06	-1.495024e-07	-1.478815e-10	-1.039103e+00	-1.278670e+01
1.820000e-06	-1.026333e-07	-1.324358e-10	-7.133435e-01	-1.196582e+01
1.830000e-06	-5.579565e-08	-1.200442e-10	-3.878026e-01	-1.112763e+01
1.840000e-06	-8.936834e-09	-1.100228e-10	-6.211465e-02	-1.027259e+01
1.850000e-06	3.791801e-08	-1.039992e-10	2.635457e-01	-9.401224e+00
1.860000e-06	8.478504e-08	-9.831510e-11	5.892907e-01	-8.514168e+00
1.870000e-06	1.316888e-07	-8.884046e-11	9.152911e-01	-7.612128e+00
1.880000e-06	1.785282e-07	-7.555074e-11	1.240844e+00	-6.695890e+00
1.890000e-06	2.253023e-07	-5.925807e-11	1.565943e+00	-5.766319e+00
1.900000e-06	2.720560e-07	-4.315272e-11	1.890900e+00	-4.824355e+00
1.910000e-06	3.188087e-07	-2.943130e-11	2.215851e+00	-3.871003e+00
1.920000e-06	3.655532e-07	-1.824908e-11	2.540745e+00	-2.907335e+00
1.930000e-06	4.122275e-07	-8.625511e-12	2.865149e+00	-1.934480e+00
1.940000e-06	4.589236e-07	1.060406e-12	3.189707e+00	-9.536176e-01
1.950000e-06	5.056594e-07	1.103788e-11	3.514540e+00	3.402449e-02
1.960000e-06	5.523390e-07	2.428637e-11	3.838982e+00	1.027181e+00
1.970000e-06	5.988830e-07	3.835664e-11	4.162482e+00	2.024556e+00
1.980000e-06	6.453895e-07	5.310815e-11	4.485721e+00	3.024827e+00
1.990000e-06	6.918765e-07	6.842032e-11	4.808825e+00	4.026658e+00
2.000000e-06	7.382441e-07	8.322773e-11	5.131099e+00	5.028702e+00
2.010000e-06	7.844904e-07	9.741888e-11	5.452529e+00	6.029613e+00
2.020000e-06	8.307835e-07	1.120763e-10	5.774285e+00	7.028050e+00
2.030000e-06	8.770446e-07	1.276635e-10	6.095819e+00	8.022689e+00
2.040000e-06	9.232014e-07	1.411693e-10	6.416627e+00	9.012226e+00
2.050000e-06	9.692924e-07	1.519482e-10	6.736979e+00	9.995387e+00
2.060000e-06	1.015186e-06	1.623587e-10	7.055961e+00	1.097094e+01
2.070000e-06	1.061002e-06	1.753969e-10	7.374397e+00	1.193768e+01
2.080000e-06	1.106799e-06	1.918882e-10	7.692709e+00	1.289448e+01
2.090000e-06	1.152498e-06	2.077281e-10	8.010332e+00	1.384023e+01
2.100000e-06	1.198189e-06	2.228000e-10	8.327902e+00	1.477393e+01
2.110000e-06	1.243848e-06	2.358453e-10	8.645254e+00	1.569460e+01
2.120000e-06	1.289427e-06	2.480759e-10	8.962043e+00	1.660135e+01
2.130000e-06	1.334898e-06	2.597249e-10	9.278088e+00	1.749337e+01
2.140000e-06	1.380199e-06	2.706824e-10	9.592950e+00	1.836991e+01
2.150000e-06	1.425447e-06	2.825037e-10	9.907440e+00	1.923032e+01
2.160000e-06	1.470676e-06	2.962163e-10	1.022180e+01	2.007402e+01
2.170000e-06	1.515720e-06	3.112403e-10	1.053487e+01	2.090051e+01
2.180000e-06	1.560426e-06	3.222870e-10	1.084560e+01	2.170937e+01
2.190000e-06	1.605061e-06	3.314415e-10	1.115583e+01	2.250028e+01
2.200000e-06	1.649761e-06	3.398742e-10	1.146652e+01	2.327298e+01
2.210000e-06	1.694318e-06	3.486562e-10	1.177620e+01	2.402730e+01
2.220000e-06	1.738763e-06	3.597073e-10	1.208511e+01	2.476315e+01
2.230000e-06	1.783097e-06	3.711213e-10	1.239326e+01	2.548051e+01
2.240000e-06	1.827263e-06	3.828886e-10	1.270023e+01	2.617944e+01
2.250000e-06	1.871291e-06	3.932028e-10	1.300624e+01	2.686006e+01
2.260000e-06	1.915258e-06	4.010477e-10	1.331183e+01	2.752255e+01
2.270000e-06	1.959151e-06	4.073637e-10	1.361690e+01	2.816717e+01
2.280000e-06	2.002885e-06	4.116493e-10	1.392087e+01	2.879421e+01
2.290000e-06	2.046559e-06	4.168544e-10	1.422442e+01	2.940403e+01
2.300000e-06	2.090184e-06	4.225261e-10	1.452763e+01	2.999703e+01
2.310000e-06	2.133740e-06	4.314698e-10	1.483037e+01	3.057363e+01
2.320000e-06	2.177315e-06	4.413585e-10	1.513323e+01	3.113430e+01
2.330000e-06	2.220789e-06	4.503850e-10	1.543540e+01	3.167955e+01
2.340000e-06	2.264068e-06	4.591668e-10	1.573620e+01	3.220987e+01
2.350000e-06	2.307183e-06	4.658803e-10	1.603587e+01	3.272582e+01
2.360000e-06	2.350149e-06	4.691938e-10	1.633449e+01	3.322792e+01
2.370000e-06	2.392878e-06	4.707131e-10	1.663148e+01	3.371672e+01
2.380000e-06	2.435207e-06	4.738923e-10	1.692569e+01	3.419277e+01
2.390000e-06	2.477161e-06	4.800112e-10	1.721728e+01	3.465661e+01
2.400000e-06	2.518916e-06	4.900089e-10	1.750750e+01	3.510876e+01
2.410000e-06	2.560386e-06	5.017219e-10	1.779573e+01	3.554974e+01
2.420000e-06	2.601580e-06	5.124637e-10	1.808205e+01	3.598006e+01
2.430000e-06	2.642572e-06	5.209260e-10	1.836696e+01	3.640017e+01
2.440000e-06	2.683154e-06	5.273047e-10	1.864902e+01	3.681054e+01
2.450000e-06	2.723415e-06	5.319139e-10	1.892885e+01	3.721157e+01
2.460000e-06	2.763537e-06	5.348925e-10	1.920771e+01	3.760367e+01
2.470000e-06	2.803518e-06	5.384533e-10	1.948560e+01	3.798719e+01
2.480000e-06	2.843394e-06	5.437965e-10	1.976275e+01	3.836245e+01
2.490000e-06	2.883165e-06	5.512080e-10	2.003917e+01	3.872975e+01
2.500000e-06	2.922787e-06	5.598888e-10	2.031456e+01	3.908935e+01
2.510000e-06	2.962281e-06	5.679715e-10	2.058906e+01	3.944146e+01
2.520000e-06	3.001598e-06	5.760998e-10	2.086233e+01	3.978628e+01
2.530000e-06	3.040661e-06	5.810288e-10	2.113384e+01	4.012397e+01
2.540000e-06	3.079473e-06	5.823708e-10	2.140360e+01	4.045464e+01
2.550000e-06	3.118065e-06	5.825243e-10	2.167183e+01	4.077839e+01
2.560000e-06	3.156438e-06	5.841382e-10	2.193854e+01	4.109530e+01
2.570000e-06	3.194568e-06	5.892185e-10	2.220356e+01	4.140539e+01
2.580000e-06	3.232567e-06	5.968388e-10	2.246766e+01	4.170870e+01
2.590000e-06	3.270385e-06	6.035799e-10	2.273052e+01	4.200522e+01
2.600000e-06	3.307956e-06	6.094368e-10	2.299165e+01	4.229492e+01
2.610000e-06	3.345332e-06	6.149710e-10	2.325142e+01	4.257779e+01
2.620000e-06	3.382471e-06	6.178090e-10	2.350956e+01	4.285377e+01
2.630000e-06	3.419274e-06	6.171422e-10	2.376535e+01	4.312280e+01
2.640000e-06	3.455739e-06	6.160978e-10	2.401880e+01	4.338484e+01
2.650000e-06	3.492005e-06	6.189717e-10	2.427087e+01	4.363982e+01
2.660000e-06	3.528074e-06	6.260395e-10	2.452156e+01	4.388769e+01
2.670000e-06	3.563955e-06	6.325965e-10	2.477094e+01	4.412838e+01
2.680000e-06	3.599714e-06	6.371180e-10	2.501949e+01	4.436185e+01
2.690000e-06	3.635387e-06	6.412249e-10	2.526743e+01	4.458807e+01
2.700000e-06	3.670905e-06	6.431951e-10	2.551429e+01	4.480699e+01
2.710000e-06	3.706279e-06	6.415240e-10	2.576015e+01	4.501862e+01
2.720000e-06	3.741455e-06	6.411801e-10	2.600464e+01	4.522294e+01
2.730000e-06	3.776245e-06	6.468220e-10	2.624645e+01	4.541997e+01
2.740000e-06	3.810600e-06	6.551635e-10	2.648523e+01	4.560976e+01
2.750000e-06	3.844513e-06	6.642216e-10	2.672094e+01	4.579235e+01
2.760000e-06	3.877961e-06	6.709820e-10	2.695342e+01	4.596781e+01
2.770000e-06	3.910962e-06	6.735857e-10	2.718279e+01	4.613625e+01
2.780000e-06	3.943574e-06	6.733298e-10	2.740945e+01	4.629776e+01
2.790000e-06	3.975833e-06	6.714779e-10	2.763366e+01	4.645249e+01
2.800000e-06	4.007812e-06	6.705718e-10	2.785593e+01	4.660057e+01
2.810000e-06	4.039582e-06	6.738465e-10	2.807675e+01	4.674219e+01
2.820000e-06	4.071175e-06	6.801979e-10	2.829633e+01	4.687752e+01
2.830000e-06	4.102619e-06	6.845771e-10	2.851488e+01	4.700677e+01
2.840000e-06	4.133872e-06	6.864468e-10	2.873210e+01	4.713014e+01
2.850000e-06	4.164885e-06	6.874090e-10	2.894765e+01	4.724786e+01
2.860000e-06	4.195579e-06	6.867276e-10	2.916099e+01	4.736016e+01
2.870000e-06	4.225944e-06	6.842195e-10	2.937204e+01	4.746730e+01
2.880000e-06	4.256019e-06	6.822562e-10	2.958107e+01	4.756951e+01
2.890000e-06	4.285751e-06	6.828702e-10	2.978772e+01	4.766705e+01
2.900000e-06	4.315135e-06	6.877549e-10	2.999195e+01	4.776018e+01
