# Temperatura_=_15.1
# Concentracion g/m^3_=_1620.0
# C_Vs_to_Am_M_A/Vsm_=_65563218390.804596
# pendiente_HvsI_1/m_=_3716.3
# ordenada_HvsI_A/m_=_1297.0
# frecuencia_Hz_=_135099.20638488067

Tiempo_(s)	Campo_(V.s)	Magnetizacion_(V.s)	Campo_(kA/m)	Magnetizacion_(A/m)
0.000000e+00	-5.532685e-06	-8.305713e-10	-3.837544e+01	-5.386552e+01
1.000000e-08	-5.532928e-06	-8.273170e-10	-3.837713e+01	-5.385331e+01
2.000000e-08	-5.532885e-06	-8.241064e-10	-3.837683e+01	-5.384033e+01
3.000000e-08	-5.532389e-06	-8.230486e-10	-3.837339e+01	-5.382650e+01
4.000000e-08	-5.531464e-06	-8.215561e-10	-3.836698e+01	-5.381172e+01
5.000000e-08	-5.530096e-06	-8.202689e-10	-3.835748e+01	-5.379589e+01
6.000000e-08	-5.528179e-06	-8.175912e-10	-3.834419e+01	-5.377891e+01
7.000000e-08	-5.525598e-06	-8.141889e-10	-3.832629e+01	-5.376068e+01
8.000000e-08	-5.522436e-06	-8.250858e-10	-3.830435e+01	-5.374107e+01
9.000000e-08	-5.518794e-06	-8.327646e-10	-3.827910e+01	-5.371999e+01
1.000000e-07	-5.514666e-06	-8.086344e-10	-3.825046e+01	-5.369732e+01
1.100000e-07	-5.510228e-06	-7.884105e-10	-3.821968e+01	-5.367296e+01
1.200000e-07	-5.505649e-06	-8.027327e-10	-3.818792e+01	-5.364681e+01
1.300000e-07	-5.500815e-06	-8.204250e-10	-3.815439e+01	-5.361876e+01
1.400000e-07	-5.495590e-06	-7.912297e-10	-3.811815e+01	-5.358873e+01
1.500000e-07	-5.490061e-06	-7.583372e-10	-3.807980e+01	-5.355663e+01
1.600000e-07	-5.484179e-06	-7.847954e-10	-3.803900e+01	-5.352240e+01
1.700000e-07	-5.477851e-06	-8.272347e-10	-3.799511e+01	-5.348596e+01
1.800000e-07	-5.471034e-06	-8.088070e-10	-3.794783e+01	-5.344727e+01
1.900000e-07	-5.463845e-06	-7.731852e-10	-3.789796e+01	-5.340629e+01
2.000000e-07	-5.456423e-06	-7.770378e-10	-3.784648e+01	-5.336298e+01
2.100000e-07	-5.448659e-06	-7.998784e-10	-3.779263e+01	-5.331733e+01
2.200000e-07	-5.440604e-06	-7.900611e-10	-3.773675e+01	-5.326934e+01
2.300000e-07	-5.432311e-06	-7.726247e-10	-3.767924e+01	-5.321902e+01
2.400000e-07	-5.423532e-06	-7.748124e-10	-3.761835e+01	-5.316639e+01
2.500000e-07	-5.414092e-06	-7.917437e-10	-3.755287e+01	-5.311149e+01
2.600000e-07	-5.403932e-06	-7.934500e-10	-3.748239e+01	-5.305436e+01
2.700000e-07	-5.393205e-06	-7.788050e-10	-3.740799e+01	-5.299505e+01
2.800000e-07	-5.382077e-06	-7.790703e-10	-3.733080e+01	-5.293365e+01
2.900000e-07	-5.370492e-06	-7.979541e-10	-3.725045e+01	-5.287023e+01
3.000000e-07	-5.358503e-06	-8.088468e-10	-3.716729e+01	-5.280486e+01
3.100000e-07	-5.346158e-06	-7.956599e-10	-3.708167e+01	-5.273765e+01
3.200000e-07	-5.333375e-06	-7.893399e-10	-3.699300e+01	-5.266870e+01
3.300000e-07	-5.320215e-06	-8.005428e-10	-3.690173e+01	-5.259810e+01
3.400000e-07	-5.306706e-06	-7.982731e-10	-3.680802e+01	-5.252596e+01
3.500000e-07	-5.292729e-06	-7.682931e-10	-3.671108e+01	-5.245239e+01
3.600000e-07	-5.278343e-06	-7.732399e-10	-3.661129e+01	-5.237750e+01
3.700000e-07	-5.263524e-06	-7.878731e-10	-3.650851e+01	-5.230138e+01
3.800000e-07	-5.248222e-06	-7.806914e-10	-3.640237e+01	-5.222415e+01
3.900000e-07	-5.232324e-06	-7.731998e-10	-3.629210e+01	-5.214589e+01
4.000000e-07	-5.215896e-06	-7.954043e-10	-3.617815e+01	-5.206671e+01
4.100000e-07	-5.199242e-06	-7.772970e-10	-3.606264e+01	-5.198668e+01
4.200000e-07	-5.182281e-06	-7.514479e-10	-3.594500e+01	-5.190589e+01
4.300000e-07	-5.165056e-06	-7.795329e-10	-3.582552e+01	-5.182439e+01
4.400000e-07	-5.147551e-06	-7.937268e-10	-3.570410e+01	-5.174224e+01
4.500000e-07	-5.129513e-06	-7.517904e-10	-3.557899e+01	-5.165950e+01
4.600000e-07	-5.110947e-06	-7.532532e-10	-3.545021e+01	-5.157619e+01
4.700000e-07	-5.092054e-06	-7.856634e-10	-3.531917e+01	-5.149234e+01
4.800000e-07	-5.072835e-06	-7.551351e-10	-3.518586e+01	-5.140795e+01
4.900000e-07	-5.053321e-06	-7.369414e-10	-3.505051e+01	-5.132303e+01
5.000000e-07	-5.033651e-06	-7.769688e-10	-3.491408e+01	-5.123755e+01
5.100000e-07	-5.013745e-06	-7.690669e-10	-3.477601e+01	-5.115150e+01
5.200000e-07	-4.993556e-06	-7.295795e-10	-3.463598e+01	-5.106484e+01
5.300000e-07	-4.972987e-06	-7.608844e-10	-3.449331e+01	-5.097752e+01
5.400000e-07	-4.952023e-06	-7.753353e-10	-3.434789e+01	-5.088947e+01
5.500000e-07	-4.930705e-06	-7.315968e-10	-3.420003e+01	-5.080064e+01
5.600000e-07	-4.909005e-06	-7.331829e-10	-3.404952e+01	-5.071095e+01
5.700000e-07	-4.887008e-06	-7.650495e-10	-3.389694e+01	-5.062031e+01
5.800000e-07	-4.864758e-06	-7.372416e-10	-3.374262e+01	-5.052865e+01
5.900000e-07	-4.842073e-06	-7.238512e-10	-3.358527e+01	-5.043587e+01
6.000000e-07	-4.818985e-06	-7.492416e-10	-3.342512e+01	-5.034188e+01
6.100000e-07	-4.795604e-06	-7.385167e-10	-3.326295e+01	-5.024658e+01
6.200000e-07	-4.771972e-06	-7.142759e-10	-3.309904e+01	-5.014989e+01
6.300000e-07	-4.748171e-06	-7.312899e-10	-3.293395e+01	-5.005172e+01
6.400000e-07	-4.724151e-06	-7.303307e-10	-3.276735e+01	-4.995196e+01
6.500000e-07	-4.699725e-06	-7.147441e-10	-3.259792e+01	-4.985056e+01
6.600000e-07	-4.674781e-06	-7.253340e-10	-3.242490e+01	-4.974742e+01
6.700000e-07	-4.649292e-06	-7.283627e-10	-3.224811e+01	-4.964249e+01
6.800000e-07	-4.623251e-06	-7.108793e-10	-3.206749e+01	-4.953570e+01
6.900000e-07	-4.596814e-06	-7.138387e-10	-3.188411e+01	-4.942700e+01
7.000000e-07	-4.569958e-06	-7.210625e-10	-3.169784e+01	-4.931636e+01
7.100000e-07	-4.542755e-06	-7.125561e-10	-3.150916e+01	-4.920375e+01
7.200000e-07	-4.515322e-06	-7.133903e-10	-3.131888e+01	-4.908916e+01
7.300000e-07	-4.487630e-06	-7.171322e-10	-3.112680e+01	-4.897258e+01
7.400000e-07	-4.459734e-06	-7.101215e-10	-3.093331e+01	-4.885403e+01
7.500000e-07	-4.431623e-06	-7.110267e-10	-3.073833e+01	-4.873352e+01
7.600000e-07	-4.403285e-06	-7.115131e-10	-3.054177e+01	-4.861110e+01
7.700000e-07	-4.374625e-06	-7.030171e-10	-3.034299e+01	-4.848680e+01
7.800000e-07	-4.345589e-06	-7.046156e-10	-3.014159e+01	-4.836069e+01
7.900000e-07	-4.316242e-06	-7.095419e-10	-2.993803e+01	-4.823284e+01
8.000000e-07	-4.286631e-06	-7.029484e-10	-2.973264e+01	-4.810331e+01
8.100000e-07	-4.256760e-06	-6.955627e-10	-2.952546e+01	-4.797219e+01
8.200000e-07	-4.226549e-06	-6.999419e-10	-2.931591e+01	-4.783958e+01
8.300000e-07	-4.196016e-06	-6.976136e-10	-2.910413e+01	-4.770557e+01
8.400000e-07	-4.165179e-06	-6.902642e-10	-2.889024e+01	-4.757026e+01
8.500000e-07	-4.134090e-06	-6.909046e-10	-2.867460e+01	-4.743374e+01
8.600000e-07	-4.102766e-06	-6.931936e-10	-2.845733e+01	-4.729611e+01
8.700000e-07	-4.071218e-06	-6.865309e-10	-2.823851e+01	-4.715748e+01
8.800000e-07	-4.039506e-06	-6.813728e-10	-2.801856e+01	-4.701792e+01
8.900000e-07	-4.007618e-06	-6.794769e-10	-2.779737e+01	-4.687754e+01
9.000000e-07	-3.975591e-06	-6.755034e-10	-2.757523e+01	-4.673639e+01
9.100000e-07	-3.943276e-06	-6.706571e-10	-2.735109e+01	-4.659455e+01
9.200000e-07	-3.910519e-06	-6.739536e-10	-2.712389e+01	-4.645208e+01
9.300000e-07	-3.877277e-06	-6.763009e-10	-2.689331e+01	-4.630900e+01
9.400000e-07	-3.843464e-06	-6.735453e-10	-2.665878e+01	-4.616535e+01
9.500000e-07	-3.809204e-06	-6.732785e-10	-2.642115e+01	-4.602112e+01
9.600000e-07	-3.774625e-06	-6.760217e-10	-2.618130e+01	-4.587631e+01
9.700000e-07	-3.739676e-06	-6.708747e-10	-2.593890e+01	-4.573088e+01
9.800000e-07	-3.704435e-06	-6.652376e-10	-2.569446e+01	-4.558477e+01
9.900000e-07	-3.669005e-06	-6.673432e-10	-2.544871e+01	-4.543792e+01
1.000000e-06	-3.633373e-06	-6.694040e-10	-2.520156e+01	-4.529022e+01
1.010000e-06	-3.597609e-06	-6.663799e-10	-2.495350e+01	-4.514155e+01
1.020000e-06	-3.561744e-06	-6.652727e-10	-2.470473e+01	-4.499178e+01
1.030000e-06	-3.525709e-06	-6.662788e-10	-2.445479e+01	-4.484073e+01
1.040000e-06	-3.489487e-06	-6.618364e-10	-2.420355e+01	-4.468822e+01
1.050000e-06	-3.452984e-06	-6.562422e-10	-2.395036e+01	-4.453404e+01
1.060000e-06	-3.416170e-06	-6.515282e-10	-2.369502e+01	-4.437797e+01
1.070000e-06	-3.379076e-06	-6.470911e-10	-2.343773e+01	-4.421976e+01
1.080000e-06	-3.341725e-06	-6.462481e-10	-2.317865e+01	-4.405915e+01
1.090000e-06	-3.304136e-06	-6.499157e-10	-2.291793e+01	-4.389586e+01
1.100000e-06	-3.266277e-06	-6.513336e-10	-2.265534e+01	-4.372960e+01
1.110000e-06	-3.228188e-06	-6.469870e-10	-2.239114e+01	-4.356006e+01
1.120000e-06	-3.189916e-06	-6.402343e-10	-2.212569e+01	-4.338695e+01
1.130000e-06	-3.151438e-06	-6.354856e-10	-2.185880e+01	-4.320993e+01
1.140000e-06	-3.112719e-06	-6.304975e-10	-2.159023e+01	-4.302868e+01
1.150000e-06	-3.073795e-06	-6.269095e-10	-2.132026e+01	-4.284289e+01
1.160000e-06	-3.034660e-06	-6.250925e-10	-2.104881e+01	-4.265223e+01
1.170000e-06	-2.995257e-06	-6.240388e-10	-2.077550e+01	-4.245637e+01
1.180000e-06	-2.955704e-06	-6.215468e-10	-2.050116e+01	-4.225500e+01
1.190000e-06	-2.916128e-06	-6.186787e-10	-2.022666e+01	-4.204782e+01
1.200000e-06	-2.876460e-06	-6.135918e-10	-1.995151e+01	-4.183453e+01
1.210000e-06	-2.836618e-06	-6.062670e-10	-1.967516e+01	-4.161484e+01
1.220000e-06	-2.796641e-06	-5.975820e-10	-1.939788e+01	-4.138849e+01
1.230000e-06	-2.756457e-06	-5.916758e-10	-1.911915e+01	-4.115523e+01
1.240000e-06	-2.715954e-06	-5.890350e-10	-1.883822e+01	-4.091482e+01
1.250000e-06	-2.675179e-06	-5.876147e-10	-1.855540e+01	-4.066704e+01
1.260000e-06	-2.634310e-06	-5.871792e-10	-1.827193e+01	-4.041171e+01
1.270000e-06	-2.593358e-06	-5.872012e-10	-1.798788e+01	-4.014864e+01
1.280000e-06	-2.552108e-06	-5.821714e-10	-1.770176e+01	-3.987770e+01
1.290000e-06	-2.510596e-06	-5.741772e-10	-1.741383e+01	-3.959876e+01
1.300000e-06	-2.468732e-06	-5.672911e-10	-1.712346e+01	-3.931170e+01
1.310000e-06	-2.426449e-06	-5.618614e-10	-1.683018e+01	-3.901645e+01
1.320000e-06	-2.383871e-06	-5.579479e-10	-1.653485e+01	-3.871295e+01
1.330000e-06	-2.340981e-06	-5.560246e-10	-1.623736e+01	-3.840114e+01
1.340000e-06	-2.297795e-06	-5.561874e-10	-1.593781e+01	-3.808102e+01
1.350000e-06	-2.254416e-06	-5.519626e-10	-1.563693e+01	-3.775257e+01
1.360000e-06	-2.210932e-06	-5.458561e-10	-1.533532e+01	-3.741581e+01
1.370000e-06	-2.167393e-06	-5.405214e-10	-1.503333e+01	-3.707076e+01
1.380000e-06	-2.123779e-06	-5.349244e-10	-1.473081e+01	-3.671746e+01
1.390000e-06	-2.080026e-06	-5.297818e-10	-1.442734e+01	-3.635594e+01
1.400000e-06	-2.036214e-06	-5.269051e-10	-1.412345e+01	-3.598625e+01
1.410000e-06	-1.992418e-06	-5.250161e-10	-1.381968e+01	-3.560845e+01
1.420000e-06	-1.948549e-06	-5.216973e-10	-1.351540e+01	-3.522259e+01
1.430000e-06	-1.904503e-06	-5.161175e-10	-1.320989e+01	-3.482870e+01
1.440000e-06	-1.860307e-06	-5.080657e-10	-1.290334e+01	-3.442685e+01
1.450000e-06	-1.815989e-06	-4.984797e-10	-1.259594e+01	-3.401704e+01
1.460000e-06	-1.771562e-06	-4.902470e-10	-1.228779e+01	-3.359931e+01
1.470000e-06	-1.727032e-06	-4.825904e-10	-1.197893e+01	-3.317366e+01
1.480000e-06	-1.682302e-06	-4.738724e-10	-1.166867e+01	-3.274006e+01
1.490000e-06	-1.637390e-06	-4.649019e-10	-1.135716e+01	-3.229848e+01
1.500000e-06	-1.592320e-06	-4.574364e-10	-1.104455e+01	-3.184887e+01
1.510000e-06	-1.547187e-06	-4.494791e-10	-1.073150e+01	-3.139113e+01
1.520000e-06	-1.502042e-06	-4.399617e-10	-1.041836e+01	-3.092515e+01
1.530000e-06	-1.456766e-06	-4.289547e-10	-1.010432e+01	-3.045080e+01
1.540000e-06	-1.411358e-06	-4.191246e-10	-9.789368e+00	-2.996790e+01
1.550000e-06	-1.365824e-06	-4.114165e-10	-9.473536e+00	-2.947624e+01
1.560000e-06	-1.320223e-06	-4.023509e-10	-9.157247e+00	-2.897560e+01
1.570000e-06	-1.274568e-06	-3.926762e-10	-8.840572e+00	-2.846571e+01
1.580000e-06	-1.228821e-06	-3.836371e-10	-8.523269e+00	-2.794629e+01
1.590000e-06	-1.183026e-06	-3.747579e-10	-8.205628e+00	-2.741700e+01
1.600000e-06	-1.137002e-06	-3.664452e-10	-7.886395e+00	-2.687750e+01
1.610000e-06	-1.090792e-06	-3.606766e-10	-7.565883e+00	-2.632742e+01
1.620000e-06	-1.044545e-06	-3.549142e-10	-7.245106e+00	-2.576635e+01
1.630000e-06	-9.982627e-07	-3.466831e-10	-6.924084e+00	-2.519388e+01
1.640000e-06	-9.519524e-07	-3.362960e-10	-6.602869e+00	-2.460958e+01
1.650000e-06	-9.054918e-07	-3.243597e-10	-6.280612e+00	-2.401300e+01
1.660000e-06	-8.589004e-07	-3.122017e-10	-5.957448e+00	-2.340369e+01
1.670000e-06	-8.123759e-07	-3.019379e-10	-5.634748e+00	-2.278117e+01
1.680000e-06	-7.659524e-07	-2.931727e-10	-5.312748e+00	-2.214500e+01
1.690000e-06	-7.194934e-07	-2.842706e-10	-4.990502e+00	-2.149472e+01
1.700000e-06	-6.729914e-07	-2.775298e-10	-4.667959e+00	-2.082989e+01
1.710000e-06	-6.264013e-07	-2.709392e-10	-4.344804e+00	-2.015007e+01
1.720000e-06	-5.797260e-07	-2.604841e-10	-4.021057e+00	-1.945487e+01
1.730000e-06	-5.330100e-07	-2.470050e-10	-3.697029e+00	-1.874390e+01
1.740000e-06	-4.863191e-07	-2.347248e-10	-3.373174e+00	-1.801682e+01
1.750000e-06	-4.396145e-07	-2.238811e-10	-3.049225e+00	-1.727332e+01
1.760000e-06	-3.928334e-07	-2.132172e-10	-2.724745e+00	-1.651314e+01
1.770000e-06	-3.459711e-07	-2.022577e-10	-2.399702e+00	-1.573606e+01
1.780000e-06	-2.990231e-07	-1.922640e-10	-2.074064e+00	-1.494192e+01
1.790000e-06	-2.520866e-07	-1.817741e-10	-1.748506e+00	-1.413062e+01
1.800000e-06	-2.051420e-07	-1.692563e-10	-1.422893e+00	-1.330213e+01
1.810000e-06	-1.581616e-07	-1.565054e-10	-1.097030e+00	-1.245646e+01
1.820000e-06	-1.112282e-07	-1.420346e-10	-7.714934e-01	-1.159374e+01
1.830000e-06	-6.432204e-08	-1.271321e-10	-4.461463e-01	-1.071412e+01
1.840000e-06	-1.743184e-08	-1.136164e-10	-1.209096e-01	-9.817867e+00
1.850000e-06	2.945316e-08	-1.013082e-10	2.042911e-01	-8.905308e+00
1.860000e-06	7.632648e-08	-9.020533e-11	5.294107e-01	-7.976856e+00
1.870000e-06	1.231807e-07	-7.814338e-11	8.543979e-01	-7.033006e+00
1.880000e-06	1.700671e-07	-6.448904e-11	1.179608e+00	-6.074332e+00
1.890000e-06	2.169058e-07	-5.078085e-11	1.504487e+00	-5.101493e+00
1.900000e-06	2.637226e-07	-3.654597e-11	1.829215e+00	-4.115227e+00
1.910000e-06	3.105585e-07	-2.107173e-11	2.154075e+00	-3.116348e+00
1.920000e-06	3.573701e-07	-5.736868e-12	2.478767e+00	-2.105751e+00
1.930000e-06	4.042451e-07	8.981549e-12	2.803898e+00	-1.084400e+00
1.940000e-06	4.510935e-07	2.322920e-11	3.128845e+00	-5.332947e-02
1.950000e-06	4.977893e-07	3.439977e-11	3.452733e+00	9.863597e-01
1.960000e-06	5.444159e-07	4.490408e-11	3.776142e+00	2.033508e+00
1.970000e-06	5.909847e-07	5.740432e-11	4.099149e+00	3.086900e+00
1.980000e-06	6.374642e-07	7.224733e-11	4.421537e+00	4.145273e+00
1.990000e-06	6.839454e-07	8.805299e-11	4.743937e+00	5.207320e+00
2.000000e-06	7.304252e-07	1.044175e-10	5.066327e+00	6.271701e+00
2.010000e-06	7.768381e-07	1.207272e-10	5.388253e+00	7.337045e+00
2.020000e-06	8.231679e-07	1.353082e-10	5.709603e+00	8.401962e+00
2.030000e-06	8.694539e-07	1.490794e-10	6.030649e+00	9.465050e+00
2.040000e-06	9.157805e-07	1.634686e-10	6.351976e+00	1.052490e+01
2.050000e-06	9.620531e-07	1.773471e-10	6.672929e+00	1.158010e+01
2.060000e-06	1.008233e-06	1.905364e-10	6.993242e+00	1.262927e+01
2.070000e-06	1.054338e-06	2.052166e-10	7.313032e+00	1.367101e+01
2.080000e-06	1.100342e-06	2.220215e-10	7.632117e+00	1.470400e+01
2.090000e-06	1.146246e-06	2.384350e-10	7.950515e+00	1.572690e+01
2.100000e-06	1.192040e-06	2.549463e-10	8.268147e+00	1.673846e+01
2.110000e-06	1.237788e-06	2.707493e-10	8.585464e+00	1.773744e+01
2.120000e-06	1.283485e-06	2.835661e-10	8.902422e+00	1.872268e+01
2.130000e-06	1.329022e-06	2.944658e-10	9.218276e+00	1.969307e+01
2.140000e-06	1.374449e-06	3.045309e-10	9.533362e+00	2.064759e+01
2.150000e-06	1.419849e-06	3.151346e-10	9.848262e+00	2.158526e+01
2.160000e-06	1.465175e-06	3.270150e-10	1.016265e+01	2.250520e+01
2.170000e-06	1.510313e-06	3.429061e-10	1.047573e+01	2.340662e+01
2.180000e-06	1.555308e-06	3.592212e-10	1.078782e+01	2.428880e+01
2.190000e-06	1.600231e-06	3.708269e-10	1.109942e+01	2.515111e+01
2.200000e-06	1.645078e-06	3.789157e-10	1.141048e+01	2.599303e+01
2.210000e-06	1.689820e-06	3.869069e-10	1.172082e+01	2.681412e+01
2.220000e-06	1.734350e-06	3.963821e-10	1.202968e+01	2.761402e+01
2.230000e-06	1.778715e-06	4.055066e-10	1.233741e+01	2.839249e+01
2.240000e-06	1.822950e-06	4.131793e-10	1.264422e+01	2.914937e+01
2.250000e-06	1.867035e-06	4.219897e-10	1.295001e+01	2.988459e+01
2.260000e-06	1.911005e-06	4.323348e-10	1.325499e+01	3.059818e+01
2.270000e-06	1.954870e-06	4.428289e-10	1.355924e+01	3.129024e+01
2.280000e-06	1.998689e-06	4.520706e-10	1.386318e+01	3.196098e+01
2.290000e-06	2.042457e-06	4.591768e-10	1.416676e+01	3.261065e+01
2.300000e-06	2.086144e-06	4.650686e-10	1.446978e+01	3.323962e+01
2.310000e-06	2.129831e-06	4.729217e-10	1.477279e+01	3.384830e+01
2.320000e-06	2.173459e-06	4.827668e-10	1.507540e+01	3.443717e+01
2.330000e-06	2.216963e-06	4.910980e-10	1.537715e+01	3.500678e+01
2.340000e-06	2.260381e-06	4.974472e-10	1.567830e+01	3.555772e+01
2.350000e-06	2.303623e-06	5.043603e-10	1.597824e+01	3.609062e+01
2.360000e-06	2.346594e-06	5.121403e-10	1.627629e+01	3.660618e+01
2.370000e-06	2.389288e-06	5.190552e-10	1.657242e+01	3.710510e+01
2.380000e-06	2.431837e-06	5.248945e-10	1.686755e+01	3.758812e+01
2.390000e-06	2.474248e-06	5.307175e-10	1.716172e+01	3.805599e+01
2.400000e-06	2.516294e-06	5.361291e-10	1.745335e+01	3.850948e+01
2.410000e-06	2.557930e-06	5.426871e-10	1.774215e+01	3.894937e+01
2.420000e-06	2.599295e-06	5.509108e-10	1.802906e+01	3.937642e+01
2.430000e-06	2.640361e-06	5.587289e-10	1.831390e+01	3.979140e+01
2.440000e-06	2.681028e-06	5.649415e-10	1.859597e+01	4.019504e+01
2.450000e-06	2.721445e-06	5.712278e-10	1.887630e+01	4.058809e+01
2.460000e-06	2.761684e-06	5.795001e-10	1.915541e+01	4.097123e+01
2.470000e-06	2.801723e-06	5.872314e-10	1.943313e+01	4.134515e+01
2.480000e-06	2.841629e-06	5.924597e-10	1.970992e+01	4.171046e+01
2.490000e-06	2.881393e-06	5.956830e-10	1.998573e+01	4.206778e+01
2.500000e-06	2.921028e-06	6.005525e-10	2.026064e+01	4.241765e+01
2.510000e-06	2.960494e-06	6.063318e-10	2.053438e+01	4.276058e+01
2.520000e-06	2.999823e-06	6.125740e-10	2.080717e+01	4.309703e+01
2.530000e-06	3.039069e-06	6.194852e-10	2.107939e+01	4.342742e+01
2.540000e-06	3.078149e-06	6.259598e-10	2.135045e+01	4.375209e+01
2.550000e-06	3.116925e-06	6.300647e-10	2.161941e+01	4.407136e+01
2.560000e-06	3.155394e-06	6.332281e-10	2.188624e+01	4.438548e+01
2.570000e-06	3.193658e-06	6.370073e-10	2.215164e+01	4.469467e+01
2.580000e-06	3.231745e-06	6.403756e-10	2.241582e+01	4.499907e+01
2.590000e-06	3.269636e-06	6.432010e-10	2.267863e+01	4.529880e+01
2.600000e-06	3.307325e-06	6.457747e-10	2.294005e+01	4.559391e+01
2.610000e-06	3.344831e-06	6.500817e-10	2.320020e+01	4.588442e+01
2.620000e-06	3.382138e-06	6.575601e-10	2.345896e+01	4.617031e+01
2.630000e-06	3.419210e-06	6.646244e-10	2.371610e+01	4.645152e+01
2.640000e-06	3.455928e-06	6.672893e-10	2.397078e+01	4.672796e+01
2.650000e-06	3.492335e-06	6.683026e-10	2.422330e+01	4.699950e+01
2.660000e-06	3.528526e-06	6.721615e-10	2.447433e+01	4.726599e+01
2.670000e-06	3.564518e-06	6.760535e-10	2.472398e+01	4.752727e+01
2.680000e-06	3.600373e-06	6.780989e-10	2.497267e+01	4.778313e+01
2.690000e-06	3.636110e-06	6.805181e-10	2.522054e+01	4.803339e+01
2.700000e-06	3.671704e-06	6.830517e-10	2.546743e+01	4.827783e+01
2.710000e-06	3.707144e-06	6.865591e-10	2.571324e+01	4.851624e+01
2.720000e-06	3.742354e-06	6.916813e-10	2.595747e+01	4.874840e+01
2.730000e-06	3.777319e-06	6.977204e-10	2.619999e+01	4.897412e+01
2.740000e-06	3.812011e-06	7.015881e-10	2.644062e+01	4.919318e+01
2.750000e-06	3.846159e-06	7.035808e-10	2.667747e+01	4.940542e+01
2.760000e-06	3.879753e-06	7.053298e-10	2.691049e+01	4.961064e+01
2.770000e-06	3.912962e-06	7.052323e-10	2.714083e+01	4.980872e+01
2.780000e-06	3.945723e-06	7.060631e-10	2.736806e+01	4.999952e+01
2.790000e-06	3.978163e-06	7.103270e-10	2.759307e+01	5.018293e+01
2.800000e-06	4.010361e-06	7.183489e-10	2.781640e+01	5.035888e+01
2.810000e-06	4.042245e-06	7.252235e-10	2.803755e+01	5.052733e+01
2.820000e-06	4.073943e-06	7.269786e-10	2.825741e+01	5.068826e+01
2.830000e-06	4.105476e-06	7.268974e-10	2.847613e+01	5.084169e+01
2.840000e-06	4.136812e-06	7.237202e-10	2.869348e+01	5.098766e+01
2.850000e-06	4.167903e-06	7.225257e-10	2.890913e+01	5.112626e+01
2.860000e-06	4.198755e-06	7.258027e-10	2.912313e+01	5.125759e+01
2.870000e-06	4.229307e-06	7.313531e-10	2.933504e+01	5.138181e+01
2.880000e-06	4.259494e-06	7.358864e-10	2.954442e+01	5.149907e+01
2.890000e-06	4.289331e-06	7.393427e-10	2.975138e+01	5.160960e+01
2.900000e-06	4.318827e-06	7.399767e-10	2.995596e+01	5.171361e+01
