# Temperatura_=_-0.3
# Concentracion g/m^3_=_1620.0
# C_Vs_to_Am_M_A/Vsm_=_65563218390.804596
# pendiente_HvsI_1/m_=_3716.3
# ordenada_HvsI_A/m_=_1297.0
# frecuencia_Hz_=_135108.89282199976

Tiempo_(s)	Campo_(V.s)	Magnetizacion_(V.s)	Campo_(kA/m)	Magnetizacion_(A/m)
0.000000e+00	-5.529787e-06	-1.141674e-09	-3.836268e+01	-7.415825e+01
1.000000e-08	-5.530054e-06	-1.140221e-09	-3.836454e+01	-7.416294e+01
2.000000e-08	-5.530108e-06	-1.140158e-09	-3.836491e+01	-7.416634e+01
3.000000e-08	-5.529920e-06	-1.140983e-09	-3.836361e+01	-7.416845e+01
4.000000e-08	-5.529283e-06	-1.139245e-09	-3.835919e+01	-7.416921e+01
5.000000e-08	-5.528072e-06	-1.135436e-09	-3.835079e+01	-7.416857e+01
6.000000e-08	-5.526195e-06	-1.127371e-09	-3.833776e+01	-7.416649e+01
7.000000e-08	-5.523685e-06	-1.107662e-09	-3.832035e+01	-7.416289e+01
8.000000e-08	-5.520695e-06	-1.101822e-09	-3.829961e+01	-7.415770e+01
9.000000e-08	-5.517241e-06	-1.152953e-09	-3.827564e+01	-7.415082e+01
1.000000e-07	-5.513330e-06	-1.220460e-09	-3.824851e+01	-7.414218e+01
1.100000e-07	-5.508984e-06	-1.180813e-09	-3.821836e+01	-7.413167e+01
1.200000e-07	-5.504392e-06	-1.072131e-09	-3.818651e+01	-7.411920e+01
1.300000e-07	-5.499674e-06	-1.052005e-09	-3.815377e+01	-7.410467e+01
1.400000e-07	-5.494598e-06	-1.148875e-09	-3.811856e+01	-7.408798e+01
1.500000e-07	-5.489067e-06	-1.157913e-09	-3.808019e+01	-7.406901e+01
1.600000e-07	-5.483181e-06	-1.064612e-09	-3.803936e+01	-7.404768e+01
1.700000e-07	-5.476979e-06	-1.052826e-09	-3.799633e+01	-7.402387e+01
1.800000e-07	-5.470349e-06	-1.174555e-09	-3.795034e+01	-7.399751e+01
1.900000e-07	-5.463216e-06	-1.220052e-09	-3.790085e+01	-7.396848e+01
2.000000e-07	-5.455705e-06	-1.129104e-09	-3.784875e+01	-7.393672e+01
2.100000e-07	-5.448004e-06	-1.076224e-09	-3.779532e+01	-7.390213e+01
2.200000e-07	-5.440116e-06	-1.138411e-09	-3.774060e+01	-7.386466e+01
2.300000e-07	-5.431914e-06	-1.185749e-09	-3.768369e+01	-7.382422e+01
2.400000e-07	-5.423399e-06	-1.151454e-09	-3.762462e+01	-7.378078e+01
2.500000e-07	-5.414328e-06	-1.142679e-09	-3.756170e+01	-7.373427e+01
2.600000e-07	-5.404376e-06	-1.176061e-09	-3.749265e+01	-7.368467e+01
2.700000e-07	-5.393692e-06	-1.195768e-09	-3.741853e+01	-7.363194e+01
2.800000e-07	-5.382653e-06	-1.154170e-09	-3.734195e+01	-7.357608e+01
2.900000e-07	-5.371261e-06	-1.136776e-09	-3.726292e+01	-7.351706e+01
3.000000e-07	-5.359471e-06	-1.170047e-09	-3.718112e+01	-7.345489e+01
3.100000e-07	-5.347306e-06	-1.188120e-09	-3.709673e+01	-7.338957e+01
3.200000e-07	-5.334681e-06	-1.141511e-09	-3.700914e+01	-7.332113e+01
3.300000e-07	-5.321610e-06	-1.117327e-09	-3.691847e+01	-7.324959e+01
3.400000e-07	-5.308164e-06	-1.143121e-09	-3.682518e+01	-7.317498e+01
3.500000e-07	-5.294411e-06	-1.154667e-09	-3.672977e+01	-7.309733e+01
3.600000e-07	-5.280325e-06	-1.113421e-09	-3.663205e+01	-7.301670e+01
3.700000e-07	-5.265751e-06	-1.113221e-09	-3.653094e+01	-7.293314e+01
3.800000e-07	-5.250626e-06	-1.148468e-09	-3.642602e+01	-7.284668e+01
3.900000e-07	-5.234993e-06	-1.139244e-09	-3.631756e+01	-7.275740e+01
4.000000e-07	-5.218758e-06	-1.112287e-09	-3.620493e+01	-7.266534e+01
4.100000e-07	-5.202089e-06	-1.137581e-09	-3.608929e+01	-7.257056e+01
4.200000e-07	-5.185228e-06	-1.136586e-09	-3.597232e+01	-7.247312e+01
4.300000e-07	-5.168081e-06	-1.082815e-09	-3.585336e+01	-7.237308e+01
4.400000e-07	-5.150538e-06	-1.096679e-09	-3.573166e+01	-7.227050e+01
4.500000e-07	-5.132648e-06	-1.151944e-09	-3.560755e+01	-7.216541e+01
4.600000e-07	-5.114334e-06	-1.117838e-09	-3.548050e+01	-7.205788e+01
4.700000e-07	-5.095494e-06	-1.074003e-09	-3.534980e+01	-7.194794e+01
4.800000e-07	-5.076321e-06	-1.120321e-09	-3.521678e+01	-7.183563e+01
4.900000e-07	-5.056940e-06	-1.130180e-09	-3.508232e+01	-7.172099e+01
5.000000e-07	-5.037327e-06	-1.082823e-09	-3.494626e+01	-7.160404e+01
5.100000e-07	-5.017520e-06	-1.098523e-09	-3.480885e+01	-7.148481e+01
5.200000e-07	-4.997456e-06	-1.123089e-09	-3.466966e+01	-7.136331e+01
5.300000e-07	-4.976982e-06	-1.069233e-09	-3.452762e+01	-7.123954e+01
5.400000e-07	-4.956039e-06	-1.067445e-09	-3.438233e+01	-7.111352e+01
5.500000e-07	-4.934752e-06	-1.121263e-09	-3.423465e+01	-7.098524e+01
5.600000e-07	-4.913209e-06	-1.093002e-09	-3.408520e+01	-7.085469e+01
5.700000e-07	-4.891354e-06	-1.045705e-09	-3.393358e+01	-7.072186e+01
5.800000e-07	-4.869104e-06	-1.089355e-09	-3.377922e+01	-7.058672e+01
5.900000e-07	-4.846439e-06	-1.102147e-09	-3.362199e+01	-7.044926e+01
6.000000e-07	-4.823471e-06	-1.061245e-09	-3.346265e+01	-7.030944e+01
6.100000e-07	-4.800257e-06	-1.075571e-09	-3.330160e+01	-7.016723e+01
6.200000e-07	-4.776777e-06	-1.100197e-09	-3.313871e+01	-7.002261e+01
6.300000e-07	-4.753064e-06	-1.058872e-09	-3.297420e+01	-6.987553e+01
6.400000e-07	-4.729144e-06	-1.043982e-09	-3.280826e+01	-6.972597e+01
6.500000e-07	-4.704893e-06	-1.067244e-09	-3.264002e+01	-6.957389e+01
6.600000e-07	-4.680207e-06	-1.056654e-09	-3.246876e+01	-6.941925e+01
6.700000e-07	-4.655072e-06	-1.045283e-09	-3.229438e+01	-6.926203e+01
6.800000e-07	-4.629329e-06	-1.066683e-09	-3.211579e+01	-6.910219e+01
6.900000e-07	-4.602984e-06	-1.060201e-09	-3.193302e+01	-6.893971e+01
7.000000e-07	-4.576120e-06	-1.039551e-09	-3.174666e+01	-6.877457e+01
7.100000e-07	-4.548808e-06	-1.047534e-09	-3.155718e+01	-6.860675e+01
7.200000e-07	-4.521271e-06	-1.045742e-09	-3.136614e+01	-6.843623e+01
7.300000e-07	-4.493626e-06	-1.024839e-09	-3.117436e+01	-6.826302e+01
7.400000e-07	-4.465871e-06	-1.026513e-09	-3.098181e+01	-6.808710e+01
7.500000e-07	-4.437944e-06	-1.038175e-09	-3.078807e+01	-6.790849e+01
7.600000e-07	-4.409701e-06	-1.033322e-09	-3.059213e+01	-6.772720e+01
7.700000e-07	-4.381142e-06	-1.030947e-09	-3.039400e+01	-6.754323e+01
7.800000e-07	-4.352238e-06	-1.031807e-09	-3.019348e+01	-6.735662e+01
7.900000e-07	-4.322967e-06	-1.020901e-09	-2.999042e+01	-6.716738e+01
8.000000e-07	-4.293418e-06	-1.013816e-09	-2.978542e+01	-6.697556e+01
8.100000e-07	-4.263601e-06	-1.016232e-09	-2.957857e+01	-6.678118e+01
8.200000e-07	-4.233480e-06	-1.006371e-09	-2.936960e+01	-6.658429e+01
8.300000e-07	-4.202975e-06	-9.981800e-10	-2.915798e+01	-6.638492e+01
8.400000e-07	-4.172115e-06	-1.001231e-09	-2.894389e+01	-6.618312e+01
8.500000e-07	-4.141002e-06	-9.994356e-10	-2.872804e+01	-6.597894e+01
8.600000e-07	-4.109712e-06	-9.894522e-10	-2.851097e+01	-6.577241e+01
8.700000e-07	-4.078221e-06	-9.908680e-10	-2.829250e+01	-6.556357e+01
8.800000e-07	-4.046564e-06	-9.917880e-10	-2.807288e+01	-6.535246e+01
8.900000e-07	-4.014804e-06	-9.834241e-10	-2.785255e+01	-6.513912e+01
9.000000e-07	-3.982828e-06	-9.782942e-10	-2.763071e+01	-6.492358e+01
9.100000e-07	-3.950514e-06	-9.773170e-10	-2.740654e+01	-6.470584e+01
9.200000e-07	-3.917844e-06	-9.652556e-10	-2.717989e+01	-6.448593e+01
9.300000e-07	-3.884795e-06	-9.580605e-10	-2.695062e+01	-6.426385e+01
9.400000e-07	-3.851375e-06	-9.621888e-10	-2.671877e+01	-6.403958e+01
9.500000e-07	-3.817474e-06	-9.623022e-10	-2.648358e+01	-6.381311e+01
9.600000e-07	-3.783016e-06	-9.566675e-10	-2.624453e+01	-6.358441e+01
9.700000e-07	-3.748140e-06	-9.583459e-10	-2.600258e+01	-6.335343e+01
9.800000e-07	-3.712932e-06	-9.570967e-10	-2.575832e+01	-6.312010e+01
9.900000e-07	-3.677467e-06	-9.473768e-10	-2.551229e+01	-6.288436e+01
1.000000e-06	-3.641838e-06	-9.427546e-10	-2.526511e+01	-6.264611e+01
1.010000e-06	-3.606105e-06	-9.410454e-10	-2.501721e+01	-6.240524e+01
1.020000e-06	-3.570279e-06	-9.334582e-10	-2.476868e+01	-6.216163e+01
1.030000e-06	-3.534253e-06	-9.283914e-10	-2.451875e+01	-6.191515e+01
1.040000e-06	-3.497998e-06	-9.285926e-10	-2.426722e+01	-6.166563e+01
1.050000e-06	-3.461522e-06	-9.233556e-10	-2.401417e+01	-6.141290e+01
1.060000e-06	-3.424781e-06	-9.136056e-10	-2.375928e+01	-6.115679e+01
1.070000e-06	-3.387776e-06	-9.101643e-10	-2.350256e+01	-6.089709e+01
1.080000e-06	-3.350490e-06	-9.066576e-10	-2.324390e+01	-6.063360e+01
1.090000e-06	-3.312944e-06	-8.998665e-10	-2.298342e+01	-6.036607e+01
1.100000e-06	-3.275177e-06	-8.958075e-10	-2.272141e+01	-6.009430e+01
1.110000e-06	-3.237252e-06	-8.910320e-10	-2.245831e+01	-5.981802e+01
1.120000e-06	-3.199076e-06	-8.803282e-10	-2.219347e+01	-5.953699e+01
1.130000e-06	-3.160571e-06	-8.696146e-10	-2.192634e+01	-5.925095e+01
1.140000e-06	-3.121856e-06	-8.657349e-10	-2.165776e+01	-5.895963e+01
1.150000e-06	-3.082956e-06	-8.583044e-10	-2.138789e+01	-5.866279e+01
1.160000e-06	-3.043927e-06	-8.497208e-10	-2.111713e+01	-5.836014e+01
1.170000e-06	-3.004739e-06	-8.469466e-10	-2.084526e+01	-5.805143e+01
1.180000e-06	-2.965371e-06	-8.456564e-10	-2.057214e+01	-5.773640e+01
1.190000e-06	-2.925850e-06	-8.410274e-10	-2.029797e+01	-5.741479e+01
1.200000e-06	-2.886212e-06	-8.383576e-10	-2.002299e+01	-5.708635e+01
1.210000e-06	-2.846478e-06	-8.352314e-10	-1.974733e+01	-5.675084e+01
1.220000e-06	-2.806588e-06	-8.277415e-10	-1.947059e+01	-5.640803e+01
1.230000e-06	-2.766543e-06	-8.199530e-10	-1.919279e+01	-5.605770e+01
1.240000e-06	-2.726370e-06	-8.158884e-10	-1.891409e+01	-5.569965e+01
1.250000e-06	-2.685901e-06	-8.082571e-10	-1.863334e+01	-5.533368e+01
1.260000e-06	-2.645016e-06	-8.009182e-10	-1.834970e+01	-5.495961e+01
1.270000e-06	-2.603844e-06	-7.973696e-10	-1.806407e+01	-5.457729e+01
1.280000e-06	-2.562484e-06	-7.946601e-10	-1.777714e+01	-5.418657e+01
1.290000e-06	-2.520926e-06	-7.870202e-10	-1.748883e+01	-5.378732e+01
1.300000e-06	-2.479139e-06	-7.771271e-10	-1.719893e+01	-5.337943e+01
1.310000e-06	-2.436991e-06	-7.682026e-10	-1.690653e+01	-5.296280e+01
1.320000e-06	-2.394484e-06	-7.600580e-10	-1.661164e+01	-5.253736e+01
1.330000e-06	-2.351655e-06	-7.523052e-10	-1.631452e+01	-5.210304e+01
1.340000e-06	-2.308521e-06	-7.478392e-10	-1.601528e+01	-5.165980e+01
1.350000e-06	-2.265181e-06	-7.427454e-10	-1.571461e+01	-5.120760e+01
1.360000e-06	-2.221676e-06	-7.357788e-10	-1.541279e+01	-5.074642e+01
1.370000e-06	-2.178129e-06	-7.284038e-10	-1.511069e+01	-5.027625e+01
1.380000e-06	-2.134561e-06	-7.218070e-10	-1.480844e+01	-4.979707e+01
1.390000e-06	-2.090903e-06	-7.162098e-10	-1.450556e+01	-4.930891e+01
1.400000e-06	-2.047202e-06	-7.091961e-10	-1.420238e+01	-4.881176e+01
1.410000e-06	-2.003429e-06	-7.001370e-10	-1.389871e+01	-4.830563e+01
1.420000e-06	-1.959488e-06	-6.895976e-10	-1.359387e+01	-4.779055e+01
1.430000e-06	-1.915486e-06	-6.812455e-10	-1.328861e+01	-4.726650e+01
1.440000e-06	-1.871398e-06	-6.733239e-10	-1.298275e+01	-4.673350e+01
1.450000e-06	-1.827127e-06	-6.659211e-10	-1.267562e+01	-4.619155e+01
1.460000e-06	-1.782734e-06	-6.567167e-10	-1.236765e+01	-4.564062e+01
1.470000e-06	-1.738234e-06	-6.465231e-10	-1.205893e+01	-4.508069e+01
1.480000e-06	-1.693582e-06	-6.357792e-10	-1.174916e+01	-4.451171e+01
1.490000e-06	-1.648788e-06	-6.261579e-10	-1.143840e+01	-4.393363e+01
1.500000e-06	-1.603821e-06	-6.159220e-10	-1.112644e+01	-4.334635e+01
1.510000e-06	-1.558689e-06	-6.051526e-10	-1.081335e+01	-4.274980e+01
1.520000e-06	-1.513495e-06	-5.932837e-10	-1.049981e+01	-4.214382e+01
1.530000e-06	-1.468229e-06	-5.798106e-10	-1.018578e+01	-4.152828e+01
1.540000e-06	-1.422833e-06	-5.656078e-10	-9.870850e+00	-4.090301e+01
1.550000e-06	-1.377319e-06	-5.527931e-10	-9.555100e+00	-4.026779e+01
1.560000e-06	-1.331731e-06	-5.417880e-10	-9.238834e+00	-3.962240e+01
1.570000e-06	-1.286131e-06	-5.318038e-10	-8.922481e+00	-3.896658e+01
1.580000e-06	-1.240501e-06	-5.237264e-10	-8.605927e+00	-3.830004e+01
1.590000e-06	-1.194771e-06	-5.165927e-10	-8.288677e+00	-3.762249e+01
1.600000e-06	-1.148898e-06	-5.054904e-10	-7.970434e+00	-3.693357e+01
1.610000e-06	-1.102880e-06	-4.929111e-10	-7.651186e+00	-3.623293e+01
1.620000e-06	-1.056749e-06	-4.807475e-10	-7.331157e+00	-3.552019e+01
1.630000e-06	-1.010596e-06	-4.691162e-10	-7.010970e+00	-3.479494e+01
1.640000e-06	-9.643868e-07	-4.565421e-10	-6.690397e+00	-3.405676e+01
1.650000e-06	-9.180727e-07	-4.420726e-10	-6.369094e+00	-3.330522e+01
1.660000e-06	-8.716716e-07	-4.281169e-10	-6.047188e+00	-3.253988e+01
1.670000e-06	-8.251771e-07	-4.147341e-10	-5.724634e+00	-3.176027e+01
1.680000e-06	-7.786902e-07	-4.038121e-10	-5.402133e+00	-3.096595e+01
1.690000e-06	-7.321823e-07	-3.939634e-10	-5.079487e+00	-3.015646e+01
1.700000e-06	-6.856433e-07	-3.860594e-10	-4.756624e+00	-2.933134e+01
1.710000e-06	-6.391438e-07	-3.767917e-10	-4.434035e+00	-2.849017e+01
1.720000e-06	-5.926013e-07	-3.622877e-10	-4.111149e+00	-2.763251e+01
1.730000e-06	-5.459377e-07	-3.439042e-10	-3.787422e+00	-2.675796e+01
1.740000e-06	-4.992215e-07	-3.259630e-10	-3.463330e+00	-2.586615e+01
1.750000e-06	-4.524858e-07	-3.088501e-10	-3.139103e+00	-2.495672e+01
1.760000e-06	-4.057432e-07	-2.947216e-10	-2.814828e+00	-2.402937e+01
1.770000e-06	-3.590637e-07	-2.827825e-10	-2.490991e+00	-2.308383e+01
1.780000e-06	-3.122182e-07	-2.711175e-10	-2.166002e+00	-2.211986e+01
1.790000e-06	-2.651747e-07	-2.612920e-10	-1.839640e+00	-2.113731e+01
1.800000e-06	-2.181867e-07	-2.472807e-10	-1.513662e+00	-2.013605e+01
1.810000e-06	-1.712198e-07	-2.318987e-10	-1.187831e+00	-1.911602e+01
1.820000e-06	-1.241963e-07	-2.157013e-10	-8.616070e-01	-1.807724e+01
1.830000e-06	-7.719804e-08	-1.988262e-10	-5.355585e-01	-1.701977e+01
1.840000e-06	-3.026777e-08	-1.821398e-10	-2.099815e-01	-1.594376e+01
1.850000e-06	1.667651e-08	-1.644635e-10	1.156926e-01	-1.484943e+01
1.860000e-06	6.370914e-08	-1.506450e-10	4.419797e-01	-1.373708e+01
1.870000e-06	1.107158e-07	-1.367818e-10	7.680865e-01	-1.260708e+01
1.880000e-06	1.576985e-07	-1.237613e-10	1.094027e+00	-1.145987e+01
1.890000e-06	2.046787e-07	-1.103524e-10	1.419951e+00	-1.029600e+01
1.900000e-06	2.515613e-07	-9.594704e-11	1.745197e+00	-9.116075e+00
1.910000e-06	2.984454e-07	-7.888977e-11	2.070453e+00	-7.920781e+00
1.920000e-06	3.453332e-07	-5.895935e-11	2.395736e+00	-6.710891e+00
1.930000e-06	3.921729e-07	-4.040474e-11	2.720684e+00	-5.487250e+00
1.940000e-06	4.389687e-07	-2.118992e-11	3.045328e+00	-4.250779e+00
1.950000e-06	4.857051e-07	-5.520776e-12	3.369561e+00	-3.002468e+00
1.960000e-06	5.324108e-07	7.425944e-12	3.693580e+00	-1.743377e+00
1.970000e-06	5.790382e-07	2.046862e-11	4.017055e+00	-4.746277e-01
1.980000e-06	6.255916e-07	3.727738e-11	4.340018e+00	8.025988e-01
1.990000e-06	6.720977e-07	5.892119e-11	4.662652e+00	2.087067e+00
2.000000e-06	7.185836e-07	7.922487e-11	4.985146e+00	3.377494e+00
2.010000e-06	7.650331e-07	1.008943e-10	5.307388e+00	4.672555e+00
2.020000e-06	8.113824e-07	1.208306e-10	5.628934e+00	5.970887e+00
2.030000e-06	8.576494e-07	1.375757e-10	5.949910e+00	7.271103e+00
2.040000e-06	9.038299e-07	1.550298e-10	6.270285e+00	8.571788e+00
2.050000e-06	9.499623e-07	1.720798e-10	6.590327e+00	9.871518e+00
2.060000e-06	9.960474e-07	1.897776e-10	6.910040e+00	1.116886e+01
2.070000e-06	1.042117e-06	2.071147e-10	7.229645e+00	1.246238e+01
2.080000e-06	1.088168e-06	2.267981e-10	7.549122e+00	1.375065e+01
2.090000e-06	1.134082e-06	2.466994e-10	7.867651e+00	1.503226e+01
2.100000e-06	1.179837e-06	2.648060e-10	8.185076e+00	1.630583e+01
2.110000e-06	1.225506e-06	2.837402e-10	8.501897e+00	1.757000e+01
2.120000e-06	1.271117e-06	3.022973e-10	8.818322e+00	1.882346e+01
2.130000e-06	1.316632e-06	3.194856e-10	9.134082e+00	2.006492e+01
2.140000e-06	1.362074e-06	3.351019e-10	9.449339e+00	2.129316e+01
2.150000e-06	1.407511e-06	3.497648e-10	9.764555e+00	2.250703e+01
2.160000e-06	1.452813e-06	3.633108e-10	1.007883e+01	2.370541e+01
2.170000e-06	1.497962e-06	3.775028e-10	1.039205e+01	2.488728e+01
2.180000e-06	1.543040e-06	3.950094e-10	1.070478e+01	2.605166e+01
2.190000e-06	1.588021e-06	4.128390e-10	1.101683e+01	2.719768e+01
2.200000e-06	1.632895e-06	4.303262e-10	1.132814e+01	2.832454e+01
2.210000e-06	1.677650e-06	4.467371e-10	1.163863e+01	2.943150e+01
2.220000e-06	1.722268e-06	4.618364e-10	1.194817e+01	3.051795e+01
2.230000e-06	1.766717e-06	4.749633e-10	1.225653e+01	3.158333e+01
2.240000e-06	1.811027e-06	4.869518e-10	1.256393e+01	3.262719e+01
2.250000e-06	1.855226e-06	5.002320e-10	1.287056e+01	3.364916e+01
2.260000e-06	1.899353e-06	5.149558e-10	1.317669e+01	3.464896e+01
2.270000e-06	1.943359e-06	5.308156e-10	1.348198e+01	3.562641e+01
2.280000e-06	1.987259e-06	5.450139e-10	1.378653e+01	3.658140e+01
2.290000e-06	2.031131e-06	5.575598e-10	1.409089e+01	3.751391e+01
2.300000e-06	2.074902e-06	5.686033e-10	1.439455e+01	3.842401e+01
2.310000e-06	2.118584e-06	5.774776e-10	1.469760e+01	3.931184e+01
2.320000e-06	2.162214e-06	5.861085e-10	1.500028e+01	4.017761e+01
2.330000e-06	2.205773e-06	5.952915e-10	1.530247e+01	4.102162e+01
2.340000e-06	2.249221e-06	6.057116e-10	1.560388e+01	4.184420e+01
2.350000e-06	2.292528e-06	6.175971e-10	1.590433e+01	4.264579e+01
2.360000e-06	2.335691e-06	6.293953e-10	1.620376e+01	4.342683e+01
2.370000e-06	2.378627e-06	6.411220e-10	1.650163e+01	4.418785e+01
2.380000e-06	2.421187e-06	6.511105e-10	1.679689e+01	4.492941e+01
2.390000e-06	2.463385e-06	6.596091e-10	1.708964e+01	4.565209e+01
2.400000e-06	2.505323e-06	6.684837e-10	1.738058e+01	4.635653e+01
2.410000e-06	2.547076e-06	6.779137e-10	1.767024e+01	4.704337e+01
2.420000e-06	2.588546e-06	6.892085e-10	1.795794e+01	4.771328e+01
2.430000e-06	2.629565e-06	7.030075e-10	1.824251e+01	4.836693e+01
2.440000e-06	2.670241e-06	7.159569e-10	1.852469e+01	4.900501e+01
2.450000e-06	2.710708e-06	7.283849e-10	1.880544e+01	4.962820e+01
2.460000e-06	2.750993e-06	7.397096e-10	1.908491e+01	5.023718e+01
2.470000e-06	2.791086e-06	7.481744e-10	1.936305e+01	5.083259e+01
2.480000e-06	2.830976e-06	7.542857e-10	1.963978e+01	5.141509e+01
2.490000e-06	2.870730e-06	7.592141e-10	1.991558e+01	5.198530e+01
2.500000e-06	2.910420e-06	7.664063e-10	2.019093e+01	5.254381e+01
2.510000e-06	2.950044e-06	7.753698e-10	2.046582e+01	5.309119e+01
2.520000e-06	2.989547e-06	7.851219e-10	2.073986e+01	5.362796e+01
2.530000e-06	3.028825e-06	7.973922e-10	2.101236e+01	5.415462e+01
2.540000e-06	3.067817e-06	8.089986e-10	2.128286e+01	5.467163e+01
2.550000e-06	3.106549e-06	8.158974e-10	2.155156e+01	5.517938e+01
2.560000e-06	3.145145e-06	8.206422e-10	2.181932e+01	5.567825e+01
2.570000e-06	3.183544e-06	8.264658e-10	2.208572e+01	5.616857e+01
2.580000e-06	3.221637e-06	8.324582e-10	2.234998e+01	5.665060e+01
2.590000e-06	3.259504e-06	8.382670e-10	2.261269e+01	5.712459e+01
2.600000e-06	3.297198e-06	8.447846e-10	2.287419e+01	5.759072e+01
2.610000e-06	3.334683e-06	8.522690e-10	2.313423e+01	5.804914e+01
2.620000e-06	3.371973e-06	8.620260e-10	2.339293e+01	5.849996e+01
2.630000e-06	3.409035e-06	8.721649e-10	2.365005e+01	5.894324e+01
2.640000e-06	3.445817e-06	8.797088e-10	2.390522e+01	5.937902e+01
2.650000e-06	3.482362e-06	8.856482e-10	2.415875e+01	5.980728e+01
2.660000e-06	3.518666e-06	8.913203e-10	2.441061e+01	6.022800e+01
2.670000e-06	3.554742e-06	8.949715e-10	2.466089e+01	6.064111e+01
2.680000e-06	3.590658e-06	8.976910e-10	2.491005e+01	6.104652e+01
2.690000e-06	3.626498e-06	9.015505e-10	2.515869e+01	6.144412e+01
2.700000e-06	3.662178e-06	9.060333e-10	2.540622e+01	6.183379e+01
2.710000e-06	3.697635e-06	9.114650e-10	2.565220e+01	6.221539e+01
2.720000e-06	3.732886e-06	9.187443e-10	2.589675e+01	6.258877e+01
2.730000e-06	3.767864e-06	9.276562e-10	2.613941e+01	6.295378e+01
2.740000e-06	3.802463e-06	9.367031e-10	2.637944e+01	6.331027e+01
2.750000e-06	3.836715e-06	9.424561e-10	2.661706e+01	6.365809e+01
2.760000e-06	3.870568e-06	9.455333e-10	2.685192e+01	6.399709e+01
2.770000e-06	3.903825e-06	9.476386e-10	2.708264e+01	6.432715e+01
2.780000e-06	3.936567e-06	9.499856e-10	2.730978e+01	6.464814e+01
2.790000e-06	3.968926e-06	9.548516e-10	2.753427e+01	6.495996e+01
2.800000e-06	4.000965e-06	9.615406e-10	2.775654e+01	6.526254e+01
2.810000e-06	4.032790e-06	9.699726e-10	2.797732e+01	6.555581e+01
2.820000e-06	4.064520e-06	9.769258e-10	2.819745e+01	6.583973e+01
2.830000e-06	4.096139e-06	9.805405e-10	2.841681e+01	6.611430e+01
2.840000e-06	4.127594e-06	9.814390e-10	2.863503e+01	6.637953e+01
2.850000e-06	4.158763e-06	9.819919e-10	2.885126e+01	6.663547e+01
2.860000e-06	4.189666e-06	9.848946e-10	2.906565e+01	6.688220e+01
2.870000e-06	4.220238e-06	9.901101e-10	2.927774e+01	6.711983e+01
2.880000e-06	4.250350e-06	9.958418e-10	2.948664e+01	6.734849e+01
2.890000e-06	4.280151e-06	1.001884e-09	2.969338e+01	6.756834e+01
2.900000e-06	4.309723e-06	1.006210e-09	2.989854e+01	6.777958e+01
