# Temperatura_=_-0.4
# Concentracion g/m^3_=_1620.0
# C_Vs_to_Am_M_A/Vsm_=_65563218390.804596
# pendiente_HvsI_1/m_=_3716.3
# ordenada_HvsI_A/m_=_1297.0
# frecuencia_Hz_=_135091.83079967322

Tiempo_(s)	Campo_(V.s)	Magnetizacion_(V.s)	Campo_(kA/m)	Magnetizacion_(A/m)
0.000000e+00	-5.521181e-06	-1.419173e-09	-3.837868e+01	-9.244925e+01
1.000000e-08	-5.521472e-06	-1.413782e-09	-3.838070e+01	-9.245324e+01
2.000000e-08	-5.521541e-06	-1.411448e-09	-3.838119e+01	-9.245710e+01
3.000000e-08	-5.521262e-06	-1.413011e-09	-3.837924e+01	-9.246085e+01
4.000000e-08	-5.520539e-06	-1.413207e-09	-3.837422e+01	-9.246450e+01
5.000000e-08	-5.519339e-06	-1.413372e-09	-3.836588e+01	-9.246801e+01
6.000000e-08	-5.517611e-06	-1.412219e-09	-3.835386e+01	-9.247135e+01
7.000000e-08	-5.515251e-06	-1.397878e-09	-3.833746e+01	-9.247444e+01
8.000000e-08	-5.512250e-06	-1.386266e-09	-3.831660e+01	-9.247719e+01
9.000000e-08	-5.508835e-06	-1.418259e-09	-3.829286e+01	-9.247949e+01
1.000000e-07	-5.505026e-06	-1.468221e-09	-3.826638e+01	-9.248118e+01
1.100000e-07	-5.500722e-06	-1.425447e-09	-3.823647e+01	-9.248213e+01
1.200000e-07	-5.496119e-06	-1.356675e-09	-3.820447e+01	-9.248216e+01
1.300000e-07	-5.491445e-06	-1.348530e-09	-3.817198e+01	-9.248107e+01
1.400000e-07	-5.486446e-06	-1.429620e-09	-3.813723e+01	-9.247866e+01
1.500000e-07	-5.480962e-06	-1.416384e-09	-3.809911e+01	-9.247471e+01
1.600000e-07	-5.475132e-06	-1.347497e-09	-3.805859e+01	-9.246899e+01
1.700000e-07	-5.469005e-06	-1.349577e-09	-3.801600e+01	-9.246127e+01
1.800000e-07	-5.462394e-06	-1.435726e-09	-3.797004e+01	-9.245130e+01
1.900000e-07	-5.455190e-06	-1.454437e-09	-3.791997e+01	-9.243883e+01
2.000000e-07	-5.447677e-06	-1.387522e-09	-3.786774e+01	-9.242361e+01
2.100000e-07	-5.440051e-06	-1.390650e-09	-3.781473e+01	-9.240540e+01
2.200000e-07	-5.432104e-06	-1.450047e-09	-3.775949e+01	-9.238393e+01
2.300000e-07	-5.423819e-06	-1.482351e-09	-3.770190e+01	-9.235896e+01
2.400000e-07	-5.415297e-06	-1.427844e-09	-3.764266e+01	-9.233025e+01
2.500000e-07	-5.406192e-06	-1.429382e-09	-3.757937e+01	-9.229757e+01
2.600000e-07	-5.396192e-06	-1.457248e-09	-3.750986e+01	-9.226068e+01
2.700000e-07	-5.385592e-06	-1.468918e-09	-3.743618e+01	-9.221939e+01
2.800000e-07	-5.374630e-06	-1.434185e-09	-3.735998e+01	-9.217347e+01
2.900000e-07	-5.363204e-06	-1.437724e-09	-3.728056e+01	-9.212275e+01
3.000000e-07	-5.351382e-06	-1.443613e-09	-3.719838e+01	-9.206704e+01
3.100000e-07	-5.339223e-06	-1.437018e-09	-3.711386e+01	-9.200618e+01
3.200000e-07	-5.326690e-06	-1.405341e-09	-3.702674e+01	-9.194002e+01
3.300000e-07	-5.313649e-06	-1.406277e-09	-3.693609e+01	-9.186844e+01
3.400000e-07	-5.300231e-06	-1.419319e-09	-3.684282e+01	-9.179132e+01
3.500000e-07	-5.286514e-06	-1.418242e-09	-3.674747e+01	-9.170856e+01
3.600000e-07	-5.272320e-06	-1.401912e-09	-3.664881e+01	-9.162008e+01
3.700000e-07	-5.257711e-06	-1.418409e-09	-3.654725e+01	-9.152581e+01
3.800000e-07	-5.242631e-06	-1.431530e-09	-3.644243e+01	-9.142570e+01
3.900000e-07	-5.226813e-06	-1.399178e-09	-3.633248e+01	-9.131973e+01
4.000000e-07	-5.210496e-06	-1.380901e-09	-3.621906e+01	-9.120787e+01
4.100000e-07	-5.193856e-06	-1.411145e-09	-3.610339e+01	-9.109011e+01
4.200000e-07	-5.176898e-06	-1.407269e-09	-3.598551e+01	-9.096647e+01
4.300000e-07	-5.159664e-06	-1.362980e-09	-3.586572e+01	-9.083696e+01
4.400000e-07	-5.142062e-06	-1.388961e-09	-3.574336e+01	-9.070163e+01
4.500000e-07	-5.124182e-06	-1.422084e-09	-3.561908e+01	-9.056051e+01
4.600000e-07	-5.105895e-06	-1.386171e-09	-3.549195e+01	-9.041365e+01
4.700000e-07	-5.087179e-06	-1.356885e-09	-3.536186e+01	-9.026113e+01
4.800000e-07	-5.068133e-06	-1.399097e-09	-3.522947e+01	-9.010301e+01
4.900000e-07	-5.048717e-06	-1.389947e-09	-3.509450e+01	-8.993935e+01
5.000000e-07	-5.029084e-06	-1.356533e-09	-3.495803e+01	-8.977026e+01
5.100000e-07	-5.009251e-06	-1.367422e-09	-3.482017e+01	-8.959581e+01
5.200000e-07	-4.989170e-06	-1.378029e-09	-3.468058e+01	-8.941608e+01
5.300000e-07	-4.968802e-06	-1.337226e-09	-3.453900e+01	-8.923118e+01
5.400000e-07	-4.948037e-06	-1.349618e-09	-3.439466e+01	-8.904120e+01
5.500000e-07	-4.926949e-06	-1.379667e-09	-3.424807e+01	-8.884622e+01
5.600000e-07	-4.905624e-06	-1.355620e-09	-3.409984e+01	-8.864634e+01
5.700000e-07	-4.883936e-06	-1.330859e-09	-3.394908e+01	-8.844166e+01
5.800000e-07	-4.861732e-06	-1.360702e-09	-3.379474e+01	-8.823226e+01
5.900000e-07	-4.839070e-06	-1.350628e-09	-3.363721e+01	-8.801824e+01
6.000000e-07	-4.816071e-06	-1.320024e-09	-3.347734e+01	-8.779969e+01
6.100000e-07	-4.792872e-06	-1.329888e-09	-3.331608e+01	-8.757668e+01
6.200000e-07	-4.769417e-06	-1.342370e-09	-3.315304e+01	-8.734931e+01
6.300000e-07	-4.745683e-06	-1.313994e-09	-3.298806e+01	-8.711765e+01
6.400000e-07	-4.721770e-06	-1.312747e-09	-3.282184e+01	-8.688179e+01
6.500000e-07	-4.697564e-06	-1.331502e-09	-3.265358e+01	-8.664180e+01
6.600000e-07	-4.672970e-06	-1.317398e-09	-3.248262e+01	-8.639774e+01
6.700000e-07	-4.647908e-06	-1.303334e-09	-3.230841e+01	-8.614970e+01
6.800000e-07	-4.622296e-06	-1.314771e-09	-3.213038e+01	-8.589774e+01
6.900000e-07	-4.596127e-06	-1.309430e-09	-3.194847e+01	-8.564193e+01
7.000000e-07	-4.569455e-06	-1.290945e-09	-3.176307e+01	-8.538233e+01
7.100000e-07	-4.542366e-06	-1.295704e-09	-3.157477e+01	-8.511900e+01
7.200000e-07	-4.515002e-06	-1.294158e-09	-3.138456e+01	-8.485201e+01
7.300000e-07	-4.487417e-06	-1.275305e-09	-3.119281e+01	-8.458142e+01
7.400000e-07	-4.459637e-06	-1.269160e-09	-3.099970e+01	-8.430728e+01
7.500000e-07	-4.431629e-06	-1.279505e-09	-3.080502e+01	-8.402966e+01
7.600000e-07	-4.403327e-06	-1.271399e-09	-3.060828e+01	-8.374861e+01
7.700000e-07	-4.374852e-06	-1.266678e-09	-3.041035e+01	-8.346420e+01
7.800000e-07	-4.346116e-06	-1.268288e-09	-3.021060e+01	-8.317647e+01
7.900000e-07	-4.316931e-06	-1.260226e-09	-3.000773e+01	-8.288548e+01
8.000000e-07	-4.287378e-06	-1.243724e-09	-2.980230e+01	-8.259129e+01
8.100000e-07	-4.257584e-06	-1.242747e-09	-2.959520e+01	-8.229396e+01
8.200000e-07	-4.227533e-06	-1.233082e-09	-2.938631e+01	-8.199353e+01
8.300000e-07	-4.197156e-06	-1.221489e-09	-2.917515e+01	-8.169006e+01
8.400000e-07	-4.166436e-06	-1.223082e-09	-2.896162e+01	-8.138360e+01
8.500000e-07	-4.135352e-06	-1.227832e-09	-2.874555e+01	-8.107420e+01
8.600000e-07	-4.104045e-06	-1.218615e-09	-2.852792e+01	-8.076189e+01
8.700000e-07	-4.072643e-06	-1.213587e-09	-2.830965e+01	-8.044673e+01
8.800000e-07	-4.041065e-06	-1.209201e-09	-2.809014e+01	-8.012874e+01
8.900000e-07	-4.009271e-06	-1.198366e-09	-2.786914e+01	-7.980796e+01
9.000000e-07	-3.977260e-06	-1.187798e-09	-2.764662e+01	-7.948441e+01
9.100000e-07	-3.945022e-06	-1.185615e-09	-2.742253e+01	-7.915811e+01
9.200000e-07	-3.912416e-06	-1.177864e-09	-2.719588e+01	-7.882908e+01
9.300000e-07	-3.879392e-06	-1.171944e-09	-2.696632e+01	-7.849732e+01
9.400000e-07	-3.845967e-06	-1.173055e-09	-2.673398e+01	-7.816282e+01
9.500000e-07	-3.812038e-06	-1.171298e-09	-2.649813e+01	-7.782557e+01
9.600000e-07	-3.777733e-06	-1.162819e-09	-2.625967e+01	-7.748555e+01
9.700000e-07	-3.743049e-06	-1.156638e-09	-2.601858e+01	-7.714271e+01
9.800000e-07	-3.707968e-06	-1.152731e-09	-2.577473e+01	-7.679702e+01
9.900000e-07	-3.672591e-06	-1.143270e-09	-2.552881e+01	-7.644840e+01
1.000000e-06	-3.637000e-06	-1.136123e-09	-2.528141e+01	-7.609680e+01
1.010000e-06	-3.601343e-06	-1.131453e-09	-2.503356e+01	-7.574212e+01
1.020000e-06	-3.565584e-06	-1.123921e-09	-2.478499e+01	-7.538427e+01
1.030000e-06	-3.529650e-06	-1.116044e-09	-2.453521e+01	-7.502314e+01
1.040000e-06	-3.493497e-06	-1.114119e-09	-2.428390e+01	-7.465859e+01
1.050000e-06	-3.457171e-06	-1.109760e-09	-2.403139e+01	-7.429050e+01
1.060000e-06	-3.420565e-06	-1.100891e-09	-2.377694e+01	-7.391871e+01
1.070000e-06	-3.383537e-06	-1.092158e-09	-2.351955e+01	-7.354305e+01
1.080000e-06	-3.346247e-06	-1.087721e-09	-2.326034e+01	-7.316335e+01
1.090000e-06	-3.308713e-06	-1.080117e-09	-2.299943e+01	-7.277943e+01
1.100000e-06	-3.270996e-06	-1.073856e-09	-2.273726e+01	-7.239108e+01
1.110000e-06	-3.233179e-06	-1.066690e-09	-2.247438e+01	-7.199809e+01
1.120000e-06	-3.195096e-06	-1.056843e-09	-2.220966e+01	-7.160024e+01
1.130000e-06	-3.156755e-06	-1.044026e-09	-2.194315e+01	-7.119731e+01
1.140000e-06	-3.118241e-06	-1.037876e-09	-2.167543e+01	-7.078906e+01
1.150000e-06	-3.079525e-06	-1.035293e-09	-2.140631e+01	-7.037525e+01
1.160000e-06	-3.040552e-06	-1.030674e-09	-2.113540e+01	-6.995564e+01
1.170000e-06	-3.001322e-06	-1.025634e-09	-2.086271e+01	-6.952998e+01
1.180000e-06	-2.961887e-06	-1.022904e-09	-2.058859e+01	-6.909801e+01
1.190000e-06	-2.922363e-06	-1.016616e-09	-2.031385e+01	-6.865948e+01
1.200000e-06	-2.882763e-06	-1.009468e-09	-2.003858e+01	-6.821415e+01
1.210000e-06	-2.842971e-06	-1.002555e-09	-1.976198e+01	-6.776176e+01
1.220000e-06	-2.803010e-06	-9.931591e-10	-1.948421e+01	-6.730207e+01
1.230000e-06	-2.763016e-06	-9.823297e-10	-1.920620e+01	-6.683484e+01
1.240000e-06	-2.722920e-06	-9.749107e-10	-1.892748e+01	-6.635984e+01
1.250000e-06	-2.682570e-06	-9.686886e-10	-1.864701e+01	-6.587682e+01
1.260000e-06	-2.641986e-06	-9.625911e-10	-1.836490e+01	-6.538558e+01
1.270000e-06	-2.601170e-06	-9.598219e-10	-1.808118e+01	-6.488589e+01
1.280000e-06	-2.559975e-06	-9.559515e-10	-1.779483e+01	-6.437756e+01
1.290000e-06	-2.518525e-06	-9.469365e-10	-1.750670e+01	-6.386040e+01
1.300000e-06	-2.476832e-06	-9.342928e-10	-1.721689e+01	-6.333421e+01
1.310000e-06	-2.434742e-06	-9.213347e-10	-1.692431e+01	-6.279884e+01
1.320000e-06	-2.392349e-06	-9.090556e-10	-1.662963e+01	-6.225411e+01
1.330000e-06	-2.349621e-06	-8.979905e-10	-1.633262e+01	-6.169987e+01
1.340000e-06	-2.306658e-06	-8.912984e-10	-1.603398e+01	-6.113598e+01
1.350000e-06	-2.263588e-06	-8.861932e-10	-1.573459e+01	-6.056232e+01
1.360000e-06	-2.220380e-06	-8.782697e-10	-1.543425e+01	-5.997876e+01
1.370000e-06	-2.176960e-06	-8.702477e-10	-1.513243e+01	-5.938518e+01
1.380000e-06	-2.133462e-06	-8.617418e-10	-1.483006e+01	-5.878148e+01
1.390000e-06	-2.089945e-06	-8.510216e-10	-1.452757e+01	-5.816757e+01
1.400000e-06	-2.046297e-06	-8.370651e-10	-1.422416e+01	-5.754334e+01
1.410000e-06	-2.002601e-06	-8.264398e-10	-1.392043e+01	-5.690870e+01
1.420000e-06	-1.958809e-06	-8.155650e-10	-1.361602e+01	-5.626356e+01
1.430000e-06	-1.914825e-06	-8.042016e-10	-1.331028e+01	-5.560784e+01
1.440000e-06	-1.870739e-06	-7.950898e-10	-1.300383e+01	-5.494145e+01
1.450000e-06	-1.826562e-06	-7.877413e-10	-1.269674e+01	-5.426429e+01
1.460000e-06	-1.782243e-06	-7.772867e-10	-1.238868e+01	-5.357627e+01
1.470000e-06	-1.737819e-06	-7.663605e-10	-1.207988e+01	-5.287729e+01
1.480000e-06	-1.693245e-06	-7.552870e-10	-1.177004e+01	-5.216723e+01
1.490000e-06	-1.648514e-06	-7.413045e-10	-1.145910e+01	-5.144598e+01
1.500000e-06	-1.603756e-06	-7.270525e-10	-1.114798e+01	-5.071341e+01
1.510000e-06	-1.558951e-06	-7.158069e-10	-1.083654e+01	-4.996937e+01
1.520000e-06	-1.513960e-06	-7.046156e-10	-1.052379e+01	-4.921371e+01
1.530000e-06	-1.468707e-06	-6.899081e-10	-1.020924e+01	-4.844627e+01
1.540000e-06	-1.423383e-06	-6.741280e-10	-9.894184e+00	-4.766685e+01
1.550000e-06	-1.378049e-06	-6.616527e-10	-9.579053e+00	-4.687526e+01
1.560000e-06	-1.332616e-06	-6.488747e-10	-9.263241e+00	-4.607129e+01
1.570000e-06	-1.287071e-06	-6.367180e-10	-8.946655e+00	-4.525469e+01
1.580000e-06	-1.241387e-06	-6.244639e-10	-8.629092e+00	-4.442523e+01
1.590000e-06	-1.195598e-06	-6.108423e-10	-8.310808e+00	-4.358264e+01
1.600000e-06	-1.149778e-06	-5.965816e-10	-7.992305e+00	-4.272664e+01
1.610000e-06	-1.103960e-06	-5.818557e-10	-7.673819e+00	-4.185695e+01
1.620000e-06	-1.058023e-06	-5.673125e-10	-7.354501e+00	-4.097325e+01
1.630000e-06	-1.011933e-06	-5.542684e-10	-7.034122e+00	-4.007523e+01
1.640000e-06	-9.657300e-07	-5.402130e-10	-6.712956e+00	-3.916257e+01
1.650000e-06	-9.194541e-07	-5.214907e-10	-6.391284e+00	-3.823495e+01
1.660000e-06	-8.731570e-07	-5.038354e-10	-6.069465e+00	-3.729201e+01
1.670000e-06	-8.268624e-07	-4.867632e-10	-5.747663e+00	-3.633345e+01
1.680000e-06	-7.806012e-07	-4.729899e-10	-5.426094e+00	-3.535891e+01
1.690000e-06	-7.343540e-07	-4.616483e-10	-5.104621e+00	-3.436807e+01
1.700000e-06	-6.879736e-07	-4.517081e-10	-4.782223e+00	-3.336063e+01
1.710000e-06	-6.414285e-07	-4.368775e-10	-4.458680e+00	-3.233626e+01
1.720000e-06	-5.948248e-07	-4.169500e-10	-4.134730e+00	-3.129469e+01
1.730000e-06	-5.481846e-07	-3.964204e-10	-3.810526e+00	-3.023564e+01
1.740000e-06	-5.015428e-07	-3.778554e-10	-3.486310e+00	-2.915888e+01
1.750000e-06	-4.548404e-07	-3.604729e-10	-3.161674e+00	-2.806420e+01
1.760000e-06	-4.081040e-07	-3.470924e-10	-2.836802e+00	-2.695140e+01
1.770000e-06	-3.613128e-07	-3.345782e-10	-2.511548e+00	-2.582036e+01
1.780000e-06	-3.144151e-07	-3.207642e-10	-2.185554e+00	-2.467097e+01
1.790000e-06	-2.674525e-07	-3.059238e-10	-1.859108e+00	-2.350317e+01
1.800000e-06	-2.204495e-07	-2.864036e-10	-1.532383e+00	-2.231696e+01
1.810000e-06	-1.735744e-07	-2.649890e-10	-1.206546e+00	-2.111238e+01
1.820000e-06	-1.267661e-07	-2.446811e-10	-8.811730e-01	-1.988954e+01
1.830000e-06	-7.994005e-08	-2.278618e-10	-5.556771e-01	-1.864860e+01
1.840000e-06	-3.315746e-08	-2.124342e-10	-2.304832e-01	-1.738978e+01
1.850000e-06	1.365306e-08	-1.968093e-10	9.490475e-02	-1.611336e+01
1.860000e-06	6.057710e-08	-1.831108e-10	4.210819e-01	-1.481971e+01
1.870000e-06	1.074760e-07	-1.662382e-10	7.470841e-01	-1.350924e+01
1.880000e-06	1.543660e-07	-1.466999e-10	1.073025e+00	-1.218245e+01
1.890000e-06	2.012395e-07	-1.280019e-10	1.398851e+00	-1.083988e+01
1.900000e-06	2.480617e-07	-1.085162e-10	1.724320e+00	-9.482180e+00
1.910000e-06	2.948945e-07	-8.847793e-11	2.049863e+00	-8.110034e+00
1.920000e-06	3.416894e-07	-6.683844e-11	2.375142e+00	-6.724210e+00
1.930000e-06	3.885041e-07	-4.730979e-11	2.700559e+00	-5.325543e+00
1.940000e-06	4.352973e-07	-2.766589e-11	3.025827e+00	-3.914928e+00
1.950000e-06	4.819426e-07	-1.038233e-11	3.350066e+00	-2.493326e+00
1.960000e-06	5.285086e-07	5.450428e-12	3.673755e+00	-1.061755e+00
1.970000e-06	5.751078e-07	2.208939e-11	3.997674e+00	3.787093e-01
1.980000e-06	6.216687e-07	4.147396e-11	4.321327e+00	1.826940e+00
1.990000e-06	6.680763e-07	6.192187e-11	4.643914e+00	3.281764e+00
2.000000e-06	7.143816e-07	8.414002e-11	4.965790e+00	4.741962e+00
2.010000e-06	7.606753e-07	1.077564e-10	5.287585e+00	6.206281e+00
2.020000e-06	8.069680e-07	1.295923e-10	5.609374e+00	7.673433e+00
2.030000e-06	8.532167e-07	1.497117e-10	5.930856e+00	9.142106e+00
2.040000e-06	8.994234e-07	1.688899e-10	6.252047e+00	1.061097e+01
2.050000e-06	9.455869e-07	1.871260e-10	6.572938e+00	1.207867e+01
2.060000e-06	9.916286e-07	2.049590e-10	6.892982e+00	1.354386e+01
2.070000e-06	1.037605e-06	2.227879e-10	7.212571e+00	1.500518e+01
2.080000e-06	1.083508e-06	2.437296e-10	7.531654e+00	1.646129e+01
2.090000e-06	1.129260e-06	2.661439e-10	7.849678e+00	1.791085e+01
2.100000e-06	1.174947e-06	2.877607e-10	8.167257e+00	1.935255e+01
2.110000e-06	1.220630e-06	3.091020e-10	8.484808e+00	2.078509e+01
2.120000e-06	1.266182e-06	3.289267e-10	8.801452e+00	2.220723e+01
2.130000e-06	1.311590e-06	3.481464e-10	9.117091e+00	2.361773e+01
2.140000e-06	1.356909e-06	3.656177e-10	9.432110e+00	2.501544e+01
2.150000e-06	1.402174e-06	3.828003e-10	9.746756e+00	2.639923e+01
2.160000e-06	1.447383e-06	3.991931e-10	1.006101e+01	2.776804e+01
2.170000e-06	1.492509e-06	4.183310e-10	1.037469e+01	2.912085e+01
2.180000e-06	1.537519e-06	4.392124e-10	1.068756e+01	3.045673e+01
2.190000e-06	1.582401e-06	4.619173e-10	1.099955e+01	3.177481e+01
2.200000e-06	1.627121e-06	4.844497e-10	1.131040e+01	3.307429e+01
2.210000e-06	1.671711e-06	5.028832e-10	1.162035e+01	3.435445e+01
2.220000e-06	1.716260e-06	5.182970e-10	1.193002e+01	3.561464e+01
2.230000e-06	1.760605e-06	5.332269e-10	1.223827e+01	3.685430e+01
2.240000e-06	1.804773e-06	5.479339e-10	1.254529e+01	3.807296e+01
2.250000e-06	1.848802e-06	5.640728e-10	1.285134e+01	3.927020e+01
2.260000e-06	1.892680e-06	5.816818e-10	1.315634e+01	4.044570e+01
2.270000e-06	1.936526e-06	5.989017e-10	1.346113e+01	4.159924e+01
2.280000e-06	1.980336e-06	6.138348e-10	1.376566e+01	4.273065e+01
2.290000e-06	2.024121e-06	6.276727e-10	1.407001e+01	4.383985e+01
2.300000e-06	2.067849e-06	6.405663e-10	1.437398e+01	4.492683e+01
2.310000e-06	2.111532e-06	6.529621e-10	1.467762e+01	4.599168e+01
2.320000e-06	2.155166e-06	6.664661e-10	1.498093e+01	4.703451e+01
2.330000e-06	2.198671e-06	6.812599e-10	1.528334e+01	4.805555e+01
2.340000e-06	2.242047e-06	6.945224e-10	1.558486e+01	4.905506e+01
2.350000e-06	2.285352e-06	7.077389e-10	1.588587e+01	5.003336e+01
2.360000e-06	2.328496e-06	7.216828e-10	1.618578e+01	5.099083e+01
2.370000e-06	2.371309e-06	7.337734e-10	1.648338e+01	5.192789e+01
2.380000e-06	2.413851e-06	7.454687e-10	1.677909e+01	5.284502e+01
2.390000e-06	2.456095e-06	7.554997e-10	1.707274e+01	5.374270e+01
2.400000e-06	2.498107e-06	7.686318e-10	1.736478e+01	5.462148e+01
2.410000e-06	2.539871e-06	7.828439e-10	1.765508e+01	5.548192e+01
2.420000e-06	2.581181e-06	7.992889e-10	1.794224e+01	5.632458e+01
2.430000e-06	2.622170e-06	8.156689e-10	1.822716e+01	5.715006e+01
2.440000e-06	2.662831e-06	8.288652e-10	1.850980e+01	5.795896e+01
2.450000e-06	2.703132e-06	8.422990e-10	1.878994e+01	5.875186e+01
2.460000e-06	2.743304e-06	8.528291e-10	1.906918e+01	5.952938e+01
2.470000e-06	2.783407e-06	8.624518e-10	1.934794e+01	6.029209e+01
2.480000e-06	2.823358e-06	8.704378e-10	1.962565e+01	6.104056e+01
2.490000e-06	2.863147e-06	8.779691e-10	1.990223e+01	6.177535e+01
2.500000e-06	2.902801e-06	8.882099e-10	2.017787e+01	6.249698e+01
2.510000e-06	2.942310e-06	9.016369e-10	2.045250e+01	6.320598e+01
2.520000e-06	2.981689e-06	9.164318e-10	2.072624e+01	6.390280e+01
2.530000e-06	3.020950e-06	9.296212e-10	2.099915e+01	6.458789e+01
2.540000e-06	3.059924e-06	9.391708e-10	2.127006e+01	6.526166e+01
2.550000e-06	3.098651e-06	9.460010e-10	2.153926e+01	6.592448e+01
2.560000e-06	3.137193e-06	9.513907e-10	2.180717e+01	6.657668e+01
2.570000e-06	3.175438e-06	9.576563e-10	2.207301e+01	6.721856e+01
2.580000e-06	3.213540e-06	9.671390e-10	2.233787e+01	6.785036e+01
2.590000e-06	3.251503e-06	9.765193e-10	2.260176e+01	6.847230e+01
2.600000e-06	3.289181e-06	9.857113e-10	2.286367e+01	6.908455e+01
2.610000e-06	3.326647e-06	9.962413e-10	2.312409e+01	6.968725e+01
2.620000e-06	3.363838e-06	1.008943e-09	2.338262e+01	7.028049e+01
2.630000e-06	3.400795e-06	1.022420e-09	2.363951e+01	7.086433e+01
2.640000e-06	3.437541e-06	1.032933e-09	2.389494e+01	7.143880e+01
2.650000e-06	3.473987e-06	1.038284e-09	2.414829e+01	7.200391e+01
2.660000e-06	3.510126e-06	1.041192e-09	2.439949e+01	7.255961e+01
2.670000e-06	3.546074e-06	1.046847e-09	2.464937e+01	7.310585e+01
2.680000e-06	3.581920e-06	1.054275e-09	2.489854e+01	7.364255e+01
2.690000e-06	3.617646e-06	1.061249e-09	2.514688e+01	7.416962e+01
2.700000e-06	3.653291e-06	1.072361e-09	2.539466e+01	7.468695e+01
2.710000e-06	3.688748e-06	1.084119e-09	2.564112e+01	7.519442e+01
2.720000e-06	3.723943e-06	1.092139e-09	2.588577e+01	7.569188e+01
2.730000e-06	3.758971e-06	1.101618e-09	2.612925e+01	7.617923e+01
2.740000e-06	3.793617e-06	1.109886e-09	2.637009e+01	7.665632e+01
2.750000e-06	3.827658e-06	1.113557e-09	2.660671e+01	7.712303e+01
2.760000e-06	3.861268e-06	1.117318e-09	2.684034e+01	7.757923e+01
2.770000e-06	3.894360e-06	1.123060e-09	2.707037e+01	7.802483e+01
2.780000e-06	3.926974e-06	1.131104e-09	2.729707e+01	7.845973e+01
2.790000e-06	3.959291e-06	1.141256e-09	2.752172e+01	7.888385e+01
2.800000e-06	3.991323e-06	1.151671e-09	2.774437e+01	7.929715e+01
2.810000e-06	4.023215e-06	1.159998e-09	2.796606e+01	7.969958e+01
2.820000e-06	4.054967e-06	1.164924e-09	2.818678e+01	8.009114e+01
2.830000e-06	4.086545e-06	1.169909e-09	2.840628e+01	8.047185e+01
2.840000e-06	4.117965e-06	1.173481e-09	2.862468e+01	8.084175e+01
2.850000e-06	4.149098e-06	1.175916e-09	2.884109e+01	8.120093e+01
2.860000e-06	4.179884e-06	1.182746e-09	2.905509e+01	8.154948e+01
2.870000e-06	4.210353e-06	1.187014e-09	2.926689e+01	8.188755e+01
2.880000e-06	4.240508e-06	1.192918e-09	2.947650e+01	8.221529e+01
2.890000e-06	4.270434e-06	1.200345e-09	2.968453e+01	8.253290e+01
2.900000e-06	4.300093e-06	1.205523e-09	2.989069e+01	8.284060e+01
