# Temperatura_=_-0.3
# Concentracion g/m^3_=_1620.0
# C_Vs_to_Am_M_A/Vsm_=_65563218390.804596
# pendiente_HvsI_1/m_=_3716.3
# ordenada_HvsI_A/m_=_1297.0
# frecuencia_Hz_=_135110.72826769316

Tiempo_(s)	Campo_(V.s)	Magnetizacion_(V.s)	Campo_(kA/m)	Magnetizacion_(A/m)
0.000000e+00	-5.517895e-06	-1.340327e-09	-3.835593e+01	-8.660457e+01
1.000000e-08	-5.518105e-06	-1.342047e-09	-3.835738e+01	-8.661669e+01
2.000000e-08	-5.518011e-06	-1.344110e-09	-3.835673e+01	-8.662774e+01
3.000000e-08	-5.517453e-06	-1.344355e-09	-3.835286e+01	-8.663748e+01
4.000000e-08	-5.516314e-06	-1.343698e-09	-3.834493e+01	-8.664568e+01
5.000000e-08	-5.514586e-06	-1.343428e-09	-3.833292e+01	-8.665206e+01
6.000000e-08	-5.512314e-06	-1.341529e-09	-3.831713e+01	-8.665636e+01
7.000000e-08	-5.509511e-06	-1.321605e-09	-3.829765e+01	-8.665828e+01
8.000000e-08	-5.506203e-06	-1.284060e-09	-3.827465e+01	-8.665753e+01
9.000000e-08	-5.502496e-06	-1.307801e-09	-3.824888e+01	-8.665381e+01
1.000000e-07	-5.498446e-06	-1.407004e-09	-3.822073e+01	-8.664682e+01
1.100000e-07	-5.494077e-06	-1.408095e-09	-3.819036e+01	-8.663626e+01
1.200000e-07	-5.489399e-06	-1.282142e-09	-3.815784e+01	-8.662184e+01
1.300000e-07	-5.484509e-06	-1.242705e-09	-3.812385e+01	-8.660328e+01
1.400000e-07	-5.479331e-06	-1.341328e-09	-3.808786e+01	-8.658029e+01
1.500000e-07	-5.473691e-06	-1.370527e-09	-3.804866e+01	-8.655263e+01
1.600000e-07	-5.467652e-06	-1.252216e-09	-3.800667e+01	-8.652006e+01
1.700000e-07	-5.461247e-06	-1.237671e-09	-3.796216e+01	-8.648235e+01
1.800000e-07	-5.454401e-06	-1.390737e-09	-3.791457e+01	-8.643931e+01
1.900000e-07	-5.447162e-06	-1.427827e-09	-3.786425e+01	-8.639077e+01
2.000000e-07	-5.439689e-06	-1.326237e-09	-3.781230e+01	-8.633658e+01
2.100000e-07	-5.432011e-06	-1.270882e-09	-3.775893e+01	-8.627661e+01
2.200000e-07	-5.423971e-06	-1.357185e-09	-3.770304e+01	-8.621079e+01
2.300000e-07	-5.415527e-06	-1.385544e-09	-3.764435e+01	-8.613905e+01
2.400000e-07	-5.406725e-06	-1.337644e-09	-3.758316e+01	-8.606136e+01
2.500000e-07	-5.397292e-06	-1.319941e-09	-3.751759e+01	-8.597772e+01
2.600000e-07	-5.387049e-06	-1.364293e-09	-3.744639e+01	-8.588815e+01
2.700000e-07	-5.376202e-06	-1.356852e-09	-3.737099e+01	-8.579272e+01
2.800000e-07	-5.365004e-06	-1.305740e-09	-3.729315e+01	-8.569151e+01
2.900000e-07	-5.353415e-06	-1.291486e-09	-3.721259e+01	-8.558463e+01
3.000000e-07	-5.341363e-06	-1.319356e-09	-3.712882e+01	-8.547222e+01
3.100000e-07	-5.328969e-06	-1.319308e-09	-3.704266e+01	-8.535444e+01
3.200000e-07	-5.316162e-06	-1.282191e-09	-3.695364e+01	-8.523147e+01
3.300000e-07	-5.302902e-06	-1.279774e-09	-3.686147e+01	-8.510350e+01
3.400000e-07	-5.289291e-06	-1.308503e-09	-3.676686e+01	-8.497077e+01
3.500000e-07	-5.275339e-06	-1.312427e-09	-3.666987e+01	-8.483348e+01
3.600000e-07	-5.260944e-06	-1.253168e-09	-3.656981e+01	-8.469190e+01
3.700000e-07	-5.246008e-06	-1.265423e-09	-3.646598e+01	-8.454625e+01
3.800000e-07	-5.230626e-06	-1.319404e-09	-3.635907e+01	-8.439679e+01
3.900000e-07	-5.214702e-06	-1.292761e-09	-3.624838e+01	-8.424379e+01
4.000000e-07	-5.198267e-06	-1.231948e-09	-3.613413e+01	-8.408749e+01
4.100000e-07	-5.181573e-06	-1.299809e-09	-3.601809e+01	-8.392814e+01
4.200000e-07	-5.164564e-06	-1.325266e-09	-3.589986e+01	-8.376598e+01
4.300000e-07	-5.147143e-06	-1.227646e-09	-3.577876e+01	-8.360125e+01
4.400000e-07	-5.129342e-06	-1.229828e-09	-3.565502e+01	-8.343417e+01
4.500000e-07	-5.111260e-06	-1.333707e-09	-3.552933e+01	-8.326494e+01
4.600000e-07	-5.092801e-06	-1.269586e-09	-3.540102e+01	-8.309377e+01
4.700000e-07	-5.073882e-06	-1.190654e-09	-3.526951e+01	-8.292082e+01
4.800000e-07	-5.054614e-06	-1.281217e-09	-3.513557e+01	-8.274625e+01
4.900000e-07	-5.035133e-06	-1.308131e-09	-3.500015e+01	-8.257019e+01
5.000000e-07	-5.015481e-06	-1.206654e-09	-3.486355e+01	-8.239276e+01
5.100000e-07	-4.995609e-06	-1.242305e-09	-3.472542e+01	-8.221405e+01
5.200000e-07	-4.975375e-06	-1.296593e-09	-3.458477e+01	-8.203412e+01
5.300000e-07	-4.954660e-06	-1.205120e-09	-3.444077e+01	-8.185303e+01
5.400000e-07	-4.933571e-06	-1.199277e-09	-3.429418e+01	-8.167078e+01
5.500000e-07	-4.912257e-06	-1.298498e-09	-3.414602e+01	-8.148740e+01
5.600000e-07	-4.890644e-06	-1.241224e-09	-3.399579e+01	-8.130284e+01
5.700000e-07	-4.868626e-06	-1.169703e-09	-3.384274e+01	-8.111709e+01
5.800000e-07	-4.846249e-06	-1.249750e-09	-3.368719e+01	-8.093007e+01
5.900000e-07	-4.823539e-06	-1.253433e-09	-3.352933e+01	-8.074172e+01
6.000000e-07	-4.800515e-06	-1.169222e-09	-3.336928e+01	-8.055193e+01
6.100000e-07	-4.777208e-06	-1.203675e-09	-3.320727e+01	-8.036062e+01
6.200000e-07	-4.753656e-06	-1.241667e-09	-3.304356e+01	-8.016765e+01
6.300000e-07	-4.729901e-06	-1.176382e-09	-3.287843e+01	-7.997291e+01
6.400000e-07	-4.705937e-06	-1.181565e-09	-3.271185e+01	-7.977626e+01
6.500000e-07	-4.681610e-06	-1.228920e-09	-3.254275e+01	-7.957757e+01
6.600000e-07	-4.656717e-06	-1.192740e-09	-3.236971e+01	-7.937670e+01
6.700000e-07	-4.631250e-06	-1.171061e-09	-3.219269e+01	-7.917351e+01
6.800000e-07	-4.605247e-06	-1.209611e-09	-3.201194e+01	-7.896785e+01
6.900000e-07	-4.578674e-06	-1.191855e-09	-3.182722e+01	-7.875960e+01
7.000000e-07	-4.551677e-06	-1.165965e-09	-3.163956e+01	-7.854863e+01
7.100000e-07	-4.524453e-06	-1.185143e-09	-3.145032e+01	-7.833482e+01
7.200000e-07	-4.497028e-06	-1.182903e-09	-3.125968e+01	-7.811805e+01
7.300000e-07	-4.469368e-06	-1.156324e-09	-3.106742e+01	-7.789823e+01
7.400000e-07	-4.441526e-06	-1.172938e-09	-3.087389e+01	-7.767528e+01
7.500000e-07	-4.413495e-06	-1.181430e-09	-3.067903e+01	-7.744911e+01
7.600000e-07	-4.385092e-06	-1.162196e-09	-3.048160e+01	-7.721967e+01
7.700000e-07	-4.356324e-06	-1.161217e-09	-3.028163e+01	-7.698691e+01
7.800000e-07	-4.327297e-06	-1.167875e-09	-3.007985e+01	-7.675080e+01
7.900000e-07	-4.297965e-06	-1.149062e-09	-2.987596e+01	-7.651134e+01
8.000000e-07	-4.268260e-06	-1.147144e-09	-2.966948e+01	-7.626851e+01
8.100000e-07	-4.238259e-06	-1.156308e-09	-2.946094e+01	-7.602232e+01
8.200000e-07	-4.208038e-06	-1.142554e-09	-2.925087e+01	-7.577281e+01
8.300000e-07	-4.177567e-06	-1.131777e-09	-2.903905e+01	-7.552001e+01
8.400000e-07	-4.146789e-06	-1.145813e-09	-2.882511e+01	-7.526398e+01
8.500000e-07	-4.115634e-06	-1.143346e-09	-2.860854e+01	-7.500475e+01
8.600000e-07	-4.084270e-06	-1.126407e-09	-2.839053e+01	-7.474241e+01
8.700000e-07	-4.052805e-06	-1.128816e-09	-2.817181e+01	-7.447702e+01
8.800000e-07	-4.021138e-06	-1.127983e-09	-2.795169e+01	-7.420865e+01
8.900000e-07	-3.989248e-06	-1.109915e-09	-2.773001e+01	-7.393737e+01
9.000000e-07	-3.957172e-06	-1.105523e-09	-2.750705e+01	-7.366326e+01
9.100000e-07	-3.924732e-06	-1.109162e-09	-2.728155e+01	-7.338639e+01
9.200000e-07	-3.891802e-06	-1.095332e-09	-2.705265e+01	-7.310682e+01
9.300000e-07	-3.858427e-06	-1.090491e-09	-2.682065e+01	-7.282461e+01
9.400000e-07	-3.824661e-06	-1.100548e-09	-2.658594e+01	-7.253979e+01
9.500000e-07	-3.790507e-06	-1.095997e-09	-2.634853e+01	-7.225242e+01
9.600000e-07	-3.755866e-06	-1.080807e-09	-2.610773e+01	-7.196249e+01
9.700000e-07	-3.720889e-06	-1.082610e-09	-2.586460e+01	-7.167002e+01
9.800000e-07	-3.685696e-06	-1.079093e-09	-2.561997e+01	-7.137499e+01
9.900000e-07	-3.650335e-06	-1.065570e-09	-2.537417e+01	-7.107737e+01
1.000000e-06	-3.614836e-06	-1.061332e-09	-2.512740e+01	-7.077710e+01
1.010000e-06	-3.579172e-06	-1.063992e-09	-2.487950e+01	-7.047410e+01
1.020000e-06	-3.543396e-06	-1.054977e-09	-2.463081e+01	-7.016828e+01
1.030000e-06	-3.507433e-06	-1.049637e-09	-2.438082e+01	-6.985951e+01
1.040000e-06	-3.471226e-06	-1.050146e-09	-2.412914e+01	-6.954766e+01
1.050000e-06	-3.434764e-06	-1.040945e-09	-2.387569e+01	-6.923255e+01
1.060000e-06	-3.397962e-06	-1.025695e-09	-2.361987e+01	-6.891399e+01
1.070000e-06	-3.360854e-06	-1.020435e-09	-2.336193e+01	-6.859179e+01
1.080000e-06	-3.323496e-06	-1.015712e-09	-2.310225e+01	-6.826569e+01
1.090000e-06	-3.285912e-06	-1.007282e-09	-2.284099e+01	-6.793547e+01
1.100000e-06	-3.248152e-06	-1.001424e-09	-2.257852e+01	-6.760084e+01
1.110000e-06	-3.210212e-06	-9.960276e-10	-2.231478e+01	-6.726154e+01
1.120000e-06	-3.172023e-06	-9.840223e-10	-2.204933e+01	-6.691725e+01
1.130000e-06	-3.133566e-06	-9.747708e-10	-2.178201e+01	-6.656768e+01
1.140000e-06	-3.094879e-06	-9.698998e-10	-2.151309e+01	-6.621251e+01
1.150000e-06	-3.056023e-06	-9.619467e-10	-2.124299e+01	-6.585142e+01
1.160000e-06	-3.017010e-06	-9.535988e-10	-2.097180e+01	-6.548408e+01
1.170000e-06	-2.977796e-06	-9.477585e-10	-2.069922e+01	-6.511016e+01
1.180000e-06	-2.938436e-06	-9.410201e-10	-2.042562e+01	-6.472934e+01
1.190000e-06	-2.898949e-06	-9.325601e-10	-2.015114e+01	-6.434129e+01
1.200000e-06	-2.859296e-06	-9.276553e-10	-1.987551e+01	-6.394571e+01
1.210000e-06	-2.819511e-06	-9.217464e-10	-1.959895e+01	-6.354229e+01
1.220000e-06	-2.779616e-06	-9.120794e-10	-1.932163e+01	-6.313074e+01
1.230000e-06	-2.739588e-06	-9.047300e-10	-1.904339e+01	-6.271078e+01
1.240000e-06	-2.699362e-06	-9.007983e-10	-1.876377e+01	-6.228214e+01
1.250000e-06	-2.658758e-06	-8.950521e-10	-1.848153e+01	-6.184459e+01
1.260000e-06	-2.617754e-06	-8.894363e-10	-1.819650e+01	-6.139791e+01
1.270000e-06	-2.576533e-06	-8.837106e-10	-1.790996e+01	-6.094188e+01
1.280000e-06	-2.535122e-06	-8.767848e-10	-1.762211e+01	-6.047634e+01
1.290000e-06	-2.493467e-06	-8.666507e-10	-1.733256e+01	-6.000113e+01
1.300000e-06	-2.451428e-06	-8.574553e-10	-1.704034e+01	-5.951610e+01
1.310000e-06	-2.408972e-06	-8.494581e-10	-1.674522e+01	-5.902116e+01
1.320000e-06	-2.366245e-06	-8.412229e-10	-1.644821e+01	-5.851622e+01
1.330000e-06	-2.323378e-06	-8.351599e-10	-1.615024e+01	-5.800121e+01
1.340000e-06	-2.280382e-06	-8.308869e-10	-1.585136e+01	-5.747609e+01
1.350000e-06	-2.237200e-06	-8.228336e-10	-1.555119e+01	-5.694083e+01
1.360000e-06	-2.193879e-06	-8.125653e-10	-1.525007e+01	-5.639543e+01
1.370000e-06	-2.150452e-06	-8.018347e-10	-1.494820e+01	-5.583989e+01
1.380000e-06	-2.106935e-06	-7.927892e-10	-1.464570e+01	-5.527425e+01
1.390000e-06	-2.063365e-06	-7.849155e-10	-1.434284e+01	-5.469853e+01
1.400000e-06	-2.019726e-06	-7.787992e-10	-1.403949e+01	-5.411277e+01
1.410000e-06	-1.975986e-06	-7.728350e-10	-1.373545e+01	-5.351702e+01
1.420000e-06	-1.932139e-06	-7.644188e-10	-1.343066e+01	-5.291132e+01
1.430000e-06	-1.888212e-06	-7.543619e-10	-1.312531e+01	-5.229572e+01
1.440000e-06	-1.844183e-06	-7.452019e-10	-1.281926e+01	-5.167026e+01
1.450000e-06	-1.799969e-06	-7.354568e-10	-1.251192e+01	-5.103496e+01
1.460000e-06	-1.755654e-06	-7.252617e-10	-1.220388e+01	-5.038984e+01
1.470000e-06	-1.711248e-06	-7.161354e-10	-1.189521e+01	-4.973491e+01
1.480000e-06	-1.666576e-06	-7.065728e-10	-1.158468e+01	-4.907013e+01
1.490000e-06	-1.621737e-06	-6.967043e-10	-1.127300e+01	-4.839548e+01
1.500000e-06	-1.576865e-06	-6.867716e-10	-1.096109e+01	-4.771088e+01
1.510000e-06	-1.531836e-06	-6.747064e-10	-1.064808e+01	-4.701624e+01
1.520000e-06	-1.486668e-06	-6.596359e-10	-1.033411e+01	-4.631143e+01
1.530000e-06	-1.441398e-06	-6.423563e-10	-1.001943e+01	-4.559629e+01
1.540000e-06	-1.396044e-06	-6.260141e-10	-9.704166e+00	-4.487065e+01
1.550000e-06	-1.350669e-06	-6.132051e-10	-9.388753e+00	-4.413425e+01
1.560000e-06	-1.305239e-06	-6.024007e-10	-9.072959e+00	-4.338686e+01
1.570000e-06	-1.259699e-06	-5.936850e-10	-8.756402e+00	-4.262816e+01
1.580000e-06	-1.213988e-06	-5.854262e-10	-8.438660e+00	-4.185783e+01
1.590000e-06	-1.168153e-06	-5.732769e-10	-8.120051e+00	-4.107550e+01
1.600000e-06	-1.122279e-06	-5.564493e-10	-7.801172e+00	-4.028077e+01
1.610000e-06	-1.076410e-06	-5.393069e-10	-7.482328e+00	-3.947320e+01
1.620000e-06	-1.030533e-06	-5.213745e-10	-7.163432e+00	-3.865235e+01
1.630000e-06	-9.845482e-07	-5.054829e-10	-6.843779e+00	-3.781771e+01
1.640000e-06	-9.383593e-07	-4.897723e-10	-6.522712e+00	-3.696879e+01
1.650000e-06	-8.921333e-07	-4.757739e-10	-6.201386e+00	-3.610506e+01
1.660000e-06	-8.459185e-07	-4.647396e-10	-5.880138e+00	-3.522598e+01
1.670000e-06	-7.995649e-07	-4.528303e-10	-5.557926e+00	-3.433099e+01
1.680000e-06	-7.531563e-07	-4.381156e-10	-5.235331e+00	-3.341957e+01
1.690000e-06	-7.067100e-07	-4.202309e-10	-4.912474e+00	-3.249114e+01
1.700000e-06	-6.602411e-07	-4.024223e-10	-4.589460e+00	-3.154518e+01
1.710000e-06	-6.137606e-07	-3.827917e-10	-4.266365e+00	-3.058115e+01
1.720000e-06	-5.671452e-07	-3.638808e-10	-3.942333e+00	-2.959856e+01
1.730000e-06	-5.204938e-07	-3.488052e-10	-3.618050e+00	-2.859691e+01
1.740000e-06	-4.738895e-07	-3.366749e-10	-3.294095e+00	-2.757578e+01
1.750000e-06	-4.272059e-07	-3.265891e-10	-2.969588e+00	-2.653476e+01
1.760000e-06	-3.804400e-07	-3.151497e-10	-2.644510e+00	-2.547349e+01
1.770000e-06	-3.336083e-07	-2.994342e-10	-2.318974e+00	-2.439166e+01
1.780000e-06	-2.867058e-07	-2.810628e-10	-1.992946e+00	-2.328904e+01
1.790000e-06	-2.398437e-07	-2.608126e-10	-1.667199e+00	-2.216544e+01
1.800000e-06	-1.930146e-07	-2.391917e-10	-1.341681e+00	-2.102076e+01
1.810000e-06	-1.461429e-07	-2.190718e-10	-1.015867e+00	-1.985496e+01
1.820000e-06	-9.926269e-08	-2.030957e-10	-6.899936e-01	-1.866809e+01
1.830000e-06	-5.240930e-08	-1.900888e-10	-3.643069e-01	-1.746028e+01
1.840000e-06	-5.580896e-09	-1.768396e-10	-3.879386e-02	-1.623175e+01
1.850000e-06	4.122394e-08	-1.614198e-10	2.865553e-01	-1.498280e+01
1.860000e-06	8.806711e-08	-1.431555e-10	6.121710e-01	-1.371385e+01
1.870000e-06	1.349837e-07	-1.210413e-10	9.382972e-01	-1.242539e+01
1.880000e-06	1.817815e-07	-9.796664e-11	1.263597e+00	-1.111800e+01
1.890000e-06	2.285104e-07	-7.839494e-11	1.588419e+00	-9.792371e+00
1.900000e-06	2.752902e-07	-6.145872e-11	1.913594e+00	-8.449288e+00
1.910000e-06	3.220568e-07	-4.580856e-11	2.238677e+00	-7.089621e+00
1.920000e-06	3.688332e-07	-3.173197e-11	2.563829e+00	-5.714330e+00
1.930000e-06	4.156234e-07	-1.775145e-11	2.889076e+00	-4.324466e+00
1.940000e-06	4.622902e-07	-1.850095e-12	3.213466e+00	-2.921161e+00
1.950000e-06	5.089101e-07	1.593291e-11	3.537529e+00	-1.505626e+00
1.960000e-06	5.554894e-07	3.582289e-11	3.861311e+00	-7.914662e-02
1.970000e-06	6.019937e-07	5.510107e-11	4.184571e+00	1.356926e+00
1.980000e-06	6.485060e-07	7.273694e-11	4.507887e+00	2.801179e+00
1.990000e-06	6.949133e-07	9.161244e-11	4.830473e+00	4.252146e+00
2.000000e-06	7.412310e-07	1.108861e-10	5.152436e+00	5.708313e+00
2.010000e-06	7.875076e-07	1.288203e-10	5.474113e+00	7.168129e+00
2.020000e-06	8.337389e-07	1.472725e-10	5.795476e+00	8.630014e+00
2.030000e-06	8.798933e-07	1.673749e-10	6.116304e+00	1.009236e+01
2.040000e-06	9.259910e-07	1.869696e-10	6.436737e+00	1.155357e+01
2.050000e-06	9.720116e-07	2.053373e-10	6.756635e+00	1.301200e+01
2.060000e-06	1.017880e-06	2.241782e-10	7.075474e+00	1.446606e+01
2.070000e-06	1.063662e-06	2.428234e-10	7.393713e+00	1.591415e+01
2.080000e-06	1.109403e-06	2.615537e-10	7.711669e+00	1.735468e+01
2.090000e-06	1.155119e-06	2.804109e-10	8.029448e+00	1.878614e+01
2.100000e-06	1.200820e-06	2.997007e-10	8.347125e+00	2.020700e+01
2.110000e-06	1.246434e-06	3.200355e-10	8.664194e+00	2.161584e+01
2.120000e-06	1.291964e-06	3.414469e-10	8.980683e+00	2.301126e+01
2.130000e-06	1.337443e-06	3.615792e-10	9.296820e+00	2.439192e+01
2.140000e-06	1.382842e-06	3.786725e-10	9.612391e+00	2.575659e+01
2.150000e-06	1.428162e-06	3.947168e-10	9.927422e+00	2.710408e+01
2.160000e-06	1.473387e-06	4.113213e-10	1.024179e+01	2.843330e+01
2.170000e-06	1.518460e-06	4.285568e-10	1.055510e+01	2.974325e+01
2.180000e-06	1.563452e-06	4.463296e-10	1.086785e+01	3.103303e+01
2.190000e-06	1.608327e-06	4.645361e-10	1.117978e+01	3.230180e+01
2.200000e-06	1.652986e-06	4.823023e-10	1.149021e+01	3.354888e+01
2.210000e-06	1.697500e-06	4.996185e-10	1.179964e+01	3.477363e+01
2.220000e-06	1.741930e-06	5.165154e-10	1.210848e+01	3.597554e+01
2.230000e-06	1.786188e-06	5.302706e-10	1.241613e+01	3.715421e+01
2.240000e-06	1.830268e-06	5.423651e-10	1.272253e+01	3.830933e+01
2.250000e-06	1.874204e-06	5.560637e-10	1.302794e+01	3.944069e+01
2.260000e-06	1.918004e-06	5.707620e-10	1.333241e+01	4.054818e+01
2.270000e-06	1.961782e-06	5.866103e-10	1.363672e+01	4.163177e+01
2.280000e-06	2.005519e-06	6.019224e-10	1.394074e+01	4.269155e+01
2.290000e-06	2.049189e-06	6.175175e-10	1.424430e+01	4.372768e+01
2.300000e-06	2.092816e-06	6.313811e-10	1.454756e+01	4.474039e+01
2.310000e-06	2.136364e-06	6.438086e-10	1.485027e+01	4.573000e+01
2.320000e-06	2.179840e-06	6.556571e-10	1.515248e+01	4.669691e+01
2.330000e-06	2.223237e-06	6.668534e-10	1.545414e+01	4.764156e+01
2.340000e-06	2.266528e-06	6.796405e-10	1.575506e+01	4.856447e+01
2.350000e-06	2.309674e-06	6.928551e-10	1.605498e+01	4.946618e+01
2.360000e-06	2.352684e-06	7.068543e-10	1.635395e+01	5.034731e+01
2.370000e-06	2.395532e-06	7.206367e-10	1.665180e+01	5.120848e+01
2.380000e-06	2.438063e-06	7.341005e-10	1.694743e+01	5.205036e+01
2.390000e-06	2.480254e-06	7.470372e-10	1.724071e+01	5.287363e+01
2.400000e-06	2.522052e-06	7.598818e-10	1.753126e+01	5.367898e+01
2.410000e-06	2.563373e-06	7.737031e-10	1.781849e+01	5.446710e+01
2.420000e-06	2.604427e-06	7.878079e-10	1.810386e+01	5.523871e+01
2.430000e-06	2.645280e-06	8.012595e-10	1.838784e+01	5.599448e+01
2.440000e-06	2.685834e-06	8.141258e-10	1.866974e+01	5.673508e+01
2.450000e-06	2.726181e-06	8.251143e-10	1.895020e+01	5.746117e+01
2.460000e-06	2.766346e-06	8.336595e-10	1.922939e+01	5.817336e+01
2.470000e-06	2.806333e-06	8.427738e-10	1.950735e+01	5.887225e+01
2.480000e-06	2.846139e-06	8.529234e-10	1.978405e+01	5.955840e+01
2.490000e-06	2.885773e-06	8.639324e-10	2.005955e+01	6.023232e+01
2.500000e-06	2.925291e-06	8.763731e-10	2.033425e+01	6.089447e+01
2.510000e-06	2.964650e-06	8.878770e-10	2.060784e+01	6.154529e+01
2.520000e-06	3.003864e-06	8.988552e-10	2.088042e+01	6.218515e+01
2.530000e-06	3.042956e-06	9.085210e-10	2.115216e+01	6.281437e+01
2.540000e-06	3.081894e-06	9.155943e-10	2.142283e+01	6.343324e+01
2.550000e-06	3.120583e-06	9.204896e-10	2.169176e+01	6.404198e+01
2.560000e-06	3.158961e-06	9.267591e-10	2.195853e+01	6.464077e+01
2.570000e-06	3.197131e-06	9.357255e-10	2.222386e+01	6.522974e+01
2.580000e-06	3.235074e-06	9.456393e-10	2.248761e+01	6.580898e+01
2.590000e-06	3.272777e-06	9.555893e-10	2.274969e+01	6.637852e+01
2.600000e-06	3.310334e-06	9.644380e-10	2.301075e+01	6.693836e+01
2.610000e-06	3.347747e-06	9.728401e-10	2.327082e+01	6.748847e+01
2.620000e-06	3.384945e-06	9.802133e-10	2.352939e+01	6.802878e+01
2.630000e-06	3.421826e-06	9.860769e-10	2.378576e+01	6.855918e+01
2.640000e-06	3.458435e-06	9.918032e-10	2.404024e+01	6.907955e+01
2.650000e-06	3.494807e-06	9.982225e-10	2.429306e+01	6.958974e+01
2.660000e-06	3.530900e-06	1.004471e-09	2.454395e+01	7.008960e+01
2.670000e-06	3.566752e-06	1.010708e-09	2.479316e+01	7.057895e+01
2.680000e-06	3.602444e-06	1.017294e-09	2.504127e+01	7.105760e+01
2.690000e-06	3.638017e-06	1.024684e-09	2.528854e+01	7.152540e+01
2.700000e-06	3.673451e-06	1.033048e-09	2.553485e+01	7.198215e+01
2.710000e-06	3.708733e-06	1.040799e-09	2.578010e+01	7.242770e+01
2.720000e-06	3.743839e-06	1.048882e-09	2.602413e+01	7.286189e+01
2.730000e-06	3.778622e-06	1.057622e-09	2.626591e+01	7.328460e+01
2.740000e-06	3.812969e-06	1.064315e-09	2.650466e+01	7.369570e+01
2.750000e-06	3.846904e-06	1.069205e-09	2.674055e+01	7.409512e+01
2.760000e-06	3.880389e-06	1.073453e-09	2.697331e+01	7.448281e+01
2.770000e-06	3.913382e-06	1.076679e-09	2.720265e+01	7.485873e+01
2.780000e-06	3.945971e-06	1.079558e-09	2.742919e+01	7.522289e+01
2.790000e-06	3.978193e-06	1.084930e-09	2.765317e+01	7.557534e+01
2.800000e-06	4.010089e-06	1.093283e-09	2.787488e+01	7.591617e+01
2.810000e-06	4.041775e-06	1.102012e-09	2.809514e+01	7.624550e+01
2.820000e-06	4.073285e-06	1.108537e-09	2.831417e+01	7.656348e+01
2.830000e-06	4.104651e-06	1.112676e-09	2.853220e+01	7.687032e+01
2.840000e-06	4.135855e-06	1.113789e-09	2.874911e+01	7.716626e+01
2.850000e-06	4.166773e-06	1.114956e-09	2.896403e+01	7.745156e+01
2.860000e-06	4.197373e-06	1.118307e-09	2.917673e+01	7.772654e+01
2.870000e-06	4.227601e-06	1.122028e-09	2.938685e+01	7.799154e+01
2.880000e-06	4.257487e-06	1.126733e-09	2.959459e+01	7.824693e+01
2.890000e-06	4.287118e-06	1.133693e-09	2.980056e+01	7.849312e+01
2.900000e-06	4.316511e-06	1.142509e-09	3.000488e+01	7.873053e+01
