# Temperatura_=_9.42
# Concentracion g/m^3_=_1620.0
# C_Vs_to_Am_M_A/Vsm_=_65563218390.804596
# pendiente_HvsI_1/m_=_3716.3
# ordenada_HvsI_A/m_=_1297.0
# frecuencia_Hz_=_135101.17213163868

Tiempo_(s)	Campo_(V.s)	Magnetizacion_(V.s)	Campo_(kA/m)	Magnetizacion_(A/m)
0.000000e+00	-5.524447e-06	-7.276131e-10	-3.836840e+01	-4.888529e+01
1.000000e-08	-5.524474e-06	-7.268060e-10	-3.836858e+01	-4.889339e+01
2.000000e-08	-5.524169e-06	-7.282942e-10	-3.836647e+01	-4.890301e+01
3.000000e-08	-5.523490e-06	-7.284628e-10	-3.836175e+01	-4.891405e+01
4.000000e-08	-5.522319e-06	-7.304004e-10	-3.835361e+01	-4.892637e+01
5.000000e-08	-5.520555e-06	-7.352865e-10	-3.834136e+01	-4.893983e+01
6.000000e-08	-5.518223e-06	-7.427832e-10	-3.832517e+01	-4.895429e+01
7.000000e-08	-5.515355e-06	-7.340754e-10	-3.830525e+01	-4.896956e+01
8.000000e-08	-5.512004e-06	-6.875716e-10	-3.828197e+01	-4.898549e+01
9.000000e-08	-5.508226e-06	-6.766151e-10	-3.825573e+01	-4.900188e+01
1.000000e-07	-5.504038e-06	-7.344607e-10	-3.822665e+01	-4.901855e+01
1.100000e-07	-5.499468e-06	-7.591810e-10	-3.819491e+01	-4.903530e+01
1.200000e-07	-5.494733e-06	-6.774404e-10	-3.816202e+01	-4.905194e+01
1.300000e-07	-5.489818e-06	-6.757232e-10	-3.812789e+01	-4.906828e+01
1.400000e-07	-5.484464e-06	-7.058791e-10	-3.809070e+01	-4.908411e+01
1.500000e-07	-5.478637e-06	-7.417439e-10	-3.805024e+01	-4.909925e+01
1.600000e-07	-5.472428e-06	-6.600235e-10	-3.800711e+01	-4.911350e+01
1.700000e-07	-5.465881e-06	-6.619124e-10	-3.796164e+01	-4.912669e+01
1.800000e-07	-5.458905e-06	-7.180598e-10	-3.791319e+01	-4.913863e+01
1.900000e-07	-5.451535e-06	-7.332358e-10	-3.786200e+01	-4.914916e+01
2.000000e-07	-5.443972e-06	-7.096907e-10	-3.780948e+01	-4.915812e+01
2.100000e-07	-5.436205e-06	-7.068426e-10	-3.775554e+01	-4.916536e+01
2.200000e-07	-5.428019e-06	-7.475091e-10	-3.769868e+01	-4.917073e+01
2.300000e-07	-5.419406e-06	-7.341534e-10	-3.763887e+01	-4.917412e+01
2.400000e-07	-5.410372e-06	-7.226036e-10	-3.757612e+01	-4.917540e+01
2.500000e-07	-5.400658e-06	-7.157763e-10	-3.750865e+01	-4.917448e+01
2.600000e-07	-5.390143e-06	-7.534854e-10	-3.743563e+01	-4.917125e+01
2.700000e-07	-5.379193e-06	-7.395868e-10	-3.735958e+01	-4.916565e+01
2.800000e-07	-5.367941e-06	-7.437275e-10	-3.728143e+01	-4.915759e+01
2.900000e-07	-5.356203e-06	-7.290004e-10	-3.719990e+01	-4.914704e+01
3.000000e-07	-5.344055e-06	-7.492925e-10	-3.711553e+01	-4.913394e+01
3.100000e-07	-5.331499e-06	-7.340232e-10	-3.702833e+01	-4.911825e+01
3.200000e-07	-5.318508e-06	-7.310004e-10	-3.693810e+01	-4.909996e+01
3.300000e-07	-5.305134e-06	-7.052472e-10	-3.684522e+01	-4.907906e+01
3.400000e-07	-5.291423e-06	-7.358240e-10	-3.675000e+01	-4.905552e+01
3.500000e-07	-5.277304e-06	-7.366075e-10	-3.665194e+01	-4.902937e+01
3.600000e-07	-5.262680e-06	-7.190177e-10	-3.655037e+01	-4.900061e+01
3.700000e-07	-5.247589e-06	-7.219355e-10	-3.644556e+01	-4.896925e+01
3.800000e-07	-5.232100e-06	-7.664374e-10	-3.633798e+01	-4.893531e+01
3.900000e-07	-5.216100e-06	-7.231664e-10	-3.622686e+01	-4.889882e+01
4.000000e-07	-5.199538e-06	-6.803484e-10	-3.611184e+01	-4.885981e+01
4.100000e-07	-5.182770e-06	-7.436856e-10	-3.599538e+01	-4.881831e+01
4.200000e-07	-5.165775e-06	-7.603035e-10	-3.587735e+01	-4.877434e+01
4.300000e-07	-5.148290e-06	-6.823092e-10	-3.575591e+01	-4.872795e+01
4.400000e-07	-5.130445e-06	-7.022587e-10	-3.563197e+01	-4.867916e+01
4.500000e-07	-5.112287e-06	-7.814122e-10	-3.550586e+01	-4.862800e+01
4.600000e-07	-5.093747e-06	-7.113928e-10	-3.537710e+01	-4.857451e+01
4.700000e-07	-5.074808e-06	-6.786224e-10	-3.524556e+01	-4.851871e+01
4.800000e-07	-5.055560e-06	-7.592879e-10	-3.511188e+01	-4.846063e+01
4.900000e-07	-5.036045e-06	-7.489005e-10	-3.497635e+01	-4.840030e+01
5.000000e-07	-5.016203e-06	-6.618507e-10	-3.483853e+01	-4.833774e+01
5.100000e-07	-4.996024e-06	-7.285900e-10	-3.469839e+01	-4.827297e+01
5.200000e-07	-4.975546e-06	-7.527742e-10	-3.455617e+01	-4.820601e+01
5.300000e-07	-4.954759e-06	-6.710964e-10	-3.441180e+01	-4.813686e+01
5.400000e-07	-4.933636e-06	-6.879663e-10	-3.426509e+01	-4.806556e+01
5.500000e-07	-4.912136e-06	-7.685368e-10	-3.411577e+01	-4.799210e+01
5.600000e-07	-4.890242e-06	-7.010986e-10	-3.396372e+01	-4.791651e+01
5.700000e-07	-4.868134e-06	-6.794734e-10	-3.381017e+01	-4.783879e+01
5.800000e-07	-4.845817e-06	-7.444781e-10	-3.365517e+01	-4.775894e+01
5.900000e-07	-4.823015e-06	-7.183111e-10	-3.349681e+01	-4.767699e+01
6.000000e-07	-4.799780e-06	-6.586990e-10	-3.333544e+01	-4.759295e+01
6.100000e-07	-4.776282e-06	-7.153885e-10	-3.317224e+01	-4.750682e+01
6.200000e-07	-4.752570e-06	-7.164769e-10	-3.300755e+01	-4.741862e+01
6.300000e-07	-4.728615e-06	-6.664724e-10	-3.284118e+01	-4.732838e+01
6.400000e-07	-4.704367e-06	-6.936660e-10	-3.267277e+01	-4.723611e+01
6.500000e-07	-4.679797e-06	-7.212421e-10	-3.250213e+01	-4.714184e+01
6.600000e-07	-4.654732e-06	-6.762892e-10	-3.232805e+01	-4.704559e+01
6.700000e-07	-4.629133e-06	-6.805703e-10	-3.215026e+01	-4.694741e+01
6.800000e-07	-4.603020e-06	-7.055919e-10	-3.196890e+01	-4.684733e+01
6.900000e-07	-4.576421e-06	-6.776898e-10	-3.178416e+01	-4.674540e+01
7.000000e-07	-4.549357e-06	-6.707776e-10	-3.159620e+01	-4.664167e+01
7.100000e-07	-4.521909e-06	-6.947257e-10	-3.140557e+01	-4.653618e+01
7.200000e-07	-4.494236e-06	-6.790638e-10	-3.121337e+01	-4.642901e+01
7.300000e-07	-4.466396e-06	-6.641788e-10	-3.102002e+01	-4.632022e+01
7.400000e-07	-4.438343e-06	-6.884067e-10	-3.082519e+01	-4.620988e+01
7.500000e-07	-4.410048e-06	-6.828176e-10	-3.062867e+01	-4.609805e+01
7.600000e-07	-4.381532e-06	-6.698021e-10	-3.043062e+01	-4.598483e+01
7.700000e-07	-4.352692e-06	-6.828742e-10	-3.023032e+01	-4.587029e+01
7.800000e-07	-4.323472e-06	-6.845312e-10	-3.002738e+01	-4.575451e+01
7.900000e-07	-4.293931e-06	-6.624446e-10	-2.982222e+01	-4.563757e+01
8.000000e-07	-4.264138e-06	-6.696653e-10	-2.961529e+01	-4.551957e+01
8.100000e-07	-4.234155e-06	-6.736371e-10	-2.940706e+01	-4.540058e+01
8.200000e-07	-4.203871e-06	-6.609053e-10	-2.919673e+01	-4.528068e+01
8.300000e-07	-4.173192e-06	-6.577763e-10	-2.898366e+01	-4.515995e+01
8.400000e-07	-4.142190e-06	-6.751965e-10	-2.876834e+01	-4.503846e+01
8.500000e-07	-4.110965e-06	-6.656606e-10	-2.855148e+01	-4.491629e+01
8.600000e-07	-4.079552e-06	-6.595387e-10	-2.833331e+01	-4.479348e+01
8.700000e-07	-4.047937e-06	-6.661537e-10	-2.811374e+01	-4.467010e+01
8.800000e-07	-4.016138e-06	-6.636474e-10	-2.789288e+01	-4.454617e+01
8.900000e-07	-3.984148e-06	-6.473641e-10	-2.767071e+01	-4.442174e+01
9.000000e-07	-3.951930e-06	-6.536226e-10	-2.744694e+01	-4.429683e+01
9.100000e-07	-3.919466e-06	-6.543242e-10	-2.722148e+01	-4.417143e+01
9.200000e-07	-3.886688e-06	-6.429792e-10	-2.699383e+01	-4.404553e+01
9.300000e-07	-3.853413e-06	-6.435668e-10	-2.676273e+01	-4.391913e+01
9.400000e-07	-3.819619e-06	-6.555571e-10	-2.652802e+01	-4.379217e+01
9.500000e-07	-3.785386e-06	-6.495740e-10	-2.629027e+01	-4.366460e+01
9.600000e-07	-3.750694e-06	-6.441792e-10	-2.604932e+01	-4.353636e+01
9.700000e-07	-3.715631e-06	-6.495909e-10	-2.580580e+01	-4.340734e+01
9.800000e-07	-3.680311e-06	-6.448240e-10	-2.556050e+01	-4.327746e+01
9.900000e-07	-3.644790e-06	-6.355870e-10	-2.531380e+01	-4.314657e+01
1.000000e-06	-3.609110e-06	-6.379679e-10	-2.506599e+01	-4.301456e+01
1.010000e-06	-3.573269e-06	-6.408328e-10	-2.481707e+01	-4.288126e+01
1.020000e-06	-3.537248e-06	-6.345550e-10	-2.456690e+01	-4.274650e+01
1.030000e-06	-3.501049e-06	-6.347711e-10	-2.431549e+01	-4.261010e+01
1.040000e-06	-3.464714e-06	-6.371768e-10	-2.406314e+01	-4.247186e+01
1.050000e-06	-3.428167e-06	-6.313098e-10	-2.380931e+01	-4.233157e+01
1.060000e-06	-3.391319e-06	-6.238503e-10	-2.355339e+01	-4.218901e+01
1.070000e-06	-3.354163e-06	-6.263770e-10	-2.329533e+01	-4.204394e+01
1.080000e-06	-3.316776e-06	-6.252662e-10	-2.303568e+01	-4.189614e+01
1.090000e-06	-3.279165e-06	-6.238972e-10	-2.277446e+01	-4.174535e+01
1.100000e-06	-3.241349e-06	-6.230681e-10	-2.251182e+01	-4.159132e+01
1.110000e-06	-3.203331e-06	-6.206545e-10	-2.224778e+01	-4.143380e+01
1.120000e-06	-3.165060e-06	-6.123318e-10	-2.198198e+01	-4.127254e+01
1.130000e-06	-3.126509e-06	-6.102490e-10	-2.171423e+01	-4.110728e+01
1.140000e-06	-3.087735e-06	-6.078614e-10	-2.144494e+01	-4.093777e+01
1.150000e-06	-3.048814e-06	-6.047427e-10	-2.117462e+01	-4.076377e+01
1.160000e-06	-3.009679e-06	-6.026260e-10	-2.090283e+01	-4.058504e+01
1.170000e-06	-2.970352e-06	-6.043233e-10	-2.062969e+01	-4.040135e+01
1.180000e-06	-2.930899e-06	-5.994675e-10	-2.035568e+01	-4.021247e+01
1.190000e-06	-2.891282e-06	-5.943014e-10	-2.008054e+01	-4.001820e+01
1.200000e-06	-2.851519e-06	-5.905015e-10	-1.980437e+01	-3.981834e+01
1.210000e-06	-2.811635e-06	-5.858730e-10	-1.952737e+01	-3.961271e+01
1.220000e-06	-2.771551e-06	-5.796680e-10	-1.924898e+01	-3.940113e+01
1.230000e-06	-2.731223e-06	-5.764037e-10	-1.896889e+01	-3.918346e+01
1.240000e-06	-2.690771e-06	-5.737527e-10	-1.868795e+01	-3.895956e+01
1.250000e-06	-2.650118e-06	-5.713015e-10	-1.840560e+01	-3.872930e+01
1.260000e-06	-2.609232e-06	-5.708613e-10	-1.812164e+01	-3.849259e+01
1.270000e-06	-2.568123e-06	-5.723172e-10	-1.783613e+01	-3.824934e+01
1.280000e-06	-2.526747e-06	-5.702012e-10	-1.754876e+01	-3.799948e+01
1.290000e-06	-2.485167e-06	-5.658465e-10	-1.725998e+01	-3.774295e+01
1.300000e-06	-2.443292e-06	-5.604803e-10	-1.696916e+01	-3.747972e+01
1.310000e-06	-2.401069e-06	-5.526109e-10	-1.667591e+01	-3.720975e+01
1.320000e-06	-2.358534e-06	-5.458217e-10	-1.638050e+01	-3.693303e+01
1.330000e-06	-2.315667e-06	-5.442023e-10	-1.608277e+01	-3.664955e+01
1.340000e-06	-2.272510e-06	-5.445039e-10	-1.578304e+01	-3.635933e+01
1.350000e-06	-2.229233e-06	-5.419346e-10	-1.548247e+01	-3.606236e+01
1.360000e-06	-2.185880e-06	-5.402283e-10	-1.518137e+01	-3.575867e+01
1.370000e-06	-2.142377e-06	-5.373634e-10	-1.487924e+01	-3.544827e+01
1.380000e-06	-2.098710e-06	-5.333527e-10	-1.457596e+01	-3.513118e+01
1.390000e-06	-2.054882e-06	-5.265877e-10	-1.427157e+01	-3.480742e+01
1.400000e-06	-2.010956e-06	-5.206670e-10	-1.396650e+01	-3.447699e+01
1.410000e-06	-1.967012e-06	-5.121247e-10	-1.366130e+01	-3.413990e+01
1.420000e-06	-1.923012e-06	-5.040441e-10	-1.335570e+01	-3.379613e+01
1.430000e-06	-1.878895e-06	-4.990183e-10	-1.304930e+01	-3.344567e+01
1.440000e-06	-1.834618e-06	-4.959268e-10	-1.274179e+01	-3.308848e+01
1.450000e-06	-1.790232e-06	-4.901721e-10	-1.243352e+01	-3.272451e+01
1.460000e-06	-1.745760e-06	-4.846322e-10	-1.212465e+01	-3.235368e+01
1.470000e-06	-1.701149e-06	-4.778307e-10	-1.181482e+01	-3.197589e+01
1.480000e-06	-1.656365e-06	-4.689669e-10	-1.150379e+01	-3.159103e+01
1.490000e-06	-1.611464e-06	-4.596701e-10	-1.119194e+01	-3.119895e+01
1.500000e-06	-1.566566e-06	-4.524043e-10	-1.088011e+01	-3.079949e+01
1.510000e-06	-1.521560e-06	-4.445250e-10	-1.056754e+01	-3.039245e+01
1.520000e-06	-1.476320e-06	-4.362761e-10	-1.025334e+01	-2.997761e+01
1.530000e-06	-1.430998e-06	-4.277378e-10	-9.938568e+00	-2.955470e+01
1.540000e-06	-1.385616e-06	-4.196992e-10	-9.623383e+00	-2.912346e+01
1.550000e-06	-1.340123e-06	-4.115893e-10	-9.307423e+00	-2.868357e+01
1.560000e-06	-1.294502e-06	-4.048401e-10	-8.990576e+00	-2.823471e+01
1.570000e-06	-1.248778e-06	-3.989892e-10	-8.673014e+00	-2.777651e+01
1.580000e-06	-1.202966e-06	-3.928141e-10	-8.354843e+00	-2.730859e+01
1.590000e-06	-1.157087e-06	-3.840518e-10	-8.036200e+00	-2.683056e+01
1.600000e-06	-1.111173e-06	-3.736851e-10	-7.717316e+00	-2.634199e+01
1.610000e-06	-1.065153e-06	-3.637007e-10	-7.397698e+00	-2.584244e+01
1.620000e-06	-1.019068e-06	-3.536057e-10	-7.077629e+00	-2.533146e+01
1.630000e-06	-9.729758e-07	-3.425211e-10	-6.757512e+00	-2.480860e+01
1.640000e-06	-9.268640e-07	-3.299468e-10	-6.437257e+00	-2.427339e+01
1.650000e-06	-8.806482e-07	-3.203869e-10	-6.116279e+00	-2.372536e+01
1.660000e-06	-8.343408e-07	-3.134505e-10	-5.794664e+00	-2.316405e+01
1.670000e-06	-7.879967e-07	-3.083736e-10	-5.472796e+00	-2.258900e+01
1.680000e-06	-7.416173e-07	-3.030846e-10	-5.150681e+00	-2.199978e+01
1.690000e-06	-6.951541e-07	-2.976523e-10	-4.827985e+00	-2.139595e+01
1.700000e-06	-6.485941e-07	-2.874611e-10	-4.504616e+00	-2.077712e+01
1.710000e-06	-6.020808e-07	-2.736708e-10	-4.181572e+00	-2.014289e+01
1.720000e-06	-5.555465e-07	-2.582321e-10	-3.858382e+00	-1.949294e+01
1.730000e-06	-5.088512e-07	-2.449193e-10	-3.534074e+00	-1.882694e+01
1.740000e-06	-4.620780e-07	-2.340333e-10	-3.209225e+00	-1.814464e+01
1.750000e-06	-4.153202e-07	-2.262542e-10	-2.884482e+00	-1.744582e+01
1.760000e-06	-3.685678e-07	-2.202862e-10	-2.559777e+00	-1.673029e+01
1.770000e-06	-3.217759e-07	-2.148611e-10	-2.234798e+00	-1.599795e+01
1.780000e-06	-2.749068e-07	-2.077211e-10	-1.909283e+00	-1.524875e+01
1.790000e-06	-2.279955e-07	-1.949292e-10	-1.583474e+00	-1.448268e+01
1.800000e-06	-1.811399e-07	-1.774082e-10	-1.258053e+00	-1.369982e+01
1.810000e-06	-1.343576e-07	-1.592353e-10	-9.331406e-01	-1.290031e+01
1.820000e-06	-8.757890e-08	-1.451039e-10	-6.082530e-01	-1.208436e+01
1.830000e-06	-4.072750e-08	-1.351754e-10	-2.828607e-01	-1.125224e+01
1.840000e-06	6.237044e-09	-1.257119e-10	4.331752e-02	-1.040433e+01
1.850000e-06	5.316450e-08	-1.185907e-10	3.692381e-01	-9.541031e+00
1.860000e-06	1.000118e-07	-1.102334e-10	6.946019e-01	-8.662865e+00
1.870000e-06	1.468661e-07	-9.853532e-11	1.020015e+00	-7.770405e+00
1.880000e-06	1.937542e-07	-8.440076e-11	1.345662e+00	-6.864299e+00
1.890000e-06	2.406428e-07	-6.762372e-11	1.671313e+00	-5.945271e+00
1.900000e-06	2.874700e-07	-5.199069e-11	1.996537e+00	-5.014110e+00
1.910000e-06	3.343142e-07	-3.717031e-11	2.321879e+00	-4.071673e+00
1.920000e-06	3.811108e-07	-2.489426e-11	2.646891e+00	-3.118882e+00
1.930000e-06	4.277600e-07	-1.341097e-11	2.970879e+00	-2.156715e+00
1.940000e-06	4.743795e-07	-3.157446e-12	3.294661e+00	-1.186207e+00
1.950000e-06	5.209996e-07	6.396151e-12	3.618447e+00	-2.084432e-01
1.960000e-06	5.675878e-07	1.673831e-11	3.942011e+00	7.754453e-01
1.970000e-06	6.141035e-07	2.972531e-11	4.265072e+00	1.764289e+00
1.980000e-06	6.605095e-07	4.646881e-11	4.587371e+00	2.756884e+00
1.990000e-06	7.069162e-07	6.472882e-11	4.909675e+00	3.751999e+00
2.000000e-06	7.533362e-07	8.133003e-11	5.232071e+00	4.748382e+00
2.010000e-06	7.996899e-07	9.683244e-11	5.554007e+00	5.744767e+00
2.020000e-06	8.459826e-07	1.097225e-10	5.875519e+00	6.739880e+00
2.030000e-06	8.921871e-07	1.219990e-10	6.196419e+00	7.732448e+00
2.040000e-06	9.383863e-07	1.339892e-10	6.517281e+00	8.721202e+00
2.050000e-06	9.845923e-07	1.468783e-10	6.838191e+00	9.704888e+00
2.060000e-06	1.030674e-06	1.610480e-10	7.158236e+00	1.068227e+01
2.070000e-06	1.076625e-06	1.777235e-10	7.477380e+00	1.165215e+01
2.080000e-06	1.122528e-06	1.935359e-10	7.796181e+00	1.261335e+01
2.090000e-06	1.168377e-06	2.063850e-10	8.114616e+00	1.356473e+01
2.100000e-06	1.214111e-06	2.192081e-10	8.432242e+00	1.450522e+01
2.110000e-06	1.259721e-06	2.315206e-10	8.749012e+00	1.543377e+01
2.120000e-06	1.305227e-06	2.450333e-10	9.065065e+00	1.634940e+01
2.130000e-06	1.350704e-06	2.593653e-10	9.380910e+00	1.725121e+01
2.140000e-06	1.396163e-06	2.719812e-10	9.696632e+00	1.813833e+01
2.150000e-06	1.441491e-06	2.835114e-10	1.001144e+01	1.900999e+01
2.160000e-06	1.486651e-06	2.957853e-10	1.032509e+01	1.986548e+01
2.170000e-06	1.531713e-06	3.082422e-10	1.063805e+01	2.070416e+01
2.180000e-06	1.576601e-06	3.187899e-10	1.094981e+01	2.152548e+01
2.190000e-06	1.621299e-06	3.282707e-10	1.126025e+01	2.232897e+01
2.200000e-06	1.665911e-06	3.399334e-10	1.157008e+01	2.311421e+01
2.210000e-06	1.710397e-06	3.532927e-10	1.187905e+01	2.388091e+01
2.220000e-06	1.754811e-06	3.666989e-10	1.218752e+01	2.462882e+01
2.230000e-06	1.799184e-06	3.771547e-10	1.249569e+01	2.535778e+01
2.240000e-06	1.843381e-06	3.858696e-10	1.280265e+01	2.606772e+01
2.250000e-06	1.887488e-06	3.931891e-10	1.310898e+01	2.675862e+01
2.260000e-06	1.931553e-06	4.007518e-10	1.341502e+01	2.743056e+01
2.270000e-06	1.975486e-06	4.081927e-10	1.372015e+01	2.808367e+01
2.280000e-06	2.019305e-06	4.158398e-10	1.402448e+01	2.871815e+01
2.290000e-06	2.063034e-06	4.243419e-10	1.432819e+01	2.933427e+01
2.300000e-06	2.106734e-06	4.343375e-10	1.463169e+01	2.993234e+01
2.310000e-06	2.150375e-06	4.452769e-10	1.493479e+01	3.051275e+01
2.320000e-06	2.193923e-06	4.546947e-10	1.523723e+01	3.107590e+01
2.330000e-06	2.237371e-06	4.597525e-10	1.553899e+01	3.162227e+01
2.340000e-06	2.280676e-06	4.651470e-10	1.583975e+01	3.215236e+01
2.350000e-06	2.323777e-06	4.724702e-10	1.613910e+01	3.266668e+01
2.360000e-06	2.366625e-06	4.798617e-10	1.643669e+01	3.316581e+01
2.370000e-06	2.409221e-06	4.864509e-10	1.673253e+01	3.365031e+01
2.380000e-06	2.451509e-06	4.923439e-10	1.702622e+01	3.412078e+01
2.390000e-06	2.493463e-06	4.996862e-10	1.731760e+01	3.457781e+01
2.400000e-06	2.535050e-06	5.049539e-10	1.760643e+01	3.502200e+01
2.410000e-06	2.576316e-06	5.118316e-10	1.789303e+01	3.545395e+01
2.420000e-06	2.617301e-06	5.203740e-10	1.817768e+01	3.587425e+01
2.430000e-06	2.657979e-06	5.297423e-10	1.846020e+01	3.628347e+01
2.440000e-06	2.698409e-06	5.382158e-10	1.874099e+01	3.668219e+01
2.450000e-06	2.738658e-06	5.437577e-10	1.902053e+01	3.707093e+01
2.460000e-06	2.778810e-06	5.460502e-10	1.929939e+01	3.745022e+01
2.470000e-06	2.818854e-06	5.475977e-10	1.957751e+01	3.782054e+01
2.480000e-06	2.858758e-06	5.491708e-10	1.985465e+01	3.818234e+01
2.490000e-06	2.898511e-06	5.527857e-10	2.013074e+01	3.853606e+01
2.500000e-06	2.938093e-06	5.611385e-10	2.040565e+01	3.888206e+01
2.510000e-06	2.977528e-06	5.713227e-10	2.067953e+01	3.922072e+01
2.520000e-06	3.016783e-06	5.809623e-10	2.095217e+01	3.955234e+01
2.530000e-06	3.055817e-06	5.873539e-10	2.122326e+01	3.987718e+01
2.540000e-06	3.094560e-06	5.885109e-10	2.149234e+01	4.019550e+01
2.550000e-06	3.133012e-06	5.877396e-10	2.175940e+01	4.050748e+01
2.560000e-06	3.171291e-06	5.890630e-10	2.202525e+01	4.081329e+01
2.570000e-06	3.209429e-06	5.918252e-10	2.229013e+01	4.111305e+01
2.580000e-06	3.247413e-06	5.964629e-10	2.255394e+01	4.140684e+01
2.590000e-06	3.285188e-06	6.022861e-10	2.281629e+01	4.169473e+01
2.600000e-06	3.322731e-06	6.088946e-10	2.307704e+01	4.197674e+01
2.610000e-06	3.360009e-06	6.157146e-10	2.333594e+01	4.225287e+01
2.620000e-06	3.397041e-06	6.205691e-10	2.359314e+01	4.252309e+01
2.630000e-06	3.433889e-06	6.227246e-10	2.384905e+01	4.278736e+01
2.640000e-06	3.470469e-06	6.244491e-10	2.410311e+01	4.304560e+01
2.650000e-06	3.506758e-06	6.269229e-10	2.435514e+01	4.329774e+01
2.660000e-06	3.542842e-06	6.302077e-10	2.460575e+01	4.354368e+01
2.670000e-06	3.578746e-06	6.347221e-10	2.485511e+01	4.378332e+01
2.680000e-06	3.614535e-06	6.398669e-10	2.510367e+01	4.401654e+01
2.690000e-06	3.650194e-06	6.446110e-10	2.535133e+01	4.424325e+01
2.700000e-06	3.685623e-06	6.485186e-10	2.559739e+01	4.446334e+01
2.710000e-06	3.720851e-06	6.513135e-10	2.584206e+01	4.467669e+01
2.720000e-06	3.755821e-06	6.552657e-10	2.608493e+01	4.488323e+01
2.730000e-06	3.790403e-06	6.594261e-10	2.632511e+01	4.508287e+01
2.740000e-06	3.824527e-06	6.627584e-10	2.656211e+01	4.527553e+01
2.750000e-06	3.858199e-06	6.652958e-10	2.679596e+01	4.546118e+01
2.760000e-06	3.891377e-06	6.684227e-10	2.702640e+01	4.563976e+01
2.770000e-06	3.924132e-06	6.730656e-10	2.725389e+01	4.581128e+01
2.780000e-06	3.956606e-06	6.783764e-10	2.747942e+01	4.597574e+01
2.790000e-06	3.988806e-06	6.831402e-10	2.770306e+01	4.613316e+01
2.800000e-06	4.020776e-06	6.871089e-10	2.792510e+01	4.628361e+01
2.810000e-06	4.052601e-06	6.897670e-10	2.814613e+01	4.642716e+01
2.820000e-06	4.084287e-06	6.914887e-10	2.836619e+01	4.656392e+01
2.830000e-06	4.115745e-06	6.932672e-10	2.858467e+01	4.669402e+01
2.840000e-06	4.146944e-06	6.939117e-10	2.880136e+01	4.681760e+01
2.850000e-06	4.177792e-06	6.954802e-10	2.901560e+01	4.693484e+01
2.860000e-06	4.208287e-06	6.971553e-10	2.922740e+01	4.704594e+01
2.870000e-06	4.238514e-06	6.963361e-10	2.943733e+01	4.715111e+01
2.880000e-06	4.268477e-06	6.962755e-10	2.964543e+01	4.725058e+01
2.890000e-06	4.298196e-06	6.971339e-10	2.985183e+01	4.734462e+01
2.900000e-06	4.327665e-06	6.992113e-10	3.005650e+01	4.743348e+01
