# Temperatura_=_-0.3
# Concentracion g/m^3_=_1620.0
# C_Vs_to_Am_M_A/Vsm_=_65563218390.804596
# pendiente_HvsI_1/m_=_3716.3
# ordenada_HvsI_A/m_=_1297.0
# frecuencia_Hz_=_135092.42127363884

Tiempo_(s)	Campo_(V.s)	Magnetizacion_(V.s)	Campo_(kA/m)	Magnetizacion_(A/m)
0.000000e+00	-5.533865e-06	-1.444888e-09	-3.838178e+01	-9.456642e+01
1.000000e-08	-5.533901e-06	-1.445297e-09	-3.838203e+01	-9.455870e+01
2.000000e-08	-5.533730e-06	-1.444392e-09	-3.838084e+01	-9.454974e+01
3.000000e-08	-5.533218e-06	-1.443425e-09	-3.837729e+01	-9.453960e+01
4.000000e-08	-5.532244e-06	-1.441761e-09	-3.837054e+01	-9.452832e+01
5.000000e-08	-5.530709e-06	-1.433473e-09	-3.835989e+01	-9.451589e+01
6.000000e-08	-5.528480e-06	-1.404172e-09	-3.834443e+01	-9.450232e+01
7.000000e-08	-5.525565e-06	-1.371472e-09	-3.832421e+01	-9.448758e+01
8.000000e-08	-5.522186e-06	-1.438506e-09	-3.830077e+01	-9.447164e+01
9.000000e-08	-5.518383e-06	-1.573703e-09	-3.827440e+01	-9.445442e+01
1.000000e-07	-5.514105e-06	-1.508328e-09	-3.824473e+01	-9.443586e+01
1.100000e-07	-5.509608e-06	-1.296056e-09	-3.821353e+01	-9.441585e+01
1.200000e-07	-5.505069e-06	-1.304872e-09	-3.818206e+01	-9.439431e+01
1.300000e-07	-5.500129e-06	-1.497520e-09	-3.814779e+01	-9.437109e+01
1.400000e-07	-5.494624e-06	-1.505782e-09	-3.810961e+01	-9.434607e+01
1.500000e-07	-5.488822e-06	-1.295519e-09	-3.806937e+01	-9.431911e+01
1.600000e-07	-5.482885e-06	-1.291725e-09	-3.802819e+01	-9.429004e+01
1.700000e-07	-5.476426e-06	-1.520891e-09	-3.798339e+01	-9.425870e+01
1.800000e-07	-5.469249e-06	-1.545631e-09	-3.793361e+01	-9.422492e+01
1.900000e-07	-5.461756e-06	-1.352875e-09	-3.788164e+01	-9.418852e+01
2.000000e-07	-5.454115e-06	-1.311290e-09	-3.782865e+01	-9.414932e+01
2.100000e-07	-5.446237e-06	-1.486453e-09	-3.777400e+01	-9.410713e+01
2.200000e-07	-5.438117e-06	-1.546509e-09	-3.771769e+01	-9.406177e+01
2.300000e-07	-5.429816e-06	-1.440477e-09	-3.766011e+01	-9.401304e+01
2.400000e-07	-5.421000e-06	-1.397533e-09	-3.759897e+01	-9.396076e+01
2.500000e-07	-5.411172e-06	-1.493248e-09	-3.753080e+01	-9.390473e+01
2.600000e-07	-5.400591e-06	-1.511609e-09	-3.745742e+01	-9.384479e+01
2.700000e-07	-5.389633e-06	-1.429877e-09	-3.738142e+01	-9.378074e+01
2.800000e-07	-5.378213e-06	-1.411814e-09	-3.730221e+01	-9.371243e+01
2.900000e-07	-5.366464e-06	-1.485776e-09	-3.722071e+01	-9.363967e+01
3.000000e-07	-5.354481e-06	-1.497964e-09	-3.713761e+01	-9.356231e+01
3.100000e-07	-5.342102e-06	-1.419218e-09	-3.705174e+01	-9.348019e+01
3.200000e-07	-5.329124e-06	-1.397287e-09	-3.696173e+01	-9.339319e+01
3.300000e-07	-5.315728e-06	-1.466576e-09	-3.686882e+01	-9.330115e+01
3.400000e-07	-5.302065e-06	-1.480085e-09	-3.677406e+01	-9.320396e+01
3.500000e-07	-5.287858e-06	-1.392375e-09	-3.667552e+01	-9.310150e+01
3.600000e-07	-5.273153e-06	-1.409825e-09	-3.657353e+01	-9.299367e+01
3.700000e-07	-5.258138e-06	-1.494355e-09	-3.646939e+01	-9.288038e+01
3.800000e-07	-5.242532e-06	-1.433622e-09	-3.636115e+01	-9.276154e+01
3.900000e-07	-5.226102e-06	-1.350654e-09	-3.624720e+01	-9.263709e+01
4.000000e-07	-5.209395e-06	-1.464118e-09	-3.613132e+01	-9.250696e+01
4.100000e-07	-5.192635e-06	-1.486885e-09	-3.601507e+01	-9.237110e+01
4.200000e-07	-5.175407e-06	-1.329320e-09	-3.589559e+01	-9.222948e+01
4.300000e-07	-5.157862e-06	-1.369502e-09	-3.577389e+01	-9.208208e+01
4.400000e-07	-5.140096e-06	-1.531724e-09	-3.565068e+01	-9.192887e+01
4.500000e-07	-5.121796e-06	-1.405970e-09	-3.552375e+01	-9.176986e+01
4.600000e-07	-5.103044e-06	-1.292452e-09	-3.539369e+01	-9.160505e+01
4.700000e-07	-5.084039e-06	-1.455694e-09	-3.526187e+01	-9.143445e+01
4.800000e-07	-5.064661e-06	-1.469378e-09	-3.512747e+01	-9.125809e+01
4.900000e-07	-5.044919e-06	-1.307516e-09	-3.499054e+01	-9.107602e+01
5.000000e-07	-5.025064e-06	-1.392161e-09	-3.485283e+01	-9.088827e+01
5.100000e-07	-5.005072e-06	-1.473141e-09	-3.471417e+01	-9.069490e+01
5.200000e-07	-4.984694e-06	-1.311229e-09	-3.457284e+01	-9.049598e+01
5.300000e-07	-4.963957e-06	-1.328003e-09	-3.442901e+01	-9.029158e+01
5.400000e-07	-4.942882e-06	-1.487827e-09	-3.428284e+01	-9.008179e+01
5.500000e-07	-4.921328e-06	-1.375451e-09	-3.413334e+01	-8.986668e+01
5.600000e-07	-4.899456e-06	-1.275026e-09	-3.398164e+01	-8.964637e+01
5.700000e-07	-4.877350e-06	-1.419917e-09	-3.382832e+01	-8.942095e+01
5.800000e-07	-4.854882e-06	-1.408664e-09	-3.367249e+01	-8.919054e+01
5.900000e-07	-4.831949e-06	-1.277571e-09	-3.351343e+01	-8.895526e+01
6.000000e-07	-4.808640e-06	-1.358362e-09	-3.335176e+01	-8.871523e+01
6.100000e-07	-4.785185e-06	-1.414195e-09	-3.318908e+01	-8.847059e+01
6.200000e-07	-4.761557e-06	-1.302050e-09	-3.302521e+01	-8.822148e+01
6.300000e-07	-4.737719e-06	-1.318087e-09	-3.285987e+01	-8.796803e+01
6.400000e-07	-4.713678e-06	-1.388347e-09	-3.269312e+01	-8.771040e+01
6.500000e-07	-4.689185e-06	-1.319987e-09	-3.252325e+01	-8.744874e+01
6.600000e-07	-4.664154e-06	-1.299777e-09	-3.234964e+01	-8.718320e+01
6.700000e-07	-4.638548e-06	-1.367153e-09	-3.217204e+01	-8.691393e+01
6.800000e-07	-4.612344e-06	-1.332947e-09	-3.199029e+01	-8.664111e+01
6.900000e-07	-4.585626e-06	-1.295195e-09	-3.180498e+01	-8.636488e+01
7.000000e-07	-4.558472e-06	-1.337819e-09	-3.161665e+01	-8.608542e+01
7.100000e-07	-4.530961e-06	-1.327402e-09	-3.142584e+01	-8.580288e+01
7.200000e-07	-4.503177e-06	-1.282005e-09	-3.123313e+01	-8.551743e+01
7.300000e-07	-4.475292e-06	-1.308038e-09	-3.103973e+01	-8.522922e+01
7.400000e-07	-4.447279e-06	-1.319117e-09	-3.084543e+01	-8.493841e+01
7.500000e-07	-4.419014e-06	-1.289346e-09	-3.064940e+01	-8.464514e+01
7.600000e-07	-4.390416e-06	-1.297721e-09	-3.045104e+01	-8.434957e+01
7.700000e-07	-4.361431e-06	-1.305860e-09	-3.025001e+01	-8.405183e+01
7.800000e-07	-4.332085e-06	-1.272846e-09	-3.004647e+01	-8.375206e+01
7.900000e-07	-4.302536e-06	-1.271572e-09	-2.984153e+01	-8.345037e+01
8.000000e-07	-4.272762e-06	-1.286106e-09	-2.963502e+01	-8.314688e+01
8.100000e-07	-4.242661e-06	-1.259855e-09	-2.942625e+01	-8.284170e+01
8.200000e-07	-4.212300e-06	-1.247376e-09	-2.921567e+01	-8.253490e+01
8.300000e-07	-4.181713e-06	-1.268532e-09	-2.900352e+01	-8.222658e+01
8.400000e-07	-4.150817e-06	-1.257418e-09	-2.878923e+01	-8.191678e+01
8.500000e-07	-4.119581e-06	-1.232888e-09	-2.857259e+01	-8.160555e+01
8.600000e-07	-4.088071e-06	-1.243237e-09	-2.835404e+01	-8.129293e+01
8.700000e-07	-4.056395e-06	-1.241239e-09	-2.813434e+01	-8.097892e+01
8.800000e-07	-4.024629e-06	-1.214807e-09	-2.791402e+01	-8.066352e+01
8.900000e-07	-3.992707e-06	-1.217267e-09	-2.769261e+01	-8.034671e+01
9.000000e-07	-3.960555e-06	-1.226302e-09	-2.746961e+01	-8.002842e+01
9.100000e-07	-3.928049e-06	-1.200274e-09	-2.724416e+01	-7.970861e+01
9.200000e-07	-3.895146e-06	-1.195077e-09	-2.701595e+01	-7.938719e+01
9.300000e-07	-3.861889e-06	-1.210459e-09	-2.678529e+01	-7.906404e+01
9.400000e-07	-3.828115e-06	-1.200295e-09	-2.655104e+01	-7.873904e+01
9.500000e-07	-3.793856e-06	-1.186005e-09	-2.631343e+01	-7.841204e+01
9.600000e-07	-3.759238e-06	-1.196225e-09	-2.607332e+01	-7.808287e+01
9.700000e-07	-3.724141e-06	-1.190456e-09	-2.582990e+01	-7.775134e+01
9.800000e-07	-3.688654e-06	-1.162959e-09	-2.558377e+01	-7.741724e+01
9.900000e-07	-3.653008e-06	-1.159071e-09	-2.533653e+01	-7.708035e+01
1.000000e-06	-3.617272e-06	-1.162685e-09	-2.508867e+01	-7.674042e+01
1.010000e-06	-3.581426e-06	-1.145994e-09	-2.484005e+01	-7.639719e+01
1.020000e-06	-3.545454e-06	-1.141595e-09	-2.459056e+01	-7.605037e+01
1.030000e-06	-3.509264e-06	-1.151616e-09	-2.433955e+01	-7.569969e+01
1.040000e-06	-3.472813e-06	-1.141995e-09	-2.408674e+01	-7.534483e+01
1.050000e-06	-3.436147e-06	-1.123968e-09	-2.383242e+01	-7.498549e+01
1.060000e-06	-3.399211e-06	-1.120005e-09	-2.357624e+01	-7.462134e+01
1.070000e-06	-3.361960e-06	-1.109714e-09	-2.331788e+01	-7.425205e+01
1.080000e-06	-3.324412e-06	-1.094662e-09	-2.305746e+01	-7.387730e+01
1.090000e-06	-3.286670e-06	-1.094995e-09	-2.279569e+01	-7.349674e+01
1.100000e-06	-3.248787e-06	-1.096369e-09	-2.253293e+01	-7.311004e+01
1.110000e-06	-3.210608e-06	-1.085507e-09	-2.226813e+01	-7.271687e+01
1.120000e-06	-3.172189e-06	-1.077357e-09	-2.200167e+01	-7.231690e+01
1.130000e-06	-3.133612e-06	-1.073854e-09	-2.173410e+01	-7.190980e+01
1.140000e-06	-3.094788e-06	-1.059159e-09	-2.146483e+01	-7.149527e+01
1.150000e-06	-3.055746e-06	-1.043974e-09	-2.119404e+01	-7.107299e+01
1.160000e-06	-3.016520e-06	-1.039078e-09	-2.092198e+01	-7.064269e+01
1.170000e-06	-2.977121e-06	-1.033300e-09	-2.064871e+01	-7.020409e+01
1.180000e-06	-2.937571e-06	-1.026812e-09	-2.037441e+01	-6.975692e+01
1.190000e-06	-2.897923e-06	-1.026164e-09	-2.009941e+01	-6.930094e+01
1.200000e-06	-2.858158e-06	-1.020785e-09	-1.982361e+01	-6.883594e+01
1.210000e-06	-2.818243e-06	-1.006055e-09	-1.954677e+01	-6.836172e+01
1.220000e-06	-2.778192e-06	-9.938093e-10	-1.926898e+01	-6.787809e+01
1.230000e-06	-2.737979e-06	-9.853586e-10	-1.899007e+01	-6.738489e+01
1.240000e-06	-2.697597e-06	-9.727405e-10	-1.870999e+01	-6.688201e+01
1.250000e-06	-2.656961e-06	-9.647422e-10	-1.842815e+01	-6.636932e+01
1.260000e-06	-2.615998e-06	-9.627038e-10	-1.814404e+01	-6.584673e+01
1.270000e-06	-2.574798e-06	-9.587976e-10	-1.785828e+01	-6.531419e+01
1.280000e-06	-2.533418e-06	-9.510256e-10	-1.757128e+01	-6.477165e+01
1.290000e-06	-2.491731e-06	-9.409776e-10	-1.728215e+01	-6.421909e+01
1.300000e-06	-2.449609e-06	-9.297333e-10	-1.699000e+01	-6.365651e+01
1.310000e-06	-2.407152e-06	-9.181914e-10	-1.669553e+01	-6.308392e+01
1.320000e-06	-2.364396e-06	-9.077334e-10	-1.639898e+01	-6.250136e+01
1.330000e-06	-2.321383e-06	-9.002952e-10	-1.610065e+01	-6.190888e+01
1.340000e-06	-2.278156e-06	-8.947954e-10	-1.580083e+01	-6.130654e+01
1.350000e-06	-2.234742e-06	-8.859865e-10	-1.549972e+01	-6.069442e+01
1.360000e-06	-2.191157e-06	-8.739128e-10	-1.519743e+01	-6.007259e+01
1.370000e-06	-2.147469e-06	-8.619951e-10	-1.489441e+01	-5.944113e+01
1.380000e-06	-2.103748e-06	-8.515188e-10	-1.459118e+01	-5.880014e+01
1.390000e-06	-2.059939e-06	-8.418766e-10	-1.428732e+01	-5.814971e+01
1.400000e-06	-2.016100e-06	-8.324746e-10	-1.398327e+01	-5.748991e+01
1.410000e-06	-1.972231e-06	-8.224910e-10	-1.367900e+01	-5.682082e+01
1.420000e-06	-1.928254e-06	-8.105315e-10	-1.337398e+01	-5.614251e+01
1.430000e-06	-1.884112e-06	-7.981785e-10	-1.306782e+01	-5.545503e+01
1.440000e-06	-1.839818e-06	-7.868485e-10	-1.276061e+01	-5.475840e+01
1.450000e-06	-1.795451e-06	-7.752722e-10	-1.245289e+01	-5.405267e+01
1.460000e-06	-1.751003e-06	-7.627932e-10	-1.214460e+01	-5.333780e+01
1.470000e-06	-1.706360e-06	-7.500332e-10	-1.183497e+01	-5.261378e+01
1.480000e-06	-1.661507e-06	-7.375698e-10	-1.152388e+01	-5.188056e+01
1.490000e-06	-1.616608e-06	-7.247268e-10	-1.121247e+01	-5.113804e+01
1.500000e-06	-1.571541e-06	-7.112567e-10	-1.089989e+01	-5.038610e+01
1.510000e-06	-1.526275e-06	-6.985208e-10	-1.058594e+01	-4.962461e+01
1.520000e-06	-1.481007e-06	-6.841899e-10	-1.027197e+01	-4.885338e+01
1.530000e-06	-1.435660e-06	-6.699878e-10	-9.957448e+00	-4.807220e+01
1.540000e-06	-1.390161e-06	-6.585285e-10	-9.641881e+00	-4.728081e+01
1.550000e-06	-1.344495e-06	-6.475073e-10	-9.325149e+00	-4.647893e+01
1.560000e-06	-1.298743e-06	-6.340007e-10	-9.007823e+00	-4.566625e+01
1.570000e-06	-1.252948e-06	-6.190695e-10	-8.690193e+00	-4.484241e+01
1.580000e-06	-1.207098e-06	-6.048546e-10	-8.372190e+00	-4.400704e+01
1.590000e-06	-1.161166e-06	-5.892029e-10	-8.053612e+00	-4.315971e+01
1.600000e-06	-1.115127e-06	-5.744898e-10	-7.734296e+00	-4.230000e+01
1.610000e-06	-1.069003e-06	-5.606091e-10	-7.414394e+00	-4.142743e+01
1.620000e-06	-1.022825e-06	-5.482273e-10	-7.094106e+00	-4.054153e+01
1.630000e-06	-9.766029e-07	-5.344387e-10	-6.773522e+00	-3.964178e+01
1.640000e-06	-9.303198e-07	-5.173465e-10	-6.452512e+00	-3.872767e+01
1.650000e-06	-8.840053e-07	-5.000281e-10	-6.131283e+00	-3.779868e+01
1.660000e-06	-8.375843e-07	-4.823778e-10	-5.809317e+00	-3.685426e+01
1.670000e-06	-7.910745e-07	-4.670439e-10	-5.486734e+00	-3.589389e+01
1.680000e-06	-7.445641e-07	-4.541890e-10	-5.164147e+00	-3.491703e+01
1.690000e-06	-6.979760e-07	-4.432258e-10	-4.841021e+00	-3.392317e+01
1.700000e-06	-6.512888e-07	-4.300746e-10	-4.517209e+00	-3.291181e+01
1.710000e-06	-6.045728e-07	-4.127196e-10	-4.193196e+00	-3.188245e+01
1.720000e-06	-5.578630e-07	-3.936950e-10	-3.869226e+00	-3.083464e+01
1.730000e-06	-5.111006e-07	-3.739933e-10	-3.544891e+00	-2.976797e+01
1.740000e-06	-4.642016e-07	-3.550018e-10	-3.219609e+00	-2.868204e+01
1.750000e-06	-4.172713e-07	-3.395189e-10	-2.894110e+00	-2.757651e+01
1.760000e-06	-3.703633e-07	-3.245921e-10	-2.568765e+00	-2.645110e+01
1.770000e-06	-3.234013e-07	-3.097368e-10	-2.243047e+00	-2.530555e+01
1.780000e-06	-2.764445e-07	-2.962545e-10	-1.917363e+00	-2.413971e+01
1.790000e-06	-2.295319e-07	-2.785170e-10	-1.591987e+00	-2.295344e+01
1.800000e-06	-1.826039e-07	-2.565994e-10	-1.266504e+00	-2.174671e+01
1.810000e-06	-1.356806e-07	-2.342699e-10	-9.410536e-01	-2.051954e+01
1.820000e-06	-8.886210e-08	-2.147933e-10	-6.163297e-01	-1.927203e+01
1.830000e-06	-4.200568e-08	-1.979525e-10	-2.913430e-01	-1.800437e+01
1.840000e-06	5.052700e-09	-1.815690e-10	3.504451e-02	-1.671682e+01
1.850000e-06	5.202755e-08	-1.679084e-10	3.608527e-01	-1.540973e+01
1.860000e-06	9.885097e-08	-1.519852e-10	6.856105e-01	-1.408353e+01
1.870000e-06	1.457649e-07	-1.332394e-10	1.010996e+00	-1.273873e+01
1.880000e-06	1.927553e-07	-1.143690e-10	1.336912e+00	-1.137595e+01
1.890000e-06	2.396971e-07	-9.432499e-11	1.662491e+00	-9.995861e+00
1.900000e-06	2.865992e-07	-7.529568e-11	1.987794e+00	-8.599246e+00
1.910000e-06	3.334172e-07	-5.689981e-11	2.312515e+00	-7.186957e+00
1.920000e-06	3.802390e-07	-3.832515e-11	2.637261e+00	-5.759929e+00
1.930000e-06	4.270786e-07	-1.920123e-11	2.962132e+00	-4.319176e+00
1.940000e-06	4.738371e-07	-1.710455e-12	3.286439e+00	-2.865783e+00
1.950000e-06	5.205829e-07	1.561383e-11	3.610658e+00	-1.400903e+00
1.960000e-06	5.673394e-07	3.415899e-11	3.934952e+00	7.424405e-02
1.970000e-06	6.139015e-07	5.336572e-11	4.257897e+00	1.558380e+00
1.980000e-06	6.603604e-07	7.380947e-11	4.580127e+00	3.050175e+00
1.990000e-06	7.068815e-07	9.704522e-11	4.902788e+00	4.548250e+00
2.000000e-06	7.533821e-07	1.198261e-10	5.225307e+00	6.051188e+00
2.010000e-06	7.998580e-07	1.408396e-10	5.547655e+00	7.557538e+00
2.020000e-06	8.461541e-07	1.611300e-10	5.868755e+00	9.065821e+00
2.030000e-06	8.923873e-07	1.810329e-10	6.189419e+00	1.057454e+01
2.040000e-06	9.386567e-07	2.001869e-10	6.510335e+00	1.208220e+01
2.050000e-06	9.847653e-07	2.191336e-10	6.830135e+00	1.358728e+01
2.060000e-06	1.030788e-06	2.389274e-10	7.149342e+00	1.508828e+01
2.070000e-06	1.076842e-06	2.602367e-10	7.468759e+00	1.658370e+01
2.080000e-06	1.122881e-06	2.820119e-10	7.788074e+00	1.807209e+01
2.090000e-06	1.168850e-06	3.043701e-10	8.106910e+00	1.955199e+01
2.100000e-06	1.214656e-06	3.286242e-10	8.424611e+00	2.102200e+01
2.110000e-06	1.260382e-06	3.505713e-10	8.741760e+00	2.248075e+01
2.120000e-06	1.306005e-06	3.700655e-10	9.058192e+00	2.392694e+01
2.130000e-06	1.351540e-06	3.885865e-10	9.374013e+00	2.535930e+01
2.140000e-06	1.397021e-06	4.035033e-10	9.689459e+00	2.677664e+01
2.150000e-06	1.442332e-06	4.182507e-10	1.000373e+01	2.817783e+01
2.160000e-06	1.487499e-06	4.380359e-10	1.031700e+01	2.956181e+01
2.170000e-06	1.532591e-06	4.606569e-10	1.062975e+01	3.092762e+01
2.180000e-06	1.577653e-06	4.814686e-10	1.094228e+01	3.227435e+01
2.190000e-06	1.622606e-06	5.007070e-10	1.125407e+01	3.360119e+01
2.200000e-06	1.667392e-06	5.198093e-10	1.156469e+01	3.490741e+01
2.210000e-06	1.712077e-06	5.375912e-10	1.187462e+01	3.619238e+01
2.220000e-06	1.756625e-06	5.536818e-10	1.218360e+01	3.745556e+01
2.230000e-06	1.800971e-06	5.683120e-10	1.249117e+01	3.869648e+01
2.240000e-06	1.845129e-06	5.832617e-10	1.279745e+01	3.991479e+01
2.250000e-06	1.889208e-06	6.004169e-10	1.310317e+01	4.111022e+01
2.260000e-06	1.933225e-06	6.180877e-10	1.340846e+01	4.228256e+01
2.270000e-06	1.977144e-06	6.334147e-10	1.371308e+01	4.343173e+01
2.280000e-06	2.021028e-06	6.485047e-10	1.401745e+01	4.455772e+01
2.290000e-06	2.064803e-06	6.635812e-10	1.432106e+01	4.566057e+01
2.300000e-06	2.108558e-06	6.793643e-10	1.462454e+01	4.674045e+01
2.310000e-06	2.152275e-06	6.948708e-10	1.492775e+01	4.779756e+01
2.320000e-06	2.195835e-06	7.096552e-10	1.522987e+01	4.883219e+01
2.330000e-06	2.239289e-06	7.231652e-10	1.553126e+01	4.984468e+01
2.340000e-06	2.282651e-06	7.360306e-10	1.583201e+01	5.083544e+01
2.350000e-06	2.325915e-06	7.504082e-10	1.613208e+01	5.180492e+01
2.360000e-06	2.368901e-06	7.650100e-10	1.643022e+01	5.275361e+01
2.370000e-06	2.411580e-06	7.779475e-10	1.672623e+01	5.368207e+01
2.380000e-06	2.453994e-06	7.907000e-10	1.702041e+01	5.459086e+01
2.390000e-06	2.496133e-06	8.050014e-10	1.731268e+01	5.548059e+01
2.400000e-06	2.537944e-06	8.190640e-10	1.760267e+01	5.635186e+01
2.410000e-06	2.579328e-06	8.332207e-10	1.788970e+01	5.720531e+01
2.420000e-06	2.620342e-06	8.475026e-10	1.817417e+01	5.804159e+01
2.430000e-06	2.661135e-06	8.609130e-10	1.845710e+01	5.886134e+01
2.440000e-06	2.701694e-06	8.747638e-10	1.873841e+01	5.966519e+01
2.450000e-06	2.742039e-06	8.883079e-10	1.901823e+01	6.045377e+01
2.460000e-06	2.782261e-06	8.983149e-10	1.929721e+01	6.122769e+01
2.470000e-06	2.822326e-06	9.061406e-10	1.957509e+01	6.198755e+01
2.480000e-06	2.862269e-06	9.144702e-10	1.985213e+01	6.273391e+01
2.490000e-06	2.902085e-06	9.248691e-10	2.012828e+01	6.346732e+01
2.500000e-06	2.941756e-06	9.381249e-10	2.040343e+01	6.418827e+01
2.510000e-06	2.981287e-06	9.525430e-10	2.067761e+01	6.489725e+01
2.520000e-06	3.020665e-06	9.648654e-10	2.095073e+01	6.559468e+01
2.530000e-06	3.059805e-06	9.751506e-10	2.122219e+01	6.628095e+01
2.540000e-06	3.098641e-06	9.823703e-10	2.149155e+01	6.695643e+01
2.550000e-06	3.137207e-06	9.875333e-10	2.175904e+01	6.762141e+01
2.560000e-06	3.175552e-06	9.945867e-10	2.202499e+01	6.827617e+01
2.570000e-06	3.213705e-06	1.003171e-09	2.228961e+01	6.892093e+01
2.580000e-06	3.251664e-06	1.012678e-09	2.255289e+01	6.955586e+01
2.590000e-06	3.289458e-06	1.023351e-09	2.281502e+01	7.018111e+01
2.600000e-06	3.327075e-06	1.033353e-09	2.307592e+01	7.079678e+01
2.610000e-06	3.364475e-06	1.042905e-09	2.333533e+01	7.140293e+01
2.620000e-06	3.401585e-06	1.052109e-09	2.359271e+01	7.199957e+01
2.630000e-06	3.438354e-06	1.059715e-09	2.384773e+01	7.258672e+01
2.640000e-06	3.474850e-06	1.065535e-09	2.410086e+01	7.316431e+01
2.650000e-06	3.511121e-06	1.071601e-09	2.435243e+01	7.373230e+01
2.660000e-06	3.547211e-06	1.077904e-09	2.460274e+01	7.429060e+01
2.670000e-06	3.583161e-06	1.084013e-09	2.485209e+01	7.483908e+01
2.680000e-06	3.618971e-06	1.092262e-09	2.510045e+01	7.537765e+01
2.690000e-06	3.654684e-06	1.102292e-09	2.534816e+01	7.590615e+01
2.700000e-06	3.690302e-06	1.112009e-09	2.559520e+01	7.642445e+01
2.710000e-06	3.725620e-06	1.120440e-09	2.584016e+01	7.693239e+01
2.720000e-06	3.760631e-06	1.129515e-09	2.608298e+01	7.742985e+01
2.730000e-06	3.795319e-06	1.137594e-09	2.632357e+01	7.791667e+01
2.740000e-06	3.829470e-06	1.142707e-09	2.656044e+01	7.839273e+01
2.750000e-06	3.863193e-06	1.146447e-09	2.679433e+01	7.885789e+01
2.760000e-06	3.896563e-06	1.150981e-09	2.702578e+01	7.931207e+01
2.770000e-06	3.929474e-06	1.158663e-09	2.725404e+01	7.975517e+01
2.780000e-06	3.961972e-06	1.167383e-09	2.747945e+01	8.018713e+01
2.790000e-06	3.994158e-06	1.175378e-09	2.770268e+01	8.060790e+01
2.800000e-06	4.026202e-06	1.184462e-09	2.792493e+01	8.101748e+01
2.810000e-06	4.058118e-06	1.191580e-09	2.814629e+01	8.141587e+01
2.820000e-06	4.089815e-06	1.197054e-09	2.836614e+01	8.180311e+01
2.830000e-06	4.121314e-06	1.201627e-09	2.858461e+01	8.217929e+01
2.840000e-06	4.152571e-06	1.205739e-09	2.880140e+01	8.254449e+01
2.850000e-06	4.183472e-06	1.212454e-09	2.901572e+01	8.289887e+01
2.860000e-06	4.213994e-06	1.219545e-09	2.922742e+01	8.324258e+01
2.870000e-06	4.244248e-06	1.224711e-09	2.943725e+01	8.357583e+01
2.880000e-06	4.274218e-06	1.232269e-09	2.964512e+01	8.389884e+01
2.890000e-06	4.303939e-06	1.240776e-09	2.985126e+01	8.421188e+01
2.900000e-06	4.333480e-06	1.246397e-09	3.005615e+01	8.451522e+01
