# Temperatura_=_-15.79
# Concentracion g/m^3_=_1620.0
# C_Vs_to_Am_M_A/Vsm_=_65563218390.804596
# pendiente_HvsI_1/m_=_3716.3
# ordenada_HvsI_A/m_=_1297.0
# frecuencia_Hz_=_135097.40181868416

Tiempo_(s)	Campo_(V.s)	Magnetizacion_(V.s)	Campo_(kA/m)	Magnetizacion_(A/m)
0.000000e+00	-5.516701e-06	-9.127639e-10	-3.836902e+01	-6.100977e+01
1.000000e-08	-5.516892e-06	-9.139690e-10	-3.837035e+01	-6.105238e+01
2.000000e-08	-5.516841e-06	-9.164904e-10	-3.836999e+01	-6.109356e+01
3.000000e-08	-5.516392e-06	-9.170859e-10	-3.836687e+01	-6.113293e+01
4.000000e-08	-5.515485e-06	-9.157984e-10	-3.836056e+01	-6.117009e+01
5.000000e-08	-5.514063e-06	-9.129352e-10	-3.835067e+01	-6.120465e+01
6.000000e-08	-5.512007e-06	-8.991611e-10	-3.833637e+01	-6.123622e+01
7.000000e-08	-5.509298e-06	-8.892000e-10	-3.831754e+01	-6.126444e+01
8.000000e-08	-5.506068e-06	-9.208199e-10	-3.829507e+01	-6.128891e+01
9.000000e-08	-5.502384e-06	-9.663568e-10	-3.826945e+01	-6.130930e+01
1.000000e-07	-5.498168e-06	-9.508145e-10	-3.824012e+01	-6.132527e+01
1.100000e-07	-5.493720e-06	-9.057057e-10	-3.820919e+01	-6.133649e+01
1.200000e-07	-5.489192e-06	-8.779503e-10	-3.817769e+01	-6.134267e+01
1.300000e-07	-5.484359e-06	-9.191924e-10	-3.814408e+01	-6.134355e+01
1.400000e-07	-5.479141e-06	-9.255666e-10	-3.810779e+01	-6.133890e+01
1.500000e-07	-5.473458e-06	-8.774376e-10	-3.806826e+01	-6.132849e+01
1.600000e-07	-5.467371e-06	-8.858141e-10	-3.802593e+01	-6.131218e+01
1.700000e-07	-5.460901e-06	-9.398792e-10	-3.798093e+01	-6.128981e+01
1.800000e-07	-5.453976e-06	-9.894345e-10	-3.793276e+01	-6.126130e+01
1.900000e-07	-5.446674e-06	-9.311839e-10	-3.788198e+01	-6.122658e+01
2.000000e-07	-5.439099e-06	-9.050061e-10	-3.782929e+01	-6.118564e+01
2.100000e-07	-5.431274e-06	-9.376601e-10	-3.777487e+01	-6.113849e+01
2.200000e-07	-5.423250e-06	-9.911212e-10	-3.771906e+01	-6.108518e+01
2.300000e-07	-5.414918e-06	-9.735846e-10	-3.766111e+01	-6.102583e+01
2.400000e-07	-5.406034e-06	-9.621066e-10	-3.759932e+01	-6.096056e+01
2.500000e-07	-5.396525e-06	-9.699502e-10	-3.753319e+01	-6.088954e+01
2.600000e-07	-5.386347e-06	-9.665931e-10	-3.746240e+01	-6.081299e+01
2.700000e-07	-5.375593e-06	-9.260768e-10	-3.738761e+01	-6.073114e+01
2.800000e-07	-5.364332e-06	-9.160795e-10	-3.730928e+01	-6.064426e+01
2.900000e-07	-5.352587e-06	-9.355091e-10	-3.722760e+01	-6.055267e+01
3.000000e-07	-5.340516e-06	-9.272743e-10	-3.714364e+01	-6.045667e+01
3.100000e-07	-5.328130e-06	-9.090776e-10	-3.705750e+01	-6.035663e+01
3.200000e-07	-5.315350e-06	-9.127960e-10	-3.696861e+01	-6.025291e+01
3.300000e-07	-5.302137e-06	-9.366371e-10	-3.687672e+01	-6.014590e+01
3.400000e-07	-5.288454e-06	-9.139146e-10	-3.678155e+01	-6.003599e+01
3.500000e-07	-5.274378e-06	-8.964988e-10	-3.668365e+01	-5.992359e+01
3.600000e-07	-5.259941e-06	-9.034974e-10	-3.658324e+01	-5.980912e+01
3.700000e-07	-5.245129e-06	-9.213980e-10	-3.648022e+01	-5.969299e+01
3.800000e-07	-5.229659e-06	-9.030688e-10	-3.637262e+01	-5.957561e+01
3.900000e-07	-5.213493e-06	-9.055464e-10	-3.626019e+01	-5.945738e+01
4.000000e-07	-5.196905e-06	-9.095231e-10	-3.614482e+01	-5.933870e+01
4.100000e-07	-5.180046e-06	-9.032695e-10	-3.602756e+01	-5.921995e+01
4.200000e-07	-5.163001e-06	-8.869586e-10	-3.590902e+01	-5.910150e+01
4.300000e-07	-5.145643e-06	-9.043760e-10	-3.578829e+01	-5.898368e+01
4.400000e-07	-5.127892e-06	-9.065621e-10	-3.566483e+01	-5.886683e+01
4.500000e-07	-5.109761e-06	-9.028504e-10	-3.553873e+01	-5.875123e+01
4.600000e-07	-5.091212e-06	-8.948762e-10	-3.540971e+01	-5.863716e+01
4.700000e-07	-5.072222e-06	-8.946051e-10	-3.527764e+01	-5.852485e+01
4.800000e-07	-5.052912e-06	-8.893574e-10	-3.514334e+01	-5.841450e+01
4.900000e-07	-5.033272e-06	-9.029312e-10	-3.500674e+01	-5.830630e+01
5.000000e-07	-5.013386e-06	-9.026342e-10	-3.486843e+01	-5.820037e+01
5.100000e-07	-4.993343e-06	-8.863039e-10	-3.472903e+01	-5.809682e+01
5.200000e-07	-4.973042e-06	-8.881516e-10	-3.458783e+01	-5.799571e+01
5.300000e-07	-4.952407e-06	-9.051087e-10	-3.444432e+01	-5.789707e+01
5.400000e-07	-4.931441e-06	-8.995871e-10	-3.429850e+01	-5.780089e+01
5.500000e-07	-4.910121e-06	-8.880812e-10	-3.415022e+01	-5.770714e+01
5.600000e-07	-4.888470e-06	-8.848606e-10	-3.399963e+01	-5.761574e+01
5.700000e-07	-4.866485e-06	-8.767332e-10	-3.384673e+01	-5.752658e+01
5.800000e-07	-4.844129e-06	-8.705806e-10	-3.369124e+01	-5.743952e+01
5.900000e-07	-4.821358e-06	-8.744053e-10	-3.353286e+01	-5.735439e+01
6.000000e-07	-4.798260e-06	-8.735846e-10	-3.337222e+01	-5.727100e+01
6.100000e-07	-4.774912e-06	-8.664370e-10	-3.320983e+01	-5.718913e+01
6.200000e-07	-4.751306e-06	-8.715305e-10	-3.304565e+01	-5.710854e+01
6.300000e-07	-4.727453e-06	-8.680699e-10	-3.287975e+01	-5.702897e+01
6.400000e-07	-4.703340e-06	-8.614247e-10	-3.271204e+01	-5.695014e+01
6.500000e-07	-4.678917e-06	-8.612730e-10	-3.254218e+01	-5.687177e+01
6.600000e-07	-4.654084e-06	-8.635413e-10	-3.236946e+01	-5.679355e+01
6.700000e-07	-4.628726e-06	-8.514437e-10	-3.219310e+01	-5.671517e+01
6.800000e-07	-4.602837e-06	-8.507646e-10	-3.201304e+01	-5.663634e+01
6.900000e-07	-4.576502e-06	-8.541343e-10	-3.182988e+01	-5.655674e+01
7.000000e-07	-4.549671e-06	-8.542966e-10	-3.164327e+01	-5.647607e+01
7.100000e-07	-4.522386e-06	-8.480810e-10	-3.145349e+01	-5.639402e+01
7.200000e-07	-4.494829e-06	-8.501280e-10	-3.126183e+01	-5.631030e+01
7.300000e-07	-4.467100e-06	-8.462436e-10	-3.106898e+01	-5.622463e+01
7.400000e-07	-4.439218e-06	-8.424820e-10	-3.087506e+01	-5.613674e+01
7.500000e-07	-4.411174e-06	-8.386651e-10	-3.068000e+01	-5.604639e+01
7.600000e-07	-4.382847e-06	-8.343562e-10	-3.048299e+01	-5.595333e+01
7.700000e-07	-4.354170e-06	-8.280550e-10	-3.028354e+01	-5.585734e+01
7.800000e-07	-4.325132e-06	-8.318845e-10	-3.008158e+01	-5.575825e+01
7.900000e-07	-4.295751e-06	-8.356571e-10	-2.987723e+01	-5.565587e+01
8.000000e-07	-4.266064e-06	-8.374766e-10	-2.967076e+01	-5.555006e+01
8.100000e-07	-4.236131e-06	-8.322324e-10	-2.946257e+01	-5.544069e+01
8.200000e-07	-4.205864e-06	-8.298677e-10	-2.925206e+01	-5.532765e+01
8.300000e-07	-4.175287e-06	-8.244501e-10	-2.903940e+01	-5.521088e+01
8.400000e-07	-4.144401e-06	-8.196034e-10	-2.882459e+01	-5.509031e+01
8.500000e-07	-4.113232e-06	-8.212747e-10	-2.860780e+01	-5.496592e+01
8.600000e-07	-4.081905e-06	-8.218772e-10	-2.838992e+01	-5.483769e+01
8.700000e-07	-4.050386e-06	-8.181121e-10	-2.817070e+01	-5.470563e+01
8.800000e-07	-4.018657e-06	-8.151156e-10	-2.795002e+01	-5.456977e+01
8.900000e-07	-3.986769e-06	-8.128236e-10	-2.772824e+01	-5.443017e+01
9.000000e-07	-3.954664e-06	-8.040789e-10	-2.750495e+01	-5.428688e+01
9.100000e-07	-3.922203e-06	-7.990925e-10	-2.727918e+01	-5.413997e+01
9.200000e-07	-3.889482e-06	-7.987103e-10	-2.705160e+01	-5.398955e+01
9.300000e-07	-3.856359e-06	-8.008627e-10	-2.682123e+01	-5.383569e+01
9.400000e-07	-3.822726e-06	-8.005319e-10	-2.658731e+01	-5.367851e+01
9.500000e-07	-3.788661e-06	-8.021958e-10	-2.635039e+01	-5.351812e+01
9.600000e-07	-3.754117e-06	-7.967770e-10	-2.611013e+01	-5.335462e+01
9.700000e-07	-3.719208e-06	-7.898257e-10	-2.586734e+01	-5.318813e+01
9.800000e-07	-3.683985e-06	-7.852118e-10	-2.562236e+01	-5.301875e+01
9.900000e-07	-3.648417e-06	-7.830699e-10	-2.537498e+01	-5.284659e+01
1.000000e-06	-3.612672e-06	-7.779794e-10	-2.512637e+01	-5.267173e+01
1.010000e-06	-3.576874e-06	-7.772244e-10	-2.487740e+01	-5.249426e+01
1.020000e-06	-3.541019e-06	-7.765295e-10	-2.462802e+01	-5.231427e+01
1.030000e-06	-3.504977e-06	-7.751450e-10	-2.437735e+01	-5.213180e+01
1.040000e-06	-3.468688e-06	-7.712967e-10	-2.412495e+01	-5.194691e+01
1.050000e-06	-3.432140e-06	-7.685365e-10	-2.387076e+01	-5.175962e+01
1.060000e-06	-3.395326e-06	-7.614925e-10	-2.361471e+01	-5.156994e+01
1.070000e-06	-3.358202e-06	-7.560797e-10	-2.335652e+01	-5.137787e+01
1.080000e-06	-3.320795e-06	-7.544137e-10	-2.309635e+01	-5.118339e+01
1.090000e-06	-3.283136e-06	-7.531332e-10	-2.283443e+01	-5.098645e+01
1.100000e-06	-3.245280e-06	-7.485128e-10	-2.257114e+01	-5.078698e+01
1.110000e-06	-3.207310e-06	-7.458942e-10	-2.230705e+01	-5.058491e+01
1.120000e-06	-3.169175e-06	-7.427263e-10	-2.204182e+01	-5.038012e+01
1.130000e-06	-3.130815e-06	-7.370606e-10	-2.177503e+01	-5.017249e+01
1.140000e-06	-3.092208e-06	-7.321178e-10	-2.150651e+01	-4.996189e+01
1.150000e-06	-3.053309e-06	-7.270596e-10	-2.123597e+01	-4.974816e+01
1.160000e-06	-3.014075e-06	-7.198296e-10	-2.096309e+01	-4.953112e+01
1.170000e-06	-2.974696e-06	-7.137520e-10	-2.068921e+01	-4.931059e+01
1.180000e-06	-2.935266e-06	-7.112510e-10	-2.041497e+01	-4.908636e+01
1.190000e-06	-2.895691e-06	-7.074568e-10	-2.013972e+01	-4.885822e+01
1.200000e-06	-2.855945e-06	-7.043479e-10	-1.986328e+01	-4.862595e+01
1.210000e-06	-2.816077e-06	-7.027092e-10	-1.958600e+01	-4.838931e+01
1.220000e-06	-2.776109e-06	-7.015988e-10	-1.930802e+01	-4.814808e+01
1.230000e-06	-2.736002e-06	-6.978447e-10	-1.902907e+01	-4.790200e+01
1.240000e-06	-2.695694e-06	-6.943784e-10	-1.874873e+01	-4.765083e+01
1.250000e-06	-2.655167e-06	-6.909443e-10	-1.846686e+01	-4.739433e+01
1.260000e-06	-2.614313e-06	-6.884329e-10	-1.818272e+01	-4.713225e+01
1.270000e-06	-2.573261e-06	-6.848439e-10	-1.789720e+01	-4.686436e+01
1.280000e-06	-2.532047e-06	-6.805070e-10	-1.761055e+01	-4.659041e+01
1.290000e-06	-2.490436e-06	-6.735739e-10	-1.732115e+01	-4.631018e+01
1.300000e-06	-2.448583e-06	-6.674689e-10	-1.703005e+01	-4.602344e+01
1.310000e-06	-2.406486e-06	-6.614322e-10	-1.673727e+01	-4.572999e+01
1.320000e-06	-2.364089e-06	-6.567670e-10	-1.644240e+01	-4.542961e+01
1.330000e-06	-2.321452e-06	-6.533147e-10	-1.614585e+01	-4.512211e+01
1.340000e-06	-2.278554e-06	-6.494854e-10	-1.584750e+01	-4.480732e+01
1.350000e-06	-2.235453e-06	-6.429387e-10	-1.554772e+01	-4.448505e+01
1.360000e-06	-2.192100e-06	-6.350699e-10	-1.524620e+01	-4.415515e+01
1.370000e-06	-2.148551e-06	-6.276868e-10	-1.494332e+01	-4.381748e+01
1.380000e-06	-2.104886e-06	-6.228358e-10	-1.463962e+01	-4.347191e+01
1.390000e-06	-2.061096e-06	-6.179929e-10	-1.433506e+01	-4.311829e+01
1.400000e-06	-2.017227e-06	-6.142405e-10	-1.402995e+01	-4.275654e+01
1.410000e-06	-1.973334e-06	-6.105802e-10	-1.372467e+01	-4.238653e+01
1.420000e-06	-1.929420e-06	-6.067432e-10	-1.341924e+01	-4.200818e+01
1.430000e-06	-1.885429e-06	-6.018269e-10	-1.311328e+01	-4.162141e+01
1.440000e-06	-1.841302e-06	-5.955324e-10	-1.280638e+01	-4.122613e+01
1.450000e-06	-1.797025e-06	-5.884877e-10	-1.249843e+01	-4.082226e+01
1.460000e-06	-1.752673e-06	-5.795298e-10	-1.218996e+01	-4.040975e+01
1.470000e-06	-1.708253e-06	-5.694664e-10	-1.188102e+01	-3.998852e+01
1.480000e-06	-1.663654e-06	-5.593757e-10	-1.157082e+01	-3.955850e+01
1.490000e-06	-1.618940e-06	-5.506454e-10	-1.125983e+01	-3.911963e+01
1.500000e-06	-1.574165e-06	-5.426151e-10	-1.094842e+01	-3.867183e+01
1.510000e-06	-1.529279e-06	-5.351724e-10	-1.063624e+01	-3.821503e+01
1.520000e-06	-1.484172e-06	-5.262637e-10	-1.032252e+01	-3.774914e+01
1.530000e-06	-1.438832e-06	-5.160316e-10	-1.000717e+01	-3.727409e+01
1.540000e-06	-1.393506e-06	-5.055618e-10	-9.691927e+00	-3.678976e+01
1.550000e-06	-1.348188e-06	-4.958215e-10	-9.376735e+00	-3.629606e+01
1.560000e-06	-1.302660e-06	-4.874736e-10	-9.060088e+00	-3.579286e+01
1.570000e-06	-1.256916e-06	-4.832162e-10	-8.741932e+00	-3.528005e+01
1.580000e-06	-1.211066e-06	-4.779234e-10	-8.423045e+00	-3.475746e+01
1.590000e-06	-1.165193e-06	-4.679082e-10	-8.103996e+00	-3.422496e+01
1.600000e-06	-1.119281e-06	-4.575256e-10	-7.784674e+00	-3.368237e+01
1.610000e-06	-1.073282e-06	-4.486263e-10	-7.464750e+00	-3.312951e+01
1.620000e-06	-1.027247e-06	-4.393761e-10	-7.144573e+00	-3.256620e+01
1.630000e-06	-9.811386e-07	-4.318221e-10	-6.823884e+00	-3.199222e+01
1.640000e-06	-9.349353e-07	-4.245048e-10	-6.502537e+00	-3.140737e+01
1.650000e-06	-8.886644e-07	-4.157037e-10	-6.180720e+00	-3.081142e+01
1.660000e-06	-8.423596e-07	-4.030275e-10	-5.858667e+00	-3.020413e+01
1.670000e-06	-7.960336e-07	-3.896876e-10	-5.536466e+00	-2.958528e+01
1.680000e-06	-7.496953e-07	-3.784066e-10	-5.214180e+00	-2.895461e+01
1.690000e-06	-7.033263e-07	-3.699242e-10	-4.891681e+00	-2.831189e+01
1.700000e-06	-6.568801e-07	-3.630078e-10	-4.568645e+00	-2.765686e+01
1.710000e-06	-6.103755e-07	-3.554579e-10	-4.245202e+00	-2.698929e+01
1.720000e-06	-5.638714e-07	-3.468135e-10	-3.921763e+00	-2.630893e+01
1.730000e-06	-5.174132e-07	-3.369566e-10	-3.598643e+00	-2.561557e+01
1.740000e-06	-4.708639e-07	-3.265794e-10	-3.274890e+00	-2.490898e+01
1.750000e-06	-4.242334e-07	-3.146942e-10	-2.950571e+00	-2.418895e+01
1.760000e-06	-3.775588e-07	-3.026703e-10	-2.625946e+00	-2.345532e+01
1.770000e-06	-3.307976e-07	-2.930474e-10	-2.300719e+00	-2.270790e+01
1.780000e-06	-2.840095e-07	-2.839851e-10	-1.975305e+00	-2.194657e+01
1.790000e-06	-2.372619e-07	-2.718049e-10	-1.650172e+00	-2.117120e+01
1.800000e-06	-1.905112e-07	-2.572958e-10	-1.325018e+00	-2.038172e+01
1.810000e-06	-1.436816e-07	-2.426829e-10	-9.993152e-01	-1.957807e+01
1.820000e-06	-9.685042e-08	-2.296075e-10	-6.736011e-01	-1.876025e+01
1.830000e-06	-5.015389e-08	-2.174988e-10	-3.488236e-01	-1.792827e+01
1.840000e-06	-3.330397e-09	-2.063057e-10	-2.316313e-02	-1.708220e+01
1.850000e-06	4.365440e-08	-1.962613e-10	3.036192e-01	-1.622215e+01
1.860000e-06	9.055548e-08	-1.855594e-10	6.298193e-01	-1.534826e+01
1.870000e-06	1.373982e-07	-1.725440e-10	9.556136e-01	-1.446075e+01
1.880000e-06	1.842061e-07	-1.589206e-10	1.281165e+00	-1.355984e+01
1.890000e-06	2.310239e-07	-1.457386e-10	1.606786e+00	-1.264585e+01
1.900000e-06	2.778456e-07	-1.333134e-10	1.932435e+00	-1.171911e+01
1.910000e-06	3.246318e-07	-1.221758e-10	2.257836e+00	-1.078000e+01
1.920000e-06	3.713214e-07	-1.106760e-10	2.582565e+00	-9.828984e+00
1.930000e-06	4.179795e-07	-9.965907e-11	2.907075e+00	-8.866537e+00
1.940000e-06	4.646084e-07	-8.921561e-11	3.231382e+00	-7.893197e+00
1.950000e-06	5.111485e-07	-7.813793e-11	3.555072e+00	-6.909547e+00
1.960000e-06	5.576607e-07	-6.522061e-11	3.878567e+00	-5.916212e+00
1.970000e-06	6.041873e-07	-5.157598e-11	4.202163e+00	-4.913862e+00
1.980000e-06	6.506674e-07	-3.736335e-11	4.525435e+00	-3.903204e+00
1.990000e-06	6.970393e-07	-2.255978e-11	4.847955e+00	-2.884985e+00
2.000000e-06	7.433621e-07	-7.382548e-12	5.170133e+00	-1.859982e+00
2.010000e-06	7.895957e-07	8.066797e-12	5.491690e+00	-8.290062e-01
2.020000e-06	8.357635e-07	2.164235e-11	5.812790e+00	2.071048e-01
2.030000e-06	8.819035e-07	3.484922e-11	6.133697e+00	1.247490e+00
2.040000e-06	9.279336e-07	4.791163e-11	6.453840e+00	2.291271e+00
2.050000e-06	9.739603e-07	6.146220e-11	6.773959e+00	3.337549e+00
2.060000e-06	1.019983e-06	7.526843e-11	7.094047e+00	4.385420e+00
2.070000e-06	1.065921e-06	9.052770e-11	7.413549e+00	5.433968e+00
2.080000e-06	1.111816e-06	1.074160e-10	7.732753e+00	6.482279e+00
2.090000e-06	1.157606e-06	1.242426e-10	8.051225e+00	7.529436e+00
2.100000e-06	1.203310e-06	1.404321e-10	8.369101e+00	8.574533e+00
2.110000e-06	1.248966e-06	1.564403e-10	8.686640e+00	9.616670e+00
2.120000e-06	1.294510e-06	1.707348e-10	9.003406e+00	1.065497e+01
2.130000e-06	1.339970e-06	1.829101e-10	9.319582e+00	1.168855e+01
2.140000e-06	1.385335e-06	1.937363e-10	9.635097e+00	1.271659e+01
2.150000e-06	1.430562e-06	2.050560e-10	9.949652e+00	1.373826e+01
2.160000e-06	1.475700e-06	2.189868e-10	1.026359e+01	1.475278e+01
2.170000e-06	1.520745e-06	2.351140e-10	1.057688e+01	1.575939e+01
2.180000e-06	1.565655e-06	2.504035e-10	1.088923e+01	1.675737e+01
2.190000e-06	1.610370e-06	2.639488e-10	1.120023e+01	1.774604e+01
2.200000e-06	1.654883e-06	2.760186e-10	1.150982e+01	1.872476e+01
2.210000e-06	1.699288e-06	2.878480e-10	1.181866e+01	1.969293e+01
2.220000e-06	1.743603e-06	2.995439e-10	1.212687e+01	2.064998e+01
2.230000e-06	1.787848e-06	3.115233e-10	1.243460e+01	2.159542e+01
2.240000e-06	1.831996e-06	3.251746e-10	1.274166e+01	2.252877e+01
2.250000e-06	1.876023e-06	3.390288e-10	1.304786e+01	2.344960e+01
2.260000e-06	1.920009e-06	3.512407e-10	1.335379e+01	2.435755e+01
2.270000e-06	1.963919e-06	3.623014e-10	1.365919e+01	2.525228e+01
2.280000e-06	2.007779e-06	3.737839e-10	1.396423e+01	2.613351e+01
2.290000e-06	2.051620e-06	3.851556e-10	1.426915e+01	2.700099e+01
2.300000e-06	2.095339e-06	3.969954e-10	1.457322e+01	2.785453e+01
2.310000e-06	2.138979e-06	4.076224e-10	1.487674e+01	2.869396e+01
2.320000e-06	2.182529e-06	4.154044e-10	1.517964e+01	2.951917e+01
2.330000e-06	2.225902e-06	4.233105e-10	1.548130e+01	3.033006e+01
2.340000e-06	2.269097e-06	4.342519e-10	1.578172e+01	3.112661e+01
2.350000e-06	2.312139e-06	4.465291e-10	1.608108e+01	3.190878e+01
2.360000e-06	2.354973e-06	4.581794e-10	1.637899e+01	3.267660e+01
2.370000e-06	2.397523e-06	4.682280e-10	1.667493e+01	3.343010e+01
2.380000e-06	2.439709e-06	4.768752e-10	1.696834e+01	3.416935e+01
2.390000e-06	2.481511e-06	4.857889e-10	1.725907e+01	3.489445e+01
2.400000e-06	2.523003e-06	4.953257e-10	1.754765e+01	3.560549e+01
2.410000e-06	2.564183e-06	5.049432e-10	1.783406e+01	3.630261e+01
2.420000e-06	2.605117e-06	5.150027e-10	1.811876e+01	3.698593e+01
2.430000e-06	2.645837e-06	5.243008e-10	1.840197e+01	3.765561e+01
2.440000e-06	2.686339e-06	5.335513e-10	1.868367e+01	3.831180e+01
2.450000e-06	2.726658e-06	5.432687e-10	1.896409e+01	3.895466e+01
2.460000e-06	2.766799e-06	5.532448e-10	1.924327e+01	3.958436e+01
2.470000e-06	2.806758e-06	5.615745e-10	1.952119e+01	4.020106e+01
2.480000e-06	2.846561e-06	5.685185e-10	1.979802e+01	4.080494e+01
2.490000e-06	2.886288e-06	5.752806e-10	2.007433e+01	4.139614e+01
2.500000e-06	2.925900e-06	5.831029e-10	2.034983e+01	4.197484e+01
2.510000e-06	2.965331e-06	5.904949e-10	2.062408e+01	4.254119e+01
2.520000e-06	3.004641e-06	5.967483e-10	2.089748e+01	4.309533e+01
2.530000e-06	3.043753e-06	6.045336e-10	2.116950e+01	4.363741e+01
2.540000e-06	3.082549e-06	6.111155e-10	2.143933e+01	4.416756e+01
2.550000e-06	3.121090e-06	6.158725e-10	2.170739e+01	4.468591e+01
2.560000e-06	3.159524e-06	6.220283e-10	2.197470e+01	4.519259e+01
2.570000e-06	3.197727e-06	6.297866e-10	2.224040e+01	4.568769e+01
2.580000e-06	3.235607e-06	6.356310e-10	2.250386e+01	4.617133e+01
2.590000e-06	3.273295e-06	6.413987e-10	2.276598e+01	4.664361e+01
2.600000e-06	3.310786e-06	6.491779e-10	2.302673e+01	4.710461e+01
2.610000e-06	3.348032e-06	6.586495e-10	2.328578e+01	4.755442e+01
2.620000e-06	3.385084e-06	6.675091e-10	2.354348e+01	4.799314e+01
2.630000e-06	3.421929e-06	6.745685e-10	2.379975e+01	4.842083e+01
2.640000e-06	3.458429e-06	6.783116e-10	2.405360e+01	4.883758e+01
2.650000e-06	3.494706e-06	6.801439e-10	2.430591e+01	4.924346e+01
2.660000e-06	3.530843e-06	6.834779e-10	2.455725e+01	4.963856e+01
2.670000e-06	3.566793e-06	6.886877e-10	2.480728e+01	5.002295e+01
2.680000e-06	3.602608e-06	6.947328e-10	2.505638e+01	5.039672e+01
2.690000e-06	3.638256e-06	7.018978e-10	2.530431e+01	5.075996e+01
2.700000e-06	3.673760e-06	7.089271e-10	2.555125e+01	5.111278e+01
2.710000e-06	3.709096e-06	7.149598e-10	2.579701e+01	5.145526e+01
2.720000e-06	3.744135e-06	7.204116e-10	2.604070e+01	5.178753e+01
2.730000e-06	3.778759e-06	7.250193e-10	2.628152e+01	5.210970e+01
2.740000e-06	3.812927e-06	7.285646e-10	2.651916e+01	5.242191e+01
2.750000e-06	3.846658e-06	7.319735e-10	2.675376e+01	5.272430e+01
2.760000e-06	3.879934e-06	7.353912e-10	2.698520e+01	5.301702e+01
2.770000e-06	3.912706e-06	7.392376e-10	2.721313e+01	5.330025e+01
2.780000e-06	3.945099e-06	7.467934e-10	2.743843e+01	5.357415e+01
2.790000e-06	3.977265e-06	7.558806e-10	2.766214e+01	5.383892e+01
2.800000e-06	4.009225e-06	7.637040e-10	2.788443e+01	5.409476e+01
2.810000e-06	4.041080e-06	7.692753e-10	2.810598e+01	5.434188e+01
2.820000e-06	4.072802e-06	7.729230e-10	2.832661e+01	5.458051e+01
2.830000e-06	4.104266e-06	7.744712e-10	2.854544e+01	5.481087e+01
2.840000e-06	4.135407e-06	7.747808e-10	2.876203e+01	5.503322e+01
2.850000e-06	4.166283e-06	7.768706e-10	2.897677e+01	5.524779e+01
2.860000e-06	4.196916e-06	7.816721e-10	2.918983e+01	5.545484e+01
2.870000e-06	4.227222e-06	7.876473e-10	2.940061e+01	5.565464e+01
2.880000e-06	4.257197e-06	7.946400e-10	2.960908e+01	5.584746e+01
2.890000e-06	4.286831e-06	8.014460e-10	2.981519e+01	5.603355e+01
2.900000e-06	4.316163e-06	8.079648e-10	3.001920e+01	5.621320e+01
