# Temperatura_=_-0.53
# Concentracion g/m^3_=_1620.0
# C_Vs_to_Am_M_A/Vsm_=_65563218390.804596
# pendiente_HvsI_1/m_=_3716.3
# ordenada_HvsI_A/m_=_1297.0
# frecuencia_Hz_=_135088.81780086737

Tiempo_(s)	Campo_(V.s)	Magnetizacion_(V.s)	Campo_(kA/m)	Magnetizacion_(A/m)
0.000000e+00	-5.543915e-06	-1.317699e-09	-3.837812e+01	-8.562920e+01
1.000000e-08	-5.544269e-06	-1.315679e-09	-3.838057e+01	-8.562005e+01
2.000000e-08	-5.544344e-06	-1.314682e-09	-3.838109e+01	-8.560622e+01
3.000000e-08	-5.544052e-06	-1.315962e-09	-3.837907e+01	-8.558769e+01
4.000000e-08	-5.543377e-06	-1.316370e-09	-3.837440e+01	-8.556444e+01
5.000000e-08	-5.542150e-06	-1.314031e-09	-3.836590e+01	-8.553649e+01
6.000000e-08	-5.540335e-06	-1.307303e-09	-3.835334e+01	-8.550388e+01
7.000000e-08	-5.537855e-06	-1.284586e-09	-3.833617e+01	-8.546664e+01
8.000000e-08	-5.534753e-06	-1.278841e-09	-3.831470e+01	-8.542487e+01
9.000000e-08	-5.531306e-06	-1.320765e-09	-3.829084e+01	-8.537866e+01
1.000000e-07	-5.527427e-06	-1.371148e-09	-3.826398e+01	-8.532813e+01
1.100000e-07	-5.523072e-06	-1.319407e-09	-3.823383e+01	-8.527340e+01
1.200000e-07	-5.518541e-06	-1.281317e-09	-3.820247e+01	-8.521464e+01
1.300000e-07	-5.513964e-06	-1.223156e-09	-3.817078e+01	-8.515200e+01
1.400000e-07	-5.509090e-06	-1.316354e-09	-3.813704e+01	-8.508566e+01
1.500000e-07	-5.503639e-06	-1.290723e-09	-3.809931e+01	-8.501581e+01
1.600000e-07	-5.497760e-06	-1.265739e-09	-3.805861e+01	-8.494266e+01
1.700000e-07	-5.491629e-06	-1.234135e-09	-3.801616e+01	-8.486641e+01
1.800000e-07	-5.485054e-06	-1.310944e-09	-3.797065e+01	-8.478728e+01
1.900000e-07	-5.477997e-06	-1.324436e-09	-3.792180e+01	-8.470547e+01
2.000000e-07	-5.470636e-06	-1.263341e-09	-3.787084e+01	-8.462120e+01
2.100000e-07	-5.463027e-06	-1.250758e-09	-3.781816e+01	-8.453470e+01
2.200000e-07	-5.455176e-06	-1.290835e-09	-3.776382e+01	-8.444617e+01
2.300000e-07	-5.447012e-06	-1.309639e-09	-3.770730e+01	-8.435582e+01
2.400000e-07	-5.438528e-06	-1.260081e-09	-3.764857e+01	-8.426384e+01
2.500000e-07	-5.429495e-06	-1.278920e-09	-3.758604e+01	-8.417042e+01
2.600000e-07	-5.419613e-06	-1.274662e-09	-3.751763e+01	-8.407574e+01
2.700000e-07	-5.409038e-06	-1.306197e-09	-3.744443e+01	-8.397994e+01
2.800000e-07	-5.397989e-06	-1.262458e-09	-3.736794e+01	-8.388319e+01
2.900000e-07	-5.386523e-06	-1.280610e-09	-3.728856e+01	-8.378560e+01
3.000000e-07	-5.374646e-06	-1.265031e-09	-3.720634e+01	-8.368727e+01
3.100000e-07	-5.362473e-06	-1.313534e-09	-3.712207e+01	-8.358830e+01
3.200000e-07	-5.349890e-06	-1.275115e-09	-3.703497e+01	-8.348874e+01
3.300000e-07	-5.336813e-06	-1.285998e-09	-3.694444e+01	-8.338864e+01
3.400000e-07	-5.323392e-06	-1.264428e-09	-3.685153e+01	-8.328802e+01
3.500000e-07	-5.309636e-06	-1.291852e-09	-3.675631e+01	-8.318687e+01
3.600000e-07	-5.295392e-06	-1.254508e-09	-3.665770e+01	-8.308515e+01
3.700000e-07	-5.280721e-06	-1.272479e-09	-3.655614e+01	-8.298283e+01
3.800000e-07	-5.265601e-06	-1.268416e-09	-3.645148e+01	-8.287982e+01
3.900000e-07	-5.249836e-06	-1.276609e-09	-3.634234e+01	-8.277601e+01
4.000000e-07	-5.233523e-06	-1.261899e-09	-3.622941e+01	-8.267130e+01
4.100000e-07	-5.216852e-06	-1.269888e-09	-3.611401e+01	-8.256554e+01
4.200000e-07	-5.199890e-06	-1.261132e-09	-3.599658e+01	-8.245858e+01
4.300000e-07	-5.182582e-06	-1.240989e-09	-3.587677e+01	-8.235022e+01
4.400000e-07	-5.165034e-06	-1.252726e-09	-3.575529e+01	-8.224027e+01
4.500000e-07	-5.147129e-06	-1.261951e-09	-3.563134e+01	-8.212854e+01
4.600000e-07	-5.128755e-06	-1.260068e-09	-3.550415e+01	-8.201478e+01
4.700000e-07	-5.109962e-06	-1.235652e-09	-3.537405e+01	-8.189878e+01
4.800000e-07	-5.090763e-06	-1.246915e-09	-3.524114e+01	-8.178029e+01
4.900000e-07	-5.071329e-06	-1.237501e-09	-3.510661e+01	-8.165907e+01
5.000000e-07	-5.051691e-06	-1.240230e-09	-3.497066e+01	-8.153487e+01
5.100000e-07	-5.031839e-06	-1.223275e-09	-3.483324e+01	-8.140743e+01
5.200000e-07	-5.011729e-06	-1.228158e-09	-3.469403e+01	-8.127651e+01
5.300000e-07	-4.991262e-06	-1.208946e-09	-3.455234e+01	-8.114188e+01
5.400000e-07	-4.970347e-06	-1.223594e-09	-3.440755e+01	-8.100328e+01
5.500000e-07	-4.949062e-06	-1.218294e-09	-3.426021e+01	-8.086050e+01
5.600000e-07	-4.927476e-06	-1.220355e-09	-3.411078e+01	-8.071332e+01
5.700000e-07	-4.905483e-06	-1.192995e-09	-3.395853e+01	-8.056153e+01
5.800000e-07	-4.883132e-06	-1.200255e-09	-3.380380e+01	-8.040496e+01
5.900000e-07	-4.860519e-06	-1.193233e-09	-3.364727e+01	-8.024343e+01
6.000000e-07	-4.837604e-06	-1.194047e-09	-3.348863e+01	-8.007679e+01
6.100000e-07	-4.814232e-06	-1.180416e-09	-3.332684e+01	-7.990492e+01
6.200000e-07	-4.790621e-06	-1.194010e-09	-3.316339e+01	-7.972771e+01
6.300000e-07	-4.766937e-06	-1.178947e-09	-3.299944e+01	-7.954507e+01
6.400000e-07	-4.743038e-06	-1.170566e-09	-3.283399e+01	-7.935696e+01
6.500000e-07	-4.718787e-06	-1.166748e-09	-3.266611e+01	-7.916333e+01
6.600000e-07	-4.693942e-06	-1.170119e-09	-3.249413e+01	-7.896418e+01
6.700000e-07	-4.668632e-06	-1.155934e-09	-3.231891e+01	-7.875952e+01
6.800000e-07	-4.642873e-06	-1.158748e-09	-3.214059e+01	-7.854940e+01
6.900000e-07	-4.616544e-06	-1.155020e-09	-3.195833e+01	-7.833388e+01
7.000000e-07	-4.589711e-06	-1.142944e-09	-3.177258e+01	-7.811305e+01
7.100000e-07	-4.562382e-06	-1.139490e-09	-3.158339e+01	-7.788702e+01
7.200000e-07	-4.534805e-06	-1.140700e-09	-3.139249e+01	-7.765593e+01
7.300000e-07	-4.507128e-06	-1.128520e-09	-3.120089e+01	-7.741993e+01
7.400000e-07	-4.479269e-06	-1.120326e-09	-3.100804e+01	-7.717920e+01
7.500000e-07	-4.451195e-06	-1.129932e-09	-3.081369e+01	-7.693391e+01
7.600000e-07	-4.422948e-06	-1.121430e-09	-3.061815e+01	-7.668428e+01
7.700000e-07	-4.394460e-06	-1.112082e-09	-3.042094e+01	-7.643052e+01
7.800000e-07	-4.365616e-06	-1.107763e-09	-3.022127e+01	-7.617285e+01
7.900000e-07	-4.336359e-06	-1.107190e-09	-3.001873e+01	-7.591150e+01
8.000000e-07	-4.306749e-06	-1.092384e-09	-2.981376e+01	-7.564671e+01
8.100000e-07	-4.276858e-06	-1.097384e-09	-2.960683e+01	-7.537872e+01
8.200000e-07	-4.246650e-06	-1.094724e-09	-2.939772e+01	-7.510776e+01
8.300000e-07	-4.216102e-06	-1.093211e-09	-2.918625e+01	-7.483407e+01
8.400000e-07	-4.185310e-06	-1.086713e-09	-2.897309e+01	-7.455787e+01
8.500000e-07	-4.154268e-06	-1.090574e-09	-2.875820e+01	-7.427939e+01
8.600000e-07	-4.122886e-06	-1.077472e-09	-2.854095e+01	-7.399881e+01
8.700000e-07	-4.091370e-06	-1.074090e-09	-2.832278e+01	-7.371635e+01
8.800000e-07	-4.059823e-06	-1.066931e-09	-2.810439e+01	-7.343218e+01
8.900000e-07	-4.028100e-06	-1.064516e-09	-2.788479e+01	-7.314644e+01
9.000000e-07	-3.996138e-06	-1.051073e-09	-2.766353e+01	-7.285929e+01
9.100000e-07	-3.963939e-06	-1.049868e-09	-2.744063e+01	-7.257083e+01
9.200000e-07	-3.931302e-06	-1.043991e-09	-2.721470e+01	-7.228116e+01
9.300000e-07	-3.898125e-06	-1.042572e-09	-2.698503e+01	-7.199033e+01
9.400000e-07	-3.864421e-06	-1.039733e-09	-2.675171e+01	-7.169839e+01
9.500000e-07	-3.830202e-06	-1.040904e-09	-2.651483e+01	-7.140535e+01
9.600000e-07	-3.795635e-06	-1.033976e-09	-2.627553e+01	-7.111120e+01
9.700000e-07	-3.760723e-06	-1.027440e-09	-2.603385e+01	-7.081587e+01
9.800000e-07	-3.725483e-06	-1.021957e-09	-2.578990e+01	-7.051931e+01
9.900000e-07	-3.689993e-06	-1.015549e-09	-2.554422e+01	-7.022141e+01
1.000000e-06	-3.654317e-06	-1.010977e-09	-2.529725e+01	-6.992204e+01
1.010000e-06	-3.618544e-06	-1.010268e-09	-2.504961e+01	-6.962104e+01
1.020000e-06	-3.582654e-06	-1.008253e-09	-2.480116e+01	-6.931823e+01
1.030000e-06	-3.546539e-06	-1.001905e-09	-2.455115e+01	-6.901340e+01
1.040000e-06	-3.510224e-06	-9.980221e-10	-2.429976e+01	-6.870631e+01
1.050000e-06	-3.473779e-06	-9.903324e-10	-2.404747e+01	-6.839672e+01
1.060000e-06	-3.437021e-06	-9.804866e-10	-2.379300e+01	-6.808435e+01
1.070000e-06	-3.399923e-06	-9.702369e-10	-2.353620e+01	-6.776890e+01
1.080000e-06	-3.362579e-06	-9.694814e-10	-2.327768e+01	-6.745007e+01
1.090000e-06	-3.324954e-06	-9.634059e-10	-2.301721e+01	-6.712753e+01
1.100000e-06	-3.287126e-06	-9.617440e-10	-2.275535e+01	-6.680096e+01
1.110000e-06	-3.249114e-06	-9.550812e-10	-2.249221e+01	-6.647001e+01
1.120000e-06	-3.210917e-06	-9.473828e-10	-2.222779e+01	-6.613433e+01
1.130000e-06	-3.172512e-06	-9.360336e-10	-2.196193e+01	-6.579358e+01
1.140000e-06	-3.133694e-06	-9.312860e-10	-2.169320e+01	-6.544739e+01
1.150000e-06	-3.094606e-06	-9.232559e-10	-2.142261e+01	-6.509543e+01
1.160000e-06	-3.055491e-06	-9.182151e-10	-2.115184e+01	-6.473733e+01
1.170000e-06	-3.016193e-06	-9.149595e-10	-2.087980e+01	-6.437276e+01
1.180000e-06	-2.976716e-06	-9.147116e-10	-2.060651e+01	-6.400139e+01
1.190000e-06	-2.937208e-06	-9.065196e-10	-2.033302e+01	-6.362290e+01
1.200000e-06	-2.897540e-06	-9.005521e-10	-2.005842e+01	-6.323696e+01
1.210000e-06	-2.857701e-06	-8.924875e-10	-1.978262e+01	-6.284330e+01
1.220000e-06	-2.817745e-06	-8.839983e-10	-1.950602e+01	-6.244162e+01
1.230000e-06	-2.777604e-06	-8.742034e-10	-1.922815e+01	-6.203166e+01
1.240000e-06	-2.737247e-06	-8.690211e-10	-1.894877e+01	-6.161318e+01
1.250000e-06	-2.696662e-06	-8.631116e-10	-1.866782e+01	-6.118595e+01
1.260000e-06	-2.655808e-06	-8.556278e-10	-1.838501e+01	-6.074976e+01
1.270000e-06	-2.614603e-06	-8.508331e-10	-1.809976e+01	-6.030442e+01
1.280000e-06	-2.573085e-06	-8.454811e-10	-1.781235e+01	-5.984976e+01
1.290000e-06	-2.531394e-06	-8.358765e-10	-1.752374e+01	-5.938564e+01
1.300000e-06	-2.489366e-06	-8.253745e-10	-1.723280e+01	-5.891192e+01
1.310000e-06	-2.446980e-06	-8.152506e-10	-1.693938e+01	-5.842849e+01
1.320000e-06	-2.404383e-06	-8.047230e-10	-1.664450e+01	-5.793526e+01
1.330000e-06	-2.361487e-06	-7.960087e-10	-1.634755e+01	-5.743215e+01
1.340000e-06	-2.318338e-06	-7.914113e-10	-1.604885e+01	-5.691909e+01
1.350000e-06	-2.275081e-06	-7.862219e-10	-1.574940e+01	-5.639603e+01
1.360000e-06	-2.231749e-06	-7.741127e-10	-1.544943e+01	-5.586293e+01
1.370000e-06	-2.188235e-06	-7.628954e-10	-1.514820e+01	-5.531977e+01
1.380000e-06	-2.144557e-06	-7.508945e-10	-1.484584e+01	-5.476651e+01
1.390000e-06	-2.100790e-06	-7.413190e-10	-1.454286e+01	-5.420314e+01
1.400000e-06	-2.056895e-06	-7.309118e-10	-1.423899e+01	-5.362965e+01
1.410000e-06	-2.012888e-06	-7.226841e-10	-1.393435e+01	-5.304601e+01
1.420000e-06	-1.968893e-06	-7.109723e-10	-1.362979e+01	-5.245223e+01
1.430000e-06	-1.924858e-06	-7.002002e-10	-1.332496e+01	-5.184827e+01
1.440000e-06	-1.880685e-06	-6.907220e-10	-1.301916e+01	-5.123411e+01
1.450000e-06	-1.836460e-06	-6.822366e-10	-1.271301e+01	-5.060971e+01
1.460000e-06	-1.792070e-06	-6.714952e-10	-1.240572e+01	-4.997504e+01
1.470000e-06	-1.747297e-06	-6.598487e-10	-1.209578e+01	-4.933004e+01
1.480000e-06	-1.702493e-06	-6.477021e-10	-1.178562e+01	-4.867463e+01
1.490000e-06	-1.657647e-06	-6.358239e-10	-1.147517e+01	-4.800873e+01
1.500000e-06	-1.612569e-06	-6.232751e-10	-1.116312e+01	-4.733224e+01
1.510000e-06	-1.567433e-06	-6.129298e-10	-1.085066e+01	-4.664504e+01
1.520000e-06	-1.522178e-06	-6.023385e-10	-1.053738e+01	-4.594699e+01
1.530000e-06	-1.476862e-06	-5.908816e-10	-1.022367e+01	-4.523793e+01
1.540000e-06	-1.431549e-06	-5.781549e-10	-9.909996e+00	-4.451768e+01
1.550000e-06	-1.386133e-06	-5.694054e-10	-9.595599e+00	-4.378604e+01
1.560000e-06	-1.340550e-06	-5.591820e-10	-9.280043e+00	-4.304280e+01
1.570000e-06	-1.294834e-06	-5.483426e-10	-8.963576e+00	-4.228771e+01
1.580000e-06	-1.249003e-06	-5.396890e-10	-8.646306e+00	-4.152052e+01
1.590000e-06	-1.203090e-06	-5.309544e-10	-8.328468e+00	-4.074097e+01
1.600000e-06	-1.157138e-06	-5.214957e-10	-8.010365e+00	-3.994875e+01
1.610000e-06	-1.111089e-06	-5.113073e-10	-7.691586e+00	-3.914357e+01
1.620000e-06	-1.064891e-06	-4.984207e-10	-7.371780e+00	-3.832511e+01
1.630000e-06	-1.018622e-06	-4.857557e-10	-7.051476e+00	-3.749305e+01
1.640000e-06	-9.723368e-07	-4.755909e-10	-6.731066e+00	-3.664706e+01
1.650000e-06	-9.259142e-07	-4.624462e-10	-6.409703e+00	-3.578681e+01
1.660000e-06	-8.794163e-07	-4.498850e-10	-6.087818e+00	-3.491195e+01
1.670000e-06	-8.329590e-07	-4.358318e-10	-5.766214e+00	-3.402215e+01
1.680000e-06	-7.864520e-07	-4.220990e-10	-5.444266e+00	-3.311708e+01
1.690000e-06	-7.397877e-07	-4.065996e-10	-5.121229e+00	-3.219644e+01
1.700000e-06	-6.930151e-07	-3.943969e-10	-4.797443e+00	-3.125990e+01
1.710000e-06	-6.462097e-07	-3.804011e-10	-4.473430e+00	-3.030717e+01
1.720000e-06	-5.994717e-07	-3.642498e-10	-4.149883e+00	-2.933800e+01
1.730000e-06	-5.526997e-07	-3.479961e-10	-3.826100e+00	-2.835212e+01
1.740000e-06	-5.058404e-07	-3.328547e-10	-3.501714e+00	-2.734933e+01
1.750000e-06	-4.589515e-07	-3.194441e-10	-3.177122e+00	-2.632943e+01
1.760000e-06	-4.119634e-07	-3.060959e-10	-2.851844e+00	-2.529226e+01
1.770000e-06	-3.649668e-07	-2.906668e-10	-2.526507e+00	-2.423773e+01
1.780000e-06	-3.179866e-07	-2.763002e-10	-2.201283e+00	-2.316574e+01
1.790000e-06	-2.709772e-07	-2.621917e-10	-1.875858e+00	-2.207628e+01
1.800000e-06	-2.238816e-07	-2.459896e-10	-1.549835e+00	-2.096936e+01
1.810000e-06	-1.767678e-07	-2.277532e-10	-1.223687e+00	-1.984505e+01
1.820000e-06	-1.296479e-07	-2.078706e-10	-8.974964e-01	-1.870347e+01
1.830000e-06	-8.254139e-08	-1.901018e-10	-5.713982e-01	-1.754479e+01
1.840000e-06	-3.558203e-08	-1.749998e-10	-2.463190e-01	-1.636925e+01
1.850000e-06	1.143498e-08	-1.596294e-10	7.915940e-02	-1.517714e+01
1.860000e-06	5.860169e-08	-1.439048e-10	4.056741e-01	-1.396879e+01
1.870000e-06	1.057540e-07	-1.262653e-10	7.320890e-01	-1.274463e+01
1.880000e-06	1.528523e-07	-1.068631e-10	1.058130e+00	-1.150511e+01
1.890000e-06	1.998093e-07	-8.754337e-11	1.383193e+00	-1.025075e+01
1.900000e-06	2.467119e-07	-6.855519e-11	1.707880e+00	-8.982151e+00
1.910000e-06	2.937363e-07	-5.206767e-11	2.033409e+00	-7.699940e+00
1.920000e-06	3.407570e-07	-3.635857e-11	2.358913e+00	-6.404821e+00
1.930000e-06	3.877500e-07	-2.104754e-11	2.684225e+00	-5.097543e+00
1.940000e-06	4.347039e-07	-4.140187e-12	3.009266e+00	-3.778914e+00
1.950000e-06	4.815979e-07	1.258888e-11	3.333893e+00	-2.449788e+00
1.960000e-06	5.284529e-07	3.136044e-11	3.658250e+00	-1.111069e+00
1.970000e-06	5.752569e-07	5.015855e-11	3.982254e+00	2.362956e-01
1.980000e-06	6.219337e-07	6.745115e-11	4.305378e+00	1.591317e+00
1.990000e-06	6.684995e-07	8.461256e-11	4.627732e+00	2.952968e+00
2.000000e-06	7.150693e-07	1.048928e-10	4.950115e+00	4.320189e+00
2.010000e-06	7.616402e-07	1.259653e-10	5.272505e+00	5.691891e+00
2.020000e-06	8.081717e-07	1.457274e-10	5.594622e+00	7.066958e+00
2.030000e-06	8.546052e-07	1.649050e-10	5.916061e+00	8.444256e+00
2.040000e-06	9.010285e-07	1.858202e-10	6.237430e+00	9.822633e+00
2.050000e-06	9.473736e-07	2.053405e-10	6.558257e+00	1.120093e+01
2.060000e-06	9.935887e-07	2.237014e-10	6.878184e+00	1.257797e+01
2.070000e-06	1.039760e-06	2.424586e-10	7.197804e+00	1.395259e+01
2.080000e-06	1.085848e-06	2.604661e-10	7.516855e+00	1.532361e+01
2.090000e-06	1.131870e-06	2.761736e-10	7.835448e+00	1.668989e+01
2.100000e-06	1.177794e-06	2.941529e-10	8.153357e+00	1.805027e+01
2.110000e-06	1.223572e-06	3.163516e-10	8.470255e+00	1.940363e+01
2.120000e-06	1.269270e-06	3.361841e-10	8.786604e+00	2.074886e+01
2.130000e-06	1.314889e-06	3.557941e-10	9.102408e+00	2.208487e+01
2.140000e-06	1.360381e-06	3.754122e-10	9.417329e+00	2.341062e+01
2.150000e-06	1.405765e-06	3.913963e-10	9.731500e+00	2.472509e+01
2.160000e-06	1.451145e-06	4.051829e-10	1.004565e+01	2.602730e+01
2.170000e-06	1.496452e-06	4.200642e-10	1.035929e+01	2.731633e+01
2.180000e-06	1.541650e-06	4.358332e-10	1.067218e+01	2.859127e+01
2.190000e-06	1.586801e-06	4.531512e-10	1.098474e+01	2.985129e+01
2.200000e-06	1.631760e-06	4.730689e-10	1.129597e+01	3.109559e+01
2.210000e-06	1.676519e-06	4.915103e-10	1.160581e+01	3.232344e+01
2.220000e-06	1.721185e-06	5.084476e-10	1.191501e+01	3.353415e+01
2.230000e-06	1.765710e-06	5.252443e-10	1.222325e+01	3.472710e+01
2.240000e-06	1.810080e-06	5.382353e-10	1.253040e+01	3.590171e+01
2.250000e-06	1.854356e-06	5.497225e-10	1.283690e+01	3.705747e+01
2.260000e-06	1.898563e-06	5.605759e-10	1.314293e+01	3.819393e+01
2.270000e-06	1.942581e-06	5.746009e-10	1.344764e+01	3.931070e+01
2.280000e-06	1.986503e-06	5.907606e-10	1.375170e+01	4.040744e+01
2.290000e-06	2.030362e-06	6.073202e-10	1.405532e+01	4.148389e+01
2.300000e-06	2.074130e-06	6.230223e-10	1.435831e+01	4.253982e+01
2.310000e-06	2.117893e-06	6.395681e-10	1.466126e+01	4.357508e+01
2.320000e-06	2.161569e-06	6.545336e-10	1.496361e+01	4.458957e+01
2.330000e-06	2.205134e-06	6.659534e-10	1.526518e+01	4.558323e+01
2.340000e-06	2.248645e-06	6.747130e-10	1.556639e+01	4.655608e+01
2.350000e-06	2.292036e-06	6.840222e-10	1.586677e+01	4.750817e+01
2.360000e-06	2.335247e-06	6.962581e-10	1.616590e+01	4.843961e+01
2.370000e-06	2.378230e-06	7.092814e-10	1.646345e+01	4.935054e+01
2.380000e-06	2.420900e-06	7.232928e-10	1.675884e+01	5.024116e+01
2.390000e-06	2.463304e-06	7.372168e-10	1.705239e+01	5.111171e+01
2.400000e-06	2.505391e-06	7.487039e-10	1.734374e+01	5.196245e+01
2.410000e-06	2.547128e-06	7.577227e-10	1.763266e+01	5.279369e+01
2.420000e-06	2.588654e-06	7.681274e-10	1.792013e+01	5.360578e+01
2.430000e-06	2.629922e-06	7.796906e-10	1.820581e+01	5.439908e+01
2.440000e-06	2.670817e-06	7.908234e-10	1.848891e+01	5.517398e+01
2.450000e-06	2.711412e-06	8.033166e-10	1.876993e+01	5.593089e+01
2.460000e-06	2.751782e-06	8.182709e-10	1.904939e+01	5.667026e+01
2.470000e-06	2.791943e-06	8.306093e-10	1.932741e+01	5.739252e+01
2.480000e-06	2.832003e-06	8.400928e-10	1.960473e+01	5.809813e+01
2.490000e-06	2.871901e-06	8.471161e-10	1.988092e+01	5.878758e+01
2.500000e-06	2.911624e-06	8.540908e-10	2.015591e+01	5.946133e+01
2.510000e-06	2.951283e-06	8.634193e-10	2.043045e+01	6.011986e+01
2.520000e-06	2.990793e-06	8.761289e-10	2.070396e+01	6.076366e+01
2.530000e-06	3.030150e-06	8.891923e-10	2.097641e+01	6.139321e+01
2.540000e-06	3.069290e-06	9.003350e-10	2.124737e+01	6.200898e+01
2.550000e-06	3.108185e-06	9.079274e-10	2.151662e+01	6.261144e+01
2.560000e-06	3.146930e-06	9.129340e-10	2.178483e+01	6.320104e+01
2.570000e-06	3.185450e-06	9.192080e-10	2.205149e+01	6.377825e+01
2.580000e-06	3.223693e-06	9.255669e-10	2.231623e+01	6.434348e+01
2.590000e-06	3.261677e-06	9.322312e-10	2.257918e+01	6.489717e+01
2.600000e-06	3.299463e-06	9.409153e-10	2.284075e+01	6.543971e+01
2.610000e-06	3.337035e-06	9.528808e-10	2.310084e+01	6.597150e+01
2.620000e-06	3.374420e-06	9.638084e-10	2.335965e+01	6.649289e+01
2.630000e-06	3.411571e-06	9.745328e-10	2.361683e+01	6.700425e+01
2.640000e-06	3.448409e-06	9.830741e-10	2.387184e+01	6.750589e+01
2.650000e-06	3.485014e-06	9.865145e-10	2.412524e+01	6.799813e+01
2.660000e-06	3.521364e-06	9.890937e-10	2.437688e+01	6.848124e+01
2.670000e-06	3.557473e-06	9.943904e-10	2.462684e+01	6.895549e+01
2.680000e-06	3.593406e-06	1.001230e-09	2.487559e+01	6.942112e+01
2.690000e-06	3.629181e-06	1.009483e-09	2.512325e+01	6.987836e+01
2.700000e-06	3.664886e-06	1.019378e-09	2.537041e+01	7.032739e+01
2.710000e-06	3.700527e-06	1.028914e-09	2.561714e+01	7.076838e+01
2.720000e-06	3.735945e-06	1.036708e-09	2.586233e+01	7.120151e+01
2.730000e-06	3.771129e-06	1.043801e-09	2.610589e+01	7.162689e+01
2.740000e-06	3.806014e-06	1.049188e-09	2.634739e+01	7.204463e+01
2.750000e-06	3.840554e-06	1.052723e-09	2.658649e+01	7.245484e+01
2.760000e-06	3.874643e-06	1.057478e-09	2.682248e+01	7.285759e+01
2.770000e-06	3.908029e-06	1.062689e-09	2.705359e+01	7.325294e+01
2.780000e-06	3.940834e-06	1.068477e-09	2.728068e+01	7.364093e+01
2.790000e-06	3.973275e-06	1.075586e-09	2.750526e+01	7.402159e+01
2.800000e-06	4.005425e-06	1.084110e-09	2.772782e+01	7.439492e+01
2.810000e-06	4.037382e-06	1.092060e-09	2.794904e+01	7.476094e+01
2.820000e-06	4.069182e-06	1.097632e-09	2.816918e+01	7.511963e+01
2.830000e-06	4.100808e-06	1.102723e-09	2.838812e+01	7.547098e+01
2.840000e-06	4.132331e-06	1.104881e-09	2.860634e+01	7.581495e+01
2.850000e-06	4.163622e-06	1.103524e-09	2.882295e+01	7.615152e+01
2.860000e-06	4.194632e-06	1.105549e-09	2.903762e+01	7.648064e+01
2.870000e-06	4.225338e-06	1.110656e-09	2.925018e+01	7.680228e+01
2.880000e-06	4.255593e-06	1.116569e-09	2.945962e+01	7.711637e+01
2.890000e-06	4.285518e-06	1.123620e-09	2.966678e+01	7.742289e+01
2.900000e-06	4.315221e-06	1.130921e-09	2.987241e+01	7.772179e+01
