# Temperatura_=_-0.3
# Concentracion g/m^3_=_1620.0
# C_Vs_to_Am_M_A/Vsm_=_65563218390.804596
# pendiente_HvsI_1/m_=_3716.3
# ordenada_HvsI_A/m_=_1297.0
# frecuencia_Hz_=_135100.42084686653

Tiempo_(s)	Campo_(V.s)	Magnetizacion_(V.s)	Campo_(kA/m)	Magnetizacion_(A/m)
0.000000e+00	-5.501953e-06	-1.439827e-09	-3.837663e+01	-9.221563e+01
1.000000e-08	-5.502200e-06	-1.440665e-09	-3.837835e+01	-9.221773e+01
2.000000e-08	-5.502231e-06	-1.442193e-09	-3.837857e+01	-9.221784e+01
3.000000e-08	-5.501942e-06	-1.445595e-09	-3.837655e+01	-9.221587e+01
4.000000e-08	-5.501151e-06	-1.446195e-09	-3.837104e+01	-9.221174e+01
5.000000e-08	-5.499849e-06	-1.441471e-09	-3.836195e+01	-9.220534e+01
6.000000e-08	-5.497993e-06	-1.429224e-09	-3.834901e+01	-9.219657e+01
7.000000e-08	-5.495512e-06	-1.404543e-09	-3.833171e+01	-9.218532e+01
8.000000e-08	-5.492456e-06	-1.418225e-09	-3.831039e+01	-9.217146e+01
9.000000e-08	-5.488883e-06	-1.497850e-09	-3.828546e+01	-9.215487e+01
1.000000e-07	-5.484881e-06	-1.502227e-09	-3.825755e+01	-9.213541e+01
1.100000e-07	-5.480508e-06	-1.358424e-09	-3.822705e+01	-9.211296e+01
1.200000e-07	-5.476005e-06	-1.341838e-09	-3.819564e+01	-9.208738e+01
1.300000e-07	-5.471371e-06	-1.438607e-09	-3.816332e+01	-9.205856e+01
1.400000e-07	-5.466289e-06	-1.509866e-09	-3.812787e+01	-9.202636e+01
1.500000e-07	-5.460764e-06	-1.371903e-09	-3.808934e+01	-9.199065e+01
1.600000e-07	-5.454980e-06	-1.323891e-09	-3.804899e+01	-9.195134e+01
1.700000e-07	-5.448827e-06	-1.456542e-09	-3.800607e+01	-9.190831e+01
1.800000e-07	-5.442147e-06	-1.526043e-09	-3.795948e+01	-9.186146e+01
1.900000e-07	-5.435038e-06	-1.436156e-09	-3.790989e+01	-9.181070e+01
2.000000e-07	-5.427638e-06	-1.343263e-09	-3.785827e+01	-9.175596e+01
2.100000e-07	-5.419951e-06	-1.433751e-09	-3.780466e+01	-9.169716e+01
2.200000e-07	-5.412018e-06	-1.502627e-09	-3.774932e+01	-9.163426e+01
2.300000e-07	-5.403922e-06	-1.479193e-09	-3.769285e+01	-9.156720e+01
2.400000e-07	-5.395547e-06	-1.412016e-09	-3.763444e+01	-9.149596e+01
2.500000e-07	-5.386444e-06	-1.472378e-09	-3.757095e+01	-9.142052e+01
2.600000e-07	-5.376555e-06	-1.499442e-09	-3.750197e+01	-9.134087e+01
2.700000e-07	-5.366170e-06	-1.462172e-09	-3.742953e+01	-9.125703e+01
2.800000e-07	-5.355219e-06	-1.395447e-09	-3.735315e+01	-9.116900e+01
2.900000e-07	-5.343723e-06	-1.438484e-09	-3.727296e+01	-9.107681e+01
3.000000e-07	-5.331850e-06	-1.468410e-09	-3.719015e+01	-9.098051e+01
3.100000e-07	-5.319734e-06	-1.441842e-09	-3.710564e+01	-9.088015e+01
3.200000e-07	-5.307246e-06	-1.398548e-09	-3.701853e+01	-9.077577e+01
3.300000e-07	-5.294293e-06	-1.438080e-09	-3.692818e+01	-9.066745e+01
3.400000e-07	-5.281060e-06	-1.464138e-09	-3.683588e+01	-9.055525e+01
3.500000e-07	-5.267439e-06	-1.410915e-09	-3.674087e+01	-9.043924e+01
3.600000e-07	-5.253296e-06	-1.378011e-09	-3.664222e+01	-9.031951e+01
3.700000e-07	-5.238722e-06	-1.433212e-09	-3.654057e+01	-9.019613e+01
3.800000e-07	-5.223655e-06	-1.434606e-09	-3.643548e+01	-9.006918e+01
3.900000e-07	-5.207969e-06	-1.372330e-09	-3.632606e+01	-8.993873e+01
4.000000e-07	-5.191661e-06	-1.411888e-09	-3.621231e+01	-8.980487e+01
4.100000e-07	-5.175028e-06	-1.452391e-09	-3.609630e+01	-8.966766e+01
4.200000e-07	-5.158074e-06	-1.367483e-09	-3.597804e+01	-8.952717e+01
4.300000e-07	-5.140722e-06	-1.336928e-09	-3.585701e+01	-8.938345e+01
4.400000e-07	-5.123209e-06	-1.453969e-09	-3.573485e+01	-8.923656e+01
4.500000e-07	-5.105327e-06	-1.423060e-09	-3.561013e+01	-8.908654e+01
4.600000e-07	-5.086856e-06	-1.319263e-09	-3.548129e+01	-8.893342e+01
4.700000e-07	-5.068004e-06	-1.374645e-09	-3.534979e+01	-8.877723e+01
4.800000e-07	-5.048893e-06	-1.435710e-09	-3.521650e+01	-8.861798e+01
4.900000e-07	-5.029462e-06	-1.323662e-09	-3.508096e+01	-8.845567e+01
5.000000e-07	-5.009788e-06	-1.332627e-09	-3.494374e+01	-8.829029e+01
5.100000e-07	-4.989984e-06	-1.415374e-09	-3.480560e+01	-8.812182e+01
5.200000e-07	-4.969959e-06	-1.348779e-09	-3.466592e+01	-8.795023e+01
5.300000e-07	-4.949579e-06	-1.294864e-09	-3.452377e+01	-8.777547e+01
5.400000e-07	-4.928853e-06	-1.408034e-09	-3.437921e+01	-8.759750e+01
5.500000e-07	-4.907719e-06	-1.384591e-09	-3.423179e+01	-8.741625e+01
5.600000e-07	-4.886170e-06	-1.282397e-09	-3.408149e+01	-8.723165e+01
5.700000e-07	-4.864355e-06	-1.336000e-09	-3.392932e+01	-8.704363e+01
5.800000e-07	-4.842230e-06	-1.385583e-09	-3.377500e+01	-8.685210e+01
5.900000e-07	-4.819750e-06	-1.295119e-09	-3.361820e+01	-8.665697e+01
6.000000e-07	-4.796994e-06	-1.307501e-09	-3.345947e+01	-8.645815e+01
6.100000e-07	-4.773890e-06	-1.371816e-09	-3.329832e+01	-8.625555e+01
6.200000e-07	-4.750403e-06	-1.318012e-09	-3.313450e+01	-8.604906e+01
6.300000e-07	-4.726750e-06	-1.284645e-09	-3.296952e+01	-8.583861e+01
6.400000e-07	-4.702962e-06	-1.336742e-09	-3.280359e+01	-8.562408e+01
6.500000e-07	-4.678811e-06	-1.318506e-09	-3.263514e+01	-8.540540e+01
6.600000e-07	-4.654257e-06	-1.284497e-09	-3.246387e+01	-8.518248e+01
6.700000e-07	-4.629376e-06	-1.320827e-09	-3.229032e+01	-8.495524e+01
6.800000e-07	-4.603955e-06	-1.316007e-09	-3.211301e+01	-8.472363e+01
6.900000e-07	-4.577849e-06	-1.276338e-09	-3.193092e+01	-8.448757e+01
7.000000e-07	-4.551223e-06	-1.289897e-09	-3.174520e+01	-8.424703e+01
7.100000e-07	-4.524191e-06	-1.298115e-09	-3.155665e+01	-8.400197e+01
7.200000e-07	-4.496850e-06	-1.263442e-09	-3.136595e+01	-8.375236e+01
7.300000e-07	-4.469290e-06	-1.270567e-09	-3.117371e+01	-8.349820e+01
7.400000e-07	-4.441569e-06	-1.283016e-09	-3.098035e+01	-8.323948e+01
7.500000e-07	-4.413675e-06	-1.271053e-09	-3.078579e+01	-8.297624e+01
7.600000e-07	-4.385466e-06	-1.264669e-09	-3.058903e+01	-8.270850e+01
7.700000e-07	-4.357011e-06	-1.270648e-09	-3.039055e+01	-8.243631e+01
7.800000e-07	-4.328271e-06	-1.248228e-09	-3.019009e+01	-8.215973e+01
7.900000e-07	-4.299068e-06	-1.242837e-09	-2.998640e+01	-8.187883e+01
8.000000e-07	-4.269549e-06	-1.251198e-09	-2.978050e+01	-8.159371e+01
8.100000e-07	-4.239819e-06	-1.240581e-09	-2.957313e+01	-8.130447e+01
8.200000e-07	-4.209801e-06	-1.223271e-09	-2.936375e+01	-8.101120e+01
8.300000e-07	-4.179450e-06	-1.234576e-09	-2.915205e+01	-8.071403e+01
8.400000e-07	-4.148868e-06	-1.230526e-09	-2.893874e+01	-8.041310e+01
8.500000e-07	-4.118029e-06	-1.215462e-09	-2.872363e+01	-8.010852e+01
8.600000e-07	-4.086859e-06	-1.217391e-09	-2.850622e+01	-7.980043e+01
8.700000e-07	-4.055494e-06	-1.221082e-09	-2.828745e+01	-7.948899e+01
8.800000e-07	-4.023963e-06	-1.200070e-09	-2.806752e+01	-7.917431e+01
8.900000e-07	-3.992247e-06	-1.192970e-09	-2.784629e+01	-7.885655e+01
9.000000e-07	-3.960393e-06	-1.192451e-09	-2.762411e+01	-7.853583e+01
9.100000e-07	-3.928274e-06	-1.173853e-09	-2.740007e+01	-7.821229e+01
9.200000e-07	-3.895779e-06	-1.158021e-09	-2.717342e+01	-7.788603e+01
9.300000e-07	-3.862905e-06	-1.166864e-09	-2.694412e+01	-7.755717e+01
9.400000e-07	-3.829636e-06	-1.168937e-09	-2.671206e+01	-7.722579e+01
9.500000e-07	-3.795931e-06	-1.160888e-09	-2.647697e+01	-7.689199e+01
9.600000e-07	-3.761813e-06	-1.167073e-09	-2.623899e+01	-7.655583e+01
9.700000e-07	-3.727236e-06	-1.167180e-09	-2.599782e+01	-7.621734e+01
9.800000e-07	-3.692242e-06	-1.148482e-09	-2.575373e+01	-7.587656e+01
9.900000e-07	-3.656971e-06	-1.133844e-09	-2.550771e+01	-7.553348e+01
1.000000e-06	-3.621448e-06	-1.130920e-09	-2.525993e+01	-7.518810e+01
1.010000e-06	-3.585770e-06	-1.119649e-09	-2.501108e+01	-7.484035e+01
1.020000e-06	-3.549959e-06	-1.113690e-09	-2.476129e+01	-7.449019e+01
1.030000e-06	-3.514020e-06	-1.119198e-09	-2.451061e+01	-7.413751e+01
1.040000e-06	-3.477961e-06	-1.120806e-09	-2.425910e+01	-7.378221e+01
1.050000e-06	-3.441750e-06	-1.110392e-09	-2.400652e+01	-7.342412e+01
1.060000e-06	-3.405286e-06	-1.103490e-09	-2.375219e+01	-7.306311e+01
1.070000e-06	-3.368485e-06	-1.091252e-09	-2.349550e+01	-7.269895e+01
1.080000e-06	-3.331362e-06	-1.076869e-09	-2.323655e+01	-7.233146e+01
1.090000e-06	-3.293995e-06	-1.070495e-09	-2.297592e+01	-7.196038e+01
1.100000e-06	-3.256408e-06	-1.071620e-09	-2.271375e+01	-7.158547e+01
1.110000e-06	-3.218599e-06	-1.062769e-09	-2.245003e+01	-7.120644e+01
1.120000e-06	-3.180617e-06	-1.052962e-09	-2.218509e+01	-7.082300e+01
1.130000e-06	-3.142444e-06	-1.046044e-09	-2.191884e+01	-7.043484e+01
1.140000e-06	-3.104084e-06	-1.038009e-09	-2.165127e+01	-7.004163e+01
1.150000e-06	-3.065496e-06	-1.025069e-09	-2.138212e+01	-6.964305e+01
1.160000e-06	-3.026678e-06	-1.017322e-09	-2.111136e+01	-6.923875e+01
1.170000e-06	-2.987625e-06	-1.011092e-09	-2.083896e+01	-6.882837e+01
1.180000e-06	-2.948296e-06	-1.005738e-09	-2.056464e+01	-6.841157e+01
1.190000e-06	-2.908782e-06	-1.000694e-09	-2.028902e+01	-6.798800e+01
1.200000e-06	-2.869147e-06	-9.950362e-10	-2.001256e+01	-6.755729e+01
1.210000e-06	-2.829398e-06	-9.847070e-10	-1.973531e+01	-6.711910e+01
1.220000e-06	-2.789543e-06	-9.747852e-10	-1.945732e+01	-6.667309e+01
1.230000e-06	-2.749584e-06	-9.673321e-10	-1.917860e+01	-6.621893e+01
1.240000e-06	-2.709481e-06	-9.585623e-10	-1.889888e+01	-6.575629e+01
1.250000e-06	-2.669162e-06	-9.522286e-10	-1.861765e+01	-6.528487e+01
1.260000e-06	-2.628641e-06	-9.482128e-10	-1.833502e+01	-6.480438e+01
1.270000e-06	-2.587947e-06	-9.452480e-10	-1.805117e+01	-6.431453e+01
1.280000e-06	-2.547090e-06	-9.385874e-10	-1.776619e+01	-6.381507e+01
1.290000e-06	-2.506005e-06	-9.272896e-10	-1.747961e+01	-6.330576e+01
1.300000e-06	-2.464638e-06	-9.159366e-10	-1.719108e+01	-6.278639e+01
1.310000e-06	-2.422928e-06	-9.054150e-10	-1.690015e+01	-6.225677e+01
1.320000e-06	-2.380737e-06	-8.958613e-10	-1.660586e+01	-6.171671e+01
1.330000e-06	-2.338139e-06	-8.878184e-10	-1.630873e+01	-6.116606e+01
1.340000e-06	-2.295346e-06	-8.825820e-10	-1.601025e+01	-6.060470e+01
1.350000e-06	-2.252453e-06	-8.763578e-10	-1.571107e+01	-6.003251e+01
1.360000e-06	-2.209416e-06	-8.641679e-10	-1.541088e+01	-5.944941e+01
1.370000e-06	-2.166157e-06	-8.535615e-10	-1.510915e+01	-5.885532e+01
1.380000e-06	-2.122698e-06	-8.448713e-10	-1.480602e+01	-5.825019e+01
1.390000e-06	-2.079118e-06	-8.361654e-10	-1.450204e+01	-5.763398e+01
1.400000e-06	-2.035440e-06	-8.244674e-10	-1.419738e+01	-5.700666e+01
1.410000e-06	-1.991669e-06	-8.131348e-10	-1.389208e+01	-5.636823e+01
1.420000e-06	-1.947830e-06	-8.012458e-10	-1.358629e+01	-5.571867e+01
1.430000e-06	-1.903899e-06	-7.911240e-10	-1.327987e+01	-5.505799e+01
1.440000e-06	-1.859877e-06	-7.824908e-10	-1.297282e+01	-5.438619e+01
1.450000e-06	-1.815671e-06	-7.749441e-10	-1.266447e+01	-5.370327e+01
1.460000e-06	-1.771353e-06	-7.631847e-10	-1.235535e+01	-5.300925e+01
1.470000e-06	-1.727035e-06	-7.501466e-10	-1.204623e+01	-5.230413e+01
1.480000e-06	-1.682613e-06	-7.350000e-10	-1.173638e+01	-5.158788e+01
1.490000e-06	-1.638038e-06	-7.171134e-10	-1.142547e+01	-5.086050e+01
1.500000e-06	-1.593402e-06	-7.019717e-10	-1.111413e+01	-5.012195e+01
1.510000e-06	-1.548760e-06	-6.904569e-10	-1.080274e+01	-4.937219e+01
1.520000e-06	-1.503943e-06	-6.782272e-10	-1.049014e+01	-4.861115e+01
1.530000e-06	-1.458889e-06	-6.630651e-10	-1.017588e+01	-4.783874e+01
1.540000e-06	-1.413736e-06	-6.487779e-10	-9.860938e+00	-4.705485e+01
1.550000e-06	-1.368578e-06	-6.366963e-10	-9.545959e+00	-4.625937e+01
1.560000e-06	-1.323359e-06	-6.238202e-10	-9.230548e+00	-4.545213e+01
1.570000e-06	-1.277987e-06	-6.128330e-10	-8.914077e+00	-4.463295e+01
1.580000e-06	-1.232455e-06	-6.012829e-10	-8.596488e+00	-4.380163e+01
1.590000e-06	-1.186777e-06	-5.881416e-10	-8.277879e+00	-4.295793e+01
1.600000e-06	-1.141023e-06	-5.737065e-10	-7.958743e+00	-4.210160e+01
1.610000e-06	-1.095173e-06	-5.606904e-10	-7.638930e+00	-4.123236e+01
1.620000e-06	-1.049181e-06	-5.481664e-10	-7.318136e+00	-4.034990e+01
1.630000e-06	-1.003201e-06	-5.353341e-10	-6.997423e+00	-3.945389e+01
1.640000e-06	-9.572698e-07	-5.224714e-10	-6.677045e+00	-3.854399e+01
1.650000e-06	-9.112685e-07	-5.066608e-10	-6.356182e+00	-3.761984e+01
1.660000e-06	-8.651697e-07	-4.919120e-10	-6.034639e+00	-3.668105e+01
1.670000e-06	-8.190094e-07	-4.773856e-10	-5.712666e+00	-3.572724e+01
1.680000e-06	-7.728089e-07	-4.619216e-10	-5.390413e+00	-3.475802e+01
1.690000e-06	-7.265488e-07	-4.458466e-10	-5.067745e+00	-3.377297e+01
1.700000e-06	-6.802720e-07	-4.328581e-10	-4.744960e+00	-3.277171e+01
1.710000e-06	-6.339696e-07	-4.194651e-10	-4.421996e+00	-3.175384e+01
1.720000e-06	-5.875697e-07	-4.030939e-10	-4.098353e+00	-3.071898e+01
1.730000e-06	-5.411419e-07	-3.864271e-10	-3.774514e+00	-2.966677e+01
1.740000e-06	-4.946771e-07	-3.698789e-10	-3.450418e+00	-2.859686e+01
1.750000e-06	-4.481708e-07	-3.522227e-10	-3.126033e+00	-2.750893e+01
1.760000e-06	-4.016470e-07	-3.362943e-10	-2.801525e+00	-2.640270e+01
1.770000e-06	-3.550857e-07	-3.199787e-10	-2.476756e+00	-2.527792e+01
1.780000e-06	-3.084816e-07	-3.046274e-10	-2.151688e+00	-2.413437e+01
1.790000e-06	-2.617912e-07	-2.890147e-10	-1.826018e+00	-2.297190e+01
1.800000e-06	-2.150741e-07	-2.686181e-10	-1.500162e+00	-2.179041e+01
1.810000e-06	-1.684115e-07	-2.459750e-10	-1.174686e+00	-2.058983e+01
1.820000e-06	-1.217896e-07	-2.248968e-10	-8.494939e-01	-1.937018e+01
1.830000e-06	-7.519560e-08	-2.068054e-10	-5.244962e-01	-1.813154e+01
1.840000e-06	-2.857073e-08	-1.912593e-10	-1.992835e-01	-1.687404e+01
1.850000e-06	1.804549e-08	-1.762577e-10	1.258690e-01	-1.559791e+01
1.860000e-06	6.468874e-08	-1.614965e-10	4.512099e-01	-1.430344e+01
1.870000e-06	1.113943e-07	-1.430819e-10	7.769858e-01	-1.299099e+01
1.880000e-06	1.580239e-07	-1.219809e-10	1.102232e+00	-1.166101e+01
1.890000e-06	2.045999e-07	-1.010923e-10	1.427103e+00	-1.031404e+01
1.900000e-06	2.511615e-07	-8.075201e-11	1.751875e+00	-8.950667e+00
1.910000e-06	2.977948e-07	-6.073208e-11	2.077146e+00	-7.571595e+00
1.920000e-06	3.444438e-07	-4.087292e-11	2.402528e+00	-6.177587e+00
1.930000e-06	3.910213e-07	-2.455743e-11	2.727409e+00	-4.769490e+00
1.940000e-06	4.375716e-07	-8.262236e-12	3.052102e+00	-3.348227e+00
1.950000e-06	4.840554e-07	8.485097e-12	3.376331e+00	-1.914794e+00
1.960000e-06	5.304524e-07	2.543187e-11	3.699955e+00	-4.702574e-01
1.970000e-06	5.767699e-07	4.467706e-11	4.023024e+00	9.842495e-01
1.980000e-06	6.230282e-07	6.721680e-11	4.345679e+00	2.447531e+00
1.990000e-06	6.692793e-07	9.146702e-11	4.668285e+00	3.918336e+00
2.000000e-06	7.154987e-07	1.162429e-10	4.990670e+00	5.395360e+00
2.010000e-06	7.616509e-07	1.391554e-10	5.312586e+00	6.877253e+00
2.020000e-06	8.077625e-07	1.599485e-10	5.634218e+00	8.362628e+00
2.030000e-06	8.538090e-07	1.776898e-10	5.955396e+00	9.850062e+00
2.040000e-06	8.998235e-07	1.951296e-10	6.276352e+00	1.133811e+01
2.050000e-06	9.457776e-07	2.129146e-10	6.596886e+00	1.282531e+01
2.060000e-06	9.916726e-07	2.325308e-10	6.917008e+00	1.431018e+01
2.070000e-06	1.037514e-06	2.547508e-10	7.236753e+00	1.579125e+01
2.080000e-06	1.083206e-06	2.777728e-10	7.555463e+00	1.726705e+01
2.090000e-06	1.128841e-06	3.000386e-10	7.873772e+00	1.873611e+01
2.100000e-06	1.174496e-06	3.209474e-10	8.192221e+00	2.019700e+01
2.110000e-06	1.220044e-06	3.400869e-10	8.509923e+00	2.164830e+01
2.120000e-06	1.265453e-06	3.585969e-10	8.826651e+00	2.308864e+01
2.130000e-06	1.310778e-06	3.782027e-10	9.142797e+00	2.451669e+01
2.140000e-06	1.355956e-06	3.980885e-10	9.457919e+00	2.593117e+01
2.150000e-06	1.401058e-06	4.170187e-10	9.772508e+00	2.733084e+01
2.160000e-06	1.446146e-06	4.344817e-10	1.008700e+01	2.871455e+01
2.170000e-06	1.491097e-06	4.527923e-10	1.040054e+01	3.008119e+01
2.180000e-06	1.535872e-06	4.717041e-10	1.071285e+01	3.142974e+01
2.190000e-06	1.580531e-06	4.901841e-10	1.102435e+01	3.275926e+01
2.200000e-06	1.625098e-06	5.085939e-10	1.133521e+01	3.406887e+01
2.210000e-06	1.669530e-06	5.267800e-10	1.164513e+01	3.535781e+01
2.220000e-06	1.713872e-06	5.457115e-10	1.195442e+01	3.662536e+01
2.230000e-06	1.758155e-06	5.654728e-10	1.226329e+01	3.787094e+01
2.240000e-06	1.802318e-06	5.822338e-10	1.257134e+01	3.909401e+01
2.250000e-06	1.846348e-06	5.955064e-10	1.287845e+01	4.029417e+01
2.260000e-06	1.890287e-06	6.073671e-10	1.318493e+01	4.147108e+01
2.270000e-06	1.934164e-06	6.204411e-10	1.349097e+01	4.262449e+01
2.280000e-06	1.977946e-06	6.348770e-10	1.379636e+01	4.375426e+01
2.290000e-06	2.021659e-06	6.511753e-10	1.410126e+01	4.486031e+01
2.300000e-06	2.065358e-06	6.684028e-10	1.440607e+01	4.594267e+01
2.310000e-06	2.109016e-06	6.856678e-10	1.471058e+01	4.700144e+01
2.320000e-06	2.152628e-06	7.007565e-10	1.501478e+01	4.803678e+01
2.330000e-06	2.196116e-06	7.127776e-10	1.531811e+01	4.904896e+01
2.340000e-06	2.239377e-06	7.217946e-10	1.561986e+01	5.003828e+01
2.350000e-06	2.282448e-06	7.316118e-10	1.592028e+01	5.100513e+01
2.360000e-06	2.325218e-06	7.448971e-10	1.621861e+01	5.194995e+01
2.370000e-06	2.367695e-06	7.593872e-10	1.651489e+01	5.287322e+01
2.380000e-06	2.409951e-06	7.737238e-10	1.680963e+01	5.377547e+01
2.390000e-06	2.451923e-06	7.892041e-10	1.710239e+01	5.465730e+01
2.400000e-06	2.493567e-06	8.053078e-10	1.739286e+01	5.551929e+01
2.410000e-06	2.534828e-06	8.203854e-10	1.768066e+01	5.636208e+01
2.420000e-06	2.575805e-06	8.347751e-10	1.796648e+01	5.718633e+01
2.430000e-06	2.616540e-06	8.485527e-10	1.825061e+01	5.799270e+01
2.440000e-06	2.657044e-06	8.597851e-10	1.853312e+01	5.878187e+01
2.450000e-06	2.697379e-06	8.701456e-10	1.881447e+01	5.955452e+01
2.460000e-06	2.737451e-06	8.819895e-10	1.909398e+01	6.031130e+01
2.470000e-06	2.777350e-06	8.933411e-10	1.937227e+01	6.105289e+01
2.480000e-06	2.817207e-06	9.038267e-10	1.965028e+01	6.177993e+01
2.490000e-06	2.856956e-06	9.135976e-10	1.992753e+01	6.249304e+01
2.500000e-06	2.896549e-06	9.242017e-10	2.020370e+01	6.319282e+01
2.510000e-06	2.935981e-06	9.357728e-10	2.047874e+01	6.387985e+01
2.520000e-06	2.975311e-06	9.485331e-10	2.075307e+01	6.455465e+01
2.530000e-06	3.014494e-06	9.621242e-10	2.102637e+01	6.521774e+01
2.540000e-06	3.053413e-06	9.734376e-10	2.129784e+01	6.586958e+01
2.550000e-06	3.092000e-06	9.801096e-10	2.156699e+01	6.651059e+01
2.560000e-06	3.130332e-06	9.853382e-10	2.183435e+01	6.714115e+01
2.570000e-06	3.168514e-06	9.923758e-10	2.210068e+01	6.776161e+01
2.580000e-06	3.206577e-06	1.001321e-09	2.236617e+01	6.837225e+01
2.590000e-06	3.244465e-06	1.010532e-09	2.263044e+01	6.897334e+01
2.600000e-06	3.282078e-06	1.019994e-09	2.289280e+01	6.956508e+01
2.610000e-06	3.319392e-06	1.030250e-09	2.315306e+01	7.014763e+01
2.620000e-06	3.356433e-06	1.041559e-09	2.341143e+01	7.072114e+01
2.630000e-06	3.393200e-06	1.051386e-09	2.366788e+01	7.128568e+01
2.640000e-06	3.429705e-06	1.057889e-09	2.392251e+01	7.184132e+01
2.650000e-06	3.466030e-06	1.061822e-09	2.417588e+01	7.238807e+01
2.660000e-06	3.502163e-06	1.065103e-09	2.442791e+01	7.292592e+01
2.670000e-06	3.538103e-06	1.070373e-09	2.467860e+01	7.345483e+01
2.680000e-06	3.573897e-06	1.076486e-09	2.492826e+01	7.397475e+01
2.690000e-06	3.609583e-06	1.084530e-09	2.517717e+01	7.448559e+01
2.700000e-06	3.645144e-06	1.095686e-09	2.542522e+01	7.498725e+01
2.710000e-06	3.680550e-06	1.106880e-09	2.567218e+01	7.547962e+01
2.720000e-06	3.715668e-06	1.117267e-09	2.591713e+01	7.596258e+01
2.730000e-06	3.750374e-06	1.127827e-09	2.615920e+01	7.643601e+01
2.740000e-06	3.784671e-06	1.136433e-09	2.639843e+01	7.689978e+01
2.750000e-06	3.818484e-06	1.140996e-09	2.663428e+01	7.735377e+01
2.760000e-06	3.851782e-06	1.143148e-09	2.686653e+01	7.779786e+01
2.770000e-06	3.884594e-06	1.146060e-09	2.709540e+01	7.823195e+01
2.780000e-06	3.917038e-06	1.151597e-09	2.732170e+01	7.865593e+01
2.790000e-06	3.949209e-06	1.161069e-09	2.754610e+01	7.906972e+01
2.800000e-06	3.981234e-06	1.172643e-09	2.776947e+01	7.947328e+01
2.810000e-06	4.013145e-06	1.183595e-09	2.799206e+01	7.986655e+01
2.820000e-06	4.044875e-06	1.191979e-09	2.821338e+01	8.024951e+01
2.830000e-06	4.076408e-06	1.196760e-09	2.843332e+01	8.062218e+01
2.840000e-06	4.107614e-06	1.198316e-09	2.865099e+01	8.098458e+01
2.850000e-06	4.138465e-06	1.198255e-09	2.886618e+01	8.133677e+01
2.860000e-06	4.169032e-06	1.200002e-09	2.907939e+01	8.167883e+01
2.870000e-06	4.199324e-06	1.204758e-09	2.929067e+01	8.201087e+01
2.880000e-06	4.229397e-06	1.211013e-09	2.950044e+01	8.233304e+01
2.890000e-06	4.259201e-06	1.218179e-09	2.970832e+01	8.264549e+01
2.900000e-06	4.288683e-06	1.224995e-09	2.991396e+01	8.294841e+01
