# Temperatura_=_14.9
# Concentracion g/m^3_=_1620.0
# C_Vs_to_Am_M_A/Vsm_=_65563218390.804596
# pendiente_HvsI_1/m_=_3716.3
# ordenada_HvsI_A/m_=_1297.0
# frecuencia_Hz_=_135100.41863117443

Tiempo_(s)	Campo_(V.s)	Magnetizacion_(V.s)	Campo_(kA/m)	Magnetizacion_(A/m)
0.000000e+00	-5.519414e-06	-8.443150e-10	-3.837207e+01	-5.578554e+01
1.000000e-08	-5.519541e-06	-8.478144e-10	-3.837296e+01	-5.578869e+01
2.000000e-08	-5.519455e-06	-8.495157e-10	-3.837236e+01	-5.579207e+01
3.000000e-08	-5.519015e-06	-8.469347e-10	-3.836930e+01	-5.579552e+01
4.000000e-08	-5.518141e-06	-8.418224e-10	-3.836322e+01	-5.579887e+01
5.000000e-08	-5.516761e-06	-8.362056e-10	-3.835363e+01	-5.580193e+01
6.000000e-08	-5.514761e-06	-8.267139e-10	-3.833972e+01	-5.580448e+01
7.000000e-08	-5.512191e-06	-8.148398e-10	-3.832186e+01	-5.580632e+01
8.000000e-08	-5.509053e-06	-8.128661e-10	-3.830004e+01	-5.580722e+01
9.000000e-08	-5.505412e-06	-8.468378e-10	-3.827473e+01	-5.580696e+01
1.000000e-07	-5.501307e-06	-9.039886e-10	-3.824619e+01	-5.580531e+01
1.100000e-07	-5.496805e-06	-8.894424e-10	-3.821489e+01	-5.580204e+01
1.200000e-07	-5.492118e-06	-7.714521e-10	-3.818231e+01	-5.579692e+01
1.300000e-07	-5.487315e-06	-7.486260e-10	-3.814891e+01	-5.578973e+01
1.400000e-07	-5.482212e-06	-8.353801e-10	-3.811344e+01	-5.578026e+01
1.500000e-07	-5.476661e-06	-8.700042e-10	-3.807485e+01	-5.576829e+01
1.600000e-07	-5.470731e-06	-7.883147e-10	-3.803362e+01	-5.575363e+01
1.700000e-07	-5.464423e-06	-7.511747e-10	-3.798977e+01	-5.573610e+01
1.800000e-07	-5.457636e-06	-8.443398e-10	-3.794258e+01	-5.571554e+01
1.900000e-07	-5.450399e-06	-8.860902e-10	-3.789227e+01	-5.569178e+01
2.000000e-07	-5.442854e-06	-8.233232e-10	-3.783981e+01	-5.566471e+01
2.100000e-07	-5.435066e-06	-7.844606e-10	-3.778567e+01	-5.563420e+01
2.200000e-07	-5.427045e-06	-8.400629e-10	-3.772991e+01	-5.560017e+01
2.300000e-07	-5.418758e-06	-8.783002e-10	-3.767229e+01	-5.556254e+01
2.400000e-07	-5.410137e-06	-8.429319e-10	-3.761236e+01	-5.552126e+01
2.500000e-07	-5.400945e-06	-8.048583e-10	-3.754845e+01	-5.547631e+01
2.600000e-07	-5.390976e-06	-8.290362e-10	-3.747915e+01	-5.542767e+01
2.700000e-07	-5.380300e-06	-8.505809e-10	-3.740493e+01	-5.537537e+01
2.800000e-07	-5.369179e-06	-8.332874e-10	-3.732761e+01	-5.531943e+01
2.900000e-07	-5.357760e-06	-8.152162e-10	-3.724822e+01	-5.525992e+01
3.000000e-07	-5.345909e-06	-8.378899e-10	-3.716584e+01	-5.519691e+01
3.100000e-07	-5.333595e-06	-8.481498e-10	-3.708022e+01	-5.513048e+01
3.200000e-07	-5.320841e-06	-8.154967e-10	-3.699156e+01	-5.506076e+01
3.300000e-07	-5.307654e-06	-7.868349e-10	-3.689987e+01	-5.498786e+01
3.400000e-07	-5.294145e-06	-8.078527e-10	-3.680596e+01	-5.491192e+01
3.500000e-07	-5.280334e-06	-8.314543e-10	-3.670994e+01	-5.483309e+01
3.600000e-07	-5.266111e-06	-8.126433e-10	-3.661106e+01	-5.475153e+01
3.700000e-07	-5.251349e-06	-8.055678e-10	-3.650844e+01	-5.466740e+01
3.800000e-07	-5.236029e-06	-8.335555e-10	-3.640192e+01	-5.458088e+01
3.900000e-07	-5.220252e-06	-8.195367e-10	-3.629224e+01	-5.449213e+01
4.000000e-07	-5.204050e-06	-7.779182e-10	-3.617960e+01	-5.440135e+01
4.100000e-07	-5.187389e-06	-8.102011e-10	-3.606377e+01	-5.430869e+01
4.200000e-07	-5.170395e-06	-8.457242e-10	-3.594562e+01	-5.421434e+01
4.300000e-07	-5.153107e-06	-8.011350e-10	-3.582543e+01	-5.411845e+01
4.400000e-07	-5.135473e-06	-7.917725e-10	-3.570284e+01	-5.402120e+01
4.500000e-07	-5.117497e-06	-8.564335e-10	-3.557787e+01	-5.392273e+01
4.600000e-07	-5.099124e-06	-8.315754e-10	-3.545013e+01	-5.382319e+01
4.700000e-07	-5.080263e-06	-7.617773e-10	-3.531901e+01	-5.372270e+01
4.800000e-07	-5.060957e-06	-8.039891e-10	-3.518479e+01	-5.362139e+01
4.900000e-07	-5.041369e-06	-8.418210e-10	-3.504861e+01	-5.351935e+01
5.000000e-07	-5.021582e-06	-7.798779e-10	-3.491105e+01	-5.341669e+01
5.100000e-07	-5.001623e-06	-7.870680e-10	-3.477229e+01	-5.331347e+01
5.200000e-07	-4.981470e-06	-8.428316e-10	-3.463218e+01	-5.320976e+01
5.300000e-07	-4.960923e-06	-7.925316e-10	-3.448933e+01	-5.310559e+01
5.400000e-07	-4.939933e-06	-7.586747e-10	-3.434341e+01	-5.300099e+01
5.500000e-07	-4.918640e-06	-8.245318e-10	-3.419537e+01	-5.289599e+01
5.600000e-07	-4.897002e-06	-8.097971e-10	-3.404494e+01	-5.279056e+01
5.700000e-07	-4.875047e-06	-7.465322e-10	-3.389231e+01	-5.268470e+01
5.800000e-07	-4.852852e-06	-7.924968e-10	-3.373800e+01	-5.257837e+01
5.900000e-07	-4.830323e-06	-8.223321e-10	-3.358138e+01	-5.247153e+01
6.000000e-07	-4.807338e-06	-7.599309e-10	-3.342158e+01	-5.236411e+01
6.100000e-07	-4.784009e-06	-7.667104e-10	-3.325939e+01	-5.225605e+01
6.200000e-07	-4.760455e-06	-8.092876e-10	-3.309564e+01	-5.214727e+01
6.300000e-07	-4.736691e-06	-7.663653e-10	-3.293043e+01	-5.203769e+01
6.400000e-07	-4.712729e-06	-7.475666e-10	-3.276384e+01	-5.192720e+01
6.500000e-07	-4.688472e-06	-7.897503e-10	-3.259520e+01	-5.181571e+01
6.600000e-07	-4.663722e-06	-7.748049e-10	-3.242313e+01	-5.170311e+01
6.700000e-07	-4.638408e-06	-7.497599e-10	-3.224714e+01	-5.158931e+01
6.800000e-07	-4.612513e-06	-7.811447e-10	-3.206712e+01	-5.147419e+01
6.900000e-07	-4.586182e-06	-7.782493e-10	-3.188405e+01	-5.135765e+01
7.000000e-07	-4.559412e-06	-7.464798e-10	-3.169795e+01	-5.123958e+01
7.100000e-07	-4.532135e-06	-7.640272e-10	-3.150831e+01	-5.111990e+01
7.200000e-07	-4.504576e-06	-7.750928e-10	-3.131672e+01	-5.099849e+01
7.300000e-07	-4.476883e-06	-7.463725e-10	-3.112419e+01	-5.087528e+01
7.400000e-07	-4.449061e-06	-7.494944e-10	-3.093077e+01	-5.075018e+01
7.500000e-07	-4.420990e-06	-7.649105e-10	-3.073561e+01	-5.062311e+01
7.600000e-07	-4.392618e-06	-7.477866e-10	-3.053837e+01	-5.049401e+01
7.700000e-07	-4.363994e-06	-7.431641e-10	-3.033936e+01	-5.036282e+01
7.800000e-07	-4.335145e-06	-7.569167e-10	-3.013880e+01	-5.022949e+01
7.900000e-07	-4.305913e-06	-7.450131e-10	-2.993557e+01	-5.009398e+01
8.000000e-07	-4.276317e-06	-7.356124e-10	-2.972981e+01	-4.995625e+01
8.100000e-07	-4.246490e-06	-7.473913e-10	-2.952245e+01	-4.981630e+01
8.200000e-07	-4.216380e-06	-7.416271e-10	-2.931312e+01	-4.967409e+01
8.300000e-07	-4.185977e-06	-7.270023e-10	-2.910175e+01	-4.952963e+01
8.400000e-07	-4.155262e-06	-7.371497e-10	-2.888822e+01	-4.938292e+01
8.500000e-07	-4.124287e-06	-7.406653e-10	-2.867287e+01	-4.923395e+01
8.600000e-07	-4.093043e-06	-7.247924e-10	-2.845566e+01	-4.908276e+01
8.700000e-07	-4.061545e-06	-7.230432e-10	-2.823667e+01	-4.892934e+01
8.800000e-07	-4.029925e-06	-7.274434e-10	-2.801685e+01	-4.877372e+01
8.900000e-07	-3.998165e-06	-7.132572e-10	-2.779604e+01	-4.861592e+01
9.000000e-07	-3.966122e-06	-7.069193e-10	-2.757328e+01	-4.845595e+01
9.100000e-07	-3.933804e-06	-7.146923e-10	-2.734860e+01	-4.829385e+01
9.200000e-07	-3.901218e-06	-7.084375e-10	-2.712205e+01	-4.812962e+01
9.300000e-07	-3.868162e-06	-7.007686e-10	-2.689224e+01	-4.796328e+01
9.400000e-07	-3.834630e-06	-7.081348e-10	-2.665912e+01	-4.779483e+01
9.500000e-07	-3.800681e-06	-7.068189e-10	-2.642310e+01	-4.762428e+01
9.600000e-07	-3.766201e-06	-6.930843e-10	-2.618338e+01	-4.745161e+01
9.700000e-07	-3.731249e-06	-6.921922e-10	-2.594039e+01	-4.727681e+01
9.800000e-07	-3.695999e-06	-6.940699e-10	-2.569533e+01	-4.709985e+01
9.900000e-07	-3.660533e-06	-6.837002e-10	-2.544876e+01	-4.692070e+01
1.000000e-06	-3.624914e-06	-6.799945e-10	-2.520113e+01	-4.673931e+01
1.010000e-06	-3.589180e-06	-6.847916e-10	-2.495270e+01	-4.655560e+01
1.020000e-06	-3.553310e-06	-6.793723e-10	-2.470332e+01	-4.636951e+01
1.030000e-06	-3.517298e-06	-6.722923e-10	-2.445296e+01	-4.618096e+01
1.040000e-06	-3.481063e-06	-6.728783e-10	-2.420105e+01	-4.598982e+01
1.050000e-06	-3.444573e-06	-6.674496e-10	-2.394736e+01	-4.579600e+01
1.060000e-06	-3.407772e-06	-6.563965e-10	-2.369152e+01	-4.559937e+01
1.070000e-06	-3.370642e-06	-6.556529e-10	-2.343338e+01	-4.539978e+01
1.080000e-06	-3.333288e-06	-6.558257e-10	-2.317368e+01	-4.519708e+01
1.090000e-06	-3.295725e-06	-6.496892e-10	-2.291254e+01	-4.499111e+01
1.100000e-06	-3.257974e-06	-6.481378e-10	-2.265009e+01	-4.478171e+01
1.110000e-06	-3.220053e-06	-6.495296e-10	-2.238646e+01	-4.456867e+01
1.120000e-06	-3.181917e-06	-6.427942e-10	-2.212132e+01	-4.435183e+01
1.130000e-06	-3.143573e-06	-6.354397e-10	-2.185475e+01	-4.413098e+01
1.140000e-06	-3.104926e-06	-6.330988e-10	-2.158607e+01	-4.390592e+01
1.150000e-06	-3.065983e-06	-6.280544e-10	-2.131533e+01	-4.367645e+01
1.160000e-06	-3.026843e-06	-6.220211e-10	-2.104322e+01	-4.344238e+01
1.170000e-06	-2.987600e-06	-6.226010e-10	-2.077039e+01	-4.320348e+01
1.180000e-06	-2.948266e-06	-6.229517e-10	-2.049694e+01	-4.295957e+01
1.190000e-06	-2.908737e-06	-6.199433e-10	-2.022212e+01	-4.271045e+01
1.200000e-06	-2.869057e-06	-6.191489e-10	-1.994626e+01	-4.245592e+01
1.210000e-06	-2.829285e-06	-6.160364e-10	-1.966976e+01	-4.219579e+01
1.220000e-06	-2.789341e-06	-6.065373e-10	-1.939206e+01	-4.192989e+01
1.230000e-06	-2.749174e-06	-5.989841e-10	-1.911281e+01	-4.165804e+01
1.240000e-06	-2.708900e-06	-5.959836e-10	-1.883282e+01	-4.138010e+01
1.250000e-06	-2.668430e-06	-5.922357e-10	-1.855146e+01	-4.109591e+01
1.260000e-06	-2.627682e-06	-5.918561e-10	-1.826817e+01	-4.080533e+01
1.270000e-06	-2.586694e-06	-5.955952e-10	-1.798322e+01	-4.050825e+01
1.280000e-06	-2.545504e-06	-5.947798e-10	-1.769686e+01	-4.020456e+01
1.290000e-06	-2.504031e-06	-5.863983e-10	-1.740852e+01	-3.989416e+01
1.300000e-06	-2.462288e-06	-5.772191e-10	-1.711832e+01	-3.957696e+01
1.310000e-06	-2.420319e-06	-5.696281e-10	-1.682654e+01	-3.925291e+01
1.320000e-06	-2.378027e-06	-5.637041e-10	-1.653252e+01	-3.892194e+01
1.330000e-06	-2.335442e-06	-5.621369e-10	-1.623646e+01	-3.858401e+01
1.340000e-06	-2.292558e-06	-5.649870e-10	-1.593832e+01	-3.823908e+01
1.350000e-06	-2.249342e-06	-5.640261e-10	-1.563788e+01	-3.788714e+01
1.360000e-06	-2.205901e-06	-5.572402e-10	-1.533587e+01	-3.752815e+01
1.370000e-06	-2.162325e-06	-5.484177e-10	-1.503291e+01	-3.716212e+01
1.380000e-06	-2.118663e-06	-5.399773e-10	-1.472937e+01	-3.678904e+01
1.390000e-06	-2.074959e-06	-5.326114e-10	-1.442553e+01	-3.640890e+01
1.400000e-06	-2.031210e-06	-5.279000e-10	-1.412138e+01	-3.602170e+01
1.410000e-06	-1.987351e-06	-5.238803e-10	-1.381646e+01	-3.562744e+01
1.420000e-06	-1.943393e-06	-5.192481e-10	-1.351086e+01	-3.522611e+01
1.430000e-06	-1.899383e-06	-5.148155e-10	-1.320489e+01	-3.481769e+01
1.440000e-06	-1.855296e-06	-5.083257e-10	-1.289839e+01	-3.440216e+01
1.450000e-06	-1.811120e-06	-4.997215e-10	-1.259127e+01	-3.397949e+01
1.460000e-06	-1.766844e-06	-4.888309e-10	-1.228345e+01	-3.354962e+01
1.470000e-06	-1.722446e-06	-4.780616e-10	-1.197479e+01	-3.311250e+01
1.480000e-06	-1.677920e-06	-4.689358e-10	-1.166523e+01	-3.266804e+01
1.490000e-06	-1.633238e-06	-4.607754e-10	-1.135460e+01	-3.221614e+01
1.500000e-06	-1.588379e-06	-4.533875e-10	-1.104273e+01	-3.175667e+01
1.510000e-06	-1.543373e-06	-4.475348e-10	-1.072984e+01	-3.128950e+01
1.520000e-06	-1.498240e-06	-4.403910e-10	-1.041606e+01	-3.081445e+01
1.530000e-06	-1.453027e-06	-4.300737e-10	-1.010174e+01	-3.033133e+01
1.540000e-06	-1.407714e-06	-4.197252e-10	-9.786709e+00	-2.983992e+01
1.550000e-06	-1.362293e-06	-4.093008e-10	-9.470934e+00	-2.933997e+01
1.560000e-06	-1.316786e-06	-3.990872e-10	-9.154560e+00	-2.883121e+01
1.570000e-06	-1.271196e-06	-3.907196e-10	-8.837611e+00	-2.831335e+01
1.580000e-06	-1.225555e-06	-3.819308e-10	-8.520305e+00	-2.778606e+01
1.590000e-06	-1.179880e-06	-3.728303e-10	-8.202760e+00	-2.724899e+01
1.600000e-06	-1.134141e-06	-3.628069e-10	-7.884774e+00	-2.670179e+01
1.610000e-06	-1.088282e-06	-3.518589e-10	-7.565952e+00	-2.614405e+01
1.620000e-06	-1.042289e-06	-3.411319e-10	-7.246202e+00	-2.557539e+01
1.630000e-06	-9.961709e-07	-3.322895e-10	-6.925580e+00	-2.499538e+01
1.640000e-06	-9.499898e-07	-3.219464e-10	-6.604520e+00	-2.440359e+01
1.650000e-06	-9.038224e-07	-3.083910e-10	-6.283555e+00	-2.379957e+01
1.660000e-06	-8.575246e-07	-2.944808e-10	-5.961683e+00	-2.318290e+01
1.670000e-06	-8.110664e-07	-2.816926e-10	-5.638696e+00	-2.255312e+01
1.680000e-06	-7.646127e-07	-2.717464e-10	-5.315741e+00	-2.190979e+01
1.690000e-06	-7.181789e-07	-2.646044e-10	-4.992924e+00	-2.125249e+01
1.700000e-06	-6.717308e-07	-2.601859e-10	-4.670007e+00	-2.058080e+01
1.710000e-06	-6.252202e-07	-2.539541e-10	-4.346656e+00	-1.989431e+01
1.720000e-06	-5.786809e-07	-2.434681e-10	-4.023106e+00	-1.919266e+01
1.730000e-06	-5.320541e-07	-2.319811e-10	-3.698947e+00	-1.847548e+01
1.740000e-06	-4.853715e-07	-2.208735e-10	-3.374400e+00	-1.774248e+01
1.750000e-06	-4.387410e-07	-2.103185e-10	-3.050215e+00	-1.699336e+01
1.760000e-06	-3.920771e-07	-2.004328e-10	-2.725799e+00	-1.622790e+01
1.770000e-06	-3.453136e-07	-1.894804e-10	-2.400689e+00	-1.544591e+01
1.780000e-06	-2.985108e-07	-1.796274e-10	-2.075307e+00	-1.464726e+01
1.790000e-06	-2.517072e-07	-1.700582e-10	-1.749919e+00	-1.383186e+01
1.800000e-06	-2.048472e-07	-1.573572e-10	-1.424139e+00	-1.299970e+01
1.810000e-06	-1.580089e-07	-1.434782e-10	-1.098510e+00	-1.215083e+01
1.820000e-06	-1.112189e-07	-1.300512e-10	-7.732160e-01	-1.128535e+01
1.830000e-06	-6.440267e-08	-1.170658e-10	-4.477403e-01	-1.040345e+01
1.840000e-06	-1.758909e-08	-1.052184e-10	-1.222829e-01	-9.505387e+00
1.850000e-06	2.925523e-08	-9.451995e-11	2.033883e-01	-8.591482e+00
1.860000e-06	7.615616e-08	-8.387036e-11	5.294529e-01	-7.662142e+00
1.870000e-06	1.230243e-07	-7.159566e-11	8.552900e-01	-6.717844e+00
1.880000e-06	1.697728e-07	-5.945694e-11	1.180295e+00	-5.759143e+00
1.890000e-06	2.165367e-07	-4.631418e-11	1.505407e+00	-4.786667e+00
1.900000e-06	2.634388e-07	-3.204887e-11	1.831480e+00	-3.801121e+00
1.910000e-06	3.103731e-07	-1.833795e-11	2.157776e+00	-2.803281e+00
1.920000e-06	3.571945e-07	-5.406555e-12	2.483288e+00	-1.793991e+00
1.930000e-06	4.039145e-07	6.383496e-12	2.808095e+00	-7.741667e-01
1.940000e-06	4.506338e-07	1.833912e-11	3.132897e+00	2.552164e-01
1.950000e-06	4.972895e-07	2.903608e-11	3.457256e+00	1.293121e+00
1.960000e-06	5.438461e-07	4.028377e-11	3.780927e+00	2.338455e+00
1.970000e-06	5.903532e-07	5.522280e-11	4.104254e+00	3.390076e+00
1.980000e-06	6.368759e-07	7.295751e-11	4.427689e+00	4.446798e+00
1.990000e-06	6.834018e-07	8.999440e-11	4.751147e+00	5.507394e+00
2.000000e-06	7.298405e-07	1.060636e-10	5.073998e+00	6.570605e+00
2.010000e-06	7.761947e-07	1.212669e-10	5.396261e+00	7.635148e+00
2.020000e-06	8.225321e-07	1.350715e-10	5.718409e+00	8.699718e+00
2.030000e-06	8.688376e-07	1.486101e-10	6.040333e+00	9.763000e+00
2.040000e-06	9.150561e-07	1.620436e-10	6.361653e+00	1.082367e+01
2.050000e-06	9.612180e-07	1.756600e-10	6.682580e+00	1.188042e+01
2.060000e-06	1.007265e-06	1.916715e-10	7.002706e+00	1.293193e+01
2.070000e-06	1.053135e-06	2.082335e-10	7.321607e+00	1.397691e+01
2.080000e-06	1.098983e-06	2.250126e-10	7.640353e+00	1.501409e+01
2.090000e-06	1.144791e-06	2.411906e-10	7.958818e+00	1.604224e+01
2.100000e-06	1.190499e-06	2.555521e-10	8.276591e+00	1.706017e+01
2.110000e-06	1.236109e-06	2.686040e-10	8.593680e+00	1.806670e+01
2.120000e-06	1.281657e-06	2.811066e-10	8.910339e+00	1.906075e+01
2.130000e-06	1.327144e-06	2.941883e-10	9.226571e+00	2.004126e+01
2.140000e-06	1.372499e-06	3.065317e-10	9.541890e+00	2.100725e+01
2.150000e-06	1.417746e-06	3.201976e-10	9.856457e+00	2.195780e+01
2.160000e-06	1.462800e-06	3.339693e-10	1.016968e+01	2.289207e+01
2.170000e-06	1.507705e-06	3.474889e-10	1.048187e+01	2.380927e+01
2.180000e-06	1.552557e-06	3.603633e-10	1.079369e+01	2.470872e+01
2.190000e-06	1.597315e-06	3.718242e-10	1.110485e+01	2.558980e+01
2.200000e-06	1.641971e-06	3.850638e-10	1.141531e+01	2.645198e+01
2.210000e-06	1.686484e-06	3.982907e-10	1.172478e+01	2.729482e+01
2.220000e-06	1.730981e-06	4.125784e-10	1.203413e+01	2.811794e+01
2.230000e-06	1.775461e-06	4.243377e-10	1.234336e+01	2.892107e+01
2.240000e-06	1.819723e-06	4.322638e-10	1.265108e+01	2.970402e+01
2.250000e-06	1.863843e-06	4.403403e-10	1.295781e+01	3.046667e+01
2.260000e-06	1.907887e-06	4.489535e-10	1.326401e+01	3.120899e+01
2.270000e-06	1.951844e-06	4.600445e-10	1.356961e+01	3.193103e+01
2.280000e-06	1.995704e-06	4.725050e-10	1.387454e+01	3.263291e+01
2.290000e-06	2.039468e-06	4.833601e-10	1.417879e+01	3.331483e+01
2.300000e-06	2.083203e-06	4.915872e-10	1.448284e+01	3.397703e+01
2.310000e-06	2.126871e-06	4.954419e-10	1.478643e+01	3.461986e+01
2.320000e-06	2.170387e-06	4.982482e-10	1.508897e+01	3.524369e+01
2.330000e-06	2.213722e-06	5.030442e-10	1.539024e+01	3.584895e+01
2.340000e-06	2.256992e-06	5.118816e-10	1.569106e+01	3.643613e+01
2.350000e-06	2.300188e-06	5.222608e-10	1.599137e+01	3.700575e+01
2.360000e-06	2.343134e-06	5.318956e-10	1.628994e+01	3.755837e+01
2.370000e-06	2.385781e-06	5.401809e-10	1.658643e+01	3.809458e+01
2.380000e-06	2.428223e-06	5.461773e-10	1.688149e+01	3.861498e+01
2.390000e-06	2.470402e-06	5.524408e-10	1.717473e+01	3.912021e+01
2.400000e-06	2.512175e-06	5.585152e-10	1.746514e+01	3.961090e+01
2.410000e-06	2.553617e-06	5.655978e-10	1.775326e+01	4.008770e+01
2.420000e-06	2.594709e-06	5.751167e-10	1.803894e+01	4.055125e+01
2.430000e-06	2.635441e-06	5.836058e-10	1.832212e+01	4.100219e+01
2.440000e-06	2.676008e-06	5.910512e-10	1.860415e+01	4.144114e+01
2.450000e-06	2.716416e-06	5.987752e-10	1.888507e+01	4.186871e+01
2.460000e-06	2.756646e-06	6.052689e-10	1.916475e+01	4.228549e+01
2.470000e-06	2.796733e-06	6.119234e-10	1.944345e+01	4.269203e+01
2.480000e-06	2.836688e-06	6.179315e-10	1.972123e+01	4.308887e+01
2.490000e-06	2.876482e-06	6.243607e-10	1.999788e+01	4.347651e+01
2.500000e-06	2.916110e-06	6.300611e-10	2.027338e+01	4.385541e+01
2.510000e-06	2.955670e-06	6.343472e-10	2.054841e+01	4.422600e+01
2.520000e-06	2.995156e-06	6.358222e-10	2.082293e+01	4.458866e+01
2.530000e-06	3.034455e-06	6.389354e-10	2.109614e+01	4.494373e+01
2.540000e-06	3.073429e-06	6.437693e-10	2.136710e+01	4.529153e+01
2.550000e-06	3.112132e-06	6.475373e-10	2.163617e+01	4.563230e+01
2.560000e-06	3.150601e-06	6.527752e-10	2.190361e+01	4.596628e+01
2.570000e-06	3.188857e-06	6.596890e-10	2.216958e+01	4.629363e+01
2.580000e-06	3.226856e-06	6.657960e-10	2.243375e+01	4.661450e+01
2.590000e-06	3.264596e-06	6.699200e-10	2.269613e+01	4.692898e+01
2.600000e-06	3.302200e-06	6.724301e-10	2.295755e+01	4.723715e+01
2.610000e-06	3.339604e-06	6.760175e-10	2.321759e+01	4.753903e+01
2.620000e-06	3.376743e-06	6.816307e-10	2.347579e+01	4.783462e+01
2.630000e-06	3.413673e-06	6.873058e-10	2.373254e+01	4.812390e+01
2.640000e-06	3.450349e-06	6.905020e-10	2.398752e+01	4.840681e+01
2.650000e-06	3.486696e-06	6.902736e-10	2.424021e+01	4.868328e+01
2.660000e-06	3.522813e-06	6.894851e-10	2.449130e+01	4.895322e+01
2.670000e-06	3.558770e-06	6.924186e-10	2.474128e+01	4.921652e+01
2.680000e-06	3.594568e-06	7.001459e-10	2.499016e+01	4.947308e+01
2.690000e-06	3.630254e-06	7.092101e-10	2.523825e+01	4.972278e+01
2.700000e-06	3.665861e-06	7.151339e-10	2.548580e+01	4.996549e+01
2.710000e-06	3.701302e-06	7.165226e-10	2.573219e+01	5.020110e+01
2.720000e-06	3.736442e-06	7.160967e-10	2.597649e+01	5.042950e+01
2.730000e-06	3.771272e-06	7.159489e-10	2.621864e+01	5.065058e+01
2.740000e-06	3.805681e-06	7.175144e-10	2.645786e+01	5.086426e+01
2.750000e-06	3.839584e-06	7.214392e-10	2.669356e+01	5.107046e+01
2.760000e-06	3.872948e-06	7.286989e-10	2.692551e+01	5.126912e+01
2.770000e-06	3.905796e-06	7.360865e-10	2.715388e+01	5.146022e+01
2.780000e-06	3.938315e-06	7.407348e-10	2.737996e+01	5.164373e+01
2.790000e-06	3.970553e-06	7.433460e-10	2.760408e+01	5.181967e+01
2.800000e-06	4.002566e-06	7.461292e-10	2.782664e+01	5.198808e+01
2.810000e-06	4.034424e-06	7.489680e-10	2.804813e+01	5.214903e+01
2.820000e-06	4.066128e-06	7.512958e-10	2.826854e+01	5.230261e+01
2.830000e-06	4.097642e-06	7.533420e-10	2.848763e+01	5.244894e+01
2.840000e-06	4.128971e-06	7.564901e-10	2.870543e+01	5.258817e+01
2.850000e-06	4.159971e-06	7.589499e-10	2.892095e+01	5.272049e+01
2.860000e-06	4.190641e-06	7.609952e-10	2.913418e+01	5.284608e+01
2.870000e-06	4.221010e-06	7.642396e-10	2.934531e+01	5.296518e+01
2.880000e-06	4.250998e-06	7.670155e-10	2.955379e+01	5.307805e+01
2.890000e-06	4.280709e-06	7.701047e-10	2.976035e+01	5.318495e+01
2.900000e-06	4.310240e-06	7.738670e-10	2.996565e+01	5.328618e+01
