# Temperatura_=_6.5
# Concentracion g/m^3_=_1620.0
# C_Vs_to_Am_M_A/Vsm_=_65563218390.804596
# pendiente_HvsI_1/m_=_3716.3
# ordenada_HvsI_A/m_=_1297.0
# frecuencia_Hz_=_135105.2355475227

Tiempo_(s)	Campo_(V.s)	Magnetizacion_(V.s)	Campo_(kA/m)	Magnetizacion_(A/m)
0.000000e+00	-5.523205e-06	-7.814764e-10	-3.837303e+01	-5.047692e+01
1.000000e-08	-5.523508e-06	-7.805752e-10	-3.837514e+01	-5.048389e+01
2.000000e-08	-5.523555e-06	-7.797986e-10	-3.837546e+01	-5.049188e+01
3.000000e-08	-5.523293e-06	-7.807122e-10	-3.837364e+01	-5.050066e+01
4.000000e-08	-5.522646e-06	-7.791802e-10	-3.836915e+01	-5.051001e+01
5.000000e-08	-5.521434e-06	-7.740998e-10	-3.836072e+01	-5.051970e+01
6.000000e-08	-5.519572e-06	-7.713147e-10	-3.834779e+01	-5.052946e+01
7.000000e-08	-5.517141e-06	-7.653994e-10	-3.833090e+01	-5.053901e+01
8.000000e-08	-5.514289e-06	-7.679470e-10	-3.831108e+01	-5.054809e+01
9.000000e-08	-5.510995e-06	-7.888000e-10	-3.828820e+01	-5.055638e+01
1.000000e-07	-5.507179e-06	-7.880816e-10	-3.826169e+01	-5.056360e+01
1.100000e-07	-5.502962e-06	-7.279952e-10	-3.823239e+01	-5.056945e+01
1.200000e-07	-5.498527e-06	-7.462325e-10	-3.820158e+01	-5.057362e+01
1.300000e-07	-5.493895e-06	-7.649504e-10	-3.816940e+01	-5.057582e+01
1.400000e-07	-5.488875e-06	-8.011594e-10	-3.813452e+01	-5.057575e+01
1.500000e-07	-5.483435e-06	-7.261649e-10	-3.809673e+01	-5.057315e+01
1.600000e-07	-5.477713e-06	-7.098305e-10	-3.805697e+01	-5.056773e+01
1.700000e-07	-5.471631e-06	-7.678822e-10	-3.801471e+01	-5.055924e+01
1.800000e-07	-5.464980e-06	-7.987809e-10	-3.796851e+01	-5.054743e+01
1.900000e-07	-5.457843e-06	-7.801976e-10	-3.791892e+01	-5.053209e+01
2.000000e-07	-5.450444e-06	-7.391744e-10	-3.786751e+01	-5.051302e+01
2.100000e-07	-5.442788e-06	-7.970915e-10	-3.781433e+01	-5.049002e+01
2.200000e-07	-5.434869e-06	-8.052803e-10	-3.775931e+01	-5.046295e+01
2.300000e-07	-5.426704e-06	-7.971028e-10	-3.770258e+01	-5.043167e+01
2.400000e-07	-5.418163e-06	-7.586636e-10	-3.764324e+01	-5.039608e+01
2.500000e-07	-5.408913e-06	-8.096415e-10	-3.757898e+01	-5.035609e+01
2.600000e-07	-5.398887e-06	-8.083198e-10	-3.750932e+01	-5.031165e+01
2.700000e-07	-5.388304e-06	-8.112508e-10	-3.743579e+01	-5.026274e+01
2.800000e-07	-5.377342e-06	-7.800033e-10	-3.735964e+01	-5.020934e+01
2.900000e-07	-5.366009e-06	-8.049807e-10	-3.728090e+01	-5.015149e+01
3.000000e-07	-5.354287e-06	-7.985188e-10	-3.719946e+01	-5.008924e+01
3.100000e-07	-5.342243e-06	-7.921802e-10	-3.711578e+01	-5.002265e+01
3.200000e-07	-5.329765e-06	-7.736891e-10	-3.702909e+01	-4.995183e+01
3.300000e-07	-5.316829e-06	-7.904307e-10	-3.693921e+01	-4.987690e+01
3.400000e-07	-5.303503e-06	-7.991784e-10	-3.684663e+01	-4.979799e+01
3.500000e-07	-5.289804e-06	-7.819779e-10	-3.675146e+01	-4.971525e+01
3.600000e-07	-5.275690e-06	-7.676791e-10	-3.665340e+01	-4.962887e+01
3.700000e-07	-5.261178e-06	-7.840618e-10	-3.655257e+01	-4.953903e+01
3.800000e-07	-5.246272e-06	-7.867344e-10	-3.644901e+01	-4.944592e+01
3.900000e-07	-5.230732e-06	-7.607229e-10	-3.634105e+01	-4.934976e+01
4.000000e-07	-5.214608e-06	-7.824414e-10	-3.622902e+01	-4.925075e+01
4.100000e-07	-5.198130e-06	-7.985372e-10	-3.611454e+01	-4.914912e+01
4.200000e-07	-5.181266e-06	-7.736756e-10	-3.599738e+01	-4.904509e+01
4.300000e-07	-5.164012e-06	-7.521921e-10	-3.587750e+01	-4.893889e+01
4.400000e-07	-5.146480e-06	-8.044536e-10	-3.575570e+01	-4.883072e+01
4.500000e-07	-5.128625e-06	-7.829583e-10	-3.563165e+01	-4.872081e+01
4.600000e-07	-5.110267e-06	-7.429936e-10	-3.550410e+01	-4.860937e+01
4.700000e-07	-5.091374e-06	-7.562264e-10	-3.537284e+01	-4.849661e+01
4.800000e-07	-5.072157e-06	-7.958313e-10	-3.523933e+01	-4.838270e+01
4.900000e-07	-5.052747e-06	-7.477438e-10	-3.510448e+01	-4.826783e+01
5.000000e-07	-5.033121e-06	-7.565816e-10	-3.496812e+01	-4.815218e+01
5.100000e-07	-5.013323e-06	-7.849068e-10	-3.483058e+01	-4.803589e+01
5.200000e-07	-4.993294e-06	-7.631725e-10	-3.469142e+01	-4.791911e+01
5.300000e-07	-4.972876e-06	-7.249453e-10	-3.454956e+01	-4.780197e+01
5.400000e-07	-4.952090e-06	-7.679033e-10	-3.440515e+01	-4.768456e+01
5.500000e-07	-4.930969e-06	-7.533685e-10	-3.425841e+01	-4.756699e+01
5.600000e-07	-4.909467e-06	-7.190554e-10	-3.410902e+01	-4.744933e+01
5.700000e-07	-4.887606e-06	-7.410573e-10	-3.395715e+01	-4.733165e+01
5.800000e-07	-4.865451e-06	-7.696948e-10	-3.380322e+01	-4.721398e+01
5.900000e-07	-4.842939e-06	-7.289158e-10	-3.364681e+01	-4.709636e+01
6.000000e-07	-4.820077e-06	-7.293824e-10	-3.348798e+01	-4.697881e+01
6.100000e-07	-4.796909e-06	-7.506453e-10	-3.332702e+01	-4.686132e+01
6.200000e-07	-4.773486e-06	-7.277024e-10	-3.316428e+01	-4.674390e+01
6.300000e-07	-4.749864e-06	-7.070955e-10	-3.300017e+01	-4.662651e+01
6.400000e-07	-4.726017e-06	-7.255061e-10	-3.283449e+01	-4.650913e+01
6.500000e-07	-4.701894e-06	-7.211071e-10	-3.266689e+01	-4.639171e+01
6.600000e-07	-4.677313e-06	-7.069135e-10	-3.249611e+01	-4.627422e+01
6.700000e-07	-4.652280e-06	-7.255177e-10	-3.232219e+01	-4.615659e+01
6.800000e-07	-4.626740e-06	-7.279994e-10	-3.214475e+01	-4.603876e+01
6.900000e-07	-4.600573e-06	-7.116896e-10	-3.196295e+01	-4.592069e+01
7.000000e-07	-4.573856e-06	-7.064035e-10	-3.177734e+01	-4.580230e+01
7.100000e-07	-4.546786e-06	-7.112428e-10	-3.158926e+01	-4.568352e+01
7.200000e-07	-4.519468e-06	-6.945340e-10	-3.139947e+01	-4.556430e+01
7.300000e-07	-4.491894e-06	-6.964896e-10	-3.120789e+01	-4.544458e+01
7.400000e-07	-4.464141e-06	-7.015707e-10	-3.101507e+01	-4.532429e+01
7.500000e-07	-4.436179e-06	-7.065288e-10	-3.082081e+01	-4.520337e+01
7.600000e-07	-4.407953e-06	-7.023050e-10	-3.062470e+01	-4.508179e+01
7.700000e-07	-4.379434e-06	-7.068889e-10	-3.042657e+01	-4.495948e+01
7.800000e-07	-4.350598e-06	-6.964999e-10	-3.022622e+01	-4.483641e+01
7.900000e-07	-4.321408e-06	-6.916942e-10	-3.002342e+01	-4.471254e+01
8.000000e-07	-4.291950e-06	-6.847119e-10	-2.981876e+01	-4.458784e+01
8.100000e-07	-4.262287e-06	-6.862221e-10	-2.961267e+01	-4.446228e+01
8.200000e-07	-4.232325e-06	-6.820817e-10	-2.940451e+01	-4.433584e+01
8.300000e-07	-4.201966e-06	-6.909697e-10	-2.919359e+01	-4.420850e+01
8.400000e-07	-4.171217e-06	-6.901716e-10	-2.897995e+01	-4.408025e+01
8.500000e-07	-4.140255e-06	-6.863517e-10	-2.876485e+01	-4.395108e+01
8.600000e-07	-4.109082e-06	-6.796588e-10	-2.854826e+01	-4.382097e+01
8.700000e-07	-4.077629e-06	-6.774953e-10	-2.832974e+01	-4.368993e+01
8.800000e-07	-4.046002e-06	-6.670417e-10	-2.811002e+01	-4.355794e+01
8.900000e-07	-4.014226e-06	-6.643586e-10	-2.788925e+01	-4.342499e+01
9.000000e-07	-3.982257e-06	-6.650800e-10	-2.766713e+01	-4.329108e+01
9.100000e-07	-3.949998e-06	-6.632325e-10	-2.744301e+01	-4.315619e+01
9.200000e-07	-3.917356e-06	-6.603592e-10	-2.721623e+01	-4.302029e+01
9.300000e-07	-3.884335e-06	-6.621099e-10	-2.698681e+01	-4.288337e+01
9.400000e-07	-3.850843e-06	-6.590616e-10	-2.675412e+01	-4.274538e+01
9.500000e-07	-3.816876e-06	-6.505921e-10	-2.651814e+01	-4.260629e+01
9.600000e-07	-3.782536e-06	-6.502799e-10	-2.627955e+01	-4.246604e+01
9.700000e-07	-3.747817e-06	-6.511312e-10	-2.603834e+01	-4.232457e+01
9.800000e-07	-3.712802e-06	-6.503152e-10	-2.579507e+01	-4.218182e+01
9.900000e-07	-3.677525e-06	-6.483291e-10	-2.554998e+01	-4.203768e+01
1.000000e-06	-3.642039e-06	-6.509947e-10	-2.530344e+01	-4.189206e+01
1.010000e-06	-3.606433e-06	-6.457670e-10	-2.505606e+01	-4.174485e+01
1.020000e-06	-3.570671e-06	-6.413318e-10	-2.480760e+01	-4.159593e+01
1.030000e-06	-3.534730e-06	-6.377157e-10	-2.455790e+01	-4.144515e+01
1.040000e-06	-3.498562e-06	-6.356942e-10	-2.430662e+01	-4.129236e+01
1.050000e-06	-3.462141e-06	-6.280560e-10	-2.405358e+01	-4.113739e+01
1.060000e-06	-3.425534e-06	-6.262675e-10	-2.379925e+01	-4.098007e+01
1.070000e-06	-3.388666e-06	-6.225093e-10	-2.354311e+01	-4.082021e+01
1.080000e-06	-3.351397e-06	-6.210980e-10	-2.328417e+01	-4.065760e+01
1.090000e-06	-3.313846e-06	-6.174466e-10	-2.302329e+01	-4.049205e+01
1.100000e-06	-3.276152e-06	-6.172775e-10	-2.276140e+01	-4.032331e+01
1.110000e-06	-3.238279e-06	-6.100548e-10	-2.249827e+01	-4.015118e+01
1.120000e-06	-3.200154e-06	-6.031968e-10	-2.223339e+01	-3.997543e+01
1.130000e-06	-3.161786e-06	-5.977192e-10	-2.196683e+01	-3.979581e+01
1.140000e-06	-3.123181e-06	-5.967128e-10	-2.169862e+01	-3.961209e+01
1.150000e-06	-3.084377e-06	-5.925219e-10	-2.142903e+01	-3.942404e+01
1.160000e-06	-3.045419e-06	-5.892518e-10	-2.115836e+01	-3.923142e+01
1.170000e-06	-3.006332e-06	-5.851004e-10	-2.088680e+01	-3.903401e+01
1.180000e-06	-2.967066e-06	-5.809104e-10	-2.061399e+01	-3.883158e+01
1.190000e-06	-2.927608e-06	-5.758871e-10	-2.033986e+01	-3.862391e+01
1.200000e-06	-2.888028e-06	-5.730552e-10	-2.006487e+01	-3.841081e+01
1.210000e-06	-2.848302e-06	-5.692418e-10	-1.978887e+01	-3.819207e+01
1.220000e-06	-2.808441e-06	-5.654007e-10	-1.951193e+01	-3.796751e+01
1.230000e-06	-2.768403e-06	-5.629059e-10	-1.923376e+01	-3.773698e+01
1.240000e-06	-2.728147e-06	-5.589522e-10	-1.895408e+01	-3.750031e+01
1.250000e-06	-2.687631e-06	-5.528436e-10	-1.867259e+01	-3.725738e+01
1.260000e-06	-2.646923e-06	-5.474082e-10	-1.838977e+01	-3.700806e+01
1.270000e-06	-2.606003e-06	-5.468521e-10	-1.810547e+01	-3.675227e+01
1.280000e-06	-2.564828e-06	-5.449456e-10	-1.781941e+01	-3.648993e+01
1.290000e-06	-2.523413e-06	-5.424858e-10	-1.753167e+01	-3.622097e+01
1.300000e-06	-2.481656e-06	-5.378428e-10	-1.724156e+01	-3.594536e+01
1.310000e-06	-2.439604e-06	-5.334337e-10	-1.694940e+01	-3.566307e+01
1.320000e-06	-2.397354e-06	-5.253305e-10	-1.665586e+01	-3.537410e+01
1.330000e-06	-2.354880e-06	-5.192156e-10	-1.636077e+01	-3.507847e+01
1.340000e-06	-2.312060e-06	-5.163436e-10	-1.606328e+01	-3.477619e+01
1.350000e-06	-2.268896e-06	-5.152345e-10	-1.576338e+01	-3.446732e+01
1.360000e-06	-2.225528e-06	-5.112095e-10	-1.546208e+01	-3.415190e+01
1.370000e-06	-2.182041e-06	-5.068852e-10	-1.515995e+01	-3.383000e+01
1.380000e-06	-2.138444e-06	-5.004295e-10	-1.485706e+01	-3.350169e+01
1.390000e-06	-2.094776e-06	-4.955090e-10	-1.455367e+01	-3.316704e+01
1.400000e-06	-2.051025e-06	-4.903387e-10	-1.424970e+01	-3.282613e+01
1.410000e-06	-2.007229e-06	-4.857497e-10	-1.394543e+01	-3.247904e+01
1.420000e-06	-1.963421e-06	-4.799132e-10	-1.364107e+01	-3.212583e+01
1.430000e-06	-1.919480e-06	-4.761294e-10	-1.333578e+01	-3.176657e+01
1.440000e-06	-1.875414e-06	-4.713011e-10	-1.302963e+01	-3.140132e+01
1.450000e-06	-1.831265e-06	-4.665949e-10	-1.272290e+01	-3.103012e+01
1.460000e-06	-1.786999e-06	-4.594109e-10	-1.241536e+01	-3.065300e+01
1.470000e-06	-1.742563e-06	-4.517506e-10	-1.210664e+01	-3.026995e+01
1.480000e-06	-1.698008e-06	-4.448093e-10	-1.179709e+01	-2.988097e+01
1.490000e-06	-1.653350e-06	-4.384472e-10	-1.148682e+01	-2.948602e+01
1.500000e-06	-1.608583e-06	-4.324268e-10	-1.117580e+01	-2.908503e+01
1.510000e-06	-1.563684e-06	-4.248970e-10	-1.086385e+01	-2.867789e+01
1.520000e-06	-1.518600e-06	-4.160500e-10	-1.055063e+01	-2.826450e+01
1.530000e-06	-1.473388e-06	-4.063264e-10	-1.023651e+01	-2.784468e+01
1.540000e-06	-1.428085e-06	-3.961015e-10	-9.921765e+00	-2.741824e+01
1.550000e-06	-1.382762e-06	-3.880886e-10	-9.606882e+00	-2.698495e+01
1.560000e-06	-1.337333e-06	-3.834746e-10	-9.291257e+00	-2.654455e+01
1.570000e-06	-1.291700e-06	-3.778363e-10	-8.974220e+00	-2.609674e+01
1.580000e-06	-1.245955e-06	-3.708600e-10	-8.656400e+00	-2.564119e+01
1.590000e-06	-1.200170e-06	-3.633362e-10	-8.338301e+00	-2.517752e+01
1.600000e-06	-1.154339e-06	-3.545271e-10	-8.019890e+00	-2.470534e+01
1.610000e-06	-1.108470e-06	-3.460343e-10	-7.701211e+00	-2.422423e+01
1.620000e-06	-1.062491e-06	-3.392407e-10	-7.381764e+00	-2.373371e+01
1.630000e-06	-1.016401e-06	-3.322079e-10	-7.061552e+00	-2.323331e+01
1.640000e-06	-9.702681e-07	-3.252047e-10	-6.741037e+00	-2.272252e+01
1.650000e-06	-9.240018e-07	-3.143616e-10	-6.419597e+00	-2.220082e+01
1.660000e-06	-8.776597e-07	-3.032436e-10	-6.097631e+00	-2.166767e+01
1.670000e-06	-8.313087e-07	-2.909409e-10	-5.775602e+00	-2.112253e+01
1.680000e-06	-7.849354e-07	-2.826410e-10	-5.453419e+00	-2.056483e+01
1.690000e-06	-7.385467e-07	-2.776622e-10	-5.131128e+00	-1.999404e+01
1.700000e-06	-6.920433e-07	-2.738656e-10	-4.808042e+00	-1.940959e+01
1.710000e-06	-6.454638e-07	-2.664009e-10	-4.484426e+00	-1.881097e+01
1.720000e-06	-5.988857e-07	-2.554438e-10	-4.160820e+00	-1.819765e+01
1.730000e-06	-5.522137e-07	-2.434990e-10	-3.836561e+00	-1.756914e+01
1.740000e-06	-5.055191e-07	-2.314799e-10	-3.512146e+00	-1.692498e+01
1.750000e-06	-4.588350e-07	-2.187682e-10	-3.187803e+00	-1.626472e+01
1.760000e-06	-4.121232e-07	-2.085137e-10	-2.863268e+00	-1.558800e+01
1.770000e-06	-3.654287e-07	-1.983456e-10	-2.538853e+00	-1.489445e+01
1.780000e-06	-3.186649e-07	-1.889576e-10	-2.213957e+00	-1.418380e+01
1.790000e-06	-2.718138e-07	-1.817398e-10	-1.888454e+00	-1.345581e+01
1.800000e-06	-2.249584e-07	-1.712218e-10	-1.562921e+00	-1.271032e+01
1.810000e-06	-1.780704e-07	-1.575946e-10	-1.237163e+00	-1.194721e+01
1.820000e-06	-1.310992e-07	-1.429389e-10	-9.108253e-01	-1.116646e+01
1.830000e-06	-8.414701e-08	-1.289233e-10	-5.846200e-01	-1.036812e+01
1.840000e-06	-3.726958e-08	-1.165292e-10	-2.589342e-01	-9.552298e+00
1.850000e-06	9.606361e-09	-1.061911e-10	6.674118e-02	-8.719211e+00
1.860000e-06	5.653653e-08	-9.885512e-11	3.927933e-01	-7.869145e+00
1.870000e-06	1.035204e-07	-9.036554e-11	7.192189e-01	-7.002472e+00
1.880000e-06	1.504952e-07	-7.864413e-11	1.045581e+00	-6.119652e+00
1.890000e-06	1.975253e-07	-6.530032e-11	1.372327e+00	-5.221230e+00
1.900000e-06	2.445696e-07	-5.000469e-11	1.699173e+00	-4.307838e+00
1.910000e-06	2.915104e-07	-3.554260e-11	2.025298e+00	-3.380190e+00
1.920000e-06	3.383833e-07	-2.175951e-11	2.350953e+00	-2.439085e+00
1.930000e-06	3.852348e-07	-1.034182e-11	2.676458e+00	-1.485401e+00
1.940000e-06	4.319933e-07	2.280756e-12	3.001318e+00	-5.200922e-01
1.950000e-06	4.787454e-07	1.308005e-11	3.326132e+00	4.558137e-01
1.960000e-06	5.254663e-07	2.443121e-11	3.650731e+00	1.441221e+00
1.970000e-06	5.720387e-07	3.804227e-11	3.974298e+00	2.434972e+00
1.980000e-06	6.185395e-07	5.385978e-11	4.297367e+00	3.435849e+00
1.990000e-06	6.649468e-07	7.074971e-11	4.619786e+00	4.442587e+00
2.000000e-06	7.112750e-07	8.738605e-11	4.941656e+00	5.453874e+00
2.010000e-06	7.575687e-07	1.025297e-10	5.263286e+00	6.468361e+00
2.020000e-06	8.038481e-07	1.156218e-10	5.584817e+00	7.484671e+00
2.030000e-06	8.501320e-07	1.267759e-10	5.906379e+00	8.501403e+00
2.040000e-06	8.964182e-07	1.381348e-10	6.227957e+00	9.517146e+00
2.050000e-06	9.426511e-07	1.495909e-10	6.549165e+00	1.053048e+01
2.060000e-06	9.888244e-07	1.634071e-10	6.869959e+00	1.153999e+01
2.070000e-06	1.034869e-06	1.799504e-10	7.189858e+00	1.254426e+01
2.080000e-06	1.080773e-06	1.986475e-10	7.508780e+00	1.354193e+01
2.090000e-06	1.126619e-06	2.155030e-10	7.827304e+00	1.453161e+01
2.100000e-06	1.172415e-06	2.289687e-10	8.145476e+00	1.551201e+01
2.110000e-06	1.218165e-06	2.417438e-10	8.463328e+00	1.648182e+01
2.120000e-06	1.263788e-06	2.532708e-10	8.780296e+00	1.743984e+01
2.130000e-06	1.309283e-06	2.654426e-10	9.096378e+00	1.838488e+01
2.140000e-06	1.354667e-06	2.766921e-10	9.411687e+00	1.931585e+01
2.150000e-06	1.399975e-06	2.875056e-10	9.726468e+00	2.023170e+01
2.160000e-06	1.445248e-06	2.988503e-10	1.004101e+01	2.113147e+01
2.170000e-06	1.490418e-06	3.121702e-10	1.035483e+01	2.201429e+01
2.180000e-06	1.535470e-06	3.246065e-10	1.066784e+01	2.287936e+01
2.190000e-06	1.580386e-06	3.352244e-10	1.097989e+01	2.372598e+01
2.200000e-06	1.625245e-06	3.458768e-10	1.129156e+01	2.455352e+01
2.210000e-06	1.669988e-06	3.558575e-10	1.160241e+01	2.536148e+01
2.220000e-06	1.714509e-06	3.653640e-10	1.191173e+01	2.614941e+01
2.230000e-06	1.758928e-06	3.746991e-10	1.222033e+01	2.691700e+01
2.240000e-06	1.803210e-06	3.829329e-10	1.252799e+01	2.766399e+01
2.250000e-06	1.847349e-06	3.909417e-10	1.283465e+01	2.839025e+01
2.260000e-06	1.891456e-06	3.989393e-10	1.314108e+01	2.909573e+01
2.270000e-06	1.935477e-06	4.101603e-10	1.344693e+01	2.978046e+01
2.280000e-06	1.979399e-06	4.234974e-10	1.375207e+01	3.044457e+01
2.290000e-06	2.023261e-06	4.358096e-10	1.405681e+01	3.108827e+01
2.300000e-06	2.067037e-06	4.449744e-10	1.436095e+01	3.171185e+01
2.310000e-06	2.110723e-06	4.524709e-10	1.466446e+01	3.231567e+01
2.320000e-06	2.154308e-06	4.591138e-10	1.496727e+01	3.290015e+01
2.330000e-06	2.197825e-06	4.654567e-10	1.526961e+01	3.346580e+01
2.340000e-06	2.241292e-06	4.720082e-10	1.557160e+01	3.401315e+01
2.350000e-06	2.284620e-06	4.800949e-10	1.587263e+01	3.454281e+01
2.360000e-06	2.327628e-06	4.890373e-10	1.617143e+01	3.505543e+01
2.370000e-06	2.370323e-06	4.976414e-10	1.646806e+01	3.555167e+01
2.380000e-06	2.412913e-06	5.062297e-10	1.676396e+01	3.603224e+01
2.390000e-06	2.455188e-06	5.145691e-10	1.705767e+01	3.649789e+01
2.400000e-06	2.497041e-06	5.229819e-10	1.734845e+01	3.694934e+01
2.410000e-06	2.538585e-06	5.309636e-10	1.763708e+01	3.738734e+01
2.420000e-06	2.579820e-06	5.391603e-10	1.792357e+01	3.781266e+01
2.430000e-06	2.620771e-06	5.482415e-10	1.820808e+01	3.822603e+01
2.440000e-06	2.661518e-06	5.568605e-10	1.849117e+01	3.862819e+01
2.450000e-06	2.702106e-06	5.647323e-10	1.877316e+01	3.901985e+01
2.460000e-06	2.742398e-06	5.717581e-10	1.905309e+01	3.940169e+01
2.470000e-06	2.782430e-06	5.760883e-10	1.933122e+01	3.977438e+01
2.480000e-06	2.822406e-06	5.795747e-10	1.960896e+01	4.013854e+01
2.490000e-06	2.862333e-06	5.828096e-10	1.988635e+01	4.049475e+01
2.500000e-06	2.902077e-06	5.878871e-10	2.016248e+01	4.084356e+01
2.510000e-06	2.941668e-06	5.960389e-10	2.043754e+01	4.118545e+01
2.520000e-06	2.981131e-06	6.042025e-10	2.071171e+01	4.152089e+01
2.530000e-06	3.020425e-06	6.096453e-10	2.098471e+01	4.185025e+01
2.540000e-06	3.059529e-06	6.128075e-10	2.125639e+01	4.217389e+01
2.550000e-06	3.098408e-06	6.139019e-10	2.152651e+01	4.249210e+01
2.560000e-06	3.136967e-06	6.145003e-10	2.179440e+01	4.280510e+01
2.570000e-06	3.175277e-06	6.188217e-10	2.206056e+01	4.311310e+01
2.580000e-06	3.213418e-06	6.269671e-10	2.232555e+01	4.341622e+01
2.590000e-06	3.251328e-06	6.349092e-10	2.258894e+01	4.371455e+01
2.600000e-06	3.289058e-06	6.410635e-10	2.285107e+01	4.400812e+01
2.610000e-06	3.326583e-06	6.437615e-10	2.311177e+01	4.429691e+01
2.620000e-06	3.363824e-06	6.461071e-10	2.337051e+01	4.458089e+01
2.630000e-06	3.400829e-06	6.496286e-10	2.362761e+01	4.485997e+01
2.640000e-06	3.437613e-06	6.522682e-10	2.388317e+01	4.513400e+01
2.650000e-06	3.474135e-06	6.545372e-10	2.413691e+01	4.540285e+01
2.660000e-06	3.510404e-06	6.594865e-10	2.438889e+01	4.566632e+01
2.670000e-06	3.546443e-06	6.665439e-10	2.463927e+01	4.592421e+01
2.680000e-06	3.582264e-06	6.716492e-10	2.488815e+01	4.617630e+01
2.690000e-06	3.617940e-06	6.738674e-10	2.513601e+01	4.642236e+01
2.700000e-06	3.653533e-06	6.777945e-10	2.538329e+01	4.666215e+01
2.710000e-06	3.689005e-06	6.822420e-10	2.562974e+01	4.689541e+01
2.720000e-06	3.724284e-06	6.842481e-10	2.587485e+01	4.712192e+01
2.730000e-06	3.759290e-06	6.890492e-10	2.611805e+01	4.734142e+01
2.740000e-06	3.793963e-06	6.940969e-10	2.635895e+01	4.755371e+01
2.750000e-06	3.828164e-06	6.986466e-10	2.659656e+01	4.775856e+01
2.760000e-06	3.861807e-06	7.012506e-10	2.683030e+01	4.795578e+01
2.770000e-06	3.894988e-06	7.040044e-10	2.706083e+01	4.814522e+01
2.780000e-06	3.927799e-06	7.065868e-10	2.728879e+01	4.832671e+01
2.790000e-06	3.960283e-06	7.081256e-10	2.751447e+01	4.850015e+01
2.800000e-06	3.992443e-06	7.099048e-10	2.773791e+01	4.866545e+01
2.810000e-06	4.024320e-06	7.136981e-10	2.795938e+01	4.882256e+01
2.820000e-06	4.056047e-06	7.186943e-10	2.817980e+01	4.897146e+01
2.830000e-06	4.087638e-06	7.231787e-10	2.839928e+01	4.911216e+01
2.840000e-06	4.119060e-06	7.252076e-10	2.861759e+01	4.924472e+01
2.850000e-06	4.150209e-06	7.254123e-10	2.883400e+01	4.936923e+01
2.860000e-06	4.181017e-06	7.265728e-10	2.904805e+01	4.948580e+01
2.870000e-06	4.211536e-06	7.278481e-10	2.926008e+01	4.959460e+01
2.880000e-06	4.241733e-06	7.287987e-10	2.946987e+01	4.969581e+01
2.890000e-06	4.271618e-06	7.320339e-10	2.967750e+01	4.978966e+01
2.900000e-06	4.301193e-06	7.364163e-10	2.988298e+01	4.987640e+01
