# Temperatura_=_14.1
# Concentracion g/m^3_=_1620.0
# C_Vs_to_Am_M_A/Vsm_=_65563218390.804596
# pendiente_HvsI_1/m_=_3716.3
# ordenada_HvsI_A/m_=_1297.0
# frecuencia_Hz_=_135103.55309738845

Tiempo_(s)	Campo_(V.s)	Magnetizacion_(V.s)	Campo_(kA/m)	Magnetizacion_(A/m)
0.000000e+00	-5.514410e-06	-8.562601e-10	-3.837728e+01	-5.657905e+01
1.000000e-08	-5.514713e-06	-8.585980e-10	-3.837939e+01	-5.656967e+01
2.000000e-08	-5.514764e-06	-8.602489e-10	-3.837974e+01	-5.655790e+01
3.000000e-08	-5.514516e-06	-8.613033e-10	-3.837801e+01	-5.654371e+01
4.000000e-08	-5.513856e-06	-8.609837e-10	-3.837342e+01	-5.652705e+01
5.000000e-08	-5.512721e-06	-8.566829e-10	-3.836552e+01	-5.650787e+01
6.000000e-08	-5.510980e-06	-8.495666e-10	-3.835341e+01	-5.648614e+01
7.000000e-08	-5.508608e-06	-8.324869e-10	-3.833690e+01	-5.646185e+01
8.000000e-08	-5.505685e-06	-8.362092e-10	-3.831656e+01	-5.643498e+01
9.000000e-08	-5.502254e-06	-8.902660e-10	-3.829268e+01	-5.640553e+01
1.000000e-07	-5.498275e-06	-9.156749e-10	-3.826499e+01	-5.637349e+01
1.100000e-07	-5.493908e-06	-8.234950e-10	-3.823459e+01	-5.633889e+01
1.200000e-07	-5.489413e-06	-7.748265e-10	-3.820331e+01	-5.630176e+01
1.300000e-07	-5.484746e-06	-8.398195e-10	-3.817084e+01	-5.626213e+01
1.400000e-07	-5.479671e-06	-9.003362e-10	-3.813551e+01	-5.622005e+01
1.500000e-07	-5.474194e-06	-8.104727e-10	-3.809740e+01	-5.617558e+01
1.600000e-07	-5.468514e-06	-7.538418e-10	-3.805787e+01	-5.612878e+01
1.700000e-07	-5.462513e-06	-8.480770e-10	-3.801610e+01	-5.607975e+01
1.800000e-07	-5.455983e-06	-9.282343e-10	-3.797066e+01	-5.602855e+01
1.900000e-07	-5.448992e-06	-8.412808e-10	-3.792201e+01	-5.597530e+01
2.000000e-07	-5.441698e-06	-7.543249e-10	-3.787124e+01	-5.592009e+01
2.100000e-07	-5.434101e-06	-8.050186e-10	-3.781837e+01	-5.586303e+01
2.200000e-07	-5.426209e-06	-8.752419e-10	-3.776345e+01	-5.580423e+01
2.300000e-07	-5.418115e-06	-8.465499e-10	-3.770712e+01	-5.574381e+01
2.400000e-07	-5.409702e-06	-7.916140e-10	-3.764857e+01	-5.568190e+01
2.500000e-07	-5.400656e-06	-8.214592e-10	-3.758561e+01	-5.561860e+01
2.600000e-07	-5.390810e-06	-8.564084e-10	-3.751709e+01	-5.555405e+01
2.700000e-07	-5.380404e-06	-8.340202e-10	-3.744467e+01	-5.548835e+01
2.800000e-07	-5.369563e-06	-8.021002e-10	-3.736923e+01	-5.542164e+01
2.900000e-07	-5.358156e-06	-8.310831e-10	-3.728983e+01	-5.535400e+01
3.000000e-07	-5.346335e-06	-8.474347e-10	-3.720757e+01	-5.528556e+01
3.100000e-07	-5.334166e-06	-8.367386e-10	-3.712288e+01	-5.521639e+01
3.200000e-07	-5.321496e-06	-8.112980e-10	-3.703470e+01	-5.514659e+01
3.300000e-07	-5.308348e-06	-8.284766e-10	-3.694320e+01	-5.507624e+01
3.400000e-07	-5.294937e-06	-8.384970e-10	-3.684987e+01	-5.500540e+01
3.500000e-07	-5.281233e-06	-8.198836e-10	-3.675450e+01	-5.493411e+01
3.600000e-07	-5.267068e-06	-7.878832e-10	-3.665591e+01	-5.486242e+01
3.700000e-07	-5.252470e-06	-8.176480e-10	-3.655432e+01	-5.479035e+01
3.800000e-07	-5.237450e-06	-8.347948e-10	-3.644979e+01	-5.471790e+01
3.900000e-07	-5.221813e-06	-8.065127e-10	-3.634096e+01	-5.464508e+01
4.000000e-07	-5.205493e-06	-8.062454e-10	-3.622739e+01	-5.457185e+01
4.100000e-07	-5.188857e-06	-8.476165e-10	-3.611161e+01	-5.449817e+01
4.200000e-07	-5.172054e-06	-8.143682e-10	-3.599467e+01	-5.442400e+01
4.300000e-07	-5.154830e-06	-7.724292e-10	-3.587480e+01	-5.434927e+01
4.400000e-07	-5.137269e-06	-8.272814e-10	-3.575259e+01	-5.427388e+01
4.500000e-07	-5.119526e-06	-8.471349e-10	-3.562910e+01	-5.419775e+01
4.600000e-07	-5.101319e-06	-7.749684e-10	-3.550239e+01	-5.412076e+01
4.700000e-07	-5.082581e-06	-7.819374e-10	-3.537199e+01	-5.404279e+01
4.800000e-07	-5.063479e-06	-8.450281e-10	-3.523905e+01	-5.396372e+01
4.900000e-07	-5.044079e-06	-8.065021e-10	-3.510403e+01	-5.388339e+01
5.000000e-07	-5.024435e-06	-7.774822e-10	-3.496732e+01	-5.380166e+01
5.100000e-07	-5.004649e-06	-8.272941e-10	-3.482962e+01	-5.371838e+01
5.200000e-07	-4.984564e-06	-8.126068e-10	-3.468984e+01	-5.363339e+01
5.300000e-07	-4.964029e-06	-7.594783e-10	-3.454693e+01	-5.354654e+01
5.400000e-07	-4.943170e-06	-8.091799e-10	-3.440176e+01	-5.345765e+01
5.500000e-07	-4.921994e-06	-8.265031e-10	-3.425438e+01	-5.336658e+01
5.600000e-07	-4.900467e-06	-7.612880e-10	-3.410457e+01	-5.327318e+01
5.700000e-07	-4.878676e-06	-7.708295e-10	-3.395292e+01	-5.317729e+01
5.800000e-07	-4.856550e-06	-8.238597e-10	-3.379893e+01	-5.307877e+01
5.900000e-07	-4.834081e-06	-7.801485e-10	-3.364256e+01	-5.297751e+01
6.000000e-07	-4.811385e-06	-7.591183e-10	-3.348461e+01	-5.287338e+01
6.100000e-07	-4.788353e-06	-8.034471e-10	-3.332432e+01	-5.276628e+01
6.200000e-07	-4.764925e-06	-7.934323e-10	-3.316128e+01	-5.265612e+01
6.300000e-07	-4.741291e-06	-7.522053e-10	-3.299679e+01	-5.254282e+01
6.400000e-07	-4.717502e-06	-7.742034e-10	-3.283123e+01	-5.242633e+01
6.500000e-07	-4.693401e-06	-7.821939e-10	-3.266351e+01	-5.230661e+01
6.600000e-07	-4.668838e-06	-7.588011e-10	-3.249256e+01	-5.218365e+01
6.700000e-07	-4.643759e-06	-7.655970e-10	-3.231803e+01	-5.205744e+01
6.800000e-07	-4.618211e-06	-7.776496e-10	-3.214023e+01	-5.192800e+01
6.900000e-07	-4.592233e-06	-7.568021e-10	-3.195943e+01	-5.179537e+01
7.000000e-07	-4.565721e-06	-7.531430e-10	-3.177492e+01	-5.165962e+01
7.100000e-07	-4.538722e-06	-7.618198e-10	-3.158702e+01	-5.152081e+01
7.200000e-07	-4.511390e-06	-7.534234e-10	-3.139681e+01	-5.137905e+01
7.300000e-07	-4.483823e-06	-7.477215e-10	-3.120495e+01	-5.123444e+01
7.400000e-07	-4.456128e-06	-7.551275e-10	-3.101221e+01	-5.108712e+01
7.500000e-07	-4.428239e-06	-7.566867e-10	-3.081812e+01	-5.093723e+01
7.600000e-07	-4.400100e-06	-7.521692e-10	-3.062229e+01	-5.078492e+01
7.700000e-07	-4.371619e-06	-7.486941e-10	-3.042408e+01	-5.063036e+01
7.800000e-07	-4.342794e-06	-7.430098e-10	-3.022347e+01	-5.047374e+01
7.900000e-07	-4.313655e-06	-7.406045e-10	-3.002068e+01	-5.031522e+01
8.000000e-07	-4.284238e-06	-7.410967e-10	-2.981595e+01	-5.015499e+01
8.100000e-07	-4.254625e-06	-7.406011e-10	-2.960986e+01	-4.999326e+01
8.200000e-07	-4.224724e-06	-7.397425e-10	-2.940177e+01	-4.983019e+01
8.300000e-07	-4.194451e-06	-7.452304e-10	-2.919109e+01	-4.966599e+01
8.400000e-07	-4.163856e-06	-7.432810e-10	-2.897816e+01	-4.950083e+01
8.500000e-07	-4.132972e-06	-7.361837e-10	-2.876322e+01	-4.933487e+01
8.600000e-07	-4.101832e-06	-7.309326e-10	-2.854651e+01	-4.916829e+01
8.700000e-07	-4.070480e-06	-7.294202e-10	-2.832832e+01	-4.900122e+01
8.800000e-07	-4.038933e-06	-7.219800e-10	-2.810876e+01	-4.883381e+01
8.900000e-07	-4.007220e-06	-7.187908e-10	-2.788806e+01	-4.866617e+01
9.000000e-07	-3.975330e-06	-7.195921e-10	-2.766612e+01	-4.849839e+01
9.100000e-07	-3.943225e-06	-7.173176e-10	-2.744269e+01	-4.833054e+01
9.200000e-07	-3.910788e-06	-7.111243e-10	-2.721695e+01	-4.816269e+01
9.300000e-07	-3.877906e-06	-7.141696e-10	-2.698811e+01	-4.799486e+01
9.400000e-07	-3.844525e-06	-7.148699e-10	-2.675579e+01	-4.782705e+01
9.500000e-07	-3.810682e-06	-7.101626e-10	-2.652026e+01	-4.765924e+01
9.600000e-07	-3.776442e-06	-7.075741e-10	-2.628197e+01	-4.749138e+01
9.700000e-07	-3.741871e-06	-7.078858e-10	-2.604137e+01	-4.732340e+01
9.800000e-07	-3.706921e-06	-7.009855e-10	-2.579815e+01	-4.715518e+01
9.900000e-07	-3.671621e-06	-6.962837e-10	-2.555248e+01	-4.698661e+01
1.000000e-06	-3.636096e-06	-7.000601e-10	-2.530524e+01	-4.681753e+01
1.010000e-06	-3.600391e-06	-7.008299e-10	-2.505675e+01	-4.664775e+01
1.020000e-06	-3.564591e-06	-6.955953e-10	-2.480761e+01	-4.647709e+01
1.030000e-06	-3.528633e-06	-6.940963e-10	-2.455736e+01	-4.630530e+01
1.040000e-06	-3.492483e-06	-6.925816e-10	-2.430577e+01	-4.613216e+01
1.050000e-06	-3.456194e-06	-6.856722e-10	-2.405322e+01	-4.595740e+01
1.060000e-06	-3.419682e-06	-6.789596e-10	-2.379912e+01	-4.578074e+01
1.070000e-06	-3.382849e-06	-6.753235e-10	-2.354278e+01	-4.560189e+01
1.080000e-06	-3.345695e-06	-6.730270e-10	-2.328421e+01	-4.542054e+01
1.090000e-06	-3.308278e-06	-6.718950e-10	-2.302381e+01	-4.523640e+01
1.100000e-06	-3.270646e-06	-6.734812e-10	-2.276191e+01	-4.504915e+01
1.110000e-06	-3.232786e-06	-6.714177e-10	-2.249842e+01	-4.485847e+01
1.120000e-06	-3.194726e-06	-6.656697e-10	-2.223354e+01	-4.466405e+01
1.130000e-06	-3.156472e-06	-6.599751e-10	-2.196732e+01	-4.446557e+01
1.140000e-06	-3.117969e-06	-6.565557e-10	-2.169936e+01	-4.426273e+01
1.150000e-06	-3.079268e-06	-6.484218e-10	-2.143002e+01	-4.405523e+01
1.160000e-06	-3.040399e-06	-6.407581e-10	-2.115951e+01	-4.384280e+01
1.170000e-06	-3.001336e-06	-6.384995e-10	-2.088766e+01	-4.362515e+01
1.180000e-06	-2.962081e-06	-6.384848e-10	-2.061447e+01	-4.340204e+01
1.190000e-06	-2.922644e-06	-6.352169e-10	-2.034001e+01	-4.317323e+01
1.200000e-06	-2.883109e-06	-6.332603e-10	-2.006486e+01	-4.293851e+01
1.210000e-06	-2.843450e-06	-6.309529e-10	-1.978886e+01	-4.269768e+01
1.220000e-06	-2.803621e-06	-6.263864e-10	-1.951167e+01	-4.245059e+01
1.230000e-06	-2.763639e-06	-6.211473e-10	-1.923341e+01	-4.219707e+01
1.240000e-06	-2.723476e-06	-6.188623e-10	-1.895390e+01	-4.193701e+01
1.250000e-06	-2.683113e-06	-6.160737e-10	-1.867300e+01	-4.167032e+01
1.260000e-06	-2.642503e-06	-6.115656e-10	-1.839038e+01	-4.139692e+01
1.270000e-06	-2.601711e-06	-6.082966e-10	-1.810648e+01	-4.111677e+01
1.280000e-06	-2.560670e-06	-6.059857e-10	-1.782086e+01	-4.082984e+01
1.290000e-06	-2.519211e-06	-5.997837e-10	-1.753233e+01	-4.053613e+01
1.300000e-06	-2.477411e-06	-5.933954e-10	-1.724142e+01	-4.023566e+01
1.310000e-06	-2.435356e-06	-5.905035e-10	-1.694875e+01	-3.992846e+01
1.320000e-06	-2.393101e-06	-5.886870e-10	-1.665467e+01	-3.961458e+01
1.330000e-06	-2.350697e-06	-5.845059e-10	-1.635957e+01	-3.929410e+01
1.340000e-06	-2.308029e-06	-5.832878e-10	-1.606262e+01	-3.896708e+01
1.350000e-06	-2.265084e-06	-5.816000e-10	-1.576375e+01	-3.863362e+01
1.360000e-06	-2.221930e-06	-5.741208e-10	-1.546342e+01	-3.829379e+01
1.370000e-06	-2.178583e-06	-5.665489e-10	-1.516175e+01	-3.794768e+01
1.380000e-06	-2.135094e-06	-5.609808e-10	-1.485908e+01	-3.759539e+01
1.390000e-06	-2.091480e-06	-5.569027e-10	-1.455556e+01	-3.723698e+01
1.400000e-06	-2.047739e-06	-5.535588e-10	-1.425114e+01	-3.687253e+01
1.410000e-06	-2.003879e-06	-5.485979e-10	-1.394590e+01	-3.650210e+01
1.420000e-06	-1.959943e-06	-5.405294e-10	-1.364013e+01	-3.612571e+01
1.430000e-06	-1.915955e-06	-5.328050e-10	-1.333400e+01	-3.574339e+01
1.440000e-06	-1.871842e-06	-5.257711e-10	-1.302699e+01	-3.535512e+01
1.450000e-06	-1.827672e-06	-5.195107e-10	-1.271960e+01	-3.496088e+01
1.460000e-06	-1.783409e-06	-5.106623e-10	-1.241155e+01	-3.456060e+01
1.470000e-06	-1.738977e-06	-5.010929e-10	-1.210233e+01	-3.415417e+01
1.480000e-06	-1.694430e-06	-4.918406e-10	-1.179231e+01	-3.374147e+01
1.490000e-06	-1.649718e-06	-4.829747e-10	-1.148113e+01	-3.332233e+01
1.500000e-06	-1.604945e-06	-4.749653e-10	-1.116954e+01	-3.289654e+01
1.510000e-06	-1.560204e-06	-4.689411e-10	-1.085816e+01	-3.246384e+01
1.520000e-06	-1.515322e-06	-4.634953e-10	-1.054581e+01	-3.202396e+01
1.530000e-06	-1.470170e-06	-4.585910e-10	-1.023158e+01	-3.157656e+01
1.540000e-06	-1.424898e-06	-4.508569e-10	-9.916514e+00	-3.112128e+01
1.550000e-06	-1.379523e-06	-4.419094e-10	-9.600723e+00	-3.065771e+01
1.560000e-06	-1.334090e-06	-4.325919e-10	-9.284540e+00	-3.018541e+01
1.570000e-06	-1.288600e-06	-4.217772e-10	-8.967954e+00	-2.970390e+01
1.580000e-06	-1.242938e-06	-4.123527e-10	-8.650168e+00	-2.921267e+01
1.590000e-06	-1.197214e-06	-4.053262e-10	-8.331955e+00	-2.871118e+01
1.600000e-06	-1.151399e-06	-3.982903e-10	-8.013106e+00	-2.819887e+01
1.610000e-06	-1.105506e-06	-3.920844e-10	-7.693717e+00	-2.767514e+01
1.620000e-06	-1.059666e-06	-3.841102e-10	-7.374697e+00	-2.713939e+01
1.630000e-06	-1.013800e-06	-3.740782e-10	-7.055494e+00	-2.659101e+01
1.640000e-06	-9.677031e-07	-3.603139e-10	-6.734685e+00	-2.602936e+01
1.650000e-06	-9.214355e-07	-3.436422e-10	-6.412687e+00	-2.545382e+01
1.660000e-06	-8.752144e-07	-3.298663e-10	-6.091014e+00	-2.486376e+01
1.670000e-06	-8.290313e-07	-3.184405e-10	-5.769605e+00	-2.425858e+01
1.680000e-06	-7.827605e-07	-3.118122e-10	-5.447585e+00	-2.363766e+01
1.690000e-06	-7.363655e-07	-3.071400e-10	-5.124701e+00	-2.300044e+01
1.700000e-06	-6.898926e-07	-3.034462e-10	-4.801275e+00	-2.234638e+01
1.710000e-06	-6.434392e-07	-2.946225e-10	-4.477985e+00	-2.167494e+01
1.720000e-06	-5.970568e-07	-2.816934e-10	-4.155189e+00	-2.098568e+01
1.730000e-06	-5.505887e-07	-2.679392e-10	-3.831796e+00	-2.027816e+01
1.740000e-06	-5.040091e-07	-2.536447e-10	-3.507627e+00	-1.955202e+01
1.750000e-06	-4.573988e-07	-2.409118e-10	-3.183246e+00	-1.880694e+01
1.760000e-06	-4.107195e-07	-2.320613e-10	-2.858383e+00	-1.804268e+01
1.770000e-06	-3.639978e-07	-2.233372e-10	-2.533226e+00	-1.725907e+01
1.780000e-06	-3.173079e-07	-2.141469e-10	-2.208290e+00	-1.645601e+01
1.790000e-06	-2.706138e-07	-2.028403e-10	-1.883324e+00	-1.563348e+01
1.800000e-06	-2.238808e-07	-1.865254e-10	-1.558088e+00	-1.479153e+01
1.810000e-06	-1.771096e-07	-1.679333e-10	-1.232586e+00	-1.393031e+01
1.820000e-06	-1.302590e-07	-1.513106e-10	-9.065316e-01	-1.305006e+01
1.830000e-06	-8.344905e-08	-1.385860e-10	-5.807597e-01	-1.215110e+01
1.840000e-06	-3.669980e-08	-1.268536e-10	-2.554105e-01	-1.123384e+01
1.850000e-06	1.006767e-08	-1.147265e-10	7.006548e-02	-1.029879e+01
1.860000e-06	5.678333e-08	-1.039415e-10	3.951809e-01	-9.346546e+00
1.870000e-06	1.034929e-07	-9.146179e-11	7.202542e-01	-8.377786e+00
1.880000e-06	1.502732e-07	-7.802115e-11	1.045819e+00	-7.393287e+00
1.890000e-06	1.969942e-07	-6.506589e-11	1.370972e+00	-6.393906e+00
1.900000e-06	2.437142e-07	-5.123908e-11	1.696118e+00	-5.380585e+00
1.910000e-06	2.904544e-07	-3.747130e-11	2.021404e+00	-4.354343e+00
1.920000e-06	3.371037e-07	-2.070680e-11	2.346057e+00	-3.316272e+00
1.930000e-06	3.837288e-07	-6.430548e-12	2.670543e+00	-2.267534e+00
1.940000e-06	4.304365e-07	6.606553e-12	2.995603e+00	-1.209354e+00
1.950000e-06	4.770647e-07	1.859511e-11	3.320110e+00	-1.430143e-01
1.960000e-06	5.235539e-07	2.993579e-11	3.643649e+00	9.301533e-01
1.970000e-06	5.700567e-07	4.271786e-11	3.967283e+00	2.008774e+00
1.980000e-06	6.164214e-07	5.912096e-11	4.289956e+00	3.091436e+00
1.990000e-06	6.627347e-07	7.643966e-11	4.612271e+00	4.176703e+00
2.000000e-06	7.090931e-07	9.261976e-11	4.934900e+00	5.263117e+00
2.010000e-06	7.554078e-07	1.079459e-10	5.257226e+00	6.349209e+00
2.020000e-06	8.016149e-07	1.223830e-10	5.578802e+00	7.433507e+00
2.030000e-06	8.477338e-07	1.340513e-10	5.899764e+00	8.514547e+00
2.040000e-06	8.938188e-07	1.459043e-10	6.220490e+00	9.590876e+00
2.050000e-06	9.398303e-07	1.600827e-10	6.540705e+00	1.066107e+01
2.060000e-06	9.858475e-07	1.761395e-10	6.860960e+00	1.172372e+01
2.070000e-06	1.031869e-06	1.940573e-10	7.181244e+00	1.277748e+01
2.080000e-06	1.077778e-06	2.131611e-10	7.500748e+00	1.382102e+01
2.090000e-06	1.123585e-06	2.293969e-10	7.819540e+00	1.485310e+01
2.100000e-06	1.169361e-06	2.414973e-10	8.138115e+00	1.587251e+01
2.110000e-06	1.215046e-06	2.525277e-10	8.456057e+00	1.687811e+01
2.120000e-06	1.260553e-06	2.639927e-10	8.772761e+00	1.786886e+01
2.130000e-06	1.306012e-06	2.766968e-10	9.089132e+00	1.884376e+01
2.140000e-06	1.351535e-06	2.909071e-10	9.405946e+00	1.980191e+01
2.150000e-06	1.396983e-06	3.057097e-10	9.722236e+00	2.074251e+01
2.160000e-06	1.442310e-06	3.193522e-10	1.003769e+01	2.166482e+01
2.170000e-06	1.487443e-06	3.322067e-10	1.035179e+01	2.256822e+01
2.180000e-06	1.532411e-06	3.449553e-10	1.066474e+01	2.345216e+01
2.190000e-06	1.577307e-06	3.585145e-10	1.097719e+01	2.431621e+01
2.200000e-06	1.622013e-06	3.687975e-10	1.128832e+01	2.516000e+01
2.210000e-06	1.666482e-06	3.790358e-10	1.159780e+01	2.598330e+01
2.220000e-06	1.710764e-06	3.901232e-10	1.190598e+01	2.678593e+01
2.230000e-06	1.754959e-06	4.015632e-10	1.221355e+01	2.756783e+01
2.240000e-06	1.799064e-06	4.096245e-10	1.252051e+01	2.832902e+01
2.250000e-06	1.843112e-06	4.160302e-10	1.282705e+01	2.906960e+01
2.260000e-06	1.887103e-06	4.249568e-10	1.313321e+01	2.978977e+01
2.270000e-06	1.930979e-06	4.366729e-10	1.343856e+01	3.048978e+01
2.280000e-06	1.974796e-06	4.504225e-10	1.374350e+01	3.116999e+01
2.290000e-06	2.018610e-06	4.625706e-10	1.404842e+01	3.183079e+01
2.300000e-06	2.062359e-06	4.712208e-10	1.435289e+01	3.247266e+01
2.310000e-06	2.105980e-06	4.772532e-10	1.465647e+01	3.309611e+01
2.320000e-06	2.149505e-06	4.814035e-10	1.495938e+01	3.370173e+01
2.330000e-06	2.192995e-06	4.862178e-10	1.526205e+01	3.429013e+01
2.340000e-06	2.236391e-06	4.944837e-10	1.556406e+01	3.486197e+01
2.350000e-06	2.279506e-06	5.055368e-10	1.586412e+01	3.541792e+01
2.360000e-06	2.322396e-06	5.153872e-10	1.616261e+01	3.595869e+01
2.370000e-06	2.365119e-06	5.222688e-10	1.645994e+01	3.648500e+01
2.380000e-06	2.407498e-06	5.278103e-10	1.675487e+01	3.699758e+01
2.390000e-06	2.449551e-06	5.337524e-10	1.704754e+01	3.749716e+01
2.400000e-06	2.491341e-06	5.407799e-10	1.733837e+01	3.798446e+01
2.410000e-06	2.532840e-06	5.494895e-10	1.762718e+01	3.846020e+01
2.420000e-06	2.574119e-06	5.608264e-10	1.791446e+01	3.892506e+01
2.430000e-06	2.615196e-06	5.702333e-10	1.820034e+01	3.937974e+01
2.440000e-06	2.655963e-06	5.759529e-10	1.848405e+01	3.982487e+01
2.450000e-06	2.696457e-06	5.804423e-10	1.876586e+01	4.026107e+01
2.460000e-06	2.736712e-06	5.864353e-10	1.904602e+01	4.068892e+01
2.470000e-06	2.776731e-06	5.926946e-10	1.932453e+01	4.110895e+01
2.480000e-06	2.816561e-06	6.005585e-10	1.960172e+01	4.152167e+01
2.490000e-06	2.856234e-06	6.096851e-10	1.987783e+01	4.192753e+01
2.500000e-06	2.895859e-06	6.169770e-10	2.015360e+01	4.232692e+01
2.510000e-06	2.935304e-06	6.220628e-10	2.042811e+01	4.272021e+01
2.520000e-06	2.974543e-06	6.239716e-10	2.070119e+01	4.310769e+01
2.530000e-06	3.013706e-06	6.250842e-10	2.097375e+01	4.348962e+01
2.540000e-06	3.052684e-06	6.280859e-10	2.124501e+01	4.386620e+01
2.550000e-06	3.091421e-06	6.334580e-10	2.151460e+01	4.423760e+01
2.560000e-06	3.129918e-06	6.392248e-10	2.178252e+01	4.460390e+01
2.570000e-06	3.168223e-06	6.448034e-10	2.204910e+01	4.496519e+01
2.580000e-06	3.206335e-06	6.491294e-10	2.231434e+01	4.532147e+01
2.590000e-06	3.244241e-06	6.504856e-10	2.257814e+01	4.567272e+01
2.600000e-06	3.281987e-06	6.524244e-10	2.284083e+01	4.601887e+01
2.610000e-06	3.319521e-06	6.571513e-10	2.310205e+01	4.635984e+01
2.620000e-06	3.356835e-06	6.642044e-10	2.336173e+01	4.669548e+01
2.630000e-06	3.393850e-06	6.713910e-10	2.361934e+01	4.702565e+01
2.640000e-06	3.430485e-06	6.757476e-10	2.387430e+01	4.735017e+01
2.650000e-06	3.466857e-06	6.780304e-10	2.412743e+01	4.766882e+01
2.660000e-06	3.503040e-06	6.810165e-10	2.437924e+01	4.798141e+01
2.670000e-06	3.539042e-06	6.835862e-10	2.462980e+01	4.828770e+01
2.680000e-06	3.574876e-06	6.847218e-10	2.487919e+01	4.858746e+01
2.690000e-06	3.610578e-06	6.878685e-10	2.512765e+01	4.888047e+01
2.700000e-06	3.646176e-06	6.941796e-10	2.537539e+01	4.916648e+01
2.710000e-06	3.681572e-06	7.001070e-10	2.562173e+01	4.944527e+01
2.720000e-06	3.716767e-06	7.042681e-10	2.586667e+01	4.971662e+01
2.730000e-06	3.751731e-06	7.078802e-10	2.611000e+01	4.998033e+01
2.740000e-06	3.786241e-06	7.107117e-10	2.635017e+01	5.023622e+01
2.750000e-06	3.820176e-06	7.123171e-10	2.658633e+01	5.048412e+01
2.760000e-06	3.853584e-06	7.150709e-10	2.681884e+01	5.072388e+01
2.770000e-06	3.886589e-06	7.197344e-10	2.704853e+01	5.095538e+01
2.780000e-06	3.919240e-06	7.254392e-10	2.727577e+01	5.117854e+01
2.790000e-06	3.951558e-06	7.319837e-10	2.750069e+01	5.139328e+01
2.800000e-06	3.983660e-06	7.381007e-10	2.772409e+01	5.159958e+01
2.810000e-06	4.015574e-06	7.426422e-10	2.794620e+01	5.179743e+01
2.820000e-06	4.047333e-06	7.450597e-10	2.816723e+01	5.198686e+01
2.830000e-06	4.078927e-06	7.459661e-10	2.838710e+01	5.216793e+01
2.840000e-06	4.110217e-06	7.460658e-10	2.860486e+01	5.234073e+01
2.850000e-06	4.141214e-06	7.463498e-10	2.882059e+01	5.250538e+01
2.860000e-06	4.171961e-06	7.493529e-10	2.903457e+01	5.266204e+01
2.870000e-06	4.202369e-06	7.537677e-10	2.924619e+01	5.281088e+01
2.880000e-06	4.232457e-06	7.582851e-10	2.945559e+01	5.295212e+01
2.890000e-06	4.262328e-06	7.652502e-10	2.966348e+01	5.308599e+01
2.900000e-06	4.291980e-06	7.714031e-10	2.986983e+01	5.321274e+01
