# Temperatura_=_-0.24
# Concentracion g/m^3_=_1620.0
# C_Vs_to_Am_M_A/Vsm_=_65563218390.804596
# pendiente_HvsI_1/m_=_3716.3
# ordenada_HvsI_A/m_=_1297.0
# frecuencia_Hz_=_135108.90624294893

Tiempo_(s)	Campo_(V.s)	Magnetizacion_(V.s)	Campo_(kA/m)	Magnetizacion_(A/m)
0.000000e+00	-5.522241e-06	-1.058030e-09	-3.836347e+01	-6.978562e+01
1.000000e-08	-5.522398e-06	-1.051523e-09	-3.836456e+01	-6.978635e+01
2.000000e-08	-5.522252e-06	-1.048743e-09	-3.836354e+01	-6.978656e+01
3.000000e-08	-5.521772e-06	-1.049701e-09	-3.836021e+01	-6.978618e+01
4.000000e-08	-5.520851e-06	-1.051132e-09	-3.835381e+01	-6.978514e+01
5.000000e-08	-5.519387e-06	-1.052796e-09	-3.834364e+01	-6.978333e+01
6.000000e-08	-5.517234e-06	-1.047635e-09	-3.832869e+01	-6.978067e+01
7.000000e-08	-5.514420e-06	-1.042173e-09	-3.830914e+01	-6.977705e+01
8.000000e-08	-5.511212e-06	-1.053067e-09	-3.828685e+01	-6.977236e+01
9.000000e-08	-5.507590e-06	-1.047415e-09	-3.826169e+01	-6.976648e+01
1.000000e-07	-5.503497e-06	-1.037615e-09	-3.823326e+01	-6.975929e+01
1.100000e-07	-5.499112e-06	-1.074002e-09	-3.820279e+01	-6.975068e+01
1.200000e-07	-5.494533e-06	-1.034695e-09	-3.817098e+01	-6.974050e+01
1.300000e-07	-5.489691e-06	-9.892331e-10	-3.813734e+01	-6.972866e+01
1.400000e-07	-5.484528e-06	-1.000466e-09	-3.810148e+01	-6.971501e+01
1.500000e-07	-5.478976e-06	-1.050838e-09	-3.806290e+01	-6.969945e+01
1.600000e-07	-5.472983e-06	-1.080110e-09	-3.802127e+01	-6.968186e+01
1.700000e-07	-5.466515e-06	-9.863525e-10	-3.797634e+01	-6.966213e+01
1.800000e-07	-5.459636e-06	-1.022554e-09	-3.792855e+01	-6.964015e+01
1.900000e-07	-5.452385e-06	-1.048899e-09	-3.787818e+01	-6.961582e+01
2.000000e-07	-5.444816e-06	-1.082006e-09	-3.782559e+01	-6.958906e+01
2.100000e-07	-5.437060e-06	-1.023944e-09	-3.777171e+01	-6.955978e+01
2.200000e-07	-5.429128e-06	-1.063063e-09	-3.771661e+01	-6.952790e+01
2.300000e-07	-5.420793e-06	-1.079899e-09	-3.765870e+01	-6.949335e+01
2.400000e-07	-5.412016e-06	-1.089192e-09	-3.759773e+01	-6.945607e+01
2.500000e-07	-5.402682e-06	-1.054296e-09	-3.753288e+01	-6.941601e+01
2.600000e-07	-5.392587e-06	-1.059163e-09	-3.746275e+01	-6.937313e+01
2.700000e-07	-5.381816e-06	-1.080705e-09	-3.738792e+01	-6.932739e+01
2.800000e-07	-5.370611e-06	-1.095225e-09	-3.731008e+01	-6.927875e+01
2.900000e-07	-5.359047e-06	-1.092757e-09	-3.722975e+01	-6.922720e+01
3.000000e-07	-5.347073e-06	-1.070548e-09	-3.714656e+01	-6.917271e+01
3.100000e-07	-5.334726e-06	-1.089696e-09	-3.706079e+01	-6.911529e+01
3.200000e-07	-5.322017e-06	-1.082253e-09	-3.697250e+01	-6.905491e+01
3.300000e-07	-5.308913e-06	-1.086380e-09	-3.688146e+01	-6.899159e+01
3.400000e-07	-5.295346e-06	-1.039637e-09	-3.678721e+01	-6.892532e+01
3.500000e-07	-5.281406e-06	-1.078745e-09	-3.669037e+01	-6.885611e+01
3.600000e-07	-5.267129e-06	-1.083598e-09	-3.659119e+01	-6.878396e+01
3.700000e-07	-5.252180e-06	-1.078049e-09	-3.648733e+01	-6.870889e+01
3.800000e-07	-5.236579e-06	-1.052535e-09	-3.637895e+01	-6.863090e+01
3.900000e-07	-5.220640e-06	-1.106429e-09	-3.626822e+01	-6.855001e+01
4.000000e-07	-5.204272e-06	-1.066885e-09	-3.615451e+01	-6.846622e+01
4.100000e-07	-5.187510e-06	-1.034947e-09	-3.603806e+01	-6.837955e+01
4.200000e-07	-5.170483e-06	-1.068567e-09	-3.591978e+01	-6.829000e+01
4.300000e-07	-5.153216e-06	-1.099557e-09	-3.579982e+01	-6.819757e+01
4.400000e-07	-5.135599e-06	-1.008599e-09	-3.567744e+01	-6.810227e+01
4.500000e-07	-5.117640e-06	-1.026957e-09	-3.555267e+01	-6.800411e+01
4.600000e-07	-5.099329e-06	-1.089623e-09	-3.542546e+01	-6.790307e+01
4.700000e-07	-5.080550e-06	-1.041631e-09	-3.529501e+01	-6.779917e+01
4.800000e-07	-5.061306e-06	-9.960329e-10	-3.516132e+01	-6.769238e+01
4.900000e-07	-5.041832e-06	-1.090869e-09	-3.502603e+01	-6.758271e+01
5.000000e-07	-5.022200e-06	-1.075683e-09	-3.488964e+01	-6.747015e+01
5.100000e-07	-5.002248e-06	-9.878350e-10	-3.475103e+01	-6.735469e+01
5.200000e-07	-4.981983e-06	-1.035961e-09	-3.461025e+01	-6.723633e+01
5.300000e-07	-4.961306e-06	-1.073807e-09	-3.446661e+01	-6.711504e+01
5.400000e-07	-4.940182e-06	-9.852286e-10	-3.431986e+01	-6.699083e+01
5.500000e-07	-4.918718e-06	-1.003877e-09	-3.417074e+01	-6.686369e+01
5.600000e-07	-4.896979e-06	-1.088372e-09	-3.401972e+01	-6.673361e+01
5.700000e-07	-4.874904e-06	-1.024942e-09	-3.386637e+01	-6.660060e+01
5.800000e-07	-4.852452e-06	-9.902180e-10	-3.371039e+01	-6.646467e+01
5.900000e-07	-4.829662e-06	-1.057679e-09	-3.355207e+01	-6.632581e+01
6.000000e-07	-4.806577e-06	-1.031656e-09	-3.339169e+01	-6.618405e+01
6.100000e-07	-4.783247e-06	-9.617155e-10	-3.322962e+01	-6.603941e+01
6.200000e-07	-4.759712e-06	-1.016534e-09	-3.306612e+01	-6.589192e+01
6.300000e-07	-4.735997e-06	-1.020737e-09	-3.290137e+01	-6.574161e+01
6.400000e-07	-4.712035e-06	-9.718100e-10	-3.273490e+01	-6.558853e+01
6.500000e-07	-4.687688e-06	-9.991703e-10	-3.256576e+01	-6.543274e+01
6.600000e-07	-4.662954e-06	-1.037165e-09	-3.239393e+01	-6.527430e+01
6.700000e-07	-4.637671e-06	-9.824142e-10	-3.221829e+01	-6.511328e+01
6.800000e-07	-4.611760e-06	-9.879737e-10	-3.203829e+01	-6.494977e+01
6.900000e-07	-4.585310e-06	-1.009197e-09	-3.185453e+01	-6.478385e+01
7.000000e-07	-4.558368e-06	-9.781456e-10	-3.166736e+01	-6.461563e+01
7.100000e-07	-4.531058e-06	-9.580801e-10	-3.147764e+01	-6.444522e+01
7.200000e-07	-4.503494e-06	-9.939049e-10	-3.128615e+01	-6.427274e+01
7.300000e-07	-4.475816e-06	-9.748250e-10	-3.109387e+01	-6.409830e+01
7.400000e-07	-4.448006e-06	-9.623304e-10	-3.090067e+01	-6.392204e+01
7.500000e-07	-4.419947e-06	-9.827152e-10	-3.070574e+01	-6.374410e+01
7.600000e-07	-4.391535e-06	-9.832004e-10	-3.050836e+01	-6.356461e+01
7.700000e-07	-4.362774e-06	-9.596987e-10	-3.030855e+01	-6.338371e+01
7.800000e-07	-4.333684e-06	-9.746651e-10	-3.010647e+01	-6.320156e+01
7.900000e-07	-4.304285e-06	-9.730177e-10	-2.990223e+01	-6.301829e+01
8.000000e-07	-4.274657e-06	-9.502179e-10	-2.969640e+01	-6.283403e+01
8.100000e-07	-4.244837e-06	-9.543677e-10	-2.948924e+01	-6.264893e+01
8.200000e-07	-4.214779e-06	-9.678027e-10	-2.928042e+01	-6.246312e+01
8.300000e-07	-4.184302e-06	-9.521398e-10	-2.906870e+01	-6.227672e+01
8.400000e-07	-4.153425e-06	-9.491158e-10	-2.885419e+01	-6.208983e+01
8.500000e-07	-4.122364e-06	-9.649519e-10	-2.863841e+01	-6.190255e+01
8.600000e-07	-4.091124e-06	-9.525627e-10	-2.842138e+01	-6.171498e+01
8.700000e-07	-4.059614e-06	-9.374220e-10	-2.820248e+01	-6.152718e+01
8.800000e-07	-4.027911e-06	-9.430297e-10	-2.798223e+01	-6.133920e+01
8.900000e-07	-3.996090e-06	-9.423609e-10	-2.776117e+01	-6.115107e+01
9.000000e-07	-3.964017e-06	-9.243387e-10	-2.753836e+01	-6.096281e+01
9.100000e-07	-3.931641e-06	-9.317657e-10	-2.731344e+01	-6.077441e+01
9.200000e-07	-3.898894e-06	-9.353594e-10	-2.708594e+01	-6.058583e+01
9.300000e-07	-3.865718e-06	-9.233599e-10	-2.685547e+01	-6.039701e+01
9.400000e-07	-3.832154e-06	-9.165920e-10	-2.662229e+01	-6.020788e+01
9.500000e-07	-3.798126e-06	-9.278354e-10	-2.638590e+01	-6.001831e+01
9.600000e-07	-3.763565e-06	-9.179489e-10	-2.614580e+01	-5.982819e+01
9.700000e-07	-3.728524e-06	-9.134836e-10	-2.590237e+01	-5.963733e+01
9.800000e-07	-3.693187e-06	-9.194976e-10	-2.565688e+01	-5.944557e+01
9.900000e-07	-3.657649e-06	-9.190629e-10	-2.541000e+01	-5.925268e+01
1.000000e-06	-3.621941e-06	-9.042540e-10	-2.516193e+01	-5.905842e+01
1.010000e-06	-3.586170e-06	-9.066921e-10	-2.491342e+01	-5.886254e+01
1.020000e-06	-3.550328e-06	-9.045814e-10	-2.466442e+01	-5.866475e+01
1.030000e-06	-3.514301e-06	-8.938141e-10	-2.441414e+01	-5.846474e+01
1.040000e-06	-3.478042e-06	-8.870320e-10	-2.416225e+01	-5.826219e+01
1.050000e-06	-3.441428e-06	-8.882588e-10	-2.390789e+01	-5.805675e+01
1.060000e-06	-3.404544e-06	-8.774814e-10	-2.365165e+01	-5.784806e+01
1.070000e-06	-3.367541e-06	-8.716978e-10	-2.339459e+01	-5.763576e+01
1.080000e-06	-3.330293e-06	-8.735911e-10	-2.313582e+01	-5.741947e+01
1.090000e-06	-3.292734e-06	-8.706646e-10	-2.287490e+01	-5.719878e+01
1.100000e-06	-3.254931e-06	-8.607451e-10	-2.261228e+01	-5.697331e+01
1.110000e-06	-3.216899e-06	-8.548932e-10	-2.234806e+01	-5.674266e+01
1.120000e-06	-3.178633e-06	-8.468157e-10	-2.208223e+01	-5.650644e+01
1.130000e-06	-3.140131e-06	-8.352401e-10	-2.181475e+01	-5.626425e+01
1.140000e-06	-3.101450e-06	-8.308443e-10	-2.154603e+01	-5.601571e+01
1.150000e-06	-3.062638e-06	-8.272843e-10	-2.127640e+01	-5.576045e+01
1.160000e-06	-3.023599e-06	-8.211643e-10	-2.100519e+01	-5.549809e+01
1.170000e-06	-2.984404e-06	-8.177922e-10	-2.073290e+01	-5.522831e+01
1.180000e-06	-2.945042e-06	-8.198509e-10	-2.045945e+01	-5.495075e+01
1.190000e-06	-2.905481e-06	-8.147909e-10	-2.018462e+01	-5.466513e+01
1.200000e-06	-2.865802e-06	-8.080544e-10	-1.990897e+01	-5.437115e+01
1.210000e-06	-2.826009e-06	-8.004099e-10	-1.963252e+01	-5.406855e+01
1.220000e-06	-2.786113e-06	-7.918882e-10	-1.935536e+01	-5.375710e+01
1.230000e-06	-2.746052e-06	-7.813695e-10	-1.907705e+01	-5.343659e+01
1.240000e-06	-2.705773e-06	-7.785899e-10	-1.879723e+01	-5.310684e+01
1.250000e-06	-2.665284e-06	-7.743618e-10	-1.851595e+01	-5.276770e+01
1.260000e-06	-2.624519e-06	-7.732581e-10	-1.823275e+01	-5.241906e+01
1.270000e-06	-2.583548e-06	-7.710939e-10	-1.794812e+01	-5.206081e+01
1.280000e-06	-2.542302e-06	-7.708452e-10	-1.766158e+01	-5.169292e+01
1.290000e-06	-2.500671e-06	-7.638487e-10	-1.737237e+01	-5.131533e+01
1.300000e-06	-2.458692e-06	-7.532723e-10	-1.708074e+01	-5.092806e+01
1.310000e-06	-2.416428e-06	-7.441369e-10	-1.678713e+01	-5.053111e+01
1.320000e-06	-2.373961e-06	-7.361699e-10	-1.649211e+01	-5.012455e+01
1.330000e-06	-2.331178e-06	-7.300096e-10	-1.619489e+01	-4.970844e+01
1.340000e-06	-2.288085e-06	-7.270724e-10	-1.589552e+01	-4.928287e+01
1.350000e-06	-2.244790e-06	-7.239730e-10	-1.559474e+01	-4.884795e+01
1.360000e-06	-2.201414e-06	-7.194233e-10	-1.529341e+01	-4.840379e+01
1.370000e-06	-2.157975e-06	-7.138965e-10	-1.499163e+01	-4.795054e+01
1.380000e-06	-2.114403e-06	-7.105082e-10	-1.468893e+01	-4.748834e+01
1.390000e-06	-2.070738e-06	-7.027357e-10	-1.438559e+01	-4.701732e+01
1.400000e-06	-2.027014e-06	-6.932497e-10	-1.408184e+01	-4.653763e+01
1.410000e-06	-1.983216e-06	-6.840514e-10	-1.377757e+01	-4.604942e+01
1.420000e-06	-1.939354e-06	-6.723116e-10	-1.347285e+01	-4.555281e+01
1.430000e-06	-1.895399e-06	-6.635536e-10	-1.316749e+01	-4.504794e+01
1.440000e-06	-1.851319e-06	-6.578020e-10	-1.286127e+01	-4.453490e+01
1.450000e-06	-1.807155e-06	-6.517672e-10	-1.255446e+01	-4.401380e+01
1.460000e-06	-1.762882e-06	-6.429638e-10	-1.224689e+01	-4.348469e+01
1.470000e-06	-1.718428e-06	-6.337375e-10	-1.193806e+01	-4.294762e+01
1.480000e-06	-1.673786e-06	-6.232436e-10	-1.162793e+01	-4.240260e+01
1.490000e-06	-1.629052e-06	-6.117735e-10	-1.131716e+01	-4.184962e+01
1.500000e-06	-1.584225e-06	-6.003654e-10	-1.100574e+01	-4.128862e+01
1.510000e-06	-1.539224e-06	-5.909656e-10	-1.069311e+01	-4.071952e+01
1.520000e-06	-1.494066e-06	-5.807279e-10	-1.037940e+01	-4.014220e+01
1.530000e-06	-1.448794e-06	-5.712460e-10	-1.006489e+01	-3.955649e+01
1.540000e-06	-1.403427e-06	-5.633641e-10	-9.749725e+00	-3.896218e+01
1.550000e-06	-1.358010e-06	-5.558025e-10	-9.434209e+00	-3.835904e+01
1.560000e-06	-1.312583e-06	-5.467509e-10	-9.118623e+00	-3.774679e+01
1.570000e-06	-1.267064e-06	-5.378469e-10	-8.802403e+00	-3.712510e+01
1.580000e-06	-1.221398e-06	-5.290532e-10	-8.485156e+00	-3.649362e+01
1.590000e-06	-1.175640e-06	-5.186545e-10	-8.167271e+00	-3.585195e+01
1.600000e-06	-1.129788e-06	-5.055692e-10	-7.848728e+00	-3.519965e+01
1.610000e-06	-1.083860e-06	-4.928312e-10	-7.529663e+00	-3.453627e+01
1.620000e-06	-1.037863e-06	-4.793512e-10	-7.210121e+00	-3.386132e+01
1.630000e-06	-9.917588e-07	-4.660654e-10	-6.889831e+00	-3.317429e+01
1.640000e-06	-9.456630e-07	-4.509905e-10	-6.569600e+00	-3.247464e+01
1.650000e-06	-8.995119e-07	-4.347697e-10	-6.248985e+00	-3.176183e+01
1.660000e-06	-8.532032e-07	-4.211686e-10	-5.927274e+00	-3.103528e+01
1.670000e-06	-8.068284e-07	-4.116960e-10	-5.605104e+00	-3.029444e+01
1.680000e-06	-7.604573e-07	-4.029786e-10	-5.282960e+00	-2.953874e+01
1.690000e-06	-7.141447e-07	-3.943272e-10	-4.961223e+00	-2.876762e+01
1.700000e-06	-6.676844e-07	-3.839822e-10	-4.638459e+00	-2.798052e+01
1.710000e-06	-6.210494e-07	-3.705071e-10	-4.314482e+00	-2.717693e+01
1.720000e-06	-5.744549e-07	-3.554556e-10	-3.990786e+00	-2.635632e+01
1.730000e-06	-5.278322e-07	-3.418452e-10	-3.666895e+00	-2.551823e+01
1.740000e-06	-4.811491e-07	-3.279787e-10	-3.342583e+00	-2.466221e+01
1.750000e-06	-4.345127e-07	-3.139056e-10	-3.018596e+00	-2.378786e+01
1.760000e-06	-3.878457e-07	-3.007988e-10	-2.694396e+00	-2.289484e+01
1.770000e-06	-3.411092e-07	-2.865552e-10	-2.369714e+00	-2.198284e+01
1.780000e-06	-2.943091e-07	-2.732847e-10	-2.044590e+00	-2.105164e+01
1.790000e-06	-2.474546e-07	-2.606061e-10	-1.719087e+00	-2.010106e+01
1.800000e-06	-2.006379e-07	-2.468618e-10	-1.393849e+00	-1.913100e+01
1.810000e-06	-1.537551e-07	-2.307940e-10	-1.068149e+00	-1.814142e+01
1.820000e-06	-1.068075e-07	-2.144095e-10	-7.420003e-01	-1.713239e+01
1.830000e-06	-5.992808e-08	-1.977798e-10	-4.163253e-01	-1.610403e+01
1.840000e-06	-1.310242e-08	-1.811139e-10	-9.102361e-02	-1.505655e+01
1.850000e-06	3.368124e-08	-1.668234e-10	2.339864e-01	-1.399026e+01
1.860000e-06	8.049164e-08	-1.556859e-10	5.591821e-01	-1.290553e+01
1.870000e-06	1.272985e-07	-1.432115e-10	8.843531e-01	-1.180285e+01
1.880000e-06	1.740727e-07	-1.287978e-10	1.209298e+00	-1.068277e+01
1.890000e-06	2.208582e-07	-1.123161e-10	1.534320e+00	-9.545941e+00
1.900000e-06	2.676548e-07	-9.542324e-11	1.859420e+00	-8.393102e+00
1.910000e-06	3.145064e-07	-7.792015e-11	2.184902e+00	-7.225071e+00
1.920000e-06	3.613552e-07	-6.020898e-11	2.510365e+00	-6.042747e+00
1.930000e-06	4.081015e-07	-4.390076e-11	2.835115e+00	-4.847109e+00
1.940000e-06	4.547906e-07	-3.055972e-11	3.159468e+00	-3.639210e+00
1.950000e-06	5.014321e-07	-1.779361e-11	3.483491e+00	-2.420173e+00
1.960000e-06	5.480043e-07	-3.990760e-12	3.807032e+00	-1.191186e+00
1.970000e-06	5.945738e-07	1.189606e-11	4.130554e+00	4.650680e-02
1.980000e-06	6.411134e-07	2.976295e-11	4.453868e+00	1.291605e+00
1.990000e-06	6.875448e-07	4.934609e-11	4.776431e+00	2.542765e+00
2.000000e-06	7.339090e-07	7.000648e-11	5.098527e+00	3.798601e+00
2.010000e-06	7.802704e-07	8.817606e-11	5.420604e+00	5.057699e+00
2.020000e-06	8.265524e-07	1.047722e-10	5.742129e+00	6.318618e+00
2.030000e-06	8.727327e-07	1.220888e-10	6.062947e+00	7.579901e+00
2.040000e-06	9.188107e-07	1.421786e-10	6.383055e+00	8.840084e+00
2.050000e-06	9.648890e-07	1.613056e-10	6.703165e+00	1.009770e+01
2.060000e-06	1.010965e-06	1.788402e-10	7.023259e+00	1.135130e+01
2.070000e-06	1.056908e-06	1.954301e-10	7.342428e+00	1.259943e+01
2.080000e-06	1.102787e-06	2.119454e-10	7.661153e+00	1.384067e+01
2.090000e-06	1.148646e-06	2.290523e-10	7.979741e+00	1.507365e+01
2.100000e-06	1.194404e-06	2.471949e-10	8.297624e+00	1.629701e+01
2.110000e-06	1.240018e-06	2.657175e-10	8.614512e+00	1.750945e+01
2.120000e-06	1.285592e-06	2.854403e-10	8.931114e+00	1.870971e+01
2.130000e-06	1.331085e-06	3.049330e-10	9.247156e+00	1.989661e+01
2.140000e-06	1.376410e-06	3.198741e-10	9.562035e+00	2.106903e+01
2.150000e-06	1.421639e-06	3.312746e-10	9.876244e+00	2.222590e+01
2.160000e-06	1.466882e-06	3.437805e-10	1.019055e+01	2.336623e+01
2.170000e-06	1.512084e-06	3.585788e-10	1.050457e+01	2.448914e+01
2.180000e-06	1.557096e-06	3.741777e-10	1.081727e+01	2.559379e+01
2.190000e-06	1.601916e-06	3.900162e-10	1.112865e+01	2.667944e+01
2.200000e-06	1.646619e-06	4.068361e-10	1.143920e+01	2.774546e+01
2.210000e-06	1.691247e-06	4.226478e-10	1.174923e+01	2.879127e+01
2.220000e-06	1.735817e-06	4.373682e-10	1.205886e+01	2.981641e+01
2.230000e-06	1.780222e-06	4.520429e-10	1.236735e+01	3.082049e+01
2.240000e-06	1.824407e-06	4.648969e-10	1.267431e+01	3.180321e+01
2.250000e-06	1.868508e-06	4.760032e-10	1.298068e+01	3.276438e+01
2.260000e-06	1.912539e-06	4.868101e-10	1.328657e+01	3.370387e+01
2.270000e-06	1.956428e-06	4.997372e-10	1.359147e+01	3.462164e+01
2.280000e-06	2.000192e-06	5.129440e-10	1.389550e+01	3.551773e+01
2.290000e-06	2.043903e-06	5.246350e-10	1.419916e+01	3.639227e+01
2.300000e-06	2.087579e-06	5.339430e-10	1.450258e+01	3.724544e+01
2.310000e-06	2.131180e-06	5.423604e-10	1.480548e+01	3.807750e+01
2.320000e-06	2.174748e-06	5.521077e-10	1.510815e+01	3.888877e+01
2.330000e-06	2.218263e-06	5.621114e-10	1.541046e+01	3.967963e+01
2.340000e-06	2.261607e-06	5.716629e-10	1.571157e+01	4.045050e+01
2.350000e-06	2.304739e-06	5.817858e-10	1.601121e+01	4.120186e+01
2.360000e-06	2.347665e-06	5.929209e-10	1.630943e+01	4.193423e+01
2.370000e-06	2.390423e-06	6.051612e-10	1.660647e+01	4.264816e+01
2.380000e-06	2.432917e-06	6.164228e-10	1.690168e+01	4.334420e+01
2.390000e-06	2.475193e-06	6.262062e-10	1.719537e+01	4.402297e+01
2.400000e-06	2.517094e-06	6.353391e-10	1.748646e+01	4.468507e+01
2.410000e-06	2.558454e-06	6.451807e-10	1.777380e+01	4.533112e+01
2.420000e-06	2.599587e-06	6.557352e-10	1.805955e+01	4.596174e+01
2.430000e-06	2.640483e-06	6.661713e-10	1.834365e+01	4.657755e+01
2.440000e-06	2.681044e-06	6.777216e-10	1.862544e+01	4.717916e+01
2.450000e-06	2.721442e-06	6.906830e-10	1.890608e+01	4.776716e+01
2.460000e-06	2.761732e-06	7.018652e-10	1.918598e+01	4.834214e+01
2.470000e-06	2.801814e-06	7.095485e-10	1.946444e+01	4.890465e+01
2.480000e-06	2.841724e-06	7.147656e-10	1.974169e+01	4.945522e+01
2.490000e-06	2.881519e-06	7.207683e-10	2.001815e+01	4.999435e+01
2.500000e-06	2.921153e-06	7.295223e-10	2.029350e+01	5.052252e+01
2.510000e-06	2.960585e-06	7.390839e-10	2.056743e+01	5.104014e+01
2.520000e-06	2.999881e-06	7.488829e-10	2.084042e+01	5.154764e+01
2.530000e-06	3.039008e-06	7.583265e-10	2.111224e+01	5.204535e+01
2.540000e-06	3.077862e-06	7.659120e-10	2.138216e+01	5.253361e+01
2.550000e-06	3.116507e-06	7.715424e-10	2.165064e+01	5.301268e+01
2.560000e-06	3.154958e-06	7.764125e-10	2.191776e+01	5.348283e+01
2.570000e-06	3.193155e-06	7.801048e-10	2.218312e+01	5.394424e+01
2.580000e-06	3.231122e-06	7.828182e-10	2.244688e+01	5.439709e+01
2.590000e-06	3.268932e-06	7.866386e-10	2.270955e+01	5.484150e+01
2.600000e-06	3.306602e-06	7.929571e-10	2.297124e+01	5.527758e+01
2.610000e-06	3.343988e-06	8.010886e-10	2.323097e+01	5.570538e+01
2.620000e-06	3.381124e-06	8.094284e-10	2.348895e+01	5.612494e+01
2.630000e-06	3.418067e-06	8.159031e-10	2.374560e+01	5.653626e+01
2.640000e-06	3.454762e-06	8.201773e-10	2.400052e+01	5.693934e+01
2.650000e-06	3.491244e-06	8.234814e-10	2.425396e+01	5.733413e+01
2.660000e-06	3.527502e-06	8.264460e-10	2.450585e+01	5.772059e+01
2.670000e-06	3.563548e-06	8.296960e-10	2.475626e+01	5.809864e+01
2.680000e-06	3.599416e-06	8.337076e-10	2.500544e+01	5.846822e+01
2.690000e-06	3.635149e-06	8.382221e-10	2.525368e+01	5.882924e+01
2.700000e-06	3.670752e-06	8.444566e-10	2.550102e+01	5.918163e+01
2.710000e-06	3.706147e-06	8.517794e-10	2.574691e+01	5.952528e+01
2.720000e-06	3.741237e-06	8.591876e-10	2.599069e+01	5.986014e+01
2.730000e-06	3.775962e-06	8.666893e-10	2.623193e+01	6.018613e+01
2.740000e-06	3.810448e-06	8.730845e-10	2.647150e+01	6.050319e+01
2.750000e-06	3.844588e-06	8.761692e-10	2.670867e+01	6.081128e+01
2.760000e-06	3.878076e-06	8.769380e-10	2.694132e+01	6.111036e+01
2.770000e-06	3.911035e-06	8.796008e-10	2.717029e+01	6.140044e+01
2.780000e-06	3.943652e-06	8.843583e-10	2.739688e+01	6.168150e+01
2.790000e-06	3.975967e-06	8.898220e-10	2.762138e+01	6.195360e+01
2.800000e-06	4.008018e-06	8.960541e-10	2.784404e+01	6.221679e+01
2.810000e-06	4.039842e-06	9.028917e-10	2.806512e+01	6.247114e+01
2.820000e-06	4.071500e-06	9.097289e-10	2.828505e+01	6.271676e+01
2.830000e-06	4.103020e-06	9.142720e-10	2.850402e+01	6.295378e+01
2.840000e-06	4.134308e-06	9.161419e-10	2.872138e+01	6.318236e+01
2.850000e-06	4.165332e-06	9.182729e-10	2.893691e+01	6.340268e+01
2.860000e-06	4.196044e-06	9.214295e-10	2.915027e+01	6.361494e+01
2.870000e-06	4.226411e-06	9.239652e-10	2.936123e+01	6.381936e+01
2.880000e-06	4.256502e-06	9.259672e-10	2.957028e+01	6.401621e+01
2.890000e-06	4.286329e-06	9.294907e-10	2.977749e+01	6.420574e+01
2.900000e-06	4.315848e-06	9.339892e-10	2.998256e+01	6.438825e+01
