# Temperatura_=_-0.35
# Concentracion g/m^3_=_1620.0
# C_Vs_to_Am_M_A/Vsm_=_65563218390.804596
# pendiente_HvsI_1/m_=_3716.3
# ordenada_HvsI_A/m_=_1297.0
# frecuencia_Hz_=_135090.51149342486

Tiempo_(s)	Campo_(V.s)	Magnetizacion_(V.s)	Campo_(kA/m)	Magnetizacion_(A/m)
0.000000e+00	-5.533092e-06	-1.388432e-09	-3.838165e+01	-9.081120e+01
1.000000e-08	-5.533190e-06	-1.395132e-09	-3.838233e+01	-9.085266e+01
2.000000e-08	-5.533053e-06	-1.399558e-09	-3.838138e+01	-9.089475e+01
3.000000e-08	-5.532501e-06	-1.398247e-09	-3.837755e+01	-9.093724e+01
4.000000e-08	-5.531443e-06	-1.392170e-09	-3.837021e+01	-9.097987e+01
5.000000e-08	-5.529848e-06	-1.387000e-09	-3.835915e+01	-9.102234e+01
6.000000e-08	-5.527682e-06	-1.376526e-09	-3.834412e+01	-9.106436e+01
7.000000e-08	-5.524925e-06	-1.380417e-09	-3.832500e+01	-9.110559e+01
8.000000e-08	-5.521633e-06	-1.392469e-09	-3.830216e+01	-9.114570e+01
9.000000e-08	-5.517891e-06	-1.400352e-09	-3.827620e+01	-9.118433e+01
1.000000e-07	-5.513781e-06	-1.422102e-09	-3.824769e+01	-9.122114e+01
1.100000e-07	-5.509397e-06	-1.426748e-09	-3.821728e+01	-9.125575e+01
1.200000e-07	-5.504759e-06	-1.388693e-09	-3.818511e+01	-9.128782e+01
1.300000e-07	-5.499837e-06	-1.366838e-09	-3.815097e+01	-9.131697e+01
1.400000e-07	-5.494533e-06	-1.369223e-09	-3.811418e+01	-9.134286e+01
1.500000e-07	-5.488787e-06	-1.387648e-09	-3.807432e+01	-9.136512e+01
1.600000e-07	-5.482670e-06	-1.361511e-09	-3.803189e+01	-9.138343e+01
1.700000e-07	-5.476209e-06	-1.379101e-09	-3.798706e+01	-9.139747e+01
1.800000e-07	-5.469272e-06	-1.432508e-09	-3.793894e+01	-9.140691e+01
1.900000e-07	-5.461973e-06	-1.456285e-09	-3.788831e+01	-9.141147e+01
2.000000e-07	-5.454310e-06	-1.403479e-09	-3.783516e+01	-9.141089e+01
2.100000e-07	-5.446357e-06	-1.388267e-09	-3.777999e+01	-9.140490e+01
2.200000e-07	-5.438244e-06	-1.430243e-09	-3.772371e+01	-9.139329e+01
2.300000e-07	-5.429766e-06	-1.461910e-09	-3.766490e+01	-9.137585e+01
2.400000e-07	-5.420740e-06	-1.452716e-09	-3.760229e+01	-9.135241e+01
2.500000e-07	-5.411026e-06	-1.443257e-09	-3.753491e+01	-9.132282e+01
2.600000e-07	-5.400709e-06	-1.452126e-09	-3.746335e+01	-9.128695e+01
2.700000e-07	-5.389869e-06	-1.443628e-09	-3.738815e+01	-9.124472e+01
2.800000e-07	-5.378561e-06	-1.429431e-09	-3.730971e+01	-9.119605e+01
2.900000e-07	-5.366833e-06	-1.418451e-09	-3.722835e+01	-9.114090e+01
3.000000e-07	-5.354685e-06	-1.433032e-09	-3.714409e+01	-9.107926e+01
3.100000e-07	-5.342120e-06	-1.426989e-09	-3.705693e+01	-9.101114e+01
3.200000e-07	-5.329163e-06	-1.428291e-09	-3.696705e+01	-9.093656e+01
3.300000e-07	-5.315877e-06	-1.414892e-09	-3.687488e+01	-9.085558e+01
3.400000e-07	-5.302175e-06	-1.418312e-09	-3.677984e+01	-9.076829e+01
3.500000e-07	-5.288031e-06	-1.411168e-09	-3.668172e+01	-9.067477e+01
3.600000e-07	-5.273494e-06	-1.399724e-09	-3.658089e+01	-9.057513e+01
3.700000e-07	-5.258396e-06	-1.385309e-09	-3.647615e+01	-9.046951e+01
3.800000e-07	-5.242635e-06	-1.412000e-09	-3.636683e+01	-9.035805e+01
3.900000e-07	-5.226360e-06	-1.423676e-09	-3.625393e+01	-9.024089e+01
4.000000e-07	-5.209709e-06	-1.397134e-09	-3.613842e+01	-9.011819e+01
4.100000e-07	-5.192692e-06	-1.386954e-09	-3.602038e+01	-8.999014e+01
4.200000e-07	-5.175377e-06	-1.411232e-09	-3.590027e+01	-8.985689e+01
4.300000e-07	-5.157791e-06	-1.390535e-09	-3.577828e+01	-8.971862e+01
4.400000e-07	-5.139865e-06	-1.368469e-09	-3.565393e+01	-8.957550e+01
4.500000e-07	-5.121598e-06	-1.401276e-09	-3.552722e+01	-8.942771e+01
4.600000e-07	-5.102959e-06	-1.407456e-09	-3.539793e+01	-8.927543e+01
4.700000e-07	-5.083859e-06	-1.362513e-09	-3.526544e+01	-8.911880e+01
4.800000e-07	-5.064441e-06	-1.378089e-09	-3.513074e+01	-8.895800e+01
4.900000e-07	-5.044887e-06	-1.410570e-09	-3.499510e+01	-8.879316e+01
5.000000e-07	-5.025111e-06	-1.374478e-09	-3.485792e+01	-8.862444e+01
5.100000e-07	-5.005063e-06	-1.358074e-09	-3.471885e+01	-8.845195e+01
5.200000e-07	-4.984621e-06	-1.390084e-09	-3.457705e+01	-8.827583e+01
5.300000e-07	-4.963819e-06	-1.373104e-09	-3.443275e+01	-8.809617e+01
5.400000e-07	-4.942761e-06	-1.350248e-09	-3.428668e+01	-8.791307e+01
5.500000e-07	-4.921432e-06	-1.386788e-09	-3.413872e+01	-8.772661e+01
5.600000e-07	-4.899796e-06	-1.379947e-09	-3.398864e+01	-8.753687e+01
5.700000e-07	-4.877737e-06	-1.336240e-09	-3.383562e+01	-8.734390e+01
5.800000e-07	-4.855308e-06	-1.353641e-09	-3.368003e+01	-8.714774e+01
5.900000e-07	-4.832462e-06	-1.376680e-09	-3.352156e+01	-8.694843e+01
6.000000e-07	-4.809238e-06	-1.343079e-09	-3.336046e+01	-8.674600e+01
6.100000e-07	-4.785851e-06	-1.345735e-09	-3.319823e+01	-8.654046e+01
6.200000e-07	-4.762281e-06	-1.364394e-09	-3.303473e+01	-8.633180e+01
6.300000e-07	-4.738415e-06	-1.335840e-09	-3.286918e+01	-8.612003e+01
6.400000e-07	-4.714181e-06	-1.317949e-09	-3.270108e+01	-8.590514e+01
6.500000e-07	-4.689515e-06	-1.340613e-09	-3.252997e+01	-8.568711e+01
6.600000e-07	-4.664445e-06	-1.327076e-09	-3.235607e+01	-8.546593e+01
6.700000e-07	-4.638947e-06	-1.311450e-09	-3.217920e+01	-8.524155e+01
6.800000e-07	-4.612852e-06	-1.325760e-09	-3.199818e+01	-8.501397e+01
6.900000e-07	-4.586172e-06	-1.323075e-09	-3.181311e+01	-8.478315e+01
7.000000e-07	-4.559124e-06	-1.301569e-09	-3.162548e+01	-8.454907e+01
7.100000e-07	-4.531768e-06	-1.307935e-09	-3.143572e+01	-8.431170e+01
7.200000e-07	-4.504132e-06	-1.305788e-09	-3.124401e+01	-8.407103e+01
7.300000e-07	-4.476387e-06	-1.288752e-09	-3.105156e+01	-8.382702e+01
7.400000e-07	-4.448447e-06	-1.294310e-09	-3.085775e+01	-8.357967e+01
7.500000e-07	-4.420272e-06	-1.304142e-09	-3.066230e+01	-8.332896e+01
7.600000e-07	-4.391794e-06	-1.289572e-09	-3.046475e+01	-8.307489e+01
7.700000e-07	-4.362915e-06	-1.281609e-09	-3.026443e+01	-8.281746e+01
7.800000e-07	-4.333749e-06	-1.282090e-09	-3.006211e+01	-8.255667e+01
7.900000e-07	-4.304235e-06	-1.268238e-09	-2.985739e+01	-8.229255e+01
8.000000e-07	-4.274407e-06	-1.260729e-09	-2.965047e+01	-8.202510e+01
8.100000e-07	-4.244360e-06	-1.270295e-09	-2.944205e+01	-8.175434e+01
8.200000e-07	-4.214011e-06	-1.268957e-09	-2.923152e+01	-8.148031e+01
8.300000e-07	-4.183334e-06	-1.256878e-09	-2.901873e+01	-8.120304e+01
8.400000e-07	-4.152342e-06	-1.257349e-09	-2.880374e+01	-8.092255e+01
8.500000e-07	-4.121118e-06	-1.250142e-09	-2.858715e+01	-8.063890e+01
8.600000e-07	-4.089698e-06	-1.230208e-09	-2.836919e+01	-8.035212e+01
8.700000e-07	-4.058058e-06	-1.223194e-09	-2.814972e+01	-8.006224e+01
8.800000e-07	-4.026224e-06	-1.226461e-09	-2.792889e+01	-7.976931e+01
8.900000e-07	-3.994226e-06	-1.217874e-09	-2.770693e+01	-7.947336e+01
9.000000e-07	-3.961966e-06	-1.215143e-09	-2.748315e+01	-7.917442e+01
9.100000e-07	-3.929421e-06	-1.218652e-09	-2.725739e+01	-7.887253e+01
9.200000e-07	-3.896552e-06	-1.209801e-09	-2.702939e+01	-7.856771e+01
9.300000e-07	-3.863065e-06	-1.195705e-09	-2.679710e+01	-7.825996e+01
9.400000e-07	-3.829138e-06	-1.193867e-09	-2.656176e+01	-7.794930e+01
9.500000e-07	-3.794761e-06	-1.187042e-09	-2.632329e+01	-7.763571e+01
9.600000e-07	-3.759878e-06	-1.175534e-09	-2.608131e+01	-7.731919e+01
9.700000e-07	-3.724724e-06	-1.173235e-09	-2.583746e+01	-7.699970e+01
9.800000e-07	-3.689333e-06	-1.175004e-09	-2.559197e+01	-7.667719e+01
9.900000e-07	-3.653798e-06	-1.169022e-09	-2.534546e+01	-7.635162e+01
1.000000e-06	-3.618100e-06	-1.165302e-09	-2.509784e+01	-7.602289e+01
1.010000e-06	-3.582239e-06	-1.160791e-09	-2.484908e+01	-7.569094e+01
1.020000e-06	-3.546315e-06	-1.149937e-09	-2.459988e+01	-7.535565e+01
1.030000e-06	-3.510217e-06	-1.139566e-09	-2.434948e+01	-7.501689e+01
1.040000e-06	-3.473769e-06	-1.135715e-09	-2.409665e+01	-7.467453e+01
1.050000e-06	-3.437101e-06	-1.127605e-09	-2.384229e+01	-7.432841e+01
1.060000e-06	-3.400168e-06	-1.117364e-09	-2.358610e+01	-7.397837e+01
1.070000e-06	-3.362910e-06	-1.114512e-09	-2.332765e+01	-7.362420e+01
1.080000e-06	-3.325425e-06	-1.113116e-09	-2.306763e+01	-7.326572e+01
1.090000e-06	-3.287776e-06	-1.107006e-09	-2.280646e+01	-7.290270e+01
1.100000e-06	-3.249877e-06	-1.099730e-09	-2.254357e+01	-7.253491e+01
1.110000e-06	-3.211615e-06	-1.091926e-09	-2.227816e+01	-7.216212e+01
1.120000e-06	-3.173075e-06	-1.080325e-09	-2.201081e+01	-7.178407e+01
1.130000e-06	-3.134384e-06	-1.070995e-09	-2.174242e+01	-7.140050e+01
1.140000e-06	-3.095527e-06	-1.064385e-09	-2.147288e+01	-7.101114e+01
1.150000e-06	-3.056555e-06	-1.058503e-09	-2.120254e+01	-7.061571e+01
1.160000e-06	-3.017412e-06	-1.052801e-09	-2.093102e+01	-7.021395e+01
1.170000e-06	-2.977960e-06	-1.048546e-09	-2.065735e+01	-6.980557e+01
1.180000e-06	-2.938396e-06	-1.041125e-09	-2.038291e+01	-6.939029e+01
1.190000e-06	-2.898770e-06	-1.032068e-09	-2.010803e+01	-6.896784e+01
1.200000e-06	-2.858985e-06	-1.025767e-09	-1.983205e+01	-6.853793e+01
1.210000e-06	-2.819048e-06	-1.018626e-09	-1.955502e+01	-6.810031e+01
1.220000e-06	-2.778990e-06	-1.008807e-09	-1.927714e+01	-6.765470e+01
1.230000e-06	-2.738735e-06	-1.003990e-09	-1.899791e+01	-6.720085e+01
1.240000e-06	-2.698208e-06	-9.988424e-10	-1.871678e+01	-6.673852e+01
1.250000e-06	-2.657419e-06	-9.888277e-10	-1.843384e+01	-6.626747e+01
1.260000e-06	-2.616426e-06	-9.798165e-10	-1.814948e+01	-6.578749e+01
1.270000e-06	-2.575201e-06	-9.724704e-10	-1.786351e+01	-6.529836e+01
1.280000e-06	-2.533698e-06	-9.622569e-10	-1.757562e+01	-6.479989e+01
1.290000e-06	-2.491927e-06	-9.519452e-10	-1.728586e+01	-6.429190e+01
1.300000e-06	-2.449883e-06	-9.443516e-10	-1.699421e+01	-6.377422e+01
1.310000e-06	-2.407590e-06	-9.372458e-10	-1.670084e+01	-6.324670e+01
1.320000e-06	-2.365033e-06	-9.281998e-10	-1.640563e+01	-6.270921e+01
1.330000e-06	-2.322126e-06	-9.217266e-10	-1.610799e+01	-6.216161e+01
1.340000e-06	-2.278967e-06	-9.140837e-10	-1.580862e+01	-6.160381e+01
1.350000e-06	-2.235672e-06	-9.031311e-10	-1.550829e+01	-6.103571e+01
1.360000e-06	-2.192229e-06	-8.917437e-10	-1.520693e+01	-6.045721e+01
1.370000e-06	-2.148687e-06	-8.830995e-10	-1.490489e+01	-5.986824e+01
1.380000e-06	-2.105041e-06	-8.749429e-10	-1.460214e+01	-5.926874e+01
1.390000e-06	-2.061279e-06	-8.656990e-10	-1.429857e+01	-5.865864e+01
1.400000e-06	-2.017443e-06	-8.566994e-10	-1.399448e+01	-5.803788e+01
1.410000e-06	-1.973494e-06	-8.466024e-10	-1.368963e+01	-5.740643e+01
1.420000e-06	-1.929441e-06	-8.363040e-10	-1.338404e+01	-5.676421e+01
1.430000e-06	-1.885362e-06	-8.249725e-10	-1.307828e+01	-5.611119e+01
1.440000e-06	-1.841205e-06	-8.127088e-10	-1.277197e+01	-5.544730e+01
1.450000e-06	-1.796919e-06	-8.002993e-10	-1.246477e+01	-5.477248e+01
1.460000e-06	-1.752564e-06	-7.877685e-10	-1.215709e+01	-5.408667e+01
1.470000e-06	-1.708061e-06	-7.741016e-10	-1.184838e+01	-5.338978e+01
1.480000e-06	-1.663334e-06	-7.611883e-10	-1.153812e+01	-5.268173e+01
1.490000e-06	-1.618413e-06	-7.494855e-10	-1.122652e+01	-5.196241e+01
1.500000e-06	-1.573362e-06	-7.373975e-10	-1.091401e+01	-5.123170e+01
1.510000e-06	-1.528194e-06	-7.248230e-10	-1.060069e+01	-5.048946e+01
1.520000e-06	-1.482963e-06	-7.114670e-10	-1.028693e+01	-4.973555e+01
1.530000e-06	-1.437669e-06	-6.954502e-10	-9.972742e+00	-4.896979e+01
1.540000e-06	-1.392208e-06	-6.803791e-10	-9.657390e+00	-4.819198e+01
1.550000e-06	-1.346648e-06	-6.648689e-10	-9.341357e+00	-4.740192e+01
1.560000e-06	-1.301059e-06	-6.497780e-10	-9.025114e+00	-4.659937e+01
1.570000e-06	-1.255400e-06	-6.360036e-10	-8.708393e+00	-4.578407e+01
1.580000e-06	-1.209601e-06	-6.228563e-10	-8.390694e+00	-4.495576e+01
1.590000e-06	-1.163731e-06	-6.102083e-10	-8.072503e+00	-4.411415e+01
1.600000e-06	-1.117830e-06	-5.976309e-10	-7.754100e+00	-4.325891e+01
1.610000e-06	-1.071765e-06	-5.849157e-10	-7.434561e+00	-4.238973e+01
1.620000e-06	-1.025649e-06	-5.729198e-10	-7.114669e+00	-4.150626e+01
1.630000e-06	-9.795397e-07	-5.597852e-10	-6.794818e+00	-4.060816e+01
1.640000e-06	-9.332930e-07	-5.418692e-10	-6.474016e+00	-3.969505e+01
1.650000e-06	-8.870238e-07	-5.231391e-10	-6.153058e+00	-3.876659e+01
1.660000e-06	-8.407067e-07	-5.046136e-10	-5.831768e+00	-3.782239e+01
1.670000e-06	-7.943271e-07	-4.897702e-10	-5.510045e+00	-3.686209e+01
1.680000e-06	-7.479925e-07	-4.781247e-10	-5.188634e+00	-3.588532e+01
1.690000e-06	-7.015348e-07	-4.673299e-10	-4.866368e+00	-3.489173e+01
1.700000e-06	-6.548764e-07	-4.564452e-10	-4.542711e+00	-3.388097e+01
1.710000e-06	-6.081860e-07	-4.421457e-10	-4.218831e+00	-3.285272e+01
1.720000e-06	-5.615222e-07	-4.239265e-10	-3.895137e+00	-3.180667e+01
1.730000e-06	-5.148437e-07	-4.021028e-10	-3.571339e+00	-3.074255e+01
1.740000e-06	-4.680696e-07	-3.787439e-10	-3.246879e+00	-2.966011e+01
1.750000e-06	-4.212493e-07	-3.604656e-10	-2.922099e+00	-2.855915e+01
1.760000e-06	-3.743934e-07	-3.428143e-10	-2.597072e+00	-2.743948e+01
1.770000e-06	-3.275783e-07	-3.286085e-10	-2.272328e+00	-2.630099e+01
1.780000e-06	-2.807905e-07	-3.193876e-10	-1.947772e+00	-2.514359e+01
1.790000e-06	-2.338542e-07	-3.073421e-10	-1.622187e+00	-2.396726e+01
1.800000e-06	-1.869000e-07	-2.894093e-10	-1.296477e+00	-2.277203e+01
1.810000e-06	-1.400239e-07	-2.654681e-10	-9.713102e-01	-2.155800e+01
1.820000e-06	-9.319383e-08	-2.413250e-10	-6.464619e-01	-2.032531e+01
1.830000e-06	-4.623737e-08	-2.197592e-10	-3.207369e-01	-1.907419e+01
1.840000e-06	7.384421e-10	-2.017398e-10	5.122385e-03	-1.780492e+01
1.850000e-06	4.764002e-08	-1.879729e-10	3.304667e-01	-1.651786e+01
1.860000e-06	9.458157e-08	-1.760916e-10	6.560883e-01	-1.521344e+01
1.870000e-06	1.415035e-07	-1.604838e-10	9.815737e-01	-1.389215e+01
1.880000e-06	1.883523e-07	-1.426079e-10	1.306552e+00	-1.255458e+01
1.890000e-06	2.352330e-07	-1.187443e-10	1.631752e+00	-1.120136e+01
1.900000e-06	2.822212e-07	-9.484942e-11	1.957697e+00	-9.833215e+00
1.910000e-06	3.292212e-07	-7.355869e-11	2.283724e+00	-8.450924e+00
1.920000e-06	3.761782e-07	-5.638773e-11	2.609452e+00	-7.055342e+00
1.930000e-06	4.230042e-07	-4.201065e-11	2.934273e+00	-5.647390e+00
1.940000e-06	4.697085e-07	-2.937854e-11	3.258249e+00	-4.228049e+00
1.950000e-06	5.164414e-07	-1.518018e-11	3.582423e+00	-2.798362e+00
1.960000e-06	5.631852e-07	3.999594e-12	3.906672e+00	-1.359426e+00
1.970000e-06	6.097685e-07	2.539558e-11	4.229809e+00	8.761057e-02
1.980000e-06	6.562992e-07	4.903215e-11	4.552580e+00	1.541554e+00
1.990000e-06	7.027831e-07	7.284060e-11	4.875027e+00	3.001168e+00
2.000000e-06	7.491541e-07	9.408219e-11	5.196691e+00	4.465181e+00
2.010000e-06	7.955447e-07	1.136795e-10	5.518491e+00	5.932295e+00
2.020000e-06	8.418711e-07	1.307782e-10	5.839846e+00	7.401184e+00
2.030000e-06	8.881061e-07	1.443195e-10	6.160566e+00	8.870509e+00
2.040000e-06	9.342835e-07	1.588541e-10	6.480887e+00	1.033892e+01
2.050000e-06	9.804984e-07	1.791740e-10	6.801468e+00	1.180506e+01
2.060000e-06	1.026726e-06	2.058510e-10	7.122136e+00	1.326758e+01
2.070000e-06	1.072790e-06	2.318524e-10	7.441670e+00	1.472514e+01
2.080000e-06	1.118703e-06	2.568603e-10	7.760155e+00	1.617640e+01
2.090000e-06	1.164569e-06	2.771013e-10	8.078317e+00	1.762008e+01
2.100000e-06	1.210363e-06	2.939474e-10	8.395983e+00	1.905490e+01
2.110000e-06	1.256020e-06	3.090521e-10	8.712689e+00	2.047962e+01
2.120000e-06	1.301595e-06	3.253223e-10	9.028831e+00	2.189304e+01
2.130000e-06	1.347119e-06	3.449010e-10	9.344625e+00	2.329403e+01
2.140000e-06	1.392552e-06	3.664907e-10	9.659775e+00	2.468147e+01
2.150000e-06	1.437920e-06	3.873551e-10	9.974486e+00	2.605433e+01
2.160000e-06	1.483226e-06	4.097974e-10	1.028876e+01	2.741164e+01
2.170000e-06	1.528301e-06	4.326763e-10	1.060144e+01	2.875249e+01
2.180000e-06	1.573235e-06	4.524098e-10	1.091313e+01	3.007602e+01
2.190000e-06	1.618184e-06	4.675288e-10	1.122493e+01	3.138147e+01
2.200000e-06	1.662965e-06	4.810801e-10	1.153556e+01	3.266813e+01
2.210000e-06	1.707553e-06	4.971131e-10	1.184486e+01	3.393540e+01
2.220000e-06	1.751983e-06	5.144915e-10	1.215306e+01	3.518271e+01
2.230000e-06	1.796219e-06	5.311995e-10	1.245992e+01	3.640960e+01
2.240000e-06	1.840358e-06	5.482108e-10	1.276610e+01	3.761569e+01
2.250000e-06	1.884414e-06	5.652180e-10	1.307170e+01	3.880064e+01
2.260000e-06	1.928397e-06	5.818745e-10	1.337680e+01	3.996423e+01
2.270000e-06	1.972326e-06	5.978927e-10	1.368152e+01	4.110628e+01
2.280000e-06	2.016207e-06	6.121765e-10	1.398592e+01	4.222670e+01
2.290000e-06	2.059995e-06	6.254241e-10	1.428966e+01	4.332546e+01
2.300000e-06	2.103685e-06	6.391434e-10	1.459273e+01	4.440261e+01
2.310000e-06	2.147334e-06	6.538764e-10	1.489551e+01	4.545824e+01
2.320000e-06	2.190922e-06	6.680688e-10	1.519787e+01	4.649252e+01
2.330000e-06	2.234456e-06	6.827155e-10	1.549985e+01	4.750565e+01
2.340000e-06	2.277927e-06	6.953752e-10	1.580140e+01	4.849791e+01
2.350000e-06	2.321130e-06	7.081536e-10	1.610109e+01	4.946959e+01
2.360000e-06	2.363921e-06	7.199000e-10	1.639792e+01	5.042105e+01
2.370000e-06	2.406480e-06	7.313224e-10	1.669314e+01	5.135266e+01
2.380000e-06	2.448947e-06	7.438966e-10	1.698772e+01	5.226485e+01
2.390000e-06	2.491150e-06	7.576964e-10	1.728047e+01	5.315804e+01
2.400000e-06	2.532972e-06	7.721548e-10	1.757058e+01	5.403269e+01
2.410000e-06	2.574449e-06	7.875850e-10	1.785830e+01	5.488928e+01
2.420000e-06	2.615571e-06	8.017673e-10	1.814355e+01	5.572827e+01
2.430000e-06	2.656391e-06	8.119622e-10	1.842671e+01	5.655017e+01
2.440000e-06	2.696971e-06	8.223568e-10	1.870820e+01	5.735544e+01
2.450000e-06	2.737318e-06	8.354039e-10	1.898808e+01	5.814458e+01
2.460000e-06	2.777458e-06	8.490867e-10	1.926652e+01	5.891805e+01
2.470000e-06	2.817375e-06	8.615902e-10	1.954341e+01	5.967631e+01
2.480000e-06	2.857153e-06	8.725853e-10	1.981934e+01	6.041982e+01
2.490000e-06	2.896870e-06	8.832619e-10	2.009485e+01	6.114898e+01
2.500000e-06	2.936472e-06	8.931709e-10	2.036956e+01	6.186422e+01
2.510000e-06	2.975933e-06	9.012886e-10	2.064329e+01	6.256591e+01
2.520000e-06	3.015271e-06	9.088752e-10	2.091617e+01	6.325442e+01
2.530000e-06	3.054349e-06	9.179435e-10	2.118724e+01	6.393007e+01
2.540000e-06	3.093198e-06	9.275626e-10	2.145673e+01	6.459316e+01
2.550000e-06	3.131897e-06	9.359141e-10	2.172518e+01	6.524399e+01
2.560000e-06	3.170350e-06	9.465907e-10	2.199191e+01	6.588280e+01
2.570000e-06	3.208566e-06	9.573278e-10	2.225700e+01	6.650981e+01
2.580000e-06	3.246552e-06	9.664197e-10	2.252050e+01	6.712523e+01
2.590000e-06	3.284366e-06	9.737831e-10	2.278281e+01	6.772921e+01
2.600000e-06	3.322039e-06	9.805282e-10	2.304414e+01	6.832192e+01
2.610000e-06	3.359497e-06	9.888351e-10	2.330397e+01	6.890348e+01
2.620000e-06	3.396725e-06	9.975391e-10	2.356222e+01	6.947398e+01
2.630000e-06	3.433691e-06	1.005292e-09	2.381864e+01	7.003353e+01
2.640000e-06	3.470287e-06	1.013013e-09	2.407250e+01	7.058220e+01
2.650000e-06	3.506592e-06	1.020950e-09	2.432433e+01	7.112003e+01
2.660000e-06	3.542658e-06	1.028973e-09	2.457452e+01	7.164709e+01
2.670000e-06	3.578560e-06	1.037137e-09	2.482356e+01	7.216340e+01
2.680000e-06	3.614391e-06	1.044862e-09	2.507211e+01	7.266901e+01
2.690000e-06	3.650099e-06	1.051943e-09	2.531981e+01	7.316396e+01
2.700000e-06	3.685603e-06	1.058678e-09	2.556609e+01	7.364826e+01
2.710000e-06	3.720942e-06	1.065010e-09	2.581122e+01	7.412196e+01
2.720000e-06	3.756066e-06	1.073687e-09	2.605487e+01	7.458511e+01
2.730000e-06	3.790780e-06	1.083918e-09	2.629568e+01	7.503774e+01
2.740000e-06	3.825102e-06	1.092132e-09	2.653376e+01	7.547993e+01
2.750000e-06	3.859064e-06	1.099760e-09	2.676935e+01	7.591174e+01
2.760000e-06	3.892468e-06	1.107138e-09	2.700106e+01	7.633326e+01
2.770000e-06	3.925352e-06	1.115803e-09	2.722917e+01	7.674459e+01
2.780000e-06	3.957949e-06	1.124937e-09	2.745529e+01	7.714585e+01
2.790000e-06	3.990207e-06	1.132241e-09	2.767905e+01	7.753717e+01
2.800000e-06	4.022170e-06	1.139094e-09	2.790077e+01	7.791870e+01
2.810000e-06	4.053986e-06	1.145167e-09	2.812147e+01	7.829062e+01
2.820000e-06	4.085600e-06	1.149436e-09	2.834077e+01	7.865311e+01
2.830000e-06	4.117059e-06	1.153953e-09	2.855899e+01	7.900637e+01
2.840000e-06	4.148344e-06	1.158083e-09	2.877601e+01	7.935064e+01
2.850000e-06	4.179325e-06	1.163008e-09	2.899091e+01	7.968614e+01
2.860000e-06	4.209987e-06	1.169538e-09	2.920361e+01	8.001314e+01
2.870000e-06	4.240261e-06	1.175236e-09	2.941361e+01	8.033189e+01
2.880000e-06	4.270195e-06	1.180120e-09	2.962125e+01	8.064268e+01
2.890000e-06	4.299904e-06	1.186862e-09	2.982734e+01	8.094580e+01
2.900000e-06	4.329370e-06	1.194056e-09	3.003174e+01	8.124154e+01
