# Temperatura_=_-0.4
# Concentracion g/m^3_=_1620.0
# C_Vs_to_Am_M_A/Vsm_=_65563218390.804596
# pendiente_HvsI_1/m_=_3716.3
# ordenada_HvsI_A/m_=_1297.0
# frecuencia_Hz_=_135089.35858192103

Tiempo_(s)	Campo_(V.s)	Magnetizacion_(V.s)	Campo_(kA/m)	Magnetizacion_(A/m)
0.000000e+00	-5.535092e-06	-1.407005e-09	-3.837862e+01	-9.104513e+01
1.000000e-08	-5.535352e-06	-1.407179e-09	-3.838042e+01	-9.105421e+01
2.000000e-08	-5.535389e-06	-1.407375e-09	-3.838068e+01	-9.106172e+01
3.000000e-08	-5.535047e-06	-1.406888e-09	-3.837831e+01	-9.106756e+01
4.000000e-08	-5.534141e-06	-1.403067e-09	-3.837203e+01	-9.107165e+01
5.000000e-08	-5.532635e-06	-1.399708e-09	-3.836158e+01	-9.107389e+01
6.000000e-08	-5.530603e-06	-1.395885e-09	-3.834749e+01	-9.107416e+01
7.000000e-08	-5.528000e-06	-1.397554e-09	-3.832944e+01	-9.107236e+01
8.000000e-08	-5.524768e-06	-1.399668e-09	-3.830704e+01	-9.106836e+01
9.000000e-08	-5.521086e-06	-1.399384e-09	-3.828151e+01	-9.106204e+01
1.000000e-07	-5.517086e-06	-1.416604e-09	-3.825377e+01	-9.105329e+01
1.100000e-07	-5.512691e-06	-1.429042e-09	-3.822329e+01	-9.104198e+01
1.200000e-07	-5.508078e-06	-1.349753e-09	-3.819131e+01	-9.102798e+01
1.300000e-07	-5.503297e-06	-1.363790e-09	-3.815816e+01	-9.101118e+01
1.400000e-07	-5.498136e-06	-1.400402e-09	-3.812238e+01	-9.099146e+01
1.500000e-07	-5.492573e-06	-1.402127e-09	-3.808380e+01	-9.096871e+01
1.600000e-07	-5.486641e-06	-1.346736e-09	-3.804267e+01	-9.094282e+01
1.700000e-07	-5.480354e-06	-1.346298e-09	-3.799908e+01	-9.091369e+01
1.800000e-07	-5.473582e-06	-1.449588e-09	-3.795212e+01	-9.088121e+01
1.900000e-07	-5.466342e-06	-1.443269e-09	-3.790193e+01	-9.084531e+01
2.000000e-07	-5.458881e-06	-1.371486e-09	-3.785019e+01	-9.080590e+01
2.100000e-07	-5.451227e-06	-1.339792e-09	-3.779712e+01	-9.076291e+01
2.200000e-07	-5.443256e-06	-1.417676e-09	-3.774185e+01	-9.071628e+01
2.300000e-07	-5.434963e-06	-1.440170e-09	-3.768436e+01	-9.066594e+01
2.400000e-07	-5.426284e-06	-1.419832e-09	-3.762417e+01	-9.061186e+01
2.500000e-07	-5.416978e-06	-1.393864e-09	-3.755965e+01	-9.055399e+01
2.600000e-07	-5.406851e-06	-1.441029e-09	-3.748944e+01	-9.049230e+01
2.700000e-07	-5.396099e-06	-1.430097e-09	-3.741488e+01	-9.042676e+01
2.800000e-07	-5.384922e-06	-1.388223e-09	-3.733739e+01	-9.035736e+01
2.900000e-07	-5.373322e-06	-1.383071e-09	-3.725695e+01	-9.028409e+01
3.000000e-07	-5.361369e-06	-1.422881e-09	-3.717408e+01	-9.020694e+01
3.100000e-07	-5.349045e-06	-1.421245e-09	-3.708863e+01	-9.012591e+01
3.200000e-07	-5.336316e-06	-1.391250e-09	-3.700036e+01	-9.004101e+01
3.300000e-07	-5.323101e-06	-1.390300e-09	-3.690874e+01	-8.995224e+01
3.400000e-07	-5.309461e-06	-1.414092e-09	-3.681416e+01	-8.985960e+01
3.500000e-07	-5.295452e-06	-1.411958e-09	-3.671703e+01	-8.976312e+01
3.600000e-07	-5.280968e-06	-1.366625e-09	-3.661660e+01	-8.966279e+01
3.700000e-07	-5.266042e-06	-1.357737e-09	-3.651311e+01	-8.955862e+01
3.800000e-07	-5.250635e-06	-1.400796e-09	-3.640628e+01	-8.945062e+01
3.900000e-07	-5.234741e-06	-1.409508e-09	-3.629607e+01	-8.933879e+01
4.000000e-07	-5.218305e-06	-1.354625e-09	-3.618211e+01	-8.922314e+01
4.100000e-07	-5.201464e-06	-1.378209e-09	-3.606534e+01	-8.910366e+01
4.200000e-07	-5.184397e-06	-1.408334e-09	-3.594700e+01	-8.898033e+01
4.300000e-07	-5.166953e-06	-1.358294e-09	-3.582606e+01	-8.885315e+01
4.400000e-07	-5.149238e-06	-1.326282e-09	-3.570322e+01	-8.872209e+01
4.500000e-07	-5.131229e-06	-1.398396e-09	-3.557836e+01	-8.858713e+01
4.600000e-07	-5.112683e-06	-1.370261e-09	-3.544976e+01	-8.844823e+01
4.700000e-07	-5.093703e-06	-1.298691e-09	-3.531817e+01	-8.830535e+01
4.800000e-07	-5.074498e-06	-1.348677e-09	-3.518500e+01	-8.815844e+01
4.900000e-07	-5.055083e-06	-1.393743e-09	-3.505038e+01	-8.800746e+01
5.000000e-07	-5.035391e-06	-1.314290e-09	-3.491384e+01	-8.785235e+01
5.100000e-07	-5.015393e-06	-1.324701e-09	-3.477518e+01	-8.769303e+01
5.200000e-07	-4.995190e-06	-1.381876e-09	-3.463511e+01	-8.752946e+01
5.300000e-07	-4.974599e-06	-1.321672e-09	-3.449233e+01	-8.736155e+01
5.400000e-07	-4.953531e-06	-1.291990e-09	-3.434625e+01	-8.718923e+01
5.500000e-07	-4.932204e-06	-1.370174e-09	-3.419838e+01	-8.701242e+01
5.600000e-07	-4.910623e-06	-1.334053e-09	-3.404874e+01	-8.683106e+01
5.700000e-07	-4.888715e-06	-1.263894e-09	-3.389684e+01	-8.664506e+01
5.800000e-07	-4.866405e-06	-1.325975e-09	-3.374215e+01	-8.645436e+01
5.900000e-07	-4.843696e-06	-1.348462e-09	-3.358469e+01	-8.625887e+01
6.000000e-07	-4.820615e-06	-1.276882e-09	-3.342465e+01	-8.605854e+01
6.100000e-07	-4.797285e-06	-1.300961e-09	-3.326289e+01	-8.585331e+01
6.200000e-07	-4.773773e-06	-1.340567e-09	-3.309987e+01	-8.564311e+01
6.300000e-07	-4.750045e-06	-1.276275e-09	-3.293535e+01	-8.542791e+01
6.400000e-07	-4.726005e-06	-1.264738e-09	-3.276866e+01	-8.520767e+01
6.500000e-07	-4.701613e-06	-1.308244e-09	-3.259953e+01	-8.498237e+01
6.600000e-07	-4.676740e-06	-1.280873e-09	-3.242707e+01	-8.475198e+01
6.700000e-07	-4.651289e-06	-1.258357e-09	-3.225060e+01	-8.451651e+01
6.800000e-07	-4.625335e-06	-1.293746e-09	-3.207065e+01	-8.427597e+01
6.900000e-07	-4.598847e-06	-1.278576e-09	-3.188698e+01	-8.403037e+01
7.000000e-07	-4.571899e-06	-1.253467e-09	-3.170014e+01	-8.377978e+01
7.100000e-07	-4.544628e-06	-1.271486e-09	-3.151105e+01	-8.352422e+01
7.200000e-07	-4.517136e-06	-1.266897e-09	-3.132042e+01	-8.326378e+01
7.300000e-07	-4.489425e-06	-1.236379e-09	-3.112829e+01	-8.299853e+01
7.400000e-07	-4.461478e-06	-1.252865e-09	-3.093451e+01	-8.272857e+01
7.500000e-07	-4.433379e-06	-1.260697e-09	-3.073968e+01	-8.245401e+01
7.600000e-07	-4.404990e-06	-1.238647e-09	-3.054284e+01	-8.217498e+01
7.700000e-07	-4.376273e-06	-1.233625e-09	-3.034373e+01	-8.189160e+01
7.800000e-07	-4.347262e-06	-1.238221e-09	-3.014257e+01	-8.160402e+01
7.900000e-07	-4.317895e-06	-1.217423e-09	-2.993895e+01	-8.131241e+01
8.000000e-07	-4.288245e-06	-1.215663e-09	-2.973337e+01	-8.101692e+01
8.100000e-07	-4.258327e-06	-1.224899e-09	-2.952592e+01	-8.071772e+01
8.200000e-07	-4.228065e-06	-1.214919e-09	-2.931610e+01	-8.041500e+01
8.300000e-07	-4.197407e-06	-1.205428e-09	-2.910352e+01	-8.010892e+01
8.400000e-07	-4.166523e-06	-1.215100e-09	-2.888939e+01	-7.979968e+01
8.500000e-07	-4.135419e-06	-1.205815e-09	-2.867372e+01	-7.948745e+01
8.600000e-07	-4.104042e-06	-1.187923e-09	-2.845616e+01	-7.917240e+01
8.700000e-07	-4.072478e-06	-1.188167e-09	-2.823731e+01	-7.885472e+01
8.800000e-07	-4.040694e-06	-1.189297e-09	-2.801692e+01	-7.853455e+01
8.900000e-07	-4.008730e-06	-1.176577e-09	-2.779530e+01	-7.821207e+01
9.000000e-07	-3.976631e-06	-1.175850e-09	-2.757273e+01	-7.788742e+01
9.100000e-07	-3.944309e-06	-1.180211e-09	-2.734862e+01	-7.756071e+01
9.200000e-07	-3.911609e-06	-1.164242e-09	-2.712189e+01	-7.723208e+01
9.300000e-07	-3.878321e-06	-1.153942e-09	-2.689108e+01	-7.690161e+01
9.400000e-07	-3.844527e-06	-1.157638e-09	-2.665676e+01	-7.656939e+01
9.500000e-07	-3.810421e-06	-1.151008e-09	-2.642028e+01	-7.623547e+01
9.600000e-07	-3.775938e-06	-1.138779e-09	-2.618119e+01	-7.589989e+01
9.700000e-07	-3.740985e-06	-1.140523e-09	-2.593883e+01	-7.556266e+01
9.800000e-07	-3.705698e-06	-1.136739e-09	-2.569417e+01	-7.522377e+01
9.900000e-07	-3.670297e-06	-1.125219e-09	-2.544871e+01	-7.488318e+01
1.000000e-06	-3.634786e-06	-1.122578e-09	-2.520248e+01	-7.454082e+01
1.010000e-06	-3.599131e-06	-1.122394e-09	-2.495526e+01	-7.419661e+01
1.020000e-06	-3.563305e-06	-1.109646e-09	-2.470685e+01	-7.385043e+01
1.030000e-06	-3.527278e-06	-1.103366e-09	-2.445705e+01	-7.350214e+01
1.040000e-06	-3.491008e-06	-1.100788e-09	-2.420557e+01	-7.315158e+01
1.050000e-06	-3.454382e-06	-1.091985e-09	-2.395162e+01	-7.279855e+01
1.060000e-06	-3.417434e-06	-1.076733e-09	-2.369543e+01	-7.244283e+01
1.070000e-06	-3.380334e-06	-1.071270e-09	-2.343819e+01	-7.208420e+01
1.080000e-06	-3.342990e-06	-1.066977e-09	-2.317926e+01	-7.172238e+01
1.090000e-06	-3.305409e-06	-1.062472e-09	-2.291868e+01	-7.135712e+01
1.100000e-06	-3.267660e-06	-1.060575e-09	-2.265694e+01	-7.098810e+01
1.110000e-06	-3.229600e-06	-1.056126e-09	-2.239305e+01	-7.061502e+01
1.120000e-06	-3.191256e-06	-1.043144e-09	-2.212718e+01	-7.023756e+01
1.130000e-06	-3.152718e-06	-1.031916e-09	-2.185997e+01	-6.985538e+01
1.140000e-06	-3.114012e-06	-1.024975e-09	-2.159160e+01	-6.946814e+01
1.150000e-06	-3.075062e-06	-1.017275e-09	-2.132153e+01	-6.907550e+01
1.160000e-06	-3.035912e-06	-1.010543e-09	-2.105008e+01	-6.867710e+01
1.170000e-06	-2.996629e-06	-1.008502e-09	-2.077770e+01	-6.827260e+01
1.180000e-06	-2.957188e-06	-1.003207e-09	-2.050423e+01	-6.786163e+01
1.190000e-06	-2.917602e-06	-9.948887e-10	-2.022975e+01	-6.744387e+01
1.200000e-06	-2.877879e-06	-9.888508e-10	-1.995432e+01	-6.701896e+01
1.210000e-06	-2.837987e-06	-9.803008e-10	-1.967773e+01	-6.658659e+01
1.220000e-06	-2.797954e-06	-9.698546e-10	-1.940015e+01	-6.614643e+01
1.230000e-06	-2.757707e-06	-9.614408e-10	-1.912109e+01	-6.569818e+01
1.240000e-06	-2.717240e-06	-9.544673e-10	-1.884050e+01	-6.524156e+01
1.250000e-06	-2.676665e-06	-9.440869e-10	-1.855917e+01	-6.477629e+01
1.260000e-06	-2.635749e-06	-9.366900e-10	-1.827547e+01	-6.430211e+01
1.270000e-06	-2.594543e-06	-9.310911e-10	-1.798976e+01	-6.381881e+01
1.280000e-06	-2.553070e-06	-9.233181e-10	-1.770220e+01	-6.332615e+01
1.290000e-06	-2.511203e-06	-9.150586e-10	-1.741190e+01	-6.282395e+01
1.300000e-06	-2.469005e-06	-9.068067e-10	-1.711932e+01	-6.231205e+01
1.310000e-06	-2.426613e-06	-8.969762e-10	-1.682539e+01	-6.179028e+01
1.320000e-06	-2.384003e-06	-8.886185e-10	-1.652994e+01	-6.125851e+01
1.330000e-06	-2.341109e-06	-8.826555e-10	-1.623253e+01	-6.071665e+01
1.340000e-06	-2.298003e-06	-8.775814e-10	-1.593364e+01	-6.016459e+01
1.350000e-06	-2.254759e-06	-8.693777e-10	-1.563380e+01	-5.960226e+01
1.360000e-06	-2.211501e-06	-8.607688e-10	-1.533386e+01	-5.902961e+01
1.370000e-06	-2.168051e-06	-8.497598e-10	-1.503260e+01	-5.844659e+01
1.380000e-06	-2.124397e-06	-8.389582e-10	-1.472991e+01	-5.785317e+01
1.390000e-06	-2.080744e-06	-8.292703e-10	-1.442723e+01	-5.724934e+01
1.400000e-06	-2.036995e-06	-8.210655e-10	-1.412389e+01	-5.663507e+01
1.410000e-06	-1.993067e-06	-8.127781e-10	-1.381931e+01	-5.601036e+01
1.420000e-06	-1.949089e-06	-8.040919e-10	-1.351438e+01	-5.537521e+01
1.430000e-06	-1.905001e-06	-7.939907e-10	-1.320869e+01	-5.472960e+01
1.440000e-06	-1.860767e-06	-7.830043e-10	-1.290198e+01	-5.407354e+01
1.450000e-06	-1.816467e-06	-7.723420e-10	-1.259482e+01	-5.340700e+01
1.460000e-06	-1.772088e-06	-7.609739e-10	-1.228711e+01	-5.272996e+01
1.470000e-06	-1.727574e-06	-7.470622e-10	-1.197846e+01	-5.204239e+01
1.480000e-06	-1.682840e-06	-7.324166e-10	-1.166829e+01	-5.134424e+01
1.490000e-06	-1.637915e-06	-7.206069e-10	-1.135679e+01	-5.063543e+01
1.500000e-06	-1.592857e-06	-7.107729e-10	-1.104438e+01	-4.991589e+01
1.510000e-06	-1.547692e-06	-7.002062e-10	-1.073122e+01	-4.918551e+01
1.520000e-06	-1.502421e-06	-6.895449e-10	-1.041732e+01	-4.844416e+01
1.530000e-06	-1.457051e-06	-6.751323e-10	-1.010274e+01	-4.769169e+01
1.540000e-06	-1.411662e-06	-6.563238e-10	-9.788030e+00	-4.692791e+01
1.550000e-06	-1.366156e-06	-6.395788e-10	-9.472507e+00	-4.615262e+01
1.560000e-06	-1.320444e-06	-6.247016e-10	-9.155552e+00	-4.536560e+01
1.570000e-06	-1.274598e-06	-6.108584e-10	-8.837668e+00	-4.456657e+01
1.580000e-06	-1.228699e-06	-6.012339e-10	-8.519420e+00	-4.375525e+01
1.590000e-06	-1.182738e-06	-5.931139e-10	-8.200743e+00	-4.293134e+01
1.600000e-06	-1.136742e-06	-5.818453e-10	-7.881821e+00	-4.209449e+01
1.610000e-06	-1.090702e-06	-5.701412e-10	-7.562592e+00	-4.124434e+01
1.620000e-06	-1.044541e-06	-5.576484e-10	-7.242525e+00	-4.038051e+01
1.630000e-06	-9.983999e-07	-5.452947e-10	-6.922597e+00	-3.950261e+01
1.640000e-06	-9.522124e-07	-5.289736e-10	-6.602347e+00	-3.861021e+01
1.650000e-06	-9.058824e-07	-5.097023e-10	-6.281109e+00	-3.770289e+01
1.660000e-06	-8.595506e-07	-4.928302e-10	-5.959859e+00	-3.678021e+01
1.670000e-06	-8.131574e-07	-4.772431e-10	-5.638182e+00	-3.584172e+01
1.680000e-06	-7.665694e-07	-4.622303e-10	-5.315156e+00	-3.488699e+01
1.690000e-06	-7.199618e-07	-4.492723e-10	-4.991993e+00	-3.391558e+01
1.700000e-06	-6.734687e-07	-4.378722e-10	-4.669624e+00	-3.292705e+01
1.710000e-06	-6.269616e-07	-4.245152e-10	-4.347158e+00	-3.192099e+01
1.720000e-06	-5.802578e-07	-4.068301e-10	-4.023329e+00	-3.089700e+01
1.730000e-06	-5.333791e-07	-3.872039e-10	-3.698286e+00	-2.985470e+01
1.740000e-06	-4.865778e-07	-3.675713e-10	-3.373780e+00	-2.879375e+01
1.750000e-06	-4.397955e-07	-3.510684e-10	-3.049406e+00	-2.771384e+01
1.760000e-06	-3.929417e-07	-3.354954e-10	-2.724536e+00	-2.661470e+01
1.770000e-06	-3.460066e-07	-3.196479e-10	-2.399103e+00	-2.549610e+01
1.780000e-06	-2.989245e-07	-3.059580e-10	-2.072650e+00	-2.435786e+01
1.790000e-06	-2.518271e-07	-2.922157e-10	-1.746091e+00	-2.319987e+01
1.800000e-06	-2.048126e-07	-2.734361e-10	-1.420107e+00	-2.202205e+01
1.810000e-06	-1.578366e-07	-2.519883e-10	-1.094390e+00	-2.082442e+01
1.820000e-06	-1.108829e-07	-2.322855e-10	-7.688275e-01	-1.960704e+01
1.830000e-06	-6.390082e-08	-2.133345e-10	-4.430685e-01	-1.837005e+01
1.840000e-06	-1.689884e-08	-1.942644e-10	-1.171713e-01	-1.711365e+01
1.850000e-06	3.008055e-08	-1.766444e-10	2.085693e-01	-1.583814e+01
1.860000e-06	7.702002e-08	-1.611802e-10	5.340330e-01	-1.454388e+01
1.870000e-06	1.239517e-07	-1.442473e-10	8.594431e-01	-1.323133e+01
1.880000e-06	1.709300e-07	-1.271933e-10	1.185176e+00	-1.190099e+01
1.890000e-06	2.178993e-07	-1.092988e-10	1.510846e+00	-1.055348e+01
1.900000e-06	2.649045e-07	-8.846637e-11	1.836766e+00	-9.189493e+00
1.910000e-06	3.118041e-07	-6.627988e-11	2.161954e+00	-7.809781e+00
1.920000e-06	3.586168e-07	-4.651551e-11	2.486538e+00	-6.415191e+00
1.930000e-06	4.055015e-07	-2.910079e-11	2.811622e+00	-5.006642e+00
1.940000e-06	4.522935e-07	-1.146783e-11	3.136063e+00	-3.585122e+00
1.950000e-06	4.990372e-07	3.073979e-12	3.460170e+00	-2.151694e+00
1.960000e-06	5.458073e-07	1.940748e-11	3.784459e+00	-7.074798e-01
1.970000e-06	5.926184e-07	4.002807e-11	4.109033e+00	7.463330e-01
1.980000e-06	6.394614e-07	6.070731e-11	4.433828e+00	2.208504e+00
1.990000e-06	6.861923e-07	8.384064e-11	4.757845e+00	3.677740e+00
2.000000e-06	7.327449e-07	1.075087e-10	5.080626e+00	5.152708e+00
2.010000e-06	7.791351e-07	1.312480e-10	5.402282e+00	6.632031e+00
2.020000e-06	8.255025e-07	1.510133e-10	5.723779e+00	8.114305e+00
2.030000e-06	8.717819e-07	1.681951e-10	6.044667e+00	9.598100e+00
2.040000e-06	9.179891e-07	1.843524e-10	6.365053e+00	1.108197e+01
2.050000e-06	9.642778e-07	2.013755e-10	6.686004e+00	1.256446e+01
2.060000e-06	1.010517e-06	2.212714e-10	7.006611e+00	1.404410e+01
2.070000e-06	1.056623e-06	2.439388e-10	7.326300e+00	1.551944e+01
2.080000e-06	1.102591e-06	2.656637e-10	7.645023e+00	1.698905e+01
2.090000e-06	1.148434e-06	2.860819e-10	7.962889e+00	1.845149e+01
2.100000e-06	1.194242e-06	3.058121e-10	8.280505e+00	1.990537e+01
2.110000e-06	1.240052e-06	3.235465e-10	8.598139e+00	2.134933e+01
2.120000e-06	1.285776e-06	3.410019e-10	8.915177e+00	2.278206e+01
2.130000e-06	1.331392e-06	3.584406e-10	9.231462e+00	2.420226e+01
2.140000e-06	1.376923e-06	3.765513e-10	9.547162e+00	2.560874e+01
2.150000e-06	1.422276e-06	3.943377e-10	9.861619e+00	2.700032e+01
2.160000e-06	1.467457e-06	4.125701e-10	1.017489e+01	2.837591e+01
2.170000e-06	1.512555e-06	4.333161e-10	1.048759e+01	2.973448e+01
2.180000e-06	1.557537e-06	4.541458e-10	1.079948e+01	3.107509e+01
2.190000e-06	1.602453e-06	4.728064e-10	1.111091e+01	3.239685e+01
2.200000e-06	1.647336e-06	4.914423e-10	1.142212e+01	3.369897e+01
2.210000e-06	1.692044e-06	5.065364e-10	1.173211e+01	3.498074e+01
2.220000e-06	1.736530e-06	5.223598e-10	1.204057e+01	3.624152e+01
2.230000e-06	1.780885e-06	5.386072e-10	1.234810e+01	3.748079e+01
2.240000e-06	1.825093e-06	5.528210e-10	1.265463e+01	3.869808e+01
2.250000e-06	1.869202e-06	5.670400e-10	1.296047e+01	3.989302e+01
2.260000e-06	1.913230e-06	5.845569e-10	1.326575e+01	4.106533e+01
2.270000e-06	1.957214e-06	6.037341e-10	1.357072e+01	4.221482e+01
2.280000e-06	2.001151e-06	6.208657e-10	1.387536e+01	4.334135e+01
2.290000e-06	2.044966e-06	6.360392e-10	1.417917e+01	4.444491e+01
2.300000e-06	2.088693e-06	6.499495e-10	1.448235e+01	4.552552e+01
2.310000e-06	2.132342e-06	6.633036e-10	1.478500e+01	4.658330e+01
2.320000e-06	2.175966e-06	6.780034e-10	1.508748e+01	4.761843e+01
2.330000e-06	2.219560e-06	6.927632e-10	1.538974e+01	4.863117e+01
2.340000e-06	2.263035e-06	7.072479e-10	1.569119e+01	4.962182e+01
2.350000e-06	2.306307e-06	7.222799e-10	1.599122e+01	5.059073e+01
2.360000e-06	2.349372e-06	7.369280e-10	1.628982e+01	5.153834e+01
2.370000e-06	2.392165e-06	7.504464e-10	1.658654e+01	5.246508e+01
2.380000e-06	2.434677e-06	7.624627e-10	1.688130e+01	5.337147e+01
2.390000e-06	2.476989e-06	7.745904e-10	1.717468e+01	5.425802e+01
2.400000e-06	2.518898e-06	7.880503e-10	1.746526e+01	5.512529e+01
2.410000e-06	2.560397e-06	8.014104e-10	1.775300e+01	5.597385e+01
2.420000e-06	2.601580e-06	8.131302e-10	1.803855e+01	5.680431e+01
2.430000e-06	2.642412e-06	8.244170e-10	1.832167e+01	5.761724e+01
2.440000e-06	2.683080e-06	8.364261e-10	1.860365e+01	5.841327e+01
2.450000e-06	2.723605e-06	8.494710e-10	1.888464e+01	5.919299e+01
2.460000e-06	2.763875e-06	8.620919e-10	1.916385e+01	5.995699e+01
2.470000e-06	2.803889e-06	8.743375e-10	1.944130e+01	6.070585e+01
2.480000e-06	2.843732e-06	8.870434e-10	1.971756e+01	6.144015e+01
2.490000e-06	2.883485e-06	8.977887e-10	1.999319e+01	6.216043e+01
2.500000e-06	2.923184e-06	9.081703e-10	2.026845e+01	6.286721e+01
2.510000e-06	2.962731e-06	9.200252e-10	2.054266e+01	6.356098e+01
2.520000e-06	3.002187e-06	9.304033e-10	2.081624e+01	6.424221e+01
2.530000e-06	3.041518e-06	9.396420e-10	2.108895e+01	6.491134e+01
2.540000e-06	3.080547e-06	9.465573e-10	2.135956e+01	6.556875e+01
2.550000e-06	3.119241e-06	9.535030e-10	2.162785e+01	6.621482e+01
2.560000e-06	3.157705e-06	9.636939e-10	2.189455e+01	6.684986e+01
2.570000e-06	3.196054e-06	9.764256e-10	2.216045e+01	6.747417e+01
2.580000e-06	3.234230e-06	9.874739e-10	2.242515e+01	6.808799e+01
2.590000e-06	3.272150e-06	9.951615e-10	2.268808e+01	6.869154e+01
2.600000e-06	3.309869e-06	1.001281e-09	2.294961e+01	6.928499e+01
2.610000e-06	3.347395e-06	1.007265e-09	2.320980e+01	6.986849e+01
2.620000e-06	3.384624e-06	1.015536e-09	2.346794e+01	7.044215e+01
2.630000e-06	3.421555e-06	1.025144e-09	2.372400e+01	7.100604e+01
2.640000e-06	3.458247e-06	1.034095e-09	2.397841e+01	7.156021e+01
2.650000e-06	3.494661e-06	1.041640e-09	2.423090e+01	7.210469e+01
2.660000e-06	3.530794e-06	1.049024e-09	2.448144e+01	7.263948e+01
2.670000e-06	3.566797e-06	1.056664e-09	2.473107e+01	7.316455e+01
2.680000e-06	3.602665e-06	1.063354e-09	2.497977e+01	7.367986e+01
2.690000e-06	3.638367e-06	1.069828e-09	2.522731e+01	7.418535e+01
2.700000e-06	3.673937e-06	1.077251e-09	2.547395e+01	7.468097e+01
2.710000e-06	3.709379e-06	1.085931e-09	2.571969e+01	7.516664e+01
2.720000e-06	3.744575e-06	1.094120e-09	2.596372e+01	7.564228e+01
2.730000e-06	3.779499e-06	1.102058e-09	2.620588e+01	7.610781e+01
2.740000e-06	3.814090e-06	1.109468e-09	2.644572e+01	7.656315e+01
2.750000e-06	3.848203e-06	1.115033e-09	2.668225e+01	7.700823e+01
2.760000e-06	3.881791e-06	1.119742e-09	2.691514e+01	7.744300e+01
2.770000e-06	3.914973e-06	1.126437e-09	2.714521e+01	7.786738e+01
2.780000e-06	3.947787e-06	1.134264e-09	2.737274e+01	7.828135e+01
2.790000e-06	3.980116e-06	1.140748e-09	2.759690e+01	7.868487e+01
2.800000e-06	4.012139e-06	1.148773e-09	2.781893e+01	7.907795e+01
2.810000e-06	4.044002e-06	1.156627e-09	2.803986e+01	7.946058e+01
2.820000e-06	4.075719e-06	1.160919e-09	2.825978e+01	7.983280e+01
2.830000e-06	4.107305e-06	1.164651e-09	2.847878e+01	8.019467e+01
2.840000e-06	4.138691e-06	1.168231e-09	2.869641e+01	8.054625e+01
2.850000e-06	4.169831e-06	1.172289e-09	2.891232e+01	8.088764e+01
2.860000e-06	4.200624e-06	1.179753e-09	2.912583e+01	8.121897e+01
2.870000e-06	4.231075e-06	1.187268e-09	2.933697e+01	8.154038e+01
2.880000e-06	4.261203e-06	1.192899e-09	2.954586e+01	8.185202e+01
2.890000e-06	4.291004e-06	1.199881e-09	2.975250e+01	8.215409e+01
2.900000e-06	4.320537e-06	1.206900e-09	2.995727e+01	8.244680e+01
