# Temperatura_=_-0.2
# Concentracion g/m^3_=_1620.0
# C_Vs_to_Am_M_A/Vsm_=_65563218390.804596
# pendiente_HvsI_1/m_=_3716.3
# ordenada_HvsI_A/m_=_1297.0
# frecuencia_Hz_=_135108.80378686878

Tiempo_(s)	Campo_(V.s)	Magnetizacion_(V.s)	Campo_(kA/m)	Magnetizacion_(A/m)
0.000000e+00	-5.508308e-06	-1.038191e-09	-3.836827e+01	-6.784062e+01
1.000000e-08	-5.508554e-06	-1.038584e-09	-3.836999e+01	-6.786165e+01
2.000000e-08	-5.508502e-06	-1.043371e-09	-3.836962e+01	-6.788238e+01
3.000000e-08	-5.508128e-06	-1.047970e-09	-3.836701e+01	-6.790273e+01
4.000000e-08	-5.507360e-06	-1.048555e-09	-3.836167e+01	-6.792262e+01
5.000000e-08	-5.506068e-06	-1.042704e-09	-3.835267e+01	-6.794193e+01
6.000000e-08	-5.504191e-06	-1.028913e-09	-3.833960e+01	-6.796057e+01
7.000000e-08	-5.501746e-06	-1.010418e-09	-3.832256e+01	-6.797843e+01
8.000000e-08	-5.498730e-06	-1.019963e-09	-3.830156e+01	-6.799541e+01
9.000000e-08	-5.495218e-06	-1.075312e-09	-3.827709e+01	-6.801140e+01
1.000000e-07	-5.491250e-06	-1.079810e-09	-3.824945e+01	-6.802628e+01
1.100000e-07	-5.486873e-06	-9.960404e-10	-3.821896e+01	-6.803995e+01
1.200000e-07	-5.482301e-06	-9.722585e-10	-3.818712e+01	-6.805231e+01
1.300000e-07	-5.477502e-06	-1.040229e-09	-3.815369e+01	-6.806325e+01
1.400000e-07	-5.472290e-06	-1.080550e-09	-3.811739e+01	-6.807267e+01
1.500000e-07	-5.466703e-06	-9.831376e-10	-3.807847e+01	-6.808049e+01
1.600000e-07	-5.460863e-06	-9.243369e-10	-3.803779e+01	-6.808662e+01
1.700000e-07	-5.454685e-06	-1.014914e-09	-3.799476e+01	-6.809097e+01
1.800000e-07	-5.447989e-06	-1.075597e-09	-3.794812e+01	-6.809348e+01
1.900000e-07	-5.440813e-06	-1.049895e-09	-3.789813e+01	-6.809408e+01
2.000000e-07	-5.433380e-06	-9.904365e-10	-3.784636e+01	-6.809271e+01
2.100000e-07	-5.425762e-06	-1.052696e-09	-3.779329e+01	-6.808934e+01
2.200000e-07	-5.417865e-06	-1.080781e-09	-3.773829e+01	-6.808391e+01
2.300000e-07	-5.409746e-06	-1.063328e-09	-3.768174e+01	-6.807640e+01
2.400000e-07	-5.401217e-06	-1.020639e-09	-3.762232e+01	-6.806678e+01
2.500000e-07	-5.391971e-06	-1.065555e-09	-3.755792e+01	-6.805503e+01
2.600000e-07	-5.381942e-06	-1.101045e-09	-3.748807e+01	-6.804114e+01
2.700000e-07	-5.371412e-06	-1.094425e-09	-3.741472e+01	-6.802511e+01
2.800000e-07	-5.360463e-06	-1.058356e-09	-3.733845e+01	-6.800693e+01
2.900000e-07	-5.349014e-06	-1.069550e-09	-3.725870e+01	-6.798660e+01
3.000000e-07	-5.337205e-06	-1.087267e-09	-3.717645e+01	-6.796413e+01
3.100000e-07	-5.325015e-06	-1.066353e-09	-3.709154e+01	-6.793953e+01
3.200000e-07	-5.312301e-06	-1.045042e-09	-3.700298e+01	-6.791281e+01
3.300000e-07	-5.299145e-06	-1.055725e-09	-3.691134e+01	-6.788396e+01
3.400000e-07	-5.285718e-06	-1.090841e-09	-3.681782e+01	-6.785299e+01
3.500000e-07	-5.271993e-06	-1.058829e-09	-3.672221e+01	-6.781991e+01
3.600000e-07	-5.257884e-06	-1.043511e-09	-3.662394e+01	-6.778470e+01
3.700000e-07	-5.243258e-06	-1.054445e-09	-3.652206e+01	-6.774736e+01
3.800000e-07	-5.228123e-06	-1.056635e-09	-3.641663e+01	-6.770788e+01
3.900000e-07	-5.212423e-06	-1.014181e-09	-3.630727e+01	-6.766623e+01
4.000000e-07	-5.196122e-06	-1.052694e-09	-3.619373e+01	-6.762238e+01
4.100000e-07	-5.179478e-06	-1.082436e-09	-3.607779e+01	-6.757629e+01
4.200000e-07	-5.162626e-06	-1.033485e-09	-3.596041e+01	-6.752791e+01
4.300000e-07	-5.145393e-06	-1.005358e-09	-3.584038e+01	-6.747718e+01
4.400000e-07	-5.127809e-06	-1.081616e-09	-3.571789e+01	-6.742403e+01
4.500000e-07	-5.109904e-06	-1.062604e-09	-3.559318e+01	-6.736839e+01
4.600000e-07	-5.091535e-06	-9.956842e-10	-3.546523e+01	-6.731016e+01
4.700000e-07	-5.072689e-06	-1.028360e-09	-3.533396e+01	-6.724925e+01
4.800000e-07	-5.053529e-06	-1.077809e-09	-3.520050e+01	-6.718555e+01
4.900000e-07	-5.034153e-06	-1.005404e-09	-3.506553e+01	-6.711895e+01
5.000000e-07	-5.014543e-06	-1.002415e-09	-3.492894e+01	-6.704932e+01
5.100000e-07	-4.994671e-06	-1.057816e-09	-3.479052e+01	-6.697653e+01
5.200000e-07	-4.974501e-06	-1.022695e-09	-3.465002e+01	-6.690046e+01
5.300000e-07	-4.954009e-06	-9.822066e-10	-3.450729e+01	-6.682096e+01
5.400000e-07	-4.933224e-06	-1.051419e-09	-3.436251e+01	-6.673789e+01
5.500000e-07	-4.912134e-06	-1.050741e-09	-3.421560e+01	-6.665111e+01
5.600000e-07	-4.890668e-06	-9.862118e-10	-3.406608e+01	-6.656048e+01
5.700000e-07	-4.868891e-06	-1.008886e-09	-3.391440e+01	-6.646588e+01
5.800000e-07	-4.846774e-06	-1.035567e-09	-3.376034e+01	-6.636716e+01
5.900000e-07	-4.824217e-06	-9.795805e-10	-3.360322e+01	-6.626420e+01
6.000000e-07	-4.801291e-06	-9.778222e-10	-3.344352e+01	-6.615688e+01
6.100000e-07	-4.778032e-06	-1.025015e-09	-3.328151e+01	-6.604510e+01
6.200000e-07	-4.754492e-06	-1.001890e-09	-3.311754e+01	-6.592876e+01
6.300000e-07	-4.730762e-06	-9.819543e-10	-3.295225e+01	-6.580779e+01
6.400000e-07	-4.706803e-06	-1.007569e-09	-3.278537e+01	-6.568211e+01
6.500000e-07	-4.682559e-06	-9.988026e-10	-3.261650e+01	-6.555167e+01
6.600000e-07	-4.657925e-06	-9.699022e-10	-3.244490e+01	-6.541646e+01
6.700000e-07	-4.632847e-06	-9.914704e-10	-3.227022e+01	-6.527644e+01
6.800000e-07	-4.607271e-06	-9.909320e-10	-3.209207e+01	-6.513164e+01
6.900000e-07	-4.581098e-06	-9.712735e-10	-3.190976e+01	-6.498209e+01
7.000000e-07	-4.554411e-06	-9.766941e-10	-3.172388e+01	-6.482782e+01
7.100000e-07	-4.527297e-06	-9.882626e-10	-3.153502e+01	-6.466892e+01
7.200000e-07	-4.499864e-06	-9.664340e-10	-3.134393e+01	-6.450547e+01
7.300000e-07	-4.472219e-06	-9.640658e-10	-3.115137e+01	-6.433759e+01
7.400000e-07	-4.444405e-06	-9.656527e-10	-3.095762e+01	-6.416542e+01
7.500000e-07	-4.416379e-06	-9.603721e-10	-3.076241e+01	-6.398910e+01
7.600000e-07	-4.388062e-06	-9.560123e-10	-3.056516e+01	-6.380882e+01
7.700000e-07	-4.359487e-06	-9.627472e-10	-3.036613e+01	-6.362475e+01
7.800000e-07	-4.330635e-06	-9.500789e-10	-3.016515e+01	-6.343711e+01
7.900000e-07	-4.301415e-06	-9.452160e-10	-2.996163e+01	-6.324611e+01
8.000000e-07	-4.271844e-06	-9.479005e-10	-2.975565e+01	-6.305198e+01
8.100000e-07	-4.241991e-06	-9.434908e-10	-2.954771e+01	-6.285496e+01
8.200000e-07	-4.211867e-06	-9.358143e-10	-2.933788e+01	-6.265530e+01
8.300000e-07	-4.181579e-06	-9.473817e-10	-2.912691e+01	-6.245324e+01
8.400000e-07	-4.151110e-06	-9.495755e-10	-2.891467e+01	-6.224903e+01
8.500000e-07	-4.120229e-06	-9.392794e-10	-2.869957e+01	-6.204292e+01
8.600000e-07	-4.088985e-06	-9.372324e-10	-2.848194e+01	-6.183516e+01
8.700000e-07	-4.057619e-06	-9.369566e-10	-2.826346e+01	-6.162598e+01
8.800000e-07	-4.026111e-06	-9.254837e-10	-2.804398e+01	-6.141560e+01
8.900000e-07	-3.994369e-06	-9.212129e-10	-2.782289e+01	-6.120423e+01
9.000000e-07	-3.962412e-06	-9.267816e-10	-2.760029e+01	-6.099207e+01
9.100000e-07	-3.930179e-06	-9.194998e-10	-2.737577e+01	-6.077928e+01
9.200000e-07	-3.897602e-06	-9.116551e-10	-2.714885e+01	-6.056603e+01
9.300000e-07	-3.864659e-06	-9.140048e-10	-2.691939e+01	-6.035242e+01
9.400000e-07	-3.831324e-06	-9.137200e-10	-2.668720e+01	-6.013857e+01
9.500000e-07	-3.797516e-06	-9.041461e-10	-2.645170e+01	-5.992455e+01
9.600000e-07	-3.763153e-06	-9.056568e-10	-2.621235e+01	-5.971038e+01
9.700000e-07	-3.728367e-06	-9.064903e-10	-2.597004e+01	-5.949607e+01
9.800000e-07	-3.693255e-06	-8.978548e-10	-2.572547e+01	-5.928161e+01
9.900000e-07	-3.657840e-06	-8.882267e-10	-2.547879e+01	-5.906691e+01
1.000000e-06	-3.622267e-06	-8.893511e-10	-2.523100e+01	-5.885189e+01
1.010000e-06	-3.586580e-06	-8.847153e-10	-2.498242e+01	-5.863640e+01
1.020000e-06	-3.550785e-06	-8.823683e-10	-2.473309e+01	-5.842028e+01
1.030000e-06	-3.514887e-06	-8.834817e-10	-2.448304e+01	-5.820333e+01
1.040000e-06	-3.478816e-06	-8.826083e-10	-2.423179e+01	-5.798530e+01
1.050000e-06	-3.442544e-06	-8.725674e-10	-2.397913e+01	-5.776593e+01
1.060000e-06	-3.405994e-06	-8.669967e-10	-2.372454e+01	-5.754491e+01
1.070000e-06	-3.369132e-06	-8.615620e-10	-2.346778e+01	-5.732192e+01
1.080000e-06	-3.331983e-06	-8.546153e-10	-2.320902e+01	-5.709659e+01
1.090000e-06	-3.294534e-06	-8.498045e-10	-2.294817e+01	-5.686856e+01
1.100000e-06	-3.256850e-06	-8.516805e-10	-2.268568e+01	-5.663740e+01
1.110000e-06	-3.218988e-06	-8.489359e-10	-2.242195e+01	-5.640272e+01
1.120000e-06	-3.180864e-06	-8.433266e-10	-2.215639e+01	-5.616407e+01
1.130000e-06	-3.142488e-06	-8.382858e-10	-2.188908e+01	-5.592101e+01
1.140000e-06	-3.103952e-06	-8.331065e-10	-2.162066e+01	-5.567309e+01
1.150000e-06	-3.065280e-06	-8.246650e-10	-2.135129e+01	-5.541986e+01
1.160000e-06	-3.026451e-06	-8.186600e-10	-2.108083e+01	-5.516086e+01
1.170000e-06	-2.987354e-06	-8.151285e-10	-2.080849e+01	-5.489565e+01
1.180000e-06	-2.948000e-06	-8.096819e-10	-2.053437e+01	-5.462379e+01
1.190000e-06	-2.908475e-06	-8.051609e-10	-2.025907e+01	-5.434484e+01
1.200000e-06	-2.868801e-06	-8.016319e-10	-1.998271e+01	-5.405840e+01
1.210000e-06	-2.829021e-06	-7.974697e-10	-1.970562e+01	-5.376407e+01
1.220000e-06	-2.789174e-06	-7.913610e-10	-1.942807e+01	-5.346149e+01
1.230000e-06	-2.749180e-06	-7.853580e-10	-1.914949e+01	-5.315030e+01
1.240000e-06	-2.709011e-06	-7.781442e-10	-1.886969e+01	-5.283019e+01
1.250000e-06	-2.668679e-06	-7.712953e-10	-1.858875e+01	-5.250088e+01
1.260000e-06	-2.628119e-06	-7.640516e-10	-1.830624e+01	-5.216211e+01
1.270000e-06	-2.587301e-06	-7.604888e-10	-1.802192e+01	-5.181367e+01
1.280000e-06	-2.546244e-06	-7.546977e-10	-1.773593e+01	-5.145536e+01
1.290000e-06	-2.504880e-06	-7.469101e-10	-1.744781e+01	-5.108705e+01
1.300000e-06	-2.463172e-06	-7.384497e-10	-1.715729e+01	-5.070861e+01
1.310000e-06	-2.421213e-06	-7.317471e-10	-1.686502e+01	-5.031999e+01
1.320000e-06	-2.378939e-06	-7.243116e-10	-1.657056e+01	-4.992113e+01
1.330000e-06	-2.336329e-06	-7.195997e-10	-1.627377e+01	-4.951204e+01
1.340000e-06	-2.293489e-06	-7.173644e-10	-1.597536e+01	-4.909274e+01
1.350000e-06	-2.250403e-06	-7.146463e-10	-1.567524e+01	-4.866329e+01
1.360000e-06	-2.207102e-06	-7.082059e-10	-1.537363e+01	-4.822380e+01
1.370000e-06	-2.163621e-06	-7.010079e-10	-1.507076e+01	-4.777437e+01
1.380000e-06	-2.119980e-06	-6.935925e-10	-1.476678e+01	-4.731514e+01
1.390000e-06	-2.076248e-06	-6.864290e-10	-1.446216e+01	-4.684628e+01
1.400000e-06	-2.032453e-06	-6.784834e-10	-1.415711e+01	-4.636796e+01
1.410000e-06	-1.988618e-06	-6.706043e-10	-1.385178e+01	-4.588037e+01
1.420000e-06	-1.944731e-06	-6.624757e-10	-1.354608e+01	-4.538371e+01
1.430000e-06	-1.900766e-06	-6.554226e-10	-1.323984e+01	-4.487818e+01
1.440000e-06	-1.856779e-06	-6.516551e-10	-1.293345e+01	-4.436397e+01
1.450000e-06	-1.812730e-06	-6.467230e-10	-1.262662e+01	-4.384127e+01
1.460000e-06	-1.768519e-06	-6.374999e-10	-1.231866e+01	-4.331029e+01
1.470000e-06	-1.724199e-06	-6.279404e-10	-1.200995e+01	-4.277117e+01
1.480000e-06	-1.679727e-06	-6.177811e-10	-1.170019e+01	-4.222407e+01
1.490000e-06	-1.635049e-06	-6.044086e-10	-1.138898e+01	-4.166911e+01
1.500000e-06	-1.590260e-06	-5.924498e-10	-1.107700e+01	-4.110640e+01
1.510000e-06	-1.545367e-06	-5.856835e-10	-1.076429e+01	-4.053600e+01
1.520000e-06	-1.500291e-06	-5.791871e-10	-1.045032e+01	-3.995794e+01
1.530000e-06	-1.455086e-06	-5.697327e-10	-1.013544e+01	-3.937222e+01
1.540000e-06	-1.409816e-06	-5.563483e-10	-9.820109e+00	-3.877879e+01
1.550000e-06	-1.364449e-06	-5.425138e-10	-9.504105e+00	-3.817755e+01
1.560000e-06	-1.318991e-06	-5.326786e-10	-9.187467e+00	-3.756839e+01
1.570000e-06	-1.273493e-06	-5.228414e-10	-8.870553e+00	-3.695111e+01
1.580000e-06	-1.227905e-06	-5.131658e-10	-8.553003e+00	-3.632549e+01
1.590000e-06	-1.182225e-06	-5.023451e-10	-8.234821e+00	-3.569126e+01
1.600000e-06	-1.136437e-06	-4.910789e-10	-7.915886e+00	-3.504810e+01
1.610000e-06	-1.090591e-06	-4.814302e-10	-7.596543e+00	-3.439564e+01
1.620000e-06	-1.044748e-06	-4.712687e-10	-7.277222e+00	-3.373350e+01
1.630000e-06	-9.987914e-07	-4.599238e-10	-6.957109e+00	-3.306121e+01
1.640000e-06	-9.528093e-07	-4.486858e-10	-6.636819e+00	-3.237829e+01
1.650000e-06	-9.068160e-07	-4.373877e-10	-6.316452e+00	-3.168423e+01
1.660000e-06	-8.606652e-07	-4.264353e-10	-5.994987e+00	-3.097847e+01
1.670000e-06	-8.144063e-07	-4.119965e-10	-5.672770e+00	-3.026045e+01
1.680000e-06	-7.681368e-07	-3.978013e-10	-5.350478e+00	-2.952958e+01
1.690000e-06	-7.218352e-07	-3.850631e-10	-5.027963e+00	-2.878524e+01
1.700000e-06	-6.754410e-07	-3.751065e-10	-4.704803e+00	-2.802682e+01
1.710000e-06	-6.289613e-07	-3.665037e-10	-4.381048e+00	-2.725370e+01
1.720000e-06	-5.824326e-07	-3.569843e-10	-4.056951e+00	-2.646526e+01
1.730000e-06	-5.359035e-07	-3.456425e-10	-3.732851e+00	-2.566092e+01
1.740000e-06	-4.893950e-07	-3.325504e-10	-3.408894e+00	-2.484007e+01
1.750000e-06	-4.428244e-07	-3.186435e-10	-3.084506e+00	-2.400216e+01
1.760000e-06	-3.962474e-07	-3.049161e-10	-2.760072e+00	-2.314666e+01
1.770000e-06	-3.496223e-07	-2.915958e-10	-2.435303e+00	-2.227308e+01
1.780000e-06	-3.028797e-07	-2.791557e-10	-2.109717e+00	-2.138099e+01
1.790000e-06	-2.561664e-07	-2.652564e-10	-1.784334e+00	-2.046999e+01
1.800000e-06	-2.094476e-07	-2.488586e-10	-1.458913e+00	-1.953976e+01
1.810000e-06	-1.627541e-07	-2.323228e-10	-1.133668e+00	-1.859003e+01
1.820000e-06	-1.161011e-07	-2.155778e-10	-8.087051e-01	-1.762061e+01
1.830000e-06	-6.941263e-08	-2.003112e-10	-4.834956e-01	-1.663139e+01
1.840000e-06	-2.276614e-08	-1.862805e-10	-1.585782e-01	-1.562234e+01
1.850000e-06	2.386951e-08	-1.747257e-10	1.662637e-01	-1.459350e+01
1.860000e-06	7.059881e-08	-1.643862e-10	4.917580e-01	-1.354503e+01
1.870000e-06	1.173873e-07	-1.500091e-10	8.176647e-01	-1.247717e+01
1.880000e-06	1.640564e-07	-1.334347e-10	1.142739e+00	-1.139023e+01
1.890000e-06	2.106021e-07	-1.165350e-10	1.466955e+00	-1.028466e+01
1.900000e-06	2.571704e-07	-9.727235e-11	1.791327e+00	-9.160983e+00
1.910000e-06	3.038030e-07	-7.938124e-11	2.116148e+00	-8.019819e+00
1.920000e-06	3.504744e-07	-6.369013e-11	2.441239e+00	-6.861892e+00
1.930000e-06	3.971615e-07	-4.989988e-11	2.766440e+00	-5.688020e+00
1.940000e-06	4.437987e-07	-3.499443e-11	3.091292e+00	-4.499112e+00
1.950000e-06	4.903840e-07	-2.010872e-11	3.415783e+00	-3.296169e+00
1.960000e-06	5.369386e-07	-4.408236e-12	3.740061e+00	-2.080278e+00
1.970000e-06	5.833366e-07	1.320514e-11	4.063247e+00	-8.526058e-01
1.980000e-06	6.296054e-07	3.280743e-11	4.385534e+00	3.856024e-01
1.990000e-06	6.759308e-07	5.198755e-11	4.708215e+00	1.633032e+00
2.000000e-06	7.222785e-07	6.955619e-11	5.031051e+00	2.888306e+00
2.010000e-06	7.685167e-07	8.642875e-11	5.353124e+00	4.149988e+00
2.020000e-06	8.146146e-07	1.024874e-10	5.674220e+00	5.416594e+00
2.030000e-06	8.606613e-07	1.176904e-10	5.994960e+00	6.686601e+00
2.040000e-06	9.067006e-07	1.333963e-10	6.315648e+00	7.958450e+00
2.050000e-06	9.527028e-07	1.490885e-10	6.636078e+00	9.230560e+00
2.060000e-06	9.986635e-07	1.645687e-10	6.956218e+00	1.050134e+01
2.070000e-06	1.044500e-06	1.817553e-10	7.275494e+00	1.176917e+01
2.080000e-06	1.090206e-06	2.016223e-10	7.593862e+00	1.303248e+01
2.090000e-06	1.135883e-06	2.213587e-10	7.912025e+00	1.428967e+01
2.100000e-06	1.181529e-06	2.395483e-10	8.229976e+00	1.553917e+01
2.110000e-06	1.227134e-06	2.568274e-10	8.547633e+00	1.677945e+01
2.120000e-06	1.272722e-06	2.725157e-10	8.865181e+00	1.800903e+01
2.130000e-06	1.318145e-06	2.868642e-10	9.181577e+00	1.922644e+01
2.140000e-06	1.363352e-06	2.993175e-10	9.496466e+00	2.043031e+01
2.150000e-06	1.408483e-06	3.117807e-10	9.810829e+00	2.161931e+01
2.160000e-06	1.453545e-06	3.257302e-10	1.012471e+01	2.279217e+01
2.170000e-06	1.498517e-06	3.432476e-10	1.043796e+01	2.394772e+01
2.180000e-06	1.543434e-06	3.632224e-10	1.075083e+01	2.508486e+01
2.190000e-06	1.588251e-06	3.815740e-10	1.106300e+01	2.620257e+01
2.200000e-06	1.632949e-06	3.979117e-10	1.137435e+01	2.729995e+01
2.210000e-06	1.677501e-06	4.116900e-10	1.168468e+01	2.837617e+01
2.220000e-06	1.721910e-06	4.234298e-10	1.199401e+01	2.943049e+01
2.230000e-06	1.766235e-06	4.379896e-10	1.230276e+01	3.046231e+01
2.240000e-06	1.810431e-06	4.488262e-10	1.261061e+01	3.147110e+01
2.250000e-06	1.854504e-06	4.591034e-10	1.291760e+01	3.245644e+01
2.260000e-06	1.898475e-06	4.706554e-10	1.322388e+01	3.341802e+01
2.270000e-06	1.942339e-06	4.843969e-10	1.352942e+01	3.435561e+01
2.280000e-06	1.986155e-06	4.988584e-10	1.383462e+01	3.526912e+01
2.290000e-06	2.029924e-06	5.132840e-10	1.413949e+01	3.615852e+01
2.300000e-06	2.073615e-06	5.269432e-10	1.444382e+01	3.702388e+01
2.310000e-06	2.117244e-06	5.385914e-10	1.474772e+01	3.786538e+01
2.320000e-06	2.160786e-06	5.495946e-10	1.505102e+01	3.868328e+01
2.330000e-06	2.204221e-06	5.556627e-10	1.535356e+01	3.947789e+01
2.340000e-06	2.247482e-06	5.610260e-10	1.565490e+01	4.024964e+01
2.350000e-06	2.290520e-06	5.688653e-10	1.595468e+01	4.099901e+01
2.360000e-06	2.333347e-06	5.787445e-10	1.625299e+01	4.172652e+01
2.370000e-06	2.375909e-06	5.917371e-10	1.654946e+01	4.243279e+01
2.380000e-06	2.418229e-06	6.064410e-10	1.684424e+01	4.311846e+01
2.390000e-06	2.460225e-06	6.191825e-10	1.713676e+01	4.378422e+01
2.400000e-06	2.501820e-06	6.291536e-10	1.742649e+01	4.443078e+01
2.410000e-06	2.543086e-06	6.379585e-10	1.771393e+01	4.505891e+01
2.420000e-06	2.584009e-06	6.476351e-10	1.799898e+01	4.566936e+01
2.430000e-06	2.624671e-06	6.563729e-10	1.828222e+01	4.626293e+01
2.440000e-06	2.665154e-06	6.657904e-10	1.856420e+01	4.684040e+01
2.450000e-06	2.705494e-06	6.764415e-10	1.884519e+01	4.740256e+01
2.460000e-06	2.745724e-06	6.889520e-10	1.912541e+01	4.795020e+01
2.470000e-06	2.785761e-06	6.994683e-10	1.940429e+01	4.848406e+01
2.480000e-06	2.825638e-06	7.079209e-10	1.968206e+01	4.900491e+01
2.490000e-06	2.865408e-06	7.147059e-10	1.995908e+01	4.951346e+01
2.500000e-06	2.904985e-06	7.216527e-10	2.023475e+01	5.001039e+01
2.510000e-06	2.944295e-06	7.298626e-10	2.050857e+01	5.049637e+01
2.520000e-06	2.983460e-06	7.390164e-10	2.078137e+01	5.097202e+01
2.530000e-06	3.022547e-06	7.489142e-10	2.105363e+01	5.143790e+01
2.540000e-06	3.061465e-06	7.574294e-10	2.132472e+01	5.189454e+01
2.550000e-06	3.100118e-06	7.634740e-10	2.159396e+01	5.234242e+01
2.560000e-06	3.138474e-06	7.677406e-10	2.186113e+01	5.278199e+01
2.570000e-06	3.176608e-06	7.721200e-10	2.212675e+01	5.321361e+01
2.580000e-06	3.214520e-06	7.774318e-10	2.239083e+01	5.363763e+01
2.590000e-06	3.252198e-06	7.828107e-10	2.265328e+01	5.405432e+01
2.600000e-06	3.289684e-06	7.879530e-10	2.291439e+01	5.446393e+01
2.610000e-06	3.327017e-06	7.946649e-10	2.317443e+01	5.486662e+01
2.620000e-06	3.364148e-06	8.034768e-10	2.343307e+01	5.526255e+01
2.630000e-06	3.400958e-06	8.117440e-10	2.368947e+01	5.565180e+01
2.640000e-06	3.437475e-06	8.165510e-10	2.394382e+01	5.603443e+01
2.650000e-06	3.473773e-06	8.191090e-10	2.419666e+01	5.641045e+01
2.660000e-06	3.509875e-06	8.207308e-10	2.444813e+01	5.677984e+01
2.670000e-06	3.545866e-06	8.232104e-10	2.469883e+01	5.714253e+01
2.680000e-06	3.581726e-06	8.263466e-10	2.494861e+01	5.749846e+01
2.690000e-06	3.617414e-06	8.323136e-10	2.519720e+01	5.784751e+01
2.700000e-06	3.652994e-06	8.411205e-10	2.544503e+01	5.818955e+01
2.710000e-06	3.688382e-06	8.488240e-10	2.569153e+01	5.852445e+01
2.720000e-06	3.723488e-06	8.549722e-10	2.593606e+01	5.885204e+01
2.730000e-06	3.758314e-06	8.603648e-10	2.617864e+01	5.917217e+01
2.740000e-06	3.792682e-06	8.631557e-10	2.641803e+01	5.948467e+01
2.750000e-06	3.826461e-06	8.641101e-10	2.665332e+01	5.978938e+01
2.760000e-06	3.859702e-06	8.653925e-10	2.688486e+01	6.008614e+01
2.770000e-06	3.892549e-06	8.689872e-10	2.711366e+01	6.037480e+01
2.780000e-06	3.925166e-06	8.736560e-10	2.734085e+01	6.065521e+01
2.790000e-06	3.957525e-06	8.801343e-10	2.756625e+01	6.092727e+01
2.800000e-06	3.989587e-06	8.876559e-10	2.778958e+01	6.119086e+01
2.810000e-06	4.021443e-06	8.932019e-10	2.801147e+01	6.144589e+01
2.820000e-06	4.053134e-06	8.952419e-10	2.823221e+01	6.169232e+01
2.830000e-06	4.084555e-06	8.959654e-10	2.845108e+01	6.193010e+01
2.840000e-06	4.115707e-06	8.976092e-10	2.866807e+01	6.215922e+01
2.850000e-06	4.146616e-06	8.981103e-10	2.888337e+01	6.237971e+01
2.860000e-06	4.177226e-06	8.999215e-10	2.909658e+01	6.259160e+01
2.870000e-06	4.207535e-06	9.041637e-10	2.930770e+01	6.279497e+01
2.880000e-06	4.237559e-06	9.081857e-10	2.951683e+01	6.298993e+01
2.890000e-06	4.267350e-06	9.159999e-10	2.972435e+01	6.317660e+01
2.900000e-06	4.296895e-06	9.226269e-10	2.993014e+01	6.335515e+01
