# Temperatura_=_-2.7
# Concentracion g/m^3_=_1620.0
# C_Vs_to_Am_M_A/Vsm_=_65563218390.804596
# pendiente_HvsI_1/m_=_3716.3
# ordenada_HvsI_A/m_=_1297.0
# frecuencia_Hz_=_135093.58757276798

Tiempo_(s)	Campo_(V.s)	Magnetizacion_(V.s)	Campo_(kA/m)	Magnetizacion_(A/m)
0.000000e+00	-5.531448e-06	-1.051004e-09	-3.837123e+01	-7.064544e+01
1.000000e-08	-5.531562e-06	-1.046989e-09	-3.837202e+01	-7.065202e+01
2.000000e-08	-5.531473e-06	-1.045737e-09	-3.837140e+01	-7.065689e+01
3.000000e-08	-5.531020e-06	-1.046520e-09	-3.836826e+01	-7.065979e+01
4.000000e-08	-5.529988e-06	-1.045078e-09	-3.836110e+01	-7.066045e+01
5.000000e-08	-5.528492e-06	-1.042609e-09	-3.835073e+01	-7.065862e+01
6.000000e-08	-5.526561e-06	-1.036737e-09	-3.833733e+01	-7.065403e+01
7.000000e-08	-5.523993e-06	-1.028102e-09	-3.831951e+01	-7.064641e+01
8.000000e-08	-5.520793e-06	-1.044027e-09	-3.829732e+01	-7.063553e+01
9.000000e-08	-5.517041e-06	-1.067705e-09	-3.827129e+01	-7.062113e+01
1.000000e-07	-5.512902e-06	-1.077311e-09	-3.824258e+01	-7.060297e+01
1.100000e-07	-5.508537e-06	-1.068471e-09	-3.821230e+01	-7.058084e+01
1.200000e-07	-5.503960e-06	-1.018462e-09	-3.818054e+01	-7.055452e+01
1.300000e-07	-5.499191e-06	-1.013675e-09	-3.814747e+01	-7.052382e+01
1.400000e-07	-5.494094e-06	-1.048746e-09	-3.811211e+01	-7.048854e+01
1.500000e-07	-5.488549e-06	-1.031145e-09	-3.807364e+01	-7.044853e+01
1.600000e-07	-5.482628e-06	-1.025872e-09	-3.803257e+01	-7.040364e+01
1.700000e-07	-5.476161e-06	-1.016764e-09	-3.798770e+01	-7.035373e+01
1.800000e-07	-5.469144e-06	-1.083012e-09	-3.793903e+01	-7.029870e+01
1.900000e-07	-5.461848e-06	-1.062575e-09	-3.788842e+01	-7.023847e+01
2.000000e-07	-5.454277e-06	-1.050450e-09	-3.783590e+01	-7.017296e+01
2.100000e-07	-5.446430e-06	-1.042133e-09	-3.778147e+01	-7.010213e+01
2.200000e-07	-5.438374e-06	-1.086898e-09	-3.772558e+01	-7.002597e+01
2.300000e-07	-5.430094e-06	-1.098359e-09	-3.766814e+01	-6.994446e+01
2.400000e-07	-5.421402e-06	-1.094643e-09	-3.760785e+01	-6.985763e+01
2.500000e-07	-5.412070e-06	-1.085199e-09	-3.754311e+01	-6.976553e+01
2.600000e-07	-5.402094e-06	-1.088085e-09	-3.747391e+01	-6.966823e+01
2.700000e-07	-5.391462e-06	-1.087078e-09	-3.740016e+01	-6.956580e+01
2.800000e-07	-5.380274e-06	-1.069126e-09	-3.732255e+01	-6.945837e+01
2.900000e-07	-5.368655e-06	-1.072565e-09	-3.724195e+01	-6.934604e+01
3.000000e-07	-5.356620e-06	-1.062361e-09	-3.715846e+01	-6.922898e+01
3.100000e-07	-5.344303e-06	-1.068484e-09	-3.707302e+01	-6.910735e+01
3.200000e-07	-5.331612e-06	-1.047462e-09	-3.698498e+01	-6.898132e+01
3.300000e-07	-5.318354e-06	-1.061532e-09	-3.689301e+01	-6.885108e+01
3.400000e-07	-5.304738e-06	-1.039362e-09	-3.679856e+01	-6.871685e+01
3.500000e-07	-5.290863e-06	-1.043415e-09	-3.670231e+01	-6.857883e+01
3.600000e-07	-5.276547e-06	-1.032357e-09	-3.660300e+01	-6.843726e+01
3.700000e-07	-5.261718e-06	-1.051189e-09	-3.650014e+01	-6.829237e+01
3.800000e-07	-5.246407e-06	-1.043715e-09	-3.639392e+01	-6.814439e+01
3.900000e-07	-5.230535e-06	-1.054371e-09	-3.628382e+01	-6.799358e+01
4.000000e-07	-5.214126e-06	-1.036650e-09	-3.616999e+01	-6.784017e+01
4.100000e-07	-5.197300e-06	-1.035787e-09	-3.605327e+01	-6.768441e+01
4.200000e-07	-5.180055e-06	-1.030466e-09	-3.593364e+01	-6.752653e+01
4.300000e-07	-5.162563e-06	-1.031922e-09	-3.581230e+01	-6.736679e+01
4.400000e-07	-5.144839e-06	-1.016280e-09	-3.568935e+01	-6.720540e+01
4.500000e-07	-5.126719e-06	-1.033134e-09	-3.556365e+01	-6.704260e+01
4.600000e-07	-5.108218e-06	-1.035940e-09	-3.543531e+01	-6.687858e+01
4.700000e-07	-5.089320e-06	-1.014200e-09	-3.530422e+01	-6.671357e+01
4.800000e-07	-5.070045e-06	-1.008204e-09	-3.517051e+01	-6.654773e+01
4.900000e-07	-5.050515e-06	-1.038029e-09	-3.503503e+01	-6.638126e+01
5.000000e-07	-5.030722e-06	-1.021400e-09	-3.489773e+01	-6.621431e+01
5.100000e-07	-5.010689e-06	-9.937094e-10	-3.475876e+01	-6.604701e+01
5.200000e-07	-4.990361e-06	-1.016564e-09	-3.461775e+01	-6.587951e+01
5.300000e-07	-4.969801e-06	-1.023568e-09	-3.447513e+01	-6.571189e+01
5.400000e-07	-4.948885e-06	-9.949624e-10	-3.433003e+01	-6.554426e+01
5.500000e-07	-4.927510e-06	-1.005303e-09	-3.418176e+01	-6.537667e+01
5.600000e-07	-4.905704e-06	-1.026566e-09	-3.403049e+01	-6.520918e+01
5.700000e-07	-4.883546e-06	-9.907882e-10	-3.387679e+01	-6.504181e+01
5.800000e-07	-4.861183e-06	-9.876206e-10	-3.372165e+01	-6.487458e+01
5.900000e-07	-4.838502e-06	-1.012457e-09	-3.356431e+01	-6.470747e+01
6.000000e-07	-4.815463e-06	-9.909179e-10	-3.340449e+01	-6.454045e+01
6.100000e-07	-4.792097e-06	-9.615066e-10	-3.324241e+01	-6.437348e+01
6.200000e-07	-4.768448e-06	-9.907259e-10	-3.307836e+01	-6.420649e+01
6.300000e-07	-4.744569e-06	-9.792069e-10	-3.291271e+01	-6.403939e+01
6.400000e-07	-4.720443e-06	-9.521403e-10	-3.274535e+01	-6.387209e+01
6.500000e-07	-4.695982e-06	-9.694272e-10	-3.257566e+01	-6.370448e+01
6.600000e-07	-4.671087e-06	-9.849533e-10	-3.240297e+01	-6.353642e+01
6.700000e-07	-4.645674e-06	-9.508579e-10	-3.222668e+01	-6.336779e+01
6.800000e-07	-4.619755e-06	-9.589773e-10	-3.204689e+01	-6.319843e+01
6.900000e-07	-4.593371e-06	-9.695932e-10	-3.186386e+01	-6.302819e+01
7.000000e-07	-4.566492e-06	-9.475921e-10	-3.167740e+01	-6.285691e+01
7.100000e-07	-4.539259e-06	-9.356637e-10	-3.148849e+01	-6.268441e+01
7.200000e-07	-4.511786e-06	-9.557651e-10	-3.129791e+01	-6.251052e+01
7.300000e-07	-4.484030e-06	-9.387326e-10	-3.110537e+01	-6.233507e+01
7.400000e-07	-4.456072e-06	-9.247606e-10	-3.091143e+01	-6.215787e+01
7.500000e-07	-4.427919e-06	-9.353355e-10	-3.071613e+01	-6.197877e+01
7.600000e-07	-4.399587e-06	-9.289722e-10	-3.051960e+01	-6.179758e+01
7.700000e-07	-4.370915e-06	-9.085820e-10	-3.032070e+01	-6.161413e+01
7.800000e-07	-4.341863e-06	-9.178929e-10	-3.011917e+01	-6.142827e+01
7.900000e-07	-4.312526e-06	-9.192988e-10	-2.991566e+01	-6.123983e+01
8.000000e-07	-4.282861e-06	-9.015314e-10	-2.970988e+01	-6.104868e+01
8.100000e-07	-4.252899e-06	-9.003061e-10	-2.950204e+01	-6.085467e+01
8.200000e-07	-4.222620e-06	-9.040746e-10	-2.929199e+01	-6.065767e+01
8.300000e-07	-4.192072e-06	-8.893994e-10	-2.908008e+01	-6.045756e+01
8.400000e-07	-4.161200e-06	-8.827293e-10	-2.886592e+01	-6.025425e+01
8.500000e-07	-4.130003e-06	-8.928913e-10	-2.864952e+01	-6.004763e+01
8.600000e-07	-4.098621e-06	-8.856641e-10	-2.843182e+01	-5.983763e+01
8.700000e-07	-4.067040e-06	-8.766113e-10	-2.821274e+01	-5.962418e+01
8.800000e-07	-4.035267e-06	-8.797629e-10	-2.799233e+01	-5.940722e+01
8.900000e-07	-4.003316e-06	-8.777571e-10	-2.777070e+01	-5.918671e+01
9.000000e-07	-3.971166e-06	-8.622897e-10	-2.754767e+01	-5.896261e+01
9.100000e-07	-3.938725e-06	-8.626226e-10	-2.732263e+01	-5.873492e+01
9.200000e-07	-3.905976e-06	-8.596997e-10	-2.709546e+01	-5.850363e+01
9.300000e-07	-3.872868e-06	-8.511261e-10	-2.686579e+01	-5.826873e+01
9.400000e-07	-3.839200e-06	-8.479991e-10	-2.663223e+01	-5.803024e+01
9.500000e-07	-3.805000e-06	-8.546671e-10	-2.639499e+01	-5.778819e+01
9.600000e-07	-3.770421e-06	-8.472107e-10	-2.615512e+01	-5.754261e+01
9.700000e-07	-3.735411e-06	-8.433699e-10	-2.591226e+01	-5.729354e+01
9.800000e-07	-3.700065e-06	-8.457978e-10	-2.566707e+01	-5.704101e+01
9.900000e-07	-3.664496e-06	-8.433484e-10	-2.542033e+01	-5.678509e+01
1.000000e-06	-3.628739e-06	-8.325233e-10	-2.517228e+01	-5.652582e+01
1.010000e-06	-3.592885e-06	-8.320673e-10	-2.492357e+01	-5.626325e+01
1.020000e-06	-3.556912e-06	-8.285374e-10	-2.467402e+01	-5.599743e+01
1.030000e-06	-3.520753e-06	-8.198029e-10	-2.442319e+01	-5.572843e+01
1.040000e-06	-3.484431e-06	-8.148858e-10	-2.417123e+01	-5.545629e+01
1.050000e-06	-3.447943e-06	-8.133379e-10	-2.391811e+01	-5.518105e+01
1.060000e-06	-3.411081e-06	-8.020642e-10	-2.366241e+01	-5.490276e+01
1.070000e-06	-3.373848e-06	-7.951785e-10	-2.340412e+01	-5.462145e+01
1.080000e-06	-3.336417e-06	-7.964271e-10	-2.314447e+01	-5.433715e+01
1.090000e-06	-3.298813e-06	-7.933664e-10	-2.288361e+01	-5.404986e+01
1.100000e-06	-3.260956e-06	-7.854939e-10	-2.262100e+01	-5.375961e+01
1.110000e-06	-3.222799e-06	-7.793567e-10	-2.235631e+01	-5.346638e+01
1.120000e-06	-3.184472e-06	-7.713069e-10	-2.209044e+01	-5.317016e+01
1.130000e-06	-3.145906e-06	-7.614450e-10	-2.182290e+01	-5.287092e+01
1.140000e-06	-3.107120e-06	-7.597216e-10	-2.155385e+01	-5.256861e+01
1.150000e-06	-3.068203e-06	-7.571301e-10	-2.128389e+01	-5.226317e+01
1.160000e-06	-3.029074e-06	-7.517564e-10	-2.101246e+01	-5.195454e+01
1.170000e-06	-2.989781e-06	-7.486638e-10	-2.073988e+01	-5.164262e+01
1.180000e-06	-2.950326e-06	-7.479336e-10	-2.046618e+01	-5.132731e+01
1.190000e-06	-2.910713e-06	-7.426345e-10	-2.019139e+01	-5.100849e+01
1.200000e-06	-2.870995e-06	-7.377941e-10	-1.991587e+01	-5.068604e+01
1.210000e-06	-2.831047e-06	-7.314414e-10	-1.963875e+01	-5.035978e+01
1.220000e-06	-2.790865e-06	-7.237693e-10	-1.936002e+01	-5.002958e+01
1.230000e-06	-2.750563e-06	-7.162496e-10	-1.908044e+01	-4.969523e+01
1.240000e-06	-2.710171e-06	-7.134745e-10	-1.880025e+01	-4.935656e+01
1.250000e-06	-2.669653e-06	-7.071392e-10	-1.851918e+01	-4.901336e+01
1.260000e-06	-2.628892e-06	-7.024957e-10	-1.823642e+01	-4.866540e+01
1.270000e-06	-2.587867e-06	-6.994468e-10	-1.795183e+01	-4.831247e+01
1.280000e-06	-2.546604e-06	-6.960696e-10	-1.766560e+01	-4.795430e+01
1.290000e-06	-2.505050e-06	-6.896703e-10	-1.737734e+01	-4.759067e+01
1.300000e-06	-2.463150e-06	-6.820811e-10	-1.708668e+01	-4.722129e+01
1.310000e-06	-2.420875e-06	-6.749204e-10	-1.679342e+01	-4.684591e+01
1.320000e-06	-2.378279e-06	-6.679345e-10	-1.649794e+01	-4.646425e+01
1.330000e-06	-2.335474e-06	-6.603829e-10	-1.620101e+01	-4.607603e+01
1.340000e-06	-2.292421e-06	-6.545661e-10	-1.590235e+01	-4.568096e+01
1.350000e-06	-2.249131e-06	-6.471656e-10	-1.560205e+01	-4.527875e+01
1.360000e-06	-2.205707e-06	-6.390543e-10	-1.530082e+01	-4.486910e+01
1.370000e-06	-2.162181e-06	-6.313137e-10	-1.499889e+01	-4.445173e+01
1.380000e-06	-2.118521e-06	-6.266307e-10	-1.469602e+01	-4.402633e+01
1.390000e-06	-2.074706e-06	-6.211865e-10	-1.439207e+01	-4.359261e+01
1.400000e-06	-2.030774e-06	-6.140604e-10	-1.408733e+01	-4.315027e+01
1.410000e-06	-1.986781e-06	-6.053776e-10	-1.378215e+01	-4.269903e+01
1.420000e-06	-1.942732e-06	-5.950443e-10	-1.347658e+01	-4.223858e+01
1.430000e-06	-1.898614e-06	-5.852678e-10	-1.317054e+01	-4.176866e+01
1.440000e-06	-1.854402e-06	-5.757762e-10	-1.286385e+01	-4.128897e+01
1.450000e-06	-1.810065e-06	-5.673098e-10	-1.255628e+01	-4.079924e+01
1.460000e-06	-1.765590e-06	-5.582006e-10	-1.224776e+01	-4.029919e+01
1.470000e-06	-1.721036e-06	-5.487430e-10	-1.193869e+01	-3.978857e+01
1.480000e-06	-1.676341e-06	-5.403313e-10	-1.162865e+01	-3.926711e+01
1.490000e-06	-1.631484e-06	-5.319152e-10	-1.131748e+01	-3.873457e+01
1.500000e-06	-1.586509e-06	-5.220404e-10	-1.100549e+01	-3.819070e+01
1.510000e-06	-1.541348e-06	-5.121419e-10	-1.069221e+01	-3.763526e+01
1.520000e-06	-1.496063e-06	-4.997175e-10	-1.037807e+01	-3.706803e+01
1.530000e-06	-1.450718e-06	-4.873809e-10	-1.006352e+01	-3.648879e+01
1.540000e-06	-1.405354e-06	-4.755260e-10	-9.748830e+00	-3.589733e+01
1.550000e-06	-1.359870e-06	-4.659650e-10	-9.433315e+00	-3.529345e+01
1.560000e-06	-1.314227e-06	-4.565437e-10	-9.116689e+00	-3.467696e+01
1.570000e-06	-1.268526e-06	-4.495599e-10	-8.799670e+00	-3.404766e+01
1.580000e-06	-1.222767e-06	-4.433012e-10	-8.482237e+00	-3.340540e+01
1.590000e-06	-1.176901e-06	-4.351463e-10	-8.164075e+00	-3.275001e+01
1.600000e-06	-1.130946e-06	-4.246992e-10	-7.845289e+00	-3.208132e+01
1.610000e-06	-1.084942e-06	-4.151370e-10	-7.526160e+00	-3.139921e+01
1.620000e-06	-1.038858e-06	-4.057038e-10	-7.206476e+00	-3.070354e+01
1.630000e-06	-9.927564e-07	-3.955487e-10	-6.886675e+00	-2.999418e+01
1.640000e-06	-9.465386e-07	-3.847584e-10	-6.566065e+00	-2.927103e+01
1.650000e-06	-9.001230e-07	-3.730827e-10	-6.244084e+00	-2.853399e+01
1.660000e-06	-8.537171e-07	-3.614047e-10	-5.922170e+00	-2.778297e+01
1.670000e-06	-8.072867e-07	-3.518523e-10	-5.600086e+00	-2.701790e+01
1.680000e-06	-7.608401e-07	-3.433675e-10	-5.277889e+00	-2.623872e+01
1.690000e-06	-7.144142e-07	-3.349468e-10	-4.955836e+00	-2.544538e+01
1.700000e-06	-6.678823e-07	-3.254787e-10	-4.633048e+00	-2.463785e+01
1.710000e-06	-6.212153e-07	-3.124631e-10	-4.309323e+00	-2.381612e+01
1.720000e-06	-5.745575e-07	-2.971064e-10	-3.985661e+00	-2.298018e+01
1.730000e-06	-5.278993e-07	-2.809400e-10	-3.661996e+00	-2.213006e+01
1.740000e-06	-4.811333e-07	-2.663663e-10	-3.337585e+00	-2.126579e+01
1.750000e-06	-4.343380e-07	-2.531782e-10	-3.012969e+00	-2.038742e+01
1.760000e-06	-3.875128e-07	-2.403213e-10	-2.688146e+00	-1.949504e+01
1.770000e-06	-3.406582e-07	-2.289937e-10	-2.363120e+00	-1.858873e+01
1.780000e-06	-2.937967e-07	-2.208304e-10	-2.038045e+00	-1.766862e+01
1.790000e-06	-2.469755e-07	-2.117196e-10	-1.713250e+00	-1.673485e+01
1.800000e-06	-2.001022e-07	-1.968165e-10	-1.388094e+00	-1.578758e+01
1.810000e-06	-1.531481e-07	-1.785501e-10	-1.062377e+00	-1.482700e+01
1.820000e-06	-1.061676e-07	-1.616860e-10	-7.364767e-01	-1.385334e+01
1.830000e-06	-5.919083e-08	-1.466120e-10	-4.106022e-01	-1.286683e+01
1.840000e-06	-1.232372e-08	-1.338607e-10	-8.548867e-02	-1.186775e+01
1.850000e-06	3.448567e-08	-1.217038e-10	2.392245e-01	-1.085639e+01
1.860000e-06	8.131887e-08	-1.100754e-10	5.641027e-01	-9.833093e+00
1.870000e-06	1.281865e-07	-9.806591e-11	8.892195e-01	-8.798209e+00
1.880000e-06	1.750962e-07	-8.402792e-11	1.214629e+00	-7.752131e+00
1.890000e-06	2.219082e-07	-6.842795e-11	1.539360e+00	-6.695277e+00
1.900000e-06	2.686501e-07	-5.341490e-11	1.863605e+00	-5.628099e+00
1.910000e-06	3.154403e-07	-3.866652e-11	2.188185e+00	-4.551079e+00
1.920000e-06	3.622853e-07	-2.383736e-11	2.513145e+00	-3.464728e+00
1.930000e-06	4.090918e-07	-9.920710e-12	2.837839e+00	-2.369590e+00
1.940000e-06	4.558574e-07	3.221631e-12	3.162248e+00	-1.266237e+00
1.950000e-06	5.026244e-07	1.615714e-11	3.486667e+00	-1.552706e-01
1.960000e-06	5.493139e-07	2.946909e-11	3.810548e+00	9.626778e-01
1.970000e-06	5.959075e-07	4.318235e-11	4.133764e+00	2.086950e+00
1.980000e-06	6.424161e-07	5.781782e-11	4.456391e+00	3.216863e+00
1.990000e-06	6.889244e-07	7.329688e-11	4.779015e+00	4.351705e+00
2.000000e-06	7.353918e-07	8.939214e-11	5.101356e+00	5.490745e+00
2.010000e-06	7.818083e-07	1.069208e-10	5.423344e+00	6.633228e+00
2.020000e-06	8.282161e-07	1.249109e-10	5.745271e+00	7.778379e+00
2.030000e-06	8.745369e-07	1.426175e-10	6.066595e+00	8.925406e+00
2.040000e-06	9.207643e-07	1.590817e-10	6.387271e+00	1.007350e+01
2.050000e-06	9.668894e-07	1.744627e-10	6.707237e+00	1.122185e+01
2.060000e-06	1.012971e-06	1.890155e-10	7.026904e+00	1.236961e+01
2.070000e-06	1.059058e-06	2.066965e-10	7.346604e+00	1.351594e+01
2.080000e-06	1.105078e-06	2.251743e-10	7.665843e+00	1.466001e+01
2.090000e-06	1.151004e-06	2.415109e-10	7.984426e+00	1.580096e+01
2.100000e-06	1.196846e-06	2.567615e-10	8.302425e+00	1.693796e+01
2.110000e-06	1.242625e-06	2.708728e-10	8.619992e+00	1.807014e+01
2.120000e-06	1.288267e-06	2.856306e-10	8.936606e+00	1.919669e+01
2.130000e-06	1.333749e-06	3.012839e-10	9.252111e+00	2.031676e+01
2.140000e-06	1.379149e-06	3.183676e-10	9.567053e+00	2.142955e+01
2.150000e-06	1.424485e-06	3.344347e-10	9.881541e+00	2.253425e+01
2.160000e-06	1.469755e-06	3.517426e-10	1.019558e+01	2.363009e+01
2.170000e-06	1.515011e-06	3.690915e-10	1.050951e+01	2.471630e+01
2.180000e-06	1.560170e-06	3.841877e-10	1.082278e+01	2.579215e+01
2.190000e-06	1.605140e-06	3.962004e-10	1.113473e+01	2.685692e+01
2.200000e-06	1.649881e-06	4.089522e-10	1.144510e+01	2.790993e+01
2.210000e-06	1.694420e-06	4.244797e-10	1.175406e+01	2.895054e+01
2.220000e-06	1.738965e-06	4.412791e-10	1.206307e+01	2.997813e+01
2.230000e-06	1.783401e-06	4.579462e-10	1.237132e+01	3.099212e+01
2.240000e-06	1.827640e-06	4.722013e-10	1.267820e+01	3.199196e+01
2.250000e-06	1.871765e-06	4.834477e-10	1.298429e+01	3.297715e+01
2.260000e-06	1.915782e-06	4.942813e-10	1.328963e+01	3.394723e+01
2.270000e-06	1.959786e-06	5.042786e-10	1.359489e+01	3.490178e+01
2.280000e-06	2.003753e-06	5.144072e-10	1.389988e+01	3.584042e+01
2.290000e-06	2.047631e-06	5.244161e-10	1.420426e+01	3.676281e+01
2.300000e-06	2.091451e-06	5.362649e-10	1.450823e+01	3.766866e+01
2.310000e-06	2.135182e-06	5.500222e-10	1.481159e+01	3.855773e+01
2.320000e-06	2.178877e-06	5.632629e-10	1.511471e+01	3.942982e+01
2.330000e-06	2.222487e-06	5.770210e-10	1.541722e+01	4.028476e+01
2.340000e-06	2.265925e-06	5.878434e-10	1.571855e+01	4.112245e+01
2.350000e-06	2.309185e-06	5.969423e-10	1.601864e+01	4.194281e+01
2.360000e-06	2.352141e-06	6.051773e-10	1.631662e+01	4.274581e+01
2.370000e-06	2.394842e-06	6.137871e-10	1.661283e+01	4.353147e+01
2.380000e-06	2.437321e-06	6.226453e-10	1.690751e+01	4.429984e+01
2.390000e-06	2.479519e-06	6.331258e-10	1.720024e+01	4.505100e+01
2.400000e-06	2.521441e-06	6.454676e-10	1.749104e+01	4.578508e+01
2.410000e-06	2.562975e-06	6.573746e-10	1.777916e+01	4.650223e+01
2.420000e-06	2.604153e-06	6.686352e-10	1.806481e+01	4.720266e+01
2.430000e-06	2.644989e-06	6.783421e-10	1.834809e+01	4.788658e+01
2.440000e-06	2.685507e-06	6.868851e-10	1.862915e+01	4.855424e+01
2.450000e-06	2.725882e-06	6.955670e-10	1.890923e+01	4.920592e+01
2.460000e-06	2.766100e-06	7.058394e-10	1.918822e+01	4.984190e+01
2.470000e-06	2.806197e-06	7.164561e-10	1.946637e+01	5.046251e+01
2.480000e-06	2.846188e-06	7.248696e-10	1.974378e+01	5.106808e+01
2.490000e-06	2.886001e-06	7.339626e-10	2.001996e+01	5.165897e+01
2.500000e-06	2.925691e-06	7.449723e-10	2.029530e+01	5.223552e+01
2.510000e-06	2.965362e-06	7.529178e-10	2.057049e+01	5.279812e+01
2.520000e-06	3.004855e-06	7.612508e-10	2.084445e+01	5.334713e+01
2.530000e-06	3.044052e-06	7.678380e-10	2.111635e+01	5.388295e+01
2.540000e-06	3.082994e-06	7.723795e-10	2.138649e+01	5.440595e+01
2.550000e-06	3.121669e-06	7.760609e-10	2.165478e+01	5.491652e+01
2.560000e-06	3.160175e-06	7.828786e-10	2.192189e+01	5.541504e+01
2.570000e-06	3.198508e-06	7.943687e-10	2.218780e+01	5.590189e+01
2.580000e-06	3.236586e-06	8.046707e-10	2.245194e+01	5.637743e+01
2.590000e-06	3.274485e-06	8.144599e-10	2.271485e+01	5.684204e+01
2.600000e-06	3.312179e-06	8.186786e-10	2.297633e+01	5.729605e+01
2.610000e-06	3.349577e-06	8.208418e-10	2.323575e+01	5.773980e+01
2.620000e-06	3.386760e-06	8.228108e-10	2.349369e+01	5.817364e+01
2.630000e-06	3.423748e-06	8.276457e-10	2.375027e+01	5.859785e+01
2.640000e-06	3.460459e-06	8.360598e-10	2.400494e+01	5.901275e+01
2.650000e-06	3.496898e-06	8.463670e-10	2.425771e+01	5.941860e+01
2.660000e-06	3.533121e-06	8.583518e-10	2.450899e+01	5.981568e+01
2.670000e-06	3.569156e-06	8.672532e-10	2.475896e+01	6.020422e+01
2.680000e-06	3.605049e-06	8.709580e-10	2.500795e+01	6.058445e+01
2.690000e-06	3.640850e-06	8.709404e-10	2.525629e+01	6.095658e+01
2.700000e-06	3.676558e-06	8.690860e-10	2.550400e+01	6.132079e+01
2.710000e-06	3.711998e-06	8.697945e-10	2.574985e+01	6.167726e+01
2.720000e-06	3.747243e-06	8.756701e-10	2.599434e+01	6.202615e+01
2.730000e-06	3.782193e-06	8.877045e-10	2.623678e+01	6.236758e+01
2.740000e-06	3.816641e-06	8.991852e-10	2.647574e+01	6.270167e+01
2.750000e-06	3.850581e-06	9.095225e-10	2.671119e+01	6.302854e+01
2.760000e-06	3.884027e-06	9.177410e-10	2.694320e+01	6.334825e+01
2.770000e-06	3.916980e-06	9.210488e-10	2.717179e+01	6.366089e+01
2.780000e-06	3.949473e-06	9.218066e-10	2.739719e+01	6.396651e+01
2.790000e-06	3.981730e-06	9.233523e-10	2.762096e+01	6.426516e+01
2.800000e-06	4.013793e-06	9.282533e-10	2.784337e+01	6.455687e+01
2.810000e-06	4.045672e-06	9.360885e-10	2.806452e+01	6.484167e+01
2.820000e-06	4.077384e-06	9.459756e-10	2.828450e+01	6.511956e+01
2.830000e-06	4.108946e-06	9.529866e-10	2.850345e+01	6.539055e+01
2.840000e-06	4.140296e-06	9.593174e-10	2.872091e+01	6.565464e+01
2.850000e-06	4.171384e-06	9.641865e-10	2.893657e+01	6.591182e+01
2.860000e-06	4.202106e-06	9.699091e-10	2.914969e+01	6.616208e+01
2.870000e-06	4.232485e-06	9.732244e-10	2.936042e+01	6.640540e+01
2.880000e-06	4.262574e-06	9.745590e-10	2.956915e+01	6.664177e+01
2.890000e-06	4.292362e-06	9.769372e-10	2.977579e+01	6.687116e+01
2.900000e-06	4.321928e-06	9.809617e-10	2.998088e+01	6.709356e+01
