# Temperatura_=_13.3
# Concentracion g/m^3_=_1620.0
# C_Vs_to_Am_M_A/Vsm_=_65563218390.804596
# pendiente_HvsI_1/m_=_3716.3
# ordenada_HvsI_A/m_=_1297.0
# frecuencia_Hz_=_135105.18159599602

Tiempo_(s)	Campo_(V.s)	Magnetizacion_(V.s)	Campo_(kA/m)	Magnetizacion_(A/m)
0.000000e+00	-5.519493e-06	-7.617339e-10	-3.836610e+01	-5.181602e+01
1.000000e-08	-5.519644e-06	-7.635733e-10	-3.836715e+01	-5.179948e+01
2.000000e-08	-5.519543e-06	-7.673253e-10	-3.836645e+01	-5.178201e+01
3.000000e-08	-5.519182e-06	-7.706967e-10	-3.836394e+01	-5.176369e+01
4.000000e-08	-5.518421e-06	-7.703207e-10	-3.835865e+01	-5.174459e+01
5.000000e-08	-5.517097e-06	-7.667534e-10	-3.834945e+01	-5.172479e+01
6.000000e-08	-5.515182e-06	-7.572614e-10	-3.833614e+01	-5.170439e+01
7.000000e-08	-5.512737e-06	-7.433981e-10	-3.831914e+01	-5.168345e+01
8.000000e-08	-5.509795e-06	-7.736069e-10	-3.829869e+01	-5.166205e+01
9.000000e-08	-5.506330e-06	-8.120443e-10	-3.827460e+01	-5.164028e+01
1.000000e-07	-5.502367e-06	-7.476094e-10	-3.824706e+01	-5.161821e+01
1.100000e-07	-5.498032e-06	-6.707448e-10	-3.821693e+01	-5.159590e+01
1.200000e-07	-5.493569e-06	-7.344564e-10	-3.818590e+01	-5.157344e+01
1.300000e-07	-5.488897e-06	-8.003256e-10	-3.815342e+01	-5.155090e+01
1.400000e-07	-5.483790e-06	-7.873154e-10	-3.811793e+01	-5.152833e+01
1.500000e-07	-5.478323e-06	-6.623338e-10	-3.807993e+01	-5.150581e+01
1.600000e-07	-5.472525e-06	-7.226743e-10	-3.803963e+01	-5.148338e+01
1.700000e-07	-5.466228e-06	-7.962758e-10	-3.799585e+01	-5.146112e+01
1.800000e-07	-5.459470e-06	-7.779781e-10	-3.794888e+01	-5.143906e+01
1.900000e-07	-5.452360e-06	-6.897362e-10	-3.789946e+01	-5.141725e+01
2.000000e-07	-5.444950e-06	-7.039621e-10	-3.784795e+01	-5.139573e+01
2.100000e-07	-5.437231e-06	-7.867994e-10	-3.779430e+01	-5.137452e+01
2.200000e-07	-5.429236e-06	-7.911735e-10	-3.773872e+01	-5.135366e+01
2.300000e-07	-5.421025e-06	-7.557544e-10	-3.768165e+01	-5.133316e+01
2.400000e-07	-5.412422e-06	-7.372417e-10	-3.762185e+01	-5.131302e+01
2.500000e-07	-5.403138e-06	-7.814980e-10	-3.755732e+01	-5.129324e+01
2.600000e-07	-5.393203e-06	-7.769503e-10	-3.748826e+01	-5.127381e+01
2.700000e-07	-5.382765e-06	-7.809525e-10	-3.741570e+01	-5.125470e+01
2.800000e-07	-5.371813e-06	-7.644879e-10	-3.733957e+01	-5.123589e+01
2.900000e-07	-5.360451e-06	-8.013584e-10	-3.726060e+01	-5.121733e+01
3.000000e-07	-5.348726e-06	-7.945780e-10	-3.717910e+01	-5.119896e+01
3.100000e-07	-5.336479e-06	-7.938061e-10	-3.709397e+01	-5.118071e+01
3.200000e-07	-5.323700e-06	-7.620503e-10	-3.700514e+01	-5.116250e+01
3.300000e-07	-5.310587e-06	-7.950596e-10	-3.691399e+01	-5.114425e+01
3.400000e-07	-5.297204e-06	-7.933872e-10	-3.682096e+01	-5.112584e+01
3.500000e-07	-5.283460e-06	-7.724611e-10	-3.672543e+01	-5.110716e+01
3.600000e-07	-5.269350e-06	-7.615957e-10	-3.662735e+01	-5.108809e+01
3.700000e-07	-5.254899e-06	-8.041976e-10	-3.652691e+01	-5.106849e+01
3.800000e-07	-5.239842e-06	-7.782106e-10	-3.642224e+01	-5.104821e+01
3.900000e-07	-5.223997e-06	-7.597199e-10	-3.631210e+01	-5.102709e+01
4.000000e-07	-5.207657e-06	-7.957795e-10	-3.619853e+01	-5.100496e+01
4.100000e-07	-5.191037e-06	-7.890727e-10	-3.608299e+01	-5.098165e+01
4.200000e-07	-5.174009e-06	-7.247364e-10	-3.596463e+01	-5.095697e+01
4.300000e-07	-5.156666e-06	-7.606545e-10	-3.584408e+01	-5.093075e+01
4.400000e-07	-5.139095e-06	-8.202328e-10	-3.572195e+01	-5.090278e+01
4.500000e-07	-5.121154e-06	-7.525578e-10	-3.559724e+01	-5.087288e+01
4.600000e-07	-5.102803e-06	-7.312775e-10	-3.546968e+01	-5.084084e+01
4.700000e-07	-5.084146e-06	-8.021693e-10	-3.533999e+01	-5.080647e+01
4.800000e-07	-5.065067e-06	-7.862941e-10	-3.520738e+01	-5.076957e+01
4.900000e-07	-5.045566e-06	-7.177737e-10	-3.507183e+01	-5.072996e+01
5.000000e-07	-5.025890e-06	-7.790993e-10	-3.493506e+01	-5.068744e+01
5.100000e-07	-5.006018e-06	-7.904962e-10	-3.479693e+01	-5.064183e+01
5.200000e-07	-4.985826e-06	-7.247746e-10	-3.465657e+01	-5.059298e+01
5.300000e-07	-4.965319e-06	-7.496081e-10	-3.451403e+01	-5.054070e+01
5.400000e-07	-4.944508e-06	-8.119156e-10	-3.436937e+01	-5.048486e+01
5.500000e-07	-4.923311e-06	-7.399921e-10	-3.422203e+01	-5.042531e+01
5.600000e-07	-4.901717e-06	-7.265983e-10	-3.407193e+01	-5.036194e+01
5.700000e-07	-4.879829e-06	-7.878336e-10	-3.391978e+01	-5.029464e+01
5.800000e-07	-4.857669e-06	-7.680316e-10	-3.376575e+01	-5.022333e+01
5.900000e-07	-4.835198e-06	-7.154448e-10	-3.360955e+01	-5.014792e+01
6.000000e-07	-4.812396e-06	-7.666763e-10	-3.345106e+01	-5.006838e+01
6.100000e-07	-4.789218e-06	-7.673471e-10	-3.328995e+01	-4.998468e+01
6.200000e-07	-4.765688e-06	-7.233357e-10	-3.312639e+01	-4.989681e+01
6.300000e-07	-4.741930e-06	-7.410975e-10	-3.296125e+01	-4.980478e+01
6.400000e-07	-4.717952e-06	-7.683536e-10	-3.279458e+01	-4.970862e+01
6.500000e-07	-4.693619e-06	-7.317626e-10	-3.262544e+01	-4.960840e+01
6.600000e-07	-4.668895e-06	-7.390452e-10	-3.245358e+01	-4.950419e+01
6.700000e-07	-4.643744e-06	-7.633165e-10	-3.227875e+01	-4.939609e+01
6.800000e-07	-4.618064e-06	-7.389356e-10	-3.210025e+01	-4.928423e+01
6.900000e-07	-4.591941e-06	-7.218839e-10	-3.191867e+01	-4.916874e+01
7.000000e-07	-4.565434e-06	-7.421752e-10	-3.173442e+01	-4.904977e+01
7.100000e-07	-4.538394e-06	-7.329730e-10	-3.154646e+01	-4.892751e+01
7.200000e-07	-4.510926e-06	-7.172101e-10	-3.135553e+01	-4.880214e+01
7.300000e-07	-4.483258e-06	-7.329129e-10	-3.116321e+01	-4.867387e+01
7.400000e-07	-4.455419e-06	-7.357348e-10	-3.096970e+01	-4.854290e+01
7.500000e-07	-4.427363e-06	-7.246906e-10	-3.077468e+01	-4.840947e+01
7.600000e-07	-4.399052e-06	-7.262472e-10	-3.057789e+01	-4.827381e+01
7.700000e-07	-4.370523e-06	-7.286983e-10	-3.037959e+01	-4.813615e+01
7.800000e-07	-4.341674e-06	-7.146583e-10	-3.017906e+01	-4.799673e+01
7.900000e-07	-4.312455e-06	-7.179592e-10	-2.997596e+01	-4.785578e+01
8.000000e-07	-4.282929e-06	-7.210917e-10	-2.977072e+01	-4.771355e+01
8.100000e-07	-4.253075e-06	-7.148996e-10	-2.956321e+01	-4.757027e+01
8.200000e-07	-4.222977e-06	-7.114992e-10	-2.935399e+01	-4.742614e+01
8.300000e-07	-4.192547e-06	-7.241088e-10	-2.914248e+01	-4.728140e+01
8.400000e-07	-4.161807e-06	-7.157891e-10	-2.892880e+01	-4.713622e+01
8.500000e-07	-4.130876e-06	-7.078812e-10	-2.871380e+01	-4.699080e+01
8.600000e-07	-4.099665e-06	-7.078841e-10	-2.849685e+01	-4.684529e+01
8.700000e-07	-4.068127e-06	-7.073479e-10	-2.827763e+01	-4.669985e+01
8.800000e-07	-4.036355e-06	-6.960826e-10	-2.805678e+01	-4.655459e+01
8.900000e-07	-4.004450e-06	-7.017666e-10	-2.783501e+01	-4.640961e+01
9.000000e-07	-3.972438e-06	-7.015942e-10	-2.761249e+01	-4.626497e+01
9.100000e-07	-3.940213e-06	-6.916791e-10	-2.738849e+01	-4.612073e+01
9.200000e-07	-3.907644e-06	-6.856453e-10	-2.716211e+01	-4.597689e+01
9.300000e-07	-3.874677e-06	-6.909471e-10	-2.693295e+01	-4.583346e+01
9.400000e-07	-3.841255e-06	-6.831456e-10	-2.670063e+01	-4.569037e+01
9.500000e-07	-3.807452e-06	-6.790312e-10	-2.646567e+01	-4.554756e+01
9.600000e-07	-3.773198e-06	-6.855895e-10	-2.622757e+01	-4.540493e+01
9.700000e-07	-3.738488e-06	-6.877987e-10	-2.598630e+01	-4.526235e+01
9.800000e-07	-3.703416e-06	-6.798372e-10	-2.574252e+01	-4.511965e+01
9.900000e-07	-3.668042e-06	-6.789626e-10	-2.549663e+01	-4.497665e+01
1.000000e-06	-3.632454e-06	-6.776924e-10	-2.524926e+01	-4.483313e+01
1.010000e-06	-3.596652e-06	-6.662538e-10	-2.500040e+01	-4.468885e+01
1.020000e-06	-3.560750e-06	-6.622028e-10	-2.475084e+01	-4.454356e+01
1.030000e-06	-3.524766e-06	-6.665954e-10	-2.450071e+01	-4.439696e+01
1.040000e-06	-3.488577e-06	-6.640965e-10	-2.424917e+01	-4.424876e+01
1.050000e-06	-3.452163e-06	-6.582411e-10	-2.399605e+01	-4.409864e+01
1.060000e-06	-3.415538e-06	-6.602734e-10	-2.374147e+01	-4.394627e+01
1.070000e-06	-3.378630e-06	-6.560345e-10	-2.348492e+01	-4.379131e+01
1.080000e-06	-3.341430e-06	-6.490489e-10	-2.322634e+01	-4.363340e+01
1.090000e-06	-3.304008e-06	-6.456968e-10	-2.296622e+01	-4.347220e+01
1.100000e-06	-3.266361e-06	-6.444357e-10	-2.270453e+01	-4.330736e+01
1.110000e-06	-3.228461e-06	-6.361427e-10	-2.244109e+01	-4.313851e+01
1.120000e-06	-3.190312e-06	-6.334270e-10	-2.217592e+01	-4.296532e+01
1.130000e-06	-3.151944e-06	-6.320584e-10	-2.190923e+01	-4.278744e+01
1.140000e-06	-3.113363e-06	-6.294401e-10	-2.164105e+01	-4.260454e+01
1.150000e-06	-3.074661e-06	-6.230010e-10	-2.137203e+01	-4.241632e+01
1.160000e-06	-3.035692e-06	-6.210616e-10	-2.110115e+01	-4.222247e+01
1.170000e-06	-2.996385e-06	-6.179078e-10	-2.082793e+01	-4.202272e+01
1.180000e-06	-2.956969e-06	-6.152781e-10	-2.055395e+01	-4.181681e+01
1.190000e-06	-2.917416e-06	-6.130948e-10	-2.027901e+01	-4.160451e+01
1.200000e-06	-2.877636e-06	-6.126060e-10	-2.000250e+01	-4.138561e+01
1.210000e-06	-2.837724e-06	-6.066542e-10	-1.972507e+01	-4.115992e+01
1.220000e-06	-2.797752e-06	-6.010267e-10	-1.944722e+01	-4.092729e+01
1.230000e-06	-2.757642e-06	-5.963163e-10	-1.916842e+01	-4.068761e+01
1.240000e-06	-2.717378e-06	-5.937483e-10	-1.888855e+01	-4.044076e+01
1.250000e-06	-2.676976e-06	-5.903268e-10	-1.860771e+01	-4.018667e+01
1.260000e-06	-2.636348e-06	-5.901812e-10	-1.832531e+01	-3.992532e+01
1.270000e-06	-2.595437e-06	-5.903371e-10	-1.804093e+01	-3.965668e+01
1.280000e-06	-2.554293e-06	-5.867534e-10	-1.775494e+01	-3.938077e+01
1.290000e-06	-2.512926e-06	-5.817926e-10	-1.746740e+01	-3.909763e+01
1.300000e-06	-2.471261e-06	-5.759295e-10	-1.717778e+01	-3.880730e+01
1.310000e-06	-2.429301e-06	-5.681142e-10	-1.688612e+01	-3.850988e+01
1.320000e-06	-2.386991e-06	-5.600793e-10	-1.659202e+01	-3.820545e+01
1.330000e-06	-2.344257e-06	-5.568905e-10	-1.629497e+01	-3.789414e+01
1.340000e-06	-2.301288e-06	-5.561567e-10	-1.599630e+01	-3.757606e+01
1.350000e-06	-2.258168e-06	-5.543232e-10	-1.569657e+01	-3.725135e+01
1.360000e-06	-2.214820e-06	-5.492595e-10	-1.539526e+01	-3.692015e+01
1.370000e-06	-2.171322e-06	-5.438491e-10	-1.509290e+01	-3.658259e+01
1.380000e-06	-2.127729e-06	-5.371455e-10	-1.478989e+01	-3.623881e+01
1.390000e-06	-2.083986e-06	-5.314224e-10	-1.448583e+01	-3.588894e+01
1.400000e-06	-2.040170e-06	-5.256026e-10	-1.418126e+01	-3.553309e+01
1.410000e-06	-1.996313e-06	-5.213085e-10	-1.387641e+01	-3.517138e+01
1.420000e-06	-1.952400e-06	-5.154843e-10	-1.357117e+01	-3.480389e+01
1.430000e-06	-1.908395e-06	-5.107194e-10	-1.326529e+01	-3.443068e+01
1.440000e-06	-1.864218e-06	-5.059657e-10	-1.295822e+01	-3.405180e+01
1.450000e-06	-1.820005e-06	-5.012946e-10	-1.265089e+01	-3.366725e+01
1.460000e-06	-1.775682e-06	-4.936890e-10	-1.234280e+01	-3.327701e+01
1.470000e-06	-1.731245e-06	-4.854406e-10	-1.203392e+01	-3.288103e+01
1.480000e-06	-1.686764e-06	-4.747778e-10	-1.172473e+01	-3.247922e+01
1.490000e-06	-1.642156e-06	-4.639508e-10	-1.141466e+01	-3.207144e+01
1.500000e-06	-1.597417e-06	-4.557724e-10	-1.110367e+01	-3.165752e+01
1.510000e-06	-1.552497e-06	-4.499928e-10	-1.079143e+01	-3.123725e+01
1.520000e-06	-1.507389e-06	-4.431434e-10	-1.047789e+01	-3.081038e+01
1.530000e-06	-1.462242e-06	-4.357167e-10	-1.016408e+01	-3.037660e+01
1.540000e-06	-1.417002e-06	-4.283998e-10	-9.849610e+00	-2.993559e+01
1.550000e-06	-1.371589e-06	-4.221931e-10	-9.533943e+00	-2.948695e+01
1.560000e-06	-1.326132e-06	-4.150588e-10	-9.217968e+00	-2.903026e+01
1.570000e-06	-1.280590e-06	-4.064487e-10	-8.901408e+00	-2.856507e+01
1.580000e-06	-1.234952e-06	-3.980459e-10	-8.584174e+00	-2.809088e+01
1.590000e-06	-1.189199e-06	-3.904231e-10	-8.266143e+00	-2.760717e+01
1.600000e-06	-1.143352e-06	-3.830010e-10	-7.947463e+00	-2.711337e+01
1.610000e-06	-1.097459e-06	-3.757756e-10	-7.628457e+00	-2.660891e+01
1.620000e-06	-1.051540e-06	-3.667101e-10	-7.309275e+00	-2.609318e+01
1.630000e-06	-1.005543e-06	-3.557773e-10	-6.989548e+00	-2.556558e+01
1.640000e-06	-9.593623e-07	-3.444377e-10	-6.668546e+00	-2.502545e+01
1.650000e-06	-9.131064e-07	-3.314949e-10	-6.347020e+00	-2.447219e+01
1.660000e-06	-8.668166e-07	-3.205394e-10	-6.025259e+00	-2.390514e+01
1.670000e-06	-8.204731e-07	-3.120406e-10	-5.703124e+00	-2.332368e+01
1.680000e-06	-7.741090e-07	-3.061347e-10	-5.380846e+00	-2.272719e+01
1.690000e-06	-7.277266e-07	-2.988186e-10	-5.058442e+00	-2.211509e+01
1.700000e-06	-6.812983e-07	-2.909418e-10	-4.735718e+00	-2.148680e+01
1.710000e-06	-6.347892e-07	-2.807776e-10	-4.412432e+00	-2.084179e+01
1.720000e-06	-5.882287e-07	-2.687419e-10	-4.088789e+00	-2.017955e+01
1.730000e-06	-5.416546e-07	-2.554257e-10	-3.765052e+00	-1.949963e+01
1.740000e-06	-4.950595e-07	-2.430619e-10	-3.441168e+00	-1.880162e+01
1.750000e-06	-4.483037e-07	-2.322840e-10	-3.116168e+00	-1.808519e+01
1.760000e-06	-4.014531e-07	-2.237009e-10	-2.790508e+00	-1.735005e+01
1.770000e-06	-3.546498e-07	-2.138866e-10	-2.465178e+00	-1.659597e+01
1.780000e-06	-3.078208e-07	-2.026890e-10	-2.139668e+00	-1.582283e+01
1.790000e-06	-2.609793e-07	-1.904143e-10	-1.814072e+00	-1.503054e+01
1.800000e-06	-2.141387e-07	-1.772595e-10	-1.488482e+00	-1.421914e+01
1.810000e-06	-1.672395e-07	-1.633497e-10	-1.162485e+00	-1.338870e+01
1.820000e-06	-1.203355e-07	-1.490301e-10	-8.364542e-01	-1.253943e+01
1.830000e-06	-7.347170e-08	-1.372299e-10	-5.107032e-01	-1.167160e+01
1.840000e-06	-2.654976e-08	-1.257825e-10	-1.845479e-01	-1.078556e+01
1.850000e-06	2.035922e-08	-1.133152e-10	1.415173e-01	-9.881789e+00
1.860000e-06	6.715649e-08	-1.026201e-10	4.668060e-01	-8.960824e+00
1.870000e-06	1.139317e-07	-9.121796e-11	7.919416e-01	-8.023306e+00
1.880000e-06	1.607006e-07	-8.020070e-11	1.117033e+00	-7.069966e+00
1.890000e-06	2.075442e-07	-6.860801e-11	1.442643e+00	-6.101619e+00
1.900000e-06	2.544350e-07	-5.504278e-11	1.768583e+00	-5.119168e+00
1.910000e-06	3.012150e-07	-3.896629e-11	2.093751e+00	-4.123596e+00
1.920000e-06	3.480310e-07	-2.184793e-11	2.419170e+00	-3.115963e+00
1.930000e-06	3.948826e-07	-7.818039e-12	2.744837e+00	-2.097402e+00
1.940000e-06	4.415697e-07	4.208102e-12	3.069360e+00	-1.069112e+00
1.950000e-06	4.881528e-07	1.230564e-11	3.393159e+00	-3.235576e-02
1.960000e-06	5.347440e-07	1.939651e-11	3.717016e+00	1.011551e+00
1.970000e-06	5.813622e-07	3.113723e-11	4.041059e+00	2.061244e+00
1.980000e-06	6.279791e-07	4.843264e-11	4.365094e+00	3.115317e+00
1.990000e-06	6.744953e-07	6.676290e-11	4.688429e+00	4.172334e+00
2.000000e-06	7.209382e-07	8.419307e-11	5.011255e+00	5.230830e+00
2.010000e-06	7.673380e-07	9.979475e-11	5.333781e+00	6.289325e+00
2.020000e-06	8.136805e-07	1.146025e-10	5.655908e+00	7.346330e+00
2.030000e-06	8.599228e-07	1.262402e-10	5.977340e+00	8.400356e+00
2.040000e-06	9.060247e-07	1.382606e-10	6.297795e+00	9.449922e+00
2.050000e-06	9.520497e-07	1.519784e-10	6.617716e+00	1.049356e+01
2.060000e-06	9.980818e-07	1.689272e-10	6.937686e+00	1.152984e+01
2.070000e-06	1.044084e-06	1.865255e-10	7.257449e+00	1.255735e+01
2.080000e-06	1.089992e-06	2.013155e-10	7.576553e+00	1.357472e+01
2.090000e-06	1.135804e-06	2.132319e-10	7.894998e+00	1.458063e+01
2.100000e-06	1.181494e-06	2.247554e-10	8.212587e+00	1.557384e+01
2.110000e-06	1.227128e-06	2.373343e-10	8.529789e+00	1.655312e+01
2.120000e-06	1.272663e-06	2.513340e-10	8.846302e+00	1.751736e+01
2.130000e-06	1.318038e-06	2.661564e-10	9.161707e+00	1.846550e+01
2.140000e-06	1.363361e-06	2.792279e-10	9.476748e+00	1.939656e+01
2.150000e-06	1.408664e-06	2.886581e-10	9.791649e+00	2.030964e+01
2.160000e-06	1.453925e-06	2.967938e-10	1.010626e+01	2.120394e+01
2.170000e-06	1.499062e-06	3.091326e-10	1.042001e+01	2.207874e+01
2.180000e-06	1.544030e-06	3.229401e-10	1.073258e+01	2.293343e+01
2.190000e-06	1.588928e-06	3.348548e-10	1.104467e+01	2.376747e+01
2.200000e-06	1.633720e-06	3.455537e-10	1.135602e+01	2.458042e+01
2.210000e-06	1.678368e-06	3.571754e-10	1.166637e+01	2.537197e+01
2.220000e-06	1.722851e-06	3.684088e-10	1.197557e+01	2.614186e+01
2.230000e-06	1.767181e-06	3.799070e-10	1.228371e+01	2.688995e+01
2.240000e-06	1.811479e-06	3.896384e-10	1.259163e+01	2.761619e+01
2.250000e-06	1.855693e-06	3.971761e-10	1.289896e+01	2.832062e+01
2.260000e-06	1.899743e-06	4.040590e-10	1.320515e+01	2.900336e+01
2.270000e-06	1.943704e-06	4.122444e-10	1.351073e+01	2.966462e+01
2.280000e-06	1.987613e-06	4.205034e-10	1.381594e+01	3.030469e+01
2.290000e-06	2.031444e-06	4.287347e-10	1.412061e+01	3.092392e+01
2.300000e-06	2.075269e-06	4.377027e-10	1.442523e+01	3.152277e+01
2.310000e-06	2.119085e-06	4.476204e-10	1.472980e+01	3.210170e+01
2.320000e-06	2.162763e-06	4.561046e-10	1.503340e+01	3.266129e+01
2.330000e-06	2.206323e-06	4.628716e-10	1.533620e+01	3.320214e+01
2.340000e-06	2.249709e-06	4.688310e-10	1.563777e+01	3.372488e+01
2.350000e-06	2.292764e-06	4.740458e-10	1.593704e+01	3.423022e+01
2.360000e-06	2.335574e-06	4.792927e-10	1.623462e+01	3.471886e+01
2.370000e-06	2.378172e-06	4.831101e-10	1.653072e+01	3.519155e+01
2.380000e-06	2.420489e-06	4.867880e-10	1.682487e+01	3.564904e+01
2.390000e-06	2.462549e-06	4.929539e-10	1.711723e+01	3.609212e+01
2.400000e-06	2.504340e-06	5.012795e-10	1.740772e+01	3.652155e+01
2.410000e-06	2.545811e-06	5.104691e-10	1.769598e+01	3.693810e+01
2.420000e-06	2.586989e-06	5.196817e-10	1.798221e+01	3.734254e+01
2.430000e-06	2.627858e-06	5.271500e-10	1.826629e+01	3.773562e+01
2.440000e-06	2.668418e-06	5.321674e-10	1.854823e+01	3.811807e+01
2.450000e-06	2.708831e-06	5.356988e-10	1.882913e+01	3.849058e+01
2.460000e-06	2.749175e-06	5.401821e-10	1.910957e+01	3.885385e+01
2.470000e-06	2.789347e-06	5.458306e-10	1.938880e+01	3.920849e+01
2.480000e-06	2.829338e-06	5.529366e-10	1.966678e+01	3.955513e+01
2.490000e-06	2.869249e-06	5.583793e-10	1.994420e+01	3.989432e+01
2.500000e-06	2.908995e-06	5.632776e-10	2.022048e+01	4.022657e+01
2.510000e-06	2.948508e-06	5.689647e-10	2.049513e+01	4.055237e+01
2.520000e-06	2.987831e-06	5.735709e-10	2.076847e+01	4.087213e+01
2.530000e-06	3.026972e-06	5.761767e-10	2.104054e+01	4.118622e+01
2.540000e-06	3.065910e-06	5.793982e-10	2.131120e+01	4.149498e+01
2.550000e-06	3.104638e-06	5.836285e-10	2.158040e+01	4.179868e+01
2.560000e-06	3.143062e-06	5.873950e-10	2.184748e+01	4.209755e+01
2.570000e-06	3.181181e-06	5.916013e-10	2.211245e+01	4.239177e+01
2.580000e-06	3.219227e-06	5.958438e-10	2.237691e+01	4.268146e+01
2.590000e-06	3.257203e-06	5.998752e-10	2.264088e+01	4.296673e+01
2.600000e-06	3.294947e-06	6.024628e-10	2.290324e+01	4.324761e+01
2.610000e-06	3.332378e-06	6.053538e-10	2.316342e+01	4.352410e+01
2.620000e-06	3.369519e-06	6.115459e-10	2.342159e+01	4.379619e+01
2.630000e-06	3.406475e-06	6.178323e-10	2.367847e+01	4.406381e+01
2.640000e-06	3.443165e-06	6.204110e-10	2.393350e+01	4.432685e+01
2.650000e-06	3.479531e-06	6.206021e-10	2.418629e+01	4.458521e+01
2.660000e-06	3.515710e-06	6.204789e-10	2.443777e+01	4.483874e+01
2.670000e-06	3.551768e-06	6.208282e-10	2.468841e+01	4.508728e+01
2.680000e-06	3.587705e-06	6.231716e-10	2.493820e+01	4.533066e+01
2.690000e-06	3.623486e-06	6.279994e-10	2.518692e+01	4.556869e+01
2.700000e-06	3.659136e-06	6.349944e-10	2.543472e+01	4.580117e+01
2.710000e-06	3.694593e-06	6.433909e-10	2.568118e+01	4.602793e+01
2.720000e-06	3.729727e-06	6.492278e-10	2.592540e+01	4.624877e+01
2.730000e-06	3.764480e-06	6.531129e-10	2.616698e+01	4.646350e+01
2.740000e-06	3.798847e-06	6.549226e-10	2.640585e+01	4.667196e+01
2.750000e-06	3.832777e-06	6.534770e-10	2.664171e+01	4.687397e+01
2.760000e-06	3.866180e-06	6.525208e-10	2.687389e+01	4.706939e+01
2.770000e-06	3.899104e-06	6.546294e-10	2.710275e+01	4.725809e+01
2.780000e-06	3.931683e-06	6.598544e-10	2.732920e+01	4.743997e+01
2.790000e-06	3.964032e-06	6.674547e-10	2.755406e+01	4.761494e+01
2.800000e-06	3.996204e-06	6.759641e-10	2.777769e+01	4.778294e+01
2.810000e-06	4.028193e-06	6.833236e-10	2.800004e+01	4.794395e+01
2.820000e-06	4.060023e-06	6.873869e-10	2.822130e+01	4.809795e+01
2.830000e-06	4.091622e-06	6.883774e-10	2.844094e+01	4.824496e+01
2.840000e-06	4.122928e-06	6.866575e-10	2.865855e+01	4.838505e+01
2.850000e-06	4.153969e-06	6.853510e-10	2.887432e+01	4.851829e+01
2.860000e-06	4.184707e-06	6.876290e-10	2.908798e+01	4.864480e+01
2.870000e-06	4.215062e-06	6.918530e-10	2.929898e+01	4.876470e+01
2.880000e-06	4.245132e-06	6.970513e-10	2.950799e+01	4.887817e+01
2.890000e-06	4.274985e-06	7.037543e-10	2.971550e+01	4.898539e+01
2.900000e-06	4.304528e-06	7.083069e-10	2.992086e+01	4.908659e+01
