# Temperatura_=_8.88
# Concentracion g/m^3_=_1620.0
# C_Vs_to_Am_M_A/Vsm_=_65563218390.804596
# pendiente_HvsI_1/m_=_3716.3
# ordenada_HvsI_A/m_=_1297.0
# frecuencia_Hz_=_135104.38123056918

Tiempo_(s)	Campo_(V.s)	Magnetizacion_(V.s)	Campo_(kA/m)	Magnetizacion_(A/m)
0.000000e+00	-5.537878e-06	-7.364798e-10	-3.837757e+01	-4.979183e+01
1.000000e-08	-5.538103e-06	-7.375791e-10	-3.837913e+01	-4.978365e+01
2.000000e-08	-5.538125e-06	-7.409850e-10	-3.837928e+01	-4.977653e+01
3.000000e-08	-5.537856e-06	-7.443142e-10	-3.837741e+01	-4.977045e+01
4.000000e-08	-5.537202e-06	-7.416984e-10	-3.837288e+01	-4.976537e+01
5.000000e-08	-5.536072e-06	-7.354790e-10	-3.836506e+01	-4.976127e+01
6.000000e-08	-5.534343e-06	-7.273541e-10	-3.835307e+01	-4.975807e+01
7.000000e-08	-5.531903e-06	-7.152444e-10	-3.833616e+01	-4.975571e+01
8.000000e-08	-5.528848e-06	-7.237353e-10	-3.831499e+01	-4.975410e+01
9.000000e-08	-5.525355e-06	-7.669118e-10	-3.829079e+01	-4.975315e+01
1.000000e-07	-5.521450e-06	-7.729508e-10	-3.826372e+01	-4.975276e+01
1.100000e-07	-5.517163e-06	-7.184649e-10	-3.823401e+01	-4.975281e+01
1.200000e-07	-5.512656e-06	-7.199864e-10	-3.820278e+01	-4.975317e+01
1.300000e-07	-5.507891e-06	-7.402052e-10	-3.816976e+01	-4.975372e+01
1.400000e-07	-5.502764e-06	-7.451102e-10	-3.813423e+01	-4.975432e+01
1.500000e-07	-5.497249e-06	-6.893099e-10	-3.809601e+01	-4.975484e+01
1.600000e-07	-5.491369e-06	-6.714363e-10	-3.805526e+01	-4.975513e+01
1.700000e-07	-5.485056e-06	-7.466479e-10	-3.801151e+01	-4.975504e+01
1.800000e-07	-5.478223e-06	-7.582689e-10	-3.796416e+01	-4.975443e+01
1.900000e-07	-5.471106e-06	-7.495956e-10	-3.791484e+01	-4.975315e+01
2.000000e-07	-5.463710e-06	-7.163484e-10	-3.786358e+01	-4.975107e+01
2.100000e-07	-5.455996e-06	-7.519384e-10	-3.781013e+01	-4.974803e+01
2.200000e-07	-5.447958e-06	-7.454497e-10	-3.775442e+01	-4.974389e+01
2.300000e-07	-5.439631e-06	-7.470270e-10	-3.769672e+01	-4.973852e+01
2.400000e-07	-5.430989e-06	-7.445186e-10	-3.763683e+01	-4.973178e+01
2.500000e-07	-5.421808e-06	-7.791494e-10	-3.757320e+01	-4.972354e+01
2.600000e-07	-5.411854e-06	-7.792650e-10	-3.750422e+01	-4.971368e+01
2.700000e-07	-5.401193e-06	-7.718176e-10	-3.743034e+01	-4.970208e+01
2.800000e-07	-5.390061e-06	-7.551648e-10	-3.735320e+01	-4.968861e+01
2.900000e-07	-5.378515e-06	-7.651709e-10	-3.727318e+01	-4.967318e+01
3.000000e-07	-5.366748e-06	-7.851825e-10	-3.719164e+01	-4.965568e+01
3.100000e-07	-5.354603e-06	-7.830051e-10	-3.710747e+01	-4.963600e+01
3.200000e-07	-5.341898e-06	-7.786496e-10	-3.701942e+01	-4.961406e+01
3.300000e-07	-5.328844e-06	-7.802040e-10	-3.692896e+01	-4.958976e+01
3.400000e-07	-5.315462e-06	-8.046130e-10	-3.683623e+01	-4.956302e+01
3.500000e-07	-5.301682e-06	-7.669478e-10	-3.674073e+01	-4.953376e+01
3.600000e-07	-5.287502e-06	-7.541500e-10	-3.664246e+01	-4.950191e+01
3.700000e-07	-5.272882e-06	-7.685456e-10	-3.654114e+01	-4.946739e+01
3.800000e-07	-5.257796e-06	-7.804553e-10	-3.643659e+01	-4.943014e+01
3.900000e-07	-5.242027e-06	-7.519362e-10	-3.632732e+01	-4.939009e+01
4.000000e-07	-5.225660e-06	-7.932037e-10	-3.621389e+01	-4.934719e+01
4.100000e-07	-5.208965e-06	-8.012969e-10	-3.609820e+01	-4.930137e+01
4.200000e-07	-5.191962e-06	-7.512105e-10	-3.598037e+01	-4.925259e+01
4.300000e-07	-5.174654e-06	-7.385661e-10	-3.586042e+01	-4.920080e+01
4.400000e-07	-5.157034e-06	-8.018912e-10	-3.573831e+01	-4.914596e+01
4.500000e-07	-5.139044e-06	-7.682842e-10	-3.561364e+01	-4.908801e+01
4.600000e-07	-5.120606e-06	-7.313274e-10	-3.548587e+01	-4.902692e+01
4.700000e-07	-5.101748e-06	-7.760370e-10	-3.535518e+01	-4.896265e+01
4.800000e-07	-5.082607e-06	-7.889835e-10	-3.522254e+01	-4.889518e+01
4.900000e-07	-5.063157e-06	-7.249838e-10	-3.508775e+01	-4.882447e+01
5.000000e-07	-5.043422e-06	-7.576770e-10	-3.495098e+01	-4.875050e+01
5.100000e-07	-5.023528e-06	-7.943705e-10	-3.481311e+01	-4.867326e+01
5.200000e-07	-5.003387e-06	-7.405798e-10	-3.467354e+01	-4.859272e+01
5.300000e-07	-4.982878e-06	-7.365401e-10	-3.453141e+01	-4.850889e+01
5.400000e-07	-4.962000e-06	-8.009719e-10	-3.438673e+01	-4.842177e+01
5.500000e-07	-4.940769e-06	-7.667400e-10	-3.423959e+01	-4.833135e+01
5.600000e-07	-4.919165e-06	-7.240718e-10	-3.408988e+01	-4.823765e+01
5.700000e-07	-4.897213e-06	-7.659195e-10	-3.393776e+01	-4.814069e+01
5.800000e-07	-4.874906e-06	-7.574612e-10	-3.378317e+01	-4.804051e+01
5.900000e-07	-4.852208e-06	-7.120063e-10	-3.362587e+01	-4.793714e+01
6.000000e-07	-4.829174e-06	-7.452717e-10	-3.346624e+01	-4.783063e+01
6.100000e-07	-4.805885e-06	-7.699691e-10	-3.330485e+01	-4.772104e+01
6.200000e-07	-4.782361e-06	-7.275013e-10	-3.314182e+01	-4.760843e+01
6.300000e-07	-4.758579e-06	-7.324512e-10	-3.297702e+01	-4.749289e+01
6.400000e-07	-4.734522e-06	-7.454659e-10	-3.281030e+01	-4.737450e+01
6.500000e-07	-4.710103e-06	-7.161511e-10	-3.264108e+01	-4.725336e+01
6.600000e-07	-4.685341e-06	-7.096564e-10	-3.246948e+01	-4.712958e+01
6.700000e-07	-4.660250e-06	-7.359416e-10	-3.229560e+01	-4.700328e+01
6.800000e-07	-4.634548e-06	-7.153638e-10	-3.211748e+01	-4.687459e+01
6.900000e-07	-4.608114e-06	-7.081393e-10	-3.193429e+01	-4.674365e+01
7.000000e-07	-4.581183e-06	-7.252510e-10	-3.174766e+01	-4.661060e+01
7.100000e-07	-4.553959e-06	-7.227807e-10	-3.155900e+01	-4.647560e+01
7.200000e-07	-4.526459e-06	-7.059992e-10	-3.136842e+01	-4.633882e+01
7.300000e-07	-4.498736e-06	-7.180675e-10	-3.117630e+01	-4.620042e+01
7.400000e-07	-4.470840e-06	-7.115147e-10	-3.098298e+01	-4.606057e+01
7.500000e-07	-4.442720e-06	-7.029911e-10	-3.078811e+01	-4.591945e+01
7.600000e-07	-4.414314e-06	-7.084348e-10	-3.059126e+01	-4.577724e+01
7.700000e-07	-4.385604e-06	-7.103439e-10	-3.039230e+01	-4.563412e+01
7.800000e-07	-4.356606e-06	-6.948620e-10	-3.019134e+01	-4.549026e+01
7.900000e-07	-4.327300e-06	-6.981663e-10	-2.998824e+01	-4.534584e+01
8.000000e-07	-4.297711e-06	-7.034693e-10	-2.978319e+01	-4.520102e+01
8.100000e-07	-4.267803e-06	-7.003973e-10	-2.957593e+01	-4.505598e+01
8.200000e-07	-4.237499e-06	-7.024321e-10	-2.936592e+01	-4.491087e+01
8.300000e-07	-4.206894e-06	-7.104450e-10	-2.915383e+01	-4.476582e+01
8.400000e-07	-4.176132e-06	-7.007289e-10	-2.894065e+01	-4.462098e+01
8.500000e-07	-4.145111e-06	-6.891043e-10	-2.872568e+01	-4.447645e+01
8.600000e-07	-4.113785e-06	-6.917889e-10	-2.850859e+01	-4.433235e+01
8.700000e-07	-4.082274e-06	-6.895081e-10	-2.829021e+01	-4.418875e+01
8.800000e-07	-4.050598e-06	-6.804967e-10	-2.807070e+01	-4.404571e+01
8.900000e-07	-4.018778e-06	-6.822483e-10	-2.785019e+01	-4.390329e+01
9.000000e-07	-3.986753e-06	-6.859407e-10	-2.762825e+01	-4.376150e+01
9.100000e-07	-3.954414e-06	-6.754494e-10	-2.740414e+01	-4.362035e+01
9.200000e-07	-3.921685e-06	-6.720600e-10	-2.717733e+01	-4.347980e+01
9.300000e-07	-3.888468e-06	-6.737764e-10	-2.694714e+01	-4.333981e+01
9.400000e-07	-3.854802e-06	-6.699101e-10	-2.671383e+01	-4.320030e+01
9.500000e-07	-3.820776e-06	-6.646411e-10	-2.647803e+01	-4.306117e+01
9.600000e-07	-3.786318e-06	-6.707292e-10	-2.623923e+01	-4.292228e+01
9.700000e-07	-3.751381e-06	-6.675209e-10	-2.599712e+01	-4.278350e+01
9.800000e-07	-3.716113e-06	-6.592219e-10	-2.575271e+01	-4.264464e+01
9.900000e-07	-3.680666e-06	-6.552463e-10	-2.550707e+01	-4.250550e+01
1.000000e-06	-3.645057e-06	-6.556187e-10	-2.526029e+01	-4.236585e+01
1.010000e-06	-3.609289e-06	-6.501010e-10	-2.501242e+01	-4.222544e+01
1.020000e-06	-3.573373e-06	-6.531137e-10	-2.476353e+01	-4.208401e+01
1.030000e-06	-3.537302e-06	-6.575439e-10	-2.451355e+01	-4.194127e+01
1.040000e-06	-3.500981e-06	-6.544259e-10	-2.426184e+01	-4.179691e+01
1.050000e-06	-3.464377e-06	-6.433726e-10	-2.400818e+01	-4.165061e+01
1.060000e-06	-3.427497e-06	-6.350889e-10	-2.375260e+01	-4.150205e+01
1.070000e-06	-3.390385e-06	-6.240495e-10	-2.349541e+01	-4.135088e+01
1.080000e-06	-3.353055e-06	-6.189995e-10	-2.323672e+01	-4.119675e+01
1.090000e-06	-3.315450e-06	-6.221553e-10	-2.297611e+01	-4.103932e+01
1.100000e-06	-3.277531e-06	-6.270764e-10	-2.271334e+01	-4.087821e+01
1.110000e-06	-3.239357e-06	-6.256972e-10	-2.244878e+01	-4.071309e+01
1.120000e-06	-3.201051e-06	-6.231275e-10	-2.218333e+01	-4.054360e+01
1.130000e-06	-3.162549e-06	-6.179924e-10	-2.191651e+01	-4.036940e+01
1.140000e-06	-3.123740e-06	-6.091227e-10	-2.164756e+01	-4.019016e+01
1.150000e-06	-3.084703e-06	-6.005227e-10	-2.137703e+01	-4.000556e+01
1.160000e-06	-3.045465e-06	-5.947810e-10	-2.110511e+01	-3.981530e+01
1.170000e-06	-3.006061e-06	-5.914553e-10	-2.083204e+01	-3.961909e+01
1.180000e-06	-2.966532e-06	-5.894606e-10	-2.055810e+01	-3.941667e+01
1.190000e-06	-2.926879e-06	-5.889796e-10	-2.028331e+01	-3.920779e+01
1.200000e-06	-2.887099e-06	-5.877355e-10	-2.000763e+01	-3.899225e+01
1.210000e-06	-2.847148e-06	-5.843073e-10	-1.973077e+01	-3.876985e+01
1.220000e-06	-2.807113e-06	-5.794453e-10	-1.945333e+01	-3.854042e+01
1.230000e-06	-2.766923e-06	-5.769018e-10	-1.917482e+01	-3.830384e+01
1.240000e-06	-2.726504e-06	-5.723941e-10	-1.889471e+01	-3.806000e+01
1.250000e-06	-2.685865e-06	-5.671252e-10	-1.861308e+01	-3.780882e+01
1.260000e-06	-2.645093e-06	-5.604739e-10	-1.833053e+01	-3.755027e+01
1.270000e-06	-2.603982e-06	-5.588416e-10	-1.804563e+01	-3.728432e+01
1.280000e-06	-2.562495e-06	-5.546007e-10	-1.775813e+01	-3.701099e+01
1.290000e-06	-2.520751e-06	-5.493424e-10	-1.746884e+01	-3.673032e+01
1.300000e-06	-2.478742e-06	-5.433901e-10	-1.717772e+01	-3.644238e+01
1.310000e-06	-2.436536e-06	-5.391539e-10	-1.688523e+01	-3.614726e+01
1.320000e-06	-2.393995e-06	-5.350867e-10	-1.659042e+01	-3.584507e+01
1.330000e-06	-2.351105e-06	-5.326540e-10	-1.629319e+01	-3.553595e+01
1.340000e-06	-2.308016e-06	-5.305250e-10	-1.599458e+01	-3.522004e+01
1.350000e-06	-2.264759e-06	-5.282439e-10	-1.569481e+01	-3.489751e+01
1.360000e-06	-2.221316e-06	-5.218287e-10	-1.539375e+01	-3.456853e+01
1.370000e-06	-2.177781e-06	-5.128393e-10	-1.509205e+01	-3.423329e+01
1.380000e-06	-2.134097e-06	-5.044988e-10	-1.478932e+01	-3.389196e+01
1.390000e-06	-2.090261e-06	-4.986168e-10	-1.448554e+01	-3.354473e+01
1.400000e-06	-2.046377e-06	-4.934876e-10	-1.418142e+01	-3.319177e+01
1.410000e-06	-2.002489e-06	-4.902110e-10	-1.387727e+01	-3.283326e+01
1.420000e-06	-1.958559e-06	-4.874050e-10	-1.357284e+01	-3.246934e+01
1.430000e-06	-1.914480e-06	-4.838453e-10	-1.326737e+01	-3.210017e+01
1.440000e-06	-1.870280e-06	-4.796503e-10	-1.296106e+01	-3.172584e+01
1.450000e-06	-1.825951e-06	-4.731373e-10	-1.265387e+01	-3.134646e+01
1.460000e-06	-1.781459e-06	-4.645178e-10	-1.234553e+01	-3.096210e+01
1.470000e-06	-1.736799e-06	-4.549870e-10	-1.203604e+01	-3.057278e+01
1.480000e-06	-1.691965e-06	-4.471035e-10	-1.172534e+01	-3.017851e+01
1.490000e-06	-1.647036e-06	-4.393383e-10	-1.141398e+01	-2.977925e+01
1.500000e-06	-1.602055e-06	-4.344396e-10	-1.110226e+01	-2.937492e+01
1.510000e-06	-1.556956e-06	-4.322847e-10	-1.078973e+01	-2.896541e+01
1.520000e-06	-1.511678e-06	-4.300610e-10	-1.047595e+01	-2.855054e+01
1.530000e-06	-1.466246e-06	-4.226954e-10	-1.016110e+01	-2.813013e+01
1.540000e-06	-1.420738e-06	-4.121160e-10	-9.845733e+00	-2.770391e+01
1.550000e-06	-1.375219e-06	-4.003892e-10	-9.530286e+00	-2.727161e+01
1.560000e-06	-1.329676e-06	-3.882838e-10	-9.214671e+00	-2.683287e+01
1.570000e-06	-1.284040e-06	-3.772869e-10	-8.898415e+00	-2.638732e+01
1.580000e-06	-1.238199e-06	-3.694252e-10	-8.580734e+00	-2.593453e+01
1.590000e-06	-1.192235e-06	-3.645929e-10	-8.262202e+00	-2.547406e+01
1.600000e-06	-1.146253e-06	-3.611607e-10	-7.943549e+00	-2.500540e+01
1.610000e-06	-1.100193e-06	-3.577939e-10	-7.624354e+00	-2.452802e+01
1.620000e-06	-1.054078e-06	-3.521316e-10	-7.304772e+00	-2.404136e+01
1.630000e-06	-1.007896e-06	-3.425241e-10	-6.984731e+00	-2.354484e+01
1.640000e-06	-9.616026e-07	-3.315294e-10	-6.663919e+00	-2.303786e+01
1.650000e-06	-9.151838e-07	-3.186921e-10	-6.342236e+00	-2.251979e+01
1.660000e-06	-8.687464e-07	-3.073704e-10	-6.020424e+00	-2.199001e+01
1.670000e-06	-8.223279e-07	-2.969454e-10	-5.698744e+00	-2.144788e+01
1.680000e-06	-7.758210e-07	-2.893065e-10	-5.376450e+00	-2.089276e+01
1.690000e-06	-7.291738e-07	-2.838605e-10	-5.053184e+00	-2.032403e+01
1.700000e-06	-6.824415e-07	-2.802338e-10	-4.729329e+00	-1.974108e+01
1.710000e-06	-6.357034e-07	-2.736238e-10	-4.405433e+00	-1.914332e+01
1.720000e-06	-5.890005e-07	-2.624449e-10	-4.081781e+00	-1.853018e+01
1.730000e-06	-5.423106e-07	-2.506275e-10	-3.758220e+00	-1.790115e+01
1.740000e-06	-4.955667e-07	-2.385990e-10	-3.434284e+00	-1.725572e+01
1.750000e-06	-4.486676e-07	-2.279325e-10	-3.109272e+00	-1.659346e+01
1.760000e-06	-4.017304e-07	-2.190344e-10	-2.783997e+00	-1.591398e+01
1.770000e-06	-3.549041e-07	-2.084187e-10	-2.459490e+00	-1.521694e+01
1.780000e-06	-3.080297e-07	-1.982449e-10	-2.134650e+00	-1.450210e+01
1.790000e-06	-2.610484e-07	-1.898397e-10	-1.809069e+00	-1.376924e+01
1.800000e-06	-2.140433e-07	-1.788047e-10	-1.483323e+00	-1.301826e+01
1.810000e-06	-1.670018e-07	-1.666945e-10	-1.157325e+00	-1.224910e+01
1.820000e-06	-1.199216e-07	-1.539730e-10	-8.310581e-01	-1.146181e+01
1.830000e-06	-7.288750e-08	-1.426636e-10	-5.051114e-01	-1.065652e+01
1.840000e-06	-2.587728e-08	-1.318274e-10	-1.793299e-01	-9.833436e+00
1.850000e-06	2.115324e-08	-1.210509e-10	1.465922e-01	-8.992869e+00
1.860000e-06	6.813517e-08	-1.111272e-10	4.721776e-01	-8.135211e+00
1.870000e-06	1.150669e-07	-9.905763e-11	7.974154e-01	-7.260951e+00
1.880000e-06	1.620011e-07	-8.547268e-11	1.122670e+00	-6.370667e+00
1.890000e-06	2.090444e-07	-7.232975e-11	1.448681e+00	-5.465027e+00
1.900000e-06	2.561570e-07	-6.039141e-11	1.775172e+00	-4.544788e+00
1.910000e-06	3.031794e-07	-4.898620e-11	2.101037e+00	-3.610794e+00
1.920000e-06	3.501296e-07	-3.734503e-11	2.426403e+00	-2.663971e+00
1.930000e-06	3.970556e-07	-2.949294e-11	2.751601e+00	-1.705323e+00
1.940000e-06	4.439676e-07	-2.042749e-11	3.076702e+00	-7.359299e-01
1.950000e-06	4.908269e-07	-9.115487e-12	3.401437e+00	2.430599e-01
1.960000e-06	5.375598e-07	3.313722e-12	3.725296e+00	1.230434e+00
1.970000e-06	5.842284e-07	1.784134e-11	4.048711e+00	2.224924e+00
1.980000e-06	6.309296e-07	3.556011e-11	4.372350e+00	3.225210e+00
1.990000e-06	6.776208e-07	5.165236e-11	4.695922e+00	4.229930e+00
2.000000e-06	7.242130e-07	6.418862e-11	5.018806e+00	5.237686e+00
2.010000e-06	7.707021e-07	7.581798e-11	5.340976e+00	6.247054e+00
2.020000e-06	8.171599e-07	8.685669e-11	5.662929e+00	7.256588e+00
2.030000e-06	8.636136e-07	9.727559e-11	5.984854e+00	8.264836e+00
2.040000e-06	9.100853e-07	1.103033e-10	6.306903e+00	9.270339e+00
2.050000e-06	9.564347e-07	1.250290e-10	6.628105e+00	1.027165e+01
2.060000e-06	1.002588e-06	1.397247e-10	6.947947e+00	1.126733e+01
2.070000e-06	1.048712e-06	1.542800e-10	7.267586e+00	1.225597e+01
2.080000e-06	1.094801e-06	1.696022e-10	7.586987e+00	1.323619e+01
2.090000e-06	1.140774e-06	1.836679e-10	7.905580e+00	1.420665e+01
2.100000e-06	1.186705e-06	1.957333e-10	8.223880e+00	1.516606e+01
2.110000e-06	1.232518e-06	2.081039e-10	8.541369e+00	1.611317e+01
2.120000e-06	1.278182e-06	2.183239e-10	8.857820e+00	1.704683e+01
2.130000e-06	1.323823e-06	2.261624e-10	9.174114e+00	1.796592e+01
2.140000e-06	1.369394e-06	2.353405e-10	9.489918e+00	1.886940e+01
2.150000e-06	1.414855e-06	2.481167e-10	9.804964e+00	1.975632e+01
2.160000e-06	1.460255e-06	2.622683e-10	1.011959e+01	2.062582e+01
2.170000e-06	1.505552e-06	2.783101e-10	1.043349e+01	2.147712e+01
2.180000e-06	1.550694e-06	2.940962e-10	1.074633e+01	2.230951e+01
2.190000e-06	1.595650e-06	3.066426e-10	1.105788e+01	2.312242e+01
2.200000e-06	1.640486e-06	3.157506e-10	1.136859e+01	2.391533e+01
2.210000e-06	1.685273e-06	3.232355e-10	1.167896e+01	2.468784e+01
2.220000e-06	1.729917e-06	3.313192e-10	1.198835e+01	2.543965e+01
2.230000e-06	1.774371e-06	3.408739e-10	1.229641e+01	2.617054e+01
2.240000e-06	1.818713e-06	3.508309e-10	1.260370e+01	2.688039e+01
2.250000e-06	1.862944e-06	3.619639e-10	1.291023e+01	2.756919e+01
2.260000e-06	1.907052e-06	3.724400e-10	1.321590e+01	2.823700e+01
2.270000e-06	1.951096e-06	3.822521e-10	1.352112e+01	2.888396e+01
2.280000e-06	1.995062e-06	3.913329e-10	1.382580e+01	2.951033e+01
2.290000e-06	2.038978e-06	4.003162e-10	1.413015e+01	3.011641e+01
2.300000e-06	2.082859e-06	4.092988e-10	1.443424e+01	3.070260e+01
2.310000e-06	2.126630e-06	4.186447e-10	1.473757e+01	3.126934e+01
2.320000e-06	2.170300e-06	4.285026e-10	1.504021e+01	3.181716e+01
2.330000e-06	2.213937e-06	4.356852e-10	1.534262e+01	3.234662e+01
2.340000e-06	2.257488e-06	4.405274e-10	1.564442e+01	3.285836e+01
2.350000e-06	2.300875e-06	4.470433e-10	1.594509e+01	3.335304e+01
2.360000e-06	2.343943e-06	4.543971e-10	1.624356e+01	3.383135e+01
2.370000e-06	2.386699e-06	4.631097e-10	1.653985e+01	3.429402e+01
2.380000e-06	2.429281e-06	4.725523e-10	1.683495e+01	3.474180e+01
2.390000e-06	2.471619e-06	4.810655e-10	1.712835e+01	3.517546e+01
2.400000e-06	2.513659e-06	4.890909e-10	1.741969e+01	3.559576e+01
2.410000e-06	2.555317e-06	4.962277e-10	1.770838e+01	3.600347e+01
2.420000e-06	2.596635e-06	5.018342e-10	1.799472e+01	3.639935e+01
2.430000e-06	2.637678e-06	5.066130e-10	1.827915e+01	3.678416e+01
2.440000e-06	2.678417e-06	5.126958e-10	1.856147e+01	3.715861e+01
2.450000e-06	2.718974e-06	5.201225e-10	1.884253e+01	3.752341e+01
2.460000e-06	2.759352e-06	5.287006e-10	1.912235e+01	3.787925e+01
2.470000e-06	2.799480e-06	5.362997e-10	1.940044e+01	3.822675e+01
2.480000e-06	2.839467e-06	5.432643e-10	1.967754e+01	3.856653e+01
2.490000e-06	2.879340e-06	5.497664e-10	1.995387e+01	3.889914e+01
2.500000e-06	2.919060e-06	5.563383e-10	2.022912e+01	3.922509e+01
2.510000e-06	2.958682e-06	5.627721e-10	2.050371e+01	3.954485e+01
2.520000e-06	2.998200e-06	5.681514e-10	2.077757e+01	3.985885e+01
2.530000e-06	3.037585e-06	5.712533e-10	2.105050e+01	4.016744e+01
2.540000e-06	3.076709e-06	5.734995e-10	2.132163e+01	4.047094e+01
2.550000e-06	3.115447e-06	5.747970e-10	2.159009e+01	4.076961e+01
2.560000e-06	3.153965e-06	5.785587e-10	2.185702e+01	4.106366e+01
2.570000e-06	3.192385e-06	5.841844e-10	2.212327e+01	4.135326e+01
2.580000e-06	3.230614e-06	5.893170e-10	2.238820e+01	4.163852e+01
2.590000e-06	3.268578e-06	5.948502e-10	2.265129e+01	4.191949e+01
2.600000e-06	3.306341e-06	5.998527e-10	2.291298e+01	4.219621e+01
2.610000e-06	3.343924e-06	6.044782e-10	2.317344e+01	4.246865e+01
2.620000e-06	3.381249e-06	6.086667e-10	2.343210e+01	4.273676e+01
2.630000e-06	3.418299e-06	6.136210e-10	2.368886e+01	4.300043e+01
2.640000e-06	3.455033e-06	6.171187e-10	2.394342e+01	4.325956e+01
2.650000e-06	3.491457e-06	6.193550e-10	2.419584e+01	4.351398e+01
2.660000e-06	3.527665e-06	6.231532e-10	2.444676e+01	4.376353e+01
2.670000e-06	3.563702e-06	6.279581e-10	2.469650e+01	4.400801e+01
2.680000e-06	3.599611e-06	6.322363e-10	2.494535e+01	4.424723e+01
2.690000e-06	3.635395e-06	6.365888e-10	2.519334e+01	4.448098e+01
2.700000e-06	3.671018e-06	6.419063e-10	2.544020e+01	4.470904e+01
2.710000e-06	3.706431e-06	6.477757e-10	2.568561e+01	4.493119e+01
2.720000e-06	3.741693e-06	6.516177e-10	2.592998e+01	4.514723e+01
2.730000e-06	3.776707e-06	6.530772e-10	2.617263e+01	4.535695e+01
2.740000e-06	3.811312e-06	6.527891e-10	2.641245e+01	4.556017e+01
2.750000e-06	3.845487e-06	6.540015e-10	2.664928e+01	4.575671e+01
2.760000e-06	3.879309e-06	6.570372e-10	2.688366e+01	4.594643e+01
2.770000e-06	3.912715e-06	6.611284e-10	2.711517e+01	4.612919e+01
2.780000e-06	3.945556e-06	6.658855e-10	2.734276e+01	4.630490e+01
2.790000e-06	3.977918e-06	6.721746e-10	2.756703e+01	4.647346e+01
2.800000e-06	4.009971e-06	6.788344e-10	2.778915e+01	4.663485e+01
2.810000e-06	4.041877e-06	6.831814e-10	2.801026e+01	4.678903e+01
2.820000e-06	4.073660e-06	6.848280e-10	2.823052e+01	4.693604e+01
2.830000e-06	4.105258e-06	6.844776e-10	2.844950e+01	4.707591e+01
2.840000e-06	4.136612e-06	6.839915e-10	2.866678e+01	4.720873e+01
2.850000e-06	4.167758e-06	6.844143e-10	2.888262e+01	4.733461e+01
2.860000e-06	4.198641e-06	6.874646e-10	2.909664e+01	4.745370e+01
2.870000e-06	4.229152e-06	6.927347e-10	2.930808e+01	4.756617e+01
2.880000e-06	4.259275e-06	6.990994e-10	2.951683e+01	4.767223e+01
2.890000e-06	4.289148e-06	7.056393e-10	2.972385e+01	4.777212e+01
2.900000e-06	4.318865e-06	7.092602e-10	2.992980e+01	4.786609e+01
