# Temperatura_=_-0.3
# Concentracion g/m^3_=_1620.0
# C_Vs_to_Am_M_A/Vsm_=_65563218390.804596
# pendiente_HvsI_1/m_=_3716.3
# ordenada_HvsI_A/m_=_1297.0
# frecuencia_Hz_=_135106.72576031194

Tiempo_(s)	Campo_(V.s)	Magnetizacion_(V.s)	Campo_(kA/m)	Magnetizacion_(A/m)
0.000000e+00	-5.527723e-06	-1.445178e-09	-3.837789e+01	-9.333139e+01
1.000000e-08	-5.527854e-06	-1.442922e-09	-3.837879e+01	-9.336292e+01
2.000000e-08	-5.527630e-06	-1.443838e-09	-3.837725e+01	-9.339232e+01
3.000000e-08	-5.526905e-06	-1.446102e-09	-3.837221e+01	-9.341942e+01
4.000000e-08	-5.525603e-06	-1.447882e-09	-3.836317e+01	-9.344409e+01
5.000000e-08	-5.523826e-06	-1.447640e-09	-3.835083e+01	-9.346614e+01
6.000000e-08	-5.521551e-06	-1.439662e-09	-3.833503e+01	-9.348541e+01
7.000000e-08	-5.518626e-06	-1.420435e-09	-3.831473e+01	-9.350169e+01
8.000000e-08	-5.515137e-06	-1.429050e-09	-3.829050e+01	-9.351480e+01
9.000000e-08	-5.511260e-06	-1.469935e-09	-3.826359e+01	-9.352453e+01
1.000000e-07	-5.507016e-06	-1.468781e-09	-3.823412e+01	-9.353070e+01
1.100000e-07	-5.502510e-06	-1.420168e-09	-3.820284e+01	-9.353309e+01
1.200000e-07	-5.497860e-06	-1.402621e-09	-3.817055e+01	-9.353150e+01
1.300000e-07	-5.492907e-06	-1.424294e-09	-3.813617e+01	-9.352574e+01
1.400000e-07	-5.487521e-06	-1.450459e-09	-3.809877e+01	-9.351561e+01
1.500000e-07	-5.481732e-06	-1.383440e-09	-3.805858e+01	-9.350092e+01
1.600000e-07	-5.475638e-06	-1.380706e-09	-3.801627e+01	-9.348151e+01
1.700000e-07	-5.469128e-06	-1.415425e-09	-3.797108e+01	-9.345719e+01
1.800000e-07	-5.462130e-06	-1.477319e-09	-3.792249e+01	-9.342782e+01
1.900000e-07	-5.454787e-06	-1.440311e-09	-3.787151e+01	-9.339324e+01
2.000000e-07	-5.447208e-06	-1.424094e-09	-3.781889e+01	-9.335334e+01
2.100000e-07	-5.439290e-06	-1.440159e-09	-3.776392e+01	-9.330799e+01
2.200000e-07	-5.431012e-06	-1.468326e-09	-3.770645e+01	-9.325710e+01
2.300000e-07	-5.422448e-06	-1.449116e-09	-3.764698e+01	-9.320059e+01
2.400000e-07	-5.413370e-06	-1.431427e-09	-3.758396e+01	-9.313840e+01
2.500000e-07	-5.403529e-06	-1.454441e-09	-3.751564e+01	-9.307047e+01
2.600000e-07	-5.393021e-06	-1.454975e-09	-3.744268e+01	-9.299678e+01
2.700000e-07	-5.381955e-06	-1.440668e-09	-3.736585e+01	-9.291733e+01
2.800000e-07	-5.370475e-06	-1.417362e-09	-3.728615e+01	-9.283212e+01
2.900000e-07	-5.358704e-06	-1.438477e-09	-3.720442e+01	-9.274117e+01
3.000000e-07	-5.346562e-06	-1.428122e-09	-3.712012e+01	-9.264453e+01
3.100000e-07	-5.334036e-06	-1.422419e-09	-3.703316e+01	-9.254226e+01
3.200000e-07	-5.321104e-06	-1.394001e-09	-3.694337e+01	-9.243442e+01
3.300000e-07	-5.307832e-06	-1.422459e-09	-3.685123e+01	-9.232112e+01
3.400000e-07	-5.294178e-06	-1.411143e-09	-3.675643e+01	-9.220244e+01
3.500000e-07	-5.280061e-06	-1.398736e-09	-3.665842e+01	-9.207851e+01
3.600000e-07	-5.265440e-06	-1.380715e-09	-3.655691e+01	-9.194944e+01
3.700000e-07	-5.250366e-06	-1.412013e-09	-3.645225e+01	-9.181537e+01
3.800000e-07	-5.234721e-06	-1.391939e-09	-3.634363e+01	-9.167644e+01
3.900000e-07	-5.218450e-06	-1.380947e-09	-3.623067e+01	-9.153279e+01
4.000000e-07	-5.201916e-06	-1.394134e-09	-3.611588e+01	-9.138457e+01
4.100000e-07	-5.185193e-06	-1.404266e-09	-3.599977e+01	-9.123194e+01
4.200000e-07	-5.168140e-06	-1.364619e-09	-3.588138e+01	-9.107505e+01
4.300000e-07	-5.150753e-06	-1.373111e-09	-3.576066e+01	-9.091406e+01
4.400000e-07	-5.132893e-06	-1.400315e-09	-3.563666e+01	-9.074911e+01
4.500000e-07	-5.114599e-06	-1.374879e-09	-3.550965e+01	-9.058036e+01
4.600000e-07	-5.095952e-06	-1.351812e-09	-3.538019e+01	-9.040795e+01
4.700000e-07	-5.076981e-06	-1.378927e-09	-3.524848e+01	-9.023203e+01
4.800000e-07	-5.057734e-06	-1.374705e-09	-3.511485e+01	-9.005273e+01
4.900000e-07	-5.038182e-06	-1.343624e-09	-3.497910e+01	-8.987018e+01
5.000000e-07	-5.018456e-06	-1.363155e-09	-3.484215e+01	-8.968449e+01
5.100000e-07	-4.998571e-06	-1.365240e-09	-3.470409e+01	-8.949577e+01
5.200000e-07	-4.978282e-06	-1.330287e-09	-3.456322e+01	-8.930414e+01
5.300000e-07	-4.957449e-06	-1.336414e-09	-3.441859e+01	-8.910966e+01
5.400000e-07	-4.936286e-06	-1.370025e-09	-3.427166e+01	-8.891244e+01
5.500000e-07	-4.914883e-06	-1.338563e-09	-3.412306e+01	-8.871254e+01
5.600000e-07	-4.893171e-06	-1.321403e-09	-3.397232e+01	-8.851002e+01
5.700000e-07	-4.871058e-06	-1.340323e-09	-3.381879e+01	-8.830493e+01
5.800000e-07	-4.848538e-06	-1.334443e-09	-3.366244e+01	-8.809731e+01
5.900000e-07	-4.825679e-06	-1.308026e-09	-3.350374e+01	-8.788719e+01
6.000000e-07	-4.802563e-06	-1.329653e-09	-3.334325e+01	-8.767460e+01
6.100000e-07	-4.779144e-06	-1.329606e-09	-3.318065e+01	-8.745955e+01
6.200000e-07	-4.755485e-06	-1.307074e-09	-3.301639e+01	-8.724204e+01
6.300000e-07	-4.731686e-06	-1.302371e-09	-3.285116e+01	-8.702208e+01
6.400000e-07	-4.707562e-06	-1.313259e-09	-3.268367e+01	-8.679967e+01
6.500000e-07	-4.682945e-06	-1.294591e-09	-3.251276e+01	-8.657477e+01
6.600000e-07	-4.657788e-06	-1.294208e-09	-3.233810e+01	-8.634739e+01
6.700000e-07	-4.632100e-06	-1.300779e-09	-3.215976e+01	-8.611750e+01
6.800000e-07	-4.605877e-06	-1.295068e-09	-3.197770e+01	-8.588507e+01
6.900000e-07	-4.579189e-06	-1.284409e-09	-3.179240e+01	-8.565008e+01
7.000000e-07	-4.552133e-06	-1.290896e-09	-3.160456e+01	-8.541250e+01
7.100000e-07	-4.524770e-06	-1.282917e-09	-3.141458e+01	-8.517231e+01
7.200000e-07	-4.497210e-06	-1.271190e-09	-3.122324e+01	-8.492946e+01
7.300000e-07	-4.469500e-06	-1.267918e-09	-3.103085e+01	-8.468394e+01
7.400000e-07	-4.441578e-06	-1.269750e-09	-3.083700e+01	-8.443571e+01
7.500000e-07	-4.413429e-06	-1.263824e-09	-3.064157e+01	-8.418475e+01
7.600000e-07	-4.384978e-06	-1.260721e-09	-3.044404e+01	-8.393103e+01
7.700000e-07	-4.356108e-06	-1.257943e-09	-3.024360e+01	-8.367453e+01
7.800000e-07	-4.326888e-06	-1.248093e-09	-3.004073e+01	-8.341522e+01
7.900000e-07	-4.297401e-06	-1.240298e-09	-2.983600e+01	-8.315308e+01
8.000000e-07	-4.267685e-06	-1.236685e-09	-2.962969e+01	-8.288809e+01
8.100000e-07	-4.237722e-06	-1.231278e-09	-2.942167e+01	-8.262024e+01
8.200000e-07	-4.207459e-06	-1.223828e-09	-2.921155e+01	-8.234949e+01
8.300000e-07	-4.176891e-06	-1.226121e-09	-2.899933e+01	-8.207585e+01
8.400000e-07	-4.146026e-06	-1.223273e-09	-2.878504e+01	-8.179927e+01
8.500000e-07	-4.114902e-06	-1.217117e-09	-2.856895e+01	-8.151976e+01
8.600000e-07	-4.083528e-06	-1.209150e-09	-2.835113e+01	-8.123728e+01
8.700000e-07	-4.051962e-06	-1.203429e-09	-2.813197e+01	-8.095180e+01
8.800000e-07	-4.020273e-06	-1.190993e-09	-2.791196e+01	-8.066331e+01
8.900000e-07	-3.988402e-06	-1.186718e-09	-2.769069e+01	-8.037178e+01
9.000000e-07	-3.956273e-06	-1.181868e-09	-2.746762e+01	-8.007716e+01
9.100000e-07	-3.923786e-06	-1.175961e-09	-2.724207e+01	-7.977941e+01
9.200000e-07	-3.890776e-06	-1.170480e-09	-2.701289e+01	-7.947850e+01
9.300000e-07	-3.857317e-06	-1.172459e-09	-2.678059e+01	-7.917436e+01
9.400000e-07	-3.823477e-06	-1.165757e-09	-2.654564e+01	-7.886692e+01
9.500000e-07	-3.789256e-06	-1.159967e-09	-2.630806e+01	-7.855613e+01
9.600000e-07	-3.754595e-06	-1.154870e-09	-2.606741e+01	-7.824190e+01
9.700000e-07	-3.719516e-06	-1.149361e-09	-2.582387e+01	-7.792414e+01
9.800000e-07	-3.684173e-06	-1.139172e-09	-2.557849e+01	-7.760275e+01
9.900000e-07	-3.648665e-06	-1.134054e-09	-2.533196e+01	-7.727762e+01
1.000000e-06	-3.613100e-06	-1.128524e-09	-2.508504e+01	-7.694864e+01
1.010000e-06	-3.577372e-06	-1.121985e-09	-2.483699e+01	-7.661567e+01
1.020000e-06	-3.541461e-06	-1.119819e-09	-2.458766e+01	-7.627858e+01
1.030000e-06	-3.505381e-06	-1.118107e-09	-2.433717e+01	-7.593720e+01
1.040000e-06	-3.469038e-06	-1.110992e-09	-2.408484e+01	-7.559139e+01
1.050000e-06	-3.432352e-06	-1.100641e-09	-2.383014e+01	-7.524098e+01
1.060000e-06	-3.395367e-06	-1.090762e-09	-2.357336e+01	-7.488578e+01
1.070000e-06	-3.358181e-06	-1.083328e-09	-2.331518e+01	-7.452562e+01
1.080000e-06	-3.320729e-06	-1.079698e-09	-2.305516e+01	-7.416030e+01
1.090000e-06	-3.283084e-06	-1.079560e-09	-2.279380e+01	-7.378962e+01
1.100000e-06	-3.245322e-06	-1.076565e-09	-2.253163e+01	-7.341338e+01
1.110000e-06	-3.207302e-06	-1.066780e-09	-2.226766e+01	-7.303138e+01
1.120000e-06	-3.168992e-06	-1.056973e-09	-2.200168e+01	-7.264341e+01
1.130000e-06	-3.130482e-06	-1.047503e-09	-2.173432e+01	-7.224925e+01
1.140000e-06	-3.091774e-06	-1.038791e-09	-2.146557e+01	-7.184870e+01
1.150000e-06	-3.052895e-06	-1.030818e-09	-2.119564e+01	-7.144154e+01
1.160000e-06	-3.013799e-06	-1.027157e-09	-2.092421e+01	-7.102758e+01
1.170000e-06	-2.974525e-06	-1.021544e-09	-2.065154e+01	-7.060661e+01
1.180000e-06	-2.935107e-06	-1.015441e-09	-2.037786e+01	-7.017844e+01
1.190000e-06	-2.895522e-06	-1.008467e-09	-2.010304e+01	-6.974287e+01
1.200000e-06	-2.855817e-06	-1.001986e-09	-1.982738e+01	-6.929971e+01
1.210000e-06	-2.815972e-06	-9.914490e-10	-1.955074e+01	-6.884881e+01
1.220000e-06	-2.775973e-06	-9.835983e-10	-1.927303e+01	-6.838998e+01
1.230000e-06	-2.735737e-06	-9.778658e-10	-1.899368e+01	-6.792308e+01
1.240000e-06	-2.695259e-06	-9.713255e-10	-1.871265e+01	-6.744796e+01
1.250000e-06	-2.654547e-06	-9.633859e-10	-1.842999e+01	-6.696448e+01
1.260000e-06	-2.613549e-06	-9.565977e-10	-1.814536e+01	-6.647253e+01
1.270000e-06	-2.572164e-06	-9.501622e-10	-1.785802e+01	-6.597198e+01
1.280000e-06	-2.530344e-06	-9.431842e-10	-1.756768e+01	-6.546275e+01
1.290000e-06	-2.488411e-06	-9.354930e-10	-1.727654e+01	-6.494473e+01
1.300000e-06	-2.446334e-06	-9.263395e-10	-1.698442e+01	-6.441785e+01
1.310000e-06	-2.403794e-06	-9.143192e-10	-1.668906e+01	-6.388204e+01
1.320000e-06	-2.360967e-06	-9.029358e-10	-1.639173e+01	-6.333723e+01
1.330000e-06	-2.317942e-06	-8.931076e-10	-1.609302e+01	-6.278337e+01
1.340000e-06	-2.274697e-06	-8.863406e-10	-1.579277e+01	-6.222041e+01
1.350000e-06	-2.231360e-06	-8.788032e-10	-1.549189e+01	-6.164830e+01
1.360000e-06	-2.187907e-06	-8.707126e-10	-1.519020e+01	-6.106700e+01
1.370000e-06	-2.144338e-06	-8.621569e-10	-1.488771e+01	-6.047647e+01
1.380000e-06	-2.100727e-06	-8.534339e-10	-1.458493e+01	-5.987666e+01
1.390000e-06	-2.057032e-06	-8.430368e-10	-1.428157e+01	-5.926753e+01
1.400000e-06	-2.013252e-06	-8.306658e-10	-1.397761e+01	-5.864902e+01
1.410000e-06	-1.969456e-06	-8.191130e-10	-1.367354e+01	-5.802108e+01
1.420000e-06	-1.925554e-06	-8.105076e-10	-1.336874e+01	-5.738364e+01
1.430000e-06	-1.881543e-06	-8.039057e-10	-1.306318e+01	-5.673661e+01
1.440000e-06	-1.837450e-06	-7.950369e-10	-1.275705e+01	-5.607991e+01
1.450000e-06	-1.793226e-06	-7.836293e-10	-1.245001e+01	-5.541342e+01
1.460000e-06	-1.748803e-06	-7.685756e-10	-1.214160e+01	-5.473702e+01
1.470000e-06	-1.704157e-06	-7.516512e-10	-1.183163e+01	-5.405057e+01
1.480000e-06	-1.659395e-06	-7.360311e-10	-1.152085e+01	-5.335388e+01
1.490000e-06	-1.614564e-06	-7.257296e-10	-1.120960e+01	-5.264678e+01
1.500000e-06	-1.569578e-06	-7.193861e-10	-1.089727e+01	-5.192905e+01
1.510000e-06	-1.524426e-06	-7.115361e-10	-1.058379e+01	-5.120045e+01
1.520000e-06	-1.479229e-06	-6.976703e-10	-1.026999e+01	-5.046072e+01
1.530000e-06	-1.433957e-06	-6.814684e-10	-9.955679e+00	-4.970957e+01
1.540000e-06	-1.388528e-06	-6.647180e-10	-9.640274e+00	-4.894669e+01
1.550000e-06	-1.342991e-06	-6.509406e-10	-9.324119e+00	-4.817174e+01
1.560000e-06	-1.297329e-06	-6.392424e-10	-9.007099e+00	-4.738436e+01
1.570000e-06	-1.251581e-06	-6.299840e-10	-8.689481e+00	-4.658416e+01
1.580000e-06	-1.205827e-06	-6.207648e-10	-8.371821e+00	-4.577073e+01
1.590000e-06	-1.159985e-06	-6.103336e-10	-8.053543e+00	-4.494364e+01
1.600000e-06	-1.114029e-06	-5.975321e-10	-7.734481e+00	-4.410245e+01
1.610000e-06	-1.067999e-06	-5.825443e-10	-7.414909e+00	-4.324669e+01
1.620000e-06	-1.021910e-06	-5.682126e-10	-7.094921e+00	-4.237589e+01
1.630000e-06	-9.757875e-07	-5.552778e-10	-6.774700e+00	-4.148956e+01
1.640000e-06	-9.296277e-07	-5.401746e-10	-6.454221e+00	-4.058722e+01
1.650000e-06	-8.834013e-07	-5.250528e-10	-6.133281e+00	-3.966836e+01
1.660000e-06	-8.370305e-07	-5.114550e-10	-5.811337e+00	-3.873251e+01
1.670000e-06	-7.905548e-07	-4.980976e-10	-5.488665e+00	-3.777916e+01
1.680000e-06	-7.439941e-07	-4.840663e-10	-5.165404e+00	-3.680785e+01
1.690000e-06	-6.973211e-07	-4.710167e-10	-4.841362e+00	-3.581812e+01
1.700000e-06	-6.506807e-07	-4.571009e-10	-4.517547e+00	-3.480953e+01
1.710000e-06	-6.040601e-07	-4.399256e-10	-4.193870e+00	-3.378167e+01
1.720000e-06	-5.573309e-07	-4.218575e-10	-3.869438e+00	-3.273414e+01
1.730000e-06	-5.105164e-07	-4.027429e-10	-3.544414e+00	-3.166660e+01
1.740000e-06	-4.637526e-07	-3.826017e-10	-3.219743e+00	-3.057875e+01
1.750000e-06	-4.170051e-07	-3.658162e-10	-2.895184e+00	-2.947031e+01
1.760000e-06	-3.701669e-07	-3.500937e-10	-2.569996e+00	-2.834108e+01
1.770000e-06	-3.232709e-07	-3.375940e-10	-2.244406e+00	-2.719089e+01
1.780000e-06	-2.763216e-07	-3.271172e-10	-1.918446e+00	-2.601964e+01
1.790000e-06	-2.293282e-07	-3.103894e-10	-1.592180e+00	-2.482728e+01
1.800000e-06	-1.823333e-07	-2.880549e-10	-1.265904e+00	-2.361386e+01
1.810000e-06	-1.353619e-07	-2.637775e-10	-9.397908e-01	-2.237945e+01
1.820000e-06	-8.843586e-08	-2.427199e-10	-6.139927e-01	-2.112424e+01
1.830000e-06	-4.156241e-08	-2.236261e-10	-2.885596e-01	-1.984846e+01
1.840000e-06	5.349221e-09	-2.077670e-10	3.713858e-02	-1.855244e+01
1.850000e-06	5.221630e-08	-1.958032e-10	3.625275e-01	-1.723656e+01
1.860000e-06	9.907276e-08	-1.837084e-10	6.878426e-01	-1.590132e+01
1.870000e-06	1.459994e-07	-1.669588e-10	1.013645e+00	-1.454726e+01
1.880000e-06	1.929084e-07	-1.456896e-10	1.339325e+00	-1.317503e+01
1.890000e-06	2.398640e-07	-1.201841e-10	1.665328e+00	-1.178534e+01
1.900000e-06	2.867272e-07	-9.481132e-11	1.990690e+00	-1.037899e+01
1.910000e-06	3.334288e-07	-7.295198e-11	2.314930e+00	-8.956851e+00
1.920000e-06	3.801718e-07	-5.698328e-11	2.639457e+00	-7.519865e+00
1.930000e-06	4.269568e-07	-4.318642e-11	2.964277e+00	-6.069050e+00
1.940000e-06	4.737072e-07	-2.971835e-11	3.288855e+00	-4.605488e+00
1.950000e-06	5.204201e-07	-1.283858e-11	3.613174e+00	-3.130326e+00
1.960000e-06	5.670834e-07	6.511090e-12	3.937148e+00	-1.644771e+00
1.970000e-06	6.136853e-07	2.945248e-11	4.260696e+00	-1.500802e-01
1.980000e-06	6.602172e-07	5.414114e-11	4.583757e+00	1.352438e+00
1.990000e-06	7.067670e-07	7.763405e-11	4.906944e+00	2.861433e+00
2.000000e-06	7.532578e-07	9.926324e-11	5.229720e+00	4.375518e+00
2.010000e-06	7.996303e-07	1.187778e-10	5.551675e+00	5.893276e+00
2.020000e-06	8.458964e-07	1.376473e-10	5.872891e+00	7.413268e+00
2.030000e-06	8.920482e-07	1.561500e-10	6.193314e+00	8.934038e+00
2.040000e-06	9.381665e-07	1.747468e-10	6.513504e+00	1.045412e+01
2.050000e-06	9.842629e-07	1.953293e-10	6.833542e+00	1.197204e+01
2.060000e-06	1.030306e-06	2.181534e-10	7.153208e+00	1.348635e+01
2.070000e-06	1.076271e-06	2.409811e-10	7.472336e+00	1.499559e+01
2.080000e-06	1.122155e-06	2.637151e-10	7.790900e+00	1.649833e+01
2.090000e-06	1.167932e-06	2.851420e-10	8.108723e+00	1.799316e+01
2.100000e-06	1.213638e-06	3.051536e-10	8.426048e+00	1.947872e+01
2.110000e-06	1.259308e-06	3.248574e-10	8.743128e+00	2.095367e+01
2.120000e-06	1.304902e-06	3.464932e-10	9.059675e+00	2.241673e+01
2.130000e-06	1.350397e-06	3.677493e-10	9.375539e+00	2.386666e+01
2.140000e-06	1.395785e-06	3.890392e-10	9.690656e+00	2.530228e+01
2.150000e-06	1.441078e-06	4.070271e-10	1.000512e+01	2.672249e+01
2.160000e-06	1.486336e-06	4.245526e-10	1.031934e+01	2.812622e+01
2.170000e-06	1.531512e-06	4.427341e-10	1.063298e+01	2.951251e+01
2.180000e-06	1.576542e-06	4.619958e-10	1.094562e+01	3.088045e+01
2.190000e-06	1.621409e-06	4.805338e-10	1.125712e+01	3.222922e+01
2.200000e-06	1.666083e-06	4.997060e-10	1.156728e+01	3.355806e+01
2.210000e-06	1.710616e-06	5.189038e-10	1.187647e+01	3.486632e+01
2.220000e-06	1.754988e-06	5.374542e-10	1.218453e+01	3.615341e+01
2.230000e-06	1.799206e-06	5.546267e-10	1.249153e+01	3.741883e+01
2.240000e-06	1.843369e-06	5.715742e-10	1.279815e+01	3.866216e+01
2.250000e-06	1.887427e-06	5.878337e-10	1.310403e+01	3.988308e+01
2.260000e-06	1.931395e-06	6.037620e-10	1.340929e+01	4.108132e+01
2.270000e-06	1.975277e-06	6.201556e-10	1.371396e+01	4.225672e+01
2.280000e-06	2.019041e-06	6.365617e-10	1.401780e+01	4.340917e+01
2.290000e-06	2.062742e-06	6.524341e-10	1.432121e+01	4.453866e+01
2.300000e-06	2.106379e-06	6.675970e-10	1.462417e+01	4.564523e+01
2.310000e-06	2.149970e-06	6.829429e-10	1.492682e+01	4.672901e+01
2.320000e-06	2.193529e-06	6.977550e-10	1.522924e+01	4.779016e+01
2.330000e-06	2.236939e-06	7.126637e-10	1.553063e+01	4.882893e+01
2.340000e-06	2.280181e-06	7.261987e-10	1.583085e+01	4.984560e+01
2.350000e-06	2.323347e-06	7.386998e-10	1.613054e+01	5.084052e+01
2.360000e-06	2.366358e-06	7.499090e-10	1.642915e+01	5.181408e+01
2.370000e-06	2.409084e-06	7.602987e-10	1.672579e+01	5.276668e+01
2.380000e-06	2.451464e-06	7.718023e-10	1.702003e+01	5.369879e+01
2.390000e-06	2.493542e-06	7.868080e-10	1.731217e+01	5.461089e+01
2.400000e-06	2.535360e-06	8.010559e-10	1.760251e+01	5.550349e+01
2.410000e-06	2.576946e-06	8.151815e-10	1.789123e+01	5.637709e+01
2.420000e-06	2.618212e-06	8.297118e-10	1.817773e+01	5.723223e+01
2.430000e-06	2.659104e-06	8.426496e-10	1.846163e+01	5.806945e+01
2.440000e-06	2.699695e-06	8.544286e-10	1.874345e+01	5.888928e+01
2.450000e-06	2.739988e-06	8.678036e-10	1.902319e+01	5.969225e+01
2.460000e-06	2.780073e-06	8.793631e-10	1.930149e+01	6.047889e+01
2.470000e-06	2.820022e-06	8.894634e-10	1.957886e+01	6.124971e+01
2.480000e-06	2.859832e-06	8.994752e-10	1.985525e+01	6.200519e+01
2.490000e-06	2.899515e-06	9.099297e-10	2.013076e+01	6.274583e+01
2.500000e-06	2.939111e-06	9.204718e-10	2.040567e+01	6.347206e+01
2.510000e-06	2.978568e-06	9.303814e-10	2.067961e+01	6.418431e+01
2.520000e-06	3.017795e-06	9.408785e-10	2.095195e+01	6.488298e+01
2.530000e-06	3.056873e-06	9.505239e-10	2.122326e+01	6.556845e+01
2.540000e-06	3.095841e-06	9.583090e-10	2.149381e+01	6.624103e+01
2.550000e-06	3.134570e-06	9.640255e-10	2.176270e+01	6.690106e+01
2.560000e-06	3.172965e-06	9.692995e-10	2.202927e+01	6.754879e+01
2.570000e-06	3.211046e-06	9.760399e-10	2.229366e+01	6.818447e+01
2.580000e-06	3.248923e-06	9.831678e-10	2.255663e+01	6.880832e+01
2.590000e-06	3.286641e-06	9.920374e-10	2.281850e+01	6.942051e+01
2.600000e-06	3.324158e-06	1.002787e-09	2.307897e+01	7.002120e+01
2.610000e-06	3.361477e-06	1.013589e-09	2.333807e+01	7.061052e+01
2.620000e-06	3.398504e-06	1.023676e-09	2.359514e+01	7.118855e+01
2.630000e-06	3.435175e-06	1.031540e-09	2.384974e+01	7.175539e+01
2.640000e-06	3.471573e-06	1.036775e-09	2.410245e+01	7.231109e+01
2.650000e-06	3.507736e-06	1.041105e-09	2.435352e+01	7.285568e+01
2.660000e-06	3.543674e-06	1.046315e-09	2.460302e+01	7.338918e+01
2.670000e-06	3.579457e-06	1.051631e-09	2.485146e+01	7.391162e+01
2.680000e-06	3.615119e-06	1.059388e-09	2.509906e+01	7.442297e+01
2.690000e-06	3.650661e-06	1.069291e-09	2.534582e+01	7.492325e+01
2.700000e-06	3.686100e-06	1.079432e-09	2.559187e+01	7.541244e+01
2.710000e-06	3.721375e-06	1.088221e-09	2.583677e+01	7.589053e+01
2.720000e-06	3.756435e-06	1.097440e-09	2.608019e+01	7.635752e+01
2.730000e-06	3.791221e-06	1.105847e-09	2.632170e+01	7.681341e+01
2.740000e-06	3.825590e-06	1.110276e-09	2.656031e+01	7.725820e+01
2.750000e-06	3.859470e-06	1.112819e-09	2.679554e+01	7.769191e+01
2.760000e-06	3.892911e-06	1.117280e-09	2.702771e+01	7.811458e+01
2.770000e-06	3.925905e-06	1.123192e-09	2.725678e+01	7.852626e+01
2.780000e-06	3.958434e-06	1.131053e-09	2.748263e+01	7.892700e+01
2.790000e-06	3.990563e-06	1.140493e-09	2.770569e+01	7.931690e+01
2.800000e-06	4.022409e-06	1.149139e-09	2.792679e+01	7.969607e+01
2.810000e-06	4.054100e-06	1.156225e-09	2.814681e+01	8.006462e+01
2.820000e-06	4.085693e-06	1.162303e-09	2.836616e+01	8.042271e+01
2.830000e-06	4.117142e-06	1.166217e-09	2.858451e+01	8.077050e+01
2.840000e-06	4.148348e-06	1.167940e-09	2.880116e+01	8.110820e+01
2.850000e-06	4.179296e-06	1.171919e-09	2.901602e+01	8.143601e+01
2.860000e-06	4.209982e-06	1.177434e-09	2.922907e+01	8.175418e+01
2.870000e-06	4.240295e-06	1.181551e-09	2.943953e+01	8.206296e+01
2.880000e-06	4.270228e-06	1.186616e-09	2.964735e+01	8.236263e+01
2.890000e-06	4.299859e-06	1.192400e-09	2.985307e+01	8.265348e+01
2.900000e-06	4.329161e-06	1.198113e-09	3.005651e+01	8.293583e+01
