# Temperatura_=_11.0
# Concentracion g/m^3_=_1620.0
# C_Vs_to_Am_M_A/Vsm_=_65563218390.804596
# pendiente_HvsI_1/m_=_3716.3
# ordenada_HvsI_A/m_=_1297.0
# frecuencia_Hz_=_135104.73672521507

Tiempo_(s)	Campo_(V.s)	Magnetizacion_(V.s)	Campo_(kA/m)	Magnetizacion_(A/m)
0.000000e+00	-5.521770e-06	-7.692503e-10	-3.836694e+01	-5.044053e+01
1.000000e-08	-5.522058e-06	-7.689499e-10	-3.836894e+01	-5.041369e+01
2.000000e-08	-5.522098e-06	-7.693726e-10	-3.836922e+01	-5.038723e+01
3.000000e-08	-5.521833e-06	-7.723845e-10	-3.836737e+01	-5.036113e+01
4.000000e-08	-5.521175e-06	-7.750455e-10	-3.836281e+01	-5.033536e+01
5.000000e-08	-5.519967e-06	-7.734632e-10	-3.835441e+01	-5.030990e+01
6.000000e-08	-5.518160e-06	-7.664843e-10	-3.834186e+01	-5.028471e+01
7.000000e-08	-5.515733e-06	-7.469295e-10	-3.832499e+01	-5.025973e+01
8.000000e-08	-5.512705e-06	-7.391665e-10	-3.830395e+01	-5.023493e+01
9.000000e-08	-5.509248e-06	-7.951043e-10	-3.827993e+01	-5.021026e+01
1.000000e-07	-5.505400e-06	-8.680827e-10	-3.825320e+01	-5.018565e+01
1.100000e-07	-5.501115e-06	-8.198110e-10	-3.822342e+01	-5.016105e+01
1.200000e-07	-5.496546e-06	-7.079513e-10	-3.819167e+01	-5.013641e+01
1.300000e-07	-5.491796e-06	-6.927942e-10	-3.815867e+01	-5.011166e+01
1.400000e-07	-5.486792e-06	-7.958777e-10	-3.812390e+01	-5.008677e+01
1.500000e-07	-5.481412e-06	-7.971436e-10	-3.808652e+01	-5.006166e+01
1.600000e-07	-5.475563e-06	-7.121894e-10	-3.804588e+01	-5.003629e+01
1.700000e-07	-5.469399e-06	-7.159392e-10	-3.800305e+01	-5.001061e+01
1.800000e-07	-5.462916e-06	-8.131635e-10	-3.795800e+01	-4.998456e+01
1.900000e-07	-5.455906e-06	-8.119840e-10	-3.790929e+01	-4.995811e+01
2.000000e-07	-5.448493e-06	-7.195339e-10	-3.785779e+01	-4.993121e+01
2.100000e-07	-5.440841e-06	-7.076894e-10	-3.780462e+01	-4.990382e+01
2.200000e-07	-5.432915e-06	-7.751331e-10	-3.774955e+01	-4.987591e+01
2.300000e-07	-5.424679e-06	-7.943844e-10	-3.769232e+01	-4.984743e+01
2.400000e-07	-5.416151e-06	-7.522255e-10	-3.763307e+01	-4.981835e+01
2.500000e-07	-5.407200e-06	-7.459135e-10	-3.757087e+01	-4.978864e+01
2.600000e-07	-5.397508e-06	-7.610090e-10	-3.750352e+01	-4.975827e+01
2.700000e-07	-5.387020e-06	-7.759822e-10	-3.743065e+01	-4.972720e+01
2.800000e-07	-5.376002e-06	-7.641314e-10	-3.735410e+01	-4.969541e+01
2.900000e-07	-5.364587e-06	-7.720688e-10	-3.727479e+01	-4.966285e+01
3.000000e-07	-5.352792e-06	-7.811720e-10	-3.719283e+01	-4.962950e+01
3.100000e-07	-5.340612e-06	-7.941101e-10	-3.710820e+01	-4.959531e+01
3.200000e-07	-5.328057e-06	-7.767682e-10	-3.702096e+01	-4.956025e+01
3.300000e-07	-5.315083e-06	-7.538931e-10	-3.693081e+01	-4.952427e+01
3.400000e-07	-5.301708e-06	-7.549367e-10	-3.683788e+01	-4.948732e+01
3.500000e-07	-5.287975e-06	-7.753760e-10	-3.674246e+01	-4.944936e+01
3.600000e-07	-5.273816e-06	-7.552333e-10	-3.664408e+01	-4.941031e+01
3.700000e-07	-5.259263e-06	-7.540916e-10	-3.654296e+01	-4.937014e+01
3.800000e-07	-5.244201e-06	-7.850679e-10	-3.643830e+01	-4.932875e+01
3.900000e-07	-5.228441e-06	-7.758712e-10	-3.632880e+01	-4.928609e+01
4.000000e-07	-5.212176e-06	-7.387709e-10	-3.621578e+01	-4.924207e+01
4.100000e-07	-5.195675e-06	-7.725112e-10	-3.610113e+01	-4.919661e+01
4.200000e-07	-5.178907e-06	-7.890566e-10	-3.598462e+01	-4.914962e+01
4.300000e-07	-5.161725e-06	-7.277621e-10	-3.586523e+01	-4.910101e+01
4.400000e-07	-5.144203e-06	-7.322986e-10	-3.574349e+01	-4.905068e+01
4.500000e-07	-5.126412e-06	-7.912806e-10	-3.561987e+01	-4.899854e+01
4.600000e-07	-5.108138e-06	-7.526574e-10	-3.549290e+01	-4.894447e+01
4.700000e-07	-5.089324e-06	-7.027675e-10	-3.536217e+01	-4.888839e+01
4.800000e-07	-5.070179e-06	-7.666367e-10	-3.522914e+01	-4.883018e+01
4.900000e-07	-5.050784e-06	-7.793596e-10	-3.509438e+01	-4.876973e+01
5.000000e-07	-5.031097e-06	-7.199890e-10	-3.495759e+01	-4.870696e+01
5.100000e-07	-5.011219e-06	-7.402265e-10	-3.481947e+01	-4.864175e+01
5.200000e-07	-4.991109e-06	-7.732393e-10	-3.467975e+01	-4.857402e+01
5.300000e-07	-4.970591e-06	-7.109044e-10	-3.453718e+01	-4.850367e+01
5.400000e-07	-4.949693e-06	-7.140226e-10	-3.439197e+01	-4.843062e+01
5.500000e-07	-4.928510e-06	-7.720834e-10	-3.424479e+01	-4.835479e+01
5.600000e-07	-4.906972e-06	-7.358735e-10	-3.409514e+01	-4.827613e+01
5.700000e-07	-4.885096e-06	-6.931032e-10	-3.394313e+01	-4.819457e+01
5.800000e-07	-4.862990e-06	-7.496065e-10	-3.378953e+01	-4.811007e+01
5.900000e-07	-4.840494e-06	-7.501765e-10	-3.363323e+01	-4.802260e+01
6.000000e-07	-4.817595e-06	-6.980972e-10	-3.347412e+01	-4.793215e+01
6.100000e-07	-4.794399e-06	-7.216525e-10	-3.331295e+01	-4.783870e+01
6.200000e-07	-4.770898e-06	-7.491626e-10	-3.314965e+01	-4.774227e+01
6.300000e-07	-4.747226e-06	-7.025067e-10	-3.298517e+01	-4.764289e+01
6.400000e-07	-4.723391e-06	-7.003568e-10	-3.281956e+01	-4.754060e+01
6.500000e-07	-4.699260e-06	-7.344701e-10	-3.265189e+01	-4.743545e+01
6.600000e-07	-4.674685e-06	-7.156558e-10	-3.248113e+01	-4.732752e+01
6.700000e-07	-4.649603e-06	-7.005566e-10	-3.230686e+01	-4.721691e+01
6.800000e-07	-4.624009e-06	-7.289755e-10	-3.212902e+01	-4.710370e+01
6.900000e-07	-4.597848e-06	-7.238476e-10	-3.194725e+01	-4.698803e+01
7.000000e-07	-4.571146e-06	-7.009451e-10	-3.176171e+01	-4.687002e+01
7.100000e-07	-4.543971e-06	-7.177669e-10	-3.157289e+01	-4.674981e+01
7.200000e-07	-4.516452e-06	-7.266796e-10	-3.138168e+01	-4.662757e+01
7.300000e-07	-4.488799e-06	-7.047619e-10	-3.118954e+01	-4.650345e+01
7.400000e-07	-4.461052e-06	-7.034739e-10	-3.099675e+01	-4.637762e+01
7.500000e-07	-4.433111e-06	-7.174647e-10	-3.080260e+01	-4.625027e+01
7.600000e-07	-4.404891e-06	-7.053699e-10	-3.060652e+01	-4.612157e+01
7.700000e-07	-4.376343e-06	-6.959050e-10	-3.040816e+01	-4.599171e+01
7.800000e-07	-4.347483e-06	-7.034407e-10	-3.020764e+01	-4.586087e+01
7.900000e-07	-4.318278e-06	-6.996310e-10	-3.000471e+01	-4.572923e+01
8.000000e-07	-4.288745e-06	-6.910819e-10	-2.979951e+01	-4.559696e+01
8.100000e-07	-4.258983e-06	-7.023485e-10	-2.959271e+01	-4.546425e+01
8.200000e-07	-4.228928e-06	-7.024807e-10	-2.938388e+01	-4.533124e+01
8.300000e-07	-4.198606e-06	-6.916485e-10	-2.917319e+01	-4.519808e+01
8.400000e-07	-4.167988e-06	-6.920165e-10	-2.896045e+01	-4.506490e+01
8.500000e-07	-4.137012e-06	-6.959560e-10	-2.874522e+01	-4.493183e+01
8.600000e-07	-4.105768e-06	-6.841646e-10	-2.852813e+01	-4.479897e+01
8.700000e-07	-4.074316e-06	-6.822363e-10	-2.830958e+01	-4.466639e+01
8.800000e-07	-4.042716e-06	-6.848300e-10	-2.809002e+01	-4.453415e+01
8.900000e-07	-4.010962e-06	-6.751681e-10	-2.786939e+01	-4.440229e+01
9.000000e-07	-3.979076e-06	-6.667714e-10	-2.764783e+01	-4.427082e+01
9.100000e-07	-3.946983e-06	-6.691312e-10	-2.742484e+01	-4.413972e+01
9.200000e-07	-3.914470e-06	-6.647910e-10	-2.719893e+01	-4.400896e+01
9.300000e-07	-3.881562e-06	-6.604782e-10	-2.697027e+01	-4.387846e+01
9.400000e-07	-3.848300e-06	-6.659964e-10	-2.673916e+01	-4.374814e+01
9.500000e-07	-3.814428e-06	-6.646760e-10	-2.650381e+01	-4.361788e+01
9.600000e-07	-3.779994e-06	-6.511027e-10	-2.626455e+01	-4.348752e+01
9.700000e-07	-3.745215e-06	-6.480357e-10	-2.602289e+01	-4.335689e+01
9.800000e-07	-3.710079e-06	-6.485186e-10	-2.577876e+01	-4.322581e+01
9.900000e-07	-3.674699e-06	-6.408708e-10	-2.553293e+01	-4.309404e+01
1.000000e-06	-3.639127e-06	-6.399188e-10	-2.528576e+01	-4.296135e+01
1.010000e-06	-3.603360e-06	-6.443474e-10	-2.503724e+01	-4.282747e+01
1.020000e-06	-3.567437e-06	-6.382457e-10	-2.478764e+01	-4.269212e+01
1.030000e-06	-3.531397e-06	-6.272326e-10	-2.453722e+01	-4.255501e+01
1.040000e-06	-3.495238e-06	-6.265942e-10	-2.428598e+01	-4.241582e+01
1.050000e-06	-3.458827e-06	-6.236092e-10	-2.403298e+01	-4.227425e+01
1.060000e-06	-3.422176e-06	-6.129813e-10	-2.377832e+01	-4.212995e+01
1.070000e-06	-3.385248e-06	-6.100633e-10	-2.352174e+01	-4.198260e+01
1.080000e-06	-3.347993e-06	-6.116036e-10	-2.326287e+01	-4.183186e+01
1.090000e-06	-3.310497e-06	-6.076865e-10	-2.300234e+01	-4.167739e+01
1.100000e-06	-3.272842e-06	-6.053353e-10	-2.274070e+01	-4.151888e+01
1.110000e-06	-3.235019e-06	-6.045234e-10	-2.247790e+01	-4.135599e+01
1.120000e-06	-3.196964e-06	-5.964217e-10	-2.221348e+01	-4.118842e+01
1.130000e-06	-3.158736e-06	-5.864766e-10	-2.194786e+01	-4.101587e+01
1.140000e-06	-3.120284e-06	-5.841632e-10	-2.168068e+01	-4.083805e+01
1.150000e-06	-3.081538e-06	-5.816163e-10	-2.141147e+01	-4.065471e+01
1.160000e-06	-3.042537e-06	-5.762208e-10	-2.114048e+01	-4.046560e+01
1.170000e-06	-3.003324e-06	-5.772626e-10	-2.086801e+01	-4.027050e+01
1.180000e-06	-2.963878e-06	-5.821472e-10	-2.059393e+01	-4.006923e+01
1.190000e-06	-2.924278e-06	-5.799441e-10	-2.031877e+01	-3.986160e+01
1.200000e-06	-2.884648e-06	-5.787355e-10	-2.004341e+01	-3.964749e+01
1.210000e-06	-2.844895e-06	-5.760356e-10	-1.976720e+01	-3.942678e+01
1.220000e-06	-2.805003e-06	-5.669820e-10	-1.949001e+01	-3.919939e+01
1.230000e-06	-2.765057e-06	-5.578436e-10	-1.921246e+01	-3.896527e+01
1.240000e-06	-2.724925e-06	-5.589114e-10	-1.893361e+01	-3.872440e+01
1.250000e-06	-2.684496e-06	-5.611520e-10	-1.865269e+01	-3.847678e+01
1.260000e-06	-2.643819e-06	-5.569720e-10	-1.837006e+01	-3.822244e+01
1.270000e-06	-2.602948e-06	-5.570882e-10	-1.808608e+01	-3.796146e+01
1.280000e-06	-2.561840e-06	-5.582402e-10	-1.780044e+01	-3.769390e+01
1.290000e-06	-2.520334e-06	-5.502602e-10	-1.751204e+01	-3.741988e+01
1.300000e-06	-2.478538e-06	-5.428469e-10	-1.722164e+01	-3.713951e+01
1.310000e-06	-2.436449e-06	-5.400123e-10	-1.692919e+01	-3.685295e+01
1.320000e-06	-2.394027e-06	-5.366772e-10	-1.663443e+01	-3.656035e+01
1.330000e-06	-2.351405e-06	-5.337239e-10	-1.633828e+01	-3.626187e+01
1.340000e-06	-2.308528e-06	-5.326129e-10	-1.604035e+01	-3.595768e+01
1.350000e-06	-2.265368e-06	-5.306637e-10	-1.574046e+01	-3.564797e+01
1.360000e-06	-2.221960e-06	-5.273621e-10	-1.543886e+01	-3.533289e+01
1.370000e-06	-2.178392e-06	-5.235398e-10	-1.513613e+01	-3.501262e+01
1.380000e-06	-2.134745e-06	-5.192983e-10	-1.483286e+01	-3.468732e+01
1.390000e-06	-2.091039e-06	-5.124062e-10	-1.452917e+01	-3.435713e+01
1.400000e-06	-2.047237e-06	-5.052224e-10	-1.422483e+01	-3.402217e+01
1.410000e-06	-2.003378e-06	-5.001993e-10	-1.392008e+01	-3.368254e+01
1.420000e-06	-1.959455e-06	-4.962117e-10	-1.361489e+01	-3.333834e+01
1.430000e-06	-1.915474e-06	-4.936762e-10	-1.330930e+01	-3.298960e+01
1.440000e-06	-1.871472e-06	-4.923407e-10	-1.300356e+01	-3.263633e+01
1.450000e-06	-1.827333e-06	-4.867733e-10	-1.269687e+01	-3.227852e+01
1.460000e-06	-1.782992e-06	-4.752264e-10	-1.238877e+01	-3.191611e+01
1.470000e-06	-1.738541e-06	-4.642407e-10	-1.207991e+01	-3.154899e+01
1.480000e-06	-1.694032e-06	-4.548174e-10	-1.177065e+01	-3.117702e+01
1.490000e-06	-1.649380e-06	-4.485445e-10	-1.146039e+01	-3.080001e+01
1.500000e-06	-1.604522e-06	-4.463663e-10	-1.114871e+01	-3.041772e+01
1.510000e-06	-1.559521e-06	-4.463302e-10	-1.083603e+01	-3.002987e+01
1.520000e-06	-1.514428e-06	-4.437068e-10	-1.052271e+01	-2.963612e+01
1.530000e-06	-1.469211e-06	-4.346138e-10	-1.020852e+01	-2.923611e+01
1.540000e-06	-1.423870e-06	-4.214928e-10	-9.893480e+00	-2.882942e+01
1.550000e-06	-1.378475e-06	-4.095056e-10	-9.578065e+00	-2.841556e+01
1.560000e-06	-1.333050e-06	-3.998891e-10	-9.262440e+00	-2.799405e+01
1.570000e-06	-1.287543e-06	-3.929499e-10	-8.946243e+00	-2.756434e+01
1.580000e-06	-1.241898e-06	-3.859221e-10	-8.629083e+00	-2.712585e+01
1.590000e-06	-1.196173e-06	-3.789870e-10	-8.311377e+00	-2.667796e+01
1.600000e-06	-1.150354e-06	-3.696755e-10	-7.993008e+00	-2.622004e+01
1.610000e-06	-1.104351e-06	-3.616449e-10	-7.673364e+00	-2.575143e+01
1.620000e-06	-1.058281e-06	-3.563366e-10	-7.353257e+00	-2.527146e+01
1.630000e-06	-1.012183e-06	-3.502802e-10	-7.032956e+00	-2.477943e+01
1.640000e-06	-9.659960e-07	-3.413754e-10	-6.712034e+00	-2.427466e+01
1.650000e-06	-9.197905e-07	-3.275277e-10	-6.390985e+00	-2.375645e+01
1.660000e-06	-8.735914e-07	-3.140663e-10	-6.069979e+00	-2.322411e+01
1.670000e-06	-8.272998e-07	-3.023179e-10	-5.748331e+00	-2.267697e+01
1.680000e-06	-7.808999e-07	-2.935993e-10	-5.425930e+00	-2.211439e+01
1.690000e-06	-7.344567e-07	-2.888047e-10	-5.103229e+00	-2.153574e+01
1.700000e-06	-6.879477e-07	-2.852895e-10	-4.780070e+00	-2.094043e+01
1.710000e-06	-6.414335e-07	-2.805119e-10	-4.456875e+00	-2.032791e+01
1.720000e-06	-5.948618e-07	-2.726496e-10	-4.133281e+00	-1.969769e+01
1.730000e-06	-5.482368e-07	-2.603863e-10	-3.809316e+00	-1.904932e+01
1.740000e-06	-5.016650e-07	-2.463375e-10	-3.485721e+00	-1.838241e+01
1.750000e-06	-4.550607e-07	-2.311323e-10	-3.161900e+00	-1.769664e+01
1.760000e-06	-4.083681e-07	-2.181845e-10	-2.837466e+00	-1.699175e+01
1.770000e-06	-3.616045e-07	-2.098899e-10	-2.512538e+00	-1.626759e+01
1.780000e-06	-3.148278e-07	-2.054222e-10	-2.187519e+00	-1.552404e+01
1.790000e-06	-2.679771e-07	-1.989909e-10	-1.861987e+00	-1.476111e+01
1.800000e-06	-2.210994e-07	-1.883895e-10	-1.536266e+00	-1.397886e+01
1.810000e-06	-1.742182e-07	-1.744538e-10	-1.210521e+00	-1.317747e+01
1.820000e-06	-1.272227e-07	-1.588859e-10	-8.839821e-01	-1.235719e+01
1.830000e-06	-8.028554e-08	-1.454266e-10	-5.578484e-01	-1.151837e+01
1.840000e-06	-3.350221e-08	-1.339884e-10	-2.327836e-01	-1.066145e+01
1.850000e-06	1.330177e-08	-1.243887e-10	9.242472e-02	-9.786973e+00
1.860000e-06	6.020019e-08	-1.169104e-10	4.182892e-01	-8.895559e+00
1.870000e-06	1.071078e-07	-1.076801e-10	7.442173e-01	-7.987927e+00
1.880000e-06	1.539465e-07	-9.695266e-11	1.069667e+00	-7.064879e+00
1.890000e-06	2.007394e-07	-8.298475e-11	1.394798e+00	-6.127302e+00
1.900000e-06	2.475193e-07	-6.748941e-11	1.719839e+00	-5.176164e+00
1.910000e-06	2.942739e-07	-5.296233e-11	2.044705e+00	-4.212507e+00
1.920000e-06	3.410047e-07	-3.923880e-11	2.369404e+00	-3.237442e+00
1.930000e-06	3.877941e-07	-3.015989e-11	2.694511e+00	-2.252146e+00
1.940000e-06	4.345795e-07	-2.014944e-11	3.019591e+00	-1.257853e+00
1.950000e-06	4.812471e-07	-1.045457e-11	3.343851e+00	-2.558478e-01
1.960000e-06	5.278677e-07	2.071075e-13	3.667785e+00	7.525419e-01
1.970000e-06	5.744420e-07	1.284014e-11	3.991398e+00	1.765952e+00
1.980000e-06	6.209568e-07	2.777049e-11	4.314596e+00	2.782990e+00
1.990000e-06	6.674406e-07	4.282284e-11	4.637580e+00	3.802246e+00
2.000000e-06	7.138282e-07	5.672786e-11	4.959896e+00	4.822295e+00
2.010000e-06	7.601021e-07	7.108247e-11	5.281420e+00	5.841714e+00
2.020000e-06	8.063430e-07	8.530528e-11	5.602717e+00	6.859082e+00
2.030000e-06	8.525957e-07	9.829707e-11	5.924094e+00	7.872994e+00
2.040000e-06	8.988009e-07	1.120694e-10	6.245142e+00	8.882066e+00
2.050000e-06	9.449923e-07	1.257149e-10	6.566094e+00	9.884947e+00
2.060000e-06	9.911692e-07	1.410540e-10	6.886945e+00	1.088032e+01
2.070000e-06	1.037263e-06	1.564338e-10	7.207222e+00	1.186692e+01
2.080000e-06	1.083255e-06	1.713712e-10	7.526787e+00	1.284354e+01
2.090000e-06	1.129166e-06	1.853369e-10	7.845789e+00	1.380900e+01
2.100000e-06	1.175051e-06	1.965319e-10	8.164611e+00	1.476224e+01
2.110000e-06	1.220833e-06	2.070873e-10	8.482721e+00	1.570222e+01
2.120000e-06	1.266459e-06	2.183894e-10	8.799746e+00	1.662800e+01
2.130000e-06	1.311890e-06	2.312777e-10	9.115414e+00	1.753873e+01
2.140000e-06	1.357264e-06	2.438434e-10	9.430684e+00	1.843361e+01
2.150000e-06	1.402613e-06	2.554348e-10	9.745785e+00	1.931197e+01
2.160000e-06	1.447858e-06	2.659230e-10	1.006016e+01	2.017320e+01
2.170000e-06	1.493052e-06	2.780105e-10	1.037418e+01	2.101678e+01
2.180000e-06	1.538105e-06	2.906525e-10	1.068722e+01	2.184230e+01
2.190000e-06	1.582954e-06	3.021582e-10	1.099884e+01	2.264942e+01
2.200000e-06	1.627699e-06	3.129987e-10	1.130975e+01	2.343790e+01
2.210000e-06	1.672365e-06	3.237506e-10	1.162010e+01	2.420759e+01
2.220000e-06	1.716875e-06	3.354079e-10	1.192937e+01	2.495841e+01
2.230000e-06	1.761194e-06	3.465394e-10	1.223731e+01	2.569040e+01
2.240000e-06	1.805379e-06	3.551130e-10	1.254433e+01	2.640364e+01
2.250000e-06	1.849495e-06	3.625491e-10	1.285085e+01	2.709830e+01
2.260000e-06	1.893508e-06	3.701777e-10	1.315667e+01	2.777463e+01
2.270000e-06	1.937418e-06	3.794020e-10	1.346177e+01	2.843293e+01
2.280000e-06	1.981255e-06	3.899840e-10	1.376637e+01	2.907358e+01
2.290000e-06	2.025070e-06	4.014063e-10	1.407080e+01	2.969699e+01
2.300000e-06	2.068829e-06	4.125306e-10	1.437485e+01	3.030363e+01
2.310000e-06	2.112507e-06	4.229824e-10	1.467834e+01	3.089402e+01
2.320000e-06	2.156118e-06	4.307809e-10	1.498137e+01	3.146870e+01
2.330000e-06	2.199624e-06	4.355969e-10	1.528366e+01	3.202824e+01
2.340000e-06	2.243043e-06	4.394589e-10	1.558535e+01	3.257325e+01
2.350000e-06	2.286305e-06	4.459799e-10	1.588594e+01	3.310432e+01
2.360000e-06	2.329280e-06	4.546751e-10	1.618455e+01	3.362208e+01
2.370000e-06	2.372053e-06	4.650855e-10	1.648174e+01	3.412715e+01
2.380000e-06	2.414667e-06	4.765990e-10	1.677784e+01	3.462014e+01
2.390000e-06	2.456960e-06	4.860152e-10	1.707171e+01	3.510166e+01
2.400000e-06	2.498885e-06	4.944106e-10	1.736301e+01	3.557229e+01
2.410000e-06	2.540484e-06	5.020624e-10	1.765205e+01	3.603260e+01
2.420000e-06	2.581728e-06	5.076979e-10	1.793863e+01	3.648312e+01
2.430000e-06	2.622703e-06	5.131253e-10	1.822334e+01	3.692436e+01
2.440000e-06	2.663439e-06	5.210913e-10	1.850639e+01	3.735680e+01
2.450000e-06	2.703940e-06	5.324799e-10	1.878780e+01	3.778086e+01
2.460000e-06	2.744212e-06	5.439335e-10	1.906762e+01	3.819695e+01
2.470000e-06	2.784318e-06	5.529421e-10	1.934629e+01	3.860541e+01
2.480000e-06	2.824310e-06	5.591834e-10	1.962417e+01	3.900655e+01
2.490000e-06	2.864107e-06	5.617882e-10	1.990068e+01	3.940062e+01
2.500000e-06	2.903791e-06	5.637648e-10	2.017642e+01	3.978785e+01
2.510000e-06	2.943375e-06	5.675278e-10	2.045147e+01	4.016839e+01
2.520000e-06	2.982801e-06	5.732330e-10	2.072541e+01	4.054237e+01
2.530000e-06	3.022004e-06	5.807652e-10	2.099780e+01	4.090986e+01
2.540000e-06	3.060991e-06	5.889323e-10	2.126870e+01	4.127091e+01
2.550000e-06	3.099793e-06	5.941227e-10	2.153831e+01	4.162550e+01
2.560000e-06	3.138365e-06	5.958128e-10	2.180632e+01	4.197359e+01
2.570000e-06	3.176701e-06	5.963840e-10	2.207269e+01	4.231510e+01
2.580000e-06	3.214806e-06	5.958032e-10	2.233745e+01	4.264993e+01
2.590000e-06	3.252691e-06	5.952429e-10	2.260069e+01	4.297794e+01
2.600000e-06	3.290367e-06	5.994393e-10	2.286247e+01	4.329896e+01
2.610000e-06	3.327937e-06	6.070411e-10	2.312352e+01	4.361283e+01
2.620000e-06	3.365275e-06	6.159985e-10	2.338296e+01	4.391935e+01
2.630000e-06	3.402309e-06	6.237717e-10	2.364028e+01	4.421831e+01
2.640000e-06	3.439093e-06	6.258578e-10	2.389586e+01	4.450950e+01
2.650000e-06	3.475562e-06	6.239313e-10	2.414926e+01	4.479271e+01
2.660000e-06	3.511774e-06	6.225501e-10	2.440088e+01	4.506774e+01
2.670000e-06	3.547775e-06	6.231542e-10	2.465102e+01	4.533439e+01
2.680000e-06	3.583583e-06	6.267558e-10	2.489983e+01	4.559246e+01
2.690000e-06	3.619293e-06	6.329690e-10	2.514795e+01	4.584178e+01
2.700000e-06	3.654883e-06	6.400528e-10	2.539524e+01	4.608221e+01
2.710000e-06	3.690249e-06	6.460910e-10	2.564098e+01	4.631360e+01
2.720000e-06	3.725410e-06	6.485025e-10	2.588528e+01	4.653586e+01
2.730000e-06	3.760326e-06	6.501818e-10	2.612789e+01	4.674891e+01
2.740000e-06	3.794944e-06	6.507515e-10	2.636843e+01	4.695270e+01
2.750000e-06	3.829174e-06	6.510445e-10	2.660626e+01	4.714723e+01
2.760000e-06	3.862877e-06	6.545099e-10	2.684044e+01	4.733250e+01
2.770000e-06	3.896021e-06	6.604293e-10	2.707074e+01	4.750859e+01
2.780000e-06	3.928684e-06	6.672538e-10	2.729769e+01	4.767558e+01
2.790000e-06	3.961021e-06	6.732739e-10	2.752238e+01	4.783361e+01
2.800000e-06	3.993178e-06	6.779573e-10	2.774582e+01	4.798284e+01
2.810000e-06	4.025139e-06	6.825672e-10	2.796789e+01	4.812348e+01
2.820000e-06	4.056862e-06	6.851859e-10	2.818831e+01	4.825575e+01
2.830000e-06	4.088422e-06	6.841408e-10	2.840760e+01	4.837994e+01
2.840000e-06	4.119766e-06	6.822460e-10	2.862539e+01	4.849632e+01
2.850000e-06	4.150865e-06	6.817526e-10	2.884148e+01	4.860525e+01
2.860000e-06	4.181633e-06	6.851740e-10	2.905526e+01	4.870706e+01
2.870000e-06	4.212021e-06	6.917380e-10	2.926640e+01	4.880215e+01
2.880000e-06	4.242161e-06	6.972813e-10	2.947583e+01	4.889089e+01
2.890000e-06	4.272091e-06	7.012763e-10	2.968379e+01	4.897371e+01
2.900000e-06	4.301737e-06	7.029758e-10	2.988978e+01	4.905104e+01
