# Temperatura_=_12.0
# Concentracion g/m^3_=_1620.0
# C_Vs_to_Am_M_A/Vsm_=_65563218390.804596
# pendiente_HvsI_1/m_=_3716.3
# ordenada_HvsI_A/m_=_1297.0
# frecuencia_Hz_=_135104.15718356922

Tiempo_(s)	Campo_(V.s)	Magnetizacion_(V.s)	Campo_(kA/m)	Magnetizacion_(A/m)
0.000000e+00	-5.527448e-06	-7.417014e-10	-3.837212e+01	-4.908705e+01
1.000000e-08	-5.527636e-06	-7.443088e-10	-3.837343e+01	-4.909584e+01
2.000000e-08	-5.527489e-06	-7.487629e-10	-3.837240e+01	-4.910261e+01
3.000000e-08	-5.526935e-06	-7.522180e-10	-3.836856e+01	-4.910722e+01
4.000000e-08	-5.525957e-06	-7.485262e-10	-3.836177e+01	-4.910954e+01
5.000000e-08	-5.524376e-06	-7.384587e-10	-3.835080e+01	-4.910945e+01
6.000000e-08	-5.522155e-06	-7.128121e-10	-3.833538e+01	-4.910685e+01
7.000000e-08	-5.519326e-06	-6.810741e-10	-3.831574e+01	-4.910164e+01
8.000000e-08	-5.515979e-06	-7.470856e-10	-3.829250e+01	-4.909376e+01
9.000000e-08	-5.512272e-06	-8.685609e-10	-3.826676e+01	-4.908315e+01
1.000000e-07	-5.508104e-06	-8.082063e-10	-3.823784e+01	-4.906976e+01
1.100000e-07	-5.503619e-06	-6.339353e-10	-3.820670e+01	-4.905358e+01
1.200000e-07	-5.499041e-06	-6.360915e-10	-3.817491e+01	-4.903459e+01
1.300000e-07	-5.494139e-06	-7.709411e-10	-3.814089e+01	-4.901281e+01
1.400000e-07	-5.488751e-06	-7.946990e-10	-3.810348e+01	-4.898827e+01
1.500000e-07	-5.482993e-06	-6.191554e-10	-3.806351e+01	-4.896101e+01
1.600000e-07	-5.477004e-06	-6.586229e-10	-3.802193e+01	-4.893109e+01
1.700000e-07	-5.470599e-06	-7.995786e-10	-3.797747e+01	-4.889859e+01
1.800000e-07	-5.463598e-06	-8.201640e-10	-3.792887e+01	-4.886359e+01
1.900000e-07	-5.456202e-06	-6.548059e-10	-3.787752e+01	-4.882620e+01
2.000000e-07	-5.448575e-06	-6.369147e-10	-3.782458e+01	-4.878654e+01
2.100000e-07	-5.440604e-06	-7.363574e-10	-3.776924e+01	-4.874473e+01
2.200000e-07	-5.432379e-06	-7.846582e-10	-3.771215e+01	-4.870090e+01
2.300000e-07	-5.424053e-06	-7.279620e-10	-3.765434e+01	-4.865520e+01
2.400000e-07	-5.415347e-06	-7.029730e-10	-3.759390e+01	-4.860777e+01
2.500000e-07	-5.405844e-06	-7.434368e-10	-3.752794e+01	-4.855877e+01
2.600000e-07	-5.395563e-06	-7.437856e-10	-3.745656e+01	-4.850835e+01
2.700000e-07	-5.384771e-06	-7.258249e-10	-3.738164e+01	-4.845667e+01
2.800000e-07	-5.373507e-06	-7.164819e-10	-3.730345e+01	-4.840388e+01
2.900000e-07	-5.361830e-06	-7.680625e-10	-3.722238e+01	-4.835013e+01
3.000000e-07	-5.349874e-06	-7.703036e-10	-3.713939e+01	-4.829558e+01
3.100000e-07	-5.337491e-06	-7.607660e-10	-3.705342e+01	-4.824035e+01
3.200000e-07	-5.324525e-06	-7.106446e-10	-3.696341e+01	-4.818458e+01
3.300000e-07	-5.311257e-06	-7.558285e-10	-3.687130e+01	-4.812839e+01
3.400000e-07	-5.297768e-06	-7.559245e-10	-3.677766e+01	-4.807190e+01
3.500000e-07	-5.283805e-06	-7.233041e-10	-3.668072e+01	-4.801519e+01
3.600000e-07	-5.269230e-06	-7.076799e-10	-3.657954e+01	-4.795835e+01
3.700000e-07	-5.254248e-06	-7.831525e-10	-3.647554e+01	-4.790146e+01
3.800000e-07	-5.238701e-06	-7.438339e-10	-3.636761e+01	-4.784455e+01
3.900000e-07	-5.222490e-06	-7.013055e-10	-3.625507e+01	-4.778767e+01
4.000000e-07	-5.206010e-06	-7.598962e-10	-3.614067e+01	-4.773084e+01
4.100000e-07	-5.189271e-06	-7.813549e-10	-3.602446e+01	-4.767405e+01
4.200000e-07	-5.172050e-06	-6.749998e-10	-3.590491e+01	-4.761729e+01
4.300000e-07	-5.154450e-06	-7.127656e-10	-3.578273e+01	-4.756053e+01
4.400000e-07	-5.136699e-06	-8.124178e-10	-3.565950e+01	-4.750371e+01
4.500000e-07	-5.118616e-06	-7.320731e-10	-3.553397e+01	-4.744676e+01
4.600000e-07	-5.099985e-06	-6.649923e-10	-3.540463e+01	-4.738960e+01
4.700000e-07	-5.080891e-06	-7.679064e-10	-3.527208e+01	-4.733213e+01
4.800000e-07	-5.061532e-06	-7.621439e-10	-3.513769e+01	-4.727423e+01
4.900000e-07	-5.041971e-06	-6.671117e-10	-3.500189e+01	-4.721577e+01
5.000000e-07	-5.022168e-06	-7.335019e-10	-3.486442e+01	-4.715663e+01
5.100000e-07	-5.002140e-06	-7.666955e-10	-3.472538e+01	-4.709663e+01
5.200000e-07	-4.981736e-06	-6.684341e-10	-3.458373e+01	-4.703564e+01
5.300000e-07	-4.960942e-06	-6.999782e-10	-3.443938e+01	-4.697348e+01
5.400000e-07	-4.939847e-06	-7.955261e-10	-3.429294e+01	-4.690999e+01
5.500000e-07	-4.918348e-06	-7.035712e-10	-3.414369e+01	-4.684498e+01
5.600000e-07	-4.896528e-06	-6.595285e-10	-3.399221e+01	-4.677830e+01
5.700000e-07	-4.874456e-06	-7.453710e-10	-3.383898e+01	-4.670975e+01
5.800000e-07	-4.852077e-06	-7.271644e-10	-3.368363e+01	-4.663919e+01
5.900000e-07	-4.829351e-06	-6.549640e-10	-3.352586e+01	-4.656643e+01
6.000000e-07	-4.806255e-06	-7.214978e-10	-3.336552e+01	-4.649132e+01
6.100000e-07	-4.782801e-06	-7.361545e-10	-3.320270e+01	-4.641371e+01
6.200000e-07	-4.759079e-06	-6.737298e-10	-3.303803e+01	-4.633347e+01
6.300000e-07	-4.735128e-06	-6.856642e-10	-3.287176e+01	-4.625046e+01
6.400000e-07	-4.710897e-06	-7.208908e-10	-3.270354e+01	-4.616456e+01
6.500000e-07	-4.686354e-06	-6.732312e-10	-3.253316e+01	-4.607569e+01
6.600000e-07	-4.661504e-06	-6.763526e-10	-3.236065e+01	-4.598375e+01
6.700000e-07	-4.636111e-06	-7.041166e-10	-3.218437e+01	-4.588868e+01
6.800000e-07	-4.610104e-06	-6.813194e-10	-3.200382e+01	-4.579043e+01
6.900000e-07	-4.583668e-06	-6.621461e-10	-3.182030e+01	-4.568896e+01
7.000000e-07	-4.556726e-06	-6.870988e-10	-3.163327e+01	-4.558427e+01
7.100000e-07	-4.529339e-06	-6.726949e-10	-3.144315e+01	-4.547636e+01
7.200000e-07	-4.501717e-06	-6.558480e-10	-3.125139e+01	-4.536525e+01
7.300000e-07	-4.473965e-06	-6.694035e-10	-3.105873e+01	-4.525099e+01
7.400000e-07	-4.446030e-06	-6.741712e-10	-3.086480e+01	-4.513364e+01
7.500000e-07	-4.417855e-06	-6.605451e-10	-3.066921e+01	-4.501328e+01
7.600000e-07	-4.389447e-06	-6.633116e-10	-3.047200e+01	-4.489000e+01
7.700000e-07	-4.360724e-06	-6.611702e-10	-3.027260e+01	-4.476390e+01
7.800000e-07	-4.331573e-06	-6.468755e-10	-3.007023e+01	-4.463512e+01
7.900000e-07	-4.302097e-06	-6.507436e-10	-2.986561e+01	-4.450379e+01
8.000000e-07	-4.272325e-06	-6.565324e-10	-2.965893e+01	-4.437005e+01
8.100000e-07	-4.242234e-06	-6.450992e-10	-2.945003e+01	-4.423405e+01
8.200000e-07	-4.211909e-06	-6.414819e-10	-2.923951e+01	-4.409596e+01
8.300000e-07	-4.181308e-06	-6.548321e-10	-2.902707e+01	-4.395595e+01
8.400000e-07	-4.150343e-06	-6.478441e-10	-2.881211e+01	-4.381417e+01
8.500000e-07	-4.119103e-06	-6.382732e-10	-2.859524e+01	-4.367081e+01
8.600000e-07	-4.087685e-06	-6.401820e-10	-2.837714e+01	-4.352603e+01
8.700000e-07	-4.056089e-06	-6.387466e-10	-2.815779e+01	-4.337998e+01
8.800000e-07	-4.024380e-06	-6.235424e-10	-2.793767e+01	-4.323284e+01
8.900000e-07	-3.992530e-06	-6.290856e-10	-2.771656e+01	-4.308475e+01
9.000000e-07	-3.960432e-06	-6.310948e-10	-2.749373e+01	-4.293585e+01
9.100000e-07	-3.927993e-06	-6.196336e-10	-2.726854e+01	-4.278626e+01
9.200000e-07	-3.895118e-06	-6.146340e-10	-2.704031e+01	-4.263611e+01
9.300000e-07	-3.861718e-06	-6.284098e-10	-2.680845e+01	-4.248550e+01
9.400000e-07	-3.827785e-06	-6.238067e-10	-2.657288e+01	-4.233450e+01
9.500000e-07	-3.793412e-06	-6.180901e-10	-2.633426e+01	-4.218318e+01
9.600000e-07	-3.758718e-06	-6.239975e-10	-2.609341e+01	-4.203159e+01
9.700000e-07	-3.723703e-06	-6.251987e-10	-2.585033e+01	-4.187975e+01
9.800000e-07	-3.688334e-06	-6.113704e-10	-2.560480e+01	-4.172767e+01
9.900000e-07	-3.652781e-06	-6.124177e-10	-2.535799e+01	-4.157533e+01
1.000000e-06	-3.617113e-06	-6.157158e-10	-2.511037e+01	-4.142269e+01
1.010000e-06	-3.581282e-06	-6.086841e-10	-2.486163e+01	-4.126969e+01
1.020000e-06	-3.545363e-06	-6.067374e-10	-2.461228e+01	-4.111625e+01
1.030000e-06	-3.509349e-06	-6.142972e-10	-2.436226e+01	-4.096228e+01
1.040000e-06	-3.473028e-06	-6.111634e-10	-2.411012e+01	-4.080763e+01
1.050000e-06	-3.436387e-06	-6.031656e-10	-2.385576e+01	-4.065218e+01
1.060000e-06	-3.399541e-06	-6.004749e-10	-2.359997e+01	-4.049577e+01
1.070000e-06	-3.362401e-06	-5.945760e-10	-2.334214e+01	-4.033820e+01
1.080000e-06	-3.324975e-06	-5.872079e-10	-2.308232e+01	-4.017930e+01
1.090000e-06	-3.287368e-06	-5.883405e-10	-2.282125e+01	-4.001885e+01
1.100000e-06	-3.249468e-06	-5.926373e-10	-2.255815e+01	-3.985662e+01
1.110000e-06	-3.211268e-06	-5.877343e-10	-2.229296e+01	-3.969239e+01
1.120000e-06	-3.172861e-06	-5.851019e-10	-2.202633e+01	-3.952592e+01
1.130000e-06	-3.134288e-06	-5.859810e-10	-2.175855e+01	-3.935696e+01
1.140000e-06	-3.095473e-06	-5.823274e-10	-2.148910e+01	-3.918525e+01
1.150000e-06	-3.056475e-06	-5.731427e-10	-2.121837e+01	-3.901054e+01
1.160000e-06	-3.017367e-06	-5.708093e-10	-2.094688e+01	-3.883256e+01
1.170000e-06	-2.978064e-06	-5.682758e-10	-2.067403e+01	-3.865107e+01
1.180000e-06	-2.938657e-06	-5.653886e-10	-2.040046e+01	-3.846581e+01
1.190000e-06	-2.899113e-06	-5.641630e-10	-2.012595e+01	-3.827652e+01
1.200000e-06	-2.859373e-06	-5.653164e-10	-1.985007e+01	-3.808296e+01
1.210000e-06	-2.819448e-06	-5.606822e-10	-1.957290e+01	-3.788490e+01
1.220000e-06	-2.779406e-06	-5.558329e-10	-1.929493e+01	-3.768211e+01
1.230000e-06	-2.739221e-06	-5.503276e-10	-1.901596e+01	-3.747437e+01
1.240000e-06	-2.698792e-06	-5.435883e-10	-1.873530e+01	-3.726147e+01
1.250000e-06	-2.658171e-06	-5.338142e-10	-1.845330e+01	-3.704322e+01
1.260000e-06	-2.617323e-06	-5.336666e-10	-1.816973e+01	-3.681943e+01
1.270000e-06	-2.576157e-06	-5.356084e-10	-1.788395e+01	-3.658994e+01
1.280000e-06	-2.534677e-06	-5.325166e-10	-1.759599e+01	-3.635459e+01
1.290000e-06	-2.492881e-06	-5.274406e-10	-1.730584e+01	-3.611324e+01
1.300000e-06	-2.450766e-06	-5.234880e-10	-1.701347e+01	-3.586575e+01
1.310000e-06	-2.408311e-06	-5.156270e-10	-1.671875e+01	-3.561200e+01
1.320000e-06	-2.365591e-06	-5.071308e-10	-1.642218e+01	-3.535189e+01
1.330000e-06	-2.322666e-06	-5.046529e-10	-1.612419e+01	-3.508533e+01
1.340000e-06	-2.279514e-06	-5.050679e-10	-1.582463e+01	-3.481221e+01
1.350000e-06	-2.236149e-06	-5.044706e-10	-1.552358e+01	-3.453246e+01
1.360000e-06	-2.192652e-06	-5.022077e-10	-1.522162e+01	-3.424600e+01
1.370000e-06	-2.149085e-06	-4.986790e-10	-1.491917e+01	-3.395276e+01
1.380000e-06	-2.105409e-06	-4.907774e-10	-1.461597e+01	-3.365268e+01
1.390000e-06	-2.061647e-06	-4.817552e-10	-1.431217e+01	-3.334568e+01
1.400000e-06	-2.017846e-06	-4.737843e-10	-1.400810e+01	-3.303170e+01
1.410000e-06	-1.973976e-06	-4.681331e-10	-1.370355e+01	-3.271065e+01
1.420000e-06	-1.929996e-06	-4.649649e-10	-1.339823e+01	-3.238248e+01
1.430000e-06	-1.885948e-06	-4.665993e-10	-1.309245e+01	-3.204708e+01
1.440000e-06	-1.841811e-06	-4.684803e-10	-1.278605e+01	-3.170436e+01
1.450000e-06	-1.797519e-06	-4.668262e-10	-1.247856e+01	-3.135422e+01
1.460000e-06	-1.753114e-06	-4.579106e-10	-1.217030e+01	-3.099653e+01
1.470000e-06	-1.708611e-06	-4.461205e-10	-1.186136e+01	-3.063117e+01
1.480000e-06	-1.663913e-06	-4.330285e-10	-1.155106e+01	-3.025797e+01
1.490000e-06	-1.618988e-06	-4.231118e-10	-1.123919e+01	-2.987678e+01
1.500000e-06	-1.573887e-06	-4.174459e-10	-1.092609e+01	-2.948741e+01
1.510000e-06	-1.528686e-06	-4.159802e-10	-1.061230e+01	-2.908964e+01
1.520000e-06	-1.483492e-06	-4.145307e-10	-1.029855e+01	-2.868325e+01
1.530000e-06	-1.438195e-06	-4.087088e-10	-9.984100e+00	-2.826800e+01
1.540000e-06	-1.392714e-06	-3.988260e-10	-9.668364e+00	-2.784362e+01
1.550000e-06	-1.347174e-06	-3.861910e-10	-9.352225e+00	-2.740982e+01
1.560000e-06	-1.301640e-06	-3.724232e-10	-9.036118e+00	-2.696630e+01
1.570000e-06	-1.256074e-06	-3.597097e-10	-8.719795e+00	-2.651273e+01
1.580000e-06	-1.210401e-06	-3.517849e-10	-8.402733e+00	-2.604877e+01
1.590000e-06	-1.164608e-06	-3.464698e-10	-8.084834e+00	-2.557406e+01
1.600000e-06	-1.118698e-06	-3.429817e-10	-7.766117e+00	-2.508825e+01
1.610000e-06	-1.072670e-06	-3.416781e-10	-7.446589e+00	-2.459094e+01
1.620000e-06	-1.026561e-06	-3.368461e-10	-7.126492e+00	-2.408174e+01
1.630000e-06	-9.804204e-07	-3.268505e-10	-6.806181e+00	-2.356027e+01
1.640000e-06	-9.342482e-07	-3.128870e-10	-6.485648e+00	-2.302613e+01
1.650000e-06	-8.880118e-07	-3.008824e-10	-6.164671e+00	-2.247893e+01
1.660000e-06	-8.416788e-07	-2.907380e-10	-5.843022e+00	-2.191826e+01
1.670000e-06	-7.952135e-07	-2.825767e-10	-5.520455e+00	-2.134375e+01
1.680000e-06	-7.486874e-07	-2.772827e-10	-5.197466e+00	-2.075504e+01
1.690000e-06	-7.022056e-07	-2.757365e-10	-4.874785e+00	-2.015176e+01
1.700000e-06	-6.557210e-07	-2.718732e-10	-4.552084e+00	-1.953359e+01
1.710000e-06	-6.091652e-07	-2.625679e-10	-4.228888e+00	-1.890021e+01
1.720000e-06	-5.624972e-07	-2.508792e-10	-3.904914e+00	-1.825135e+01
1.730000e-06	-5.157364e-07	-2.369412e-10	-3.580296e+00	-1.758676e+01
1.740000e-06	-4.690042e-07	-2.237953e-10	-3.255876e+00	-1.690623e+01
1.750000e-06	-4.223129e-07	-2.129357e-10	-2.931740e+00	-1.620960e+01
1.760000e-06	-3.755179e-07	-2.052979e-10	-2.606884e+00	-1.549673e+01
1.770000e-06	-3.286414e-07	-1.987633e-10	-2.281463e+00	-1.476756e+01
1.780000e-06	-2.817368e-07	-1.928018e-10	-1.955846e+00	-1.402207e+01
1.790000e-06	-2.348170e-07	-1.814335e-10	-1.630124e+00	-1.326027e+01
1.800000e-06	-1.878609e-07	-1.648335e-10	-1.304150e+00	-1.248227e+01
1.810000e-06	-1.409061e-07	-1.471999e-10	-9.781848e-01	-1.168821e+01
1.820000e-06	-9.402555e-08	-1.317261e-10	-6.527352e-01	-1.087829e+01
1.830000e-06	-4.709624e-08	-1.188746e-10	-3.269470e-01	-1.005281e+01
1.840000e-06	-9.989414e-11	-1.087971e-10	-6.934756e-04	-9.212080e+00
1.850000e-06	4.688206e-08	-1.022313e-10	3.254601e-01	-8.356522e+00
1.860000e-06	9.382720e-08	-9.406892e-11	6.513582e-01	-7.486601e+00
1.870000e-06	1.407712e-07	-8.141460e-11	9.772485e-01	-6.602854e+00
1.880000e-06	1.877056e-07	-6.714991e-11	1.303072e+00	-5.705879e+00
1.890000e-06	2.346420e-07	-5.168428e-11	1.628909e+00	-4.796342e+00
1.900000e-06	2.816184e-07	-3.598409e-11	1.955024e+00	-3.874969e+00
1.910000e-06	3.284976e-07	-2.299347e-11	2.280465e+00	-2.942548e+00
1.920000e-06	3.752451e-07	-1.098305e-11	2.604991e+00	-1.999923e+00
1.930000e-06	4.220385e-07	-4.808153e-13	2.929835e+00	-1.047993e+00
1.940000e-06	4.688137e-07	7.746806e-12	3.254554e+00	-8.770906e-02
1.950000e-06	5.154873e-07	1.624600e-11	3.578567e+00	8.799317e-01
1.960000e-06	5.620887e-07	2.959343e-11	3.902078e+00	1.853888e+00
1.970000e-06	6.085895e-07	4.716888e-11	4.224892e+00	2.833080e+00
1.980000e-06	6.550401e-07	6.645419e-11	4.547357e+00	3.816393e+00
1.990000e-06	7.015079e-07	8.602140e-11	4.869941e+00	4.802687e+00
2.000000e-06	7.479693e-07	1.027414e-10	5.192481e+00	5.790796e+00
2.010000e-06	7.943351e-07	1.160548e-10	5.514357e+00	6.779537e+00
2.020000e-06	8.406465e-07	1.240560e-10	5.835856e+00	7.767715e+00
2.030000e-06	8.869981e-07	1.324036e-10	6.157634e+00	8.754130e+00
2.040000e-06	9.332954e-07	1.443663e-10	6.479034e+00	9.737581e+00
2.050000e-06	9.794190e-07	1.597872e-10	6.799229e+00	1.071687e+01
2.060000e-06	1.025373e-06	1.781179e-10	7.118247e+00	1.169083e+01
2.070000e-06	1.071294e-06	1.970296e-10	7.437037e+00	1.265827e+01
2.080000e-06	1.117202e-06	2.134074e-10	7.755734e+00	1.361807e+01
2.090000e-06	1.163062e-06	2.252495e-10	8.074100e+00	1.456912e+01
2.100000e-06	1.208861e-06	2.345979e-10	8.392037e+00	1.551032e+01
2.110000e-06	1.254563e-06	2.453047e-10	8.709307e+00	1.644066e+01
2.120000e-06	1.300174e-06	2.584223e-10	9.025946e+00	1.735913e+01
2.130000e-06	1.345658e-06	2.738005e-10	9.341695e+00	1.826479e+01
2.140000e-06	1.391074e-06	2.876319e-10	9.656981e+00	1.915675e+01
2.150000e-06	1.436471e-06	2.993962e-10	9.972134e+00	2.003418e+01
2.160000e-06	1.481763e-06	3.100230e-10	1.028656e+01	2.089631e+01
2.170000e-06	1.526849e-06	3.206445e-10	1.059955e+01	2.174242e+01
2.180000e-06	1.571837e-06	3.318399e-10	1.091186e+01	2.257187e+01
2.190000e-06	1.616755e-06	3.426789e-10	1.122368e+01	2.338410e+01
2.200000e-06	1.661532e-06	3.538068e-10	1.153453e+01	2.417859e+01
2.210000e-06	1.706222e-06	3.654273e-10	1.184477e+01	2.495490e+01
2.220000e-06	1.750692e-06	3.776888e-10	1.215348e+01	2.571269e+01
2.230000e-06	1.794894e-06	3.871570e-10	1.246034e+01	2.645164e+01
2.240000e-06	1.838998e-06	3.937430e-10	1.276652e+01	2.717156e+01
2.250000e-06	1.883063e-06	3.995299e-10	1.307242e+01	2.787227e+01
2.260000e-06	1.927072e-06	4.070856e-10	1.337793e+01	2.855371e+01
2.270000e-06	1.971004e-06	4.158264e-10	1.368292e+01	2.921585e+01
2.280000e-06	2.014834e-06	4.247881e-10	1.398719e+01	2.985874e+01
2.290000e-06	2.058597e-06	4.340070e-10	1.429100e+01	3.048251e+01
2.300000e-06	2.102301e-06	4.427174e-10	1.459439e+01	3.108732e+01
2.310000e-06	2.145933e-06	4.495403e-10	1.489729e+01	3.167339e+01
2.320000e-06	2.189519e-06	4.545125e-10	1.519987e+01	3.224102e+01
2.330000e-06	2.232993e-06	4.591727e-10	1.550167e+01	3.279052e+01
2.340000e-06	2.276256e-06	4.645594e-10	1.580201e+01	3.332228e+01
2.350000e-06	2.319353e-06	4.692006e-10	1.610119e+01	3.383671e+01
2.360000e-06	2.362287e-06	4.746294e-10	1.639925e+01	3.433426e+01
2.370000e-06	2.405020e-06	4.817148e-10	1.669590e+01	3.481542e+01
2.380000e-06	2.447487e-06	4.905826e-10	1.699071e+01	3.528069e+01
2.390000e-06	2.489578e-06	4.992457e-10	1.728291e+01	3.573062e+01
2.400000e-06	2.531327e-06	5.060260e-10	1.757273e+01	3.616574e+01
2.410000e-06	2.572726e-06	5.131207e-10	1.786013e+01	3.658664e+01
2.420000e-06	2.613757e-06	5.204211e-10	1.814497e+01	3.699387e+01
2.430000e-06	2.654491e-06	5.259599e-10	1.842775e+01	3.738803e+01
2.440000e-06	2.695020e-06	5.298275e-10	1.870911e+01	3.776969e+01
2.450000e-06	2.735461e-06	5.353410e-10	1.898985e+01	3.813942e+01
2.460000e-06	2.775761e-06	5.425263e-10	1.926962e+01	3.849781e+01
2.470000e-06	2.815807e-06	5.499947e-10	1.954763e+01	3.884541e+01
2.480000e-06	2.855662e-06	5.562776e-10	1.982430e+01	3.918277e+01
2.490000e-06	2.895367e-06	5.621642e-10	2.009994e+01	3.951041e+01
2.500000e-06	2.934929e-06	5.704305e-10	2.037458e+01	3.982884e+01
2.510000e-06	2.974396e-06	5.778334e-10	2.064857e+01	4.013855e+01
2.520000e-06	3.013700e-06	5.829307e-10	2.092142e+01	4.044002e+01
2.530000e-06	3.052764e-06	5.877093e-10	2.119261e+01	4.073366e+01
2.540000e-06	3.091596e-06	5.907992e-10	2.146218e+01	4.101989e+01
2.550000e-06	3.130199e-06	5.934400e-10	2.173017e+01	4.129910e+01
2.560000e-06	3.168581e-06	5.988923e-10	2.199662e+01	4.157164e+01
2.570000e-06	3.206757e-06	6.052345e-10	2.226164e+01	4.183783e+01
2.580000e-06	3.244768e-06	6.099807e-10	2.252552e+01	4.209795e+01
2.590000e-06	3.282599e-06	6.139817e-10	2.278815e+01	4.235228e+01
2.600000e-06	3.320232e-06	6.176967e-10	2.304940e+01	4.260105e+01
2.610000e-06	3.357638e-06	6.222539e-10	2.330908e+01	4.284445e+01
2.620000e-06	3.394733e-06	6.269138e-10	2.356659e+01	4.308267e+01
2.630000e-06	3.431524e-06	6.301821e-10	2.382200e+01	4.331585e+01
2.640000e-06	3.468020e-06	6.316185e-10	2.407535e+01	4.354411e+01
2.650000e-06	3.504286e-06	6.331267e-10	2.432712e+01	4.376756e+01
2.660000e-06	3.540375e-06	6.355551e-10	2.457765e+01	4.398626e+01
2.670000e-06	3.576303e-06	6.385293e-10	2.482707e+01	4.420028e+01
2.680000e-06	3.612136e-06	6.421662e-10	2.507583e+01	4.440964e+01
2.690000e-06	3.647852e-06	6.467306e-10	2.532377e+01	4.461436e+01
2.700000e-06	3.683427e-06	6.525282e-10	2.557074e+01	4.481445e+01
2.710000e-06	3.718810e-06	6.578345e-10	2.581636e+01	4.500988e+01
2.720000e-06	3.753911e-06	6.626630e-10	2.606004e+01	4.520065e+01
2.730000e-06	3.788625e-06	6.663446e-10	2.630103e+01	4.538672e+01
2.740000e-06	3.822875e-06	6.675109e-10	2.653880e+01	4.556805e+01
2.750000e-06	3.856618e-06	6.665776e-10	2.677304e+01	4.574459e+01
2.760000e-06	3.889914e-06	6.649550e-10	2.700419e+01	4.591629e+01
2.770000e-06	3.922715e-06	6.660082e-10	2.723190e+01	4.608311e+01
2.780000e-06	3.955113e-06	6.711999e-10	2.745681e+01	4.624500e+01
2.790000e-06	3.987345e-06	6.776151e-10	2.768057e+01	4.640190e+01
2.800000e-06	4.019369e-06	6.846922e-10	2.790288e+01	4.655377e+01
2.810000e-06	4.051208e-06	6.903425e-10	2.812391e+01	4.670058e+01
2.820000e-06	4.082900e-06	6.915197e-10	2.834392e+01	4.684228e+01
2.830000e-06	4.114371e-06	6.898975e-10	2.856239e+01	4.697884e+01
2.840000e-06	4.145530e-06	6.875153e-10	2.877870e+01	4.711024e+01
2.850000e-06	4.176405e-06	6.879706e-10	2.899304e+01	4.723647e+01
2.860000e-06	4.206985e-06	6.913379e-10	2.920533e+01	4.735753e+01
2.870000e-06	4.237219e-06	6.940109e-10	2.941521e+01	4.747341e+01
2.880000e-06	4.267155e-06	6.970519e-10	2.962304e+01	4.758413e+01
2.890000e-06	4.296889e-06	7.009204e-10	2.982945e+01	4.768972e+01
2.900000e-06	4.326396e-06	7.042253e-10	3.003430e+01	4.779020e+01
