# Temperatura_=_-0.3
# Concentracion g/m^3_=_1620.0
# C_Vs_to_Am_M_A/Vsm_=_65563218390.804596
# pendiente_HvsI_1/m_=_3716.3
# ordenada_HvsI_A/m_=_1297.0
# frecuencia_Hz_=_135109.7493713156

Tiempo_(s)	Campo_(V.s)	Magnetizacion_(V.s)	Campo_(kA/m)	Magnetizacion_(A/m)
0.000000e+00	-5.517869e-06	-1.265003e-09	-3.836549e+01	-8.202264e+01
1.000000e-08	-5.517987e-06	-1.266435e-09	-3.836631e+01	-8.205481e+01
2.000000e-08	-5.517851e-06	-1.268917e-09	-3.836537e+01	-8.208434e+01
3.000000e-08	-5.517303e-06	-1.269596e-09	-3.836156e+01	-8.211094e+01
4.000000e-08	-5.516183e-06	-1.267229e-09	-3.835377e+01	-8.213433e+01
5.000000e-08	-5.514374e-06	-1.260897e-09	-3.834119e+01	-8.215421e+01
6.000000e-08	-5.511990e-06	-1.245118e-09	-3.832462e+01	-8.217030e+01
7.000000e-08	-5.509090e-06	-1.229040e-09	-3.830445e+01	-8.218233e+01
8.000000e-08	-5.505723e-06	-1.252737e-09	-3.828104e+01	-8.219001e+01
9.000000e-08	-5.502012e-06	-1.322417e-09	-3.825524e+01	-8.219311e+01
1.000000e-07	-5.497803e-06	-1.310471e-09	-3.822598e+01	-8.219139e+01
1.100000e-07	-5.493265e-06	-1.203656e-09	-3.819442e+01	-8.218462e+01
1.200000e-07	-5.488660e-06	-1.177551e-09	-3.816240e+01	-8.217263e+01
1.300000e-07	-5.483671e-06	-1.253938e-09	-3.812772e+01	-8.215523e+01
1.400000e-07	-5.478230e-06	-1.265293e-09	-3.808988e+01	-8.213228e+01
1.500000e-07	-5.472490e-06	-1.174887e-09	-3.804998e+01	-8.210367e+01
1.600000e-07	-5.466497e-06	-1.152225e-09	-3.800831e+01	-8.206931e+01
1.700000e-07	-5.460067e-06	-1.296250e-09	-3.796360e+01	-8.202915e+01
1.800000e-07	-5.453093e-06	-1.325952e-09	-3.791511e+01	-8.198316e+01
1.900000e-07	-5.445818e-06	-1.254968e-09	-3.786453e+01	-8.193135e+01
2.000000e-07	-5.438315e-06	-1.186644e-09	-3.781236e+01	-8.187375e+01
2.100000e-07	-5.430474e-06	-1.251486e-09	-3.775784e+01	-8.181045e+01
2.200000e-07	-5.422244e-06	-1.271170e-09	-3.770062e+01	-8.174154e+01
2.300000e-07	-5.413666e-06	-1.238231e-09	-3.764098e+01	-8.166715e+01
2.400000e-07	-5.404538e-06	-1.217821e-09	-3.757751e+01	-8.158744e+01
2.500000e-07	-5.394762e-06	-1.255624e-09	-3.750953e+01	-8.150260e+01
2.600000e-07	-5.384391e-06	-1.257980e-09	-3.743743e+01	-8.141284e+01
2.700000e-07	-5.373554e-06	-1.216956e-09	-3.736208e+01	-8.131838e+01
2.800000e-07	-5.362281e-06	-1.215083e-09	-3.728370e+01	-8.121948e+01
2.900000e-07	-5.350566e-06	-1.243489e-09	-3.720224e+01	-8.111641e+01
3.000000e-07	-5.338527e-06	-1.248246e-09	-3.711854e+01	-8.100943e+01
3.100000e-07	-5.326111e-06	-1.198884e-09	-3.703221e+01	-8.089885e+01
3.200000e-07	-5.313209e-06	-1.202722e-09	-3.694250e+01	-8.078496e+01
3.300000e-07	-5.299903e-06	-1.220435e-09	-3.684999e+01	-8.066806e+01
3.400000e-07	-5.286239e-06	-1.234600e-09	-3.675498e+01	-8.054844e+01
3.500000e-07	-5.272116e-06	-1.181580e-09	-3.665678e+01	-8.042640e+01
3.600000e-07	-5.257558e-06	-1.202414e-09	-3.655557e+01	-8.030223e+01
3.700000e-07	-5.242671e-06	-1.234659e-09	-3.645205e+01	-8.017620e+01
3.800000e-07	-5.227283e-06	-1.224717e-09	-3.634506e+01	-8.004857e+01
3.900000e-07	-5.211162e-06	-1.174512e-09	-3.623297e+01	-7.991959e+01
4.000000e-07	-5.194699e-06	-1.227303e-09	-3.611851e+01	-7.978948e+01
4.100000e-07	-5.178013e-06	-1.238926e-09	-3.600249e+01	-7.965844e+01
4.200000e-07	-5.160901e-06	-1.172034e-09	-3.588351e+01	-7.952665e+01
4.300000e-07	-5.143480e-06	-1.169542e-09	-3.576238e+01	-7.939426e+01
4.400000e-07	-5.125750e-06	-1.254255e-09	-3.563911e+01	-7.926139e+01
4.500000e-07	-5.107545e-06	-1.206097e-09	-3.551253e+01	-7.912813e+01
4.600000e-07	-5.088790e-06	-1.139207e-09	-3.538213e+01	-7.899453e+01
4.700000e-07	-5.069710e-06	-1.201691e-09	-3.524946e+01	-7.886063e+01
4.800000e-07	-5.050454e-06	-1.231691e-09	-3.511557e+01	-7.872643e+01
4.900000e-07	-5.030956e-06	-1.154851e-09	-3.498001e+01	-7.859188e+01
5.000000e-07	-5.011267e-06	-1.175509e-09	-3.484311e+01	-7.845693e+01
5.100000e-07	-4.991348e-06	-1.222306e-09	-3.470462e+01	-7.832147e+01
5.200000e-07	-4.971075e-06	-1.154297e-09	-3.456366e+01	-7.818538e+01
5.300000e-07	-4.950365e-06	-1.142790e-09	-3.441966e+01	-7.804851e+01
5.400000e-07	-4.929314e-06	-1.220243e-09	-3.427330e+01	-7.791069e+01
5.500000e-07	-4.907934e-06	-1.188184e-09	-3.412464e+01	-7.777171e+01
5.600000e-07	-4.886178e-06	-1.127258e-09	-3.397337e+01	-7.763136e+01
5.700000e-07	-4.864115e-06	-1.189510e-09	-3.381997e+01	-7.748941e+01
5.800000e-07	-4.841699e-06	-1.197725e-09	-3.366411e+01	-7.734561e+01
5.900000e-07	-4.818932e-06	-1.128621e-09	-3.350582e+01	-7.719969e+01
6.000000e-07	-4.795845e-06	-1.143860e-09	-3.334529e+01	-7.705140e+01
6.100000e-07	-4.772517e-06	-1.185047e-09	-3.318310e+01	-7.690046e+01
6.200000e-07	-4.748985e-06	-1.133602e-09	-3.301948e+01	-7.674662e+01
6.300000e-07	-4.725149e-06	-1.131825e-09	-3.285375e+01	-7.658960e+01
6.400000e-07	-4.701008e-06	-1.172515e-09	-3.268590e+01	-7.642915e+01
6.500000e-07	-4.676431e-06	-1.154854e-09	-3.251501e+01	-7.626502e+01
6.600000e-07	-4.651337e-06	-1.124911e-09	-3.234054e+01	-7.609699e+01
6.700000e-07	-4.625740e-06	-1.153542e-09	-3.216256e+01	-7.592484e+01
6.800000e-07	-4.599568e-06	-1.142988e-09	-3.198059e+01	-7.574837e+01
6.900000e-07	-4.572969e-06	-1.119203e-09	-3.179564e+01	-7.556742e+01
7.000000e-07	-4.545971e-06	-1.132086e-09	-3.160793e+01	-7.538183e+01
7.100000e-07	-4.518629e-06	-1.144788e-09	-3.141782e+01	-7.519150e+01
7.200000e-07	-4.491084e-06	-1.122740e-09	-3.122630e+01	-7.499632e+01
7.300000e-07	-4.463365e-06	-1.127098e-09	-3.103357e+01	-7.479624e+01
7.400000e-07	-4.435462e-06	-1.133706e-09	-3.083956e+01	-7.459122e+01
7.500000e-07	-4.407342e-06	-1.120034e-09	-3.064405e+01	-7.438127e+01
7.600000e-07	-4.378934e-06	-1.109526e-09	-3.044653e+01	-7.416642e+01
7.700000e-07	-4.350149e-06	-1.116361e-09	-3.024639e+01	-7.394672e+01
7.800000e-07	-4.321041e-06	-1.109260e-09	-3.004400e+01	-7.372227e+01
7.900000e-07	-4.291668e-06	-1.107138e-09	-2.983977e+01	-7.349318e+01
8.000000e-07	-4.262052e-06	-1.116492e-09	-2.963386e+01	-7.325961e+01
8.100000e-07	-4.232144e-06	-1.112335e-09	-2.942590e+01	-7.302173e+01
8.200000e-07	-4.201900e-06	-1.102959e-09	-2.921562e+01	-7.277971e+01
8.300000e-07	-4.171302e-06	-1.104869e-09	-2.900288e+01	-7.253379e+01
8.400000e-07	-4.140361e-06	-1.100275e-09	-2.878774e+01	-7.228417e+01
8.500000e-07	-4.109227e-06	-1.084538e-09	-2.857127e+01	-7.203112e+01
8.600000e-07	-4.077925e-06	-1.084587e-09	-2.835363e+01	-7.177486e+01
8.700000e-07	-4.046415e-06	-1.085735e-09	-2.813454e+01	-7.151567e+01
8.800000e-07	-4.014715e-06	-1.080616e-09	-2.791413e+01	-7.125380e+01
8.900000e-07	-3.982854e-06	-1.078434e-09	-2.769261e+01	-7.098950e+01
9.000000e-07	-3.950742e-06	-1.080678e-09	-2.746933e+01	-7.072302e+01
9.100000e-07	-3.918182e-06	-1.066571e-09	-2.724294e+01	-7.045460e+01
9.200000e-07	-3.885288e-06	-1.057977e-09	-2.701423e+01	-7.018447e+01
9.300000e-07	-3.852062e-06	-1.057710e-09	-2.678321e+01	-6.991283e+01
9.400000e-07	-3.818257e-06	-1.054321e-09	-2.654817e+01	-6.963988e+01
9.500000e-07	-3.783924e-06	-1.044913e-09	-2.630945e+01	-6.936576e+01
9.600000e-07	-3.749194e-06	-1.050566e-09	-2.606797e+01	-6.909062e+01
9.700000e-07	-3.714142e-06	-1.050422e-09	-2.582426e+01	-6.881455e+01
9.800000e-07	-3.678889e-06	-1.042384e-09	-2.557915e+01	-6.853762e+01
9.900000e-07	-3.643442e-06	-1.035426e-09	-2.533269e+01	-6.825987e+01
1.000000e-06	-3.607818e-06	-1.033076e-09	-2.508500e+01	-6.798129e+01
1.010000e-06	-3.572070e-06	-1.021490e-09	-2.483644e+01	-6.770184e+01
1.020000e-06	-3.536223e-06	-1.014796e-09	-2.458720e+01	-6.742143e+01
1.030000e-06	-3.500202e-06	-1.014553e-09	-2.433674e+01	-6.713994e+01
1.040000e-06	-3.463896e-06	-1.011975e-09	-2.408431e+01	-6.685720e+01
1.050000e-06	-3.427283e-06	-1.004676e-09	-2.382975e+01	-6.657301e+01
1.060000e-06	-3.390418e-06	-1.002868e-09	-2.357342e+01	-6.628712e+01
1.070000e-06	-3.353298e-06	-9.995274e-10	-2.331533e+01	-6.599926e+01
1.080000e-06	-3.315869e-06	-9.915155e-10	-2.305509e+01	-6.570911e+01
1.090000e-06	-3.278215e-06	-9.827447e-10	-2.279328e+01	-6.541631e+01
1.100000e-06	-3.240405e-06	-9.746555e-10	-2.253039e+01	-6.512049e+01
1.110000e-06	-3.202409e-06	-9.659001e-10	-2.226620e+01	-6.482123e+01
1.120000e-06	-3.164249e-06	-9.612568e-10	-2.200088e+01	-6.451811e+01
1.130000e-06	-3.125860e-06	-9.630408e-10	-2.173396e+01	-6.421067e+01
1.140000e-06	-3.087208e-06	-9.600749e-10	-2.146522e+01	-6.389843e+01
1.150000e-06	-3.048261e-06	-9.506685e-10	-2.119442e+01	-6.358091e+01
1.160000e-06	-3.009097e-06	-9.397852e-10	-2.092211e+01	-6.325762e+01
1.170000e-06	-2.969859e-06	-9.319329e-10	-2.064929e+01	-6.292806e+01
1.180000e-06	-2.930505e-06	-9.225622e-10	-2.037567e+01	-6.259173e+01
1.190000e-06	-2.890962e-06	-9.170951e-10	-2.010073e+01	-6.224813e+01
1.200000e-06	-2.851222e-06	-9.134480e-10	-1.982442e+01	-6.189680e+01
1.210000e-06	-2.811362e-06	-9.114342e-10	-1.954727e+01	-6.153724e+01
1.220000e-06	-2.771378e-06	-9.066767e-10	-1.926927e+01	-6.116901e+01
1.230000e-06	-2.731188e-06	-9.009863e-10	-1.898983e+01	-6.079168e+01
1.240000e-06	-2.690698e-06	-8.907653e-10	-1.870830e+01	-6.040483e+01
1.250000e-06	-2.649998e-06	-8.811279e-10	-1.842531e+01	-6.000809e+01
1.260000e-06	-2.609025e-06	-8.721216e-10	-1.814043e+01	-5.960110e+01
1.270000e-06	-2.567638e-06	-8.676317e-10	-1.785267e+01	-5.918355e+01
1.280000e-06	-2.526039e-06	-8.622272e-10	-1.756343e+01	-5.875515e+01
1.290000e-06	-2.484329e-06	-8.572896e-10	-1.727343e+01	-5.831566e+01
1.300000e-06	-2.442400e-06	-8.516938e-10	-1.698190e+01	-5.786487e+01
1.310000e-06	-2.400165e-06	-8.459804e-10	-1.668824e+01	-5.740261e+01
1.320000e-06	-2.357615e-06	-8.385981e-10	-1.639239e+01	-5.692875e+01
1.330000e-06	-2.314782e-06	-8.319616e-10	-1.609458e+01	-5.644320e+01
1.340000e-06	-2.271725e-06	-8.263791e-10	-1.579520e+01	-5.594590e+01
1.350000e-06	-2.228508e-06	-8.166046e-10	-1.549472e+01	-5.543683e+01
1.360000e-06	-2.185143e-06	-8.056370e-10	-1.519320e+01	-5.491601e+01
1.370000e-06	-2.141685e-06	-7.959959e-10	-1.489104e+01	-5.438348e+01
1.380000e-06	-2.098089e-06	-7.891770e-10	-1.458792e+01	-5.383931e+01
1.390000e-06	-2.054386e-06	-7.818920e-10	-1.428405e+01	-5.328361e+01
1.400000e-06	-2.010669e-06	-7.747060e-10	-1.398009e+01	-5.271650e+01
1.410000e-06	-1.966904e-06	-7.672211e-10	-1.367579e+01	-5.213811e+01
1.420000e-06	-1.923060e-06	-7.579921e-10	-1.337095e+01	-5.154860e+01
1.430000e-06	-1.879127e-06	-7.479699e-10	-1.306548e+01	-5.094812e+01
1.440000e-06	-1.835057e-06	-7.373163e-10	-1.275907e+01	-5.033685e+01
1.450000e-06	-1.790798e-06	-7.257557e-10	-1.245134e+01	-4.971495e+01
1.460000e-06	-1.746395e-06	-7.142805e-10	-1.214261e+01	-4.908257e+01
1.470000e-06	-1.701787e-06	-7.025708e-10	-1.183245e+01	-4.843988e+01
1.480000e-06	-1.657005e-06	-6.931322e-10	-1.152108e+01	-4.778700e+01
1.490000e-06	-1.612147e-06	-6.838496e-10	-1.120919e+01	-4.712406e+01
1.500000e-06	-1.567146e-06	-6.730130e-10	-1.089629e+01	-4.645114e+01
1.510000e-06	-1.522007e-06	-6.592538e-10	-1.058245e+01	-4.576831e+01
1.520000e-06	-1.476735e-06	-6.440235e-10	-1.026767e+01	-4.507560e+01
1.530000e-06	-1.431377e-06	-6.280626e-10	-9.952303e+00	-4.437303e+01
1.540000e-06	-1.385984e-06	-6.153493e-10	-9.636684e+00	-4.366054e+01
1.550000e-06	-1.340518e-06	-6.052440e-10	-9.320561e+00	-4.293806e+01
1.560000e-06	-1.294943e-06	-5.954832e-10	-9.003682e+00	-4.220548e+01
1.570000e-06	-1.249303e-06	-5.862169e-10	-8.686344e+00	-4.146263e+01
1.580000e-06	-1.203624e-06	-5.746080e-10	-8.368744e+00	-4.070930e+01
1.590000e-06	-1.157883e-06	-5.571707e-10	-8.050710e+00	-3.994525e+01
1.600000e-06	-1.112049e-06	-5.397281e-10	-7.732025e+00	-3.917017e+01
1.610000e-06	-1.066074e-06	-5.268314e-10	-7.412367e+00	-3.838375e+01
1.620000e-06	-1.019971e-06	-5.158969e-10	-7.091814e+00	-3.758559e+01
1.630000e-06	-9.738211e-07	-5.051584e-10	-6.770934e+00	-3.677529e+01
1.640000e-06	-9.276500e-07	-4.922791e-10	-6.449908e+00	-3.595240e+01
1.650000e-06	-8.814197e-07	-4.766347e-10	-6.128471e+00	-3.511644e+01
1.660000e-06	-8.351555e-07	-4.598949e-10	-5.806798e+00	-3.426690e+01
1.670000e-06	-7.888383e-07	-4.432880e-10	-5.484757e+00	-3.340325e+01
1.680000e-06	-7.424541e-07	-4.278427e-10	-5.162250e+00	-3.252495e+01
1.690000e-06	-6.960074e-07	-4.168731e-10	-4.839308e+00	-3.163145e+01
1.700000e-06	-6.495354e-07	-4.066876e-10	-4.516190e+00	-3.072218e+01
1.710000e-06	-6.030463e-07	-3.936848e-10	-4.192953e+00	-2.979659e+01
1.720000e-06	-5.565004e-07	-3.789081e-10	-3.869322e+00	-2.885412e+01
1.730000e-06	-5.098783e-07	-3.627955e-10	-3.545161e+00	-2.789426e+01
1.740000e-06	-4.631984e-07	-3.447353e-10	-3.220598e+00	-2.691648e+01
1.750000e-06	-4.164954e-07	-3.272093e-10	-2.895874e+00	-2.592032e+01
1.760000e-06	-3.697990e-07	-3.116797e-10	-2.571196e+00	-2.490532e+01
1.770000e-06	-3.231062e-07	-2.990638e-10	-2.246543e+00	-2.387111e+01
1.780000e-06	-2.763342e-07	-2.879181e-10	-1.921339e+00	-2.281734e+01
1.790000e-06	-2.295012e-07	-2.727119e-10	-1.595712e+00	-2.174372e+01
1.800000e-06	-1.826810e-07	-2.505568e-10	-1.270173e+00	-2.065005e+01
1.810000e-06	-1.359019e-07	-2.264796e-10	-9.449196e-01	-1.953617e+01
1.820000e-06	-8.920728e-08	-2.072987e-10	-6.202542e-01	-1.840203e+01
1.830000e-06	-4.253220e-08	-1.946858e-10	-2.957244e-01	-1.724764e+01
1.840000e-06	4.233977e-09	-1.831585e-10	2.943865e-02	-1.607311e+01
1.850000e-06	5.104783e-08	-1.707556e-10	3.549333e-01	-1.487863e+01
1.860000e-06	9.781924e-08	-1.537619e-10	6.801327e-01	-1.366450e+01
1.870000e-06	1.445846e-07	-1.325814e-10	1.005290e+00	-1.243109e+01
1.880000e-06	1.913763e-07	-1.115475e-10	1.330631e+00	-1.117891e+01
1.890000e-06	2.381558e-07	-9.058270e-11	1.655886e+00	-9.908530e+00
1.900000e-06	2.849152e-07	-7.196230e-11	1.981002e+00	-8.620644e+00
1.910000e-06	3.316851e-07	-5.668111e-11	2.306192e+00	-7.316035e+00
1.920000e-06	3.784631e-07	-4.198914e-11	2.631437e+00	-5.995585e+00
1.930000e-06	4.251780e-07	-2.521592e-11	2.956243e+00	-4.660272e+00
1.940000e-06	4.717778e-07	-7.160423e-12	3.280250e+00	-3.311163e+00
1.950000e-06	5.183126e-07	1.114113e-11	3.603804e+00	-1.949413e+00
1.960000e-06	5.647826e-07	3.072434e-11	3.926908e+00	-5.762599e-01
1.970000e-06	6.111828e-07	5.119429e-11	4.249526e+00	8.069835e-01
1.980000e-06	6.576024e-07	7.155809e-11	4.572280e+00	2.198933e+00
1.990000e-06	7.040196e-07	8.927650e-11	4.895016e+00	3.598143e+00
2.000000e-06	7.503339e-07	1.075078e-10	5.217038e+00	5.003111e+00
2.010000e-06	7.965476e-07	1.275401e-10	5.538360e+00	6.412288e+00
2.020000e-06	8.427018e-07	1.456412e-10	5.859267e+00	7.824088e+00
2.030000e-06	8.888015e-07	1.648999e-10	6.179797e+00	9.236893e+00
2.040000e-06	9.348500e-07	1.834889e-10	6.499970e+00	1.064907e+01
2.050000e-06	9.808759e-07	2.027182e-10	6.819986e+00	1.205896e+01
2.060000e-06	1.026825e-06	2.223918e-10	7.139468e+00	1.346493e+01
2.070000e-06	1.072667e-06	2.425819e-10	7.458205e+00	1.486534e+01
2.080000e-06	1.118413e-06	2.621670e-10	7.776275e+00	1.625856e+01
2.090000e-06	1.164069e-06	2.814079e-10	8.093722e+00	1.764300e+01
2.100000e-06	1.209696e-06	3.004905e-10	8.410959e+00	1.901710e+01
2.110000e-06	1.255216e-06	3.192545e-10	8.727458e+00	2.037937e+01
2.120000e-06	1.300630e-06	3.378017e-10	9.043220e+00	2.172834e+01
2.130000e-06	1.346048e-06	3.578341e-10	9.359013e+00	2.306263e+01
2.140000e-06	1.391448e-06	3.754766e-10	9.674672e+00	2.438091e+01
2.150000e-06	1.436743e-06	3.910721e-10	9.989612e+00	2.568195e+01
2.160000e-06	1.481912e-06	4.074201e-10	1.030367e+01	2.696459e+01
2.170000e-06	1.527002e-06	4.247758e-10	1.061718e+01	2.822776e+01
2.180000e-06	1.572049e-06	4.421620e-10	1.093038e+01	2.947050e+01
2.190000e-06	1.616918e-06	4.587478e-10	1.124236e+01	3.069193e+01
2.200000e-06	1.661574e-06	4.761733e-10	1.155285e+01	3.189129e+01
2.210000e-06	1.706114e-06	4.933996e-10	1.186253e+01	3.306790e+01
2.220000e-06	1.750552e-06	5.102495e-10	1.217151e+01	3.422122e+01
2.230000e-06	1.794857e-06	5.247774e-10	1.247956e+01	3.535080e+01
2.240000e-06	1.838984e-06	5.364325e-10	1.278637e+01	3.645629e+01
2.250000e-06	1.883000e-06	5.474386e-10	1.309242e+01	3.753746e+01
2.260000e-06	1.926956e-06	5.601182e-10	1.339804e+01	3.859418e+01
2.270000e-06	1.970807e-06	5.758424e-10	1.370293e+01	3.962642e+01
2.280000e-06	2.014584e-06	5.929552e-10	1.400731e+01	4.063425e+01
2.290000e-06	2.058264e-06	6.080121e-10	1.431101e+01	4.161784e+01
2.300000e-06	2.101863e-06	6.232342e-10	1.461416e+01	4.257744e+01
2.310000e-06	2.145439e-06	6.360135e-10	1.491714e+01	4.351339e+01
2.320000e-06	2.188951e-06	6.461178e-10	1.521968e+01	4.442611e+01
2.330000e-06	2.232371e-06	6.522176e-10	1.552157e+01	4.531608e+01
2.340000e-06	2.275651e-06	6.595720e-10	1.582250e+01	4.618385e+01
2.350000e-06	2.318715e-06	6.695989e-10	1.612192e+01	4.703003e+01
2.360000e-06	2.361574e-06	6.834272e-10	1.641992e+01	4.785529e+01
2.370000e-06	2.404162e-06	7.002712e-10	1.671603e+01	4.866033e+01
2.380000e-06	2.446378e-06	7.161926e-10	1.700955e+01	4.944587e+01
2.390000e-06	2.488306e-06	7.301206e-10	1.730108e+01	5.021268e+01
2.400000e-06	2.529954e-06	7.407474e-10	1.759066e+01	5.096153e+01
2.410000e-06	2.571248e-06	7.481811e-10	1.787777e+01	5.169322e+01
2.420000e-06	2.612258e-06	7.550629e-10	1.816291e+01	5.240853e+01
2.430000e-06	2.652997e-06	7.628630e-10	1.844617e+01	5.310825e+01
2.440000e-06	2.693451e-06	7.752653e-10	1.872744e+01	5.379314e+01
2.450000e-06	2.733654e-06	7.917826e-10	1.900697e+01	5.446398e+01
2.460000e-06	2.773618e-06	8.065496e-10	1.928484e+01	5.512147e+01
2.470000e-06	2.813440e-06	8.184465e-10	1.956172e+01	5.576633e+01
2.480000e-06	2.853206e-06	8.253195e-10	1.983821e+01	5.639921e+01
2.490000e-06	2.892900e-06	8.313088e-10	2.011420e+01	5.702074e+01
2.500000e-06	2.932462e-06	8.378240e-10	2.038927e+01	5.763149e+01
2.510000e-06	2.971842e-06	8.460543e-10	2.066308e+01	5.823199e+01
2.520000e-06	3.011073e-06	8.563589e-10	2.093585e+01	5.882271e+01
2.530000e-06	3.050092e-06	8.675154e-10	2.120715e+01	5.940410e+01
2.540000e-06	3.088877e-06	8.769553e-10	2.147682e+01	5.997650e+01
2.550000e-06	3.127478e-06	8.839674e-10	2.174521e+01	6.054026e+01
2.560000e-06	3.165959e-06	8.904585e-10	2.201277e+01	6.109562e+01
2.570000e-06	3.204222e-06	8.957511e-10	2.227881e+01	6.164280e+01
2.580000e-06	3.242100e-06	8.995561e-10	2.254217e+01	6.218195e+01
2.590000e-06	3.279761e-06	9.051659e-10	2.280403e+01	6.271318e+01
2.600000e-06	3.317340e-06	9.136634e-10	2.306532e+01	6.323654e+01
2.610000e-06	3.354735e-06	9.250392e-10	2.332532e+01	6.375205e+01
2.620000e-06	3.391904e-06	9.349327e-10	2.358376e+01	6.425968e+01
2.630000e-06	3.428743e-06	9.406926e-10	2.383989e+01	6.475936e+01
2.640000e-06	3.465224e-06	9.429832e-10	2.409355e+01	6.525099e+01
2.650000e-06	3.501482e-06	9.461882e-10	2.434565e+01	6.573443e+01
2.660000e-06	3.537473e-06	9.524512e-10	2.459589e+01	6.620952e+01
2.670000e-06	3.573247e-06	9.593869e-10	2.484462e+01	6.667609e+01
2.680000e-06	3.608934e-06	9.663083e-10	2.509275e+01	6.713394e+01
2.690000e-06	3.644530e-06	9.745066e-10	2.534025e+01	6.758286e+01
2.700000e-06	3.679995e-06	9.835395e-10	2.558684e+01	6.802266e+01
2.710000e-06	3.715285e-06	9.900088e-10	2.583221e+01	6.845310e+01
2.720000e-06	3.750339e-06	9.951196e-10	2.607594e+01	6.887399e+01
2.730000e-06	3.785019e-06	1.000266e-09	2.631707e+01	6.928513e+01
2.740000e-06	3.819205e-06	1.004682e-09	2.655476e+01	6.968632e+01
2.750000e-06	3.852939e-06	1.008063e-09	2.678931e+01	7.007740e+01
2.760000e-06	3.886236e-06	1.011742e-09	2.702082e+01	7.045822e+01
2.770000e-06	3.919053e-06	1.017867e-09	2.724899e+01	7.082864e+01
2.780000e-06	3.951414e-06	1.025923e-09	2.747400e+01	7.118858e+01
2.790000e-06	3.983471e-06	1.033549e-09	2.769689e+01	7.153795e+01
2.800000e-06	4.015370e-06	1.042047e-09	2.791868e+01	7.187671e+01
2.810000e-06	4.047116e-06	1.048914e-09	2.813942e+01	7.220486e+01
2.820000e-06	4.078702e-06	1.051418e-09	2.835903e+01	7.252243e+01
2.830000e-06	4.110112e-06	1.051046e-09	2.857742e+01	7.282946e+01
2.840000e-06	4.141315e-06	1.050243e-09	2.879438e+01	7.312606e+01
2.850000e-06	4.172217e-06	1.052752e-09	2.900923e+01	7.341235e+01
2.860000e-06	4.202738e-06	1.059260e-09	2.922145e+01	7.368850e+01
2.870000e-06	4.232939e-06	1.065716e-09	2.943144e+01	7.395469e+01
2.880000e-06	4.262817e-06	1.072108e-09	2.963917e+01	7.421116e+01
2.890000e-06	4.292439e-06	1.078643e-09	2.984513e+01	7.445815e+01
2.900000e-06	4.321844e-06	1.084222e-09	3.004958e+01	7.469595e+01
