# Temperatura_=_-0.08
# Concentracion g/m^3_=_1620.0
# C_Vs_to_Am_M_A/Vsm_=_65563218390.804596
# pendiente_HvsI_1/m_=_3716.3
# ordenada_HvsI_A/m_=_1297.0
# frecuencia_Hz_=_135105.8809515858

Tiempo_(s)	Campo_(V.s)	Magnetizacion_(V.s)	Campo_(kA/m)	Magnetizacion_(A/m)
0.000000e+00	-5.519164e-06	-8.453157e-10	-3.836616e+01	-5.699509e+01
1.000000e-08	-5.519256e-06	-8.476663e-10	-3.836680e+01	-5.698562e+01
2.000000e-08	-5.519127e-06	-8.501456e-10	-3.836591e+01	-5.697460e+01
3.000000e-08	-5.518770e-06	-8.510737e-10	-3.836342e+01	-5.696195e+01
4.000000e-08	-5.517970e-06	-8.487750e-10	-3.835787e+01	-5.694755e+01
5.000000e-08	-5.516600e-06	-8.419052e-10	-3.834834e+01	-5.693132e+01
6.000000e-08	-5.514685e-06	-8.273635e-10	-3.833503e+01	-5.691315e+01
7.000000e-08	-5.512214e-06	-8.063020e-10	-3.831785e+01	-5.689296e+01
8.000000e-08	-5.509116e-06	-8.079593e-10	-3.829632e+01	-5.687063e+01
9.000000e-08	-5.505474e-06	-8.884506e-10	-3.827100e+01	-5.684609e+01
1.000000e-07	-5.501413e-06	-9.571119e-10	-3.824277e+01	-5.681925e+01
1.100000e-07	-5.497038e-06	-8.746373e-10	-3.821236e+01	-5.679004e+01
1.200000e-07	-5.492451e-06	-7.480200e-10	-3.818047e+01	-5.675840e+01
1.300000e-07	-5.487659e-06	-7.849349e-10	-3.814716e+01	-5.672426e+01
1.400000e-07	-5.482483e-06	-8.768686e-10	-3.811118e+01	-5.668761e+01
1.500000e-07	-5.476909e-06	-8.625426e-10	-3.807244e+01	-5.664839e+01
1.600000e-07	-5.471033e-06	-7.446341e-10	-3.803159e+01	-5.660662e+01
1.700000e-07	-5.464767e-06	-8.160636e-10	-3.798802e+01	-5.656229e+01
1.800000e-07	-5.457964e-06	-9.148405e-10	-3.794073e+01	-5.651541e+01
1.900000e-07	-5.450699e-06	-9.044375e-10	-3.789024e+01	-5.646604e+01
2.000000e-07	-5.443195e-06	-7.801813e-10	-3.783807e+01	-5.641421e+01
2.100000e-07	-5.435473e-06	-8.021280e-10	-3.778439e+01	-5.636001e+01
2.200000e-07	-5.427456e-06	-8.865182e-10	-3.772866e+01	-5.630350e+01
2.300000e-07	-5.419230e-06	-9.060502e-10	-3.767148e+01	-5.624479e+01
2.400000e-07	-5.410684e-06	-8.534266e-10	-3.761207e+01	-5.618398e+01
2.500000e-07	-5.401529e-06	-8.508120e-10	-3.754843e+01	-5.612121e+01
2.600000e-07	-5.391602e-06	-8.953616e-10	-3.747942e+01	-5.605660e+01
2.700000e-07	-5.380930e-06	-8.822207e-10	-3.740524e+01	-5.599029e+01
2.800000e-07	-5.369754e-06	-8.545599e-10	-3.732755e+01	-5.592243e+01
2.900000e-07	-5.358172e-06	-8.568076e-10	-3.724704e+01	-5.585319e+01
3.000000e-07	-5.346264e-06	-9.022541e-10	-3.716426e+01	-5.578271e+01
3.100000e-07	-5.334019e-06	-8.742503e-10	-3.707914e+01	-5.571115e+01
3.200000e-07	-5.321274e-06	-8.501859e-10	-3.699054e+01	-5.563867e+01
3.300000e-07	-5.308055e-06	-8.352901e-10	-3.689865e+01	-5.556544e+01
3.400000e-07	-5.294536e-06	-8.840343e-10	-3.680468e+01	-5.549158e+01
3.500000e-07	-5.280697e-06	-8.465861e-10	-3.670848e+01	-5.541725e+01
3.600000e-07	-5.266378e-06	-8.226101e-10	-3.660894e+01	-5.534258e+01
3.700000e-07	-5.251692e-06	-8.397538e-10	-3.650685e+01	-5.526768e+01
3.800000e-07	-5.236618e-06	-8.880844e-10	-3.640206e+01	-5.519267e+01
3.900000e-07	-5.220834e-06	-8.288222e-10	-3.629234e+01	-5.511763e+01
4.000000e-07	-5.204532e-06	-8.278387e-10	-3.617902e+01	-5.504264e+01
4.100000e-07	-5.187888e-06	-8.862221e-10	-3.606332e+01	-5.496774e+01
4.200000e-07	-5.170919e-06	-8.689056e-10	-3.594536e+01	-5.489298e+01
4.300000e-07	-5.153613e-06	-7.888862e-10	-3.582506e+01	-5.481837e+01
4.400000e-07	-5.136028e-06	-8.494385e-10	-3.570282e+01	-5.474390e+01
4.500000e-07	-5.118162e-06	-8.969282e-10	-3.557862e+01	-5.466954e+01
4.600000e-07	-5.099707e-06	-8.117533e-10	-3.545034e+01	-5.459525e+01
4.700000e-07	-5.080723e-06	-7.905123e-10	-3.531836e+01	-5.452096e+01
4.800000e-07	-5.061506e-06	-8.764429e-10	-3.518478e+01	-5.444656e+01
4.900000e-07	-5.042035e-06	-8.456502e-10	-3.504943e+01	-5.437195e+01
5.000000e-07	-5.022221e-06	-7.866248e-10	-3.491169e+01	-5.429701e+01
5.100000e-07	-5.002198e-06	-8.497121e-10	-3.477251e+01	-5.422157e+01
5.200000e-07	-4.982029e-06	-8.504559e-10	-3.463230e+01	-5.414548e+01
5.300000e-07	-4.961449e-06	-7.778345e-10	-3.448924e+01	-5.406855e+01
5.400000e-07	-4.940410e-06	-8.250062e-10	-3.434299e+01	-5.399060e+01
5.500000e-07	-4.919157e-06	-8.815676e-10	-3.419525e+01	-5.391142e+01
5.600000e-07	-4.897582e-06	-7.963796e-10	-3.404528e+01	-5.383080e+01
5.700000e-07	-4.875616e-06	-7.850737e-10	-3.389258e+01	-5.374854e+01
5.800000e-07	-4.853293e-06	-8.531924e-10	-3.373740e+01	-5.366442e+01
5.900000e-07	-4.830548e-06	-8.237923e-10	-3.357929e+01	-5.357821e+01
6.000000e-07	-4.807469e-06	-7.759177e-10	-3.341885e+01	-5.348971e+01
6.100000e-07	-4.784154e-06	-8.361622e-10	-3.325678e+01	-5.339872e+01
6.200000e-07	-4.760556e-06	-8.328720e-10	-3.309274e+01	-5.330503e+01
6.300000e-07	-4.736730e-06	-7.856740e-10	-3.292712e+01	-5.320846e+01
6.400000e-07	-4.712731e-06	-8.065093e-10	-3.276029e+01	-5.310884e+01
6.500000e-07	-4.688501e-06	-8.332162e-10	-3.259186e+01	-5.300601e+01
6.600000e-07	-4.663861e-06	-7.927353e-10	-3.242057e+01	-5.289984e+01
6.700000e-07	-4.638723e-06	-8.009844e-10	-3.224582e+01	-5.279021e+01
6.800000e-07	-4.613068e-06	-8.185263e-10	-3.206749e+01	-5.267702e+01
6.900000e-07	-4.586869e-06	-7.974105e-10	-3.188537e+01	-5.256021e+01
7.000000e-07	-4.560151e-06	-7.869958e-10	-3.169964e+01	-5.243974e+01
7.100000e-07	-4.532880e-06	-8.106544e-10	-3.151006e+01	-5.231558e+01
7.200000e-07	-4.505255e-06	-7.967621e-10	-3.131803e+01	-5.218775e+01
7.300000e-07	-4.477505e-06	-7.891199e-10	-3.112513e+01	-5.205628e+01
7.400000e-07	-4.449623e-06	-8.045184e-10	-3.093131e+01	-5.192123e+01
7.500000e-07	-4.421571e-06	-8.042303e-10	-3.073631e+01	-5.178270e+01
7.600000e-07	-4.393261e-06	-7.886511e-10	-3.053951e+01	-5.164079e+01
7.700000e-07	-4.364661e-06	-7.932510e-10	-3.034070e+01	-5.149566e+01
7.800000e-07	-4.335672e-06	-7.900812e-10	-3.013919e+01	-5.134746e+01
7.900000e-07	-4.306263e-06	-7.775122e-10	-2.993475e+01	-5.119637e+01
8.000000e-07	-4.276610e-06	-7.834861e-10	-2.972862e+01	-5.104261e+01
8.100000e-07	-4.246755e-06	-7.880339e-10	-2.952108e+01	-5.088638e+01
8.200000e-07	-4.216608e-06	-7.774134e-10	-2.931152e+01	-5.072793e+01
8.300000e-07	-4.186163e-06	-7.785166e-10	-2.909988e+01	-5.056750e+01
8.400000e-07	-4.155405e-06	-7.891765e-10	-2.888607e+01	-5.040534e+01
8.500000e-07	-4.124270e-06	-7.761861e-10	-2.866964e+01	-5.024171e+01
8.600000e-07	-4.092891e-06	-7.674829e-10	-2.845150e+01	-5.007688e+01
8.700000e-07	-4.061320e-06	-7.695247e-10	-2.823205e+01	-4.991108e+01
8.800000e-07	-4.029560e-06	-7.652497e-10	-2.801126e+01	-4.974459e+01
8.900000e-07	-3.997667e-06	-7.529686e-10	-2.778956e+01	-4.957763e+01
9.000000e-07	-3.965644e-06	-7.597260e-10	-2.756696e+01	-4.941044e+01
9.100000e-07	-3.933358e-06	-7.565534e-10	-2.734252e+01	-4.924323e+01
9.200000e-07	-3.900752e-06	-7.451204e-10	-2.711586e+01	-4.907619e+01
9.300000e-07	-3.867784e-06	-7.430482e-10	-2.688669e+01	-4.890949e+01
9.400000e-07	-3.834292e-06	-7.502335e-10	-2.665387e+01	-4.874327e+01
9.500000e-07	-3.800275e-06	-7.399444e-10	-2.641740e+01	-4.857766e+01
9.600000e-07	-3.765810e-06	-7.369826e-10	-2.617782e+01	-4.841273e+01
9.700000e-07	-3.731022e-06	-7.404718e-10	-2.593600e+01	-4.824854e+01
9.800000e-07	-3.695867e-06	-7.366410e-10	-2.569162e+01	-4.808510e+01
9.900000e-07	-3.660370e-06	-7.266323e-10	-2.544486e+01	-4.792239e+01
1.000000e-06	-3.624724e-06	-7.294851e-10	-2.519707e+01	-4.776036e+01
1.010000e-06	-3.588956e-06	-7.278939e-10	-2.494843e+01	-4.759892e+01
1.020000e-06	-3.553050e-06	-7.223281e-10	-2.469883e+01	-4.743793e+01
1.030000e-06	-3.517019e-06	-7.226933e-10	-2.444837e+01	-4.727722e+01
1.040000e-06	-3.480798e-06	-7.254324e-10	-2.419657e+01	-4.711658e+01
1.050000e-06	-3.444330e-06	-7.180753e-10	-2.394307e+01	-4.695578e+01
1.060000e-06	-3.407624e-06	-7.113314e-10	-2.368791e+01	-4.679454e+01
1.070000e-06	-3.370656e-06	-7.069370e-10	-2.343093e+01	-4.663254e+01
1.080000e-06	-3.333385e-06	-6.995656e-10	-2.317184e+01	-4.646945e+01
1.090000e-06	-3.295829e-06	-6.951768e-10	-2.291078e+01	-4.630491e+01
1.100000e-06	-3.258020e-06	-6.955584e-10	-2.264795e+01	-4.613851e+01
1.110000e-06	-3.219966e-06	-6.920502e-10	-2.238342e+01	-4.596984e+01
1.120000e-06	-3.181706e-06	-6.836943e-10	-2.211745e+01	-4.579849e+01
1.130000e-06	-3.143243e-06	-6.810942e-10	-2.185008e+01	-4.562399e+01
1.140000e-06	-3.104599e-06	-6.781174e-10	-2.158145e+01	-4.544590e+01
1.150000e-06	-3.065795e-06	-6.734752e-10	-2.131170e+01	-4.526375e+01
1.160000e-06	-3.026779e-06	-6.681177e-10	-2.104049e+01	-4.507708e+01
1.170000e-06	-2.987567e-06	-6.655330e-10	-2.076791e+01	-4.488543e+01
1.180000e-06	-2.948207e-06	-6.606786e-10	-2.049430e+01	-4.468835e+01
1.190000e-06	-2.908653e-06	-6.594368e-10	-2.021934e+01	-4.448538e+01
1.200000e-06	-2.868934e-06	-6.592588e-10	-1.994324e+01	-4.427609e+01
1.210000e-06	-2.829103e-06	-6.583944e-10	-1.966636e+01	-4.406008e+01
1.220000e-06	-2.789137e-06	-6.534315e-10	-1.938853e+01	-4.383695e+01
1.230000e-06	-2.749013e-06	-6.502251e-10	-1.910961e+01	-4.360632e+01
1.240000e-06	-2.708780e-06	-6.452540e-10	-1.882993e+01	-4.336787e+01
1.250000e-06	-2.668416e-06	-6.413017e-10	-1.854935e+01	-4.312128e+01
1.260000e-06	-2.627738e-06	-6.376210e-10	-1.826658e+01	-4.286628e+01
1.270000e-06	-2.586803e-06	-6.382248e-10	-1.798202e+01	-4.260261e+01
1.280000e-06	-2.545666e-06	-6.349995e-10	-1.769606e+01	-4.233007e+01
1.290000e-06	-2.504212e-06	-6.286780e-10	-1.740789e+01	-4.204849e+01
1.300000e-06	-2.462513e-06	-6.207231e-10	-1.711802e+01	-4.175773e+01
1.310000e-06	-2.420549e-06	-6.146627e-10	-1.682631e+01	-4.145770e+01
1.320000e-06	-2.378244e-06	-6.083778e-10	-1.653223e+01	-4.114834e+01
1.330000e-06	-2.335529e-06	-6.045447e-10	-1.623530e+01	-4.082960e+01
1.340000e-06	-2.292439e-06	-6.041627e-10	-1.593577e+01	-4.050152e+01
1.350000e-06	-2.249128e-06	-6.031834e-10	-1.563469e+01	-4.016411e+01
1.360000e-06	-2.205660e-06	-5.984466e-10	-1.533252e+01	-3.981746e+01
1.370000e-06	-2.162083e-06	-5.903885e-10	-1.502960e+01	-3.946166e+01
1.380000e-06	-2.118375e-06	-5.831522e-10	-1.472577e+01	-3.909682e+01
1.390000e-06	-2.074579e-06	-5.763333e-10	-1.442132e+01	-3.872309e+01
1.400000e-06	-2.030703e-06	-5.709878e-10	-1.411632e+01	-3.834062e+01
1.410000e-06	-1.986744e-06	-5.660100e-10	-1.381074e+01	-3.794958e+01
1.420000e-06	-1.942740e-06	-5.614460e-10	-1.350485e+01	-3.755015e+01
1.430000e-06	-1.898697e-06	-5.568147e-10	-1.319869e+01	-3.714249e+01
1.440000e-06	-1.854578e-06	-5.537966e-10	-1.289199e+01	-3.672680e+01
1.450000e-06	-1.810369e-06	-5.491874e-10	-1.258468e+01	-3.630323e+01
1.460000e-06	-1.766048e-06	-5.420540e-10	-1.227659e+01	-3.587196e+01
1.470000e-06	-1.721610e-06	-5.324909e-10	-1.196768e+01	-3.543312e+01
1.480000e-06	-1.677101e-06	-5.224449e-10	-1.165828e+01	-3.498685e+01
1.490000e-06	-1.632419e-06	-5.099746e-10	-1.134767e+01	-3.453324e+01
1.500000e-06	-1.587550e-06	-5.030896e-10	-1.103577e+01	-3.407237e+01
1.510000e-06	-1.542580e-06	-4.995265e-10	-1.072316e+01	-3.360428e+01
1.520000e-06	-1.497519e-06	-4.957044e-10	-1.040992e+01	-3.312897e+01
1.530000e-06	-1.452298e-06	-4.892197e-10	-1.009557e+01	-3.264644e+01
1.540000e-06	-1.406963e-06	-4.802114e-10	-9.780427e+00	-3.215659e+01
1.550000e-06	-1.361549e-06	-4.703911e-10	-9.464733e+00	-3.165932e+01
1.560000e-06	-1.315996e-06	-4.603989e-10	-9.148076e+00	-3.115447e+01
1.570000e-06	-1.270350e-06	-4.504059e-10	-8.830771e+00	-3.064186e+01
1.580000e-06	-1.224607e-06	-4.415013e-10	-8.512788e+00	-3.012122e+01
1.590000e-06	-1.178760e-06	-4.333032e-10	-8.194087e+00	-2.959228e+01
1.600000e-06	-1.132892e-06	-4.274413e-10	-7.875238e+00	-2.905471e+01
1.610000e-06	-1.086953e-06	-4.241620e-10	-7.555897e+00	-2.850813e+01
1.620000e-06	-1.040876e-06	-4.198049e-10	-7.235590e+00	-2.795213e+01
1.630000e-06	-9.947683e-07	-4.115216e-10	-6.915077e+00	-2.738626e+01
1.640000e-06	-9.486231e-07	-3.985809e-10	-6.594301e+00	-2.681004e+01
1.650000e-06	-9.024097e-07	-3.813850e-10	-6.273052e+00	-2.622296e+01
1.660000e-06	-8.561337e-07	-3.665540e-10	-5.951367e+00	-2.562449e+01
1.670000e-06	-8.097791e-07	-3.563977e-10	-5.629135e+00	-2.501406e+01
1.680000e-06	-7.633615e-07	-3.491294e-10	-5.306465e+00	-2.439112e+01
1.690000e-06	-7.169754e-07	-3.436357e-10	-4.984015e+00	-2.375508e+01
1.700000e-06	-6.706139e-07	-3.380569e-10	-4.661736e+00	-2.310537e+01
1.710000e-06	-6.241786e-07	-3.281964e-10	-4.338943e+00	-2.244140e+01
1.720000e-06	-5.776809e-07	-3.137988e-10	-4.015717e+00	-2.176262e+01
1.730000e-06	-5.311687e-07	-2.998490e-10	-3.692390e+00	-2.106848e+01
1.740000e-06	-4.845895e-07	-2.869215e-10	-3.368597e+00	-2.035846e+01
1.750000e-06	-4.379083e-07	-2.746309e-10	-3.044096e+00	-1.963207e+01
1.760000e-06	-3.912045e-07	-2.629086e-10	-2.719436e+00	-1.888886e+01
1.770000e-06	-3.444881e-07	-2.528361e-10	-2.394690e+00	-1.812843e+01
1.780000e-06	-2.977274e-07	-2.423204e-10	-2.069636e+00	-1.735043e+01
1.790000e-06	-2.509059e-07	-2.298430e-10	-1.744158e+00	-1.655457e+01
1.800000e-06	-2.040868e-07	-2.151989e-10	-1.418698e+00	-1.574062e+01
1.810000e-06	-1.573005e-07	-1.991064e-10	-1.093466e+00	-1.490843e+01
1.820000e-06	-1.104288e-07	-1.817960e-10	-7.676399e-01	-1.405792e+01
1.830000e-06	-6.357565e-08	-1.678519e-10	-4.419427e-01	-1.318909e+01
1.840000e-06	-1.685824e-08	-1.565218e-10	-1.171891e-01	-1.230202e+01
1.850000e-06	2.982218e-08	-1.460950e-10	2.073072e-01	-1.139690e+01
1.860000e-06	7.652610e-08	-1.358461e-10	5.319670e-01	-1.047397e+01
1.870000e-06	1.232572e-07	-1.243280e-10	8.568157e-01	-9.533612e+00
1.880000e-06	1.700627e-07	-1.104701e-10	1.182181e+00	-8.576262e+00
1.890000e-06	2.169240e-07	-9.400448e-11	1.507935e+00	-7.602470e+00
1.900000e-06	2.638140e-07	-7.684175e-11	1.833888e+00	-6.612873e+00
1.910000e-06	3.106464e-07	-6.111237e-11	2.159441e+00	-5.608202e+00
1.920000e-06	3.573801e-07	-4.674241e-11	2.484308e+00	-4.589280e+00
1.930000e-06	4.040814e-07	-3.543959e-11	2.808950e+00	-3.557017e+00
1.940000e-06	4.507486e-07	-2.591127e-11	3.133354e+00	-2.512405e+00
1.950000e-06	4.973998e-07	-1.645293e-11	3.457648e+00	-1.456520e+00
1.960000e-06	5.440015e-07	-3.446560e-12	3.781596e+00	-3.905090e-01
1.970000e-06	5.905585e-07	1.299673e-11	4.105235e+00	6.844098e-01
1.980000e-06	6.370842e-07	3.109190e-11	4.428656e+00	1.766956e+00
1.990000e-06	6.835294e-07	5.113924e-11	4.751517e+00	2.855793e+00
2.000000e-06	7.298966e-07	6.774361e-11	5.073836e+00	3.949537e+00
2.010000e-06	7.762386e-07	8.094588e-11	5.395980e+00	5.046763e+00
2.020000e-06	8.225092e-07	9.102346e-11	5.717628e+00	6.146014e+00
2.030000e-06	8.687302e-07	1.015133e-10	6.038930e+00	7.245811e+00
2.040000e-06	9.148458e-07	1.147969e-10	6.359500e+00	8.344657e+00
2.050000e-06	9.608723e-07	1.311839e-10	6.679451e+00	9.441054e+00
2.060000e-06	1.006825e-06	1.497799e-10	6.998889e+00	1.053351e+01
2.070000e-06	1.052713e-06	1.680461e-10	7.317877e+00	1.162053e+01
2.080000e-06	1.098581e-06	1.853069e-10	7.636724e+00	1.270066e+01
2.090000e-06	1.144382e-06	1.998033e-10	7.955108e+00	1.377247e+01
2.100000e-06	1.190165e-06	2.123596e-10	8.273364e+00	1.483458e+01
2.110000e-06	1.235822e-06	2.236101e-10	8.590749e+00	1.588562e+01
2.120000e-06	1.281321e-06	2.351471e-10	8.907034e+00	1.692433e+01
2.130000e-06	1.326784e-06	2.489523e-10	9.223065e+00	1.794946e+01
2.140000e-06	1.372141e-06	2.643453e-10	9.538366e+00	1.895988e+01
2.150000e-06	1.417382e-06	2.793428e-10	9.852854e+00	1.995450e+01
2.160000e-06	1.462560e-06	2.918846e-10	1.016691e+01	2.093232e+01
2.170000e-06	1.507629e-06	3.044757e-10	1.048020e+01	2.189244e+01
2.180000e-06	1.552505e-06	3.172382e-10	1.079215e+01	2.283404e+01
2.190000e-06	1.597260e-06	3.295397e-10	1.110326e+01	2.375639e+01
2.200000e-06	1.641990e-06	3.436896e-10	1.141420e+01	2.465888e+01
2.210000e-06	1.686575e-06	3.569026e-10	1.172414e+01	2.554096e+01
2.220000e-06	1.731007e-06	3.694028e-10	1.203300e+01	2.640222e+01
2.230000e-06	1.775315e-06	3.789992e-10	1.234101e+01	2.724234e+01
2.240000e-06	1.819499e-06	3.863272e-10	1.264814e+01	2.806107e+01
2.250000e-06	1.863589e-06	3.946072e-10	1.295463e+01	2.885830e+01
2.260000e-06	1.907612e-06	4.039454e-10	1.326066e+01	2.963400e+01
2.270000e-06	1.951596e-06	4.141641e-10	1.356641e+01	3.038822e+01
2.280000e-06	1.995543e-06	4.244956e-10	1.387191e+01	3.112111e+01
2.290000e-06	2.039443e-06	4.352220e-10	1.417708e+01	3.183291e+01
2.300000e-06	2.083269e-06	4.445990e-10	1.448173e+01	3.252393e+01
2.310000e-06	2.126995e-06	4.534736e-10	1.478569e+01	3.319457e+01
2.320000e-06	2.170632e-06	4.635715e-10	1.508903e+01	3.384528e+01
2.330000e-06	2.214191e-06	4.721799e-10	1.539183e+01	3.447658e+01
2.340000e-06	2.257598e-06	4.788913e-10	1.569357e+01	3.508905e+01
2.350000e-06	2.300748e-06	4.876323e-10	1.599352e+01	3.568330e+01
2.360000e-06	2.343547e-06	4.983424e-10	1.629104e+01	3.626001e+01
2.370000e-06	2.386008e-06	5.063850e-10	1.658620e+01	3.681986e+01
2.380000e-06	2.428212e-06	5.137349e-10	1.687959e+01	3.736358e+01
2.390000e-06	2.470162e-06	5.220872e-10	1.717120e+01	3.789191e+01
2.400000e-06	2.511797e-06	5.300314e-10	1.746062e+01	3.840559e+01
2.410000e-06	2.553049e-06	5.378726e-10	1.774738e+01	3.890539e+01
2.420000e-06	2.594021e-06	5.471428e-10	1.803220e+01	3.939203e+01
2.430000e-06	2.634781e-06	5.563455e-10	1.831553e+01	3.986627e+01
2.440000e-06	2.675353e-06	5.647556e-10	1.859757e+01	4.032883e+01
2.450000e-06	2.715763e-06	5.738322e-10	1.887848e+01	4.078038e+01
2.460000e-06	2.756000e-06	5.810053e-10	1.915818e+01	4.122162e+01
2.470000e-06	2.796034e-06	5.863371e-10	1.943647e+01	4.165315e+01
2.480000e-06	2.835894e-06	5.914911e-10	1.971356e+01	4.207558e+01
2.490000e-06	2.875640e-06	5.968049e-10	1.998985e+01	4.248946e+01
2.500000e-06	2.915228e-06	6.043612e-10	2.026505e+01	4.289528e+01
2.510000e-06	2.954694e-06	6.143825e-10	2.053939e+01	4.329351e+01
2.520000e-06	2.994051e-06	6.234963e-10	2.081298e+01	4.368455e+01
2.530000e-06	3.033225e-06	6.292710e-10	2.108530e+01	4.406874e+01
2.540000e-06	3.072174e-06	6.317798e-10	2.135605e+01	4.444638e+01
2.550000e-06	3.110854e-06	6.328843e-10	2.162493e+01	4.481772e+01
2.560000e-06	3.149322e-06	6.343411e-10	2.189234e+01	4.518295e+01
2.570000e-06	3.187592e-06	6.392933e-10	2.215837e+01	4.554221e+01
2.580000e-06	3.225615e-06	6.455947e-10	2.242268e+01	4.589559e+01
2.590000e-06	3.263452e-06	6.537913e-10	2.268571e+01	4.624313e+01
2.600000e-06	3.301081e-06	6.634257e-10	2.294728e+01	4.658483e+01
2.610000e-06	3.338488e-06	6.711715e-10	2.320732e+01	4.692064e+01
2.620000e-06	3.375621e-06	6.759113e-10	2.346544e+01	4.725048e+01
2.630000e-06	3.412465e-06	6.778918e-10	2.372156e+01	4.757424e+01
2.640000e-06	3.449099e-06	6.782596e-10	2.397622e+01	4.789176e+01
2.650000e-06	3.485523e-06	6.793302e-10	2.422942e+01	4.820289e+01
2.660000e-06	3.521749e-06	6.824491e-10	2.448124e+01	4.850742e+01
2.670000e-06	3.557789e-06	6.881916e-10	2.473178e+01	4.880516e+01
2.680000e-06	3.593674e-06	6.950587e-10	2.498123e+01	4.909588e+01
2.690000e-06	3.629436e-06	7.011577e-10	2.522982e+01	4.937937e+01
2.700000e-06	3.665031e-06	7.060493e-10	2.547726e+01	4.965540e+01
2.710000e-06	3.700385e-06	7.088924e-10	2.572302e+01	4.992376e+01
2.720000e-06	3.735465e-06	7.119430e-10	2.596688e+01	5.018424e+01
2.730000e-06	3.770237e-06	7.161105e-10	2.620860e+01	5.043664e+01
2.740000e-06	3.804536e-06	7.197769e-10	2.644702e+01	5.068080e+01
2.750000e-06	3.838339e-06	7.223211e-10	2.668201e+01	5.091655e+01
2.760000e-06	3.871783e-06	7.259954e-10	2.691449e+01	5.114376e+01
2.770000e-06	3.904804e-06	7.314304e-10	2.714403e+01	5.136235e+01
2.780000e-06	3.937407e-06	7.380995e-10	2.737067e+01	5.157222e+01
2.790000e-06	3.969728e-06	7.447573e-10	2.759534e+01	5.177336e+01
2.800000e-06	4.001812e-06	7.496001e-10	2.781838e+01	5.196576e+01
2.810000e-06	4.033728e-06	7.521322e-10	2.804024e+01	5.214945e+01
2.820000e-06	4.065461e-06	7.533995e-10	2.826083e+01	5.232451e+01
2.830000e-06	4.096985e-06	7.544815e-10	2.847997e+01	5.249105e+01
2.840000e-06	4.128314e-06	7.547843e-10	2.869775e+01	5.264921e+01
2.850000e-06	4.159335e-06	7.561275e-10	2.891339e+01	5.279919e+01
2.860000e-06	4.190038e-06	7.594513e-10	2.912682e+01	5.294119e+01
2.870000e-06	4.220442e-06	7.621069e-10	2.933817e+01	5.307548e+01
2.880000e-06	4.250504e-06	7.645969e-10	2.954715e+01	5.320234e+01
2.890000e-06	4.280306e-06	7.668936e-10	2.975431e+01	5.332208e+01
2.900000e-06	4.309901e-06	7.687532e-10	2.996004e+01	5.343506e+01
