# Temperatura_=_-0.21
# Concentracion g/m^3_=_1620.0
# C_Vs_to_Am_M_A/Vsm_=_65563218390.804596
# pendiente_HvsI_1/m_=_3716.3
# ordenada_HvsI_A/m_=_1297.0
# frecuencia_Hz_=_135109.15879322396

Tiempo_(s)	Campo_(V.s)	Magnetizacion_(V.s)	Campo_(kA/m)	Magnetizacion_(A/m)
0.000000e+00	-5.541922e-06	-1.233005e-09	-3.836799e+01	-8.288178e+01
1.000000e-08	-5.542204e-06	-1.230612e-09	-3.836994e+01	-8.289770e+01
2.000000e-08	-5.542170e-06	-1.229535e-09	-3.836971e+01	-8.291288e+01
3.000000e-08	-5.541687e-06	-1.229272e-09	-3.836636e+01	-8.292725e+01
4.000000e-08	-5.540739e-06	-1.228493e-09	-3.835980e+01	-8.294074e+01
5.000000e-08	-5.539260e-06	-1.232176e-09	-3.834956e+01	-8.295327e+01
6.000000e-08	-5.537160e-06	-1.235766e-09	-3.833502e+01	-8.296474e+01
7.000000e-08	-5.534504e-06	-1.215835e-09	-3.831663e+01	-8.297504e+01
8.000000e-08	-5.531391e-06	-1.187936e-09	-3.829508e+01	-8.298405e+01
9.000000e-08	-5.527883e-06	-1.198243e-09	-3.827080e+01	-8.299166e+01
1.000000e-07	-5.523931e-06	-1.224511e-09	-3.824343e+01	-8.299773e+01
1.100000e-07	-5.519558e-06	-1.236214e-09	-3.821315e+01	-8.300212e+01
1.200000e-07	-5.514892e-06	-1.222989e-09	-3.818086e+01	-8.300470e+01
1.300000e-07	-5.509870e-06	-1.182426e-09	-3.814608e+01	-8.300530e+01
1.400000e-07	-5.504534e-06	-1.200176e-09	-3.810915e+01	-8.300379e+01
1.500000e-07	-5.498928e-06	-1.204195e-09	-3.807033e+01	-8.300001e+01
1.600000e-07	-5.492948e-06	-1.215087e-09	-3.802893e+01	-8.299381e+01
1.700000e-07	-5.486602e-06	-1.197999e-09	-3.798499e+01	-8.298505e+01
1.800000e-07	-5.479830e-06	-1.194649e-09	-3.793811e+01	-8.297356e+01
1.900000e-07	-5.472667e-06	-1.212854e-09	-3.788852e+01	-8.295920e+01
2.000000e-07	-5.465240e-06	-1.228040e-09	-3.783710e+01	-8.294183e+01
2.100000e-07	-5.457549e-06	-1.243905e-09	-3.778385e+01	-8.292131e+01
2.200000e-07	-5.449537e-06	-1.227259e-09	-3.772839e+01	-8.289751e+01
2.300000e-07	-5.441200e-06	-1.232330e-09	-3.767067e+01	-8.287030e+01
2.400000e-07	-5.432465e-06	-1.242311e-09	-3.761019e+01	-8.283956e+01
2.500000e-07	-5.423151e-06	-1.274287e-09	-3.754571e+01	-8.280517e+01
2.600000e-07	-5.413043e-06	-1.274665e-09	-3.747573e+01	-8.276703e+01
2.700000e-07	-5.402298e-06	-1.280184e-09	-3.740134e+01	-8.272504e+01
2.800000e-07	-5.391097e-06	-1.275968e-09	-3.732379e+01	-8.267911e+01
2.900000e-07	-5.379486e-06	-1.290942e-09	-3.724341e+01	-8.262916e+01
3.000000e-07	-5.367583e-06	-1.284214e-09	-3.716100e+01	-8.257512e+01
3.100000e-07	-5.355252e-06	-1.285018e-09	-3.707563e+01	-8.251692e+01
3.200000e-07	-5.342483e-06	-1.282551e-09	-3.698723e+01	-8.245450e+01
3.300000e-07	-5.329320e-06	-1.291858e-09	-3.689610e+01	-8.238783e+01
3.400000e-07	-5.315769e-06	-1.283584e-09	-3.680228e+01	-8.231685e+01
3.500000e-07	-5.301820e-06	-1.271932e-09	-3.670571e+01	-8.224155e+01
3.600000e-07	-5.287295e-06	-1.281516e-09	-3.660515e+01	-8.216189e+01
3.700000e-07	-5.272244e-06	-1.295647e-09	-3.650095e+01	-8.207785e+01
3.800000e-07	-5.256819e-06	-1.285375e-09	-3.639415e+01	-8.198944e+01
3.900000e-07	-5.240971e-06	-1.265977e-09	-3.628443e+01	-8.189663e+01
4.000000e-07	-5.224692e-06	-1.272225e-09	-3.617173e+01	-8.179944e+01
4.100000e-07	-5.207984e-06	-1.266699e-09	-3.605606e+01	-8.169787e+01
4.200000e-07	-5.190980e-06	-1.253913e-09	-3.593833e+01	-8.159193e+01
4.300000e-07	-5.173709e-06	-1.257527e-09	-3.581877e+01	-8.148163e+01
4.400000e-07	-5.156053e-06	-1.264930e-09	-3.569653e+01	-8.136700e+01
4.500000e-07	-5.137971e-06	-1.240172e-09	-3.557134e+01	-8.124805e+01
4.600000e-07	-5.119430e-06	-1.242402e-09	-3.544298e+01	-8.112480e+01
4.700000e-07	-5.100519e-06	-1.252185e-09	-3.531205e+01	-8.099730e+01
4.800000e-07	-5.081294e-06	-1.233595e-09	-3.517895e+01	-8.086555e+01
4.900000e-07	-5.061797e-06	-1.220160e-09	-3.504397e+01	-8.072961e+01
5.000000e-07	-5.042105e-06	-1.248073e-09	-3.490764e+01	-8.058948e+01
5.100000e-07	-5.022184e-06	-1.232986e-09	-3.476973e+01	-8.044521e+01
5.200000e-07	-5.001944e-06	-1.207748e-09	-3.462959e+01	-8.029683e+01
5.300000e-07	-4.981354e-06	-1.226205e-09	-3.448705e+01	-8.014438e+01
5.400000e-07	-4.960387e-06	-1.236028e-09	-3.434189e+01	-7.998788e+01
5.500000e-07	-4.939082e-06	-1.201498e-09	-3.419439e+01	-7.982737e+01
5.600000e-07	-4.917451e-06	-1.211266e-09	-3.404463e+01	-7.966289e+01
5.700000e-07	-4.895463e-06	-1.230439e-09	-3.389240e+01	-7.949448e+01
5.800000e-07	-4.873128e-06	-1.203650e-09	-3.373777e+01	-7.932217e+01
5.900000e-07	-4.850385e-06	-1.193141e-09	-3.358032e+01	-7.914600e+01
6.000000e-07	-4.827274e-06	-1.218079e-09	-3.342032e+01	-7.896600e+01
6.100000e-07	-4.803893e-06	-1.199120e-09	-3.325845e+01	-7.878222e+01
6.200000e-07	-4.780297e-06	-1.176435e-09	-3.309509e+01	-7.859470e+01
6.300000e-07	-4.756518e-06	-1.190886e-09	-3.293046e+01	-7.840348e+01
6.400000e-07	-4.732460e-06	-1.186819e-09	-3.276390e+01	-7.820860e+01
6.500000e-07	-4.707958e-06	-1.167488e-09	-3.259427e+01	-7.801011e+01
6.600000e-07	-4.682907e-06	-1.180797e-09	-3.242083e+01	-7.780804e+01
6.700000e-07	-4.657401e-06	-1.188084e-09	-3.224425e+01	-7.760247e+01
6.800000e-07	-4.631423e-06	-1.171869e-09	-3.206440e+01	-7.739342e+01
6.900000e-07	-4.604952e-06	-1.176514e-09	-3.188113e+01	-7.718095e+01
7.000000e-07	-4.578092e-06	-1.180030e-09	-3.169518e+01	-7.696512e+01
7.100000e-07	-4.550905e-06	-1.160899e-09	-3.150695e+01	-7.674597e+01
7.200000e-07	-4.523479e-06	-1.150694e-09	-3.131708e+01	-7.652358e+01
7.300000e-07	-4.495847e-06	-1.154059e-09	-3.112577e+01	-7.629798e+01
7.400000e-07	-4.467923e-06	-1.142456e-09	-3.093245e+01	-7.606924e+01
7.500000e-07	-4.439718e-06	-1.140795e-09	-3.073718e+01	-7.583742e+01
7.600000e-07	-4.411292e-06	-1.149291e-09	-3.054038e+01	-7.560258e+01
7.700000e-07	-4.382523e-06	-1.148763e-09	-3.034121e+01	-7.536476e+01
7.800000e-07	-4.353417e-06	-1.140630e-09	-3.013970e+01	-7.512404e+01
7.900000e-07	-4.324007e-06	-1.140259e-09	-2.993608e+01	-7.488047e+01
8.000000e-07	-4.294366e-06	-1.129846e-09	-2.973087e+01	-7.463409e+01
8.100000e-07	-4.264449e-06	-1.116856e-09	-2.952375e+01	-7.438496e+01
8.200000e-07	-4.234208e-06	-1.112340e-09	-2.931439e+01	-7.413314e+01
8.300000e-07	-4.203744e-06	-1.112058e-09	-2.910348e+01	-7.387865e+01
8.400000e-07	-4.172937e-06	-1.103880e-09	-2.889019e+01	-7.362154e+01
8.500000e-07	-4.141817e-06	-1.105170e-09	-2.867475e+01	-7.336185e+01
8.600000e-07	-4.110511e-06	-1.108173e-09	-2.845800e+01	-7.309959e+01
8.700000e-07	-4.078954e-06	-1.099501e-09	-2.823952e+01	-7.283479e+01
8.800000e-07	-4.047200e-06	-1.086282e-09	-2.801968e+01	-7.256747e+01
8.900000e-07	-4.015314e-06	-1.081132e-09	-2.779893e+01	-7.229762e+01
9.000000e-07	-3.983138e-06	-1.073251e-09	-2.757617e+01	-7.202524e+01
9.100000e-07	-3.950539e-06	-1.063095e-09	-2.735048e+01	-7.175032e+01
9.200000e-07	-3.917534e-06	-1.062756e-09	-2.712198e+01	-7.147283e+01
9.300000e-07	-3.884105e-06	-1.063016e-09	-2.689054e+01	-7.119273e+01
9.400000e-07	-3.850219e-06	-1.054866e-09	-2.665594e+01	-7.090999e+01
9.500000e-07	-3.815875e-06	-1.052337e-09	-2.641817e+01	-7.062453e+01
9.600000e-07	-3.781168e-06	-1.052565e-09	-2.617789e+01	-7.033630e+01
9.700000e-07	-3.746099e-06	-1.043981e-09	-2.593509e+01	-7.004522e+01
9.800000e-07	-3.710747e-06	-1.037852e-09	-2.569034e+01	-6.975119e+01
9.900000e-07	-3.675245e-06	-1.036949e-09	-2.544456e+01	-6.945411e+01
1.000000e-06	-3.639567e-06	-1.030000e-09	-2.519755e+01	-6.915387e+01
1.010000e-06	-3.603745e-06	-1.019383e-09	-2.494955e+01	-6.885035e+01
1.020000e-06	-3.567837e-06	-1.016825e-09	-2.470095e+01	-6.854341e+01
1.030000e-06	-3.531850e-06	-1.012538e-09	-2.445180e+01	-6.823291e+01
1.040000e-06	-3.495605e-06	-1.004299e-09	-2.420087e+01	-6.791869e+01
1.050000e-06	-3.458987e-06	-9.997950e-10	-2.394735e+01	-6.760061e+01
1.060000e-06	-3.422064e-06	-9.972267e-10	-2.369173e+01	-6.727848e+01
1.070000e-06	-3.384888e-06	-9.856888e-10	-2.343435e+01	-6.695214e+01
1.080000e-06	-3.347514e-06	-9.759102e-10	-2.317560e+01	-6.662141e+01
1.090000e-06	-3.309924e-06	-9.726412e-10	-2.291535e+01	-6.628611e+01
1.100000e-06	-3.272044e-06	-9.681768e-10	-2.265310e+01	-6.594605e+01
1.110000e-06	-3.233928e-06	-9.593604e-10	-2.238922e+01	-6.560104e+01
1.120000e-06	-3.195648e-06	-9.540986e-10	-2.212420e+01	-6.525090e+01
1.130000e-06	-3.157179e-06	-9.454062e-10	-2.185787e+01	-6.489544e+01
1.140000e-06	-3.118452e-06	-9.348361e-10	-2.158975e+01	-6.453447e+01
1.150000e-06	-3.079458e-06	-9.289412e-10	-2.131979e+01	-6.416780e+01
1.160000e-06	-3.040244e-06	-9.256487e-10	-2.104830e+01	-6.379527e+01
1.170000e-06	-3.000874e-06	-9.207099e-10	-2.077574e+01	-6.341670e+01
1.180000e-06	-2.961377e-06	-9.186704e-10	-2.050229e+01	-6.303190e+01
1.190000e-06	-2.921780e-06	-9.161084e-10	-2.022815e+01	-6.264074e+01
1.200000e-06	-2.882026e-06	-9.092924e-10	-1.995293e+01	-6.224304e+01
1.210000e-06	-2.842051e-06	-9.021977e-10	-1.967616e+01	-6.183866e+01
1.220000e-06	-2.801877e-06	-8.944142e-10	-1.939803e+01	-6.142747e+01
1.230000e-06	-2.761569e-06	-8.814340e-10	-1.911897e+01	-6.100932e+01
1.240000e-06	-2.721104e-06	-8.693916e-10	-1.883882e+01	-6.058411e+01
1.250000e-06	-2.680368e-06	-8.636504e-10	-1.855680e+01	-6.015171e+01
1.260000e-06	-2.639350e-06	-8.612285e-10	-1.827282e+01	-5.971202e+01
1.270000e-06	-2.598034e-06	-8.606671e-10	-1.798678e+01	-5.926496e+01
1.280000e-06	-2.556400e-06	-8.602105e-10	-1.769854e+01	-5.881042e+01
1.290000e-06	-2.514401e-06	-8.541415e-10	-1.740777e+01	-5.834832e+01
1.300000e-06	-2.472072e-06	-8.407119e-10	-1.711472e+01	-5.787860e+01
1.310000e-06	-2.429531e-06	-8.286629e-10	-1.682020e+01	-5.740118e+01
1.320000e-06	-2.386818e-06	-8.178583e-10	-1.652449e+01	-5.691600e+01
1.330000e-06	-2.343880e-06	-8.103719e-10	-1.622722e+01	-5.642298e+01
1.340000e-06	-2.300704e-06	-8.082063e-10	-1.592830e+01	-5.592208e+01
1.350000e-06	-2.257361e-06	-8.072435e-10	-1.562822e+01	-5.541323e+01
1.360000e-06	-2.213895e-06	-8.017798e-10	-1.532730e+01	-5.489636e+01
1.370000e-06	-2.170355e-06	-7.908919e-10	-1.502586e+01	-5.437140e+01
1.380000e-06	-2.126765e-06	-7.777714e-10	-1.472408e+01	-5.383828e+01
1.390000e-06	-2.083081e-06	-7.662370e-10	-1.442164e+01	-5.329693e+01
1.400000e-06	-2.039273e-06	-7.555630e-10	-1.411835e+01	-5.274725e+01
1.410000e-06	-1.995395e-06	-7.471047e-10	-1.381457e+01	-5.218913e+01
1.420000e-06	-1.951431e-06	-7.391467e-10	-1.351020e+01	-5.162247e+01
1.430000e-06	-1.907367e-06	-7.320281e-10	-1.320514e+01	-5.104713e+01
1.440000e-06	-1.863248e-06	-7.227212e-10	-1.289969e+01	-5.046297e+01
1.450000e-06	-1.819009e-06	-7.115285e-10	-1.259341e+01	-4.986983e+01
1.460000e-06	-1.774598e-06	-6.995564e-10	-1.228595e+01	-4.926753e+01
1.470000e-06	-1.730022e-06	-6.880881e-10	-1.197734e+01	-4.865585e+01
1.480000e-06	-1.685226e-06	-6.784156e-10	-1.166720e+01	-4.803458e+01
1.490000e-06	-1.640251e-06	-6.677685e-10	-1.135583e+01	-4.740347e+01
1.500000e-06	-1.595190e-06	-6.569789e-10	-1.104386e+01	-4.676226e+01
1.510000e-06	-1.549999e-06	-6.478613e-10	-1.073099e+01	-4.611064e+01
1.520000e-06	-1.504687e-06	-6.366907e-10	-1.041729e+01	-4.544830e+01
1.530000e-06	-1.459273e-06	-6.213610e-10	-1.010288e+01	-4.477491e+01
1.540000e-06	-1.413721e-06	-6.031943e-10	-9.787512e+00	-4.409009e+01
1.550000e-06	-1.368087e-06	-5.884113e-10	-9.471578e+00	-4.339348e+01
1.560000e-06	-1.322394e-06	-5.742370e-10	-9.155238e+00	-4.268466e+01
1.570000e-06	-1.276579e-06	-5.619376e-10	-8.838047e+00	-4.196321e+01
1.580000e-06	-1.230690e-06	-5.551428e-10	-8.520350e+00	-4.122870e+01
1.590000e-06	-1.184773e-06	-5.493568e-10	-8.202455e+00	-4.048066e+01
1.600000e-06	-1.138787e-06	-5.411362e-10	-7.884080e+00	-3.971863e+01
1.610000e-06	-1.092699e-06	-5.285571e-10	-7.565006e+00	-3.894214e+01
1.620000e-06	-1.046493e-06	-5.136017e-10	-7.245109e+00	-3.815069e+01
1.630000e-06	-1.000267e-06	-4.973955e-10	-6.925075e+00	-3.734381e+01
1.640000e-06	-9.539185e-07	-4.809419e-10	-6.604195e+00	-3.652101e+01
1.650000e-06	-9.073805e-07	-4.649498e-10	-6.282002e+00	-3.568180e+01
1.660000e-06	-8.607966e-07	-4.527646e-10	-5.959491e+00	-3.482571e+01
1.670000e-06	-8.142208e-07	-4.435906e-10	-5.637036e+00	-3.395227e+01
1.680000e-06	-7.677017e-07	-4.346732e-10	-5.314974e+00	-3.306105e+01
1.690000e-06	-7.212039e-07	-4.218886e-10	-4.993059e+00	-3.215161e+01
1.700000e-06	-6.745691e-07	-4.082261e-10	-4.670196e+00	-3.122356e+01
1.710000e-06	-6.278014e-07	-3.909196e-10	-4.346412e+00	-3.027653e+01
1.720000e-06	-5.809933e-07	-3.705592e-10	-4.022349e+00	-2.931018e+01
1.730000e-06	-5.341423e-07	-3.504974e-10	-3.697989e+00	-2.832422e+01
1.740000e-06	-4.873023e-07	-3.338379e-10	-3.373705e+00	-2.731840e+01
1.750000e-06	-4.404260e-07	-3.219382e-10	-3.049170e+00	-2.629251e+01
1.760000e-06	-3.934926e-07	-3.131413e-10	-2.724239e+00	-2.524640e+01
1.770000e-06	-3.465737e-07	-3.039530e-10	-2.399409e+00	-2.417998e+01
1.780000e-06	-2.996467e-07	-2.928452e-10	-2.074522e+00	-2.309320e+01
1.790000e-06	-2.526787e-07	-2.772789e-10	-1.749352e+00	-2.198610e+01
1.800000e-06	-2.057290e-07	-2.568641e-10	-1.424309e+00	-2.085876e+01
1.810000e-06	-1.587513e-07	-2.344472e-10	-1.099071e+00	-1.971134e+01
1.820000e-06	-1.116877e-07	-2.121214e-10	-7.732392e-01	-1.854408e+01
1.830000e-06	-6.461061e-08	-1.940536e-10	-4.473139e-01	-1.735727e+01
1.840000e-06	-1.756149e-08	-1.803890e-10	-1.215822e-01	-1.615129e+01
1.850000e-06	2.944447e-08	-1.686828e-10	2.038508e-01	-1.492659e+01
1.860000e-06	7.640892e-08	-1.574077e-10	5.289963e-01	-1.368370e+01
1.870000e-06	1.233551e-07	-1.427215e-10	8.540154e-01	-1.242322e+01
1.880000e-06	1.703381e-07	-1.237651e-10	1.179289e+00	-1.114582e+01
1.890000e-06	2.173328e-07	-1.007806e-10	1.504645e+00	-9.852250e+00
1.900000e-06	2.643366e-07	-7.648615e-11	1.830062e+00	-8.543329e+00
1.910000e-06	3.113776e-07	-5.681337e-11	2.155738e+00	-7.219945e+00
1.920000e-06	3.584086e-07	-3.969998e-11	2.481345e+00	-5.883055e+00
1.930000e-06	4.053862e-07	-2.583501e-11	2.806581e+00	-4.533677e+00
1.940000e-06	4.522765e-07	-1.387596e-11	3.131213e+00	-3.172889e+00
1.950000e-06	4.991188e-07	1.072773e-12	3.455513e+00	-1.801825e+00
1.960000e-06	5.459246e-07	2.000651e-11	3.779560e+00	-4.216722e-01
1.970000e-06	5.926159e-07	4.163556e-11	4.102815e+00	9.663386e-01
1.980000e-06	6.391864e-07	6.353635e-11	4.425233e+00	2.360934e+00
1.990000e-06	6.857211e-07	8.268653e-11	4.747403e+00	3.760806e+00
2.000000e-06	7.322404e-07	1.018439e-10	5.069467e+00	5.164617e+00
2.010000e-06	7.788034e-07	1.204833e-10	5.391833e+00	6.571004e+00
2.020000e-06	8.253649e-07	1.399901e-10	5.714189e+00	7.978591e+00
2.030000e-06	8.717655e-07	1.608646e-10	6.035431e+00	9.385987e+00
2.040000e-06	9.180251e-07	1.832106e-10	6.355697e+00	1.079180e+01
2.050000e-06	9.641915e-07	2.026076e-10	6.675318e+00	1.219464e+01
2.060000e-06	1.010331e-06	2.186606e-10	6.994750e+00	1.359313e+01
2.070000e-06	1.056395e-06	2.349219e-10	7.313662e+00	1.498589e+01
2.080000e-06	1.102369e-06	2.529706e-10	7.631953e+00	1.637159e+01
2.090000e-06	1.148293e-06	2.712117e-10	7.949893e+00	1.774892e+01
2.100000e-06	1.194110e-06	2.891181e-10	8.267093e+00	1.911659e+01
2.110000e-06	1.239851e-06	3.094753e-10	8.583774e+00	2.047336e+01
2.120000e-06	1.285541e-06	3.315312e-10	8.900095e+00	2.181804e+01
2.130000e-06	1.331134e-06	3.515347e-10	9.215744e+00	2.314950e+01
2.140000e-06	1.376642e-06	3.681535e-10	9.530807e+00	2.446663e+01
2.150000e-06	1.422071e-06	3.860580e-10	9.845324e+00	2.576843e+01
2.160000e-06	1.467359e-06	4.060074e-10	1.015886e+01	2.705393e+01
2.170000e-06	1.512609e-06	4.226346e-10	1.047213e+01	2.832224e+01
2.180000e-06	1.557808e-06	4.359529e-10	1.078506e+01	2.957254e+01
2.190000e-06	1.602843e-06	4.513110e-10	1.109684e+01	3.080408e+01
2.200000e-06	1.647739e-06	4.680967e-10	1.140768e+01	3.201619e+01
2.210000e-06	1.692533e-06	4.862658e-10	1.171779e+01	3.320828e+01
2.220000e-06	1.737138e-06	5.051809e-10	1.202660e+01	3.437983e+01
2.230000e-06	1.781536e-06	5.230304e-10	1.233398e+01	3.553041e+01
2.240000e-06	1.825826e-06	5.386057e-10	1.264061e+01	3.665965e+01
2.250000e-06	1.870049e-06	5.511123e-10	1.294678e+01	3.776728e+01
2.260000e-06	1.914191e-06	5.613982e-10	1.325238e+01	3.885309e+01
2.270000e-06	1.958218e-06	5.720827e-10	1.355719e+01	3.991695e+01
2.280000e-06	2.002100e-06	5.845324e-10	1.386100e+01	4.095880e+01
2.290000e-06	2.045852e-06	5.995260e-10	1.416390e+01	4.197866e+01
2.300000e-06	2.089527e-06	6.146474e-10	1.446627e+01	4.297659e+01
2.310000e-06	2.133132e-06	6.310795e-10	1.476816e+01	4.395274e+01
2.320000e-06	2.176664e-06	6.461838e-10	1.506954e+01	4.490732e+01
2.330000e-06	2.220169e-06	6.578912e-10	1.537073e+01	4.584056e+01
2.340000e-06	2.263669e-06	6.660697e-10	1.567189e+01	4.675279e+01
2.350000e-06	2.307042e-06	6.743985e-10	1.597218e+01	4.764434e+01
2.360000e-06	2.350246e-06	6.839294e-10	1.627129e+01	4.851561e+01
2.370000e-06	2.393288e-06	6.952275e-10	1.656928e+01	4.936702e+01
2.380000e-06	2.436054e-06	7.085865e-10	1.686536e+01	5.019904e+01
2.390000e-06	2.478554e-06	7.216020e-10	1.715959e+01	5.101214e+01
2.400000e-06	2.520765e-06	7.355142e-10	1.745183e+01	5.180683e+01
2.410000e-06	2.562621e-06	7.487160e-10	1.774161e+01	5.258363e+01
2.420000e-06	2.604114e-06	7.600603e-10	1.802887e+01	5.334306e+01
2.430000e-06	2.645241e-06	7.715561e-10	1.831361e+01	5.408567e+01
2.440000e-06	2.686101e-06	7.832563e-10	1.859649e+01	5.481197e+01
2.450000e-06	2.726767e-06	7.954518e-10	1.887803e+01	5.552252e+01
2.460000e-06	2.767149e-06	8.070014e-10	1.915761e+01	5.621782e+01
2.470000e-06	2.807241e-06	8.159610e-10	1.943517e+01	5.689839e+01
2.480000e-06	2.847143e-06	8.238895e-10	1.971142e+01	5.756473e+01
2.490000e-06	2.886889e-06	8.318805e-10	1.998659e+01	5.821732e+01
2.500000e-06	2.926528e-06	8.404417e-10	2.026102e+01	5.885661e+01
2.510000e-06	2.966054e-06	8.486112e-10	2.053467e+01	5.948303e+01
2.520000e-06	3.005478e-06	8.582541e-10	2.080761e+01	6.009699e+01
2.530000e-06	3.044787e-06	8.681983e-10	2.107975e+01	6.069886e+01
2.540000e-06	3.083883e-06	8.773388e-10	2.135043e+01	6.128900e+01
2.550000e-06	3.122731e-06	8.861599e-10	2.161938e+01	6.186771e+01
2.560000e-06	3.161397e-06	8.950569e-10	2.188707e+01	6.243530e+01
2.570000e-06	3.199829e-06	9.019319e-10	2.215315e+01	6.299200e+01
2.580000e-06	3.237991e-06	9.062914e-10	2.241735e+01	6.353806e+01
2.590000e-06	3.275962e-06	9.112351e-10	2.268023e+01	6.407365e+01
2.600000e-06	3.313704e-06	9.193795e-10	2.294152e+01	6.459896e+01
2.610000e-06	3.351235e-06	9.297112e-10	2.320136e+01	6.511410e+01
2.620000e-06	3.388579e-06	9.399637e-10	2.345990e+01	6.561920e+01
2.630000e-06	3.425745e-06	9.481154e-10	2.371721e+01	6.611435e+01
2.640000e-06	3.462705e-06	9.537202e-10	2.397309e+01	6.659959e+01
2.650000e-06	3.499262e-06	9.578829e-10	2.422619e+01	6.707498e+01
2.660000e-06	3.535476e-06	9.625234e-10	2.447691e+01	6.754053e+01
2.670000e-06	3.571543e-06	9.682308e-10	2.472661e+01	6.799627e+01
2.680000e-06	3.607431e-06	9.747731e-10	2.497507e+01	6.844219e+01
2.690000e-06	3.643151e-06	9.816927e-10	2.522237e+01	6.887827e+01
2.700000e-06	3.678772e-06	9.882915e-10	2.546897e+01	6.930449e+01
2.710000e-06	3.714224e-06	9.949551e-10	2.571442e+01	6.972084e+01
2.720000e-06	3.749494e-06	1.002787e-09	2.595860e+01	7.012728e+01
2.730000e-06	3.784533e-06	1.011840e-09	2.620118e+01	7.052379e+01
2.740000e-06	3.819257e-06	1.020432e-09	2.644159e+01	7.091036e+01
2.750000e-06	3.853589e-06	1.027668e-09	2.667927e+01	7.128696e+01
2.760000e-06	3.887459e-06	1.033630e-09	2.691376e+01	7.165360e+01
2.770000e-06	3.920837e-06	1.038397e-09	2.714485e+01	7.201029e+01
2.780000e-06	3.953686e-06	1.040965e-09	2.737227e+01	7.235703e+01
2.790000e-06	3.986086e-06	1.043736e-09	2.759658e+01	7.269387e+01
2.800000e-06	4.018128e-06	1.048628e-09	2.781841e+01	7.302086e+01
2.810000e-06	4.049971e-06	1.054891e-09	2.803887e+01	7.333807e+01
2.820000e-06	4.081685e-06	1.062045e-09	2.825844e+01	7.364558e+01
2.830000e-06	4.113177e-06	1.069224e-09	2.847646e+01	7.394350e+01
2.840000e-06	4.144481e-06	1.074254e-09	2.869319e+01	7.423195e+01
2.850000e-06	4.175638e-06	1.078929e-09	2.890889e+01	7.451109e+01
2.860000e-06	4.206533e-06	1.083959e-09	2.912279e+01	7.478108e+01
2.870000e-06	4.237037e-06	1.087511e-09	2.933397e+01	7.504210e+01
2.880000e-06	4.267171e-06	1.090886e-09	2.954260e+01	7.529435e+01
2.890000e-06	4.297004e-06	1.094771e-09	2.974914e+01	7.553807e+01
2.900000e-06	4.326576e-06	1.099186e-09	2.995387e+01	7.577349e+01
