# Temperatura_=_-0.2
# Concentracion g/m^3_=_1620.0
# C_Vs_to_Am_M_A/Vsm_=_65563218390.804596
# pendiente_HvsI_1/m_=_3716.3
# ordenada_HvsI_A/m_=_1297.0
# frecuencia_Hz_=_135107.97895083882

Tiempo_(s)	Campo_(V.s)	Magnetizacion_(V.s)	Campo_(kA/m)	Magnetizacion_(A/m)
0.000000e+00	-5.515808e-06	-1.090723e-09	-3.837334e+01	-7.015018e+01
1.000000e-08	-5.515875e-06	-1.092291e-09	-3.837380e+01	-7.015183e+01
2.000000e-08	-5.515703e-06	-1.097900e-09	-3.837261e+01	-7.015667e+01
3.000000e-08	-5.515143e-06	-1.103350e-09	-3.836871e+01	-7.016466e+01
4.000000e-08	-5.514077e-06	-1.108167e-09	-3.836129e+01	-7.017575e+01
5.000000e-08	-5.512390e-06	-1.117515e-09	-3.834956e+01	-7.018984e+01
6.000000e-08	-5.510099e-06	-1.109402e-09	-3.833362e+01	-7.020679e+01
7.000000e-08	-5.507303e-06	-1.057096e-09	-3.831416e+01	-7.022643e+01
8.000000e-08	-5.504030e-06	-1.038208e-09	-3.829140e+01	-7.024854e+01
9.000000e-08	-5.500305e-06	-1.118027e-09	-3.826549e+01	-7.027288e+01
1.000000e-07	-5.496126e-06	-1.150760e-09	-3.823641e+01	-7.029918e+01
1.100000e-07	-5.491671e-06	-1.071521e-09	-3.820541e+01	-7.032714e+01
1.200000e-07	-5.487007e-06	-1.024036e-09	-3.817297e+01	-7.035643e+01
1.300000e-07	-5.481976e-06	-1.115186e-09	-3.813797e+01	-7.038671e+01
1.400000e-07	-5.476495e-06	-1.151538e-09	-3.809984e+01	-7.041762e+01
1.500000e-07	-5.470655e-06	-1.064539e-09	-3.805921e+01	-7.044877e+01
1.600000e-07	-5.464595e-06	-1.007627e-09	-3.801705e+01	-7.047976e+01
1.700000e-07	-5.458149e-06	-1.096025e-09	-3.797220e+01	-7.051021e+01
1.800000e-07	-5.451178e-06	-1.157592e-09	-3.792371e+01	-7.053971e+01
1.900000e-07	-5.443863e-06	-1.094884e-09	-3.787281e+01	-7.056784e+01
2.000000e-07	-5.436337e-06	-1.063210e-09	-3.782046e+01	-7.059421e+01
2.100000e-07	-5.428462e-06	-1.106139e-09	-3.776567e+01	-7.061842e+01
2.200000e-07	-5.420201e-06	-1.161394e-09	-3.770820e+01	-7.064008e+01
2.300000e-07	-5.411675e-06	-1.122944e-09	-3.764888e+01	-7.065881e+01
2.400000e-07	-5.402770e-06	-1.105878e-09	-3.758693e+01	-7.067424e+01
2.500000e-07	-5.393122e-06	-1.124385e-09	-3.751982e+01	-7.068603e+01
2.600000e-07	-5.382765e-06	-1.150380e-09	-3.744776e+01	-7.069386e+01
2.700000e-07	-5.371986e-06	-1.111768e-09	-3.737277e+01	-7.069741e+01
2.800000e-07	-5.360698e-06	-1.100540e-09	-3.729424e+01	-7.069640e+01
2.900000e-07	-5.348911e-06	-1.120961e-09	-3.721224e+01	-7.069058e+01
3.000000e-07	-5.336806e-06	-1.144106e-09	-3.712803e+01	-7.067972e+01
3.100000e-07	-5.324396e-06	-1.120106e-09	-3.704169e+01	-7.066360e+01
3.200000e-07	-5.311534e-06	-1.097090e-09	-3.695220e+01	-7.064206e+01
3.300000e-07	-5.298229e-06	-1.115900e-09	-3.685965e+01	-7.061495e+01
3.400000e-07	-5.284613e-06	-1.131596e-09	-3.676492e+01	-7.058215e+01
3.500000e-07	-5.270585e-06	-1.092894e-09	-3.666732e+01	-7.054357e+01
3.600000e-07	-5.256047e-06	-1.082344e-09	-3.656618e+01	-7.049914e+01
3.700000e-07	-5.241051e-06	-1.142259e-09	-3.646186e+01	-7.044883e+01
3.800000e-07	-5.225508e-06	-1.127755e-09	-3.635372e+01	-7.039263e+01
3.900000e-07	-5.209296e-06	-1.064465e-09	-3.624094e+01	-7.033056e+01
4.000000e-07	-5.192730e-06	-1.105851e-09	-3.612569e+01	-7.026266e+01
4.100000e-07	-5.175973e-06	-1.155293e-09	-3.600911e+01	-7.018900e+01
4.200000e-07	-5.158762e-06	-1.064675e-09	-3.588937e+01	-7.010964e+01
4.300000e-07	-5.141175e-06	-1.053737e-09	-3.576703e+01	-7.002471e+01
4.400000e-07	-5.123410e-06	-1.157800e-09	-3.564343e+01	-6.993430e+01
4.500000e-07	-5.105249e-06	-1.129035e-09	-3.551709e+01	-6.983858e+01
4.600000e-07	-5.086523e-06	-1.030053e-09	-3.538681e+01	-6.973767e+01
4.700000e-07	-5.067474e-06	-1.111057e-09	-3.525429e+01	-6.963173e+01
4.800000e-07	-5.048205e-06	-1.145072e-09	-3.512024e+01	-6.952095e+01
4.900000e-07	-5.028615e-06	-1.040341e-09	-3.498395e+01	-6.940548e+01
5.000000e-07	-5.008805e-06	-1.055711e-09	-3.484613e+01	-6.928552e+01
5.100000e-07	-4.988841e-06	-1.145870e-09	-3.470724e+01	-6.916124e+01
5.200000e-07	-4.968553e-06	-1.059509e-09	-3.456610e+01	-6.903283e+01
5.300000e-07	-4.947777e-06	-1.027739e-09	-3.442156e+01	-6.890047e+01
5.400000e-07	-4.926621e-06	-1.131126e-09	-3.427438e+01	-6.876435e+01
5.500000e-07	-4.905182e-06	-1.101729e-09	-3.412523e+01	-6.862464e+01
5.600000e-07	-4.883364e-06	-1.006898e-09	-3.397344e+01	-6.848152e+01
5.700000e-07	-4.861250e-06	-1.079940e-09	-3.381959e+01	-6.833515e+01
5.800000e-07	-4.838902e-06	-1.104026e-09	-3.366412e+01	-6.818571e+01
5.900000e-07	-4.816158e-06	-1.012636e-09	-3.350589e+01	-6.803333e+01
6.000000e-07	-4.793069e-06	-1.035229e-09	-3.334526e+01	-6.787816e+01
6.100000e-07	-4.769680e-06	-1.094866e-09	-3.318255e+01	-6.772035e+01
6.200000e-07	-4.746000e-06	-1.028267e-09	-3.301780e+01	-6.756002e+01
6.300000e-07	-4.722145e-06	-1.010899e-09	-3.285185e+01	-6.739728e+01
6.400000e-07	-4.698032e-06	-1.069960e-09	-3.268409e+01	-6.723224e+01
6.500000e-07	-4.673498e-06	-1.039913e-09	-3.251341e+01	-6.706500e+01
6.600000e-07	-4.648523e-06	-1.004293e-09	-3.233965e+01	-6.689565e+01
6.700000e-07	-4.623047e-06	-1.044949e-09	-3.216242e+01	-6.672426e+01
6.800000e-07	-4.596967e-06	-1.039843e-09	-3.198098e+01	-6.655091e+01
6.900000e-07	-4.570335e-06	-9.978182e-10	-3.179570e+01	-6.637565e+01
7.000000e-07	-4.543302e-06	-1.021173e-09	-3.160764e+01	-6.619854e+01
7.100000e-07	-4.515962e-06	-1.031136e-09	-3.141743e+01	-6.601963e+01
7.200000e-07	-4.488397e-06	-1.000997e-09	-3.122566e+01	-6.583894e+01
7.300000e-07	-4.460702e-06	-1.005216e-09	-3.103299e+01	-6.565652e+01
7.400000e-07	-4.432813e-06	-1.025067e-09	-3.083896e+01	-6.547239e+01
7.500000e-07	-4.404642e-06	-1.003018e-09	-3.064298e+01	-6.528656e+01
7.600000e-07	-4.376173e-06	-9.991454e-10	-3.044492e+01	-6.509906e+01
7.700000e-07	-4.347431e-06	-1.009748e-09	-3.024497e+01	-6.490989e+01
7.800000e-07	-4.318387e-06	-9.942997e-10	-3.004291e+01	-6.471906e+01
7.900000e-07	-4.289009e-06	-9.803705e-10	-2.983853e+01	-6.452658e+01
8.000000e-07	-4.259298e-06	-9.966924e-10	-2.963183e+01	-6.433243e+01
8.100000e-07	-4.229252e-06	-9.898468e-10	-2.942280e+01	-6.413663e+01
8.200000e-07	-4.198876e-06	-9.784792e-10	-2.921148e+01	-6.393915e+01
8.300000e-07	-4.168228e-06	-9.900285e-10	-2.899826e+01	-6.373999e+01
8.400000e-07	-4.137325e-06	-9.942245e-10	-2.878327e+01	-6.353913e+01
8.500000e-07	-4.106131e-06	-9.746099e-10	-2.856625e+01	-6.333656e+01
8.600000e-07	-4.074747e-06	-9.749580e-10	-2.834791e+01	-6.313225e+01
8.700000e-07	-4.043221e-06	-9.785831e-10	-2.812858e+01	-6.292618e+01
8.800000e-07	-4.011535e-06	-9.617714e-10	-2.790815e+01	-6.271832e+01
8.900000e-07	-3.979692e-06	-9.530619e-10	-2.768662e+01	-6.250862e+01
9.000000e-07	-3.947559e-06	-9.597206e-10	-2.746307e+01	-6.229706e+01
9.100000e-07	-3.915086e-06	-9.479736e-10	-2.723716e+01	-6.208358e+01
9.200000e-07	-3.882196e-06	-9.368362e-10	-2.700834e+01	-6.186812e+01
9.300000e-07	-3.848822e-06	-9.459851e-10	-2.677615e+01	-6.165063e+01
9.400000e-07	-3.815108e-06	-9.455005e-10	-2.654161e+01	-6.143105e+01
9.500000e-07	-3.780975e-06	-9.330721e-10	-2.630414e+01	-6.120928e+01
9.600000e-07	-3.746331e-06	-9.329087e-10	-2.606313e+01	-6.098526e+01
9.700000e-07	-3.711282e-06	-9.325435e-10	-2.581930e+01	-6.075888e+01
9.800000e-07	-3.675923e-06	-9.156832e-10	-2.557330e+01	-6.053003e+01
9.900000e-07	-3.640348e-06	-9.088965e-10	-2.532581e+01	-6.029862e+01
1.000000e-06	-3.604645e-06	-9.098525e-10	-2.507742e+01	-6.006450e+01
1.010000e-06	-3.568830e-06	-9.013347e-10	-2.482826e+01	-5.982756e+01
1.020000e-06	-3.532847e-06	-8.948014e-10	-2.457793e+01	-5.958764e+01
1.030000e-06	-3.496678e-06	-9.015372e-10	-2.432630e+01	-5.934460e+01
1.040000e-06	-3.460317e-06	-8.974033e-10	-2.407334e+01	-5.909827e+01
1.050000e-06	-3.423640e-06	-8.854705e-10	-2.381818e+01	-5.884847e+01
1.060000e-06	-3.386631e-06	-8.805267e-10	-2.356070e+01	-5.859503e+01
1.070000e-06	-3.349443e-06	-8.780467e-10	-2.330199e+01	-5.833775e+01
1.080000e-06	-3.312122e-06	-8.669348e-10	-2.304235e+01	-5.807645e+01
1.090000e-06	-3.274539e-06	-8.633041e-10	-2.278088e+01	-5.781092e+01
1.100000e-06	-3.236683e-06	-8.609964e-10	-2.251752e+01	-5.754094e+01
1.110000e-06	-3.198636e-06	-8.518506e-10	-2.225283e+01	-5.726631e+01
1.120000e-06	-3.160382e-06	-8.432113e-10	-2.198670e+01	-5.698681e+01
1.130000e-06	-3.121854e-06	-8.434124e-10	-2.171866e+01	-5.670223e+01
1.140000e-06	-3.083062e-06	-8.393710e-10	-2.144879e+01	-5.641234e+01
1.150000e-06	-3.044076e-06	-8.318756e-10	-2.117756e+01	-5.611693e+01
1.160000e-06	-3.004868e-06	-8.277808e-10	-2.090479e+01	-5.581578e+01
1.170000e-06	-2.965483e-06	-8.224681e-10	-2.063079e+01	-5.550869e+01
1.180000e-06	-2.926007e-06	-8.114508e-10	-2.035616e+01	-5.519544e+01
1.190000e-06	-2.886455e-06	-8.042477e-10	-2.008100e+01	-5.487585e+01
1.200000e-06	-2.846773e-06	-8.012402e-10	-1.980493e+01	-5.454972e+01
1.210000e-06	-2.806927e-06	-7.969821e-10	-1.952772e+01	-5.421687e+01
1.220000e-06	-2.766902e-06	-7.920205e-10	-1.924927e+01	-5.387714e+01
1.230000e-06	-2.726755e-06	-7.868389e-10	-1.896997e+01	-5.353036e+01
1.240000e-06	-2.686496e-06	-7.795389e-10	-1.868989e+01	-5.317639e+01
1.250000e-06	-2.646014e-06	-7.715839e-10	-1.840825e+01	-5.281510e+01
1.260000e-06	-2.605313e-06	-7.694387e-10	-1.812510e+01	-5.244638e+01
1.270000e-06	-2.564399e-06	-7.681803e-10	-1.784046e+01	-5.207012e+01
1.280000e-06	-2.523082e-06	-7.623133e-10	-1.755302e+01	-5.168623e+01
1.290000e-06	-2.481379e-06	-7.528762e-10	-1.726289e+01	-5.129465e+01
1.300000e-06	-2.439425e-06	-7.438117e-10	-1.697102e+01	-5.089532e+01
1.310000e-06	-2.397201e-06	-7.353630e-10	-1.667727e+01	-5.048819e+01
1.320000e-06	-2.354652e-06	-7.281193e-10	-1.638125e+01	-5.007323e+01
1.330000e-06	-2.311767e-06	-7.244218e-10	-1.608291e+01	-4.965043e+01
1.340000e-06	-2.268555e-06	-7.238862e-10	-1.578228e+01	-4.921979e+01
1.350000e-06	-2.225206e-06	-7.198760e-10	-1.548070e+01	-4.878130e+01
1.360000e-06	-2.181813e-06	-7.147828e-10	-1.517882e+01	-4.833498e+01
1.370000e-06	-2.138295e-06	-7.093450e-10	-1.487607e+01	-4.788085e+01
1.380000e-06	-2.094680e-06	-7.027591e-10	-1.457263e+01	-4.741893e+01
1.390000e-06	-2.050977e-06	-6.936012e-10	-1.426860e+01	-4.694925e+01
1.400000e-06	-2.007209e-06	-6.852473e-10	-1.396410e+01	-4.647184e+01
1.410000e-06	-1.963348e-06	-6.772362e-10	-1.365896e+01	-4.598671e+01
1.420000e-06	-1.919454e-06	-6.707259e-10	-1.335359e+01	-4.549388e+01
1.430000e-06	-1.875488e-06	-6.659853e-10	-1.304772e+01	-4.499337e+01
1.440000e-06	-1.831397e-06	-6.614346e-10	-1.274098e+01	-4.448516e+01
1.450000e-06	-1.787188e-06	-6.533814e-10	-1.243342e+01	-4.396926e+01
1.460000e-06	-1.742835e-06	-6.441119e-10	-1.212486e+01	-4.344562e+01
1.470000e-06	-1.698307e-06	-6.323164e-10	-1.181508e+01	-4.291421e+01
1.480000e-06	-1.653610e-06	-6.169536e-10	-1.150412e+01	-4.237494e+01
1.490000e-06	-1.608851e-06	-6.038633e-10	-1.119273e+01	-4.182773e+01
1.500000e-06	-1.563981e-06	-5.952273e-10	-1.088057e+01	-4.127245e+01
1.510000e-06	-1.518947e-06	-5.852625e-10	-1.056728e+01	-4.070897e+01
1.520000e-06	-1.473789e-06	-5.741900e-10	-1.025311e+01	-4.013711e+01
1.530000e-06	-1.428485e-06	-5.635823e-10	-9.937936e+00	-3.955666e+01
1.540000e-06	-1.383110e-06	-5.543048e-10	-9.622261e+00	-3.896738e+01
1.550000e-06	-1.337734e-06	-5.457332e-10	-9.306579e+00	-3.836902e+01
1.560000e-06	-1.292237e-06	-5.360536e-10	-8.990059e+00	-3.776127e+01
1.570000e-06	-1.246580e-06	-5.265960e-10	-8.672425e+00	-3.714380e+01
1.580000e-06	-1.200842e-06	-5.158890e-10	-8.354225e+00	-3.651625e+01
1.590000e-06	-1.155059e-06	-5.042032e-10	-8.035715e+00	-3.587822e+01
1.600000e-06	-1.109235e-06	-4.937036e-10	-7.716918e+00	-3.522929e+01
1.610000e-06	-1.063322e-06	-4.813042e-10	-7.397503e+00	-3.456901e+01
1.620000e-06	-1.017349e-06	-4.672128e-10	-7.077672e+00	-3.389690e+01
1.630000e-06	-9.713411e-07	-4.546849e-10	-6.757595e+00	-3.321248e+01
1.640000e-06	-9.252102e-07	-4.415807e-10	-6.436664e+00	-3.251521e+01
1.650000e-06	-8.789249e-07	-4.301735e-10	-6.114658e+00	-3.180459e+01
1.660000e-06	-8.325591e-07	-4.189769e-10	-5.792093e+00	-3.108004e+01
1.670000e-06	-7.861587e-07	-4.086149e-10	-5.469286e+00	-3.034104e+01
1.680000e-06	-7.397579e-07	-3.961378e-10	-5.146477e+00	-2.958703e+01
1.690000e-06	-6.933466e-07	-3.833332e-10	-4.823595e+00	-2.881745e+01
1.700000e-06	-6.468800e-07	-3.703342e-10	-4.500328e+00	-2.803177e+01
1.710000e-06	-6.004173e-07	-3.567902e-10	-4.177088e+00	-2.722945e+01
1.720000e-06	-5.539456e-07	-3.438982e-10	-3.853785e+00	-2.640999e+01
1.730000e-06	-5.073879e-07	-3.331332e-10	-3.529885e+00	-2.557290e+01
1.740000e-06	-4.607614e-07	-3.223590e-10	-3.205505e+00	-2.471772e+01
1.750000e-06	-4.141783e-07	-3.106291e-10	-2.881428e+00	-2.384404e+01
1.760000e-06	-3.675831e-07	-2.978933e-10	-2.557266e+00	-2.295148e+01
1.770000e-06	-3.207881e-07	-2.854721e-10	-2.231715e+00	-2.203971e+01
1.780000e-06	-2.739157e-07	-2.738927e-10	-1.905625e+00	-2.110845e+01
1.790000e-06	-2.270892e-07	-2.591661e-10	-1.579854e+00	-2.015750e+01
1.800000e-06	-1.803168e-07	-2.412580e-10	-1.254460e+00	-1.918669e+01
1.810000e-06	-1.335364e-07	-2.226255e-10	-9.290094e-01	-1.819594e+01
1.820000e-06	-8.661065e-08	-2.066437e-10	-6.025481e-01	-1.718524e+01
1.830000e-06	-3.968001e-08	-1.935088e-10	-2.760528e-01	-1.615466e+01
1.840000e-06	7.162208e-09	-1.809684e-10	4.982730e-02	-1.510434e+01
1.850000e-06	5.394780e-08	-1.699298e-10	3.753135e-01	-1.403451e+01
1.860000e-06	1.006942e-07	-1.574466e-10	7.005270e-01	-1.294548e+01
1.870000e-06	1.474214e-07	-1.414633e-10	1.025607e+00	-1.183767e+01
1.880000e-06	1.942059e-07	-1.234048e-10	1.351086e+00	-1.071155e+01
1.890000e-06	2.409787e-07	-1.042742e-10	1.676483e+00	-9.567715e+00
1.900000e-06	2.877074e-07	-8.718815e-11	2.001573e+00	-8.406829e+00
1.910000e-06	3.344107e-07	-7.177832e-11	2.326487e+00	-7.229649e+00
1.920000e-06	3.810433e-07	-5.911604e-11	2.650909e+00	-6.037019e+00
1.930000e-06	4.276276e-07	-4.604148e-11	2.974994e+00	-4.829868e+00
1.940000e-06	4.741563e-07	-3.257828e-11	3.298693e+00	-3.609206e+00
1.950000e-06	5.206618e-07	-1.839279e-11	3.622231e+00	-2.376119e+00
1.960000e-06	5.671461e-07	-2.677357e-12	3.945621e+00	-1.131769e+00
1.970000e-06	6.136055e-07	1.583408e-11	4.268838e+00	1.226150e-01
1.980000e-06	6.600022e-07	3.490937e-11	4.591619e+00	1.385741e+00
1.990000e-06	7.063419e-07	5.260940e-11	4.914003e+00	2.656258e+00
2.000000e-06	7.526663e-07	7.078896e-11	5.236281e+00	3.932768e+00
2.010000e-06	7.989633e-07	8.909670e-11	5.558368e+00	5.213826e+00
2.020000e-06	8.451787e-07	1.053740e-10	5.879887e+00	6.497954e+00
2.030000e-06	8.912953e-07	1.214219e-10	6.200719e+00	7.783644e+00
2.040000e-06	9.373301e-07	1.373654e-10	6.520982e+00	9.069368e+00
2.050000e-06	9.833139e-07	1.538935e-10	6.840890e+00	1.035359e+01
2.060000e-06	1.029263e-06	1.702909e-10	7.160557e+00	1.163476e+01
2.070000e-06	1.075128e-06	1.879516e-10	7.479640e+00	1.291135e+01
2.080000e-06	1.120923e-06	2.072736e-10	7.798236e+00	1.418182e+01
2.090000e-06	1.166633e-06	2.261277e-10	8.116239e+00	1.544469e+01
2.100000e-06	1.212244e-06	2.449305e-10	8.433551e+00	1.669848e+01
2.110000e-06	1.257846e-06	2.626454e-10	8.750803e+00	1.794175e+01
2.120000e-06	1.303361e-06	2.791366e-10	9.067448e+00	1.917312e+01
2.130000e-06	1.348735e-06	2.941408e-10	9.383115e+00	2.039126e+01
2.140000e-06	1.394080e-06	3.091433e-10	9.698576e+00	2.159491e+01
2.150000e-06	1.439331e-06	3.245514e-10	1.001339e+01	2.278285e+01
2.160000e-06	1.484401e-06	3.414900e-10	1.032694e+01	2.395396e+01
2.170000e-06	1.529370e-06	3.592854e-10	1.063979e+01	2.510719e+01
2.180000e-06	1.574178e-06	3.753859e-10	1.095152e+01	2.624157e+01
2.190000e-06	1.618893e-06	3.895692e-10	1.126260e+01	2.735624e+01
2.200000e-06	1.663564e-06	4.044805e-10	1.157338e+01	2.845041e+01
2.210000e-06	1.708096e-06	4.200080e-10	1.188318e+01	2.952339e+01
2.220000e-06	1.752471e-06	4.346614e-10	1.219190e+01	3.057458e+01
2.230000e-06	1.796648e-06	4.476637e-10	1.249923e+01	3.160351e+01
2.240000e-06	1.840682e-06	4.597355e-10	1.280557e+01	3.260977e+01
2.250000e-06	1.884656e-06	4.712788e-10	1.311150e+01	3.359308e+01
2.260000e-06	1.928547e-06	4.838642e-10	1.341685e+01	3.455323e+01
2.270000e-06	1.972394e-06	4.969259e-10	1.372190e+01	3.549012e+01
2.280000e-06	2.016202e-06	5.112111e-10	1.402666e+01	3.640375e+01
2.290000e-06	2.059921e-06	5.260430e-10	1.433082e+01	3.729421e+01
2.300000e-06	2.103565e-06	5.402620e-10	1.463445e+01	3.816166e+01
2.310000e-06	2.147143e-06	5.534092e-10	1.493762e+01	3.900636e+01
2.320000e-06	2.190609e-06	5.636502e-10	1.524001e+01	3.982863e+01
2.330000e-06	2.233873e-06	5.724631e-10	1.554100e+01	4.062889e+01
2.340000e-06	2.276981e-06	5.817329e-10	1.584090e+01	4.140760e+01
2.350000e-06	2.319934e-06	5.917716e-10	1.613972e+01	4.216528e+01
2.360000e-06	2.362675e-06	6.019533e-10	1.643707e+01	4.290252e+01
2.370000e-06	2.405163e-06	6.126858e-10	1.673266e+01	4.361994e+01
2.380000e-06	2.447363e-06	6.233171e-10	1.702624e+01	4.431821e+01
2.390000e-06	2.489327e-06	6.338085e-10	1.731819e+01	4.499803e+01
2.400000e-06	2.531033e-06	6.455866e-10	1.760833e+01	4.566011e+01
2.410000e-06	2.572366e-06	6.588307e-10	1.789588e+01	4.630519e+01
2.420000e-06	2.613285e-06	6.712895e-10	1.818055e+01	4.693401e+01
2.430000e-06	2.653897e-06	6.820711e-10	1.846309e+01	4.754734e+01
2.440000e-06	2.694352e-06	6.918435e-10	1.874454e+01	4.814590e+01
2.450000e-06	2.734695e-06	7.006008e-10	1.902521e+01	4.873043e+01
2.460000e-06	2.774886e-06	7.090590e-10	1.930481e+01	4.930165e+01
2.470000e-06	2.814878e-06	7.187303e-10	1.958304e+01	4.986025e+01
2.480000e-06	2.854651e-06	7.273901e-10	1.985974e+01	5.040689e+01
2.490000e-06	2.894311e-06	7.346567e-10	2.013565e+01	5.094220e+01
2.500000e-06	2.933872e-06	7.424752e-10	2.041088e+01	5.146678e+01
2.510000e-06	2.973237e-06	7.507813e-10	2.068473e+01	5.198116e+01
2.520000e-06	3.012457e-06	7.594607e-10	2.095759e+01	5.248587e+01
2.530000e-06	3.051437e-06	7.686300e-10	2.122877e+01	5.298135e+01
2.540000e-06	3.090117e-06	7.760782e-10	2.149787e+01	5.346801e+01
2.550000e-06	3.128641e-06	7.805025e-10	2.176588e+01	5.394621e+01
2.560000e-06	3.167040e-06	7.842706e-10	2.203302e+01	5.441626e+01
2.570000e-06	3.205217e-06	7.890531e-10	2.229862e+01	5.487841e+01
2.580000e-06	3.243067e-06	7.944047e-10	2.256193e+01	5.533285e+01
2.590000e-06	3.280676e-06	8.002995e-10	2.282358e+01	5.577976e+01
2.600000e-06	3.318122e-06	8.081351e-10	2.308409e+01	5.621922e+01
2.610000e-06	3.355335e-06	8.175732e-10	2.334298e+01	5.665130e+01
2.620000e-06	3.392322e-06	8.265076e-10	2.360030e+01	5.707602e+01
2.630000e-06	3.429092e-06	8.318554e-10	2.385611e+01	5.749335e+01
2.640000e-06	3.465611e-06	8.334825e-10	2.411017e+01	5.790324e+01
2.650000e-06	3.501960e-06	8.339484e-10	2.436305e+01	5.830558e+01
2.660000e-06	3.538131e-06	8.361737e-10	2.461469e+01	5.870026e+01
2.670000e-06	3.574067e-06	8.402405e-10	2.486469e+01	5.908714e+01
2.680000e-06	3.609818e-06	8.448672e-10	2.511341e+01	5.946605e+01
2.690000e-06	3.645438e-06	8.506533e-10	2.536122e+01	5.983682e+01
2.700000e-06	3.680937e-06	8.582974e-10	2.560818e+01	6.019927e+01
2.710000e-06	3.716237e-06	8.656412e-10	2.585377e+01	6.055320e+01
2.720000e-06	3.751261e-06	8.748474e-10	2.609743e+01	6.089842e+01
2.730000e-06	3.785893e-06	8.830505e-10	2.633836e+01	6.123476e+01
2.740000e-06	3.819948e-06	8.863901e-10	2.657528e+01	6.156205e+01
2.750000e-06	3.853440e-06	8.878629e-10	2.680828e+01	6.188012e+01
2.760000e-06	3.886555e-06	8.908999e-10	2.703867e+01	6.218885e+01
2.770000e-06	3.919312e-06	8.968689e-10	2.726656e+01	6.248810e+01
2.780000e-06	3.951719e-06	9.037019e-10	2.749201e+01	6.277780e+01
2.790000e-06	3.983852e-06	9.118761e-10	2.771556e+01	6.305789e+01
2.800000e-06	4.015742e-06	9.196505e-10	2.793741e+01	6.332833e+01
2.810000e-06	4.047451e-06	9.250835e-10	2.815801e+01	6.358914e+01
2.820000e-06	4.079009e-06	9.290832e-10	2.837756e+01	6.384035e+01
2.830000e-06	4.110414e-06	9.315403e-10	2.859605e+01	6.408204e+01
2.840000e-06	4.141639e-06	9.310603e-10	2.881328e+01	6.431433e+01
2.850000e-06	4.172573e-06	9.315125e-10	2.902849e+01	6.453737e+01
2.860000e-06	4.203134e-06	9.336666e-10	2.924110e+01	6.475135e+01
2.870000e-06	4.233346e-06	9.353249e-10	2.945128e+01	6.495649e+01
2.880000e-06	4.263331e-06	9.391309e-10	2.965988e+01	6.515307e+01
2.890000e-06	4.293009e-06	9.454132e-10	2.986635e+01	6.534137e+01
2.900000e-06	4.322312e-06	9.528535e-10	3.007021e+01	6.552172e+01
