# Temperatura_=_-1.2
# Concentracion g/m^3_=_1620.0
# C_Vs_to_Am_M_A/Vsm_=_65563218390.804596
# pendiente_HvsI_1/m_=_3716.3
# ordenada_HvsI_A/m_=_1297.0
# frecuencia_Hz_=_135093.537501078

Tiempo_(s)	Campo_(V.s)	Magnetizacion_(V.s)	Campo_(kA/m)	Magnetizacion_(A/m)
0.000000e+00	-5.544575e-06	-1.039172e-09	-3.837848e+01	-6.995439e+01
1.000000e-08	-5.544666e-06	-1.034926e-09	-3.837911e+01	-6.993204e+01
2.000000e-08	-5.544561e-06	-1.032551e-09	-3.837839e+01	-6.990936e+01
3.000000e-08	-5.544135e-06	-1.031819e-09	-3.837544e+01	-6.988616e+01
4.000000e-08	-5.543363e-06	-1.031437e-09	-3.837009e+01	-6.986226e+01
5.000000e-08	-5.542126e-06	-1.033214e-09	-3.836153e+01	-6.983746e+01
6.000000e-08	-5.540184e-06	-1.037911e-09	-3.834809e+01	-6.981154e+01
7.000000e-08	-5.537526e-06	-1.019065e-09	-3.832969e+01	-6.978429e+01
8.000000e-08	-5.534344e-06	-1.003309e-09	-3.830766e+01	-6.975549e+01
9.000000e-08	-5.530773e-06	-1.044688e-09	-3.828295e+01	-6.972491e+01
1.000000e-07	-5.526742e-06	-1.114048e-09	-3.825505e+01	-6.969234e+01
1.100000e-07	-5.522342e-06	-1.052362e-09	-3.822459e+01	-6.965755e+01
1.200000e-07	-5.517804e-06	-9.974015e-10	-3.819318e+01	-6.962033e+01
1.300000e-07	-5.513070e-06	-9.491007e-10	-3.816041e+01	-6.958044e+01
1.400000e-07	-5.508035e-06	-1.065402e-09	-3.812556e+01	-6.953770e+01
1.500000e-07	-5.502553e-06	-1.021979e-09	-3.808762e+01	-6.949188e+01
1.600000e-07	-5.496673e-06	-9.814800e-10	-3.804691e+01	-6.944279e+01
1.700000e-07	-5.490419e-06	-9.875392e-10	-3.800362e+01	-6.939026e+01
1.800000e-07	-5.483673e-06	-1.092228e-09	-3.795693e+01	-6.933411e+01
1.900000e-07	-5.476486e-06	-1.095956e-09	-3.790718e+01	-6.927418e+01
2.000000e-07	-5.469045e-06	-9.973294e-10	-3.785568e+01	-6.921033e+01
2.100000e-07	-5.461312e-06	-9.886321e-10	-3.780215e+01	-6.914242e+01
2.200000e-07	-5.453271e-06	-1.044382e-09	-3.774650e+01	-6.907035e+01
2.300000e-07	-5.444983e-06	-1.100842e-09	-3.768912e+01	-6.899401e+01
2.400000e-07	-5.436316e-06	-1.047000e-09	-3.762913e+01	-6.891333e+01
2.500000e-07	-5.427059e-06	-1.065353e-09	-3.756506e+01	-6.882825e+01
2.600000e-07	-5.416995e-06	-1.062816e-09	-3.749540e+01	-6.873871e+01
2.700000e-07	-5.406304e-06	-1.074171e-09	-3.742140e+01	-6.864471e+01
2.800000e-07	-5.395096e-06	-9.938161e-10	-3.734382e+01	-6.854622e+01
2.900000e-07	-5.383434e-06	-1.019105e-09	-3.726310e+01	-6.844326e+01
3.000000e-07	-5.371480e-06	-1.024511e-09	-3.718035e+01	-6.833586e+01
3.100000e-07	-5.359241e-06	-1.051372e-09	-3.709564e+01	-6.822406e+01
3.200000e-07	-5.346532e-06	-9.948701e-10	-3.700767e+01	-6.810793e+01
3.300000e-07	-5.333329e-06	-1.028545e-09	-3.691628e+01	-6.798753e+01
3.400000e-07	-5.319804e-06	-1.032378e-09	-3.682266e+01	-6.786296e+01
3.500000e-07	-5.305945e-06	-1.020555e-09	-3.672673e+01	-6.773432e+01
3.600000e-07	-5.291544e-06	-9.628355e-10	-3.662705e+01	-6.760173e+01
3.700000e-07	-5.276677e-06	-1.009970e-09	-3.652414e+01	-6.746532e+01
3.800000e-07	-5.261369e-06	-1.027284e-09	-3.641819e+01	-6.732521e+01
3.900000e-07	-5.245526e-06	-1.001048e-09	-3.630853e+01	-6.718156e+01
4.000000e-07	-5.229172e-06	-9.933763e-10	-3.619532e+01	-6.703451e+01
4.100000e-07	-5.212386e-06	-1.031575e-09	-3.607914e+01	-6.688422e+01
4.200000e-07	-5.195281e-06	-1.004641e-09	-3.596073e+01	-6.673084e+01
4.300000e-07	-5.177828e-06	-9.597060e-10	-3.583993e+01	-6.657454e+01
4.400000e-07	-5.160125e-06	-1.008479e-09	-3.571739e+01	-6.641548e+01
4.500000e-07	-5.142133e-06	-1.018658e-09	-3.559286e+01	-6.625382e+01
4.600000e-07	-5.123700e-06	-9.817132e-10	-3.546527e+01	-6.608972e+01
4.700000e-07	-5.104849e-06	-9.735176e-10	-3.533479e+01	-6.592333e+01
4.800000e-07	-5.085704e-06	-1.015329e-09	-3.520227e+01	-6.575481e+01
4.900000e-07	-5.066248e-06	-9.784041e-10	-3.506759e+01	-6.558429e+01
5.000000e-07	-5.046534e-06	-9.801224e-10	-3.493114e+01	-6.541191e+01
5.100000e-07	-5.026658e-06	-9.918633e-10	-3.479356e+01	-6.523781e+01
5.200000e-07	-5.006441e-06	-9.810648e-10	-3.465362e+01	-6.506210e+01
5.300000e-07	-4.985784e-06	-9.473424e-10	-3.451064e+01	-6.488490e+01
5.400000e-07	-4.964828e-06	-9.993400e-10	-3.436559e+01	-6.470631e+01
5.500000e-07	-4.943595e-06	-9.964610e-10	-3.421862e+01	-6.452641e+01
5.600000e-07	-4.921992e-06	-9.699868e-10	-3.406909e+01	-6.434528e+01
5.700000e-07	-4.899999e-06	-9.618845e-10	-3.391685e+01	-6.416300e+01
5.800000e-07	-4.877664e-06	-9.886042e-10	-3.376225e+01	-6.397962e+01
5.900000e-07	-4.854964e-06	-9.566743e-10	-3.360513e+01	-6.379519e+01
6.000000e-07	-4.831849e-06	-9.551129e-10	-3.344513e+01	-6.360973e+01
6.100000e-07	-4.808445e-06	-9.590634e-10	-3.328313e+01	-6.342328e+01
6.200000e-07	-4.784856e-06	-9.574231e-10	-3.311985e+01	-6.323584e+01
6.300000e-07	-4.761003e-06	-9.383779e-10	-3.295474e+01	-6.304743e+01
6.400000e-07	-4.736940e-06	-9.472796e-10	-3.278819e+01	-6.285803e+01
6.500000e-07	-4.712561e-06	-9.439870e-10	-3.261944e+01	-6.266762e+01
6.600000e-07	-4.687757e-06	-9.444535e-10	-3.244776e+01	-6.247620e+01
6.700000e-07	-4.662451e-06	-9.418009e-10	-3.227259e+01	-6.228371e+01
6.800000e-07	-4.636497e-06	-9.382897e-10	-3.209294e+01	-6.209014e+01
6.900000e-07	-4.610029e-06	-9.289631e-10	-3.190974e+01	-6.189543e+01
7.000000e-07	-4.583144e-06	-9.242621e-10	-3.172364e+01	-6.169953e+01
7.100000e-07	-4.555893e-06	-9.181398e-10	-3.153502e+01	-6.150240e+01
7.200000e-07	-4.528352e-06	-9.132047e-10	-3.134438e+01	-6.130398e+01
7.300000e-07	-4.500583e-06	-9.151156e-10	-3.115217e+01	-6.110421e+01
7.400000e-07	-4.472626e-06	-9.120876e-10	-3.095865e+01	-6.090304e+01
7.500000e-07	-4.444452e-06	-9.170906e-10	-3.076364e+01	-6.070040e+01
7.600000e-07	-4.416046e-06	-9.102365e-10	-3.056702e+01	-6.049623e+01
7.700000e-07	-4.387315e-06	-9.018012e-10	-3.036815e+01	-6.029047e+01
7.800000e-07	-4.358263e-06	-8.853048e-10	-3.016706e+01	-6.008307e+01
7.900000e-07	-4.328918e-06	-8.841816e-10	-2.996394e+01	-5.987397e+01
8.000000e-07	-4.299291e-06	-8.763510e-10	-2.975887e+01	-5.966310e+01
8.100000e-07	-4.269429e-06	-8.777407e-10	-2.955217e+01	-5.945043e+01
8.200000e-07	-4.239180e-06	-8.715866e-10	-2.934279e+01	-5.923589e+01
8.300000e-07	-4.208552e-06	-8.780915e-10	-2.913079e+01	-5.901944e+01
8.400000e-07	-4.177726e-06	-8.717607e-10	-2.891742e+01	-5.880103e+01
8.500000e-07	-4.146705e-06	-8.698748e-10	-2.870269e+01	-5.858063e+01
8.600000e-07	-4.115407e-06	-8.596814e-10	-2.848606e+01	-5.835817e+01
8.700000e-07	-4.083865e-06	-8.592960e-10	-2.826773e+01	-5.813364e+01
8.800000e-07	-4.052103e-06	-8.502497e-10	-2.804788e+01	-5.790699e+01
8.900000e-07	-4.020141e-06	-8.526006e-10	-2.782664e+01	-5.767819e+01
9.000000e-07	-3.987954e-06	-8.475876e-10	-2.760385e+01	-5.744719e+01
9.100000e-07	-3.955510e-06	-8.419169e-10	-2.737928e+01	-5.721397e+01
9.200000e-07	-3.922722e-06	-8.306934e-10	-2.715233e+01	-5.697848e+01
9.300000e-07	-3.889520e-06	-8.301443e-10	-2.692251e+01	-5.674070e+01
9.400000e-07	-3.855788e-06	-8.255286e-10	-2.668902e+01	-5.650059e+01
9.500000e-07	-3.821586e-06	-8.241414e-10	-2.645228e+01	-5.625810e+01
9.600000e-07	-3.787020e-06	-8.240186e-10	-2.621303e+01	-5.601319e+01
9.700000e-07	-3.752062e-06	-8.242487e-10	-2.597105e+01	-5.576582e+01
9.800000e-07	-3.716763e-06	-8.197246e-10	-2.572672e+01	-5.551594e+01
9.900000e-07	-3.681206e-06	-8.141908e-10	-2.548060e+01	-5.526348e+01
1.000000e-06	-3.645533e-06	-8.087984e-10	-2.523368e+01	-5.500839e+01
1.010000e-06	-3.609692e-06	-8.014203e-10	-2.498560e+01	-5.475060e+01
1.020000e-06	-3.573680e-06	-7.970409e-10	-2.473632e+01	-5.449004e+01
1.030000e-06	-3.537519e-06	-7.942321e-10	-2.448603e+01	-5.422662e+01
1.040000e-06	-3.501151e-06	-7.944964e-10	-2.423430e+01	-5.396025e+01
1.050000e-06	-3.464523e-06	-7.878396e-10	-2.398076e+01	-5.369085e+01
1.060000e-06	-3.427582e-06	-7.841667e-10	-2.372507e+01	-5.341830e+01
1.070000e-06	-3.390389e-06	-7.749846e-10	-2.346762e+01	-5.314249e+01
1.080000e-06	-3.352950e-06	-7.706570e-10	-2.320848e+01	-5.286329e+01
1.090000e-06	-3.315286e-06	-7.658755e-10	-2.294777e+01	-5.258059e+01
1.100000e-06	-3.277459e-06	-7.631521e-10	-2.268594e+01	-5.229424e+01
1.110000e-06	-3.239332e-06	-7.548068e-10	-2.242203e+01	-5.200410e+01
1.120000e-06	-3.200933e-06	-7.468632e-10	-2.215624e+01	-5.171000e+01
1.130000e-06	-3.162424e-06	-7.376801e-10	-2.188969e+01	-5.141180e+01
1.140000e-06	-3.123621e-06	-7.349273e-10	-2.162111e+01	-5.110933e+01
1.150000e-06	-3.084606e-06	-7.306237e-10	-2.135105e+01	-5.080240e+01
1.160000e-06	-3.045528e-06	-7.288462e-10	-2.108056e+01	-5.049085e+01
1.170000e-06	-3.006290e-06	-7.252194e-10	-2.080896e+01	-5.017448e+01
1.180000e-06	-2.966772e-06	-7.246421e-10	-2.053542e+01	-4.985311e+01
1.190000e-06	-2.927089e-06	-7.193299e-10	-2.026075e+01	-4.952654e+01
1.200000e-06	-2.887304e-06	-7.158254e-10	-1.998537e+01	-4.919459e+01
1.210000e-06	-2.847373e-06	-7.072095e-10	-1.970897e+01	-4.885705e+01
1.220000e-06	-2.807350e-06	-6.983762e-10	-1.943194e+01	-4.851373e+01
1.230000e-06	-2.767075e-06	-6.896738e-10	-1.915316e+01	-4.816443e+01
1.240000e-06	-2.726564e-06	-6.856328e-10	-1.887275e+01	-4.780895e+01
1.250000e-06	-2.685875e-06	-6.837074e-10	-1.859111e+01	-4.744710e+01
1.260000e-06	-2.644862e-06	-6.829717e-10	-1.830723e+01	-4.707868e+01
1.270000e-06	-2.603585e-06	-6.817203e-10	-1.802152e+01	-4.670351e+01
1.280000e-06	-2.562089e-06	-6.755756e-10	-1.773429e+01	-4.632139e+01
1.290000e-06	-2.520338e-06	-6.647503e-10	-1.744530e+01	-4.593214e+01
1.300000e-06	-2.478218e-06	-6.522901e-10	-1.715375e+01	-4.553559e+01
1.310000e-06	-2.435720e-06	-6.408527e-10	-1.685959e+01	-4.513156e+01
1.320000e-06	-2.393032e-06	-6.316414e-10	-1.656411e+01	-4.471989e+01
1.330000e-06	-2.350183e-06	-6.263950e-10	-1.626751e+01	-4.430041e+01
1.340000e-06	-2.307072e-06	-6.275309e-10	-1.596911e+01	-4.387295e+01
1.350000e-06	-2.263727e-06	-6.272276e-10	-1.566908e+01	-4.343739e+01
1.360000e-06	-2.220277e-06	-6.187538e-10	-1.536833e+01	-4.299356e+01
1.370000e-06	-2.176680e-06	-6.072055e-10	-1.506656e+01	-4.254132e+01
1.380000e-06	-2.132945e-06	-5.952567e-10	-1.476384e+01	-4.208055e+01
1.390000e-06	-2.089126e-06	-5.850029e-10	-1.446053e+01	-4.161111e+01
1.400000e-06	-2.045286e-06	-5.748097e-10	-1.415708e+01	-4.113288e+01
1.410000e-06	-2.001401e-06	-5.700303e-10	-1.385331e+01	-4.064573e+01
1.420000e-06	-1.957436e-06	-5.631975e-10	-1.354899e+01	-4.014955e+01
1.430000e-06	-1.913354e-06	-5.564205e-10	-1.324387e+01	-3.964422e+01
1.440000e-06	-1.869101e-06	-5.479422e-10	-1.293756e+01	-3.912962e+01
1.450000e-06	-1.824783e-06	-5.411338e-10	-1.263080e+01	-3.860565e+01
1.460000e-06	-1.780358e-06	-5.306006e-10	-1.232330e+01	-3.807219e+01
1.470000e-06	-1.735676e-06	-5.189676e-10	-1.201402e+01	-3.752913e+01
1.480000e-06	-1.690864e-06	-5.085676e-10	-1.170383e+01	-3.697634e+01
1.490000e-06	-1.645933e-06	-4.986779e-10	-1.139283e+01	-3.641373e+01
1.500000e-06	-1.600758e-06	-4.879141e-10	-1.108014e+01	-3.584116e+01
1.510000e-06	-1.555462e-06	-4.798999e-10	-1.076661e+01	-3.525851e+01
1.520000e-06	-1.510142e-06	-4.699315e-10	-1.045291e+01	-3.466567e+01
1.530000e-06	-1.464752e-06	-4.574772e-10	-1.013873e+01	-3.406248e+01
1.540000e-06	-1.419310e-06	-4.434759e-10	-9.824191e+00	-3.344883e+01
1.550000e-06	-1.373716e-06	-4.330516e-10	-9.508598e+00	-3.282457e+01
1.560000e-06	-1.327963e-06	-4.221299e-10	-9.191906e+00	-3.218954e+01
1.570000e-06	-1.282232e-06	-4.118277e-10	-8.875366e+00	-3.154360e+01
1.580000e-06	-1.236436e-06	-4.035349e-10	-8.558375e+00	-3.088659e+01
1.590000e-06	-1.190564e-06	-3.939069e-10	-8.240855e+00	-3.021834e+01
1.600000e-06	-1.144678e-06	-3.802670e-10	-7.923239e+00	-2.953868e+01
1.610000e-06	-1.098674e-06	-3.675585e-10	-7.604811e+00	-2.884744e+01
1.620000e-06	-1.052561e-06	-3.575817e-10	-7.285627e+00	-2.814444e+01
1.630000e-06	-1.006365e-06	-3.482930e-10	-6.965866e+00	-2.742950e+01
1.640000e-06	-9.601145e-07	-3.385683e-10	-6.645728e+00	-2.670244e+01
1.650000e-06	-9.137504e-07	-3.260623e-10	-6.324804e+00	-2.596307e+01
1.660000e-06	-8.673231e-07	-3.157714e-10	-6.003444e+00	-2.521121e+01
1.670000e-06	-8.209022e-07	-3.035016e-10	-5.682127e+00	-2.444668e+01
1.680000e-06	-7.744157e-07	-2.920054e-10	-5.360357e+00	-2.366931e+01
1.690000e-06	-7.278128e-07	-2.815314e-10	-5.037780e+00	-2.287893e+01
1.700000e-06	-6.812096e-07	-2.731255e-10	-4.715202e+00	-2.207536e+01
1.710000e-06	-6.345254e-07	-2.595445e-10	-4.392063e+00	-2.125846e+01
1.720000e-06	-5.878110e-07	-2.420389e-10	-4.068715e+00	-2.042810e+01
1.730000e-06	-5.411468e-07	-2.257259e-10	-3.745714e+00	-1.958414e+01
1.740000e-06	-4.942859e-07	-2.120333e-10	-3.421352e+00	-1.872647e+01
1.750000e-06	-4.473972e-07	-1.990941e-10	-3.096797e+00	-1.785501e+01
1.760000e-06	-4.005032e-07	-1.877895e-10	-2.772206e+00	-1.696968e+01
1.770000e-06	-3.534488e-07	-1.763025e-10	-2.446505e+00	-1.607045e+01
1.780000e-06	-3.064185e-07	-1.663842e-10	-2.120970e+00	-1.515730e+01
1.790000e-06	-2.593828e-07	-1.551427e-10	-1.795398e+00	-1.423023e+01
1.800000e-06	-2.122724e-07	-1.384792e-10	-1.469308e+00	-1.328930e+01
1.810000e-06	-1.652266e-07	-1.194809e-10	-1.143667e+00	-1.233457e+01
1.820000e-06	-1.182154e-07	-1.016121e-10	-8.182643e-01	-1.136616e+01
1.830000e-06	-7.116975e-08	-8.576975e-11	-4.926233e-01	-1.038421e+01
1.840000e-06	-2.399410e-08	-7.261510e-11	-1.660825e-01	-9.388906e+00
1.850000e-06	2.319223e-08	-6.198036e-11	1.605322e-01	-8.380483e+00
1.860000e-06	7.023824e-08	-5.343579e-11	4.861756e-01	-7.359203e+00
1.870000e-06	1.172967e-07	-4.153645e-11	8.119055e-01	-6.325379e+00
1.880000e-06	1.643864e-07	-2.640398e-11	1.137851e+00	-5.279364e+00
1.890000e-06	2.114020e-07	-1.020727e-11	1.463284e+00	-4.221555e+00
1.900000e-06	2.584271e-07	8.395942e-12	1.788783e+00	-3.152396e+00
1.910000e-06	3.054040e-07	2.460234e-11	2.113948e+00	-2.072373e+00
1.920000e-06	3.523074e-07	3.874291e-11	2.438604e+00	-9.820157e-01
1.930000e-06	3.992342e-07	5.001768e-11	2.763422e+00	1.181014e-01
1.940000e-06	4.461132e-07	5.980587e-11	3.087910e+00	1.227362e+00
1.950000e-06	4.930126e-07	6.910870e-11	3.412538e+00	2.345109e+00
1.960000e-06	5.399257e-07	8.137010e-11	3.737262e+00	3.470644e+00
1.970000e-06	5.867512e-07	9.720474e-11	4.061379e+00	4.603233e+00
1.980000e-06	6.335034e-07	1.164039e-10	4.384989e+00	5.742105e+00
1.990000e-06	6.801579e-07	1.357655e-10	4.707922e+00	6.886453e+00
2.000000e-06	7.266710e-07	1.532399e-10	5.029877e+00	8.035443e+00
2.010000e-06	7.730922e-07	1.699013e-10	5.351196e+00	9.188211e+00
2.020000e-06	8.195998e-07	1.850048e-10	5.673112e+00	1.034387e+01
2.030000e-06	8.661602e-07	1.987972e-10	5.995395e+00	1.150150e+01
2.040000e-06	9.126154e-07	2.132421e-10	6.316949e+00	1.266019e+01
2.050000e-06	9.589051e-07	2.267187e-10	6.637357e+00	1.381898e+01
2.060000e-06	1.005120e-06	2.426046e-10	6.957250e+00	1.497692e+01
2.070000e-06	1.051306e-06	2.596397e-10	7.276935e+00	1.613306e+01
2.080000e-06	1.097383e-06	2.765857e-10	7.595875e+00	1.728642e+01
2.090000e-06	1.143340e-06	2.933791e-10	7.913980e+00	1.843604e+01
2.100000e-06	1.189156e-06	3.109614e-10	8.231113e+00	1.958097e+01
2.110000e-06	1.234904e-06	3.288092e-10	8.547770e+00	2.072026e+01
2.120000e-06	1.280594e-06	3.444490e-10	8.864028e+00	2.185297e+01
2.130000e-06	1.326182e-06	3.605008e-10	9.179574e+00	2.297819e+01
2.140000e-06	1.371652e-06	3.756925e-10	9.494312e+00	2.409500e+01
2.150000e-06	1.417113e-06	3.887109e-10	9.808984e+00	2.520255e+01
2.160000e-06	1.462538e-06	4.010784e-10	1.012340e+01	2.629999e+01
2.170000e-06	1.507855e-06	4.167547e-10	1.043709e+01	2.738649e+01
2.180000e-06	1.553024e-06	4.348687e-10	1.074973e+01	2.846129e+01
2.190000e-06	1.598062e-06	4.518542e-10	1.106148e+01	2.952364e+01
2.200000e-06	1.643071e-06	4.679432e-10	1.137302e+01	3.057284e+01
2.210000e-06	1.687891e-06	4.845107e-10	1.168326e+01	3.160822e+01
2.220000e-06	1.732508e-06	5.002709e-10	1.199209e+01	3.262918e+01
2.230000e-06	1.777001e-06	5.121344e-10	1.230006e+01	3.363513e+01
2.240000e-06	1.821392e-06	5.209764e-10	1.260733e+01	3.462558e+01
2.250000e-06	1.865588e-06	5.317943e-10	1.291324e+01	3.560003e+01
2.260000e-06	1.909640e-06	5.444137e-10	1.321816e+01	3.655807e+01
2.270000e-06	1.953651e-06	5.582273e-10	1.352280e+01	3.749932e+01
2.280000e-06	1.997551e-06	5.717911e-10	1.382666e+01	3.842347e+01
2.290000e-06	2.041373e-06	5.842515e-10	1.412999e+01	3.933025e+01
2.300000e-06	2.085182e-06	5.954629e-10	1.443323e+01	4.021943e+01
2.310000e-06	2.128944e-06	6.075841e-10	1.473614e+01	4.109084e+01
2.320000e-06	2.172619e-06	6.196568e-10	1.503845e+01	4.194436e+01
2.330000e-06	2.216208e-06	6.301173e-10	1.534016e+01	4.277992e+01
2.340000e-06	2.259687e-06	6.404396e-10	1.564112e+01	4.359749e+01
2.350000e-06	2.303027e-06	6.512847e-10	1.594111e+01	4.439708e+01
2.360000e-06	2.346149e-06	6.602931e-10	1.623960e+01	4.517874e+01
2.370000e-06	2.389072e-06	6.679166e-10	1.653669e+01	4.594258e+01
2.380000e-06	2.431804e-06	6.760486e-10	1.683248e+01	4.668872e+01
2.390000e-06	2.474217e-06	6.862338e-10	1.712606e+01	4.741733e+01
2.400000e-06	2.516338e-06	6.984438e-10	1.741761e+01	4.812861e+01
2.410000e-06	2.558088e-06	7.111835e-10	1.770660e+01	4.882279e+01
2.420000e-06	2.599422e-06	7.251413e-10	1.799270e+01	4.950013e+01
2.430000e-06	2.640506e-06	7.362540e-10	1.827708e+01	5.016090e+01
2.440000e-06	2.681366e-06	7.446552e-10	1.855990e+01	5.080539e+01
2.450000e-06	2.721947e-06	7.528621e-10	1.884080e+01	5.143394e+01
2.460000e-06	2.762221e-06	7.598644e-10	1.911956e+01	5.204686e+01
2.470000e-06	2.802304e-06	7.654487e-10	1.939701e+01	5.264449e+01
2.480000e-06	2.842312e-06	7.712950e-10	1.967394e+01	5.322719e+01
2.490000e-06	2.882171e-06	7.776355e-10	1.994983e+01	5.379532e+01
2.500000e-06	2.921893e-06	7.851682e-10	2.022478e+01	5.434923e+01
2.510000e-06	2.961548e-06	7.949047e-10	2.049927e+01	5.488928e+01
2.520000e-06	3.000978e-06	8.049055e-10	2.077219e+01	5.541584e+01
2.530000e-06	3.040242e-06	8.131396e-10	2.104397e+01	5.592926e+01
2.540000e-06	3.079418e-06	8.184111e-10	2.131514e+01	5.642989e+01
2.550000e-06	3.118358e-06	8.212025e-10	2.158468e+01	5.691807e+01
2.560000e-06	3.157062e-06	8.228965e-10	2.185258e+01	5.739413e+01
2.570000e-06	3.195456e-06	8.258539e-10	2.211834e+01	5.785841e+01
2.580000e-06	3.233577e-06	8.315123e-10	2.238220e+01	5.831122e+01
2.590000e-06	3.271524e-06	8.373154e-10	2.264486e+01	5.875284e+01
2.600000e-06	3.309287e-06	8.443713e-10	2.290625e+01	5.918358e+01
2.610000e-06	3.346892e-06	8.508948e-10	2.316654e+01	5.960370e+01
2.620000e-06	3.384322e-06	8.555746e-10	2.342563e+01	6.001346e+01
2.630000e-06	3.421446e-06	8.604404e-10	2.368259e+01	6.041311e+01
2.640000e-06	3.458309e-06	8.652327e-10	2.393775e+01	6.080288e+01
2.650000e-06	3.494967e-06	8.687865e-10	2.419149e+01	6.118298e+01
2.660000e-06	3.531307e-06	8.724793e-10	2.444303e+01	6.155361e+01
2.670000e-06	3.567357e-06	8.762855e-10	2.469256e+01	6.191496e+01
2.680000e-06	3.603252e-06	8.793226e-10	2.494102e+01	6.226721e+01
2.690000e-06	3.639140e-06	8.831844e-10	2.518943e+01	6.261052e+01
2.700000e-06	3.674910e-06	8.878419e-10	2.543702e+01	6.294504e+01
2.710000e-06	3.710514e-06	8.921829e-10	2.568346e+01	6.327092e+01
2.720000e-06	3.745987e-06	8.986537e-10	2.592900e+01	6.358828e+01
2.730000e-06	3.781081e-06	9.086639e-10	2.617192e+01	6.389725e+01
2.740000e-06	3.815777e-06	9.163000e-10	2.641208e+01	6.419795e+01
2.750000e-06	3.850194e-06	9.198083e-10	2.665030e+01	6.449049e+01
2.760000e-06	3.884067e-06	9.219160e-10	2.688477e+01	6.477496e+01
2.770000e-06	3.917289e-06	9.253119e-10	2.711472e+01	6.505147e+01
2.780000e-06	3.950033e-06	9.289580e-10	2.734137e+01	6.532012e+01
2.790000e-06	3.982430e-06	9.339452e-10	2.756562e+01	6.558100e+01
2.800000e-06	4.014592e-06	9.404469e-10	2.778824e+01	6.583421e+01
2.810000e-06	4.046560e-06	9.465113e-10	2.800951e+01	6.607983e+01
2.820000e-06	4.078372e-06	9.529705e-10	2.822971e+01	6.631797e+01
2.830000e-06	4.110059e-06	9.581470e-10	2.844904e+01	6.654871e+01
2.840000e-06	4.141546e-06	9.584602e-10	2.866698e+01	6.677215e+01
2.850000e-06	4.172752e-06	9.553818e-10	2.888299e+01	6.698838e+01
2.860000e-06	4.203715e-06	9.561068e-10	2.909731e+01	6.719752e+01
2.870000e-06	4.234365e-06	9.595087e-10	2.930946e+01	6.739965e+01
2.880000e-06	4.264570e-06	9.619258e-10	2.951854e+01	6.759489e+01
2.890000e-06	4.294425e-06	9.666673e-10	2.972518e+01	6.778334e+01
2.900000e-06	4.324098e-06	9.722094e-10	2.993058e+01	6.796512e+01
2.910000e-06	4.353531e-06	9.772236e-10	3.013431e+01	6.814033e+01
