# Temperatura_=_10.7
# Concentracion g/m^3_=_1620.0
# C_Vs_to_Am_M_A/Vsm_=_65563218390.804596
# pendiente_HvsI_1/m_=_3716.3
# ordenada_HvsI_A/m_=_1297.0
# frecuencia_Hz_=_135103.84809967095

Tiempo_(s)	Campo_(V.s)	Magnetizacion_(V.s)	Campo_(kA/m)	Magnetizacion_(A/m)
0.000000e+00	-5.541305e-06	-7.178163e-10	-3.836448e+01	-4.723207e+01
1.000000e-08	-5.541461e-06	-7.186314e-10	-3.836556e+01	-4.723963e+01
2.000000e-08	-5.541418e-06	-7.189266e-10	-3.836526e+01	-4.724845e+01
3.000000e-08	-5.540968e-06	-7.184994e-10	-3.836215e+01	-4.725841e+01
4.000000e-08	-5.539910e-06	-7.171737e-10	-3.835482e+01	-4.726941e+01
5.000000e-08	-5.538297e-06	-7.144667e-10	-3.834365e+01	-4.728132e+01
6.000000e-08	-5.536081e-06	-7.038158e-10	-3.832831e+01	-4.729401e+01
7.000000e-08	-5.533224e-06	-6.884606e-10	-3.830853e+01	-4.730732e+01
8.000000e-08	-5.529864e-06	-7.041480e-10	-3.828527e+01	-4.732113e+01
9.000000e-08	-5.526055e-06	-7.609846e-10	-3.825889e+01	-4.733526e+01
1.000000e-07	-5.521804e-06	-7.627014e-10	-3.822946e+01	-4.734956e+01
1.100000e-07	-5.517292e-06	-6.885194e-10	-3.819823e+01	-4.736387e+01
1.200000e-07	-5.512655e-06	-6.539037e-10	-3.816613e+01	-4.737802e+01
1.300000e-07	-5.507724e-06	-7.048492e-10	-3.813199e+01	-4.739184e+01
1.400000e-07	-5.502344e-06	-7.273464e-10	-3.809474e+01	-4.740517e+01
1.500000e-07	-5.496581e-06	-6.722277e-10	-3.805484e+01	-4.741785e+01
1.600000e-07	-5.490507e-06	-6.457615e-10	-3.801278e+01	-4.742970e+01
1.700000e-07	-5.483984e-06	-7.281508e-10	-3.796762e+01	-4.744057e+01
1.800000e-07	-5.476935e-06	-7.541547e-10	-3.791882e+01	-4.745030e+01
1.900000e-07	-5.469615e-06	-7.063406e-10	-3.786814e+01	-4.745874e+01
2.000000e-07	-5.462091e-06	-6.555830e-10	-3.781605e+01	-4.746575e+01
2.100000e-07	-5.454225e-06	-7.003177e-10	-3.776159e+01	-4.747118e+01
2.200000e-07	-5.446105e-06	-7.333515e-10	-3.770537e+01	-4.747491e+01
2.300000e-07	-5.437777e-06	-7.293693e-10	-3.764772e+01	-4.747680e+01
2.400000e-07	-5.428958e-06	-7.112468e-10	-3.758666e+01	-4.747673e+01
2.500000e-07	-5.419409e-06	-7.310814e-10	-3.752055e+01	-4.747460e+01
2.600000e-07	-5.409116e-06	-7.487696e-10	-3.744929e+01	-4.747031e+01
2.700000e-07	-5.398207e-06	-7.387381e-10	-3.737376e+01	-4.746375e+01
2.800000e-07	-5.386806e-06	-7.337050e-10	-3.729483e+01	-4.745484e+01
2.900000e-07	-5.374985e-06	-7.481124e-10	-3.721299e+01	-4.744350e+01
3.000000e-07	-5.362835e-06	-7.687290e-10	-3.712887e+01	-4.742967e+01
3.100000e-07	-5.350332e-06	-7.516280e-10	-3.704230e+01	-4.741327e+01
3.200000e-07	-5.337344e-06	-7.383720e-10	-3.695238e+01	-4.739424e+01
3.300000e-07	-5.323988e-06	-7.412867e-10	-3.685991e+01	-4.737255e+01
3.400000e-07	-5.310352e-06	-7.638245e-10	-3.676550e+01	-4.734814e+01
3.500000e-07	-5.296313e-06	-7.287164e-10	-3.666831e+01	-4.732098e+01
3.600000e-07	-5.281766e-06	-7.224272e-10	-3.656760e+01	-4.729104e+01
3.700000e-07	-5.266817e-06	-7.477897e-10	-3.646410e+01	-4.725830e+01
3.800000e-07	-5.251405e-06	-7.598223e-10	-3.635739e+01	-4.722272e+01
3.900000e-07	-5.235333e-06	-7.223048e-10	-3.624612e+01	-4.718430e+01
4.000000e-07	-5.218829e-06	-7.471311e-10	-3.613186e+01	-4.714303e+01
4.100000e-07	-5.202035e-06	-7.637232e-10	-3.601559e+01	-4.709889e+01
4.200000e-07	-5.184879e-06	-7.191885e-10	-3.589681e+01	-4.705189e+01
4.300000e-07	-5.167374e-06	-7.040600e-10	-3.577562e+01	-4.700202e+01
4.400000e-07	-5.149587e-06	-7.604419e-10	-3.565247e+01	-4.694929e+01
4.500000e-07	-5.131419e-06	-7.407834e-10	-3.552669e+01	-4.689371e+01
4.600000e-07	-5.112739e-06	-6.982553e-10	-3.539736e+01	-4.683529e+01
4.700000e-07	-5.093682e-06	-7.346638e-10	-3.526542e+01	-4.677403e+01
4.800000e-07	-5.074408e-06	-7.538311e-10	-3.513198e+01	-4.670996e+01
4.900000e-07	-5.054893e-06	-7.024258e-10	-3.499687e+01	-4.664310e+01
5.000000e-07	-5.035181e-06	-7.136892e-10	-3.486040e+01	-4.657347e+01
5.100000e-07	-5.015242e-06	-7.408702e-10	-3.472235e+01	-4.650109e+01
5.200000e-07	-4.994945e-06	-6.954277e-10	-3.458183e+01	-4.642600e+01
5.300000e-07	-4.974184e-06	-6.917332e-10	-3.443809e+01	-4.634823e+01
5.400000e-07	-4.953013e-06	-7.464414e-10	-3.429152e+01	-4.626782e+01
5.500000e-07	-4.931488e-06	-7.241289e-10	-3.414249e+01	-4.618481e+01
5.600000e-07	-4.909656e-06	-6.824581e-10	-3.399134e+01	-4.609925e+01
5.700000e-07	-4.887566e-06	-7.177679e-10	-3.383841e+01	-4.601119e+01
5.800000e-07	-4.865172e-06	-7.169025e-10	-3.368336e+01	-4.592068e+01
5.900000e-07	-4.842425e-06	-6.758431e-10	-3.352588e+01	-4.582780e+01
6.000000e-07	-4.819311e-06	-6.933998e-10	-3.336585e+01	-4.573260e+01
6.100000e-07	-4.795881e-06	-7.150104e-10	-3.320364e+01	-4.563517e+01
6.200000e-07	-4.772198e-06	-6.777521e-10	-3.303967e+01	-4.553557e+01
6.300000e-07	-4.748294e-06	-6.771812e-10	-3.287417e+01	-4.543389e+01
6.400000e-07	-4.724072e-06	-6.967054e-10	-3.270648e+01	-4.533023e+01
6.500000e-07	-4.699380e-06	-6.787641e-10	-3.253552e+01	-4.522467e+01
6.600000e-07	-4.674195e-06	-6.671634e-10	-3.236116e+01	-4.511733e+01
6.700000e-07	-4.648494e-06	-6.920236e-10	-3.218322e+01	-4.500830e+01
6.800000e-07	-4.622187e-06	-6.804663e-10	-3.200109e+01	-4.489769e+01
6.900000e-07	-4.595368e-06	-6.653439e-10	-3.181541e+01	-4.478562e+01
7.000000e-07	-4.568250e-06	-6.767598e-10	-3.162767e+01	-4.467220e+01
7.100000e-07	-4.540888e-06	-6.761898e-10	-3.143822e+01	-4.455756e+01
7.200000e-07	-4.513266e-06	-6.562067e-10	-3.124699e+01	-4.444182e+01
7.300000e-07	-4.485493e-06	-6.674495e-10	-3.105471e+01	-4.432510e+01
7.400000e-07	-4.457526e-06	-6.780792e-10	-3.086108e+01	-4.420752e+01
7.500000e-07	-4.429283e-06	-6.700409e-10	-3.066555e+01	-4.408920e+01
7.600000e-07	-4.400764e-06	-6.684200e-10	-3.046810e+01	-4.397027e+01
7.700000e-07	-4.371926e-06	-6.736514e-10	-3.026844e+01	-4.385085e+01
7.800000e-07	-4.342712e-06	-6.587103e-10	-3.006618e+01	-4.373104e+01
7.900000e-07	-4.313150e-06	-6.518266e-10	-2.986151e+01	-4.361094e+01
8.000000e-07	-4.283341e-06	-6.593924e-10	-2.965514e+01	-4.349067e+01
8.100000e-07	-4.253221e-06	-6.568484e-10	-2.944660e+01	-4.337031e+01
8.200000e-07	-4.222778e-06	-6.528853e-10	-2.923584e+01	-4.324995e+01
8.300000e-07	-4.192123e-06	-6.618072e-10	-2.902360e+01	-4.312964e+01
8.400000e-07	-4.161224e-06	-6.630417e-10	-2.880967e+01	-4.300946e+01
8.500000e-07	-4.130042e-06	-6.523298e-10	-2.859379e+01	-4.288945e+01
8.600000e-07	-4.098622e-06	-6.509558e-10	-2.837626e+01	-4.276963e+01
8.700000e-07	-4.067053e-06	-6.487361e-10	-2.815769e+01	-4.265002e+01
8.800000e-07	-4.035332e-06	-6.403373e-10	-2.793808e+01	-4.253062e+01
8.900000e-07	-4.003305e-06	-6.382504e-10	-2.771634e+01	-4.241142e+01
9.000000e-07	-3.970881e-06	-6.419453e-10	-2.749186e+01	-4.229236e+01
9.100000e-07	-3.938104e-06	-6.331919e-10	-2.726493e+01	-4.217340e+01
9.200000e-07	-3.905041e-06	-6.297847e-10	-2.703602e+01	-4.205447e+01
9.300000e-07	-3.871621e-06	-6.359301e-10	-2.680464e+01	-4.193546e+01
9.400000e-07	-3.837674e-06	-6.381810e-10	-2.656962e+01	-4.181627e+01
9.500000e-07	-3.803217e-06	-6.337079e-10	-2.633106e+01	-4.169675e+01
9.600000e-07	-3.768363e-06	-6.376279e-10	-2.608975e+01	-4.157677e+01
9.700000e-07	-3.733190e-06	-6.354820e-10	-2.584624e+01	-4.145615e+01
9.800000e-07	-3.697805e-06	-6.267303e-10	-2.560126e+01	-4.133469e+01
9.900000e-07	-3.662263e-06	-6.241176e-10	-2.535519e+01	-4.121221e+01
1.000000e-06	-3.626557e-06	-6.278445e-10	-2.510798e+01	-4.108847e+01
1.010000e-06	-3.590719e-06	-6.232009e-10	-2.485986e+01	-4.096325e+01
1.020000e-06	-3.554740e-06	-6.208970e-10	-2.461076e+01	-4.083629e+01
1.030000e-06	-3.518581e-06	-6.223763e-10	-2.436042e+01	-4.070733e+01
1.040000e-06	-3.482161e-06	-6.200178e-10	-2.410827e+01	-4.057611e+01
1.050000e-06	-3.445427e-06	-6.124343e-10	-2.385395e+01	-4.044235e+01
1.060000e-06	-3.408452e-06	-6.100020e-10	-2.359796e+01	-4.030577e+01
1.070000e-06	-3.371239e-06	-6.061852e-10	-2.334032e+01	-4.016607e+01
1.080000e-06	-3.333725e-06	-5.994691e-10	-2.308060e+01	-4.002297e+01
1.090000e-06	-3.295978e-06	-5.959829e-10	-2.281926e+01	-3.987617e+01
1.100000e-06	-3.258079e-06	-5.935028e-10	-2.255687e+01	-3.972540e+01
1.110000e-06	-3.219965e-06	-5.860064e-10	-2.229299e+01	-3.957037e+01
1.120000e-06	-3.181536e-06	-5.793320e-10	-2.202694e+01	-3.941081e+01
1.130000e-06	-3.142824e-06	-5.775103e-10	-2.175892e+01	-3.924644e+01
1.140000e-06	-3.103946e-06	-5.733996e-10	-2.148975e+01	-3.907701e+01
1.150000e-06	-3.064875e-06	-5.698760e-10	-2.121925e+01	-3.890228e+01
1.160000e-06	-3.025650e-06	-5.699427e-10	-2.094768e+01	-3.872202e+01
1.170000e-06	-2.986305e-06	-5.690366e-10	-2.067528e+01	-3.853602e+01
1.180000e-06	-2.946790e-06	-5.635526e-10	-2.040171e+01	-3.834408e+01
1.190000e-06	-2.907166e-06	-5.597594e-10	-2.012737e+01	-3.814603e+01
1.200000e-06	-2.867441e-06	-5.564962e-10	-1.985234e+01	-3.794171e+01
1.210000e-06	-2.827510e-06	-5.520741e-10	-1.957588e+01	-3.773098e+01
1.220000e-06	-2.787327e-06	-5.472194e-10	-1.929768e+01	-3.751374e+01
1.230000e-06	-2.747007e-06	-5.458064e-10	-1.901853e+01	-3.728988e+01
1.240000e-06	-2.706525e-06	-5.428120e-10	-1.873826e+01	-3.705934e+01
1.250000e-06	-2.665773e-06	-5.384001e-10	-1.845612e+01	-3.682206e+01
1.260000e-06	-2.624717e-06	-5.361360e-10	-1.817187e+01	-3.657803e+01
1.270000e-06	-2.583298e-06	-5.352969e-10	-1.788511e+01	-3.632722e+01
1.280000e-06	-2.541483e-06	-5.304767e-10	-1.759562e+01	-3.606966e+01
1.290000e-06	-2.499402e-06	-5.257236e-10	-1.730427e+01	-3.580537e+01
1.300000e-06	-2.457190e-06	-5.208809e-10	-1.701202e+01	-3.553439e+01
1.310000e-06	-2.414769e-06	-5.137082e-10	-1.671833e+01	-3.525679e+01
1.320000e-06	-2.372005e-06	-5.062324e-10	-1.642226e+01	-3.497262e+01
1.330000e-06	-2.328903e-06	-5.033073e-10	-1.612385e+01	-3.468198e+01
1.340000e-06	-2.285616e-06	-5.021703e-10	-1.582415e+01	-3.438495e+01
1.350000e-06	-2.242215e-06	-5.021949e-10	-1.552367e+01	-3.408163e+01
1.360000e-06	-2.198707e-06	-4.991449e-10	-1.522245e+01	-3.377210e+01
1.370000e-06	-2.155085e-06	-4.927872e-10	-1.492044e+01	-3.345647e+01
1.380000e-06	-2.111344e-06	-4.853541e-10	-1.461761e+01	-3.313481e+01
1.390000e-06	-2.067522e-06	-4.800908e-10	-1.431421e+01	-3.280722e+01
1.400000e-06	-2.023681e-06	-4.723182e-10	-1.401068e+01	-3.247376e+01
1.410000e-06	-1.979787e-06	-4.653706e-10	-1.370679e+01	-3.213449e+01
1.420000e-06	-1.935771e-06	-4.632166e-10	-1.340205e+01	-3.178946e+01
1.430000e-06	-1.891613e-06	-4.622574e-10	-1.309633e+01	-3.143869e+01
1.440000e-06	-1.847313e-06	-4.600100e-10	-1.278962e+01	-3.108218e+01
1.450000e-06	-1.802852e-06	-4.549079e-10	-1.248180e+01	-3.071991e+01
1.460000e-06	-1.758299e-06	-4.476104e-10	-1.217335e+01	-3.035184e+01
1.470000e-06	-1.713644e-06	-4.373465e-10	-1.186418e+01	-2.997788e+01
1.480000e-06	-1.668829e-06	-4.279116e-10	-1.155391e+01	-2.959793e+01
1.490000e-06	-1.623869e-06	-4.189682e-10	-1.124264e+01	-2.921185e+01
1.500000e-06	-1.578736e-06	-4.122444e-10	-1.093017e+01	-2.881947e+01
1.510000e-06	-1.533419e-06	-4.068215e-10	-1.061642e+01	-2.842058e+01
1.520000e-06	-1.487918e-06	-4.025774e-10	-1.030140e+01	-2.801495e+01
1.530000e-06	-1.442357e-06	-3.960110e-10	-9.985962e+00	-2.760231e+01
1.540000e-06	-1.396776e-06	-3.890314e-10	-9.670389e+00	-2.718233e+01
1.550000e-06	-1.351135e-06	-3.818303e-10	-9.354402e+00	-2.675470e+01
1.560000e-06	-1.305488e-06	-3.738097e-10	-9.038368e+00	-2.631903e+01
1.570000e-06	-1.259808e-06	-3.635207e-10	-8.722108e+00	-2.587493e+01
1.580000e-06	-1.213937e-06	-3.524898e-10	-8.404532e+00	-2.542196e+01
1.590000e-06	-1.167951e-06	-3.426123e-10	-8.086152e+00	-2.495967e+01
1.600000e-06	-1.121940e-06	-3.375131e-10	-7.767604e+00	-2.448760e+01
1.610000e-06	-1.075861e-06	-3.344626e-10	-7.448576e+00	-2.400523e+01
1.620000e-06	-1.029635e-06	-3.307561e-10	-7.128541e+00	-2.351206e+01
1.630000e-06	-9.832417e-07	-3.238154e-10	-6.807342e+00	-2.300757e+01
1.640000e-06	-9.368092e-07	-3.131667e-10	-6.485872e+00	-2.249123e+01
1.650000e-06	-8.903394e-07	-2.999706e-10	-6.164145e+00	-2.196251e+01
1.660000e-06	-8.438188e-07	-2.869508e-10	-5.842066e+00	-2.142088e+01
1.670000e-06	-7.973216e-07	-2.765450e-10	-5.520149e+00	-2.086582e+01
1.680000e-06	-7.508034e-07	-2.687094e-10	-5.198086e+00	-2.029681e+01
1.690000e-06	-7.042228e-07	-2.646067e-10	-4.875591e+00	-1.971338e+01
1.700000e-06	-6.575451e-07	-2.608446e-10	-4.552425e+00	-1.911504e+01
1.710000e-06	-6.107901e-07	-2.541806e-10	-4.228723e+00	-1.850137e+01
1.720000e-06	-5.639819e-07	-2.423248e-10	-3.904653e+00	-1.787195e+01
1.730000e-06	-5.170954e-07	-2.275924e-10	-3.580040e+00	-1.722642e+01
1.740000e-06	-4.702488e-07	-2.126085e-10	-3.255705e+00	-1.656446e+01
1.750000e-06	-4.234849e-07	-2.004285e-10	-2.931941e+00	-1.588580e+01
1.760000e-06	-3.767031e-07	-1.916752e-10	-2.608053e+00	-1.519022e+01
1.770000e-06	-3.298046e-07	-1.848183e-10	-2.283358e+00	-1.447755e+01
1.780000e-06	-2.828598e-07	-1.789178e-10	-1.958342e+00	-1.374771e+01
1.790000e-06	-2.358831e-07	-1.709835e-10	-1.633105e+00	-1.300066e+01
1.800000e-06	-1.887815e-07	-1.581087e-10	-1.307003e+00	-1.223643e+01
1.810000e-06	-1.416478e-07	-1.419335e-10	-9.806795e-01	-1.145514e+01
1.820000e-06	-9.456940e-08	-1.256728e-10	-6.547385e-01	-1.065698e+01
1.830000e-06	-4.750433e-08	-1.139247e-10	-3.288899e-01	-9.842200e+00
1.840000e-06	-4.812768e-10	-1.040232e-10	-3.332055e-03	-9.011143e+00
1.850000e-06	4.642599e-08	-9.605568e-11	3.214241e-01	-8.164225e+00
1.860000e-06	9.328658e-08	-8.626107e-11	6.458571e-01	-7.301942e+00
1.870000e-06	1.402075e-07	-7.486286e-11	9.707080e-01	-6.424867e+00
1.880000e-06	1.871645e-07	-6.234778e-11	1.295808e+00	-5.533650e+00
1.890000e-06	2.341055e-07	-4.748958e-11	1.620798e+00	-4.629018e+00
1.900000e-06	2.810741e-07	-3.298737e-11	1.945979e+00	-3.711768e+00
1.910000e-06	3.280550e-07	-1.983318e-11	2.271245e+00	-2.782769e+00
1.920000e-06	3.750251e-07	-9.307026e-12	2.596436e+00	-1.842957e+00
1.930000e-06	4.219886e-07	1.408721e-12	2.921581e+00	-8.933302e-01
1.940000e-06	4.689056e-07	1.199922e-11	3.246405e+00	6.505501e-02
1.950000e-06	5.157274e-07	2.158108e-11	3.570569e+00	1.031088e+00
1.960000e-06	5.625574e-07	3.290377e-11	3.894790e+00	2.003610e+00
1.970000e-06	6.093606e-07	4.731463e-11	4.218826e+00	2.981421e+00
1.980000e-06	6.560353e-07	6.512016e-11	4.541972e+00	3.963282e+00
1.990000e-06	7.026463e-07	8.395521e-11	4.864677e+00	4.947928e+00
2.000000e-06	7.491300e-07	1.005679e-10	5.186501e+00	5.934066e+00
2.010000e-06	7.956187e-07	1.140454e-10	5.508359e+00	6.920392e+00
2.020000e-06	8.420854e-07	1.242620e-10	5.830065e+00	7.905588e+00
2.030000e-06	8.883654e-07	1.351602e-10	6.150478e+00	8.888337e+00
2.040000e-06	9.346104e-07	1.471202e-10	6.470650e+00	9.867326e+00
2.050000e-06	9.808822e-07	1.602247e-10	6.791006e+00	1.084125e+01
2.060000e-06	1.027086e-06	1.742786e-10	7.110891e+00	1.180884e+01
2.070000e-06	1.073145e-06	1.902225e-10	7.429778e+00	1.276883e+01
2.080000e-06	1.119066e-06	2.064685e-10	7.747705e+00	1.371999e+01
2.090000e-06	1.164891e-06	2.202741e-10	8.064964e+00	1.466116e+01
2.100000e-06	1.210641e-06	2.323847e-10	8.381709e+00	1.559118e+01
2.110000e-06	1.256387e-06	2.427629e-10	8.698423e+00	1.650898e+01
2.120000e-06	1.302091e-06	2.526910e-10	9.014851e+00	1.741352e+01
2.130000e-06	1.347682e-06	2.638842e-10	9.330492e+00	1.830384e+01
2.140000e-06	1.393187e-06	2.754963e-10	9.645543e+00	1.917904e+01
2.150000e-06	1.438543e-06	2.870924e-10	9.959558e+00	2.003828e+01
2.160000e-06	1.483733e-06	2.993991e-10	1.027243e+01	2.088082e+01
2.170000e-06	1.528824e-06	3.128532e-10	1.058461e+01	2.170596e+01
2.180000e-06	1.573919e-06	3.244006e-10	1.089681e+01	2.251311e+01
2.190000e-06	1.619017e-06	3.336368e-10	1.120904e+01	2.330175e+01
2.200000e-06	1.663949e-06	3.423115e-10	1.152013e+01	2.407145e+01
2.210000e-06	1.708670e-06	3.508774e-10	1.182975e+01	2.482184e+01
2.220000e-06	1.753255e-06	3.607814e-10	1.213842e+01	2.555266e+01
2.230000e-06	1.797709e-06	3.710027e-10	1.244619e+01	2.626370e+01
2.240000e-06	1.842029e-06	3.809910e-10	1.275304e+01	2.695487e+01
2.250000e-06	1.886244e-06	3.897179e-10	1.305915e+01	2.762612e+01
2.260000e-06	1.930357e-06	3.981101e-10	1.336457e+01	2.827751e+01
2.270000e-06	1.974355e-06	4.067982e-10	1.366918e+01	2.890914e+01
2.280000e-06	2.018226e-06	4.152226e-10	1.397292e+01	2.952121e+01
2.290000e-06	2.062007e-06	4.224935e-10	1.427603e+01	3.011397e+01
2.300000e-06	2.105749e-06	4.299303e-10	1.457887e+01	3.068772e+01
2.310000e-06	2.149470e-06	4.394006e-10	1.488157e+01	3.124285e+01
2.320000e-06	2.193147e-06	4.481681e-10	1.518396e+01	3.177977e+01
2.330000e-06	2.236671e-06	4.542951e-10	1.548529e+01	3.229896e+01
2.340000e-06	2.280081e-06	4.584379e-10	1.578583e+01	3.280093e+01
2.350000e-06	2.323383e-06	4.618266e-10	1.608563e+01	3.328623e+01
2.360000e-06	2.366485e-06	4.667953e-10	1.638404e+01	3.375543e+01
2.370000e-06	2.409421e-06	4.737759e-10	1.668130e+01	3.420914e+01
2.380000e-06	2.452116e-06	4.816461e-10	1.697690e+01	3.464799e+01
2.390000e-06	2.494479e-06	4.888900e-10	1.727019e+01	3.507261e+01
2.400000e-06	2.536560e-06	4.963543e-10	1.756153e+01	3.548365e+01
2.410000e-06	2.578335e-06	5.042410e-10	1.785076e+01	3.588176e+01
2.420000e-06	2.619734e-06	5.124877e-10	1.813737e+01	3.626757e+01
2.430000e-06	2.660828e-06	5.215076e-10	1.842189e+01	3.664173e+01
2.440000e-06	2.701713e-06	5.309589e-10	1.870494e+01	3.700486e+01
2.450000e-06	2.742286e-06	5.388543e-10	1.898585e+01	3.735758e+01
2.460000e-06	2.782568e-06	5.431578e-10	1.926474e+01	3.770046e+01
2.470000e-06	2.822630e-06	5.453857e-10	1.954210e+01	3.803408e+01
2.480000e-06	2.862468e-06	5.478395e-10	1.981792e+01	3.835896e+01
2.490000e-06	2.902186e-06	5.537423e-10	2.009290e+01	3.867561e+01
2.500000e-06	2.941773e-06	5.621126e-10	2.036697e+01	3.898451e+01
2.510000e-06	2.981236e-06	5.693344e-10	2.064018e+01	3.928608e+01
2.520000e-06	3.020612e-06	5.760996e-10	2.091280e+01	3.958073e+01
2.530000e-06	3.059839e-06	5.814522e-10	2.118438e+01	3.986883e+01
2.540000e-06	3.098830e-06	5.828996e-10	2.145433e+01	4.015069e+01
2.550000e-06	3.137590e-06	5.830390e-10	2.172268e+01	4.042659e+01
2.560000e-06	3.176130e-06	5.844919e-10	2.198951e+01	4.069679e+01
2.570000e-06	3.214403e-06	5.877077e-10	2.225449e+01	4.096149e+01
2.580000e-06	3.252453e-06	5.931976e-10	2.251792e+01	4.122087e+01
2.590000e-06	3.290293e-06	5.994050e-10	2.277990e+01	4.147505e+01
2.600000e-06	3.327879e-06	6.041058e-10	2.304012e+01	4.172415e+01
2.610000e-06	3.365204e-06	6.098060e-10	2.329854e+01	4.196822e+01
2.620000e-06	3.402335e-06	6.154701e-10	2.355561e+01	4.220731e+01
2.630000e-06	3.439277e-06	6.180291e-10	2.381137e+01	4.244144e+01
2.640000e-06	3.475950e-06	6.186039e-10	2.406527e+01	4.267058e+01
2.650000e-06	3.512322e-06	6.202320e-10	2.431709e+01	4.289470e+01
2.660000e-06	3.548431e-06	6.220723e-10	2.456708e+01	4.311376e+01
2.670000e-06	3.584363e-06	6.236128e-10	2.481586e+01	4.332769e+01
2.680000e-06	3.620130e-06	6.265769e-10	2.506348e+01	4.353640e+01
2.690000e-06	3.655772e-06	6.311595e-10	2.531025e+01	4.373980e+01
2.700000e-06	3.691344e-06	6.364589e-10	2.555652e+01	4.393780e+01
2.710000e-06	3.726807e-06	6.407856e-10	2.580205e+01	4.413031e+01
2.720000e-06	3.762041e-06	6.459567e-10	2.604598e+01	4.431722e+01
2.730000e-06	3.796983e-06	6.513260e-10	2.628790e+01	4.449843e+01
2.740000e-06	3.831629e-06	6.551514e-10	2.652777e+01	4.467386e+01
2.750000e-06	3.865812e-06	6.566682e-10	2.676443e+01	4.484342e+01
2.760000e-06	3.899453e-06	6.568258e-10	2.699734e+01	4.500705e+01
2.770000e-06	3.932595e-06	6.586524e-10	2.722679e+01	4.516468e+01
2.780000e-06	3.965289e-06	6.631401e-10	2.745314e+01	4.531626e+01
2.790000e-06	3.997615e-06	6.682843e-10	2.767695e+01	4.546178e+01
2.800000e-06	4.029632e-06	6.724364e-10	2.789862e+01	4.560121e+01
2.810000e-06	4.061450e-06	6.757499e-10	2.811890e+01	4.573456e+01
2.820000e-06	4.093102e-06	6.790224e-10	2.833804e+01	4.586187e+01
2.830000e-06	4.124526e-06	6.806416e-10	2.855560e+01	4.598316e+01
2.840000e-06	4.155716e-06	6.796516e-10	2.877154e+01	4.609851e+01
2.850000e-06	4.186717e-06	6.790593e-10	2.898617e+01	4.620799e+01
2.860000e-06	4.217541e-06	6.793569e-10	2.919957e+01	4.631172e+01
2.870000e-06	4.248099e-06	6.800498e-10	2.941114e+01	4.640981e+01
2.880000e-06	4.278261e-06	6.824658e-10	2.961997e+01	4.650240e+01
2.890000e-06	4.308058e-06	6.842143e-10	2.982626e+01	4.658964e+01
2.900000e-06	4.337501e-06	6.865482e-10	3.003010e+01	4.667170e+01
