# Temperatura_=_12.38
# Concentracion g/m^3_=_1620.0
# C_Vs_to_Am_M_A/Vsm_=_65563218390.804596
# pendiente_HvsI_1/m_=_3716.3
# ordenada_HvsI_A/m_=_1297.0
# frecuencia_Hz_=_135103.5364119629

Tiempo_(s)	Campo_(V.s)	Magnetizacion_(V.s)	Campo_(kA/m)	Magnetizacion_(A/m)
0.000000e+00	-5.542480e-06	-7.648340e-10	-3.837804e+01	-5.141952e+01
1.000000e-08	-5.542675e-06	-7.642481e-10	-3.837939e+01	-5.140944e+01
2.000000e-08	-5.542527e-06	-7.672182e-10	-3.837837e+01	-5.139814e+01
3.000000e-08	-5.541961e-06	-7.710823e-10	-3.837445e+01	-5.138556e+01
4.000000e-08	-5.540889e-06	-7.730572e-10	-3.836702e+01	-5.137166e+01
5.000000e-08	-5.539191e-06	-7.731777e-10	-3.835527e+01	-5.135637e+01
6.000000e-08	-5.536872e-06	-7.691491e-10	-3.833921e+01	-5.133965e+01
7.000000e-08	-5.534069e-06	-7.698030e-10	-3.831980e+01	-5.132147e+01
8.000000e-08	-5.530851e-06	-7.676504e-10	-3.829752e+01	-5.130179e+01
9.000000e-08	-5.527117e-06	-7.549918e-10	-3.827166e+01	-5.128059e+01
1.000000e-07	-5.522916e-06	-7.648348e-10	-3.824257e+01	-5.125785e+01
1.100000e-07	-5.518407e-06	-7.868615e-10	-3.821135e+01	-5.123358e+01
1.200000e-07	-5.513643e-06	-7.436667e-10	-3.817836e+01	-5.120775e+01
1.300000e-07	-5.508660e-06	-7.343956e-10	-3.814386e+01	-5.118040e+01
1.400000e-07	-5.503333e-06	-7.322981e-10	-3.810698e+01	-5.115154e+01
1.500000e-07	-5.497618e-06	-7.660400e-10	-3.806740e+01	-5.112119e+01
1.600000e-07	-5.491580e-06	-7.442824e-10	-3.802559e+01	-5.108939e+01
1.700000e-07	-5.485154e-06	-7.379914e-10	-3.798109e+01	-5.105618e+01
1.800000e-07	-5.478309e-06	-7.686329e-10	-3.793370e+01	-5.102160e+01
1.900000e-07	-5.471072e-06	-7.552237e-10	-3.788359e+01	-5.098572e+01
2.000000e-07	-5.463452e-06	-7.313336e-10	-3.783083e+01	-5.094860e+01
2.100000e-07	-5.455551e-06	-7.043665e-10	-3.777611e+01	-5.091028e+01
2.200000e-07	-5.447408e-06	-7.406571e-10	-3.771973e+01	-5.087085e+01
2.300000e-07	-5.438886e-06	-7.489502e-10	-3.766072e+01	-5.083037e+01
2.400000e-07	-5.429800e-06	-7.615147e-10	-3.759781e+01	-5.078890e+01
2.500000e-07	-5.420134e-06	-7.490658e-10	-3.753088e+01	-5.074651e+01
2.600000e-07	-5.409844e-06	-7.690012e-10	-3.745962e+01	-5.070327e+01
2.700000e-07	-5.398939e-06	-7.592268e-10	-3.738411e+01	-5.065923e+01
2.800000e-07	-5.387520e-06	-7.632484e-10	-3.730505e+01	-5.061445e+01
2.900000e-07	-5.375764e-06	-7.577666e-10	-3.722364e+01	-5.056898e+01
3.000000e-07	-5.363715e-06	-7.763982e-10	-3.714021e+01	-5.052286e+01
3.100000e-07	-5.351211e-06	-7.757509e-10	-3.705363e+01	-5.047612e+01
3.200000e-07	-5.338336e-06	-7.764222e-10	-3.696448e+01	-5.042879e+01
3.300000e-07	-5.325115e-06	-7.678686e-10	-3.687293e+01	-5.038089e+01
3.400000e-07	-5.311426e-06	-7.662827e-10	-3.677815e+01	-5.033240e+01
3.500000e-07	-5.297343e-06	-7.681957e-10	-3.668063e+01	-5.028332e+01
3.600000e-07	-5.282846e-06	-7.586714e-10	-3.658024e+01	-5.023364e+01
3.700000e-07	-5.267826e-06	-7.542682e-10	-3.647624e+01	-5.018330e+01
3.800000e-07	-5.252269e-06	-7.707159e-10	-3.636852e+01	-5.013227e+01
3.900000e-07	-5.236241e-06	-7.830688e-10	-3.625754e+01	-5.008048e+01
4.000000e-07	-5.219870e-06	-7.562835e-10	-3.614418e+01	-5.002786e+01
4.100000e-07	-5.203110e-06	-7.562246e-10	-3.602812e+01	-4.997432e+01
4.200000e-07	-5.185964e-06	-7.708807e-10	-3.590940e+01	-4.991976e+01
4.300000e-07	-5.168472e-06	-7.605448e-10	-3.578828e+01	-4.986407e+01
4.400000e-07	-5.150612e-06	-7.392546e-10	-3.566461e+01	-4.980714e+01
4.500000e-07	-5.132352e-06	-7.743511e-10	-3.553817e+01	-4.974884e+01
4.600000e-07	-5.113637e-06	-7.737180e-10	-3.540858e+01	-4.968902e+01
4.700000e-07	-5.094553e-06	-7.455400e-10	-3.527644e+01	-4.962755e+01
4.800000e-07	-5.075186e-06	-7.505976e-10	-3.514233e+01	-4.956428e+01
4.900000e-07	-5.055548e-06	-7.770350e-10	-3.500636e+01	-4.949906e+01
5.000000e-07	-5.035739e-06	-7.428610e-10	-3.486919e+01	-4.943175e+01
5.100000e-07	-5.015709e-06	-7.423567e-10	-3.473050e+01	-4.936218e+01
5.200000e-07	-4.995318e-06	-7.683678e-10	-3.458930e+01	-4.929022e+01
5.300000e-07	-4.974556e-06	-7.552137e-10	-3.444554e+01	-4.921571e+01
5.400000e-07	-4.953421e-06	-7.304913e-10	-3.429919e+01	-4.913853e+01
5.500000e-07	-4.931919e-06	-7.627841e-10	-3.415031e+01	-4.905855e+01
5.600000e-07	-4.910094e-06	-7.521477e-10	-3.399919e+01	-4.897565e+01
5.700000e-07	-4.887981e-06	-7.179331e-10	-3.384606e+01	-4.888972e+01
5.800000e-07	-4.865524e-06	-7.348887e-10	-3.369056e+01	-4.880066e+01
5.900000e-07	-4.842649e-06	-7.577606e-10	-3.353217e+01	-4.870841e+01
6.000000e-07	-4.819432e-06	-7.269782e-10	-3.337141e+01	-4.861290e+01
6.100000e-07	-4.796011e-06	-7.295080e-10	-3.320923e+01	-4.851409e+01
6.200000e-07	-4.772370e-06	-7.490704e-10	-3.304554e+01	-4.841195e+01
6.300000e-07	-4.748403e-06	-7.223676e-10	-3.287958e+01	-4.830649e+01
6.400000e-07	-4.724097e-06	-7.048742e-10	-3.271128e+01	-4.819770e+01
6.500000e-07	-4.699496e-06	-7.299082e-10	-3.254093e+01	-4.808563e+01
6.600000e-07	-4.674421e-06	-7.288268e-10	-3.236730e+01	-4.797034e+01
6.700000e-07	-4.648707e-06	-7.112108e-10	-3.218925e+01	-4.785190e+01
6.800000e-07	-4.622425e-06	-7.273923e-10	-3.200726e+01	-4.773041e+01
6.900000e-07	-4.595655e-06	-7.304566e-10	-3.182190e+01	-4.760599e+01
7.000000e-07	-4.568448e-06	-7.101349e-10	-3.163351e+01	-4.747876e+01
7.100000e-07	-4.540931e-06	-7.083227e-10	-3.144297e+01	-4.734887e+01
7.200000e-07	-4.513263e-06	-7.167462e-10	-3.125139e+01	-4.721651e+01
7.300000e-07	-4.485449e-06	-6.984919e-10	-3.105880e+01	-4.708184e+01
7.400000e-07	-4.457417e-06	-7.005558e-10	-3.086469e+01	-4.694505e+01
7.500000e-07	-4.429179e-06	-7.162779e-10	-3.066916e+01	-4.680636e+01
7.600000e-07	-4.400732e-06	-7.147595e-10	-3.047219e+01	-4.666598e+01
7.700000e-07	-4.371905e-06	-7.040343e-10	-3.027258e+01	-4.652411e+01
7.800000e-07	-4.342725e-06	-7.125393e-10	-3.007052e+01	-4.638097e+01
7.900000e-07	-4.313260e-06	-7.035738e-10	-2.986650e+01	-4.623680e+01
8.000000e-07	-4.283451e-06	-6.896500e-10	-2.966009e+01	-4.609179e+01
8.100000e-07	-4.253363e-06	-6.902681e-10	-2.945175e+01	-4.594617e+01
8.200000e-07	-4.223024e-06	-6.964555e-10	-2.924167e+01	-4.580014e+01
8.300000e-07	-4.192430e-06	-6.880065e-10	-2.902983e+01	-4.565389e+01
8.400000e-07	-4.161526e-06	-6.931139e-10	-2.881584e+01	-4.550759e+01
8.500000e-07	-4.130293e-06	-6.979994e-10	-2.859957e+01	-4.536141e+01
8.600000e-07	-4.098834e-06	-6.892838e-10	-2.838174e+01	-4.521550e+01
8.700000e-07	-4.067204e-06	-6.802617e-10	-2.816272e+01	-4.506997e+01
8.800000e-07	-4.035412e-06	-6.831835e-10	-2.794259e+01	-4.492493e+01
8.900000e-07	-4.003394e-06	-6.758358e-10	-2.772088e+01	-4.478046e+01
9.000000e-07	-3.971117e-06	-6.686729e-10	-2.749738e+01	-4.463659e+01
9.100000e-07	-3.938578e-06	-6.714311e-10	-2.727207e+01	-4.449336e+01
9.200000e-07	-3.905634e-06	-6.701598e-10	-2.704395e+01	-4.435075e+01
9.300000e-07	-3.872178e-06	-6.640373e-10	-2.681230e+01	-4.420872e+01
9.400000e-07	-3.838236e-06	-6.684274e-10	-2.657727e+01	-4.406721e+01
9.500000e-07	-3.803899e-06	-6.709836e-10	-2.633951e+01	-4.392612e+01
9.600000e-07	-3.769138e-06	-6.615405e-10	-2.609881e+01	-4.378531e+01
9.700000e-07	-3.733968e-06	-6.582081e-10	-2.585528e+01	-4.364463e+01
9.800000e-07	-3.698551e-06	-6.586041e-10	-2.561004e+01	-4.350389e+01
9.900000e-07	-3.663001e-06	-6.535330e-10	-2.536388e+01	-4.336286e+01
1.000000e-06	-3.627334e-06	-6.486148e-10	-2.511691e+01	-4.322132e+01
1.010000e-06	-3.591514e-06	-6.530541e-10	-2.486888e+01	-4.307898e+01
1.020000e-06	-3.555485e-06	-6.509709e-10	-2.461940e+01	-4.293556e+01
1.030000e-06	-3.519175e-06	-6.463290e-10	-2.436798e+01	-4.279075e+01
1.040000e-06	-3.482602e-06	-6.450156e-10	-2.411473e+01	-4.264421e+01
1.050000e-06	-3.445876e-06	-6.412759e-10	-2.386043e+01	-4.249561e+01
1.060000e-06	-3.408983e-06	-6.289764e-10	-2.360497e+01	-4.234459e+01
1.070000e-06	-3.371753e-06	-6.243300e-10	-2.334718e+01	-4.219078e+01
1.080000e-06	-3.334231e-06	-6.226666e-10	-2.308736e+01	-4.203382e+01
1.090000e-06	-3.296468e-06	-6.205558e-10	-2.282588e+01	-4.187334e+01
1.100000e-06	-3.258441e-06	-6.179215e-10	-2.256257e+01	-4.170896e+01
1.110000e-06	-3.220199e-06	-6.169394e-10	-2.229777e+01	-4.154032e+01
1.120000e-06	-3.181710e-06	-6.082021e-10	-2.203126e+01	-4.136706e+01
1.130000e-06	-3.142977e-06	-6.010707e-10	-2.176306e+01	-4.118885e+01
1.140000e-06	-3.104031e-06	-5.978910e-10	-2.149338e+01	-4.100534e+01
1.150000e-06	-3.064919e-06	-5.937582e-10	-2.122255e+01	-4.081622e+01
1.160000e-06	-3.025698e-06	-5.876017e-10	-2.095098e+01	-4.062121e+01
1.170000e-06	-2.986354e-06	-5.860700e-10	-2.067855e+01	-4.042003e+01
1.180000e-06	-2.946832e-06	-5.857053e-10	-2.040488e+01	-4.021243e+01
1.190000e-06	-2.907169e-06	-5.829717e-10	-2.013024e+01	-3.999821e+01
1.200000e-06	-2.867401e-06	-5.796989e-10	-1.985487e+01	-3.977718e+01
1.210000e-06	-2.827484e-06	-5.763605e-10	-1.957847e+01	-3.954917e+01
1.220000e-06	-2.787352e-06	-5.694187e-10	-1.930059e+01	-3.931405e+01
1.230000e-06	-2.746985e-06	-5.643399e-10	-1.902107e+01	-3.907175e+01
1.240000e-06	-2.706417e-06	-5.646434e-10	-1.874016e+01	-3.882218e+01
1.250000e-06	-2.665735e-06	-5.638263e-10	-1.845846e+01	-3.856532e+01
1.260000e-06	-2.624820e-06	-5.603869e-10	-1.817516e+01	-3.830117e+01
1.270000e-06	-2.583609e-06	-5.578709e-10	-1.788980e+01	-3.802975e+01
1.280000e-06	-2.542105e-06	-5.552455e-10	-1.760241e+01	-3.775113e+01
1.290000e-06	-2.500194e-06	-5.460752e-10	-1.731220e+01	-3.746538e+01
1.300000e-06	-2.457862e-06	-5.373156e-10	-1.701908e+01	-3.717261e+01
1.310000e-06	-2.415156e-06	-5.331523e-10	-1.672338e+01	-3.687295e+01
1.320000e-06	-2.372253e-06	-5.283528e-10	-1.642630e+01	-3.656653e+01
1.330000e-06	-2.329168e-06	-5.258018e-10	-1.612796e+01	-3.625353e+01
1.340000e-06	-2.285831e-06	-5.276622e-10	-1.582788e+01	-3.593410e+01
1.350000e-06	-2.242349e-06	-5.244338e-10	-1.552680e+01	-3.560843e+01
1.360000e-06	-2.198828e-06	-5.176258e-10	-1.522544e+01	-3.527670e+01
1.370000e-06	-2.155242e-06	-5.119545e-10	-1.492364e+01	-3.493908e+01
1.380000e-06	-2.111562e-06	-5.078382e-10	-1.462118e+01	-3.459575e+01
1.390000e-06	-2.067806e-06	-5.007480e-10	-1.431820e+01	-3.424687e+01
1.400000e-06	-2.023954e-06	-4.957194e-10	-1.401456e+01	-3.389258e+01
1.410000e-06	-1.979970e-06	-4.913023e-10	-1.371000e+01	-3.353303e+01
1.420000e-06	-1.935845e-06	-4.861101e-10	-1.340446e+01	-3.316832e+01
1.430000e-06	-1.891675e-06	-4.799812e-10	-1.309861e+01	-3.279853e+01
1.440000e-06	-1.847447e-06	-4.756961e-10	-1.279236e+01	-3.242371e+01
1.450000e-06	-1.803123e-06	-4.697357e-10	-1.248544e+01	-3.204389e+01
1.460000e-06	-1.758675e-06	-4.617011e-10	-1.217767e+01	-3.165903e+01
1.470000e-06	-1.714021e-06	-4.538880e-10	-1.186847e+01	-3.126910e+01
1.480000e-06	-1.669220e-06	-4.446930e-10	-1.155826e+01	-3.087398e+01
1.490000e-06	-1.624194e-06	-4.358342e-10	-1.124648e+01	-3.047353e+01
1.500000e-06	-1.578979e-06	-4.316908e-10	-1.093339e+01	-3.006756e+01
1.510000e-06	-1.533746e-06	-4.270707e-10	-1.062018e+01	-2.965584e+01
1.520000e-06	-1.488417e-06	-4.173520e-10	-1.030631e+01	-2.923809e+01
1.530000e-06	-1.442944e-06	-4.037304e-10	-9.991443e+00	-2.881397e+01
1.540000e-06	-1.397320e-06	-3.932570e-10	-9.675525e+00	-2.838312e+01
1.550000e-06	-1.351665e-06	-3.850000e-10	-9.359392e+00	-2.794511e+01
1.560000e-06	-1.306027e-06	-3.778132e-10	-9.043381e+00	-2.749948e+01
1.570000e-06	-1.260312e-06	-3.748805e-10	-8.726836e+00	-2.704572e+01
1.580000e-06	-1.214492e-06	-3.723303e-10	-8.409561e+00	-2.658331e+01
1.590000e-06	-1.168479e-06	-3.658168e-10	-8.090948e+00	-2.611165e+01
1.600000e-06	-1.122355e-06	-3.560780e-10	-7.771571e+00	-2.563015e+01
1.610000e-06	-1.076247e-06	-3.439383e-10	-7.452308e+00	-2.513819e+01
1.620000e-06	-1.030036e-06	-3.309935e-10	-7.132321e+00	-2.463509e+01
1.630000e-06	-9.836980e-07	-3.186029e-10	-6.811464e+00	-2.412022e+01
1.640000e-06	-9.373689e-07	-3.088114e-10	-6.490665e+00	-2.359287e+01
1.650000e-06	-8.909364e-07	-3.023834e-10	-6.169151e+00	-2.305239e+01
1.660000e-06	-8.444262e-07	-2.965877e-10	-5.847098e+00	-2.249809e+01
1.670000e-06	-7.979395e-07	-2.908851e-10	-5.525208e+00	-2.192931e+01
1.680000e-06	-7.514442e-07	-2.809796e-10	-5.203259e+00	-2.134539e+01
1.690000e-06	-7.049648e-07	-2.714508e-10	-4.881419e+00	-2.074572e+01
1.700000e-06	-6.583294e-07	-2.620461e-10	-4.558500e+00	-2.012970e+01
1.710000e-06	-6.115542e-07	-2.516307e-10	-4.234612e+00	-1.949676e+01
1.720000e-06	-5.647557e-07	-2.393606e-10	-3.910563e+00	-1.884640e+01
1.730000e-06	-5.178351e-07	-2.290404e-10	-3.585669e+00	-1.817814e+01
1.740000e-06	-4.709528e-07	-2.177803e-10	-3.261039e+00	-1.749158e+01
1.750000e-06	-4.241378e-07	-2.074973e-10	-2.936876e+00	-1.678636e+01
1.760000e-06	-3.771660e-07	-1.999671e-10	-2.611627e+00	-1.606222e+01
1.770000e-06	-3.301697e-07	-1.947630e-10	-2.286209e+00	-1.531894e+01
1.780000e-06	-2.832399e-07	-1.888984e-10	-1.961251e+00	-1.455640e+01
1.790000e-06	-2.362487e-07	-1.768005e-10	-1.635868e+00	-1.377455e+01
1.800000e-06	-1.892067e-07	-1.605394e-10	-1.310132e+00	-1.297342e+01
1.810000e-06	-1.421379e-07	-1.427244e-10	-9.842119e-01	-1.215316e+01
1.820000e-06	-9.509759e-08	-1.258116e-10	-6.584884e-01	-1.131397e+01
1.830000e-06	-4.805760e-08	-1.155922e-10	-3.327674e-01	-1.045617e+01
1.840000e-06	-9.508170e-10	-1.078656e-10	-6.583785e-03	-9.580156e+00
1.850000e-06	4.606696e-08	-1.032110e-10	3.189835e-01	-8.686436e+00
1.860000e-06	9.310542e-08	-9.607538e-11	6.446940e-01	-7.775599e+00
1.870000e-06	1.402331e-07	-8.179994e-11	9.710224e-01	-6.848329e+00
1.880000e-06	1.873170e-07	-6.175921e-11	1.297048e+00	-5.905398e+00
1.890000e-06	2.344275e-07	-4.147175e-11	1.623257e+00	-4.947668e+00
1.900000e-06	2.814823e-07	-2.665636e-11	1.949081e+00	-3.976082e+00
1.910000e-06	3.284278e-07	-1.491541e-11	2.274147e+00	-2.991665e+00
1.920000e-06	3.754820e-07	-7.099540e-12	2.599967e+00	-1.995515e+00
1.930000e-06	4.225982e-07	1.485001e-12	2.926216e+00	-9.888001e-01
1.940000e-06	4.695705e-07	1.204397e-11	3.251468e+00	2.724894e-02
1.950000e-06	5.164530e-07	2.527962e-11	3.576098e+00	1.051344e+00
1.960000e-06	5.632988e-07	4.181706e-11	3.900475e+00	2.082148e+00
1.970000e-06	6.100750e-07	5.833149e-11	4.224369e+00	3.118281e+00
1.980000e-06	6.566601e-07	7.393246e-11	4.546941e+00	4.158328e+00
1.990000e-06	7.031144e-07	8.908145e-11	4.868606e+00	5.200848e+00
2.000000e-06	7.496294e-07	1.024367e-10	5.190693e+00	6.244383e+00
2.010000e-06	7.961678e-07	1.162938e-10	5.512940e+00	7.287464e+00
2.020000e-06	8.426484e-07	1.284274e-10	5.834788e+00	8.328620e+00
2.030000e-06	8.890816e-07	1.409926e-10	6.156307e+00	9.366390e+00
2.040000e-06	9.353792e-07	1.539904e-10	6.476888e+00	1.039933e+01
2.050000e-06	9.815640e-07	1.693581e-10	6.796687e+00	1.142600e+01
2.060000e-06	1.027769e-06	1.856535e-10	7.116629e+00	1.244504e+01
2.070000e-06	1.073950e-06	2.036260e-10	7.436401e+00	1.345507e+01
2.080000e-06	1.120044e-06	2.197023e-10	7.755569e+00	1.445481e+01
2.090000e-06	1.166001e-06	2.330896e-10	8.073795e+00	1.544299e+01
2.100000e-06	1.211837e-06	2.447681e-10	8.391174e+00	1.641844e+01
2.110000e-06	1.257631e-06	2.554071e-10	8.708270e+00	1.738004e+01
2.120000e-06	1.303327e-06	2.666763e-10	9.024688e+00	1.832673e+01
2.130000e-06	1.348852e-06	2.801608e-10	9.339918e+00	1.925756e+01
2.140000e-06	1.394363e-06	2.946043e-10	9.655052e+00	2.017163e+01
2.150000e-06	1.439813e-06	3.082373e-10	9.969761e+00	2.106814e+01
2.160000e-06	1.485147e-06	3.209742e-10	1.028367e+01	2.194639e+01
2.170000e-06	1.530393e-06	3.329889e-10	1.059697e+01	2.280574e+01
2.180000e-06	1.575450e-06	3.432446e-10	1.090896e+01	2.364568e+01
2.190000e-06	1.620397e-06	3.505231e-10	1.122018e+01	2.446577e+01
2.200000e-06	1.665313e-06	3.593816e-10	1.153120e+01	2.526567e+01
2.210000e-06	1.710138e-06	3.707681e-10	1.184159e+01	2.604513e+01
2.220000e-06	1.754749e-06	3.856051e-10	1.215049e+01	2.680399e+01
2.230000e-06	1.799200e-06	3.987104e-10	1.245828e+01	2.754218e+01
2.240000e-06	1.843524e-06	4.069962e-10	1.276519e+01	2.825972e+01
2.250000e-06	1.887661e-06	4.124842e-10	1.307081e+01	2.895672e+01
2.260000e-06	1.931684e-06	4.179564e-10	1.337565e+01	2.963335e+01
2.270000e-06	1.975647e-06	4.268591e-10	1.368006e+01	3.028987e+01
2.280000e-06	2.019487e-06	4.372822e-10	1.398362e+01	3.092660e+01
2.290000e-06	2.063251e-06	4.481503e-10	1.428666e+01	3.154394e+01
2.300000e-06	2.106978e-06	4.584384e-10	1.458944e+01	3.214234e+01
2.310000e-06	2.150654e-06	4.674629e-10	1.489187e+01	3.272229e+01
2.320000e-06	2.194302e-06	4.748899e-10	1.519410e+01	3.328434e+01
2.330000e-06	2.237895e-06	4.803708e-10	1.549596e+01	3.382909e+01
2.340000e-06	2.281384e-06	4.862145e-10	1.579709e+01	3.435716e+01
2.350000e-06	2.324711e-06	4.940357e-10	1.609710e+01	3.486919e+01
2.360000e-06	2.367770e-06	5.028071e-10	1.639526e+01	3.536586e+01
2.370000e-06	2.410531e-06	5.092388e-10	1.669135e+01	3.584785e+01
2.380000e-06	2.453132e-06	5.156786e-10	1.698633e+01	3.631584e+01
2.390000e-06	2.495496e-06	5.228254e-10	1.727967e+01	3.677054e+01
2.400000e-06	2.537482e-06	5.293127e-10	1.757040e+01	3.721263e+01
2.410000e-06	2.579193e-06	5.376821e-10	1.785922e+01	3.764278e+01
2.420000e-06	2.620534e-06	5.489582e-10	1.814548e+01	3.806166e+01
2.430000e-06	2.661443e-06	5.587821e-10	1.842875e+01	3.846991e+01
2.440000e-06	2.702208e-06	5.647051e-10	1.871102e+01	3.886813e+01
2.450000e-06	2.742720e-06	5.701902e-10	1.899154e+01	3.925691e+01
2.460000e-06	2.782892e-06	5.753702e-10	1.926970e+01	3.963681e+01
2.470000e-06	2.822943e-06	5.799272e-10	1.954703e+01	4.000833e+01
2.480000e-06	2.862818e-06	5.852175e-10	1.982314e+01	4.037195e+01
2.490000e-06	2.902526e-06	5.907333e-10	2.009809e+01	4.072810e+01
2.500000e-06	2.942116e-06	5.983831e-10	2.037222e+01	4.107717e+01
2.510000e-06	2.981586e-06	6.068770e-10	2.064553e+01	4.141951e+01
2.520000e-06	3.020917e-06	6.152859e-10	2.091787e+01	4.175541e+01
2.530000e-06	3.060101e-06	6.216771e-10	2.118920e+01	4.208513e+01
2.540000e-06	3.099122e-06	6.250723e-10	2.145939e+01	4.240889e+01
2.550000e-06	3.137802e-06	6.264409e-10	2.172722e+01	4.272684e+01
2.560000e-06	3.176181e-06	6.280700e-10	2.199297e+01	4.303912e+01
2.570000e-06	3.214377e-06	6.311123e-10	2.225745e+01	4.334582e+01
2.580000e-06	3.252371e-06	6.352181e-10	2.252054e+01	4.364697e+01
2.590000e-06	3.290189e-06	6.411951e-10	2.278240e+01	4.394259e+01
2.600000e-06	3.327824e-06	6.464388e-10	2.304300e+01	4.423267e+01
2.610000e-06	3.365240e-06	6.514133e-10	2.330208e+01	4.451715e+01
2.620000e-06	3.402423e-06	6.559611e-10	2.355955e+01	4.479596e+01
2.630000e-06	3.439342e-06	6.586073e-10	2.381519e+01	4.506900e+01
2.640000e-06	3.475982e-06	6.590542e-10	2.406890e+01	4.533616e+01
2.650000e-06	3.512368e-06	6.601038e-10	2.432085e+01	4.559730e+01
2.660000e-06	3.548542e-06	6.654616e-10	2.457133e+01	4.585228e+01
2.670000e-06	3.584575e-06	6.687283e-10	2.482083e+01	4.610096e+01
2.680000e-06	3.620428e-06	6.706564e-10	2.506909e+01	4.634317e+01
2.690000e-06	3.656105e-06	6.732362e-10	2.531613e+01	4.657878e+01
2.700000e-06	3.691664e-06	6.761886e-10	2.556235e+01	4.680762e+01
2.710000e-06	3.727087e-06	6.799398e-10	2.580763e+01	4.702956e+01
2.720000e-06	3.762296e-06	6.852367e-10	2.605143e+01	4.724446e+01
2.730000e-06	3.797129e-06	6.919419e-10	2.629263e+01	4.745221e+01
2.740000e-06	3.831532e-06	6.968453e-10	2.653085e+01	4.765270e+01
2.750000e-06	3.865541e-06	6.990201e-10	2.676634e+01	4.784585e+01
2.760000e-06	3.899197e-06	6.999048e-10	2.699938e+01	4.803160e+01
2.770000e-06	3.932405e-06	7.013754e-10	2.722933e+01	4.820990e+01
2.780000e-06	3.965068e-06	7.038752e-10	2.745550e+01	4.838073e+01
2.790000e-06	3.997324e-06	7.081144e-10	2.767885e+01	4.854410e+01
2.800000e-06	4.029300e-06	7.137040e-10	2.790026e+01	4.870005e+01
2.810000e-06	4.061032e-06	7.194804e-10	2.811998e+01	4.884862e+01
2.820000e-06	4.092639e-06	7.242174e-10	2.833884e+01	4.898990e+01
2.830000e-06	4.124177e-06	7.247523e-10	2.855722e+01	4.912400e+01
2.840000e-06	4.155498e-06	7.222750e-10	2.877410e+01	4.925105e+01
2.850000e-06	4.186517e-06	7.218012e-10	2.898888e+01	4.937121e+01
2.860000e-06	4.217250e-06	7.238555e-10	2.920169e+01	4.948465e+01
2.870000e-06	4.247711e-06	7.271608e-10	2.941261e+01	4.959158e+01
2.880000e-06	4.277830e-06	7.294297e-10	2.962117e+01	4.969222e+01
2.890000e-06	4.307618e-06	7.307032e-10	2.982743e+01	4.978680e+01
2.900000e-06	4.337152e-06	7.321349e-10	3.003193e+01	4.987559e+01
