# Temperatura_=_-1.3
# Concentracion g/m^3_=_1620.0
# C_Vs_to_Am_M_A/Vsm_=_65563218390.804596
# pendiente_HvsI_1/m_=_3716.3
# ordenada_HvsI_A/m_=_1297.0
# frecuencia_Hz_=_135092.03827323567

Tiempo_(s)	Campo_(V.s)	Magnetizacion_(V.s)	Campo_(kA/m)	Magnetizacion_(A/m)
0.000000e+00	-5.531419e-06	-1.113197e-09	-3.837948e+01	-7.291885e+01
1.000000e-08	-5.531552e-06	-1.109381e-09	-3.838041e+01	-7.285068e+01
2.000000e-08	-5.531426e-06	-1.107449e-09	-3.837953e+01	-7.278125e+01
3.000000e-08	-5.530907e-06	-1.104601e-09	-3.837593e+01	-7.271077e+01
4.000000e-08	-5.529861e-06	-1.098677e-09	-3.836868e+01	-7.263943e+01
5.000000e-08	-5.528238e-06	-1.093661e-09	-3.835742e+01	-7.256743e+01
6.000000e-08	-5.526038e-06	-1.084425e-09	-3.834215e+01	-7.249496e+01
7.000000e-08	-5.523313e-06	-1.092955e-09	-3.832324e+01	-7.242217e+01
8.000000e-08	-5.520203e-06	-1.150577e-09	-3.830167e+01	-7.234922e+01
9.000000e-08	-5.516615e-06	-1.160496e-09	-3.827677e+01	-7.227626e+01
1.000000e-07	-5.512453e-06	-1.050950e-09	-3.824789e+01	-7.220342e+01
1.100000e-07	-5.508042e-06	-1.033100e-09	-3.821729e+01	-7.213079e+01
1.200000e-07	-5.503447e-06	-1.107559e-09	-3.818540e+01	-7.205848e+01
1.300000e-07	-5.498548e-06	-1.173993e-09	-3.815141e+01	-7.198656e+01
1.400000e-07	-5.493276e-06	-1.070197e-09	-3.811483e+01	-7.191507e+01
1.500000e-07	-5.487625e-06	-1.012170e-09	-3.807562e+01	-7.184406e+01
1.600000e-07	-5.481544e-06	-1.123824e-09	-3.803343e+01	-7.177354e+01
1.700000e-07	-5.474934e-06	-1.181536e-09	-3.798757e+01	-7.170351e+01
1.800000e-07	-5.468027e-06	-1.137202e-09	-3.793965e+01	-7.163393e+01
1.900000e-07	-5.460855e-06	-1.037789e-09	-3.788988e+01	-7.156478e+01
2.000000e-07	-5.453316e-06	-1.113387e-09	-3.783757e+01	-7.149597e+01
2.100000e-07	-5.445524e-06	-1.164033e-09	-3.778351e+01	-7.142743e+01
2.200000e-07	-5.437502e-06	-1.173372e-09	-3.772785e+01	-7.135905e+01
2.300000e-07	-5.429166e-06	-1.106311e-09	-3.767001e+01	-7.129072e+01
2.400000e-07	-5.420313e-06	-1.148457e-09	-3.760858e+01	-7.122228e+01
2.500000e-07	-5.410795e-06	-1.178024e-09	-3.754254e+01	-7.115360e+01
2.600000e-07	-5.400732e-06	-1.173185e-09	-3.747272e+01	-7.108450e+01
2.700000e-07	-5.390032e-06	-1.112481e-09	-3.739848e+01	-7.101478e+01
2.800000e-07	-5.378776e-06	-1.123419e-09	-3.732038e+01	-7.094426e+01
2.900000e-07	-5.367188e-06	-1.146861e-09	-3.723998e+01	-7.087273e+01
3.000000e-07	-5.355264e-06	-1.124714e-09	-3.715724e+01	-7.079996e+01
3.100000e-07	-5.342885e-06	-1.099253e-09	-3.707135e+01	-7.072571e+01
3.200000e-07	-5.330057e-06	-1.124572e-09	-3.698234e+01	-7.064977e+01
3.300000e-07	-5.316913e-06	-1.171884e-09	-3.689115e+01	-7.057187e+01
3.400000e-07	-5.303382e-06	-1.119103e-09	-3.679727e+01	-7.049177e+01
3.500000e-07	-5.289266e-06	-1.089262e-09	-3.669932e+01	-7.040923e+01
3.600000e-07	-5.274723e-06	-1.116659e-09	-3.659841e+01	-7.032398e+01
3.700000e-07	-5.259761e-06	-1.128504e-09	-3.649460e+01	-7.023579e+01
3.800000e-07	-5.244186e-06	-1.059905e-09	-3.638653e+01	-7.014439e+01
3.900000e-07	-5.228124e-06	-1.104267e-09	-3.627509e+01	-7.004956e+01
4.000000e-07	-5.211741e-06	-1.146957e-09	-3.616142e+01	-6.995104e+01
4.100000e-07	-5.194998e-06	-1.085423e-09	-3.604525e+01	-6.984861e+01
4.200000e-07	-5.177837e-06	-1.043007e-09	-3.592617e+01	-6.974204e+01
4.300000e-07	-5.160429e-06	-1.146992e-09	-3.580539e+01	-6.963114e+01
4.400000e-07	-5.142826e-06	-1.115149e-09	-3.568325e+01	-6.951569e+01
4.500000e-07	-5.124762e-06	-1.021917e-09	-3.555791e+01	-6.939552e+01
4.600000e-07	-5.106229e-06	-1.063542e-09	-3.542932e+01	-6.927045e+01
4.700000e-07	-5.087406e-06	-1.132742e-09	-3.529872e+01	-6.914034e+01
4.800000e-07	-5.068147e-06	-1.038547e-09	-3.516510e+01	-6.900506e+01
4.900000e-07	-5.048599e-06	-1.048755e-09	-3.502946e+01	-6.886447e+01
5.000000e-07	-5.028887e-06	-1.120645e-09	-3.489269e+01	-6.871850e+01
5.100000e-07	-5.008916e-06	-1.063748e-09	-3.475412e+01	-6.856706e+01
5.200000e-07	-4.988629e-06	-1.006756e-09	-3.461337e+01	-6.841011e+01
5.300000e-07	-4.968034e-06	-1.097579e-09	-3.447046e+01	-6.824761e+01
5.400000e-07	-4.947045e-06	-1.077489e-09	-3.432484e+01	-6.807955e+01
5.500000e-07	-4.925612e-06	-9.910053e-10	-3.417612e+01	-6.790594e+01
5.600000e-07	-4.903813e-06	-1.037950e-09	-3.402487e+01	-6.772683e+01
5.700000e-07	-4.881701e-06	-1.081601e-09	-3.387145e+01	-6.754228e+01
5.800000e-07	-4.859266e-06	-1.009199e-09	-3.371579e+01	-6.735236e+01
5.900000e-07	-4.836506e-06	-1.014629e-09	-3.355786e+01	-6.715717e+01
6.000000e-07	-4.813449e-06	-1.064829e-09	-3.339788e+01	-6.695686e+01
6.100000e-07	-4.790135e-06	-1.018338e-09	-3.323612e+01	-6.675155e+01
6.200000e-07	-4.766546e-06	-9.962527e-10	-3.307245e+01	-6.654143e+01
6.300000e-07	-4.742742e-06	-1.029448e-09	-3.290729e+01	-6.632667e+01
6.400000e-07	-4.718708e-06	-1.012215e-09	-3.274053e+01	-6.610748e+01
6.500000e-07	-4.694220e-06	-9.847959e-10	-3.257062e+01	-6.588407e+01
6.600000e-07	-4.669257e-06	-1.017650e-09	-3.239742e+01	-6.565670e+01
6.700000e-07	-4.643756e-06	-1.007140e-09	-3.222048e+01	-6.542559e+01
6.800000e-07	-4.617747e-06	-9.842706e-10	-3.204002e+01	-6.519101e+01
6.900000e-07	-4.591292e-06	-9.928053e-10	-3.185646e+01	-6.495324e+01
7.000000e-07	-4.564364e-06	-9.985372e-10	-3.166962e+01	-6.471255e+01
7.100000e-07	-4.537112e-06	-9.703575e-10	-3.148054e+01	-6.446922e+01
7.200000e-07	-4.509625e-06	-9.827940e-10	-3.128982e+01	-6.422353e+01
7.300000e-07	-4.481908e-06	-9.859512e-10	-3.109750e+01	-6.397579e+01
7.400000e-07	-4.453946e-06	-9.777515e-10	-3.090349e+01	-6.372627e+01
7.500000e-07	-4.425786e-06	-9.793145e-10	-3.070810e+01	-6.347525e+01
7.600000e-07	-4.397400e-06	-9.887949e-10	-3.051115e+01	-6.322302e+01
7.700000e-07	-4.368624e-06	-9.672728e-10	-3.031149e+01	-6.296984e+01
7.800000e-07	-4.339537e-06	-9.679656e-10	-3.010967e+01	-6.271598e+01
7.900000e-07	-4.310208e-06	-9.709146e-10	-2.990617e+01	-6.246168e+01
8.000000e-07	-4.280564e-06	-9.561209e-10	-2.970049e+01	-6.220718e+01
8.100000e-07	-4.250539e-06	-9.419746e-10	-2.949216e+01	-6.195268e+01
8.200000e-07	-4.220277e-06	-9.562352e-10	-2.928219e+01	-6.169839e+01
8.300000e-07	-4.189709e-06	-9.512537e-10	-2.907010e+01	-6.144448e+01
8.400000e-07	-4.158767e-06	-9.360761e-10	-2.885541e+01	-6.119111e+01
8.500000e-07	-4.127564e-06	-9.372532e-10	-2.863891e+01	-6.093840e+01
8.600000e-07	-4.096178e-06	-9.371003e-10	-2.842113e+01	-6.068646e+01
8.700000e-07	-4.064683e-06	-9.184077e-10	-2.820261e+01	-6.043537e+01
8.800000e-07	-4.033006e-06	-9.143464e-10	-2.798282e+01	-6.018517e+01
8.900000e-07	-4.001134e-06	-9.217098e-10	-2.776167e+01	-5.993587e+01
9.000000e-07	-3.968987e-06	-9.086425e-10	-2.753862e+01	-5.968748e+01
9.100000e-07	-3.936527e-06	-9.006353e-10	-2.731340e+01	-5.943995e+01
9.200000e-07	-3.903704e-06	-9.104874e-10	-2.708566e+01	-5.919320e+01
9.300000e-07	-3.870442e-06	-9.104489e-10	-2.685487e+01	-5.894714e+01
9.400000e-07	-3.836764e-06	-8.959836e-10	-2.662120e+01	-5.870163e+01
9.500000e-07	-3.802552e-06	-8.999831e-10	-2.638382e+01	-5.845651e+01
9.600000e-07	-3.767897e-06	-8.993553e-10	-2.614338e+01	-5.821158e+01
9.700000e-07	-3.732967e-06	-8.877207e-10	-2.590101e+01	-5.796663e+01
9.800000e-07	-3.697812e-06	-8.793258e-10	-2.565709e+01	-5.772141e+01
9.900000e-07	-3.662473e-06	-8.805262e-10	-2.541190e+01	-5.747564e+01
1.000000e-06	-3.626871e-06	-8.667741e-10	-2.516487e+01	-5.722903e+01
1.010000e-06	-3.591055e-06	-8.604239e-10	-2.491636e+01	-5.698126e+01
1.020000e-06	-3.555160e-06	-8.621073e-10	-2.466731e+01	-5.673198e+01
1.030000e-06	-3.519103e-06	-8.616652e-10	-2.441713e+01	-5.648084e+01
1.040000e-06	-3.482786e-06	-8.508129e-10	-2.416514e+01	-5.622747e+01
1.050000e-06	-3.446207e-06	-8.467239e-10	-2.391134e+01	-5.597146e+01
1.060000e-06	-3.409285e-06	-8.354976e-10	-2.365516e+01	-5.571244e+01
1.070000e-06	-3.372035e-06	-8.242471e-10	-2.339670e+01	-5.544998e+01
1.080000e-06	-3.334554e-06	-8.202983e-10	-2.313664e+01	-5.518368e+01
1.090000e-06	-3.296892e-06	-8.211569e-10	-2.287533e+01	-5.491312e+01
1.100000e-06	-3.258976e-06	-8.128756e-10	-2.261225e+01	-5.463788e+01
1.110000e-06	-3.220818e-06	-8.063380e-10	-2.234749e+01	-5.435756e+01
1.120000e-06	-3.182490e-06	-8.006542e-10	-2.208155e+01	-5.407174e+01
1.130000e-06	-3.143932e-06	-7.909260e-10	-2.181402e+01	-5.378004e+01
1.140000e-06	-3.105148e-06	-7.804488e-10	-2.154492e+01	-5.348205e+01
1.150000e-06	-3.066177e-06	-7.759261e-10	-2.127452e+01	-5.317742e+01
1.160000e-06	-3.027016e-06	-7.698024e-10	-2.100280e+01	-5.286579e+01
1.170000e-06	-2.987680e-06	-7.628823e-10	-2.072987e+01	-5.254681e+01
1.180000e-06	-2.948216e-06	-7.576022e-10	-2.045606e+01	-5.222016e+01
1.190000e-06	-2.908590e-06	-7.512121e-10	-2.018111e+01	-5.188557e+01
1.200000e-06	-2.868771e-06	-7.450661e-10	-1.990483e+01	-5.154274e+01
1.210000e-06	-2.828934e-06	-7.383547e-10	-1.962842e+01	-5.119144e+01
1.220000e-06	-2.788980e-06	-7.332763e-10	-1.935120e+01	-5.083145e+01
1.230000e-06	-2.748793e-06	-7.247685e-10	-1.907237e+01	-5.046257e+01
1.240000e-06	-2.708386e-06	-7.183866e-10	-1.879201e+01	-5.008464e+01
1.250000e-06	-2.667821e-06	-7.128248e-10	-1.851055e+01	-4.969753e+01
1.260000e-06	-2.627035e-06	-7.086606e-10	-1.822755e+01	-4.930113e+01
1.270000e-06	-2.585857e-06	-7.027736e-10	-1.794185e+01	-4.889536e+01
1.280000e-06	-2.544359e-06	-6.948047e-10	-1.765391e+01	-4.848016e+01
1.290000e-06	-2.502490e-06	-6.830259e-10	-1.736340e+01	-4.805552e+01
1.300000e-06	-2.460370e-06	-6.728142e-10	-1.707116e+01	-4.762143e+01
1.310000e-06	-2.417983e-06	-6.624610e-10	-1.677706e+01	-4.717792e+01
1.320000e-06	-2.375338e-06	-6.528914e-10	-1.648117e+01	-4.672503e+01
1.330000e-06	-2.332550e-06	-6.446974e-10	-1.618429e+01	-4.626284e+01
1.340000e-06	-2.289468e-06	-6.413591e-10	-1.588536e+01	-4.579141e+01
1.350000e-06	-2.246210e-06	-6.357923e-10	-1.558522e+01	-4.531087e+01
1.360000e-06	-2.202820e-06	-6.301608e-10	-1.528416e+01	-4.482131e+01
1.370000e-06	-2.159318e-06	-6.227526e-10	-1.498232e+01	-4.432286e+01
1.380000e-06	-2.115762e-06	-6.146361e-10	-1.468012e+01	-4.381566e+01
1.390000e-06	-2.072107e-06	-6.035931e-10	-1.437722e+01	-4.329984e+01
1.400000e-06	-2.028369e-06	-5.953482e-10	-1.407374e+01	-4.277553e+01
1.410000e-06	-1.984517e-06	-5.893906e-10	-1.376947e+01	-4.224288e+01
1.420000e-06	-1.940488e-06	-5.833380e-10	-1.346399e+01	-4.170200e+01
1.430000e-06	-1.896360e-06	-5.773448e-10	-1.315780e+01	-4.115303e+01
1.440000e-06	-1.852198e-06	-5.724531e-10	-1.285138e+01	-4.059607e+01
1.450000e-06	-1.807853e-06	-5.640477e-10	-1.254370e+01	-4.003123e+01
1.460000e-06	-1.763350e-06	-5.517172e-10	-1.223492e+01	-3.945857e+01
1.470000e-06	-1.718844e-06	-5.394155e-10	-1.192612e+01	-3.887817e+01
1.480000e-06	-1.674227e-06	-5.274636e-10	-1.161654e+01	-3.829005e+01
1.490000e-06	-1.629419e-06	-5.171863e-10	-1.130565e+01	-3.769424e+01
1.500000e-06	-1.584452e-06	-5.110357e-10	-1.099364e+01	-3.709072e+01
1.510000e-06	-1.539423e-06	-5.062230e-10	-1.068121e+01	-3.647946e+01
1.520000e-06	-1.494294e-06	-4.978688e-10	-1.036809e+01	-3.586038e+01
1.530000e-06	-1.448996e-06	-4.860766e-10	-1.005379e+01	-3.523339e+01
1.540000e-06	-1.403574e-06	-4.737586e-10	-9.738630e+00	-3.459835e+01
1.550000e-06	-1.358052e-06	-4.621798e-10	-9.422779e+00	-3.395511e+01
1.560000e-06	-1.312451e-06	-4.497194e-10	-9.106382e+00	-3.330347e+01
1.570000e-06	-1.266781e-06	-4.399797e-10	-8.789500e+00	-3.264321e+01
1.580000e-06	-1.221008e-06	-4.307361e-10	-8.471906e+00	-3.197409e+01
1.590000e-06	-1.175150e-06	-4.198137e-10	-8.153723e+00	-3.129581e+01
1.600000e-06	-1.129225e-06	-4.074743e-10	-7.835070e+00	-3.060806e+01
1.610000e-06	-1.083181e-06	-3.973401e-10	-7.515596e+00	-2.991053e+01
1.620000e-06	-1.037078e-06	-3.867321e-10	-7.195714e+00	-2.920284e+01
1.630000e-06	-9.908699e-07	-3.751738e-10	-6.875103e+00	-2.848463e+01
1.640000e-06	-9.445485e-07	-3.618182e-10	-6.553704e+00	-2.775550e+01
1.650000e-06	-8.981831e-07	-3.466186e-10	-6.232000e+00	-2.701504e+01
1.660000e-06	-8.518121e-07	-3.328176e-10	-5.910257e+00	-2.626284e+01
1.670000e-06	-8.053996e-07	-3.174403e-10	-5.588227e+00	-2.549849e+01
1.680000e-06	-7.589141e-07	-3.043907e-10	-5.265689e+00	-2.472154e+01
1.690000e-06	-7.124059e-07	-2.964806e-10	-4.942994e+00	-2.393159e+01
1.700000e-06	-6.658400e-07	-2.882340e-10	-4.619899e+00	-2.312823e+01
1.710000e-06	-6.191873e-07	-2.768289e-10	-4.296202e+00	-2.231104e+01
1.720000e-06	-5.725561e-07	-2.599502e-10	-3.972653e+00	-2.147965e+01
1.730000e-06	-5.259425e-07	-2.422449e-10	-3.649227e+00	-2.063370e+01
1.740000e-06	-4.791253e-07	-2.240492e-10	-3.324388e+00	-1.977285e+01
1.750000e-06	-4.321619e-07	-2.100959e-10	-2.998534e+00	-1.889679e+01
1.760000e-06	-3.852669e-07	-1.970500e-10	-2.673156e+00	-1.800526e+01
1.770000e-06	-3.384519e-07	-1.877182e-10	-2.348332e+00	-1.709802e+01
1.780000e-06	-2.916528e-07	-1.795240e-10	-2.023619e+00	-1.617490e+01
1.790000e-06	-2.448551e-07	-1.653785e-10	-1.698915e+00	-1.523577e+01
1.800000e-06	-1.978950e-07	-1.455764e-10	-1.373085e+00	-1.428053e+01
1.810000e-06	-1.507795e-07	-1.250527e-10	-1.046176e+00	-1.330916e+01
1.820000e-06	-1.037377e-07	-1.070102e-10	-7.197789e-01	-1.232169e+01
1.830000e-06	-5.681435e-08	-9.302044e-11	-3.942037e-01	-1.131823e+01
1.840000e-06	-9.917591e-09	-8.308965e-11	-6.881273e-02	-1.029893e+01
1.850000e-06	3.703560e-08	-7.367189e-11	2.569697e-01	-9.264021e+00
1.860000e-06	8.392183e-08	-6.169097e-11	5.822876e-01	-8.213792e+00
1.870000e-06	1.307855e-07	-4.728125e-11	9.074492e-01	-7.148611e+00
1.880000e-06	1.777137e-07	-2.965626e-11	1.233058e+00	-6.068909e+00
1.890000e-06	2.246564e-07	-1.155435e-11	1.558768e+00	-4.975191e+00
1.900000e-06	2.715004e-07	5.547155e-12	1.883793e+00	-3.868028e+00
1.910000e-06	3.182728e-07	2.166560e-11	2.208320e+00	-2.748059e+00
1.920000e-06	3.651189e-07	3.580203e-11	2.533360e+00	-1.615992e+00
1.930000e-06	4.119506e-07	5.119748e-11	2.858300e+00	-4.725965e-01
1.940000e-06	4.587062e-07	6.381054e-11	3.182711e+00	6.812956e-01
1.950000e-06	5.053930e-07	7.552493e-11	3.506645e+00	1.844793e+00
1.960000e-06	5.519864e-07	8.739442e-11	3.829931e+00	3.016951e+00
1.970000e-06	5.985491e-07	1.025650e-10	4.153004e+00	4.196772e+00
1.980000e-06	6.450932e-07	1.205707e-10	4.475948e+00	5.383213e+00
1.990000e-06	6.915134e-07	1.376822e-10	4.798033e+00	6.575188e+00
2.000000e-06	7.379091e-07	1.531690e-10	5.119947e+00	7.771578e+00
2.010000e-06	7.843826e-07	1.680623e-10	5.442401e+00	8.971227e+00
2.020000e-06	8.307611e-07	1.803891e-10	5.764196e+00	1.017296e+01
2.030000e-06	8.770307e-07	1.924383e-10	6.085235e+00	1.137558e+01
2.040000e-06	9.233707e-07	2.054959e-10	6.406764e+00	1.257787e+01
2.050000e-06	9.696616e-07	2.217360e-10	6.727950e+00	1.377862e+01
2.060000e-06	1.015854e-06	2.396881e-10	7.048452e+00	1.497660e+01
2.070000e-06	1.061960e-06	2.587780e-10	7.368356e+00	1.617062e+01
2.080000e-06	1.108001e-06	2.783509e-10	7.687814e+00	1.735945e+01
2.090000e-06	1.153986e-06	2.953476e-10	8.006874e+00	1.854193e+01
2.100000e-06	1.199790e-06	3.095939e-10	8.324683e+00	1.971690e+01
2.110000e-06	1.245469e-06	3.232319e-10	8.641628e+00	2.088322e+01
2.120000e-06	1.291083e-06	3.367491e-10	8.958119e+00	2.203982e+01
2.130000e-06	1.336658e-06	3.508019e-10	9.274339e+00	2.318563e+01
2.140000e-06	1.382185e-06	3.657160e-10	9.590226e+00	2.431966e+01
2.150000e-06	1.427624e-06	3.802491e-10	9.905501e+00	2.544095e+01
2.160000e-06	1.472908e-06	3.955559e-10	1.021970e+01	2.654862e+01
2.170000e-06	1.518038e-06	4.119246e-10	1.053283e+01	2.764183e+01
2.180000e-06	1.562994e-06	4.284332e-10	1.084476e+01	2.871980e+01
2.190000e-06	1.607840e-06	4.433431e-10	1.115592e+01	2.978185e+01
2.200000e-06	1.652607e-06	4.564634e-10	1.146654e+01	3.082732e+01
2.210000e-06	1.697199e-06	4.697907e-10	1.177593e+01	3.185566e+01
2.220000e-06	1.741659e-06	4.834259e-10	1.208441e+01	3.286639e+01
2.230000e-06	1.786036e-06	4.966739e-10	1.239233e+01	3.385907e+01
2.240000e-06	1.830303e-06	5.100758e-10	1.269947e+01	3.483338e+01
2.250000e-06	1.874429e-06	5.216580e-10	1.300564e+01	3.578905e+01
2.260000e-06	1.918394e-06	5.337483e-10	1.331069e+01	3.672588e+01
2.270000e-06	1.962240e-06	5.476548e-10	1.361491e+01	3.764375e+01
2.280000e-06	2.006041e-06	5.612938e-10	1.391882e+01	3.854260e+01
2.290000e-06	2.049816e-06	5.743672e-10	1.422255e+01	3.942247e+01
2.300000e-06	2.093560e-06	5.872791e-10	1.452606e+01	4.028342e+01
2.310000e-06	2.137192e-06	5.975985e-10	1.482881e+01	4.112561e+01
2.320000e-06	2.180685e-06	6.065762e-10	1.513058e+01	4.194924e+01
2.330000e-06	2.224136e-06	6.157913e-10	1.543206e+01	4.275457e+01
2.340000e-06	2.267549e-06	6.264856e-10	1.573328e+01	4.354190e+01
2.350000e-06	2.310835e-06	6.378625e-10	1.603362e+01	4.431161e+01
2.360000e-06	2.353952e-06	6.506383e-10	1.633278e+01	4.506407e+01
2.370000e-06	2.396798e-06	6.626159e-10	1.663007e+01	4.579974e+01
2.380000e-06	2.439345e-06	6.737968e-10	1.692528e+01	4.651907e+01
2.390000e-06	2.481490e-06	6.854741e-10	1.721770e+01	4.722256e+01
2.400000e-06	2.523372e-06	6.962659e-10	1.750830e+01	4.791072e+01
2.410000e-06	2.565020e-06	7.075202e-10	1.779727e+01	4.858408e+01
2.420000e-06	2.606384e-06	7.205630e-10	1.808427e+01	4.924318e+01
2.430000e-06	2.647439e-06	7.331735e-10	1.836913e+01	4.988856e+01
2.440000e-06	2.688084e-06	7.432499e-10	1.865114e+01	5.052076e+01
2.450000e-06	2.728490e-06	7.509868e-10	1.893150e+01	5.114033e+01
2.460000e-06	2.768688e-06	7.561843e-10	1.921041e+01	5.174779e+01
2.470000e-06	2.808677e-06	7.619236e-10	1.948787e+01	5.234365e+01
2.480000e-06	2.848554e-06	7.704761e-10	1.976456e+01	5.292842e+01
2.490000e-06	2.888339e-06	7.807501e-10	2.004060e+01	5.350256e+01
2.500000e-06	2.927959e-06	7.921861e-10	2.031550e+01	5.406652e+01
2.510000e-06	2.967501e-06	8.030717e-10	2.058986e+01	5.462073e+01
2.520000e-06	3.006936e-06	8.113715e-10	2.086348e+01	5.516557e+01
2.530000e-06	3.046210e-06	8.184383e-10	2.113598e+01	5.570138e+01
2.540000e-06	3.085240e-06	8.239554e-10	2.140679e+01	5.622850e+01
2.550000e-06	3.123878e-06	8.294916e-10	2.167488e+01	5.674718e+01
2.560000e-06	3.162288e-06	8.370011e-10	2.194138e+01	5.725769e+01
2.570000e-06	3.200529e-06	8.457298e-10	2.220671e+01	5.776022e+01
2.580000e-06	3.238555e-06	8.515276e-10	2.247056e+01	5.825492e+01
2.590000e-06	3.276359e-06	8.543422e-10	2.273286e+01	5.874193e+01
2.600000e-06	3.313974e-06	8.589651e-10	2.299385e+01	5.922132e+01
2.610000e-06	3.351401e-06	8.670804e-10	2.325353e+01	5.969315e+01
2.620000e-06	3.388546e-06	8.762374e-10	2.351127e+01	6.015743e+01
2.630000e-06	3.425430e-06	8.823867e-10	2.376718e+01	6.061413e+01
2.640000e-06	3.462066e-06	8.860762e-10	2.402138e+01	6.106320e+01
2.650000e-06	3.498472e-06	8.886530e-10	2.427398e+01	6.150456e+01
2.660000e-06	3.534622e-06	8.907066e-10	2.452481e+01	6.193810e+01
2.670000e-06	3.570585e-06	8.938853e-10	2.477433e+01	6.236368e+01
2.680000e-06	3.606442e-06	8.983557e-10	2.502313e+01	6.278115e+01
2.690000e-06	3.642136e-06	9.049481e-10	2.527079e+01	6.319033e+01
2.700000e-06	3.677678e-06	9.125190e-10	2.551739e+01	6.359106e+01
2.710000e-06	3.713041e-06	9.197502e-10	2.576276e+01	6.398312e+01
2.720000e-06	3.748143e-06	9.251866e-10	2.600631e+01	6.436633e+01
2.730000e-06	3.782976e-06	9.292891e-10	2.624800e+01	6.474048e+01
2.740000e-06	3.817470e-06	9.313377e-10	2.648733e+01	6.510537e+01
2.750000e-06	3.851327e-06	9.323809e-10	2.672225e+01	6.546080e+01
2.760000e-06	3.884554e-06	9.353701e-10	2.695279e+01	6.580658e+01
2.770000e-06	3.917495e-06	9.406795e-10	2.718135e+01	6.614254e+01
2.780000e-06	3.950076e-06	9.472907e-10	2.740742e+01	6.646852e+01
2.790000e-06	3.982349e-06	9.541246e-10	2.763134e+01	6.678437e+01
2.800000e-06	4.014443e-06	9.613916e-10	2.785402e+01	6.708998e+01
2.810000e-06	4.046271e-06	9.675287e-10	2.807486e+01	6.738523e+01
2.820000e-06	4.077910e-06	9.703720e-10	2.829439e+01	6.767005e+01
2.830000e-06	4.109389e-06	9.704526e-10	2.851280e+01	6.794441e+01
2.840000e-06	4.140671e-06	9.696938e-10	2.872985e+01	6.820827e+01
2.850000e-06	4.171673e-06	9.703373e-10	2.894495e+01	6.846166e+01
2.860000e-06	4.202334e-06	9.757975e-10	2.915770e+01	6.870460e+01
2.870000e-06	4.232685e-06	9.823203e-10	2.936829e+01	6.893719e+01
2.880000e-06	4.262804e-06	9.883227e-10	2.957726e+01	6.915952e+01
2.890000e-06	4.292744e-06	9.942276e-10	2.978500e+01	6.937173e+01
2.900000e-06	4.322350e-06	9.984570e-10	2.999042e+01	6.957399e+01
