# Temperatura_=_9.8
# Concentracion g/m^3_=_1620.0
# C_Vs_to_Am_M_A/Vsm_=_65563218390.804596
# pendiente_HvsI_1/m_=_3716.3
# ordenada_HvsI_A/m_=_1297.0
# frecuencia_Hz_=_135103.85833399478

Tiempo_(s)	Campo_(V.s)	Magnetizacion_(V.s)	Campo_(kA/m)	Magnetizacion_(A/m)
0.000000e+00	-5.522780e-06	-7.673288e-10	-3.837177e+01	-5.032297e+01
1.000000e-08	-5.523000e-06	-7.685137e-10	-3.837329e+01	-5.032280e+01
2.000000e-08	-5.523055e-06	-7.702357e-10	-3.837368e+01	-5.032532e+01
3.000000e-08	-5.522845e-06	-7.732178e-10	-3.837222e+01	-5.033044e+01
4.000000e-08	-5.522202e-06	-7.723670e-10	-3.836775e+01	-5.033803e+01
5.000000e-08	-5.521016e-06	-7.666560e-10	-3.835951e+01	-5.034798e+01
6.000000e-08	-5.519257e-06	-7.563259e-10	-3.834729e+01	-5.036010e+01
7.000000e-08	-5.516877e-06	-7.340829e-10	-3.833075e+01	-5.037421e+01
8.000000e-08	-5.513905e-06	-7.224006e-10	-3.831010e+01	-5.039010e+01
9.000000e-08	-5.510451e-06	-7.688022e-10	-3.828611e+01	-5.040753e+01
1.000000e-07	-5.506579e-06	-8.286677e-10	-3.825920e+01	-5.042626e+01
1.100000e-07	-5.502298e-06	-8.007590e-10	-3.822946e+01	-5.044601e+01
1.200000e-07	-5.497779e-06	-7.324166e-10	-3.819806e+01	-5.046650e+01
1.300000e-07	-5.493087e-06	-6.902258e-10	-3.816546e+01	-5.048744e+01
1.400000e-07	-5.488040e-06	-7.640617e-10	-3.813039e+01	-5.050852e+01
1.500000e-07	-5.482609e-06	-7.619598e-10	-3.809266e+01	-5.052943e+01
1.600000e-07	-5.476802e-06	-7.088444e-10	-3.805232e+01	-5.054985e+01
1.700000e-07	-5.470615e-06	-7.166448e-10	-3.800932e+01	-5.056948e+01
1.800000e-07	-5.463979e-06	-7.785529e-10	-3.796322e+01	-5.058799e+01
1.900000e-07	-5.456894e-06	-8.186222e-10	-3.791400e+01	-5.060506e+01
2.000000e-07	-5.449454e-06	-7.328786e-10	-3.786230e+01	-5.062040e+01
2.100000e-07	-5.441760e-06	-7.303283e-10	-3.780884e+01	-5.063370e+01
2.200000e-07	-5.433880e-06	-7.672956e-10	-3.775410e+01	-5.064466e+01
2.300000e-07	-5.425751e-06	-8.269006e-10	-3.769762e+01	-5.065301e+01
2.400000e-07	-5.417222e-06	-7.894048e-10	-3.763836e+01	-5.065847e+01
2.500000e-07	-5.408118e-06	-7.993912e-10	-3.757510e+01	-5.066081e+01
2.600000e-07	-5.398290e-06	-8.079683e-10	-3.750682e+01	-5.065978e+01
2.700000e-07	-5.387824e-06	-8.232536e-10	-3.743410e+01	-5.065517e+01
2.800000e-07	-5.376832e-06	-7.904112e-10	-3.735773e+01	-5.064678e+01
2.900000e-07	-5.365390e-06	-8.073669e-10	-3.727824e+01	-5.063442e+01
3.000000e-07	-5.353605e-06	-8.285704e-10	-3.719635e+01	-5.061794e+01
3.100000e-07	-5.341481e-06	-8.216068e-10	-3.711212e+01	-5.059721e+01
3.200000e-07	-5.328960e-06	-7.958744e-10	-3.702512e+01	-5.057210e+01
3.300000e-07	-5.315994e-06	-7.900586e-10	-3.693504e+01	-5.054252e+01
3.400000e-07	-5.302646e-06	-8.078326e-10	-3.684229e+01	-5.050840e+01
3.500000e-07	-5.288934e-06	-7.873760e-10	-3.674702e+01	-5.046969e+01
3.600000e-07	-5.274845e-06	-7.808051e-10	-3.664913e+01	-5.042635e+01
3.700000e-07	-5.260311e-06	-7.900762e-10	-3.654815e+01	-5.037838e+01
3.800000e-07	-5.245319e-06	-8.156417e-10	-3.644399e+01	-5.032578e+01
3.900000e-07	-5.229804e-06	-7.866718e-10	-3.633619e+01	-5.026859e+01
4.000000e-07	-5.213690e-06	-7.789186e-10	-3.622424e+01	-5.020684e+01
4.100000e-07	-5.197162e-06	-7.871469e-10	-3.610940e+01	-5.014061e+01
4.200000e-07	-5.180330e-06	-7.951737e-10	-3.599245e+01	-5.006998e+01
4.300000e-07	-5.163141e-06	-7.587675e-10	-3.587302e+01	-4.999503e+01
4.400000e-07	-5.145598e-06	-7.750948e-10	-3.575114e+01	-4.991589e+01
4.500000e-07	-5.127690e-06	-7.900493e-10	-3.562672e+01	-4.983267e+01
4.600000e-07	-5.109384e-06	-7.840864e-10	-3.549953e+01	-4.974550e+01
4.700000e-07	-5.090670e-06	-7.501308e-10	-3.536950e+01	-4.965453e+01
4.800000e-07	-5.071597e-06	-7.695877e-10	-3.523699e+01	-4.955992e+01
4.900000e-07	-5.052214e-06	-7.699806e-10	-3.510231e+01	-4.946182e+01
5.000000e-07	-5.032608e-06	-7.675714e-10	-3.496610e+01	-4.936040e+01
5.100000e-07	-5.012854e-06	-7.596895e-10	-3.482885e+01	-4.925583e+01
5.200000e-07	-4.992882e-06	-7.669669e-10	-3.469008e+01	-4.914830e+01
5.300000e-07	-4.972517e-06	-7.530634e-10	-3.454859e+01	-4.903797e+01
5.400000e-07	-4.951699e-06	-7.625690e-10	-3.440394e+01	-4.892504e+01
5.500000e-07	-4.930486e-06	-7.668862e-10	-3.425656e+01	-4.880968e+01
5.600000e-07	-4.908946e-06	-7.564958e-10	-3.410690e+01	-4.869208e+01
5.700000e-07	-4.887127e-06	-7.401774e-10	-3.395531e+01	-4.857242e+01
5.800000e-07	-4.864949e-06	-7.514542e-10	-3.380122e+01	-4.845088e+01
5.900000e-07	-4.842419e-06	-7.510116e-10	-3.364468e+01	-4.832764e+01
6.000000e-07	-4.819537e-06	-7.420426e-10	-3.348570e+01	-4.820286e+01
6.100000e-07	-4.796292e-06	-7.444570e-10	-3.332419e+01	-4.807673e+01
6.200000e-07	-4.772772e-06	-7.498759e-10	-3.316078e+01	-4.794940e+01
6.300000e-07	-4.749046e-06	-7.388090e-10	-3.299593e+01	-4.782103e+01
6.400000e-07	-4.725156e-06	-7.274783e-10	-3.282995e+01	-4.769178e+01
6.500000e-07	-4.700985e-06	-7.325280e-10	-3.266201e+01	-4.756179e+01
6.600000e-07	-4.676363e-06	-7.247282e-10	-3.249094e+01	-4.743120e+01
6.700000e-07	-4.651244e-06	-7.200341e-10	-3.231641e+01	-4.730015e+01
6.800000e-07	-4.625585e-06	-7.181592e-10	-3.213814e+01	-4.716875e+01
6.900000e-07	-4.599352e-06	-7.213764e-10	-3.195587e+01	-4.703713e+01
7.000000e-07	-4.572604e-06	-7.107672e-10	-3.177003e+01	-4.690538e+01
7.100000e-07	-4.545418e-06	-7.147284e-10	-3.158114e+01	-4.677360e+01
7.200000e-07	-4.517959e-06	-7.095225e-10	-3.139036e+01	-4.664189e+01
7.300000e-07	-4.490356e-06	-7.047203e-10	-3.119858e+01	-4.651031e+01
7.400000e-07	-4.462591e-06	-6.983986e-10	-3.100567e+01	-4.637893e+01
7.500000e-07	-4.434634e-06	-7.051050e-10	-3.081143e+01	-4.624781e+01
7.600000e-07	-4.406378e-06	-6.959906e-10	-3.061510e+01	-4.611699e+01
7.700000e-07	-4.377806e-06	-6.979088e-10	-3.041659e+01	-4.598650e+01
7.800000e-07	-4.348902e-06	-6.976494e-10	-3.021577e+01	-4.585636e+01
7.900000e-07	-4.319700e-06	-6.965488e-10	-3.001288e+01	-4.572657e+01
8.000000e-07	-4.290261e-06	-6.868906e-10	-2.980834e+01	-4.559714e+01
8.100000e-07	-4.260527e-06	-6.898311e-10	-2.960175e+01	-4.546803e+01
8.200000e-07	-4.230508e-06	-6.843451e-10	-2.939318e+01	-4.533922e+01
8.300000e-07	-4.200189e-06	-6.826194e-10	-2.918252e+01	-4.521067e+01
8.400000e-07	-4.169518e-06	-6.820854e-10	-2.896942e+01	-4.508230e+01
8.500000e-07	-4.138513e-06	-6.806189e-10	-2.875401e+01	-4.495405e+01
8.600000e-07	-4.107244e-06	-6.713757e-10	-2.853675e+01	-4.482583e+01
8.700000e-07	-4.075780e-06	-6.664924e-10	-2.831814e+01	-4.469752e+01
8.800000e-07	-4.044182e-06	-6.618280e-10	-2.809860e+01	-4.456903e+01
8.900000e-07	-4.012434e-06	-6.581352e-10	-2.787802e+01	-4.444021e+01
9.000000e-07	-3.980489e-06	-6.574360e-10	-2.765607e+01	-4.431093e+01
9.100000e-07	-3.948292e-06	-6.555043e-10	-2.743236e+01	-4.418101e+01
9.200000e-07	-3.915833e-06	-6.520177e-10	-2.720685e+01	-4.405030e+01
9.300000e-07	-3.882968e-06	-6.490240e-10	-2.697850e+01	-4.391861e+01
9.400000e-07	-3.849592e-06	-6.490191e-10	-2.674661e+01	-4.378574e+01
9.500000e-07	-3.815757e-06	-6.458005e-10	-2.651153e+01	-4.365149e+01
9.600000e-07	-3.781449e-06	-6.457053e-10	-2.627316e+01	-4.351564e+01
9.700000e-07	-3.746637e-06	-6.421083e-10	-2.603128e+01	-4.337796e+01
9.800000e-07	-3.711481e-06	-6.414009e-10	-2.578703e+01	-4.323823e+01
9.900000e-07	-3.676151e-06	-6.371498e-10	-2.554155e+01	-4.309619e+01
1.000000e-06	-3.640653e-06	-6.376511e-10	-2.529492e+01	-4.295161e+01
1.010000e-06	-3.604990e-06	-6.342778e-10	-2.504714e+01	-4.280423e+01
1.020000e-06	-3.569181e-06	-6.311620e-10	-2.479834e+01	-4.265380e+01
1.030000e-06	-3.533258e-06	-6.247036e-10	-2.454875e+01	-4.250006e+01
1.040000e-06	-3.497169e-06	-6.224298e-10	-2.429800e+01	-4.234277e+01
1.050000e-06	-3.460788e-06	-6.172613e-10	-2.404523e+01	-4.218166e+01
1.060000e-06	-3.424137e-06	-6.138009e-10	-2.379059e+01	-4.201649e+01
1.070000e-06	-3.387263e-06	-6.061870e-10	-2.353439e+01	-4.184702e+01
1.080000e-06	-3.350076e-06	-6.027454e-10	-2.327602e+01	-4.167302e+01
1.090000e-06	-3.312625e-06	-6.008881e-10	-2.301581e+01	-4.149424e+01
1.100000e-06	-3.274964e-06	-6.020737e-10	-2.275415e+01	-4.131050e+01
1.110000e-06	-3.237111e-06	-5.985740e-10	-2.249115e+01	-4.112156e+01
1.120000e-06	-3.199036e-06	-5.963440e-10	-2.222661e+01	-4.092726e+01
1.130000e-06	-3.160679e-06	-5.916387e-10	-2.196011e+01	-4.072742e+01
1.140000e-06	-3.122082e-06	-5.871393e-10	-2.169193e+01	-4.052188e+01
1.150000e-06	-3.083238e-06	-5.825434e-10	-2.142206e+01	-4.031050e+01
1.160000e-06	-3.044172e-06	-5.787201e-10	-2.115063e+01	-4.009317e+01
1.170000e-06	-3.004981e-06	-5.743024e-10	-2.087833e+01	-3.986979e+01
1.180000e-06	-2.965650e-06	-5.715637e-10	-2.060506e+01	-3.964027e+01
1.190000e-06	-2.926129e-06	-5.706272e-10	-2.033047e+01	-3.940457e+01
1.200000e-06	-2.886488e-06	-5.701225e-10	-2.005505e+01	-3.916265e+01
1.210000e-06	-2.846777e-06	-5.695537e-10	-1.977915e+01	-3.891450e+01
1.220000e-06	-2.806952e-06	-5.665304e-10	-1.950244e+01	-3.866013e+01
1.230000e-06	-2.766920e-06	-5.607718e-10	-1.922430e+01	-3.839957e+01
1.240000e-06	-2.726638e-06	-5.528583e-10	-1.894443e+01	-3.813287e+01
1.250000e-06	-2.686168e-06	-5.468757e-10	-1.866324e+01	-3.786011e+01
1.260000e-06	-2.645592e-06	-5.415504e-10	-1.838133e+01	-3.758136e+01
1.270000e-06	-2.604835e-06	-5.406772e-10	-1.809815e+01	-3.729675e+01
1.280000e-06	-2.563722e-06	-5.383283e-10	-1.781250e+01	-3.700638e+01
1.290000e-06	-2.522253e-06	-5.357092e-10	-1.752438e+01	-3.671040e+01
1.300000e-06	-2.480483e-06	-5.308902e-10	-1.723417e+01	-3.640895e+01
1.310000e-06	-2.438386e-06	-5.269977e-10	-1.694168e+01	-3.610218e+01
1.320000e-06	-2.396013e-06	-5.214537e-10	-1.664728e+01	-3.579025e+01
1.330000e-06	-2.353420e-06	-5.185013e-10	-1.635134e+01	-3.547334e+01
1.340000e-06	-2.310541e-06	-5.157407e-10	-1.605342e+01	-3.515159e+01
1.350000e-06	-2.267359e-06	-5.121613e-10	-1.575340e+01	-3.482517e+01
1.360000e-06	-2.224021e-06	-5.056232e-10	-1.545229e+01	-3.449423e+01
1.370000e-06	-2.180569e-06	-5.010873e-10	-1.515039e+01	-3.415892e+01
1.380000e-06	-2.136936e-06	-4.977238e-10	-1.484723e+01	-3.381936e+01
1.390000e-06	-2.093207e-06	-4.957147e-10	-1.454341e+01	-3.347568e+01
1.400000e-06	-2.049459e-06	-4.920475e-10	-1.423945e+01	-3.312796e+01
1.410000e-06	-2.005667e-06	-4.886999e-10	-1.393519e+01	-3.277629e+01
1.420000e-06	-1.961794e-06	-4.822600e-10	-1.363036e+01	-3.242070e+01
1.430000e-06	-1.917834e-06	-4.734343e-10	-1.332494e+01	-3.206123e+01
1.440000e-06	-1.873746e-06	-4.647472e-10	-1.301861e+01	-3.169784e+01
1.450000e-06	-1.829546e-06	-4.579533e-10	-1.271151e+01	-3.133051e+01
1.460000e-06	-1.785234e-06	-4.519279e-10	-1.240364e+01	-3.095914e+01
1.470000e-06	-1.740776e-06	-4.470001e-10	-1.209475e+01	-3.058361e+01
1.480000e-06	-1.696163e-06	-4.425181e-10	-1.178478e+01	-3.020378e+01
1.490000e-06	-1.651336e-06	-4.354583e-10	-1.147333e+01	-2.981943e+01
1.500000e-06	-1.606432e-06	-4.271408e-10	-1.116134e+01	-2.943032e+01
1.510000e-06	-1.561512e-06	-4.205326e-10	-1.084924e+01	-2.903617e+01
1.520000e-06	-1.516494e-06	-4.149132e-10	-1.053646e+01	-2.863666e+01
1.530000e-06	-1.471371e-06	-4.052745e-10	-1.022295e+01	-2.823141e+01
1.540000e-06	-1.426193e-06	-3.955710e-10	-9.909058e+00	-2.782001e+01
1.550000e-06	-1.380902e-06	-3.871379e-10	-9.594381e+00	-2.740202e+01
1.560000e-06	-1.335473e-06	-3.787985e-10	-9.278742e+00	-2.697695e+01
1.570000e-06	-1.289941e-06	-3.705933e-10	-8.962388e+00	-2.654428e+01
1.580000e-06	-1.244289e-06	-3.645557e-10	-8.645202e+00	-2.610345e+01
1.590000e-06	-1.198556e-06	-3.583897e-10	-8.327457e+00	-2.565387e+01
1.600000e-06	-1.152746e-06	-3.512955e-10	-8.009171e+00	-2.519494e+01
1.610000e-06	-1.106818e-06	-3.452211e-10	-7.690072e+00	-2.472602e+01
1.620000e-06	-1.060846e-06	-3.398890e-10	-7.370660e+00	-2.424646e+01
1.630000e-06	-1.014846e-06	-3.324198e-10	-7.051059e+00	-2.375560e+01
1.640000e-06	-9.687063e-07	-3.234216e-10	-6.730482e+00	-2.325276e+01
1.650000e-06	-9.224298e-07	-3.109733e-10	-6.408957e+00	-2.273727e+01
1.660000e-06	-8.761140e-07	-2.989696e-10	-6.087159e+00	-2.220847e+01
1.670000e-06	-8.297701e-07	-2.870730e-10	-5.765166e+00	-2.166568e+01
1.680000e-06	-7.833474e-07	-2.791991e-10	-5.442625e+00	-2.110826e+01
1.690000e-06	-7.369267e-07	-2.704153e-10	-5.120098e+00	-2.053559e+01
1.700000e-06	-6.905329e-07	-2.651668e-10	-4.797759e+00	-1.994707e+01
1.710000e-06	-6.441051e-07	-2.614762e-10	-4.475182e+00	-1.934213e+01
1.720000e-06	-5.976128e-07	-2.547778e-10	-4.152159e+00	-1.872024e+01
1.730000e-06	-5.510621e-07	-2.438889e-10	-3.828728e+00	-1.808093e+01
1.740000e-06	-5.044193e-07	-2.303172e-10	-3.504658e+00	-1.742377e+01
1.750000e-06	-4.576508e-07	-2.160620e-10	-3.179715e+00	-1.674838e+01
1.760000e-06	-4.108411e-07	-2.026628e-10	-2.854486e+00	-1.605446e+01
1.770000e-06	-3.640398e-07	-1.921274e-10	-2.529315e+00	-1.534176e+01
1.780000e-06	-3.172074e-07	-1.850716e-10	-2.203928e+00	-1.461010e+01
1.790000e-06	-2.703178e-07	-1.802852e-10	-1.878143e+00	-1.385940e+01
1.800000e-06	-2.233303e-07	-1.708294e-10	-1.551678e+00	-1.308964e+01
1.810000e-06	-1.763198e-07	-1.575304e-10	-1.225054e+00	-1.230088e+01
1.820000e-06	-1.292637e-07	-1.428556e-10	-8.981121e-01	-1.149328e+01
1.830000e-06	-8.218499e-08	-1.296178e-10	-5.710137e-01	-1.066706e+01
1.840000e-06	-3.527032e-08	-1.167877e-10	-2.450549e-01	-9.822568e+00
1.850000e-06	1.157351e-08	-1.045326e-10	8.041166e-02	-8.960204e+00
1.860000e-06	5.843230e-08	-9.527735e-11	4.059822e-01	-8.080477e+00
1.870000e-06	1.053282e-07	-8.677050e-11	7.318104e-01	-7.183979e+00
1.880000e-06	1.522117e-07	-7.537988e-11	1.057553e+00	-6.271391e+00
1.890000e-06	1.990133e-07	-6.246573e-11	1.382726e+00	-5.343477e+00
1.900000e-06	2.458073e-07	-4.618094e-11	1.707847e+00	-4.401084e+00
1.910000e-06	2.925712e-07	-3.152347e-11	2.032757e+00	-3.445140e+00
1.920000e-06	3.393389e-07	-1.715226e-11	2.357695e+00	-2.476647e+00
1.930000e-06	3.861112e-07	-4.490596e-12	2.682665e+00	-1.496678e+00
1.940000e-06	4.328129e-07	7.796585e-12	3.007144e+00	-5.063709e-01
1.950000e-06	4.795368e-07	1.857364e-11	3.331778e+00	4.930747e-01
1.960000e-06	5.262825e-07	3.029830e-11	3.656562e+00	1.500406e+00
1.970000e-06	5.728826e-07	4.354290e-11	3.980336e+00	2.514323e+00
1.980000e-06	6.193844e-07	5.770213e-11	4.303426e+00	3.533485e+00
1.990000e-06	6.658978e-07	7.315844e-11	4.626597e+00	4.556518e+00
2.000000e-06	7.123546e-07	9.111608e-11	4.949374e+00	5.582023e+00
2.010000e-06	7.587946e-07	1.082827e-10	5.272035e+00	6.608584e+00
2.020000e-06	8.051609e-07	1.215699e-10	5.594184e+00	7.634773e+00
2.030000e-06	8.513846e-07	1.319333e-10	5.915342e+00	8.659162e+00
2.040000e-06	8.975662e-07	1.429370e-10	6.236207e+00	9.680330e+00
2.050000e-06	9.437381e-07	1.553585e-10	6.557005e+00	1.069687e+01
2.060000e-06	9.899083e-07	1.692491e-10	6.877792e+00	1.170740e+01
2.070000e-06	1.036025e-06	1.851098e-10	7.198204e+00	1.271056e+01
2.080000e-06	1.082027e-06	2.016443e-10	7.517827e+00	1.370503e+01
2.090000e-06	1.127885e-06	2.164786e-10	7.836443e+00	1.468955e+01
2.100000e-06	1.173618e-06	2.288815e-10	8.154191e+00	1.566290e+01
2.110000e-06	1.219307e-06	2.417066e-10	8.471631e+00	1.662391e+01
2.120000e-06	1.264913e-06	2.528448e-10	8.788498e+00	1.757149e+01
2.130000e-06	1.310375e-06	2.635298e-10	9.104363e+00	1.850461e+01
2.140000e-06	1.355827e-06	2.740949e-10	9.420163e+00	1.942232e+01
2.150000e-06	1.401342e-06	2.863533e-10	9.736392e+00	2.032374e+01
2.160000e-06	1.446682e-06	3.004035e-10	1.005141e+01	2.120809e+01
2.170000e-06	1.491788e-06	3.160809e-10	1.036480e+01	2.207466e+01
2.180000e-06	1.536808e-06	3.303233e-10	1.067760e+01	2.292283e+01
2.190000e-06	1.581715e-06	3.419351e-10	1.098961e+01	2.375208e+01
2.200000e-06	1.626498e-06	3.517414e-10	1.130076e+01	2.456197e+01
2.210000e-06	1.671205e-06	3.617276e-10	1.161138e+01	2.535216e+01
2.220000e-06	1.715787e-06	3.722793e-10	1.192113e+01	2.612238e+01
2.230000e-06	1.760208e-06	3.840638e-10	1.222976e+01	2.687248e+01
2.240000e-06	1.804487e-06	3.959153e-10	1.253741e+01	2.760236e+01
2.250000e-06	1.848636e-06	4.064875e-10	1.284415e+01	2.831205e+01
2.260000e-06	1.892649e-06	4.150776e-10	1.314995e+01	2.900162e+01
2.270000e-06	1.936539e-06	4.243940e-10	1.345489e+01	2.967124e+01
2.280000e-06	1.980383e-06	4.341726e-10	1.375952e+01	3.032115e+01
2.290000e-06	2.024189e-06	4.431325e-10	1.406388e+01	3.095166e+01
2.300000e-06	2.067910e-06	4.507334e-10	1.436765e+01	3.156314e+01
2.310000e-06	2.111561e-06	4.589443e-10	1.467093e+01	3.215602e+01
2.320000e-06	2.155148e-06	4.673261e-10	1.497377e+01	3.273077e+01
2.330000e-06	2.198710e-06	4.745618e-10	1.527643e+01	3.328794e+01
2.340000e-06	2.242099e-06	4.806841e-10	1.557789e+01	3.382808e+01
2.350000e-06	2.285238e-06	4.868151e-10	1.587763e+01	3.435181e+01
2.360000e-06	2.328200e-06	4.948826e-10	1.617612e+01	3.485974e+01
2.370000e-06	2.370952e-06	5.041519e-10	1.647315e+01	3.535253e+01
2.380000e-06	2.413498e-06	5.130072e-10	1.676876e+01	3.583084e+01
2.390000e-06	2.455711e-06	5.207753e-10	1.706205e+01	3.629534e+01
2.400000e-06	2.497606e-06	5.279784e-10	1.735314e+01	3.674669e+01
2.410000e-06	2.539087e-06	5.340171e-10	1.764134e+01	3.718557e+01
2.420000e-06	2.580146e-06	5.405220e-10	1.792661e+01	3.761263e+01
2.430000e-06	2.621027e-06	5.478476e-10	1.821065e+01	3.802850e+01
2.440000e-06	2.661731e-06	5.552691e-10	1.849346e+01	3.843380e+01
2.450000e-06	2.702179e-06	5.638125e-10	1.877449e+01	3.882911e+01
2.460000e-06	2.742344e-06	5.741805e-10	1.905355e+01	3.921500e+01
2.470000e-06	2.782311e-06	5.823593e-10	1.933124e+01	3.959199e+01
2.480000e-06	2.822195e-06	5.876454e-10	1.960835e+01	3.996056e+01
2.490000e-06	2.862050e-06	5.904484e-10	1.988526e+01	4.032116e+01
2.500000e-06	2.901768e-06	5.953150e-10	2.016122e+01	4.067419e+01
2.510000e-06	2.941259e-06	6.027165e-10	2.043559e+01	4.102000e+01
2.520000e-06	2.980624e-06	6.102053e-10	2.070910e+01	4.135892e+01
2.530000e-06	3.019899e-06	6.168065e-10	2.098198e+01	4.169120e+01
2.540000e-06	3.058996e-06	6.199603e-10	2.125362e+01	4.201707e+01
2.550000e-06	3.097927e-06	6.200232e-10	2.152411e+01	4.233671e+01
2.560000e-06	3.136495e-06	6.200975e-10	2.179208e+01	4.265023e+01
2.570000e-06	3.174722e-06	6.247257e-10	2.205767e+01	4.295774e+01
2.580000e-06	3.212807e-06	6.325872e-10	2.232228e+01	4.325928e+01
2.590000e-06	3.250656e-06	6.393856e-10	2.258526e+01	4.355486e+01
2.600000e-06	3.288357e-06	6.439980e-10	2.284720e+01	4.384446e+01
2.610000e-06	3.325883e-06	6.460757e-10	2.310793e+01	4.412801e+01
2.620000e-06	3.363114e-06	6.487468e-10	2.336660e+01	4.440544e+01
2.630000e-06	3.400063e-06	6.522813e-10	2.362332e+01	4.467664e+01
2.640000e-06	3.436698e-06	6.549847e-10	2.387786e+01	4.494147e+01
2.650000e-06	3.473065e-06	6.574310e-10	2.413053e+01	4.519979e+01
2.660000e-06	3.509197e-06	6.613449e-10	2.438157e+01	4.545145e+01
2.670000e-06	3.545134e-06	6.673365e-10	2.463126e+01	4.569627e+01
2.680000e-06	3.580954e-06	6.729718e-10	2.488014e+01	4.593408e+01
2.690000e-06	3.616684e-06	6.772095e-10	2.512838e+01	4.616472e+01
2.700000e-06	3.652330e-06	6.801138e-10	2.537605e+01	4.638803e+01
2.710000e-06	3.687889e-06	6.812947e-10	2.562311e+01	4.660385e+01
2.720000e-06	3.723260e-06	6.819017e-10	2.586887e+01	4.681204e+01
2.730000e-06	3.758239e-06	6.857143e-10	2.611190e+01	4.701247e+01
2.740000e-06	3.792763e-06	6.902523e-10	2.635176e+01	4.720504e+01
2.750000e-06	3.826930e-06	6.939787e-10	2.658916e+01	4.738967e+01
2.760000e-06	3.860690e-06	6.984007e-10	2.682371e+01	4.756631e+01
2.770000e-06	3.893898e-06	7.020996e-10	2.705444e+01	4.773491e+01
2.780000e-06	3.926657e-06	7.040071e-10	2.728205e+01	4.789549e+01
2.790000e-06	3.959060e-06	7.056536e-10	2.750718e+01	4.804807e+01
2.800000e-06	3.991126e-06	7.085961e-10	2.772998e+01	4.819272e+01
2.810000e-06	4.022998e-06	7.121451e-10	2.795142e+01	4.832954e+01
2.820000e-06	4.054761e-06	7.145661e-10	2.817211e+01	4.845865e+01
2.830000e-06	4.086390e-06	7.164715e-10	2.839186e+01	4.858022e+01
2.840000e-06	4.117831e-06	7.186764e-10	2.861031e+01	4.869444e+01
2.850000e-06	4.149074e-06	7.206852e-10	2.882738e+01	4.880155e+01
2.860000e-06	4.179971e-06	7.252733e-10	2.904205e+01	4.890178e+01
2.870000e-06	4.210454e-06	7.313091e-10	2.925384e+01	4.899544e+01
2.880000e-06	4.240647e-06	7.333749e-10	2.946362e+01	4.908282e+01
2.890000e-06	4.270563e-06	7.339185e-10	2.967148e+01	4.916425e+01
2.900000e-06	4.300167e-06	7.345955e-10	2.987716e+01	4.924010e+01
