# Temperatura_=_-7.62
# Concentracion g/m^3_=_1620.0
# C_Vs_to_Am_M_A/Vsm_=_65563218390.804596
# pendiente_HvsI_1/m_=_3716.3
# ordenada_HvsI_A/m_=_1297.0
# frecuencia_Hz_=_135095.6502709244

Tiempo_(s)	Campo_(V.s)	Magnetizacion_(V.s)	Campo_(kA/m)	Magnetizacion_(A/m)
0.000000e+00	-5.527569e-06	-8.970248e-10	-3.836926e+01	-5.955834e+01
1.000000e-08	-5.527655e-06	-8.965707e-10	-3.836985e+01	-5.952811e+01
2.000000e-08	-5.527480e-06	-8.957146e-10	-3.836864e+01	-5.949671e+01
3.000000e-08	-5.526946e-06	-8.941186e-10	-3.836493e+01	-5.946411e+01
4.000000e-08	-5.525869e-06	-8.897601e-10	-3.835746e+01	-5.943025e+01
5.000000e-08	-5.524158e-06	-8.866082e-10	-3.834558e+01	-5.939507e+01
6.000000e-08	-5.521950e-06	-8.826890e-10	-3.833025e+01	-5.935852e+01
7.000000e-08	-5.519217e-06	-8.877018e-10	-3.831128e+01	-5.932056e+01
8.000000e-08	-5.515961e-06	-8.968624e-10	-3.828868e+01	-5.928111e+01
9.000000e-08	-5.512255e-06	-9.163911e-10	-3.826295e+01	-5.924014e+01
1.000000e-07	-5.508110e-06	-9.189953e-10	-3.823419e+01	-5.919758e+01
1.100000e-07	-5.503667e-06	-8.943817e-10	-3.820334e+01	-5.915340e+01
1.200000e-07	-5.499039e-06	-8.740562e-10	-3.817122e+01	-5.910754e+01
1.300000e-07	-5.494142e-06	-8.742560e-10	-3.813723e+01	-5.905996e+01
1.400000e-07	-5.488831e-06	-8.839963e-10	-3.810036e+01	-5.901063e+01
1.500000e-07	-5.483082e-06	-8.860466e-10	-3.806045e+01	-5.895953e+01
1.600000e-07	-5.476938e-06	-8.737920e-10	-3.801780e+01	-5.890662e+01
1.700000e-07	-5.470491e-06	-9.251541e-10	-3.797305e+01	-5.885188e+01
1.800000e-07	-5.463599e-06	-9.225432e-10	-3.792521e+01	-5.879531e+01
1.900000e-07	-5.456296e-06	-9.161335e-10	-3.787452e+01	-5.873690e+01
2.000000e-07	-5.448725e-06	-8.586754e-10	-3.782196e+01	-5.867665e+01
2.100000e-07	-5.440900e-06	-9.004202e-10	-3.776765e+01	-5.861457e+01
2.200000e-07	-5.432925e-06	-9.189636e-10	-3.771229e+01	-5.855067e+01
2.300000e-07	-5.424604e-06	-9.280346e-10	-3.765454e+01	-5.848497e+01
2.400000e-07	-5.415692e-06	-9.062519e-10	-3.759267e+01	-5.841751e+01
2.500000e-07	-5.406089e-06	-9.168980e-10	-3.752601e+01	-5.834830e+01
2.600000e-07	-5.395756e-06	-9.078554e-10	-3.745429e+01	-5.827739e+01
2.700000e-07	-5.384944e-06	-8.900010e-10	-3.737924e+01	-5.820481e+01
2.800000e-07	-5.373718e-06	-8.860485e-10	-3.730131e+01	-5.813062e+01
2.900000e-07	-5.362019e-06	-8.872187e-10	-3.722010e+01	-5.805484e+01
3.000000e-07	-5.349977e-06	-8.960055e-10	-3.713651e+01	-5.797755e+01
3.100000e-07	-5.337537e-06	-8.722998e-10	-3.705016e+01	-5.789877e+01
3.200000e-07	-5.324687e-06	-8.889432e-10	-3.696097e+01	-5.781857e+01
3.300000e-07	-5.311457e-06	-8.662103e-10	-3.686913e+01	-5.773699e+01
3.400000e-07	-5.297831e-06	-8.714452e-10	-3.677454e+01	-5.765407e+01
3.500000e-07	-5.283757e-06	-8.485092e-10	-3.667685e+01	-5.756988e+01
3.600000e-07	-5.269201e-06	-8.641750e-10	-3.657581e+01	-5.748444e+01
3.700000e-07	-5.254239e-06	-8.530474e-10	-3.647196e+01	-5.739780e+01
3.800000e-07	-5.238714e-06	-8.756311e-10	-3.636419e+01	-5.731000e+01
3.900000e-07	-5.222594e-06	-8.594379e-10	-3.625230e+01	-5.722107e+01
4.000000e-07	-5.206137e-06	-8.531112e-10	-3.613806e+01	-5.713104e+01
4.100000e-07	-5.189304e-06	-8.466291e-10	-3.602121e+01	-5.703992e+01
4.200000e-07	-5.172069e-06	-8.628736e-10	-3.590158e+01	-5.694774e+01
4.300000e-07	-5.154609e-06	-8.396330e-10	-3.578038e+01	-5.685451e+01
4.400000e-07	-5.136928e-06	-8.502739e-10	-3.565765e+01	-5.676022e+01
4.500000e-07	-5.118827e-06	-8.604092e-10	-3.553200e+01	-5.666489e+01
4.600000e-07	-5.100251e-06	-8.471218e-10	-3.540306e+01	-5.656850e+01
4.700000e-07	-5.081261e-06	-8.195052e-10	-3.527124e+01	-5.647104e+01
4.800000e-07	-5.061989e-06	-8.507028e-10	-3.513746e+01	-5.637250e+01
4.900000e-07	-5.042471e-06	-8.535561e-10	-3.500198e+01	-5.627286e+01
5.000000e-07	-5.022691e-06	-8.296257e-10	-3.486468e+01	-5.617210e+01
5.100000e-07	-5.002628e-06	-8.347160e-10	-3.472542e+01	-5.607017e+01
5.200000e-07	-4.982232e-06	-8.543903e-10	-3.458384e+01	-5.596706e+01
5.300000e-07	-4.961547e-06	-8.295804e-10	-3.444025e+01	-5.586273e+01
5.400000e-07	-4.940608e-06	-8.238021e-10	-3.429490e+01	-5.575715e+01
5.500000e-07	-4.919313e-06	-8.418060e-10	-3.414709e+01	-5.565029e+01
5.600000e-07	-4.897597e-06	-8.207010e-10	-3.399635e+01	-5.554210e+01
5.700000e-07	-4.875550e-06	-8.071785e-10	-3.384331e+01	-5.543257e+01
5.800000e-07	-4.853154e-06	-8.296950e-10	-3.368785e+01	-5.532166e+01
5.900000e-07	-4.830371e-06	-8.298779e-10	-3.352970e+01	-5.520934e+01
6.000000e-07	-4.807269e-06	-8.058966e-10	-3.336935e+01	-5.509560e+01
6.100000e-07	-4.783856e-06	-8.188898e-10	-3.320682e+01	-5.498041e+01
6.200000e-07	-4.760155e-06	-8.136179e-10	-3.304231e+01	-5.486377e+01
6.300000e-07	-4.736284e-06	-7.944655e-10	-3.287661e+01	-5.474567e+01
6.400000e-07	-4.712110e-06	-7.932710e-10	-3.270880e+01	-5.462611e+01
6.500000e-07	-4.687604e-06	-8.098415e-10	-3.253870e+01	-5.450510e+01
6.600000e-07	-4.662729e-06	-7.935849e-10	-3.236603e+01	-5.438266e+01
6.700000e-07	-4.637269e-06	-7.956134e-10	-3.218930e+01	-5.425880e+01
6.800000e-07	-4.611278e-06	-7.976589e-10	-3.200888e+01	-5.413357e+01
6.900000e-07	-4.584698e-06	-7.948189e-10	-3.182438e+01	-5.400701e+01
7.000000e-07	-4.557593e-06	-7.847551e-10	-3.163623e+01	-5.387915e+01
7.100000e-07	-4.530239e-06	-7.955787e-10	-3.144635e+01	-5.375005e+01
7.200000e-07	-4.502695e-06	-7.898055e-10	-3.125516e+01	-5.361978e+01
7.300000e-07	-4.474993e-06	-7.887080e-10	-3.106287e+01	-5.348840e+01
7.400000e-07	-4.447049e-06	-7.888136e-10	-3.086890e+01	-5.335599e+01
7.500000e-07	-4.418816e-06	-7.902788e-10	-3.067292e+01	-5.322261e+01
7.600000e-07	-4.390333e-06	-7.802826e-10	-3.047521e+01	-5.308835e+01
7.700000e-07	-4.361567e-06	-7.823430e-10	-3.027553e+01	-5.295330e+01
7.800000e-07	-4.332562e-06	-7.815372e-10	-3.007420e+01	-5.281752e+01
7.900000e-07	-4.303263e-06	-7.811396e-10	-2.987081e+01	-5.268112e+01
8.000000e-07	-4.273549e-06	-7.800400e-10	-2.966456e+01	-5.254417e+01
8.100000e-07	-4.243517e-06	-7.809334e-10	-2.945609e+01	-5.240674e+01
8.200000e-07	-4.213268e-06	-7.759786e-10	-2.924612e+01	-5.226891e+01
8.300000e-07	-4.182697e-06	-7.716431e-10	-2.903392e+01	-5.213074e+01
8.400000e-07	-4.151803e-06	-7.702313e-10	-2.881947e+01	-5.199229e+01
8.500000e-07	-4.120659e-06	-7.668196e-10	-2.860328e+01	-5.185362e+01
8.600000e-07	-4.089255e-06	-7.644564e-10	-2.838530e+01	-5.171476e+01
8.700000e-07	-4.057661e-06	-7.659835e-10	-2.816599e+01	-5.157573e+01
8.800000e-07	-4.025906e-06	-7.696084e-10	-2.794556e+01	-5.143655e+01
8.900000e-07	-3.993908e-06	-7.645004e-10	-2.772345e+01	-5.129721e+01
9.000000e-07	-3.961682e-06	-7.627793e-10	-2.749975e+01	-5.115769e+01
9.100000e-07	-3.929269e-06	-7.591929e-10	-2.727476e+01	-5.101795e+01
9.200000e-07	-3.896476e-06	-7.570287e-10	-2.704713e+01	-5.087795e+01
9.300000e-07	-3.863114e-06	-7.524341e-10	-2.681555e+01	-5.073760e+01
9.400000e-07	-3.829199e-06	-7.569034e-10	-2.658013e+01	-5.059680e+01
9.500000e-07	-3.794861e-06	-7.556959e-10	-2.634178e+01	-5.045545e+01
9.600000e-07	-3.760202e-06	-7.535152e-10	-2.610120e+01	-5.031342e+01
9.700000e-07	-3.725228e-06	-7.490282e-10	-2.585842e+01	-5.017053e+01
9.800000e-07	-3.689980e-06	-7.476607e-10	-2.561376e+01	-5.002663e+01
9.900000e-07	-3.654470e-06	-7.384760e-10	-2.536726e+01	-4.988152e+01
1.000000e-06	-3.618761e-06	-7.367959e-10	-2.511939e+01	-4.973498e+01
1.010000e-06	-3.582940e-06	-7.371971e-10	-2.487074e+01	-4.958679e+01
1.020000e-06	-3.546981e-06	-7.400345e-10	-2.462114e+01	-4.943669e+01
1.030000e-06	-3.510850e-06	-7.388512e-10	-2.437033e+01	-4.928442e+01
1.040000e-06	-3.474530e-06	-7.392638e-10	-2.411822e+01	-4.912972e+01
1.050000e-06	-3.437957e-06	-7.313902e-10	-2.386435e+01	-4.897228e+01
1.060000e-06	-3.401086e-06	-7.227990e-10	-2.360841e+01	-4.881182e+01
1.070000e-06	-3.363909e-06	-7.168874e-10	-2.335035e+01	-4.864801e+01
1.080000e-06	-3.326446e-06	-7.179128e-10	-2.309031e+01	-4.848055e+01
1.090000e-06	-3.288783e-06	-7.196479e-10	-2.282887e+01	-4.830912e+01
1.100000e-06	-3.250942e-06	-7.209706e-10	-2.256620e+01	-4.813340e+01
1.110000e-06	-3.212893e-06	-7.176160e-10	-2.230209e+01	-4.795306e+01
1.120000e-06	-3.174615e-06	-7.085354e-10	-2.203638e+01	-4.776780e+01
1.130000e-06	-3.136185e-06	-7.000049e-10	-2.176962e+01	-4.757729e+01
1.140000e-06	-3.097550e-06	-6.940077e-10	-2.150144e+01	-4.738123e+01
1.150000e-06	-3.058635e-06	-6.886822e-10	-2.123132e+01	-4.717933e+01
1.160000e-06	-3.019576e-06	-6.839790e-10	-2.096019e+01	-4.697130e+01
1.170000e-06	-2.980314e-06	-6.831547e-10	-2.068766e+01	-4.675687e+01
1.180000e-06	-2.940860e-06	-6.811863e-10	-2.041378e+01	-4.653578e+01
1.190000e-06	-2.901266e-06	-6.789723e-10	-2.013895e+01	-4.630780e+01
1.200000e-06	-2.861483e-06	-6.747555e-10	-1.986280e+01	-4.607272e+01
1.210000e-06	-2.821524e-06	-6.717456e-10	-1.958542e+01	-4.583032e+01
1.220000e-06	-2.781364e-06	-6.660509e-10	-1.930665e+01	-4.558045e+01
1.230000e-06	-2.741100e-06	-6.613910e-10	-1.902717e+01	-4.532294e+01
1.240000e-06	-2.700723e-06	-6.549304e-10	-1.874689e+01	-4.505766e+01
1.250000e-06	-2.660108e-06	-6.487687e-10	-1.846497e+01	-4.478451e+01
1.260000e-06	-2.619169e-06	-6.440731e-10	-1.818079e+01	-4.450340e+01
1.270000e-06	-2.577894e-06	-6.429719e-10	-1.789428e+01	-4.421428e+01
1.280000e-06	-2.536369e-06	-6.396172e-10	-1.760604e+01	-4.391711e+01
1.290000e-06	-2.494518e-06	-6.354700e-10	-1.731554e+01	-4.361188e+01
1.300000e-06	-2.452424e-06	-6.299400e-10	-1.702334e+01	-4.329859e+01
1.310000e-06	-2.410238e-06	-6.286592e-10	-1.673051e+01	-4.297728e+01
1.320000e-06	-2.367781e-06	-6.243246e-10	-1.643580e+01	-4.264798e+01
1.330000e-06	-2.324989e-06	-6.197505e-10	-1.613876e+01	-4.231076e+01
1.340000e-06	-2.281936e-06	-6.129469e-10	-1.583991e+01	-4.196571e+01
1.350000e-06	-2.238657e-06	-6.066655e-10	-1.553949e+01	-4.161290e+01
1.360000e-06	-2.195234e-06	-5.978481e-10	-1.523808e+01	-4.125244e+01
1.370000e-06	-2.151686e-06	-5.929394e-10	-1.493579e+01	-4.088443e+01
1.380000e-06	-2.108012e-06	-5.935108e-10	-1.463262e+01	-4.050899e+01
1.390000e-06	-2.064209e-06	-5.933707e-10	-1.432857e+01	-4.012623e+01
1.400000e-06	-2.020362e-06	-5.915824e-10	-1.402421e+01	-3.973626e+01
1.410000e-06	-1.976423e-06	-5.850313e-10	-1.371921e+01	-3.933918e+01
1.420000e-06	-1.932335e-06	-5.756774e-10	-1.341318e+01	-3.893510e+01
1.430000e-06	-1.888173e-06	-5.663337e-10	-1.310663e+01	-3.852410e+01
1.440000e-06	-1.843941e-06	-5.585481e-10	-1.279960e+01	-3.810626e+01
1.450000e-06	-1.799577e-06	-5.516866e-10	-1.249164e+01	-3.768163e+01
1.460000e-06	-1.754985e-06	-5.478440e-10	-1.218211e+01	-3.725026e+01
1.470000e-06	-1.710348e-06	-5.455651e-10	-1.187227e+01	-3.681216e+01
1.480000e-06	-1.665743e-06	-5.428072e-10	-1.156265e+01	-3.636732e+01
1.490000e-06	-1.621029e-06	-5.357019e-10	-1.125227e+01	-3.591572e+01
1.500000e-06	-1.576113e-06	-5.275930e-10	-1.094049e+01	-3.545729e+01
1.510000e-06	-1.530983e-06	-5.180009e-10	-1.062722e+01	-3.499195e+01
1.520000e-06	-1.485786e-06	-5.054532e-10	-1.031348e+01	-3.451957e+01
1.530000e-06	-1.440523e-06	-4.938605e-10	-9.999299e+00	-3.404000e+01
1.540000e-06	-1.395158e-06	-4.888342e-10	-9.684397e+00	-3.355307e+01
1.550000e-06	-1.349713e-06	-4.838974e-10	-9.368942e+00	-3.305855e+01
1.560000e-06	-1.304118e-06	-4.779996e-10	-9.052452e+00	-3.255620e+01
1.570000e-06	-1.258419e-06	-4.707065e-10	-8.735236e+00	-3.204574e+01
1.580000e-06	-1.212644e-06	-4.638655e-10	-8.417492e+00	-3.152687e+01
1.590000e-06	-1.166729e-06	-4.528759e-10	-8.098771e+00	-3.099924e+01
1.600000e-06	-1.120749e-06	-4.407930e-10	-7.779609e+00	-3.046250e+01
1.610000e-06	-1.074748e-06	-4.299000e-10	-7.460293e+00	-2.991626e+01
1.620000e-06	-1.028646e-06	-4.210742e-10	-7.140276e+00	-2.936010e+01
1.630000e-06	-9.824889e-07	-4.141782e-10	-6.819882e+00	-2.879361e+01
1.640000e-06	-9.362518e-07	-4.053734e-10	-6.498931e+00	-2.821634e+01
1.650000e-06	-8.899413e-07	-3.949115e-10	-6.177469e+00	-2.762783e+01
1.660000e-06	-8.435774e-07	-3.822347e-10	-5.855637e+00	-2.702763e+01
1.670000e-06	-7.971632e-07	-3.694243e-10	-5.533456e+00	-2.641525e+01
1.680000e-06	-7.507342e-07	-3.560278e-10	-5.211172e+00	-2.579025e+01
1.690000e-06	-7.042921e-07	-3.463874e-10	-4.888797e+00	-2.515216e+01
1.700000e-06	-6.577942e-07	-3.392057e-10	-4.566035e+00	-2.450052e+01
1.710000e-06	-6.111492e-07	-3.305248e-10	-4.242252e+00	-2.383491e+01
1.720000e-06	-5.644303e-07	-3.187823e-10	-3.917956e+00	-2.315489e+01
1.730000e-06	-5.177233e-07	-3.068662e-10	-3.593742e+00	-2.246009e+01
1.740000e-06	-4.710225e-07	-2.943391e-10	-3.269572e+00	-2.175013e+01
1.750000e-06	-4.243097e-07	-2.791125e-10	-2.945318e+00	-2.102468e+01
1.760000e-06	-3.775379e-07	-2.658625e-10	-2.620655e+00	-2.028345e+01
1.770000e-06	-3.306629e-07	-2.565846e-10	-2.295275e+00	-1.952620e+01
1.780000e-06	-2.838054e-07	-2.496066e-10	-1.970017e+00	-1.875270e+01
1.790000e-06	-2.370458e-07	-2.406761e-10	-1.645438e+00	-1.796282e+01
1.800000e-06	-1.902753e-07	-2.281951e-10	-1.320783e+00	-1.715644e+01
1.810000e-06	-1.433984e-07	-2.122099e-10	-9.953906e-01	-1.633353e+01
1.820000e-06	-9.660909e-08	-1.953301e-10	-6.706057e-01	-1.549410e+01
1.830000e-06	-4.990440e-08	-1.810281e-10	-3.464081e-01	-1.463823e+01
1.840000e-06	-3.087685e-09	-1.667349e-10	-2.143297e-02	-1.376605e+01
1.850000e-06	4.379911e-08	-1.563560e-10	3.040287e-01	-1.287779e+01
1.860000e-06	9.069973e-08	-1.477571e-10	6.295862e-01	-1.197371e+01
1.870000e-06	1.375407e-07	-1.387243e-10	9.547300e-01	-1.105416e+01
1.880000e-06	1.843952e-07	-1.272581e-10	1.279967e+00	-1.011954e+01
1.890000e-06	2.313122e-07	-1.125473e-10	1.605639e+00	-9.170326e+00
1.900000e-06	2.782391e-07	-9.704210e-11	1.931378e+00	-8.207064e+00
1.910000e-06	3.250834e-07	-8.118932e-11	2.256545e+00	-7.230357e+00
1.920000e-06	3.718439e-07	-6.845284e-11	2.581130e+00	-6.240872e+00
1.930000e-06	4.186034e-07	-5.745714e-11	2.905708e+00	-5.239338e+00
1.940000e-06	4.653092e-07	-4.737115e-11	3.229913e+00	-4.226537e+00
1.950000e-06	5.119757e-07	-3.768971e-11	3.553846e+00	-3.203308e+00
1.960000e-06	5.586588e-07	-2.520678e-11	3.877893e+00	-2.170536e+00
1.970000e-06	6.053731e-07	-1.060148e-11	4.202157e+00	-1.129154e+00
1.980000e-06	6.520177e-07	5.903647e-12	4.525938e+00	-8.013608e-02
1.990000e-06	6.985179e-07	2.268581e-11	4.848716e+00	9.755102e-01
2.000000e-06	7.449495e-07	3.852164e-11	5.171018e+00	2.036744e+00
2.010000e-06	7.913681e-07	5.335243e-11	5.493230e+00	3.102502e+00
2.020000e-06	8.377775e-07	6.491424e-11	5.815377e+00	4.171696e+00
2.030000e-06	8.840356e-07	7.567192e-11	6.136475e+00	5.243229e+00
2.040000e-06	9.302034e-07	8.847656e-11	6.456946e+00	6.315991e+00
2.050000e-06	9.763849e-07	1.043337e-10	6.777512e+00	7.388873e+00
2.060000e-06	1.022459e-06	1.207166e-10	7.097331e+00	8.460767e+00
2.070000e-06	1.068457e-06	1.383477e-10	7.416626e+00	9.530574e+00
2.080000e-06	1.114361e-06	1.558935e-10	7.735262e+00	1.059721e+01
2.090000e-06	1.160160e-06	1.710939e-10	8.053177e+00	1.165961e+01
2.100000e-06	1.205938e-06	1.842196e-10	8.370937e+00	1.271673e+01
2.110000e-06	1.251657e-06	1.960186e-10	8.688293e+00	1.376757e+01
2.120000e-06	1.297227e-06	2.086459e-10	9.004615e+00	1.481115e+01
2.130000e-06	1.342699e-06	2.219393e-10	9.320258e+00	1.584654e+01
2.140000e-06	1.388064e-06	2.343528e-10	9.635153e+00	1.687284e+01
2.150000e-06	1.433263e-06	2.469937e-10	9.948898e+00	1.788921e+01
2.160000e-06	1.478426e-06	2.614795e-10	1.026240e+01	1.889485e+01
2.170000e-06	1.523572e-06	2.781701e-10	1.057577e+01	1.988904e+01
2.180000e-06	1.568585e-06	2.942242e-10	1.088823e+01	2.087107e+01
2.190000e-06	1.613400e-06	3.071384e-10	1.119931e+01	2.184032e+01
2.200000e-06	1.658089e-06	3.177164e-10	1.150952e+01	2.279622e+01
2.210000e-06	1.702603e-06	3.281485e-10	1.181850e+01	2.373827e+01
2.220000e-06	1.747042e-06	3.408687e-10	1.212698e+01	2.466601e+01
2.230000e-06	1.791423e-06	3.554288e-10	1.243504e+01	2.557906e+01
2.240000e-06	1.835594e-06	3.702633e-10	1.274166e+01	2.647708e+01
2.250000e-06	1.879684e-06	3.835229e-10	1.304770e+01	2.735980e+01
2.260000e-06	1.923684e-06	3.951413e-10	1.335313e+01	2.822702e+01
2.270000e-06	1.967580e-06	4.059579e-10	1.365783e+01	2.907858e+01
2.280000e-06	2.011441e-06	4.152351e-10	1.396228e+01	2.991437e+01
2.290000e-06	2.055276e-06	4.242356e-10	1.426656e+01	3.073433e+01
2.300000e-06	2.099056e-06	4.351449e-10	1.457046e+01	3.153848e+01
2.310000e-06	2.142740e-06	4.473865e-10	1.487369e+01	3.232684e+01
2.320000e-06	2.186336e-06	4.609232e-10	1.517631e+01	3.309949e+01
2.330000e-06	2.229803e-06	4.745264e-10	1.547803e+01	3.385657e+01
2.340000e-06	2.273114e-06	4.863848e-10	1.577867e+01	3.459823e+01
2.350000e-06	2.316271e-06	4.952844e-10	1.607824e+01	3.532465e+01
2.360000e-06	2.359161e-06	5.021397e-10	1.637596e+01	3.603604e+01
2.370000e-06	2.401713e-06	5.086342e-10	1.667133e+01	3.673264e+01
2.380000e-06	2.443970e-06	5.176306e-10	1.696466e+01	3.741469e+01
2.390000e-06	2.486062e-06	5.309356e-10	1.725684e+01	3.808248e+01
2.400000e-06	2.527782e-06	5.462091e-10	1.754643e+01	3.873628e+01
2.410000e-06	2.569005e-06	5.604509e-10	1.783258e+01	3.937636e+01
2.420000e-06	2.610011e-06	5.728259e-10	1.811722e+01	4.000302e+01
2.430000e-06	2.650864e-06	5.815335e-10	1.840080e+01	4.061655e+01
2.440000e-06	2.691481e-06	5.872358e-10	1.868274e+01	4.121723e+01
2.450000e-06	2.731873e-06	5.923043e-10	1.896312e+01	4.180533e+01
2.460000e-06	2.772050e-06	5.983788e-10	1.924200e+01	4.238112e+01
2.470000e-06	2.812064e-06	6.067239e-10	1.951976e+01	4.294486e+01
2.480000e-06	2.851924e-06	6.176303e-10	1.979644e+01	4.349678e+01
2.490000e-06	2.891730e-06	6.289889e-10	2.007275e+01	4.403712e+01
2.500000e-06	2.931440e-06	6.382014e-10	2.034840e+01	4.456608e+01
2.510000e-06	2.970889e-06	6.450402e-10	2.062223e+01	4.508384e+01
2.520000e-06	3.010229e-06	6.497592e-10	2.089531e+01	4.559059e+01
2.530000e-06	3.049396e-06	6.528028e-10	2.116718e+01	4.608646e+01
2.540000e-06	3.088295e-06	6.553049e-10	2.143719e+01	4.657159e+01
2.550000e-06	3.127010e-06	6.606158e-10	2.170593e+01	4.704609e+01
2.560000e-06	3.165480e-06	6.695597e-10	2.197297e+01	4.751004e+01
2.570000e-06	3.203656e-06	6.798404e-10	2.223797e+01	4.796352e+01
2.580000e-06	3.241660e-06	6.888810e-10	2.250177e+01	4.840659e+01
2.590000e-06	3.279496e-06	6.941493e-10	2.276440e+01	4.883928e+01
2.600000e-06	3.317092e-06	6.969659e-10	2.302538e+01	4.926162e+01
2.610000e-06	3.354452e-06	6.994694e-10	2.328470e+01	4.967361e+01
2.620000e-06	3.391535e-06	7.016759e-10	2.354212e+01	5.007527e+01
2.630000e-06	3.428350e-06	7.042731e-10	2.379767e+01	5.046657e+01
2.640000e-06	3.464859e-06	7.074127e-10	2.405109e+01	5.084751e+01
2.650000e-06	3.501134e-06	7.119886e-10	2.430289e+01	5.121807e+01
2.660000e-06	3.537248e-06	7.178888e-10	2.455357e+01	5.157822e+01
2.670000e-06	3.573197e-06	7.224012e-10	2.480312e+01	5.192795e+01
2.680000e-06	3.609026e-06	7.265412e-10	2.505182e+01	5.226724e+01
2.690000e-06	3.644755e-06	7.313113e-10	2.529983e+01	5.259608e+01
2.700000e-06	3.680356e-06	7.338930e-10	2.554695e+01	5.291446e+01
2.710000e-06	3.715730e-06	7.368666e-10	2.579249e+01	5.322239e+01
2.720000e-06	3.750804e-06	7.389349e-10	2.603596e+01	5.351989e+01
2.730000e-06	3.785516e-06	7.428518e-10	2.627691e+01	5.380699e+01
2.740000e-06	3.819787e-06	7.485451e-10	2.651480e+01	5.408373e+01
2.750000e-06	3.853563e-06	7.563781e-10	2.674926e+01	5.435018e+01
2.760000e-06	3.886814e-06	7.625611e-10	2.698006e+01	5.460642e+01
2.770000e-06	3.919580e-06	7.662681e-10	2.720751e+01	5.485254e+01
2.780000e-06	3.951993e-06	7.699357e-10	2.743250e+01	5.508867e+01
2.790000e-06	3.984136e-06	7.716994e-10	2.765562e+01	5.531495e+01
2.800000e-06	4.016158e-06	7.733622e-10	2.787789e+01	5.553153e+01
2.810000e-06	4.048077e-06	7.752962e-10	2.809946e+01	5.573860e+01
2.820000e-06	4.079771e-06	7.803350e-10	2.831946e+01	5.593636e+01
2.830000e-06	4.111224e-06	7.882766e-10	2.853779e+01	5.612504e+01
2.840000e-06	4.142465e-06	7.926521e-10	2.875465e+01	5.630487e+01
2.850000e-06	4.173481e-06	7.942170e-10	2.896994e+01	5.647611e+01
2.860000e-06	4.204199e-06	7.959958e-10	2.918317e+01	5.663904e+01
2.870000e-06	4.234529e-06	7.958308e-10	2.939370e+01	5.679395e+01
2.880000e-06	4.264484e-06	7.977742e-10	2.960164e+01	5.694115e+01
2.890000e-06	4.294195e-06	8.036462e-10	2.980787e+01	5.708096e+01
2.900000e-06	4.323724e-06	8.134286e-10	3.001285e+01	5.721370e+01
