# Temperatura_=_14.1
# Concentracion g/m^3_=_1620.0
# C_Vs_to_Am_M_A/Vsm_=_65563218390.804596
# pendiente_HvsI_1/m_=_3716.3
# ordenada_HvsI_A/m_=_1297.0
# frecuencia_Hz_=_135102.257456101

Tiempo_(s)	Campo_(V.s)	Magnetizacion_(V.s)	Campo_(kA/m)	Magnetizacion_(A/m)
0.000000e+00	-5.536596e-06	-8.454021e-10	-3.837608e+01	-5.399186e+01
1.000000e-08	-5.536897e-06	-8.466834e-10	-3.837817e+01	-5.397903e+01
2.000000e-08	-5.536966e-06	-8.465596e-10	-3.837865e+01	-5.396340e+01
3.000000e-08	-5.536729e-06	-8.461616e-10	-3.837700e+01	-5.394484e+01
4.000000e-08	-5.536055e-06	-8.422692e-10	-3.837233e+01	-5.392323e+01
5.000000e-08	-5.534864e-06	-8.382913e-10	-3.836408e+01	-5.389846e+01
6.000000e-08	-5.532991e-06	-8.403408e-10	-3.835110e+01	-5.387046e+01
7.000000e-08	-5.530434e-06	-8.425940e-10	-3.833337e+01	-5.383914e+01
8.000000e-08	-5.527397e-06	-8.428291e-10	-3.831232e+01	-5.380448e+01
9.000000e-08	-5.523907e-06	-8.195603e-10	-3.828813e+01	-5.376645e+01
1.000000e-07	-5.520034e-06	-7.993871e-10	-3.826129e+01	-5.372506e+01
1.100000e-07	-5.515893e-06	-8.324114e-10	-3.823258e+01	-5.368033e+01
1.200000e-07	-5.511444e-06	-8.894508e-10	-3.820175e+01	-5.363233e+01
1.300000e-07	-5.506638e-06	-8.356158e-10	-3.816843e+01	-5.358114e+01
1.400000e-07	-5.501500e-06	-7.931716e-10	-3.813282e+01	-5.352686e+01
1.500000e-07	-5.496069e-06	-7.965030e-10	-3.809517e+01	-5.346963e+01
1.600000e-07	-5.490258e-06	-8.630117e-10	-3.805490e+01	-5.340960e+01
1.700000e-07	-5.484002e-06	-8.385067e-10	-3.801154e+01	-5.334696e+01
1.800000e-07	-5.477311e-06	-7.867006e-10	-3.796516e+01	-5.328190e+01
1.900000e-07	-5.470275e-06	-8.019934e-10	-3.791639e+01	-5.321465e+01
2.000000e-07	-5.462933e-06	-8.472880e-10	-3.786550e+01	-5.314545e+01
2.100000e-07	-5.455258e-06	-8.464518e-10	-3.781230e+01	-5.307454e+01
2.200000e-07	-5.447309e-06	-7.978208e-10	-3.775720e+01	-5.300220e+01
2.300000e-07	-5.439112e-06	-7.983612e-10	-3.770039e+01	-5.292870e+01
2.400000e-07	-5.430607e-06	-8.140405e-10	-3.764144e+01	-5.285431e+01
2.500000e-07	-5.421564e-06	-8.326103e-10	-3.757876e+01	-5.277933e+01
2.600000e-07	-5.411893e-06	-8.103570e-10	-3.751172e+01	-5.270404e+01
2.700000e-07	-5.401556e-06	-8.180940e-10	-3.744008e+01	-5.262872e+01
2.800000e-07	-5.390567e-06	-8.201764e-10	-3.736390e+01	-5.255364e+01
2.900000e-07	-5.379141e-06	-8.368149e-10	-3.728471e+01	-5.247906e+01
3.000000e-07	-5.367389e-06	-8.244422e-10	-3.720325e+01	-5.240524e+01
3.100000e-07	-5.355212e-06	-8.350141e-10	-3.711885e+01	-5.233241e+01
3.200000e-07	-5.342532e-06	-8.321763e-10	-3.703095e+01	-5.226079e+01
3.300000e-07	-5.329456e-06	-8.356532e-10	-3.694032e+01	-5.219056e+01
3.400000e-07	-5.316055e-06	-8.102041e-10	-3.684743e+01	-5.212189e+01
3.500000e-07	-5.302128e-06	-8.022093e-10	-3.675090e+01	-5.205492e+01
3.600000e-07	-5.287750e-06	-8.061393e-10	-3.665124e+01	-5.198975e+01
3.700000e-07	-5.273009e-06	-8.150643e-10	-3.654907e+01	-5.192648e+01
3.800000e-07	-5.257756e-06	-8.068066e-10	-3.644334e+01	-5.186513e+01
3.900000e-07	-5.241993e-06	-8.262140e-10	-3.633409e+01	-5.180573e+01
4.000000e-07	-5.225746e-06	-8.329903e-10	-3.622147e+01	-5.174825e+01
4.100000e-07	-5.209115e-06	-8.010419e-10	-3.610620e+01	-5.169263e+01
4.200000e-07	-5.192133e-06	-7.951350e-10	-3.598849e+01	-5.163879e+01
4.300000e-07	-5.174935e-06	-8.266929e-10	-3.586929e+01	-5.158658e+01
4.400000e-07	-5.157493e-06	-8.119836e-10	-3.574839e+01	-5.153586e+01
4.500000e-07	-5.139609e-06	-7.715877e-10	-3.562443e+01	-5.148644e+01
4.600000e-07	-5.121302e-06	-8.114573e-10	-3.549754e+01	-5.143808e+01
4.700000e-07	-5.102599e-06	-8.358769e-10	-3.536790e+01	-5.139055e+01
4.800000e-07	-5.083530e-06	-7.921437e-10	-3.523572e+01	-5.134358e+01
4.900000e-07	-5.064125e-06	-7.852263e-10	-3.510122e+01	-5.129685e+01
5.000000e-07	-5.044489e-06	-8.313253e-10	-3.496511e+01	-5.125007e+01
5.100000e-07	-5.024635e-06	-7.962741e-10	-3.482750e+01	-5.120289e+01
5.200000e-07	-5.004460e-06	-7.652796e-10	-3.468767e+01	-5.115497e+01
5.300000e-07	-4.983971e-06	-8.015052e-10	-3.454565e+01	-5.110596e+01
5.400000e-07	-4.963156e-06	-8.043624e-10	-3.440137e+01	-5.105550e+01
5.500000e-07	-4.941934e-06	-7.587858e-10	-3.425427e+01	-5.100323e+01
5.600000e-07	-4.920331e-06	-7.939257e-10	-3.410454e+01	-5.094879e+01
5.700000e-07	-4.898369e-06	-8.157058e-10	-3.395231e+01	-5.089183e+01
5.800000e-07	-4.876124e-06	-7.735864e-10	-3.379812e+01	-5.083202e+01
5.900000e-07	-4.853620e-06	-7.658881e-10	-3.364214e+01	-5.076901e+01
6.000000e-07	-4.830708e-06	-7.989598e-10	-3.348333e+01	-5.070252e+01
6.100000e-07	-4.807494e-06	-7.703858e-10	-3.332242e+01	-5.063226e+01
6.200000e-07	-4.784007e-06	-7.585805e-10	-3.315962e+01	-5.055795e+01
6.300000e-07	-4.760251e-06	-7.852811e-10	-3.299497e+01	-5.047939e+01
6.400000e-07	-4.736322e-06	-7.764778e-10	-3.282910e+01	-5.039635e+01
6.500000e-07	-4.712026e-06	-7.550184e-10	-3.266070e+01	-5.030867e+01
6.600000e-07	-4.687278e-06	-7.774324e-10	-3.248916e+01	-5.021622e+01
6.700000e-07	-4.662149e-06	-7.768812e-10	-3.231498e+01	-5.011891e+01
6.800000e-07	-4.636439e-06	-7.554244e-10	-3.213678e+01	-5.001666e+01
6.900000e-07	-4.610082e-06	-7.649021e-10	-3.195409e+01	-4.990946e+01
7.000000e-07	-4.583254e-06	-7.738188e-10	-3.176814e+01	-4.979734e+01
7.100000e-07	-4.556079e-06	-7.580328e-10	-3.157977e+01	-4.968033e+01
7.200000e-07	-4.528662e-06	-7.597367e-10	-3.138974e+01	-4.955853e+01
7.300000e-07	-4.501048e-06	-7.681450e-10	-3.119834e+01	-4.943208e+01
7.400000e-07	-4.473246e-06	-7.567055e-10	-3.100563e+01	-4.930113e+01
7.500000e-07	-4.445194e-06	-7.570184e-10	-3.081119e+01	-4.916588e+01
7.600000e-07	-4.416830e-06	-7.604436e-10	-3.061459e+01	-4.902656e+01
7.700000e-07	-4.388127e-06	-7.514245e-10	-3.041564e+01	-4.888342e+01
7.800000e-07	-4.359146e-06	-7.482046e-10	-3.021476e+01	-4.873673e+01
7.900000e-07	-4.329871e-06	-7.574687e-10	-3.001185e+01	-4.858681e+01
8.000000e-07	-4.300306e-06	-7.485152e-10	-2.980693e+01	-4.843395e+01
8.100000e-07	-4.270395e-06	-7.437991e-10	-2.959960e+01	-4.827850e+01
8.200000e-07	-4.240136e-06	-7.500101e-10	-2.938987e+01	-4.812078e+01
8.300000e-07	-4.209639e-06	-7.481853e-10	-2.917848e+01	-4.796115e+01
8.400000e-07	-4.178902e-06	-7.335175e-10	-2.896543e+01	-4.779993e+01
8.500000e-07	-4.147866e-06	-7.355605e-10	-2.875031e+01	-4.763748e+01
8.600000e-07	-4.116560e-06	-7.362035e-10	-2.853332e+01	-4.747413e+01
8.700000e-07	-4.085077e-06	-7.274070e-10	-2.831510e+01	-4.731018e+01
8.800000e-07	-4.053442e-06	-7.227159e-10	-2.809583e+01	-4.714594e+01
8.900000e-07	-4.021632e-06	-7.279289e-10	-2.787534e+01	-4.698170e+01
9.000000e-07	-3.989669e-06	-7.200294e-10	-2.765379e+01	-4.681771e+01
9.100000e-07	-3.957465e-06	-7.137570e-10	-2.743057e+01	-4.665418e+01
9.200000e-07	-3.924841e-06	-7.139433e-10	-2.720444e+01	-4.649133e+01
9.300000e-07	-3.891811e-06	-7.105875e-10	-2.697550e+01	-4.632932e+01
9.400000e-07	-3.858198e-06	-7.008526e-10	-2.674252e+01	-4.616826e+01
9.500000e-07	-3.824096e-06	-7.037304e-10	-2.650615e+01	-4.600825e+01
9.600000e-07	-3.789708e-06	-7.077016e-10	-2.626779e+01	-4.584933e+01
9.700000e-07	-3.754915e-06	-7.022886e-10	-2.602663e+01	-4.569152e+01
9.800000e-07	-3.719713e-06	-6.994993e-10	-2.578263e+01	-4.553477e+01
9.900000e-07	-3.684253e-06	-6.998571e-10	-2.553685e+01	-4.537900e+01
1.000000e-06	-3.648647e-06	-6.917567e-10	-2.529005e+01	-4.522411e+01
1.010000e-06	-3.612878e-06	-6.829172e-10	-2.504212e+01	-4.506992e+01
1.020000e-06	-3.576988e-06	-6.823635e-10	-2.479336e+01	-4.491623e+01
1.030000e-06	-3.540967e-06	-6.822629e-10	-2.454368e+01	-4.476282e+01
1.040000e-06	-3.504823e-06	-6.801159e-10	-2.429315e+01	-4.460941e+01
1.050000e-06	-3.468449e-06	-6.789012e-10	-2.404103e+01	-4.445568e+01
1.060000e-06	-3.431779e-06	-6.769091e-10	-2.378686e+01	-4.430131e+01
1.070000e-06	-3.394832e-06	-6.685679e-10	-2.353077e+01	-4.414593e+01
1.080000e-06	-3.357508e-06	-6.631097e-10	-2.327206e+01	-4.398916e+01
1.090000e-06	-3.319936e-06	-6.625589e-10	-2.301164e+01	-4.383059e+01
1.100000e-06	-3.282205e-06	-6.637909e-10	-2.275011e+01	-4.366979e+01
1.110000e-06	-3.244279e-06	-6.595161e-10	-2.248723e+01	-4.350635e+01
1.120000e-06	-3.206147e-06	-6.548342e-10	-2.222292e+01	-4.333982e+01
1.130000e-06	-3.167816e-06	-6.467225e-10	-2.195724e+01	-4.316977e+01
1.140000e-06	-3.129229e-06	-6.393470e-10	-2.168978e+01	-4.299575e+01
1.150000e-06	-3.090342e-06	-6.330313e-10	-2.142024e+01	-4.281734e+01
1.160000e-06	-3.051249e-06	-6.296978e-10	-2.114927e+01	-4.263412e+01
1.170000e-06	-3.011964e-06	-6.272242e-10	-2.087698e+01	-4.244568e+01
1.180000e-06	-2.972515e-06	-6.273482e-10	-2.060354e+01	-4.225164e+01
1.190000e-06	-2.932961e-06	-6.264125e-10	-2.032938e+01	-4.205164e+01
1.200000e-06	-2.893271e-06	-6.252440e-10	-2.005427e+01	-4.184534e+01
1.210000e-06	-2.853432e-06	-6.225423e-10	-1.977814e+01	-4.163243e+01
1.220000e-06	-2.813480e-06	-6.194764e-10	-1.950121e+01	-4.141263e+01
1.230000e-06	-2.773365e-06	-6.144635e-10	-1.922316e+01	-4.118571e+01
1.240000e-06	-2.733051e-06	-6.117576e-10	-1.894373e+01	-4.095145e+01
1.250000e-06	-2.692443e-06	-6.087383e-10	-1.866227e+01	-4.070968e+01
1.260000e-06	-2.651646e-06	-6.035019e-10	-1.837948e+01	-4.046026e+01
1.270000e-06	-2.610732e-06	-5.996082e-10	-1.809590e+01	-4.020309e+01
1.280000e-06	-2.569566e-06	-5.971513e-10	-1.781056e+01	-3.993810e+01
1.290000e-06	-2.528040e-06	-5.946377e-10	-1.752273e+01	-3.966526e+01
1.300000e-06	-2.486072e-06	-5.912525e-10	-1.723183e+01	-3.938458e+01
1.310000e-06	-2.443825e-06	-5.856038e-10	-1.693900e+01	-3.909609e+01
1.320000e-06	-2.401273e-06	-5.808351e-10	-1.664406e+01	-3.879984e+01
1.330000e-06	-2.358411e-06	-5.774806e-10	-1.634697e+01	-3.849594e+01
1.340000e-06	-2.315415e-06	-5.746895e-10	-1.604895e+01	-3.818448e+01
1.350000e-06	-2.272213e-06	-5.704889e-10	-1.574950e+01	-3.786559e+01
1.360000e-06	-2.228816e-06	-5.641032e-10	-1.544870e+01	-3.753943e+01
1.370000e-06	-2.185310e-06	-5.596724e-10	-1.514715e+01	-3.720613e+01
1.380000e-06	-2.141647e-06	-5.557598e-10	-1.484451e+01	-3.686586e+01
1.390000e-06	-2.097894e-06	-5.532122e-10	-1.454124e+01	-3.651877e+01
1.400000e-06	-2.054074e-06	-5.500147e-10	-1.423751e+01	-3.616503e+01
1.410000e-06	-2.010144e-06	-5.453711e-10	-1.393301e+01	-3.580476e+01
1.420000e-06	-1.966222e-06	-5.375783e-10	-1.362857e+01	-3.543812e+01
1.430000e-06	-1.922260e-06	-5.302370e-10	-1.332386e+01	-3.506520e+01
1.440000e-06	-1.878106e-06	-5.231128e-10	-1.301781e+01	-3.468610e+01
1.450000e-06	-1.833835e-06	-5.159436e-10	-1.271095e+01	-3.430087e+01
1.460000e-06	-1.789448e-06	-5.071250e-10	-1.240329e+01	-3.390955e+01
1.470000e-06	-1.744921e-06	-4.978148e-10	-1.209466e+01	-3.351213e+01
1.480000e-06	-1.700209e-06	-4.885258e-10	-1.178474e+01	-3.310855e+01
1.490000e-06	-1.655312e-06	-4.792227e-10	-1.147355e+01	-3.269874e+01
1.500000e-06	-1.610296e-06	-4.704218e-10	-1.116153e+01	-3.228255e+01
1.510000e-06	-1.565125e-06	-4.654732e-10	-1.084843e+01	-3.185980e+01
1.520000e-06	-1.519824e-06	-4.577530e-10	-1.053443e+01	-3.143027e+01
1.530000e-06	-1.474445e-06	-4.489062e-10	-1.021990e+01	-3.099368e+01
1.540000e-06	-1.428996e-06	-4.400861e-10	-9.904874e+00	-3.054969e+01
1.550000e-06	-1.383476e-06	-4.318787e-10	-9.589356e+00	-3.009794e+01
1.560000e-06	-1.337871e-06	-4.223598e-10	-9.273253e+00	-2.963799e+01
1.570000e-06	-1.292099e-06	-4.106891e-10	-8.955989e+00	-2.916939e+01
1.580000e-06	-1.246286e-06	-3.994620e-10	-8.638445e+00	-2.869161e+01
1.590000e-06	-1.200433e-06	-3.903180e-10	-8.320618e+00	-2.820410e+01
1.600000e-06	-1.154491e-06	-3.813160e-10	-8.002181e+00	-2.770629e+01
1.610000e-06	-1.108502e-06	-3.742869e-10	-7.683412e+00	-2.719755e+01
1.620000e-06	-1.062376e-06	-3.664706e-10	-7.363703e+00	-2.667723e+01
1.630000e-06	-1.016205e-06	-3.590476e-10	-7.043672e+00	-2.614467e+01
1.640000e-06	-9.699642e-07	-3.504626e-10	-6.723161e+00	-2.559918e+01
1.650000e-06	-9.236312e-07	-3.361287e-10	-6.402011e+00	-2.504009e+01
1.660000e-06	-8.771887e-07	-3.201293e-10	-6.080102e+00	-2.446669e+01
1.670000e-06	-8.305958e-07	-3.046025e-10	-5.757150e+00	-2.387830e+01
1.680000e-06	-7.839769e-07	-2.969578e-10	-5.434018e+00	-2.327425e+01
1.690000e-06	-7.373291e-07	-2.913546e-10	-5.110686e+00	-2.265389e+01
1.700000e-06	-6.906370e-07	-2.897902e-10	-4.787047e+00	-2.201660e+01
1.710000e-06	-6.440097e-07	-2.835418e-10	-4.463856e+00	-2.136177e+01
1.720000e-06	-5.973707e-07	-2.735388e-10	-4.140585e+00	-2.068888e+01
1.730000e-06	-5.506927e-07	-2.584350e-10	-3.817043e+00	-1.999743e+01
1.740000e-06	-5.039698e-07	-2.420269e-10	-3.493191e+00	-1.928698e+01
1.750000e-06	-4.571598e-07	-2.274856e-10	-3.168734e+00	-1.855716e+01
1.760000e-06	-4.103081e-07	-2.155133e-10	-2.843989e+00	-1.780767e+01
1.770000e-06	-3.634546e-07	-2.052225e-10	-2.519231e+00	-1.703829e+01
1.780000e-06	-3.166232e-07	-1.971342e-10	-2.194626e+00	-1.624888e+01
1.790000e-06	-2.696766e-07	-1.897912e-10	-1.869223e+00	-1.543939e+01
1.800000e-06	-2.226596e-07	-1.783401e-10	-1.543331e+00	-1.460986e+01
1.810000e-06	-1.756639e-07	-1.644812e-10	-1.217588e+00	-1.376042e+01
1.820000e-06	-1.287106e-07	-1.487924e-10	-8.921381e-01	-1.289131e+01
1.830000e-06	-8.177404e-08	-1.347933e-10	-5.668045e-01	-1.200286e+01
1.840000e-06	-3.478256e-08	-1.228150e-10	-2.410901e-01	-1.109551e+01
1.850000e-06	1.228280e-08	-1.103813e-10	8.513640e-02	-1.016981e+01
1.860000e-06	5.932315e-08	-9.953815e-11	4.111895e-01	-9.226390e+00
1.870000e-06	1.062971e-07	-8.624660e-11	7.367823e-01	-8.265993e+00
1.880000e-06	1.532798e-07	-7.127330e-11	1.062436e+00	-7.289460e+00
1.890000e-06	2.002124e-07	-5.927597e-11	1.387742e+00	-6.297726e+00
1.900000e-06	2.471799e-07	-4.648889e-11	1.713290e+00	-5.291817e+00
1.910000e-06	2.941959e-07	-3.397688e-11	2.039175e+00	-4.272847e+00
1.920000e-06	3.412508e-07	-1.973047e-11	2.365329e+00	-3.242012e+00
1.930000e-06	3.881987e-07	-5.925770e-12	2.690741e+00	-2.200579e+00
1.940000e-06	4.349863e-07	9.278218e-12	3.015042e+00	-1.149888e+00
1.950000e-06	4.818091e-07	2.098169e-11	3.339588e+00	-9.133834e-02
1.960000e-06	5.285213e-07	3.116015e-11	3.663366e+00	9.736189e-01
1.970000e-06	5.751307e-07	4.188929e-11	3.986432e+00	2.043487e+00
1.980000e-06	6.217525e-07	5.498520e-11	4.309584e+00	3.116734e+00
1.990000e-06	6.683672e-07	7.103616e-11	4.632687e+00	4.191802e+00
2.000000e-06	7.150465e-07	8.957173e-11	4.956237e+00	5.267114e+00
2.010000e-06	7.617027e-07	1.069561e-10	5.279628e+00	6.341090e+00
2.020000e-06	8.081137e-07	1.217857e-10	5.601318e+00	7.412150e+00
2.030000e-06	8.544318e-07	1.338295e-10	5.922366e+00	8.478724e+00
2.040000e-06	9.007445e-07	1.459380e-10	6.243375e+00	9.539267e+00
2.050000e-06	9.469788e-07	1.581054e-10	6.563841e+00	1.059227e+01
2.060000e-06	9.931563e-07	1.717119e-10	6.883914e+00	1.163624e+01
2.070000e-06	1.039228e-06	1.881067e-10	7.203255e+00	1.266978e+01
2.080000e-06	1.085247e-06	2.057864e-10	7.522228e+00	1.369150e+01
2.090000e-06	1.131204e-06	2.208255e-10	7.840773e+00	1.470010e+01
2.100000e-06	1.177039e-06	2.342809e-10	8.158468e+00	1.569436e+01
2.110000e-06	1.222752e-06	2.473866e-10	8.475320e+00	1.667312e+01
2.120000e-06	1.268358e-06	2.594769e-10	8.791431e+00	1.763532e+01
2.130000e-06	1.313888e-06	2.726941e-10	9.107021e+00	1.857998e+01
2.140000e-06	1.359385e-06	2.848359e-10	9.422372e+00	1.950623e+01
2.150000e-06	1.404817e-06	2.963020e-10	9.737280e+00	2.041329e+01
2.160000e-06	1.450172e-06	3.071527e-10	1.005165e+01	2.130047e+01
2.170000e-06	1.495483e-06	3.196101e-10	1.036571e+01	2.216720e+01
2.180000e-06	1.540665e-06	3.323355e-10	1.067889e+01	2.301301e+01
2.190000e-06	1.585717e-06	3.435179e-10	1.099116e+01	2.383754e+01
2.200000e-06	1.630702e-06	3.539768e-10	1.130297e+01	2.464052e+01
2.210000e-06	1.675558e-06	3.644530e-10	1.161388e+01	2.542180e+01
2.220000e-06	1.720234e-06	3.733561e-10	1.192355e+01	2.618132e+01
2.230000e-06	1.764767e-06	3.824352e-10	1.223222e+01	2.691912e+01
2.240000e-06	1.809224e-06	3.917647e-10	1.254036e+01	2.763535e+01
2.250000e-06	1.853551e-06	4.020265e-10	1.284761e+01	2.833021e+01
2.260000e-06	1.897745e-06	4.125224e-10	1.315394e+01	2.900403e+01
2.270000e-06	1.941802e-06	4.221945e-10	1.345931e+01	2.965718e+01
2.280000e-06	1.985704e-06	4.307613e-10	1.376361e+01	3.029015e+01
2.290000e-06	2.029551e-06	4.388272e-10	1.406753e+01	3.090344e+01
2.300000e-06	2.073360e-06	4.449032e-10	1.437119e+01	3.149765e+01
2.310000e-06	2.117128e-06	4.521129e-10	1.467455e+01	3.207342e+01
2.320000e-06	2.160748e-06	4.602990e-10	1.497690e+01	3.263143e+01
2.330000e-06	2.204212e-06	4.683296e-10	1.527816e+01	3.317240e+01
2.340000e-06	2.247559e-06	4.761570e-10	1.557862e+01	3.369709e+01
2.350000e-06	2.290778e-06	4.848008e-10	1.587818e+01	3.420625e+01
2.360000e-06	2.333823e-06	4.934560e-10	1.617654e+01	3.470068e+01
2.370000e-06	2.376603e-06	5.003390e-10	1.647307e+01	3.518116e+01
2.380000e-06	2.419196e-06	5.067921e-10	1.676829e+01	3.564849e+01
2.390000e-06	2.461618e-06	5.128923e-10	1.706233e+01	3.610344e+01
2.400000e-06	2.503768e-06	5.185418e-10	1.735449e+01	3.654678e+01
2.410000e-06	2.545514e-06	5.242901e-10	1.764385e+01	3.697925e+01
2.420000e-06	2.586872e-06	5.312758e-10	1.793051e+01	3.740157e+01
2.430000e-06	2.627994e-06	5.376397e-10	1.821555e+01	3.781443e+01
2.440000e-06	2.668940e-06	5.441979e-10	1.849936e+01	3.821847e+01
2.450000e-06	2.709596e-06	5.532229e-10	1.878116e+01	3.861430e+01
2.460000e-06	2.749928e-06	5.618289e-10	1.906071e+01	3.900248e+01
2.470000e-06	2.790032e-06	5.668383e-10	1.933869e+01	3.938352e+01
2.480000e-06	2.829948e-06	5.714371e-10	1.961536e+01	3.975790e+01
2.490000e-06	2.869723e-06	5.754777e-10	1.989105e+01	4.012601e+01
2.500000e-06	2.909397e-06	5.802742e-10	2.016605e+01	4.048824e+01
2.510000e-06	2.948954e-06	5.874666e-10	2.044023e+01	4.084487e+01
2.520000e-06	2.988371e-06	5.934976e-10	2.071344e+01	4.119618e+01
2.530000e-06	3.027645e-06	5.984671e-10	2.098566e+01	4.154236e+01
2.540000e-06	3.066719e-06	6.042685e-10	2.125650e+01	4.188356e+01
2.550000e-06	3.105611e-06	6.096687e-10	2.152607e+01	4.221990e+01
2.560000e-06	3.144311e-06	6.133814e-10	2.179432e+01	4.255143e+01
2.570000e-06	3.182701e-06	6.157530e-10	2.206041e+01	4.287818e+01
2.580000e-06	3.220803e-06	6.179757e-10	2.232451e+01	4.320011e+01
2.590000e-06	3.258741e-06	6.185023e-10	2.258747e+01	4.351718e+01
2.600000e-06	3.296452e-06	6.185521e-10	2.284886e+01	4.382930e+01
2.610000e-06	3.333896e-06	6.221560e-10	2.310840e+01	4.413634e+01
2.620000e-06	3.371154e-06	6.298790e-10	2.336665e+01	4.443818e+01
2.630000e-06	3.408180e-06	6.368973e-10	2.362329e+01	4.473465e+01
2.640000e-06	3.444984e-06	6.398459e-10	2.387839e+01	4.502558e+01
2.650000e-06	3.481575e-06	6.387606e-10	2.413201e+01	4.531080e+01
2.660000e-06	3.517975e-06	6.376811e-10	2.438431e+01	4.559011e+01
2.670000e-06	3.554257e-06	6.399344e-10	2.463580e+01	4.586333e+01
2.680000e-06	3.590329e-06	6.448751e-10	2.488583e+01	4.613029e+01
2.690000e-06	3.626168e-06	6.512975e-10	2.513424e+01	4.639079e+01
2.700000e-06	3.661852e-06	6.585081e-10	2.538158e+01	4.664470e+01
2.710000e-06	3.697315e-06	6.631648e-10	2.562738e+01	4.689185e+01
2.720000e-06	3.732555e-06	6.649386e-10	2.587165e+01	4.713212e+01
2.730000e-06	3.767534e-06	6.677187e-10	2.611410e+01	4.736541e+01
2.740000e-06	3.802156e-06	6.713443e-10	2.635407e+01	4.759163e+01
2.750000e-06	3.836397e-06	6.744489e-10	2.659141e+01	4.781072e+01
2.760000e-06	3.870333e-06	6.773931e-10	2.682663e+01	4.802266e+01
2.770000e-06	3.903849e-06	6.822389e-10	2.705894e+01	4.822745e+01
2.780000e-06	3.936796e-06	6.869417e-10	2.728731e+01	4.842510e+01
2.790000e-06	3.969414e-06	6.899221e-10	2.751339e+01	4.861569e+01
2.800000e-06	4.001720e-06	6.922762e-10	2.773732e+01	4.879930e+01
2.810000e-06	4.033662e-06	6.950161e-10	2.795872e+01	4.897604e+01
2.820000e-06	4.065366e-06	6.988109e-10	2.817847e+01	4.914606e+01
2.830000e-06	4.096896e-06	7.035047e-10	2.839702e+01	4.930954e+01
2.840000e-06	4.128243e-06	7.074534e-10	2.861430e+01	4.946666e+01
2.850000e-06	4.159451e-06	7.085921e-10	2.883061e+01	4.961764e+01
2.860000e-06	4.190456e-06	7.104982e-10	2.904552e+01	4.976274e+01
2.870000e-06	4.221125e-06	7.146778e-10	2.925809e+01	4.990219e+01
2.880000e-06	4.251423e-06	7.168585e-10	2.946810e+01	5.003628e+01
2.890000e-06	4.281409e-06	7.186039e-10	2.967594e+01	5.016530e+01
2.900000e-06	4.311078e-06	7.212681e-10	2.988159e+01	5.028953e+01
