# Temperatura_=_-0.2
# Concentracion g/m^3_=_1620.0
# C_Vs_to_Am_M_A/Vsm_=_65563218390.804596
# pendiente_HvsI_1/m_=_3716.3
# ordenada_HvsI_A/m_=_1297.0
# frecuencia_Hz_=_135108.51168243232

Tiempo_(s)	Campo_(V.s)	Magnetizacion_(V.s)	Campo_(kA/m)	Magnetizacion_(A/m)
0.000000e+00	-5.528943e-06	-9.370373e-10	-3.837078e+01	-6.223258e+01
1.000000e-08	-5.528999e-06	-9.363648e-10	-3.837117e+01	-6.225075e+01
2.000000e-08	-5.528758e-06	-9.379941e-10	-3.836950e+01	-6.226808e+01
3.000000e-08	-5.528150e-06	-9.379801e-10	-3.836528e+01	-6.228449e+01
4.000000e-08	-5.527069e-06	-9.357740e-10	-3.835778e+01	-6.229990e+01
5.000000e-08	-5.525444e-06	-9.340789e-10	-3.834649e+01	-6.231420e+01
6.000000e-08	-5.523287e-06	-9.266019e-10	-3.833153e+01	-6.232731e+01
7.000000e-08	-5.520515e-06	-9.241891e-10	-3.831229e+01	-6.233913e+01
8.000000e-08	-5.517175e-06	-9.358226e-10	-3.828911e+01	-6.234955e+01
9.000000e-08	-5.513411e-06	-9.377291e-10	-3.826299e+01	-6.235849e+01
1.000000e-07	-5.509243e-06	-9.197989e-10	-3.823406e+01	-6.236584e+01
1.100000e-07	-5.504816e-06	-9.322967e-10	-3.820334e+01	-6.237151e+01
1.200000e-07	-5.500140e-06	-9.295493e-10	-3.817089e+01	-6.237540e+01
1.300000e-07	-5.495193e-06	-9.140312e-10	-3.813655e+01	-6.237743e+01
1.400000e-07	-5.489856e-06	-8.818177e-10	-3.809951e+01	-6.237751e+01
1.500000e-07	-5.484157e-06	-8.927907e-10	-3.805997e+01	-6.237555e+01
1.600000e-07	-5.478165e-06	-9.275897e-10	-3.801838e+01	-6.237148e+01
1.700000e-07	-5.471672e-06	-9.382106e-10	-3.797332e+01	-6.236523e+01
1.800000e-07	-5.464657e-06	-9.229459e-10	-3.792464e+01	-6.235673e+01
1.900000e-07	-5.457335e-06	-9.207890e-10	-3.787382e+01	-6.234592e+01
2.000000e-07	-5.449807e-06	-9.352856e-10	-3.782158e+01	-6.233276e+01
2.100000e-07	-5.442038e-06	-9.439182e-10	-3.776766e+01	-6.231719e+01
2.200000e-07	-5.433963e-06	-9.366688e-10	-3.771162e+01	-6.229917e+01
2.300000e-07	-5.425474e-06	-9.378622e-10	-3.765271e+01	-6.227868e+01
2.400000e-07	-5.416379e-06	-9.631134e-10	-3.758959e+01	-6.225568e+01
2.500000e-07	-5.406590e-06	-9.724483e-10	-3.752165e+01	-6.223016e+01
2.600000e-07	-5.396233e-06	-9.596275e-10	-3.744978e+01	-6.220210e+01
2.700000e-07	-5.385344e-06	-9.506896e-10	-3.737421e+01	-6.217149e+01
2.800000e-07	-5.373969e-06	-9.685420e-10	-3.729526e+01	-6.213832e+01
2.900000e-07	-5.362277e-06	-9.722811e-10	-3.721412e+01	-6.210259e+01
3.000000e-07	-5.350172e-06	-9.612801e-10	-3.713011e+01	-6.206431e+01
3.100000e-07	-5.337537e-06	-9.485836e-10	-3.704243e+01	-6.202348e+01
3.200000e-07	-5.324549e-06	-9.710911e-10	-3.695229e+01	-6.198010e+01
3.300000e-07	-5.311294e-06	-9.709782e-10	-3.686030e+01	-6.193419e+01
3.400000e-07	-5.297666e-06	-9.487756e-10	-3.676572e+01	-6.188574e+01
3.500000e-07	-5.283609e-06	-9.373136e-10	-3.666817e+01	-6.183478e+01
3.600000e-07	-5.269164e-06	-9.639749e-10	-3.656792e+01	-6.178131e+01
3.700000e-07	-5.254300e-06	-9.601301e-10	-3.646477e+01	-6.172534e+01
3.800000e-07	-5.238863e-06	-9.500575e-10	-3.635763e+01	-6.166686e+01
3.900000e-07	-5.222810e-06	-9.615300e-10	-3.624622e+01	-6.160589e+01
4.000000e-07	-5.206369e-06	-9.578934e-10	-3.613212e+01	-6.154243e+01
4.100000e-07	-5.189586e-06	-9.272615e-10	-3.601565e+01	-6.147646e+01
4.200000e-07	-5.172473e-06	-9.423098e-10	-3.589688e+01	-6.140799e+01
4.300000e-07	-5.155168e-06	-9.688135e-10	-3.577679e+01	-6.133701e+01
4.400000e-07	-5.137494e-06	-9.404090e-10	-3.565413e+01	-6.126349e+01
4.500000e-07	-5.119246e-06	-9.256875e-10	-3.552749e+01	-6.118742e+01
4.600000e-07	-5.100565e-06	-9.556842e-10	-3.539784e+01	-6.110878e+01
4.700000e-07	-5.081543e-06	-9.415582e-10	-3.526583e+01	-6.102755e+01
4.800000e-07	-5.062196e-06	-9.101055e-10	-3.513156e+01	-6.094369e+01
4.900000e-07	-5.042624e-06	-9.427186e-10	-3.499573e+01	-6.085717e+01
5.000000e-07	-5.022842e-06	-9.543736e-10	-3.485845e+01	-6.076795e+01
5.100000e-07	-5.002760e-06	-9.128591e-10	-3.471908e+01	-6.067601e+01
5.200000e-07	-4.982340e-06	-9.223572e-10	-3.457736e+01	-6.058131e+01
5.300000e-07	-4.961553e-06	-9.578737e-10	-3.443310e+01	-6.048379e+01
5.400000e-07	-4.940484e-06	-9.206514e-10	-3.428689e+01	-6.038343e+01
5.500000e-07	-4.919077e-06	-8.984256e-10	-3.413832e+01	-6.028019e+01
5.600000e-07	-4.897255e-06	-9.317092e-10	-3.398687e+01	-6.017403e+01
5.700000e-07	-4.875120e-06	-9.262285e-10	-3.383326e+01	-6.006492e+01
5.800000e-07	-4.852625e-06	-8.977368e-10	-3.367715e+01	-5.995283e+01
5.900000e-07	-4.829786e-06	-9.228540e-10	-3.351864e+01	-5.983773e+01
6.000000e-07	-4.806701e-06	-9.296131e-10	-3.335844e+01	-5.971959e+01
6.100000e-07	-4.783319e-06	-8.966817e-10	-3.319616e+01	-5.959841e+01
6.200000e-07	-4.759635e-06	-8.943360e-10	-3.303180e+01	-5.947418e+01
6.300000e-07	-4.735756e-06	-9.082487e-10	-3.286608e+01	-5.934688e+01
6.400000e-07	-4.711533e-06	-8.883377e-10	-3.269797e+01	-5.921654e+01
6.500000e-07	-4.686877e-06	-8.862052e-10	-3.252686e+01	-5.908316e+01
6.600000e-07	-4.661819e-06	-9.033313e-10	-3.235295e+01	-5.894676e+01
6.700000e-07	-4.636320e-06	-8.957560e-10	-3.217599e+01	-5.880738e+01
6.800000e-07	-4.610270e-06	-8.813114e-10	-3.199520e+01	-5.866506e+01
6.900000e-07	-4.583717e-06	-8.905735e-10	-3.181093e+01	-5.851985e+01
7.000000e-07	-4.556789e-06	-8.882378e-10	-3.162404e+01	-5.837181e+01
7.100000e-07	-4.529459e-06	-8.716932e-10	-3.143438e+01	-5.822100e+01
7.200000e-07	-4.501853e-06	-8.701118e-10	-3.124279e+01	-5.806751e+01
7.300000e-07	-4.474121e-06	-8.746618e-10	-3.105033e+01	-5.791142e+01
7.400000e-07	-4.446258e-06	-8.690750e-10	-3.085696e+01	-5.775283e+01
7.500000e-07	-4.418142e-06	-8.661905e-10	-3.066184e+01	-5.759183e+01
7.600000e-07	-4.389653e-06	-8.666534e-10	-3.046412e+01	-5.742853e+01
7.700000e-07	-4.360775e-06	-8.618420e-10	-3.026372e+01	-5.726304e+01
7.800000e-07	-4.331550e-06	-8.569794e-10	-3.006089e+01	-5.709547e+01
7.900000e-07	-4.302058e-06	-8.561675e-10	-2.985622e+01	-5.692595e+01
8.000000e-07	-4.272265e-06	-8.522462e-10	-2.964945e+01	-5.675460e+01
8.100000e-07	-4.242150e-06	-8.475470e-10	-2.944045e+01	-5.658152e+01
8.200000e-07	-4.211753e-06	-8.501738e-10	-2.922950e+01	-5.640685e+01
8.300000e-07	-4.181093e-06	-8.472166e-10	-2.901672e+01	-5.623069e+01
8.400000e-07	-4.150151e-06	-8.413065e-10	-2.880198e+01	-5.605316e+01
8.500000e-07	-4.118925e-06	-8.414258e-10	-2.858528e+01	-5.587436e+01
8.600000e-07	-4.087530e-06	-8.415378e-10	-2.836739e+01	-5.569438e+01
8.700000e-07	-4.056023e-06	-8.331254e-10	-2.814874e+01	-5.551332e+01
8.800000e-07	-4.024323e-06	-8.322088e-10	-2.792874e+01	-5.533125e+01
8.900000e-07	-3.992387e-06	-8.332317e-10	-2.770710e+01	-5.514823e+01
9.000000e-07	-3.960189e-06	-8.265262e-10	-2.748365e+01	-5.496432e+01
9.100000e-07	-3.927666e-06	-8.214813e-10	-2.725794e+01	-5.477956e+01
9.200000e-07	-3.894766e-06	-8.233504e-10	-2.702962e+01	-5.459396e+01
9.300000e-07	-3.861383e-06	-8.179085e-10	-2.679794e+01	-5.440753e+01
9.400000e-07	-3.827550e-06	-8.122330e-10	-2.656314e+01	-5.422026e+01
9.500000e-07	-3.793260e-06	-8.139851e-10	-2.632517e+01	-5.403212e+01
9.600000e-07	-3.758533e-06	-8.135708e-10	-2.608416e+01	-5.384306e+01
9.700000e-07	-3.723459e-06	-8.083210e-10	-2.584075e+01	-5.365301e+01
9.800000e-07	-3.688097e-06	-8.096628e-10	-2.559533e+01	-5.346188e+01
9.900000e-07	-3.652580e-06	-8.101826e-10	-2.534885e+01	-5.326957e+01
1.000000e-06	-3.616917e-06	-8.030790e-10	-2.510135e+01	-5.307595e+01
1.010000e-06	-3.581110e-06	-7.966726e-10	-2.485285e+01	-5.288087e+01
1.020000e-06	-3.545155e-06	-7.967097e-10	-2.460332e+01	-5.268419e+01
1.030000e-06	-3.509025e-06	-7.936682e-10	-2.435258e+01	-5.248571e+01
1.040000e-06	-3.472700e-06	-7.882715e-10	-2.410049e+01	-5.228524e+01
1.050000e-06	-3.436092e-06	-7.854344e-10	-2.384643e+01	-5.208258e+01
1.060000e-06	-3.399146e-06	-7.773287e-10	-2.359002e+01	-5.187750e+01
1.070000e-06	-3.361892e-06	-7.670157e-10	-2.333148e+01	-5.166977e+01
1.080000e-06	-3.324411e-06	-7.647770e-10	-2.307136e+01	-5.145913e+01
1.090000e-06	-3.286716e-06	-7.629637e-10	-2.280976e+01	-5.124534e+01
1.100000e-06	-3.248825e-06	-7.574510e-10	-2.254680e+01	-5.102814e+01
1.110000e-06	-3.210715e-06	-7.547247e-10	-2.228231e+01	-5.080726e+01
1.120000e-06	-3.172383e-06	-7.528422e-10	-2.201629e+01	-5.058242e+01
1.130000e-06	-3.133741e-06	-7.472295e-10	-2.174812e+01	-5.035336e+01
1.140000e-06	-3.094876e-06	-7.400290e-10	-2.147839e+01	-5.011981e+01
1.150000e-06	-3.055987e-06	-7.349764e-10	-2.120851e+01	-4.988150e+01
1.160000e-06	-3.016891e-06	-7.287570e-10	-2.093718e+01	-4.963817e+01
1.170000e-06	-2.977499e-06	-7.258892e-10	-2.066380e+01	-4.938956e+01
1.180000e-06	-2.937967e-06	-7.245153e-10	-2.038944e+01	-4.913543e+01
1.190000e-06	-2.898355e-06	-7.224435e-10	-2.011454e+01	-4.887552e+01
1.200000e-06	-2.858588e-06	-7.181000e-10	-1.983856e+01	-4.860963e+01
1.210000e-06	-2.818660e-06	-7.145450e-10	-1.956146e+01	-4.833752e+01
1.220000e-06	-2.778636e-06	-7.093969e-10	-1.928369e+01	-4.805901e+01
1.230000e-06	-2.738487e-06	-7.011322e-10	-1.900506e+01	-4.777390e+01
1.240000e-06	-2.698086e-06	-6.927136e-10	-1.872468e+01	-4.748202e+01
1.250000e-06	-2.657408e-06	-6.853832e-10	-1.844237e+01	-4.718322e+01
1.260000e-06	-2.616447e-06	-6.792020e-10	-1.815810e+01	-4.687735e+01
1.270000e-06	-2.575119e-06	-6.765413e-10	-1.787129e+01	-4.656430e+01
1.280000e-06	-2.533437e-06	-6.734750e-10	-1.758201e+01	-4.624396e+01
1.290000e-06	-2.491593e-06	-6.693546e-10	-1.729162e+01	-4.591623e+01
1.300000e-06	-2.449554e-06	-6.624911e-10	-1.699987e+01	-4.558104e+01
1.310000e-06	-2.407173e-06	-6.572426e-10	-1.670575e+01	-4.523833e+01
1.320000e-06	-2.364502e-06	-6.535336e-10	-1.640960e+01	-4.488804e+01
1.330000e-06	-2.321573e-06	-6.514367e-10	-1.611168e+01	-4.453013e+01
1.340000e-06	-2.278492e-06	-6.495652e-10	-1.581270e+01	-4.416459e+01
1.350000e-06	-2.235238e-06	-6.427460e-10	-1.551252e+01	-4.379138e+01
1.360000e-06	-2.191775e-06	-6.326738e-10	-1.521089e+01	-4.341049e+01
1.370000e-06	-2.148223e-06	-6.238537e-10	-1.490864e+01	-4.302192e+01
1.380000e-06	-2.104573e-06	-6.189241e-10	-1.460571e+01	-4.262565e+01
1.390000e-06	-2.060813e-06	-6.148904e-10	-1.430201e+01	-4.222168e+01
1.400000e-06	-2.017017e-06	-6.098064e-10	-1.399806e+01	-4.180999e+01
1.410000e-06	-1.973178e-06	-6.025377e-10	-1.369383e+01	-4.139056e+01
1.420000e-06	-1.929231e-06	-5.931626e-10	-1.338884e+01	-4.096338e+01
1.430000e-06	-1.885105e-06	-5.851672e-10	-1.308260e+01	-4.052841e+01
1.440000e-06	-1.840856e-06	-5.792751e-10	-1.277551e+01	-4.008560e+01
1.450000e-06	-1.796478e-06	-5.708183e-10	-1.246753e+01	-3.963490e+01
1.460000e-06	-1.751970e-06	-5.620804e-10	-1.215865e+01	-3.917621e+01
1.470000e-06	-1.707349e-06	-5.545225e-10	-1.184897e+01	-3.870946e+01
1.480000e-06	-1.662596e-06	-5.491649e-10	-1.153839e+01	-3.823452e+01
1.490000e-06	-1.617750e-06	-5.424107e-10	-1.122716e+01	-3.775125e+01
1.500000e-06	-1.572696e-06	-5.368062e-10	-1.091449e+01	-3.725950e+01
1.510000e-06	-1.527496e-06	-5.318672e-10	-1.060080e+01	-3.675907e+01
1.520000e-06	-1.482271e-06	-5.234274e-10	-1.028694e+01	-3.624976e+01
1.530000e-06	-1.437011e-06	-5.109016e-10	-9.972832e+00	-3.573134e+01
1.540000e-06	-1.391673e-06	-4.989542e-10	-9.658188e+00	-3.520354e+01
1.550000e-06	-1.346211e-06	-4.892225e-10	-9.342686e+00	-3.466608e+01
1.560000e-06	-1.300645e-06	-4.804729e-10	-9.026458e+00	-3.411864e+01
1.570000e-06	-1.255009e-06	-4.736456e-10	-8.709742e+00	-3.356090e+01
1.580000e-06	-1.209249e-06	-4.685294e-10	-8.392171e+00	-3.299249e+01
1.590000e-06	-1.163372e-06	-4.609171e-10	-8.073785e+00	-3.241304e+01
1.600000e-06	-1.117424e-06	-4.511621e-10	-7.754905e+00	-3.182216e+01
1.610000e-06	-1.071400e-06	-4.395237e-10	-7.435501e+00	-3.121943e+01
1.620000e-06	-1.025292e-06	-4.276041e-10	-7.115511e+00	-3.060444e+01
1.630000e-06	-9.790973e-07	-4.170792e-10	-6.794921e+00	-2.997674e+01
1.640000e-06	-9.328620e-07	-4.067794e-10	-6.474048e+00	-2.933589e+01
1.650000e-06	-8.865870e-07	-3.952399e-10	-6.152901e+00	-2.868145e+01
1.660000e-06	-8.402554e-07	-3.823852e-10	-5.831360e+00	-2.801298e+01
1.670000e-06	-7.938448e-07	-3.699729e-10	-5.509271e+00	-2.733004e+01
1.680000e-06	-7.473787e-07	-3.586095e-10	-5.186797e+00	-2.663219e+01
1.690000e-06	-7.008997e-07	-3.492200e-10	-4.864233e+00	-2.591903e+01
1.700000e-06	-6.543718e-07	-3.386420e-10	-4.541330e+00	-2.519014e+01
1.710000e-06	-6.077925e-07	-3.262542e-10	-4.218071e+00	-2.444517e+01
1.720000e-06	-5.611540e-07	-3.129537e-10	-3.894400e+00	-2.368375e+01
1.730000e-06	-5.144393e-07	-2.999585e-10	-3.570201e+00	-2.290558e+01
1.740000e-06	-4.677164e-07	-2.869640e-10	-3.245945e+00	-2.211037e+01
1.750000e-06	-4.210799e-07	-2.748758e-10	-2.922288e+00	-2.129790e+01
1.760000e-06	-3.744124e-07	-2.634153e-10	-2.598416e+00	-2.046795e+01
1.770000e-06	-3.275291e-07	-2.527578e-10	-2.273047e+00	-1.962040e+01
1.780000e-06	-2.805425e-07	-2.426546e-10	-1.946961e+00	-1.875515e+01
1.790000e-06	-2.336537e-07	-2.301396e-10	-1.621553e+00	-1.787217e+01
1.800000e-06	-1.868548e-07	-2.148050e-10	-1.296770e+00	-1.697148e+01
1.810000e-06	-1.400466e-07	-1.991439e-10	-9.719214e-01	-1.605318e+01
1.820000e-06	-9.317596e-08	-1.828518e-10	-6.466397e-01	-1.511743e+01
1.830000e-06	-4.626358e-08	-1.676116e-10	-3.210686e-01	-1.416445e+01
1.840000e-06	6.281670e-10	-1.539666e-10	4.359470e-03	-1.319452e+01
1.850000e-06	4.755383e-08	-1.425955e-10	3.300229e-01	-1.220803e+01
1.860000e-06	9.448114e-08	-1.309101e-10	6.556977e-01	-1.120539e+01
1.870000e-06	1.414131e-07	-1.167368e-10	9.814048e-01	-1.018713e+01
1.880000e-06	1.883740e-07	-1.009785e-10	1.307312e+00	-9.153812e+00
1.890000e-06	2.353321e-07	-8.533446e-11	1.633201e+00	-8.106091e+00
1.900000e-06	2.822911e-07	-7.073341e-11	1.959096e+00	-7.044682e+00
1.910000e-06	3.291850e-07	-5.631571e-11	2.284539e+00	-5.970371e+00
1.920000e-06	3.760424e-07	-4.369994e-11	2.609729e+00	-4.884005e+00
1.930000e-06	4.228976e-07	-3.153212e-11	2.934903e+00	-3.786496e+00
1.940000e-06	4.696707e-07	-1.980357e-11	3.259508e+00	-2.678811e+00
1.950000e-06	5.163335e-07	-7.235884e-12	3.583347e+00	-1.561972e+00
1.960000e-06	5.629745e-07	7.598378e-12	3.907035e+00	-4.370523e-01
1.970000e-06	6.095992e-07	2.468006e-11	4.230609e+00	6.948304e-01
1.980000e-06	6.561850e-07	4.238823e-11	4.553914e+00	1.832519e+00
1.990000e-06	7.027091e-07	5.984426e-11	4.876791e+00	2.974820e+00
2.000000e-06	7.491752e-07	7.681530e-11	5.199265e+00	4.120512e+00
2.010000e-06	7.955212e-07	9.245312e-11	5.520905e+00	5.268352e+00
2.020000e-06	8.417396e-07	1.067839e-10	5.841660e+00	6.417077e+00
2.030000e-06	8.879639e-07	1.223104e-10	6.162456e+00	7.565416e+00
2.040000e-06	9.341668e-07	1.377613e-10	6.483104e+00	8.712091e+00
2.050000e-06	9.803075e-07	1.531633e-10	6.803319e+00	9.855829e+00
2.060000e-06	1.026380e-06	1.695937e-10	7.123061e+00	1.099536e+01
2.070000e-06	1.072404e-06	1.874613e-10	7.442465e+00	1.212945e+01
2.080000e-06	1.118389e-06	2.049150e-10	7.761606e+00	1.325684e+01
2.090000e-06	1.164226e-06	2.205266e-10	8.079708e+00	1.437636e+01
2.100000e-06	1.209901e-06	2.353656e-10	8.396692e+00	1.548682e+01
2.110000e-06	1.255470e-06	2.499899e-10	8.712946e+00	1.658709e+01
2.120000e-06	1.300955e-06	2.653367e-10	9.028609e+00	1.767610e+01
2.130000e-06	1.346389e-06	2.808413e-10	9.343921e+00	1.875279e+01
2.140000e-06	1.391782e-06	2.957434e-10	9.658945e+00	1.981620e+01
2.150000e-06	1.437062e-06	3.095802e-10	9.973189e+00	2.086539e+01
2.160000e-06	1.482213e-06	3.242354e-10	1.028653e+01	2.189951e+01
2.170000e-06	1.527352e-06	3.391998e-10	1.059980e+01	2.291775e+01
2.180000e-06	1.572350e-06	3.530112e-10	1.091209e+01	2.391938e+01
2.190000e-06	1.617187e-06	3.657022e-10	1.122325e+01	2.490374e+01
2.200000e-06	1.661912e-06	3.778143e-10	1.153364e+01	2.587026e+01
2.210000e-06	1.706466e-06	3.914258e-10	1.184285e+01	2.681840e+01
2.220000e-06	1.750878e-06	4.064100e-10	1.215107e+01	2.774774e+01
2.230000e-06	1.795168e-06	4.190226e-10	1.245844e+01	2.865789e+01
2.240000e-06	1.839319e-06	4.294854e-10	1.276485e+01	2.954858e+01
2.250000e-06	1.883331e-06	4.389598e-10	1.307029e+01	3.041959e+01
2.260000e-06	1.927333e-06	4.484689e-10	1.337566e+01	3.127075e+01
2.270000e-06	1.971302e-06	4.587466e-10	1.368080e+01	3.210200e+01
2.280000e-06	2.015168e-06	4.698566e-10	1.398524e+01	3.291332e+01
2.290000e-06	2.058964e-06	4.798044e-10	1.428918e+01	3.370477e+01
2.300000e-06	2.102693e-06	4.894179e-10	1.459266e+01	3.447646e+01
2.310000e-06	2.146363e-06	5.001249e-10	1.489572e+01	3.522856e+01
2.320000e-06	2.189935e-06	5.105315e-10	1.519812e+01	3.596131e+01
2.330000e-06	2.233411e-06	5.191317e-10	1.549984e+01	3.667498e+01
2.340000e-06	2.276807e-06	5.271933e-10	1.580101e+01	3.736989e+01
2.350000e-06	2.319993e-06	5.358360e-10	1.610072e+01	3.804641e+01
2.360000e-06	2.362911e-06	5.441155e-10	1.639857e+01	3.870493e+01
2.370000e-06	2.405653e-06	5.533681e-10	1.669519e+01	3.934590e+01
2.380000e-06	2.448234e-06	5.636057e-10	1.699071e+01	3.996978e+01
2.390000e-06	2.490500e-06	5.727001e-10	1.728403e+01	4.057703e+01
2.400000e-06	2.532341e-06	5.810781e-10	1.757441e+01	4.116818e+01
2.410000e-06	2.573673e-06	5.908271e-10	1.786125e+01	4.174372e+01
2.420000e-06	2.614627e-06	6.002711e-10	1.814547e+01	4.230417e+01
2.430000e-06	2.655409e-06	6.092864e-10	1.842850e+01	4.285007e+01
2.440000e-06	2.696031e-06	6.185898e-10	1.871042e+01	4.338193e+01
2.450000e-06	2.736526e-06	6.272400e-10	1.899145e+01	4.390026e+01
2.460000e-06	2.776830e-06	6.346099e-10	1.927116e+01	4.440559e+01
2.470000e-06	2.816856e-06	6.417124e-10	1.954894e+01	4.489840e+01
2.480000e-06	2.856667e-06	6.483658e-10	1.982523e+01	4.537917e+01
2.490000e-06	2.896351e-06	6.550228e-10	2.010064e+01	4.584837e+01
2.500000e-06	2.935945e-06	6.634933e-10	2.037541e+01	4.630643e+01
2.510000e-06	2.975419e-06	6.732254e-10	2.064936e+01	4.675377e+01
2.520000e-06	3.014740e-06	6.821251e-10	2.092225e+01	4.719079e+01
2.530000e-06	3.053892e-06	6.883402e-10	2.119396e+01	4.761784e+01
2.540000e-06	3.092867e-06	6.923844e-10	2.146445e+01	4.803527e+01
2.550000e-06	3.131579e-06	6.955440e-10	2.173311e+01	4.844338e+01
2.560000e-06	3.170008e-06	6.987429e-10	2.199981e+01	4.884246e+01
2.570000e-06	3.208209e-06	7.022831e-10	2.226492e+01	4.923274e+01
2.580000e-06	3.246191e-06	7.078611e-10	2.252852e+01	4.961447e+01
2.590000e-06	3.283997e-06	7.159527e-10	2.279089e+01	4.998782e+01
2.600000e-06	3.321614e-06	7.237455e-10	2.305195e+01	5.035298e+01
2.610000e-06	3.359037e-06	7.305552e-10	2.331167e+01	5.071007e+01
2.620000e-06	3.396277e-06	7.361469e-10	2.357011e+01	5.105923e+01
2.630000e-06	3.433224e-06	7.382435e-10	2.382652e+01	5.140054e+01
2.640000e-06	3.469851e-06	7.376707e-10	2.408072e+01	5.173408e+01
2.650000e-06	3.506244e-06	7.386828e-10	2.433328e+01	5.205991e+01
2.660000e-06	3.542382e-06	7.426420e-10	2.458408e+01	5.237807e+01
2.670000e-06	3.578303e-06	7.479465e-10	2.483337e+01	5.268860e+01
2.680000e-06	3.614055e-06	7.547717e-10	2.508149e+01	5.299151e+01
2.690000e-06	3.649683e-06	7.638433e-10	2.532875e+01	5.328680e+01
2.700000e-06	3.685253e-06	7.710628e-10	2.557560e+01	5.357449e+01
2.710000e-06	3.720683e-06	7.748173e-10	2.582148e+01	5.385458e+01
2.720000e-06	3.755835e-06	7.773990e-10	2.606544e+01	5.412706e+01
2.730000e-06	3.790687e-06	7.794608e-10	2.630731e+01	5.439193e+01
2.740000e-06	3.825104e-06	7.812625e-10	2.654616e+01	5.464920e+01
2.750000e-06	3.858983e-06	7.845042e-10	2.678128e+01	5.489888e+01
2.760000e-06	3.892396e-06	7.906444e-10	2.701317e+01	5.514099e+01
2.770000e-06	3.925340e-06	7.983262e-10	2.724180e+01	5.537556e+01
2.780000e-06	3.957886e-06	8.063400e-10	2.746767e+01	5.560262e+01
2.790000e-06	3.990112e-06	8.120056e-10	2.769132e+01	5.582223e+01
2.800000e-06	4.022043e-06	8.146412e-10	2.791292e+01	5.603444e+01
2.810000e-06	4.053770e-06	8.154490e-10	2.813311e+01	5.623935e+01
2.820000e-06	4.085368e-06	8.154765e-10	2.835239e+01	5.643703e+01
2.830000e-06	4.116829e-06	8.165220e-10	2.857073e+01	5.662761e+01
2.840000e-06	4.148110e-06	8.191502e-10	2.878782e+01	5.681121e+01
2.850000e-06	4.179106e-06	8.234208e-10	2.900293e+01	5.698796e+01
2.860000e-06	4.209678e-06	8.287493e-10	2.921510e+01	5.715803e+01
2.870000e-06	4.239873e-06	8.328567e-10	2.942465e+01	5.732159e+01
2.880000e-06	4.269836e-06	8.365587e-10	2.963260e+01	5.747882e+01
2.890000e-06	4.299534e-06	8.387075e-10	2.983870e+01	5.762992e+01
2.900000e-06	4.328947e-06	8.415221e-10	3.004283e+01	5.777510e+01
