# Temperatura_=_-0.3
# Concentracion g/m^3_=_1620.0
# C_Vs_to_Am_M_A/Vsm_=_65563218390.804596
# pendiente_HvsI_1/m_=_3716.3
# ordenada_HvsI_A/m_=_1297.0
# frecuencia_Hz_=_135108.51030079357

Tiempo_(s)	Campo_(V.s)	Magnetizacion_(V.s)	Campo_(kA/m)	Magnetizacion_(A/m)
0.000000e+00	-5.546224e-06	-1.315345e-09	-3.835990e+01	-8.657655e+01
1.000000e-08	-5.546443e-06	-1.316304e-09	-3.836142e+01	-8.659111e+01
2.000000e-08	-5.546387e-06	-1.318873e-09	-3.836103e+01	-8.660450e+01
3.000000e-08	-5.546026e-06	-1.320223e-09	-3.835853e+01	-8.661671e+01
4.000000e-08	-5.545313e-06	-1.316877e-09	-3.835360e+01	-8.662767e+01
5.000000e-08	-5.544006e-06	-1.309416e-09	-3.834456e+01	-8.663734e+01
6.000000e-08	-5.542074e-06	-1.295113e-09	-3.833120e+01	-8.664563e+01
7.000000e-08	-5.539627e-06	-1.276375e-09	-3.831427e+01	-8.665246e+01
8.000000e-08	-5.536632e-06	-1.289313e-09	-3.829356e+01	-8.665775e+01
9.000000e-08	-5.533052e-06	-1.351841e-09	-3.826880e+01	-8.666138e+01
1.000000e-07	-5.529009e-06	-1.370468e-09	-3.824083e+01	-8.666326e+01
1.100000e-07	-5.524657e-06	-1.303020e-09	-3.821074e+01	-8.666325e+01
1.200000e-07	-5.520198e-06	-1.234780e-09	-3.817989e+01	-8.666125e+01
1.300000e-07	-5.515516e-06	-1.292605e-09	-3.814751e+01	-8.665711e+01
1.400000e-07	-5.510378e-06	-1.323741e-09	-3.811198e+01	-8.665072e+01
1.500000e-07	-5.504811e-06	-1.275639e-09	-3.807347e+01	-8.664193e+01
1.600000e-07	-5.498890e-06	-1.215173e-09	-3.803252e+01	-8.663061e+01
1.700000e-07	-5.492646e-06	-1.287182e-09	-3.798934e+01	-8.661662e+01
1.800000e-07	-5.485874e-06	-1.361672e-09	-3.794250e+01	-8.659982e+01
1.900000e-07	-5.478616e-06	-1.321077e-09	-3.789230e+01	-8.658009e+01
2.000000e-07	-5.471127e-06	-1.249026e-09	-3.784050e+01	-8.655729e+01
2.100000e-07	-5.463414e-06	-1.270380e-09	-3.778716e+01	-8.653129e+01
2.200000e-07	-5.455424e-06	-1.340990e-09	-3.773189e+01	-8.650196e+01
2.300000e-07	-5.447176e-06	-1.328146e-09	-3.767484e+01	-8.646919e+01
2.400000e-07	-5.438609e-06	-1.289938e-09	-3.761559e+01	-8.643286e+01
2.500000e-07	-5.429416e-06	-1.290090e-09	-3.755201e+01	-8.639285e+01
2.600000e-07	-5.419406e-06	-1.328967e-09	-3.748278e+01	-8.634906e+01
2.700000e-07	-5.408715e-06	-1.306195e-09	-3.740883e+01	-8.630140e+01
2.800000e-07	-5.397468e-06	-1.287987e-09	-3.733105e+01	-8.624977e+01
2.900000e-07	-5.385835e-06	-1.299411e-09	-3.725059e+01	-8.619408e+01
3.000000e-07	-5.373958e-06	-1.324967e-09	-3.716844e+01	-8.613426e+01
3.100000e-07	-5.361663e-06	-1.287974e-09	-3.708340e+01	-8.607023e+01
3.200000e-07	-5.348824e-06	-1.267174e-09	-3.699460e+01	-8.600192e+01
3.300000e-07	-5.335544e-06	-1.280457e-09	-3.690275e+01	-8.592927e+01
3.400000e-07	-5.321986e-06	-1.308253e-09	-3.680899e+01	-8.585223e+01
3.500000e-07	-5.308086e-06	-1.273931e-09	-3.671284e+01	-8.577075e+01
3.600000e-07	-5.293714e-06	-1.265349e-09	-3.661344e+01	-8.568479e+01
3.700000e-07	-5.278827e-06	-1.295013e-09	-3.651047e+01	-8.559429e+01
3.800000e-07	-5.263364e-06	-1.306321e-09	-3.640353e+01	-8.549923e+01
3.900000e-07	-5.247232e-06	-1.262303e-09	-3.629195e+01	-8.539958e+01
4.000000e-07	-5.230670e-06	-1.273418e-09	-3.617741e+01	-8.529531e+01
4.100000e-07	-5.213874e-06	-1.306590e-09	-3.606124e+01	-8.518640e+01
4.200000e-07	-5.196765e-06	-1.268352e-09	-3.594290e+01	-8.507281e+01
4.300000e-07	-5.179372e-06	-1.244103e-09	-3.582260e+01	-8.495455e+01
4.400000e-07	-5.161758e-06	-1.297396e-09	-3.570078e+01	-8.483159e+01
4.500000e-07	-5.143777e-06	-1.305587e-09	-3.557642e+01	-8.470391e+01
4.600000e-07	-5.125280e-06	-1.239954e-09	-3.544849e+01	-8.457152e+01
4.700000e-07	-5.106389e-06	-1.257672e-09	-3.531783e+01	-8.443439e+01
4.800000e-07	-5.087120e-06	-1.294426e-09	-3.518456e+01	-8.429253e+01
4.900000e-07	-5.067543e-06	-1.258424e-09	-3.504916e+01	-8.414592e+01
5.000000e-07	-5.047775e-06	-1.241938e-09	-3.491243e+01	-8.399458e+01
5.100000e-07	-5.027853e-06	-1.287873e-09	-3.477464e+01	-8.383848e+01
5.200000e-07	-5.007687e-06	-1.255064e-09	-3.463516e+01	-8.367765e+01
5.300000e-07	-4.987083e-06	-1.221451e-09	-3.449266e+01	-8.351208e+01
5.400000e-07	-4.966052e-06	-1.263356e-09	-3.434720e+01	-8.334179e+01
5.500000e-07	-4.944662e-06	-1.269862e-09	-3.419926e+01	-8.316678e+01
5.600000e-07	-4.922850e-06	-1.205006e-09	-3.404840e+01	-8.298707e+01
5.700000e-07	-4.900728e-06	-1.222290e-09	-3.389539e+01	-8.280268e+01
5.800000e-07	-4.878375e-06	-1.254573e-09	-3.374079e+01	-8.261363e+01
5.900000e-07	-4.855637e-06	-1.221152e-09	-3.358352e+01	-8.241996e+01
6.000000e-07	-4.832517e-06	-1.207987e-09	-3.342362e+01	-8.222169e+01
6.100000e-07	-4.809122e-06	-1.242331e-09	-3.326181e+01	-8.201887e+01
6.200000e-07	-4.785465e-06	-1.216730e-09	-3.309819e+01	-8.181155e+01
6.300000e-07	-4.761600e-06	-1.184909e-09	-3.293313e+01	-8.159978e+01
6.400000e-07	-4.737510e-06	-1.200080e-09	-3.276651e+01	-8.138361e+01
6.500000e-07	-4.713107e-06	-1.201510e-09	-3.259773e+01	-8.116313e+01
6.600000e-07	-4.688231e-06	-1.181458e-09	-3.242568e+01	-8.093839e+01
6.700000e-07	-4.662839e-06	-1.196139e-09	-3.225006e+01	-8.070949e+01
6.800000e-07	-4.636924e-06	-1.203513e-09	-3.207082e+01	-8.047652e+01
6.900000e-07	-4.610423e-06	-1.183444e-09	-3.188753e+01	-8.023957e+01
7.000000e-07	-4.583438e-06	-1.179389e-09	-3.170089e+01	-7.999875e+01
7.100000e-07	-4.556072e-06	-1.183526e-09	-3.151162e+01	-7.975417e+01
7.200000e-07	-4.528475e-06	-1.168835e-09	-3.132074e+01	-7.950596e+01
7.300000e-07	-4.500763e-06	-1.160566e-09	-3.112908e+01	-7.925423e+01
7.400000e-07	-4.472880e-06	-1.169367e-09	-3.093623e+01	-7.899913e+01
7.500000e-07	-4.444739e-06	-1.167570e-09	-3.074159e+01	-7.874078e+01
7.600000e-07	-4.416304e-06	-1.163794e-09	-3.054493e+01	-7.847934e+01
7.700000e-07	-4.387458e-06	-1.162893e-09	-3.034542e+01	-7.821493e+01
7.800000e-07	-4.358234e-06	-1.157614e-09	-3.014329e+01	-7.794772e+01
7.900000e-07	-4.328791e-06	-1.145798e-09	-2.993965e+01	-7.767786e+01
8.000000e-07	-4.299065e-06	-1.144397e-09	-2.973405e+01	-7.740548e+01
8.100000e-07	-4.269067e-06	-1.137060e-09	-2.952658e+01	-7.713074e+01
8.200000e-07	-4.238724e-06	-1.130272e-09	-2.931671e+01	-7.685378e+01
8.300000e-07	-4.208029e-06	-1.129215e-09	-2.910441e+01	-7.657476e+01
8.400000e-07	-4.177106e-06	-1.131082e-09	-2.889054e+01	-7.629379e+01
8.500000e-07	-4.145922e-06	-1.121287e-09	-2.867485e+01	-7.601101e+01
8.600000e-07	-4.114471e-06	-1.118688e-09	-2.845732e+01	-7.572655e+01
8.700000e-07	-4.082830e-06	-1.117127e-09	-2.823848e+01	-7.544051e+01
8.800000e-07	-4.051059e-06	-1.110358e-09	-2.801874e+01	-7.515300e+01
8.900000e-07	-4.019188e-06	-1.103554e-09	-2.779831e+01	-7.486410e+01
9.000000e-07	-3.987134e-06	-1.104238e-09	-2.757661e+01	-7.457389e+01
9.100000e-07	-3.954711e-06	-1.095602e-09	-2.735236e+01	-7.428243e+01
9.200000e-07	-3.921836e-06	-1.087760e-09	-2.712498e+01	-7.398976e+01
9.300000e-07	-3.888513e-06	-1.088947e-09	-2.689451e+01	-7.369589e+01
9.400000e-07	-3.854799e-06	-1.089747e-09	-2.666133e+01	-7.340086e+01
9.500000e-07	-3.820600e-06	-1.081831e-09	-2.642479e+01	-7.310462e+01
9.600000e-07	-3.785917e-06	-1.078812e-09	-2.618491e+01	-7.280717e+01
9.700000e-07	-3.750950e-06	-1.077779e-09	-2.594307e+01	-7.250843e+01
9.800000e-07	-3.715669e-06	-1.069324e-09	-2.569905e+01	-7.220835e+01
9.900000e-07	-3.680091e-06	-1.062642e-09	-2.545298e+01	-7.190682e+01
1.000000e-06	-3.644343e-06	-1.061129e-09	-2.520573e+01	-7.160373e+01
1.010000e-06	-3.608467e-06	-1.054255e-09	-2.495760e+01	-7.129893e+01
1.020000e-06	-3.572481e-06	-1.045601e-09	-2.470871e+01	-7.099229e+01
1.030000e-06	-3.536348e-06	-1.043797e-09	-2.445880e+01	-7.068361e+01
1.040000e-06	-3.499977e-06	-1.039217e-09	-2.420724e+01	-7.037270e+01
1.050000e-06	-3.463300e-06	-1.029843e-09	-2.395357e+01	-7.005934e+01
1.060000e-06	-3.426340e-06	-1.021530e-09	-2.369794e+01	-6.974332e+01
1.070000e-06	-3.389130e-06	-1.017427e-09	-2.344058e+01	-6.942436e+01
1.080000e-06	-3.351701e-06	-1.010793e-09	-2.318170e+01	-6.910222e+01
1.090000e-06	-3.313996e-06	-1.007841e-09	-2.292092e+01	-6.877663e+01
1.100000e-06	-3.276110e-06	-1.005139e-09	-2.265889e+01	-6.844728e+01
1.110000e-06	-3.238057e-06	-9.988122e-10	-2.239570e+01	-6.811389e+01
1.120000e-06	-3.199745e-06	-9.886263e-10	-2.213071e+01	-6.777615e+01
1.130000e-06	-3.161218e-06	-9.820685e-10	-2.186425e+01	-6.743375e+01
1.140000e-06	-3.122519e-06	-9.731990e-10	-2.159659e+01	-6.708638e+01
1.150000e-06	-3.083535e-06	-9.634357e-10	-2.132696e+01	-6.673372e+01
1.160000e-06	-3.044305e-06	-9.559720e-10	-2.105563e+01	-6.637545e+01
1.170000e-06	-3.004909e-06	-9.538191e-10	-2.078315e+01	-6.601127e+01
1.180000e-06	-2.965376e-06	-9.504193e-10	-2.050972e+01	-6.564085e+01
1.190000e-06	-2.925746e-06	-9.473499e-10	-2.023563e+01	-6.526391e+01
1.200000e-06	-2.885959e-06	-9.424348e-10	-1.996045e+01	-6.488012e+01
1.210000e-06	-2.846032e-06	-9.351030e-10	-1.968429e+01	-6.448922e+01
1.220000e-06	-2.805977e-06	-9.273377e-10	-1.940726e+01	-6.409091e+01
1.230000e-06	-2.765699e-06	-9.206297e-10	-1.912868e+01	-6.368494e+01
1.240000e-06	-2.725134e-06	-9.126083e-10	-1.884812e+01	-6.327105e+01
1.250000e-06	-2.684352e-06	-9.037344e-10	-1.856605e+01	-6.284899e+01
1.260000e-06	-2.643318e-06	-8.982413e-10	-1.828225e+01	-6.241854e+01
1.270000e-06	-2.602070e-06	-8.952092e-10	-1.799695e+01	-6.197950e+01
1.280000e-06	-2.560530e-06	-8.922304e-10	-1.770965e+01	-6.153166e+01
1.290000e-06	-2.518625e-06	-8.874068e-10	-1.741981e+01	-6.107484e+01
1.300000e-06	-2.476536e-06	-8.793941e-10	-1.712871e+01	-6.060888e+01
1.310000e-06	-2.434191e-06	-8.702708e-10	-1.683583e+01	-6.013364e+01
1.320000e-06	-2.391462e-06	-8.620808e-10	-1.654031e+01	-5.964896e+01
1.330000e-06	-2.348442e-06	-8.552224e-10	-1.624276e+01	-5.915473e+01
1.340000e-06	-2.305160e-06	-8.494513e-10	-1.594341e+01	-5.865085e+01
1.350000e-06	-2.261735e-06	-8.435963e-10	-1.564307e+01	-5.813720e+01
1.360000e-06	-2.218235e-06	-8.369039e-10	-1.534220e+01	-5.761371e+01
1.370000e-06	-2.174606e-06	-8.285204e-10	-1.504044e+01	-5.708028e+01
1.380000e-06	-2.130861e-06	-8.215896e-10	-1.473788e+01	-5.653685e+01
1.390000e-06	-2.087054e-06	-8.136341e-10	-1.443490e+01	-5.598334e+01
1.400000e-06	-2.043192e-06	-8.043537e-10	-1.413154e+01	-5.541968e+01
1.410000e-06	-1.999183e-06	-7.942871e-10	-1.382715e+01	-5.484582e+01
1.420000e-06	-1.955109e-06	-7.851629e-10	-1.352232e+01	-5.426166e+01
1.430000e-06	-1.911040e-06	-7.773442e-10	-1.321752e+01	-5.366716e+01
1.440000e-06	-1.866791e-06	-7.703596e-10	-1.291147e+01	-5.306221e+01
1.450000e-06	-1.822316e-06	-7.612365e-10	-1.260387e+01	-5.244674e+01
1.460000e-06	-1.777779e-06	-7.492547e-10	-1.229583e+01	-5.182064e+01
1.470000e-06	-1.733171e-06	-7.359038e-10	-1.198731e+01	-5.118381e+01
1.480000e-06	-1.688366e-06	-7.242669e-10	-1.167741e+01	-5.053611e+01
1.490000e-06	-1.643383e-06	-7.132956e-10	-1.136629e+01	-4.987742e+01
1.500000e-06	-1.598320e-06	-7.034872e-10	-1.105462e+01	-4.920756e+01
1.510000e-06	-1.553203e-06	-6.930565e-10	-1.074257e+01	-4.852637e+01
1.520000e-06	-1.507999e-06	-6.806731e-10	-1.042992e+01	-4.783365e+01
1.530000e-06	-1.462629e-06	-6.662343e-10	-1.011613e+01	-4.712917e+01
1.540000e-06	-1.417119e-06	-6.512912e-10	-9.801358e+00	-4.641272e+01
1.550000e-06	-1.371541e-06	-6.359165e-10	-9.486125e+00	-4.568402e+01
1.560000e-06	-1.325907e-06	-6.213768e-10	-9.170503e+00	-4.494279e+01
1.570000e-06	-1.280198e-06	-6.089802e-10	-8.854364e+00	-4.418875e+01
1.580000e-06	-1.234333e-06	-6.001428e-10	-8.537140e+00	-4.342158e+01
1.590000e-06	-1.188326e-06	-5.901891e-10	-8.218940e+00	-4.264093e+01
1.600000e-06	-1.142265e-06	-5.767323e-10	-7.900360e+00	-4.184645e+01
1.610000e-06	-1.096137e-06	-5.632891e-10	-7.581324e+00	-4.103778e+01
1.620000e-06	-1.049934e-06	-5.509304e-10	-7.261760e+00	-4.021455e+01
1.630000e-06	-1.003608e-06	-5.390674e-10	-6.941351e+00	-3.937635e+01
1.640000e-06	-9.571961e-07	-5.246593e-10	-6.620351e+00	-3.852279e+01
1.650000e-06	-9.108259e-07	-5.073675e-10	-6.299636e+00	-3.765349e+01
1.660000e-06	-8.644127e-07	-4.906276e-10	-5.978624e+00	-3.676802e+01
1.670000e-06	-8.178347e-07	-4.757352e-10	-5.656472e+00	-3.586601e+01
1.680000e-06	-7.711708e-07	-4.630648e-10	-5.333725e+00	-3.494706e+01
1.690000e-06	-7.244839e-07	-4.540168e-10	-5.010820e+00	-3.401079e+01
1.700000e-06	-6.777678e-07	-4.451047e-10	-4.687713e+00	-3.305683e+01
1.710000e-06	-6.309895e-07	-4.329337e-10	-4.364176e+00	-3.208486e+01
1.720000e-06	-5.840576e-07	-4.158503e-10	-4.039576e+00	-3.109455e+01
1.730000e-06	-5.370260e-07	-3.966490e-10	-3.714286e+00	-3.008561e+01
1.740000e-06	-4.900375e-07	-3.761835e-10	-3.389295e+00	-2.905780e+01
1.750000e-06	-4.431116e-07	-3.578176e-10	-3.064737e+00	-2.801088e+01
1.760000e-06	-3.961814e-07	-3.429072e-10	-2.740149e+00	-2.694469e+01
1.770000e-06	-3.491805e-07	-3.286515e-10	-2.415072e+00	-2.585911e+01
1.780000e-06	-3.020486e-07	-3.158191e-10	-2.089089e+00	-2.475405e+01
1.790000e-06	-2.548779e-07	-3.021745e-10	-1.762837e+00	-2.362949e+01
1.800000e-06	-2.077584e-07	-2.840311e-10	-1.436940e+00	-2.248547e+01
1.810000e-06	-1.606338e-07	-2.629646e-10	-1.111007e+00	-2.132208e+01
1.820000e-06	-1.135196e-07	-2.416951e-10	-7.851471e-01	-2.013948e+01
1.830000e-06	-6.644945e-08	-2.230104e-10	-4.595910e-01	-1.893791e+01
1.840000e-06	-1.937286e-08	-2.070070e-10	-1.339904e-01	-1.771765e+01
1.850000e-06	2.776809e-08	-1.928880e-10	1.920552e-01	-1.647908e+01
1.860000e-06	7.485047e-08	-1.789969e-10	5.176957e-01	-1.522262e+01
1.870000e-06	1.219017e-07	-1.620614e-10	8.431208e-01	-1.394880e+01
1.880000e-06	1.691002e-07	-1.433492e-10	1.169565e+00	-1.265819e+01
1.890000e-06	2.162409e-07	-1.240884e-10	1.495608e+00	-1.135144e+01
1.900000e-06	2.632679e-07	-1.050610e-10	1.820866e+00	-1.002929e+01
1.910000e-06	3.102897e-07	-8.727323e-11	2.146087e+00	-8.692525e+00
1.920000e-06	3.572432e-07	-7.031793e-11	2.470837e+00	-7.342009e+00
1.930000e-06	4.042014e-07	-5.401096e-11	2.795618e+00	-5.978672e+00
1.940000e-06	4.512026e-07	-3.749287e-11	3.120698e+00	-4.603505e+00
1.950000e-06	4.981214e-07	-2.223639e-11	3.445206e+00	-3.217560e+00
1.960000e-06	5.449857e-07	-5.615067e-12	3.769339e+00	-1.821943e+00
1.970000e-06	5.917679e-07	1.331664e-11	4.092903e+00	-4.178106e-01
1.980000e-06	6.383845e-07	3.333908e-11	4.415323e+00	9.936331e-01
1.990000e-06	6.850032e-07	5.353336e-11	4.737756e+00	2.411143e+00
2.000000e-06	7.316565e-07	7.320515e-11	5.060429e+00	3.833439e+00
2.010000e-06	7.782289e-07	9.286037e-11	5.382542e+00	5.259210e+00
2.020000e-06	8.247787e-07	1.122266e-10	5.704499e+00	6.687121e+00
2.030000e-06	8.712766e-07	1.318627e-10	6.026097e+00	8.115819e+00
2.040000e-06	9.176825e-07	1.521024e-10	6.347059e+00	9.543941e+00
2.050000e-06	9.640248e-07	1.712270e-10	6.667581e+00	1.097012e+01
2.060000e-06	1.010235e-06	1.900068e-10	6.987187e+00	1.239298e+01
2.070000e-06	1.056351e-06	2.100671e-10	7.306142e+00	1.381117e+01
2.080000e-06	1.102421e-06	2.305074e-10	7.624787e+00	1.522335e+01
2.090000e-06	1.148397e-06	2.502172e-10	7.942772e+00	1.662819e+01
2.100000e-06	1.194339e-06	2.688034e-10	8.260528e+00	1.802439e+01
2.110000e-06	1.240252e-06	2.867961e-10	8.578078e+00	1.941070e+01
2.120000e-06	1.286045e-06	3.050113e-10	8.894799e+00	2.078590e+01
2.130000e-06	1.331748e-06	3.237109e-10	9.210904e+00	2.214879e+01
2.140000e-06	1.377369e-06	3.407183e-10	9.526433e+00	2.349827e+01
2.150000e-06	1.422908e-06	3.559449e-10	9.841401e+00	2.483325e+01
2.160000e-06	1.468437e-06	3.723532e-10	1.015630e+01	2.615273e+01
2.170000e-06	1.513919e-06	3.912857e-10	1.047087e+01	2.745576e+01
2.180000e-06	1.559213e-06	4.105596e-10	1.078414e+01	2.874146e+01
2.190000e-06	1.604338e-06	4.282875e-10	1.109625e+01	3.000901e+01
2.200000e-06	1.649336e-06	4.444316e-10	1.140747e+01	3.125768e+01
2.210000e-06	1.694119e-06	4.587943e-10	1.171720e+01	3.248681e+01
2.220000e-06	1.738684e-06	4.726913e-10	1.202544e+01	3.369581e+01
2.230000e-06	1.783174e-06	4.879875e-10	1.233314e+01	3.488417e+01
2.240000e-06	1.827579e-06	5.027480e-10	1.264027e+01	3.605146e+01
2.250000e-06	1.871752e-06	5.172435e-10	1.294578e+01	3.719733e+01
2.260000e-06	1.915807e-06	5.332371e-10	1.325049e+01	3.832150e+01
2.270000e-06	1.959853e-06	5.496552e-10	1.355513e+01	3.942376e+01
2.280000e-06	2.003802e-06	5.637131e-10	1.385909e+01	4.050399e+01
2.290000e-06	2.047670e-06	5.769483e-10	1.416250e+01	4.156214e+01
2.300000e-06	2.091506e-06	5.897756e-10	1.446569e+01	4.259820e+01
2.310000e-06	2.135333e-06	6.033155e-10	1.476881e+01	4.361227e+01
2.320000e-06	2.179128e-06	6.189948e-10	1.507172e+01	4.460448e+01
2.330000e-06	2.222837e-06	6.333629e-10	1.537403e+01	4.557503e+01
2.340000e-06	2.266480e-06	6.458353e-10	1.567588e+01	4.652417e+01
2.350000e-06	2.310015e-06	6.595882e-10	1.597699e+01	4.745221e+01
2.360000e-06	2.353302e-06	6.729519e-10	1.627638e+01	4.835949e+01
2.370000e-06	2.396294e-06	6.853921e-10	1.657373e+01	4.924639e+01
2.380000e-06	2.439021e-06	6.987902e-10	1.686924e+01	5.011335e+01
2.390000e-06	2.481509e-06	7.115881e-10	1.716311e+01	5.096082e+01
2.400000e-06	2.523623e-06	7.234245e-10	1.745439e+01	5.178928e+01
2.410000e-06	2.565157e-06	7.350085e-10	1.774165e+01	5.259921e+01
2.420000e-06	2.606299e-06	7.475034e-10	1.802620e+01	5.339115e+01
2.430000e-06	2.647332e-06	7.604743e-10	1.831001e+01	5.416562e+01
2.440000e-06	2.688269e-06	7.735562e-10	1.859314e+01	5.492314e+01
2.450000e-06	2.728985e-06	7.877484e-10	1.887475e+01	5.566425e+01
2.460000e-06	2.769402e-06	8.013375e-10	1.915429e+01	5.638947e+01
2.470000e-06	2.809598e-06	8.114306e-10	1.943230e+01	5.709934e+01
2.480000e-06	2.849625e-06	8.197704e-10	1.970915e+01	5.779436e+01
2.490000e-06	2.889484e-06	8.273688e-10	1.998482e+01	5.847502e+01
2.500000e-06	2.929183e-06	8.361140e-10	2.025940e+01	5.914181e+01
2.510000e-06	2.968749e-06	8.465394e-10	2.053306e+01	5.979518e+01
2.520000e-06	3.008196e-06	8.563050e-10	2.080588e+01	6.043557e+01
2.530000e-06	3.047528e-06	8.662554e-10	2.107792e+01	6.106339e+01
2.540000e-06	3.086641e-06	8.760445e-10	2.134844e+01	6.167902e+01
2.550000e-06	3.125480e-06	8.839958e-10	2.161707e+01	6.228282e+01
2.560000e-06	3.164035e-06	8.918422e-10	2.188373e+01	6.287512e+01
2.570000e-06	3.202334e-06	9.000515e-10	2.214862e+01	6.345621e+01
2.580000e-06	3.240520e-06	9.069852e-10	2.241273e+01	6.402637e+01
2.590000e-06	3.278541e-06	9.133126e-10	2.267570e+01	6.458583e+01
2.600000e-06	3.316386e-06	9.204732e-10	2.293745e+01	6.513482e+01
2.610000e-06	3.354069e-06	9.284109e-10	2.319808e+01	6.567351e+01
2.620000e-06	3.391522e-06	9.370464e-10	2.345712e+01	6.620207e+01
2.630000e-06	3.428661e-06	9.459449e-10	2.371399e+01	6.672063e+01
2.640000e-06	3.465481e-06	9.529324e-10	2.396865e+01	6.722931e+01
2.650000e-06	3.502035e-06	9.584496e-10	2.422148e+01	6.772819e+01
2.660000e-06	3.538292e-06	9.648161e-10	2.447224e+01	6.821735e+01
2.670000e-06	3.574317e-06	9.715613e-10	2.472140e+01	6.869686e+01
2.680000e-06	3.610200e-06	9.778720e-10	2.496959e+01	6.916675e+01
2.690000e-06	3.646002e-06	9.855133e-10	2.521720e+01	6.962707e+01
2.700000e-06	3.681747e-06	9.942451e-10	2.546443e+01	7.007783e+01
2.710000e-06	3.717360e-06	1.003309e-09	2.571075e+01	7.051906e+01
2.720000e-06	3.752775e-06	1.011952e-09	2.595569e+01	7.095078e+01
2.730000e-06	3.787864e-06	1.019342e-09	2.619838e+01	7.137301e+01
2.740000e-06	3.822525e-06	1.023714e-09	2.643811e+01	7.178576e+01
2.750000e-06	3.856814e-06	1.025032e-09	2.667526e+01	7.218906e+01
2.760000e-06	3.890700e-06	1.026980e-09	2.690963e+01	7.258294e+01
2.770000e-06	3.923972e-06	1.033197e-09	2.713976e+01	7.296744e+01
2.780000e-06	3.956657e-06	1.044569e-09	2.736582e+01	7.334262e+01
2.790000e-06	3.988972e-06	1.055628e-09	2.758933e+01	7.370852e+01
2.800000e-06	4.021047e-06	1.064714e-09	2.781117e+01	7.406524e+01
2.810000e-06	4.052994e-06	1.071792e-09	2.803212e+01	7.441286e+01
2.820000e-06	4.084787e-06	1.074854e-09	2.825202e+01	7.475149e+01
2.830000e-06	4.116453e-06	1.073973e-09	2.847103e+01	7.508125e+01
2.840000e-06	4.147967e-06	1.072592e-09	2.868900e+01	7.540228e+01
2.850000e-06	4.179219e-06	1.074223e-09	2.890515e+01	7.571474e+01
2.860000e-06	4.210084e-06	1.079529e-09	2.911862e+01	7.601880e+01
2.870000e-06	4.240520e-06	1.087278e-09	2.932913e+01	7.631465e+01
2.880000e-06	4.270663e-06	1.095225e-09	2.953761e+01	7.660250e+01
2.890000e-06	4.300558e-06	1.102604e-09	2.974438e+01	7.688258e+01
2.900000e-06	4.330268e-06	1.107347e-09	2.994986e+01	7.715510e+01
