# Temperatura_=_-0.3
# Concentracion g/m^3_=_1620.0
# C_Vs_to_Am_M_A/Vsm_=_65563218390.804596
# pendiente_HvsI_1/m_=_3716.3
# ordenada_HvsI_A/m_=_1297.0
# frecuencia_Hz_=_135106.786550751

Tiempo_(s)	Campo_(V.s)	Magnetizacion_(V.s)	Campo_(kA/m)	Magnetizacion_(A/m)
0.000000e+00	-5.496090e-06	-1.426947e-09	-3.837130e+01	-9.217926e+01
1.000000e-08	-5.496374e-06	-1.426631e-09	-3.837328e+01	-9.221827e+01
2.000000e-08	-5.496377e-06	-1.426685e-09	-3.837330e+01	-9.225302e+01
3.000000e-08	-5.495853e-06	-1.429344e-09	-3.836964e+01	-9.228316e+01
4.000000e-08	-5.494815e-06	-1.430809e-09	-3.836239e+01	-9.230837e+01
5.000000e-08	-5.493303e-06	-1.428488e-09	-3.835184e+01	-9.232832e+01
6.000000e-08	-5.491222e-06	-1.418646e-09	-3.833731e+01	-9.234268e+01
7.000000e-08	-5.488606e-06	-1.413895e-09	-3.831904e+01	-9.235114e+01
8.000000e-08	-5.485487e-06	-1.443046e-09	-3.829727e+01	-9.235341e+01
9.000000e-08	-5.481908e-06	-1.481894e-09	-3.827228e+01	-9.234921e+01
1.000000e-07	-5.477970e-06	-1.429394e-09	-3.824479e+01	-9.233829e+01
1.100000e-07	-5.473706e-06	-1.327359e-09	-3.821502e+01	-9.232042e+01
1.200000e-07	-5.469197e-06	-1.326760e-09	-3.818354e+01	-9.229539e+01
1.300000e-07	-5.464462e-06	-1.453677e-09	-3.815048e+01	-9.226304e+01
1.400000e-07	-5.459278e-06	-1.472366e-09	-3.811429e+01	-9.222321e+01
1.500000e-07	-5.453672e-06	-1.357228e-09	-3.807515e+01	-9.217579e+01
1.600000e-07	-5.447770e-06	-1.318208e-09	-3.803395e+01	-9.212071e+01
1.700000e-07	-5.441423e-06	-1.448413e-09	-3.798964e+01	-9.205792e+01
1.800000e-07	-5.434633e-06	-1.494156e-09	-3.794223e+01	-9.198743e+01
1.900000e-07	-5.427512e-06	-1.386542e-09	-3.789251e+01	-9.190925e+01
2.000000e-07	-5.420137e-06	-1.319340e-09	-3.784102e+01	-9.182346e+01
2.100000e-07	-5.412488e-06	-1.406043e-09	-3.778762e+01	-9.173016e+01
2.200000e-07	-5.404496e-06	-1.472046e-09	-3.773182e+01	-9.162948e+01
2.300000e-07	-5.396257e-06	-1.411314e-09	-3.767431e+01	-9.152161e+01
2.400000e-07	-5.387623e-06	-1.362468e-09	-3.761403e+01	-9.140674e+01
2.500000e-07	-5.378210e-06	-1.404987e-09	-3.754831e+01	-9.128512e+01
2.600000e-07	-5.367974e-06	-1.445874e-09	-3.747685e+01	-9.115700e+01
2.700000e-07	-5.357249e-06	-1.392505e-09	-3.740197e+01	-9.102269e+01
2.800000e-07	-5.346161e-06	-1.357355e-09	-3.732455e+01	-9.088249e+01
2.900000e-07	-5.334666e-06	-1.385362e-09	-3.724430e+01	-9.073674e+01
3.000000e-07	-5.322804e-06	-1.410335e-09	-3.716149e+01	-9.058580e+01
3.100000e-07	-5.310547e-06	-1.363333e-09	-3.707591e+01	-9.043005e+01
3.200000e-07	-5.297777e-06	-1.357515e-09	-3.698676e+01	-9.026985e+01
3.300000e-07	-5.284619e-06	-1.393475e-09	-3.689490e+01	-9.010559e+01
3.400000e-07	-5.271220e-06	-1.408458e-09	-3.680135e+01	-8.993767e+01
3.500000e-07	-5.257403e-06	-1.353805e-09	-3.670489e+01	-8.976649e+01
3.600000e-07	-5.243012e-06	-1.344203e-09	-3.660442e+01	-8.959241e+01
3.700000e-07	-5.228084e-06	-1.372963e-09	-3.650019e+01	-8.941584e+01
3.800000e-07	-5.212753e-06	-1.372654e-09	-3.639316e+01	-8.923712e+01
3.900000e-07	-5.196983e-06	-1.344472e-09	-3.628306e+01	-8.905663e+01
4.000000e-07	-5.180740e-06	-1.372747e-09	-3.616966e+01	-8.887469e+01
4.100000e-07	-5.164155e-06	-1.383895e-09	-3.605387e+01	-8.869161e+01
4.200000e-07	-5.147213e-06	-1.327652e-09	-3.593559e+01	-8.850770e+01
4.300000e-07	-5.129941e-06	-1.314013e-09	-3.581500e+01	-8.832322e+01
4.400000e-07	-5.112443e-06	-1.371046e-09	-3.569284e+01	-8.813839e+01
4.500000e-07	-5.094492e-06	-1.357892e-09	-3.556752e+01	-8.795343e+01
4.600000e-07	-5.076003e-06	-1.301557e-09	-3.543843e+01	-8.776850e+01
4.700000e-07	-5.057190e-06	-1.336414e-09	-3.530709e+01	-8.758375e+01
4.800000e-07	-5.038063e-06	-1.371991e-09	-3.517355e+01	-8.739929e+01
4.900000e-07	-5.018663e-06	-1.323457e-09	-3.503811e+01	-8.721516e+01
5.000000e-07	-4.999033e-06	-1.301093e-09	-3.490106e+01	-8.703142e+01
5.100000e-07	-4.979165e-06	-1.333416e-09	-3.476235e+01	-8.684806e+01
5.200000e-07	-4.958987e-06	-1.305397e-09	-3.462148e+01	-8.666503e+01
5.300000e-07	-4.938431e-06	-1.290342e-09	-3.447797e+01	-8.648227e+01
5.400000e-07	-4.917544e-06	-1.338994e-09	-3.433214e+01	-8.629968e+01
5.500000e-07	-4.896349e-06	-1.339704e-09	-3.418417e+01	-8.611712e+01
5.600000e-07	-4.874822e-06	-1.280026e-09	-3.403388e+01	-8.593442e+01
5.700000e-07	-4.852971e-06	-1.295003e-09	-3.388132e+01	-8.575140e+01
5.800000e-07	-4.830805e-06	-1.319269e-09	-3.372657e+01	-8.556783e+01
5.900000e-07	-4.808219e-06	-1.278274e-09	-3.356888e+01	-8.538350e+01
6.000000e-07	-4.785191e-06	-1.261146e-09	-3.340811e+01	-8.519813e+01
6.100000e-07	-4.761885e-06	-1.297316e-09	-3.324540e+01	-8.501146e+01
6.200000e-07	-4.738411e-06	-1.282391e-09	-3.308151e+01	-8.482322e+01
6.300000e-07	-4.714793e-06	-1.253093e-09	-3.291662e+01	-8.463310e+01
6.400000e-07	-4.690898e-06	-1.267957e-09	-3.274980e+01	-8.444082e+01
6.500000e-07	-4.666547e-06	-1.274682e-09	-3.257979e+01	-8.424607e+01
6.600000e-07	-4.641799e-06	-1.249046e-09	-3.240701e+01	-8.404857e+01
6.700000e-07	-4.616612e-06	-1.254118e-09	-3.223117e+01	-8.384801e+01
6.800000e-07	-4.590865e-06	-1.264381e-09	-3.205141e+01	-8.364413e+01
6.900000e-07	-4.564567e-06	-1.250430e-09	-3.186781e+01	-8.343664e+01
7.000000e-07	-4.537821e-06	-1.241406e-09	-3.168108e+01	-8.322529e+01
7.100000e-07	-4.510805e-06	-1.244246e-09	-3.149247e+01	-8.300984e+01
7.200000e-07	-4.483557e-06	-1.231808e-09	-3.130223e+01	-8.279007e+01
7.300000e-07	-4.456027e-06	-1.222347e-09	-3.111003e+01	-8.256577e+01
7.400000e-07	-4.428244e-06	-1.231849e-09	-3.091606e+01	-8.233678e+01
7.500000e-07	-4.400221e-06	-1.237256e-09	-3.072042e+01	-8.210293e+01
7.600000e-07	-4.371973e-06	-1.231327e-09	-3.052321e+01	-8.186410e+01
7.700000e-07	-4.343428e-06	-1.224241e-09	-3.032391e+01	-8.162019e+01
7.800000e-07	-4.314501e-06	-1.218070e-09	-3.012196e+01	-8.137112e+01
7.900000e-07	-4.285222e-06	-1.207532e-09	-2.991754e+01	-8.111685e+01
8.000000e-07	-4.255642e-06	-1.199543e-09	-2.971103e+01	-8.085736e+01
8.100000e-07	-4.225758e-06	-1.193061e-09	-2.950239e+01	-8.059266e+01
8.200000e-07	-4.195569e-06	-1.193088e-09	-2.929163e+01	-8.032277e+01
8.300000e-07	-4.165163e-06	-1.195778e-09	-2.907935e+01	-8.004776e+01
8.400000e-07	-4.134583e-06	-1.195977e-09	-2.886585e+01	-7.976769e+01
8.500000e-07	-4.103653e-06	-1.186099e-09	-2.864991e+01	-7.948267e+01
8.600000e-07	-4.072345e-06	-1.180167e-09	-2.843133e+01	-7.919282e+01
8.700000e-07	-4.040934e-06	-1.174781e-09	-2.821203e+01	-7.889826e+01
8.800000e-07	-4.009462e-06	-1.167731e-09	-2.799231e+01	-7.859915e+01
8.900000e-07	-3.977753e-06	-1.162081e-09	-2.777093e+01	-7.829564e+01
9.000000e-07	-3.945773e-06	-1.161186e-09	-2.754766e+01	-7.798789e+01
9.100000e-07	-3.913553e-06	-1.150962e-09	-2.732271e+01	-7.767607e+01
9.200000e-07	-3.880973e-06	-1.140461e-09	-2.709525e+01	-7.736035e+01
9.300000e-07	-3.847926e-06	-1.135580e-09	-2.686454e+01	-7.704090e+01
9.400000e-07	-3.814408e-06	-1.131825e-09	-2.663053e+01	-7.671788e+01
9.500000e-07	-3.780470e-06	-1.124856e-09	-2.639359e+01	-7.639145e+01
9.600000e-07	-3.746164e-06	-1.125466e-09	-2.615408e+01	-7.606175e+01
9.700000e-07	-3.711530e-06	-1.126817e-09	-2.591228e+01	-7.572891e+01
9.800000e-07	-3.676573e-06	-1.120342e-09	-2.566823e+01	-7.539305e+01
9.900000e-07	-3.641281e-06	-1.111517e-09	-2.542183e+01	-7.505425e+01
1.000000e-06	-3.605760e-06	-1.105056e-09	-2.517384e+01	-7.471261e+01
1.010000e-06	-3.570171e-06	-1.095120e-09	-2.492537e+01	-7.436816e+01
1.020000e-06	-3.534492e-06	-1.086235e-09	-2.467627e+01	-7.402093e+01
1.030000e-06	-3.498638e-06	-1.084518e-09	-2.442596e+01	-7.367093e+01
1.040000e-06	-3.462531e-06	-1.083244e-09	-2.417388e+01	-7.331813e+01
1.050000e-06	-3.426170e-06	-1.076253e-09	-2.392002e+01	-7.296246e+01
1.060000e-06	-3.389574e-06	-1.067416e-09	-2.366452e+01	-7.260386e+01
1.070000e-06	-3.352657e-06	-1.059731e-09	-2.340679e+01	-7.224220e+01
1.080000e-06	-3.315460e-06	-1.049296e-09	-2.314709e+01	-7.187735e+01
1.090000e-06	-3.278036e-06	-1.041246e-09	-2.288581e+01	-7.150914e+01
1.100000e-06	-3.240396e-06	-1.035589e-09	-2.262303e+01	-7.113736e+01
1.110000e-06	-3.202529e-06	-1.028070e-09	-2.235866e+01	-7.076181e+01
1.120000e-06	-3.164436e-06	-1.018350e-09	-2.209271e+01	-7.038224e+01
1.130000e-06	-3.126183e-06	-1.012500e-09	-2.182564e+01	-6.999838e+01
1.140000e-06	-3.087730e-06	-1.005850e-09	-2.155718e+01	-6.960993e+01
1.150000e-06	-3.049006e-06	-9.975894e-10	-2.128683e+01	-6.921661e+01
1.160000e-06	-3.010014e-06	-9.909511e-10	-2.101460e+01	-6.881807e+01
1.170000e-06	-2.970879e-06	-9.882727e-10	-2.074138e+01	-6.841400e+01
1.180000e-06	-2.931609e-06	-9.830480e-10	-2.046721e+01	-6.800405e+01
1.190000e-06	-2.892165e-06	-9.777925e-10	-2.019183e+01	-6.758786e+01
1.200000e-06	-2.852600e-06	-9.718319e-10	-1.991561e+01	-6.716507e+01
1.210000e-06	-2.812870e-06	-9.629475e-10	-1.963823e+01	-6.673534e+01
1.220000e-06	-2.772988e-06	-9.527143e-10	-1.935979e+01	-6.629830e+01
1.230000e-06	-2.733032e-06	-9.458262e-10	-1.908084e+01	-6.585361e+01
1.240000e-06	-2.692879e-06	-9.393397e-10	-1.880050e+01	-6.540090e+01
1.250000e-06	-2.652542e-06	-9.330682e-10	-1.851889e+01	-6.493986e+01
1.260000e-06	-2.612071e-06	-9.293136e-10	-1.823634e+01	-6.447015e+01
1.270000e-06	-2.571250e-06	-9.263323e-10	-1.795134e+01	-6.399147e+01
1.280000e-06	-2.530105e-06	-9.190112e-10	-1.766408e+01	-6.350351e+01
1.290000e-06	-2.488682e-06	-9.084695e-10	-1.737489e+01	-6.300601e+01
1.300000e-06	-2.447021e-06	-8.964485e-10	-1.708403e+01	-6.249870e+01
1.310000e-06	-2.405154e-06	-8.850126e-10	-1.679174e+01	-6.198134e+01
1.320000e-06	-2.362955e-06	-8.748255e-10	-1.649712e+01	-6.145372e+01
1.330000e-06	-2.320444e-06	-8.677377e-10	-1.620032e+01	-6.091565e+01
1.340000e-06	-2.277719e-06	-8.630999e-10	-1.590204e+01	-6.036694e+01
1.350000e-06	-2.234790e-06	-8.569358e-10	-1.560233e+01	-5.980744e+01
1.360000e-06	-2.191609e-06	-8.480163e-10	-1.530085e+01	-5.923702e+01
1.370000e-06	-2.148245e-06	-8.372879e-10	-1.499811e+01	-5.865558e+01
1.380000e-06	-2.104771e-06	-8.268341e-10	-1.469459e+01	-5.806300e+01
1.390000e-06	-2.061199e-06	-8.164076e-10	-1.439039e+01	-5.745923e+01
1.400000e-06	-2.017569e-06	-8.073355e-10	-1.408579e+01	-5.684419e+01
1.410000e-06	-1.973937e-06	-7.970712e-10	-1.378116e+01	-5.621783e+01
1.420000e-06	-1.930256e-06	-7.857715e-10	-1.347620e+01	-5.558013e+01
1.430000e-06	-1.886472e-06	-7.745298e-10	-1.317052e+01	-5.493105e+01
1.440000e-06	-1.842599e-06	-7.652232e-10	-1.286422e+01	-5.427056e+01
1.450000e-06	-1.798581e-06	-7.568835e-10	-1.255690e+01	-5.359866e+01
1.460000e-06	-1.754430e-06	-7.474563e-10	-1.224866e+01	-5.291532e+01
1.470000e-06	-1.710190e-06	-7.359971e-10	-1.193980e+01	-5.222052e+01
1.480000e-06	-1.665817e-06	-7.230991e-10	-1.163000e+01	-5.151423e+01
1.490000e-06	-1.621276e-06	-7.077780e-10	-1.131904e+01	-5.079643e+01
1.500000e-06	-1.576590e-06	-6.933421e-10	-1.100706e+01	-5.006706e+01
1.510000e-06	-1.531812e-06	-6.817421e-10	-1.069444e+01	-4.932608e+01
1.520000e-06	-1.486900e-06	-6.702700e-10	-1.038088e+01	-4.857340e+01
1.530000e-06	-1.441891e-06	-6.555366e-10	-1.006665e+01	-4.780894e+01
1.540000e-06	-1.396831e-06	-6.407052e-10	-9.752066e+00	-4.703259e+01
1.550000e-06	-1.351627e-06	-6.265018e-10	-9.436468e+00	-4.624422e+01
1.560000e-06	-1.306297e-06	-6.124126e-10	-9.119994e+00	-4.544367e+01
1.570000e-06	-1.260872e-06	-5.976549e-10	-8.802856e+00	-4.463078e+01
1.580000e-06	-1.215323e-06	-5.827540e-10	-8.484857e+00	-4.380532e+01
1.590000e-06	-1.169678e-06	-5.673312e-10	-8.166179e+00	-4.296710e+01
1.600000e-06	-1.124027e-06	-5.516125e-10	-7.847468e+00	-4.211584e+01
1.610000e-06	-1.078340e-06	-5.373009e-10	-7.528499e+00	-4.125129e+01
1.620000e-06	-1.032534e-06	-5.249423e-10	-7.208699e+00	-4.037315e+01
1.630000e-06	-9.866561e-07	-5.133975e-10	-6.888401e+00	-3.948111e+01
1.640000e-06	-9.407213e-07	-5.000310e-10	-6.567704e+00	-3.857483e+01
1.650000e-06	-8.947057e-07	-4.853715e-10	-6.246444e+00	-3.765397e+01
1.660000e-06	-8.486057e-07	-4.700904e-10	-5.924594e+00	-3.671817e+01
1.670000e-06	-8.024628e-07	-4.544137e-10	-5.602444e+00	-3.576705e+01
1.680000e-06	-7.562902e-07	-4.402705e-10	-5.280087e+00	-3.480023e+01
1.690000e-06	-7.100967e-07	-4.285855e-10	-4.957584e+00	-3.381735e+01
1.700000e-06	-6.638789e-07	-4.169860e-10	-4.634912e+00	-3.281802e+01
1.710000e-06	-6.175970e-07	-4.021917e-10	-4.311792e+00	-3.180188e+01
1.720000e-06	-5.712845e-07	-3.847392e-10	-3.988458e+00	-3.076855e+01
1.730000e-06	-5.249649e-07	-3.663899e-10	-3.665075e+00	-2.971771e+01
1.740000e-06	-4.785978e-07	-3.482189e-10	-3.341360e+00	-2.864903e+01
1.750000e-06	-4.320895e-07	-3.321893e-10	-3.016660e+00	-2.756222e+01
1.760000e-06	-3.855485e-07	-3.171940e-10	-2.691731e+00	-2.645702e+01
1.770000e-06	-3.389788e-07	-3.024848e-10	-2.366602e+00	-2.533319e+01
1.780000e-06	-2.923286e-07	-2.888336e-10	-2.040911e+00	-2.419057e+01
1.790000e-06	-2.457211e-07	-2.739549e-10	-1.715517e+00	-2.302900e+01
1.800000e-06	-1.990962e-07	-2.547475e-10	-1.390003e+00	-2.184842e+01
1.810000e-06	-1.525049e-07	-2.328288e-10	-1.064722e+00	-2.064878e+01
1.820000e-06	-1.059663e-07	-2.109570e-10	-7.398107e-01	-1.943014e+01
1.830000e-06	-5.938950e-08	-1.925260e-10	-4.146315e-01	-1.819257e+01
1.840000e-06	-1.283612e-08	-1.770260e-10	-8.961620e-02	-1.693626e+01
1.850000e-06	3.376630e-08	-1.634129e-10	2.357415e-01	-1.566143e+01
1.860000e-06	8.050315e-08	-1.490043e-10	5.620378e-01	-1.436841e+01
1.870000e-06	1.272434e-07	-1.317519e-10	8.883577e-01	-1.305757e+01
1.880000e-06	1.738744e-07	-1.123347e-10	1.213915e+00	-1.172938e+01
1.890000e-06	2.204853e-07	-9.107451e-11	1.539332e+00	-1.038439e+01
1.900000e-06	2.670638e-07	-6.996060e-11	1.864523e+00	-9.023203e+00
1.910000e-06	3.135958e-07	-5.052696e-11	2.189389e+00	-7.646533e+00
1.920000e-06	3.601888e-07	-3.170676e-11	2.514680e+00	-6.255152e+00
1.930000e-06	4.067010e-07	-1.365416e-11	2.839409e+00	-4.849913e+00
1.940000e-06	4.530398e-07	2.510116e-12	3.162925e+00	-3.431740e+00
1.950000e-06	4.993275e-07	1.695313e-11	3.486086e+00	-2.001630e+00
1.960000e-06	5.456057e-07	3.265568e-11	3.809180e+00	-5.606482e-01
1.970000e-06	5.918314e-07	5.145007e-11	4.131908e+00	8.900790e-01
1.980000e-06	6.380789e-07	7.272385e-11	4.454788e+00	2.349364e+00
1.990000e-06	6.843700e-07	9.506775e-11	4.777972e+00	3.815967e+00
2.000000e-06	7.306278e-07	1.170219e-10	5.100924e+00	5.288598e+00
2.010000e-06	7.767555e-07	1.374297e-10	5.422967e+00	6.765926e+00
2.020000e-06	8.227012e-07	1.565298e-10	5.743740e+00	8.246581e+00
2.030000e-06	8.685556e-07	1.752964e-10	6.063875e+00	9.729165e+00
2.040000e-06	9.143951e-07	1.942230e-10	6.383907e+00	1.121226e+01
2.050000e-06	9.602909e-07	2.134746e-10	6.704331e+00	1.269442e+01
2.060000e-06	1.006240e-06	2.323918e-10	7.025129e+00	1.417421e+01
2.070000e-06	1.052056e-06	2.520182e-10	7.344993e+00	1.565018e+01
2.080000e-06	1.097690e-06	2.735100e-10	7.663590e+00	1.712089e+01
2.090000e-06	1.143241e-06	2.939933e-10	7.981610e+00	1.858491e+01
2.100000e-06	1.188793e-06	3.142221e-10	8.299633e+00	2.004085e+01
2.110000e-06	1.234294e-06	3.352606e-10	8.617302e+00	2.148731e+01
2.120000e-06	1.279742e-06	3.549002e-10	8.934596e+00	2.292297e+01
2.130000e-06	1.325148e-06	3.735038e-10	9.251605e+00	2.434652e+01
2.140000e-06	1.370400e-06	3.908196e-10	9.567531e+00	2.575671e+01
2.150000e-06	1.415524e-06	4.072455e-10	9.882568e+00	2.715235e+01
2.160000e-06	1.460551e-06	4.249375e-10	1.019693e+01	2.853229e+01
2.170000e-06	1.505452e-06	4.455202e-10	1.051040e+01	2.989548e+01
2.180000e-06	1.550157e-06	4.657017e-10	1.082252e+01	3.124089e+01
2.190000e-06	1.594734e-06	4.842912e-10	1.113374e+01	3.256762e+01
2.200000e-06	1.639182e-06	5.026565e-10	1.144405e+01	3.387481e+01
2.210000e-06	1.683497e-06	5.201776e-10	1.175344e+01	3.516169e+01
2.220000e-06	1.727735e-06	5.360104e-10	1.206229e+01	3.642756e+01
2.230000e-06	1.771800e-06	5.512442e-10	1.236993e+01	3.767183e+01
2.240000e-06	1.815768e-06	5.671057e-10	1.267689e+01	3.889398e+01
2.250000e-06	1.859630e-06	5.835317e-10	1.298312e+01	4.009357e+01
2.260000e-06	1.903342e-06	6.004467e-10	1.328830e+01	4.127026e+01
2.270000e-06	1.947005e-06	6.173551e-10	1.359314e+01	4.242378e+01
2.280000e-06	1.990634e-06	6.316485e-10	1.389774e+01	4.355396e+01
2.290000e-06	2.034226e-06	6.441782e-10	1.420207e+01	4.466068e+01
2.300000e-06	2.077799e-06	6.573392e-10	1.450629e+01	4.574392e+01
2.310000e-06	2.121332e-06	6.716804e-10	1.481021e+01	4.680375e+01
2.320000e-06	2.164780e-06	6.870081e-10	1.511355e+01	4.784028e+01
2.330000e-06	2.208079e-06	7.013782e-10	1.541584e+01	4.885370e+01
2.340000e-06	2.251264e-06	7.142926e-10	1.571734e+01	4.984428e+01
2.350000e-06	2.294327e-06	7.261212e-10	1.601798e+01	5.081231e+01
2.360000e-06	2.337036e-06	7.377168e-10	1.631616e+01	5.175816e+01
2.370000e-06	2.379483e-06	7.513805e-10	1.661251e+01	5.268226e+01
2.380000e-06	2.421674e-06	7.653990e-10	1.690707e+01	5.358505e+01
2.390000e-06	2.463497e-06	7.792129e-10	1.719906e+01	5.446702e+01
2.400000e-06	2.505043e-06	7.935680e-10	1.748911e+01	5.532870e+01
2.410000e-06	2.546251e-06	8.070298e-10	1.777681e+01	5.617064e+01
2.420000e-06	2.587088e-06	8.194367e-10	1.806192e+01	5.699341e+01
2.430000e-06	2.627606e-06	8.312773e-10	1.834479e+01	5.779758e+01
2.440000e-06	2.667900e-06	8.453827e-10	1.862611e+01	5.858376e+01
2.450000e-06	2.708021e-06	8.594408e-10	1.890622e+01	5.935253e+01
2.460000e-06	2.747986e-06	8.716634e-10	1.918523e+01	6.010448e+01
2.470000e-06	2.787833e-06	8.815291e-10	1.946343e+01	6.084022e+01
2.480000e-06	2.827571e-06	8.885076e-10	1.974087e+01	6.156031e+01
2.490000e-06	2.867185e-06	8.951106e-10	2.001743e+01	6.226532e+01
2.500000e-06	2.906657e-06	9.045399e-10	2.029301e+01	6.295579e+01
2.510000e-06	2.946019e-06	9.166264e-10	2.056782e+01	6.363225e+01
2.520000e-06	2.985270e-06	9.293279e-10	2.084185e+01	6.429520e+01
2.530000e-06	3.024297e-06	9.421288e-10	2.111432e+01	6.494510e+01
2.540000e-06	3.063043e-06	9.511930e-10	2.138483e+01	6.558241e+01
2.550000e-06	3.101510e-06	9.559022e-10	2.165339e+01	6.620754e+01
2.560000e-06	3.139700e-06	9.600747e-10	2.192001e+01	6.682087e+01
2.570000e-06	3.177679e-06	9.647447e-10	2.218516e+01	6.742275e+01
2.580000e-06	3.215465e-06	9.711061e-10	2.244897e+01	6.801350e+01
2.590000e-06	3.253094e-06	9.795439e-10	2.271168e+01	6.859340e+01
2.600000e-06	3.290607e-06	9.900538e-10	2.297358e+01	6.916272e+01
2.610000e-06	3.327857e-06	1.001153e-09	2.323364e+01	6.972168e+01
2.620000e-06	3.364819e-06	1.012933e-09	2.349169e+01	7.027047e+01
2.630000e-06	3.401576e-06	1.024191e-09	2.374831e+01	7.080927e+01
2.640000e-06	3.438015e-06	1.029732e-09	2.400272e+01	7.133821e+01
2.650000e-06	3.474195e-06	1.032557e-09	2.425531e+01	7.185741e+01
2.660000e-06	3.510186e-06	1.036023e-09	2.450659e+01	7.236697e+01
2.670000e-06	3.545992e-06	1.040780e-09	2.475656e+01	7.286698e+01
2.680000e-06	3.581735e-06	1.045686e-09	2.500611e+01	7.335749e+01
2.690000e-06	3.617391e-06	1.056025e-09	2.525504e+01	7.383854e+01
2.700000e-06	3.652865e-06	1.068506e-09	2.550270e+01	7.431019e+01
2.710000e-06	3.688083e-06	1.078782e-09	2.574858e+01	7.477245e+01
2.720000e-06	3.723080e-06	1.087134e-09	2.599291e+01	7.522536e+01
2.730000e-06	3.757813e-06	1.091868e-09	2.623540e+01	7.566892e+01
2.740000e-06	3.792135e-06	1.095374e-09	2.647503e+01	7.610317e+01
2.750000e-06	3.825925e-06	1.100487e-09	2.671093e+01	7.652813e+01
2.760000e-06	3.859146e-06	1.107035e-09	2.694287e+01	7.694382e+01
2.770000e-06	3.891874e-06	1.114371e-09	2.717136e+01	7.735028e+01
2.780000e-06	3.924218e-06	1.121555e-09	2.739717e+01	7.774754e+01
2.790000e-06	3.956280e-06	1.130406e-09	2.762102e+01	7.813566e+01
2.800000e-06	3.988151e-06	1.138748e-09	2.784352e+01	7.851471e+01
2.810000e-06	4.019868e-06	1.141754e-09	2.806496e+01	7.888475e+01
2.820000e-06	4.051392e-06	1.144285e-09	2.828505e+01	7.924588e+01
2.830000e-06	4.082750e-06	1.146760e-09	2.850397e+01	7.959820e+01
2.840000e-06	4.113962e-06	1.152771e-09	2.872188e+01	7.994181e+01
2.850000e-06	4.144893e-06	1.160205e-09	2.893783e+01	8.027686e+01
2.860000e-06	4.175411e-06	1.167514e-09	2.915089e+01	8.060349e+01
2.870000e-06	4.205560e-06	1.173409e-09	2.936138e+01	8.092185e+01
2.880000e-06	4.235397e-06	1.175734e-09	2.956969e+01	8.123211e+01
2.890000e-06	4.265056e-06	1.176767e-09	2.977676e+01	8.153446e+01
2.900000e-06	4.294523e-06	1.180717e-09	2.998248e+01	8.182909e+01
