# Temperatura_=_-0.3
# Concentracion g/m^3_=_1620.0
# C_Vs_to_Am_M_A/Vsm_=_65563218390.804596
# pendiente_HvsI_1/m_=_3716.3
# ordenada_HvsI_A/m_=_1297.0
# frecuencia_Hz_=_135109.7403342395

Tiempo_(s)	Campo_(V.s)	Magnetizacion_(V.s)	Campo_(kA/m)	Magnetizacion_(A/m)
0.000000e+00	-5.521357e-06	-1.303466e-09	-3.836619e+01	-8.574092e+01
1.000000e-08	-5.521607e-06	-1.302341e-09	-3.836793e+01	-8.575488e+01
2.000000e-08	-5.521600e-06	-1.302167e-09	-3.836788e+01	-8.576768e+01
3.000000e-08	-5.521231e-06	-1.301505e-09	-3.836532e+01	-8.577928e+01
4.000000e-08	-5.520417e-06	-1.297833e-09	-3.835966e+01	-8.578965e+01
5.000000e-08	-5.519054e-06	-1.293641e-09	-3.835019e+01	-8.579873e+01
6.000000e-08	-5.517054e-06	-1.284788e-09	-3.833629e+01	-8.580645e+01
7.000000e-08	-5.514385e-06	-1.281975e-09	-3.831775e+01	-8.581274e+01
8.000000e-08	-5.511236e-06	-1.306944e-09	-3.829586e+01	-8.581751e+01
9.000000e-08	-5.507680e-06	-1.305742e-09	-3.827115e+01	-8.582065e+01
1.000000e-07	-5.503707e-06	-1.252996e-09	-3.824355e+01	-8.582206e+01
1.100000e-07	-5.499472e-06	-1.261401e-09	-3.821412e+01	-8.582163e+01
1.200000e-07	-5.494960e-06	-1.289769e-09	-3.818277e+01	-8.581922e+01
1.300000e-07	-5.490150e-06	-1.292122e-09	-3.814935e+01	-8.581472e+01
1.400000e-07	-5.485035e-06	-1.239754e-09	-3.811380e+01	-8.580798e+01
1.500000e-07	-5.479557e-06	-1.231652e-09	-3.807574e+01	-8.579888e+01
1.600000e-07	-5.473732e-06	-1.301777e-09	-3.803526e+01	-8.578728e+01
1.700000e-07	-5.467440e-06	-1.286222e-09	-3.799154e+01	-8.577303e+01
1.800000e-07	-5.460624e-06	-1.260035e-09	-3.794418e+01	-8.575601e+01
1.900000e-07	-5.453416e-06	-1.234231e-09	-3.789409e+01	-8.573607e+01
2.000000e-07	-5.445972e-06	-1.306056e-09	-3.784237e+01	-8.571309e+01
2.100000e-07	-5.438246e-06	-1.319037e-09	-3.778868e+01	-8.568695e+01
2.200000e-07	-5.430290e-06	-1.323844e-09	-3.773340e+01	-8.565752e+01
2.300000e-07	-5.422035e-06	-1.293094e-09	-3.767604e+01	-8.562469e+01
2.400000e-07	-5.413284e-06	-1.319426e-09	-3.761522e+01	-8.558834e+01
2.500000e-07	-5.404000e-06	-1.323715e-09	-3.755071e+01	-8.554839e+01
2.600000e-07	-5.394114e-06	-1.316708e-09	-3.748202e+01	-8.550474e+01
2.700000e-07	-5.383546e-06	-1.301952e-09	-3.740858e+01	-8.545731e+01
2.800000e-07	-5.372399e-06	-1.320551e-09	-3.733113e+01	-8.540602e+01
2.900000e-07	-5.360895e-06	-1.331988e-09	-3.725119e+01	-8.535081e+01
3.000000e-07	-5.349030e-06	-1.306490e-09	-3.716875e+01	-8.529162e+01
3.100000e-07	-5.336740e-06	-1.300532e-09	-3.708335e+01	-8.522840e+01
3.200000e-07	-5.324003e-06	-1.306844e-09	-3.699484e+01	-8.516111e+01
3.300000e-07	-5.310852e-06	-1.329150e-09	-3.690346e+01	-8.508973e+01
3.400000e-07	-5.297279e-06	-1.288541e-09	-3.680914e+01	-8.501422e+01
3.500000e-07	-5.283256e-06	-1.297025e-09	-3.671170e+01	-8.493457e+01
3.600000e-07	-5.268848e-06	-1.321272e-09	-3.661159e+01	-8.485077e+01
3.700000e-07	-5.253963e-06	-1.330730e-09	-3.650816e+01	-8.476281e+01
3.800000e-07	-5.238544e-06	-1.283295e-09	-3.640102e+01	-8.467068e+01
3.900000e-07	-5.222682e-06	-1.311290e-09	-3.629079e+01	-8.457440e+01
4.000000e-07	-5.206424e-06	-1.315587e-09	-3.617782e+01	-8.447397e+01
4.100000e-07	-5.189783e-06	-1.276830e-09	-3.606219e+01	-8.436939e+01
4.200000e-07	-5.172742e-06	-1.269305e-09	-3.594378e+01	-8.426067e+01
4.300000e-07	-5.155420e-06	-1.336624e-09	-3.582341e+01	-8.414782e+01
4.400000e-07	-5.137734e-06	-1.297415e-09	-3.570051e+01	-8.403085e+01
4.500000e-07	-5.119660e-06	-1.255909e-09	-3.557492e+01	-8.390978e+01
4.600000e-07	-5.101261e-06	-1.292428e-09	-3.544708e+01	-8.378460e+01
4.700000e-07	-5.082439e-06	-1.306842e-09	-3.531629e+01	-8.365532e+01
4.800000e-07	-5.063206e-06	-1.238042e-09	-3.518264e+01	-8.352194e+01
4.900000e-07	-5.043710e-06	-1.265273e-09	-3.504717e+01	-8.338447e+01
5.000000e-07	-5.024020e-06	-1.304031e-09	-3.491035e+01	-8.324289e+01
5.100000e-07	-5.004092e-06	-1.251759e-09	-3.477188e+01	-8.309721e+01
5.200000e-07	-4.983906e-06	-1.239368e-09	-3.463161e+01	-8.294741e+01
5.300000e-07	-4.963402e-06	-1.299418e-09	-3.448914e+01	-8.279347e+01
5.400000e-07	-4.942499e-06	-1.261667e-09	-3.434389e+01	-8.263539e+01
5.500000e-07	-4.921236e-06	-1.214025e-09	-3.419614e+01	-8.247314e+01
5.600000e-07	-4.899653e-06	-1.265779e-09	-3.404617e+01	-8.230671e+01
5.700000e-07	-4.877756e-06	-1.270817e-09	-3.389401e+01	-8.213606e+01
5.800000e-07	-4.855534e-06	-1.215587e-09	-3.373960e+01	-8.196117e+01
5.900000e-07	-4.832924e-06	-1.234894e-09	-3.358249e+01	-8.178203e+01
6.000000e-07	-4.809875e-06	-1.256660e-09	-3.342232e+01	-8.159860e+01
6.100000e-07	-4.786475e-06	-1.204699e-09	-3.325973e+01	-8.141087e+01
6.200000e-07	-4.762849e-06	-1.207354e-09	-3.309556e+01	-8.121880e+01
6.300000e-07	-4.739041e-06	-1.232829e-09	-3.293012e+01	-8.102239e+01
6.400000e-07	-4.715002e-06	-1.209315e-09	-3.276308e+01	-8.082162e+01
6.500000e-07	-4.690627e-06	-1.193844e-09	-3.259371e+01	-8.061647e+01
6.600000e-07	-4.665865e-06	-1.223206e-09	-3.242164e+01	-8.040695e+01
6.700000e-07	-4.640724e-06	-1.200704e-09	-3.224695e+01	-8.019306e+01
6.800000e-07	-4.615114e-06	-1.182697e-09	-3.206899e+01	-7.997480e+01
6.900000e-07	-4.588885e-06	-1.194907e-09	-3.188674e+01	-7.975220e+01
7.000000e-07	-4.562104e-06	-1.195589e-09	-3.170064e+01	-7.952527e+01
7.100000e-07	-4.534888e-06	-1.172430e-09	-3.151153e+01	-7.929406e+01
7.200000e-07	-4.507418e-06	-1.186265e-09	-3.132065e+01	-7.905860e+01
7.300000e-07	-4.479818e-06	-1.184025e-09	-3.112886e+01	-7.881896e+01
7.400000e-07	-4.452011e-06	-1.166302e-09	-3.093564e+01	-7.857519e+01
7.500000e-07	-4.423934e-06	-1.163515e-09	-3.074054e+01	-7.832737e+01
7.600000e-07	-4.395562e-06	-1.170236e-09	-3.054340e+01	-7.807557e+01
7.700000e-07	-4.366873e-06	-1.152824e-09	-3.034404e+01	-7.781991e+01
7.800000e-07	-4.337911e-06	-1.154758e-09	-3.014279e+01	-7.756046e+01
7.900000e-07	-4.308694e-06	-1.162314e-09	-2.993978e+01	-7.729735e+01
8.000000e-07	-4.279160e-06	-1.151158e-09	-2.973455e+01	-7.703069e+01
8.100000e-07	-4.249332e-06	-1.139064e-09	-2.952729e+01	-7.676061e+01
8.200000e-07	-4.219163e-06	-1.145569e-09	-2.931765e+01	-7.648722e+01
8.300000e-07	-4.188733e-06	-1.140057e-09	-2.910620e+01	-7.621068e+01
8.400000e-07	-4.158111e-06	-1.128612e-09	-2.889342e+01	-7.593110e+01
8.500000e-07	-4.127175e-06	-1.134555e-09	-2.867846e+01	-7.564863e+01
8.600000e-07	-4.095955e-06	-1.133309e-09	-2.846152e+01	-7.536341e+01
8.700000e-07	-4.064555e-06	-1.116415e-09	-2.824333e+01	-7.507556e+01
8.800000e-07	-4.032941e-06	-1.112020e-09	-2.802366e+01	-7.478523e+01
8.900000e-07	-4.001126e-06	-1.116087e-09	-2.780258e+01	-7.449253e+01
9.000000e-07	-3.969162e-06	-1.100648e-09	-2.758047e+01	-7.419759e+01
9.100000e-07	-3.936941e-06	-1.093136e-09	-2.735658e+01	-7.390050e+01
9.200000e-07	-3.904349e-06	-1.096758e-09	-2.713011e+01	-7.360139e+01
9.300000e-07	-3.871159e-06	-1.092601e-09	-2.689948e+01	-7.330032e+01
9.400000e-07	-3.837404e-06	-1.080663e-09	-2.666493e+01	-7.299736e+01
9.500000e-07	-3.803259e-06	-1.086347e-09	-2.642767e+01	-7.269259e+01
9.600000e-07	-3.768685e-06	-1.083328e-09	-2.618742e+01	-7.238603e+01
9.700000e-07	-3.733774e-06	-1.072324e-09	-2.594483e+01	-7.207771e+01
9.800000e-07	-3.698622e-06	-1.066799e-09	-2.570057e+01	-7.176762e+01
9.900000e-07	-3.663259e-06	-1.068007e-09	-2.545485e+01	-7.145574e+01
1.000000e-06	-3.627699e-06	-1.056897e-09	-2.520775e+01	-7.114204e+01
1.010000e-06	-3.591988e-06	-1.052639e-09	-2.495960e+01	-7.082645e+01
1.020000e-06	-3.556186e-06	-1.053219e-09	-2.471083e+01	-7.050887e+01
1.030000e-06	-3.520269e-06	-1.050841e-09	-2.446125e+01	-7.018921e+01
1.040000e-06	-3.484112e-06	-1.043085e-09	-2.421001e+01	-6.986733e+01
1.050000e-06	-3.447628e-06	-1.041231e-09	-2.395650e+01	-6.954307e+01
1.060000e-06	-3.410840e-06	-1.030538e-09	-2.370087e+01	-6.921625e+01
1.070000e-06	-3.373768e-06	-1.016774e-09	-2.344326e+01	-6.888667e+01
1.080000e-06	-3.336462e-06	-1.010943e-09	-2.318404e+01	-6.855412e+01
1.090000e-06	-3.299021e-06	-1.010774e-09	-2.292387e+01	-6.821835e+01
1.100000e-06	-3.261382e-06	-1.005606e-09	-2.266233e+01	-6.787910e+01
1.110000e-06	-3.223447e-06	-1.000609e-09	-2.239873e+01	-6.753610e+01
1.120000e-06	-3.185294e-06	-9.951379e-10	-2.213362e+01	-6.718907e+01
1.130000e-06	-3.146891e-06	-9.845484e-10	-2.186677e+01	-6.683769e+01
1.140000e-06	-3.108218e-06	-9.749297e-10	-2.159804e+01	-6.648165e+01
1.150000e-06	-3.069370e-06	-9.684696e-10	-2.132810e+01	-6.612063e+01
1.160000e-06	-3.030302e-06	-9.598548e-10	-2.105663e+01	-6.575430e+01
1.170000e-06	-2.990960e-06	-9.523444e-10	-2.078325e+01	-6.538232e+01
1.180000e-06	-2.951440e-06	-9.514037e-10	-2.050864e+01	-6.500436e+01
1.190000e-06	-2.911824e-06	-9.476196e-10	-2.023336e+01	-6.462009e+01
1.200000e-06	-2.872099e-06	-9.405880e-10	-1.995733e+01	-6.422917e+01
1.210000e-06	-2.832228e-06	-9.308188e-10	-1.968027e+01	-6.383127e+01
1.220000e-06	-2.792213e-06	-9.211426e-10	-1.940222e+01	-6.342607e+01
1.230000e-06	-2.752113e-06	-9.062380e-10	-1.912357e+01	-6.301326e+01
1.240000e-06	-2.711925e-06	-8.996659e-10	-1.884432e+01	-6.259254e+01
1.250000e-06	-2.671525e-06	-8.995337e-10	-1.856360e+01	-6.216363e+01
1.260000e-06	-2.630762e-06	-8.981261e-10	-1.828035e+01	-6.172624e+01
1.270000e-06	-2.589685e-06	-8.926102e-10	-1.799492e+01	-6.128013e+01
1.280000e-06	-2.548347e-06	-8.825459e-10	-1.770767e+01	-6.082506e+01
1.290000e-06	-2.506725e-06	-8.687210e-10	-1.741845e+01	-6.036080e+01
1.300000e-06	-2.464777e-06	-8.558492e-10	-1.712697e+01	-5.988715e+01
1.310000e-06	-2.422504e-06	-8.464085e-10	-1.683323e+01	-5.940394e+01
1.320000e-06	-2.380018e-06	-8.426036e-10	-1.653801e+01	-5.891101e+01
1.330000e-06	-2.337254e-06	-8.400858e-10	-1.624085e+01	-5.840820e+01
1.340000e-06	-2.294172e-06	-8.369014e-10	-1.594149e+01	-5.789540e+01
1.350000e-06	-2.250913e-06	-8.290039e-10	-1.564089e+01	-5.737251e+01
1.360000e-06	-2.207530e-06	-8.183383e-10	-1.533944e+01	-5.683943e+01
1.370000e-06	-2.164041e-06	-8.067427e-10	-1.503725e+01	-5.629611e+01
1.380000e-06	-2.120457e-06	-7.960752e-10	-1.473440e+01	-5.574247e+01
1.390000e-06	-2.076778e-06	-7.840723e-10	-1.443088e+01	-5.517849e+01
1.400000e-06	-2.033036e-06	-7.747957e-10	-1.412693e+01	-5.460413e+01
1.410000e-06	-1.989245e-06	-7.672670e-10	-1.382265e+01	-5.401937e+01
1.420000e-06	-1.945376e-06	-7.607104e-10	-1.351781e+01	-5.342419e+01
1.430000e-06	-1.901369e-06	-7.539825e-10	-1.321202e+01	-5.281859e+01
1.440000e-06	-1.857289e-06	-7.453456e-10	-1.290572e+01	-5.220255e+01
1.450000e-06	-1.813165e-06	-7.363848e-10	-1.259912e+01	-5.157607e+01
1.460000e-06	-1.768889e-06	-7.244798e-10	-1.229146e+01	-5.093913e+01
1.470000e-06	-1.724431e-06	-7.113138e-10	-1.198254e+01	-5.029172e+01
1.480000e-06	-1.679867e-06	-6.988998e-10	-1.167287e+01	-4.963379e+01
1.490000e-06	-1.635163e-06	-6.861617e-10	-1.136224e+01	-4.896531e+01
1.500000e-06	-1.590254e-06	-6.762321e-10	-1.105018e+01	-4.828623e+01
1.510000e-06	-1.545127e-06	-6.702540e-10	-1.073661e+01	-4.759647e+01
1.520000e-06	-1.499914e-06	-6.641912e-10	-1.042243e+01	-4.689595e+01
1.530000e-06	-1.454703e-06	-6.536725e-10	-1.010828e+01	-4.618454e+01
1.540000e-06	-1.409438e-06	-6.391611e-10	-9.793749e+00	-4.546212e+01
1.550000e-06	-1.364118e-06	-6.241873e-10	-9.478835e+00	-4.472853e+01
1.560000e-06	-1.318704e-06	-6.080355e-10	-9.163263e+00	-4.398359e+01
1.570000e-06	-1.273213e-06	-5.946189e-10	-8.847159e+00	-4.322708e+01
1.580000e-06	-1.227669e-06	-5.848691e-10	-8.530691e+00	-4.245877e+01
1.590000e-06	-1.182005e-06	-5.759187e-10	-8.213382e+00	-4.167840e+01
1.600000e-06	-1.136237e-06	-5.655892e-10	-7.895357e+00	-4.088570e+01
1.610000e-06	-1.090385e-06	-5.561436e-10	-7.576744e+00	-4.008033e+01
1.620000e-06	-1.044447e-06	-5.447831e-10	-7.257537e+00	-3.926198e+01
1.630000e-06	-9.984562e-07	-5.311467e-10	-6.937962e+00	-3.843027e+01
1.640000e-06	-9.523699e-07	-5.159056e-10	-6.617722e+00	-3.758485e+01
1.650000e-06	-9.061551e-07	-4.985009e-10	-6.296590e+00	-3.672532e+01
1.660000e-06	-8.598137e-07	-4.812912e-10	-5.974578e+00	-3.585126e+01
1.670000e-06	-8.134475e-07	-4.664807e-10	-5.652394e+00	-3.496226e+01
1.680000e-06	-7.670703e-07	-4.537796e-10	-5.330133e+00	-3.405790e+01
1.690000e-06	-7.206805e-07	-4.437075e-10	-5.007785e+00	-3.313774e+01
1.700000e-06	-6.741991e-07	-4.336690e-10	-4.684800e+00	-3.220136e+01
1.710000e-06	-6.275849e-07	-4.211899e-10	-4.360892e+00	-3.124834e+01
1.720000e-06	-5.809629e-07	-4.040184e-10	-4.036931e+00	-3.027827e+01
1.730000e-06	-5.343249e-07	-3.839653e-10	-3.712857e+00	-2.929075e+01
1.740000e-06	-4.876304e-07	-3.650246e-10	-3.388392e+00	-2.828540e+01
1.750000e-06	-4.409319e-07	-3.504888e-10	-3.063898e+00	-2.726189e+01
1.760000e-06	-3.942322e-07	-3.390765e-10	-2.739397e+00	-2.621988e+01
1.770000e-06	-3.474759e-07	-3.271454e-10	-2.414502e+00	-2.515910e+01
1.780000e-06	-3.006336e-07	-3.133671e-10	-2.089010e+00	-2.407932e+01
1.790000e-06	-2.537555e-07	-2.957451e-10	-1.763268e+00	-2.298033e+01
1.800000e-06	-2.068623e-07	-2.758077e-10	-1.437422e+00	-2.186200e+01
1.810000e-06	-1.599554e-07	-2.553451e-10	-1.111480e+00	-2.072424e+01
1.820000e-06	-1.130943e-07	-2.354584e-10	-7.858572e-01	-1.956704e+01
1.830000e-06	-6.627661e-08	-2.175783e-10	-4.605356e-01	-1.839043e+01
1.840000e-06	-1.947458e-08	-2.021511e-10	-1.353228e-01	-1.719452e+01
1.850000e-06	2.735108e-08	-1.875366e-10	1.900542e-01	-1.597950e+01
1.860000e-06	7.417998e-08	-1.738652e-10	5.154536e-01	-1.474563e+01
1.870000e-06	1.209492e-07	-1.577156e-10	8.404383e-01	-1.349324e+01
1.880000e-06	1.677758e-07	-1.376004e-10	1.165822e+00	-1.222275e+01
1.890000e-06	2.145997e-07	-1.152910e-10	1.491187e+00	-1.093466e+01
1.900000e-06	2.612681e-07	-9.426243e-11	1.815471e+00	-9.629531e+00
1.910000e-06	3.079653e-07	-7.485466e-11	2.139955e+00	-8.308037e+00
1.920000e-06	3.547126e-07	-5.593195e-11	2.464788e+00	-6.970912e+00
1.930000e-06	4.013634e-07	-3.898598e-11	2.788949e+00	-5.618976e+00
1.940000e-06	4.479863e-07	-2.174518e-11	3.112918e+00	-4.253126e+00
1.950000e-06	4.946208e-07	-5.924502e-12	3.436966e+00	-2.874334e+00
1.960000e-06	5.411798e-07	9.682030e-12	3.760490e+00	-1.483645e+00
1.970000e-06	5.877059e-07	2.735970e-11	4.083785e+00	-8.217247e-02
1.980000e-06	6.342106e-07	4.944112e-11	4.406932e+00	1.328906e+00
1.990000e-06	6.806042e-07	7.426242e-11	4.729307e+00	2.748352e+00
2.000000e-06	7.269492e-07	9.886888e-11	5.051344e+00	4.174875e+00
2.010000e-06	7.733375e-07	1.205097e-10	5.373682e+00	5.607132e+00
2.020000e-06	8.196377e-07	1.363767e-10	5.695407e+00	7.043742e+00
2.030000e-06	8.658221e-07	1.506975e-10	6.016329e+00	8.483286e+00
2.040000e-06	9.120021e-07	1.654963e-10	6.337219e+00	9.924315e+00
2.050000e-06	9.581248e-07	1.817542e-10	6.657712e+00	1.136536e+01
2.060000e-06	1.004102e-06	2.016038e-10	6.977190e+00	1.280494e+01
2.070000e-06	1.050018e-06	2.246439e-10	7.296249e+00	1.424157e+01
2.080000e-06	1.095926e-06	2.481811e-10	7.615250e+00	1.567375e+01
2.090000e-06	1.141782e-06	2.685007e-10	7.933885e+00	1.710000e+01
2.100000e-06	1.187550e-06	2.862403e-10	8.251918e+00	1.851887e+01
2.110000e-06	1.233221e-06	3.022398e-10	8.569268e+00	1.992892e+01
2.120000e-06	1.278801e-06	3.174255e-10	8.885988e+00	2.132874e+01
2.130000e-06	1.324342e-06	3.356041e-10	9.202437e+00	2.271696e+01
2.140000e-06	1.369847e-06	3.549051e-10	9.518638e+00	2.409227e+01
2.150000e-06	1.415231e-06	3.748884e-10	9.834002e+00	2.545340e+01
2.160000e-06	1.460479e-06	3.947146e-10	1.014842e+01	2.679913e+01
2.170000e-06	1.505610e-06	4.138641e-10	1.046201e+01	2.812833e+01
2.180000e-06	1.550595e-06	4.316442e-10	1.077460e+01	2.943993e+01
2.190000e-06	1.595458e-06	4.481842e-10	1.108634e+01	3.073292e+01
2.200000e-06	1.640240e-06	4.638061e-10	1.139752e+01	3.200640e+01
2.210000e-06	1.684901e-06	4.791327e-10	1.170785e+01	3.325953e+01
2.220000e-06	1.729446e-06	4.962774e-10	1.201739e+01	3.449155e+01
2.230000e-06	1.773839e-06	5.137043e-10	1.232585e+01	3.570181e+01
2.240000e-06	1.818057e-06	5.304185e-10	1.263311e+01	3.688975e+01
2.250000e-06	1.862160e-06	5.449682e-10	1.293957e+01	3.805488e+01
2.260000e-06	1.906161e-06	5.573849e-10	1.324532e+01	3.919682e+01
2.270000e-06	1.950076e-06	5.706542e-10	1.355047e+01	4.031528e+01
2.280000e-06	1.993948e-06	5.842900e-10	1.385532e+01	4.141004e+01
2.290000e-06	2.037773e-06	5.977778e-10	1.415985e+01	4.248099e+01
2.300000e-06	2.081521e-06	6.120524e-10	1.446384e+01	4.352811e+01
2.310000e-06	2.125177e-06	6.273293e-10	1.476720e+01	4.455144e+01
2.320000e-06	2.168757e-06	6.422120e-10	1.507002e+01	4.555112e+01
2.330000e-06	2.212268e-06	6.551799e-10	1.537236e+01	4.652736e+01
2.340000e-06	2.255659e-06	6.671118e-10	1.567387e+01	4.748043e+01
2.350000e-06	2.298865e-06	6.785288e-10	1.597410e+01	4.841069e+01
2.360000e-06	2.341780e-06	6.900087e-10	1.627230e+01	4.931853e+01
2.370000e-06	2.384466e-06	7.016433e-10	1.656891e+01	5.020443e+01
2.380000e-06	2.427012e-06	7.138285e-10	1.686455e+01	5.106888e+01
2.390000e-06	2.469292e-06	7.268408e-10	1.715834e+01	5.191245e+01
2.400000e-06	2.511221e-06	7.397641e-10	1.744969e+01	5.273572e+01
2.410000e-06	2.552790e-06	7.521419e-10	1.773854e+01	5.353933e+01
2.420000e-06	2.594099e-06	7.660383e-10	1.802559e+01	5.432390e+01
2.430000e-06	2.635056e-06	7.808700e-10	1.831019e+01	5.509010e+01
2.440000e-06	2.675645e-06	7.940172e-10	1.859223e+01	5.583862e+01
2.450000e-06	2.716028e-06	8.053272e-10	1.887284e+01	5.657011e+01
2.460000e-06	2.756251e-06	8.146755e-10	1.915233e+01	5.728526e+01
2.470000e-06	2.796279e-06	8.239028e-10	1.943048e+01	5.798475e+01
2.480000e-06	2.836089e-06	8.352193e-10	1.970710e+01	5.866921e+01
2.490000e-06	2.875759e-06	8.473509e-10	1.998276e+01	5.933930e+01
2.500000e-06	2.915331e-06	8.599190e-10	2.025773e+01	5.999562e+01
2.510000e-06	2.954840e-06	8.716725e-10	2.053227e+01	6.063877e+01
2.520000e-06	2.994214e-06	8.814226e-10	2.080586e+01	6.126931e+01
2.530000e-06	3.033380e-06	8.894852e-10	2.107802e+01	6.188775e+01
2.540000e-06	3.072299e-06	8.970394e-10	2.134845e+01	6.249458e+01
2.550000e-06	3.110982e-06	9.042144e-10	2.161725e+01	6.309025e+01
2.560000e-06	3.149537e-06	9.107554e-10	2.188516e+01	6.367517e+01
2.570000e-06	3.187877e-06	9.185919e-10	2.215156e+01	6.424969e+01
2.580000e-06	3.225998e-06	9.270425e-10	2.241646e+01	6.481414e+01
2.590000e-06	3.263901e-06	9.357909e-10	2.267983e+01	6.536879e+01
2.600000e-06	3.301539e-06	9.464101e-10	2.294137e+01	6.591387e+01
2.610000e-06	3.338924e-06	9.580122e-10	2.320114e+01	6.644957e+01
2.620000e-06	3.376064e-06	9.687698e-10	2.345922e+01	6.697603e+01
2.630000e-06	3.412998e-06	9.775828e-10	2.371586e+01	6.749337e+01
2.640000e-06	3.449676e-06	9.842689e-10	2.397073e+01	6.800165e+01
2.650000e-06	3.486053e-06	9.880686e-10	2.422350e+01	6.850091e+01
2.660000e-06	3.522180e-06	9.911187e-10	2.447454e+01	6.899115e+01
2.670000e-06	3.558150e-06	9.966412e-10	2.472447e+01	6.947234e+01
2.680000e-06	3.594006e-06	1.004506e-09	2.497363e+01	6.994443e+01
2.690000e-06	3.629744e-06	1.013132e-09	2.522196e+01	7.040734e+01
2.700000e-06	3.665320e-06	1.019922e-09	2.546917e+01	7.086098e+01
2.710000e-06	3.700695e-06	1.024921e-09	2.571498e+01	7.130524e+01
2.720000e-06	3.735794e-06	1.029796e-09	2.595887e+01	7.174000e+01
2.730000e-06	3.770640e-06	1.036721e-09	2.620101e+01	7.216513e+01
2.740000e-06	3.805074e-06	1.044070e-09	2.644028e+01	7.258051e+01
2.750000e-06	3.839036e-06	1.049509e-09	2.667627e+01	7.298602e+01
2.760000e-06	3.872574e-06	1.053226e-09	2.690931e+01	7.338153e+01
2.770000e-06	3.905578e-06	1.057115e-09	2.713865e+01	7.376692e+01
2.780000e-06	3.938183e-06	1.062624e-09	2.736521e+01	7.414211e+01
2.790000e-06	3.970520e-06	1.069426e-09	2.758991e+01	7.450700e+01
2.800000e-06	4.002619e-06	1.077865e-09	2.781296e+01	7.486153e+01
2.810000e-06	4.034494e-06	1.085940e-09	2.803445e+01	7.520566e+01
2.820000e-06	4.066154e-06	1.091496e-09	2.825444e+01	7.553937e+01
2.830000e-06	4.097622e-06	1.094280e-09	2.847310e+01	7.586266e+01
2.840000e-06	4.128990e-06	1.096299e-09	2.869106e+01	7.617556e+01
2.850000e-06	4.160141e-06	1.099488e-09	2.890753e+01	7.647814e+01
2.860000e-06	4.190880e-06	1.102744e-09	2.912112e+01	7.677049e+01
2.870000e-06	4.221226e-06	1.106753e-09	2.933199e+01	7.705273e+01
2.880000e-06	4.251250e-06	1.112183e-09	2.954062e+01	7.732500e+01
2.890000e-06	4.280993e-06	1.118817e-09	2.974729e+01	7.758750e+01
2.900000e-06	4.310519e-06	1.125825e-09	2.995246e+01	7.784042e+01
