# Temperatura_=_-0.3
# Concentracion g/m^3_=_1620.0
# C_Vs_to_Am_M_A/Vsm_=_65563218390.804596
# pendiente_HvsI_1/m_=_3716.3
# ordenada_HvsI_A/m_=_1297.0
# frecuencia_Hz_=_135094.49692134978

Tiempo_(s)	Campo_(V.s)	Magnetizacion_(V.s)	Campo_(kA/m)	Magnetizacion_(A/m)
0.000000e+00	-5.516966e-06	-1.430711e-09	-3.836861e+01	-9.283707e+01
1.000000e-08	-5.517155e-06	-1.431380e-09	-3.836993e+01	-9.284898e+01
2.000000e-08	-5.517048e-06	-1.433097e-09	-3.836918e+01	-9.285958e+01
3.000000e-08	-5.516518e-06	-1.432140e-09	-3.836550e+01	-9.286881e+01
4.000000e-08	-5.515496e-06	-1.436495e-09	-3.835839e+01	-9.287656e+01
5.000000e-08	-5.513950e-06	-1.445495e-09	-3.834763e+01	-9.288272e+01
6.000000e-08	-5.511713e-06	-1.423000e-09	-3.833208e+01	-9.288716e+01
7.000000e-08	-5.508806e-06	-1.373225e-09	-3.831186e+01	-9.288973e+01
8.000000e-08	-5.505554e-06	-1.348762e-09	-3.828924e+01	-9.289028e+01
9.000000e-08	-5.501914e-06	-1.370590e-09	-3.826393e+01	-9.288863e+01
1.000000e-07	-5.497900e-06	-1.471102e-09	-3.823601e+01	-9.288462e+01
1.100000e-07	-5.493588e-06	-1.510723e-09	-3.820603e+01	-9.287805e+01
1.200000e-07	-5.488938e-06	-1.364631e-09	-3.817369e+01	-9.286874e+01
1.300000e-07	-5.484060e-06	-1.322738e-09	-3.813976e+01	-9.285648e+01
1.400000e-07	-5.478886e-06	-1.386504e-09	-3.810378e+01	-9.284108e+01
1.500000e-07	-5.473279e-06	-1.476335e-09	-3.806479e+01	-9.282234e+01
1.600000e-07	-5.467308e-06	-1.362360e-09	-3.802325e+01	-9.280006e+01
1.700000e-07	-5.460965e-06	-1.308599e-09	-3.797914e+01	-9.277406e+01
1.800000e-07	-5.454158e-06	-1.442397e-09	-3.793180e+01	-9.274415e+01
1.900000e-07	-5.446895e-06	-1.513819e-09	-3.788129e+01	-9.271014e+01
2.000000e-07	-5.439410e-06	-1.429975e-09	-3.782923e+01	-9.267186e+01
2.100000e-07	-5.431765e-06	-1.334286e-09	-3.777607e+01	-9.262916e+01
2.200000e-07	-5.423752e-06	-1.422205e-09	-3.772034e+01	-9.258188e+01
2.300000e-07	-5.415314e-06	-1.485007e-09	-3.766166e+01	-9.252989e+01
2.400000e-07	-5.406451e-06	-1.474176e-09	-3.760001e+01	-9.247307e+01
2.500000e-07	-5.396953e-06	-1.416650e-09	-3.753396e+01	-9.241131e+01
2.600000e-07	-5.386707e-06	-1.450055e-09	-3.746271e+01	-9.234452e+01
2.700000e-07	-5.375817e-06	-1.443870e-09	-3.738697e+01	-9.227261e+01
2.800000e-07	-5.364555e-06	-1.418813e-09	-3.730865e+01	-9.219554e+01
2.900000e-07	-5.353037e-06	-1.391139e-09	-3.722854e+01	-9.211325e+01
3.000000e-07	-5.341129e-06	-1.443074e-09	-3.714572e+01	-9.202573e+01
3.100000e-07	-5.328790e-06	-1.452073e-09	-3.705991e+01	-9.193296e+01
3.200000e-07	-5.316063e-06	-1.434482e-09	-3.697140e+01	-9.183494e+01
3.300000e-07	-5.302889e-06	-1.401733e-09	-3.687978e+01	-9.173169e+01
3.400000e-07	-5.289267e-06	-1.403324e-09	-3.678504e+01	-9.162325e+01
3.500000e-07	-5.275308e-06	-1.414151e-09	-3.668796e+01	-9.150967e+01
3.600000e-07	-5.260984e-06	-1.393423e-09	-3.658834e+01	-9.139100e+01
3.700000e-07	-5.246095e-06	-1.374314e-09	-3.648479e+01	-9.126731e+01
3.800000e-07	-5.230678e-06	-1.418125e-09	-3.637758e+01	-9.113868e+01
3.900000e-07	-5.214703e-06	-1.437600e-09	-3.626647e+01	-9.100520e+01
4.000000e-07	-5.198117e-06	-1.362697e-09	-3.615112e+01	-9.086696e+01
4.100000e-07	-5.181259e-06	-1.366191e-09	-3.603389e+01	-9.072407e+01
4.200000e-07	-5.164289e-06	-1.430866e-09	-3.591587e+01	-9.057661e+01
4.300000e-07	-5.146976e-06	-1.382014e-09	-3.579546e+01	-9.042471e+01
4.400000e-07	-5.129125e-06	-1.310162e-09	-3.567131e+01	-9.026846e+01
4.500000e-07	-5.110947e-06	-1.419879e-09	-3.554489e+01	-9.010797e+01
4.600000e-07	-5.092472e-06	-1.444131e-09	-3.541640e+01	-8.994333e+01
4.700000e-07	-5.073528e-06	-1.322529e-09	-3.528465e+01	-8.977466e+01
4.800000e-07	-5.054196e-06	-1.337983e-09	-3.515020e+01	-8.960203e+01
4.900000e-07	-5.034668e-06	-1.446875e-09	-3.501439e+01	-8.942555e+01
5.000000e-07	-5.014968e-06	-1.353371e-09	-3.487739e+01	-8.924528e+01
5.100000e-07	-4.995010e-06	-1.305732e-09	-3.473858e+01	-8.906130e+01
5.200000e-07	-4.974762e-06	-1.402449e-09	-3.459777e+01	-8.887367e+01
5.300000e-07	-4.954164e-06	-1.379673e-09	-3.445451e+01	-8.868244e+01
5.400000e-07	-4.933140e-06	-1.291290e-09	-3.430830e+01	-8.848767e+01
5.500000e-07	-4.911807e-06	-1.389476e-09	-3.415994e+01	-8.828937e+01
5.600000e-07	-4.890172e-06	-1.404401e-09	-3.400947e+01	-8.808758e+01
5.700000e-07	-4.868105e-06	-1.280890e-09	-3.385601e+01	-8.788230e+01
5.800000e-07	-4.845710e-06	-1.307095e-09	-3.370025e+01	-8.767354e+01
5.900000e-07	-4.823029e-06	-1.385395e-09	-3.354252e+01	-8.746129e+01
6.000000e-07	-4.800033e-06	-1.294999e-09	-3.338259e+01	-8.724553e+01
6.100000e-07	-4.776724e-06	-1.279606e-09	-3.322048e+01	-8.702624e+01
6.200000e-07	-4.753164e-06	-1.359933e-09	-3.305663e+01	-8.680338e+01
6.300000e-07	-4.729400e-06	-1.315343e-09	-3.289136e+01	-8.657692e+01
6.400000e-07	-4.705287e-06	-1.265420e-09	-3.272366e+01	-8.634681e+01
6.500000e-07	-4.680784e-06	-1.326119e-09	-3.255325e+01	-8.611299e+01
6.600000e-07	-4.655884e-06	-1.314090e-09	-3.238008e+01	-8.587541e+01
6.700000e-07	-4.630471e-06	-1.254917e-09	-3.220334e+01	-8.563402e+01
6.800000e-07	-4.604487e-06	-1.291515e-09	-3.202263e+01	-8.538876e+01
6.900000e-07	-4.578007e-06	-1.304136e-09	-3.183847e+01	-8.513956e+01
7.000000e-07	-4.551101e-06	-1.257194e-09	-3.165135e+01	-8.488637e+01
7.100000e-07	-4.523797e-06	-1.267767e-09	-3.146146e+01	-8.462914e+01
7.200000e-07	-4.496274e-06	-1.291122e-09	-3.127004e+01	-8.436782e+01
7.300000e-07	-4.468606e-06	-1.254056e-09	-3.107763e+01	-8.410236e+01
7.400000e-07	-4.440766e-06	-1.257524e-09	-3.088400e+01	-8.383272e+01
7.500000e-07	-4.412704e-06	-1.278973e-09	-3.068885e+01	-8.355886e+01
7.600000e-07	-4.384286e-06	-1.257144e-09	-3.049121e+01	-8.328077e+01
7.700000e-07	-4.355488e-06	-1.240567e-09	-3.029093e+01	-8.299842e+01
7.800000e-07	-4.326397e-06	-1.257556e-09	-3.008861e+01	-8.271181e+01
7.900000e-07	-4.297070e-06	-1.237358e-09	-2.988465e+01	-8.242093e+01
8.000000e-07	-4.267530e-06	-1.223011e-09	-2.967921e+01	-8.212581e+01
8.100000e-07	-4.237670e-06	-1.238666e-09	-2.947154e+01	-8.182645e+01
8.200000e-07	-4.207488e-06	-1.237759e-09	-2.926164e+01	-8.152290e+01
8.300000e-07	-4.177052e-06	-1.212550e-09	-2.904997e+01	-8.121519e+01
8.400000e-07	-4.146290e-06	-1.222064e-09	-2.883603e+01	-8.090338e+01
8.500000e-07	-4.115222e-06	-1.224679e-09	-2.861996e+01	-8.058751e+01
8.600000e-07	-4.083922e-06	-1.199756e-09	-2.840228e+01	-8.026767e+01
8.700000e-07	-4.052471e-06	-1.188744e-09	-2.818355e+01	-7.994391e+01
8.800000e-07	-4.020832e-06	-1.196805e-09	-2.796351e+01	-7.961633e+01
8.900000e-07	-3.988946e-06	-1.178644e-09	-2.774176e+01	-7.928501e+01
9.000000e-07	-3.956786e-06	-1.166032e-09	-2.751809e+01	-7.895004e+01
9.100000e-07	-3.924320e-06	-1.172358e-09	-2.729230e+01	-7.861151e+01
9.200000e-07	-3.891485e-06	-1.162500e-09	-2.706395e+01	-7.826952e+01
9.300000e-07	-3.858154e-06	-1.144632e-09	-2.683214e+01	-7.792415e+01
9.400000e-07	-3.824303e-06	-1.151889e-09	-2.659672e+01	-7.757551e+01
9.500000e-07	-3.790072e-06	-1.154127e-09	-2.635865e+01	-7.722368e+01
9.600000e-07	-3.755461e-06	-1.133143e-09	-2.611795e+01	-7.686874e+01
9.700000e-07	-3.720463e-06	-1.126354e-09	-2.587454e+01	-7.651078e+01
9.800000e-07	-3.685188e-06	-1.127529e-09	-2.562922e+01	-7.614986e+01
9.900000e-07	-3.649716e-06	-1.112957e-09	-2.538253e+01	-7.578604e+01
1.000000e-06	-3.614122e-06	-1.101858e-09	-2.513498e+01	-7.541938e+01
1.010000e-06	-3.578431e-06	-1.107406e-09	-2.488676e+01	-7.504991e+01
1.020000e-06	-3.542646e-06	-1.100631e-09	-2.463789e+01	-7.467767e+01
1.030000e-06	-3.506618e-06	-1.090078e-09	-2.438733e+01	-7.430265e+01
1.040000e-06	-3.470285e-06	-1.088305e-09	-2.413464e+01	-7.392485e+01
1.050000e-06	-3.433740e-06	-1.083774e-09	-2.388049e+01	-7.354426e+01
1.060000e-06	-3.396945e-06	-1.066807e-09	-2.362459e+01	-7.316083e+01
1.070000e-06	-3.359855e-06	-1.061166e-09	-2.336664e+01	-7.277452e+01
1.080000e-06	-3.322524e-06	-1.059241e-09	-2.310702e+01	-7.238524e+01
1.090000e-06	-3.284957e-06	-1.052989e-09	-2.284575e+01	-7.199291e+01
1.100000e-06	-3.247146e-06	-1.046811e-09	-2.258279e+01	-7.159742e+01
1.110000e-06	-3.209089e-06	-1.045975e-09	-2.231812e+01	-7.119864e+01
1.120000e-06	-3.170830e-06	-1.034856e-09	-2.205204e+01	-7.079642e+01
1.130000e-06	-3.132382e-06	-1.023998e-09	-2.178464e+01	-7.039061e+01
1.140000e-06	-3.093752e-06	-1.018827e-09	-2.151599e+01	-6.998102e+01
1.150000e-06	-3.054941e-06	-1.012057e-09	-2.124607e+01	-6.956746e+01
1.160000e-06	-3.015905e-06	-1.000672e-09	-2.097459e+01	-6.914973e+01
1.170000e-06	-2.976646e-06	-9.941936e-10	-2.070155e+01	-6.872760e+01
1.180000e-06	-2.937234e-06	-9.876269e-10	-2.042746e+01	-6.830082e+01
1.190000e-06	-2.897745e-06	-9.794813e-10	-2.015282e+01	-6.786917e+01
1.200000e-06	-2.858133e-06	-9.723844e-10	-1.987734e+01	-6.743237e+01
1.210000e-06	-2.818320e-06	-9.673687e-10	-1.960045e+01	-6.699017e+01
1.220000e-06	-2.778280e-06	-9.595022e-10	-1.932199e+01	-6.654229e+01
1.230000e-06	-2.738067e-06	-9.523037e-10	-1.904232e+01	-6.608844e+01
1.240000e-06	-2.697694e-06	-9.474692e-10	-1.876154e+01	-6.562836e+01
1.250000e-06	-2.657160e-06	-9.381079e-10	-1.847964e+01	-6.516174e+01
1.260000e-06	-2.616384e-06	-9.297835e-10	-1.819606e+01	-6.468830e+01
1.270000e-06	-2.575240e-06	-9.242148e-10	-1.790991e+01	-6.420776e+01
1.280000e-06	-2.533814e-06	-9.169814e-10	-1.762181e+01	-6.371981e+01
1.290000e-06	-2.492106e-06	-9.057658e-10	-1.733174e+01	-6.322418e+01
1.300000e-06	-2.450069e-06	-8.959723e-10	-1.703939e+01	-6.272059e+01
1.310000e-06	-2.407687e-06	-8.876134e-10	-1.674464e+01	-6.220874e+01
1.320000e-06	-2.364960e-06	-8.794752e-10	-1.644749e+01	-6.168837e+01
1.330000e-06	-2.322060e-06	-8.724026e-10	-1.614913e+01	-6.115921e+01
1.340000e-06	-2.279056e-06	-8.663743e-10	-1.585005e+01	-6.062099e+01
1.350000e-06	-2.235871e-06	-8.563457e-10	-1.554971e+01	-6.007345e+01
1.360000e-06	-2.192508e-06	-8.457036e-10	-1.524815e+01	-5.951634e+01
1.370000e-06	-2.149087e-06	-8.354453e-10	-1.494617e+01	-5.894942e+01
1.380000e-06	-2.105629e-06	-8.261532e-10	-1.464393e+01	-5.837244e+01
1.390000e-06	-2.062044e-06	-8.158253e-10	-1.434081e+01	-5.778517e+01
1.400000e-06	-2.018340e-06	-8.059896e-10	-1.403686e+01	-5.718739e+01
1.410000e-06	-1.974566e-06	-7.954286e-10	-1.373243e+01	-5.657886e+01
1.420000e-06	-1.930769e-06	-7.874911e-10	-1.342784e+01	-5.595938e+01
1.430000e-06	-1.886895e-06	-7.803484e-10	-1.312271e+01	-5.532871e+01
1.440000e-06	-1.842912e-06	-7.735467e-10	-1.281682e+01	-5.468666e+01
1.450000e-06	-1.798782e-06	-7.635831e-10	-1.250991e+01	-5.403300e+01
1.460000e-06	-1.754443e-06	-7.514940e-10	-1.220155e+01	-5.336752e+01
1.470000e-06	-1.709951e-06	-7.370428e-10	-1.189212e+01	-5.269002e+01
1.480000e-06	-1.665400e-06	-7.212532e-10	-1.158228e+01	-5.200028e+01
1.490000e-06	-1.620761e-06	-7.059327e-10	-1.127184e+01	-5.129807e+01
1.500000e-06	-1.575903e-06	-6.941784e-10	-1.095986e+01	-5.058319e+01
1.510000e-06	-1.530830e-06	-6.850910e-10	-1.064640e+01	-4.985541e+01
1.520000e-06	-1.485665e-06	-6.752142e-10	-1.033229e+01	-4.911450e+01
1.530000e-06	-1.440476e-06	-6.631734e-10	-1.001802e+01	-4.836021e+01
1.540000e-06	-1.395247e-06	-6.499023e-10	-9.703466e+00	-4.759232e+01
1.550000e-06	-1.349953e-06	-6.352349e-10	-9.388460e+00	-4.681057e+01
1.560000e-06	-1.304526e-06	-6.202617e-10	-9.072534e+00	-4.601471e+01
1.570000e-06	-1.259010e-06	-6.050888e-10	-8.755983e+00	-4.520447e+01
1.580000e-06	-1.213382e-06	-5.908380e-10	-8.438653e+00	-4.437958e+01
1.590000e-06	-1.167656e-06	-5.785269e-10	-8.120647e+00	-4.353976e+01
1.600000e-06	-1.121824e-06	-5.670607e-10	-7.801902e+00	-4.268474e+01
1.610000e-06	-1.075907e-06	-5.559709e-10	-7.482567e+00	-4.181422e+01
1.620000e-06	-1.029980e-06	-5.437063e-10	-7.163156e+00	-4.092791e+01
1.630000e-06	-9.839405e-07	-5.327397e-10	-6.842970e+00	-4.002553e+01
1.640000e-06	-9.378117e-07	-5.170414e-10	-6.522159e+00	-3.910676e+01
1.650000e-06	-8.916461e-07	-4.977170e-10	-6.201093e+00	-3.817133e+01
1.660000e-06	-8.454120e-07	-4.796994e-10	-5.879551e+00	-3.721894e+01
1.670000e-06	-7.990775e-07	-4.643446e-10	-5.557311e+00	-3.624931e+01
1.680000e-06	-7.526837e-07	-4.491634e-10	-5.234657e+00	-3.526215e+01
1.690000e-06	-7.061671e-07	-4.381015e-10	-4.911150e+00	-3.425721e+01
1.700000e-06	-6.595907e-07	-4.276626e-10	-4.587228e+00	-3.323424e+01
1.710000e-06	-6.129755e-07	-4.135621e-10	-4.263035e+00	-3.219300e+01
1.720000e-06	-5.663077e-07	-3.955561e-10	-3.938476e+00	-3.113328e+01
1.730000e-06	-5.196991e-07	-3.770840e-10	-3.614329e+00	-3.005490e+01
1.740000e-06	-4.730470e-07	-3.594715e-10	-3.289880e+00	-2.895769e+01
1.750000e-06	-4.263003e-07	-3.427907e-10	-2.964773e+00	-2.784153e+01
1.760000e-06	-3.795564e-07	-3.257691e-10	-2.639685e+00	-2.670631e+01
1.770000e-06	-3.328052e-07	-3.100979e-10	-2.314546e+00	-2.555200e+01
1.780000e-06	-2.860264e-07	-2.962653e-10	-1.989216e+00	-2.437857e+01
1.790000e-06	-2.392015e-07	-2.804620e-10	-1.663565e+00	-2.318605e+01
1.800000e-06	-1.923791e-07	-2.608550e-10	-1.337931e+00	-2.197454e+01
1.810000e-06	-1.455558e-07	-2.393782e-10	-1.012291e+00	-2.074415e+01
1.820000e-06	-9.869990e-08	-2.197484e-10	-6.864240e-01	-1.949509e+01
1.830000e-06	-5.189898e-08	-2.016522e-10	-3.609396e-01	-1.822758e+01
1.840000e-06	-5.094652e-09	-1.853605e-10	-3.543156e-02	-1.694194e+01
1.850000e-06	4.173511e-08	-1.714724e-10	2.902534e-01	-1.563852e+01
1.860000e-06	8.853645e-08	-1.564694e-10	6.157407e-01	-1.431777e+01
1.870000e-06	1.353334e-07	-1.375301e-10	9.411972e-01	-1.298016e+01
1.880000e-06	1.821124e-07	-1.167569e-10	1.266529e+00	-1.162625e+01
1.890000e-06	2.289179e-07	-9.294440e-11	1.592046e+00	-1.025667e+01
1.900000e-06	2.757775e-07	-7.191483e-11	1.917938e+00	-8.872106e+00
1.910000e-06	3.226327e-07	-5.083221e-11	2.243800e+00	-7.473300e+00
1.920000e-06	3.694136e-07	-3.426733e-11	2.569145e+00	-6.061072e+00
1.930000e-06	4.160903e-07	-2.257429e-11	2.893765e+00	-4.636299e+00
1.940000e-06	4.627282e-07	-1.036760e-11	3.218116e+00	-3.199917e+00
1.950000e-06	5.092954e-07	5.583833e-12	3.541975e+00	-1.752924e+00
1.960000e-06	5.558573e-07	2.775569e-11	3.865797e+00	-2.963681e-01
1.970000e-06	6.023663e-07	5.033267e-11	4.189251e+00	1.168648e+00
1.980000e-06	6.488043e-07	7.255390e-11	4.512212e+00	2.640973e+00
1.990000e-06	6.952167e-07	9.441430e-11	4.834994e+00	4.119415e+00
2.000000e-06	7.415564e-07	1.166577e-10	5.157271e+00	5.602739e+00
2.010000e-06	7.878876e-07	1.360121e-10	5.479488e+00	7.089680e+00
2.020000e-06	8.340971e-07	1.540582e-10	5.800860e+00	8.578939e+00
2.030000e-06	8.801327e-07	1.727208e-10	6.121022e+00	1.006920e+01
2.040000e-06	9.261122e-07	1.914159e-10	6.440793e+00	1.155912e+01
2.050000e-06	9.720527e-07	2.113342e-10	6.760294e+00	1.304735e+01
2.060000e-06	1.018001e-06	2.327320e-10	7.079852e+00	1.453254e+01
2.070000e-06	1.064006e-06	2.565571e-10	7.399797e+00	1.601333e+01
2.080000e-06	1.109942e-06	2.794005e-10	7.719267e+00	1.748837e+01
2.090000e-06	1.155698e-06	2.987608e-10	8.037481e+00	1.895633e+01
2.100000e-06	1.201350e-06	3.217154e-10	8.354980e+00	2.041590e+01
2.110000e-06	1.246975e-06	3.449344e-10	8.672282e+00	2.186578e+01
2.120000e-06	1.292521e-06	3.650922e-10	8.989039e+00	2.330472e+01
2.130000e-06	1.337984e-06	3.808491e-10	9.305219e+00	2.473149e+01
2.140000e-06	1.383358e-06	3.951329e-10	9.620784e+00	2.614493e+01
2.150000e-06	1.428624e-06	4.106355e-10	9.935592e+00	2.754390e+01
2.160000e-06	1.473727e-06	4.290789e-10	1.024927e+01	2.892733e+01
2.170000e-06	1.518723e-06	4.524215e-10	1.056220e+01	3.029420e+01
2.180000e-06	1.563677e-06	4.749677e-10	1.087484e+01	3.164356e+01
2.190000e-06	1.608545e-06	4.937467e-10	1.118688e+01	3.297452e+01
2.200000e-06	1.653264e-06	5.103856e-10	1.149789e+01	3.428627e+01
2.210000e-06	1.697788e-06	5.275073e-10	1.180754e+01	3.557806e+01
2.220000e-06	1.742169e-06	5.449701e-10	1.211619e+01	3.684923e+01
2.230000e-06	1.786406e-06	5.619998e-10	1.242384e+01	3.809917e+01
2.240000e-06	1.830512e-06	5.783166e-10	1.273058e+01	3.932739e+01
2.250000e-06	1.874461e-06	5.941304e-10	1.303623e+01	4.053343e+01
2.260000e-06	1.918303e-06	6.097682e-10	1.334114e+01	4.171696e+01
2.270000e-06	1.962074e-06	6.250099e-10	1.364555e+01	4.287769e+01
2.280000e-06	2.005738e-06	6.387828e-10	1.394922e+01	4.401542e+01
2.290000e-06	2.049403e-06	6.531497e-10	1.425290e+01	4.513004e+01
2.300000e-06	2.093061e-06	6.686559e-10	1.455652e+01	4.622148e+01
2.310000e-06	2.136606e-06	6.862059e-10	1.485937e+01	4.728979e+01
2.320000e-06	2.180065e-06	7.018522e-10	1.516160e+01	4.833505e+01
2.330000e-06	2.223481e-06	7.141726e-10	1.546355e+01	4.935743e+01
2.340000e-06	2.266776e-06	7.254017e-10	1.576465e+01	5.035714e+01
2.350000e-06	2.309858e-06	7.349104e-10	1.606427e+01	5.133446e+01
2.360000e-06	2.352740e-06	7.441173e-10	1.636250e+01	5.228974e+01
2.370000e-06	2.395463e-06	7.573871e-10	1.665963e+01	5.322336e+01
2.380000e-06	2.437832e-06	7.740418e-10	1.695428e+01	5.413573e+01
2.390000e-06	2.479828e-06	7.914419e-10	1.724635e+01	5.502734e+01
2.400000e-06	2.521675e-06	8.066773e-10	1.753738e+01	5.589868e+01
2.410000e-06	2.563322e-06	8.191711e-10	1.782703e+01	5.675027e+01
2.420000e-06	2.604532e-06	8.303677e-10	1.811363e+01	5.758268e+01
2.430000e-06	2.645393e-06	8.401627e-10	1.839781e+01	5.839648e+01
2.440000e-06	2.686018e-06	8.482857e-10	1.868033e+01	5.919224e+01
2.450000e-06	2.726310e-06	8.588354e-10	1.896055e+01	5.997056e+01
2.460000e-06	2.766431e-06	8.720636e-10	1.923958e+01	6.073203e+01
2.470000e-06	2.806362e-06	8.846318e-10	1.951729e+01	6.147725e+01
2.480000e-06	2.846107e-06	8.950089e-10	1.979370e+01	6.220679e+01
2.490000e-06	2.885702e-06	9.041832e-10	2.006907e+01	6.292124e+01
2.500000e-06	2.925149e-06	9.147163e-10	2.034341e+01	6.362115e+01
2.510000e-06	2.964548e-06	9.264855e-10	2.061742e+01	6.430706e+01
2.520000e-06	3.003850e-06	9.381314e-10	2.089075e+01	6.497949e+01
2.530000e-06	3.042922e-06	9.480528e-10	2.116248e+01	6.563894e+01
2.540000e-06	3.081733e-06	9.559841e-10	2.143240e+01	6.628586e+01
2.550000e-06	3.120320e-06	9.614079e-10	2.170076e+01	6.692069e+01
2.560000e-06	3.158662e-06	9.676114e-10	2.196741e+01	6.754384e+01
2.570000e-06	3.196774e-06	9.771949e-10	2.223247e+01	6.815568e+01
2.580000e-06	3.234602e-06	9.881603e-10	2.249555e+01	6.875655e+01
2.590000e-06	3.272255e-06	9.990028e-10	2.275741e+01	6.934675e+01
2.600000e-06	3.309824e-06	1.009961e-09	2.301869e+01	6.992656e+01
2.610000e-06	3.347164e-06	1.019932e-09	2.327838e+01	7.049621e+01
2.620000e-06	3.384199e-06	1.028242e-09	2.353595e+01	7.105591e+01
2.630000e-06	3.420951e-06	1.034047e-09	2.379154e+01	7.160583e+01
2.640000e-06	3.457510e-06	1.037195e-09	2.404580e+01	7.214612e+01
2.650000e-06	3.493898e-06	1.040386e-09	2.429887e+01	7.267689e+01
2.660000e-06	3.530019e-06	1.047383e-09	2.455007e+01	7.319824e+01
2.670000e-06	3.565883e-06	1.056908e-09	2.479950e+01	7.371023e+01
2.680000e-06	3.601575e-06	1.066979e-09	2.504772e+01	7.421291e+01
2.690000e-06	3.637124e-06	1.076771e-09	2.529495e+01	7.470630e+01
2.700000e-06	3.672508e-06	1.085989e-09	2.554104e+01	7.519041e+01
2.710000e-06	3.707772e-06	1.093322e-09	2.578628e+01	7.566526e+01
2.720000e-06	3.742884e-06	1.099924e-09	2.603048e+01	7.613081e+01
2.730000e-06	3.777643e-06	1.107450e-09	2.627221e+01	7.658706e+01
2.740000e-06	3.811993e-06	1.114282e-09	2.651111e+01	7.703399e+01
2.750000e-06	3.845928e-06	1.119267e-09	2.674711e+01	7.747157e+01
2.760000e-06	3.879476e-06	1.123761e-09	2.698043e+01	7.789978e+01
2.770000e-06	3.912574e-06	1.129303e-09	2.721061e+01	7.831861e+01
2.780000e-06	3.945189e-06	1.135669e-09	2.743744e+01	7.872805e+01
2.790000e-06	3.977407e-06	1.143179e-09	2.766150e+01	7.912809e+01
2.800000e-06	4.009264e-06	1.151979e-09	2.788306e+01	7.951877e+01
2.810000e-06	4.040921e-06	1.159814e-09	2.810322e+01	7.990009e+01
2.820000e-06	4.072392e-06	1.165431e-09	2.832209e+01	8.027211e+01
2.830000e-06	4.103668e-06	1.168156e-09	2.853961e+01	8.063487e+01
2.840000e-06	4.134775e-06	1.168751e-09	2.875594e+01	8.098847e+01
2.850000e-06	4.165667e-06	1.171506e-09	2.897079e+01	8.133298e+01
2.860000e-06	4.196268e-06	1.177813e-09	2.918361e+01	8.166854e+01
2.870000e-06	4.226587e-06	1.186305e-09	2.939446e+01	8.199526e+01
2.880000e-06	4.256566e-06	1.195156e-09	2.960296e+01	8.231330e+01
2.890000e-06	4.286162e-06	1.204405e-09	2.980879e+01	8.262284e+01
2.900000e-06	4.315520e-06	1.212442e-09	3.001296e+01	8.292406e+01
