# Temperatura_=_-0.4
# Concentracion g/m^3_=_1620.0
# C_Vs_to_Am_M_A/Vsm_=_65563218390.804596
# pendiente_HvsI_1/m_=_3716.3
# ordenada_HvsI_A/m_=_1297.0
# frecuencia_Hz_=_135094.94112351123

Tiempo_(s)	Campo_(V.s)	Magnetizacion_(V.s)	Campo_(kA/m)	Magnetizacion_(A/m)
0.000000e+00	-5.499803e-06	-1.402920e-09	-3.837753e+01	-9.053240e+01
1.000000e-08	-5.499900e-06	-1.399854e-09	-3.837821e+01	-9.056098e+01
2.000000e-08	-5.499700e-06	-1.395776e-09	-3.837681e+01	-9.058942e+01
3.000000e-08	-5.499177e-06	-1.393259e-09	-3.837317e+01	-9.061762e+01
4.000000e-08	-5.498226e-06	-1.392164e-09	-3.836653e+01	-9.064546e+01
5.000000e-08	-5.496783e-06	-1.390683e-09	-3.835646e+01	-9.067278e+01
6.000000e-08	-5.494711e-06	-1.381418e-09	-3.834200e+01	-9.069940e+01
7.000000e-08	-5.492007e-06	-1.380187e-09	-3.832313e+01	-9.072513e+01
8.000000e-08	-5.488853e-06	-1.428383e-09	-3.830112e+01	-9.074974e+01
9.000000e-08	-5.485221e-06	-1.440677e-09	-3.827578e+01	-9.077301e+01
1.000000e-07	-5.481131e-06	-1.345745e-09	-3.824724e+01	-9.079468e+01
1.100000e-07	-5.476806e-06	-1.336819e-09	-3.821706e+01	-9.081449e+01
1.200000e-07	-5.472267e-06	-1.400455e-09	-3.818538e+01	-9.083217e+01
1.300000e-07	-5.467337e-06	-1.417309e-09	-3.815099e+01	-9.084745e+01
1.400000e-07	-5.462003e-06	-1.348987e-09	-3.811377e+01	-9.086005e+01
1.500000e-07	-5.456356e-06	-1.293911e-09	-3.807436e+01	-9.086968e+01
1.600000e-07	-5.450394e-06	-1.407086e-09	-3.803276e+01	-9.087607e+01
1.700000e-07	-5.444009e-06	-1.422570e-09	-3.798821e+01	-9.087894e+01
1.800000e-07	-5.437246e-06	-1.373173e-09	-3.794101e+01	-9.087803e+01
1.900000e-07	-5.430139e-06	-1.333547e-09	-3.789142e+01	-9.087308e+01
2.000000e-07	-5.422692e-06	-1.407927e-09	-3.783945e+01	-9.086385e+01
2.100000e-07	-5.414988e-06	-1.448026e-09	-3.778570e+01	-9.085012e+01
2.200000e-07	-5.407011e-06	-1.411335e-09	-3.773003e+01	-9.083166e+01
2.300000e-07	-5.398783e-06	-1.386260e-09	-3.767262e+01	-9.080829e+01
2.400000e-07	-5.390056e-06	-1.429788e-09	-3.761172e+01	-9.077984e+01
2.500000e-07	-5.380567e-06	-1.449048e-09	-3.754550e+01	-9.074616e+01
2.600000e-07	-5.370492e-06	-1.411243e-09	-3.747520e+01	-9.070711e+01
2.700000e-07	-5.359853e-06	-1.396712e-09	-3.740097e+01	-9.066260e+01
2.800000e-07	-5.348588e-06	-1.408523e-09	-3.732236e+01	-9.061254e+01
2.900000e-07	-5.336991e-06	-1.427464e-09	-3.724143e+01	-9.055688e+01
3.000000e-07	-5.325152e-06	-1.393406e-09	-3.715882e+01	-9.049558e+01
3.100000e-07	-5.312818e-06	-1.389991e-09	-3.707276e+01	-9.042864e+01
3.200000e-07	-5.299997e-06	-1.398085e-09	-3.698329e+01	-9.035607e+01
3.300000e-07	-5.286811e-06	-1.423323e-09	-3.689128e+01	-9.027791e+01
3.400000e-07	-5.273259e-06	-1.381989e-09	-3.679671e+01	-9.019421e+01
3.500000e-07	-5.259357e-06	-1.370385e-09	-3.669971e+01	-9.010506e+01
3.600000e-07	-5.245090e-06	-1.398214e-09	-3.660015e+01	-9.001054e+01
3.700000e-07	-5.230283e-06	-1.397144e-09	-3.649683e+01	-8.991077e+01
3.800000e-07	-5.214757e-06	-1.336864e-09	-3.638849e+01	-8.980587e+01
3.900000e-07	-5.198760e-06	-1.376999e-09	-3.627686e+01	-8.969598e+01
4.000000e-07	-5.182457e-06	-1.417502e-09	-3.616310e+01	-8.958125e+01
4.100000e-07	-5.165773e-06	-1.350115e-09	-3.604668e+01	-8.946183e+01
4.200000e-07	-5.148706e-06	-1.318870e-09	-3.592758e+01	-8.933788e+01
4.300000e-07	-5.131348e-06	-1.415400e-09	-3.580646e+01	-8.920957e+01
4.400000e-07	-5.113682e-06	-1.386839e-09	-3.568319e+01	-8.907707e+01
4.500000e-07	-5.095566e-06	-1.289860e-09	-3.555677e+01	-8.894053e+01
4.600000e-07	-5.077004e-06	-1.355128e-09	-3.542725e+01	-8.880012e+01
4.700000e-07	-5.058057e-06	-1.409269e-09	-3.529503e+01	-8.865599e+01
4.800000e-07	-5.038783e-06	-1.308534e-09	-3.516055e+01	-8.850828e+01
4.900000e-07	-5.019230e-06	-1.313752e-09	-3.502410e+01	-8.835715e+01
5.000000e-07	-4.999479e-06	-1.404585e-09	-3.488628e+01	-8.820271e+01
5.100000e-07	-4.979591e-06	-1.327816e-09	-3.474750e+01	-8.804509e+01
5.200000e-07	-4.959432e-06	-1.275510e-09	-3.460683e+01	-8.788437e+01
5.300000e-07	-4.938991e-06	-1.370601e-09	-3.446420e+01	-8.772066e+01
5.400000e-07	-4.918182e-06	-1.354923e-09	-3.431899e+01	-8.755402e+01
5.500000e-07	-4.896840e-06	-1.261646e-09	-3.417007e+01	-8.738451e+01
5.600000e-07	-4.875174e-06	-1.331840e-09	-3.401888e+01	-8.721217e+01
5.700000e-07	-4.853255e-06	-1.365649e-09	-3.386593e+01	-8.703702e+01
5.800000e-07	-4.831047e-06	-1.275543e-09	-3.371097e+01	-8.685908e+01
5.900000e-07	-4.808550e-06	-1.284223e-09	-3.355398e+01	-8.667833e+01
6.000000e-07	-4.785687e-06	-1.348861e-09	-3.339445e+01	-8.649475e+01
6.100000e-07	-4.762393e-06	-1.287514e-09	-3.323190e+01	-8.630830e+01
6.200000e-07	-4.738793e-06	-1.269773e-09	-3.306722e+01	-8.611894e+01
6.300000e-07	-4.715009e-06	-1.321561e-09	-3.290126e+01	-8.592661e+01
6.400000e-07	-4.691052e-06	-1.295097e-09	-3.273408e+01	-8.573122e+01
6.500000e-07	-4.666822e-06	-1.255401e-09	-3.256501e+01	-8.553270e+01
6.600000e-07	-4.642146e-06	-1.296280e-09	-3.239281e+01	-8.533095e+01
6.700000e-07	-4.617021e-06	-1.289329e-09	-3.221750e+01	-8.512589e+01
6.800000e-07	-4.591412e-06	-1.254207e-09	-3.203880e+01	-8.491740e+01
6.900000e-07	-4.565153e-06	-1.272155e-09	-3.185556e+01	-8.470538e+01
7.000000e-07	-4.538266e-06	-1.281642e-09	-3.166795e+01	-8.448974e+01
7.100000e-07	-4.510963e-06	-1.249603e-09	-3.147742e+01	-8.427036e+01
7.200000e-07	-4.483365e-06	-1.255240e-09	-3.128485e+01	-8.404714e+01
7.300000e-07	-4.455585e-06	-1.263007e-09	-3.109099e+01	-8.381999e+01
7.400000e-07	-4.427676e-06	-1.246896e-09	-3.089625e+01	-8.358881e+01
7.500000e-07	-4.399608e-06	-1.250071e-09	-3.070039e+01	-8.335351e+01
7.600000e-07	-4.371376e-06	-1.259467e-09	-3.050339e+01	-8.311403e+01
7.700000e-07	-4.342808e-06	-1.240877e-09	-3.030404e+01	-8.287029e+01
7.800000e-07	-4.313778e-06	-1.230661e-09	-3.010147e+01	-8.262223e+01
7.900000e-07	-4.284421e-06	-1.235037e-09	-2.989662e+01	-8.236981e+01
8.000000e-07	-4.254819e-06	-1.220219e-09	-2.969005e+01	-8.211298e+01
8.100000e-07	-4.224985e-06	-1.211768e-09	-2.948187e+01	-8.185174e+01
8.200000e-07	-4.194948e-06	-1.222975e-09	-2.927227e+01	-8.158605e+01
8.300000e-07	-4.164640e-06	-1.221041e-09	-2.906079e+01	-8.131593e+01
8.400000e-07	-4.133926e-06	-1.202316e-09	-2.884646e+01	-8.104139e+01
8.500000e-07	-4.102901e-06	-1.203105e-09	-2.862997e+01	-8.076244e+01
8.600000e-07	-4.071679e-06	-1.200907e-09	-2.841211e+01	-8.047913e+01
8.700000e-07	-4.040213e-06	-1.184941e-09	-2.819254e+01	-8.019148e+01
8.800000e-07	-4.008601e-06	-1.178921e-09	-2.797195e+01	-7.989956e+01
8.900000e-07	-3.976883e-06	-1.184884e-09	-2.775062e+01	-7.960342e+01
9.000000e-07	-3.944935e-06	-1.171223e-09	-2.752769e+01	-7.930312e+01
9.100000e-07	-3.912719e-06	-1.161851e-09	-2.730289e+01	-7.899873e+01
9.200000e-07	-3.880225e-06	-1.165409e-09	-2.707614e+01	-7.869032e+01
9.300000e-07	-3.847328e-06	-1.160478e-09	-2.684659e+01	-7.837796e+01
9.400000e-07	-3.813900e-06	-1.145742e-09	-2.661333e+01	-7.806171e+01
9.500000e-07	-3.780032e-06	-1.148941e-09	-2.637700e+01	-7.774165e+01
9.600000e-07	-3.745768e-06	-1.147580e-09	-2.613790e+01	-7.741784e+01
9.700000e-07	-3.711065e-06	-1.134114e-09	-2.589575e+01	-7.709033e+01
9.800000e-07	-3.675913e-06	-1.126327e-09	-2.565046e+01	-7.675916e+01
9.900000e-07	-3.640449e-06	-1.126744e-09	-2.540299e+01	-7.642438e+01
1.000000e-06	-3.604880e-06	-1.116122e-09	-2.515479e+01	-7.608601e+01
1.010000e-06	-3.569206e-06	-1.108805e-09	-2.490586e+01	-7.574406e+01
1.020000e-06	-3.533385e-06	-1.113056e-09	-2.465590e+01	-7.539853e+01
1.030000e-06	-3.497431e-06	-1.111573e-09	-2.440501e+01	-7.504939e+01
1.040000e-06	-3.461364e-06	-1.101697e-09	-2.415334e+01	-7.469662e+01
1.050000e-06	-3.425042e-06	-1.094440e-09	-2.389989e+01	-7.434016e+01
1.060000e-06	-3.388479e-06	-1.085899e-09	-2.364475e+01	-7.397994e+01
1.070000e-06	-3.351663e-06	-1.074645e-09	-2.338785e+01	-7.361586e+01
1.080000e-06	-3.314497e-06	-1.069627e-09	-2.312850e+01	-7.324782e+01
1.090000e-06	-3.277047e-06	-1.067351e-09	-2.286718e+01	-7.287570e+01
1.100000e-06	-3.239358e-06	-1.060883e-09	-2.260419e+01	-7.249933e+01
1.110000e-06	-3.201499e-06	-1.052791e-09	-2.234001e+01	-7.211856e+01
1.120000e-06	-3.163482e-06	-1.048149e-09	-2.207472e+01	-7.173321e+01
1.130000e-06	-3.125169e-06	-1.038747e-09	-2.180738e+01	-7.134306e+01
1.140000e-06	-3.086574e-06	-1.028424e-09	-2.153806e+01	-7.094792e+01
1.150000e-06	-3.047889e-06	-1.021030e-09	-2.126812e+01	-7.054753e+01
1.160000e-06	-3.009017e-06	-1.014630e-09	-2.099687e+01	-7.014167e+01
1.170000e-06	-2.969852e-06	-1.006789e-09	-2.072358e+01	-6.973008e+01
1.180000e-06	-2.930470e-06	-9.998649e-10	-2.044877e+01	-6.931248e+01
1.190000e-06	-2.890884e-06	-9.939202e-10	-2.017254e+01	-6.888862e+01
1.200000e-06	-2.851174e-06	-9.875569e-10	-1.989544e+01	-6.845820e+01
1.210000e-06	-2.811361e-06	-9.793840e-10	-1.961763e+01	-6.802094e+01
1.220000e-06	-2.771423e-06	-9.726471e-10	-1.933894e+01	-6.757657e+01
1.230000e-06	-2.731421e-06	-9.651804e-10	-1.905981e+01	-6.712478e+01
1.240000e-06	-2.691336e-06	-9.595906e-10	-1.878010e+01	-6.666530e+01
1.250000e-06	-2.651104e-06	-9.523574e-10	-1.849936e+01	-6.619785e+01
1.260000e-06	-2.610668e-06	-9.443806e-10	-1.821720e+01	-6.572215e+01
1.270000e-06	-2.569947e-06	-9.383121e-10	-1.793305e+01	-6.523793e+01
1.280000e-06	-2.528942e-06	-9.308014e-10	-1.764692e+01	-6.474493e+01
1.290000e-06	-2.487745e-06	-9.202313e-10	-1.735945e+01	-6.424291e+01
1.300000e-06	-2.446194e-06	-9.110628e-10	-1.706950e+01	-6.373161e+01
1.310000e-06	-2.404283e-06	-9.006970e-10	-1.677704e+01	-6.321082e+01
1.320000e-06	-2.362124e-06	-8.908187e-10	-1.648286e+01	-6.268032e+01
1.330000e-06	-2.319577e-06	-8.861039e-10	-1.618597e+01	-6.213991e+01
1.340000e-06	-2.276722e-06	-8.836642e-10	-1.588693e+01	-6.158940e+01
1.350000e-06	-2.233600e-06	-8.763469e-10	-1.558602e+01	-6.102863e+01
1.360000e-06	-2.190300e-06	-8.665974e-10	-1.528388e+01	-6.045743e+01
1.370000e-06	-2.146914e-06	-8.553284e-10	-1.498113e+01	-5.987565e+01
1.380000e-06	-2.103362e-06	-8.432911e-10	-1.467722e+01	-5.928317e+01
1.390000e-06	-2.059713e-06	-8.312207e-10	-1.437264e+01	-5.867987e+01
1.400000e-06	-2.016000e-06	-8.229992e-10	-1.406761e+01	-5.806563e+01
1.410000e-06	-1.972187e-06	-8.153825e-10	-1.376189e+01	-5.744036e+01
1.420000e-06	-1.928284e-06	-8.067256e-10	-1.345553e+01	-5.680397e+01
1.430000e-06	-1.884342e-06	-7.988548e-10	-1.314890e+01	-5.615636e+01
1.440000e-06	-1.840341e-06	-7.880188e-10	-1.284187e+01	-5.549747e+01
1.450000e-06	-1.796216e-06	-7.760108e-10	-1.253397e+01	-5.482721e+01
1.460000e-06	-1.751959e-06	-7.646043e-10	-1.222514e+01	-5.414551e+01
1.470000e-06	-1.707635e-06	-7.523702e-10	-1.191585e+01	-5.345228e+01
1.480000e-06	-1.663228e-06	-7.374669e-10	-1.160598e+01	-5.274746e+01
1.490000e-06	-1.618631e-06	-7.231801e-10	-1.129478e+01	-5.203095e+01
1.500000e-06	-1.573918e-06	-7.128888e-10	-1.098277e+01	-5.130266e+01
1.510000e-06	-1.529090e-06	-7.049233e-10	-1.066996e+01	-5.056249e+01
1.520000e-06	-1.484165e-06	-6.939326e-10	-1.035648e+01	-4.981032e+01
1.530000e-06	-1.439166e-06	-6.807597e-10	-1.004248e+01	-4.904603e+01
1.540000e-06	-1.394015e-06	-6.649768e-10	-9.727410e+00	-4.826948e+01
1.550000e-06	-1.348730e-06	-6.493982e-10	-9.411418e+00	-4.748052e+01
1.560000e-06	-1.303340e-06	-6.337215e-10	-9.094687e+00	-4.667896e+01
1.570000e-06	-1.257845e-06	-6.174522e-10	-8.777218e+00	-4.586463e+01
1.580000e-06	-1.212349e-06	-6.047528e-10	-8.459752e+00	-4.503732e+01
1.590000e-06	-1.166732e-06	-5.900581e-10	-8.141439e+00	-4.419680e+01
1.600000e-06	-1.120975e-06	-5.771215e-10	-7.822146e+00	-4.334282e+01
1.610000e-06	-1.075255e-06	-5.687695e-10	-7.503111e+00	-4.247514e+01
1.620000e-06	-1.029496e-06	-5.589218e-10	-7.183809e+00	-4.159348e+01
1.630000e-06	-9.836607e-07	-5.450338e-10	-6.863968e+00	-4.069755e+01
1.640000e-06	-9.377206e-07	-5.257173e-10	-6.543399e+00	-3.978704e+01
1.650000e-06	-8.916841e-07	-5.060914e-10	-6.222157e+00	-3.886164e+01
1.660000e-06	-8.455547e-07	-4.855622e-10	-5.900267e+00	-3.792103e+01
1.670000e-06	-7.993800e-07	-4.706148e-10	-5.578060e+00	-3.696489e+01
1.680000e-06	-7.531911e-07	-4.596760e-10	-5.255755e+00	-3.599288e+01
1.690000e-06	-7.070018e-07	-4.498610e-10	-4.933447e+00	-3.500467e+01
1.700000e-06	-6.608055e-07	-4.373399e-10	-4.611090e+00	-3.399993e+01
1.710000e-06	-6.145860e-07	-4.195613e-10	-4.288571e+00	-3.297836e+01
1.720000e-06	-5.682921e-07	-3.966464e-10	-3.965533e+00	-3.193963e+01
1.730000e-06	-5.219401e-07	-3.731673e-10	-3.642089e+00	-3.088348e+01
1.740000e-06	-4.755484e-07	-3.543347e-10	-3.318369e+00	-2.980962e+01
1.750000e-06	-4.290976e-07	-3.395959e-10	-2.994236e+00	-2.871782e+01
1.760000e-06	-3.826078e-07	-3.277417e-10	-2.669831e+00	-2.760786e+01
1.770000e-06	-3.360968e-07	-3.155406e-10	-2.345278e+00	-2.647957e+01
1.780000e-06	-2.896078e-07	-3.021933e-10	-2.020878e+00	-2.533281e+01
1.790000e-06	-2.430331e-07	-2.870845e-10	-1.695881e+00	-2.416749e+01
1.800000e-06	-1.963905e-07	-2.662686e-10	-1.370409e+00	-2.298356e+01
1.810000e-06	-1.497193e-07	-2.414649e-10	-1.044739e+00	-2.178104e+01
1.820000e-06	-1.030044e-07	-2.170692e-10	-7.187628e-01	-2.055998e+01
1.830000e-06	-5.636140e-08	-1.968034e-10	-3.932889e-01	-1.932052e+01
1.840000e-06	-9.726276e-09	-1.815742e-10	-6.786979e-02	-1.806283e+01
1.850000e-06	3.689756e-08	-1.685135e-10	2.574705e-01	-1.678718e+01
1.860000e-06	8.355303e-08	-1.561342e-10	5.830316e-01	-1.549389e+01
1.870000e-06	1.302178e-07	-1.404796e-10	9.086577e-01	-1.418334e+01
1.880000e-06	1.768609e-07	-1.228724e-10	1.234132e+00	-1.285601e+01
1.890000e-06	2.235598e-07	-1.011725e-10	1.559996e+00	-1.151244e+01
1.900000e-06	2.701445e-07	-7.475128e-11	1.885064e+00	-1.015323e+01
1.910000e-06	3.166842e-07	-5.045844e-11	2.209817e+00	-8.779078e+00
1.920000e-06	3.632714e-07	-3.170409e-11	2.534902e+00	-7.390740e+00
1.930000e-06	4.097692e-07	-1.639413e-11	2.859363e+00	-5.989047e+00
1.940000e-06	4.561327e-07	-3.951558e-12	3.182887e+00	-4.574900e+00
1.950000e-06	5.024316e-07	1.015933e-11	3.505959e+00	-3.149267e+00
1.960000e-06	5.487563e-07	2.791520e-11	3.829212e+00	-1.713182e+00
1.970000e-06	5.950902e-07	5.065424e-11	4.152529e+00	-2.677383e-01
1.980000e-06	6.413499e-07	7.668603e-11	4.475329e+00	1.185914e+00
1.990000e-06	6.875801e-07	1.030402e-10	4.797922e+00	2.646573e+00
2.000000e-06	7.337358e-07	1.256298e-10	5.119996e+00	4.112988e+00
2.010000e-06	7.799276e-07	1.426419e-10	5.442322e+00	5.583869e+00
2.020000e-06	8.260867e-07	1.575308e-10	5.764419e+00	7.057888e+00
2.030000e-06	8.721479e-07	1.738106e-10	6.085834e+00	8.533691e+00
2.040000e-06	9.182148e-07	1.918539e-10	6.407288e+00	1.000990e+01
2.050000e-06	9.642023e-07	2.116762e-10	6.728188e+00	1.148512e+01
2.060000e-06	1.010081e-06	2.340644e-10	7.048332e+00	1.295794e+01
2.070000e-06	1.055843e-06	2.587761e-10	7.367653e+00	1.442697e+01
2.080000e-06	1.101572e-06	2.823142e-10	7.686749e+00	1.589081e+01
2.090000e-06	1.147198e-06	3.040431e-10	8.005130e+00	1.734806e+01
2.100000e-06	1.192711e-06	3.245015e-10	8.322720e+00	1.879737e+01
2.110000e-06	1.238158e-06	3.421700e-10	8.639848e+00	2.023740e+01
2.120000e-06	1.283576e-06	3.587896e-10	8.956770e+00	2.166683e+01
2.130000e-06	1.328933e-06	3.764346e-10	9.273276e+00	2.308442e+01
2.140000e-06	1.374097e-06	3.932121e-10	9.588423e+00	2.448894e+01
2.150000e-06	1.419142e-06	4.095513e-10	9.902748e+00	2.587923e+01
2.160000e-06	1.464138e-06	4.293647e-10	1.021673e+01	2.725419e+01
2.170000e-06	1.509026e-06	4.518852e-10	1.052996e+01	2.861279e+01
2.180000e-06	1.553729e-06	4.738421e-10	1.084189e+01	2.995404e+01
2.190000e-06	1.598291e-06	4.922648e-10	1.115285e+01	3.127706e+01
2.200000e-06	1.642804e-06	5.081454e-10	1.146346e+01	3.258102e+01
2.210000e-06	1.687221e-06	5.242754e-10	1.177340e+01	3.386518e+01
2.220000e-06	1.731517e-06	5.407584e-10	1.208249e+01	3.512890e+01
2.230000e-06	1.775750e-06	5.553832e-10	1.239116e+01	3.637158e+01
2.240000e-06	1.819883e-06	5.685770e-10	1.269911e+01	3.759275e+01
2.250000e-06	1.863847e-06	5.814742e-10	1.300589e+01	3.879200e+01
2.260000e-06	1.907717e-06	5.965639e-10	1.331202e+01	3.996901e+01
2.270000e-06	1.951513e-06	6.145162e-10	1.361762e+01	4.112355e+01
2.280000e-06	1.995226e-06	6.328653e-10	1.392265e+01	4.225545e+01
2.290000e-06	2.038941e-06	6.471889e-10	1.422769e+01	4.336467e+01
2.300000e-06	2.082656e-06	6.594055e-10	1.453274e+01	4.445119e+01
2.310000e-06	2.126280e-06	6.727463e-10	1.483715e+01	4.551510e+01
2.320000e-06	2.169718e-06	6.851858e-10	1.514026e+01	4.655655e+01
2.330000e-06	2.212959e-06	6.961475e-10	1.544199e+01	4.757577e+01
2.340000e-06	2.255943e-06	7.081521e-10	1.574193e+01	4.857302e+01
2.350000e-06	2.298658e-06	7.219906e-10	1.603999e+01	4.954865e+01
2.360000e-06	2.341155e-06	7.365305e-10	1.633654e+01	5.050304e+01
2.370000e-06	2.383403e-06	7.516069e-10	1.663135e+01	5.143663e+01
2.380000e-06	2.425447e-06	7.666456e-10	1.692473e+01	5.234988e+01
2.390000e-06	2.467245e-06	7.811435e-10	1.721640e+01	5.324332e+01
2.400000e-06	2.508707e-06	7.920513e-10	1.750571e+01	5.411746e+01
2.410000e-06	2.549763e-06	8.006599e-10	1.779221e+01	5.497286e+01
2.420000e-06	2.590408e-06	8.116864e-10	1.807583e+01	5.581010e+01
2.430000e-06	2.630890e-06	8.239470e-10	1.835830e+01	5.662976e+01
2.440000e-06	2.671259e-06	8.372471e-10	1.864000e+01	5.743241e+01
2.450000e-06	2.711399e-06	8.521875e-10	1.892010e+01	5.821863e+01
2.460000e-06	2.751393e-06	8.664856e-10	1.919917e+01	5.898900e+01
2.470000e-06	2.791280e-06	8.784335e-10	1.947750e+01	5.974407e+01
2.480000e-06	2.831064e-06	8.884316e-10	1.975512e+01	6.048438e+01
2.490000e-06	2.870764e-06	8.975562e-10	2.003214e+01	6.121047e+01
2.500000e-06	2.910288e-06	9.063625e-10	2.030794e+01	6.192280e+01
2.510000e-06	2.949651e-06	9.160067e-10	2.058262e+01	6.262185e+01
2.520000e-06	2.988818e-06	9.256279e-10	2.085592e+01	6.330805e+01
2.530000e-06	3.027770e-06	9.353865e-10	2.112773e+01	6.398179e+01
2.540000e-06	3.066535e-06	9.441967e-10	2.139823e+01	6.464343e+01
2.550000e-06	3.105055e-06	9.513852e-10	2.166703e+01	6.529329e+01
2.560000e-06	3.143299e-06	9.592063e-10	2.193389e+01	6.593165e+01
2.570000e-06	3.181313e-06	9.669038e-10	2.219915e+01	6.655875e+01
2.580000e-06	3.219180e-06	9.733629e-10	2.246339e+01	6.717478e+01
2.590000e-06	3.256842e-06	9.790586e-10	2.272619e+01	6.777991e+01
2.600000e-06	3.294200e-06	9.862348e-10	2.298687e+01	6.837428e+01
2.610000e-06	3.331315e-06	9.965323e-10	2.324586e+01	6.895795e+01
2.620000e-06	3.368302e-06	1.005761e-09	2.350395e+01	6.953100e+01
2.630000e-06	3.404981e-06	1.012800e-09	2.375990e+01	7.009344e+01
2.640000e-06	3.441370e-06	1.018257e-09	2.401382e+01	7.064526e+01
2.650000e-06	3.477617e-06	1.023361e-09	2.426676e+01	7.118645e+01
2.660000e-06	3.513689e-06	1.029365e-09	2.451846e+01	7.171695e+01
2.670000e-06	3.549588e-06	1.035595e-09	2.476897e+01	7.223668e+01
2.680000e-06	3.585335e-06	1.044042e-09	2.501841e+01	7.274558e+01
2.690000e-06	3.620985e-06	1.054436e-09	2.526717e+01	7.324353e+01
2.700000e-06	3.656489e-06	1.064537e-09	2.551492e+01	7.373046e+01
2.710000e-06	3.691654e-06	1.072465e-09	2.576030e+01	7.420624e+01
2.720000e-06	3.726440e-06	1.082017e-09	2.600304e+01	7.467079e+01
2.730000e-06	3.760952e-06	1.091758e-09	2.624386e+01	7.512401e+01
2.740000e-06	3.795074e-06	1.096420e-09	2.648196e+01	7.556583e+01
2.750000e-06	3.828621e-06	1.098541e-09	2.671606e+01	7.599616e+01
2.760000e-06	3.861664e-06	1.101402e-09	2.694663e+01	7.641496e+01
2.770000e-06	3.894365e-06	1.105741e-09	2.717482e+01	7.682220e+01
2.780000e-06	3.926792e-06	1.113098e-09	2.740109e+01	7.721787e+01
2.790000e-06	3.958956e-06	1.123423e-09	2.762553e+01	7.760198e+01
2.800000e-06	3.990925e-06	1.134023e-09	2.784861e+01	7.797459e+01
2.810000e-06	4.022732e-06	1.141837e-09	2.807056e+01	7.833576e+01
2.820000e-06	4.054283e-06	1.145155e-09	2.829072e+01	7.868560e+01
2.830000e-06	4.085658e-06	1.145755e-09	2.850965e+01	7.902426e+01
2.840000e-06	4.116808e-06	1.145483e-09	2.872702e+01	7.935189e+01
2.850000e-06	4.147610e-06	1.147906e-09	2.894196e+01	7.966870e+01
2.860000e-06	4.178111e-06	1.154360e-09	2.915479e+01	7.997494e+01
2.870000e-06	4.208301e-06	1.161701e-09	2.936546e+01	8.027085e+01
2.880000e-06	4.238275e-06	1.169691e-09	2.957461e+01	8.055675e+01
2.890000e-06	4.267996e-06	1.176499e-09	2.978200e+01	8.083296e+01
2.900000e-06	4.297342e-06	1.180790e-09	2.998678e+01	8.109982e+01
