# Temperatura_=_-0.2
# Concentracion g/m^3_=_1620.0
# C_Vs_to_Am_M_A/Vsm_=_65563218390.804596
# pendiente_HvsI_1/m_=_3716.3
# ordenada_HvsI_A/m_=_1297.0
# frecuencia_Hz_=_135107.96229700357

Tiempo_(s)	Campo_(V.s)	Magnetizacion_(V.s)	Campo_(kA/m)	Magnetizacion_(A/m)
0.000000e+00	-5.514590e-06	-1.048361e-09	-3.836490e+01	-7.001277e+01
1.000000e-08	-5.514832e-06	-1.046939e-09	-3.836659e+01	-7.001483e+01
2.000000e-08	-5.514779e-06	-1.046899e-09	-3.836622e+01	-7.001293e+01
3.000000e-08	-5.514340e-06	-1.046538e-09	-3.836317e+01	-7.000695e+01
4.000000e-08	-5.513480e-06	-1.047354e-09	-3.835719e+01	-6.999674e+01
5.000000e-08	-5.512100e-06	-1.050852e-09	-3.834759e+01	-6.998219e+01
6.000000e-08	-5.510146e-06	-1.051773e-09	-3.833399e+01	-6.996321e+01
7.000000e-08	-5.507620e-06	-1.028383e-09	-3.831642e+01	-6.993970e+01
8.000000e-08	-5.504507e-06	-9.996769e-10	-3.829476e+01	-6.991161e+01
9.000000e-08	-5.500902e-06	-1.040018e-09	-3.826968e+01	-6.987890e+01
1.000000e-07	-5.496870e-06	-1.110621e-09	-3.824163e+01	-6.984153e+01
1.100000e-07	-5.492461e-06	-1.074975e-09	-3.821095e+01	-6.979951e+01
1.200000e-07	-5.487818e-06	-9.552658e-10	-3.817865e+01	-6.975285e+01
1.300000e-07	-5.482986e-06	-9.691039e-10	-3.814503e+01	-6.970159e+01
1.400000e-07	-5.477868e-06	-1.078823e-09	-3.810943e+01	-6.964580e+01
1.500000e-07	-5.472318e-06	-1.072322e-09	-3.807082e+01	-6.958556e+01
1.600000e-07	-5.466352e-06	-9.765614e-10	-3.802931e+01	-6.952097e+01
1.700000e-07	-5.460006e-06	-9.720269e-10	-3.798517e+01	-6.945217e+01
1.800000e-07	-5.453244e-06	-1.094968e-09	-3.793813e+01	-6.937930e+01
1.900000e-07	-5.446104e-06	-1.085490e-09	-3.788845e+01	-6.930252e+01
2.000000e-07	-5.438630e-06	-9.858466e-10	-3.783646e+01	-6.922203e+01
2.100000e-07	-5.430933e-06	-9.534411e-10	-3.778291e+01	-6.913800e+01
2.200000e-07	-5.422961e-06	-1.046744e-09	-3.772744e+01	-6.905067e+01
2.300000e-07	-5.414622e-06	-1.092015e-09	-3.766943e+01	-6.896025e+01
2.400000e-07	-5.405887e-06	-1.062324e-09	-3.760866e+01	-6.886696e+01
2.500000e-07	-5.396628e-06	-1.039924e-09	-3.754425e+01	-6.877106e+01
2.600000e-07	-5.386653e-06	-1.075000e-09	-3.747485e+01	-6.867277e+01
2.700000e-07	-5.375985e-06	-1.083370e-09	-3.740063e+01	-6.857236e+01
2.800000e-07	-5.364919e-06	-1.042428e-09	-3.732365e+01	-6.847004e+01
2.900000e-07	-5.353394e-06	-1.038517e-09	-3.724347e+01	-6.836608e+01
3.000000e-07	-5.341441e-06	-1.071600e-09	-3.716031e+01	-6.826069e+01
3.100000e-07	-5.329199e-06	-1.083159e-09	-3.707515e+01	-6.815409e+01
3.200000e-07	-5.316508e-06	-1.046152e-09	-3.698685e+01	-6.804651e+01
3.300000e-07	-5.303332e-06	-1.046198e-09	-3.689519e+01	-6.793812e+01
3.400000e-07	-5.289831e-06	-1.071170e-09	-3.680126e+01	-6.782911e+01
3.500000e-07	-5.275988e-06	-1.065792e-09	-3.670496e+01	-6.771963e+01
3.600000e-07	-5.261722e-06	-1.014605e-09	-3.660571e+01	-6.760983e+01
3.700000e-07	-5.247096e-06	-1.037429e-09	-3.650396e+01	-6.749981e+01
3.800000e-07	-5.232037e-06	-1.077310e-09	-3.639919e+01	-6.738967e+01
3.900000e-07	-5.216266e-06	-1.045129e-09	-3.628947e+01	-6.727945e+01
4.000000e-07	-5.199881e-06	-1.010756e-09	-3.617548e+01	-6.716921e+01
4.100000e-07	-5.183265e-06	-1.079284e-09	-3.605988e+01	-6.705894e+01
4.200000e-07	-5.166352e-06	-1.069162e-09	-3.594222e+01	-6.694863e+01
4.300000e-07	-5.149007e-06	-9.846627e-10	-3.582155e+01	-6.683823e+01
4.400000e-07	-5.131356e-06	-1.010327e-09	-3.569876e+01	-6.672766e+01
4.500000e-07	-5.113384e-06	-1.085921e-09	-3.557372e+01	-6.661682e+01
4.600000e-07	-5.094926e-06	-1.013231e-09	-3.544531e+01	-6.650558e+01
4.700000e-07	-5.076028e-06	-9.743414e-10	-3.531384e+01	-6.639380e+01
4.800000e-07	-5.056837e-06	-1.063098e-09	-3.518033e+01	-6.628128e+01
4.900000e-07	-5.037404e-06	-1.057739e-09	-3.504513e+01	-6.616784e+01
5.000000e-07	-5.017720e-06	-9.756934e-10	-3.490819e+01	-6.605327e+01
5.100000e-07	-4.997772e-06	-1.020021e-09	-3.476941e+01	-6.593733e+01
5.200000e-07	-4.977605e-06	-1.049139e-09	-3.462911e+01	-6.581979e+01
5.300000e-07	-4.957105e-06	-9.695643e-10	-3.448649e+01	-6.570039e+01
5.400000e-07	-4.936153e-06	-9.896743e-10	-3.434073e+01	-6.557886e+01
5.500000e-07	-4.914865e-06	-1.064029e-09	-3.419263e+01	-6.545496e+01
5.600000e-07	-4.893210e-06	-1.003059e-09	-3.404198e+01	-6.532841e+01
5.700000e-07	-4.871182e-06	-9.562740e-10	-3.388873e+01	-6.519896e+01
5.800000e-07	-4.848955e-06	-1.021724e-09	-3.373410e+01	-6.506636e+01
5.900000e-07	-4.826459e-06	-1.006618e-09	-3.357759e+01	-6.493035e+01
6.000000e-07	-4.803511e-06	-9.478758e-10	-3.341794e+01	-6.479072e+01
6.100000e-07	-4.780202e-06	-9.880264e-10	-3.325578e+01	-6.464726e+01
6.200000e-07	-4.756660e-06	-1.011977e-09	-3.309200e+01	-6.449976e+01
6.300000e-07	-4.732886e-06	-9.573523e-10	-3.292660e+01	-6.434806e+01
6.400000e-07	-4.708873e-06	-9.669231e-10	-3.275955e+01	-6.419201e+01
6.500000e-07	-4.684574e-06	-9.915901e-10	-3.259050e+01	-6.403150e+01
6.600000e-07	-4.659967e-06	-9.587851e-10	-3.241931e+01	-6.386644e+01
6.700000e-07	-4.634967e-06	-9.478664e-10	-3.224538e+01	-6.369677e+01
6.800000e-07	-4.609431e-06	-9.748133e-10	-3.206773e+01	-6.352247e+01
6.900000e-07	-4.583222e-06	-9.571145e-10	-3.188540e+01	-6.334354e+01
7.000000e-07	-4.556434e-06	-9.439644e-10	-3.169903e+01	-6.316003e+01
7.100000e-07	-4.529297e-06	-9.585804e-10	-3.151024e+01	-6.297201e+01
7.200000e-07	-4.501874e-06	-9.523232e-10	-3.131946e+01	-6.277959e+01
7.300000e-07	-4.474187e-06	-9.357655e-10	-3.112684e+01	-6.258292e+01
7.400000e-07	-4.446360e-06	-9.464281e-10	-3.093325e+01	-6.238216e+01
7.500000e-07	-4.418406e-06	-9.432227e-10	-3.073877e+01	-6.217752e+01
7.600000e-07	-4.390146e-06	-9.326089e-10	-3.054217e+01	-6.196922e+01
7.700000e-07	-4.361524e-06	-9.383577e-10	-3.034305e+01	-6.175754e+01
7.800000e-07	-4.332523e-06	-9.375544e-10	-3.014128e+01	-6.154273e+01
7.900000e-07	-4.303196e-06	-9.230843e-10	-2.993726e+01	-6.132510e+01
8.000000e-07	-4.273610e-06	-9.281247e-10	-2.973143e+01	-6.110497e+01
8.100000e-07	-4.243787e-06	-9.315854e-10	-2.952395e+01	-6.088266e+01
8.200000e-07	-4.213700e-06	-9.169758e-10	-2.931463e+01	-6.065850e+01
8.300000e-07	-4.183290e-06	-9.146838e-10	-2.910308e+01	-6.043284e+01
8.400000e-07	-4.152589e-06	-9.215798e-10	-2.888949e+01	-6.020600e+01
8.500000e-07	-4.121559e-06	-9.124054e-10	-2.867361e+01	-5.997833e+01
8.600000e-07	-4.090269e-06	-9.006747e-10	-2.845593e+01	-5.975016e+01
8.700000e-07	-4.058855e-06	-9.052869e-10	-2.823738e+01	-5.952179e+01
8.800000e-07	-4.027253e-06	-9.019174e-10	-2.801753e+01	-5.929352e+01
8.900000e-07	-3.995403e-06	-8.910978e-10	-2.779595e+01	-5.906562e+01
9.000000e-07	-3.963342e-06	-8.937095e-10	-2.757290e+01	-5.883835e+01
9.100000e-07	-3.930975e-06	-8.943255e-10	-2.734773e+01	-5.861192e+01
9.200000e-07	-3.898348e-06	-8.793848e-10	-2.712074e+01	-5.838652e+01
9.300000e-07	-3.865427e-06	-8.777444e-10	-2.689171e+01	-5.816230e+01
9.400000e-07	-3.832008e-06	-8.818466e-10	-2.665921e+01	-5.793937e+01
9.500000e-07	-3.798087e-06	-8.730941e-10	-2.642323e+01	-5.771780e+01
9.600000e-07	-3.763741e-06	-8.630907e-10	-2.618428e+01	-5.749762e+01
9.700000e-07	-3.729093e-06	-8.696703e-10	-2.594324e+01	-5.727881e+01
9.800000e-07	-3.694066e-06	-8.689938e-10	-2.569955e+01	-5.706131e+01
9.900000e-07	-3.658687e-06	-8.615973e-10	-2.545342e+01	-5.684499e+01
1.000000e-06	-3.623089e-06	-8.615817e-10	-2.520577e+01	-5.662972e+01
1.010000e-06	-3.587292e-06	-8.607958e-10	-2.495673e+01	-5.641527e+01
1.020000e-06	-3.551334e-06	-8.487545e-10	-2.470657e+01	-5.620140e+01
1.030000e-06	-3.515209e-06	-8.433679e-10	-2.445525e+01	-5.598781e+01
1.040000e-06	-3.478884e-06	-8.445396e-10	-2.420253e+01	-5.577416e+01
1.050000e-06	-3.442388e-06	-8.388882e-10	-2.394863e+01	-5.556007e+01
1.060000e-06	-3.405784e-06	-8.298863e-10	-2.369398e+01	-5.534512e+01
1.070000e-06	-3.368901e-06	-8.289395e-10	-2.343739e+01	-5.512887e+01
1.080000e-06	-3.331613e-06	-8.261486e-10	-2.317797e+01	-5.491084e+01
1.090000e-06	-3.294044e-06	-8.210964e-10	-2.291660e+01	-5.469050e+01
1.100000e-06	-3.256282e-06	-8.193098e-10	-2.265390e+01	-5.446734e+01
1.110000e-06	-3.218344e-06	-8.155477e-10	-2.238996e+01	-5.424080e+01
1.120000e-06	-3.180172e-06	-8.064989e-10	-2.212440e+01	-5.401033e+01
1.130000e-06	-3.141821e-06	-8.006380e-10	-2.185759e+01	-5.377535e+01
1.140000e-06	-3.103280e-06	-7.985840e-10	-2.158946e+01	-5.353530e+01
1.150000e-06	-3.064489e-06	-7.914184e-10	-2.131959e+01	-5.328960e+01
1.160000e-06	-3.025506e-06	-7.835980e-10	-2.104839e+01	-5.303769e+01
1.170000e-06	-2.986339e-06	-7.794405e-10	-2.077591e+01	-5.277902e+01
1.180000e-06	-2.946926e-06	-7.765864e-10	-2.050171e+01	-5.251307e+01
1.190000e-06	-2.907291e-06	-7.735353e-10	-2.022597e+01	-5.223933e+01
1.200000e-06	-2.867600e-06	-7.731793e-10	-1.994984e+01	-5.195730e+01
1.210000e-06	-2.827835e-06	-7.701105e-10	-1.967320e+01	-5.166655e+01
1.220000e-06	-2.787896e-06	-7.640987e-10	-1.939535e+01	-5.136665e+01
1.230000e-06	-2.747788e-06	-7.569456e-10	-1.911631e+01	-5.105724e+01
1.240000e-06	-2.707503e-06	-7.506180e-10	-1.883605e+01	-5.073796e+01
1.250000e-06	-2.666997e-06	-7.420629e-10	-1.855425e+01	-5.040854e+01
1.260000e-06	-2.626306e-06	-7.354922e-10	-1.827117e+01	-5.006873e+01
1.270000e-06	-2.585403e-06	-7.327113e-10	-1.798661e+01	-4.971833e+01
1.280000e-06	-2.544236e-06	-7.311918e-10	-1.770021e+01	-4.935719e+01
1.290000e-06	-2.502865e-06	-7.252273e-10	-1.741239e+01	-4.898521e+01
1.300000e-06	-2.461220e-06	-7.177325e-10	-1.712267e+01	-4.860234e+01
1.310000e-06	-2.419227e-06	-7.096277e-10	-1.683052e+01	-4.820857e+01
1.320000e-06	-2.376945e-06	-7.005855e-10	-1.653636e+01	-4.780395e+01
1.330000e-06	-2.334343e-06	-6.919026e-10	-1.623998e+01	-4.738856e+01
1.340000e-06	-2.291416e-06	-6.863113e-10	-1.594134e+01	-4.696253e+01
1.350000e-06	-2.248289e-06	-6.803401e-10	-1.564131e+01	-4.652603e+01
1.360000e-06	-2.204985e-06	-6.726553e-10	-1.534004e+01	-4.607925e+01
1.370000e-06	-2.161471e-06	-6.660908e-10	-1.503732e+01	-4.562242e+01
1.380000e-06	-2.117842e-06	-6.598182e-10	-1.473379e+01	-4.515581e+01
1.390000e-06	-2.074125e-06	-6.524981e-10	-1.442965e+01	-4.467969e+01
1.400000e-06	-2.030308e-06	-6.452767e-10	-1.412482e+01	-4.419436e+01
1.410000e-06	-1.986451e-06	-6.390455e-10	-1.381970e+01	-4.370011e+01
1.420000e-06	-1.942531e-06	-6.325900e-10	-1.351416e+01	-4.319727e+01
1.430000e-06	-1.898510e-06	-6.264361e-10	-1.320790e+01	-4.268612e+01
1.440000e-06	-1.854463e-06	-6.210776e-10	-1.290147e+01	-4.216698e+01
1.450000e-06	-1.810347e-06	-6.136579e-10	-1.259455e+01	-4.164014e+01
1.460000e-06	-1.766097e-06	-6.024076e-10	-1.228671e+01	-4.110586e+01
1.470000e-06	-1.721719e-06	-5.914984e-10	-1.197797e+01	-4.056438e+01
1.480000e-06	-1.677149e-06	-5.815121e-10	-1.166790e+01	-4.001593e+01
1.490000e-06	-1.632457e-06	-5.726401e-10	-1.135697e+01	-3.946068e+01
1.500000e-06	-1.587581e-06	-5.663905e-10	-1.104477e+01	-3.889877e+01
1.510000e-06	-1.542536e-06	-5.621899e-10	-1.073140e+01	-3.833031e+01
1.520000e-06	-1.497450e-06	-5.552451e-10	-1.041773e+01	-3.775533e+01
1.530000e-06	-1.452267e-06	-5.460068e-10	-1.010340e+01	-3.717385e+01
1.540000e-06	-1.406999e-06	-5.361599e-10	-9.788468e+00	-3.658579e+01
1.550000e-06	-1.361698e-06	-5.253406e-10	-9.473306e+00	-3.599106e+01
1.560000e-06	-1.316250e-06	-5.148464e-10	-9.157129e+00	-3.538948e+01
1.570000e-06	-1.270593e-06	-5.060379e-10	-8.839491e+00	-3.478083e+01
1.580000e-06	-1.224871e-06	-4.979153e-10	-8.521407e+00	-3.416483e+01
1.590000e-06	-1.179150e-06	-4.887532e-10	-8.203329e+00	-3.354113e+01
1.600000e-06	-1.133394e-06	-4.775268e-10	-7.885004e+00	-3.290933e+01
1.610000e-06	-1.087504e-06	-4.667821e-10	-7.565743e+00	-3.226899e+01
1.620000e-06	-1.041433e-06	-4.560649e-10	-7.245233e+00	-3.161961e+01
1.630000e-06	-9.952814e-07	-4.465518e-10	-6.924155e+00	-3.096063e+01
1.640000e-06	-9.490994e-07	-4.351356e-10	-6.602868e+00	-3.029147e+01
1.650000e-06	-9.028807e-07	-4.205541e-10	-6.281325e+00	-2.961150e+01
1.660000e-06	-8.566068e-07	-4.067102e-10	-5.959398e+00	-2.892006e+01
1.670000e-06	-8.102751e-07	-3.944178e-10	-5.637070e+00	-2.821646e+01
1.680000e-06	-7.638990e-07	-3.835882e-10	-5.314432e+00	-2.749999e+01
1.690000e-06	-7.174613e-07	-3.743092e-10	-4.991366e+00	-2.676995e+01
1.700000e-06	-6.709911e-07	-3.670232e-10	-4.668073e+00	-2.602560e+01
1.710000e-06	-6.245152e-07	-3.582873e-10	-4.344741e+00	-2.526622e+01
1.720000e-06	-5.780568e-07	-3.452354e-10	-4.021531e+00	-2.449112e+01
1.730000e-06	-5.316163e-07	-3.301087e-10	-3.698445e+00	-2.369960e+01
1.740000e-06	-4.851290e-07	-3.143870e-10	-3.375034e+00	-2.289100e+01
1.750000e-06	-4.385322e-07	-2.988159e-10	-3.050861e+00	-2.206469e+01
1.760000e-06	-3.918472e-07	-2.843557e-10	-2.726074e+00	-2.122010e+01
1.770000e-06	-3.450829e-07	-2.711361e-10	-2.400736e+00	-2.035669e+01
1.780000e-06	-2.982718e-07	-2.607341e-10	-2.075072e+00	-1.947400e+01
1.790000e-06	-2.515100e-07	-2.494351e-10	-1.749751e+00	-1.857163e+01
1.800000e-06	-2.047697e-07	-2.338421e-10	-1.424579e+00	-1.764924e+01
1.810000e-06	-1.580404e-07	-2.157559e-10	-1.099484e+00	-1.670659e+01
1.820000e-06	-1.112083e-07	-1.973536e-10	-7.736745e-01	-1.574352e+01
1.830000e-06	-6.430654e-08	-1.803043e-10	-4.473795e-01	-1.475996e+01
1.840000e-06	-1.749453e-08	-1.661242e-10	-1.217091e-01	-1.375594e+01
1.850000e-06	2.929419e-08	-1.535629e-10	2.037992e-01	-1.273159e+01
1.860000e-06	7.607529e-08	-1.431726e-10	5.292544e-01	-1.168714e+01
1.870000e-06	1.228279e-07	-1.308424e-10	8.545117e-01	-1.062292e+01
1.880000e-06	1.696452e-07	-1.143707e-10	1.180219e+00	-9.539380e+00
1.890000e-06	2.164377e-07	-9.611281e-11	1.505753e+00	-8.437069e+00
1.900000e-06	2.631254e-07	-7.780288e-11	1.830559e+00	-7.316646e+00
1.910000e-06	3.097912e-07	-6.143668e-11	2.155212e+00	-6.178873e+00
1.920000e-06	3.564401e-07	-4.694967e-11	2.479748e+00	-5.024617e+00
1.930000e-06	4.030553e-07	-3.421476e-11	2.804048e+00	-3.854845e+00
1.940000e-06	4.496820e-07	-2.124898e-11	3.128430e+00	-2.670618e+00
1.950000e-06	4.962012e-07	-7.503349e-12	3.452063e+00	-1.473090e+00
1.960000e-06	5.426312e-07	7.925883e-12	3.775076e+00	-2.635012e-01
1.970000e-06	5.890993e-07	2.597417e-11	4.098353e+00	9.568305e-01
1.980000e-06	6.355054e-07	4.556059e-11	4.421200e+00	2.186515e+00
1.990000e-06	6.818157e-07	6.463520e-11	4.743380e+00	3.424097e+00
2.000000e-06	7.280926e-07	8.296058e-11	5.065328e+00	4.668066e+00
2.010000e-06	7.743687e-07	9.851450e-11	5.387269e+00	5.916864e+00
2.020000e-06	8.205676e-07	1.119565e-10	5.708674e+00	7.168895e+00
2.030000e-06	8.667178e-07	1.263749e-10	6.029741e+00	8.422537e+00
2.040000e-06	9.127917e-07	1.425288e-10	6.350276e+00	9.676145e+00
2.050000e-06	9.588064e-07	1.599870e-10	6.670400e+00	1.092807e+01
2.060000e-06	1.004801e-06	1.782352e-10	6.990382e+00	1.217666e+01
2.070000e-06	1.050699e-06	1.968584e-10	7.309694e+00	1.342028e+01
2.080000e-06	1.096450e-06	2.164765e-10	7.627985e+00	1.465732e+01
2.090000e-06	1.142127e-06	2.346970e-10	7.945759e+00	1.588618e+01
2.100000e-06	1.187776e-06	2.503557e-10	8.263335e+00	1.710533e+01
2.110000e-06	1.233331e-06	2.658468e-10	8.580260e+00	1.831327e+01
2.120000e-06	1.278780e-06	2.816395e-10	8.896449e+00	1.950857e+01
2.130000e-06	1.324145e-06	2.981659e-10	9.212051e+00	2.068986e+01
2.140000e-06	1.369451e-06	3.140079e-10	9.527244e+00	2.185585e+01
2.150000e-06	1.414692e-06	3.290433e-10	9.841987e+00	2.300532e+01
2.160000e-06	1.459851e-06	3.447370e-10	1.015616e+01	2.413717e+01
2.170000e-06	1.504909e-06	3.614914e-10	1.046963e+01	2.525034e+01
2.180000e-06	1.549904e-06	3.776982e-10	1.078265e+01	2.634392e+01
2.190000e-06	1.594807e-06	3.925564e-10	1.109505e+01	2.741708e+01
2.200000e-06	1.639536e-06	4.084304e-10	1.140623e+01	2.846908e+01
2.210000e-06	1.684106e-06	4.233964e-10	1.171630e+01	2.949933e+01
2.220000e-06	1.728486e-06	4.366524e-10	1.202505e+01	3.050729e+01
2.230000e-06	1.772711e-06	4.508739e-10	1.233272e+01	3.149259e+01
2.240000e-06	1.816888e-06	4.625856e-10	1.264006e+01	3.245492e+01
2.250000e-06	1.860970e-06	4.732968e-10	1.294673e+01	3.339410e+01
2.260000e-06	1.904935e-06	4.835501e-10	1.325260e+01	3.431006e+01
2.270000e-06	1.948818e-06	4.948761e-10	1.355789e+01	3.520281e+01
2.280000e-06	1.992613e-06	5.069621e-10	1.386257e+01	3.607248e+01
2.290000e-06	2.036348e-06	5.214111e-10	1.416684e+01	3.691929e+01
2.300000e-06	2.080052e-06	5.350785e-10	1.447089e+01	3.774352e+01
2.310000e-06	2.123729e-06	5.456628e-10	1.477475e+01	3.854558e+01
2.320000e-06	2.167355e-06	5.557511e-10	1.507825e+01	3.932593e+01
2.330000e-06	2.210867e-06	5.632360e-10	1.538097e+01	4.008508e+01
2.340000e-06	2.254230e-06	5.700922e-10	1.568264e+01	4.082365e+01
2.350000e-06	2.297424e-06	5.797096e-10	1.598314e+01	4.154227e+01
2.360000e-06	2.340407e-06	5.911378e-10	1.628217e+01	4.224164e+01
2.370000e-06	2.383048e-06	6.036056e-10	1.657883e+01	4.292250e+01
2.380000e-06	2.425379e-06	6.160596e-10	1.687332e+01	4.358561e+01
2.390000e-06	2.467344e-06	6.261216e-10	1.716527e+01	4.423175e+01
2.400000e-06	2.508935e-06	6.346498e-10	1.745462e+01	4.486175e+01
2.410000e-06	2.550278e-06	6.427079e-10	1.774224e+01	4.547639e+01
2.420000e-06	2.591342e-06	6.518280e-10	1.802792e+01	4.607650e+01
2.430000e-06	2.632126e-06	6.600276e-10	1.831166e+01	4.666288e+01
2.440000e-06	2.672644e-06	6.709853e-10	1.859354e+01	4.723630e+01
2.450000e-06	2.712953e-06	6.851325e-10	1.887397e+01	4.779755e+01
2.460000e-06	2.753075e-06	6.975502e-10	1.915309e+01	4.834734e+01
2.470000e-06	2.793021e-06	7.056297e-10	1.943100e+01	4.888639e+01
2.480000e-06	2.832855e-06	7.110571e-10	1.970812e+01	4.941537e+01
2.490000e-06	2.872616e-06	7.152799e-10	1.998474e+01	4.993488e+01
2.500000e-06	2.912256e-06	7.216218e-10	2.026051e+01	5.044552e+01
2.510000e-06	2.951728e-06	7.300380e-10	2.053512e+01	5.094780e+01
2.520000e-06	2.990995e-06	7.390216e-10	2.080830e+01	5.144219e+01
2.530000e-06	3.030093e-06	7.480549e-10	2.108031e+01	5.192911e+01
2.540000e-06	3.069077e-06	7.556835e-10	2.135151e+01	5.240892e+01
2.550000e-06	3.107834e-06	7.616272e-10	2.162115e+01	5.288193e+01
2.560000e-06	3.146276e-06	7.682577e-10	2.188859e+01	5.334838e+01
2.570000e-06	3.184439e-06	7.756878e-10	2.215409e+01	5.380846e+01
2.580000e-06	3.222376e-06	7.834703e-10	2.241801e+01	5.426230e+01
2.590000e-06	3.260116e-06	7.898609e-10	2.268057e+01	5.471000e+01
2.600000e-06	3.297630e-06	7.963850e-10	2.294155e+01	5.515158e+01
2.610000e-06	3.334965e-06	8.036393e-10	2.320129e+01	5.558703e+01
2.620000e-06	3.372079e-06	8.093348e-10	2.345950e+01	5.601628e+01
2.630000e-06	3.408922e-06	8.142756e-10	2.371581e+01	5.643925e+01
2.640000e-06	3.445474e-06	8.181115e-10	2.397010e+01	5.685578e+01
2.650000e-06	3.481803e-06	8.237769e-10	2.422284e+01	5.726571e+01
2.660000e-06	3.517994e-06	8.285542e-10	2.447462e+01	5.766885e+01
2.670000e-06	3.553965e-06	8.333875e-10	2.472487e+01	5.806497e+01
2.680000e-06	3.589780e-06	8.388028e-10	2.497403e+01	5.845384e+01
2.690000e-06	3.625494e-06	8.446672e-10	2.522250e+01	5.883519e+01
2.700000e-06	3.660993e-06	8.505623e-10	2.546947e+01	5.920879e+01
2.710000e-06	3.696257e-06	8.566913e-10	2.571479e+01	5.957435e+01
2.720000e-06	3.731331e-06	8.629567e-10	2.595880e+01	5.993162e+01
2.730000e-06	3.766165e-06	8.695300e-10	2.620114e+01	6.028034e+01
2.740000e-06	3.800619e-06	8.733790e-10	2.644084e+01	6.062028e+01
2.750000e-06	3.834503e-06	8.759258e-10	2.667657e+01	6.095118e+01
2.760000e-06	3.867826e-06	8.802300e-10	2.690840e+01	6.127285e+01
2.770000e-06	3.900634e-06	8.847025e-10	2.713664e+01	6.158509e+01
2.780000e-06	3.933084e-06	8.910073e-10	2.736240e+01	6.188774e+01
2.790000e-06	3.965305e-06	8.981153e-10	2.758656e+01	6.218066e+01
2.800000e-06	3.997290e-06	9.032434e-10	2.780908e+01	6.246373e+01
2.810000e-06	4.029134e-06	9.067253e-10	2.803061e+01	6.273689e+01
2.820000e-06	4.060852e-06	9.092365e-10	2.825128e+01	6.300009e+01
2.830000e-06	4.092372e-06	9.113773e-10	2.847056e+01	6.325332e+01
2.840000e-06	4.123607e-06	9.130343e-10	2.868786e+01	6.349661e+01
2.850000e-06	4.154539e-06	9.168774e-10	2.890305e+01	6.373002e+01
2.860000e-06	4.185136e-06	9.239427e-10	2.911592e+01	6.395365e+01
2.870000e-06	4.215438e-06	9.297215e-10	2.932673e+01	6.416764e+01
2.880000e-06	4.245478e-06	9.338657e-10	2.953572e+01	6.437213e+01
2.890000e-06	4.275263e-06	9.368792e-10	2.974293e+01	6.456735e+01
2.900000e-06	4.304822e-06	9.387889e-10	2.994857e+01	6.475350e+01
