# Temperatura_=_-0.3
# Concentracion g/m^3_=_1620.0
# C_Vs_to_Am_M_A/Vsm_=_65563218390.804596
# pendiente_HvsI_1/m_=_3716.3
# ordenada_HvsI_A/m_=_1297.0
# frecuencia_Hz_=_135092.45840657

Tiempo_(s)	Campo_(V.s)	Magnetizacion_(V.s)	Campo_(kA/m)	Magnetizacion_(A/m)
0.000000e+00	-5.519947e-06	-1.422204e-09	-3.837446e+01	-9.230882e+01
1.000000e-08	-5.520108e-06	-1.420020e-09	-3.837558e+01	-9.233923e+01
2.000000e-08	-5.519977e-06	-1.416259e-09	-3.837467e+01	-9.236656e+01
3.000000e-08	-5.519567e-06	-1.411246e-09	-3.837182e+01	-9.239071e+01
4.000000e-08	-5.518754e-06	-1.407372e-09	-3.836617e+01	-9.241156e+01
5.000000e-08	-5.517348e-06	-1.406667e-09	-3.835640e+01	-9.242899e+01
6.000000e-08	-5.515206e-06	-1.410017e-09	-3.834150e+01	-9.244288e+01
7.000000e-08	-5.512408e-06	-1.406869e-09	-3.832205e+01	-9.245311e+01
8.000000e-08	-5.509085e-06	-1.398830e-09	-3.829895e+01	-9.245958e+01
9.000000e-08	-5.505305e-06	-1.407136e-09	-3.827267e+01	-9.246216e+01
1.000000e-07	-5.501194e-06	-1.456453e-09	-3.824409e+01	-9.246075e+01
1.100000e-07	-5.496790e-06	-1.405924e-09	-3.821348e+01	-9.245524e+01
1.200000e-07	-5.492169e-06	-1.374128e-09	-3.818135e+01	-9.244553e+01
1.300000e-07	-5.487348e-06	-1.360468e-09	-3.814783e+01	-9.243154e+01
1.400000e-07	-5.482068e-06	-1.417418e-09	-3.811113e+01	-9.241318e+01
1.500000e-07	-5.476339e-06	-1.409345e-09	-3.807130e+01	-9.239038e+01
1.600000e-07	-5.470323e-06	-1.370953e-09	-3.802948e+01	-9.236308e+01
1.700000e-07	-5.463894e-06	-1.378185e-09	-3.798478e+01	-9.233122e+01
1.800000e-07	-5.456997e-06	-1.426975e-09	-3.793683e+01	-9.229477e+01
1.900000e-07	-5.449696e-06	-1.409691e-09	-3.788608e+01	-9.225371e+01
2.000000e-07	-5.442126e-06	-1.362268e-09	-3.783345e+01	-9.220801e+01
2.100000e-07	-5.434366e-06	-1.376250e-09	-3.777951e+01	-9.215769e+01
2.200000e-07	-5.426384e-06	-1.434832e-09	-3.772402e+01	-9.210274e+01
2.300000e-07	-5.418082e-06	-1.451774e-09	-3.766630e+01	-9.204321e+01
2.400000e-07	-5.409354e-06	-1.410083e-09	-3.760562e+01	-9.197912e+01
2.500000e-07	-5.400100e-06	-1.426196e-09	-3.754129e+01	-9.191053e+01
2.600000e-07	-5.390176e-06	-1.439877e-09	-3.747230e+01	-9.183750e+01
2.700000e-07	-5.379620e-06	-1.441005e-09	-3.739892e+01	-9.176012e+01
2.800000e-07	-5.368517e-06	-1.410149e-09	-3.732173e+01	-9.167845e+01
2.900000e-07	-5.356945e-06	-1.423136e-09	-3.724128e+01	-9.159260e+01
3.000000e-07	-5.344948e-06	-1.418936e-09	-3.715788e+01	-9.150268e+01
3.100000e-07	-5.332587e-06	-1.428693e-09	-3.707194e+01	-9.140878e+01
3.200000e-07	-5.319825e-06	-1.404930e-09	-3.698322e+01	-9.131103e+01
3.300000e-07	-5.306583e-06	-1.414403e-09	-3.689117e+01	-9.120953e+01
3.400000e-07	-5.292986e-06	-1.402139e-09	-3.679664e+01	-9.110443e+01
3.500000e-07	-5.279083e-06	-1.414209e-09	-3.669998e+01	-9.099582e+01
3.600000e-07	-5.264808e-06	-1.388025e-09	-3.660075e+01	-9.088384e+01
3.700000e-07	-5.249998e-06	-1.409675e-09	-3.649778e+01	-9.076861e+01
3.800000e-07	-5.234688e-06	-1.420518e-09	-3.639136e+01	-9.065023e+01
3.900000e-07	-5.218751e-06	-1.402504e-09	-3.628056e+01	-9.052882e+01
4.000000e-07	-5.202166e-06	-1.376866e-09	-3.616526e+01	-9.040447e+01
4.100000e-07	-5.185305e-06	-1.415669e-09	-3.604805e+01	-9.027728e+01
4.200000e-07	-5.168143e-06	-1.418338e-09	-3.592873e+01	-9.014732e+01
4.300000e-07	-5.150678e-06	-1.366254e-09	-3.580732e+01	-9.001467e+01
4.400000e-07	-5.132918e-06	-1.382167e-09	-3.568385e+01	-8.987938e+01
4.500000e-07	-5.114856e-06	-1.419398e-09	-3.555828e+01	-8.974150e+01
4.600000e-07	-5.096384e-06	-1.373805e-09	-3.542987e+01	-8.960105e+01
4.700000e-07	-5.077448e-06	-1.343561e-09	-3.529823e+01	-8.945804e+01
4.800000e-07	-5.058136e-06	-1.405732e-09	-3.516397e+01	-8.931248e+01
4.900000e-07	-5.038480e-06	-1.393394e-09	-3.502732e+01	-8.916434e+01
5.000000e-07	-5.018692e-06	-1.343708e-09	-3.488976e+01	-8.901360e+01
5.100000e-07	-4.998755e-06	-1.369761e-09	-3.475116e+01	-8.886019e+01
5.200000e-07	-4.978527e-06	-1.392485e-09	-3.461053e+01	-8.870405e+01
5.300000e-07	-4.957895e-06	-1.326313e-09	-3.446710e+01	-8.854511e+01
5.400000e-07	-4.936850e-06	-1.338496e-09	-3.432079e+01	-8.838327e+01
5.500000e-07	-4.915468e-06	-1.376952e-09	-3.417215e+01	-8.821842e+01
5.600000e-07	-4.893773e-06	-1.341670e-09	-3.402132e+01	-8.805045e+01
5.700000e-07	-4.871746e-06	-1.318002e-09	-3.386819e+01	-8.787922e+01
5.800000e-07	-4.849349e-06	-1.373552e-09	-3.371249e+01	-8.770460e+01
5.900000e-07	-4.826607e-06	-1.350109e-09	-3.355439e+01	-8.752644e+01
6.000000e-07	-4.803565e-06	-1.306702e-09	-3.339420e+01	-8.734460e+01
6.100000e-07	-4.780273e-06	-1.329734e-09	-3.323228e+01	-8.715891e+01
6.200000e-07	-4.756729e-06	-1.334833e-09	-3.306860e+01	-8.696923e+01
6.300000e-07	-4.732931e-06	-1.283716e-09	-3.290315e+01	-8.677540e+01
6.400000e-07	-4.708905e-06	-1.299724e-09	-3.273613e+01	-8.657728e+01
6.500000e-07	-4.684547e-06	-1.320098e-09	-3.256680e+01	-8.637471e+01
6.600000e-07	-4.659755e-06	-1.293213e-09	-3.239444e+01	-8.616755e+01
6.700000e-07	-4.634501e-06	-1.288790e-09	-3.221888e+01	-8.595568e+01
6.800000e-07	-4.608733e-06	-1.311803e-09	-3.203973e+01	-8.573897e+01
6.900000e-07	-4.582367e-06	-1.287143e-09	-3.185644e+01	-8.551732e+01
7.000000e-07	-4.555464e-06	-1.268530e-09	-3.166941e+01	-8.529064e+01
7.100000e-07	-4.528149e-06	-1.279614e-09	-3.147952e+01	-8.505885e+01
7.200000e-07	-4.500528e-06	-1.271975e-09	-3.128750e+01	-8.482188e+01
7.300000e-07	-4.472746e-06	-1.258678e-09	-3.109436e+01	-8.457970e+01
7.400000e-07	-4.444813e-06	-1.268485e-09	-3.090017e+01	-8.433229e+01
7.500000e-07	-4.416684e-06	-1.267473e-09	-3.070462e+01	-8.407963e+01
7.600000e-07	-4.388365e-06	-1.249268e-09	-3.050775e+01	-8.382176e+01
7.700000e-07	-4.359753e-06	-1.252232e-09	-3.030883e+01	-8.355869e+01
7.800000e-07	-4.330714e-06	-1.250706e-09	-3.010696e+01	-8.329051e+01
7.900000e-07	-4.301310e-06	-1.235634e-09	-2.990254e+01	-8.301727e+01
8.000000e-07	-4.271656e-06	-1.230883e-09	-2.969639e+01	-8.273908e+01
8.100000e-07	-4.241719e-06	-1.237860e-09	-2.948827e+01	-8.245605e+01
8.200000e-07	-4.211530e-06	-1.224621e-09	-2.927839e+01	-8.216831e+01
8.300000e-07	-4.181128e-06	-1.218325e-09	-2.906704e+01	-8.187602e+01
8.400000e-07	-4.150324e-06	-1.218399e-09	-2.885289e+01	-8.157933e+01
8.500000e-07	-4.119135e-06	-1.213430e-09	-2.863607e+01	-8.127843e+01
8.600000e-07	-4.087654e-06	-1.200818e-09	-2.841722e+01	-8.097348e+01
8.700000e-07	-4.056043e-06	-1.203731e-09	-2.819746e+01	-8.066469e+01
8.800000e-07	-4.024362e-06	-1.198552e-09	-2.797722e+01	-8.035226e+01
8.900000e-07	-3.992482e-06	-1.188254e-09	-2.775559e+01	-8.003638e+01
9.000000e-07	-3.960432e-06	-1.181128e-09	-2.753277e+01	-7.971726e+01
9.100000e-07	-3.928111e-06	-1.180301e-09	-2.730808e+01	-7.939509e+01
9.200000e-07	-3.895348e-06	-1.167916e-09	-2.708031e+01	-7.907006e+01
9.300000e-07	-3.862176e-06	-1.164184e-09	-2.684970e+01	-7.874237e+01
9.400000e-07	-3.828498e-06	-1.164231e-09	-2.661557e+01	-7.841218e+01
9.500000e-07	-3.794379e-06	-1.156641e-09	-2.637838e+01	-7.807965e+01
9.600000e-07	-3.759899e-06	-1.146024e-09	-2.613867e+01	-7.774494e+01
9.700000e-07	-3.725038e-06	-1.147767e-09	-2.589632e+01	-7.740816e+01
9.800000e-07	-3.689846e-06	-1.146098e-09	-2.565167e+01	-7.706942e+01
9.900000e-07	-3.654369e-06	-1.137555e-09	-2.540503e+01	-7.672880e+01
1.000000e-06	-3.618738e-06	-1.133562e-09	-2.515733e+01	-7.638635e+01
1.010000e-06	-3.582972e-06	-1.130602e-09	-2.490869e+01	-7.604211e+01
1.020000e-06	-3.547058e-06	-1.121830e-09	-2.465902e+01	-7.569607e+01
1.030000e-06	-3.510961e-06	-1.116689e-09	-2.440807e+01	-7.534821e+01
1.040000e-06	-3.474703e-06	-1.115605e-09	-2.415600e+01	-7.499845e+01
1.050000e-06	-3.438215e-06	-1.105851e-09	-2.390234e+01	-7.464672e+01
1.060000e-06	-3.401422e-06	-1.096962e-09	-2.364656e+01	-7.429288e+01
1.070000e-06	-3.364340e-06	-1.092043e-09	-2.338877e+01	-7.393679e+01
1.080000e-06	-3.326997e-06	-1.088892e-09	-2.312915e+01	-7.357825e+01
1.090000e-06	-3.289423e-06	-1.082716e-09	-2.286794e+01	-7.321705e+01
1.100000e-06	-3.251614e-06	-1.079283e-09	-2.260510e+01	-7.285294e+01
1.110000e-06	-3.213590e-06	-1.072169e-09	-2.234076e+01	-7.248565e+01
1.120000e-06	-3.175394e-06	-1.061405e-09	-2.207522e+01	-7.211488e+01
1.130000e-06	-3.137111e-06	-1.049675e-09	-2.180908e+01	-7.174030e+01
1.140000e-06	-3.098579e-06	-1.041741e-09	-2.154120e+01	-7.136155e+01
1.150000e-06	-3.059657e-06	-1.031535e-09	-2.127062e+01	-7.097828e+01
1.160000e-06	-3.020535e-06	-1.025228e-09	-2.099865e+01	-7.059010e+01
1.170000e-06	-2.981271e-06	-1.022836e-09	-2.072568e+01	-7.019659e+01
1.180000e-06	-2.941783e-06	-1.022141e-09	-2.045116e+01	-6.979736e+01
1.190000e-06	-2.902118e-06	-1.016635e-09	-2.017542e+01	-6.939198e+01
1.200000e-06	-2.862375e-06	-1.010824e-09	-1.989912e+01	-6.898001e+01
1.210000e-06	-2.822534e-06	-1.000911e-09	-1.962215e+01	-6.856104e+01
1.220000e-06	-2.782609e-06	-9.906739e-10	-1.934459e+01	-6.813462e+01
1.230000e-06	-2.742557e-06	-9.816676e-10	-1.906615e+01	-6.770034e+01
1.240000e-06	-2.702300e-06	-9.754162e-10	-1.878628e+01	-6.725777e+01
1.250000e-06	-2.661877e-06	-9.681691e-10	-1.850527e+01	-6.680651e+01
1.260000e-06	-2.621285e-06	-9.616422e-10	-1.822307e+01	-6.634616e+01
1.270000e-06	-2.580405e-06	-9.574356e-10	-1.793888e+01	-6.587633e+01
1.280000e-06	-2.539182e-06	-9.515511e-10	-1.765230e+01	-6.539667e+01
1.290000e-06	-2.497634e-06	-9.404922e-10	-1.736345e+01	-6.490683e+01
1.300000e-06	-2.455793e-06	-9.276160e-10	-1.707258e+01	-6.440649e+01
1.310000e-06	-2.413621e-06	-9.163949e-10	-1.677940e+01	-6.389535e+01
1.320000e-06	-2.370994e-06	-9.078884e-10	-1.648306e+01	-6.337314e+01
1.330000e-06	-2.328027e-06	-9.006587e-10	-1.618435e+01	-6.283962e+01
1.340000e-06	-2.284895e-06	-8.948669e-10	-1.588450e+01	-6.229456e+01
1.350000e-06	-2.241636e-06	-8.865239e-10	-1.558377e+01	-6.173778e+01
1.360000e-06	-2.198210e-06	-8.749630e-10	-1.528187e+01	-6.116910e+01
1.370000e-06	-2.154644e-06	-8.637817e-10	-1.497900e+01	-6.058840e+01
1.380000e-06	-2.110960e-06	-8.526939e-10	-1.467531e+01	-5.999555e+01
1.390000e-06	-2.067176e-06	-8.427864e-10	-1.437093e+01	-5.939047e+01
1.400000e-06	-2.023397e-06	-8.328249e-10	-1.406658e+01	-5.877310e+01
1.410000e-06	-1.979550e-06	-8.247959e-10	-1.376176e+01	-5.814339e+01
1.420000e-06	-1.935570e-06	-8.147420e-10	-1.345601e+01	-5.750132e+01
1.430000e-06	-1.891522e-06	-8.034560e-10	-1.314979e+01	-5.684689e+01
1.440000e-06	-1.847417e-06	-7.899915e-10	-1.284317e+01	-5.618009e+01
1.450000e-06	-1.803186e-06	-7.770455e-10	-1.253568e+01	-5.550097e+01
1.460000e-06	-1.758790e-06	-7.620172e-10	-1.222704e+01	-5.480953e+01
1.470000e-06	-1.714226e-06	-7.476483e-10	-1.191723e+01	-5.410583e+01
1.480000e-06	-1.669648e-06	-7.366419e-10	-1.160733e+01	-5.338989e+01
1.490000e-06	-1.625024e-06	-7.289992e-10	-1.129711e+01	-5.266176e+01
1.500000e-06	-1.580195e-06	-7.195322e-10	-1.098545e+01	-5.192147e+01
1.510000e-06	-1.535118e-06	-7.091406e-10	-1.067208e+01	-5.116905e+01
1.520000e-06	-1.489895e-06	-6.946781e-10	-1.035770e+01	-5.040451e+01
1.530000e-06	-1.444654e-06	-6.768349e-10	-1.004318e+01	-4.962787e+01
1.540000e-06	-1.399351e-06	-6.607682e-10	-9.728236e+00	-4.883911e+01
1.550000e-06	-1.353899e-06	-6.495464e-10	-9.412256e+00	-4.803821e+01
1.560000e-06	-1.308366e-06	-6.393228e-10	-9.095711e+00	-4.722510e+01
1.570000e-06	-1.262808e-06	-6.309416e-10	-8.778996e+00	-4.639974e+01
1.580000e-06	-1.217208e-06	-6.223677e-10	-8.461981e+00	-4.556201e+01
1.590000e-06	-1.171519e-06	-6.113847e-10	-8.144354e+00	-4.471179e+01
1.600000e-06	-1.125705e-06	-5.981207e-10	-7.825858e+00	-4.384895e+01
1.610000e-06	-1.079764e-06	-5.835081e-10	-7.506480e+00	-4.297331e+01
1.620000e-06	-1.033718e-06	-5.686305e-10	-7.186371e+00	-4.208467e+01
1.630000e-06	-9.876323e-07	-5.548449e-10	-6.865982e+00	-4.118280e+01
1.640000e-06	-9.415647e-07	-5.418633e-10	-6.545722e+00	-4.026746e+01
1.650000e-06	-8.954174e-07	-5.275871e-10	-6.224907e+00	-3.933836e+01
1.660000e-06	-8.491648e-07	-5.149843e-10	-5.903361e+00	-3.839522e+01
1.670000e-06	-8.028789e-07	-5.040880e-10	-5.581583e+00	-3.743771e+01
1.680000e-06	-7.564017e-07	-4.925114e-10	-5.258476e+00	-3.646551e+01
1.690000e-06	-7.098738e-07	-4.787098e-10	-4.935016e+00	-3.547827e+01
1.700000e-06	-6.633564e-07	-4.648351e-10	-4.611629e+00	-3.447562e+01
1.710000e-06	-6.167394e-07	-4.469164e-10	-4.287549e+00	-3.345722e+01
1.720000e-06	-5.701149e-07	-4.286606e-10	-3.963417e+00	-3.242269e+01
1.730000e-06	-5.234838e-07	-4.109241e-10	-3.639239e+00	-3.137167e+01
1.740000e-06	-4.768911e-07	-3.946363e-10	-3.315329e+00	-3.030382e+01
1.750000e-06	-4.302834e-07	-3.790781e-10	-2.991314e+00	-2.921880e+01
1.760000e-06	-3.835988e-07	-3.636861e-10	-2.666764e+00	-2.811628e+01
1.770000e-06	-3.368998e-07	-3.464077e-10	-2.342115e+00	-2.699596e+01
1.780000e-06	-2.901771e-07	-3.283165e-10	-2.017300e+00	-2.585759e+01
1.790000e-06	-2.434251e-07	-3.089768e-10	-1.692282e+00	-2.470094e+01
1.800000e-06	-1.966280e-07	-2.878727e-10	-1.366950e+00	-2.352580e+01
1.810000e-06	-1.498176e-07	-2.672912e-10	-1.041526e+00	-2.233205e+01
1.820000e-06	-1.030386e-07	-2.472918e-10	-7.163203e-01	-2.111959e+01
1.830000e-06	-5.623047e-08	-2.307334e-10	-3.909121e-01	-1.988838e+01
1.840000e-06	-9.391593e-09	-2.134857e-10	-6.529000e-02	-1.863844e+01
1.850000e-06	3.735533e-08	-1.958270e-10	2.596929e-01	-1.736989e+01
1.860000e-06	8.401981e-08	-1.792023e-10	5.841026e-01	-1.608286e+01
1.870000e-06	1.307517e-07	-1.615362e-10	9.089811e-01	-1.477761e+01
1.880000e-06	1.775411e-07	-1.427545e-10	1.234259e+00	-1.345444e+01
1.890000e-06	2.243653e-07	-1.243683e-10	1.559779e+00	-1.211374e+01
1.900000e-06	2.712032e-07	-1.063526e-10	1.885395e+00	-1.075599e+01
1.910000e-06	3.179059e-07	-8.710948e-11	2.210070e+00	-9.381740e+00
1.920000e-06	3.646501e-07	-6.649437e-11	2.535034e+00	-7.991630e+00
1.930000e-06	4.114739e-07	-4.573513e-11	2.860551e+00	-6.586381e+00
1.940000e-06	4.582071e-07	-2.573848e-11	3.185438e+00	-5.166797e+00
1.950000e-06	5.048239e-07	-6.980696e-12	3.509517e+00	-3.733764e+00
1.960000e-06	5.513405e-07	1.048982e-11	3.832898e+00	-2.288247e+00
1.970000e-06	5.978417e-07	2.918211e-11	4.156173e+00	-8.312890e-01
1.980000e-06	6.442886e-07	4.819571e-11	4.479070e+00	6.359938e-01
1.990000e-06	6.906864e-07	6.817559e-11	4.801626e+00	2.112415e+00
2.000000e-06	7.369764e-07	9.020565e-11	5.123432e+00	3.596725e+00
2.010000e-06	7.831782e-07	1.108449e-10	5.444625e+00	5.087610e+00
2.020000e-06	8.293673e-07	1.306578e-10	5.765730e+00	6.583705e+00
2.030000e-06	8.755021e-07	1.508101e-10	6.086458e+00	8.083597e+00
2.040000e-06	9.215922e-07	1.727528e-10	6.406874e+00	9.585828e+00
2.050000e-06	9.676576e-07	1.943764e-10	6.727119e+00	1.108891e+01
2.060000e-06	1.013689e-06	2.144275e-10	7.047131e+00	1.259133e+01
2.070000e-06	1.059644e-06	2.358795e-10	7.366606e+00	1.409154e+01
2.080000e-06	1.105462e-06	2.578047e-10	7.685133e+00	1.558800e+01
2.090000e-06	1.151228e-06	2.787225e-10	8.003296e+00	1.707916e+01
2.100000e-06	1.196956e-06	2.997048e-10	8.321195e+00	1.856347e+01
2.110000e-06	1.242623e-06	3.205035e-10	8.638670e+00	2.003941e+01
2.120000e-06	1.288195e-06	3.399321e-10	8.955481e+00	2.150546e+01
2.130000e-06	1.333569e-06	3.605704e-10	9.270920e+00	2.296015e+01
2.140000e-06	1.378893e-06	3.806548e-10	9.586012e+00	2.440204e+01
2.150000e-06	1.424124e-06	4.006756e-10	9.900457e+00	2.582972e+01
2.160000e-06	1.469167e-06	4.213411e-10	1.021360e+01	2.724186e+01
2.170000e-06	1.514151e-06	4.400935e-10	1.052632e+01	2.863718e+01
2.180000e-06	1.559061e-06	4.572268e-10	1.083853e+01	3.001447e+01
2.190000e-06	1.603873e-06	4.733943e-10	1.115006e+01	3.137259e+01
2.200000e-06	1.648586e-06	4.890849e-10	1.146091e+01	3.271048e+01
2.210000e-06	1.693140e-06	5.073134e-10	1.177065e+01	3.402715e+01
2.220000e-06	1.737608e-06	5.292392e-10	1.207979e+01	3.532174e+01
2.230000e-06	1.781978e-06	5.505700e-10	1.238824e+01	3.659344e+01
2.240000e-06	1.826167e-06	5.678990e-10	1.269544e+01	3.784155e+01
2.250000e-06	1.870206e-06	5.821446e-10	1.300160e+01	3.906547e+01
2.260000e-06	1.914179e-06	5.948210e-10	1.330730e+01	4.026471e+01
2.270000e-06	1.958136e-06	6.070133e-10	1.361289e+01	4.143887e+01
2.280000e-06	2.002078e-06	6.217013e-10	1.391837e+01	4.258764e+01
2.290000e-06	2.045951e-06	6.377226e-10	1.422337e+01	4.371083e+01
2.300000e-06	2.089720e-06	6.519265e-10	1.452765e+01	4.480833e+01
2.310000e-06	2.133419e-06	6.657446e-10	1.483145e+01	4.588015e+01
2.320000e-06	2.176978e-06	6.789446e-10	1.513427e+01	4.692638e+01
2.330000e-06	2.220461e-06	6.902002e-10	1.543656e+01	4.794720e+01
2.340000e-06	2.263824e-06	7.011994e-10	1.573802e+01	4.894287e+01
2.350000e-06	2.306904e-06	7.141007e-10	1.603751e+01	4.991375e+01
2.360000e-06	2.349711e-06	7.278685e-10	1.633510e+01	5.086027e+01
2.370000e-06	2.392309e-06	7.415303e-10	1.663124e+01	5.178294e+01
2.380000e-06	2.434661e-06	7.555041e-10	1.692567e+01	5.268230e+01
2.390000e-06	2.476623e-06	7.693378e-10	1.721739e+01	5.355899e+01
2.400000e-06	2.518213e-06	7.829355e-10	1.750652e+01	5.441369e+01
2.410000e-06	2.559421e-06	7.958100e-10	1.779300e+01	5.524712e+01
2.420000e-06	2.600283e-06	8.079736e-10	1.807707e+01	5.606004e+01
2.430000e-06	2.641006e-06	8.191714e-10	1.836018e+01	5.685325e+01
2.440000e-06	2.681588e-06	8.323086e-10	1.864230e+01	5.762755e+01
2.450000e-06	2.721960e-06	8.483973e-10	1.892297e+01	5.838379e+01
2.460000e-06	2.762149e-06	8.636114e-10	1.920235e+01	5.912280e+01
2.470000e-06	2.802173e-06	8.766079e-10	1.948060e+01	5.984543e+01
2.480000e-06	2.842057e-06	8.872203e-10	1.975787e+01	6.055252e+01
2.490000e-06	2.881787e-06	8.958995e-10	2.003407e+01	6.124489e+01
2.500000e-06	2.921402e-06	9.048592e-10	2.030948e+01	6.192337e+01
2.510000e-06	2.960871e-06	9.149980e-10	2.058386e+01	6.258873e+01
2.520000e-06	3.000129e-06	9.260120e-10	2.085678e+01	6.324174e+01
2.530000e-06	3.039168e-06	9.392081e-10	2.112818e+01	6.388312e+01
2.540000e-06	3.078025e-06	9.528161e-10	2.139831e+01	6.451357e+01
2.550000e-06	3.116638e-06	9.637221e-10	2.166675e+01	6.513371e+01
2.560000e-06	3.155010e-06	9.726166e-10	2.193351e+01	6.574416e+01
2.570000e-06	3.193170e-06	9.806966e-10	2.219879e+01	6.634547e+01
2.580000e-06	3.231134e-06	9.876161e-10	2.246272e+01	6.693813e+01
2.590000e-06	3.268892e-06	9.930630e-10	2.272521e+01	6.752258e+01
2.600000e-06	3.306361e-06	1.000128e-09	2.298569e+01	6.809923e+01
2.610000e-06	3.343625e-06	1.009593e-09	2.324475e+01	6.866841e+01
2.620000e-06	3.380721e-06	1.020131e-09	2.350264e+01	6.923040e+01
2.630000e-06	3.417563e-06	1.031200e-09	2.375877e+01	6.978543e+01
2.640000e-06	3.454150e-06	1.040747e-09	2.401312e+01	7.033367e+01
2.650000e-06	3.490514e-06	1.048800e-09	2.426592e+01	7.087526e+01
2.660000e-06	3.526654e-06	1.055506e-09	2.451716e+01	7.141027e+01
2.670000e-06	3.562618e-06	1.061097e-09	2.476719e+01	7.193872e+01
2.680000e-06	3.598446e-06	1.067571e-09	2.501626e+01	7.246059e+01
2.690000e-06	3.634146e-06	1.073571e-09	2.526445e+01	7.297584e+01
2.700000e-06	3.669733e-06	1.082588e-09	2.551184e+01	7.348437e+01
2.710000e-06	3.705159e-06	1.090778e-09	2.575813e+01	7.398606e+01
2.720000e-06	3.740183e-06	1.099396e-09	2.600161e+01	7.448073e+01
2.730000e-06	3.774751e-06	1.108505e-09	2.624193e+01	7.496823e+01
2.740000e-06	3.808876e-06	1.116265e-09	2.647916e+01	7.544833e+01
2.750000e-06	3.842578e-06	1.122707e-09	2.671346e+01	7.592083e+01
2.760000e-06	3.875970e-06	1.129619e-09	2.694559e+01	7.638550e+01
2.770000e-06	3.908963e-06	1.138073e-09	2.717496e+01	7.684210e+01
2.780000e-06	3.941594e-06	1.144251e-09	2.740181e+01	7.729039e+01
2.790000e-06	3.973933e-06	1.150643e-09	2.762663e+01	7.773013e+01
2.800000e-06	4.006001e-06	1.156615e-09	2.784957e+01	7.816109e+01
2.810000e-06	4.037880e-06	1.161589e-09	2.807119e+01	7.858304e+01
2.820000e-06	4.069616e-06	1.168741e-09	2.829182e+01	7.899579e+01
2.830000e-06	4.101173e-06	1.176542e-09	2.851120e+01	7.939912e+01
2.840000e-06	4.132421e-06	1.182893e-09	2.872844e+01	7.979288e+01
2.850000e-06	4.163336e-06	1.187192e-09	2.894335e+01	8.017689e+01
2.860000e-06	4.193959e-06	1.191314e-09	2.915624e+01	8.055105e+01
2.870000e-06	4.224281e-06	1.193967e-09	2.936704e+01	8.091525e+01
2.880000e-06	4.254276e-06	1.195408e-09	2.957556e+01	8.126941e+01
2.890000e-06	4.284014e-06	1.202055e-09	2.978230e+01	8.161349e+01
2.900000e-06	4.313539e-06	1.208503e-09	2.998756e+01	8.194748e+01
