# Temperatura_=_6.34
# Concentracion g/m^3_=_1620.0
# C_Vs_to_Am_M_A/Vsm_=_65563218390.804596
# pendiente_HvsI_1/m_=_3716.3
# ordenada_HvsI_A/m_=_1297.0
# frecuencia_Hz_=_135106.901954647

Tiempo_(s)	Campo_(V.s)	Magnetizacion_(V.s)	Campo_(kA/m)	Magnetizacion_(A/m)
0.000000e+00	-5.530090e-06	-7.670960e-10	-3.837678e+01	-5.094858e+01
1.000000e-08	-5.530266e-06	-7.713000e-10	-3.837800e+01	-5.095224e+01
2.000000e-08	-5.530132e-06	-7.753432e-10	-3.837707e+01	-5.095518e+01
3.000000e-08	-5.529587e-06	-7.765790e-10	-3.837329e+01	-5.095717e+01
4.000000e-08	-5.528481e-06	-7.753245e-10	-3.836562e+01	-5.095798e+01
5.000000e-08	-5.526631e-06	-7.705901e-10	-3.835278e+01	-5.095735e+01
6.000000e-08	-5.524188e-06	-7.554838e-10	-3.833583e+01	-5.095506e+01
7.000000e-08	-5.521313e-06	-7.413829e-10	-3.831587e+01	-5.095088e+01
8.000000e-08	-5.518012e-06	-7.606496e-10	-3.829297e+01	-5.094457e+01
9.000000e-08	-5.514284e-06	-8.156150e-10	-3.826709e+01	-5.093593e+01
1.000000e-07	-5.510006e-06	-8.113071e-10	-3.823740e+01	-5.092476e+01
1.100000e-07	-5.505289e-06	-7.421854e-10	-3.820467e+01	-5.091085e+01
1.200000e-07	-5.500462e-06	-6.806308e-10	-3.817117e+01	-5.089404e+01
1.300000e-07	-5.495406e-06	-7.836693e-10	-3.813608e+01	-5.087419e+01
1.400000e-07	-5.489891e-06	-7.964849e-10	-3.809781e+01	-5.085114e+01
1.500000e-07	-5.484034e-06	-7.265127e-10	-3.805717e+01	-5.082480e+01
1.600000e-07	-5.477868e-06	-6.723849e-10	-3.801438e+01	-5.079506e+01
1.700000e-07	-5.471350e-06	-7.745347e-10	-3.796915e+01	-5.076187e+01
1.800000e-07	-5.464409e-06	-8.561792e-10	-3.792098e+01	-5.072518e+01
1.900000e-07	-5.457055e-06	-7.540201e-10	-3.786994e+01	-5.068498e+01
2.000000e-07	-5.449471e-06	-6.936631e-10	-3.781731e+01	-5.064127e+01
2.100000e-07	-5.441641e-06	-7.349314e-10	-3.776297e+01	-5.059408e+01
2.200000e-07	-5.433511e-06	-8.236787e-10	-3.770656e+01	-5.054346e+01
2.300000e-07	-5.425095e-06	-7.728267e-10	-3.764815e+01	-5.048949e+01
2.400000e-07	-5.416100e-06	-7.472615e-10	-3.758573e+01	-5.043228e+01
2.500000e-07	-5.406296e-06	-7.619768e-10	-3.751769e+01	-5.037193e+01
2.600000e-07	-5.395825e-06	-8.155927e-10	-3.744503e+01	-5.030858e+01
2.700000e-07	-5.384917e-06	-7.610232e-10	-3.736933e+01	-5.024239e+01
2.800000e-07	-5.373653e-06	-7.464683e-10	-3.729117e+01	-5.017352e+01
2.900000e-07	-5.361952e-06	-7.680286e-10	-3.720996e+01	-5.010215e+01
3.000000e-07	-5.349816e-06	-8.018066e-10	-3.712575e+01	-5.002847e+01
3.100000e-07	-5.337355e-06	-7.577717e-10	-3.703927e+01	-4.995268e+01
3.200000e-07	-5.324436e-06	-7.495565e-10	-3.694962e+01	-4.987498e+01
3.300000e-07	-5.311052e-06	-7.813731e-10	-3.685674e+01	-4.979556e+01
3.400000e-07	-5.297436e-06	-7.925842e-10	-3.676225e+01	-4.971464e+01
3.500000e-07	-5.283486e-06	-7.433317e-10	-3.666544e+01	-4.963241e+01
3.600000e-07	-5.269038e-06	-7.229831e-10	-3.656518e+01	-4.954907e+01
3.700000e-07	-5.254048e-06	-7.636980e-10	-3.646115e+01	-4.946480e+01
3.800000e-07	-5.238498e-06	-7.757719e-10	-3.635324e+01	-4.937977e+01
3.900000e-07	-5.222398e-06	-7.483262e-10	-3.624151e+01	-4.929415e+01
4.000000e-07	-5.205857e-06	-7.577717e-10	-3.612672e+01	-4.920809e+01
4.100000e-07	-5.189018e-06	-7.940110e-10	-3.600986e+01	-4.912172e+01
4.200000e-07	-5.171889e-06	-7.428620e-10	-3.589100e+01	-4.903515e+01
4.300000e-07	-5.154446e-06	-7.180270e-10	-3.576995e+01	-4.894848e+01
4.400000e-07	-5.136668e-06	-7.622775e-10	-3.564658e+01	-4.886179e+01
4.500000e-07	-5.118447e-06	-7.787570e-10	-3.552013e+01	-4.877512e+01
4.600000e-07	-5.099701e-06	-7.051027e-10	-3.539004e+01	-4.868852e+01
4.700000e-07	-5.080589e-06	-7.310588e-10	-3.525741e+01	-4.860198e+01
4.800000e-07	-5.061244e-06	-7.750597e-10	-3.512316e+01	-4.851551e+01
4.900000e-07	-5.041690e-06	-7.442187e-10	-3.498747e+01	-4.842907e+01
5.000000e-07	-5.021953e-06	-7.071487e-10	-3.485050e+01	-4.834262e+01
5.100000e-07	-5.001971e-06	-7.587614e-10	-3.471183e+01	-4.825607e+01
5.200000e-07	-4.981574e-06	-7.345288e-10	-3.457028e+01	-4.816934e+01
5.300000e-07	-4.960770e-06	-7.059618e-10	-3.442591e+01	-4.808233e+01
5.400000e-07	-4.939640e-06	-7.525556e-10	-3.427927e+01	-4.799492e+01
5.500000e-07	-4.918182e-06	-7.744574e-10	-3.413036e+01	-4.790697e+01
5.600000e-07	-4.896406e-06	-6.972299e-10	-3.397925e+01	-4.781834e+01
5.700000e-07	-4.874280e-06	-7.106432e-10	-3.382570e+01	-4.772888e+01
5.800000e-07	-4.851732e-06	-7.560872e-10	-3.366922e+01	-4.763843e+01
5.900000e-07	-4.828820e-06	-7.182177e-10	-3.351022e+01	-4.754682e+01
6.000000e-07	-4.805634e-06	-6.923642e-10	-3.334932e+01	-4.745390e+01
6.100000e-07	-4.782278e-06	-7.409946e-10	-3.318724e+01	-4.735950e+01
6.200000e-07	-4.758734e-06	-7.209043e-10	-3.302385e+01	-4.726347e+01
6.300000e-07	-4.734892e-06	-6.765020e-10	-3.285840e+01	-4.716564e+01
6.400000e-07	-4.710716e-06	-7.055088e-10	-3.269063e+01	-4.706588e+01
6.500000e-07	-4.686076e-06	-7.183057e-10	-3.251964e+01	-4.696405e+01
6.600000e-07	-4.660891e-06	-6.868210e-10	-3.234486e+01	-4.686002e+01
6.700000e-07	-4.635226e-06	-6.955978e-10	-3.216675e+01	-4.675371e+01
6.800000e-07	-4.609093e-06	-7.122113e-10	-3.198540e+01	-4.664500e+01
6.900000e-07	-4.582475e-06	-6.841844e-10	-3.180068e+01	-4.653384e+01
7.000000e-07	-4.555424e-06	-6.824576e-10	-3.161296e+01	-4.642016e+01
7.100000e-07	-4.528090e-06	-6.946572e-10	-3.142327e+01	-4.630394e+01
7.200000e-07	-4.500598e-06	-6.822317e-10	-3.123249e+01	-4.618516e+01
7.300000e-07	-4.472881e-06	-6.721458e-10	-3.104014e+01	-4.606383e+01
7.400000e-07	-4.444921e-06	-6.993576e-10	-3.084611e+01	-4.593997e+01
7.500000e-07	-4.416705e-06	-6.976536e-10	-3.065030e+01	-4.581365e+01
7.600000e-07	-4.388128e-06	-6.865163e-10	-3.045199e+01	-4.568492e+01
7.700000e-07	-4.359211e-06	-6.820019e-10	-3.025131e+01	-4.555388e+01
7.800000e-07	-4.329991e-06	-6.782748e-10	-3.004853e+01	-4.542063e+01
7.900000e-07	-4.300476e-06	-6.633985e-10	-2.984371e+01	-4.528531e+01
8.000000e-07	-4.270708e-06	-6.727572e-10	-2.963714e+01	-4.514804e+01
8.100000e-07	-4.240676e-06	-6.742039e-10	-2.942873e+01	-4.500898e+01
8.200000e-07	-4.210299e-06	-6.733053e-10	-2.921792e+01	-4.486830e+01
8.300000e-07	-4.179538e-06	-6.784152e-10	-2.900445e+01	-4.472617e+01
8.400000e-07	-4.148498e-06	-6.883019e-10	-2.878904e+01	-4.458276e+01
8.500000e-07	-4.117301e-06	-6.743343e-10	-2.857255e+01	-4.443826e+01
8.600000e-07	-4.085931e-06	-6.669340e-10	-2.835485e+01	-4.429285e+01
8.700000e-07	-4.054323e-06	-6.656016e-10	-2.813550e+01	-4.414671e+01
8.800000e-07	-4.022568e-06	-6.618353e-10	-2.791513e+01	-4.400001e+01
8.900000e-07	-3.990673e-06	-6.589363e-10	-2.769380e+01	-4.385293e+01
9.000000e-07	-3.958517e-06	-6.685893e-10	-2.747064e+01	-4.370563e+01
9.100000e-07	-3.925926e-06	-6.659412e-10	-2.724448e+01	-4.355824e+01
9.200000e-07	-3.892800e-06	-6.570429e-10	-2.701459e+01	-4.341090e+01
9.300000e-07	-3.859167e-06	-6.590046e-10	-2.678119e+01	-4.326372e+01
9.400000e-07	-3.825044e-06	-6.587756e-10	-2.654439e+01	-4.311678e+01
9.500000e-07	-3.790542e-06	-6.501763e-10	-2.630496e+01	-4.297017e+01
9.600000e-07	-3.755791e-06	-6.482178e-10	-2.606380e+01	-4.282391e+01
9.700000e-07	-3.720796e-06	-6.516252e-10	-2.582095e+01	-4.267804e+01
9.800000e-07	-3.685517e-06	-6.434013e-10	-2.557613e+01	-4.253254e+01
9.900000e-07	-3.650069e-06	-6.396969e-10	-2.533013e+01	-4.238738e+01
1.000000e-06	-3.614509e-06	-6.419478e-10	-2.508336e+01	-4.224250e+01
1.010000e-06	-3.578752e-06	-6.406621e-10	-2.483522e+01	-4.209779e+01
1.020000e-06	-3.542834e-06	-6.349044e-10	-2.458596e+01	-4.195315e+01
1.030000e-06	-3.506704e-06	-6.393078e-10	-2.433523e+01	-4.180842e+01
1.040000e-06	-3.470319e-06	-6.365833e-10	-2.408273e+01	-4.166342e+01
1.050000e-06	-3.433646e-06	-6.266575e-10	-2.382823e+01	-4.151796e+01
1.060000e-06	-3.396680e-06	-6.166845e-10	-2.357171e+01	-4.137181e+01
1.070000e-06	-3.359519e-06	-6.153645e-10	-2.331382e+01	-4.122471e+01
1.080000e-06	-3.322143e-06	-6.097276e-10	-2.305444e+01	-4.107640e+01
1.090000e-06	-3.284480e-06	-6.088600e-10	-2.279308e+01	-4.092659e+01
1.100000e-06	-3.246527e-06	-6.080536e-10	-2.252970e+01	-4.077497e+01
1.110000e-06	-3.208395e-06	-6.048047e-10	-2.226508e+01	-4.062123e+01
1.120000e-06	-3.170088e-06	-5.968992e-10	-2.199924e+01	-4.046502e+01
1.130000e-06	-3.131447e-06	-5.958129e-10	-2.173108e+01	-4.030602e+01
1.140000e-06	-3.092536e-06	-5.917502e-10	-2.146106e+01	-4.014388e+01
1.150000e-06	-3.053473e-06	-5.872188e-10	-2.118997e+01	-3.997826e+01
1.160000e-06	-3.014241e-06	-5.855685e-10	-2.091772e+01	-3.980881e+01
1.170000e-06	-2.974821e-06	-5.855884e-10	-2.064416e+01	-3.963520e+01
1.180000e-06	-2.935233e-06	-5.810362e-10	-2.036943e+01	-3.945709e+01
1.190000e-06	-2.895568e-06	-5.788540e-10	-2.009417e+01	-3.927416e+01
1.200000e-06	-2.855760e-06	-5.770038e-10	-1.981792e+01	-3.908611e+01
1.210000e-06	-2.815837e-06	-5.729546e-10	-1.954087e+01	-3.889265e+01
1.220000e-06	-2.775802e-06	-5.697778e-10	-1.926304e+01	-3.869350e+01
1.230000e-06	-2.735573e-06	-5.692335e-10	-1.898386e+01	-3.848840e+01
1.240000e-06	-2.695156e-06	-5.658418e-10	-1.870338e+01	-3.827713e+01
1.250000e-06	-2.654487e-06	-5.601780e-10	-1.842116e+01	-3.805947e+01
1.260000e-06	-2.613509e-06	-5.593100e-10	-1.813679e+01	-3.783525e+01
1.270000e-06	-2.572121e-06	-5.582777e-10	-1.784957e+01	-3.760430e+01
1.280000e-06	-2.530336e-06	-5.545283e-10	-1.755960e+01	-3.736649e+01
1.290000e-06	-2.488312e-06	-5.484690e-10	-1.726797e+01	-3.712172e+01
1.300000e-06	-2.446029e-06	-5.426751e-10	-1.697454e+01	-3.686989e+01
1.310000e-06	-2.403455e-06	-5.355984e-10	-1.667909e+01	-3.661095e+01
1.320000e-06	-2.360630e-06	-5.310961e-10	-1.638190e+01	-3.634486e+01
1.330000e-06	-2.317573e-06	-5.315908e-10	-1.608310e+01	-3.607160e+01
1.340000e-06	-2.274309e-06	-5.363166e-10	-1.578286e+01	-3.579120e+01
1.350000e-06	-2.230898e-06	-5.343355e-10	-1.548161e+01	-3.550365e+01
1.360000e-06	-2.187406e-06	-5.266000e-10	-1.517979e+01	-3.520901e+01
1.370000e-06	-2.143863e-06	-5.165132e-10	-1.487762e+01	-3.490731e+01
1.380000e-06	-2.100259e-06	-5.100776e-10	-1.457502e+01	-3.459862e+01
1.390000e-06	-2.056555e-06	-5.052629e-10	-1.427173e+01	-3.428300e+01
1.400000e-06	-2.012814e-06	-5.044914e-10	-1.396818e+01	-3.396052e+01
1.410000e-06	-1.968992e-06	-5.024684e-10	-1.366408e+01	-3.363122e+01
1.420000e-06	-1.925039e-06	-5.016378e-10	-1.335906e+01	-3.329518e+01
1.430000e-06	-1.880976e-06	-4.992149e-10	-1.305328e+01	-3.295244e+01
1.440000e-06	-1.836795e-06	-4.935252e-10	-1.274668e+01	-3.260304e+01
1.450000e-06	-1.792522e-06	-4.843741e-10	-1.243944e+01	-3.224698e+01
1.460000e-06	-1.748170e-06	-4.758494e-10	-1.213165e+01	-3.188428e+01
1.470000e-06	-1.703656e-06	-4.693220e-10	-1.182274e+01	-3.151491e+01
1.480000e-06	-1.658892e-06	-4.638996e-10	-1.151210e+01	-3.113881e+01
1.490000e-06	-1.613969e-06	-4.594021e-10	-1.120035e+01	-3.075591e+01
1.500000e-06	-1.568926e-06	-4.570473e-10	-1.088776e+01	-3.036609e+01
1.510000e-06	-1.523774e-06	-4.515441e-10	-1.057443e+01	-2.996921e+01
1.520000e-06	-1.478541e-06	-4.432395e-10	-1.026053e+01	-2.956509e+01
1.530000e-06	-1.433206e-06	-4.333146e-10	-9.945919e+00	-2.915350e+01
1.540000e-06	-1.387728e-06	-4.258560e-10	-9.630317e+00	-2.873419e+01
1.550000e-06	-1.342155e-06	-4.208598e-10	-9.314061e+00	-2.830686e+01
1.560000e-06	-1.296512e-06	-4.123621e-10	-8.997312e+00	-2.787119e+01
1.570000e-06	-1.250794e-06	-4.023452e-10	-8.680045e+00	-2.742680e+01
1.580000e-06	-1.205001e-06	-3.924432e-10	-8.362261e+00	-2.697329e+01
1.590000e-06	-1.159087e-06	-3.829623e-10	-8.043634e+00	-2.651022e+01
1.600000e-06	-1.113144e-06	-3.763669e-10	-7.724806e+00	-2.603710e+01
1.610000e-06	-1.067176e-06	-3.728270e-10	-7.405809e+00	-2.555345e+01
1.620000e-06	-1.021057e-06	-3.676791e-10	-7.085757e+00	-2.505873e+01
1.630000e-06	-9.748966e-07	-3.598433e-10	-6.765422e+00	-2.455240e+01
1.640000e-06	-9.287577e-07	-3.464609e-10	-6.445235e+00	-2.403388e+01
1.650000e-06	-8.824294e-07	-3.332620e-10	-6.123734e+00	-2.350260e+01
1.660000e-06	-8.359268e-07	-3.215266e-10	-5.801023e+00	-2.295796e+01
1.670000e-06	-7.894645e-07	-3.135690e-10	-5.478592e+00	-2.239939e+01
1.680000e-06	-7.429806e-07	-3.064933e-10	-5.156010e+00	-2.182629e+01
1.690000e-06	-6.964808e-07	-3.006458e-10	-4.833319e+00	-2.123808e+01
1.700000e-06	-6.500222e-07	-2.941581e-10	-4.510914e+00	-2.063420e+01
1.710000e-06	-6.034491e-07	-2.836441e-10	-4.187714e+00	-2.001411e+01
1.720000e-06	-5.567478e-07	-2.693295e-10	-3.863624e+00	-1.937731e+01
1.730000e-06	-5.099904e-07	-2.560347e-10	-3.539145e+00	-1.872330e+01
1.740000e-06	-4.632477e-07	-2.429545e-10	-3.214767e+00	-1.805167e+01
1.750000e-06	-4.164333e-07	-2.322233e-10	-2.889893e+00	-1.736202e+01
1.760000e-06	-3.695390e-07	-2.240426e-10	-2.564464e+00	-1.665402e+01
1.770000e-06	-3.226637e-07	-2.175034e-10	-2.239167e+00	-1.592740e+01
1.780000e-06	-2.757996e-07	-2.096512e-10	-1.913947e+00	-1.518193e+01
1.790000e-06	-2.289457e-07	-1.969975e-10	-1.588799e+00	-1.441749e+01
1.800000e-06	-1.820503e-07	-1.819246e-10	-1.263362e+00	-1.363401e+01
1.810000e-06	-1.351002e-07	-1.663316e-10	-9.375456e-01	-1.283150e+01
1.820000e-06	-8.811011e-08	-1.525290e-10	-6.114516e-01	-1.201006e+01
1.830000e-06	-4.114089e-08	-1.409803e-10	-2.855026e-01	-1.116986e+01
1.840000e-06	5.758418e-09	-1.288439e-10	3.996129e-02	-1.031118e+01
1.850000e-06	5.259901e-08	-1.184372e-10	3.650177e-01	-9.434370e+00
1.860000e-06	9.948231e-08	-1.083824e-10	6.903704e-01	-8.539881e+00
1.870000e-06	1.463725e-07	-9.548535e-11	1.015771e+00	-7.628252e+00
1.880000e-06	1.931732e-07	-8.040319e-11	1.340551e+00	-6.700109e+00
1.890000e-06	2.399895e-07	-6.403038e-11	1.665439e+00	-5.756170e+00
1.900000e-06	2.868871e-07	-4.861561e-11	1.990890e+00	-4.797240e+00
1.910000e-06	3.338162e-07	-3.332188e-11	2.316561e+00	-3.824206e+00
1.920000e-06	3.807995e-07	-2.153944e-11	2.642608e+00	-2.838038e+00
1.930000e-06	4.276947e-07	-1.047016e-11	2.968043e+00	-1.839782e+00
1.940000e-06	4.744655e-07	-9.502357e-14	3.292615e+00	-8.305579e-01
1.950000e-06	5.212225e-07	1.138929e-11	3.617091e+00	1.884499e-01
1.960000e-06	5.678901e-07	2.487409e-11	3.940947e+00	1.215995e+00
1.970000e-06	6.145342e-07	4.038454e-11	4.264640e+00	2.250777e+00
1.980000e-06	6.611173e-07	5.748915e-11	4.587910e+00	3.291447e+00
1.990000e-06	7.075613e-07	7.560616e-11	4.910214e+00	4.336617e+00
2.000000e-06	7.539504e-07	9.190706e-11	5.232137e+00	5.384868e+00
2.010000e-06	8.002731e-07	1.053392e-10	5.553600e+00	6.434754e+00
2.020000e-06	8.466397e-07	1.155556e-10	5.875366e+00	7.484814e+00
2.030000e-06	8.930297e-07	1.255587e-10	6.197296e+00	8.533581e+00
2.040000e-06	9.392650e-07	1.388394e-10	6.518152e+00	9.579588e+00
2.050000e-06	9.853741e-07	1.561410e-10	6.838132e+00	1.062138e+01
2.060000e-06	1.031478e-06	1.737798e-10	7.158075e+00	1.165751e+01
2.070000e-06	1.077545e-06	1.924628e-10	7.477764e+00	1.268657e+01
2.080000e-06	1.123461e-06	2.073773e-10	7.796401e+00	1.370719e+01
2.090000e-06	1.169292e-06	2.174637e-10	8.114455e+00	1.471802e+01
2.100000e-06	1.215059e-06	2.280523e-10	8.432060e+00	1.571778e+01
2.110000e-06	1.260744e-06	2.406251e-10	8.749097e+00	1.670524e+01
2.120000e-06	1.306359e-06	2.543388e-10	9.065648e+00	1.767923e+01
2.130000e-06	1.351888e-06	2.672611e-10	9.381605e+00	1.863867e+01
2.140000e-06	1.397291e-06	2.798002e-10	9.696685e+00	1.958252e+01
2.150000e-06	1.442630e-06	2.903631e-10	1.001132e+01	2.050984e+01
2.160000e-06	1.487905e-06	3.021387e-10	1.032551e+01	2.141978e+01
2.170000e-06	1.533078e-06	3.158819e-10	1.063900e+01	2.231157e+01
2.180000e-06	1.578108e-06	3.288496e-10	1.095149e+01	2.318453e+01
2.190000e-06	1.622883e-06	3.403904e-10	1.126221e+01	2.403806e+01
2.200000e-06	1.667523e-06	3.522816e-10	1.157200e+01	2.487168e+01
2.210000e-06	1.712076e-06	3.636415e-10	1.188117e+01	2.568499e+01
2.220000e-06	1.756499e-06	3.747986e-10	1.218945e+01	2.647767e+01
2.230000e-06	1.800829e-06	3.845263e-10	1.249708e+01	2.724952e+01
2.240000e-06	1.845032e-06	3.941918e-10	1.280384e+01	2.800041e+01
2.250000e-06	1.889044e-06	4.045264e-10	1.310927e+01	2.873030e+01
2.260000e-06	1.932959e-06	4.151862e-10	1.341402e+01	2.943926e+01
2.270000e-06	1.976832e-06	4.241297e-10	1.371848e+01	3.012740e+01
2.280000e-06	2.020588e-06	4.308609e-10	1.402213e+01	3.079495e+01
2.290000e-06	2.064251e-06	4.357256e-10	1.432514e+01	3.144219e+01
2.300000e-06	2.107858e-06	4.439127e-10	1.462776e+01	3.206946e+01
2.310000e-06	2.151445e-06	4.544845e-10	1.493023e+01	3.267718e+01
2.320000e-06	2.194998e-06	4.641250e-10	1.523248e+01	3.326582e+01
2.330000e-06	2.238452e-06	4.708052e-10	1.553403e+01	3.383590e+01
2.340000e-06	2.281819e-06	4.745379e-10	1.583498e+01	3.438799e+01
2.350000e-06	2.325117e-06	4.779367e-10	1.613546e+01	3.492267e+01
2.360000e-06	2.368224e-06	4.848031e-10	1.643460e+01	3.544057e+01
2.370000e-06	2.411003e-06	4.950788e-10	1.673147e+01	3.594236e+01
2.380000e-06	2.453518e-06	5.062698e-10	1.702651e+01	3.642869e+01
2.390000e-06	2.495823e-06	5.175685e-10	1.732009e+01	3.690024e+01
2.400000e-06	2.537755e-06	5.270230e-10	1.761108e+01	3.735768e+01
2.410000e-06	2.579256e-06	5.347711e-10	1.789908e+01	3.780171e+01
2.420000e-06	2.620349e-06	5.408854e-10	1.818425e+01	3.823297e+01
2.430000e-06	2.661149e-06	5.459268e-10	1.846739e+01	3.865213e+01
2.440000e-06	2.701759e-06	5.527085e-10	1.874921e+01	3.905980e+01
2.450000e-06	2.742087e-06	5.613473e-10	1.902907e+01	3.945661e+01
2.460000e-06	2.782144e-06	5.685735e-10	1.930705e+01	3.984313e+01
2.470000e-06	2.822034e-06	5.759307e-10	1.958387e+01	4.021990e+01
2.480000e-06	2.861800e-06	5.818637e-10	1.985983e+01	4.058743e+01
2.490000e-06	2.901466e-06	5.871083e-10	2.013510e+01	4.094618e+01
2.500000e-06	2.941053e-06	5.928791e-10	2.040982e+01	4.129660e+01
2.510000e-06	2.980516e-06	5.967996e-10	2.068368e+01	4.163906e+01
2.520000e-06	3.019828e-06	6.005607e-10	2.095649e+01	4.197390e+01
2.530000e-06	3.058952e-06	6.068220e-10	2.122800e+01	4.230142e+01
2.540000e-06	3.097885e-06	6.114854e-10	2.149818e+01	4.262189e+01
2.550000e-06	3.136581e-06	6.155417e-10	2.176671e+01	4.293550e+01
2.560000e-06	3.175049e-06	6.204327e-10	2.203367e+01	4.324242e+01
2.570000e-06	3.213285e-06	6.237177e-10	2.229901e+01	4.354279e+01
2.580000e-06	3.251205e-06	6.254634e-10	2.256216e+01	4.383670e+01
2.590000e-06	3.288874e-06	6.270314e-10	2.282357e+01	4.412419e+01
2.600000e-06	3.326318e-06	6.304110e-10	2.308342e+01	4.440529e+01
2.610000e-06	3.363596e-06	6.368759e-10	2.334211e+01	4.467998e+01
2.620000e-06	3.400735e-06	6.430896e-10	2.359984e+01	4.494824e+01
2.630000e-06	3.437558e-06	6.458175e-10	2.385538e+01	4.521000e+01
2.640000e-06	3.474036e-06	6.456744e-10	2.410853e+01	4.546519e+01
2.650000e-06	3.510249e-06	6.465282e-10	2.435983e+01	4.571372e+01
2.660000e-06	3.546229e-06	6.477025e-10	2.460952e+01	4.595548e+01
2.670000e-06	3.582036e-06	6.496475e-10	2.485801e+01	4.619035e+01
2.680000e-06	3.617720e-06	6.546507e-10	2.510564e+01	4.641824e+01
2.690000e-06	3.653294e-06	6.619352e-10	2.535251e+01	4.663903e+01
2.700000e-06	3.688723e-06	6.689637e-10	2.559837e+01	4.685260e+01
2.710000e-06	3.723973e-06	6.705687e-10	2.584300e+01	4.705888e+01
2.720000e-06	3.759069e-06	6.723465e-10	2.608655e+01	4.725775e+01
2.730000e-06	3.793985e-06	6.746840e-10	2.632885e+01	4.744917e+01
2.740000e-06	3.828480e-06	6.766195e-10	2.656824e+01	4.763307e+01
2.750000e-06	3.862433e-06	6.782391e-10	2.680386e+01	4.780942e+01
2.760000e-06	3.895934e-06	6.818970e-10	2.703634e+01	4.797821e+01
2.770000e-06	3.928927e-06	6.878994e-10	2.726530e+01	4.813946e+01
2.780000e-06	3.961425e-06	6.918689e-10	2.749082e+01	4.829320e+01
2.790000e-06	3.993552e-06	6.938140e-10	2.771377e+01	4.843951e+01
2.800000e-06	4.025448e-06	6.959349e-10	2.793512e+01	4.857847e+01
2.810000e-06	4.057197e-06	6.967263e-10	2.815545e+01	4.871020e+01
2.820000e-06	4.088781e-06	6.972359e-10	2.837463e+01	4.883487e+01
2.830000e-06	4.120211e-06	6.988808e-10	2.859274e+01	4.895263e+01
2.840000e-06	4.151449e-06	7.000583e-10	2.880952e+01	4.906369e+01
2.850000e-06	4.182351e-06	7.041865e-10	2.902397e+01	4.916828e+01
2.860000e-06	4.212898e-06	7.076568e-10	2.923595e+01	4.926664e+01
2.870000e-06	4.243134e-06	7.080296e-10	2.944578e+01	4.935905e+01
2.880000e-06	4.273052e-06	7.097488e-10	2.965340e+01	4.944577e+01
2.890000e-06	4.302729e-06	7.142546e-10	2.985935e+01	4.952713e+01
2.900000e-06	4.332188e-06	7.195205e-10	3.006378e+01	4.960343e+01
