# Temperatura_=_-10.93
# Concentracion g/m^3_=_1620.0
# C_Vs_to_Am_M_A/Vsm_=_65563218390.804596
# pendiente_HvsI_1/m_=_3716.3
# ordenada_HvsI_A/m_=_1297.0
# frecuencia_Hz_=_135095.00279168968

Tiempo_(s)	Campo_(V.s)	Magnetizacion_(V.s)	Campo_(kA/m)	Magnetizacion_(A/m)
0.000000e+00	-5.511390e-06	-8.714111e-10	-3.836961e+01	-5.780472e+01
1.000000e-08	-5.511530e-06	-8.707021e-10	-3.837058e+01	-5.778313e+01
2.000000e-08	-5.511407e-06	-8.702223e-10	-3.836973e+01	-5.775990e+01
3.000000e-08	-5.510933e-06	-8.682273e-10	-3.836643e+01	-5.773502e+01
4.000000e-08	-5.509923e-06	-8.655279e-10	-3.835940e+01	-5.770848e+01
5.000000e-08	-5.508306e-06	-8.597342e-10	-3.834814e+01	-5.768028e+01
6.000000e-08	-5.505966e-06	-8.443709e-10	-3.833185e+01	-5.765043e+01
7.000000e-08	-5.503054e-06	-8.314170e-10	-3.831158e+01	-5.761894e+01
8.000000e-08	-5.499779e-06	-8.526031e-10	-3.828878e+01	-5.758583e+01
9.000000e-08	-5.496102e-06	-9.250721e-10	-3.826318e+01	-5.755110e+01
1.000000e-07	-5.491989e-06	-9.494607e-10	-3.823455e+01	-5.751480e+01
1.100000e-07	-5.487464e-06	-8.623729e-10	-3.820304e+01	-5.747695e+01
1.200000e-07	-5.482804e-06	-7.650944e-10	-3.817060e+01	-5.743758e+01
1.300000e-07	-5.477963e-06	-8.433086e-10	-3.813690e+01	-5.739674e+01
1.400000e-07	-5.472677e-06	-9.029078e-10	-3.810010e+01	-5.735446e+01
1.500000e-07	-5.466974e-06	-8.551576e-10	-3.806039e+01	-5.731079e+01
1.600000e-07	-5.460939e-06	-7.819328e-10	-3.801838e+01	-5.726578e+01
1.700000e-07	-5.454607e-06	-8.885819e-10	-3.797430e+01	-5.721947e+01
1.800000e-07	-5.447775e-06	-9.726389e-10	-3.792673e+01	-5.717192e+01
1.900000e-07	-5.440529e-06	-8.993458e-10	-3.787629e+01	-5.712318e+01
2.000000e-07	-5.433088e-06	-7.902030e-10	-3.782449e+01	-5.707329e+01
2.100000e-07	-5.425378e-06	-8.422841e-10	-3.777081e+01	-5.702231e+01
2.200000e-07	-5.417365e-06	-9.412713e-10	-3.771502e+01	-5.697029e+01
2.300000e-07	-5.409034e-06	-9.325947e-10	-3.765702e+01	-5.691726e+01
2.400000e-07	-5.400252e-06	-8.923177e-10	-3.759588e+01	-5.686327e+01
2.500000e-07	-5.390840e-06	-9.004978e-10	-3.753036e+01	-5.680835e+01
2.600000e-07	-5.380734e-06	-9.294609e-10	-3.746000e+01	-5.675254e+01
2.700000e-07	-5.370038e-06	-8.748073e-10	-3.738554e+01	-5.669585e+01
2.800000e-07	-5.358841e-06	-8.527470e-10	-3.730759e+01	-5.663832e+01
2.900000e-07	-5.347190e-06	-8.765156e-10	-3.722647e+01	-5.657993e+01
3.000000e-07	-5.335197e-06	-9.123515e-10	-3.714298e+01	-5.652071e+01
3.100000e-07	-5.322826e-06	-8.682899e-10	-3.705685e+01	-5.646065e+01
3.200000e-07	-5.310105e-06	-8.626199e-10	-3.696829e+01	-5.639972e+01
3.300000e-07	-5.296969e-06	-8.712092e-10	-3.687684e+01	-5.633792e+01
3.400000e-07	-5.283416e-06	-8.878744e-10	-3.678248e+01	-5.627521e+01
3.500000e-07	-5.269479e-06	-8.386577e-10	-3.668545e+01	-5.621156e+01
3.600000e-07	-5.254957e-06	-8.346144e-10	-3.658435e+01	-5.614691e+01
3.700000e-07	-5.239928e-06	-8.666281e-10	-3.647973e+01	-5.608123e+01
3.800000e-07	-5.224509e-06	-8.930466e-10	-3.637238e+01	-5.601444e+01
3.900000e-07	-5.208541e-06	-8.443652e-10	-3.626121e+01	-5.594648e+01
4.000000e-07	-5.192054e-06	-8.437699e-10	-3.614643e+01	-5.587727e+01
4.100000e-07	-5.175190e-06	-8.827525e-10	-3.602903e+01	-5.580675e+01
4.200000e-07	-5.158016e-06	-8.542090e-10	-3.590947e+01	-5.573483e+01
4.300000e-07	-5.140643e-06	-8.068968e-10	-3.578851e+01	-5.566142e+01
4.400000e-07	-5.123051e-06	-8.623773e-10	-3.566604e+01	-5.558645e+01
4.500000e-07	-5.105080e-06	-8.961266e-10	-3.554093e+01	-5.550982e+01
4.600000e-07	-5.086640e-06	-8.203792e-10	-3.541255e+01	-5.543145e+01
4.700000e-07	-5.067729e-06	-8.156195e-10	-3.528090e+01	-5.535126e+01
4.800000e-07	-5.048517e-06	-8.834346e-10	-3.514714e+01	-5.526917e+01
4.900000e-07	-5.029058e-06	-8.575418e-10	-3.501167e+01	-5.518510e+01
5.000000e-07	-5.009341e-06	-8.052753e-10	-3.487441e+01	-5.509899e+01
5.100000e-07	-4.989439e-06	-8.539904e-10	-3.473585e+01	-5.501077e+01
5.200000e-07	-4.969153e-06	-8.548023e-10	-3.459463e+01	-5.492040e+01
5.300000e-07	-4.948452e-06	-8.110735e-10	-3.445051e+01	-5.482784e+01
5.400000e-07	-4.927439e-06	-8.493897e-10	-3.430421e+01	-5.473305e+01
5.500000e-07	-4.906075e-06	-8.828345e-10	-3.415548e+01	-5.463602e+01
5.600000e-07	-4.884393e-06	-8.077419e-10	-3.400454e+01	-5.453675e+01
5.700000e-07	-4.862343e-06	-8.094356e-10	-3.385103e+01	-5.443524e+01
5.800000e-07	-4.839953e-06	-8.685398e-10	-3.369515e+01	-5.433151e+01
5.900000e-07	-4.817239e-06	-8.407799e-10	-3.353702e+01	-5.422562e+01
6.000000e-07	-4.794153e-06	-8.025132e-10	-3.337630e+01	-5.411762e+01
6.100000e-07	-4.770800e-06	-8.536689e-10	-3.321371e+01	-5.400758e+01
6.200000e-07	-4.747231e-06	-8.433418e-10	-3.304963e+01	-5.389558e+01
6.300000e-07	-4.723473e-06	-7.974146e-10	-3.288423e+01	-5.378173e+01
6.400000e-07	-4.699527e-06	-8.175575e-10	-3.271752e+01	-5.366615e+01
6.500000e-07	-4.675217e-06	-8.371224e-10	-3.254828e+01	-5.354897e+01
6.600000e-07	-4.650514e-06	-8.000443e-10	-3.237630e+01	-5.343034e+01
6.700000e-07	-4.625347e-06	-8.087172e-10	-3.220109e+01	-5.331041e+01
6.800000e-07	-4.599466e-06	-8.311475e-10	-3.202091e+01	-5.318936e+01
6.900000e-07	-4.572983e-06	-8.125739e-10	-3.183654e+01	-5.306735e+01
7.000000e-07	-4.546105e-06	-8.035220e-10	-3.164941e+01	-5.294459e+01
7.100000e-07	-4.518825e-06	-8.214199e-10	-3.145950e+01	-5.282126e+01
7.200000e-07	-4.491264e-06	-8.082155e-10	-3.126762e+01	-5.269756e+01
7.300000e-07	-4.463602e-06	-7.974191e-10	-3.107504e+01	-5.257370e+01
7.400000e-07	-4.435776e-06	-8.139746e-10	-3.088132e+01	-5.244986e+01
7.500000e-07	-4.407689e-06	-8.123535e-10	-3.068578e+01	-5.232625e+01
7.600000e-07	-4.379358e-06	-7.973905e-10	-3.048854e+01	-5.220307e+01
7.700000e-07	-4.350736e-06	-8.022495e-10	-3.028928e+01	-5.208049e+01
7.800000e-07	-4.321784e-06	-8.055437e-10	-3.008772e+01	-5.195869e+01
7.900000e-07	-4.292554e-06	-7.958104e-10	-2.988423e+01	-5.183785e+01
8.000000e-07	-4.262967e-06	-8.022047e-10	-2.967825e+01	-5.171810e+01
8.100000e-07	-4.233014e-06	-8.034664e-10	-2.946972e+01	-5.159959e+01
8.200000e-07	-4.202804e-06	-7.935106e-10	-2.925940e+01	-5.148243e+01
8.300000e-07	-4.172298e-06	-7.907854e-10	-2.904702e+01	-5.136672e+01
8.400000e-07	-4.141525e-06	-7.967553e-10	-2.883278e+01	-5.125252e+01
8.500000e-07	-4.110495e-06	-7.870860e-10	-2.861676e+01	-5.113989e+01
8.600000e-07	-4.079176e-06	-7.843487e-10	-2.839871e+01	-5.102886e+01
8.700000e-07	-4.047647e-06	-7.889876e-10	-2.817921e+01	-5.091940e+01
8.800000e-07	-4.015969e-06	-7.875922e-10	-2.795868e+01	-5.081150e+01
8.900000e-07	-3.984167e-06	-7.776796e-10	-2.773727e+01	-5.070508e+01
9.000000e-07	-3.952185e-06	-7.783726e-10	-2.751462e+01	-5.060006e+01
9.100000e-07	-3.919893e-06	-7.715995e-10	-2.728981e+01	-5.049631e+01
9.200000e-07	-3.887230e-06	-7.616214e-10	-2.706241e+01	-5.039367e+01
9.300000e-07	-3.854167e-06	-7.593537e-10	-2.683223e+01	-5.029197e+01
9.400000e-07	-3.820572e-06	-7.649938e-10	-2.659835e+01	-5.019099e+01
9.500000e-07	-3.786429e-06	-7.613090e-10	-2.636065e+01	-5.009047e+01
9.600000e-07	-3.751936e-06	-7.616437e-10	-2.612051e+01	-4.999016e+01
9.700000e-07	-3.717131e-06	-7.631373e-10	-2.587821e+01	-4.988976e+01
9.800000e-07	-3.681930e-06	-7.571600e-10	-2.563314e+01	-4.978893e+01
9.900000e-07	-3.646463e-06	-7.498484e-10	-2.538622e+01	-4.968735e+01
1.000000e-06	-3.610852e-06	-7.511595e-10	-2.513830e+01	-4.958462e+01
1.010000e-06	-3.575139e-06	-7.486891e-10	-2.488967e+01	-4.948038e+01
1.020000e-06	-3.539314e-06	-7.430674e-10	-2.464026e+01	-4.937422e+01
1.030000e-06	-3.503299e-06	-7.422773e-10	-2.438953e+01	-4.926573e+01
1.040000e-06	-3.467059e-06	-7.418226e-10	-2.413723e+01	-4.915448e+01
1.050000e-06	-3.430608e-06	-7.343373e-10	-2.388346e+01	-4.904003e+01
1.060000e-06	-3.393843e-06	-7.252348e-10	-2.362751e+01	-4.892196e+01
1.070000e-06	-3.356846e-06	-7.221514e-10	-2.336994e+01	-4.879982e+01
1.080000e-06	-3.319621e-06	-7.197664e-10	-2.311079e+01	-4.867318e+01
1.090000e-06	-3.282073e-06	-7.194065e-10	-2.284938e+01	-4.854162e+01
1.100000e-06	-3.244325e-06	-7.190872e-10	-2.258659e+01	-4.840470e+01
1.110000e-06	-3.206394e-06	-7.156478e-10	-2.232252e+01	-4.826203e+01
1.120000e-06	-3.168233e-06	-7.081947e-10	-2.205684e+01	-4.811322e+01
1.130000e-06	-3.129805e-06	-7.037158e-10	-2.178932e+01	-4.795788e+01
1.140000e-06	-3.091113e-06	-6.991421e-10	-2.151994e+01	-4.779566e+01
1.150000e-06	-3.052216e-06	-6.937113e-10	-2.124915e+01	-4.762624e+01
1.160000e-06	-3.013127e-06	-6.885791e-10	-2.097702e+01	-4.744931e+01
1.170000e-06	-2.973799e-06	-6.884376e-10	-2.070322e+01	-4.726459e+01
1.180000e-06	-2.934299e-06	-6.868667e-10	-2.042822e+01	-4.707183e+01
1.190000e-06	-2.894685e-06	-6.855618e-10	-2.015244e+01	-4.687083e+01
1.200000e-06	-2.854992e-06	-6.827000e-10	-1.987610e+01	-4.666139e+01
1.210000e-06	-2.815165e-06	-6.782023e-10	-1.959883e+01	-4.644336e+01
1.220000e-06	-2.775176e-06	-6.702778e-10	-1.932043e+01	-4.621663e+01
1.230000e-06	-2.735037e-06	-6.645898e-10	-1.904099e+01	-4.598110e+01
1.240000e-06	-2.694748e-06	-6.591157e-10	-1.876050e+01	-4.573674e+01
1.250000e-06	-2.654303e-06	-6.567270e-10	-1.847893e+01	-4.548352e+01
1.260000e-06	-2.613637e-06	-6.570290e-10	-1.819581e+01	-4.522145e+01
1.270000e-06	-2.572725e-06	-6.571298e-10	-1.791099e+01	-4.495058e+01
1.280000e-06	-2.531524e-06	-6.559359e-10	-1.762416e+01	-4.467098e+01
1.290000e-06	-2.489968e-06	-6.515169e-10	-1.733485e+01	-4.438274e+01
1.300000e-06	-2.448035e-06	-6.429247e-10	-1.704291e+01	-4.408599e+01
1.310000e-06	-2.405811e-06	-6.365636e-10	-1.674896e+01	-4.378088e+01
1.320000e-06	-2.363357e-06	-6.314244e-10	-1.645340e+01	-4.346755e+01
1.330000e-06	-2.320609e-06	-6.280935e-10	-1.615579e+01	-4.314620e+01
1.340000e-06	-2.277694e-06	-6.259935e-10	-1.585702e+01	-4.281701e+01
1.350000e-06	-2.234578e-06	-6.216577e-10	-1.555686e+01	-4.248018e+01
1.360000e-06	-2.191154e-06	-6.151486e-10	-1.525454e+01	-4.213591e+01
1.370000e-06	-2.147606e-06	-6.089992e-10	-1.495136e+01	-4.178441e+01
1.380000e-06	-2.103999e-06	-6.055456e-10	-1.464778e+01	-4.142588e+01
1.390000e-06	-2.060299e-06	-6.008074e-10	-1.434354e+01	-4.106051e+01
1.400000e-06	-2.016487e-06	-5.947457e-10	-1.403853e+01	-4.068849e+01
1.410000e-06	-1.972628e-06	-5.889491e-10	-1.373319e+01	-4.031000e+01
1.420000e-06	-1.928721e-06	-5.827889e-10	-1.342752e+01	-3.992518e+01
1.430000e-06	-1.884770e-06	-5.760535e-10	-1.312154e+01	-3.953418e+01
1.440000e-06	-1.840711e-06	-5.709228e-10	-1.281480e+01	-3.913709e+01
1.450000e-06	-1.796570e-06	-5.645863e-10	-1.250750e+01	-3.873401e+01
1.460000e-06	-1.752392e-06	-5.568752e-10	-1.219994e+01	-3.832499e+01
1.470000e-06	-1.708007e-06	-5.491460e-10	-1.189093e+01	-3.791005e+01
1.480000e-06	-1.663452e-06	-5.418516e-10	-1.158075e+01	-3.748917e+01
1.490000e-06	-1.618823e-06	-5.334978e-10	-1.127004e+01	-3.706231e+01
1.500000e-06	-1.574003e-06	-5.264502e-10	-1.095802e+01	-3.662939e+01
1.510000e-06	-1.528957e-06	-5.191593e-10	-1.064441e+01	-3.619027e+01
1.520000e-06	-1.483867e-06	-5.106046e-10	-1.033049e+01	-3.574480e+01
1.530000e-06	-1.438752e-06	-5.004961e-10	-1.001641e+01	-3.529277e+01
1.540000e-06	-1.393545e-06	-4.924704e-10	-9.701684e+00	-3.483394e+01
1.550000e-06	-1.348263e-06	-4.838694e-10	-9.386437e+00	-3.436804e+01
1.560000e-06	-1.302786e-06	-4.758000e-10	-9.069832e+00	-3.389475e+01
1.570000e-06	-1.257121e-06	-4.692501e-10	-8.751920e+00	-3.341372e+01
1.580000e-06	-1.211460e-06	-4.645823e-10	-8.434031e+00	-3.292457e+01
1.590000e-06	-1.165716e-06	-4.574719e-10	-8.115573e+00	-3.242690e+01
1.600000e-06	-1.119880e-06	-4.491718e-10	-7.796467e+00	-3.192025e+01
1.610000e-06	-1.074014e-06	-4.399278e-10	-7.477153e+00	-3.140417e+01
1.620000e-06	-1.028083e-06	-4.309643e-10	-7.157384e+00	-3.087817e+01
1.630000e-06	-9.820200e-07	-4.232153e-10	-6.836701e+00	-3.034176e+01
1.640000e-06	-9.358173e-07	-4.127659e-10	-6.515043e+00	-2.979443e+01
1.650000e-06	-8.895253e-07	-4.011193e-10	-6.192764e+00	-2.923565e+01
1.660000e-06	-8.431815e-07	-3.889828e-10	-5.870125e+00	-2.866491e+01
1.670000e-06	-7.969097e-07	-3.794409e-10	-5.547986e+00	-2.808168e+01
1.680000e-06	-7.506385e-07	-3.709448e-10	-5.225852e+00	-2.748545e+01
1.690000e-06	-7.043068e-07	-3.631725e-10	-4.903296e+00	-2.687573e+01
1.700000e-06	-6.579334e-07	-3.526344e-10	-4.580450e+00	-2.625203e+01
1.710000e-06	-6.115141e-07	-3.391365e-10	-4.257285e+00	-2.561389e+01
1.720000e-06	-5.649472e-07	-3.249152e-10	-3.933092e+00	-2.496088e+01
1.730000e-06	-5.183177e-07	-3.117316e-10	-3.608463e+00	-2.429259e+01
1.740000e-06	-4.717356e-07	-2.997730e-10	-3.284164e+00	-2.360866e+01
1.750000e-06	-4.251200e-07	-2.891852e-10	-2.959632e+00	-2.290876e+01
1.760000e-06	-3.784073e-07	-2.786670e-10	-2.634424e+00	-2.219263e+01
1.770000e-06	-3.316758e-07	-2.680292e-10	-2.309086e+00	-2.146002e+01
1.780000e-06	-2.849448e-07	-2.580660e-10	-1.983750e+00	-2.071077e+01
1.790000e-06	-2.381893e-07	-2.467406e-10	-1.658244e+00	-1.994476e+01
1.800000e-06	-1.914113e-07	-2.321089e-10	-1.332582e+00	-1.916192e+01
1.810000e-06	-1.445821e-07	-2.172433e-10	-1.006562e+00	-1.836226e+01
1.820000e-06	-9.777595e-08	-2.038814e-10	-6.807040e-01	-1.754584e+01
1.830000e-06	-5.092847e-08	-1.910281e-10	-3.545577e-01	-1.671280e+01
1.840000e-06	-4.133457e-09	-1.782507e-10	-2.877661e-02	-1.586333e+01
1.850000e-06	4.260509e-08	-1.673276e-10	2.966113e-01	-1.499769e+01
1.860000e-06	8.935045e-08	-1.573402e-10	6.220467e-01	-1.411622e+01
1.870000e-06	1.360773e-07	-1.467194e-10	9.473533e-01	-1.321932e+01
1.880000e-06	1.828683e-07	-1.367078e-10	1.273107e+00	-1.230744e+01
1.890000e-06	2.296225e-07	-1.266082e-10	1.598604e+00	-1.138111e+01
1.900000e-06	2.762811e-07	-1.140468e-10	1.923434e+00	-1.044092e+01
1.910000e-06	3.229226e-07	-1.000026e-10	2.248147e+00	-9.487524e+00
1.920000e-06	3.695447e-07	-8.825792e-11	2.572724e+00	-8.521618e+00
1.930000e-06	4.161039e-07	-7.751109e-11	2.896864e+00	-7.543963e+00
1.940000e-06	4.626675e-07	-6.738182e-11	3.221033e+00	-6.555368e+00
1.950000e-06	5.091852e-07	-5.852620e-11	3.544884e+00	-5.556686e+00
1.960000e-06	5.555877e-07	-4.877579e-11	3.867932e+00	-4.548813e+00
1.970000e-06	6.018778e-07	-3.542727e-11	4.190198e+00	-3.532680e+00
1.980000e-06	6.480841e-07	-2.062853e-11	4.511881e+00	-2.509251e+00
1.990000e-06	6.943615e-07	-6.058127e-12	4.834058e+00	-1.479518e+00
2.000000e-06	7.406288e-07	1.020349e-11	5.156166e+00	-4.444931e-01
2.010000e-06	7.868517e-07	2.403314e-11	5.477963e+00	5.947944e-01
2.020000e-06	8.330841e-07	3.664236e-11	5.799828e+00	1.637304e+00
2.030000e-06	8.792372e-07	4.737458e-11	6.121140e+00	2.681991e+00
2.040000e-06	9.252576e-07	5.571236e-11	6.441528e+00	3.727809e+00
2.050000e-06	9.712052e-07	6.533942e-11	6.761410e+00	4.773718e+00
2.060000e-06	1.017209e-06	7.773243e-11	7.081681e+00	5.818686e+00
2.070000e-06	1.063166e-06	9.545929e-11	7.401629e+00	6.861699e+00
2.080000e-06	1.108932e-06	1.129381e-10	7.720245e+00	7.901762e+00
2.090000e-06	1.154623e-06	1.299558e-10	8.038341e+00	8.937905e+00
2.100000e-06	1.200246e-06	1.442781e-10	8.355963e+00	9.969188e+00
2.110000e-06	1.245834e-06	1.551368e-10	8.673343e+00	1.099470e+01
2.120000e-06	1.291340e-06	1.637058e-10	8.990150e+00	1.201358e+01
2.130000e-06	1.336631e-06	1.748280e-10	9.305460e+00	1.302498e+01
2.140000e-06	1.381896e-06	1.892938e-10	9.620587e+00	1.402812e+01
2.150000e-06	1.427075e-06	2.039432e-10	9.935120e+00	1.502227e+01
2.160000e-06	1.472138e-06	2.194475e-10	1.024884e+01	1.600672e+01
2.170000e-06	1.517153e-06	2.354157e-10	1.056223e+01	1.698083e+01
2.180000e-06	1.561979e-06	2.475309e-10	1.087430e+01	1.794401e+01
2.190000e-06	1.606721e-06	2.553497e-10	1.118579e+01	1.889572e+01
2.200000e-06	1.651361e-06	2.613889e-10	1.149657e+01	1.983546e+01
2.210000e-06	1.695806e-06	2.729224e-10	1.180599e+01	2.076279e+01
2.220000e-06	1.740151e-06	2.883003e-10	1.211471e+01	2.167734e+01
2.230000e-06	1.784362e-06	3.050017e-10	1.242251e+01	2.257877e+01
2.240000e-06	1.828425e-06	3.180168e-10	1.272927e+01	2.346679e+01
2.250000e-06	1.872405e-06	3.286973e-10	1.303545e+01	2.434116e+01
2.260000e-06	1.916342e-06	3.405967e-10	1.334133e+01	2.520170e+01
2.270000e-06	1.960276e-06	3.505793e-10	1.364720e+01	2.604826e+01
2.280000e-06	2.004128e-06	3.629148e-10	1.395249e+01	2.688074e+01
2.290000e-06	2.047879e-06	3.744740e-10	1.425708e+01	2.769907e+01
2.300000e-06	2.091573e-06	3.854280e-10	1.456127e+01	2.850323e+01
2.310000e-06	2.135212e-06	3.960169e-10	1.486508e+01	2.929323e+01
2.320000e-06	2.178723e-06	4.071310e-10	1.516800e+01	3.006910e+01
2.330000e-06	2.222098e-06	4.187491e-10	1.546997e+01	3.083091e+01
2.340000e-06	2.265348e-06	4.288966e-10	1.577107e+01	3.157875e+01
2.350000e-06	2.308323e-06	4.380299e-10	1.607026e+01	3.231273e+01
2.360000e-06	2.351018e-06	4.485428e-10	1.636750e+01	3.303299e+01
2.370000e-06	2.393493e-06	4.590987e-10	1.666320e+01	3.373965e+01
2.380000e-06	2.435676e-06	4.701524e-10	1.695687e+01	3.443289e+01
2.390000e-06	2.477472e-06	4.799968e-10	1.724785e+01	3.511286e+01
2.400000e-06	2.518928e-06	4.886955e-10	1.753647e+01	3.577973e+01
2.410000e-06	2.560126e-06	4.961774e-10	1.782328e+01	3.643367e+01
2.420000e-06	2.600999e-06	5.063715e-10	1.810783e+01	3.707486e+01
2.430000e-06	2.641568e-06	5.155407e-10	1.839027e+01	3.770347e+01
2.440000e-06	2.681959e-06	5.259611e-10	1.867146e+01	3.831966e+01
2.450000e-06	2.722174e-06	5.361115e-10	1.895143e+01	3.892360e+01
2.460000e-06	2.762254e-06	5.454961e-10	1.923047e+01	3.951542e+01
2.470000e-06	2.802204e-06	5.514888e-10	1.950860e+01	4.009529e+01
2.480000e-06	2.841990e-06	5.556022e-10	1.978558e+01	4.066333e+01
2.490000e-06	2.881642e-06	5.616915e-10	2.006163e+01	4.121966e+01
2.500000e-06	2.921161e-06	5.697870e-10	2.033676e+01	4.176440e+01
2.510000e-06	2.960564e-06	5.803967e-10	2.061108e+01	4.229764e+01
2.520000e-06	2.999766e-06	5.913572e-10	2.088400e+01	4.281948e+01
2.530000e-06	3.038764e-06	5.980786e-10	2.115550e+01	4.332999e+01
2.540000e-06	3.077556e-06	6.008477e-10	2.142556e+01	4.382922e+01
2.550000e-06	3.116093e-06	6.032041e-10	2.169385e+01	4.431725e+01
2.560000e-06	3.154407e-06	6.084132e-10	2.196059e+01	4.479411e+01
2.570000e-06	3.192477e-06	6.183589e-10	2.222563e+01	4.525984e+01
2.580000e-06	3.230400e-06	6.275817e-10	2.248964e+01	4.571447e+01
2.590000e-06	3.268185e-06	6.355539e-10	2.275270e+01	4.615803e+01
2.600000e-06	3.305773e-06	6.407164e-10	2.301438e+01	4.659052e+01
2.610000e-06	3.343060e-06	6.442216e-10	2.327397e+01	4.701198e+01
2.620000e-06	3.380040e-06	6.464344e-10	2.353142e+01	4.742240e+01
2.630000e-06	3.416771e-06	6.496761e-10	2.378713e+01	4.782182e+01
2.640000e-06	3.453292e-06	6.530924e-10	2.404139e+01	4.821024e+01
2.650000e-06	3.489645e-06	6.583958e-10	2.429447e+01	4.858769e+01
2.660000e-06	3.525714e-06	6.651112e-10	2.454558e+01	4.895420e+01
2.670000e-06	3.561618e-06	6.709059e-10	2.479554e+01	4.930979e+01
2.680000e-06	3.597453e-06	6.728142e-10	2.504502e+01	4.965451e+01
2.690000e-06	3.633090e-06	6.748023e-10	2.529312e+01	4.998841e+01
2.700000e-06	3.668577e-06	6.774390e-10	2.554018e+01	5.031156e+01
2.710000e-06	3.703870e-06	6.809079e-10	2.578588e+01	5.062402e+01
2.720000e-06	3.738778e-06	6.864847e-10	2.602891e+01	5.092590e+01
2.730000e-06	3.773327e-06	6.942450e-10	2.626943e+01	5.121728e+01
2.740000e-06	3.807506e-06	7.006213e-10	2.650738e+01	5.149830e+01
2.750000e-06	3.841197e-06	7.055214e-10	2.674194e+01	5.176907e+01
2.760000e-06	3.874439e-06	7.088939e-10	2.697336e+01	5.202975e+01
2.770000e-06	3.907269e-06	7.115796e-10	2.720192e+01	5.228051e+01
2.780000e-06	3.939699e-06	7.153799e-10	2.742770e+01	5.252151e+01
2.790000e-06	3.971871e-06	7.190110e-10	2.765167e+01	5.275297e+01
2.800000e-06	4.003867e-06	7.228609e-10	2.787442e+01	5.297508e+01
2.810000e-06	4.035692e-06	7.267903e-10	2.809599e+01	5.318808e+01
2.820000e-06	4.067325e-06	7.311835e-10	2.831621e+01	5.339220e+01
2.830000e-06	4.098746e-06	7.349549e-10	2.853496e+01	5.358768e+01
2.840000e-06	4.129926e-06	7.376341e-10	2.875203e+01	5.377480e+01
2.850000e-06	4.160802e-06	7.414492e-10	2.896699e+01	5.395383e+01
2.860000e-06	4.191323e-06	7.459254e-10	2.917947e+01	5.412505e+01
2.870000e-06	4.221527e-06	7.493130e-10	2.938974e+01	5.428875e+01
2.880000e-06	4.251414e-06	7.530053e-10	2.959781e+01	5.444522e+01
2.890000e-06	4.281036e-06	7.576426e-10	2.980404e+01	5.459476e+01
2.900000e-06	4.310425e-06	7.631035e-10	3.000864e+01	5.473769e+01
