# Temperatura_=_-0.29
# Concentracion g/m^3_=_1620.0
# C_Vs_to_Am_M_A/Vsm_=_65563218390.804596
# pendiente_HvsI_1/m_=_3716.3
# ordenada_HvsI_A/m_=_1297.0
# frecuencia_Hz_=_135110.13262004664

Tiempo_(s)	Campo_(V.s)	Magnetizacion_(V.s)	Campo_(kA/m)	Magnetizacion_(A/m)
0.000000e+00	-5.529458e-06	-1.202580e-09	-3.836686e+01	-7.753812e+01
1.000000e-08	-5.529617e-06	-1.201362e-09	-3.836796e+01	-7.754953e+01
2.000000e-08	-5.529515e-06	-1.202151e-09	-3.836725e+01	-7.756127e+01
3.000000e-08	-5.528961e-06	-1.201922e-09	-3.836341e+01	-7.757329e+01
4.000000e-08	-5.527899e-06	-1.202669e-09	-3.835604e+01	-7.758553e+01
5.000000e-08	-5.526284e-06	-1.201291e-09	-3.834483e+01	-7.759789e+01
6.000000e-08	-5.524003e-06	-1.196751e-09	-3.832901e+01	-7.761027e+01
7.000000e-08	-5.521187e-06	-1.196446e-09	-3.830947e+01	-7.762255e+01
8.000000e-08	-5.517894e-06	-1.192713e-09	-3.828662e+01	-7.763458e+01
9.000000e-08	-5.514126e-06	-1.182989e-09	-3.826047e+01	-7.764620e+01
1.000000e-07	-5.510013e-06	-1.197929e-09	-3.823193e+01	-7.765724e+01
1.100000e-07	-5.505572e-06	-1.221303e-09	-3.820112e+01	-7.766751e+01
1.200000e-07	-5.500802e-06	-1.157903e-09	-3.816802e+01	-7.767682e+01
1.300000e-07	-5.495838e-06	-1.124245e-09	-3.813358e+01	-7.768495e+01
1.400000e-07	-5.490712e-06	-1.150490e-09	-3.809801e+01	-7.769170e+01
1.500000e-07	-5.485125e-06	-1.210405e-09	-3.805925e+01	-7.769685e+01
1.600000e-07	-5.479010e-06	-1.186504e-09	-3.801682e+01	-7.770016e+01
1.700000e-07	-5.472566e-06	-1.134792e-09	-3.797210e+01	-7.770141e+01
1.800000e-07	-5.465755e-06	-1.168461e-09	-3.792485e+01	-7.770039e+01
1.900000e-07	-5.458514e-06	-1.206549e-09	-3.787460e+01	-7.769686e+01
2.000000e-07	-5.450959e-06	-1.201260e-09	-3.782218e+01	-7.769060e+01
2.100000e-07	-5.443239e-06	-1.157339e-09	-3.776862e+01	-7.768140e+01
2.200000e-07	-5.435247e-06	-1.173197e-09	-3.771316e+01	-7.766905e+01
2.300000e-07	-5.426857e-06	-1.190557e-09	-3.765495e+01	-7.765335e+01
2.400000e-07	-5.418031e-06	-1.206582e-09	-3.759371e+01	-7.763411e+01
2.500000e-07	-5.408580e-06	-1.189668e-09	-3.752813e+01	-7.761115e+01
2.600000e-07	-5.398319e-06	-1.201660e-09	-3.745693e+01	-7.758430e+01
2.700000e-07	-5.387404e-06	-1.215324e-09	-3.738119e+01	-7.755341e+01
2.800000e-07	-5.376041e-06	-1.221744e-09	-3.730235e+01	-7.751834e+01
2.900000e-07	-5.364334e-06	-1.199790e-09	-3.722113e+01	-7.747895e+01
3.000000e-07	-5.352252e-06	-1.199006e-09	-3.713729e+01	-7.743515e+01
3.100000e-07	-5.339713e-06	-1.209585e-09	-3.705029e+01	-7.738684e+01
3.200000e-07	-5.326764e-06	-1.213352e-09	-3.696044e+01	-7.733392e+01
3.300000e-07	-5.313433e-06	-1.195437e-09	-3.686794e+01	-7.727635e+01
3.400000e-07	-5.299761e-06	-1.195783e-09	-3.677308e+01	-7.721407e+01
3.500000e-07	-5.285702e-06	-1.222000e-09	-3.667553e+01	-7.714706e+01
3.600000e-07	-5.271199e-06	-1.211567e-09	-3.657489e+01	-7.707528e+01
3.700000e-07	-5.256259e-06	-1.185384e-09	-3.647123e+01	-7.699875e+01
3.800000e-07	-5.240834e-06	-1.199510e-09	-3.636421e+01	-7.691747e+01
3.900000e-07	-5.224861e-06	-1.216992e-09	-3.625337e+01	-7.683148e+01
4.000000e-07	-5.208353e-06	-1.175568e-09	-3.613883e+01	-7.674080e+01
4.100000e-07	-5.191524e-06	-1.180621e-09	-3.602206e+01	-7.664549e+01
4.200000e-07	-5.174511e-06	-1.224703e-09	-3.590401e+01	-7.654563e+01
4.300000e-07	-5.157119e-06	-1.198764e-09	-3.578334e+01	-7.644127e+01
4.400000e-07	-5.139258e-06	-1.144176e-09	-3.565940e+01	-7.633251e+01
4.500000e-07	-5.121058e-06	-1.191612e-09	-3.553312e+01	-7.621944e+01
4.600000e-07	-5.102509e-06	-1.205385e-09	-3.540442e+01	-7.610216e+01
4.700000e-07	-5.083495e-06	-1.143726e-09	-3.527249e+01	-7.598078e+01
4.800000e-07	-5.064136e-06	-1.156687e-09	-3.513816e+01	-7.585541e+01
4.900000e-07	-5.044575e-06	-1.218115e-09	-3.500243e+01	-7.572619e+01
5.000000e-07	-5.024790e-06	-1.165619e-09	-3.486515e+01	-7.559322e+01
5.100000e-07	-5.004768e-06	-1.135721e-09	-3.472623e+01	-7.545664e+01
5.200000e-07	-4.984535e-06	-1.187386e-09	-3.458584e+01	-7.531658e+01
5.300000e-07	-4.963955e-06	-1.170227e-09	-3.444304e+01	-7.517317e+01
5.400000e-07	-4.942887e-06	-1.114146e-09	-3.429686e+01	-7.502654e+01
5.500000e-07	-4.921420e-06	-1.168892e-09	-3.414791e+01	-7.487683e+01
5.600000e-07	-4.899653e-06	-1.193442e-09	-3.399687e+01	-7.472417e+01
5.700000e-07	-4.877594e-06	-1.134939e-09	-3.384381e+01	-7.456869e+01
5.800000e-07	-4.855216e-06	-1.141701e-09	-3.368854e+01	-7.441051e+01
5.900000e-07	-4.832429e-06	-1.179487e-09	-3.353043e+01	-7.424977e+01
6.000000e-07	-4.809278e-06	-1.131483e-09	-3.336980e+01	-7.408659e+01
6.100000e-07	-4.785909e-06	-1.110657e-09	-3.320764e+01	-7.392109e+01
6.200000e-07	-4.762315e-06	-1.146479e-09	-3.304394e+01	-7.375339e+01
6.300000e-07	-4.738525e-06	-1.127026e-09	-3.287886e+01	-7.358359e+01
6.400000e-07	-4.714469e-06	-1.103452e-09	-3.271195e+01	-7.341180e+01
6.500000e-07	-4.690042e-06	-1.132994e-09	-3.254246e+01	-7.323813e+01
6.600000e-07	-4.665060e-06	-1.132278e-09	-3.236912e+01	-7.306266e+01
6.700000e-07	-4.639452e-06	-1.103469e-09	-3.219144e+01	-7.288550e+01
6.800000e-07	-4.613405e-06	-1.115757e-09	-3.201071e+01	-7.270671e+01
6.900000e-07	-4.586846e-06	-1.120300e-09	-3.182642e+01	-7.252639e+01
7.000000e-07	-4.559733e-06	-1.100589e-09	-3.163829e+01	-7.234459e+01
7.100000e-07	-4.532316e-06	-1.101430e-09	-3.144806e+01	-7.216138e+01
7.200000e-07	-4.504785e-06	-1.108543e-09	-3.125703e+01	-7.197682e+01
7.300000e-07	-4.477121e-06	-1.091232e-09	-3.106508e+01	-7.179095e+01
7.400000e-07	-4.449268e-06	-1.092585e-09	-3.087182e+01	-7.160382e+01
7.500000e-07	-4.421156e-06	-1.100532e-09	-3.067676e+01	-7.141545e+01
7.600000e-07	-4.392651e-06	-1.095223e-09	-3.047898e+01	-7.122586e+01
7.700000e-07	-4.363723e-06	-1.092173e-09	-3.027826e+01	-7.103507e+01
7.800000e-07	-4.334491e-06	-1.099113e-09	-3.007542e+01	-7.084309e+01
7.900000e-07	-4.305011e-06	-1.086116e-09	-2.987087e+01	-7.064991e+01
8.000000e-07	-4.275251e-06	-1.076280e-09	-2.966438e+01	-7.045550e+01
8.100000e-07	-4.245227e-06	-1.079364e-09	-2.945605e+01	-7.025986e+01
8.200000e-07	-4.214871e-06	-1.076679e-09	-2.924542e+01	-7.006294e+01
8.300000e-07	-4.184158e-06	-1.065728e-09	-2.903232e+01	-6.986469e+01
8.400000e-07	-4.153127e-06	-1.073505e-09	-2.881701e+01	-6.966506e+01
8.500000e-07	-4.121860e-06	-1.077761e-09	-2.860005e+01	-6.946398e+01
8.600000e-07	-4.090467e-06	-1.066656e-09	-2.838223e+01	-6.926137e+01
8.700000e-07	-4.058958e-06	-1.061738e-09	-2.816360e+01	-6.905715e+01
8.800000e-07	-4.027338e-06	-1.065603e-09	-2.794421e+01	-6.885121e+01
8.900000e-07	-3.995533e-06	-1.055744e-09	-2.772352e+01	-6.864343e+01
9.000000e-07	-3.963382e-06	-1.047556e-09	-2.750043e+01	-6.843371e+01
9.100000e-07	-3.930879e-06	-1.049619e-09	-2.727491e+01	-6.822189e+01
9.200000e-07	-3.897997e-06	-1.042445e-09	-2.704676e+01	-6.800784e+01
9.300000e-07	-3.864617e-06	-1.030237e-09	-2.681514e+01	-6.779141e+01
9.400000e-07	-3.830754e-06	-1.030587e-09	-2.658018e+01	-6.757242e+01
9.500000e-07	-3.796485e-06	-1.032969e-09	-2.634240e+01	-6.735071e+01
9.600000e-07	-3.761806e-06	-1.025520e-09	-2.610177e+01	-6.712610e+01
9.700000e-07	-3.726741e-06	-1.025719e-09	-2.585847e+01	-6.689838e+01
9.800000e-07	-3.691436e-06	-1.027305e-09	-2.561351e+01	-6.666737e+01
9.900000e-07	-3.655937e-06	-1.016633e-09	-2.536719e+01	-6.643286e+01
1.000000e-06	-3.620303e-06	-1.002651e-09	-2.511994e+01	-6.619463e+01
1.010000e-06	-3.584586e-06	-9.980051e-10	-2.487211e+01	-6.595248e+01
1.020000e-06	-3.548709e-06	-9.906171e-10	-2.462317e+01	-6.570619e+01
1.030000e-06	-3.512634e-06	-9.836558e-10	-2.437286e+01	-6.545553e+01
1.040000e-06	-3.476288e-06	-9.848344e-10	-2.412067e+01	-6.520029e+01
1.050000e-06	-3.439672e-06	-9.866803e-10	-2.386661e+01	-6.494024e+01
1.060000e-06	-3.402793e-06	-9.771762e-10	-2.361072e+01	-6.467516e+01
1.070000e-06	-3.365618e-06	-9.699772e-10	-2.335277e+01	-6.440483e+01
1.080000e-06	-3.328245e-06	-9.635678e-10	-2.309346e+01	-6.412905e+01
1.090000e-06	-3.290690e-06	-9.541652e-10	-2.283288e+01	-6.384760e+01
1.100000e-06	-3.252902e-06	-9.458939e-10	-2.257068e+01	-6.356028e+01
1.110000e-06	-3.214866e-06	-9.421930e-10	-2.230676e+01	-6.326689e+01
1.120000e-06	-3.176583e-06	-9.344393e-10	-2.204113e+01	-6.296726e+01
1.130000e-06	-3.138035e-06	-9.268393e-10	-2.177366e+01	-6.266120e+01
1.140000e-06	-3.099222e-06	-9.237602e-10	-2.150435e+01	-6.234855e+01
1.150000e-06	-3.060246e-06	-9.209328e-10	-2.123391e+01	-6.202915e+01
1.160000e-06	-3.021107e-06	-9.138800e-10	-2.096234e+01	-6.170288e+01
1.170000e-06	-2.981772e-06	-9.079946e-10	-2.068941e+01	-6.136959e+01
1.180000e-06	-2.942303e-06	-9.032212e-10	-2.041555e+01	-6.102919e+01
1.190000e-06	-2.902715e-06	-8.988283e-10	-2.014086e+01	-6.068156e+01
1.200000e-06	-2.863001e-06	-8.958951e-10	-1.986530e+01	-6.032663e+01
1.210000e-06	-2.823137e-06	-8.927415e-10	-1.958870e+01	-5.996433e+01
1.220000e-06	-2.783150e-06	-8.863273e-10	-1.931125e+01	-5.959459e+01
1.230000e-06	-2.742974e-06	-8.784812e-10	-1.903248e+01	-5.921739e+01
1.240000e-06	-2.702512e-06	-8.715713e-10	-1.875173e+01	-5.883269e+01
1.250000e-06	-2.661785e-06	-8.634274e-10	-1.846914e+01	-5.844047e+01
1.260000e-06	-2.620805e-06	-8.586088e-10	-1.818479e+01	-5.804074e+01
1.270000e-06	-2.579531e-06	-8.581804e-10	-1.789841e+01	-5.763349e+01
1.280000e-06	-2.537915e-06	-8.581770e-10	-1.760965e+01	-5.721875e+01
1.290000e-06	-2.495986e-06	-8.541714e-10	-1.731872e+01	-5.679654e+01
1.300000e-06	-2.453802e-06	-8.479638e-10	-1.702602e+01	-5.636688e+01
1.310000e-06	-2.411317e-06	-8.385350e-10	-1.673123e+01	-5.592981e+01
1.320000e-06	-2.368460e-06	-8.257216e-10	-1.643387e+01	-5.548535e+01
1.330000e-06	-2.325407e-06	-8.148271e-10	-1.613513e+01	-5.503356e+01
1.340000e-06	-2.282286e-06	-8.093926e-10	-1.583594e+01	-5.457445e+01
1.350000e-06	-2.238965e-06	-8.048648e-10	-1.553535e+01	-5.410805e+01
1.360000e-06	-2.195452e-06	-8.009621e-10	-1.523342e+01	-5.363438e+01
1.370000e-06	-2.151847e-06	-7.967781e-10	-1.493087e+01	-5.315345e+01
1.380000e-06	-2.108182e-06	-7.921236e-10	-1.462789e+01	-5.266525e+01
1.390000e-06	-2.064490e-06	-7.843766e-10	-1.432473e+01	-5.216976e+01
1.400000e-06	-2.020748e-06	-7.739467e-10	-1.402122e+01	-5.166696e+01
1.410000e-06	-1.976899e-06	-7.620965e-10	-1.371697e+01	-5.115677e+01
1.420000e-06	-1.932940e-06	-7.495064e-10	-1.341196e+01	-5.063913e+01
1.430000e-06	-1.888866e-06	-7.393050e-10	-1.310614e+01	-5.011392e+01
1.440000e-06	-1.844629e-06	-7.329029e-10	-1.279920e+01	-4.958103e+01
1.450000e-06	-1.800261e-06	-7.283022e-10	-1.249135e+01	-4.904029e+01
1.460000e-06	-1.755732e-06	-7.206887e-10	-1.218238e+01	-4.849152e+01
1.470000e-06	-1.711015e-06	-7.086019e-10	-1.187210e+01	-4.793450e+01
1.480000e-06	-1.666219e-06	-6.951302e-10	-1.156128e+01	-4.736899e+01
1.490000e-06	-1.621317e-06	-6.812931e-10	-1.124972e+01	-4.679470e+01
1.500000e-06	-1.576302e-06	-6.702075e-10	-1.093738e+01	-4.621132e+01
1.510000e-06	-1.531223e-06	-6.605556e-10	-1.062459e+01	-4.561852e+01
1.520000e-06	-1.486004e-06	-6.499109e-10	-1.031083e+01	-4.501589e+01
1.530000e-06	-1.440630e-06	-6.350314e-10	-9.996000e+00	-4.440305e+01
1.540000e-06	-1.395151e-06	-6.196718e-10	-9.680437e+00	-4.377956e+01
1.550000e-06	-1.349546e-06	-6.061683e-10	-9.364002e+00	-4.314493e+01
1.560000e-06	-1.303904e-06	-5.918631e-10	-9.047307e+00	-4.249868e+01
1.570000e-06	-1.258348e-06	-5.802010e-10	-8.731208e+00	-4.184029e+01
1.580000e-06	-1.212729e-06	-5.714873e-10	-8.414676e+00	-4.116922e+01
1.590000e-06	-1.166858e-06	-5.629117e-10	-8.096395e+00	-4.048489e+01
1.600000e-06	-1.120868e-06	-5.541903e-10	-7.777288e+00	-3.978675e+01
1.610000e-06	-1.074936e-06	-5.416616e-10	-7.458585e+00	-3.907420e+01
1.620000e-06	-1.028961e-06	-5.271169e-10	-7.139577e+00	-3.834663e+01
1.630000e-06	-9.828139e-07	-5.128198e-10	-6.819381e+00	-3.760346e+01
1.640000e-06	-9.365365e-07	-4.967860e-10	-6.498279e+00	-3.684408e+01
1.650000e-06	-8.901632e-07	-4.815228e-10	-6.176512e+00	-3.606789e+01
1.660000e-06	-8.437161e-07	-4.672276e-10	-5.854233e+00	-3.527432e+01
1.670000e-06	-7.972907e-07	-4.557187e-10	-5.532104e+00	-3.446279e+01
1.680000e-06	-7.508507e-07	-4.465443e-10	-5.209874e+00	-3.363276e+01
1.690000e-06	-7.042655e-07	-4.386127e-10	-4.886637e+00	-3.278371e+01
1.700000e-06	-6.575779e-07	-4.275807e-10	-4.562689e+00	-3.191515e+01
1.710000e-06	-6.109296e-07	-4.115773e-10	-4.239014e+00	-3.102663e+01
1.720000e-06	-5.642863e-07	-3.932689e-10	-3.915374e+00	-3.011775e+01
1.730000e-06	-5.174769e-07	-3.737192e-10	-3.590580e+00	-2.918813e+01
1.740000e-06	-4.705877e-07	-3.563915e-10	-3.265233e+00	-2.823747e+01
1.750000e-06	-4.237246e-07	-3.435714e-10	-2.940068e+00	-2.726552e+01
1.760000e-06	-3.769065e-07	-3.328691e-10	-2.615215e+00	-2.627209e+01
1.770000e-06	-3.301267e-07	-3.235979e-10	-2.290627e+00	-2.525706e+01
1.780000e-06	-2.832016e-07	-3.137875e-10	-1.965031e+00	-2.422037e+01
1.790000e-06	-2.361887e-07	-2.992869e-10	-1.638826e+00	-2.316204e+01
1.800000e-06	-1.891792e-07	-2.793789e-10	-1.312644e+00	-2.208218e+01
1.810000e-06	-1.421732e-07	-2.590967e-10	-9.864871e-01	-2.098094e+01
1.820000e-06	-9.524694e-08	-2.403490e-10	-6.608832e-01	-1.985860e+01
1.830000e-06	-4.832162e-08	-2.226549e-10	-3.352858e-01	-1.871549e+01
1.840000e-06	-1.406844e-09	-2.074484e-10	-9.761569e-03	-1.755203e+01
1.850000e-06	4.548378e-08	-1.952137e-10	3.155951e-01	-1.636873e+01
1.860000e-06	9.232187e-08	-1.823784e-10	6.405872e-01	-1.516618e+01
1.870000e-06	1.391752e-07	-1.684571e-10	9.656852e-01	-1.394506e+01
1.880000e-06	1.861517e-07	-1.534414e-10	1.291638e+00	-1.270611e+01
1.890000e-06	2.331462e-07	-1.354870e-10	1.617715e+00	-1.145019e+01
1.900000e-06	2.801631e-07	-1.157356e-10	1.943948e+00	-1.017819e+01
1.910000e-06	3.271663e-07	-9.588442e-11	2.270085e+00	-8.891119e+00
1.920000e-06	3.740225e-07	-7.638041e-11	2.595204e+00	-7.590027e+00
1.930000e-06	4.207814e-07	-5.742460e-11	2.919646e+00	-6.276042e+00
1.940000e-06	4.675271e-07	-4.079330e-11	3.243997e+00	-4.950353e+00
1.950000e-06	5.142465e-07	-2.531313e-11	3.568165e+00	-3.614206e+00
1.960000e-06	5.608592e-07	-1.009634e-11	3.891594e+00	-2.268900e+00
1.970000e-06	6.074041e-07	6.090500e-12	4.214552e+00	-9.157760e-01
1.980000e-06	6.539236e-07	2.550331e-11	4.537333e+00	4.437824e-01
1.990000e-06	7.003460e-07	4.700197e-11	4.859441e+00	1.808361e+00
2.000000e-06	7.467561e-07	6.927779e-11	5.181463e+00	3.176518e+00
2.010000e-06	7.932089e-07	8.972547e-11	5.503782e+00	4.546795e+00
2.020000e-06	8.396128e-07	1.072536e-10	5.825761e+00	5.917722e+00
2.030000e-06	8.859007e-07	1.253947e-10	6.146936e+00	7.287824e+00
2.040000e-06	9.320977e-07	1.431478e-10	6.467480e+00	8.655629e+00
2.050000e-06	9.782778e-07	1.615768e-10	6.787907e+00	1.001968e+01
2.060000e-06	1.024396e-06	1.795198e-10	7.107902e+00	1.137853e+01
2.070000e-06	1.070334e-06	1.979467e-10	7.426648e+00	1.273076e+01
2.080000e-06	1.116197e-06	2.152459e-10	7.744878e+00	1.407500e+01
2.090000e-06	1.162037e-06	2.333057e-10	8.062940e+00	1.540988e+01
2.100000e-06	1.207729e-06	2.523061e-10	8.379986e+00	1.673412e+01
2.110000e-06	1.253339e-06	2.721690e-10	8.696456e+00	1.804646e+01
2.120000e-06	1.298928e-06	2.922828e-10	9.012781e+00	1.934571e+01
2.130000e-06	1.344421e-06	3.117676e-10	9.328438e+00	2.063075e+01
2.140000e-06	1.389818e-06	3.302636e-10	9.643432e+00	2.190049e+01
2.150000e-06	1.435175e-06	3.464615e-10	9.958150e+00	2.315397e+01
2.160000e-06	1.480453e-06	3.623169e-10	1.027232e+01	2.439025e+01
2.170000e-06	1.525568e-06	3.774504e-10	1.058535e+01	2.560849e+01
2.180000e-06	1.570558e-06	3.943246e-10	1.089752e+01	2.680795e+01
2.190000e-06	1.615431e-06	4.137674e-10	1.120888e+01	2.798793e+01
2.200000e-06	1.660148e-06	4.329941e-10	1.151915e+01	2.914786e+01
2.210000e-06	1.704775e-06	4.502340e-10	1.182880e+01	3.028721e+01
2.220000e-06	1.749241e-06	4.659051e-10	1.213733e+01	3.140557e+01
2.230000e-06	1.793497e-06	4.798960e-10	1.244441e+01	3.250260e+01
2.240000e-06	1.837575e-06	4.925235e-10	1.275025e+01	3.357803e+01
2.250000e-06	1.881545e-06	5.078514e-10	1.305534e+01	3.463169e+01
2.260000e-06	1.925474e-06	5.251323e-10	1.336015e+01	3.566349e+01
2.270000e-06	1.969333e-06	5.403936e-10	1.366447e+01	3.667339e+01
2.280000e-06	2.013123e-06	5.543986e-10	1.396831e+01	3.766145e+01
2.290000e-06	2.056842e-06	5.661999e-10	1.427166e+01	3.862779e+01
2.300000e-06	2.100537e-06	5.769071e-10	1.457485e+01	3.957259e+01
2.310000e-06	2.144213e-06	5.882870e-10	1.487790e+01	4.049610e+01
2.320000e-06	2.187803e-06	6.019056e-10	1.518035e+01	4.139862e+01
2.330000e-06	2.231255e-06	6.159553e-10	1.548185e+01	4.228049e+01
2.340000e-06	2.274621e-06	6.309574e-10	1.578275e+01	4.314210e+01
2.350000e-06	2.317880e-06	6.453161e-10	1.608291e+01	4.398391e+01
2.360000e-06	2.360919e-06	6.578360e-10	1.638154e+01	4.480636e+01
2.370000e-06	2.403692e-06	6.671393e-10	1.667833e+01	4.560996e+01
2.380000e-06	2.446179e-06	6.748356e-10	1.697313e+01	4.639522e+01
2.390000e-06	2.488416e-06	6.844192e-10	1.726620e+01	4.716269e+01
2.400000e-06	2.530414e-06	6.964027e-10	1.755760e+01	4.791289e+01
2.410000e-06	2.572117e-06	7.116519e-10	1.784697e+01	4.864640e+01
2.420000e-06	2.613515e-06	7.285912e-10	1.813421e+01	4.936375e+01
2.430000e-06	2.654572e-06	7.435677e-10	1.841909e+01	5.006549e+01
2.440000e-06	2.695273e-06	7.560991e-10	1.870150e+01	5.075217e+01
2.450000e-06	2.735643e-06	7.665290e-10	1.898161e+01	5.142431e+01
2.460000e-06	2.775779e-06	7.732757e-10	1.926010e+01	5.208241e+01
2.470000e-06	2.815798e-06	7.775756e-10	1.953777e+01	5.272696e+01
2.480000e-06	2.855695e-06	7.830187e-10	1.981461e+01	5.335843e+01
2.490000e-06	2.895413e-06	7.905956e-10	2.009019e+01	5.397725e+01
2.500000e-06	2.934983e-06	8.021828e-10	2.036476e+01	5.458382e+01
2.510000e-06	2.974463e-06	8.152045e-10	2.063869e+01	5.517852e+01
2.520000e-06	3.013810e-06	8.253865e-10	2.091171e+01	5.576168e+01
2.530000e-06	3.052955e-06	8.326392e-10	2.118333e+01	5.633363e+01
2.540000e-06	3.091849e-06	8.373476e-10	2.145319e+01	5.689462e+01
2.550000e-06	3.130501e-06	8.421138e-10	2.172138e+01	5.744489e+01
2.560000e-06	3.168953e-06	8.487009e-10	2.198819e+01	5.798467e+01
2.570000e-06	3.207133e-06	8.563180e-10	2.225311e+01	5.851410e+01
2.580000e-06	3.245039e-06	8.625960e-10	2.251612e+01	5.903334e+01
2.590000e-06	3.282745e-06	8.673491e-10	2.277775e+01	5.954250e+01
2.600000e-06	3.320260e-06	8.726699e-10	2.303805e+01	6.004165e+01
2.610000e-06	3.357606e-06	8.801677e-10	2.329718e+01	6.053086e+01
2.620000e-06	3.394801e-06	8.881249e-10	2.355527e+01	6.101015e+01
2.630000e-06	3.431771e-06	8.948653e-10	2.381179e+01	6.147954e+01
2.640000e-06	3.468478e-06	9.003581e-10	2.406648e+01	6.193902e+01
2.650000e-06	3.504961e-06	9.055988e-10	2.431962e+01	6.238857e+01
2.660000e-06	3.541194e-06	9.107531e-10	2.457103e+01	6.282816e+01
2.670000e-06	3.577191e-06	9.136271e-10	2.482080e+01	6.325776e+01
2.680000e-06	3.612955e-06	9.152176e-10	2.506896e+01	6.367731e+01
2.690000e-06	3.648548e-06	9.194100e-10	2.531592e+01	6.408677e+01
2.700000e-06	3.684052e-06	9.256516e-10	2.556227e+01	6.448610e+01
2.710000e-06	3.719434e-06	9.327041e-10	2.580777e+01	6.487527e+01
2.720000e-06	3.754635e-06	9.426080e-10	2.605202e+01	6.525424e+01
2.730000e-06	3.789530e-06	9.544497e-10	2.629414e+01	6.562300e+01
2.740000e-06	3.823958e-06	9.634274e-10	2.653302e+01	6.598153e+01
2.750000e-06	3.857893e-06	9.667996e-10	2.676849e+01	6.632987e+01
2.760000e-06	3.891343e-06	9.685452e-10	2.700058e+01	6.666803e+01
2.770000e-06	3.924346e-06	9.713089e-10	2.722958e+01	6.699607e+01
2.780000e-06	3.956880e-06	9.739347e-10	2.745532e+01	6.731407e+01
2.790000e-06	3.989048e-06	9.798714e-10	2.767852e+01	6.762211e+01
2.800000e-06	4.021011e-06	9.890236e-10	2.790030e+01	6.792034e+01
2.810000e-06	4.052727e-06	9.979373e-10	2.812037e+01	6.820889e+01
2.820000e-06	4.084293e-06	1.004671e-09	2.833939e+01	6.848793e+01
2.830000e-06	4.115761e-06	1.008741e-09	2.855774e+01	6.875768e+01
2.840000e-06	4.147009e-06	1.009873e-09	2.877455e+01	6.901834e+01
2.850000e-06	4.177920e-06	1.011713e-09	2.898904e+01	6.927017e+01
2.860000e-06	4.208523e-06	1.016871e-09	2.920138e+01	6.951344e+01
2.870000e-06	4.238957e-06	1.021527e-09	2.941255e+01	6.974844e+01
2.880000e-06	4.269054e-06	1.026661e-09	2.962138e+01	6.997548e+01
2.890000e-06	4.298744e-06	1.032428e-09	2.982739e+01	7.019490e+01
2.900000e-06	4.328208e-06	1.037441e-09	3.003183e+01	7.040705e+01
