# Temperatura_=_-0.37
# Concentracion g/m^3_=_1620.0
# C_Vs_to_Am_M_A/Vsm_=_65563218390.804596
# pendiente_HvsI_1/m_=_3716.3
# ordenada_HvsI_A/m_=_1297.0
# frecuencia_Hz_=_135094.21675604448

Tiempo_(s)	Campo_(V.s)	Magnetizacion_(V.s)	Campo_(kA/m)	Magnetizacion_(A/m)
0.000000e+00	-5.522592e-06	-1.376919e-09	-3.837035e+01	-9.045355e+01
1.000000e-08	-5.522850e-06	-1.380009e-09	-3.837214e+01	-9.047513e+01
2.000000e-08	-5.522941e-06	-1.382033e-09	-3.837277e+01	-9.049673e+01
3.000000e-08	-5.522711e-06	-1.383499e-09	-3.837117e+01	-9.051827e+01
4.000000e-08	-5.522076e-06	-1.382179e-09	-3.836676e+01	-9.053964e+01
5.000000e-08	-5.520986e-06	-1.379339e-09	-3.835919e+01	-9.056072e+01
6.000000e-08	-5.519226e-06	-1.374647e-09	-3.834696e+01	-9.058136e+01
7.000000e-08	-5.516769e-06	-1.358189e-09	-3.832989e+01	-9.060140e+01
8.000000e-08	-5.513734e-06	-1.346946e-09	-3.830880e+01	-9.062065e+01
9.000000e-08	-5.510201e-06	-1.377795e-09	-3.828425e+01	-9.063892e+01
1.000000e-07	-5.506258e-06	-1.427607e-09	-3.825686e+01	-9.065599e+01
1.100000e-07	-5.501992e-06	-1.373869e-09	-3.822722e+01	-9.067162e+01
1.200000e-07	-5.497574e-06	-1.316231e-09	-3.819652e+01	-9.068559e+01
1.300000e-07	-5.492947e-06	-1.310176e-09	-3.816438e+01	-9.069762e+01
1.400000e-07	-5.487931e-06	-1.393295e-09	-3.812953e+01	-9.070747e+01
1.500000e-07	-5.482469e-06	-1.368463e-09	-3.809158e+01	-9.071485e+01
1.600000e-07	-5.476589e-06	-1.298527e-09	-3.805072e+01	-9.071951e+01
1.700000e-07	-5.470350e-06	-1.311028e-09	-3.800738e+01	-9.072115e+01
1.800000e-07	-5.463735e-06	-1.411291e-09	-3.796141e+01	-9.071950e+01
1.900000e-07	-5.456770e-06	-1.423576e-09	-3.791302e+01	-9.071428e+01
2.000000e-07	-5.449438e-06	-1.349626e-09	-3.786208e+01	-9.070522e+01
2.100000e-07	-5.441805e-06	-1.343080e-09	-3.780905e+01	-9.069204e+01
2.200000e-07	-5.433945e-06	-1.412902e-09	-3.775444e+01	-9.067448e+01
2.300000e-07	-5.425807e-06	-1.434542e-09	-3.769790e+01	-9.065229e+01
2.400000e-07	-5.417377e-06	-1.381658e-09	-3.763932e+01	-9.062522e+01
2.500000e-07	-5.408421e-06	-1.388351e-09	-3.757710e+01	-9.059304e+01
2.600000e-07	-5.398625e-06	-1.420120e-09	-3.750904e+01	-9.055553e+01
2.700000e-07	-5.388033e-06	-1.414201e-09	-3.743544e+01	-9.051248e+01
2.800000e-07	-5.376906e-06	-1.360387e-09	-3.735813e+01	-9.046371e+01
2.900000e-07	-5.365387e-06	-1.372037e-09	-3.727811e+01	-9.040903e+01
3.000000e-07	-5.353562e-06	-1.399551e-09	-3.719595e+01	-9.034831e+01
3.100000e-07	-5.341345e-06	-1.410634e-09	-3.711106e+01	-9.028139e+01
3.200000e-07	-5.328692e-06	-1.364272e-09	-3.702315e+01	-9.020818e+01
3.300000e-07	-5.315647e-06	-1.375277e-09	-3.693252e+01	-9.012857e+01
3.400000e-07	-5.302279e-06	-1.391295e-09	-3.683964e+01	-9.004248e+01
3.500000e-07	-5.288630e-06	-1.390649e-09	-3.674480e+01	-8.994986e+01
3.600000e-07	-5.274523e-06	-1.347256e-09	-3.664679e+01	-8.985067e+01
3.700000e-07	-5.259859e-06	-1.371719e-09	-3.654491e+01	-8.974490e+01
3.800000e-07	-5.244703e-06	-1.391490e-09	-3.643961e+01	-8.963255e+01
3.900000e-07	-5.229055e-06	-1.370616e-09	-3.633088e+01	-8.951364e+01
4.000000e-07	-5.212880e-06	-1.350295e-09	-3.621850e+01	-8.938822e+01
4.100000e-07	-5.196238e-06	-1.384324e-09	-3.610288e+01	-8.925634e+01
4.200000e-07	-5.179231e-06	-1.369586e-09	-3.598472e+01	-8.911807e+01
4.300000e-07	-5.161972e-06	-1.324205e-09	-3.586480e+01	-8.897351e+01
4.400000e-07	-5.144459e-06	-1.355883e-09	-3.574312e+01	-8.882276e+01
4.500000e-07	-5.126605e-06	-1.391729e-09	-3.561908e+01	-8.866594e+01
4.600000e-07	-5.108323e-06	-1.346070e-09	-3.549205e+01	-8.850317e+01
4.700000e-07	-5.089626e-06	-1.318729e-09	-3.536214e+01	-8.833461e+01
4.800000e-07	-5.070536e-06	-1.359749e-09	-3.522951e+01	-8.816040e+01
4.900000e-07	-5.051088e-06	-1.341650e-09	-3.509439e+01	-8.798069e+01
5.000000e-07	-5.031431e-06	-1.311641e-09	-3.495782e+01	-8.779566e+01
5.100000e-07	-5.011624e-06	-1.338913e-09	-3.482020e+01	-8.760548e+01
5.200000e-07	-4.991623e-06	-1.343722e-09	-3.468123e+01	-8.741031e+01
5.300000e-07	-4.971257e-06	-1.294102e-09	-3.453973e+01	-8.721035e+01
5.400000e-07	-4.950551e-06	-1.322734e-09	-3.439587e+01	-8.700576e+01
5.500000e-07	-4.929486e-06	-1.351914e-09	-3.424951e+01	-8.679674e+01
5.600000e-07	-4.907936e-06	-1.309153e-09	-3.409978e+01	-8.658345e+01
5.700000e-07	-4.886123e-06	-1.286051e-09	-3.394823e+01	-8.636608e+01
5.800000e-07	-4.864061e-06	-1.324950e-09	-3.379495e+01	-8.614481e+01
5.900000e-07	-4.841537e-06	-1.301482e-09	-3.363845e+01	-8.591980e+01
6.000000e-07	-4.818508e-06	-1.273783e-09	-3.347845e+01	-8.569123e+01
6.100000e-07	-4.795222e-06	-1.297299e-09	-3.331666e+01	-8.545926e+01
6.200000e-07	-4.771723e-06	-1.301935e-09	-3.315339e+01	-8.522404e+01
6.300000e-07	-4.747933e-06	-1.263243e-09	-3.298811e+01	-8.498572e+01
6.400000e-07	-4.723965e-06	-1.275684e-09	-3.282158e+01	-8.474446e+01
6.500000e-07	-4.699782e-06	-1.288427e-09	-3.265355e+01	-8.450037e+01
6.600000e-07	-4.675205e-06	-1.265891e-09	-3.248280e+01	-8.425360e+01
6.700000e-07	-4.650069e-06	-1.261176e-09	-3.230815e+01	-8.400426e+01
6.800000e-07	-4.624348e-06	-1.276279e-09	-3.212945e+01	-8.375247e+01
6.900000e-07	-4.598042e-06	-1.254676e-09	-3.194668e+01	-8.349833e+01
7.000000e-07	-4.571285e-06	-1.245333e-09	-3.176077e+01	-8.324193e+01
7.100000e-07	-4.544195e-06	-1.258002e-09	-3.157256e+01	-8.298336e+01
7.200000e-07	-4.516794e-06	-1.246554e-09	-3.138218e+01	-8.272269e+01
7.300000e-07	-4.489156e-06	-1.229062e-09	-3.119015e+01	-8.246001e+01
7.400000e-07	-4.461306e-06	-1.240984e-09	-3.099665e+01	-8.219536e+01
7.500000e-07	-4.433260e-06	-1.245257e-09	-3.080179e+01	-8.192880e+01
7.600000e-07	-4.405009e-06	-1.229457e-09	-3.060551e+01	-8.166037e+01
7.700000e-07	-4.376536e-06	-1.231560e-09	-3.040768e+01	-8.139012e+01
7.800000e-07	-4.347717e-06	-1.230787e-09	-3.020745e+01	-8.111805e+01
7.900000e-07	-4.318489e-06	-1.215199e-09	-3.000437e+01	-8.084421e+01
8.000000e-07	-4.288980e-06	-1.211319e-09	-2.979935e+01	-8.056858e+01
8.100000e-07	-4.259202e-06	-1.218947e-09	-2.959245e+01	-8.029118e+01
8.200000e-07	-4.229110e-06	-1.205435e-09	-2.938338e+01	-8.001201e+01
8.300000e-07	-4.198764e-06	-1.199839e-09	-2.917254e+01	-7.973104e+01
8.400000e-07	-4.168128e-06	-1.202306e-09	-2.895968e+01	-7.944825e+01
8.500000e-07	-4.137129e-06	-1.194712e-09	-2.874431e+01	-7.916362e+01
8.600000e-07	-4.105888e-06	-1.182451e-09	-2.852725e+01	-7.887711e+01
8.700000e-07	-4.074451e-06	-1.185900e-09	-2.830883e+01	-7.858867e+01
8.800000e-07	-4.042820e-06	-1.179150e-09	-2.808906e+01	-7.829825e+01
8.900000e-07	-4.011040e-06	-1.168768e-09	-2.786825e+01	-7.800578e+01
9.000000e-07	-3.979088e-06	-1.164259e-09	-2.764625e+01	-7.771119e+01
9.100000e-07	-3.946937e-06	-1.161604e-09	-2.742287e+01	-7.741440e+01
9.200000e-07	-3.914458e-06	-1.146864e-09	-2.719721e+01	-7.711533e+01
9.300000e-07	-3.881515e-06	-1.144157e-09	-2.696833e+01	-7.681387e+01
9.400000e-07	-3.848119e-06	-1.146145e-09	-2.673629e+01	-7.650992e+01
9.500000e-07	-3.814261e-06	-1.141647e-09	-2.650106e+01	-7.620337e+01
9.600000e-07	-3.779927e-06	-1.136040e-09	-2.626251e+01	-7.589409e+01
9.700000e-07	-3.745132e-06	-1.135949e-09	-2.602075e+01	-7.558194e+01
9.800000e-07	-3.709954e-06	-1.126030e-09	-2.577634e+01	-7.526679e+01
9.900000e-07	-3.674508e-06	-1.113837e-09	-2.553007e+01	-7.494849e+01
1.000000e-06	-3.638876e-06	-1.110570e-09	-2.528250e+01	-7.462686e+01
1.010000e-06	-3.603154e-06	-1.107026e-09	-2.503431e+01	-7.430176e+01
1.020000e-06	-3.567330e-06	-1.098107e-09	-2.478541e+01	-7.397299e+01
1.030000e-06	-3.531344e-06	-1.097265e-09	-2.453538e+01	-7.364037e+01
1.040000e-06	-3.495188e-06	-1.098477e-09	-2.428417e+01	-7.330372e+01
1.050000e-06	-3.458820e-06	-1.090309e-09	-2.403149e+01	-7.296282e+01
1.060000e-06	-3.422223e-06	-1.080323e-09	-2.377722e+01	-7.261747e+01
1.070000e-06	-3.385340e-06	-1.071927e-09	-2.352096e+01	-7.226746e+01
1.080000e-06	-3.348100e-06	-1.064691e-09	-2.326222e+01	-7.191256e+01
1.090000e-06	-3.310671e-06	-1.059439e-09	-2.300217e+01	-7.155256e+01
1.100000e-06	-3.273095e-06	-1.060106e-09	-2.274109e+01	-7.118721e+01
1.110000e-06	-3.235252e-06	-1.053437e-09	-2.247817e+01	-7.081629e+01
1.120000e-06	-3.197176e-06	-1.044632e-09	-2.221362e+01	-7.043956e+01
1.130000e-06	-3.158829e-06	-1.038802e-09	-2.194719e+01	-7.005679e+01
1.140000e-06	-3.120224e-06	-1.033078e-09	-2.167896e+01	-6.966772e+01
1.150000e-06	-3.081429e-06	-1.022143e-09	-2.140942e+01	-6.927213e+01
1.160000e-06	-3.042524e-06	-1.014083e-09	-2.113911e+01	-6.886977e+01
1.170000e-06	-3.003418e-06	-1.007108e-09	-2.086741e+01	-6.846040e+01
1.180000e-06	-2.963975e-06	-1.000593e-09	-2.059336e+01	-6.804380e+01
1.190000e-06	-2.924362e-06	-9.925602e-10	-2.031814e+01	-6.761972e+01
1.200000e-06	-2.884683e-06	-9.882610e-10	-2.004245e+01	-6.718795e+01
1.210000e-06	-2.844889e-06	-9.823547e-10	-1.976597e+01	-6.674826e+01
1.220000e-06	-2.804960e-06	-9.747938e-10	-1.948855e+01	-6.630044e+01
1.230000e-06	-2.764840e-06	-9.675620e-10	-1.920980e+01	-6.584428e+01
1.240000e-06	-2.724555e-06	-9.615530e-10	-1.892990e+01	-6.537959e+01
1.250000e-06	-2.684142e-06	-9.534413e-10	-1.864912e+01	-6.490616e+01
1.260000e-06	-2.643493e-06	-9.476424e-10	-1.836669e+01	-6.442382e+01
1.270000e-06	-2.602586e-06	-9.440182e-10	-1.808248e+01	-6.393239e+01
1.280000e-06	-2.561438e-06	-9.385352e-10	-1.779658e+01	-6.343172e+01
1.290000e-06	-2.520006e-06	-9.291124e-10	-1.750872e+01	-6.292165e+01
1.300000e-06	-2.478348e-06	-9.179496e-10	-1.721928e+01	-6.240203e+01
1.310000e-06	-2.436470e-06	-9.065835e-10	-1.692832e+01	-6.187274e+01
1.320000e-06	-2.394229e-06	-8.975822e-10	-1.663483e+01	-6.133365e+01
1.330000e-06	-2.351615e-06	-8.898541e-10	-1.633875e+01	-6.078465e+01
1.340000e-06	-2.308693e-06	-8.855059e-10	-1.604054e+01	-6.022563e+01
1.350000e-06	-2.265564e-06	-8.811768e-10	-1.574089e+01	-5.965649e+01
1.360000e-06	-2.222263e-06	-8.713745e-10	-1.544004e+01	-5.907715e+01
1.370000e-06	-2.178806e-06	-8.590080e-10	-1.513810e+01	-5.848752e+01
1.380000e-06	-2.135240e-06	-8.465220e-10	-1.483541e+01	-5.788754e+01
1.390000e-06	-2.091546e-06	-8.344559e-10	-1.453183e+01	-5.727712e+01
1.400000e-06	-2.047759e-06	-8.206057e-10	-1.422760e+01	-5.665620e+01
1.410000e-06	-2.003879e-06	-8.102204e-10	-1.392273e+01	-5.602471e+01
1.420000e-06	-1.959914e-06	-8.010586e-10	-1.361726e+01	-5.538259e+01
1.430000e-06	-1.915897e-06	-7.900401e-10	-1.331143e+01	-5.472978e+01
1.440000e-06	-1.871820e-06	-7.775668e-10	-1.300520e+01	-5.406621e+01
1.450000e-06	-1.827631e-06	-7.669652e-10	-1.269817e+01	-5.339180e+01
1.460000e-06	-1.783352e-06	-7.550487e-10	-1.239053e+01	-5.270649e+01
1.470000e-06	-1.738918e-06	-7.407919e-10	-1.208181e+01	-5.201020e+01
1.480000e-06	-1.694315e-06	-7.239377e-10	-1.177191e+01	-5.130283e+01
1.490000e-06	-1.649703e-06	-7.084313e-10	-1.146195e+01	-5.058429e+01
1.500000e-06	-1.604959e-06	-6.932861e-10	-1.115107e+01	-4.985447e+01
1.510000e-06	-1.560070e-06	-6.796722e-10	-1.083919e+01	-4.911326e+01
1.520000e-06	-1.515119e-06	-6.687828e-10	-1.052687e+01	-4.836053e+01
1.530000e-06	-1.470038e-06	-6.562757e-10	-1.021366e+01	-4.759613e+01
1.540000e-06	-1.424748e-06	-6.407207e-10	-9.898987e+00	-4.681991e+01
1.550000e-06	-1.379263e-06	-6.281407e-10	-9.582966e+00	-4.603170e+01
1.560000e-06	-1.333712e-06	-6.158412e-10	-9.266478e+00	-4.523132e+01
1.570000e-06	-1.288084e-06	-6.032215e-10	-8.949465e+00	-4.441857e+01
1.580000e-06	-1.242399e-06	-5.914642e-10	-8.632046e+00	-4.359323e+01
1.590000e-06	-1.196638e-06	-5.809325e-10	-8.314108e+00	-4.275508e+01
1.600000e-06	-1.150750e-06	-5.680970e-10	-7.995281e+00	-4.190388e+01
1.610000e-06	-1.104857e-06	-5.541327e-10	-7.676419e+00	-4.103939e+01
1.620000e-06	-1.058977e-06	-5.413296e-10	-7.357650e+00	-4.016132e+01
1.630000e-06	-1.012907e-06	-5.307455e-10	-7.037567e+00	-3.926942e+01
1.640000e-06	-9.666498e-07	-5.191494e-10	-6.716174e+00	-3.836341e+01
1.650000e-06	-9.203804e-07	-5.035399e-10	-6.394699e+00	-3.744299e+01
1.660000e-06	-8.740632e-07	-4.880018e-10	-6.072893e+00	-3.650788e+01
1.670000e-06	-8.277860e-07	-4.712978e-10	-5.751364e+00	-3.555778e+01
1.680000e-06	-7.814985e-07	-4.562324e-10	-5.429763e+00	-3.459240e+01
1.690000e-06	-7.350281e-07	-4.415228e-10	-5.106893e+00	-3.361146e+01
1.700000e-06	-6.884907e-07	-4.292366e-10	-4.783556e+00	-3.261467e+01
1.710000e-06	-6.419302e-07	-4.147751e-10	-4.460059e+00	-3.160177e+01
1.720000e-06	-5.953555e-07	-3.975279e-10	-4.136463e+00	-3.057250e+01
1.730000e-06	-5.487271e-07	-3.788784e-10	-3.812494e+00	-2.952660e+01
1.740000e-06	-5.021069e-07	-3.609481e-10	-3.488582e+00	-2.846388e+01
1.750000e-06	-4.554571e-07	-3.449182e-10	-3.164464e+00	-2.738412e+01
1.760000e-06	-4.087299e-07	-3.305371e-10	-2.839809e+00	-2.628716e+01
1.770000e-06	-3.619830e-07	-3.149642e-10	-2.515017e+00	-2.517287e+01
1.780000e-06	-3.152215e-07	-3.006044e-10	-2.190123e+00	-2.404112e+01
1.790000e-06	-2.684076e-07	-2.869918e-10	-1.864866e+00	-2.289187e+01
1.800000e-06	-2.214638e-07	-2.693339e-10	-1.538706e+00	-2.172508e+01
1.810000e-06	-1.745035e-07	-2.480684e-10	-1.212431e+00	-2.054077e+01
1.820000e-06	-1.276137e-07	-2.250049e-10	-8.866458e-01	-1.933901e+01
1.830000e-06	-8.081565e-08	-2.041742e-10	-5.614980e-01	-1.811992e+01
1.840000e-06	-3.406279e-08	-1.862729e-10	-2.366644e-01	-1.688366e+01
1.850000e-06	1.279927e-08	-1.698481e-10	8.892792e-02	-1.563046e+01
1.860000e-06	5.968220e-08	-1.565951e-10	4.146652e-01	-1.436060e+01
1.870000e-06	1.064724e-07	-1.413770e-10	7.397583e-01	-1.307442e+01
1.880000e-06	1.532782e-07	-1.239912e-10	1.064959e+00	-1.177233e+01
1.890000e-06	2.001630e-07	-1.047944e-10	1.390710e+00	-1.045478e+01
1.900000e-06	2.470094e-07	-8.344526e-11	1.716194e+00	-9.122290e+00
1.910000e-06	2.937748e-07	-6.412191e-11	2.041114e+00	-7.775456e+00
1.920000e-06	3.405667e-07	-4.473381e-11	2.366219e+00	-6.414919e+00
1.930000e-06	3.873510e-07	-2.804584e-11	2.691271e+00	-5.041387e+00
1.940000e-06	4.340978e-07	-1.162356e-11	3.016063e+00	-3.655626e+00
1.950000e-06	4.808480e-07	4.497791e-12	3.340878e+00	-2.258462e+00
1.960000e-06	5.275519e-07	2.278025e-11	3.665371e+00	-8.507759e-01
1.970000e-06	5.740649e-07	4.348211e-11	3.988538e+00	5.664978e-01
1.980000e-06	6.204941e-07	6.568196e-11	4.311123e+00	1.992373e+00
1.990000e-06	6.669826e-07	8.829369e-11	4.634120e+00	3.425816e+00
2.000000e-06	7.134195e-07	1.099495e-10	4.956758e+00	4.865748e+00
2.010000e-06	7.598176e-07	1.308637e-10	5.279127e+00	6.311052e+00
2.020000e-06	8.061965e-07	1.508574e-10	5.601363e+00	7.760572e+00
2.030000e-06	8.524885e-07	1.693676e-10	5.922994e+00	9.213125e+00
2.040000e-06	8.986700e-07	1.876386e-10	6.243858e+00	1.066750e+01
2.050000e-06	9.447705e-07	2.054179e-10	6.564159e+00	1.212245e+01
2.060000e-06	9.907977e-07	2.248304e-10	6.883951e+00	1.357674e+01
2.070000e-06	1.036785e-06	2.454035e-10	7.203468e+00	1.502911e+01
2.080000e-06	1.082762e-06	2.680362e-10	7.522908e+00	1.647828e+01
2.090000e-06	1.128657e-06	2.901476e-10	7.841781e+00	1.792300e+01
2.100000e-06	1.174472e-06	3.107067e-10	8.160099e+00	1.936200e+01
2.110000e-06	1.220207e-06	3.320280e-10	8.477859e+00	2.079403e+01
2.120000e-06	1.265822e-06	3.517617e-10	8.794786e+00	2.221787e+01
2.130000e-06	1.311282e-06	3.704355e-10	9.110641e+00	2.363230e+01
2.140000e-06	1.356641e-06	3.887641e-10	9.425790e+00	2.503614e+01
2.150000e-06	1.401904e-06	4.072473e-10	9.740274e+00	2.642826e+01
2.160000e-06	1.447045e-06	4.250148e-10	1.005391e+01	2.780754e+01
2.170000e-06	1.492163e-06	4.443423e-10	1.036738e+01	2.917291e+01
2.180000e-06	1.537250e-06	4.644469e-10	1.068064e+01	3.052337e+01
2.190000e-06	1.582225e-06	4.812198e-10	1.099312e+01	3.185794e+01
2.200000e-06	1.627027e-06	4.979251e-10	1.130440e+01	3.317572e+01
2.210000e-06	1.671662e-06	5.157938e-10	1.161452e+01	3.447586e+01
2.220000e-06	1.716225e-06	5.341233e-10	1.192414e+01	3.575756e+01
2.230000e-06	1.760654e-06	5.534627e-10	1.223283e+01	3.702011e+01
2.240000e-06	1.804898e-06	5.698592e-10	1.254023e+01	3.826285e+01
2.250000e-06	1.849067e-06	5.834537e-10	1.284711e+01	3.948519e+01
2.260000e-06	1.893123e-06	5.960459e-10	1.315321e+01	4.068662e+01
2.270000e-06	1.937062e-06	6.116706e-10	1.345849e+01	4.186668e+01
2.280000e-06	1.980948e-06	6.285010e-10	1.376341e+01	4.302500e+01
2.290000e-06	2.024718e-06	6.453849e-10	1.406751e+01	4.416127e+01
2.300000e-06	2.068428e-06	6.614712e-10	1.437121e+01	4.527525e+01
2.310000e-06	2.112129e-06	6.774339e-10	1.467484e+01	4.636678e+01
2.320000e-06	2.155797e-06	6.934892e-10	1.497824e+01	4.743577e+01
2.330000e-06	2.199331e-06	7.074042e-10	1.528071e+01	4.848216e+01
2.340000e-06	2.242659e-06	7.188440e-10	1.558174e+01	4.950600e+01
2.350000e-06	2.285816e-06	7.302625e-10	1.588159e+01	5.050736e+01
2.360000e-06	2.328806e-06	7.425711e-10	1.618028e+01	5.148641e+01
2.370000e-06	2.371563e-06	7.548829e-10	1.647735e+01	5.244333e+01
2.380000e-06	2.414100e-06	7.669054e-10	1.677289e+01	5.337838e+01
2.390000e-06	2.456405e-06	7.802247e-10	1.706682e+01	5.429185e+01
2.400000e-06	2.498327e-06	7.943878e-10	1.735809e+01	5.518408e+01
2.410000e-06	2.539840e-06	8.082374e-10	1.764652e+01	5.605546e+01
2.420000e-06	2.581022e-06	8.226582e-10	1.793265e+01	5.690640e+01
2.430000e-06	2.622002e-06	8.338066e-10	1.821738e+01	5.773733e+01
2.440000e-06	2.662761e-06	8.426693e-10	1.850056e+01	5.854873e+01
2.450000e-06	2.703207e-06	8.535650e-10	1.878158e+01	5.934108e+01
2.460000e-06	2.743441e-06	8.658125e-10	1.906112e+01	6.011489e+01
2.470000e-06	2.783515e-06	8.761679e-10	1.933955e+01	6.087066e+01
2.480000e-06	2.823407e-06	8.859510e-10	1.961671e+01	6.160894e+01
2.490000e-06	2.863219e-06	8.941155e-10	1.989332e+01	6.233024e+01
2.500000e-06	2.902956e-06	9.024518e-10	2.016941e+01	6.303510e+01
2.510000e-06	2.942482e-06	9.133770e-10	2.044403e+01	6.372403e+01
2.520000e-06	2.981866e-06	9.234806e-10	2.071767e+01	6.439755e+01
2.530000e-06	3.021172e-06	9.329148e-10	2.099076e+01	6.505618e+01
2.540000e-06	3.060267e-06	9.428554e-10	2.126239e+01	6.570039e+01
2.550000e-06	3.099042e-06	9.504372e-10	2.153179e+01	6.633067e+01
2.560000e-06	3.137514e-06	9.559740e-10	2.179909e+01	6.694747e+01
2.570000e-06	3.175750e-06	9.650893e-10	2.206475e+01	6.755124e+01
2.580000e-06	3.213788e-06	9.767089e-10	2.232903e+01	6.814238e+01
2.590000e-06	3.251705e-06	9.851369e-10	2.259248e+01	6.872129e+01
2.600000e-06	3.289497e-06	9.923377e-10	2.285506e+01	6.928834e+01
2.610000e-06	3.327057e-06	1.000860e-09	2.311602e+01	6.984386e+01
2.620000e-06	3.364347e-06	1.011389e-09	2.337510e+01	7.038817e+01
2.630000e-06	3.401464e-06	1.021747e-09	2.363299e+01	7.092156e+01
2.640000e-06	3.438186e-06	1.030553e-09	2.388813e+01	7.144430e+01
2.650000e-06	3.474549e-06	1.037479e-09	2.414077e+01	7.195663e+01
2.660000e-06	3.510794e-06	1.043538e-09	2.439260e+01	7.245877e+01
2.670000e-06	3.546857e-06	1.050983e-09	2.464316e+01	7.295090e+01
2.680000e-06	3.582729e-06	1.057528e-09	2.489239e+01	7.343320e+01
2.690000e-06	3.618482e-06	1.064379e-09	2.514080e+01	7.390582e+01
2.700000e-06	3.654134e-06	1.072876e-09	2.538851e+01	7.436889e+01
2.710000e-06	3.689674e-06	1.081776e-09	2.563544e+01	7.482254e+01
2.720000e-06	3.724965e-06	1.090741e-09	2.588064e+01	7.526686e+01
2.730000e-06	3.759921e-06	1.100826e-09	2.612350e+01	7.570194e+01
2.740000e-06	3.794480e-06	1.107838e-09	2.636362e+01	7.612786e+01
2.750000e-06	3.828616e-06	1.111340e-09	2.660079e+01	7.654468e+01
2.760000e-06	3.862384e-06	1.115023e-09	2.683541e+01	7.695249e+01
2.770000e-06	3.895670e-06	1.121052e-09	2.706668e+01	7.735132e+01
2.780000e-06	3.928497e-06	1.128980e-09	2.729475e+01	7.774125e+01
2.790000e-06	3.960940e-06	1.137160e-09	2.752016e+01	7.812232e+01
2.800000e-06	3.993084e-06	1.146222e-09	2.774350e+01	7.849459e+01
2.810000e-06	4.024971e-06	1.154753e-09	2.796505e+01	7.885812e+01
2.820000e-06	4.056666e-06	1.162077e-09	2.818526e+01	7.921299e+01
2.830000e-06	4.088267e-06	1.166906e-09	2.840481e+01	7.955926e+01
2.840000e-06	4.119674e-06	1.168824e-09	2.862303e+01	7.989700e+01
2.850000e-06	4.150809e-06	1.169886e-09	2.883935e+01	8.022632e+01
2.860000e-06	4.181609e-06	1.172651e-09	2.905335e+01	8.054730e+01
2.870000e-06	4.212057e-06	1.175779e-09	2.926490e+01	8.086006e+01
2.880000e-06	4.242216e-06	1.179137e-09	2.947444e+01	8.116470e+01
2.890000e-06	4.272123e-06	1.186393e-09	2.968223e+01	8.146136e+01
2.900000e-06	4.301783e-06	1.194394e-09	2.988830e+01	8.175018e+01
