# Temperatura_=_-8.78
# Concentracion g/m^3_=_1620.0
# C_Vs_to_Am_M_A/Vsm_=_65563218390.804596
# pendiente_HvsI_1/m_=_3716.3
# ordenada_HvsI_A/m_=_1297.0
# frecuencia_Hz_=_135095.78366550515

Tiempo_(s)	Campo_(V.s)	Magnetizacion_(V.s)	Campo_(kA/m)	Magnetizacion_(A/m)
0.000000e+00	-5.518257e-06	-9.059063e-10	-3.837084e+01	-5.952661e+01
1.000000e-08	-5.518528e-06	-9.074283e-10	-3.837272e+01	-5.951078e+01
2.000000e-08	-5.518572e-06	-9.069912e-10	-3.837303e+01	-5.949382e+01
3.000000e-08	-5.518199e-06	-9.061389e-10	-3.837044e+01	-5.947586e+01
4.000000e-08	-5.517394e-06	-9.027942e-10	-3.836484e+01	-5.945703e+01
5.000000e-08	-5.516087e-06	-8.975182e-10	-3.835575e+01	-5.943745e+01
6.000000e-08	-5.514084e-06	-8.915271e-10	-3.834183e+01	-5.941724e+01
7.000000e-08	-5.511589e-06	-8.878612e-10	-3.832448e+01	-5.939652e+01
8.000000e-08	-5.508571e-06	-8.969621e-10	-3.830349e+01	-5.937538e+01
9.000000e-08	-5.505003e-06	-9.096340e-10	-3.827868e+01	-5.935393e+01
1.000000e-07	-5.501068e-06	-8.985274e-10	-3.825132e+01	-5.933225e+01
1.100000e-07	-5.496844e-06	-8.845284e-10	-3.822195e+01	-5.931042e+01
1.200000e-07	-5.492359e-06	-9.023075e-10	-3.819076e+01	-5.928850e+01
1.300000e-07	-5.487583e-06	-8.852744e-10	-3.815755e+01	-5.926656e+01
1.400000e-07	-5.482395e-06	-8.784000e-10	-3.812148e+01	-5.924464e+01
1.500000e-07	-5.476946e-06	-8.500047e-10	-3.808359e+01	-5.922277e+01
1.600000e-07	-5.471159e-06	-8.758943e-10	-3.804335e+01	-5.920097e+01
1.700000e-07	-5.464884e-06	-9.037354e-10	-3.799972e+01	-5.917926e+01
1.800000e-07	-5.458181e-06	-9.014112e-10	-3.795311e+01	-5.915763e+01
1.900000e-07	-5.451037e-06	-8.965256e-10	-3.790343e+01	-5.913608e+01
2.000000e-07	-5.443599e-06	-8.809488e-10	-3.785171e+01	-5.911458e+01
2.100000e-07	-5.435936e-06	-9.128031e-10	-3.779843e+01	-5.909309e+01
2.200000e-07	-5.428038e-06	-9.102832e-10	-3.774351e+01	-5.907157e+01
2.300000e-07	-5.419915e-06	-9.209728e-10	-3.768703e+01	-5.904997e+01
2.400000e-07	-5.411455e-06	-9.049986e-10	-3.762820e+01	-5.902823e+01
2.500000e-07	-5.402358e-06	-9.280687e-10	-3.756495e+01	-5.900626e+01
2.600000e-07	-5.392558e-06	-9.186517e-10	-3.749680e+01	-5.898399e+01
2.700000e-07	-5.382184e-06	-9.077669e-10	-3.742467e+01	-5.896133e+01
2.800000e-07	-5.371238e-06	-8.867460e-10	-3.734855e+01	-5.893819e+01
2.900000e-07	-5.359787e-06	-9.111096e-10	-3.726893e+01	-5.891445e+01
3.000000e-07	-5.347932e-06	-9.081786e-10	-3.718649e+01	-5.889002e+01
3.100000e-07	-5.335674e-06	-8.929696e-10	-3.710126e+01	-5.886478e+01
3.200000e-07	-5.323014e-06	-8.930309e-10	-3.701323e+01	-5.883861e+01
3.300000e-07	-5.310003e-06	-9.100639e-10	-3.692276e+01	-5.881140e+01
3.400000e-07	-5.296684e-06	-8.985586e-10	-3.683015e+01	-5.878301e+01
3.500000e-07	-5.282939e-06	-8.678971e-10	-3.673458e+01	-5.875334e+01
3.600000e-07	-5.268619e-06	-8.810533e-10	-3.663500e+01	-5.872225e+01
3.700000e-07	-5.253715e-06	-8.951076e-10	-3.653136e+01	-5.868962e+01
3.800000e-07	-5.238355e-06	-8.902143e-10	-3.642456e+01	-5.865533e+01
3.900000e-07	-5.222466e-06	-8.873264e-10	-3.631408e+01	-5.861925e+01
4.000000e-07	-5.206086e-06	-9.037004e-10	-3.620018e+01	-5.858127e+01
4.100000e-07	-5.189397e-06	-8.781974e-10	-3.608413e+01	-5.854128e+01
4.200000e-07	-5.172387e-06	-8.659296e-10	-3.596586e+01	-5.849915e+01
4.300000e-07	-5.155112e-06	-8.834413e-10	-3.584574e+01	-5.845479e+01
4.400000e-07	-5.137544e-06	-8.930956e-10	-3.572358e+01	-5.840808e+01
4.500000e-07	-5.119614e-06	-8.577306e-10	-3.559890e+01	-5.835894e+01
4.600000e-07	-5.101257e-06	-8.804191e-10	-3.547126e+01	-5.830727e+01
4.700000e-07	-5.082456e-06	-8.934439e-10	-3.534053e+01	-5.825299e+01
4.800000e-07	-5.063261e-06	-8.659684e-10	-3.520705e+01	-5.819602e+01
4.900000e-07	-5.043811e-06	-8.539988e-10	-3.507181e+01	-5.813629e+01
5.000000e-07	-5.024218e-06	-8.909210e-10	-3.493557e+01	-5.807374e+01
5.100000e-07	-5.004402e-06	-8.640441e-10	-3.479778e+01	-5.800832e+01
5.200000e-07	-4.984314e-06	-8.451029e-10	-3.465810e+01	-5.793998e+01
5.300000e-07	-4.963853e-06	-8.800672e-10	-3.451583e+01	-5.786869e+01
5.400000e-07	-4.942984e-06	-8.903467e-10	-3.437072e+01	-5.779442e+01
5.500000e-07	-4.921757e-06	-8.486315e-10	-3.422312e+01	-5.771715e+01
5.600000e-07	-4.900215e-06	-8.615672e-10	-3.407333e+01	-5.763687e+01
5.700000e-07	-4.878391e-06	-8.728007e-10	-3.392158e+01	-5.755358e+01
5.800000e-07	-4.856209e-06	-8.441327e-10	-3.376734e+01	-5.746729e+01
5.900000e-07	-4.833596e-06	-8.449802e-10	-3.361009e+01	-5.737801e+01
6.000000e-07	-4.810616e-06	-8.724177e-10	-3.345030e+01	-5.728578e+01
6.100000e-07	-4.787404e-06	-8.586481e-10	-3.328890e+01	-5.719063e+01
6.200000e-07	-4.763980e-06	-8.498132e-10	-3.312602e+01	-5.709260e+01
6.300000e-07	-4.740340e-06	-8.625238e-10	-3.296165e+01	-5.699173e+01
6.400000e-07	-4.716434e-06	-8.459300e-10	-3.279542e+01	-5.688810e+01
6.500000e-07	-4.692145e-06	-8.343443e-10	-3.262652e+01	-5.678176e+01
6.600000e-07	-4.667441e-06	-8.482075e-10	-3.245475e+01	-5.667279e+01
6.700000e-07	-4.642280e-06	-8.441647e-10	-3.227979e+01	-5.656126e+01
6.800000e-07	-4.616622e-06	-8.312974e-10	-3.210138e+01	-5.644727e+01
6.900000e-07	-4.590428e-06	-8.481224e-10	-3.191924e+01	-5.633089e+01
7.000000e-07	-4.563688e-06	-8.441552e-10	-3.173331e+01	-5.621223e+01
7.100000e-07	-4.536497e-06	-8.303200e-10	-3.154424e+01	-5.609138e+01
7.200000e-07	-4.508996e-06	-8.329030e-10	-3.135301e+01	-5.596844e+01
7.300000e-07	-4.481319e-06	-8.340860e-10	-3.116056e+01	-5.584351e+01
7.400000e-07	-4.453522e-06	-8.176876e-10	-3.096728e+01	-5.571670e+01
7.500000e-07	-4.425591e-06	-8.278426e-10	-3.077306e+01	-5.558812e+01
7.600000e-07	-4.397432e-06	-8.285603e-10	-3.057726e+01	-5.545786e+01
7.700000e-07	-4.368883e-06	-8.161636e-10	-3.037874e+01	-5.532603e+01
7.800000e-07	-4.339981e-06	-8.155022e-10	-3.017778e+01	-5.519274e+01
7.900000e-07	-4.310777e-06	-8.257622e-10	-2.997471e+01	-5.505807e+01
8.000000e-07	-4.281276e-06	-8.135035e-10	-2.976958e+01	-5.492213e+01
8.100000e-07	-4.251507e-06	-8.134866e-10	-2.956258e+01	-5.478500e+01
8.200000e-07	-4.221445e-06	-8.232854e-10	-2.935354e+01	-5.464676e+01
8.300000e-07	-4.191090e-06	-8.199273e-10	-2.914247e+01	-5.450750e+01
8.400000e-07	-4.160472e-06	-8.084117e-10	-2.892957e+01	-5.436728e+01
8.500000e-07	-4.129594e-06	-8.127267e-10	-2.871486e+01	-5.422615e+01
8.600000e-07	-4.098386e-06	-8.106735e-10	-2.849786e+01	-5.408418e+01
8.700000e-07	-4.066883e-06	-8.009751e-10	-2.827881e+01	-5.394141e+01
8.800000e-07	-4.035223e-06	-8.025655e-10	-2.805866e+01	-5.379785e+01
8.900000e-07	-4.003398e-06	-8.093886e-10	-2.783737e+01	-5.365353e+01
9.000000e-07	-3.971368e-06	-8.009035e-10	-2.761465e+01	-5.350846e+01
9.100000e-07	-3.939152e-06	-7.928509e-10	-2.739064e+01	-5.336263e+01
9.200000e-07	-3.906580e-06	-7.961721e-10	-2.716415e+01	-5.321601e+01
9.300000e-07	-3.873563e-06	-7.932798e-10	-2.693457e+01	-5.306857e+01
9.400000e-07	-3.840161e-06	-7.875582e-10	-2.670231e+01	-5.292026e+01
9.500000e-07	-3.806391e-06	-7.893848e-10	-2.646749e+01	-5.277103e+01
9.600000e-07	-3.772159e-06	-7.904303e-10	-2.622946e+01	-5.262078e+01
9.700000e-07	-3.737374e-06	-7.825209e-10	-2.598759e+01	-5.246943e+01
9.800000e-07	-3.702236e-06	-7.802443e-10	-2.574326e+01	-5.231687e+01
9.900000e-07	-3.666957e-06	-7.795934e-10	-2.549794e+01	-5.216298e+01
1.000000e-06	-3.631499e-06	-7.774740e-10	-2.525139e+01	-5.200762e+01
1.010000e-06	-3.595873e-06	-7.730181e-10	-2.500367e+01	-5.185063e+01
1.020000e-06	-3.560115e-06	-7.741638e-10	-2.475503e+01	-5.169187e+01
1.030000e-06	-3.524199e-06	-7.708802e-10	-2.450529e+01	-5.153114e+01
1.040000e-06	-3.488095e-06	-7.668363e-10	-2.425424e+01	-5.136826e+01
1.050000e-06	-3.451760e-06	-7.611113e-10	-2.400159e+01	-5.120303e+01
1.060000e-06	-3.415060e-06	-7.545375e-10	-2.374639e+01	-5.103524e+01
1.070000e-06	-3.378062e-06	-7.451264e-10	-2.348914e+01	-5.086467e+01
1.080000e-06	-3.340880e-06	-7.445820e-10	-2.323059e+01	-5.069109e+01
1.090000e-06	-3.303447e-06	-7.445710e-10	-2.297030e+01	-5.051426e+01
1.100000e-06	-3.265751e-06	-7.428883e-10	-2.270819e+01	-5.033393e+01
1.110000e-06	-3.227769e-06	-7.395102e-10	-2.244408e+01	-5.014986e+01
1.120000e-06	-3.189601e-06	-7.375993e-10	-2.217868e+01	-4.996180e+01
1.130000e-06	-3.151324e-06	-7.322269e-10	-2.191253e+01	-4.976950e+01
1.140000e-06	-3.112828e-06	-7.250942e-10	-2.164485e+01	-4.957269e+01
1.150000e-06	-3.074067e-06	-7.188010e-10	-2.137533e+01	-4.937111e+01
1.160000e-06	-3.035063e-06	-7.122001e-10	-2.110411e+01	-4.916453e+01
1.170000e-06	-2.995849e-06	-7.055103e-10	-2.083144e+01	-4.895267e+01
1.180000e-06	-2.956470e-06	-7.045708e-10	-2.055762e+01	-4.873531e+01
1.190000e-06	-2.916961e-06	-7.048138e-10	-2.028290e+01	-4.851218e+01
1.200000e-06	-2.877331e-06	-7.044157e-10	-2.000734e+01	-4.828306e+01
1.210000e-06	-2.837589e-06	-7.025841e-10	-1.973099e+01	-4.804772e+01
1.220000e-06	-2.797693e-06	-6.980118e-10	-1.945358e+01	-4.780594e+01
1.230000e-06	-2.757594e-06	-6.915677e-10	-1.917475e+01	-4.755751e+01
1.240000e-06	-2.717340e-06	-6.828130e-10	-1.889484e+01	-4.730223e+01
1.250000e-06	-2.676924e-06	-6.756439e-10	-1.861382e+01	-4.703990e+01
1.260000e-06	-2.636283e-06	-6.699500e-10	-1.833122e+01	-4.677036e+01
1.270000e-06	-2.595338e-06	-6.687647e-10	-1.804652e+01	-4.649343e+01
1.280000e-06	-2.554063e-06	-6.679907e-10	-1.775951e+01	-4.620898e+01
1.290000e-06	-2.512520e-06	-6.643172e-10	-1.747064e+01	-4.591685e+01
1.300000e-06	-2.470698e-06	-6.565838e-10	-1.717984e+01	-4.561691e+01
1.310000e-06	-2.428613e-06	-6.485146e-10	-1.688721e+01	-4.530907e+01
1.320000e-06	-2.386266e-06	-6.372251e-10	-1.659275e+01	-4.499321e+01
1.330000e-06	-2.343597e-06	-6.287342e-10	-1.629605e+01	-4.466925e+01
1.340000e-06	-2.300630e-06	-6.262184e-10	-1.599728e+01	-4.433711e+01
1.350000e-06	-2.257503e-06	-6.250581e-10	-1.569740e+01	-4.399672e+01
1.360000e-06	-2.214249e-06	-6.191969e-10	-1.539663e+01	-4.364803e+01
1.370000e-06	-2.170818e-06	-6.133159e-10	-1.509464e+01	-4.329099e+01
1.380000e-06	-2.127283e-06	-6.056647e-10	-1.479192e+01	-4.292557e+01
1.390000e-06	-2.083680e-06	-5.966495e-10	-1.448873e+01	-4.255172e+01
1.400000e-06	-2.039987e-06	-5.884857e-10	-1.418492e+01	-4.216943e+01
1.410000e-06	-1.996183e-06	-5.838382e-10	-1.388033e+01	-4.177867e+01
1.420000e-06	-1.952326e-06	-5.805585e-10	-1.357537e+01	-4.137942e+01
1.430000e-06	-1.908409e-06	-5.741633e-10	-1.327000e+01	-4.097167e+01
1.440000e-06	-1.864355e-06	-5.677383e-10	-1.296367e+01	-4.055541e+01
1.450000e-06	-1.820227e-06	-5.635493e-10	-1.265683e+01	-4.013060e+01
1.460000e-06	-1.776065e-06	-5.572870e-10	-1.234975e+01	-3.969723e+01
1.470000e-06	-1.731739e-06	-5.484359e-10	-1.204154e+01	-3.925528e+01
1.480000e-06	-1.687115e-06	-5.389599e-10	-1.173124e+01	-3.880471e+01
1.490000e-06	-1.642248e-06	-5.295851e-10	-1.141927e+01	-3.834548e+01
1.500000e-06	-1.597316e-06	-5.188447e-10	-1.110683e+01	-3.787755e+01
1.510000e-06	-1.552334e-06	-5.119762e-10	-1.079406e+01	-3.740085e+01
1.520000e-06	-1.507302e-06	-5.054216e-10	-1.048093e+01	-3.691531e+01
1.530000e-06	-1.462159e-06	-4.980220e-10	-1.016703e+01	-3.642087e+01
1.540000e-06	-1.416774e-06	-4.914881e-10	-9.851448e+00	-3.591741e+01
1.550000e-06	-1.371285e-06	-4.848601e-10	-9.535144e+00	-3.540484e+01
1.560000e-06	-1.325756e-06	-4.761545e-10	-9.218556e+00	-3.488302e+01
1.570000e-06	-1.280182e-06	-4.647754e-10	-8.901661e+00	-3.435184e+01
1.580000e-06	-1.234594e-06	-4.544893e-10	-8.584668e+00	-3.381113e+01
1.590000e-06	-1.188917e-06	-4.438515e-10	-8.267058e+00	-3.326073e+01
1.600000e-06	-1.143155e-06	-4.341774e-10	-7.948856e+00	-3.270046e+01
1.610000e-06	-1.097336e-06	-4.287325e-10	-7.630258e+00	-3.213014e+01
1.620000e-06	-1.051330e-06	-4.236910e-10	-7.310356e+00	-3.154955e+01
1.630000e-06	-1.005254e-06	-4.171615e-10	-6.989966e+00	-3.095849e+01
1.640000e-06	-9.591609e-07	-4.079061e-10	-6.669463e+00	-3.035673e+01
1.650000e-06	-9.129656e-07	-3.932174e-10	-6.348247e+00	-2.974403e+01
1.660000e-06	-8.667837e-07	-3.766855e-10	-6.027124e+00	-2.912015e+01
1.670000e-06	-8.205104e-07	-3.608750e-10	-5.705366e+00	-2.848485e+01
1.680000e-06	-7.740927e-07	-3.512665e-10	-5.382604e+00	-2.783788e+01
1.690000e-06	-7.276522e-07	-3.445651e-10	-5.059682e+00	-2.717900e+01
1.700000e-06	-6.812088e-07	-3.402330e-10	-4.736741e+00	-2.650794e+01
1.710000e-06	-6.347029e-07	-3.327301e-10	-4.413366e+00	-2.582448e+01
1.720000e-06	-5.881256e-07	-3.209726e-10	-4.089493e+00	-2.512838e+01
1.730000e-06	-5.415463e-07	-3.063966e-10	-3.765607e+00	-2.441940e+01
1.740000e-06	-4.948894e-07	-2.913149e-10	-3.441181e+00	-2.369735e+01
1.750000e-06	-4.481473e-07	-2.783005e-10	-3.116163e+00	-2.296203e+01
1.760000e-06	-4.012861e-07	-2.674025e-10	-2.790317e+00	-2.221325e+01
1.770000e-06	-3.544030e-07	-2.570312e-10	-2.464319e+00	-2.145087e+01
1.780000e-06	-3.076713e-07	-2.493706e-10	-2.139372e+00	-2.067476e+01
1.790000e-06	-2.608715e-07	-2.420949e-10	-1.813953e+00	-1.988481e+01
1.800000e-06	-2.140519e-07	-2.304947e-10	-1.488396e+00	-1.908096e+01
1.810000e-06	-1.672361e-07	-2.151817e-10	-1.162865e+00	-1.826318e+01
1.820000e-06	-1.203859e-07	-1.977882e-10	-8.370954e-01	-1.743145e+01
1.830000e-06	-7.355010e-08	-1.806594e-10	-5.114258e-01	-1.658583e+01
1.840000e-06	-2.669950e-08	-1.667706e-10	-1.856532e-01	-1.572640e+01
1.850000e-06	2.016332e-08	-1.545502e-10	1.402043e-01	-1.485327e+01
1.860000e-06	6.701434e-08	-1.474513e-10	4.659798e-01	-1.396662e+01
1.870000e-06	1.138092e-07	-1.409060e-10	7.913647e-01	-1.306666e+01
1.880000e-06	1.605972e-07	-1.319331e-10	1.116702e+00	-1.215366e+01
1.890000e-06	2.074826e-07	-1.193940e-10	1.442717e+00	-1.122793e+01
1.900000e-06	2.543605e-07	-1.035138e-10	1.768679e+00	-1.028984e+01
1.910000e-06	3.011171e-07	-8.662268e-11	2.093798e+00	-9.339789e+00
1.920000e-06	3.478682e-07	-6.983170e-11	2.418879e+00	-8.378246e+00
1.930000e-06	3.946285e-07	-5.888509e-11	2.744023e+00	-7.405721e+00
1.940000e-06	4.413525e-07	-4.897532e-11	3.068916e+00	-6.422773e+00
1.950000e-06	4.879696e-07	-4.109229e-11	3.393065e+00	-5.430012e+00
1.960000e-06	5.344814e-07	-3.082165e-11	3.716482e+00	-4.428089e+00
1.970000e-06	5.809854e-07	-1.655539e-11	4.039844e+00	-3.417702e+00
1.980000e-06	6.275034e-07	1.505965e-12	4.363304e+00	-2.399593e+00
1.990000e-06	6.739086e-07	2.070617e-11	4.685979e+00	-1.374541e+00
2.000000e-06	7.202576e-07	3.702897e-11	5.008264e+00	-3.433619e-01
2.010000e-06	7.666124e-07	5.068603e-11	5.330589e+00	6.930925e-01
2.020000e-06	8.128334e-07	6.168611e-11	5.651984e+00	1.733941e+00
2.030000e-06	8.589482e-07	7.111952e-11	5.972641e+00	2.778276e+00
2.040000e-06	9.050017e-07	8.237787e-11	6.292871e+00	3.825165e+00
2.050000e-06	9.510584e-07	9.362111e-11	6.613123e+00	4.873658e+00
2.060000e-06	9.971633e-07	1.087004e-10	6.933710e+00	5.922789e+00
2.070000e-06	1.043244e-06	1.283566e-10	7.254127e+00	6.971583e+00
2.080000e-06	1.089199e-06	1.480147e-10	7.573675e+00	8.019057e+00
2.090000e-06	1.135061e-06	1.626000e-10	7.892572e+00	9.064228e+00
2.100000e-06	1.180799e-06	1.745851e-10	8.210606e+00	1.010611e+01
2.110000e-06	1.226392e-06	1.868452e-10	8.527638e+00	1.114374e+01
2.120000e-06	1.271897e-06	1.978261e-10	8.844056e+00	1.217616e+01
2.130000e-06	1.317363e-06	2.100995e-10	9.160201e+00	1.320241e+01
2.140000e-06	1.362842e-06	2.245490e-10	9.476432e+00	1.422157e+01
2.150000e-06	1.408171e-06	2.394919e-10	9.791626e+00	1.523275e+01
2.160000e-06	1.453317e-06	2.542985e-10	1.010554e+01	1.623508e+01
2.170000e-06	1.498378e-06	2.687183e-10	1.041887e+01	1.722773e+01
2.180000e-06	1.543285e-06	2.810754e-10	1.073113e+01	1.820989e+01
2.190000e-06	1.588100e-06	2.912352e-10	1.104275e+01	1.918080e+01
2.200000e-06	1.632843e-06	3.005372e-10	1.135387e+01	2.013976e+01
2.210000e-06	1.677425e-06	3.102414e-10	1.166386e+01	2.108609e+01
2.220000e-06	1.721858e-06	3.208760e-10	1.197283e+01	2.201917e+01
2.230000e-06	1.766133e-06	3.331395e-10	1.228069e+01	2.293844e+01
2.240000e-06	1.810206e-06	3.466218e-10	1.258715e+01	2.384338e+01
2.250000e-06	1.854196e-06	3.598710e-10	1.289303e+01	2.473353e+01
2.260000e-06	1.898198e-06	3.721607e-10	1.319900e+01	2.560848e+01
2.270000e-06	1.942123e-06	3.845412e-10	1.350443e+01	2.646787e+01
2.280000e-06	1.985939e-06	3.962334e-10	1.380910e+01	2.731142e+01
2.290000e-06	2.029664e-06	4.075963e-10	1.411313e+01	2.813889e+01
2.300000e-06	2.073354e-06	4.166799e-10	1.441693e+01	2.895008e+01
2.310000e-06	2.116978e-06	4.256769e-10	1.472027e+01	2.974488e+01
2.320000e-06	2.160499e-06	4.355565e-10	1.502289e+01	3.052319e+01
2.330000e-06	2.203895e-06	4.439786e-10	1.532464e+01	3.128501e+01
2.340000e-06	2.247179e-06	4.509864e-10	1.562561e+01	3.203035e+01
2.350000e-06	2.290419e-06	4.604748e-10	1.592628e+01	3.275928e+01
2.360000e-06	2.333452e-06	4.699036e-10	1.622551e+01	3.347193e+01
2.370000e-06	2.376118e-06	4.774452e-10	1.652218e+01	3.416844e+01
2.380000e-06	2.418453e-06	4.845532e-10	1.681655e+01	3.484902e+01
2.390000e-06	2.460567e-06	4.933046e-10	1.710939e+01	3.551391e+01
2.400000e-06	2.502427e-06	5.030773e-10	1.740047e+01	3.616335e+01
2.410000e-06	2.543892e-06	5.123790e-10	1.768879e+01	3.679766e+01
2.420000e-06	2.585147e-06	5.249803e-10	1.797565e+01	3.741715e+01
2.430000e-06	2.626244e-06	5.390848e-10	1.826142e+01	3.802215e+01
2.440000e-06	2.666969e-06	5.497051e-10	1.854460e+01	3.861304e+01
2.450000e-06	2.707329e-06	5.583074e-10	1.882524e+01	3.919017e+01
2.460000e-06	2.747484e-06	5.669791e-10	1.910445e+01	3.975394e+01
2.470000e-06	2.787511e-06	5.741013e-10	1.938277e+01	4.030473e+01
2.480000e-06	2.827378e-06	5.808749e-10	1.965999e+01	4.084294e+01
2.490000e-06	2.867114e-06	5.870392e-10	1.993629e+01	4.136894e+01
2.500000e-06	2.906756e-06	5.931657e-10	2.021194e+01	4.188314e+01
2.510000e-06	2.946281e-06	6.006384e-10	2.048677e+01	4.238592e+01
2.520000e-06	2.985660e-06	6.077863e-10	2.076059e+01	4.287763e+01
2.530000e-06	3.024856e-06	6.117412e-10	2.103314e+01	4.335864e+01
2.540000e-06	3.063824e-06	6.144415e-10	2.130410e+01	4.382929e+01
2.550000e-06	3.102593e-06	6.190701e-10	2.157368e+01	4.428990e+01
2.560000e-06	3.141019e-06	6.266197e-10	2.184087e+01	4.474078e+01
2.570000e-06	3.179173e-06	6.370991e-10	2.210617e+01	4.518222e+01
2.580000e-06	3.217267e-06	6.467013e-10	2.237106e+01	4.561447e+01
2.590000e-06	3.255180e-06	6.507981e-10	2.263468e+01	4.603777e+01
2.600000e-06	3.292855e-06	6.518144e-10	2.289665e+01	4.645234e+01
2.610000e-06	3.330287e-06	6.534124e-10	2.315693e+01	4.685836e+01
2.620000e-06	3.367469e-06	6.586332e-10	2.341548e+01	4.725601e+01
2.630000e-06	3.404429e-06	6.668945e-10	2.367248e+01	4.764542e+01
2.640000e-06	3.441094e-06	6.748346e-10	2.392742e+01	4.802672e+01
2.650000e-06	3.477445e-06	6.808173e-10	2.418018e+01	4.839999e+01
2.660000e-06	3.513633e-06	6.841341e-10	2.443182e+01	4.876530e+01
2.670000e-06	3.549646e-06	6.863950e-10	2.468224e+01	4.912272e+01
2.680000e-06	3.585446e-06	6.898225e-10	2.493116e+01	4.947227e+01
2.690000e-06	3.621098e-06	6.955348e-10	2.517907e+01	4.981396e+01
2.700000e-06	3.656654e-06	7.008205e-10	2.542631e+01	5.014780e+01
2.710000e-06	3.692108e-06	7.055776e-10	2.567283e+01	5.047377e+01
2.720000e-06	3.727296e-06	7.105990e-10	2.591751e+01	5.079185e+01
2.730000e-06	3.762111e-06	7.170753e-10	2.615960e+01	5.110199e+01
2.740000e-06	3.796545e-06	7.241661e-10	2.639903e+01	5.140417e+01
2.750000e-06	3.830518e-06	7.286054e-10	2.663526e+01	5.169833e+01
2.760000e-06	3.864025e-06	7.298998e-10	2.686825e+01	5.198442e+01
2.770000e-06	3.897121e-06	7.303955e-10	2.709838e+01	5.226240e+01
2.780000e-06	3.929816e-06	7.342156e-10	2.732572e+01	5.253222e+01
2.790000e-06	3.962186e-06	7.404238e-10	2.755081e+01	5.279384e+01
2.800000e-06	3.994228e-06	7.460120e-10	2.777360e+01	5.304724e+01
2.810000e-06	4.026029e-06	7.504001e-10	2.799473e+01	5.329238e+01
2.820000e-06	4.057722e-06	7.533030e-10	2.821511e+01	5.352926e+01
2.830000e-06	4.089288e-06	7.548755e-10	2.843460e+01	5.375787e+01
2.840000e-06	4.120696e-06	7.545750e-10	2.865299e+01	5.397824e+01
2.850000e-06	4.151795e-06	7.547622e-10	2.886924e+01	5.419040e+01
2.860000e-06	4.182573e-06	7.593942e-10	2.908325e+01	5.439440e+01
2.870000e-06	4.213077e-06	7.656771e-10	2.929536e+01	5.459030e+01
2.880000e-06	4.243200e-06	7.709363e-10	2.950482e+01	5.477820e+01
2.890000e-06	4.273047e-06	7.770798e-10	2.971235e+01	5.495821e+01
2.900000e-06	4.302640e-06	7.831886e-10	2.991813e+01	5.513045e+01
