# Temperatura_=_13.3
# Concentracion g/m^3_=_1620.0
# C_Vs_to_Am_M_A/Vsm_=_65563218390.804596
# pendiente_HvsI_1/m_=_3716.3
# ordenada_HvsI_A/m_=_1297.0
# frecuencia_Hz_=_135101.20734709452

Tiempo_(s)	Campo_(V.s)	Magnetizacion_(V.s)	Campo_(kA/m)	Magnetizacion_(A/m)
0.000000e+00	-5.511476e-06	-8.085544e-10	-3.836908e+01	-5.345336e+01
1.000000e-08	-5.511594e-06	-8.107634e-10	-3.836989e+01	-5.343923e+01
2.000000e-08	-5.511515e-06	-8.126617e-10	-3.836935e+01	-5.342397e+01
3.000000e-08	-5.511144e-06	-8.115293e-10	-3.836676e+01	-5.340760e+01
4.000000e-08	-5.510299e-06	-8.068209e-10	-3.836088e+01	-5.339016e+01
5.000000e-08	-5.508907e-06	-8.023342e-10	-3.835119e+01	-5.337171e+01
6.000000e-08	-5.506932e-06	-7.960994e-10	-3.833744e+01	-5.335226e+01
7.000000e-08	-5.504384e-06	-7.775434e-10	-3.831970e+01	-5.333186e+01
8.000000e-08	-5.501269e-06	-7.645281e-10	-3.829801e+01	-5.331056e+01
9.000000e-08	-5.497630e-06	-7.989972e-10	-3.827268e+01	-5.328838e+01
1.000000e-07	-5.493547e-06	-8.591635e-10	-3.824426e+01	-5.326537e+01
1.100000e-07	-5.489165e-06	-8.502822e-10	-3.821375e+01	-5.324157e+01
1.200000e-07	-5.484616e-06	-7.583010e-10	-3.818208e+01	-5.321701e+01
1.300000e-07	-5.479868e-06	-7.104791e-10	-3.814903e+01	-5.319172e+01
1.400000e-07	-5.474820e-06	-7.952317e-10	-3.811389e+01	-5.316576e+01
1.500000e-07	-5.469276e-06	-8.237370e-10	-3.807529e+01	-5.313915e+01
1.600000e-07	-5.463276e-06	-7.805952e-10	-3.803353e+01	-5.311192e+01
1.700000e-07	-5.456899e-06	-7.231654e-10	-3.798913e+01	-5.308412e+01
1.800000e-07	-5.450078e-06	-7.810888e-10	-3.794164e+01	-5.305576e+01
1.900000e-07	-5.442843e-06	-8.084446e-10	-3.789127e+01	-5.302689e+01
2.000000e-07	-5.435264e-06	-7.737788e-10	-3.783851e+01	-5.299753e+01
2.100000e-07	-5.427423e-06	-7.533308e-10	-3.778392e+01	-5.296770e+01
2.200000e-07	-5.419435e-06	-7.946102e-10	-3.772832e+01	-5.293742e+01
2.300000e-07	-5.411190e-06	-8.203713e-10	-3.767092e+01	-5.290671e+01
2.400000e-07	-5.402596e-06	-7.882149e-10	-3.761109e+01	-5.287559e+01
2.500000e-07	-5.393447e-06	-7.645822e-10	-3.754740e+01	-5.284406e+01
2.600000e-07	-5.383498e-06	-7.702782e-10	-3.747814e+01	-5.281213e+01
2.700000e-07	-5.372920e-06	-8.072046e-10	-3.740449e+01	-5.277979e+01
2.800000e-07	-5.361885e-06	-8.098183e-10	-3.732768e+01	-5.274704e+01
2.900000e-07	-5.350336e-06	-8.104026e-10	-3.724727e+01	-5.271388e+01
3.000000e-07	-5.338324e-06	-7.963465e-10	-3.716365e+01	-5.268027e+01
3.100000e-07	-5.326006e-06	-8.122550e-10	-3.707790e+01	-5.264619e+01
3.200000e-07	-5.313284e-06	-7.948112e-10	-3.698933e+01	-5.261163e+01
3.300000e-07	-5.300086e-06	-7.787325e-10	-3.689744e+01	-5.257652e+01
3.400000e-07	-5.286505e-06	-7.697804e-10	-3.680290e+01	-5.254085e+01
3.500000e-07	-5.272579e-06	-8.056020e-10	-3.670596e+01	-5.250454e+01
3.600000e-07	-5.258209e-06	-8.018023e-10	-3.660591e+01	-5.246754e+01
3.700000e-07	-5.243461e-06	-7.985208e-10	-3.650324e+01	-5.242980e+01
3.800000e-07	-5.228394e-06	-7.976871e-10	-3.639835e+01	-5.239124e+01
3.900000e-07	-5.212724e-06	-7.879206e-10	-3.628926e+01	-5.235178e+01
4.000000e-07	-5.196374e-06	-7.499665e-10	-3.617544e+01	-5.231134e+01
4.100000e-07	-5.179629e-06	-7.800039e-10	-3.605887e+01	-5.226983e+01
4.200000e-07	-5.162639e-06	-8.140025e-10	-3.594059e+01	-5.222717e+01
4.300000e-07	-5.145336e-06	-7.793695e-10	-3.582013e+01	-5.218326e+01
4.400000e-07	-5.127655e-06	-7.636239e-10	-3.569704e+01	-5.213799e+01
4.500000e-07	-5.109632e-06	-8.154332e-10	-3.557157e+01	-5.209127e+01
4.600000e-07	-5.091173e-06	-8.019409e-10	-3.544306e+01	-5.204300e+01
4.700000e-07	-5.072248e-06	-7.396087e-10	-3.531132e+01	-5.199306e+01
4.800000e-07	-5.052927e-06	-7.743053e-10	-3.517681e+01	-5.194137e+01
4.900000e-07	-5.033338e-06	-8.124711e-10	-3.504044e+01	-5.188780e+01
5.000000e-07	-5.013565e-06	-7.682272e-10	-3.490279e+01	-5.183226e+01
5.100000e-07	-4.993619e-06	-7.644963e-10	-3.476392e+01	-5.177465e+01
5.200000e-07	-4.973404e-06	-8.190520e-10	-3.462319e+01	-5.171488e+01
5.300000e-07	-4.952800e-06	-7.843883e-10	-3.447976e+01	-5.165286e+01
5.400000e-07	-4.931852e-06	-7.507149e-10	-3.433392e+01	-5.158849e+01
5.500000e-07	-4.910587e-06	-7.902606e-10	-3.418588e+01	-5.152169e+01
5.600000e-07	-4.889023e-06	-7.897111e-10	-3.403577e+01	-5.145241e+01
5.700000e-07	-4.867140e-06	-7.344941e-10	-3.388342e+01	-5.138056e+01
5.800000e-07	-4.844887e-06	-7.644161e-10	-3.372850e+01	-5.130610e+01
5.900000e-07	-4.822230e-06	-7.909493e-10	-3.357077e+01	-5.122897e+01
6.000000e-07	-4.799272e-06	-7.539740e-10	-3.341094e+01	-5.114915e+01
6.100000e-07	-4.776072e-06	-7.476860e-10	-3.324943e+01	-5.106659e+01
6.200000e-07	-4.752518e-06	-7.846622e-10	-3.308546e+01	-5.098128e+01
6.300000e-07	-4.728681e-06	-7.593655e-10	-3.291952e+01	-5.089321e+01
6.400000e-07	-4.704666e-06	-7.440237e-10	-3.275233e+01	-5.080239e+01
6.500000e-07	-4.680414e-06	-7.692134e-10	-3.258350e+01	-5.070883e+01
6.600000e-07	-4.655742e-06	-7.675209e-10	-3.241174e+01	-5.061254e+01
6.700000e-07	-4.630541e-06	-7.423245e-10	-3.223630e+01	-5.051357e+01
6.800000e-07	-4.604815e-06	-7.562371e-10	-3.205720e+01	-5.041195e+01
6.900000e-07	-4.578485e-06	-7.624342e-10	-3.187390e+01	-5.030773e+01
7.000000e-07	-4.551616e-06	-7.466889e-10	-3.168685e+01	-5.020097e+01
7.100000e-07	-4.524290e-06	-7.490238e-10	-3.149661e+01	-5.009174e+01
7.200000e-07	-4.496685e-06	-7.616267e-10	-3.130444e+01	-4.998010e+01
7.300000e-07	-4.468943e-06	-7.501792e-10	-3.111131e+01	-4.986614e+01
7.400000e-07	-4.441015e-06	-7.432208e-10	-3.091688e+01	-4.974993e+01
7.500000e-07	-4.412925e-06	-7.480039e-10	-3.072133e+01	-4.963155e+01
7.600000e-07	-4.384669e-06	-7.412870e-10	-3.052462e+01	-4.951108e+01
7.700000e-07	-4.356133e-06	-7.369699e-10	-3.032596e+01	-4.938862e+01
7.800000e-07	-4.327226e-06	-7.424799e-10	-3.012472e+01	-4.926424e+01
7.900000e-07	-4.297981e-06	-7.437680e-10	-2.992113e+01	-4.913802e+01
8.000000e-07	-4.268432e-06	-7.391054e-10	-2.971542e+01	-4.901004e+01
8.100000e-07	-4.238558e-06	-7.427704e-10	-2.950744e+01	-4.888037e+01
8.200000e-07	-4.208368e-06	-7.418075e-10	-2.929727e+01	-4.874907e+01
8.300000e-07	-4.177913e-06	-7.373799e-10	-2.908525e+01	-4.861620e+01
8.400000e-07	-4.147250e-06	-7.360359e-10	-2.887178e+01	-4.848179e+01
8.500000e-07	-4.116351e-06	-7.386614e-10	-2.865668e+01	-4.834589e+01
8.600000e-07	-4.085175e-06	-7.288147e-10	-2.843964e+01	-4.820851e+01
8.700000e-07	-4.053668e-06	-7.227120e-10	-2.822029e+01	-4.806967e+01
8.800000e-07	-4.021902e-06	-7.210093e-10	-2.799915e+01	-4.792937e+01
8.900000e-07	-3.990008e-06	-7.184160e-10	-2.777712e+01	-4.778757e+01
9.000000e-07	-3.957954e-06	-7.133603e-10	-2.755397e+01	-4.764426e+01
9.100000e-07	-3.925670e-06	-7.183783e-10	-2.732921e+01	-4.749937e+01
9.200000e-07	-3.893098e-06	-7.150265e-10	-2.710246e+01	-4.735285e+01
9.300000e-07	-3.860167e-06	-7.108116e-10	-2.687321e+01	-4.720462e+01
9.400000e-07	-3.826837e-06	-7.123718e-10	-2.664117e+01	-4.705458e+01
9.500000e-07	-3.793021e-06	-7.121320e-10	-2.640576e+01	-4.690262e+01
9.600000e-07	-3.758622e-06	-7.007489e-10	-2.616629e+01	-4.674861e+01
9.700000e-07	-3.723782e-06	-6.964189e-10	-2.592374e+01	-4.659242e+01
9.800000e-07	-3.688630e-06	-6.989165e-10	-2.567902e+01	-4.643389e+01
9.900000e-07	-3.653219e-06	-6.961664e-10	-2.543250e+01	-4.627285e+01
1.000000e-06	-3.617559e-06	-6.916385e-10	-2.518425e+01	-4.610913e+01
1.010000e-06	-3.581729e-06	-6.946877e-10	-2.493481e+01	-4.594254e+01
1.020000e-06	-3.545790e-06	-6.942551e-10	-2.468462e+01	-4.577288e+01
1.030000e-06	-3.509725e-06	-6.877549e-10	-2.443354e+01	-4.559996e+01
1.040000e-06	-3.473502e-06	-6.841944e-10	-2.418138e+01	-4.542357e+01
1.050000e-06	-3.437051e-06	-6.820112e-10	-2.392761e+01	-4.524350e+01
1.060000e-06	-3.400439e-06	-6.723124e-10	-2.367274e+01	-4.505952e+01
1.070000e-06	-3.363569e-06	-6.636742e-10	-2.341606e+01	-4.487144e+01
1.080000e-06	-3.326312e-06	-6.622041e-10	-2.315669e+01	-4.467904e+01
1.090000e-06	-3.288740e-06	-6.564404e-10	-2.289512e+01	-4.448211e+01
1.100000e-06	-3.250991e-06	-6.511729e-10	-2.263233e+01	-4.428046e+01
1.110000e-06	-3.213108e-06	-6.494828e-10	-2.236859e+01	-4.407389e+01
1.120000e-06	-3.174982e-06	-6.467350e-10	-2.210317e+01	-4.386222e+01
1.130000e-06	-3.136565e-06	-6.384718e-10	-2.183573e+01	-4.364527e+01
1.140000e-06	-3.097931e-06	-6.347475e-10	-2.156677e+01	-4.342288e+01
1.150000e-06	-3.059065e-06	-6.300400e-10	-2.129620e+01	-4.319491e+01
1.160000e-06	-3.020028e-06	-6.216282e-10	-2.102444e+01	-4.296123e+01
1.170000e-06	-2.980849e-06	-6.143500e-10	-2.075168e+01	-4.272171e+01
1.180000e-06	-2.941435e-06	-6.121913e-10	-2.047730e+01	-4.247627e+01
1.190000e-06	-2.901882e-06	-6.089764e-10	-2.020194e+01	-4.222481e+01
1.200000e-06	-2.862167e-06	-6.081367e-10	-1.992546e+01	-4.196727e+01
1.210000e-06	-2.822320e-06	-6.071348e-10	-1.964806e+01	-4.170362e+01
1.220000e-06	-2.782395e-06	-6.036108e-10	-1.937012e+01	-4.143381e+01
1.230000e-06	-2.742303e-06	-5.956423e-10	-1.909101e+01	-4.115784e+01
1.240000e-06	-2.702053e-06	-5.909268e-10	-1.881080e+01	-4.087572e+01
1.250000e-06	-2.661729e-06	-5.879598e-10	-1.853008e+01	-4.058746e+01
1.260000e-06	-2.621236e-06	-5.844419e-10	-1.824818e+01	-4.029310e+01
1.270000e-06	-2.580491e-06	-5.817979e-10	-1.796453e+01	-3.999270e+01
1.280000e-06	-2.539472e-06	-5.807436e-10	-1.767897e+01	-3.968631e+01
1.290000e-06	-2.498102e-06	-5.755736e-10	-1.739096e+01	-3.937400e+01
1.300000e-06	-2.456437e-06	-5.679058e-10	-1.710090e+01	-3.905586e+01
1.310000e-06	-2.414469e-06	-5.636808e-10	-1.680874e+01	-3.873197e+01
1.320000e-06	-2.372218e-06	-5.597601e-10	-1.651460e+01	-3.840241e+01
1.330000e-06	-2.329696e-06	-5.551389e-10	-1.621858e+01	-3.806729e+01
1.340000e-06	-2.286848e-06	-5.499294e-10	-1.592028e+01	-3.772667e+01
1.350000e-06	-2.243741e-06	-5.445831e-10	-1.562019e+01	-3.738066e+01
1.360000e-06	-2.200426e-06	-5.362900e-10	-1.531864e+01	-3.702932e+01
1.370000e-06	-2.156914e-06	-5.287888e-10	-1.501572e+01	-3.667272e+01
1.380000e-06	-2.113272e-06	-5.250738e-10	-1.471190e+01	-3.631091e+01
1.390000e-06	-2.069525e-06	-5.222685e-10	-1.440735e+01	-3.594392e+01
1.400000e-06	-2.025673e-06	-5.184295e-10	-1.410206e+01	-3.557179e+01
1.410000e-06	-1.981771e-06	-5.152501e-10	-1.379644e+01	-3.519449e+01
1.420000e-06	-1.937833e-06	-5.104326e-10	-1.349056e+01	-3.481201e+01
1.430000e-06	-1.893836e-06	-5.032381e-10	-1.318426e+01	-3.442430e+01
1.440000e-06	-1.849717e-06	-4.973245e-10	-1.287712e+01	-3.403127e+01
1.450000e-06	-1.805519e-06	-4.931778e-10	-1.256943e+01	-3.363281e+01
1.460000e-06	-1.761254e-06	-4.848819e-10	-1.226127e+01	-3.322878e+01
1.470000e-06	-1.716845e-06	-4.742147e-10	-1.195210e+01	-3.281902e+01
1.480000e-06	-1.672268e-06	-4.649304e-10	-1.164178e+01	-3.240331e+01
1.490000e-06	-1.627534e-06	-4.560426e-10	-1.133035e+01	-3.198141e+01
1.500000e-06	-1.582679e-06	-4.463542e-10	-1.101809e+01	-3.155304e+01
1.510000e-06	-1.537710e-06	-4.399147e-10	-1.070503e+01	-3.111791e+01
1.520000e-06	-1.492633e-06	-4.353961e-10	-1.039122e+01	-3.067566e+01
1.530000e-06	-1.447450e-06	-4.294966e-10	-1.007667e+01	-3.022592e+01
1.540000e-06	-1.402092e-06	-4.212012e-10	-9.760903e+00	-2.976829e+01
1.550000e-06	-1.356632e-06	-4.105029e-10	-9.444425e+00	-2.930233e+01
1.560000e-06	-1.311132e-06	-3.974923e-10	-9.127669e+00	-2.882757e+01
1.570000e-06	-1.265531e-06	-3.858441e-10	-8.810206e+00	-2.834353e+01
1.580000e-06	-1.219899e-06	-3.774125e-10	-8.492536e+00	-2.784970e+01
1.590000e-06	-1.174251e-06	-3.696372e-10	-8.174751e+00	-2.734555e+01
1.600000e-06	-1.128477e-06	-3.621302e-10	-7.856082e+00	-2.683054e+01
1.610000e-06	-1.082548e-06	-3.558178e-10	-7.536344e+00	-2.630411e+01
1.620000e-06	-1.036637e-06	-3.490285e-10	-7.216727e+00	-2.576571e+01
1.630000e-06	-9.906955e-07	-3.416839e-10	-6.896895e+00	-2.521477e+01
1.640000e-06	-9.445745e-07	-3.320244e-10	-6.575815e+00	-2.465072e+01
1.650000e-06	-8.984230e-07	-3.192181e-10	-6.254524e+00	-2.407303e+01
1.660000e-06	-8.522250e-07	-3.049866e-10	-5.932909e+00	-2.348114e+01
1.670000e-06	-8.059148e-07	-2.918729e-10	-5.610513e+00	-2.287454e+01
1.680000e-06	-7.595633e-07	-2.824753e-10	-5.287829e+00	-2.225272e+01
1.690000e-06	-7.133001e-07	-2.756571e-10	-4.965759e+00	-2.161521e+01
1.700000e-06	-6.669755e-07	-2.694084e-10	-4.643263e+00	-2.096157e+01
1.710000e-06	-6.205109e-07	-2.614148e-10	-4.319792e+00	-2.029141e+01
1.720000e-06	-5.740373e-07	-2.515300e-10	-3.996258e+00	-1.960437e+01
1.730000e-06	-5.275122e-07	-2.409347e-10	-3.672365e+00	-1.890013e+01
1.740000e-06	-4.809877e-07	-2.300028e-10	-3.348478e+00	-1.817844e+01
1.750000e-06	-4.344199e-07	-2.176091e-10	-3.024288e+00	-1.743911e+01
1.760000e-06	-3.878079e-07	-2.059255e-10	-2.699790e+00	-1.668199e+01
1.770000e-06	-3.411569e-07	-1.956109e-10	-2.375021e+00	-1.590702e+01
1.780000e-06	-2.944968e-07	-1.850691e-10	-2.050190e+00	-1.511419e+01
1.790000e-06	-2.478615e-07	-1.732908e-10	-1.725530e+00	-1.430356e+01
1.800000e-06	-2.011360e-07	-1.606532e-10	-1.400242e+00	-1.347528e+01
1.810000e-06	-1.544494e-07	-1.469507e-10	-1.075226e+00	-1.262956e+01
1.820000e-06	-1.078084e-07	-1.348791e-10	-7.505268e-01	-1.176670e+01
1.830000e-06	-6.112750e-08	-1.249108e-10	-4.255494e-01	-1.088705e+01
1.840000e-06	-1.443692e-08	-1.142833e-10	-1.005051e-01	-9.991081e+00
1.850000e-06	3.231049e-08	-1.027377e-10	2.249350e-01	-9.079305e+00
1.860000e-06	7.905585e-08	-9.107820e-11	5.503607e-01	-8.152326e+00
1.870000e-06	1.257525e-07	-7.811775e-11	8.754471e-01	-7.210822e+00
1.880000e-06	1.725166e-07	-6.425377e-11	1.201004e+00	-6.255545e+00
1.890000e-06	2.193108e-07	-5.089399e-11	1.526769e+00	-5.287315e+00
1.900000e-06	2.659507e-07	-3.869094e-11	1.851461e+00	-4.307022e+00
1.910000e-06	3.125418e-07	-2.618592e-11	2.175813e+00	-3.315622e+00
1.920000e-06	3.591668e-07	-1.350852e-11	2.500401e+00	-2.314128e+00
1.930000e-06	4.057850e-07	-1.828193e-12	2.824941e+00	-1.303611e+00
1.940000e-06	4.523611e-07	9.278175e-12	3.149188e+00	-2.851926e-01
1.950000e-06	4.988669e-07	2.003387e-11	3.472946e+00	7.399608e-01
1.960000e-06	5.453810e-07	3.216380e-11	3.796763e+00	1.770642e+00
1.970000e-06	5.919321e-07	4.544557e-11	4.120836e+00	2.805612e+00
1.980000e-06	6.384513e-07	6.049286e-11	4.444687e+00	3.843601e+00
1.990000e-06	6.849184e-07	7.774675e-11	4.768176e+00	4.883322e+00
2.000000e-06	7.312686e-07	9.548348e-11	5.090850e+00	5.923471e+00
2.010000e-06	7.775179e-07	1.117254e-10	5.412822e+00	6.962739e+00
2.020000e-06	8.236971e-07	1.247045e-10	5.734307e+00	7.999814e+00
2.030000e-06	8.697739e-07	1.352652e-10	6.055078e+00	9.033392e+00
2.040000e-06	9.157711e-07	1.463121e-10	6.375296e+00	1.006218e+01
2.050000e-06	9.617365e-07	1.608093e-10	6.695292e+00	1.108491e+01
2.060000e-06	1.007721e-06	1.765571e-10	7.015423e+00	1.210034e+01
2.070000e-06	1.053651e-06	1.941826e-10	7.335167e+00	1.310726e+01
2.080000e-06	1.099536e-06	2.120583e-10	7.654609e+00	1.410448e+01
2.090000e-06	1.145349e-06	2.248734e-10	7.973540e+00	1.509090e+01
2.100000e-06	1.191057e-06	2.343098e-10	8.291745e+00	1.606542e+01
2.110000e-06	1.236723e-06	2.429356e-10	8.609657e+00	1.702704e+01
2.120000e-06	1.282267e-06	2.545720e-10	8.926717e+00	1.797478e+01
2.130000e-06	1.327712e-06	2.689068e-10	9.243092e+00	1.890775e+01
2.140000e-06	1.373041e-06	2.837052e-10	9.558656e+00	1.982513e+01
2.150000e-06	1.418148e-06	2.947241e-10	9.872678e+00	2.072616e+01
2.160000e-06	1.463155e-06	3.049176e-10	1.018600e+01	2.161016e+01
2.170000e-06	1.508160e-06	3.185781e-10	1.049931e+01	2.247652e+01
2.180000e-06	1.553101e-06	3.332571e-10	1.081218e+01	2.332471e+01
2.190000e-06	1.597954e-06	3.450056e-10	1.112443e+01	2.415430e+01
2.200000e-06	1.642618e-06	3.547478e-10	1.143536e+01	2.496490e+01
2.210000e-06	1.687062e-06	3.639531e-10	1.174477e+01	2.575622e+01
2.220000e-06	1.731417e-06	3.739207e-10	1.205356e+01	2.652807e+01
2.230000e-06	1.775657e-06	3.836850e-10	1.236154e+01	2.728030e+01
2.240000e-06	1.819768e-06	3.924016e-10	1.266862e+01	2.801285e+01
2.250000e-06	1.863835e-06	4.004706e-10	1.297540e+01	2.872575e+01
2.260000e-06	1.907835e-06	4.103248e-10	1.328172e+01	2.941907e+01
2.270000e-06	1.951741e-06	4.207815e-10	1.358737e+01	3.009297e+01
2.280000e-06	1.995600e-06	4.301562e-10	1.389271e+01	3.074767e+01
2.290000e-06	2.039436e-06	4.393195e-10	1.419788e+01	3.138344e+01
2.300000e-06	2.083205e-06	4.488835e-10	1.450258e+01	3.200061e+01
2.310000e-06	2.126892e-06	4.578061e-10	1.480672e+01	3.259958e+01
2.320000e-06	2.170509e-06	4.645140e-10	1.511037e+01	3.318076e+01
2.330000e-06	2.213959e-06	4.703479e-10	1.541285e+01	3.374463e+01
2.340000e-06	2.257156e-06	4.747101e-10	1.571357e+01	3.429170e+01
2.350000e-06	2.300105e-06	4.805082e-10	1.601257e+01	3.482249e+01
2.360000e-06	2.342843e-06	4.883888e-10	1.631010e+01	3.533758e+01
2.370000e-06	2.385268e-06	4.990285e-10	1.660545e+01	3.583754e+01
2.380000e-06	2.427330e-06	5.106701e-10	1.689827e+01	3.632298e+01
2.390000e-06	2.469008e-06	5.212461e-10	1.718842e+01	3.679449e+01
2.400000e-06	2.510336e-06	5.283479e-10	1.747613e+01	3.725268e+01
2.410000e-06	2.551482e-06	5.325713e-10	1.776258e+01	3.769817e+01
2.420000e-06	2.592419e-06	5.372533e-10	1.804757e+01	3.813156e+01
2.430000e-06	2.633074e-06	5.430374e-10	1.833059e+01	3.855344e+01
2.440000e-06	2.673512e-06	5.482734e-10	1.861211e+01	3.896438e+01
2.450000e-06	2.713813e-06	5.557279e-10	1.889267e+01	3.936496e+01
2.460000e-06	2.753972e-06	5.648702e-10	1.917224e+01	3.975571e+01
2.470000e-06	2.793980e-06	5.722426e-10	1.945077e+01	4.013714e+01
2.480000e-06	2.833879e-06	5.776016e-10	1.972853e+01	4.050974e+01
2.490000e-06	2.873647e-06	5.812907e-10	2.000538e+01	4.087397e+01
2.500000e-06	2.913249e-06	5.847409e-10	2.028108e+01	4.123025e+01
2.510000e-06	2.952738e-06	5.891853e-10	2.055599e+01	4.157897e+01
2.520000e-06	2.992078e-06	5.926472e-10	2.082986e+01	4.192049e+01
2.530000e-06	3.031174e-06	5.974309e-10	2.110203e+01	4.225513e+01
2.540000e-06	3.069961e-06	6.040182e-10	2.137205e+01	4.258318e+01
2.550000e-06	3.108458e-06	6.090983e-10	2.164006e+01	4.290487e+01
2.560000e-06	3.146738e-06	6.131901e-10	2.190655e+01	4.322043e+01
2.570000e-06	3.184859e-06	6.175657e-10	2.217194e+01	4.353003e+01
2.580000e-06	3.222828e-06	6.226891e-10	2.243627e+01	4.383381e+01
2.590000e-06	3.260631e-06	6.276938e-10	2.269943e+01	4.413189e+01
2.600000e-06	3.298212e-06	6.327283e-10	2.296106e+01	4.442434e+01
2.610000e-06	3.335527e-06	6.385032e-10	2.322083e+01	4.471123e+01
2.620000e-06	3.372631e-06	6.454138e-10	2.347914e+01	4.499256e+01
2.630000e-06	3.409479e-06	6.516282e-10	2.373567e+01	4.526836e+01
2.640000e-06	3.445995e-06	6.546999e-10	2.398988e+01	4.553859e+01
2.650000e-06	3.482226e-06	6.555153e-10	2.424210e+01	4.580322e+01
2.660000e-06	3.518292e-06	6.569269e-10	2.449319e+01	4.606219e+01
2.670000e-06	3.554293e-06	6.599633e-10	2.474382e+01	4.631544e+01
2.680000e-06	3.590214e-06	6.642217e-10	2.499389e+01	4.656289e+01
2.690000e-06	3.625998e-06	6.693085e-10	2.524300e+01	4.680446e+01
2.700000e-06	3.661617e-06	6.745108e-10	2.549097e+01	4.704006e+01
2.710000e-06	3.696974e-06	6.784674e-10	2.573711e+01	4.726960e+01
2.720000e-06	3.732039e-06	6.826793e-10	2.598123e+01	4.749299e+01
2.730000e-06	3.766727e-06	6.863952e-10	2.622271e+01	4.771015e+01
2.740000e-06	3.800964e-06	6.889801e-10	2.646105e+01	4.792101e+01
2.750000e-06	3.834710e-06	6.918862e-10	2.669598e+01	4.812549e+01
2.760000e-06	3.867976e-06	6.940536e-10	2.692757e+01	4.832354e+01
2.770000e-06	3.900779e-06	6.947304e-10	2.715594e+01	4.851513e+01
2.780000e-06	3.933174e-06	6.978633e-10	2.738146e+01	4.870021e+01
2.790000e-06	3.965360e-06	7.038841e-10	2.760553e+01	4.887878e+01
2.800000e-06	3.997372e-06	7.107223e-10	2.782839e+01	4.905085e+01
2.810000e-06	4.029258e-06	7.152381e-10	2.805036e+01	4.921644e+01
2.820000e-06	4.061013e-06	7.168849e-10	2.827143e+01	4.937560e+01
2.830000e-06	4.092573e-06	7.167153e-10	2.849114e+01	4.952838e+01
2.840000e-06	4.123837e-06	7.147490e-10	2.870879e+01	4.967487e+01
2.850000e-06	4.154754e-06	7.157973e-10	2.892402e+01	4.981517e+01
2.860000e-06	4.185382e-06	7.210686e-10	2.913724e+01	4.994941e+01
2.870000e-06	4.215685e-06	7.267659e-10	2.934821e+01	5.007773e+01
2.880000e-06	4.245641e-06	7.312934e-10	2.955675e+01	5.020028e+01
2.890000e-06	4.275321e-06	7.358765e-10	2.976337e+01	5.031724e+01
2.900000e-06	4.304777e-06	7.394789e-10	2.996844e+01	5.042881e+01
