# Temperatura_=_-0.3
# Concentracion g/m^3_=_1620.0
# C_Vs_to_Am_M_A/Vsm_=_65563218390.804596
# pendiente_HvsI_1/m_=_3716.3
# ordenada_HvsI_A/m_=_1297.0
# frecuencia_Hz_=_135110.19801319

Tiempo_(s)	Campo_(V.s)	Magnetizacion_(V.s)	Campo_(kA/m)	Magnetizacion_(A/m)
0.000000e+00	-5.534499e-06	-1.327010e-09	-3.835904e+01	-8.588040e+01
1.000000e-08	-5.534791e-06	-1.325668e-09	-3.836106e+01	-8.589107e+01
2.000000e-08	-5.534882e-06	-1.323581e-09	-3.836169e+01	-8.589937e+01
3.000000e-08	-5.534655e-06	-1.322878e-09	-3.836011e+01	-8.590520e+01
4.000000e-08	-5.533971e-06	-1.319866e-09	-3.835538e+01	-8.590849e+01
5.000000e-08	-5.532656e-06	-1.313489e-09	-3.834627e+01	-8.590916e+01
6.000000e-08	-5.530737e-06	-1.302241e-09	-3.833296e+01	-8.590711e+01
7.000000e-08	-5.528254e-06	-1.283115e-09	-3.831575e+01	-8.590226e+01
8.000000e-08	-5.525203e-06	-1.289635e-09	-3.829461e+01	-8.589451e+01
9.000000e-08	-5.521732e-06	-1.353219e-09	-3.827055e+01	-8.588376e+01
1.000000e-07	-5.517836e-06	-1.382070e-09	-3.824355e+01	-8.586994e+01
1.100000e-07	-5.513474e-06	-1.293818e-09	-3.821331e+01	-8.585294e+01
1.200000e-07	-5.508882e-06	-1.230460e-09	-3.818149e+01	-8.583269e+01
1.300000e-07	-5.504151e-06	-1.267213e-09	-3.814869e+01	-8.580909e+01
1.400000e-07	-5.499099e-06	-1.343027e-09	-3.811368e+01	-8.578209e+01
1.500000e-07	-5.493652e-06	-1.274733e-09	-3.807593e+01	-8.575159e+01
1.600000e-07	-5.487814e-06	-1.217111e-09	-3.803547e+01	-8.571755e+01
1.700000e-07	-5.481584e-06	-1.287251e-09	-3.799228e+01	-8.567991e+01
1.800000e-07	-5.474879e-06	-1.363700e-09	-3.794582e+01	-8.563862e+01
1.900000e-07	-5.467734e-06	-1.322301e-09	-3.789630e+01	-8.559365e+01
2.000000e-07	-5.460295e-06	-1.220862e-09	-3.784474e+01	-8.554497e+01
2.100000e-07	-5.452628e-06	-1.267461e-09	-3.779159e+01	-8.549256e+01
2.200000e-07	-5.444771e-06	-1.333112e-09	-3.773714e+01	-8.543642e+01
2.300000e-07	-5.436643e-06	-1.347067e-09	-3.768080e+01	-8.537655e+01
2.400000e-07	-5.428101e-06	-1.288472e-09	-3.762160e+01	-8.531296e+01
2.500000e-07	-5.418994e-06	-1.311353e-09	-3.755848e+01	-8.524568e+01
2.600000e-07	-5.409059e-06	-1.336849e-09	-3.748962e+01	-8.517473e+01
2.700000e-07	-5.398416e-06	-1.336093e-09	-3.741586e+01	-8.510016e+01
2.800000e-07	-5.387384e-06	-1.294677e-09	-3.733940e+01	-8.502200e+01
2.900000e-07	-5.375950e-06	-1.315818e-09	-3.726015e+01	-8.494031e+01
3.000000e-07	-5.364155e-06	-1.338004e-09	-3.717840e+01	-8.485515e+01
3.100000e-07	-5.352022e-06	-1.320941e-09	-3.709431e+01	-8.476658e+01
3.200000e-07	-5.339366e-06	-1.285675e-09	-3.700659e+01	-8.467466e+01
3.300000e-07	-5.326252e-06	-1.300664e-09	-3.691570e+01	-8.457945e+01
3.400000e-07	-5.312850e-06	-1.331507e-09	-3.682281e+01	-8.448101e+01
3.500000e-07	-5.299055e-06	-1.298281e-09	-3.672720e+01	-8.437942e+01
3.600000e-07	-5.284732e-06	-1.275061e-09	-3.662792e+01	-8.427473e+01
3.700000e-07	-5.269989e-06	-1.310191e-09	-3.652575e+01	-8.416700e+01
3.800000e-07	-5.254783e-06	-1.328497e-09	-3.642035e+01	-8.405627e+01
3.900000e-07	-5.238974e-06	-1.277413e-09	-3.631078e+01	-8.394259e+01
4.000000e-07	-5.222729e-06	-1.286180e-09	-3.619819e+01	-8.382601e+01
4.100000e-07	-5.206231e-06	-1.320172e-09	-3.608384e+01	-8.370654e+01
4.200000e-07	-5.189390e-06	-1.282166e-09	-3.596712e+01	-8.358421e+01
4.300000e-07	-5.172132e-06	-1.243522e-09	-3.584751e+01	-8.345902e+01
4.400000e-07	-5.154582e-06	-1.314481e-09	-3.572587e+01	-8.333097e+01
4.500000e-07	-5.136704e-06	-1.316313e-09	-3.560196e+01	-8.320005e+01
4.600000e-07	-5.118248e-06	-1.249276e-09	-3.547404e+01	-8.306623e+01
4.700000e-07	-5.099286e-06	-1.253411e-09	-3.534262e+01	-8.292947e+01
4.800000e-07	-5.080113e-06	-1.305768e-09	-3.520973e+01	-8.278974e+01
4.900000e-07	-5.060698e-06	-1.252759e-09	-3.507517e+01	-8.264695e+01
5.000000e-07	-5.041072e-06	-1.242580e-09	-3.493915e+01	-8.250106e+01
5.100000e-07	-5.021271e-06	-1.283486e-09	-3.480190e+01	-8.235197e+01
5.200000e-07	-5.001155e-06	-1.257672e-09	-3.466248e+01	-8.219960e+01
5.300000e-07	-4.980644e-06	-1.210482e-09	-3.452033e+01	-8.204384e+01
5.400000e-07	-4.959787e-06	-1.268562e-09	-3.437577e+01	-8.188460e+01
5.500000e-07	-4.938529e-06	-1.271010e-09	-3.422843e+01	-8.172177e+01
5.600000e-07	-4.916905e-06	-1.210101e-09	-3.407856e+01	-8.155523e+01
5.700000e-07	-4.895000e-06	-1.222553e-09	-3.392674e+01	-8.138486e+01
5.800000e-07	-4.872731e-06	-1.262764e-09	-3.377239e+01	-8.121055e+01
5.900000e-07	-4.850045e-06	-1.218853e-09	-3.361516e+01	-8.103218e+01
6.000000e-07	-4.827002e-06	-1.205202e-09	-3.345545e+01	-8.084965e+01
6.100000e-07	-4.803700e-06	-1.234311e-09	-3.329395e+01	-8.066284e+01
6.200000e-07	-4.780169e-06	-1.210445e-09	-3.313085e+01	-8.047165e+01
6.300000e-07	-4.756449e-06	-1.181517e-09	-3.296646e+01	-8.027599e+01
6.400000e-07	-4.732522e-06	-1.203993e-09	-3.280062e+01	-8.007579e+01
6.500000e-07	-4.708301e-06	-1.204608e-09	-3.263274e+01	-7.987096e+01
6.600000e-07	-4.683544e-06	-1.179686e-09	-3.246116e+01	-7.966146e+01
6.700000e-07	-4.658225e-06	-1.192538e-09	-3.228567e+01	-7.944724e+01
6.800000e-07	-4.632486e-06	-1.194980e-09	-3.210727e+01	-7.922827e+01
6.900000e-07	-4.606181e-06	-1.176138e-09	-3.192496e+01	-7.900456e+01
7.000000e-07	-4.579408e-06	-1.173607e-09	-3.173940e+01	-7.877611e+01
7.100000e-07	-4.552279e-06	-1.184289e-09	-3.155137e+01	-7.854295e+01
7.200000e-07	-4.524792e-06	-1.167222e-09	-3.136086e+01	-7.830513e+01
7.300000e-07	-4.497154e-06	-1.162591e-09	-3.116930e+01	-7.806272e+01
7.400000e-07	-4.469392e-06	-1.166008e-09	-3.097689e+01	-7.781582e+01
7.500000e-07	-4.441386e-06	-1.163652e-09	-3.078278e+01	-7.756452e+01
7.600000e-07	-4.413071e-06	-1.154197e-09	-3.058653e+01	-7.730895e+01
7.700000e-07	-4.384406e-06	-1.158952e-09	-3.038786e+01	-7.704926e+01
7.800000e-07	-4.355377e-06	-1.152945e-09	-3.018666e+01	-7.678562e+01
7.900000e-07	-4.326025e-06	-1.148682e-09	-2.998323e+01	-7.651819e+01
8.000000e-07	-4.296402e-06	-1.143051e-09	-2.977792e+01	-7.624717e+01
8.100000e-07	-4.266581e-06	-1.136972e-09	-2.957123e+01	-7.597276e+01
8.200000e-07	-4.236460e-06	-1.121572e-09	-2.936246e+01	-7.569517e+01
8.300000e-07	-4.205932e-06	-1.122697e-09	-2.915087e+01	-7.541462e+01
8.400000e-07	-4.175117e-06	-1.121569e-09	-2.893730e+01	-7.513133e+01
8.500000e-07	-4.144102e-06	-1.115338e-09	-2.872234e+01	-7.484554e+01
8.600000e-07	-4.112861e-06	-1.113481e-09	-2.850581e+01	-7.455746e+01
8.700000e-07	-4.081430e-06	-1.117655e-09	-2.828797e+01	-7.426732e+01
8.800000e-07	-4.049806e-06	-1.108347e-09	-2.806878e+01	-7.397534e+01
8.900000e-07	-4.017988e-06	-1.098740e-09	-2.784826e+01	-7.368172e+01
9.000000e-07	-3.986015e-06	-1.096930e-09	-2.762666e+01	-7.338666e+01
9.100000e-07	-3.953735e-06	-1.089876e-09	-2.740293e+01	-7.309034e+01
9.200000e-07	-3.920963e-06	-1.079826e-09	-2.717579e+01	-7.279293e+01
9.300000e-07	-3.887790e-06	-1.079877e-09	-2.694586e+01	-7.249456e+01
9.400000e-07	-3.854242e-06	-1.081323e-09	-2.671335e+01	-7.219535e+01
9.500000e-07	-3.820256e-06	-1.076535e-09	-2.647779e+01	-7.189540e+01
9.600000e-07	-3.785856e-06	-1.077961e-09	-2.623938e+01	-7.159478e+01
9.700000e-07	-3.750965e-06	-1.077105e-09	-2.599755e+01	-7.129352e+01
9.800000e-07	-3.715710e-06	-1.067956e-09	-2.575320e+01	-7.099163e+01
9.900000e-07	-3.680272e-06	-1.058065e-09	-2.550758e+01	-7.068909e+01
1.000000e-06	-3.644683e-06	-1.057075e-09	-2.526092e+01	-7.038583e+01
1.010000e-06	-3.608943e-06	-1.050051e-09	-2.501321e+01	-7.008177e+01
1.020000e-06	-3.573029e-06	-1.046240e-09	-2.476429e+01	-6.977677e+01
1.030000e-06	-3.536963e-06	-1.048687e-09	-2.451432e+01	-6.947068e+01
1.040000e-06	-3.500726e-06	-1.050390e-09	-2.426317e+01	-6.916329e+01
1.050000e-06	-3.464243e-06	-1.041340e-09	-2.401030e+01	-6.885438e+01
1.060000e-06	-3.427471e-06	-1.034382e-09	-2.375544e+01	-6.854369e+01
1.070000e-06	-3.390407e-06	-1.024812e-09	-2.349856e+01	-6.823092e+01
1.080000e-06	-3.353112e-06	-1.014589e-09	-2.324007e+01	-6.791575e+01
1.090000e-06	-3.315615e-06	-1.004636e-09	-2.298018e+01	-6.759783e+01
1.100000e-06	-3.277872e-06	-1.001136e-09	-2.271859e+01	-6.727680e+01
1.110000e-06	-3.239874e-06	-9.949387e-10	-2.245523e+01	-6.695224e+01
1.120000e-06	-3.201657e-06	-9.892471e-10	-2.219035e+01	-6.662375e+01
1.130000e-06	-3.163199e-06	-9.838709e-10	-2.192380e+01	-6.629090e+01
1.140000e-06	-3.124499e-06	-9.792175e-10	-2.165558e+01	-6.595324e+01
1.150000e-06	-3.085613e-06	-9.699819e-10	-2.138606e+01	-6.561031e+01
1.160000e-06	-3.046567e-06	-9.606685e-10	-2.111544e+01	-6.526166e+01
1.170000e-06	-3.007321e-06	-9.517039e-10	-2.084343e+01	-6.490683e+01
1.180000e-06	-2.967885e-06	-9.439820e-10	-2.057010e+01	-6.454535e+01
1.190000e-06	-2.928333e-06	-9.372891e-10	-2.029597e+01	-6.417677e+01
1.200000e-06	-2.888646e-06	-9.322767e-10	-2.002090e+01	-6.380064e+01
1.210000e-06	-2.848786e-06	-9.278652e-10	-1.974464e+01	-6.341654e+01
1.220000e-06	-2.808802e-06	-9.229353e-10	-1.946752e+01	-6.302404e+01
1.230000e-06	-2.768685e-06	-9.163258e-10	-1.918947e+01	-6.262274e+01
1.240000e-06	-2.728377e-06	-9.058428e-10	-1.891010e+01	-6.221226e+01
1.250000e-06	-2.687836e-06	-8.946910e-10	-1.862911e+01	-6.179226e+01
1.260000e-06	-2.646945e-06	-8.861528e-10	-1.834570e+01	-6.136241e+01
1.270000e-06	-2.605737e-06	-8.825740e-10	-1.806009e+01	-6.092241e+01
1.280000e-06	-2.564220e-06	-8.770145e-10	-1.777234e+01	-6.047199e+01
1.290000e-06	-2.522254e-06	-8.687993e-10	-1.748148e+01	-6.001092e+01
1.300000e-06	-2.480054e-06	-8.582961e-10	-1.718900e+01	-5.953900e+01
1.310000e-06	-2.437822e-06	-8.477092e-10	-1.689629e+01	-5.905606e+01
1.320000e-06	-2.395319e-06	-8.359290e-10	-1.660171e+01	-5.856197e+01
1.330000e-06	-2.352457e-06	-8.281604e-10	-1.630463e+01	-5.805662e+01
1.340000e-06	-2.309292e-06	-8.248506e-10	-1.600546e+01	-5.753996e+01
1.350000e-06	-2.265928e-06	-8.231717e-10	-1.570491e+01	-5.701193e+01
1.360000e-06	-2.222475e-06	-8.171250e-10	-1.540375e+01	-5.647254e+01
1.370000e-06	-2.178946e-06	-8.081681e-10	-1.510205e+01	-5.592181e+01
1.380000e-06	-2.135362e-06	-7.975906e-10	-1.479997e+01	-5.535978e+01
1.390000e-06	-2.091697e-06	-7.867185e-10	-1.449733e+01	-5.478652e+01
1.400000e-06	-2.047897e-06	-7.737353e-10	-1.419376e+01	-5.420212e+01
1.410000e-06	-2.004017e-06	-7.631316e-10	-1.388963e+01	-5.360668e+01
1.420000e-06	-1.960092e-06	-7.513345e-10	-1.358519e+01	-5.300031e+01
1.430000e-06	-1.916121e-06	-7.429353e-10	-1.328043e+01	-5.238315e+01
1.440000e-06	-1.872101e-06	-7.367451e-10	-1.297534e+01	-5.175533e+01
1.450000e-06	-1.827920e-06	-7.305194e-10	-1.266912e+01	-5.111696e+01
1.460000e-06	-1.783526e-06	-7.193833e-10	-1.236143e+01	-5.046818e+01
1.470000e-06	-1.739041e-06	-7.071469e-10	-1.205311e+01	-4.980911e+01
1.480000e-06	-1.694383e-06	-6.965653e-10	-1.174359e+01	-4.913984e+01
1.490000e-06	-1.649480e-06	-6.853114e-10	-1.143238e+01	-4.846048e+01
1.500000e-06	-1.604489e-06	-6.744291e-10	-1.112055e+01	-4.777110e+01
1.510000e-06	-1.559410e-06	-6.638912e-10	-1.080811e+01	-4.707173e+01
1.520000e-06	-1.514196e-06	-6.517922e-10	-1.049474e+01	-4.636239e+01
1.530000e-06	-1.468812e-06	-6.356733e-10	-1.018019e+01	-4.564308e+01
1.540000e-06	-1.423316e-06	-6.209698e-10	-9.864855e+00	-4.491375e+01
1.550000e-06	-1.377816e-06	-6.094156e-10	-9.549501e+00	-4.417432e+01
1.560000e-06	-1.332268e-06	-6.005994e-10	-9.233814e+00	-4.342467e+01
1.570000e-06	-1.286576e-06	-5.908134e-10	-8.917126e+00	-4.266466e+01
1.580000e-06	-1.240726e-06	-5.797172e-10	-8.599344e+00	-4.189407e+01
1.590000e-06	-1.194794e-06	-5.674012e-10	-8.280989e+00	-4.111267e+01
1.600000e-06	-1.148876e-06	-5.510555e-10	-7.962741e+00	-4.032020e+01
1.610000e-06	-1.102925e-06	-5.351227e-10	-7.644257e+00	-3.951632e+01
1.620000e-06	-1.056923e-06	-5.238203e-10	-7.325424e+00	-3.870070e+01
1.630000e-06	-1.010825e-06	-5.137338e-10	-7.005923e+00	-3.787294e+01
1.640000e-06	-9.645368e-07	-5.050276e-10	-6.685104e+00	-3.703261e+01
1.650000e-06	-9.181531e-07	-4.914040e-10	-6.363623e+00	-3.617926e+01
1.660000e-06	-8.717607e-07	-4.765007e-10	-6.042083e+00	-3.531241e+01
1.670000e-06	-8.253658e-07	-4.623791e-10	-5.720524e+00	-3.443156e+01
1.680000e-06	-7.789180e-07	-4.499121e-10	-5.398599e+00	-3.353618e+01
1.690000e-06	-7.324204e-07	-4.357959e-10	-5.076330e+00	-3.262573e+01
1.700000e-06	-6.858421e-07	-4.210480e-10	-4.753500e+00	-3.169968e+01
1.710000e-06	-6.391652e-07	-4.059592e-10	-4.429987e+00	-3.075747e+01
1.720000e-06	-5.925403e-07	-3.903849e-10	-4.106835e+00	-2.979856e+01
1.730000e-06	-5.459111e-07	-3.751611e-10	-3.783653e+00	-2.882243e+01
1.740000e-06	-4.991426e-07	-3.597972e-10	-3.459505e+00	-2.782854e+01
1.750000e-06	-4.523104e-07	-3.445285e-10	-3.134916e+00	-2.681642e+01
1.760000e-06	-4.054344e-07	-3.302735e-10	-2.810024e+00	-2.578561e+01
1.770000e-06	-3.585063e-07	-3.131008e-10	-2.484770e+00	-2.473567e+01
1.780000e-06	-3.115219e-07	-2.971853e-10	-2.159126e+00	-2.366623e+01
1.790000e-06	-2.645617e-07	-2.844423e-10	-1.833650e+00	-2.257697e+01
1.800000e-06	-2.175850e-07	-2.685793e-10	-1.508059e+00	-2.146760e+01
1.810000e-06	-1.705576e-07	-2.496523e-10	-1.182117e+00	-2.033794e+01
1.820000e-06	-1.235783e-07	-2.296404e-10	-8.565080e-01	-1.918782e+01
1.830000e-06	-7.664173e-08	-2.123092e-10	-5.311958e-01	-1.801720e+01
1.840000e-06	-2.973744e-08	-1.947560e-10	-2.061071e-01	-1.682609e+01
1.850000e-06	1.720281e-08	-1.769347e-10	1.192309e-01	-1.561460e+01
1.860000e-06	6.413828e-08	-1.619069e-10	4.445357e-01	-1.438289e+01
1.870000e-06	1.111073e-07	-1.465701e-10	7.700731e-01	-1.313127e+01
1.880000e-06	1.581759e-07	-1.297044e-10	1.096300e+00	-1.186010e+01
1.890000e-06	2.052482e-07	-1.120514e-10	1.422554e+00	-1.056985e+01
1.900000e-06	2.522249e-07	-9.245423e-11	1.748145e+00	-9.261085e+00
1.910000e-06	2.991188e-07	-7.282516e-11	2.073161e+00	-7.934467e+00
1.920000e-06	3.460091e-07	-5.189299e-11	2.398153e+00	-6.590758e+00
1.930000e-06	3.929283e-07	-3.306692e-11	2.723345e+00	-5.230809e+00
1.940000e-06	4.398541e-07	-1.521047e-11	3.048583e+00	-3.855570e+00
1.950000e-06	4.866857e-07	-5.346259e-13	3.373168e+00	-2.466077e+00
1.960000e-06	5.334609e-07	1.374107e-11	3.697362e+00	-1.063457e+00
1.970000e-06	5.802297e-07	3.096238e-11	4.021512e+00	3.510839e-01
1.980000e-06	6.269216e-07	5.144215e-11	4.345128e+00	1.776260e+00
1.990000e-06	6.735021e-07	7.401894e-11	4.667973e+00	3.210715e+00
2.000000e-06	7.200075e-07	9.812609e-11	4.990297e+00	4.653025e+00
2.010000e-06	7.664854e-07	1.211291e-10	5.312431e+00	6.101711e+00
2.020000e-06	8.129325e-07	1.410343e-10	5.634350e+00	7.555240e+00
2.030000e-06	8.593590e-07	1.575935e-10	5.956128e+00	9.012037e+00
2.040000e-06	9.057029e-07	1.734342e-10	6.277332e+00	1.047049e+01
2.050000e-06	9.519818e-07	1.908312e-10	6.598087e+00	1.192897e+01
2.060000e-06	9.982260e-07	2.107308e-10	6.918600e+00	1.338582e+01
2.070000e-06	1.044386e-06	2.324498e-10	7.238533e+00	1.483938e+01
2.080000e-06	1.090368e-06	2.557976e-10	7.557229e+00	1.628799e+01
2.090000e-06	1.136240e-06	2.780066e-10	7.875160e+00	1.773000e+01
2.100000e-06	1.182103e-06	2.981319e-10	8.193033e+00	1.916380e+01
2.110000e-06	1.227893e-06	3.187403e-10	8.510399e+00	2.058777e+01
2.120000e-06	1.273619e-06	3.384029e-10	8.827319e+00	2.200036e+01
2.130000e-06	1.319285e-06	3.570988e-10	9.143830e+00	2.340005e+01
2.140000e-06	1.364816e-06	3.754256e-10	9.459399e+00	2.478539e+01
2.150000e-06	1.410197e-06	3.939371e-10	9.773925e+00	2.615499e+01
2.160000e-06	1.455527e-06	4.108450e-10	1.008810e+01	2.750752e+01
2.170000e-06	1.500843e-06	4.291559e-10	1.040219e+01	2.884174e+01
2.180000e-06	1.546072e-06	4.481152e-10	1.071566e+01	3.015648e+01
2.190000e-06	1.591211e-06	4.661115e-10	1.102852e+01	3.145068e+01
2.200000e-06	1.636197e-06	4.834035e-10	1.134031e+01	3.272334e+01
2.210000e-06	1.680950e-06	5.008568e-10	1.165049e+01	3.397361e+01
2.220000e-06	1.725595e-06	5.172005e-10	1.195992e+01	3.520069e+01
2.230000e-06	1.770071e-06	5.326167e-10	1.226818e+01	3.640392e+01
2.240000e-06	1.814285e-06	5.464617e-10	1.257462e+01	3.758273e+01
2.250000e-06	1.858355e-06	5.589762e-10	1.288007e+01	3.873666e+01
2.260000e-06	1.902375e-06	5.728759e-10	1.318516e+01	3.986536e+01
2.270000e-06	1.946273e-06	5.887496e-10	1.348942e+01	4.096858e+01
2.280000e-06	1.990061e-06	6.046234e-10	1.379290e+01	4.204619e+01
2.290000e-06	2.033874e-06	6.200629e-10	1.409657e+01	4.309813e+01
2.300000e-06	2.077675e-06	6.311571e-10	1.440015e+01	4.412449e+01
2.310000e-06	2.121385e-06	6.398118e-10	1.470310e+01	4.512542e+01
2.320000e-06	2.165025e-06	6.483492e-10	1.500556e+01	4.610116e+01
2.330000e-06	2.208571e-06	6.584531e-10	1.530737e+01	4.705205e+01
2.340000e-06	2.252035e-06	6.715124e-10	1.560862e+01	4.797851e+01
2.350000e-06	2.295405e-06	6.873822e-10	1.590921e+01	4.888103e+01
2.360000e-06	2.338573e-06	7.053546e-10	1.620840e+01	4.976018e+01
2.370000e-06	2.381483e-06	7.201779e-10	1.650581e+01	5.061657e+01
2.380000e-06	2.424094e-06	7.285995e-10	1.680114e+01	5.145087e+01
2.390000e-06	2.466427e-06	7.342309e-10	1.709455e+01	5.226382e+01
2.400000e-06	2.508569e-06	7.406795e-10	1.738663e+01	5.305616e+01
2.410000e-06	2.550389e-06	7.505621e-10	1.767648e+01	5.382870e+01
2.420000e-06	2.591819e-06	7.663191e-10	1.796363e+01	5.458224e+01
2.430000e-06	2.632898e-06	7.843004e-10	1.824834e+01	5.531761e+01
2.440000e-06	2.673720e-06	7.994978e-10	1.853127e+01	5.603566e+01
2.450000e-06	2.714350e-06	8.101342e-10	1.881288e+01	5.673721e+01
2.460000e-06	2.754683e-06	8.185139e-10	1.909242e+01	5.742310e+01
2.470000e-06	2.794789e-06	8.248775e-10	1.937039e+01	5.809415e+01
2.480000e-06	2.834763e-06	8.310717e-10	1.964745e+01	5.875114e+01
2.490000e-06	2.874563e-06	8.380174e-10	1.992329e+01	5.939486e+01
2.500000e-06	2.914195e-06	8.479782e-10	2.019798e+01	6.002603e+01
2.510000e-06	2.953760e-06	8.628450e-10	2.047220e+01	6.064535e+01
2.520000e-06	2.993271e-06	8.785303e-10	2.074605e+01	6.125349e+01
2.530000e-06	3.032557e-06	8.902422e-10	2.101833e+01	6.185106e+01
2.540000e-06	3.071582e-06	8.969990e-10	2.128882e+01	6.243862e+01
2.550000e-06	3.110462e-06	8.999419e-10	2.155829e+01	6.301669e+01
2.560000e-06	3.149107e-06	9.029551e-10	2.182613e+01	6.358571e+01
2.570000e-06	3.187438e-06	9.069838e-10	2.209180e+01	6.414611e+01
2.580000e-06	3.225535e-06	9.131778e-10	2.235585e+01	6.469821e+01
2.590000e-06	3.263500e-06	9.231029e-10	2.261898e+01	6.524232e+01
2.600000e-06	3.301290e-06	9.364616e-10	2.288090e+01	6.577868e+01
2.610000e-06	3.338852e-06	9.500321e-10	2.314123e+01	6.630745e+01
2.620000e-06	3.376172e-06	9.615103e-10	2.339990e+01	6.682878e+01
2.630000e-06	3.413294e-06	9.695966e-10	2.365719e+01	6.734274e+01
2.640000e-06	3.450144e-06	9.733939e-10	2.391259e+01	6.784937e+01
2.650000e-06	3.486651e-06	9.759576e-10	2.416561e+01	6.834864e+01
2.660000e-06	3.522936e-06	9.810420e-10	2.441710e+01	6.884049e+01
2.670000e-06	3.558997e-06	9.875819e-10	2.466704e+01	6.932485e+01
2.680000e-06	3.594825e-06	9.949754e-10	2.491535e+01	6.980158e+01
2.690000e-06	3.630537e-06	1.004687e-09	2.516287e+01	7.027052e+01
2.700000e-06	3.666186e-06	1.014152e-09	2.540995e+01	7.073149e+01
2.710000e-06	3.701648e-06	1.022139e-09	2.565574e+01	7.118430e+01
2.720000e-06	3.736889e-06	1.026437e-09	2.589999e+01	7.162873e+01
2.730000e-06	3.771968e-06	1.030374e-09	2.614312e+01	7.206456e+01
2.740000e-06	3.806691e-06	1.034989e-09	2.638378e+01	7.249155e+01
2.750000e-06	3.840881e-06	1.039817e-09	2.662074e+01	7.290947e+01
2.760000e-06	3.874585e-06	1.045987e-09	2.685434e+01	7.331810e+01
2.770000e-06	3.907832e-06	1.052961e-09	2.708478e+01	7.371722e+01
2.780000e-06	3.940679e-06	1.059598e-09	2.731244e+01	7.410663e+01
2.790000e-06	3.973114e-06	1.066729e-09	2.753724e+01	7.448614e+01
2.800000e-06	4.005242e-06	1.074249e-09	2.775992e+01	7.485558e+01
2.810000e-06	4.037220e-06	1.081722e-09	2.798155e+01	7.521481e+01
2.820000e-06	4.069020e-06	1.089075e-09	2.820195e+01	7.556370e+01
2.830000e-06	4.100660e-06	1.094800e-09	2.842125e+01	7.590218e+01
2.840000e-06	4.132110e-06	1.099221e-09	2.863922e+01	7.623018e+01
2.850000e-06	4.163316e-06	1.103084e-09	2.885551e+01	7.654767e+01
2.860000e-06	4.194166e-06	1.106789e-09	2.906933e+01	7.685468e+01
2.870000e-06	4.224667e-06	1.109978e-09	2.928073e+01	7.715123e+01
2.880000e-06	4.254895e-06	1.112306e-09	2.949023e+01	7.743741e+01
2.890000e-06	4.284813e-06	1.115712e-09	2.969759e+01	7.771333e+01
2.900000e-06	4.314432e-06	1.120650e-09	2.990288e+01	7.797914e+01
