# Temperatura_=_-0.3
# Concentracion g/m^3_=_1620.0
# C_Vs_to_Am_M_A/Vsm_=_65563218390.804596
# pendiente_HvsI_1/m_=_3716.3
# ordenada_HvsI_A/m_=_1297.0
# frecuencia_Hz_=_135105.66800869163

Tiempo_(s)	Campo_(V.s)	Magnetizacion_(V.s)	Campo_(kA/m)	Magnetizacion_(A/m)
0.000000e+00	-5.517029e-06	-8.793469e-10	-3.837125e+01	-5.888494e+01
1.000000e-08	-5.517190e-06	-8.762488e-10	-3.837237e+01	-5.886804e+01
2.000000e-08	-5.517124e-06	-8.774574e-10	-3.837191e+01	-5.885252e+01
3.000000e-08	-5.516628e-06	-8.807862e-10	-3.836845e+01	-5.883836e+01
4.000000e-08	-5.515570e-06	-8.822650e-10	-3.836110e+01	-5.882550e+01
5.000000e-08	-5.513882e-06	-8.790136e-10	-3.834936e+01	-5.881388e+01
6.000000e-08	-5.511603e-06	-8.610609e-10	-3.833350e+01	-5.880341e+01
7.000000e-08	-5.508797e-06	-8.414985e-10	-3.831399e+01	-5.879398e+01
8.000000e-08	-5.505526e-06	-8.519621e-10	-3.829124e+01	-5.878546e+01
9.000000e-08	-5.501833e-06	-9.128520e-10	-3.826556e+01	-5.877771e+01
1.000000e-07	-5.497683e-06	-9.416061e-10	-3.823669e+01	-5.877056e+01
1.100000e-07	-5.493212e-06	-8.910802e-10	-3.820560e+01	-5.876385e+01
1.200000e-07	-5.488565e-06	-7.884680e-10	-3.817328e+01	-5.875738e+01
1.300000e-07	-5.483673e-06	-8.546733e-10	-3.813926e+01	-5.875097e+01
1.400000e-07	-5.478407e-06	-9.077155e-10	-3.810263e+01	-5.874439e+01
1.500000e-07	-5.472668e-06	-8.979725e-10	-3.806271e+01	-5.873743e+01
1.600000e-07	-5.466522e-06	-8.009051e-10	-3.801997e+01	-5.872988e+01
1.700000e-07	-5.460015e-06	-8.258460e-10	-3.797471e+01	-5.872151e+01
1.800000e-07	-5.452996e-06	-8.913646e-10	-3.792590e+01	-5.871209e+01
1.900000e-07	-5.445596e-06	-8.738373e-10	-3.787443e+01	-5.870138e+01
2.000000e-07	-5.437994e-06	-8.259439e-10	-3.782155e+01	-5.868918e+01
2.100000e-07	-5.430202e-06	-8.557696e-10	-3.776736e+01	-5.867526e+01
2.200000e-07	-5.422134e-06	-9.410361e-10	-3.771125e+01	-5.865939e+01
2.300000e-07	-5.413689e-06	-9.352384e-10	-3.765251e+01	-5.864137e+01
2.400000e-07	-5.404792e-06	-9.083252e-10	-3.759063e+01	-5.862100e+01
2.500000e-07	-5.395286e-06	-8.927348e-10	-3.752452e+01	-5.859809e+01
2.600000e-07	-5.385036e-06	-9.404653e-10	-3.745323e+01	-5.857245e+01
2.700000e-07	-5.374130e-06	-9.314073e-10	-3.737738e+01	-5.854393e+01
2.800000e-07	-5.362791e-06	-9.347079e-10	-3.729851e+01	-5.851237e+01
2.900000e-07	-5.351074e-06	-9.280973e-10	-3.721702e+01	-5.847764e+01
3.000000e-07	-5.338961e-06	-9.665286e-10	-3.713277e+01	-5.843961e+01
3.100000e-07	-5.326479e-06	-9.471184e-10	-3.704596e+01	-5.839817e+01
3.200000e-07	-5.313635e-06	-9.353783e-10	-3.695663e+01	-5.835325e+01
3.300000e-07	-5.300400e-06	-9.115815e-10	-3.686458e+01	-5.830478e+01
3.400000e-07	-5.286825e-06	-9.343011e-10	-3.677017e+01	-5.825269e+01
3.500000e-07	-5.272810e-06	-9.169095e-10	-3.667269e+01	-5.819696e+01
3.600000e-07	-5.258254e-06	-9.124987e-10	-3.657145e+01	-5.813758e+01
3.700000e-07	-5.243242e-06	-9.152256e-10	-3.646704e+01	-5.807454e+01
3.800000e-07	-5.227787e-06	-9.392471e-10	-3.635955e+01	-5.800786e+01
3.900000e-07	-5.211760e-06	-9.109219e-10	-3.624808e+01	-5.793758e+01
4.000000e-07	-5.195264e-06	-9.028208e-10	-3.613336e+01	-5.786375e+01
4.100000e-07	-5.178503e-06	-9.345146e-10	-3.601678e+01	-5.778645e+01
4.200000e-07	-5.161460e-06	-9.210107e-10	-3.589824e+01	-5.770574e+01
4.300000e-07	-5.144000e-06	-8.755939e-10	-3.577681e+01	-5.762173e+01
4.400000e-07	-5.126162e-06	-8.954106e-10	-3.565275e+01	-5.753453e+01
4.500000e-07	-5.108053e-06	-9.376946e-10	-3.552680e+01	-5.744425e+01
4.600000e-07	-5.089500e-06	-8.839763e-10	-3.539775e+01	-5.735102e+01
4.700000e-07	-5.070458e-06	-8.679147e-10	-3.526532e+01	-5.725499e+01
4.800000e-07	-5.051106e-06	-9.218093e-10	-3.513072e+01	-5.715630e+01
4.900000e-07	-5.031575e-06	-9.223095e-10	-3.499488e+01	-5.705510e+01
5.000000e-07	-5.011872e-06	-8.610648e-10	-3.485785e+01	-5.695154e+01
5.100000e-07	-4.991973e-06	-8.920190e-10	-3.471945e+01	-5.684580e+01
5.200000e-07	-4.971811e-06	-9.041004e-10	-3.457923e+01	-5.673803e+01
5.300000e-07	-4.951218e-06	-8.634285e-10	-3.443600e+01	-5.662840e+01
5.400000e-07	-4.930152e-06	-8.713735e-10	-3.428948e+01	-5.651706e+01
5.500000e-07	-4.908748e-06	-9.272697e-10	-3.414062e+01	-5.640419e+01
5.600000e-07	-4.887033e-06	-8.816487e-10	-3.398959e+01	-5.628993e+01
5.700000e-07	-4.864946e-06	-8.589708e-10	-3.383597e+01	-5.617444e+01
5.800000e-07	-4.842531e-06	-8.959157e-10	-3.368008e+01	-5.605788e+01
5.900000e-07	-4.819797e-06	-8.903294e-10	-3.352196e+01	-5.594038e+01
6.000000e-07	-4.796717e-06	-8.467675e-10	-3.336144e+01	-5.582208e+01
6.100000e-07	-4.773357e-06	-8.833961e-10	-3.319896e+01	-5.570309e+01
6.200000e-07	-4.749772e-06	-8.942107e-10	-3.303493e+01	-5.558355e+01
6.300000e-07	-4.726025e-06	-8.607555e-10	-3.286977e+01	-5.546355e+01
6.400000e-07	-4.702047e-06	-8.657052e-10	-3.270300e+01	-5.534318e+01
6.500000e-07	-4.677626e-06	-8.846603e-10	-3.253315e+01	-5.522254e+01
6.600000e-07	-4.652744e-06	-8.523029e-10	-3.236009e+01	-5.510170e+01
6.700000e-07	-4.627303e-06	-8.484308e-10	-3.218315e+01	-5.498070e+01
6.800000e-07	-4.601194e-06	-8.680314e-10	-3.200156e+01	-5.485960e+01
6.900000e-07	-4.574705e-06	-8.556560e-10	-3.181733e+01	-5.473843e+01
7.000000e-07	-4.547882e-06	-8.463959e-10	-3.163077e+01	-5.461721e+01
7.100000e-07	-4.520591e-06	-8.627736e-10	-3.144096e+01	-5.449595e+01
7.200000e-07	-4.493007e-06	-8.564479e-10	-3.124912e+01	-5.437463e+01
7.300000e-07	-4.465289e-06	-8.427665e-10	-3.105634e+01	-5.425323e+01
7.400000e-07	-4.437405e-06	-8.524086e-10	-3.086240e+01	-5.413173e+01
7.500000e-07	-4.409230e-06	-8.448893e-10	-3.066644e+01	-5.401006e+01
7.600000e-07	-4.380746e-06	-8.320541e-10	-3.046833e+01	-5.388817e+01
7.700000e-07	-4.351963e-06	-8.349525e-10	-3.026815e+01	-5.376599e+01
7.800000e-07	-4.322828e-06	-8.365304e-10	-3.006551e+01	-5.364343e+01
7.900000e-07	-4.293405e-06	-8.211033e-10	-2.986087e+01	-5.352038e+01
8.000000e-07	-4.263764e-06	-8.263119e-10	-2.965472e+01	-5.339675e+01
8.100000e-07	-4.233852e-06	-8.293466e-10	-2.944668e+01	-5.327240e+01
8.200000e-07	-4.203644e-06	-8.220719e-10	-2.923658e+01	-5.314722e+01
8.300000e-07	-4.173061e-06	-8.168135e-10	-2.902387e+01	-5.302105e+01
8.400000e-07	-4.142165e-06	-8.268753e-10	-2.880899e+01	-5.289375e+01
8.500000e-07	-4.111022e-06	-8.180362e-10	-2.859239e+01	-5.276515e+01
8.600000e-07	-4.079662e-06	-8.093997e-10	-2.837428e+01	-5.263511e+01
8.700000e-07	-4.048161e-06	-8.086671e-10	-2.815519e+01	-5.250344e+01
8.800000e-07	-4.016429e-06	-8.074094e-10	-2.793449e+01	-5.236996e+01
8.900000e-07	-3.984534e-06	-7.938208e-10	-2.771266e+01	-5.223450e+01
9.000000e-07	-3.952419e-06	-7.942483e-10	-2.748930e+01	-5.209687e+01
9.100000e-07	-3.919926e-06	-7.933506e-10	-2.726330e+01	-5.195687e+01
9.200000e-07	-3.887079e-06	-7.904733e-10	-2.703485e+01	-5.181432e+01
9.300000e-07	-3.853862e-06	-7.899087e-10	-2.680383e+01	-5.166902e+01
9.400000e-07	-3.820193e-06	-7.953673e-10	-2.656966e+01	-5.152078e+01
9.500000e-07	-3.786035e-06	-7.846893e-10	-2.633209e+01	-5.136940e+01
9.600000e-07	-3.751394e-06	-7.720903e-10	-2.609116e+01	-5.121469e+01
9.700000e-07	-3.716364e-06	-7.695326e-10	-2.584752e+01	-5.105646e+01
9.800000e-07	-3.681096e-06	-7.661078e-10	-2.560223e+01	-5.089453e+01
9.900000e-07	-3.645624e-06	-7.607821e-10	-2.535552e+01	-5.072872e+01
1.000000e-06	-3.609983e-06	-7.638159e-10	-2.510763e+01	-5.055884e+01
1.010000e-06	-3.574220e-06	-7.679362e-10	-2.485890e+01	-5.038473e+01
1.020000e-06	-3.538347e-06	-7.630894e-10	-2.460940e+01	-5.020622e+01
1.030000e-06	-3.502316e-06	-7.592034e-10	-2.435880e+01	-5.002315e+01
1.040000e-06	-3.466077e-06	-7.556474e-10	-2.410676e+01	-4.983538e+01
1.050000e-06	-3.429562e-06	-7.462628e-10	-2.385280e+01	-4.964277e+01
1.060000e-06	-3.392693e-06	-7.343484e-10	-2.359637e+01	-4.944520e+01
1.070000e-06	-3.355540e-06	-7.333814e-10	-2.333797e+01	-4.924253e+01
1.080000e-06	-3.318214e-06	-7.321096e-10	-2.307836e+01	-4.903468e+01
1.090000e-06	-3.280658e-06	-7.311997e-10	-2.281716e+01	-4.882153e+01
1.100000e-06	-3.242844e-06	-7.300627e-10	-2.255416e+01	-4.860301e+01
1.110000e-06	-3.204739e-06	-7.299594e-10	-2.228914e+01	-4.837904e+01
1.120000e-06	-3.166393e-06	-7.228711e-10	-2.202244e+01	-4.814958e+01
1.130000e-06	-3.127913e-06	-7.171759e-10	-2.175481e+01	-4.791456e+01
1.140000e-06	-3.089235e-06	-7.093895e-10	-2.148580e+01	-4.767396e+01
1.150000e-06	-3.050340e-06	-7.000527e-10	-2.121529e+01	-4.742776e+01
1.160000e-06	-3.011284e-06	-6.914108e-10	-2.094365e+01	-4.717594e+01
1.170000e-06	-2.972090e-06	-6.918466e-10	-2.067105e+01	-4.691852e+01
1.180000e-06	-2.932706e-06	-6.919907e-10	-2.039713e+01	-4.665550e+01
1.190000e-06	-2.893103e-06	-6.945827e-10	-2.012170e+01	-4.638691e+01
1.200000e-06	-2.853380e-06	-6.962365e-10	-1.984542e+01	-4.611278e+01
1.210000e-06	-2.813598e-06	-6.939351e-10	-1.956873e+01	-4.583316e+01
1.220000e-06	-2.773679e-06	-6.839423e-10	-1.929109e+01	-4.554810e+01
1.230000e-06	-2.733576e-06	-6.745736e-10	-1.901218e+01	-4.525766e+01
1.240000e-06	-2.693238e-06	-6.655518e-10	-1.873162e+01	-4.496191e+01
1.250000e-06	-2.652699e-06	-6.577169e-10	-1.844967e+01	-4.466091e+01
1.260000e-06	-2.612007e-06	-6.545261e-10	-1.816665e+01	-4.435473e+01
1.270000e-06	-2.571070e-06	-6.569295e-10	-1.788194e+01	-4.404346e+01
1.280000e-06	-2.529715e-06	-6.580100e-10	-1.759431e+01	-4.372715e+01
1.290000e-06	-2.488032e-06	-6.540842e-10	-1.730441e+01	-4.340589e+01
1.300000e-06	-2.446083e-06	-6.470375e-10	-1.701264e+01	-4.307974e+01
1.310000e-06	-2.403889e-06	-6.390936e-10	-1.671918e+01	-4.274875e+01
1.320000e-06	-2.361495e-06	-6.319991e-10	-1.642433e+01	-4.241299e+01
1.330000e-06	-2.318781e-06	-6.275349e-10	-1.612725e+01	-4.207250e+01
1.340000e-06	-2.275840e-06	-6.260900e-10	-1.582860e+01	-4.172730e+01
1.350000e-06	-2.232737e-06	-6.226867e-10	-1.552881e+01	-4.137742e+01
1.360000e-06	-2.189429e-06	-6.187709e-10	-1.522760e+01	-4.102285e+01
1.370000e-06	-2.145943e-06	-6.131605e-10	-1.492516e+01	-4.066358e+01
1.380000e-06	-2.102394e-06	-6.081741e-10	-1.462227e+01	-4.029958e+01
1.390000e-06	-2.058810e-06	-5.989183e-10	-1.431914e+01	-3.993078e+01
1.400000e-06	-2.015106e-06	-5.898182e-10	-1.401517e+01	-3.955711e+01
1.410000e-06	-1.971279e-06	-5.811420e-10	-1.371036e+01	-3.917846e+01
1.420000e-06	-1.927373e-06	-5.743993e-10	-1.340499e+01	-3.879470e+01
1.430000e-06	-1.883322e-06	-5.709207e-10	-1.309861e+01	-3.840568e+01
1.440000e-06	-1.839119e-06	-5.701820e-10	-1.279118e+01	-3.801120e+01
1.450000e-06	-1.794815e-06	-5.650253e-10	-1.248304e+01	-3.761106e+01
1.460000e-06	-1.750452e-06	-5.555631e-10	-1.217449e+01	-3.720501e+01
1.470000e-06	-1.705957e-06	-5.439639e-10	-1.186502e+01	-3.679278e+01
1.480000e-06	-1.661288e-06	-5.324967e-10	-1.155435e+01	-3.637406e+01
1.490000e-06	-1.616485e-06	-5.195914e-10	-1.124274e+01	-3.594852e+01
1.500000e-06	-1.571597e-06	-5.111647e-10	-1.093054e+01	-3.551579e+01
1.510000e-06	-1.526594e-06	-5.065727e-10	-1.061754e+01	-3.507548e+01
1.520000e-06	-1.481382e-06	-5.045565e-10	-1.030309e+01	-3.462718e+01
1.530000e-06	-1.436091e-06	-5.007980e-10	-9.988091e+00	-3.417043e+01
1.540000e-06	-1.390746e-06	-4.927549e-10	-9.672716e+00	-3.370476e+01
1.550000e-06	-1.345305e-06	-4.814933e-10	-9.356675e+00	-3.322969e+01
1.560000e-06	-1.299842e-06	-4.667507e-10	-9.040476e+00	-3.274470e+01
1.570000e-06	-1.254334e-06	-4.518891e-10	-8.723965e+00	-3.224924e+01
1.580000e-06	-1.208715e-06	-4.405997e-10	-8.406681e+00	-3.174279e+01
1.590000e-06	-1.162942e-06	-4.331099e-10	-8.088327e+00	-3.122476e+01
1.600000e-06	-1.117045e-06	-4.288201e-10	-7.769112e+00	-3.069461e+01
1.610000e-06	-1.071069e-06	-4.239128e-10	-7.449345e+00	-3.015174e+01
1.620000e-06	-1.025067e-06	-4.158949e-10	-7.129401e+00	-2.959558e+01
1.630000e-06	-9.790381e-07	-4.051874e-10	-6.809265e+00	-2.902556e+01
1.640000e-06	-9.328935e-07	-3.896728e-10	-6.488327e+00	-2.844111e+01
1.650000e-06	-8.866829e-07	-3.722128e-10	-6.166930e+00	-2.784166e+01
1.660000e-06	-8.404088e-07	-3.576276e-10	-5.845090e+00	-2.722669e+01
1.670000e-06	-7.940865e-07	-3.474355e-10	-5.522916e+00	-2.659565e+01
1.680000e-06	-7.476874e-07	-3.390949e-10	-5.200208e+00	-2.594805e+01
1.690000e-06	-7.012017e-07	-3.330283e-10	-4.876897e+00	-2.528341e+01
1.700000e-06	-6.547913e-07	-3.259388e-10	-4.554111e+00	-2.460130e+01
1.710000e-06	-6.083704e-07	-3.163106e-10	-4.231250e+00	-2.390131e+01
1.720000e-06	-5.619050e-07	-3.033253e-10	-3.908081e+00	-2.318308e+01
1.730000e-06	-5.154717e-07	-2.899632e-10	-3.585134e+00	-2.244630e+01
1.740000e-06	-4.689655e-07	-2.760650e-10	-3.261681e+00	-2.169068e+01
1.750000e-06	-4.223012e-07	-2.634252e-10	-2.937128e+00	-2.091603e+01
1.760000e-06	-3.754793e-07	-2.516755e-10	-2.611479e+00	-2.012218e+01
1.770000e-06	-3.286481e-07	-2.409600e-10	-2.285766e+00	-1.930904e+01
1.780000e-06	-2.818539e-07	-2.323610e-10	-1.960310e+00	-1.847656e+01
1.790000e-06	-2.350117e-07	-2.224304e-10	-1.634519e+00	-1.762479e+01
1.800000e-06	-1.881753e-07	-2.089768e-10	-1.308770e+00	-1.675381e+01
1.810000e-06	-1.413270e-07	-1.931960e-10	-9.829375e-01	-1.586381e+01
1.820000e-06	-9.443449e-08	-1.768400e-10	-6.567972e-01	-1.495501e+01
1.830000e-06	-4.754446e-08	-1.627574e-10	-3.306744e-01	-1.402773e+01
1.840000e-06	-6.655826e-10	-1.499212e-10	-4.629164e-03	-1.308236e+01
1.850000e-06	4.619724e-08	-1.403212e-10	3.213044e-01	-1.211935e+01
1.860000e-06	9.302626e-08	-1.308557e-10	6.470028e-01	-1.113923e+01
1.870000e-06	1.397894e-07	-1.187340e-10	9.722430e-01	-1.014261e+01
1.880000e-06	1.865080e-07	-1.051387e-10	1.297174e+00	-9.130156e+00
1.890000e-06	2.332789e-07	-9.071911e-11	1.622468e+00	-8.102611e+00
1.900000e-06	2.800920e-07	-7.743492e-11	1.948056e+00	-7.060782e+00
1.910000e-06	3.268548e-07	-6.310587e-11	2.273293e+00	-6.005540e+00
1.920000e-06	3.735249e-07	-4.946558e-11	2.597887e+00	-4.937818e+00
1.930000e-06	4.201525e-07	-3.645388e-11	2.922184e+00	-3.858605e+00
1.940000e-06	4.667813e-07	-2.387683e-11	3.246490e+00	-2.768943e+00
1.950000e-06	5.133819e-07	-1.287504e-11	3.570600e+00	-1.669921e+00
1.960000e-06	5.598968e-07	-3.371642e-13	3.894113e+00	-5.626746e-01
1.970000e-06	6.063335e-07	1.464831e-11	4.217083e+00	5.516236e-01
1.980000e-06	6.527731e-07	3.127258e-11	4.540074e+00	1.671767e+00
1.990000e-06	6.991730e-07	4.895533e-11	4.862788e+00	2.796521e+00
2.000000e-06	7.454712e-07	6.640447e-11	5.184794e+00	3.924629e+00
2.010000e-06	7.916869e-07	8.345530e-11	5.506227e+00	5.054818e+00
2.020000e-06	8.378771e-07	9.704583e-11	5.827482e+00	6.185806e+00
2.030000e-06	8.840911e-07	1.104936e-10	6.148903e+00	7.316305e+00
2.040000e-06	9.302774e-07	1.242723e-10	6.470132e+00	8.445031e+00
2.050000e-06	9.763138e-07	1.382583e-10	6.790317e+00	9.570708e+00
2.060000e-06	1.022283e-06	1.528239e-10	7.110034e+00	1.069207e+01
2.070000e-06	1.068226e-06	1.694524e-10	7.429570e+00	1.180789e+01
2.080000e-06	1.114028e-06	1.869723e-10	7.748130e+00	1.291694e+01
2.090000e-06	1.159692e-06	2.033532e-10	8.065724e+00	1.401803e+01
2.100000e-06	1.205243e-06	2.178216e-10	8.382536e+00	1.511004e+01
2.110000e-06	1.250745e-06	2.315841e-10	8.699003e+00	1.619184e+01
2.120000e-06	1.296262e-06	2.461457e-10	9.015578e+00	1.726240e+01
2.130000e-06	1.341658e-06	2.599308e-10	9.331308e+00	1.832070e+01
2.140000e-06	1.386934e-06	2.728959e-10	9.646201e+00	1.936580e+01
2.150000e-06	1.432159e-06	2.855384e-10	9.960746e+00	2.039680e+01
2.160000e-06	1.477228e-06	2.987333e-10	1.027420e+01	2.141290e+01
2.170000e-06	1.522204e-06	3.147828e-10	1.058701e+01	2.241332e+01
2.180000e-06	1.567097e-06	3.324669e-10	1.089925e+01	2.339737e+01
2.190000e-06	1.611804e-06	3.500822e-10	1.121019e+01	2.436445e+01
2.200000e-06	1.656393e-06	3.645415e-10	1.152031e+01	2.531399e+01
2.210000e-06	1.700930e-06	3.757715e-10	1.183006e+01	2.624551e+01
2.220000e-06	1.745321e-06	3.862539e-10	1.213880e+01	2.715863e+01
2.230000e-06	1.789483e-06	3.951673e-10	1.244595e+01	2.805299e+01
2.240000e-06	1.833477e-06	4.048991e-10	1.275194e+01	2.892835e+01
2.250000e-06	1.877398e-06	4.173998e-10	1.305741e+01	2.978450e+01
2.260000e-06	1.921277e-06	4.323108e-10	1.336259e+01	3.062134e+01
2.270000e-06	1.965099e-06	4.462607e-10	1.366737e+01	3.143880e+01
2.280000e-06	2.008847e-06	4.591541e-10	1.397164e+01	3.223689e+01
2.290000e-06	2.052536e-06	4.694137e-10	1.427550e+01	3.301568e+01
2.300000e-06	2.096134e-06	4.787539e-10	1.457873e+01	3.377530e+01
2.310000e-06	2.139676e-06	4.891164e-10	1.488157e+01	3.451594e+01
2.320000e-06	2.183162e-06	4.993132e-10	1.518401e+01	3.523783e+01
2.330000e-06	2.226568e-06	5.084989e-10	1.548591e+01	3.594125e+01
2.340000e-06	2.269881e-06	5.184616e-10	1.578715e+01	3.662653e+01
2.350000e-06	2.312983e-06	5.299918e-10	1.608692e+01	3.729401e+01
2.360000e-06	2.355822e-06	5.409582e-10	1.638487e+01	3.794411e+01
2.370000e-06	2.398410e-06	5.493382e-10	1.668108e+01	3.857725e+01
2.380000e-06	2.440701e-06	5.564935e-10	1.697521e+01	3.919386e+01
2.390000e-06	2.482687e-06	5.640447e-10	1.726723e+01	3.979442e+01
2.400000e-06	2.524294e-06	5.723486e-10	1.755661e+01	4.037941e+01
2.410000e-06	2.565560e-06	5.813394e-10	1.784362e+01	4.094931e+01
2.420000e-06	2.606534e-06	5.898694e-10	1.812859e+01	4.150463e+01
2.430000e-06	2.647188e-06	5.972875e-10	1.841134e+01	4.204586e+01
2.440000e-06	2.687611e-06	6.060649e-10	1.869249e+01	4.257349e+01
2.450000e-06	2.727854e-06	6.167517e-10	1.897238e+01	4.308802e+01
2.460000e-06	2.767885e-06	6.253589e-10	1.925079e+01	4.358991e+01
2.470000e-06	2.807762e-06	6.312449e-10	1.952814e+01	4.407963e+01
2.480000e-06	2.847602e-06	6.366414e-10	1.980523e+01	4.455763e+01
2.490000e-06	2.887358e-06	6.432855e-10	2.008173e+01	4.502432e+01
2.500000e-06	2.926976e-06	6.503913e-10	2.035728e+01	4.548011e+01
2.510000e-06	2.966399e-06	6.586405e-10	2.063147e+01	4.592539e+01
2.520000e-06	3.005665e-06	6.674359e-10	2.090457e+01	4.636049e+01
2.530000e-06	3.044753e-06	6.747891e-10	2.117643e+01	4.678575e+01
2.540000e-06	3.083608e-06	6.794234e-10	2.144667e+01	4.720146e+01
2.550000e-06	3.122208e-06	6.822565e-10	2.171513e+01	4.760789e+01
2.560000e-06	3.160602e-06	6.869872e-10	2.198217e+01	4.800529e+01
2.570000e-06	3.198798e-06	6.941781e-10	2.224782e+01	4.839385e+01
2.580000e-06	3.236727e-06	7.005142e-10	2.251162e+01	4.877378e+01
2.590000e-06	3.274422e-06	7.050860e-10	2.277379e+01	4.914521e+01
2.600000e-06	3.311912e-06	7.088727e-10	2.303453e+01	4.950827e+01
2.610000e-06	3.349228e-06	7.124797e-10	2.329407e+01	4.986309e+01
2.620000e-06	3.386271e-06	7.159957e-10	2.355171e+01	5.020973e+01
2.630000e-06	3.423102e-06	7.194661e-10	2.380787e+01	5.054826e+01
2.640000e-06	3.459682e-06	7.227814e-10	2.406228e+01	5.087871e+01
2.650000e-06	3.495915e-06	7.269216e-10	2.431428e+01	5.120113e+01
2.660000e-06	3.531932e-06	7.314885e-10	2.456479e+01	5.151551e+01
2.670000e-06	3.567807e-06	7.352707e-10	2.481430e+01	5.182186e+01
2.680000e-06	3.603571e-06	7.395108e-10	2.506304e+01	5.212017e+01
2.690000e-06	3.639252e-06	7.445180e-10	2.531120e+01	5.241042e+01
2.700000e-06	3.674798e-06	7.493014e-10	2.555842e+01	5.269260e+01
2.710000e-06	3.710210e-06	7.540502e-10	2.580472e+01	5.296669e+01
2.720000e-06	3.745448e-06	7.605899e-10	2.604980e+01	5.323267e+01
2.730000e-06	3.780314e-06	7.676541e-10	2.629230e+01	5.349053e+01
2.740000e-06	3.814666e-06	7.728208e-10	2.653121e+01	5.374027e+01
2.750000e-06	3.848547e-06	7.765171e-10	2.676686e+01	5.398188e+01
2.760000e-06	3.881957e-06	7.801092e-10	2.699923e+01	5.421538e+01
2.770000e-06	3.914764e-06	7.839911e-10	2.722740e+01	5.444079e+01
2.780000e-06	3.947126e-06	7.880578e-10	2.745248e+01	5.465816e+01
2.790000e-06	3.979226e-06	7.936060e-10	2.767574e+01	5.486755e+01
2.800000e-06	4.011106e-06	8.002293e-10	2.789747e+01	5.506902e+01
2.810000e-06	4.042828e-06	8.045812e-10	2.811809e+01	5.526267e+01
2.820000e-06	4.074389e-06	8.060916e-10	2.833760e+01	5.544861e+01
2.830000e-06	4.105790e-06	8.058639e-10	2.855600e+01	5.562697e+01
2.840000e-06	4.136979e-06	8.042511e-10	2.877292e+01	5.579789e+01
2.850000e-06	4.167853e-06	8.049388e-10	2.898765e+01	5.596155e+01
2.860000e-06	4.198432e-06	8.097023e-10	2.920033e+01	5.611812e+01
2.870000e-06	4.228708e-06	8.145404e-10	2.941090e+01	5.626782e+01
2.880000e-06	4.258627e-06	8.199438e-10	2.961899e+01	5.641085e+01
2.890000e-06	4.288190e-06	8.262838e-10	2.982460e+01	5.654746e+01
2.900000e-06	4.317483e-06	8.323289e-10	3.002834e+01	5.667789e+01
