# Temperatura_=_-0.3
# Concentracion g/m^3_=_1620.0
# C_Vs_to_Am_M_A/Vsm_=_65563218390.804596
# pendiente_HvsI_1/m_=_3716.3
# ordenada_HvsI_A/m_=_1297.0
# frecuencia_Hz_=_135107.52302485897

Tiempo_(s)	Campo_(V.s)	Magnetizacion_(V.s)	Campo_(kA/m)	Magnetizacion_(A/m)
0.000000e+00	-5.512668e-06	-1.415115e-09	-3.836899e+01	-9.036539e+01
1.000000e-08	-5.512916e-06	-1.411911e-09	-3.837072e+01	-9.037593e+01
2.000000e-08	-5.512834e-06	-1.412398e-09	-3.837015e+01	-9.038431e+01
3.000000e-08	-5.512279e-06	-1.414445e-09	-3.836628e+01	-9.039035e+01
4.000000e-08	-5.511189e-06	-1.415675e-09	-3.835870e+01	-9.039388e+01
5.000000e-08	-5.509636e-06	-1.415155e-09	-3.834789e+01	-9.039472e+01
6.000000e-08	-5.507478e-06	-1.414384e-09	-3.833287e+01	-9.039267e+01
7.000000e-08	-5.504699e-06	-1.422225e-09	-3.831353e+01	-9.038753e+01
8.000000e-08	-5.501543e-06	-1.424221e-09	-3.829156e+01	-9.037912e+01
9.000000e-08	-5.497982e-06	-1.393070e-09	-3.826677e+01	-9.036724e+01
1.000000e-07	-5.493909e-06	-1.368572e-09	-3.823843e+01	-9.035169e+01
1.100000e-07	-5.489469e-06	-1.398614e-09	-3.820752e+01	-9.033229e+01
1.200000e-07	-5.484792e-06	-1.418796e-09	-3.817497e+01	-9.030885e+01
1.300000e-07	-5.479831e-06	-1.404677e-09	-3.814044e+01	-9.028121e+01
1.400000e-07	-5.474521e-06	-1.371676e-09	-3.810349e+01	-9.024920e+01
1.500000e-07	-5.468869e-06	-1.369584e-09	-3.806414e+01	-9.021268e+01
1.600000e-07	-5.462889e-06	-1.399718e-09	-3.802252e+01	-9.017151e+01
1.700000e-07	-5.456513e-06	-1.410642e-09	-3.797815e+01	-9.012559e+01
1.800000e-07	-5.449699e-06	-1.417236e-09	-3.793072e+01	-9.007481e+01
1.900000e-07	-5.442573e-06	-1.407017e-09	-3.788112e+01	-9.001908e+01
2.000000e-07	-5.435187e-06	-1.398533e-09	-3.782971e+01	-8.995836e+01
2.100000e-07	-5.427535e-06	-1.396703e-09	-3.777645e+01	-8.989260e+01
2.200000e-07	-5.419625e-06	-1.401978e-09	-3.772140e+01	-8.982176e+01
2.300000e-07	-5.411351e-06	-1.405029e-09	-3.766381e+01	-8.974586e+01
2.400000e-07	-5.402527e-06	-1.408628e-09	-3.760240e+01	-8.966490e+01
2.500000e-07	-5.393031e-06	-1.414776e-09	-3.753630e+01	-8.957892e+01
2.600000e-07	-5.382849e-06	-1.406494e-09	-3.746543e+01	-8.948797e+01
2.700000e-07	-5.372071e-06	-1.385865e-09	-3.739041e+01	-8.939212e+01
2.800000e-07	-5.360852e-06	-1.369680e-09	-3.731233e+01	-8.929144e+01
2.900000e-07	-5.349233e-06	-1.376485e-09	-3.723146e+01	-8.918605e+01
3.000000e-07	-5.337256e-06	-1.372704e-09	-3.714810e+01	-8.907605e+01
3.100000e-07	-5.324918e-06	-1.360427e-09	-3.706222e+01	-8.896156e+01
3.200000e-07	-5.312137e-06	-1.357477e-09	-3.697327e+01	-8.884271e+01
3.300000e-07	-5.298997e-06	-1.360758e-09	-3.688181e+01	-8.871963e+01
3.400000e-07	-5.285497e-06	-1.346335e-09	-3.678785e+01	-8.859247e+01
3.500000e-07	-5.271599e-06	-1.334770e-09	-3.669111e+01	-8.846138e+01
3.600000e-07	-5.257247e-06	-1.335340e-09	-3.659122e+01	-8.832648e+01
3.700000e-07	-5.242393e-06	-1.335427e-09	-3.648784e+01	-8.818794e+01
3.800000e-07	-5.227062e-06	-1.346270e-09	-3.638113e+01	-8.804588e+01
3.900000e-07	-5.211276e-06	-1.362235e-09	-3.627126e+01	-8.790045e+01
4.000000e-07	-5.195007e-06	-1.341617e-09	-3.615802e+01	-8.775176e+01
4.100000e-07	-5.178293e-06	-1.313463e-09	-3.604169e+01	-8.759993e+01
4.200000e-07	-5.161300e-06	-1.328707e-09	-3.592342e+01	-8.744508e+01
4.300000e-07	-5.144034e-06	-1.338381e-09	-3.580324e+01	-8.728729e+01
4.400000e-07	-5.126384e-06	-1.312184e-09	-3.568040e+01	-8.712664e+01
4.500000e-07	-5.108249e-06	-1.314319e-09	-3.555417e+01	-8.696321e+01
4.600000e-07	-5.089644e-06	-1.338995e-09	-3.542469e+01	-8.679703e+01
4.700000e-07	-5.070721e-06	-1.316959e-09	-3.529297e+01	-8.662815e+01
4.800000e-07	-5.051528e-06	-1.300591e-09	-3.515939e+01	-8.645659e+01
4.900000e-07	-5.032064e-06	-1.319956e-09	-3.502392e+01	-8.628234e+01
5.000000e-07	-5.012332e-06	-1.310699e-09	-3.488658e+01	-8.610540e+01
5.100000e-07	-4.992349e-06	-1.282175e-09	-3.474749e+01	-8.592574e+01
5.200000e-07	-4.972097e-06	-1.299602e-09	-3.460654e+01	-8.574330e+01
5.300000e-07	-4.951542e-06	-1.306593e-09	-3.446347e+01	-8.555804e+01
5.400000e-07	-4.930629e-06	-1.281017e-09	-3.431792e+01	-8.536989e+01
5.500000e-07	-4.909372e-06	-1.283327e-09	-3.416996e+01	-8.517875e+01
5.600000e-07	-4.887855e-06	-1.294955e-09	-3.402020e+01	-8.498454e+01
5.700000e-07	-4.865993e-06	-1.268899e-09	-3.386804e+01	-8.478716e+01
5.800000e-07	-4.843677e-06	-1.263958e-09	-3.371272e+01	-8.458651e+01
5.900000e-07	-4.821025e-06	-1.278421e-09	-3.355505e+01	-8.438246e+01
6.000000e-07	-4.798102e-06	-1.257818e-09	-3.339550e+01	-8.417490e+01
6.100000e-07	-4.774894e-06	-1.242963e-09	-3.323397e+01	-8.396373e+01
6.200000e-07	-4.751427e-06	-1.259505e-09	-3.307064e+01	-8.374882e+01
6.300000e-07	-4.727690e-06	-1.248251e-09	-3.290543e+01	-8.353008e+01
6.400000e-07	-4.703638e-06	-1.230401e-09	-3.273802e+01	-8.330738e+01
6.500000e-07	-4.679209e-06	-1.247140e-09	-3.256799e+01	-8.308065e+01
6.600000e-07	-4.654335e-06	-1.246394e-09	-3.239486e+01	-8.284979e+01
6.700000e-07	-4.628937e-06	-1.222534e-09	-3.221809e+01	-8.261473e+01
6.800000e-07	-4.603045e-06	-1.228259e-09	-3.203788e+01	-8.237541e+01
6.900000e-07	-4.576695e-06	-1.235991e-09	-3.185448e+01	-8.213178e+01
7.000000e-07	-4.549941e-06	-1.217649e-09	-3.166827e+01	-8.188381e+01
7.100000e-07	-4.522827e-06	-1.217035e-09	-3.147955e+01	-8.163148e+01
7.200000e-07	-4.495420e-06	-1.222752e-09	-3.128880e+01	-8.137481e+01
7.300000e-07	-4.467785e-06	-1.204641e-09	-3.109645e+01	-8.111382e+01
7.400000e-07	-4.439869e-06	-1.197500e-09	-3.090215e+01	-8.084854e+01
7.500000e-07	-4.411678e-06	-1.210317e-09	-3.070594e+01	-8.057903e+01
7.600000e-07	-4.383288e-06	-1.200930e-09	-3.050834e+01	-8.030538e+01
7.700000e-07	-4.354652e-06	-1.189916e-09	-3.030903e+01	-8.002768e+01
7.800000e-07	-4.325680e-06	-1.197198e-09	-3.010738e+01	-7.974604e+01
7.900000e-07	-4.296351e-06	-1.189715e-09	-2.990324e+01	-7.946058e+01
8.000000e-07	-4.266699e-06	-1.169221e-09	-2.969686e+01	-7.917147e+01
8.100000e-07	-4.236815e-06	-1.171038e-09	-2.948887e+01	-7.887883e+01
8.200000e-07	-4.206613e-06	-1.173458e-09	-2.927866e+01	-7.858286e+01
8.300000e-07	-4.176112e-06	-1.159326e-09	-2.906637e+01	-7.828371e+01
8.400000e-07	-4.145373e-06	-1.155265e-09	-2.885242e+01	-7.798158e+01
8.500000e-07	-4.114341e-06	-1.160443e-09	-2.863643e+01	-7.767664e+01
8.600000e-07	-4.083080e-06	-1.151200e-09	-2.841884e+01	-7.736909e+01
8.700000e-07	-4.051606e-06	-1.143193e-09	-2.819978e+01	-7.705911e+01
8.800000e-07	-4.019947e-06	-1.144509e-09	-2.797943e+01	-7.674689e+01
8.900000e-07	-3.988127e-06	-1.135896e-09	-2.775796e+01	-7.643259e+01
9.000000e-07	-3.956132e-06	-1.122482e-09	-2.753527e+01	-7.611640e+01
9.100000e-07	-3.923853e-06	-1.120330e-09	-2.731060e+01	-7.579845e+01
9.200000e-07	-3.891106e-06	-1.117507e-09	-2.708268e+01	-7.547890e+01
9.300000e-07	-3.857868e-06	-1.108199e-09	-2.685134e+01	-7.515787e+01
9.400000e-07	-3.824229e-06	-1.106714e-09	-2.661721e+01	-7.483545e+01
9.500000e-07	-3.790111e-06	-1.108031e-09	-2.637974e+01	-7.451173e+01
9.600000e-07	-3.755479e-06	-1.100075e-09	-2.613869e+01	-7.418677e+01
9.700000e-07	-3.720522e-06	-1.092461e-09	-2.589539e+01	-7.386060e+01
9.800000e-07	-3.685389e-06	-1.089668e-09	-2.565085e+01	-7.353322e+01
9.900000e-07	-3.650042e-06	-1.081464e-09	-2.540483e+01	-7.320460e+01
1.000000e-06	-3.614488e-06	-1.072885e-09	-2.515737e+01	-7.287470e+01
1.010000e-06	-3.578782e-06	-1.069969e-09	-2.490886e+01	-7.254342e+01
1.020000e-06	-3.542969e-06	-1.066347e-09	-2.465959e+01	-7.221066e+01
1.030000e-06	-3.506993e-06	-1.060271e-09	-2.440920e+01	-7.187626e+01
1.040000e-06	-3.470740e-06	-1.058257e-09	-2.415687e+01	-7.154005e+01
1.050000e-06	-3.434213e-06	-1.052317e-09	-2.390263e+01	-7.120183e+01
1.060000e-06	-3.397497e-06	-1.040260e-09	-2.364708e+01	-7.086136e+01
1.070000e-06	-3.360527e-06	-1.031633e-09	-2.338977e+01	-7.051837e+01
1.080000e-06	-3.323277e-06	-1.029001e-09	-2.313051e+01	-7.017258e+01
1.090000e-06	-3.285787e-06	-1.025031e-09	-2.286957e+01	-6.982368e+01
1.100000e-06	-3.248024e-06	-1.021079e-09	-2.260673e+01	-6.947134e+01
1.110000e-06	-3.210035e-06	-1.016726e-09	-2.234232e+01	-6.911519e+01
1.120000e-06	-3.171818e-06	-1.007329e-09	-2.207633e+01	-6.875488e+01
1.130000e-06	-3.133357e-06	-9.960773e-10	-2.180863e+01	-6.839002e+01
1.140000e-06	-3.094705e-06	-9.859737e-10	-2.153961e+01	-6.802022e+01
1.150000e-06	-3.055881e-06	-9.762809e-10	-2.126939e+01	-6.764508e+01
1.160000e-06	-3.016847e-06	-9.678050e-10	-2.099770e+01	-6.726419e+01
1.170000e-06	-2.977599e-06	-9.637380e-10	-2.072453e+01	-6.687715e+01
1.180000e-06	-2.938198e-06	-9.601713e-10	-2.045029e+01	-6.648356e+01
1.190000e-06	-2.898677e-06	-9.545880e-10	-2.017522e+01	-6.608301e+01
1.200000e-06	-2.859019e-06	-9.488676e-10	-1.989920e+01	-6.567512e+01
1.210000e-06	-2.819247e-06	-9.396435e-10	-1.962238e+01	-6.525950e+01
1.220000e-06	-2.779279e-06	-9.284793e-10	-1.934420e+01	-6.483581e+01
1.230000e-06	-2.739127e-06	-9.203182e-10	-1.906473e+01	-6.440368e+01
1.240000e-06	-2.698854e-06	-9.140901e-10	-1.878442e+01	-6.396280e+01
1.250000e-06	-2.658367e-06	-9.074069e-10	-1.850263e+01	-6.351286e+01
1.260000e-06	-2.617650e-06	-9.036725e-10	-1.821924e+01	-6.305358e+01
1.270000e-06	-2.576634e-06	-9.040450e-10	-1.793376e+01	-6.258469e+01
1.280000e-06	-2.535251e-06	-9.013017e-10	-1.764573e+01	-6.210597e+01
1.290000e-06	-2.493636e-06	-8.927539e-10	-1.735608e+01	-6.161722e+01
1.300000e-06	-2.451810e-06	-8.806977e-10	-1.706496e+01	-6.111826e+01
1.310000e-06	-2.409729e-06	-8.680740e-10	-1.677207e+01	-6.060893e+01
1.320000e-06	-2.367373e-06	-8.565736e-10	-1.647727e+01	-6.008912e+01
1.330000e-06	-2.324674e-06	-8.493106e-10	-1.618008e+01	-5.955873e+01
1.340000e-06	-2.281683e-06	-8.480176e-10	-1.588086e+01	-5.901769e+01
1.350000e-06	-2.238484e-06	-8.455811e-10	-1.558018e+01	-5.846594e+01
1.360000e-06	-2.195146e-06	-8.386772e-10	-1.527854e+01	-5.790347e+01
1.370000e-06	-2.151731e-06	-8.291682e-10	-1.497637e+01	-5.733027e+01
1.380000e-06	-2.108199e-06	-8.188182e-10	-1.467338e+01	-5.674634e+01
1.390000e-06	-2.064522e-06	-8.087096e-10	-1.436938e+01	-5.615170e+01
1.400000e-06	-2.020828e-06	-7.997341e-10	-1.406526e+01	-5.554640e+01
1.410000e-06	-1.977118e-06	-7.914005e-10	-1.376103e+01	-5.493048e+01
1.420000e-06	-1.933301e-06	-7.828389e-10	-1.345607e+01	-5.430397e+01
1.430000e-06	-1.889403e-06	-7.758470e-10	-1.315053e+01	-5.366693e+01
1.440000e-06	-1.845407e-06	-7.691077e-10	-1.284431e+01	-5.301941e+01
1.450000e-06	-1.801244e-06	-7.599928e-10	-1.253693e+01	-5.236143e+01
1.460000e-06	-1.756987e-06	-7.488171e-10	-1.222889e+01	-5.169302e+01
1.470000e-06	-1.712674e-06	-7.365193e-10	-1.192046e+01	-5.101421e+01
1.480000e-06	-1.668229e-06	-7.236038e-10	-1.161112e+01	-5.032497e+01
1.490000e-06	-1.623608e-06	-7.119189e-10	-1.130055e+01	-4.962529e+01
1.500000e-06	-1.578766e-06	-7.024033e-10	-1.098845e+01	-4.891513e+01
1.510000e-06	-1.533810e-06	-6.929916e-10	-1.067554e+01	-4.819439e+01
1.520000e-06	-1.488794e-06	-6.803358e-10	-1.036223e+01	-4.746299e+01
1.530000e-06	-1.443617e-06	-6.644998e-10	-1.004779e+01	-4.672077e+01
1.540000e-06	-1.398269e-06	-6.476687e-10	-9.732164e+00	-4.596759e+01
1.550000e-06	-1.352875e-06	-6.318280e-10	-9.416213e+00	-4.520323e+01
1.560000e-06	-1.307400e-06	-6.174094e-10	-9.099699e+00	-4.442745e+01
1.570000e-06	-1.261825e-06	-6.065464e-10	-8.782487e+00	-4.363999e+01
1.580000e-06	-1.216237e-06	-5.975818e-10	-8.465195e+00	-4.284055e+01
1.590000e-06	-1.170649e-06	-5.864830e-10	-8.147894e+00	-4.202877e+01
1.600000e-06	-1.124992e-06	-5.745767e-10	-7.830110e+00	-4.120429e+01
1.610000e-06	-1.079216e-06	-5.626367e-10	-7.511508e+00	-4.036670e+01
1.620000e-06	-1.033266e-06	-5.484309e-10	-7.191682e+00	-3.951557e+01
1.630000e-06	-9.871498e-07	-5.317537e-10	-6.870710e+00	-3.865045e+01
1.640000e-06	-9.410532e-07	-5.139993e-10	-6.549871e+00	-3.777084e+01
1.650000e-06	-8.950017e-07	-4.970683e-10	-6.229346e+00	-3.687626e+01
1.660000e-06	-8.489244e-07	-4.821797e-10	-5.908641e+00	-3.596618e+01
1.670000e-06	-8.027201e-07	-4.690886e-10	-5.587052e+00	-3.504010e+01
1.680000e-06	-7.563824e-07	-4.563083e-10	-5.264535e+00	-3.409747e+01
1.690000e-06	-7.099919e-07	-4.442121e-10	-4.941649e+00	-3.313778e+01
1.700000e-06	-6.634549e-07	-4.318025e-10	-4.617745e+00	-3.216050e+01
1.710000e-06	-6.169122e-07	-4.148761e-10	-4.293801e+00	-3.116514e+01
1.720000e-06	-5.704430e-07	-3.934839e-10	-3.970368e+00	-3.015120e+01
1.730000e-06	-5.238770e-07	-3.710925e-10	-3.646262e+00	-2.911823e+01
1.740000e-06	-4.772913e-07	-3.518112e-10	-3.322019e+00	-2.806580e+01
1.750000e-06	-4.307006e-07	-3.366111e-10	-2.997740e+00	-2.699353e+01
1.760000e-06	-3.839954e-07	-3.245802e-10	-2.672665e+00	-2.590106e+01
1.770000e-06	-3.371629e-07	-3.135664e-10	-2.346704e+00	-2.478810e+01
1.780000e-06	-2.902760e-07	-3.017606e-10	-2.020365e+00	-2.365443e+01
1.790000e-06	-2.434509e-07	-2.854553e-10	-1.694454e+00	-2.249986e+01
1.800000e-06	-1.967704e-07	-2.641696e-10	-1.369552e+00	-2.132429e+01
1.810000e-06	-1.501081e-07	-2.403612e-10	-1.044775e+00	-2.012770e+01
1.820000e-06	-1.033094e-07	-2.165346e-10	-7.190486e-01	-1.891013e+01
1.830000e-06	-5.649511e-08	-1.955391e-10	-3.932144e-01	-1.767170e+01
1.840000e-06	-9.725881e-09	-1.775993e-10	-6.769359e-02	-1.641264e+01
1.850000e-06	3.703129e-08	-1.651389e-10	2.577433e-01	-1.513325e+01
1.860000e-06	8.381532e-08	-1.545515e-10	5.833672e-01	-1.383391e+01
1.870000e-06	1.306598e-07	-1.396617e-10	9.094118e-01	-1.251511e+01
1.880000e-06	1.774881e-07	-1.216046e-10	1.235344e+00	-1.117744e+01
1.890000e-06	2.242801e-07	-1.006234e-10	1.561023e+00	-9.821564e+00
1.900000e-06	2.710053e-07	-7.838461e-11	1.886238e+00	-8.448241e+00
1.910000e-06	3.176807e-07	-5.736765e-11	2.211105e+00	-7.058330e+00
1.920000e-06	3.643770e-07	-3.871200e-11	2.536118e+00	-5.652774e+00
1.930000e-06	4.110885e-07	-2.278825e-11	2.861237e+00	-4.232602e+00
1.940000e-06	4.577760e-07	-9.261476e-12	3.186189e+00	-2.798927e+00
1.950000e-06	5.043393e-07	3.122500e-12	3.510277e+00	-1.352939e+00
1.960000e-06	5.508214e-07	1.907294e-11	3.833799e+00	1.040994e-01
1.970000e-06	5.972382e-07	4.049382e-11	4.156867e+00	1.570856e+00
1.980000e-06	6.434922e-07	6.483954e-11	4.478802e+00	3.045939e+00
1.990000e-06	6.897353e-07	8.925192e-11	4.800661e+00	4.527901e+00
2.000000e-06	7.360576e-07	1.125926e-10	5.123071e+00	6.015249e+00
2.010000e-06	7.823694e-07	1.331793e-10	5.445408e+00	7.506447e+00
2.020000e-06	8.286348e-07	1.499538e-10	5.767422e+00	8.999930e+00
2.030000e-06	8.748773e-07	1.652786e-10	6.089277e+00	1.049411e+01
2.040000e-06	9.210895e-07	1.814839e-10	6.410921e+00	1.198738e+01
2.050000e-06	9.671447e-07	1.996924e-10	6.731472e+00	1.347814e+01
2.060000e-06	1.013112e-06	2.213576e-10	7.051411e+00	1.496478e+01
2.070000e-06	1.059050e-06	2.450603e-10	7.371149e+00	1.644569e+01
2.080000e-06	1.104921e-06	2.686114e-10	7.690413e+00	1.791932e+01
2.090000e-06	1.150691e-06	2.901127e-10	8.008980e+00	1.938412e+01
2.100000e-06	1.196316e-06	3.089320e-10	8.326536e+00	2.083857e+01
2.110000e-06	1.241864e-06	3.255703e-10	8.643561e+00	2.228123e+01
2.120000e-06	1.287311e-06	3.431896e-10	8.959878e+00	2.371067e+01
2.130000e-06	1.332684e-06	3.624480e-10	9.275680e+00	2.512556e+01
2.140000e-06	1.377955e-06	3.813962e-10	9.590773e+00	2.652462e+01
2.150000e-06	1.423084e-06	4.012422e-10	9.904878e+00	2.790664e+01
2.160000e-06	1.468145e-06	4.221229e-10	1.021851e+01	2.927050e+01
2.170000e-06	1.513192e-06	4.425654e-10	1.053204e+01	3.061516e+01
2.180000e-06	1.558092e-06	4.603704e-10	1.084455e+01	3.193967e+01
2.190000e-06	1.602786e-06	4.758784e-10	1.115563e+01	3.324318e+01
2.200000e-06	1.647458e-06	4.910636e-10	1.146656e+01	3.452492e+01
2.210000e-06	1.692002e-06	5.088444e-10	1.177659e+01	3.578422e+01
2.220000e-06	1.736361e-06	5.308162e-10	1.208533e+01	3.702053e+01
2.230000e-06	1.780622e-06	5.518248e-10	1.239339e+01	3.823338e+01
2.240000e-06	1.824761e-06	5.684868e-10	1.270061e+01	3.942241e+01
2.250000e-06	1.868799e-06	5.826128e-10	1.300712e+01	4.058735e+01
2.260000e-06	1.912742e-06	5.954032e-10	1.331297e+01	4.172803e+01
2.270000e-06	1.956562e-06	6.079592e-10	1.361797e+01	4.284438e+01
2.280000e-06	2.000294e-06	6.220074e-10	1.392234e+01	4.393642e+01
2.290000e-06	2.043975e-06	6.371638e-10	1.422637e+01	4.500424e+01
2.300000e-06	2.087606e-06	6.520775e-10	1.453005e+01	4.604805e+01
2.310000e-06	2.131160e-06	6.679102e-10	1.483319e+01	4.706809e+01
2.320000e-06	2.174609e-06	6.844092e-10	1.513560e+01	4.806473e+01
2.330000e-06	2.217969e-06	6.982579e-10	1.543740e+01	4.903835e+01
2.340000e-06	2.261219e-06	7.094221e-10	1.573842e+01	4.998943e+01
2.350000e-06	2.304307e-06	7.209773e-10	1.603832e+01	5.091848e+01
2.360000e-06	2.347179e-06	7.319055e-10	1.633671e+01	5.182608e+01
2.370000e-06	2.389818e-06	7.422198e-10	1.663349e+01	5.271284e+01
2.380000e-06	2.432217e-06	7.551227e-10	1.692859e+01	5.357939e+01
2.390000e-06	2.474276e-06	7.696472e-10	1.722133e+01	5.442640e+01
2.400000e-06	2.515976e-06	7.832939e-10	1.751157e+01	5.525456e+01
2.410000e-06	2.557338e-06	7.987893e-10	1.779945e+01	5.606457e+01
2.420000e-06	2.598385e-06	8.148669e-10	1.808515e+01	5.685712e+01
2.430000e-06	2.639187e-06	8.276207e-10	1.836913e+01	5.763293e+01
2.440000e-06	2.679717e-06	8.385807e-10	1.865123e+01	5.839268e+01
2.450000e-06	2.719962e-06	8.497987e-10	1.893134e+01	5.913704e+01
2.460000e-06	2.760000e-06	8.606131e-10	1.921001e+01	5.986669e+01
2.470000e-06	2.799900e-06	8.714230e-10	1.948772e+01	6.058225e+01
2.480000e-06	2.839670e-06	8.834697e-10	1.976453e+01	6.128433e+01
2.490000e-06	2.879358e-06	8.945499e-10	2.004077e+01	6.197350e+01
2.500000e-06	2.918920e-06	9.042290e-10	2.031612e+01	6.265030e+01
2.510000e-06	2.958283e-06	9.143799e-10	2.059009e+01	6.331521e+01
2.520000e-06	2.997486e-06	9.251250e-10	2.086295e+01	6.396869e+01
2.530000e-06	3.036407e-06	9.346085e-10	2.113384e+01	6.461115e+01
2.540000e-06	3.075158e-06	9.434132e-10	2.140356e+01	6.524294e+01
2.550000e-06	3.113728e-06	9.521968e-10	2.167202e+01	6.586439e+01
2.560000e-06	3.151998e-06	9.611790e-10	2.193838e+01	6.647575e+01
2.570000e-06	3.190079e-06	9.698159e-10	2.220343e+01	6.707725e+01
2.580000e-06	3.227982e-06	9.769228e-10	2.246723e+01	6.766908e+01
2.590000e-06	3.265733e-06	9.827725e-10	2.272999e+01	6.825135e+01
2.600000e-06	3.303304e-06	9.905799e-10	2.299149e+01	6.882417e+01
2.610000e-06	3.340720e-06	1.001816e-09	2.325191e+01	6.938760e+01
2.620000e-06	3.377949e-06	1.011695e-09	2.351103e+01	6.994164e+01
2.630000e-06	3.414824e-06	1.019201e-09	2.376768e+01	7.048628e+01
2.640000e-06	3.451343e-06	1.026152e-09	2.402186e+01	7.102149e+01
2.650000e-06	3.487589e-06	1.031743e-09	2.427414e+01	7.154719e+01
2.660000e-06	3.523567e-06	1.036767e-09	2.452455e+01	7.206330e+01
2.670000e-06	3.559357e-06	1.042348e-09	2.477365e+01	7.256970e+01
2.680000e-06	3.595063e-06	1.048249e-09	2.502217e+01	7.306629e+01
2.690000e-06	3.630668e-06	1.055368e-09	2.526999e+01	7.355293e+01
2.700000e-06	3.666125e-06	1.063972e-09	2.551678e+01	7.402950e+01
2.710000e-06	3.701437e-06	1.071876e-09	2.576255e+01	7.449586e+01
2.720000e-06	3.736544e-06	1.079942e-09	2.600690e+01	7.495189e+01
2.730000e-06	3.771267e-06	1.089251e-09	2.624858e+01	7.539748e+01
2.740000e-06	3.805555e-06	1.097161e-09	2.648723e+01	7.583251e+01
2.750000e-06	3.839478e-06	1.103056e-09	2.672334e+01	7.625690e+01
2.760000e-06	3.872870e-06	1.107974e-09	2.695575e+01	7.667058e+01
2.770000e-06	3.905740e-06	1.113527e-09	2.718453e+01	7.707351e+01
2.780000e-06	3.938249e-06	1.120446e-09	2.741080e+01	7.746565e+01
2.790000e-06	3.970437e-06	1.128289e-09	2.763484e+01	7.784701e+01
2.800000e-06	4.002371e-06	1.136689e-09	2.785710e+01	7.821762e+01
2.810000e-06	4.034108e-06	1.144544e-09	2.807799e+01	7.857754e+01
2.820000e-06	4.065702e-06	1.151445e-09	2.829789e+01	7.892687e+01
2.830000e-06	4.097134e-06	1.156371e-09	2.851666e+01	7.926572e+01
2.840000e-06	4.128380e-06	1.159240e-09	2.873414e+01	7.959424e+01
2.850000e-06	4.159327e-06	1.163096e-09	2.894953e+01	7.991262e+01
2.860000e-06	4.189865e-06	1.167786e-09	2.916208e+01	8.022107e+01
2.870000e-06	4.220047e-06	1.172016e-09	2.937216e+01	8.051982e+01
2.880000e-06	4.249974e-06	1.177751e-09	2.958045e+01	8.080916e+01
2.890000e-06	4.279638e-06	1.184966e-09	2.978692e+01	8.108936e+01
2.900000e-06	4.309035e-06	1.190194e-09	2.999153e+01	8.136074e+01
