# Temperatura_=_13.5
# Concentracion g/m^3_=_1620.0
# C_Vs_to_Am_M_A/Vsm_=_65563218390.804596
# pendiente_HvsI_1/m_=_3716.3
# ordenada_HvsI_A/m_=_1297.0
# frecuencia_Hz_=_135101.14205783192

Tiempo_(s)	Campo_(V.s)	Magnetizacion_(V.s)	Campo_(kA/m)	Magnetizacion_(A/m)
0.000000e+00	-5.523189e-06	-7.876973e-10	-3.837190e+01	-5.222474e+01
1.000000e-08	-5.523355e-06	-7.870828e-10	-3.837305e+01	-5.223938e+01
2.000000e-08	-5.523353e-06	-7.868329e-10	-3.837304e+01	-5.225575e+01
3.000000e-08	-5.523071e-06	-7.865957e-10	-3.837108e+01	-5.227370e+01
4.000000e-08	-5.522214e-06	-7.851958e-10	-3.836512e+01	-5.229307e+01
5.000000e-08	-5.520682e-06	-7.828409e-10	-3.835448e+01	-5.231368e+01
6.000000e-08	-5.518451e-06	-7.776464e-10	-3.833898e+01	-5.233533e+01
7.000000e-08	-5.515663e-06	-7.844754e-10	-3.831961e+01	-5.235781e+01
8.000000e-08	-5.512472e-06	-7.802155e-10	-3.829744e+01	-5.238089e+01
9.000000e-08	-5.508787e-06	-7.521965e-10	-3.827184e+01	-5.240433e+01
1.000000e-07	-5.504698e-06	-7.664015e-10	-3.824343e+01	-5.242788e+01
1.100000e-07	-5.500353e-06	-8.527370e-10	-3.821324e+01	-5.245129e+01
1.200000e-07	-5.495696e-06	-7.798425e-10	-3.818089e+01	-5.247429e+01
1.300000e-07	-5.490757e-06	-7.022522e-10	-3.814658e+01	-5.249662e+01
1.400000e-07	-5.485645e-06	-7.027822e-10	-3.811106e+01	-5.251801e+01
1.500000e-07	-5.480166e-06	-8.127208e-10	-3.807300e+01	-5.253821e+01
1.600000e-07	-5.474121e-06	-7.923350e-10	-3.803100e+01	-5.255695e+01
1.700000e-07	-5.467728e-06	-6.915158e-10	-3.798659e+01	-5.257399e+01
1.800000e-07	-5.461023e-06	-7.286779e-10	-3.794000e+01	-5.258907e+01
1.900000e-07	-5.453922e-06	-8.131381e-10	-3.789067e+01	-5.260196e+01
2.000000e-07	-5.446472e-06	-7.990956e-10	-3.783891e+01	-5.261245e+01
2.100000e-07	-5.438734e-06	-7.139348e-10	-3.778515e+01	-5.262031e+01
2.200000e-07	-5.430828e-06	-7.333211e-10	-3.773023e+01	-5.262537e+01
2.300000e-07	-5.422590e-06	-7.759451e-10	-3.767300e+01	-5.262744e+01
2.400000e-07	-5.413814e-06	-7.943978e-10	-3.761202e+01	-5.262636e+01
2.500000e-07	-5.404526e-06	-7.501937e-10	-3.754749e+01	-5.262199e+01
2.600000e-07	-5.394545e-06	-7.726513e-10	-3.747815e+01	-5.261421e+01
2.700000e-07	-5.383762e-06	-7.919470e-10	-3.740324e+01	-5.260291e+01
2.800000e-07	-5.372562e-06	-8.070128e-10	-3.732542e+01	-5.258802e+01
2.900000e-07	-5.361058e-06	-7.806638e-10	-3.724550e+01	-5.256947e+01
3.000000e-07	-5.349106e-06	-7.902001e-10	-3.716247e+01	-5.254721e+01
3.100000e-07	-5.336728e-06	-7.940341e-10	-3.707647e+01	-5.252122e+01
3.200000e-07	-5.323990e-06	-8.130131e-10	-3.698798e+01	-5.249149e+01
3.300000e-07	-5.310851e-06	-7.844309e-10	-3.689669e+01	-5.245805e+01
3.400000e-07	-5.297298e-06	-7.698835e-10	-3.680254e+01	-5.242091e+01
3.500000e-07	-5.283344e-06	-7.933157e-10	-3.670560e+01	-5.238012e+01
3.600000e-07	-5.268958e-06	-8.100764e-10	-3.660565e+01	-5.233574e+01
3.700000e-07	-5.254041e-06	-7.615391e-10	-3.650202e+01	-5.228785e+01
3.800000e-07	-5.238603e-06	-7.715595e-10	-3.639476e+01	-5.223653e+01
3.900000e-07	-5.222794e-06	-8.212347e-10	-3.628493e+01	-5.218188e+01
4.000000e-07	-5.206492e-06	-7.727333e-10	-3.617167e+01	-5.212401e+01
4.100000e-07	-5.189744e-06	-7.410114e-10	-3.605532e+01	-5.206302e+01
4.200000e-07	-5.172826e-06	-8.158589e-10	-3.593778e+01	-5.199904e+01
4.300000e-07	-5.155613e-06	-8.179643e-10	-3.581819e+01	-5.193218e+01
4.400000e-07	-5.137929e-06	-7.167649e-10	-3.569534e+01	-5.186258e+01
4.500000e-07	-5.119828e-06	-7.741488e-10	-3.556958e+01	-5.179035e+01
4.600000e-07	-5.101389e-06	-8.405899e-10	-3.544148e+01	-5.171563e+01
4.700000e-07	-5.082568e-06	-7.454446e-10	-3.531072e+01	-5.163854e+01
4.800000e-07	-5.063326e-06	-7.170007e-10	-3.517704e+01	-5.155920e+01
4.900000e-07	-5.043907e-06	-8.331539e-10	-3.504213e+01	-5.147771e+01
5.000000e-07	-5.024331e-06	-7.824009e-10	-3.490613e+01	-5.139420e+01
5.100000e-07	-5.004426e-06	-7.062661e-10	-3.476784e+01	-5.130876e+01
5.200000e-07	-4.984218e-06	-7.936348e-10	-3.462744e+01	-5.122148e+01
5.300000e-07	-4.963707e-06	-8.100989e-10	-3.448494e+01	-5.113246e+01
5.400000e-07	-4.942780e-06	-6.994155e-10	-3.433955e+01	-5.104177e+01
5.500000e-07	-4.921536e-06	-7.628495e-10	-3.419196e+01	-5.094947e+01
5.600000e-07	-4.900022e-06	-8.291244e-10	-3.404250e+01	-5.085562e+01
5.700000e-07	-4.878061e-06	-7.314185e-10	-3.388993e+01	-5.076027e+01
5.800000e-07	-4.855682e-06	-7.199366e-10	-3.373444e+01	-5.066345e+01
5.900000e-07	-4.832998e-06	-8.167679e-10	-3.357685e+01	-5.056519e+01
6.000000e-07	-4.810002e-06	-7.621389e-10	-3.341709e+01	-5.046551e+01
6.100000e-07	-4.786735e-06	-7.127975e-10	-3.325545e+01	-5.036442e+01
6.200000e-07	-4.763268e-06	-7.832935e-10	-3.309241e+01	-5.026191e+01
6.300000e-07	-4.739577e-06	-7.724985e-10	-3.292782e+01	-5.015797e+01
6.400000e-07	-4.715565e-06	-7.072920e-10	-3.276100e+01	-5.005260e+01
6.500000e-07	-4.691220e-06	-7.541377e-10	-3.259186e+01	-4.994576e+01
6.600000e-07	-4.666477e-06	-7.779171e-10	-3.241996e+01	-4.983744e+01
6.700000e-07	-4.641139e-06	-7.238638e-10	-3.224393e+01	-4.972759e+01
6.800000e-07	-4.615217e-06	-7.382125e-10	-3.206384e+01	-4.961619e+01
6.900000e-07	-4.588826e-06	-7.701329e-10	-3.188049e+01	-4.950318e+01
7.000000e-07	-4.561948e-06	-7.309204e-10	-3.169376e+01	-4.938855e+01
7.100000e-07	-4.534631e-06	-7.182971e-10	-3.150397e+01	-4.927223e+01
7.200000e-07	-4.507124e-06	-7.487414e-10	-3.131287e+01	-4.915420e+01
7.300000e-07	-4.479524e-06	-7.288985e-10	-3.112112e+01	-4.903441e+01
7.400000e-07	-4.451711e-06	-7.154916e-10	-3.092789e+01	-4.891282e+01
7.500000e-07	-4.423594e-06	-7.414917e-10	-3.073255e+01	-4.878941e+01
7.600000e-07	-4.395225e-06	-7.437364e-10	-3.053546e+01	-4.866414e+01
7.700000e-07	-4.366632e-06	-7.211967e-10	-3.033681e+01	-4.853699e+01
7.800000e-07	-4.337687e-06	-7.331276e-10	-3.013572e+01	-4.840792e+01
7.900000e-07	-4.308341e-06	-7.309012e-10	-2.993184e+01	-4.827693e+01
8.000000e-07	-4.278696e-06	-7.124982e-10	-2.972589e+01	-4.814401e+01
8.100000e-07	-4.248824e-06	-7.164803e-10	-2.951835e+01	-4.800914e+01
8.200000e-07	-4.218625e-06	-7.293725e-10	-2.930855e+01	-4.787232e+01
8.300000e-07	-4.188054e-06	-7.115750e-10	-2.909616e+01	-4.773356e+01
8.400000e-07	-4.157184e-06	-7.097711e-10	-2.888169e+01	-4.759287e+01
8.500000e-07	-4.126070e-06	-7.216151e-10	-2.866553e+01	-4.745026e+01
8.600000e-07	-4.094780e-06	-7.119963e-10	-2.844814e+01	-4.730574e+01
8.700000e-07	-4.063343e-06	-6.958029e-10	-2.822974e+01	-4.715934e+01
8.800000e-07	-4.031743e-06	-7.063342e-10	-2.801020e+01	-4.701108e+01
8.900000e-07	-3.999901e-06	-7.023352e-10	-2.778898e+01	-4.686098e+01
9.000000e-07	-3.967791e-06	-6.855532e-10	-2.756590e+01	-4.670908e+01
9.100000e-07	-3.935405e-06	-6.885387e-10	-2.734090e+01	-4.655539e+01
9.200000e-07	-3.902670e-06	-6.926366e-10	-2.711348e+01	-4.639995e+01
9.300000e-07	-3.869445e-06	-6.764237e-10	-2.688265e+01	-4.624278e+01
9.400000e-07	-3.835745e-06	-6.774903e-10	-2.664852e+01	-4.608391e+01
9.500000e-07	-3.801576e-06	-6.896199e-10	-2.641113e+01	-4.592335e+01
9.600000e-07	-3.766927e-06	-6.799015e-10	-2.617041e+01	-4.576111e+01
9.700000e-07	-3.731925e-06	-6.717694e-10	-2.592724e+01	-4.559722e+01
9.800000e-07	-3.696616e-06	-6.783237e-10	-2.568193e+01	-4.543167e+01
9.900000e-07	-3.661094e-06	-6.719500e-10	-2.543515e+01	-4.526445e+01
1.000000e-06	-3.625484e-06	-6.560884e-10	-2.518775e+01	-4.509556e+01
1.010000e-06	-3.589847e-06	-6.610658e-10	-2.494016e+01	-4.492497e+01
1.020000e-06	-3.554074e-06	-6.667269e-10	-2.469163e+01	-4.475266e+01
1.030000e-06	-3.518024e-06	-6.606148e-10	-2.444118e+01	-4.457859e+01
1.040000e-06	-3.481748e-06	-6.594126e-10	-2.418916e+01	-4.440270e+01
1.050000e-06	-3.445225e-06	-6.633264e-10	-2.393541e+01	-4.422494e+01
1.060000e-06	-3.408361e-06	-6.494994e-10	-2.367930e+01	-4.404524e+01
1.070000e-06	-3.371182e-06	-6.396144e-10	-2.342101e+01	-4.386351e+01
1.080000e-06	-3.333788e-06	-6.422858e-10	-2.316121e+01	-4.367966e+01
1.090000e-06	-3.296213e-06	-6.422046e-10	-2.290016e+01	-4.349359e+01
1.100000e-06	-3.258422e-06	-6.364123e-10	-2.263761e+01	-4.330518e+01
1.110000e-06	-3.220410e-06	-6.412747e-10	-2.237353e+01	-4.311431e+01
1.120000e-06	-3.182171e-06	-6.413219e-10	-2.210787e+01	-4.292085e+01
1.130000e-06	-3.143683e-06	-6.316399e-10	-2.184047e+01	-4.272464e+01
1.140000e-06	-3.104946e-06	-6.245361e-10	-2.157136e+01	-4.252555e+01
1.150000e-06	-3.066013e-06	-6.232933e-10	-2.130087e+01	-4.232342e+01
1.160000e-06	-3.026895e-06	-6.154755e-10	-2.102910e+01	-4.211806e+01
1.170000e-06	-2.987603e-06	-6.106370e-10	-2.075612e+01	-4.190933e+01
1.180000e-06	-2.948155e-06	-6.127107e-10	-2.048206e+01	-4.169703e+01
1.190000e-06	-2.908577e-06	-6.138840e-10	-2.020710e+01	-4.148098e+01
1.200000e-06	-2.868928e-06	-6.125973e-10	-1.993164e+01	-4.126100e+01
1.210000e-06	-2.829148e-06	-6.136501e-10	-1.965527e+01	-4.103690e+01
1.220000e-06	-2.789195e-06	-6.101662e-10	-1.937770e+01	-4.080849e+01
1.230000e-06	-2.749078e-06	-6.022966e-10	-1.909899e+01	-4.057558e+01
1.240000e-06	-2.708754e-06	-5.963806e-10	-1.881885e+01	-4.033798e+01
1.250000e-06	-2.668227e-06	-5.931560e-10	-1.853728e+01	-4.009550e+01
1.260000e-06	-2.627490e-06	-5.897912e-10	-1.825427e+01	-3.984794e+01
1.270000e-06	-2.586439e-06	-5.873974e-10	-1.796907e+01	-3.959512e+01
1.280000e-06	-2.545080e-06	-5.894765e-10	-1.768173e+01	-3.933685e+01
1.290000e-06	-2.503512e-06	-5.876558e-10	-1.739294e+01	-3.907295e+01
1.300000e-06	-2.461572e-06	-5.827722e-10	-1.710157e+01	-3.880324e+01
1.310000e-06	-2.419230e-06	-5.769799e-10	-1.680740e+01	-3.852754e+01
1.320000e-06	-2.376559e-06	-5.709698e-10	-1.651094e+01	-3.824567e+01
1.330000e-06	-2.333600e-06	-5.633186e-10	-1.621249e+01	-3.795745e+01
1.340000e-06	-2.290556e-06	-5.587848e-10	-1.591345e+01	-3.766273e+01
1.350000e-06	-2.247415e-06	-5.559671e-10	-1.561373e+01	-3.736132e+01
1.360000e-06	-2.204060e-06	-5.513532e-10	-1.531252e+01	-3.705306e+01
1.370000e-06	-2.160547e-06	-5.486744e-10	-1.501022e+01	-3.673778e+01
1.380000e-06	-2.116910e-06	-5.494687e-10	-1.470706e+01	-3.641531e+01
1.390000e-06	-2.073235e-06	-5.448076e-10	-1.440363e+01	-3.608549e+01
1.400000e-06	-2.029542e-06	-5.365179e-10	-1.410008e+01	-3.574814e+01
1.410000e-06	-1.985703e-06	-5.259280e-10	-1.379551e+01	-3.540308e+01
1.420000e-06	-1.941736e-06	-5.157454e-10	-1.349005e+01	-3.505015e+01
1.430000e-06	-1.897734e-06	-5.052032e-10	-1.318435e+01	-3.468915e+01
1.440000e-06	-1.853660e-06	-4.996915e-10	-1.287815e+01	-3.431990e+01
1.450000e-06	-1.809407e-06	-4.980598e-10	-1.257070e+01	-3.394221e+01
1.460000e-06	-1.765001e-06	-4.949394e-10	-1.226220e+01	-3.355587e+01
1.470000e-06	-1.720503e-06	-4.876066e-10	-1.195305e+01	-3.316068e+01
1.480000e-06	-1.675873e-06	-4.765397e-10	-1.164299e+01	-3.275640e+01
1.490000e-06	-1.631112e-06	-4.640917e-10	-1.133201e+01	-3.234282e+01
1.500000e-06	-1.586099e-06	-4.517446e-10	-1.101929e+01	-3.191970e+01
1.510000e-06	-1.540918e-06	-4.416993e-10	-1.070540e+01	-3.148677e+01
1.520000e-06	-1.495659e-06	-4.332768e-10	-1.039097e+01	-3.104378e+01
1.530000e-06	-1.450274e-06	-4.256398e-10	-1.007566e+01	-3.059046e+01
1.540000e-06	-1.404869e-06	-4.203690e-10	-9.760211e+00	-3.012652e+01
1.550000e-06	-1.359485e-06	-4.130385e-10	-9.444906e+00	-2.965167e+01
1.560000e-06	-1.313999e-06	-4.032339e-10	-9.128897e+00	-2.916559e+01
1.570000e-06	-1.268361e-06	-3.923300e-10	-8.811831e+00	-2.866799e+01
1.580000e-06	-1.222636e-06	-3.818179e-10	-8.494163e+00	-2.815853e+01
1.590000e-06	-1.176825e-06	-3.704448e-10	-8.175896e+00	-2.763689e+01
1.600000e-06	-1.130989e-06	-3.596539e-10	-7.857451e+00	-2.710273e+01
1.610000e-06	-1.085152e-06	-3.528887e-10	-7.539001e+00	-2.655572e+01
1.620000e-06	-1.039221e-06	-3.456239e-10	-7.219905e+00	-2.599551e+01
1.630000e-06	-9.931618e-07	-3.402883e-10	-6.899909e+00	-2.542178e+01
1.640000e-06	-9.470759e-07	-3.317004e-10	-6.579731e+00	-2.483418e+01
1.650000e-06	-9.009339e-07	-3.168747e-10	-6.259163e+00	-2.423240e+01
1.660000e-06	-8.545849e-07	-3.002889e-10	-5.937158e+00	-2.361610e+01
1.670000e-06	-8.081362e-07	-2.881559e-10	-5.614459e+00	-2.298499e+01
1.680000e-06	-7.617004e-07	-2.800832e-10	-5.291850e+00	-2.233877e+01
1.690000e-06	-7.152141e-07	-2.737302e-10	-4.968891e+00	-2.167718e+01
1.700000e-06	-6.687586e-07	-2.695647e-10	-4.646145e+00	-2.099996e+01
1.710000e-06	-6.223523e-07	-2.631601e-10	-4.323741e+00	-2.030689e+01
1.720000e-06	-5.758891e-07	-2.512144e-10	-4.000942e+00	-1.959779e+01
1.730000e-06	-5.292435e-07	-2.356581e-10	-3.676875e+00	-1.887248e+01
1.740000e-06	-4.824260e-07	-2.198500e-10	-3.351615e+00	-1.813084e+01
1.750000e-06	-4.356095e-07	-2.077214e-10	-3.026361e+00	-1.737280e+01
1.760000e-06	-3.888632e-07	-1.976472e-10	-2.701595e+00	-1.659830e+01
1.770000e-06	-3.421084e-07	-1.902545e-10	-2.376770e+00	-1.580736e+01
1.780000e-06	-2.952587e-07	-1.849918e-10	-2.051285e+00	-1.500002e+01
1.790000e-06	-2.483973e-07	-1.768494e-10	-1.725720e+00	-1.417641e+01
1.800000e-06	-2.015420e-07	-1.632139e-10	-1.400196e+00	-1.333667e+01
1.810000e-06	-1.546912e-07	-1.468913e-10	-1.074704e+00	-1.248103e+01
1.820000e-06	-1.078183e-07	-1.299593e-10	-7.490584e-01	-1.160977e+01
1.830000e-06	-6.085235e-08	-1.169608e-10	-4.227667e-01	-1.072322e+01
1.840000e-06	-1.389909e-08	-1.072423e-10	-9.656277e-02	-9.821784e+00
1.850000e-06	3.294446e-08	-9.847344e-11	2.288789e-01	-8.905924e+00
1.860000e-06	7.971834e-08	-9.040200e-11	5.538365e-01	-7.976163e+00
1.870000e-06	1.265008e-07	-8.198677e-11	8.788540e-01	-7.033090e+00
1.880000e-06	1.734301e-07	-7.121763e-11	1.204891e+00	-6.077354e+00
1.890000e-06	2.204206e-07	-5.711986e-11	1.531354e+00	-5.109666e+00
1.900000e-06	2.672620e-07	-4.177007e-11	1.856781e+00	-4.130796e+00
1.910000e-06	3.140555e-07	-2.625561e-11	2.181875e+00	-3.141572e+00
1.920000e-06	3.607970e-07	-1.099179e-11	2.506607e+00	-2.142879e+00
1.930000e-06	4.074653e-07	2.097600e-12	2.830831e+00	-1.135652e+00
1.940000e-06	4.541121e-07	1.294811e-11	3.154906e+00	-1.208769e-01
1.950000e-06	5.007171e-07	2.242590e-11	3.478690e+00	9.004142e-01
1.960000e-06	5.472809e-07	3.134122e-11	3.802189e+00	1.927148e+00
1.970000e-06	5.937933e-07	4.406770e-11	4.125330e+00	2.958214e+00
1.980000e-06	6.401902e-07	6.122898e-11	4.447668e+00	3.992470e+00
1.990000e-06	6.864586e-07	8.060851e-11	4.769114e+00	5.028745e+00
2.000000e-06	7.326959e-07	1.002318e-10	5.090344e+00	6.065846e+00
2.010000e-06	7.789765e-07	1.173051e-10	5.411874e+00	7.102565e+00
2.020000e-06	8.252542e-07	1.303802e-10	5.733385e+00	8.137682e+00
2.030000e-06	8.714460e-07	1.424309e-10	6.054299e+00	9.169974e+00
2.040000e-06	9.175719e-07	1.542512e-10	6.374755e+00	1.019822e+01
2.050000e-06	9.636198e-07	1.674215e-10	6.694668e+00	1.122120e+01
2.060000e-06	1.009551e-06	1.827942e-10	7.013774e+00	1.223771e+01
2.070000e-06	1.055373e-06	2.013707e-10	7.332117e+00	1.324658e+01
2.080000e-06	1.101113e-06	2.204773e-10	7.649891e+00	1.424665e+01
2.090000e-06	1.146816e-06	2.374966e-10	7.967412e+00	1.523680e+01
2.100000e-06	1.192523e-06	2.528998e-10	8.284958e+00	1.621592e+01
2.110000e-06	1.238175e-06	2.661442e-10	8.602121e+00	1.718300e+01
2.120000e-06	1.283678e-06	2.771294e-10	8.918244e+00	1.813702e+01
2.130000e-06	1.329124e-06	2.873394e-10	9.233981e+00	1.907704e+01
2.140000e-06	1.374597e-06	2.980467e-10	9.549895e+00	2.000219e+01
2.150000e-06	1.419997e-06	3.094504e-10	9.865312e+00	2.091162e+01
2.160000e-06	1.465278e-06	3.233424e-10	1.017990e+01	2.180459e+01
2.170000e-06	1.510371e-06	3.398142e-10	1.049318e+01	2.268041e+01
2.180000e-06	1.555253e-06	3.538304e-10	1.080499e+01	2.353844e+01
2.190000e-06	1.600023e-06	3.630265e-10	1.111603e+01	2.437815e+01
2.200000e-06	1.644734e-06	3.716294e-10	1.142665e+01	2.519907e+01
2.210000e-06	1.689342e-06	3.815874e-10	1.173656e+01	2.600079e+01
2.220000e-06	1.733746e-06	3.921076e-10	1.204506e+01	2.678300e+01
2.230000e-06	1.777958e-06	4.026870e-10	1.235222e+01	2.754545e+01
2.240000e-06	1.822126e-06	4.128493e-10	1.265907e+01	2.828798e+01
2.250000e-06	1.866218e-06	4.233770e-10	1.296539e+01	2.901049e+01
2.260000e-06	1.910128e-06	4.346538e-10	1.327046e+01	2.971297e+01
2.270000e-06	1.953962e-06	4.445935e-10	1.357499e+01	3.039547e+01
2.280000e-06	1.997739e-06	4.517076e-10	1.387912e+01	3.105811e+01
2.290000e-06	2.041440e-06	4.572533e-10	1.418273e+01	3.170109e+01
2.300000e-06	2.085113e-06	4.631649e-10	1.448615e+01	3.232464e+01
2.310000e-06	2.128769e-06	4.697070e-10	1.478945e+01	3.292909e+01
2.320000e-06	2.172377e-06	4.777093e-10	1.509241e+01	3.351480e+01
2.330000e-06	2.215890e-06	4.848357e-10	1.539471e+01	3.408217e+01
2.340000e-06	2.259246e-06	4.902219e-10	1.569593e+01	3.463168e+01
2.350000e-06	2.302466e-06	4.974876e-10	1.599619e+01	3.516383e+01
2.360000e-06	2.345491e-06	5.053923e-10	1.629511e+01	3.567914e+01
2.370000e-06	2.388224e-06	5.113262e-10	1.659199e+01	3.617819e+01
2.380000e-06	2.430671e-06	5.171983e-10	1.688689e+01	3.666156e+01
2.390000e-06	2.472904e-06	5.237012e-10	1.718030e+01	3.712988e+01
2.400000e-06	2.514825e-06	5.301440e-10	1.747154e+01	3.758376e+01
2.410000e-06	2.556379e-06	5.354776e-10	1.776023e+01	3.802383e+01
2.420000e-06	2.597608e-06	5.404159e-10	1.804667e+01	3.845073e+01
2.430000e-06	2.638455e-06	5.474734e-10	1.833045e+01	3.886511e+01
2.440000e-06	2.679086e-06	5.557761e-10	1.861273e+01	3.926757e+01
2.450000e-06	2.719515e-06	5.636391e-10	1.889360e+01	3.965876e+01
2.460000e-06	2.759741e-06	5.696479e-10	1.917307e+01	4.003925e+01
2.470000e-06	2.799771e-06	5.748558e-10	1.945118e+01	4.040965e+01
2.480000e-06	2.839570e-06	5.791575e-10	1.972768e+01	4.077051e+01
2.490000e-06	2.879223e-06	5.819000e-10	2.000316e+01	4.112235e+01
2.500000e-06	2.918798e-06	5.855901e-10	2.027811e+01	4.146569e+01
2.510000e-06	2.958269e-06	5.915680e-10	2.055232e+01	4.180100e+01
2.520000e-06	2.997558e-06	5.979339e-10	2.082529e+01	4.212872e+01
2.530000e-06	3.036688e-06	6.038807e-10	2.109714e+01	4.244924e+01
2.540000e-06	3.075689e-06	6.081780e-10	2.136809e+01	4.276294e+01
2.550000e-06	3.114443e-06	6.090336e-10	2.163733e+01	4.307014e+01
2.560000e-06	3.152924e-06	6.095079e-10	2.190468e+01	4.337113e+01
2.570000e-06	3.191228e-06	6.114099e-10	2.217079e+01	4.366616e+01
2.580000e-06	3.229290e-06	6.138945e-10	2.243522e+01	4.395546e+01
2.590000e-06	3.267075e-06	6.178840e-10	2.269773e+01	4.423919e+01
2.600000e-06	3.304675e-06	6.232367e-10	2.295895e+01	4.451750e+01
2.610000e-06	3.342098e-06	6.300534e-10	2.321895e+01	4.479050e+01
2.620000e-06	3.379271e-06	6.373552e-10	2.347721e+01	4.505826e+01
2.630000e-06	3.416124e-06	6.428772e-10	2.373324e+01	4.532084e+01
2.640000e-06	3.452699e-06	6.466644e-10	2.398734e+01	4.557825e+01
2.650000e-06	3.489045e-06	6.494159e-10	2.423985e+01	4.583049e+01
2.660000e-06	3.525152e-06	6.523753e-10	2.449070e+01	4.607754e+01
2.670000e-06	3.561135e-06	6.553252e-10	2.474069e+01	4.631935e+01
2.680000e-06	3.596971e-06	6.590878e-10	2.498966e+01	4.655586e+01
2.690000e-06	3.632622e-06	6.636978e-10	2.523734e+01	4.678699e+01
2.700000e-06	3.668193e-06	6.686118e-10	2.548447e+01	4.701267e+01
2.710000e-06	3.703629e-06	6.724934e-10	2.573065e+01	4.723282e+01
2.720000e-06	3.738830e-06	6.757660e-10	2.597521e+01	4.744733e+01
2.730000e-06	3.773756e-06	6.818666e-10	2.621786e+01	4.765612e+01
2.740000e-06	3.808286e-06	6.880349e-10	2.645775e+01	4.785911e+01
2.750000e-06	3.842381e-06	6.907315e-10	2.669463e+01	4.805620e+01
2.760000e-06	3.875985e-06	6.928340e-10	2.692808e+01	4.824735e+01
2.770000e-06	3.909115e-06	6.960147e-10	2.715825e+01	4.843247e+01
2.780000e-06	3.941749e-06	6.993410e-10	2.738498e+01	4.861152e+01
2.790000e-06	3.973908e-06	7.039186e-10	2.760839e+01	4.878448e+01
2.800000e-06	4.005814e-06	7.104162e-10	2.783006e+01	4.895132e+01
2.810000e-06	4.037593e-06	7.156970e-10	2.805084e+01	4.911205e+01
2.820000e-06	4.069252e-06	7.186257e-10	2.827079e+01	4.926669e+01
2.830000e-06	4.100756e-06	7.214125e-10	2.848966e+01	4.941528e+01
2.840000e-06	4.132086e-06	7.233848e-10	2.870733e+01	4.955788e+01
2.850000e-06	4.163114e-06	7.251015e-10	2.892289e+01	4.969457e+01
2.860000e-06	4.193818e-06	7.279907e-10	2.913620e+01	4.982546e+01
2.870000e-06	4.224254e-06	7.296011e-10	2.934765e+01	4.995067e+01
2.880000e-06	4.254350e-06	7.290623e-10	2.955674e+01	5.007033e+01
2.890000e-06	4.284183e-06	7.287557e-10	2.976401e+01	5.018461e+01
2.900000e-06	4.313759e-06	7.294388e-10	2.996948e+01	5.029367e+01
