# Temperatura_=_-1.02
# Concentracion g/m^3_=_1620.0
# C_Vs_to_Am_M_A/Vsm_=_65563218390.804596
# pendiente_HvsI_1/m_=_3716.3
# ordenada_HvsI_A/m_=_1297.0
# frecuencia_Hz_=_135092.65972414732

Tiempo_(s)	Campo_(V.s)	Magnetizacion_(V.s)	Campo_(kA/m)	Magnetizacion_(A/m)
0.000000e+00	-5.527320e-06	-1.047461e-09	-3.838553e+01	-6.869425e+01
1.000000e-08	-5.527463e-06	-1.046803e-09	-3.838652e+01	-6.867119e+01
2.000000e-08	-5.527405e-06	-1.047113e-09	-3.838612e+01	-6.864970e+01
3.000000e-08	-5.526984e-06	-1.045046e-09	-3.838320e+01	-6.862983e+01
4.000000e-08	-5.525993e-06	-1.040053e-09	-3.837632e+01	-6.861157e+01
5.000000e-08	-5.524425e-06	-1.033590e-09	-3.836543e+01	-6.859491e+01
6.000000e-08	-5.522273e-06	-1.022222e-09	-3.835048e+01	-6.857981e+01
7.000000e-08	-5.519544e-06	-1.012375e-09	-3.833153e+01	-6.856619e+01
8.000000e-08	-5.516301e-06	-1.020064e-09	-3.830901e+01	-6.855395e+01
9.000000e-08	-5.512562e-06	-1.085731e-09	-3.828304e+01	-6.854298e+01
1.000000e-07	-5.508423e-06	-1.144868e-09	-3.825430e+01	-6.853312e+01
1.100000e-07	-5.503922e-06	-1.061717e-09	-3.822304e+01	-6.852419e+01
1.200000e-07	-5.499309e-06	-9.545999e-10	-3.819101e+01	-6.851601e+01
1.300000e-07	-5.494551e-06	-9.726326e-10	-3.815796e+01	-6.850835e+01
1.400000e-07	-5.489366e-06	-1.075959e-09	-3.812195e+01	-6.850097e+01
1.500000e-07	-5.483699e-06	-1.056292e-09	-3.808259e+01	-6.849361e+01
1.600000e-07	-5.477649e-06	-9.538199e-10	-3.804059e+01	-6.848600e+01
1.700000e-07	-5.471310e-06	-1.006649e-09	-3.799656e+01	-6.847786e+01
1.800000e-07	-5.464522e-06	-1.106401e-09	-3.794942e+01	-6.846888e+01
1.900000e-07	-5.457196e-06	-1.092300e-09	-3.789855e+01	-6.845875e+01
2.000000e-07	-5.449602e-06	-9.819551e-10	-3.784580e+01	-6.844716e+01
2.100000e-07	-5.441881e-06	-1.002283e-09	-3.779219e+01	-6.843378e+01
2.200000e-07	-5.433877e-06	-1.076066e-09	-3.773660e+01	-6.841828e+01
2.300000e-07	-5.425558e-06	-1.085535e-09	-3.767883e+01	-6.840035e+01
2.400000e-07	-5.416777e-06	-1.033104e-09	-3.761785e+01	-6.837966e+01
2.500000e-07	-5.407371e-06	-1.049004e-09	-3.755252e+01	-6.835589e+01
2.600000e-07	-5.397260e-06	-1.068904e-09	-3.748230e+01	-6.832873e+01
2.700000e-07	-5.386577e-06	-1.046508e-09	-3.740812e+01	-6.829788e+01
2.800000e-07	-5.375445e-06	-1.013274e-09	-3.733080e+01	-6.826306e+01
2.900000e-07	-5.363856e-06	-1.027670e-09	-3.725033e+01	-6.822398e+01
3.000000e-07	-5.351890e-06	-1.053918e-09	-3.716722e+01	-6.818039e+01
3.100000e-07	-5.339559e-06	-1.034483e-09	-3.708159e+01	-6.813205e+01
3.200000e-07	-5.326793e-06	-1.015250e-09	-3.699293e+01	-6.807873e+01
3.300000e-07	-5.313516e-06	-1.012355e-09	-3.690073e+01	-6.802024e+01
3.400000e-07	-5.299837e-06	-1.034531e-09	-3.680573e+01	-6.795640e+01
3.500000e-07	-5.285821e-06	-1.021721e-09	-3.670839e+01	-6.788705e+01
3.600000e-07	-5.271295e-06	-1.003557e-09	-3.660752e+01	-6.781206e+01
3.700000e-07	-5.256360e-06	-1.021301e-09	-3.650380e+01	-6.773134e+01
3.800000e-07	-5.241079e-06	-1.049264e-09	-3.639768e+01	-6.764480e+01
3.900000e-07	-5.225164e-06	-1.004813e-09	-3.628715e+01	-6.755238e+01
4.000000e-07	-5.208675e-06	-9.845128e-10	-3.617264e+01	-6.745407e+01
4.100000e-07	-5.191874e-06	-1.037007e-09	-3.605596e+01	-6.734985e+01
4.200000e-07	-5.174802e-06	-1.038176e-09	-3.593740e+01	-6.723977e+01
4.300000e-07	-5.157367e-06	-9.617400e-10	-3.581632e+01	-6.712386e+01
4.400000e-07	-5.139625e-06	-1.001469e-09	-3.569311e+01	-6.700221e+01
4.500000e-07	-5.121557e-06	-1.059202e-09	-3.556764e+01	-6.687490e+01
4.600000e-07	-5.102982e-06	-9.889668e-10	-3.543864e+01	-6.674207e+01
4.700000e-07	-5.083938e-06	-9.364168e-10	-3.530638e+01	-6.660386e+01
4.800000e-07	-5.064621e-06	-1.024811e-09	-3.517223e+01	-6.646042e+01
4.900000e-07	-5.045100e-06	-1.018814e-09	-3.503666e+01	-6.631195e+01
5.000000e-07	-5.025369e-06	-9.444061e-10	-3.489964e+01	-6.615863e+01
5.100000e-07	-5.005432e-06	-9.832618e-10	-3.476118e+01	-6.600069e+01
5.200000e-07	-4.985216e-06	-1.021966e-09	-3.462078e+01	-6.583835e+01
5.300000e-07	-4.964581e-06	-9.469169e-10	-3.447749e+01	-6.567185e+01
5.400000e-07	-4.943623e-06	-9.639550e-10	-3.433194e+01	-6.550144e+01
5.500000e-07	-4.922338e-06	-1.027269e-09	-3.418412e+01	-6.532737e+01
5.600000e-07	-4.900574e-06	-9.635432e-10	-3.403297e+01	-6.514992e+01
5.700000e-07	-4.878506e-06	-9.225034e-10	-3.387972e+01	-6.496933e+01
5.800000e-07	-4.856183e-06	-9.966300e-10	-3.372470e+01	-6.478589e+01
5.900000e-07	-4.833434e-06	-9.854838e-10	-3.356671e+01	-6.459985e+01
6.000000e-07	-4.810323e-06	-9.245845e-10	-3.340621e+01	-6.441149e+01
6.100000e-07	-4.786891e-06	-9.666934e-10	-3.324348e+01	-6.422106e+01
6.200000e-07	-4.763157e-06	-9.830898e-10	-3.307866e+01	-6.402883e+01
6.300000e-07	-4.739268e-06	-9.250664e-10	-3.291276e+01	-6.383503e+01
6.400000e-07	-4.715245e-06	-9.320938e-10	-3.274592e+01	-6.363991e+01
6.500000e-07	-4.690950e-06	-9.691547e-10	-3.257720e+01	-6.344370e+01
6.600000e-07	-4.666117e-06	-9.340157e-10	-3.240474e+01	-6.324660e+01
6.700000e-07	-4.640761e-06	-9.274700e-10	-3.222865e+01	-6.304884e+01
6.800000e-07	-4.614878e-06	-9.555444e-10	-3.204891e+01	-6.285058e+01
6.900000e-07	-4.588332e-06	-9.394540e-10	-3.186455e+01	-6.265200e+01
7.000000e-07	-4.561306e-06	-9.156267e-10	-3.167686e+01	-6.245327e+01
7.100000e-07	-4.533988e-06	-9.347980e-10	-3.148715e+01	-6.225451e+01
7.200000e-07	-4.506434e-06	-9.266862e-10	-3.129580e+01	-6.205584e+01
7.300000e-07	-4.478690e-06	-9.084897e-10	-3.110312e+01	-6.185736e+01
7.400000e-07	-4.450730e-06	-9.180603e-10	-3.090894e+01	-6.165916e+01
7.500000e-07	-4.422543e-06	-9.253204e-10	-3.071320e+01	-6.146130e+01
7.600000e-07	-4.394162e-06	-9.054487e-10	-3.051610e+01	-6.126381e+01
7.700000e-07	-4.365430e-06	-9.078813e-10	-3.031657e+01	-6.106672e+01
7.800000e-07	-4.336297e-06	-9.115258e-10	-3.011424e+01	-6.087003e+01
7.900000e-07	-4.306843e-06	-9.010682e-10	-2.990970e+01	-6.067373e+01
8.000000e-07	-4.277136e-06	-8.994707e-10	-2.970339e+01	-6.047776e+01
8.100000e-07	-4.247210e-06	-9.076588e-10	-2.949556e+01	-6.028208e+01
8.200000e-07	-4.216972e-06	-8.962512e-10	-2.928557e+01	-6.008662e+01
8.300000e-07	-4.186403e-06	-8.912958e-10	-2.907328e+01	-5.989127e+01
8.400000e-07	-4.155419e-06	-9.003221e-10	-2.885810e+01	-5.969594e+01
8.500000e-07	-4.124173e-06	-8.950421e-10	-2.864111e+01	-5.950049e+01
8.600000e-07	-4.092876e-06	-8.805780e-10	-2.842376e+01	-5.930478e+01
8.700000e-07	-4.061389e-06	-8.818427e-10	-2.820509e+01	-5.910866e+01
8.800000e-07	-4.029668e-06	-8.799754e-10	-2.798480e+01	-5.891196e+01
8.900000e-07	-3.997772e-06	-8.672010e-10	-2.776330e+01	-5.871449e+01
9.000000e-07	-3.965699e-06	-8.661955e-10	-2.754055e+01	-5.851607e+01
9.100000e-07	-3.933330e-06	-8.669428e-10	-2.731576e+01	-5.831648e+01
9.200000e-07	-3.900595e-06	-8.558434e-10	-2.708843e+01	-5.811552e+01
9.300000e-07	-3.867475e-06	-8.505653e-10	-2.685842e+01	-5.791297e+01
9.400000e-07	-3.833818e-06	-8.576710e-10	-2.662468e+01	-5.770858e+01
9.500000e-07	-3.799524e-06	-8.505360e-10	-2.638653e+01	-5.750214e+01
9.600000e-07	-3.764826e-06	-8.402929e-10	-2.614556e+01	-5.729341e+01
9.700000e-07	-3.729856e-06	-8.412556e-10	-2.590270e+01	-5.708213e+01
9.800000e-07	-3.694600e-06	-8.409989e-10	-2.565786e+01	-5.686807e+01
9.900000e-07	-3.659126e-06	-8.306255e-10	-2.541150e+01	-5.665098e+01
1.000000e-06	-3.623446e-06	-8.295801e-10	-2.516371e+01	-5.643062e+01
1.010000e-06	-3.587637e-06	-8.293220e-10	-2.491503e+01	-5.620674e+01
1.020000e-06	-3.551651e-06	-8.241538e-10	-2.466512e+01	-5.597910e+01
1.030000e-06	-3.515513e-06	-8.210361e-10	-2.441415e+01	-5.574746e+01
1.040000e-06	-3.479283e-06	-8.239178e-10	-2.416255e+01	-5.551159e+01
1.050000e-06	-3.442832e-06	-8.165935e-10	-2.390940e+01	-5.527125e+01
1.060000e-06	-3.406046e-06	-8.054512e-10	-2.365394e+01	-5.502623e+01
1.070000e-06	-3.368902e-06	-7.985833e-10	-2.339599e+01	-5.477631e+01
1.080000e-06	-3.331529e-06	-7.935642e-10	-2.313644e+01	-5.452127e+01
1.090000e-06	-3.293956e-06	-7.872655e-10	-2.287551e+01	-5.426091e+01
1.100000e-06	-3.256165e-06	-7.866531e-10	-2.261306e+01	-5.399506e+01
1.110000e-06	-3.218170e-06	-7.842426e-10	-2.234919e+01	-5.372351e+01
1.120000e-06	-3.179946e-06	-7.775775e-10	-2.208374e+01	-5.344610e+01
1.130000e-06	-3.141538e-06	-7.706873e-10	-2.181701e+01	-5.316267e+01
1.140000e-06	-3.102893e-06	-7.672250e-10	-2.154863e+01	-5.287306e+01
1.150000e-06	-3.063997e-06	-7.620970e-10	-2.127851e+01	-5.257714e+01
1.160000e-06	-3.024830e-06	-7.570363e-10	-2.100651e+01	-5.227476e+01
1.170000e-06	-2.985453e-06	-7.548541e-10	-2.073305e+01	-5.196583e+01
1.180000e-06	-2.946006e-06	-7.519483e-10	-2.045910e+01	-5.165021e+01
1.190000e-06	-2.906363e-06	-7.465706e-10	-2.018380e+01	-5.132783e+01
1.200000e-06	-2.866535e-06	-7.415084e-10	-1.990720e+01	-5.099858e+01
1.210000e-06	-2.826620e-06	-7.369162e-10	-1.963000e+01	-5.066240e+01
1.220000e-06	-2.786603e-06	-7.291395e-10	-1.935210e+01	-5.031922e+01
1.230000e-06	-2.746433e-06	-7.231115e-10	-1.907313e+01	-4.996898e+01
1.240000e-06	-2.706097e-06	-7.171696e-10	-1.879301e+01	-4.961164e+01
1.250000e-06	-2.665535e-06	-7.092627e-10	-1.851132e+01	-4.924714e+01
1.260000e-06	-2.624675e-06	-7.005718e-10	-1.822756e+01	-4.887546e+01
1.270000e-06	-2.583628e-06	-6.978568e-10	-1.794250e+01	-4.849658e+01
1.280000e-06	-2.542352e-06	-6.957819e-10	-1.765585e+01	-4.811046e+01
1.290000e-06	-2.500816e-06	-6.898465e-10	-1.736740e+01	-4.771710e+01
1.300000e-06	-2.458892e-06	-6.818645e-10	-1.707625e+01	-4.731648e+01
1.310000e-06	-2.416603e-06	-6.731307e-10	-1.678256e+01	-4.690859e+01
1.320000e-06	-2.374167e-06	-6.623117e-10	-1.648786e+01	-4.649341e+01
1.330000e-06	-2.331493e-06	-6.548687e-10	-1.619150e+01	-4.607094e+01
1.340000e-06	-2.288472e-06	-6.528775e-10	-1.589273e+01	-4.564117e+01
1.350000e-06	-2.245256e-06	-6.518139e-10	-1.559261e+01	-4.520408e+01
1.360000e-06	-2.201887e-06	-6.466493e-10	-1.529143e+01	-4.475965e+01
1.370000e-06	-2.158319e-06	-6.390566e-10	-1.498886e+01	-4.430785e+01
1.380000e-06	-2.114654e-06	-6.279508e-10	-1.468562e+01	-4.384866e+01
1.390000e-06	-2.070928e-06	-6.168559e-10	-1.438195e+01	-4.338204e+01
1.400000e-06	-2.027143e-06	-6.085191e-10	-1.407788e+01	-4.290793e+01
1.410000e-06	-1.983226e-06	-6.018987e-10	-1.377290e+01	-4.242628e+01
1.420000e-06	-1.939172e-06	-5.937628e-10	-1.346695e+01	-4.193702e+01
1.430000e-06	-1.895052e-06	-5.862230e-10	-1.316055e+01	-4.144005e+01
1.440000e-06	-1.850845e-06	-5.783894e-10	-1.285355e+01	-4.093530e+01
1.450000e-06	-1.806575e-06	-5.669701e-10	-1.254611e+01	-4.042263e+01
1.460000e-06	-1.762126e-06	-5.527792e-10	-1.223742e+01	-3.990193e+01
1.470000e-06	-1.717434e-06	-5.402720e-10	-1.192705e+01	-3.937304e+01
1.480000e-06	-1.672628e-06	-5.295622e-10	-1.161588e+01	-3.883581e+01
1.490000e-06	-1.627778e-06	-5.201569e-10	-1.130441e+01	-3.829006e+01
1.500000e-06	-1.582846e-06	-5.121432e-10	-1.099238e+01	-3.773560e+01
1.510000e-06	-1.537767e-06	-5.032200e-10	-1.067932e+01	-3.717220e+01
1.520000e-06	-1.492613e-06	-4.924713e-10	-1.036574e+01	-3.659964e+01
1.530000e-06	-1.447331e-06	-4.786923e-10	-1.005127e+01	-3.601768e+01
1.540000e-06	-1.401873e-06	-4.662669e-10	-9.735578e+00	-3.542605e+01
1.550000e-06	-1.356295e-06	-4.544450e-10	-9.419051e+00	-3.482447e+01
1.560000e-06	-1.310727e-06	-4.423616e-10	-9.102592e+00	-3.421264e+01
1.570000e-06	-1.265195e-06	-4.322951e-10	-8.786388e+00	-3.359026e+01
1.580000e-06	-1.219487e-06	-4.225226e-10	-8.468959e+00	-3.295702e+01
1.590000e-06	-1.173650e-06	-4.125636e-10	-8.150635e+00	-3.231257e+01
1.600000e-06	-1.127730e-06	-4.026610e-10	-7.831737e+00	-3.165659e+01
1.610000e-06	-1.081683e-06	-3.923012e-10	-7.511953e+00	-3.098873e+01
1.620000e-06	-1.035591e-06	-3.813863e-10	-7.191859e+00	-3.030863e+01
1.630000e-06	-9.894892e-07	-3.716975e-10	-6.871697e+00	-2.961595e+01
1.640000e-06	-9.433626e-07	-3.611895e-10	-6.551362e+00	-2.891032e+01
1.650000e-06	-8.971285e-07	-3.460588e-10	-6.230281e+00	-2.819141e+01
1.660000e-06	-8.507345e-07	-3.318576e-10	-5.908089e+00	-2.745887e+01
1.670000e-06	-8.042174e-07	-3.187677e-10	-5.585042e+00	-2.671237e+01
1.680000e-06	-7.577428e-07	-3.053155e-10	-5.262290e+00	-2.595157e+01
1.690000e-06	-7.113398e-07	-2.944588e-10	-4.940035e+00	-2.517616e+01
1.700000e-06	-6.648151e-07	-2.846605e-10	-4.616936e+00	-2.438587e+01
1.710000e-06	-6.181387e-07	-2.712503e-10	-4.292782e+00	-2.358041e+01
1.720000e-06	-5.714894e-07	-2.562633e-10	-3.968818e+00	-2.275954e+01
1.730000e-06	-5.248614e-07	-2.429602e-10	-3.645001e+00	-2.192304e+01
1.740000e-06	-4.780980e-07	-2.304153e-10	-3.320243e+00	-2.107072e+01
1.750000e-06	-4.312199e-07	-2.164143e-10	-2.994689e+00	-2.020243e+01
1.760000e-06	-3.843680e-07	-2.025169e-10	-2.669317e+00	-1.931804e+01
1.770000e-06	-3.375157e-07	-1.884681e-10	-2.343942e+00	-1.841747e+01
1.780000e-06	-2.905713e-07	-1.751359e-10	-2.017928e+00	-1.750069e+01
1.790000e-06	-2.437182e-07	-1.621249e-10	-1.692548e+00	-1.656770e+01
1.800000e-06	-1.969140e-07	-1.458657e-10	-1.367507e+00	-1.561855e+01
1.810000e-06	-1.500056e-07	-1.271579e-10	-1.041743e+00	-1.465336e+01
1.820000e-06	-1.030419e-07	-1.102061e-10	-7.155939e-01	-1.367226e+01
1.830000e-06	-5.613981e-08	-9.694261e-11	-3.898737e-01	-1.267547e+01
1.840000e-06	-9.346385e-09	-8.373978e-11	-6.490776e-02	-1.166325e+01
1.850000e-06	3.747438e-08	-7.113357e-11	2.602480e-01	-1.063590e+01
1.860000e-06	8.434075e-08	-5.859555e-11	5.857205e-01	-9.593811e+00
1.870000e-06	1.311761e-07	-4.313769e-11	9.109777e-01	-8.537394e+00
1.880000e-06	1.780076e-07	-2.743491e-11	1.236208e+00	-7.467134e+00
1.890000e-06	2.248813e-07	-1.202819e-11	1.561731e+00	-6.383568e+00
1.900000e-06	2.717794e-07	3.829442e-12	1.887424e+00	-5.287289e+00
1.910000e-06	3.186681e-07	1.877469e-11	2.213051e+00	-4.178941e+00
1.920000e-06	3.655121e-07	3.203098e-11	2.538369e+00	-3.059223e+00
1.930000e-06	4.123423e-07	4.407651e-11	2.863590e+00	-1.928885e+00
1.940000e-06	4.590894e-07	5.576431e-11	3.188234e+00	-7.887217e-01
1.950000e-06	5.058187e-07	6.652818e-11	3.512755e+00	3.604225e-01
1.960000e-06	5.524848e-07	7.974024e-11	3.836836e+00	1.517662e+00
1.970000e-06	5.990227e-07	9.543477e-11	4.160028e+00	2.682070e+00
1.980000e-06	6.455057e-07	1.119648e-10	4.482838e+00	3.852685e+00
1.990000e-06	6.920159e-07	1.298777e-10	4.805837e+00	5.028511e+00
2.000000e-06	7.385219e-07	1.479734e-10	5.128807e+00	6.208525e+00
2.010000e-06	7.849248e-07	1.642408e-10	5.451060e+00	7.391676e+00
2.020000e-06	8.312862e-07	1.781578e-10	5.773026e+00	8.576896e+00
2.030000e-06	8.775506e-07	1.924945e-10	6.094318e+00	9.763101e+00
2.040000e-06	9.237333e-07	2.073968e-10	6.415043e+00	1.094919e+01
2.050000e-06	9.698678e-07	2.223825e-10	6.735433e+00	1.213407e+01
2.060000e-06	1.015916e-06	2.400271e-10	7.055224e+00	1.331664e+01
2.070000e-06	1.061928e-06	2.591821e-10	7.374760e+00	1.449579e+01
2.080000e-06	1.107908e-06	2.768540e-10	7.694076e+00	1.567043e+01
2.090000e-06	1.153768e-06	2.933118e-10	8.012561e+00	1.683949e+01
2.100000e-06	1.199504e-06	3.090360e-10	8.330182e+00	1.800191e+01
2.110000e-06	1.245103e-06	3.227497e-10	8.646854e+00	1.915665e+01
2.120000e-06	1.290584e-06	3.365708e-10	8.962707e+00	2.030271e+01
2.130000e-06	1.335986e-06	3.519950e-10	9.278012e+00	2.143910e+01
2.140000e-06	1.381381e-06	3.663088e-10	9.593264e+00	2.256490e+01
2.150000e-06	1.426723e-06	3.792706e-10	9.908152e+00	2.367919e+01
2.160000e-06	1.471862e-06	3.935086e-10	1.022163e+01	2.478112e+01
2.170000e-06	1.516935e-06	4.099566e-10	1.053464e+01	2.586989e+01
2.180000e-06	1.562004e-06	4.255237e-10	1.084764e+01	2.694473e+01
2.190000e-06	1.606898e-06	4.392941e-10	1.115941e+01	2.800493e+01
2.200000e-06	1.651695e-06	4.528650e-10	1.147051e+01	2.904986e+01
2.210000e-06	1.696329e-06	4.652840e-10	1.178048e+01	3.007891e+01
2.220000e-06	1.740751e-06	4.772046e-10	1.208898e+01	3.109154e+01
2.230000e-06	1.785042e-06	4.894638e-10	1.239657e+01	3.208729e+01
2.240000e-06	1.829177e-06	5.009607e-10	1.270307e+01	3.306573e+01
2.250000e-06	1.873231e-06	5.128935e-10	1.300901e+01	3.402652e+01
2.260000e-06	1.917270e-06	5.254947e-10	1.331485e+01	3.496935e+01
2.270000e-06	1.961271e-06	5.393924e-10	1.362042e+01	3.589400e+01
2.280000e-06	2.005158e-06	5.547592e-10	1.392520e+01	3.680029e+01
2.290000e-06	2.048924e-06	5.667694e-10	1.422914e+01	3.768810e+01
2.300000e-06	2.092675e-06	5.766841e-10	1.453298e+01	3.855738e+01
2.310000e-06	2.136404e-06	5.845352e-10	1.483667e+01	3.940811e+01
2.320000e-06	2.180004e-06	5.918329e-10	1.513946e+01	4.024035e+01
2.330000e-06	2.223499e-06	6.004914e-10	1.544152e+01	4.105419e+01
2.340000e-06	2.266934e-06	6.104861e-10	1.574316e+01	4.184976e+01
2.350000e-06	2.310220e-06	6.230170e-10	1.604377e+01	4.262727e+01
2.360000e-06	2.353222e-06	6.344468e-10	1.634240e+01	4.338692e+01
2.370000e-06	2.395912e-06	6.443557e-10	1.663887e+01	4.412899e+01
2.380000e-06	2.438326e-06	6.531158e-10	1.693342e+01	4.485376e+01
2.390000e-06	2.480465e-06	6.625078e-10	1.722606e+01	4.556157e+01
2.400000e-06	2.522142e-06	6.716150e-10	1.751550e+01	4.625274e+01
2.410000e-06	2.563470e-06	6.820477e-10	1.780251e+01	4.692766e+01
2.420000e-06	2.604578e-06	6.932955e-10	1.808799e+01	4.758670e+01
2.430000e-06	2.645379e-06	7.027537e-10	1.837134e+01	4.823027e+01
2.440000e-06	2.685923e-06	7.120774e-10	1.865291e+01	4.885877e+01
2.450000e-06	2.726193e-06	7.217870e-10	1.893257e+01	4.947260e+01
2.460000e-06	2.766227e-06	7.315300e-10	1.921059e+01	5.007219e+01
2.470000e-06	2.806155e-06	7.390944e-10	1.948788e+01	5.065793e+01
2.480000e-06	2.845991e-06	7.453640e-10	1.976453e+01	5.123024e+01
2.490000e-06	2.885704e-06	7.526905e-10	2.004032e+01	5.178950e+01
2.500000e-06	2.925311e-06	7.589986e-10	2.031538e+01	5.233611e+01
2.510000e-06	2.964804e-06	7.678701e-10	2.058965e+01	5.287043e+01
2.520000e-06	3.004171e-06	7.768319e-10	2.086304e+01	5.339281e+01
2.530000e-06	3.043353e-06	7.826486e-10	2.113515e+01	5.390358e+01
2.540000e-06	3.082277e-06	7.866573e-10	2.140546e+01	5.440307e+01
2.550000e-06	3.120919e-06	7.905274e-10	2.167382e+01	5.489155e+01
2.560000e-06	3.159278e-06	7.965970e-10	2.194021e+01	5.536930e+01
2.570000e-06	3.197441e-06	8.034447e-10	2.220524e+01	5.583657e+01
2.580000e-06	3.235469e-06	8.093147e-10	2.246934e+01	5.629356e+01
2.590000e-06	3.273297e-06	8.142235e-10	2.273204e+01	5.674048e+01
2.600000e-06	3.310934e-06	8.200372e-10	2.299342e+01	5.717751e+01
2.610000e-06	3.348383e-06	8.290033e-10	2.325349e+01	5.760478e+01
2.620000e-06	3.385614e-06	8.382985e-10	2.351204e+01	5.802242e+01
2.630000e-06	3.422483e-06	8.439273e-10	2.376809e+01	5.843054e+01
2.640000e-06	3.459005e-06	8.475851e-10	2.402172e+01	5.882922e+01
2.650000e-06	3.495343e-06	8.484135e-10	2.427408e+01	5.921852e+01
2.660000e-06	3.531450e-06	8.487774e-10	2.452483e+01	5.959849e+01
2.670000e-06	3.567387e-06	8.518968e-10	2.477440e+01	5.996917e+01
2.680000e-06	3.603204e-06	8.571959e-10	2.502314e+01	6.033056e+01
2.690000e-06	3.638901e-06	8.645145e-10	2.527105e+01	6.068269e+01
2.700000e-06	3.674499e-06	8.729350e-10	2.551826e+01	6.102554e+01
2.710000e-06	3.709930e-06	8.804341e-10	2.576432e+01	6.135912e+01
2.720000e-06	3.745164e-06	8.866709e-10	2.600901e+01	6.168341e+01
2.730000e-06	3.780052e-06	8.909832e-10	2.625130e+01	6.199841e+01
2.740000e-06	3.814401e-06	8.940857e-10	2.648984e+01	6.230410e+01
2.750000e-06	3.848223e-06	8.964056e-10	2.672472e+01	6.260047e+01
2.760000e-06	3.881513e-06	8.981064e-10	2.695591e+01	6.288753e+01
2.770000e-06	3.914277e-06	9.014559e-10	2.718345e+01	6.316529e+01
2.780000e-06	3.946668e-06	9.076435e-10	2.740839e+01	6.343377e+01
2.790000e-06	3.978849e-06	9.149305e-10	2.763188e+01	6.369299e+01
2.800000e-06	4.010843e-06	9.219396e-10	2.785407e+01	6.394300e+01
2.810000e-06	4.042659e-06	9.276280e-10	2.807502e+01	6.418386e+01
2.820000e-06	4.074387e-06	9.312415e-10	2.829536e+01	6.441565e+01
2.830000e-06	4.105955e-06	9.315229e-10	2.851459e+01	6.463847e+01
2.840000e-06	4.137288e-06	9.293680e-10	2.873219e+01	6.485242e+01
2.850000e-06	4.168352e-06	9.283705e-10	2.894792e+01	6.505764e+01
2.860000e-06	4.199049e-06	9.315596e-10	2.916110e+01	6.525429e+01
2.870000e-06	4.229441e-06	9.364621e-10	2.937217e+01	6.544253e+01
2.880000e-06	4.259530e-06	9.430113e-10	2.958112e+01	6.562255e+01
2.890000e-06	4.289262e-06	9.500583e-10	2.978760e+01	6.579457e+01
2.900000e-06	4.318751e-06	9.554661e-10	2.999240e+01	6.595882e+01
