# Temperatura_=_-0.3
# Concentracion g/m^3_=_1620.0
# C_Vs_to_Am_M_A/Vsm_=_65563218390.804596
# pendiente_HvsI_1/m_=_3716.3
# ordenada_HvsI_A/m_=_1297.0
# frecuencia_Hz_=_135105.17011263059

Tiempo_(s)	Campo_(V.s)	Magnetizacion_(V.s)	Campo_(kA/m)	Magnetizacion_(A/m)
0.000000e+00	-5.514705e-06	-1.373606e-09	-3.836383e+01	-8.943531e+01
1.000000e-08	-5.515078e-06	-1.370506e-09	-3.836643e+01	-8.943529e+01
2.000000e-08	-5.515120e-06	-1.370911e-09	-3.836672e+01	-8.943384e+01
3.000000e-08	-5.514829e-06	-1.375085e-09	-3.836469e+01	-8.943094e+01
4.000000e-08	-5.514146e-06	-1.377553e-09	-3.835995e+01	-8.942658e+01
5.000000e-08	-5.512944e-06	-1.377823e-09	-3.835159e+01	-8.942073e+01
6.000000e-08	-5.511242e-06	-1.381412e-09	-3.833974e+01	-8.941336e+01
7.000000e-08	-5.508941e-06	-1.381599e-09	-3.832374e+01	-8.940441e+01
8.000000e-08	-5.506021e-06	-1.362092e-09	-3.830342e+01	-8.939382e+01
9.000000e-08	-5.502656e-06	-1.335642e-09	-3.828001e+01	-8.938152e+01
1.000000e-07	-5.498868e-06	-1.360087e-09	-3.825366e+01	-8.936744e+01
1.100000e-07	-5.494618e-06	-1.401092e-09	-3.822409e+01	-8.935148e+01
1.200000e-07	-5.490027e-06	-1.367624e-09	-3.819216e+01	-8.933355e+01
1.300000e-07	-5.485222e-06	-1.329816e-09	-3.815873e+01	-8.931355e+01
1.400000e-07	-5.480098e-06	-1.337927e-09	-3.812309e+01	-8.929139e+01
1.500000e-07	-5.474598e-06	-1.388871e-09	-3.808483e+01	-8.926694e+01
1.600000e-07	-5.468709e-06	-1.361437e-09	-3.804386e+01	-8.924010e+01
1.700000e-07	-5.462469e-06	-1.314543e-09	-3.800045e+01	-8.921076e+01
1.800000e-07	-5.455926e-06	-1.346856e-09	-3.795493e+01	-8.917880e+01
1.900000e-07	-5.448999e-06	-1.398621e-09	-3.790674e+01	-8.914412e+01
2.000000e-07	-5.441679e-06	-1.406242e-09	-3.785582e+01	-8.910660e+01
2.100000e-07	-5.434067e-06	-1.366479e-09	-3.780287e+01	-8.906613e+01
2.200000e-07	-5.426204e-06	-1.381255e-09	-3.774816e+01	-8.902261e+01
2.300000e-07	-5.418056e-06	-1.394686e-09	-3.769148e+01	-8.897593e+01
2.400000e-07	-5.409587e-06	-1.400886e-09	-3.763257e+01	-8.892601e+01
2.500000e-07	-5.400618e-06	-1.384550e-09	-3.757017e+01	-8.887274e+01
2.600000e-07	-5.390926e-06	-1.397565e-09	-3.750275e+01	-8.881604e+01
2.700000e-07	-5.380584e-06	-1.398477e-09	-3.743080e+01	-8.875584e+01
2.800000e-07	-5.369734e-06	-1.389135e-09	-3.735532e+01	-8.869204e+01
2.900000e-07	-5.358404e-06	-1.370656e-09	-3.727651e+01	-8.862459e+01
3.000000e-07	-5.346665e-06	-1.376060e-09	-3.719484e+01	-8.855343e+01
3.100000e-07	-5.334508e-06	-1.377647e-09	-3.711027e+01	-8.847849e+01
3.200000e-07	-5.321957e-06	-1.366467e-09	-3.702296e+01	-8.839972e+01
3.300000e-07	-5.308985e-06	-1.347491e-09	-3.693272e+01	-8.831708e+01
3.400000e-07	-5.295640e-06	-1.345215e-09	-3.683988e+01	-8.823054e+01
3.500000e-07	-5.281955e-06	-1.362989e-09	-3.674467e+01	-8.814005e+01
3.600000e-07	-5.267937e-06	-1.356635e-09	-3.664716e+01	-8.804558e+01
3.700000e-07	-5.253371e-06	-1.347641e-09	-3.654583e+01	-8.794713e+01
3.800000e-07	-5.238144e-06	-1.363939e-09	-3.643990e+01	-8.784465e+01
3.900000e-07	-5.222338e-06	-1.368173e-09	-3.632994e+01	-8.773814e+01
4.000000e-07	-5.206011e-06	-1.324895e-09	-3.621636e+01	-8.762759e+01
4.100000e-07	-5.189396e-06	-1.330607e-09	-3.610077e+01	-8.751298e+01
4.200000e-07	-5.172481e-06	-1.363845e-09	-3.598310e+01	-8.739431e+01
4.300000e-07	-5.155244e-06	-1.339602e-09	-3.586320e+01	-8.727157e+01
4.400000e-07	-5.137679e-06	-1.305113e-09	-3.574100e+01	-8.714477e+01
4.500000e-07	-5.119784e-06	-1.353398e-09	-3.561651e+01	-8.701389e+01
4.600000e-07	-5.101525e-06	-1.355197e-09	-3.548949e+01	-8.687895e+01
4.700000e-07	-5.082858e-06	-1.301612e-09	-3.535963e+01	-8.673994e+01
4.800000e-07	-5.063864e-06	-1.308254e-09	-3.522749e+01	-8.659687e+01
4.900000e-07	-5.044579e-06	-1.343554e-09	-3.509333e+01	-8.644975e+01
5.000000e-07	-5.025013e-06	-1.298046e-09	-3.495722e+01	-8.629857e+01
5.100000e-07	-5.005223e-06	-1.292177e-09	-3.481955e+01	-8.614335e+01
5.200000e-07	-4.985197e-06	-1.335536e-09	-3.468024e+01	-8.598410e+01
5.300000e-07	-4.964852e-06	-1.311272e-09	-3.453870e+01	-8.582083e+01
5.400000e-07	-4.944094e-06	-1.271301e-09	-3.439430e+01	-8.565356e+01
5.500000e-07	-4.922952e-06	-1.314760e-09	-3.424722e+01	-8.548230e+01
5.600000e-07	-4.901495e-06	-1.317481e-09	-3.409795e+01	-8.530706e+01
5.700000e-07	-4.879735e-06	-1.271538e-09	-3.394657e+01	-8.512788e+01
5.800000e-07	-4.857705e-06	-1.287230e-09	-3.379332e+01	-8.494479e+01
5.900000e-07	-4.835324e-06	-1.306222e-09	-3.363762e+01	-8.475780e+01
6.000000e-07	-4.812474e-06	-1.260967e-09	-3.347867e+01	-8.456697e+01
6.100000e-07	-4.789273e-06	-1.258587e-09	-3.331726e+01	-8.437232e+01
6.200000e-07	-4.765820e-06	-1.289284e-09	-3.315411e+01	-8.417391e+01
6.300000e-07	-4.742151e-06	-1.259905e-09	-3.298945e+01	-8.397179e+01
6.400000e-07	-4.718277e-06	-1.243002e-09	-3.282337e+01	-8.376601e+01
6.500000e-07	-4.694129e-06	-1.270864e-09	-3.265538e+01	-8.355665e+01
6.600000e-07	-4.669591e-06	-1.260460e-09	-3.248468e+01	-8.334377e+01
6.700000e-07	-4.644600e-06	-1.236422e-09	-3.231082e+01	-8.312746e+01
6.800000e-07	-4.619173e-06	-1.257036e-09	-3.213393e+01	-8.290779e+01
6.900000e-07	-4.593234e-06	-1.253097e-09	-3.195349e+01	-8.268486e+01
7.000000e-07	-4.566670e-06	-1.228847e-09	-3.176869e+01	-8.245877e+01
7.100000e-07	-4.539518e-06	-1.239227e-09	-3.157980e+01	-8.222962e+01
7.200000e-07	-4.512043e-06	-1.250066e-09	-3.138867e+01	-8.199752e+01
7.300000e-07	-4.484422e-06	-1.224329e-09	-3.119652e+01	-8.176259e+01
7.400000e-07	-4.456637e-06	-1.222276e-09	-3.100323e+01	-8.152495e+01
7.500000e-07	-4.428710e-06	-1.232114e-09	-3.080896e+01	-8.128471e+01
7.600000e-07	-4.400591e-06	-1.219472e-09	-3.061334e+01	-8.104200e+01
7.700000e-07	-4.372138e-06	-1.213459e-09	-3.041541e+01	-8.079696e+01
7.800000e-07	-4.343303e-06	-1.230015e-09	-3.021481e+01	-8.054969e+01
7.900000e-07	-4.314091e-06	-1.219040e-09	-3.001159e+01	-8.030034e+01
8.000000e-07	-4.284626e-06	-1.204557e-09	-2.980661e+01	-8.004902e+01
8.100000e-07	-4.254962e-06	-1.211625e-09	-2.960025e+01	-7.979585e+01
8.200000e-07	-4.225009e-06	-1.210221e-09	-2.939188e+01	-7.954094e+01
8.300000e-07	-4.194724e-06	-1.192197e-09	-2.918120e+01	-7.928440e+01
8.400000e-07	-4.164061e-06	-1.194087e-09	-2.896789e+01	-7.902632e+01
8.500000e-07	-4.133021e-06	-1.198162e-09	-2.875195e+01	-7.876680e+01
8.600000e-07	-4.101811e-06	-1.187506e-09	-2.853484e+01	-7.850590e+01
8.700000e-07	-4.070455e-06	-1.184162e-09	-2.831670e+01	-7.824368e+01
8.800000e-07	-4.038921e-06	-1.186788e-09	-2.809733e+01	-7.798018e+01
8.900000e-07	-4.007241e-06	-1.173314e-09	-2.787695e+01	-7.771545e+01
9.000000e-07	-3.975402e-06	-1.161647e-09	-2.765545e+01	-7.744947e+01
9.100000e-07	-3.943317e-06	-1.163667e-09	-2.743225e+01	-7.718225e+01
9.200000e-07	-3.910891e-06	-1.155967e-09	-2.720667e+01	-7.691376e+01
9.300000e-07	-3.878091e-06	-1.144993e-09	-2.697849e+01	-7.664393e+01
9.400000e-07	-3.844889e-06	-1.147649e-09	-2.674752e+01	-7.637269e+01
9.500000e-07	-3.811178e-06	-1.150231e-09	-2.651300e+01	-7.609995e+01
9.600000e-07	-3.776884e-06	-1.142983e-09	-2.627443e+01	-7.582558e+01
9.700000e-07	-3.742157e-06	-1.142837e-09	-2.603285e+01	-7.554943e+01
9.800000e-07	-3.707075e-06	-1.142029e-09	-2.578880e+01	-7.527134e+01
9.900000e-07	-3.671738e-06	-1.130433e-09	-2.554297e+01	-7.499110e+01
1.000000e-06	-3.636229e-06	-1.121523e-09	-2.529595e+01	-7.470850e+01
1.010000e-06	-3.600568e-06	-1.122375e-09	-2.504787e+01	-7.442330e+01
1.020000e-06	-3.564828e-06	-1.116979e-09	-2.479923e+01	-7.413523e+01
1.030000e-06	-3.529013e-06	-1.110666e-09	-2.455008e+01	-7.384401e+01
1.040000e-06	-3.493024e-06	-1.107095e-09	-2.429972e+01	-7.354933e+01
1.050000e-06	-3.456775e-06	-1.103737e-09	-2.404755e+01	-7.325088e+01
1.060000e-06	-3.420216e-06	-1.092890e-09	-2.379322e+01	-7.294831e+01
1.070000e-06	-3.383355e-06	-1.087260e-09	-2.353679e+01	-7.264127e+01
1.080000e-06	-3.346216e-06	-1.082514e-09	-2.327843e+01	-7.232940e+01
1.090000e-06	-3.308836e-06	-1.074807e-09	-2.301839e+01	-7.201232e+01
1.100000e-06	-3.271228e-06	-1.067842e-09	-2.275677e+01	-7.168966e+01
1.110000e-06	-3.233389e-06	-1.062012e-09	-2.249354e+01	-7.136103e+01
1.120000e-06	-3.195340e-06	-1.050566e-09	-2.222884e+01	-7.102604e+01
1.130000e-06	-3.157153e-06	-1.037613e-09	-2.196318e+01	-7.068430e+01
1.140000e-06	-3.118795e-06	-1.031487e-09	-2.169635e+01	-7.033544e+01
1.150000e-06	-3.080202e-06	-1.027400e-09	-2.142787e+01	-6.997908e+01
1.160000e-06	-3.041297e-06	-1.021677e-09	-2.115722e+01	-6.961485e+01
1.170000e-06	-3.002069e-06	-1.017251e-09	-2.088432e+01	-6.924239e+01
1.180000e-06	-2.962700e-06	-1.011713e-09	-2.061045e+01	-6.886137e+01
1.190000e-06	-2.923250e-06	-1.002317e-09	-2.033601e+01	-6.847146e+01
1.200000e-06	-2.883638e-06	-9.938673e-10	-2.006044e+01	-6.807235e+01
1.210000e-06	-2.843905e-06	-9.879709e-10	-1.978403e+01	-6.766376e+01
1.220000e-06	-2.804087e-06	-9.810348e-10	-1.950703e+01	-6.724544e+01
1.230000e-06	-2.764156e-06	-9.736282e-10	-1.922925e+01	-6.681713e+01
1.240000e-06	-2.724105e-06	-9.705520e-10	-1.895063e+01	-6.637864e+01
1.250000e-06	-2.683868e-06	-9.641622e-10	-1.867071e+01	-6.592977e+01
1.260000e-06	-2.643389e-06	-9.569173e-10	-1.838912e+01	-6.547038e+01
1.270000e-06	-2.602578e-06	-9.525292e-10	-1.810521e+01	-6.500032e+01
1.280000e-06	-2.561440e-06	-9.479057e-10	-1.781902e+01	-6.451951e+01
1.290000e-06	-2.520108e-06	-9.380372e-10	-1.753149e+01	-6.402786e+01
1.300000e-06	-2.478505e-06	-9.266949e-10	-1.724208e+01	-6.352533e+01
1.310000e-06	-2.436548e-06	-9.159411e-10	-1.695019e+01	-6.301190e+01
1.320000e-06	-2.394196e-06	-9.050801e-10	-1.665557e+01	-6.248757e+01
1.330000e-06	-2.351530e-06	-8.956284e-10	-1.635875e+01	-6.195238e+01
1.340000e-06	-2.308642e-06	-8.913660e-10	-1.606040e+01	-6.140637e+01
1.350000e-06	-2.265487e-06	-8.875148e-10	-1.576018e+01	-6.084960e+01
1.360000e-06	-2.222152e-06	-8.795388e-10	-1.545872e+01	-6.028216e+01
1.370000e-06	-2.178657e-06	-8.687159e-10	-1.515614e+01	-5.970414e+01
1.380000e-06	-2.135040e-06	-8.580593e-10	-1.485271e+01	-5.911566e+01
1.390000e-06	-2.091410e-06	-8.472556e-10	-1.454919e+01	-5.851683e+01
1.400000e-06	-2.047739e-06	-8.379165e-10	-1.424539e+01	-5.790775e+01
1.410000e-06	-2.004005e-06	-8.297551e-10	-1.394115e+01	-5.728856e+01
1.420000e-06	-1.960233e-06	-8.208169e-10	-1.363664e+01	-5.665936e+01
1.430000e-06	-1.916356e-06	-8.117875e-10	-1.333140e+01	-5.602026e+01
1.440000e-06	-1.872345e-06	-8.030665e-10	-1.302523e+01	-5.537136e+01
1.450000e-06	-1.828167e-06	-7.932991e-10	-1.271791e+01	-5.471273e+01
1.460000e-06	-1.783904e-06	-7.809719e-10	-1.240998e+01	-5.404443e+01
1.470000e-06	-1.739506e-06	-7.674799e-10	-1.210112e+01	-5.336651e+01
1.480000e-06	-1.694928e-06	-7.542735e-10	-1.179101e+01	-5.267898e+01
1.490000e-06	-1.650229e-06	-7.422550e-10	-1.148006e+01	-5.198182e+01
1.500000e-06	-1.605373e-06	-7.325067e-10	-1.116801e+01	-5.127500e+01
1.510000e-06	-1.560474e-06	-7.230532e-10	-1.085566e+01	-5.055843e+01
1.520000e-06	-1.515464e-06	-7.111341e-10	-1.054254e+01	-4.983201e+01
1.530000e-06	-1.470287e-06	-6.975016e-10	-1.022826e+01	-4.909557e+01
1.540000e-06	-1.425005e-06	-6.830714e-10	-9.913251e+00	-4.834894e+01
1.550000e-06	-1.379645e-06	-6.693451e-10	-9.597700e+00	-4.759188e+01
1.560000e-06	-1.334200e-06	-6.578571e-10	-9.281552e+00	-4.682414e+01
1.570000e-06	-1.288668e-06	-6.468892e-10	-8.964803e+00	-4.604539e+01
1.580000e-06	-1.243122e-06	-6.361746e-10	-8.647958e+00	-4.525531e+01
1.590000e-06	-1.197512e-06	-6.255302e-10	-8.330664e+00	-4.445349e+01
1.600000e-06	-1.151782e-06	-6.106975e-10	-8.012536e+00	-4.363953e+01
1.610000e-06	-1.105897e-06	-5.947095e-10	-7.693332e+00	-4.281298e+01
1.620000e-06	-1.059847e-06	-5.792344e-10	-7.372980e+00	-4.197334e+01
1.630000e-06	-1.013737e-06	-5.662926e-10	-7.052210e+00	-4.112011e+01
1.640000e-06	-9.676024e-07	-5.537075e-10	-6.731265e+00	-4.025275e+01
1.650000e-06	-9.214671e-07	-5.384816e-10	-6.410318e+00	-3.937070e+01
1.660000e-06	-8.752939e-07	-5.243480e-10	-6.089107e+00	-3.847340e+01
1.670000e-06	-8.290382e-07	-5.101815e-10	-5.767323e+00	-3.756025e+01
1.680000e-06	-7.827513e-07	-4.957614e-10	-5.445321e+00	-3.663069e+01
1.690000e-06	-7.363671e-07	-4.820538e-10	-5.122643e+00	-3.568411e+01
1.700000e-06	-6.899791e-07	-4.706033e-10	-4.799938e+00	-3.471994e+01
1.710000e-06	-6.435969e-07	-4.561782e-10	-4.477274e+00	-3.373761e+01
1.720000e-06	-5.970692e-07	-4.358921e-10	-4.153597e+00	-3.273658e+01
1.730000e-06	-5.504750e-07	-4.144826e-10	-3.829458e+00	-3.171632e+01
1.740000e-06	-5.038456e-07	-3.938344e-10	-3.505074e+00	-3.067635e+01
1.750000e-06	-4.571078e-07	-3.738946e-10	-3.179936e+00	-2.961621e+01
1.760000e-06	-4.102955e-07	-3.579607e-10	-2.854280e+00	-2.853550e+01
1.770000e-06	-3.635064e-07	-3.463277e-10	-2.528784e+00	-2.743386e+01
1.780000e-06	-3.167474e-07	-3.356622e-10	-2.203499e+00	-2.631100e+01
1.790000e-06	-2.700205e-07	-3.242988e-10	-1.878436e+00	-2.516667e+01
1.800000e-06	-2.232373e-07	-3.054214e-10	-1.552982e+00	-2.400073e+01
1.810000e-06	-1.763418e-07	-2.816948e-10	-1.226747e+00	-2.281308e+01
1.820000e-06	-1.295351e-07	-2.577082e-10	-9.011292e-01	-2.160369e+01
1.830000e-06	-8.277788e-08	-2.357736e-10	-5.758561e-01	-2.037266e+01
1.840000e-06	-3.595133e-08	-2.175109e-10	-2.501006e-01	-1.912012e+01
1.850000e-06	1.087224e-08	-2.018860e-10	7.563427e-02	-1.784634e+01
1.860000e-06	5.770986e-08	-1.891541e-10	4.014669e-01	-1.655164e+01
1.870000e-06	1.045397e-07	-1.728875e-10	7.272455e-01	-1.523647e+01
1.880000e-06	1.513103e-07	-1.517710e-10	1.052612e+00	-1.390134e+01
1.890000e-06	1.980961e-07	-1.296448e-10	1.378084e+00	-1.254689e+01
1.900000e-06	2.449327e-07	-1.064457e-10	1.703909e+00	-1.117382e+01
1.910000e-06	2.917269e-07	-8.387207e-11	2.029440e+00	-9.782956e+00
1.920000e-06	3.384349e-07	-6.398953e-11	2.354371e+00	-8.375197e+00
1.930000e-06	3.851205e-07	-4.722887e-11	2.679146e+00	-6.951537e+00
1.940000e-06	4.317435e-07	-2.973851e-11	3.003485e+00	-5.513057e+00
1.950000e-06	4.782474e-07	-1.269175e-11	3.326996e+00	-4.060920e+00
1.960000e-06	5.247200e-07	3.803435e-12	3.650290e+00	-2.596365e+00
1.970000e-06	5.711854e-07	2.081294e-11	3.973533e+00	-1.120707e+00
1.980000e-06	6.175499e-07	3.899352e-11	4.296074e+00	3.646746e-01
1.990000e-06	6.639258e-07	5.887654e-11	4.618695e+00	1.858340e+00
2.000000e-06	7.103404e-07	8.116830e-11	4.941585e+00	3.358797e+00
2.010000e-06	7.567074e-07	1.039325e-10	5.264143e+00	4.864505e+00
2.020000e-06	8.030480e-07	1.254606e-10	5.586518e+00	6.373887e+00
2.030000e-06	8.492789e-07	1.465838e-10	5.908130e+00	7.885337e+00
2.040000e-06	8.954222e-07	1.677908e-10	6.229133e+00	9.397226e+00
2.050000e-06	9.415049e-07	1.873172e-10	6.549713e+00	1.090791e+01
2.060000e-06	9.874971e-07	2.046897e-10	6.869665e+00	1.241576e+01
2.070000e-06	1.033411e-06	2.233459e-10	7.189068e+00	1.391911e+01
2.080000e-06	1.079226e-06	2.441994e-10	7.507787e+00	1.541636e+01
2.090000e-06	1.125005e-06	2.688300e-10	7.826256e+00	1.690590e+01
2.100000e-06	1.170760e-06	2.942972e-10	8.144562e+00	1.838615e+01
2.110000e-06	1.216441e-06	3.183341e-10	8.462345e+00	1.985558e+01
2.120000e-06	1.262061e-06	3.385064e-10	8.779706e+00	2.131272e+01
2.130000e-06	1.307606e-06	3.560124e-10	9.096545e+00	2.275613e+01
2.140000e-06	1.353049e-06	3.714131e-10	9.412682e+00	2.418445e+01
2.150000e-06	1.398401e-06	3.880837e-10	9.728177e+00	2.559639e+01
2.160000e-06	1.443681e-06	4.076374e-10	1.004317e+01	2.699072e+01
2.170000e-06	1.488803e-06	4.291073e-10	1.035707e+01	2.836632e+01
2.180000e-06	1.533742e-06	4.490906e-10	1.066970e+01	2.972213e+01
2.190000e-06	1.578616e-06	4.666014e-10	1.098187e+01	3.105719e+01
2.200000e-06	1.623400e-06	4.857553e-10	1.129341e+01	3.237064e+01
2.210000e-06	1.668027e-06	5.042090e-10	1.160386e+01	3.366173e+01
2.220000e-06	1.712512e-06	5.231225e-10	1.191334e+01	3.492977e+01
2.230000e-06	1.756822e-06	5.442107e-10	1.222158e+01	3.617422e+01
2.240000e-06	1.801007e-06	5.638212e-10	1.252896e+01	3.739460e+01
2.250000e-06	1.845090e-06	5.793671e-10	1.283563e+01	3.859057e+01
2.260000e-06	1.889040e-06	5.917105e-10	1.314137e+01	3.976187e+01
2.270000e-06	1.932906e-06	6.033309e-10	1.344653e+01	4.090833e+01
2.280000e-06	1.976732e-06	6.144534e-10	1.375142e+01	4.202991e+01
2.290000e-06	2.020545e-06	6.274733e-10	1.405621e+01	4.312663e+01
2.300000e-06	2.064296e-06	6.439830e-10	1.436057e+01	4.419862e+01
2.310000e-06	2.107982e-06	6.625036e-10	1.466448e+01	4.524610e+01
2.320000e-06	2.151598e-06	6.808038e-10	1.496790e+01	4.626936e+01
2.330000e-06	2.195045e-06	6.952138e-10	1.527014e+01	4.726876e+01
2.340000e-06	2.238358e-06	7.056074e-10	1.557146e+01	4.824476e+01
2.350000e-06	2.281607e-06	7.145033e-10	1.587233e+01	4.919784e+01
2.360000e-06	2.324692e-06	7.244903e-10	1.617205e+01	5.012858e+01
2.370000e-06	2.367462e-06	7.352850e-10	1.646959e+01	5.103759e+01
2.380000e-06	2.409955e-06	7.479444e-10	1.676520e+01	5.192551e+01
2.390000e-06	2.452252e-06	7.627642e-10	1.705944e+01	5.279305e+01
2.400000e-06	2.494245e-06	7.770904e-10	1.735157e+01	5.364092e+01
2.410000e-06	2.535818e-06	7.896513e-10	1.764078e+01	5.446986e+01
2.420000e-06	2.576958e-06	8.023895e-10	1.792698e+01	5.528064e+01
2.430000e-06	2.617723e-06	8.154875e-10	1.821056e+01	5.607400e+01
2.440000e-06	2.658278e-06	8.278166e-10	1.849269e+01	5.685072e+01
2.450000e-06	2.698589e-06	8.401490e-10	1.877312e+01	5.761155e+01
2.460000e-06	2.738706e-06	8.542885e-10	1.905220e+01	5.835722e+01
2.470000e-06	2.778733e-06	8.673811e-10	1.933066e+01	5.908848e+01
2.480000e-06	2.818627e-06	8.776349e-10	1.960818e+01	5.980601e+01
2.490000e-06	2.858421e-06	8.858375e-10	1.988501e+01	6.051048e+01
2.500000e-06	2.898021e-06	8.959108e-10	2.016050e+01	6.120252e+01
2.510000e-06	2.937455e-06	9.087898e-10	2.043483e+01	6.188274e+01
2.520000e-06	2.976811e-06	9.203463e-10	2.070861e+01	6.255168e+01
2.530000e-06	3.016117e-06	9.309603e-10	2.098205e+01	6.320985e+01
2.540000e-06	3.055260e-06	9.401501e-10	2.125435e+01	6.385771e+01
2.550000e-06	3.094118e-06	9.467839e-10	2.152468e+01	6.449566e+01
2.560000e-06	3.132691e-06	9.519199e-10	2.179301e+01	6.512408e+01
2.570000e-06	3.170988e-06	9.580942e-10	2.205943e+01	6.574325e+01
2.580000e-06	3.209069e-06	9.651958e-10	2.232434e+01	6.635345e+01
2.590000e-06	3.246926e-06	9.722462e-10	2.258770e+01	6.695486e+01
2.600000e-06	3.284588e-06	9.808059e-10	2.284971e+01	6.754765e+01
2.610000e-06	3.322065e-06	9.878970e-10	2.311042e+01	6.813192e+01
2.620000e-06	3.359325e-06	9.970521e-10	2.336963e+01	6.870773e+01
2.630000e-06	3.396368e-06	1.009288e-09	2.362732e+01	6.927509e+01
2.640000e-06	3.433127e-06	1.019501e-09	2.388304e+01	6.983398e+01
2.650000e-06	3.469575e-06	1.025909e-09	2.413659e+01	7.038433e+01
2.660000e-06	3.505759e-06	1.030838e-09	2.438832e+01	7.092605e+01
2.670000e-06	3.541742e-06	1.036073e-09	2.463864e+01	7.145900e+01
2.680000e-06	3.577529e-06	1.040472e-09	2.488759e+01	7.198304e+01
2.690000e-06	3.613175e-06	1.047360e-09	2.513557e+01	7.249799e+01
2.700000e-06	3.648768e-06	1.056696e-09	2.538318e+01	7.300366e+01
2.710000e-06	3.684223e-06	1.066218e-09	2.562983e+01	7.349985e+01
2.720000e-06	3.719446e-06	1.075255e-09	2.587486e+01	7.398635e+01
2.730000e-06	3.754356e-06	1.086269e-09	2.611771e+01	7.446295e+01
2.740000e-06	3.788892e-06	1.095567e-09	2.635797e+01	7.492942e+01
2.750000e-06	3.822941e-06	1.099098e-09	2.659484e+01	7.538558e+01
2.760000e-06	3.856529e-06	1.099178e-09	2.682849e+01	7.583122e+01
2.770000e-06	3.889756e-06	1.100281e-09	2.705965e+01	7.626615e+01
2.780000e-06	3.922536e-06	1.105684e-09	2.728768e+01	7.669023e+01
2.790000e-06	3.954897e-06	1.114364e-09	2.751280e+01	7.710330e+01
2.800000e-06	3.986971e-06	1.123798e-09	2.773593e+01	7.750525e+01
2.810000e-06	4.018809e-06	1.134091e-09	2.795742e+01	7.789599e+01
2.820000e-06	4.050441e-06	1.142389e-09	2.817747e+01	7.827545e+01
2.830000e-06	4.081932e-06	1.147942e-09	2.839654e+01	7.864361e+01
2.840000e-06	4.113251e-06	1.147981e-09	2.861442e+01	7.900046e+01
2.850000e-06	4.144326e-06	1.145335e-09	2.883060e+01	7.934604e+01
2.860000e-06	4.175120e-06	1.147121e-09	2.904482e+01	7.968043e+01
2.870000e-06	4.205614e-06	1.152788e-09	2.925696e+01	8.000372e+01
2.880000e-06	4.235779e-06	1.160395e-09	2.946680e+01	8.031606e+01
2.890000e-06	4.265608e-06	1.169757e-09	2.967432e+01	8.061763e+01
2.900000e-06	4.295138e-06	1.178006e-09	2.987974e+01	8.090862e+01
