# Temperatura_=_-0.2
# Concentracion g/m^3_=_1620.0
# C_Vs_to_Am_M_A/Vsm_=_65563218390.804596
# pendiente_HvsI_1/m_=_3716.3
# ordenada_HvsI_A/m_=_1297.0
# frecuencia_Hz_=_135108.7821731601

Tiempo_(s)	Campo_(V.s)	Magnetizacion_(V.s)	Campo_(kA/m)	Magnetizacion_(A/m)
0.000000e+00	-5.527557e-06	-9.161789e-10	-3.836611e+01	-6.068602e+01
1.000000e-08	-5.527703e-06	-9.146759e-10	-3.836713e+01	-6.068522e+01
2.000000e-08	-5.527579e-06	-9.137603e-10	-3.836627e+01	-6.068587e+01
3.000000e-08	-5.527037e-06	-9.123158e-10	-3.836251e+01	-6.068793e+01
4.000000e-08	-5.525936e-06	-9.087807e-10	-3.835486e+01	-6.069137e+01
5.000000e-08	-5.524280e-06	-9.048820e-10	-3.834337e+01	-6.069612e+01
6.000000e-08	-5.522091e-06	-8.910876e-10	-3.832817e+01	-6.070209e+01
7.000000e-08	-5.519338e-06	-8.783465e-10	-3.830907e+01	-6.070917e+01
8.000000e-08	-5.516076e-06	-8.969244e-10	-3.828643e+01	-6.071722e+01
9.000000e-08	-5.512327e-06	-9.371414e-10	-3.826041e+01	-6.072611e+01
1.000000e-07	-5.508140e-06	-9.265979e-10	-3.823135e+01	-6.073567e+01
1.100000e-07	-5.503668e-06	-9.019189e-10	-3.820031e+01	-6.074572e+01
1.200000e-07	-5.499025e-06	-8.562676e-10	-3.816808e+01	-6.075607e+01
1.300000e-07	-5.494150e-06	-9.028952e-10	-3.813424e+01	-6.076651e+01
1.400000e-07	-5.488867e-06	-8.943234e-10	-3.809757e+01	-6.077682e+01
1.500000e-07	-5.483203e-06	-8.744208e-10	-3.805826e+01	-6.078678e+01
1.600000e-07	-5.477238e-06	-8.510534e-10	-3.801686e+01	-6.079614e+01
1.700000e-07	-5.470894e-06	-8.898670e-10	-3.797282e+01	-6.080468e+01
1.800000e-07	-5.464082e-06	-9.333160e-10	-3.792555e+01	-6.081215e+01
1.900000e-07	-5.456843e-06	-9.260083e-10	-3.787529e+01	-6.081831e+01
2.000000e-07	-5.449311e-06	-9.193027e-10	-3.782302e+01	-6.082290e+01
2.100000e-07	-5.441472e-06	-9.175506e-10	-3.776861e+01	-6.082568e+01
2.200000e-07	-5.433337e-06	-9.372185e-10	-3.771215e+01	-6.082641e+01
2.300000e-07	-5.424913e-06	-9.227640e-10	-3.765368e+01	-6.082485e+01
2.400000e-07	-5.415993e-06	-9.414398e-10	-3.759176e+01	-6.082078e+01
2.500000e-07	-5.406410e-06	-9.525411e-10	-3.752525e+01	-6.081396e+01
2.600000e-07	-5.396187e-06	-9.737408e-10	-3.745429e+01	-6.080418e+01
2.700000e-07	-5.385412e-06	-9.479017e-10	-3.737951e+01	-6.079123e+01
2.800000e-07	-5.374171e-06	-9.488005e-10	-3.730148e+01	-6.077493e+01
2.900000e-07	-5.362542e-06	-9.431520e-10	-3.722076e+01	-6.075508e+01
3.000000e-07	-5.350547e-06	-9.567636e-10	-3.713751e+01	-6.073152e+01
3.100000e-07	-5.338171e-06	-9.365754e-10	-3.705161e+01	-6.070409e+01
3.200000e-07	-5.325414e-06	-9.488610e-10	-3.696306e+01	-6.067265e+01
3.300000e-07	-5.312234e-06	-9.488464e-10	-3.687158e+01	-6.063707e+01
3.400000e-07	-5.298550e-06	-9.532558e-10	-3.677661e+01	-6.059724e+01
3.500000e-07	-5.284379e-06	-9.329625e-10	-3.667824e+01	-6.055305e+01
3.600000e-07	-5.269900e-06	-9.414580e-10	-3.657775e+01	-6.050443e+01
3.700000e-07	-5.255139e-06	-9.321272e-10	-3.647529e+01	-6.045132e+01
3.800000e-07	-5.239729e-06	-9.275796e-10	-3.636834e+01	-6.039365e+01
3.900000e-07	-5.223596e-06	-9.302106e-10	-3.625636e+01	-6.033139e+01
4.000000e-07	-5.207101e-06	-9.444936e-10	-3.614187e+01	-6.026453e+01
4.100000e-07	-5.190294e-06	-9.354865e-10	-3.602521e+01	-6.019306e+01
4.200000e-07	-5.173123e-06	-9.196201e-10	-3.590603e+01	-6.011699e+01
4.300000e-07	-5.155660e-06	-9.301140e-10	-3.578482e+01	-6.003633e+01
4.400000e-07	-5.137916e-06	-9.306739e-10	-3.566166e+01	-5.995114e+01
4.500000e-07	-5.119737e-06	-9.251021e-10	-3.553548e+01	-5.986145e+01
4.600000e-07	-5.101109e-06	-9.150684e-10	-3.540619e+01	-5.976733e+01
4.700000e-07	-5.082125e-06	-9.221272e-10	-3.527443e+01	-5.966886e+01
4.800000e-07	-5.062834e-06	-9.128459e-10	-3.514053e+01	-5.956613e+01
4.900000e-07	-5.043289e-06	-9.199059e-10	-3.500487e+01	-5.945922e+01
5.000000e-07	-5.023510e-06	-9.149656e-10	-3.486759e+01	-5.934826e+01
5.100000e-07	-5.003482e-06	-9.153583e-10	-3.472857e+01	-5.923335e+01
5.200000e-07	-4.983088e-06	-9.066929e-10	-3.458702e+01	-5.911463e+01
5.300000e-07	-4.962280e-06	-9.135715e-10	-3.444260e+01	-5.899222e+01
5.400000e-07	-4.941120e-06	-9.076078e-10	-3.429573e+01	-5.886628e+01
5.500000e-07	-4.919588e-06	-9.177637e-10	-3.414628e+01	-5.873694e+01
5.600000e-07	-4.897756e-06	-9.104285e-10	-3.399474e+01	-5.860437e+01
5.700000e-07	-4.875717e-06	-9.040927e-10	-3.384177e+01	-5.846873e+01
5.800000e-07	-4.853364e-06	-8.967375e-10	-3.368662e+01	-5.833017e+01
5.900000e-07	-4.830648e-06	-9.024557e-10	-3.352896e+01	-5.818888e+01
6.000000e-07	-4.807566e-06	-8.894698e-10	-3.336875e+01	-5.804502e+01
6.100000e-07	-4.784217e-06	-8.917802e-10	-3.320668e+01	-5.789877e+01
6.200000e-07	-4.760659e-06	-8.946724e-10	-3.304317e+01	-5.775030e+01
6.300000e-07	-4.736841e-06	-8.853682e-10	-3.287785e+01	-5.759980e+01
6.400000e-07	-4.712693e-06	-8.748897e-10	-3.271024e+01	-5.744744e+01
6.500000e-07	-4.688192e-06	-8.869473e-10	-3.254018e+01	-5.729340e+01
6.600000e-07	-4.663294e-06	-8.829270e-10	-3.236737e+01	-5.713785e+01
6.700000e-07	-4.637820e-06	-8.718073e-10	-3.219056e+01	-5.698098e+01
6.800000e-07	-4.611691e-06	-8.760585e-10	-3.200920e+01	-5.682294e+01
6.900000e-07	-4.585018e-06	-8.772774e-10	-3.182407e+01	-5.666391e+01
7.000000e-07	-4.557923e-06	-8.630998e-10	-3.163600e+01	-5.650405e+01
7.100000e-07	-4.530521e-06	-8.632633e-10	-3.144581e+01	-5.634351e+01
7.200000e-07	-4.502950e-06	-8.705761e-10	-3.125444e+01	-5.618245e+01
7.300000e-07	-4.475233e-06	-8.574337e-10	-3.106206e+01	-5.602101e+01
7.400000e-07	-4.447287e-06	-8.567312e-10	-3.086809e+01	-5.585932e+01
7.500000e-07	-4.419111e-06	-8.677000e-10	-3.067252e+01	-5.569750e+01
7.600000e-07	-4.390680e-06	-8.637781e-10	-3.047519e+01	-5.553568e+01
7.700000e-07	-4.361956e-06	-8.492708e-10	-3.027582e+01	-5.537395e+01
7.800000e-07	-4.332957e-06	-8.543542e-10	-3.007454e+01	-5.521241e+01
7.900000e-07	-4.303593e-06	-8.488295e-10	-2.987073e+01	-5.505113e+01
8.000000e-07	-4.273846e-06	-8.406123e-10	-2.966426e+01	-5.489018e+01
8.100000e-07	-4.243813e-06	-8.408227e-10	-2.945580e+01	-5.472961e+01
8.200000e-07	-4.213484e-06	-8.463367e-10	-2.924529e+01	-5.456945e+01
8.300000e-07	-4.182863e-06	-8.347456e-10	-2.903276e+01	-5.440972e+01
8.400000e-07	-4.152002e-06	-8.348656e-10	-2.881855e+01	-5.425043e+01
8.500000e-07	-4.120919e-06	-8.376972e-10	-2.860281e+01	-5.409156e+01
8.600000e-07	-4.089588e-06	-8.335316e-10	-2.838534e+01	-5.393307e+01
8.700000e-07	-4.058045e-06	-8.237452e-10	-2.816641e+01	-5.377491e+01
8.800000e-07	-4.026353e-06	-8.277396e-10	-2.794644e+01	-5.361703e+01
8.900000e-07	-3.994436e-06	-8.223328e-10	-2.772490e+01	-5.345932e+01
9.000000e-07	-3.962238e-06	-8.155600e-10	-2.750143e+01	-5.330169e+01
9.100000e-07	-3.929671e-06	-8.146093e-10	-2.727538e+01	-5.314401e+01
9.200000e-07	-3.896668e-06	-8.165028e-10	-2.704631e+01	-5.298614e+01
9.300000e-07	-3.863190e-06	-8.106736e-10	-2.681394e+01	-5.282791e+01
9.400000e-07	-3.829265e-06	-8.116820e-10	-2.657847e+01	-5.266916e+01
9.500000e-07	-3.794950e-06	-8.130303e-10	-2.634029e+01	-5.250969e+01
9.600000e-07	-3.760228e-06	-8.082583e-10	-2.609929e+01	-5.234928e+01
9.700000e-07	-3.725170e-06	-8.041054e-10	-2.585596e+01	-5.218772e+01
9.800000e-07	-3.689896e-06	-8.029520e-10	-2.561113e+01	-5.202477e+01
9.900000e-07	-3.654420e-06	-7.978793e-10	-2.536489e+01	-5.186017e+01
1.000000e-06	-3.618735e-06	-7.918171e-10	-2.511721e+01	-5.169367e+01
1.010000e-06	-3.582928e-06	-7.912536e-10	-2.486868e+01	-5.152500e+01
1.020000e-06	-3.546995e-06	-7.876510e-10	-2.461927e+01	-5.135387e+01
1.030000e-06	-3.510914e-06	-7.816046e-10	-2.436884e+01	-5.118000e+01
1.040000e-06	-3.474628e-06	-7.784344e-10	-2.411698e+01	-5.100309e+01
1.050000e-06	-3.438037e-06	-7.754884e-10	-2.386300e+01	-5.082286e+01
1.060000e-06	-3.401182e-06	-7.661220e-10	-2.360720e+01	-5.063901e+01
1.070000e-06	-3.364087e-06	-7.631001e-10	-2.334973e+01	-5.045124e+01
1.080000e-06	-3.326747e-06	-7.622284e-10	-2.309055e+01	-5.025927e+01
1.090000e-06	-3.289135e-06	-7.594867e-10	-2.282949e+01	-5.006279e+01
1.100000e-06	-3.251278e-06	-7.516695e-10	-2.256674e+01	-4.986155e+01
1.110000e-06	-3.213209e-06	-7.479997e-10	-2.230250e+01	-4.965525e+01
1.120000e-06	-3.174826e-06	-7.390788e-10	-2.203609e+01	-4.944364e+01
1.130000e-06	-3.136162e-06	-7.331935e-10	-2.176773e+01	-4.922647e+01
1.140000e-06	-3.097359e-06	-7.301229e-10	-2.149840e+01	-4.900351e+01
1.150000e-06	-3.058382e-06	-7.268153e-10	-2.122787e+01	-4.877452e+01
1.160000e-06	-3.019230e-06	-7.201971e-10	-2.095612e+01	-4.853930e+01
1.170000e-06	-2.979908e-06	-7.176037e-10	-2.068319e+01	-4.829767e+01
1.180000e-06	-2.940411e-06	-7.139758e-10	-2.040904e+01	-4.804945e+01
1.190000e-06	-2.900764e-06	-7.086770e-10	-2.013385e+01	-4.779449e+01
1.200000e-06	-2.860934e-06	-7.048485e-10	-1.985740e+01	-4.753267e+01
1.210000e-06	-2.820925e-06	-7.030493e-10	-1.957971e+01	-4.726386e+01
1.220000e-06	-2.780778e-06	-6.964917e-10	-1.930105e+01	-4.698799e+01
1.230000e-06	-2.740502e-06	-6.904952e-10	-1.902150e+01	-4.670498e+01
1.240000e-06	-2.700036e-06	-6.851952e-10	-1.874063e+01	-4.641477e+01
1.250000e-06	-2.659386e-06	-6.781919e-10	-1.845848e+01	-4.611735e+01
1.260000e-06	-2.618575e-06	-6.737251e-10	-1.817521e+01	-4.581269e+01
1.270000e-06	-2.577478e-06	-6.726894e-10	-1.788997e+01	-4.550080e+01
1.280000e-06	-2.535892e-06	-6.693671e-10	-1.760133e+01	-4.518170e+01
1.290000e-06	-2.493986e-06	-6.636006e-10	-1.731046e+01	-4.485542e+01
1.300000e-06	-2.451834e-06	-6.581467e-10	-1.701789e+01	-4.452202e+01
1.310000e-06	-2.409394e-06	-6.514141e-10	-1.672332e+01	-4.418155e+01
1.320000e-06	-2.366768e-06	-6.433133e-10	-1.642745e+01	-4.383408e+01
1.330000e-06	-2.323935e-06	-6.373253e-10	-1.613016e+01	-4.347967e+01
1.340000e-06	-2.280850e-06	-6.363437e-10	-1.583111e+01	-4.311841e+01
1.350000e-06	-2.237499e-06	-6.319030e-10	-1.553021e+01	-4.275037e+01
1.360000e-06	-2.193961e-06	-6.259587e-10	-1.522802e+01	-4.237563e+01
1.370000e-06	-2.150374e-06	-6.200626e-10	-1.492549e+01	-4.199425e+01
1.380000e-06	-2.106762e-06	-6.141610e-10	-1.462279e+01	-4.160630e+01
1.390000e-06	-2.063024e-06	-6.068049e-10	-1.431920e+01	-4.121182e+01
1.400000e-06	-2.019192e-06	-6.015212e-10	-1.401497e+01	-4.081086e+01
1.410000e-06	-1.975311e-06	-5.954721e-10	-1.371040e+01	-4.040344e+01
1.420000e-06	-1.931327e-06	-5.898259e-10	-1.340511e+01	-3.998955e+01
1.430000e-06	-1.887230e-06	-5.843865e-10	-1.309904e+01	-3.956918e+01
1.440000e-06	-1.843034e-06	-5.800050e-10	-1.279228e+01	-3.914229e+01
1.450000e-06	-1.798691e-06	-5.736487e-10	-1.248450e+01	-3.870880e+01
1.460000e-06	-1.754245e-06	-5.678624e-10	-1.217600e+01	-3.826861e+01
1.470000e-06	-1.709697e-06	-5.612429e-10	-1.186680e+01	-3.782160e+01
1.480000e-06	-1.665027e-06	-5.530938e-10	-1.155676e+01	-3.736761e+01
1.490000e-06	-1.620213e-06	-5.431085e-10	-1.124571e+01	-3.690644e+01
1.500000e-06	-1.575252e-06	-5.351068e-10	-1.093363e+01	-3.643786e+01
1.510000e-06	-1.530150e-06	-5.252566e-10	-1.062059e+01	-3.596162e+01
1.520000e-06	-1.484932e-06	-5.130174e-10	-1.030673e+01	-3.547742e+01
1.530000e-06	-1.439672e-06	-5.024403e-10	-9.992589e+00	-3.498493e+01
1.540000e-06	-1.394264e-06	-4.930185e-10	-9.677418e+00	-3.448378e+01
1.550000e-06	-1.348797e-06	-4.866832e-10	-9.361837e+00	-3.397359e+01
1.560000e-06	-1.303344e-06	-4.805415e-10	-9.046356e+00	-3.345392e+01
1.570000e-06	-1.257729e-06	-4.711005e-10	-8.729746e+00	-3.292433e+01
1.580000e-06	-1.211946e-06	-4.595104e-10	-8.411975e+00	-3.238433e+01
1.590000e-06	-1.166066e-06	-4.466843e-10	-8.093529e+00	-3.183342e+01
1.600000e-06	-1.120105e-06	-4.374548e-10	-7.774517e+00	-3.127107e+01
1.610000e-06	-1.074064e-06	-4.298825e-10	-7.454949e+00	-3.069674e+01
1.620000e-06	-1.027928e-06	-4.214001e-10	-7.134728e+00	-3.010988e+01
1.630000e-06	-9.817484e-07	-4.125153e-10	-6.814199e+00	-2.950993e+01
1.640000e-06	-9.355309e-07	-4.017994e-10	-6.493409e+00	-2.889630e+01
1.650000e-06	-8.891940e-07	-3.892615e-10	-6.171790e+00	-2.826845e+01
1.660000e-06	-8.428069e-07	-3.758698e-10	-5.849822e+00	-2.762579e+01
1.670000e-06	-7.964065e-07	-3.648701e-10	-5.527763e+00	-2.696779e+01
1.680000e-06	-7.499191e-07	-3.539292e-10	-5.205099e+00	-2.629390e+01
1.690000e-06	-7.033915e-07	-3.445159e-10	-4.882157e+00	-2.560360e+01
1.700000e-06	-6.568571e-07	-3.350157e-10	-4.559167e+00	-2.489641e+01
1.710000e-06	-6.103435e-07	-3.236714e-10	-4.236322e+00	-2.417186e+01
1.720000e-06	-5.637605e-07	-3.100315e-10	-3.912994e+00	-2.342954e+01
1.730000e-06	-5.170455e-07	-2.958823e-10	-3.588751e+00	-2.266906e+01
1.740000e-06	-4.702838e-07	-2.814738e-10	-3.264184e+00	-2.189009e+01
1.750000e-06	-4.234906e-07	-2.690330e-10	-2.939398e+00	-2.109235e+01
1.760000e-06	-3.766397e-07	-2.580308e-10	-2.614211e+00	-2.027561e+01
1.770000e-06	-3.297322e-07	-2.487011e-10	-2.288632e+00	-1.943972e+01
1.780000e-06	-2.827354e-07	-2.399672e-10	-1.962433e+00	-1.858458e+01
1.790000e-06	-2.357688e-07	-2.288814e-10	-1.636443e+00	-1.771016e+01
1.800000e-06	-1.888971e-07	-2.129538e-10	-1.311112e+00	-1.681650e+01
1.810000e-06	-1.419759e-07	-1.966041e-10	-9.854379e-01	-1.590373e+01
1.820000e-06	-9.499417e-08	-1.816817e-10	-6.593433e-01	-1.497204e+01
1.830000e-06	-4.807999e-08	-1.686637e-10	-3.337175e-01	-1.402170e+01
1.840000e-06	-1.250045e-09	-1.557990e-10	-8.676412e-03	-1.305308e+01
1.850000e-06	4.565639e-08	-1.431985e-10	3.168956e-01	-1.206660e+01
1.860000e-06	9.261608e-08	-1.291870e-10	6.428372e-01	-1.106279e+01
1.870000e-06	1.395519e-07	-1.153549e-10	9.686131e-01	-1.004225e+01
1.880000e-06	1.864146e-07	-1.007119e-10	1.293882e+00	-9.005660e+00
1.890000e-06	2.332209e-07	-8.352751e-11	1.618758e+00	-7.953766e+00
1.900000e-06	2.800762e-07	-6.663624e-11	1.943976e+00	-6.887406e+00
1.910000e-06	3.269349e-07	-5.090332e-11	2.269216e+00	-5.807482e+00
1.920000e-06	3.737862e-07	-3.793152e-11	2.594406e+00	-4.714969e+00
1.930000e-06	4.205232e-07	-2.486720e-11	2.918802e+00	-3.610905e+00
1.940000e-06	4.671921e-07	-1.148935e-11	3.242725e+00	-2.496390e+00
1.950000e-06	5.138933e-07	1.269632e-12	3.566872e+00	-1.372579e+00
1.960000e-06	5.605429e-07	1.591483e-11	3.890662e+00	-2.406770e-01
1.970000e-06	6.071123e-07	3.290119e-11	4.213894e+00	8.980651e-01
1.980000e-06	6.536042e-07	4.981190e-11	4.536589e+00	2.042359e+00
1.990000e-06	7.001576e-07	6.752563e-11	4.859710e+00	3.190884e+00
2.000000e-06	7.467243e-07	8.520980e-11	5.182925e+00	4.342295e+00
2.010000e-06	7.931491e-07	1.008831e-10	5.505153e+00	5.495229e+00
2.020000e-06	8.394186e-07	1.137546e-10	5.826305e+00	6.648309e+00
2.030000e-06	8.855935e-07	1.271707e-10	6.146799e+00	7.800159e+00
2.040000e-06	9.317103e-07	1.421845e-10	6.466890e+00	8.949403e+00
2.050000e-06	9.777813e-07	1.576349e-10	6.786664e+00	1.009468e+01
2.060000e-06	1.023806e-06	1.731341e-10	7.106116e+00	1.123463e+01
2.070000e-06	1.069783e-06	1.917172e-10	7.425239e+00	1.236795e+01
2.080000e-06	1.115670e-06	2.106131e-10	7.743734e+00	1.349334e+01
2.090000e-06	1.161484e-06	2.274659e-10	8.061723e+00	1.460955e+01
2.100000e-06	1.207247e-06	2.434979e-10	8.379355e+00	1.571538e+01
2.110000e-06	1.252913e-06	2.580822e-10	8.696322e+00	1.680966e+01
2.120000e-06	1.298520e-06	2.710963e-10	9.012870e+00	1.789131e+01
2.130000e-06	1.344100e-06	2.839136e-10	9.329235e+00	1.895927e+01
2.140000e-06	1.389652e-06	2.975661e-10	9.645412e+00	2.001258e+01
2.150000e-06	1.435120e-06	3.111931e-10	9.961000e+00	2.105033e+01
2.160000e-06	1.480402e-06	3.269654e-10	1.027529e+01	2.207169e+01
2.170000e-06	1.525489e-06	3.433149e-10	1.058824e+01	2.307592e+01
2.180000e-06	1.570464e-06	3.564069e-10	1.090040e+01	2.406234e+01
2.190000e-06	1.615351e-06	3.678043e-10	1.121196e+01	2.503035e+01
2.200000e-06	1.660101e-06	3.808453e-10	1.152256e+01	2.597944e+01
2.210000e-06	1.704711e-06	3.954127e-10	1.183219e+01	2.690919e+01
2.220000e-06	1.749193e-06	4.099430e-10	1.214094e+01	2.781925e+01
2.230000e-06	1.793516e-06	4.227802e-10	1.244858e+01	2.870935e+01
2.240000e-06	1.837688e-06	4.331001e-10	1.275517e+01	2.957930e+01
2.250000e-06	1.881743e-06	4.432826e-10	1.306095e+01	3.042901e+01
2.260000e-06	1.925695e-06	4.537475e-10	1.336602e+01	3.125845e+01
2.270000e-06	1.969548e-06	4.649279e-10	1.367040e+01	3.206765e+01
2.280000e-06	2.013368e-06	4.762388e-10	1.397455e+01	3.285673e+01
2.290000e-06	2.057183e-06	4.869540e-10	1.427866e+01	3.362588e+01
2.300000e-06	2.100933e-06	4.982338e-10	1.458233e+01	3.437532e+01
2.310000e-06	2.144573e-06	5.100489e-10	1.488522e+01	3.510537e+01
2.320000e-06	2.188117e-06	5.211578e-10	1.518746e+01	3.581637e+01
2.330000e-06	2.231624e-06	5.295425e-10	1.548944e+01	3.650872e+01
2.340000e-06	2.275090e-06	5.376417e-10	1.579113e+01	3.718287e+01
2.350000e-06	2.318305e-06	5.465719e-10	1.609108e+01	3.783928e+01
2.360000e-06	2.361252e-06	5.542515e-10	1.638917e+01	3.847847e+01
2.370000e-06	2.404112e-06	5.620743e-10	1.668665e+01	3.910096e+01
2.380000e-06	2.446662e-06	5.716375e-10	1.698199e+01	3.970731e+01
2.390000e-06	2.488777e-06	5.829317e-10	1.727430e+01	4.029808e+01
2.400000e-06	2.530560e-06	5.933552e-10	1.756432e+01	4.087384e+01
2.410000e-06	2.571962e-06	6.034360e-10	1.785168e+01	4.143516e+01
2.420000e-06	2.612989e-06	6.128033e-10	1.813645e+01	4.198262e+01
2.430000e-06	2.653749e-06	6.196927e-10	1.841936e+01	4.251678e+01
2.440000e-06	2.694276e-06	6.267723e-10	1.870065e+01	4.303818e+01
2.450000e-06	2.734561e-06	6.346943e-10	1.898027e+01	4.354737e+01
2.460000e-06	2.774644e-06	6.421490e-10	1.925847e+01	4.404486e+01
2.470000e-06	2.814588e-06	6.495891e-10	1.953572e+01	4.453113e+01
2.480000e-06	2.854418e-06	6.572569e-10	1.981218e+01	4.500664e+01
2.490000e-06	2.894098e-06	6.645605e-10	2.008759e+01	4.547182e+01
2.500000e-06	2.933663e-06	6.725414e-10	2.036220e+01	4.592708e+01
2.510000e-06	2.973167e-06	6.796175e-10	2.063640e+01	4.637278e+01
2.520000e-06	3.012606e-06	6.842649e-10	2.091014e+01	4.680924e+01
2.530000e-06	3.051886e-06	6.878524e-10	2.118278e+01	4.723675e+01
2.540000e-06	3.090875e-06	6.917611e-10	2.145340e+01	4.765557e+01
2.550000e-06	3.129561e-06	6.971057e-10	2.172191e+01	4.806593e+01
2.560000e-06	3.167989e-06	7.048447e-10	2.198863e+01	4.846799e+01
2.570000e-06	3.206186e-06	7.136829e-10	2.225376e+01	4.886191e+01
2.580000e-06	3.244156e-06	7.210811e-10	2.251730e+01	4.924780e+01
2.590000e-06	3.281922e-06	7.261097e-10	2.277943e+01	4.962574e+01
2.600000e-06	3.319531e-06	7.296872e-10	2.304047e+01	4.999577e+01
2.610000e-06	3.356920e-06	7.319819e-10	2.329998e+01	5.035793e+01
2.620000e-06	3.394043e-06	7.346200e-10	2.355765e+01	5.071221e+01
2.630000e-06	3.430893e-06	7.392301e-10	2.381342e+01	5.105859e+01
2.640000e-06	3.467460e-06	7.448234e-10	2.406723e+01	5.139702e+01
2.650000e-06	3.503736e-06	7.502258e-10	2.431901e+01	5.172745e+01
2.660000e-06	3.539770e-06	7.565465e-10	2.456913e+01	5.204980e+01
2.670000e-06	3.575709e-06	7.617461e-10	2.481857e+01	5.236400e+01
2.680000e-06	3.611552e-06	7.634293e-10	2.506735e+01	5.266996e+01
2.690000e-06	3.647252e-06	7.647674e-10	2.531514e+01	5.296760e+01
2.700000e-06	3.682855e-06	7.681318e-10	2.556226e+01	5.325683e+01
2.710000e-06	3.718321e-06	7.728111e-10	2.580842e+01	5.353757e+01
2.720000e-06	3.753480e-06	7.800546e-10	2.605246e+01	5.380976e+01
2.730000e-06	3.788308e-06	7.891658e-10	2.629420e+01	5.407334e+01
2.740000e-06	3.822701e-06	7.959496e-10	2.653292e+01	5.432825e+01
2.750000e-06	3.856518e-06	7.989015e-10	2.676763e+01	5.457449e+01
2.760000e-06	3.889875e-06	7.987519e-10	2.699916e+01	5.481202e+01
2.770000e-06	3.922817e-06	7.967877e-10	2.722780e+01	5.504088e+01
2.780000e-06	3.955318e-06	7.971836e-10	2.745339e+01	5.526110e+01
2.790000e-06	3.987468e-06	8.023976e-10	2.767654e+01	5.547274e+01
2.800000e-06	4.019447e-06	8.108593e-10	2.789850e+01	5.567588e+01
2.810000e-06	4.051328e-06	8.197105e-10	2.811979e+01	5.587064e+01
2.820000e-06	4.083098e-06	8.269755e-10	2.834029e+01	5.605716e+01
2.830000e-06	4.114674e-06	8.313486e-10	2.855947e+01	5.623560e+01
2.840000e-06	4.145963e-06	8.312438e-10	2.877664e+01	5.640616e+01
2.850000e-06	4.176933e-06	8.300778e-10	2.899160e+01	5.656906e+01
2.860000e-06	4.207560e-06	8.291706e-10	2.920417e+01	5.672453e+01
2.870000e-06	4.237810e-06	8.290393e-10	2.941414e+01	5.687285e+01
2.880000e-06	4.267736e-06	8.338983e-10	2.962185e+01	5.701430e+01
2.890000e-06	4.297441e-06	8.415809e-10	2.982803e+01	5.714919e+01
2.900000e-06	4.326901e-06	8.494031e-10	3.003251e+01	5.727784e+01
