# Temperatura_=_-0.3
# Concentracion g/m^3_=_1620.0
# C_Vs_to_Am_M_A/Vsm_=_65563218390.804596
# pendiente_HvsI_1/m_=_3716.3
# ordenada_HvsI_A/m_=_1297.0
# frecuencia_Hz_=_135109.55804846366

Tiempo_(s)	Campo_(V.s)	Magnetizacion_(V.s)	Campo_(kA/m)	Magnetizacion_(A/m)
0.000000e+00	-5.524100e-06	-1.248711e-09	-3.835582e+01	-8.177676e+01
1.000000e-08	-5.524286e-06	-1.248420e-09	-3.835712e+01	-8.179878e+01
2.000000e-08	-5.524172e-06	-1.247025e-09	-3.835632e+01	-8.182119e+01
3.000000e-08	-5.523581e-06	-1.243535e-09	-3.835222e+01	-8.184387e+01
4.000000e-08	-5.522510e-06	-1.240005e-09	-3.834479e+01	-8.186668e+01
5.000000e-08	-5.520830e-06	-1.236176e-09	-3.833312e+01	-8.188946e+01
6.000000e-08	-5.518547e-06	-1.229814e-09	-3.831727e+01	-8.191202e+01
7.000000e-08	-5.515779e-06	-1.228643e-09	-3.829805e+01	-8.193418e+01
8.000000e-08	-5.512555e-06	-1.218463e-09	-3.827567e+01	-8.195572e+01
9.000000e-08	-5.508951e-06	-1.230903e-09	-3.825064e+01	-8.197640e+01
1.000000e-07	-5.504939e-06	-1.277078e-09	-3.822279e+01	-8.199600e+01
1.100000e-07	-5.500483e-06	-1.255040e-09	-3.819184e+01	-8.201426e+01
1.200000e-07	-5.495787e-06	-1.142537e-09	-3.815924e+01	-8.203093e+01
1.300000e-07	-5.490972e-06	-1.184140e-09	-3.812581e+01	-8.204576e+01
1.400000e-07	-5.485811e-06	-1.231740e-09	-3.808997e+01	-8.205847e+01
1.500000e-07	-5.480171e-06	-1.244297e-09	-3.805081e+01	-8.206882e+01
1.600000e-07	-5.474125e-06	-1.133165e-09	-3.800883e+01	-8.207653e+01
1.700000e-07	-5.467790e-06	-1.177986e-09	-3.796484e+01	-8.208136e+01
1.800000e-07	-5.461007e-06	-1.285723e-09	-3.791775e+01	-8.208305e+01
1.900000e-07	-5.453813e-06	-1.277802e-09	-3.786780e+01	-8.208136e+01
2.000000e-07	-5.446361e-06	-1.193536e-09	-3.781605e+01	-8.207606e+01
2.100000e-07	-5.438611e-06	-1.186177e-09	-3.776225e+01	-8.206692e+01
2.200000e-07	-5.430616e-06	-1.266000e-09	-3.770673e+01	-8.205375e+01
2.300000e-07	-5.422331e-06	-1.268308e-09	-3.764921e+01	-8.203634e+01
2.400000e-07	-5.413514e-06	-1.241530e-09	-3.758799e+01	-8.201451e+01
2.500000e-07	-5.404057e-06	-1.227105e-09	-3.752232e+01	-8.198810e+01
2.600000e-07	-5.393908e-06	-1.280816e-09	-3.745185e+01	-8.195696e+01
2.700000e-07	-5.383128e-06	-1.255132e-09	-3.737701e+01	-8.192097e+01
2.800000e-07	-5.371962e-06	-1.239460e-09	-3.729948e+01	-8.188001e+01
2.900000e-07	-5.360384e-06	-1.235041e-09	-3.721909e+01	-8.183398e+01
3.000000e-07	-5.348385e-06	-1.283036e-09	-3.713577e+01	-8.178282e+01
3.100000e-07	-5.335993e-06	-1.252793e-09	-3.704973e+01	-8.172646e+01
3.200000e-07	-5.323189e-06	-1.243148e-09	-3.696082e+01	-8.166485e+01
3.300000e-07	-5.309972e-06	-1.227461e-09	-3.686906e+01	-8.159798e+01
3.400000e-07	-5.296349e-06	-1.262434e-09	-3.677447e+01	-8.152583e+01
3.500000e-07	-5.282384e-06	-1.247450e-09	-3.667751e+01	-8.144842e+01
3.600000e-07	-5.267879e-06	-1.228287e-09	-3.657679e+01	-8.136576e+01
3.700000e-07	-5.252770e-06	-1.233240e-09	-3.647188e+01	-8.127788e+01
3.800000e-07	-5.237361e-06	-1.288530e-09	-3.636489e+01	-8.118484e+01
3.900000e-07	-5.221491e-06	-1.249546e-09	-3.625470e+01	-8.108668e+01
4.000000e-07	-5.205045e-06	-1.199079e-09	-3.614051e+01	-8.098348e+01
4.100000e-07	-5.188324e-06	-1.249548e-09	-3.602441e+01	-8.087531e+01
4.200000e-07	-5.171366e-06	-1.270198e-09	-3.590666e+01	-8.076225e+01
4.300000e-07	-5.154005e-06	-1.188962e-09	-3.578612e+01	-8.064440e+01
4.400000e-07	-5.136258e-06	-1.203309e-09	-3.566290e+01	-8.052184e+01
4.500000e-07	-5.118182e-06	-1.300275e-09	-3.553739e+01	-8.039467e+01
4.600000e-07	-5.099609e-06	-1.226703e-09	-3.540843e+01	-8.026300e+01
4.700000e-07	-5.080562e-06	-1.160887e-09	-3.527618e+01	-8.012691e+01
4.800000e-07	-5.061275e-06	-1.251788e-09	-3.514227e+01	-7.998652e+01
4.900000e-07	-5.041837e-06	-1.266701e-09	-3.500730e+01	-7.984193e+01
5.000000e-07	-5.022197e-06	-1.155823e-09	-3.487093e+01	-7.969323e+01
5.100000e-07	-5.002279e-06	-1.213178e-09	-3.473264e+01	-7.954052e+01
5.200000e-07	-4.982014e-06	-1.266890e-09	-3.459193e+01	-7.938389e+01
5.300000e-07	-4.961394e-06	-1.175699e-09	-3.444875e+01	-7.922344e+01
5.400000e-07	-4.940435e-06	-1.171447e-09	-3.430323e+01	-7.905926e+01
5.500000e-07	-4.919123e-06	-1.274643e-09	-3.415525e+01	-7.889142e+01
5.600000e-07	-4.897469e-06	-1.197716e-09	-3.400490e+01	-7.872001e+01
5.700000e-07	-4.875406e-06	-1.144676e-09	-3.385171e+01	-7.854511e+01
5.800000e-07	-4.852978e-06	-1.232132e-09	-3.369598e+01	-7.836678e+01
5.900000e-07	-4.830280e-06	-1.226447e-09	-3.353838e+01	-7.818509e+01
6.000000e-07	-4.807262e-06	-1.137162e-09	-3.337856e+01	-7.800010e+01
6.100000e-07	-4.783968e-06	-1.200402e-09	-3.321682e+01	-7.781189e+01
6.200000e-07	-4.760467e-06	-1.223191e-09	-3.305364e+01	-7.762049e+01
6.300000e-07	-4.736681e-06	-1.143924e-09	-3.288849e+01	-7.742597e+01
6.400000e-07	-4.712604e-06	-1.157456e-09	-3.272131e+01	-7.722838e+01
6.500000e-07	-4.688177e-06	-1.210135e-09	-3.255171e+01	-7.702777e+01
6.600000e-07	-4.663129e-06	-1.154057e-09	-3.237779e+01	-7.682418e+01
6.700000e-07	-4.637493e-06	-1.146231e-09	-3.219979e+01	-7.661767e+01
6.800000e-07	-4.611424e-06	-1.191743e-09	-3.201879e+01	-7.640827e+01
6.900000e-07	-4.584944e-06	-1.163844e-09	-3.183493e+01	-7.619604e+01
7.000000e-07	-4.558100e-06	-1.138783e-09	-3.164854e+01	-7.598102e+01
7.100000e-07	-4.530936e-06	-1.175644e-09	-3.145993e+01	-7.576325e+01
7.200000e-07	-4.503466e-06	-1.162618e-09	-3.126919e+01	-7.554279e+01
7.300000e-07	-4.475742e-06	-1.127499e-09	-3.107670e+01	-7.531968e+01
7.400000e-07	-4.447819e-06	-1.152386e-09	-3.088282e+01	-7.509397e+01
7.500000e-07	-4.419689e-06	-1.154668e-09	-3.068750e+01	-7.486571e+01
7.600000e-07	-4.391266e-06	-1.128567e-09	-3.049015e+01	-7.463494e+01
7.700000e-07	-4.362532e-06	-1.139409e-09	-3.029064e+01	-7.440172e+01
7.800000e-07	-4.333543e-06	-1.151860e-09	-3.008936e+01	-7.416609e+01
7.900000e-07	-4.304221e-06	-1.122609e-09	-2.988576e+01	-7.392811e+01
8.000000e-07	-4.274560e-06	-1.124688e-09	-2.967982e+01	-7.368783e+01
8.100000e-07	-4.244619e-06	-1.133958e-09	-2.947192e+01	-7.344529e+01
8.200000e-07	-4.214427e-06	-1.113644e-09	-2.926229e+01	-7.320053e+01
8.300000e-07	-4.184008e-06	-1.098781e-09	-2.905108e+01	-7.295361e+01
8.400000e-07	-4.153315e-06	-1.119073e-09	-2.883797e+01	-7.270456e+01
8.500000e-07	-4.122275e-06	-1.109284e-09	-2.862245e+01	-7.245342e+01
8.600000e-07	-4.090984e-06	-1.093909e-09	-2.840518e+01	-7.220021e+01
8.700000e-07	-4.059533e-06	-1.100375e-09	-2.818681e+01	-7.194496e+01
8.800000e-07	-4.027849e-06	-1.102706e-09	-2.796681e+01	-7.168769e+01
8.900000e-07	-3.995931e-06	-1.079791e-09	-2.774519e+01	-7.142840e+01
9.000000e-07	-3.963787e-06	-1.080307e-09	-2.752200e+01	-7.116710e+01
9.100000e-07	-3.931334e-06	-1.079785e-09	-2.729668e+01	-7.090377e+01
9.200000e-07	-3.898444e-06	-1.062120e-09	-2.706831e+01	-7.063841e+01
9.300000e-07	-3.865058e-06	-1.055905e-09	-2.683650e+01	-7.037096e+01
9.400000e-07	-3.831142e-06	-1.068792e-09	-2.660100e+01	-7.010140e+01
9.500000e-07	-3.796711e-06	-1.061032e-09	-2.636194e+01	-6.982966e+01
9.600000e-07	-3.761974e-06	-1.051432e-09	-2.612075e+01	-6.955568e+01
9.700000e-07	-3.727063e-06	-1.056185e-09	-2.587835e+01	-6.927937e+01
9.800000e-07	-3.691828e-06	-1.050045e-09	-2.563370e+01	-6.900064e+01
9.900000e-07	-3.656314e-06	-1.031458e-09	-2.538711e+01	-6.871937e+01
1.000000e-06	-3.620700e-06	-1.028236e-09	-2.513983e+01	-6.843544e+01
1.010000e-06	-3.584991e-06	-1.027344e-09	-2.489189e+01	-6.814872e+01
1.020000e-06	-3.549168e-06	-1.014080e-09	-2.464316e+01	-6.785904e+01
1.030000e-06	-3.513161e-06	-1.010368e-09	-2.439315e+01	-6.756624e+01
1.040000e-06	-3.476881e-06	-1.012239e-09	-2.414124e+01	-6.727015e+01
1.050000e-06	-3.440298e-06	-1.001856e-09	-2.388723e+01	-6.697057e+01
1.060000e-06	-3.403481e-06	-9.876265e-10	-2.363160e+01	-6.666731e+01
1.070000e-06	-3.366438e-06	-9.864028e-10	-2.337440e+01	-6.636015e+01
1.080000e-06	-3.329149e-06	-9.805924e-10	-2.311549e+01	-6.604887e+01
1.090000e-06	-3.291604e-06	-9.747397e-10	-2.285480e+01	-6.573325e+01
1.100000e-06	-3.253787e-06	-9.724674e-10	-2.259222e+01	-6.541304e+01
1.110000e-06	-3.215725e-06	-9.676188e-10	-2.232794e+01	-6.508802e+01
1.120000e-06	-3.177377e-06	-9.528980e-10	-2.206168e+01	-6.475793e+01
1.130000e-06	-3.138758e-06	-9.461552e-10	-2.179353e+01	-6.442254e+01
1.140000e-06	-3.099892e-06	-9.414937e-10	-2.152367e+01	-6.408159e+01
1.150000e-06	-3.060841e-06	-9.346201e-10	-2.125253e+01	-6.373485e+01
1.160000e-06	-3.021708e-06	-9.297308e-10	-2.098081e+01	-6.338208e+01
1.170000e-06	-2.982420e-06	-9.336852e-10	-2.070802e+01	-6.302303e+01
1.180000e-06	-2.942993e-06	-9.307985e-10	-2.043426e+01	-6.265747e+01
1.190000e-06	-2.903477e-06	-9.258622e-10	-2.015989e+01	-6.228519e+01
1.200000e-06	-2.863799e-06	-9.199840e-10	-1.988439e+01	-6.190596e+01
1.210000e-06	-2.823950e-06	-9.138240e-10	-1.960771e+01	-6.151957e+01
1.220000e-06	-2.783983e-06	-9.026515e-10	-1.933020e+01	-6.112584e+01
1.230000e-06	-2.743823e-06	-8.963671e-10	-1.905136e+01	-6.072458e+01
1.240000e-06	-2.703429e-06	-8.911433e-10	-1.877089e+01	-6.031562e+01
1.250000e-06	-2.662857e-06	-8.829434e-10	-1.848918e+01	-5.989879e+01
1.260000e-06	-2.622006e-06	-8.798084e-10	-1.820554e+01	-5.947395e+01
1.270000e-06	-2.580834e-06	-8.781793e-10	-1.791966e+01	-5.904097e+01
1.280000e-06	-2.539374e-06	-8.729822e-10	-1.763179e+01	-5.859972e+01
1.290000e-06	-2.497598e-06	-8.665757e-10	-1.734173e+01	-5.815010e+01
1.300000e-06	-2.455600e-06	-8.604145e-10	-1.705012e+01	-5.769201e+01
1.310000e-06	-2.413321e-06	-8.511075e-10	-1.675656e+01	-5.722537e+01
1.320000e-06	-2.370704e-06	-8.404024e-10	-1.646065e+01	-5.675010e+01
1.330000e-06	-2.327864e-06	-8.332247e-10	-1.616320e+01	-5.626614e+01
1.340000e-06	-2.284838e-06	-8.293100e-10	-1.586446e+01	-5.577344e+01
1.350000e-06	-2.241640e-06	-8.244964e-10	-1.556452e+01	-5.527193e+01
1.360000e-06	-2.198254e-06	-8.192555e-10	-1.526327e+01	-5.476159e+01
1.370000e-06	-2.154692e-06	-8.128780e-10	-1.496081e+01	-5.424235e+01
1.380000e-06	-2.111048e-06	-8.037798e-10	-1.465777e+01	-5.371419e+01
1.390000e-06	-2.067355e-06	-7.929322e-10	-1.435440e+01	-5.317706e+01
1.400000e-06	-2.023616e-06	-7.841604e-10	-1.405070e+01	-5.263091e+01
1.410000e-06	-1.979828e-06	-7.730289e-10	-1.374667e+01	-5.207569e+01
1.420000e-06	-1.935948e-06	-7.615486e-10	-1.344199e+01	-5.151133e+01
1.430000e-06	-1.891947e-06	-7.493651e-10	-1.313647e+01	-5.093777e+01
1.440000e-06	-1.847744e-06	-7.403208e-10	-1.282956e+01	-5.035492e+01
1.450000e-06	-1.803383e-06	-7.307515e-10	-1.252154e+01	-4.976269e+01
1.460000e-06	-1.758878e-06	-7.201723e-10	-1.221253e+01	-4.916095e+01
1.470000e-06	-1.714247e-06	-7.069388e-10	-1.190264e+01	-4.854959e+01
1.480000e-06	-1.669519e-06	-6.914923e-10	-1.159208e+01	-4.792843e+01
1.490000e-06	-1.624682e-06	-6.767923e-10	-1.128075e+01	-4.729732e+01
1.500000e-06	-1.579767e-06	-6.644737e-10	-1.096889e+01	-4.665604e+01
1.510000e-06	-1.534676e-06	-6.526031e-10	-1.065581e+01	-4.600438e+01
1.520000e-06	-1.489362e-06	-6.411046e-10	-1.034118e+01	-4.534209e+01
1.530000e-06	-1.443930e-06	-6.263861e-10	-1.002573e+01	-4.466890e+01
1.540000e-06	-1.398500e-06	-6.116394e-10	-9.710294e+00	-4.398451e+01
1.550000e-06	-1.353070e-06	-5.958671e-10	-9.394852e+00	-4.328860e+01
1.560000e-06	-1.307540e-06	-5.811733e-10	-9.078727e+00	-4.258082e+01
1.570000e-06	-1.261863e-06	-5.685882e-10	-8.761573e+00	-4.186081e+01
1.580000e-06	-1.216107e-06	-5.591413e-10	-8.443870e+00	-4.112816e+01
1.590000e-06	-1.170374e-06	-5.498290e-10	-8.126329e+00	-4.038247e+01
1.600000e-06	-1.124651e-06	-5.375837e-10	-7.808862e+00	-3.962331e+01
1.610000e-06	-1.078801e-06	-5.245322e-10	-7.490502e+00	-3.885022e+01
1.620000e-06	-1.032751e-06	-5.122485e-10	-7.170761e+00	-3.806276e+01
1.630000e-06	-9.865333e-07	-4.994786e-10	-6.849858e+00	-3.726045e+01
1.640000e-06	-9.402523e-07	-4.837820e-10	-6.528512e+00	-3.644281e+01
1.650000e-06	-8.939680e-07	-4.679747e-10	-6.207144e+00	-3.560937e+01
1.660000e-06	-8.476165e-07	-4.529572e-10	-5.885308e+00	-3.475966e+01
1.670000e-06	-8.011776e-07	-4.411633e-10	-5.562866e+00	-3.389319e+01
1.680000e-06	-7.546598e-07	-4.291984e-10	-5.239876e+00	-3.300951e+01
1.690000e-06	-7.080475e-07	-4.165211e-10	-4.916230e+00	-3.210818e+01
1.700000e-06	-6.614031e-07	-4.038650e-10	-4.592361e+00	-3.118878e+01
1.710000e-06	-6.148015e-07	-3.901787e-10	-4.268789e+00	-3.025089e+01
1.720000e-06	-5.681349e-07	-3.741006e-10	-3.944766e+00	-2.929416e+01
1.730000e-06	-5.213876e-07	-3.565329e-10	-3.620183e+00	-2.831824e+01
1.740000e-06	-4.747101e-07	-3.375951e-10	-3.296084e+00	-2.732285e+01
1.750000e-06	-4.280617e-07	-3.206230e-10	-2.972187e+00	-2.630773e+01
1.760000e-06	-3.813847e-07	-3.057256e-10	-2.648092e+00	-2.527268e+01
1.770000e-06	-3.346308e-07	-2.936891e-10	-2.323463e+00	-2.421756e+01
1.780000e-06	-2.877293e-07	-2.833498e-10	-1.997809e+00	-2.314228e+01
1.790000e-06	-2.407983e-07	-2.702669e-10	-1.671950e+00	-2.204680e+01
1.800000e-06	-1.939058e-07	-2.517949e-10	-1.346358e+00	-2.093118e+01
1.810000e-06	-1.469762e-07	-2.294481e-10	-1.020509e+00	-1.979551e+01
1.820000e-06	-9.995357e-08	-2.073576e-10	-6.940138e-01	-1.863998e+01
1.830000e-06	-5.292821e-08	-1.892576e-10	-3.674997e-01	-1.746485e+01
1.840000e-06	-6.033556e-09	-1.736532e-10	-4.189316e-02	-1.627044e+01
1.850000e-06	4.078328e-08	-1.585843e-10	2.831731e-01	-1.505716e+01
1.860000e-06	8.759150e-08	-1.441838e-10	6.081795e-01	-1.382550e+01
1.870000e-06	1.345135e-07	-1.299757e-10	9.339758e-01	-1.257603e+01
1.880000e-06	1.815361e-07	-1.141794e-10	1.260471e+00	-1.130939e+01
1.890000e-06	2.284788e-07	-9.515792e-11	1.586411e+00	-1.002630e+01
1.900000e-06	2.752995e-07	-7.506692e-11	1.911504e+00	-8.727569e+00
1.910000e-06	3.220730e-07	-5.715493e-11	2.236269e+00	-7.414060e+00
1.920000e-06	3.687689e-07	-4.082799e-11	2.560496e+00	-6.086723e+00
1.930000e-06	4.154312e-07	-2.471636e-11	2.884489e+00	-4.746573e+00
1.940000e-06	4.621604e-07	-8.826415e-12	3.208947e+00	-3.394688e+00
1.950000e-06	5.089072e-07	8.455880e-12	3.533527e+00	-2.032210e+00
1.960000e-06	5.555772e-07	2.551575e-11	3.857574e+00	-6.603363e-01
1.970000e-06	6.021295e-07	4.395977e-11	4.180803e+00	7.196857e-01
1.980000e-06	6.485671e-07	6.383947e-11	4.503236e+00	2.106562e+00
1.990000e-06	6.948430e-07	8.367777e-11	4.824546e+00	3.498957e+00
2.000000e-06	7.411274e-07	1.031499e-10	5.145916e+00	4.895506e+00
2.010000e-06	7.874988e-07	1.213226e-10	5.467889e+00	6.294813e+00
2.020000e-06	8.338089e-07	1.384867e-10	5.789437e+00	7.695465e+00
2.030000e-06	8.800152e-07	1.578762e-10	6.110264e+00	9.096033e+00
2.040000e-06	9.261346e-07	1.798673e-10	6.430488e+00	1.049508e+01
2.050000e-06	9.721561e-07	2.015228e-10	6.750031e+00	1.189119e+01
2.060000e-06	1.018082e-06	2.212606e-10	7.068912e+00	1.328292e+01
2.070000e-06	1.063992e-06	2.391219e-10	7.387682e+00	1.466886e+01
2.080000e-06	1.109904e-06	2.561724e-10	7.706468e+00	1.604764e+01
2.090000e-06	1.155705e-06	2.744012e-10	8.024476e+00	1.741790e+01
2.100000e-06	1.201413e-06	2.943704e-10	8.341843e+00	1.877831e+01
2.110000e-06	1.247071e-06	3.154639e-10	8.658866e+00	2.012760e+01
2.120000e-06	1.292655e-06	3.380893e-10	8.975370e+00	2.146455e+01
2.130000e-06	1.338182e-06	3.593322e-10	9.291483e+00	2.278796e+01
2.140000e-06	1.383587e-06	3.758472e-10	9.606744e+00	2.409673e+01
2.150000e-06	1.428900e-06	3.886992e-10	9.921372e+00	2.538982e+01
2.160000e-06	1.474170e-06	4.026333e-10	1.023569e+01	2.666622e+01
2.170000e-06	1.519305e-06	4.188098e-10	1.054908e+01	2.792505e+01
2.180000e-06	1.564261e-06	4.353531e-10	1.086123e+01	2.916545e+01
2.190000e-06	1.609073e-06	4.530092e-10	1.117237e+01	3.038669e+01
2.200000e-06	1.653865e-06	4.733204e-10	1.148338e+01	3.158807e+01
2.210000e-06	1.698485e-06	4.931530e-10	1.179320e+01	3.276901e+01
2.220000e-06	1.742879e-06	5.098153e-10	1.210144e+01	3.392901e+01
2.230000e-06	1.787200e-06	5.245312e-10	1.240918e+01	3.506762e+01
2.240000e-06	1.831396e-06	5.366856e-10	1.271605e+01	3.618450e+01
2.250000e-06	1.875480e-06	5.471273e-10	1.302214e+01	3.727940e+01
2.260000e-06	1.919457e-06	5.580067e-10	1.332748e+01	3.835213e+01
2.270000e-06	1.963292e-06	5.710602e-10	1.363185e+01	3.940258e+01
2.280000e-06	2.007064e-06	5.858620e-10	1.393577e+01	4.043072e+01
2.290000e-06	2.050798e-06	6.015137e-10	1.423943e+01	4.143660e+01
2.300000e-06	2.094471e-06	6.175409e-10	1.454267e+01	4.242032e+01
2.310000e-06	2.138071e-06	6.312713e-10	1.484540e+01	4.338206e+01
2.320000e-06	2.181609e-06	6.423191e-10	1.514770e+01	4.432207e+01
2.330000e-06	2.225082e-06	6.523636e-10	1.544955e+01	4.524061e+01
2.340000e-06	2.268492e-06	6.626614e-10	1.575096e+01	4.613805e+01
2.350000e-06	2.311713e-06	6.737698e-10	1.605106e+01	4.701476e+01
2.360000e-06	2.354685e-06	6.855072e-10	1.634943e+01	4.787116e+01
2.370000e-06	2.397440e-06	6.971484e-10	1.664629e+01	4.870773e+01
2.380000e-06	2.439829e-06	7.089480e-10	1.694062e+01	4.952495e+01
2.390000e-06	2.481923e-06	7.211259e-10	1.723289e+01	5.032333e+01
2.400000e-06	2.523787e-06	7.326348e-10	1.752357e+01	5.110340e+01
2.410000e-06	2.565263e-06	7.440190e-10	1.781155e+01	5.186570e+01
2.420000e-06	2.606376e-06	7.556913e-10	1.809701e+01	5.261078e+01
2.430000e-06	2.647183e-06	7.666669e-10	1.838035e+01	5.333919e+01
2.440000e-06	2.687765e-06	7.783273e-10	1.866213e+01	5.405147e+01
2.450000e-06	2.728192e-06	7.910330e-10	1.894283e+01	5.474817e+01
2.460000e-06	2.768379e-06	8.023091e-10	1.922186e+01	5.542980e+01
2.470000e-06	2.808326e-06	8.113620e-10	1.949922e+01	5.609689e+01
2.480000e-06	2.848103e-06	8.191183e-10	1.977541e+01	5.674991e+01
2.490000e-06	2.887767e-06	8.265709e-10	2.005081e+01	5.738934e+01
2.500000e-06	2.927316e-06	8.344392e-10	2.032542e+01	5.801561e+01
2.510000e-06	2.966764e-06	8.424267e-10	2.059932e+01	5.862914e+01
2.520000e-06	3.006138e-06	8.502947e-10	2.087271e+01	5.923031e+01
2.530000e-06	3.045313e-06	8.595467e-10	2.114471e+01	5.981948e+01
2.540000e-06	3.084211e-06	8.689844e-10	2.141479e+01	6.039696e+01
2.550000e-06	3.122873e-06	8.761797e-10	2.168324e+01	6.096304e+01
2.560000e-06	3.161228e-06	8.826213e-10	2.194955e+01	6.151797e+01
2.570000e-06	3.199317e-06	8.887857e-10	2.221402e+01	6.206199e+01
2.580000e-06	3.237243e-06	8.937447e-10	2.247735e+01	6.259526e+01
2.590000e-06	3.275002e-06	8.987034e-10	2.273953e+01	6.311797e+01
2.600000e-06	3.312559e-06	9.059175e-10	2.300030e+01	6.363024e+01
2.610000e-06	3.349900e-06	9.151148e-10	2.325956e+01	6.413217e+01
2.620000e-06	3.387047e-06	9.252288e-10	2.351749e+01	6.462385e+01
2.630000e-06	3.423993e-06	9.346010e-10	2.377403e+01	6.510533e+01
2.640000e-06	3.460658e-06	9.404069e-10	2.402860e+01	6.557666e+01
2.650000e-06	3.496994e-06	9.446915e-10	2.428090e+01	6.603785e+01
2.660000e-06	3.533063e-06	9.484279e-10	2.453133e+01	6.648893e+01
2.670000e-06	3.568933e-06	9.517595e-10	2.478039e+01	6.692988e+01
2.680000e-06	3.604634e-06	9.570020e-10	2.502828e+01	6.736071e+01
2.690000e-06	3.640227e-06	9.664770e-10	2.527541e+01	6.778140e+01
2.700000e-06	3.675782e-06	9.781903e-10	2.552228e+01	6.819194e+01
2.710000e-06	3.711174e-06	9.883223e-10	2.576803e+01	6.859232e+01
2.720000e-06	3.746281e-06	9.995168e-10	2.601178e+01	6.898253e+01
2.730000e-06	3.781107e-06	1.008856e-09	2.625360e+01	6.936259e+01
2.740000e-06	3.815553e-06	1.013243e-09	2.649277e+01	6.973251e+01
2.750000e-06	3.849498e-06	1.014602e-09	2.672846e+01	7.009232e+01
2.760000e-06	3.882898e-06	1.015744e-09	2.696036e+01	7.044207e+01
2.770000e-06	3.915840e-06	1.018990e-09	2.718909e+01	7.078182e+01
2.780000e-06	3.948450e-06	1.026180e-09	2.741552e+01	7.111164e+01
2.790000e-06	3.980677e-06	1.035929e-09	2.763928e+01	7.143165e+01
2.800000e-06	4.012619e-06	1.045866e-09	2.786106e+01	7.174198e+01
2.810000e-06	4.044377e-06	1.055397e-09	2.808157e+01	7.204276e+01
2.820000e-06	4.075980e-06	1.061589e-09	2.830101e+01	7.233417e+01
2.830000e-06	4.107511e-06	1.063815e-09	2.851993e+01	7.261640e+01
2.840000e-06	4.138849e-06	1.063805e-09	2.873752e+01	7.288966e+01
2.850000e-06	4.169875e-06	1.066053e-09	2.895295e+01	7.315421e+01
2.860000e-06	4.200471e-06	1.072644e-09	2.916539e+01	7.341028e+01
2.870000e-06	4.230635e-06	1.077700e-09	2.937483e+01	7.365817e+01
2.880000e-06	4.260558e-06	1.082096e-09	2.958260e+01	7.389816e+01
2.890000e-06	4.290263e-06	1.087755e-09	2.978885e+01	7.413057e+01
2.900000e-06	4.319793e-06	1.092461e-09	2.999389e+01	7.435572e+01
