# Temperatura_=_-28.18
# Concentracion g/m^3_=_1620.0
# C_Vs_to_Am_M_A/Vsm_=_65563218390.804596
# pendiente_HvsI_1/m_=_3716.3
# ordenada_HvsI_A/m_=_1297.0
# frecuencia_Hz_=_135097.04410273235

Tiempo_(s)	Campo_(V.s)	Magnetizacion_(V.s)	Campo_(kA/m)	Magnetizacion_(A/m)
0.000000e+00	-5.546566e-06	-9.965134e-10	-3.838161e+01	-6.621766e+01
1.000000e-08	-5.546700e-06	-9.974881e-10	-3.838254e+01	-6.621838e+01
2.000000e-08	-5.546520e-06	-1.001366e-09	-3.838129e+01	-6.621624e+01
3.000000e-08	-5.545837e-06	-1.003441e-09	-3.837657e+01	-6.621135e+01
4.000000e-08	-5.544493e-06	-1.001285e-09	-3.836727e+01	-6.620382e+01
5.000000e-08	-5.542614e-06	-9.958792e-10	-3.835426e+01	-6.619376e+01
6.000000e-08	-5.540243e-06	-9.847213e-10	-3.833786e+01	-6.618130e+01
7.000000e-08	-5.537367e-06	-9.720290e-10	-3.831796e+01	-6.616657e+01
8.000000e-08	-5.533996e-06	-9.986233e-10	-3.829463e+01	-6.614971e+01
9.000000e-08	-5.530142e-06	-1.044278e-09	-3.826796e+01	-6.613086e+01
1.000000e-07	-5.525859e-06	-1.020138e-09	-3.823832e+01	-6.611017e+01
1.100000e-07	-5.521272e-06	-9.658913e-10	-3.820658e+01	-6.608778e+01
1.200000e-07	-5.516554e-06	-9.490632e-10	-3.817393e+01	-6.606384e+01
1.300000e-07	-5.511521e-06	-1.002823e-09	-3.813911e+01	-6.603850e+01
1.400000e-07	-5.506071e-06	-9.994514e-10	-3.810139e+01	-6.601190e+01
1.500000e-07	-5.500236e-06	-9.289455e-10	-3.806102e+01	-6.598417e+01
1.600000e-07	-5.494119e-06	-9.435862e-10	-3.801868e+01	-6.595547e+01
1.700000e-07	-5.487639e-06	-1.006937e-09	-3.797384e+01	-6.592591e+01
1.800000e-07	-5.480665e-06	-1.056345e-09	-3.792559e+01	-6.589562e+01
1.900000e-07	-5.473297e-06	-9.993344e-10	-3.787460e+01	-6.586471e+01
2.000000e-07	-5.465651e-06	-9.760649e-10	-3.782169e+01	-6.583328e+01
2.100000e-07	-5.457722e-06	-9.865600e-10	-3.776682e+01	-6.580143e+01
2.200000e-07	-5.449576e-06	-1.019652e-09	-3.771045e+01	-6.576924e+01
2.300000e-07	-5.441126e-06	-1.006939e-09	-3.765198e+01	-6.573677e+01
2.400000e-07	-5.432166e-06	-1.008990e-09	-3.758998e+01	-6.570409e+01
2.500000e-07	-5.422469e-06	-1.024555e-09	-3.752288e+01	-6.567124e+01
2.600000e-07	-5.411960e-06	-1.039327e-09	-3.745015e+01	-6.563823e+01
2.700000e-07	-5.400911e-06	-1.011839e-09	-3.737370e+01	-6.560509e+01
2.800000e-07	-5.389407e-06	-9.885636e-10	-3.729409e+01	-6.557182e+01
2.900000e-07	-5.377583e-06	-1.007784e-09	-3.721227e+01	-6.553839e+01
3.000000e-07	-5.365468e-06	-1.012741e-09	-3.712843e+01	-6.550478e+01
3.100000e-07	-5.352913e-06	-9.953861e-10	-3.704156e+01	-6.547093e+01
3.200000e-07	-5.339896e-06	-9.809583e-10	-3.695148e+01	-6.543679e+01
3.300000e-07	-5.326549e-06	-1.018122e-09	-3.685912e+01	-6.540228e+01
3.400000e-07	-5.312889e-06	-1.014282e-09	-3.676459e+01	-6.536731e+01
3.500000e-07	-5.298720e-06	-9.860482e-10	-3.666655e+01	-6.533178e+01
3.600000e-07	-5.283942e-06	-9.765919e-10	-3.656428e+01	-6.529556e+01
3.700000e-07	-5.268577e-06	-1.001592e-09	-3.645796e+01	-6.525853e+01
3.800000e-07	-5.252611e-06	-9.827414e-10	-3.634747e+01	-6.522056e+01
3.900000e-07	-5.236247e-06	-9.839191e-10	-3.623424e+01	-6.518148e+01
4.000000e-07	-5.219602e-06	-1.009898e-09	-3.611906e+01	-6.514115e+01
4.100000e-07	-5.202559e-06	-9.992258e-10	-3.600113e+01	-6.509938e+01
4.200000e-07	-5.185119e-06	-9.528498e-10	-3.588044e+01	-6.505602e+01
4.300000e-07	-5.167466e-06	-9.839737e-10	-3.575828e+01	-6.501088e+01
4.400000e-07	-5.149565e-06	-1.006374e-09	-3.563441e+01	-6.496378e+01
4.500000e-07	-5.131178e-06	-9.720345e-10	-3.550718e+01	-6.491453e+01
4.600000e-07	-5.112408e-06	-9.628202e-10	-3.537729e+01	-6.486295e+01
4.700000e-07	-5.093360e-06	-1.002336e-09	-3.524548e+01	-6.480885e+01
4.800000e-07	-5.073981e-06	-9.750889e-10	-3.511138e+01	-6.475204e+01
4.900000e-07	-5.054390e-06	-9.535040e-10	-3.497581e+01	-6.469235e+01
5.000000e-07	-5.034650e-06	-9.853891e-10	-3.483921e+01	-6.462959e+01
5.100000e-07	-5.014649e-06	-9.809269e-10	-3.470080e+01	-6.456360e+01
5.200000e-07	-4.994262e-06	-9.377953e-10	-3.455973e+01	-6.449421e+01
5.300000e-07	-4.973395e-06	-9.670511e-10	-3.441533e+01	-6.442127e+01
5.400000e-07	-4.952097e-06	-9.971758e-10	-3.426796e+01	-6.434463e+01
5.500000e-07	-4.930455e-06	-9.610674e-10	-3.411820e+01	-6.426417e+01
5.600000e-07	-4.908522e-06	-9.477521e-10	-3.396642e+01	-6.417975e+01
5.700000e-07	-4.886369e-06	-9.698435e-10	-3.381312e+01	-6.409127e+01
5.800000e-07	-4.863958e-06	-9.498277e-10	-3.365804e+01	-6.399864e+01
5.900000e-07	-4.841152e-06	-9.299654e-10	-3.350023e+01	-6.390178e+01
6.000000e-07	-4.818022e-06	-9.530921e-10	-3.334017e+01	-6.380062e+01
6.100000e-07	-4.794598e-06	-9.530516e-10	-3.317808e+01	-6.369513e+01
6.200000e-07	-4.770870e-06	-9.344829e-10	-3.301389e+01	-6.358527e+01
6.300000e-07	-4.746937e-06	-9.375911e-10	-3.284827e+01	-6.347102e+01
6.400000e-07	-4.722695e-06	-9.434080e-10	-3.268052e+01	-6.335240e+01
6.500000e-07	-4.697840e-06	-9.272402e-10	-3.250852e+01	-6.322943e+01
6.600000e-07	-4.672434e-06	-9.313388e-10	-3.233272e+01	-6.310214e+01
6.700000e-07	-4.646581e-06	-9.338294e-10	-3.215382e+01	-6.297060e+01
6.800000e-07	-4.620198e-06	-9.234153e-10	-3.197125e+01	-6.283487e+01
6.900000e-07	-4.593395e-06	-9.156796e-10	-3.178578e+01	-6.269504e+01
7.000000e-07	-4.566270e-06	-9.237553e-10	-3.159807e+01	-6.255121e+01
7.100000e-07	-4.538892e-06	-9.176091e-10	-3.140862e+01	-6.240351e+01
7.200000e-07	-4.511320e-06	-9.121706e-10	-3.121783e+01	-6.225206e+01
7.300000e-07	-4.483548e-06	-9.080910e-10	-3.102565e+01	-6.209701e+01
7.400000e-07	-4.455471e-06	-9.107312e-10	-3.083136e+01	-6.193850e+01
7.500000e-07	-4.427064e-06	-9.094617e-10	-3.063478e+01	-6.177671e+01
7.600000e-07	-4.398412e-06	-9.095822e-10	-3.043652e+01	-6.161179e+01
7.700000e-07	-4.369557e-06	-9.051566e-10	-3.023684e+01	-6.144394e+01
7.800000e-07	-4.340380e-06	-9.018476e-10	-3.003494e+01	-6.127332e+01
7.900000e-07	-4.310779e-06	-8.983785e-10	-2.983011e+01	-6.110012e+01
8.000000e-07	-4.280830e-06	-8.978129e-10	-2.962286e+01	-6.092453e+01
8.100000e-07	-4.250605e-06	-8.930814e-10	-2.941371e+01	-6.074673e+01
8.200000e-07	-4.220180e-06	-8.929217e-10	-2.920317e+01	-6.056690e+01
8.300000e-07	-4.189450e-06	-8.919774e-10	-2.899052e+01	-6.038523e+01
8.400000e-07	-4.158340e-06	-8.886550e-10	-2.877524e+01	-6.020188e+01
8.500000e-07	-4.126960e-06	-8.821848e-10	-2.855810e+01	-6.001702e+01
8.600000e-07	-4.095439e-06	-8.788313e-10	-2.833998e+01	-5.983079e+01
8.700000e-07	-4.063806e-06	-8.810380e-10	-2.812108e+01	-5.964335e+01
8.800000e-07	-4.032011e-06	-8.815090e-10	-2.790106e+01	-5.945482e+01
8.900000e-07	-4.000051e-06	-8.843776e-10	-2.767990e+01	-5.926532e+01
9.000000e-07	-3.967793e-06	-8.786947e-10	-2.745668e+01	-5.907494e+01
9.100000e-07	-3.935136e-06	-8.671204e-10	-2.723070e+01	-5.888377e+01
9.200000e-07	-3.902054e-06	-8.564458e-10	-2.700178e+01	-5.869187e+01
9.300000e-07	-3.868466e-06	-8.555754e-10	-2.676935e+01	-5.849928e+01
9.400000e-07	-3.834325e-06	-8.554429e-10	-2.653310e+01	-5.830602e+01
9.500000e-07	-3.799766e-06	-8.610672e-10	-2.629395e+01	-5.811210e+01
9.600000e-07	-3.764846e-06	-8.672374e-10	-2.605231e+01	-5.791750e+01
9.700000e-07	-3.729628e-06	-8.685519e-10	-2.580861e+01	-5.772216e+01
9.800000e-07	-3.694186e-06	-8.586546e-10	-2.556335e+01	-5.752602e+01
9.900000e-07	-3.658567e-06	-8.502865e-10	-2.531687e+01	-5.732900e+01
1.000000e-06	-3.622865e-06	-8.413488e-10	-2.506982e+01	-5.713098e+01
1.010000e-06	-3.587001e-06	-8.338018e-10	-2.482164e+01	-5.693183e+01
1.020000e-06	-3.551008e-06	-8.327591e-10	-2.457258e+01	-5.673139e+01
1.030000e-06	-3.514864e-06	-8.401687e-10	-2.432246e+01	-5.652947e+01
1.040000e-06	-3.478405e-06	-8.426621e-10	-2.407017e+01	-5.632590e+01
1.050000e-06	-3.441567e-06	-8.403963e-10	-2.381525e+01	-5.612044e+01
1.060000e-06	-3.404395e-06	-8.342300e-10	-2.355803e+01	-5.591286e+01
1.070000e-06	-3.366967e-06	-8.247910e-10	-2.329903e+01	-5.570290e+01
1.080000e-06	-3.329361e-06	-8.127908e-10	-2.303880e+01	-5.549031e+01
1.090000e-06	-3.291636e-06	-8.071763e-10	-2.277775e+01	-5.527479e+01
1.100000e-06	-3.253684e-06	-8.045402e-10	-2.251513e+01	-5.505606e+01
1.110000e-06	-3.215471e-06	-7.993681e-10	-2.225070e+01	-5.483381e+01
1.120000e-06	-3.177052e-06	-7.977445e-10	-2.198484e+01	-5.460773e+01
1.130000e-06	-3.138381e-06	-7.990953e-10	-2.171724e+01	-5.437749e+01
1.140000e-06	-3.099471e-06	-7.961699e-10	-2.144799e+01	-5.414278e+01
1.150000e-06	-3.060337e-06	-7.880198e-10	-2.117719e+01	-5.390327e+01
1.160000e-06	-3.021054e-06	-7.814243e-10	-2.090535e+01	-5.365865e+01
1.170000e-06	-2.981644e-06	-7.750788e-10	-2.063264e+01	-5.340857e+01
1.180000e-06	-2.942051e-06	-7.689522e-10	-2.035866e+01	-5.315273e+01
1.190000e-06	-2.902372e-06	-7.646703e-10	-2.008409e+01	-5.289082e+01
1.200000e-06	-2.862580e-06	-7.630169e-10	-1.980873e+01	-5.262253e+01
1.210000e-06	-2.822623e-06	-7.586016e-10	-1.953224e+01	-5.234757e+01
1.220000e-06	-2.782504e-06	-7.553438e-10	-1.925461e+01	-5.206566e+01
1.230000e-06	-2.742148e-06	-7.527091e-10	-1.897536e+01	-5.177653e+01
1.240000e-06	-2.701514e-06	-7.464739e-10	-1.869418e+01	-5.147992e+01
1.250000e-06	-2.660655e-06	-7.370441e-10	-1.841144e+01	-5.117562e+01
1.260000e-06	-2.619554e-06	-7.325041e-10	-1.812702e+01	-5.086339e+01
1.270000e-06	-2.578211e-06	-7.307707e-10	-1.784093e+01	-5.054304e+01
1.280000e-06	-2.536529e-06	-7.276596e-10	-1.755250e+01	-5.021439e+01
1.290000e-06	-2.494442e-06	-7.214792e-10	-1.726126e+01	-4.987729e+01
1.300000e-06	-2.452091e-06	-7.156571e-10	-1.696819e+01	-4.953160e+01
1.310000e-06	-2.409440e-06	-7.084971e-10	-1.667305e+01	-4.917721e+01
1.320000e-06	-2.366446e-06	-7.004038e-10	-1.637554e+01	-4.881402e+01
1.330000e-06	-2.323278e-06	-6.953341e-10	-1.607682e+01	-4.844197e+01
1.340000e-06	-2.279974e-06	-6.927577e-10	-1.577716e+01	-4.806100e+01
1.350000e-06	-2.236505e-06	-6.873901e-10	-1.547637e+01	-4.767109e+01
1.360000e-06	-2.192974e-06	-6.798583e-10	-1.517514e+01	-4.727222e+01
1.370000e-06	-2.149386e-06	-6.752140e-10	-1.487351e+01	-4.686442e+01
1.380000e-06	-2.105708e-06	-6.719804e-10	-1.457126e+01	-4.644769e+01
1.390000e-06	-2.061909e-06	-6.645740e-10	-1.426818e+01	-4.602210e+01
1.400000e-06	-2.018013e-06	-6.574462e-10	-1.396442e+01	-4.558770e+01
1.410000e-06	-1.974075e-06	-6.464366e-10	-1.366038e+01	-4.514456e+01
1.420000e-06	-1.930038e-06	-6.355841e-10	-1.335565e+01	-4.469276e+01
1.430000e-06	-1.885840e-06	-6.290902e-10	-1.304980e+01	-4.423240e+01
1.440000e-06	-1.841558e-06	-6.262003e-10	-1.274337e+01	-4.376358e+01
1.450000e-06	-1.797171e-06	-6.221694e-10	-1.243622e+01	-4.328641e+01
1.460000e-06	-1.752540e-06	-6.167478e-10	-1.212738e+01	-4.280099e+01
1.470000e-06	-1.707767e-06	-6.099083e-10	-1.181756e+01	-4.230744e+01
1.480000e-06	-1.662902e-06	-6.011100e-10	-1.150709e+01	-4.180587e+01
1.490000e-06	-1.617861e-06	-5.922922e-10	-1.119542e+01	-4.129637e+01
1.500000e-06	-1.572764e-06	-5.845003e-10	-1.088335e+01	-4.077906e+01
1.510000e-06	-1.527590e-06	-5.773767e-10	-1.057075e+01	-4.025402e+01
1.520000e-06	-1.482189e-06	-5.689960e-10	-1.025658e+01	-3.972134e+01
1.530000e-06	-1.436687e-06	-5.629766e-10	-9.941710e+00	-3.918109e+01
1.540000e-06	-1.391145e-06	-5.563850e-10	-9.626565e+00	-3.863332e+01
1.550000e-06	-1.345456e-06	-5.490901e-10	-9.310401e+00	-3.807808e+01
1.560000e-06	-1.299657e-06	-5.406847e-10	-8.993479e+00	-3.751540e+01
1.570000e-06	-1.253824e-06	-5.336502e-10	-8.676324e+00	-3.694528e+01
1.580000e-06	-1.207929e-06	-5.274128e-10	-8.358736e+00	-3.636772e+01
1.590000e-06	-1.161888e-06	-5.192033e-10	-8.040136e+00	-3.578267e+01
1.600000e-06	-1.115695e-06	-5.089575e-10	-7.720487e+00	-3.519009e+01
1.610000e-06	-1.069462e-06	-4.982017e-10	-7.400557e+00	-3.458990e+01
1.620000e-06	-1.023212e-06	-4.880139e-10	-7.080513e+00	-3.398202e+01
1.630000e-06	-9.768421e-07	-4.810360e-10	-6.759638e+00	-3.336633e+01
1.640000e-06	-9.304370e-07	-4.724852e-10	-6.438519e+00	-3.274268e+01
1.650000e-06	-8.839500e-07	-4.654850e-10	-6.116835e+00	-3.211093e+01
1.660000e-06	-8.373805e-07	-4.565091e-10	-5.794579e+00	-3.147089e+01
1.670000e-06	-7.907843e-07	-4.449375e-10	-5.472139e+00	-3.082238e+01
1.680000e-06	-7.442017e-07	-4.308811e-10	-5.149792e+00	-3.016519e+01
1.690000e-06	-6.975959e-07	-4.196066e-10	-4.827285e+00	-2.949908e+01
1.700000e-06	-6.508768e-07	-4.112331e-10	-4.503994e+00	-2.882383e+01
1.710000e-06	-6.041077e-07	-4.005738e-10	-4.180357e+00	-2.813917e+01
1.720000e-06	-5.571705e-07	-3.900495e-10	-3.855557e+00	-2.744486e+01
1.730000e-06	-5.101597e-07	-3.770862e-10	-3.530248e+00	-2.674062e+01
1.740000e-06	-4.631561e-07	-3.637301e-10	-3.204988e+00	-2.602620e+01
1.750000e-06	-4.160762e-07	-3.516781e-10	-2.879200e+00	-2.530131e+01
1.760000e-06	-3.690954e-07	-3.402021e-10	-2.554099e+00	-2.456571e+01
1.770000e-06	-3.221337e-07	-3.309194e-10	-2.229129e+00	-2.381911e+01
1.780000e-06	-2.750167e-07	-3.240435e-10	-1.903084e+00	-2.306128e+01
1.790000e-06	-2.278745e-07	-3.140251e-10	-1.576866e+00	-2.229198e+01
1.800000e-06	-1.807779e-07	-3.021768e-10	-1.250963e+00	-2.151097e+01
1.810000e-06	-1.337343e-07	-2.868783e-10	-9.254261e-01	-2.071805e+01
1.820000e-06	-8.662990e-08	-2.696693e-10	-5.994692e-01	-1.991304e+01
1.830000e-06	-3.939533e-08	-2.523092e-10	-2.726112e-01	-1.909577e+01
1.840000e-06	7.842105e-09	-2.351167e-10	5.426649e-02	-1.826612e+01
1.850000e-06	5.503774e-08	-2.240280e-10	3.808550e-01	-1.742398e+01
1.860000e-06	1.022116e-07	-2.167524e-10	7.072930e-01	-1.656928e+01
1.870000e-06	1.493134e-07	-2.087290e-10	1.033232e+00	-1.570200e+01
1.880000e-06	1.964007e-07	-1.969932e-10	1.359071e+00	-1.482212e+01
1.890000e-06	2.434428e-07	-1.814612e-10	1.684597e+00	-1.392971e+01
1.900000e-06	2.904383e-07	-1.648109e-10	2.009800e+00	-1.302485e+01
1.910000e-06	3.374563e-07	-1.467106e-10	2.335159e+00	-1.210768e+01
1.920000e-06	3.843873e-07	-1.321014e-10	2.659917e+00	-1.117836e+01
1.930000e-06	4.312648e-07	-1.209512e-10	2.984304e+00	-1.023714e+01
1.940000e-06	4.781770e-07	-1.126259e-10	3.308931e+00	-9.284275e+00
1.950000e-06	5.249972e-07	-1.049237e-10	3.632922e+00	-8.320091e+00
1.960000e-06	5.717088e-07	-9.571361e-11	3.956161e+00	-7.344956e+00
1.970000e-06	6.184053e-07	-8.497594e-11	4.279295e+00	-6.359287e+00
1.980000e-06	6.650803e-07	-7.095357e-11	4.602281e+00	-5.363547e+00
1.990000e-06	7.117349e-07	-5.521749e-11	4.925125e+00	-4.358245e+00
2.000000e-06	7.583661e-07	-3.763904e-11	5.247808e+00	-3.343935e+00
2.010000e-06	8.049045e-07	-2.060614e-11	5.569849e+00	-2.321216e+00
2.020000e-06	8.514482e-07	-6.401167e-12	5.891926e+00	-1.290727e+00
2.030000e-06	8.979129e-07	6.790232e-12	6.213457e+00	-2.531473e-01
2.040000e-06	9.442345e-07	1.864712e-11	6.533997e+00	7.908085e-01
2.050000e-06	9.905028e-07	3.017040e-11	6.854168e+00	1.840390e+00
2.060000e-06	1.036618e-06	4.240118e-11	7.173283e+00	2.894817e+00
2.070000e-06	1.082528e-06	5.725422e-11	7.490974e+00	3.953281e+00
2.080000e-06	1.128423e-06	7.478551e-11	7.808561e+00	5.014948e+00
2.090000e-06	1.174335e-06	9.387609e-11	8.126267e+00	6.078966e+00
2.100000e-06	1.220133e-06	1.131436e-10	8.443183e+00	7.144464e+00
2.110000e-06	1.265876e-06	1.286604e-10	8.759720e+00	8.210559e+00
2.120000e-06	1.311596e-06	1.411641e-10	9.076096e+00	9.276358e+00
2.130000e-06	1.357212e-06	1.504318e-10	9.391752e+00	1.034097e+01
2.140000e-06	1.402684e-06	1.587426e-10	9.706414e+00	1.140348e+01
2.150000e-06	1.448062e-06	1.697066e-10	1.002043e+01	1.246302e+01
2.160000e-06	1.493305e-06	1.854534e-10	1.033351e+01	1.351868e+01
2.170000e-06	1.538404e-06	2.036341e-10	1.064558e+01	1.456960e+01
2.180000e-06	1.583461e-06	2.202203e-10	1.095737e+01	1.561492e+01
2.190000e-06	1.628511e-06	2.343728e-10	1.126912e+01	1.665379e+01
2.200000e-06	1.673406e-06	2.471707e-10	1.157978e+01	1.768541e+01
2.210000e-06	1.718119e-06	2.606115e-10	1.188919e+01	1.870898e+01
2.220000e-06	1.762695e-06	2.749071e-10	1.219765e+01	1.972374e+01
2.230000e-06	1.807098e-06	2.877057e-10	1.250491e+01	2.072897e+01
2.240000e-06	1.851412e-06	3.001433e-10	1.281157e+01	2.172398e+01
2.250000e-06	1.895607e-06	3.129269e-10	1.311739e+01	2.270812e+01
2.260000e-06	1.939558e-06	3.259799e-10	1.342152e+01	2.368078e+01
2.270000e-06	1.983386e-06	3.388230e-10	1.372481e+01	2.464138e+01
2.280000e-06	2.027219e-06	3.519306e-10	1.402813e+01	2.558942e+01
2.290000e-06	2.070998e-06	3.636673e-10	1.433107e+01	2.652442e+01
2.300000e-06	2.114678e-06	3.742567e-10	1.463333e+01	2.744594e+01
2.310000e-06	2.158287e-06	3.864144e-10	1.493510e+01	2.835361e+01
2.320000e-06	2.201832e-06	3.984089e-10	1.523643e+01	2.924709e+01
2.330000e-06	2.245372e-06	4.089833e-10	1.553772e+01	3.012611e+01
2.340000e-06	2.288828e-06	4.200788e-10	1.583844e+01	3.099043e+01
2.350000e-06	2.332144e-06	4.322785e-10	1.613817e+01	3.183985e+01
2.360000e-06	2.375361e-06	4.441003e-10	1.643723e+01	3.267425e+01
2.370000e-06	2.418348e-06	4.543590e-10	1.673469e+01	3.349352e+01
2.380000e-06	2.461039e-06	4.650295e-10	1.703011e+01	3.429762e+01
2.390000e-06	2.503426e-06	4.781327e-10	1.732343e+01	3.508653e+01
2.400000e-06	2.545483e-06	4.903312e-10	1.761446e+01	3.586028e+01
2.410000e-06	2.587227e-06	5.019356e-10	1.790332e+01	3.661896e+01
2.420000e-06	2.628651e-06	5.137028e-10	1.818997e+01	3.736265e+01
2.430000e-06	2.669799e-06	5.260221e-10	1.847471e+01	3.809151e+01
2.440000e-06	2.710638e-06	5.382783e-10	1.875731e+01	3.880570e+01
2.450000e-06	2.751098e-06	5.489951e-10	1.903729e+01	3.950540e+01
2.460000e-06	2.791271e-06	5.585261e-10	1.931528e+01	4.019086e+01
2.470000e-06	2.831253e-06	5.680916e-10	1.959195e+01	4.086229e+01
2.480000e-06	2.871078e-06	5.771659e-10	1.986754e+01	4.151997e+01
2.490000e-06	2.910763e-06	5.862930e-10	2.014216e+01	4.216417e+01
2.500000e-06	2.950344e-06	5.967344e-10	2.041605e+01	4.279518e+01
2.510000e-06	2.989803e-06	6.075038e-10	2.068910e+01	4.341328e+01
2.520000e-06	3.029132e-06	6.173738e-10	2.096126e+01	4.401878e+01
2.530000e-06	3.068355e-06	6.262595e-10	2.123267e+01	4.461199e+01
2.540000e-06	3.107414e-06	6.334616e-10	2.150295e+01	4.519319e+01
2.550000e-06	3.146212e-06	6.391800e-10	2.177144e+01	4.576271e+01
2.560000e-06	3.184776e-06	6.466056e-10	2.203829e+01	4.632081e+01
2.570000e-06	3.223077e-06	6.542042e-10	2.230333e+01	4.686781e+01
2.580000e-06	3.261133e-06	6.605292e-10	2.256667e+01	4.740396e+01
2.590000e-06	3.298973e-06	6.684143e-10	2.282852e+01	4.792954e+01
2.600000e-06	3.336594e-06	6.780458e-10	2.308885e+01	4.844480e+01
2.610000e-06	3.374053e-06	6.873292e-10	2.334807e+01	4.894996e+01
2.620000e-06	3.411257e-06	6.951177e-10	2.360551e+01	4.944526e+01
2.630000e-06	3.448194e-06	7.011397e-10	2.386112e+01	4.993088e+01
2.640000e-06	3.484945e-06	7.058384e-10	2.411543e+01	5.040702e+01
2.650000e-06	3.521442e-06	7.112313e-10	2.436798e+01	5.087383e+01
2.660000e-06	3.557606e-06	7.187436e-10	2.461823e+01	5.133146e+01
2.670000e-06	3.593556e-06	7.255832e-10	2.486700e+01	5.178003e+01
2.680000e-06	3.629358e-06	7.303260e-10	2.511475e+01	5.221965e+01
2.690000e-06	3.664964e-06	7.362772e-10	2.536114e+01	5.265041e+01
2.700000e-06	3.700408e-06	7.432770e-10	2.560641e+01	5.307236e+01
2.710000e-06	3.735788e-06	7.489290e-10	2.585123e+01	5.348558e+01
2.720000e-06	3.771017e-06	7.565121e-10	2.609501e+01	5.389008e+01
2.730000e-06	3.805936e-06	7.647693e-10	2.633665e+01	5.428589e+01
2.740000e-06	3.840415e-06	7.704704e-10	2.657524e+01	5.467302e+01
2.750000e-06	3.874486e-06	7.737573e-10	2.681101e+01	5.505146e+01
2.760000e-06	3.908081e-06	7.763021e-10	2.704348e+01	5.542119e+01
2.770000e-06	3.941084e-06	7.796738e-10	2.727186e+01	5.578219e+01
2.780000e-06	3.973641e-06	7.844116e-10	2.749715e+01	5.613443e+01
2.790000e-06	4.005873e-06	7.908441e-10	2.772019e+01	5.647787e+01
2.800000e-06	4.037787e-06	7.979253e-10	2.794103e+01	5.681247e+01
2.810000e-06	4.069516e-06	8.035929e-10	2.816060e+01	5.713819e+01
2.820000e-06	4.101163e-06	8.076147e-10	2.837958e+01	5.745500e+01
2.830000e-06	4.132637e-06	8.099438e-10	2.859739e+01	5.776285e+01
2.840000e-06	4.163914e-06	8.105117e-10	2.881382e+01	5.806172e+01
2.850000e-06	4.194946e-06	8.147740e-10	2.902856e+01	5.835159e+01
2.860000e-06	4.225704e-06	8.209146e-10	2.924140e+01	5.863244e+01
2.870000e-06	4.256034e-06	8.242119e-10	2.945128e+01	5.890427e+01
2.880000e-06	4.285941e-06	8.281055e-10	2.965823e+01	5.916707e+01
2.890000e-06	4.315616e-06	8.329448e-10	2.986358e+01	5.942089e+01
2.900000e-06	4.345087e-06	8.371286e-10	3.006751e+01	5.966574e+01
