# Temperatura_=_9.5
# Concentracion g/m^3_=_1620.0
# C_Vs_to_Am_M_A/Vsm_=_65563218390.804596
# pendiente_HvsI_1/m_=_3716.3
# ordenada_HvsI_A/m_=_1297.0
# frecuencia_Hz_=_135103.2670532695

Tiempo_(s)	Campo_(V.s)	Magnetizacion_(V.s)	Campo_(kA/m)	Magnetizacion_(A/m)
0.000000e+00	-5.516650e-06	-8.039928e-10	-3.837229e+01	-5.322375e+01
1.000000e-08	-5.516765e-06	-8.038487e-10	-3.837309e+01	-5.325739e+01
2.000000e-08	-5.516553e-06	-8.042989e-10	-3.837162e+01	-5.328999e+01
3.000000e-08	-5.515925e-06	-8.039063e-10	-3.836724e+01	-5.332130e+01
4.000000e-08	-5.514753e-06	-8.017184e-10	-3.835909e+01	-5.335109e+01
5.000000e-08	-5.512963e-06	-8.002753e-10	-3.834665e+01	-5.337916e+01
6.000000e-08	-5.510619e-06	-7.897226e-10	-3.833034e+01	-5.340527e+01
7.000000e-08	-5.507758e-06	-7.921704e-10	-3.831044e+01	-5.342921e+01
8.000000e-08	-5.504389e-06	-8.096991e-10	-3.828700e+01	-5.345078e+01
9.000000e-08	-5.500533e-06	-8.124328e-10	-3.826019e+01	-5.346978e+01
1.000000e-07	-5.496359e-06	-7.884895e-10	-3.823115e+01	-5.348605e+01
1.100000e-07	-5.492029e-06	-8.023959e-10	-3.820103e+01	-5.349940e+01
1.200000e-07	-5.487436e-06	-7.586313e-10	-3.816908e+01	-5.350970e+01
1.300000e-07	-5.482490e-06	-8.035540e-10	-3.813468e+01	-5.351681e+01
1.400000e-07	-5.477119e-06	-7.625930e-10	-3.809732e+01	-5.352062e+01
1.500000e-07	-5.471327e-06	-7.884684e-10	-3.805703e+01	-5.352104e+01
1.600000e-07	-5.465169e-06	-7.609113e-10	-3.801420e+01	-5.351800e+01
1.700000e-07	-5.458570e-06	-7.782593e-10	-3.796830e+01	-5.351144e+01
1.800000e-07	-5.451545e-06	-8.048307e-10	-3.791944e+01	-5.350133e+01
1.900000e-07	-5.444204e-06	-8.045395e-10	-3.786837e+01	-5.348767e+01
2.000000e-07	-5.436607e-06	-8.379210e-10	-3.781553e+01	-5.347045e+01
2.100000e-07	-5.428764e-06	-8.348711e-10	-3.776097e+01	-5.344970e+01
2.200000e-07	-5.420635e-06	-8.580747e-10	-3.770444e+01	-5.342548e+01
2.300000e-07	-5.412185e-06	-8.159043e-10	-3.764566e+01	-5.339784e+01
2.400000e-07	-5.403259e-06	-8.393420e-10	-3.758357e+01	-5.336685e+01
2.500000e-07	-5.393679e-06	-8.238869e-10	-3.751693e+01	-5.333260e+01
2.600000e-07	-5.383420e-06	-8.585988e-10	-3.744558e+01	-5.329520e+01
2.700000e-07	-5.372595e-06	-8.252681e-10	-3.737028e+01	-5.325476e+01
2.800000e-07	-5.361364e-06	-8.421466e-10	-3.729216e+01	-5.321140e+01
2.900000e-07	-5.349636e-06	-8.117486e-10	-3.721059e+01	-5.316524e+01
3.000000e-07	-5.337430e-06	-8.301452e-10	-3.712569e+01	-5.311641e+01
3.100000e-07	-5.324840e-06	-8.066901e-10	-3.703811e+01	-5.306504e+01
3.200000e-07	-5.311844e-06	-8.281148e-10	-3.694771e+01	-5.301125e+01
3.300000e-07	-5.298468e-06	-8.074103e-10	-3.685468e+01	-5.295518e+01
3.400000e-07	-5.284762e-06	-8.090141e-10	-3.675934e+01	-5.289695e+01
3.500000e-07	-5.270625e-06	-8.045285e-10	-3.666100e+01	-5.283667e+01
3.600000e-07	-5.256054e-06	-8.177770e-10	-3.655965e+01	-5.277444e+01
3.700000e-07	-5.241014e-06	-8.004939e-10	-3.645504e+01	-5.271037e+01
3.800000e-07	-5.225431e-06	-8.086690e-10	-3.634665e+01	-5.264453e+01
3.900000e-07	-5.209401e-06	-8.240052e-10	-3.623515e+01	-5.257699e+01
4.000000e-07	-5.193030e-06	-8.091631e-10	-3.612128e+01	-5.250782e+01
4.100000e-07	-5.176340e-06	-8.043363e-10	-3.600519e+01	-5.243705e+01
4.200000e-07	-5.159299e-06	-8.167633e-10	-3.588665e+01	-5.236470e+01
4.300000e-07	-5.141959e-06	-8.212817e-10	-3.576604e+01	-5.229080e+01
4.400000e-07	-5.124200e-06	-7.922293e-10	-3.564252e+01	-5.221532e+01
4.500000e-07	-5.105936e-06	-8.209300e-10	-3.551547e+01	-5.213825e+01
4.600000e-07	-5.087300e-06	-8.143782e-10	-3.538585e+01	-5.205955e+01
4.700000e-07	-5.068300e-06	-7.948141e-10	-3.525369e+01	-5.197916e+01
4.800000e-07	-5.048916e-06	-7.910840e-10	-3.511886e+01	-5.189702e+01
4.900000e-07	-5.029322e-06	-8.271332e-10	-3.498257e+01	-5.181305e+01
5.000000e-07	-5.009576e-06	-7.834739e-10	-3.484522e+01	-5.172715e+01
5.100000e-07	-4.989566e-06	-7.875458e-10	-3.470604e+01	-5.163924e+01
5.200000e-07	-4.969198e-06	-8.116989e-10	-3.456436e+01	-5.154919e+01
5.300000e-07	-4.948409e-06	-8.100667e-10	-3.441976e+01	-5.145689e+01
5.400000e-07	-4.927227e-06	-7.703394e-10	-3.427242e+01	-5.136223e+01
5.500000e-07	-4.905787e-06	-8.067934e-10	-3.412330e+01	-5.126509e+01
5.600000e-07	-4.884088e-06	-7.969041e-10	-3.397236e+01	-5.116534e+01
5.700000e-07	-4.861977e-06	-7.702749e-10	-3.381856e+01	-5.106288e+01
5.800000e-07	-4.839446e-06	-7.751064e-10	-3.366185e+01	-5.095758e+01
5.900000e-07	-4.816632e-06	-7.983235e-10	-3.350316e+01	-5.084935e+01
6.000000e-07	-4.793566e-06	-7.639829e-10	-3.334272e+01	-5.073809e+01
6.100000e-07	-4.770246e-06	-7.730514e-10	-3.318051e+01	-5.062372e+01
6.200000e-07	-4.746618e-06	-7.868377e-10	-3.301616e+01	-5.050617e+01
6.300000e-07	-4.722682e-06	-7.660558e-10	-3.284967e+01	-5.038539e+01
6.400000e-07	-4.698473e-06	-7.518360e-10	-3.268128e+01	-5.026134e+01
6.500000e-07	-4.673905e-06	-7.739370e-10	-3.251039e+01	-5.013400e+01
6.600000e-07	-4.648878e-06	-7.664507e-10	-3.233631e+01	-5.000338e+01
6.700000e-07	-4.623405e-06	-7.555225e-10	-3.215912e+01	-4.986950e+01
6.800000e-07	-4.597488e-06	-7.698032e-10	-3.197885e+01	-4.973240e+01
6.900000e-07	-4.571022e-06	-7.657404e-10	-3.179476e+01	-4.959215e+01
7.000000e-07	-4.543981e-06	-7.536154e-10	-3.160667e+01	-4.944885e+01
7.100000e-07	-4.516563e-06	-7.600619e-10	-3.141596e+01	-4.930259e+01
7.200000e-07	-4.488966e-06	-7.661815e-10	-3.122401e+01	-4.915352e+01
7.300000e-07	-4.461216e-06	-7.501138e-10	-3.103098e+01	-4.900177e+01
7.400000e-07	-4.433262e-06	-7.570052e-10	-3.083654e+01	-4.884753e+01
7.500000e-07	-4.405084e-06	-7.553598e-10	-3.064054e+01	-4.869098e+01
7.600000e-07	-4.376681e-06	-7.469753e-10	-3.044298e+01	-4.853232e+01
7.700000e-07	-4.347945e-06	-7.385153e-10	-3.024310e+01	-4.837178e+01
7.800000e-07	-4.318803e-06	-7.452960e-10	-3.004040e+01	-4.820958e+01
7.900000e-07	-4.289332e-06	-7.308311e-10	-2.983540e+01	-4.804596e+01
8.000000e-07	-4.259640e-06	-7.316804e-10	-2.962888e+01	-4.788117e+01
8.100000e-07	-4.229778e-06	-7.337809e-10	-2.942116e+01	-4.771545e+01
8.200000e-07	-4.199576e-06	-7.368675e-10	-2.921109e+01	-4.754906e+01
8.300000e-07	-4.168946e-06	-7.242145e-10	-2.899803e+01	-4.738225e+01
8.400000e-07	-4.137998e-06	-7.294007e-10	-2.878277e+01	-4.721525e+01
8.500000e-07	-4.106824e-06	-7.230392e-10	-2.856593e+01	-4.704830e+01
8.600000e-07	-4.075459e-06	-7.163953e-10	-2.834776e+01	-4.688163e+01
8.700000e-07	-4.043898e-06	-7.116744e-10	-2.812823e+01	-4.671545e+01
8.800000e-07	-4.012196e-06	-7.184641e-10	-2.790772e+01	-4.654993e+01
8.900000e-07	-3.980324e-06	-7.085449e-10	-2.768603e+01	-4.638526e+01
9.000000e-07	-3.948217e-06	-7.041870e-10	-2.746270e+01	-4.622159e+01
9.100000e-07	-3.915782e-06	-7.028362e-10	-2.723710e+01	-4.605903e+01
9.200000e-07	-3.882958e-06	-6.998513e-10	-2.700878e+01	-4.589767e+01
9.300000e-07	-3.849663e-06	-6.918844e-10	-2.677719e+01	-4.573759e+01
9.400000e-07	-3.815841e-06	-6.944623e-10	-2.654193e+01	-4.557882e+01
9.500000e-07	-3.781586e-06	-6.947572e-10	-2.630367e+01	-4.542136e+01
9.600000e-07	-3.747010e-06	-6.896891e-10	-2.606317e+01	-4.526517e+01
9.700000e-07	-3.712063e-06	-6.895416e-10	-2.582008e+01	-4.511020e+01
9.800000e-07	-3.676726e-06	-6.870831e-10	-2.557428e+01	-4.495633e+01
9.900000e-07	-3.641207e-06	-6.800914e-10	-2.532723e+01	-4.480344e+01
1.000000e-06	-3.605563e-06	-6.751353e-10	-2.507930e+01	-4.465135e+01
1.010000e-06	-3.569745e-06	-6.787474e-10	-2.483016e+01	-4.449987e+01
1.020000e-06	-3.533756e-06	-6.768306e-10	-2.457983e+01	-4.434875e+01
1.030000e-06	-3.497616e-06	-6.774500e-10	-2.432845e+01	-4.419774e+01
1.040000e-06	-3.461224e-06	-6.773904e-10	-2.407532e+01	-4.404654e+01
1.050000e-06	-3.424566e-06	-6.739961e-10	-2.382033e+01	-4.389484e+01
1.060000e-06	-3.387672e-06	-6.607604e-10	-2.356371e+01	-4.374229e+01
1.070000e-06	-3.350538e-06	-6.573986e-10	-2.330541e+01	-4.358852e+01
1.080000e-06	-3.313214e-06	-6.536099e-10	-2.304580e+01	-4.343317e+01
1.090000e-06	-3.275650e-06	-6.521726e-10	-2.278451e+01	-4.327583e+01
1.100000e-06	-3.237781e-06	-6.471460e-10	-2.252110e+01	-4.311611e+01
1.110000e-06	-3.199628e-06	-6.459382e-10	-2.225572e+01	-4.295358e+01
1.120000e-06	-3.161273e-06	-6.371660e-10	-2.198894e+01	-4.278783e+01
1.130000e-06	-3.122723e-06	-6.324630e-10	-2.172079e+01	-4.261845e+01
1.140000e-06	-3.083965e-06	-6.283535e-10	-2.145120e+01	-4.244503e+01
1.150000e-06	-3.045089e-06	-6.264034e-10	-2.118079e+01	-4.226715e+01
1.160000e-06	-3.006072e-06	-6.204730e-10	-2.090941e+01	-4.208442e+01
1.170000e-06	-2.966750e-06	-6.202775e-10	-2.063589e+01	-4.189647e+01
1.180000e-06	-2.927228e-06	-6.182606e-10	-2.036099e+01	-4.170293e+01
1.190000e-06	-2.887626e-06	-6.165624e-10	-2.008552e+01	-4.150346e+01
1.200000e-06	-2.847908e-06	-6.138831e-10	-1.980926e+01	-4.129774e+01
1.210000e-06	-2.808056e-06	-6.122365e-10	-1.953206e+01	-4.108547e+01
1.220000e-06	-2.768074e-06	-6.070124e-10	-1.925395e+01	-4.086639e+01
1.230000e-06	-2.727924e-06	-6.026368e-10	-1.897469e+01	-4.064027e+01
1.240000e-06	-2.687577e-06	-5.975331e-10	-1.869404e+01	-4.040690e+01
1.250000e-06	-2.647007e-06	-5.931617e-10	-1.841184e+01	-4.016609e+01
1.260000e-06	-2.606165e-06	-5.907671e-10	-1.812776e+01	-3.991772e+01
1.270000e-06	-2.565046e-06	-5.891907e-10	-1.784175e+01	-3.966166e+01
1.280000e-06	-2.523658e-06	-5.873022e-10	-1.755386e+01	-3.939785e+01
1.290000e-06	-2.481965e-06	-5.813883e-10	-1.726386e+01	-3.912623e+01
1.300000e-06	-2.439910e-06	-5.761708e-10	-1.697134e+01	-3.884678e+01
1.310000e-06	-2.397569e-06	-5.702830e-10	-1.667683e+01	-3.855951e+01
1.320000e-06	-2.354944e-06	-5.666749e-10	-1.638033e+01	-3.826446e+01
1.330000e-06	-2.312059e-06	-5.653060e-10	-1.608204e+01	-3.796169e+01
1.340000e-06	-2.269074e-06	-5.661254e-10	-1.578305e+01	-3.765127e+01
1.350000e-06	-2.225944e-06	-5.600830e-10	-1.548305e+01	-3.733331e+01
1.360000e-06	-2.182608e-06	-5.532627e-10	-1.518162e+01	-3.700790e+01
1.370000e-06	-2.139088e-06	-5.455076e-10	-1.487890e+01	-3.667517e+01
1.380000e-06	-2.095409e-06	-5.391945e-10	-1.457509e+01	-3.633525e+01
1.390000e-06	-2.051641e-06	-5.288685e-10	-1.427065e+01	-3.598827e+01
1.400000e-06	-2.007757e-06	-5.222938e-10	-1.396540e+01	-3.563434e+01
1.410000e-06	-1.963797e-06	-5.169970e-10	-1.365963e+01	-3.527360e+01
1.420000e-06	-1.919791e-06	-5.122814e-10	-1.335353e+01	-3.490615e+01
1.430000e-06	-1.875706e-06	-5.058491e-10	-1.304689e+01	-3.453208e+01
1.440000e-06	-1.831568e-06	-5.020480e-10	-1.273988e+01	-3.415147e+01
1.450000e-06	-1.787332e-06	-4.950540e-10	-1.243218e+01	-3.376438e+01
1.460000e-06	-1.743030e-06	-4.867048e-10	-1.212404e+01	-3.337083e+01
1.470000e-06	-1.698636e-06	-4.775559e-10	-1.181524e+01	-3.297082e+01
1.480000e-06	-1.654049e-06	-4.706182e-10	-1.150511e+01	-3.256432e+01
1.490000e-06	-1.609278e-06	-4.644856e-10	-1.119369e+01	-3.215125e+01
1.500000e-06	-1.564385e-06	-4.608225e-10	-1.088143e+01	-3.173150e+01
1.510000e-06	-1.519406e-06	-4.575116e-10	-1.056856e+01	-3.130494e+01
1.520000e-06	-1.474320e-06	-4.503125e-10	-1.025496e+01	-3.087136e+01
1.530000e-06	-1.429049e-06	-4.406635e-10	-9.940066e+00	-3.043054e+01
1.540000e-06	-1.383639e-06	-4.309129e-10	-9.624211e+00	-2.998221e+01
1.550000e-06	-1.338200e-06	-4.211213e-10	-9.308151e+00	-2.952605e+01
1.560000e-06	-1.292725e-06	-4.109327e-10	-8.991839e+00	-2.906170e+01
1.570000e-06	-1.247127e-06	-4.029128e-10	-8.674670e+00	-2.858878e+01
1.580000e-06	-1.201418e-06	-3.964420e-10	-8.356727e+00	-2.810685e+01
1.590000e-06	-1.155592e-06	-3.895959e-10	-8.037978e+00	-2.761543e+01
1.600000e-06	-1.109623e-06	-3.837052e-10	-7.718232e+00	-2.711404e+01
1.610000e-06	-1.063604e-06	-3.782745e-10	-7.398134e+00	-2.660214e+01
1.620000e-06	-1.017559e-06	-3.705000e-10	-7.077855e+00	-2.607918e+01
1.630000e-06	-9.714840e-07	-3.614133e-10	-6.757373e+00	-2.554460e+01
1.640000e-06	-9.253111e-07	-3.490403e-10	-6.436208e+00	-2.499779e+01
1.650000e-06	-8.791019e-07	-3.379564e-10	-6.114789e+00	-2.443817e+01
1.660000e-06	-8.329299e-07	-3.280138e-10	-5.793629e+00	-2.386515e+01
1.670000e-06	-7.867078e-07	-3.206106e-10	-5.472121e+00	-2.327812e+01
1.680000e-06	-7.404373e-07	-3.121767e-10	-5.150277e+00	-2.267650e+01
1.690000e-06	-6.941003e-07	-3.054926e-10	-4.827969e+00	-2.205972e+01
1.700000e-06	-6.475979e-07	-2.961796e-10	-4.504512e+00	-2.142723e+01
1.710000e-06	-6.010356e-07	-2.840191e-10	-4.180637e+00	-2.077851e+01
1.720000e-06	-5.544902e-07	-2.706903e-10	-3.856880e+00	-2.011309e+01
1.730000e-06	-5.078707e-07	-2.594701e-10	-3.532608e+00	-1.943051e+01
1.740000e-06	-4.611824e-07	-2.485306e-10	-3.207857e+00	-1.873040e+01
1.750000e-06	-4.144760e-07	-2.386267e-10	-2.882980e+00	-1.801241e+01
1.760000e-06	-3.676936e-07	-2.281317e-10	-2.557575e+00	-1.727626e+01
1.770000e-06	-3.208647e-07	-2.172354e-10	-2.231846e+00	-1.652175e+01
1.780000e-06	-2.740146e-07	-2.060802e-10	-1.905970e+00	-1.574874e+01
1.790000e-06	-2.271910e-07	-1.931922e-10	-1.580278e+00	-1.495717e+01
1.800000e-06	-1.803703e-07	-1.790596e-10	-1.254606e+00	-1.414705e+01
1.810000e-06	-1.334148e-07	-1.644837e-10	-9.279962e-01	-1.331848e+01
1.820000e-06	-8.655077e-08	-1.522707e-10	-6.020231e-01	-1.247166e+01
1.830000e-06	-3.979746e-08	-1.421474e-10	-2.768201e-01	-1.160685e+01
1.840000e-06	6.996080e-09	-1.302783e-10	4.866280e-02	-1.072443e+01
1.850000e-06	5.381801e-08	-1.182227e-10	3.743431e-01	-9.824838e+00
1.860000e-06	1.006231e-07	-1.071364e-10	6.999066e-01	-8.908636e+00
1.870000e-06	1.473430e-07	-9.352464e-11	1.024877e+00	-7.976456e+00
1.880000e-06	1.940194e-07	-7.965464e-11	1.349545e+00	-7.029024e+00
1.890000e-06	2.407767e-07	-6.569327e-11	1.674776e+00	-6.067150e+00
1.900000e-06	2.875522e-07	-5.197940e-11	2.000133e+00	-5.091731e+00
1.910000e-06	3.341962e-07	-3.759450e-11	2.324576e+00	-4.103740e+00
1.920000e-06	3.808400e-07	-2.510112e-11	2.649018e+00	-3.104227e+00
1.930000e-06	4.274995e-07	-1.182915e-11	2.973568e+00	-2.094311e+00
1.940000e-06	4.740867e-07	-2.344306e-13	3.297616e+00	-1.075178e+00
1.950000e-06	5.206290e-07	9.713016e-12	3.621351e+00	-4.806906e-02
1.960000e-06	5.671332e-07	1.910197e-11	3.944821e+00	9.857212e-01
1.970000e-06	6.135793e-07	3.139413e-11	4.267888e+00	2.024855e+00
1.980000e-06	6.600182e-07	4.828662e-11	4.590904e+00	3.067956e+00
1.990000e-06	7.064007e-07	6.706358e-11	4.913527e+00	4.113622e+00
2.000000e-06	7.527249e-07	8.546612e-11	5.235746e+00	5.160428e+00
2.010000e-06	7.990501e-07	1.013646e-10	5.557971e+00	6.206938e+00
2.020000e-06	8.453351e-07	1.131518e-10	5.879916e+00	7.251712e+00
2.030000e-06	8.915323e-07	1.250765e-10	6.201251e+00	8.293315e+00
2.040000e-06	9.376992e-07	1.351809e-10	6.522375e+00	9.330327e+00
2.050000e-06	9.838498e-07	1.467374e-10	6.843386e+00	1.036135e+01
2.060000e-06	1.029856e-06	1.613154e-10	7.163393e+00	1.138501e+01
2.070000e-06	1.075773e-06	1.790630e-10	7.482776e+00	1.239998e+01
2.080000e-06	1.121659e-06	1.982640e-10	7.801946e+00	1.340497e+01
2.090000e-06	1.167417e-06	2.146407e-10	8.120232e+00	1.439875e+01
2.100000e-06	1.213012e-06	2.294619e-10	8.437372e+00	1.538016e+01
2.110000e-06	1.258555e-06	2.402552e-10	8.754158e+00	1.634807e+01
2.120000e-06	1.304056e-06	2.500704e-10	9.070653e+00	1.730147e+01
2.130000e-06	1.349431e-06	2.593854e-10	9.386269e+00	1.823939e+01
2.140000e-06	1.394664e-06	2.699693e-10	9.700894e+00	1.916097e+01
2.150000e-06	1.439765e-06	2.826579e-10	1.001461e+01	2.006539e+01
2.160000e-06	1.484857e-06	2.979928e-10	1.032825e+01	2.095198e+01
2.170000e-06	1.529879e-06	3.140657e-10	1.064142e+01	2.182011e+01
2.180000e-06	1.574772e-06	3.276785e-10	1.095368e+01	2.266926e+01
2.190000e-06	1.619584e-06	3.395281e-10	1.126538e+01	2.349902e+01
2.200000e-06	1.664250e-06	3.513796e-10	1.157606e+01	2.430904e+01
2.210000e-06	1.708797e-06	3.615387e-10	1.188592e+01	2.509908e+01
2.220000e-06	1.753203e-06	3.727417e-10	1.219480e+01	2.586900e+01
2.230000e-06	1.797423e-06	3.827230e-10	1.250238e+01	2.661874e+01
2.240000e-06	1.841469e-06	3.913214e-10	1.280875e+01	2.734831e+01
2.250000e-06	1.885408e-06	3.989914e-10	1.311437e+01	2.805782e+01
2.260000e-06	1.929311e-06	4.084193e-10	1.341975e+01	2.874746e+01
2.270000e-06	1.973196e-06	4.184655e-10	1.372500e+01	2.941748e+01
2.280000e-06	2.017043e-06	4.270958e-10	1.402999e+01	3.006822e+01
2.290000e-06	2.060816e-06	4.360051e-10	1.433447e+01	3.070006e+01
2.300000e-06	2.104528e-06	4.452520e-10	1.463851e+01	3.131345e+01
2.310000e-06	2.148190e-06	4.538926e-10	1.494221e+01	3.190888e+01
2.320000e-06	2.191783e-06	4.612358e-10	1.524543e+01	3.248690e+01
2.330000e-06	2.235212e-06	4.678826e-10	1.554751e+01	3.304808e+01
2.340000e-06	2.278437e-06	4.755550e-10	1.584818e+01	3.359304e+01
2.350000e-06	2.321457e-06	4.840916e-10	1.614741e+01	3.412241e+01
2.360000e-06	2.364205e-06	4.926426e-10	1.644476e+01	3.463684e+01
2.370000e-06	2.406581e-06	5.010427e-10	1.673951e+01	3.513699e+01
2.380000e-06	2.448638e-06	5.087923e-10	1.703205e+01	3.562353e+01
2.390000e-06	2.490390e-06	5.164070e-10	1.732246e+01	3.609711e+01
2.400000e-06	2.531741e-06	5.238042e-10	1.761009e+01	3.655841e+01
2.410000e-06	2.572781e-06	5.324221e-10	1.789555e+01	3.700805e+01
2.420000e-06	2.613559e-06	5.402880e-10	1.817919e+01	3.744665e+01
2.430000e-06	2.654106e-06	5.478638e-10	1.846123e+01	3.787482e+01
2.440000e-06	2.694504e-06	5.557124e-10	1.874222e+01	3.829311e+01
2.450000e-06	2.734762e-06	5.631491e-10	1.902225e+01	3.870207e+01
2.460000e-06	2.774827e-06	5.701161e-10	1.930093e+01	3.910219e+01
2.470000e-06	2.814740e-06	5.771255e-10	1.957855e+01	3.949393e+01
2.480000e-06	2.854571e-06	5.812044e-10	1.985560e+01	3.987770e+01
2.490000e-06	2.894292e-06	5.842863e-10	2.013189e+01	4.025389e+01
2.500000e-06	2.933879e-06	5.905900e-10	2.040725e+01	4.062282e+01
2.510000e-06	2.973341e-06	5.986832e-10	2.068174e+01	4.098477e+01
2.520000e-06	3.012629e-06	6.057612e-10	2.095501e+01	4.133999e+01
2.530000e-06	3.051630e-06	6.113252e-10	2.122629e+01	4.168867e+01
2.540000e-06	3.090355e-06	6.144823e-10	2.149565e+01	4.203096e+01
2.550000e-06	3.128828e-06	6.164249e-10	2.176326e+01	4.236697e+01
2.560000e-06	3.167076e-06	6.189567e-10	2.202931e+01	4.269677e+01
2.570000e-06	3.205168e-06	6.220164e-10	2.229426e+01	4.302040e+01
2.580000e-06	3.243070e-06	6.251501e-10	2.255790e+01	4.333785e+01
2.590000e-06	3.280779e-06	6.302886e-10	2.282019e+01	4.364909e+01
2.600000e-06	3.318285e-06	6.369429e-10	2.308107e+01	4.395405e+01
2.610000e-06	3.355515e-06	6.435541e-10	2.334003e+01	4.425266e+01
2.620000e-06	3.392486e-06	6.495394e-10	2.359719e+01	4.454481e+01
2.630000e-06	3.429239e-06	6.534116e-10	2.385283e+01	4.483037e+01
2.640000e-06	3.465724e-06	6.540330e-10	2.410661e+01	4.510921e+01
2.650000e-06	3.501952e-06	6.541780e-10	2.435860e+01	4.538119e+01
2.660000e-06	3.537974e-06	6.560132e-10	2.460917e+01	4.564616e+01
2.670000e-06	3.573861e-06	6.580684e-10	2.485878e+01	4.590399e+01
2.680000e-06	3.609634e-06	6.617964e-10	2.510762e+01	4.615452e+01
2.690000e-06	3.645252e-06	6.673761e-10	2.535536e+01	4.639763e+01
2.700000e-06	3.680745e-06	6.718672e-10	2.560224e+01	4.663319e+01
2.710000e-06	3.716002e-06	6.737447e-10	2.584748e+01	4.686110e+01
2.720000e-06	3.750966e-06	6.779156e-10	2.609068e+01	4.708127e+01
2.730000e-06	3.785620e-06	6.823831e-10	2.633172e+01	4.729364e+01
2.740000e-06	3.819699e-06	6.837022e-10	2.656877e+01	4.749816e+01
2.750000e-06	3.853183e-06	6.848710e-10	2.680167e+01	4.769481e+01
2.760000e-06	3.886293e-06	6.872672e-10	2.703198e+01	4.788360e+01
2.770000e-06	3.919073e-06	6.902861e-10	2.725998e+01	4.806457e+01
2.780000e-06	3.951471e-06	6.956806e-10	2.748534e+01	4.823778e+01
2.790000e-06	3.983601e-06	7.032957e-10	2.770883e+01	4.840332e+01
2.800000e-06	4.015536e-06	7.098811e-10	2.793096e+01	4.856133e+01
2.810000e-06	4.047324e-06	7.132012e-10	2.815206e+01	4.871195e+01
2.820000e-06	4.078966e-06	7.146552e-10	2.837215e+01	4.885537e+01
2.830000e-06	4.110372e-06	7.135983e-10	2.859060e+01	4.899179e+01
2.840000e-06	4.141486e-06	7.096451e-10	2.880703e+01	4.912144e+01
2.850000e-06	4.172279e-06	7.096433e-10	2.902122e+01	4.924458e+01
2.860000e-06	4.202771e-06	7.138725e-10	2.923331e+01	4.936150e+01
2.870000e-06	4.232974e-06	7.170440e-10	2.944340e+01	4.947248e+01
2.880000e-06	4.262895e-06	7.211714e-10	2.965152e+01	4.957783e+01
2.890000e-06	4.292541e-06	7.252888e-10	2.985773e+01	4.967790e+01
2.900000e-06	4.321906e-06	7.282332e-10	3.006198e+01	4.977300e+01
