# Temperatura_=_-0.9
# Concentracion g/m^3_=_1620.0
# C_Vs_to_Am_M_A/Vsm_=_65563218390.804596
# pendiente_HvsI_1/m_=_3716.3
# ordenada_HvsI_A/m_=_1297.0
# frecuencia_Hz_=_135090.26940511895

Tiempo_(s)	Campo_(V.s)	Magnetizacion_(V.s)	Campo_(kA/m)	Magnetizacion_(A/m)
0.000000e+00	-5.527029e-06	-1.147354e-09	-3.837088e+01	-7.540695e+01
1.000000e-08	-5.527208e-06	-1.145754e-09	-3.837211e+01	-7.540855e+01
2.000000e-08	-5.527188e-06	-1.147795e-09	-3.837198e+01	-7.540880e+01
3.000000e-08	-5.526812e-06	-1.150643e-09	-3.836937e+01	-7.540758e+01
4.000000e-08	-5.526005e-06	-1.150602e-09	-3.836376e+01	-7.540473e+01
5.000000e-08	-5.524677e-06	-1.148026e-09	-3.835455e+01	-7.540011e+01
6.000000e-08	-5.522797e-06	-1.141750e-09	-3.834149e+01	-7.539355e+01
7.000000e-08	-5.520329e-06	-1.142696e-09	-3.832436e+01	-7.538491e+01
8.000000e-08	-5.517262e-06	-1.161100e-09	-3.830307e+01	-7.537401e+01
9.000000e-08	-5.513707e-06	-1.187100e-09	-3.827839e+01	-7.536071e+01
1.000000e-07	-5.509747e-06	-1.135818e-09	-3.825090e+01	-7.534484e+01
1.100000e-07	-5.505458e-06	-1.066420e-09	-3.822112e+01	-7.532626e+01
1.200000e-07	-5.501045e-06	-1.124905e-09	-3.819048e+01	-7.530483e+01
1.300000e-07	-5.496445e-06	-1.191718e-09	-3.815855e+01	-7.528039e+01
1.400000e-07	-5.491307e-06	-1.172083e-09	-3.812288e+01	-7.525283e+01
1.500000e-07	-5.485665e-06	-1.060650e-09	-3.808371e+01	-7.522203e+01
1.600000e-07	-5.479733e-06	-1.072290e-09	-3.804253e+01	-7.518787e+01
1.700000e-07	-5.473461e-06	-1.203799e-09	-3.799898e+01	-7.515026e+01
1.800000e-07	-5.466669e-06	-1.193428e-09	-3.795183e+01	-7.510912e+01
1.900000e-07	-5.459449e-06	-1.104239e-09	-3.790171e+01	-7.506438e+01
2.000000e-07	-5.451986e-06	-1.068674e-09	-3.784990e+01	-7.501598e+01
2.100000e-07	-5.444269e-06	-1.186567e-09	-3.779632e+01	-7.496388e+01
2.200000e-07	-5.436311e-06	-1.197317e-09	-3.774107e+01	-7.490805e+01
2.300000e-07	-5.428112e-06	-1.136584e-09	-3.768415e+01	-7.484847e+01
2.400000e-07	-5.419433e-06	-1.107461e-09	-3.762390e+01	-7.478514e+01
2.500000e-07	-5.410086e-06	-1.178295e-09	-3.755901e+01	-7.471808e+01
2.600000e-07	-5.400007e-06	-1.184327e-09	-3.748904e+01	-7.464730e+01
2.700000e-07	-5.389396e-06	-1.137560e-09	-3.741537e+01	-7.457285e+01
2.800000e-07	-5.378440e-06	-1.119136e-09	-3.733931e+01	-7.449477e+01
2.900000e-07	-5.367037e-06	-1.147599e-09	-3.726015e+01	-7.441311e+01
3.000000e-07	-5.355171e-06	-1.152820e-09	-3.717776e+01	-7.432794e+01
3.100000e-07	-5.342881e-06	-1.108808e-09	-3.709244e+01	-7.423934e+01
3.200000e-07	-5.330190e-06	-1.110662e-09	-3.700434e+01	-7.414737e+01
3.300000e-07	-5.317080e-06	-1.140456e-09	-3.691332e+01	-7.405212e+01
3.400000e-07	-5.303592e-06	-1.148969e-09	-3.681968e+01	-7.395368e+01
3.500000e-07	-5.289626e-06	-1.093044e-09	-3.672273e+01	-7.385213e+01
3.600000e-07	-5.275238e-06	-1.097053e-09	-3.662284e+01	-7.374756e+01
3.700000e-07	-5.260533e-06	-1.135120e-09	-3.652075e+01	-7.364005e+01
3.800000e-07	-5.245356e-06	-1.121714e-09	-3.641539e+01	-7.352970e+01
3.900000e-07	-5.229524e-06	-1.082517e-09	-3.630547e+01	-7.341658e+01
4.000000e-07	-5.213172e-06	-1.124549e-09	-3.619195e+01	-7.330077e+01
4.100000e-07	-5.196511e-06	-1.128442e-09	-3.607628e+01	-7.318234e+01
4.200000e-07	-5.179477e-06	-1.063647e-09	-3.595803e+01	-7.306134e+01
4.300000e-07	-5.162100e-06	-1.073765e-09	-3.583739e+01	-7.293785e+01
4.400000e-07	-5.144558e-06	-1.152024e-09	-3.571561e+01	-7.281191e+01
4.500000e-07	-5.126672e-06	-1.091320e-09	-3.559144e+01	-7.268356e+01
4.600000e-07	-5.108201e-06	-1.045112e-09	-3.546320e+01	-7.255282e+01
4.700000e-07	-5.089320e-06	-1.115148e-09	-3.533212e+01	-7.241973e+01
4.800000e-07	-5.070150e-06	-1.129073e-09	-3.519903e+01	-7.228429e+01
4.900000e-07	-5.050648e-06	-1.042912e-09	-3.506365e+01	-7.214651e+01
5.000000e-07	-5.030949e-06	-1.083133e-09	-3.492688e+01	-7.200638e+01
5.100000e-07	-5.011115e-06	-1.120708e-09	-3.478919e+01	-7.186389e+01
5.200000e-07	-4.990905e-06	-1.049385e-09	-3.464889e+01	-7.171902e+01
5.300000e-07	-4.970232e-06	-1.049411e-09	-3.450536e+01	-7.157174e+01
5.400000e-07	-4.949280e-06	-1.130141e-09	-3.435991e+01	-7.142201e+01
5.500000e-07	-4.928018e-06	-1.073456e-09	-3.421230e+01	-7.126979e+01
5.600000e-07	-4.906427e-06	-1.020362e-09	-3.406240e+01	-7.111504e+01
5.700000e-07	-4.884503e-06	-1.087601e-09	-3.391020e+01	-7.095771e+01
5.800000e-07	-4.862153e-06	-1.087798e-09	-3.375504e+01	-7.079774e+01
5.900000e-07	-4.839377e-06	-1.016544e-09	-3.359692e+01	-7.063510e+01
6.000000e-07	-4.816338e-06	-1.051706e-09	-3.343697e+01	-7.046972e+01
6.100000e-07	-4.793030e-06	-1.083174e-09	-3.327516e+01	-7.030156e+01
6.200000e-07	-4.769428e-06	-1.025535e-09	-3.311130e+01	-7.013056e+01
6.300000e-07	-4.745655e-06	-1.027641e-09	-3.294626e+01	-6.995669e+01
6.400000e-07	-4.721643e-06	-1.062257e-09	-3.277956e+01	-6.977990e+01
6.500000e-07	-4.697323e-06	-1.030912e-09	-3.261072e+01	-6.960017e+01
6.600000e-07	-4.672634e-06	-1.017797e-09	-3.243932e+01	-6.941746e+01
6.700000e-07	-4.647443e-06	-1.054362e-09	-3.226443e+01	-6.923177e+01
6.800000e-07	-4.621553e-06	-1.032391e-09	-3.208469e+01	-6.904307e+01
6.900000e-07	-4.595136e-06	-1.011515e-09	-3.190130e+01	-6.885137e+01
7.000000e-07	-4.568310e-06	-1.031965e-09	-3.171506e+01	-6.865668e+01
7.100000e-07	-4.541108e-06	-1.028074e-09	-3.152621e+01	-6.845902e+01
7.200000e-07	-4.513631e-06	-9.988516e-10	-3.133546e+01	-6.825841e+01
7.300000e-07	-4.485908e-06	-1.014541e-09	-3.114299e+01	-6.805489e+01
7.400000e-07	-4.458027e-06	-1.019361e-09	-3.094943e+01	-6.784851e+01
7.500000e-07	-4.429936e-06	-1.008204e-09	-3.075441e+01	-6.763932e+01
7.600000e-07	-4.401575e-06	-1.011123e-09	-3.055752e+01	-6.742738e+01
7.700000e-07	-4.372881e-06	-1.016036e-09	-3.035831e+01	-6.721278e+01
7.800000e-07	-4.343830e-06	-9.939158e-10	-3.015663e+01	-6.699558e+01
7.900000e-07	-4.314543e-06	-9.937270e-10	-2.995331e+01	-6.677587e+01
8.000000e-07	-4.285011e-06	-9.975366e-10	-2.974828e+01	-6.655373e+01
8.100000e-07	-4.255153e-06	-9.836570e-10	-2.954099e+01	-6.632927e+01
8.200000e-07	-4.225006e-06	-9.781795e-10	-2.933170e+01	-6.610255e+01
8.300000e-07	-4.194536e-06	-9.924797e-10	-2.912017e+01	-6.587369e+01
8.400000e-07	-4.163743e-06	-9.836418e-10	-2.890639e+01	-6.564276e+01
8.500000e-07	-4.132759e-06	-9.710933e-10	-2.869128e+01	-6.540985e+01
8.600000e-07	-4.101581e-06	-9.788182e-10	-2.847484e+01	-6.517504e+01
8.700000e-07	-4.070168e-06	-9.763092e-10	-2.825675e+01	-6.493840e+01
8.800000e-07	-4.038517e-06	-9.583921e-10	-2.803702e+01	-6.470000e+01
8.900000e-07	-4.006698e-06	-9.587452e-10	-2.781612e+01	-6.445989e+01
9.000000e-07	-3.974641e-06	-9.605188e-10	-2.759357e+01	-6.421810e+01
9.100000e-07	-3.942252e-06	-9.442842e-10	-2.736871e+01	-6.397468e+01
9.200000e-07	-3.909545e-06	-9.401840e-10	-2.714164e+01	-6.372961e+01
9.300000e-07	-3.876375e-06	-9.471469e-10	-2.691137e+01	-6.348291e+01
9.400000e-07	-3.842754e-06	-9.394314e-10	-2.667796e+01	-6.323455e+01
9.500000e-07	-3.808722e-06	-9.299627e-10	-2.644169e+01	-6.298448e+01
9.600000e-07	-3.774268e-06	-9.367064e-10	-2.620250e+01	-6.273266e+01
9.700000e-07	-3.739492e-06	-9.300204e-10	-2.596107e+01	-6.247899e+01
9.800000e-07	-3.704392e-06	-9.174888e-10	-2.571739e+01	-6.222338e+01
9.900000e-07	-3.668961e-06	-9.174732e-10	-2.547142e+01	-6.196570e+01
1.000000e-06	-3.633361e-06	-9.187734e-10	-2.522426e+01	-6.170582e+01
1.010000e-06	-3.597584e-06	-9.048723e-10	-2.497589e+01	-6.144357e+01
1.020000e-06	-3.561650e-06	-9.011967e-10	-2.472642e+01	-6.117877e+01
1.030000e-06	-3.525648e-06	-9.027944e-10	-2.447648e+01	-6.091122e+01
1.040000e-06	-3.489471e-06	-8.948629e-10	-2.422532e+01	-6.064071e+01
1.050000e-06	-3.453008e-06	-8.829699e-10	-2.397218e+01	-6.036701e+01
1.060000e-06	-3.416241e-06	-8.804903e-10	-2.371693e+01	-6.008986e+01
1.070000e-06	-3.379256e-06	-8.741202e-10	-2.346017e+01	-5.980900e+01
1.080000e-06	-3.342046e-06	-8.690476e-10	-2.320184e+01	-5.952416e+01
1.090000e-06	-3.304554e-06	-8.701725e-10	-2.294155e+01	-5.923505e+01
1.100000e-06	-3.266818e-06	-8.674971e-10	-2.267957e+01	-5.894140e+01
1.110000e-06	-3.228858e-06	-8.555928e-10	-2.241604e+01	-5.864289e+01
1.120000e-06	-3.190676e-06	-8.471141e-10	-2.215096e+01	-5.833924e+01
1.130000e-06	-3.152237e-06	-8.405551e-10	-2.188411e+01	-5.803014e+01
1.140000e-06	-3.113605e-06	-8.345916e-10	-2.161591e+01	-5.771529e+01
1.150000e-06	-3.074661e-06	-8.285580e-10	-2.134554e+01	-5.739441e+01
1.160000e-06	-3.035539e-06	-8.272262e-10	-2.107394e+01	-5.706721e+01
1.170000e-06	-2.996309e-06	-8.258866e-10	-2.080159e+01	-5.673340e+01
1.180000e-06	-2.956814e-06	-8.206535e-10	-2.052740e+01	-5.639273e+01
1.190000e-06	-2.917185e-06	-8.129876e-10	-2.025228e+01	-5.604493e+01
1.200000e-06	-2.877391e-06	-8.025934e-10	-1.997601e+01	-5.568977e+01
1.210000e-06	-2.837509e-06	-7.952752e-10	-1.969914e+01	-5.532703e+01
1.220000e-06	-2.797517e-06	-7.894001e-10	-1.942150e+01	-5.495650e+01
1.230000e-06	-2.757341e-06	-7.826503e-10	-1.914258e+01	-5.457800e+01
1.240000e-06	-2.717015e-06	-7.770475e-10	-1.886262e+01	-5.419136e+01
1.250000e-06	-2.676460e-06	-7.729455e-10	-1.858107e+01	-5.379645e+01
1.260000e-06	-2.635734e-06	-7.690432e-10	-1.829833e+01	-5.339314e+01
1.270000e-06	-2.594799e-06	-7.649081e-10	-1.801415e+01	-5.298133e+01
1.280000e-06	-2.553504e-06	-7.586132e-10	-1.772746e+01	-5.256096e+01
1.290000e-06	-2.511843e-06	-7.502030e-10	-1.743823e+01	-5.213196e+01
1.300000e-06	-2.469891e-06	-7.391155e-10	-1.714698e+01	-5.169431e+01
1.310000e-06	-2.427688e-06	-7.303593e-10	-1.685399e+01	-5.124799e+01
1.320000e-06	-2.385135e-06	-7.240888e-10	-1.655857e+01	-5.079302e+01
1.330000e-06	-2.342318e-06	-7.217832e-10	-1.626132e+01	-5.032942e+01
1.340000e-06	-2.299357e-06	-7.205144e-10	-1.596307e+01	-4.985723e+01
1.350000e-06	-2.256161e-06	-7.162210e-10	-1.566318e+01	-4.937652e+01
1.360000e-06	-2.212736e-06	-7.068853e-10	-1.536171e+01	-4.888734e+01
1.370000e-06	-2.169170e-06	-6.968833e-10	-1.505925e+01	-4.838977e+01
1.380000e-06	-2.125481e-06	-6.863262e-10	-1.475595e+01	-4.788391e+01
1.390000e-06	-2.081712e-06	-6.788034e-10	-1.445209e+01	-4.736984e+01
1.400000e-06	-2.037872e-06	-6.711687e-10	-1.414773e+01	-4.684764e+01
1.410000e-06	-1.993974e-06	-6.642449e-10	-1.384297e+01	-4.631742e+01
1.420000e-06	-1.949992e-06	-6.563250e-10	-1.353763e+01	-4.577924e+01
1.430000e-06	-1.905872e-06	-6.484122e-10	-1.323133e+01	-4.523319e+01
1.440000e-06	-1.861644e-06	-6.386457e-10	-1.292429e+01	-4.467933e+01
1.450000e-06	-1.817406e-06	-6.289252e-10	-1.261717e+01	-4.411772e+01
1.460000e-06	-1.773042e-06	-6.187339e-10	-1.230918e+01	-4.354837e+01
1.470000e-06	-1.728453e-06	-6.087069e-10	-1.199962e+01	-4.297132e+01
1.480000e-06	-1.683830e-06	-5.995624e-10	-1.168983e+01	-4.238655e+01
1.490000e-06	-1.639041e-06	-5.914165e-10	-1.137889e+01	-4.179403e+01
1.500000e-06	-1.594052e-06	-5.839107e-10	-1.106655e+01	-4.119370e+01
1.510000e-06	-1.548927e-06	-5.731529e-10	-1.075328e+01	-4.058548e+01
1.520000e-06	-1.503686e-06	-5.602200e-10	-1.043920e+01	-3.996925e+01
1.530000e-06	-1.458337e-06	-5.454179e-10	-1.012436e+01	-3.934487e+01
1.540000e-06	-1.412879e-06	-5.315212e-10	-9.808780e+00	-3.871216e+01
1.550000e-06	-1.367359e-06	-5.207535e-10	-9.492758e+00	-3.807092e+01
1.560000e-06	-1.321689e-06	-5.125970e-10	-9.175698e+00	-3.742090e+01
1.570000e-06	-1.275924e-06	-5.041224e-10	-8.857982e+00	-3.676183e+01
1.580000e-06	-1.230113e-06	-4.972560e-10	-8.539941e+00	-3.609342e+01
1.590000e-06	-1.184284e-06	-4.888077e-10	-8.221780e+00	-3.541534e+01
1.600000e-06	-1.138387e-06	-4.756379e-10	-7.903141e+00	-3.472723e+01
1.610000e-06	-1.092406e-06	-4.643974e-10	-7.583924e+00	-3.402871e+01
1.620000e-06	-1.046298e-06	-4.515772e-10	-7.263828e+00	-3.331938e+01
1.630000e-06	-1.000091e-06	-4.387311e-10	-6.943040e+00	-3.259882e+01
1.640000e-06	-9.538668e-07	-4.289062e-10	-6.622130e+00	-3.186659e+01
1.650000e-06	-9.075478e-07	-4.175470e-10	-6.300565e+00	-3.112225e+01
1.660000e-06	-8.611692e-07	-4.085033e-10	-5.978585e+00	-3.036533e+01
1.670000e-06	-8.148090e-07	-3.968714e-10	-5.656734e+00	-2.959537e+01
1.680000e-06	-7.683435e-07	-3.861512e-10	-5.334152e+00	-2.881191e+01
1.690000e-06	-7.216925e-07	-3.733917e-10	-5.010282e+00	-2.801451e+01
1.700000e-06	-6.750411e-07	-3.609882e-10	-4.686409e+00	-2.720271e+01
1.710000e-06	-6.284585e-07	-3.441841e-10	-4.363014e+00	-2.637608e+01
1.720000e-06	-5.818183e-07	-3.259620e-10	-4.039219e+00	-2.553422e+01
1.730000e-06	-5.351386e-07	-3.113428e-10	-3.715149e+00	-2.467674e+01
1.740000e-06	-4.884013e-07	-3.020710e-10	-3.390680e+00	-2.380329e+01
1.750000e-06	-4.415293e-07	-2.921546e-10	-3.065275e+00	-2.291355e+01
1.760000e-06	-3.946995e-07	-2.779676e-10	-2.740164e+00	-2.200724e+01
1.770000e-06	-3.478310e-07	-2.618528e-10	-2.414784e+00	-2.108414e+01
1.780000e-06	-3.008935e-07	-2.467150e-10	-2.088924e+00	-2.014405e+01
1.790000e-06	-2.540012e-07	-2.328351e-10	-1.763379e+00	-1.918685e+01
1.800000e-06	-2.070889e-07	-2.158329e-10	-1.437695e+00	-1.821247e+01
1.810000e-06	-1.601430e-07	-1.994510e-10	-1.111778e+00	-1.722089e+01
1.820000e-06	-1.132061e-07	-1.842209e-10	-7.859225e-01	-1.621217e+01
1.830000e-06	-6.634110e-08	-1.702731e-10	-4.605668e-01	-1.518643e+01
1.840000e-06	-1.944608e-08	-1.536369e-10	-1.350026e-01	-1.414386e+01
1.850000e-06	2.744391e-08	-1.390452e-10	1.905267e-01	-1.308472e+01
1.860000e-06	7.424953e-08	-1.264746e-10	5.154704e-01	-1.200934e+01
1.870000e-06	1.210842e-07	-1.099131e-10	8.406157e-01	-1.091812e+01
1.880000e-06	1.679617e-07	-9.243728e-11	1.166058e+00	-9.811532e+00
1.890000e-06	2.148709e-07	-7.783550e-11	1.491721e+00	-8.690134e+00
1.900000e-06	2.617392e-07	-6.325924e-11	1.817100e+00	-7.554541e+00
1.910000e-06	3.084696e-07	-5.154754e-11	2.141521e+00	-6.405441e+00
1.920000e-06	3.551818e-07	-3.856184e-11	2.465816e+00	-5.243588e+00
1.930000e-06	4.019540e-07	-2.363862e-11	2.790528e+00	-4.069802e+00
1.940000e-06	4.487160e-07	-6.212378e-12	3.115169e+00	-2.884963e+00
1.950000e-06	4.954510e-07	1.011970e-11	3.439622e+00	-1.690011e+00
1.960000e-06	5.421099e-07	2.640759e-11	3.763547e+00	-4.859347e-01
1.970000e-06	5.887021e-07	4.186916e-11	4.087008e+00	7.262248e-01
1.980000e-06	6.352734e-07	5.643827e-11	4.410325e+00	1.945385e+00
1.990000e-06	6.817390e-07	7.046103e-11	4.732909e+00	3.170423e+00
2.000000e-06	7.281587e-07	8.539424e-11	5.055173e+00	4.400186e+00
2.010000e-06	7.745525e-07	1.027227e-10	5.377257e+00	5.633493e+00
2.020000e-06	8.208848e-07	1.200038e-10	5.698915e+00	6.869144e+00
2.030000e-06	8.671801e-07	1.367465e-10	6.020316e+00	8.105924e+00
2.040000e-06	9.134740e-07	1.543051e-10	6.341707e+00	9.342610e+00
2.050000e-06	9.596953e-07	1.705889e-10	6.662594e+00	1.057798e+01
2.060000e-06	1.005790e-06	1.858073e-10	6.982603e+00	1.181081e+01
2.070000e-06	1.051822e-06	2.015143e-10	7.302173e+00	1.303990e+01
2.080000e-06	1.097775e-06	2.174494e-10	7.621202e+00	1.426407e+01
2.090000e-06	1.143624e-06	2.345406e-10	7.939499e+00	1.548214e+01
2.100000e-06	1.189393e-06	2.527618e-10	8.257250e+00	1.669298e+01
2.110000e-06	1.235056e-06	2.712888e-10	8.574262e+00	1.789549e+01
2.120000e-06	1.280632e-06	2.877043e-10	8.890664e+00	1.908863e+01
2.130000e-06	1.326169e-06	3.040523e-10	9.206804e+00	2.027137e+01
2.140000e-06	1.371628e-06	3.199023e-10	9.522397e+00	2.144276e+01
2.150000e-06	1.417025e-06	3.354042e-10	9.837559e+00	2.260190e+01
2.160000e-06	1.462292e-06	3.498399e-10	1.015182e+01	2.374793e+01
2.170000e-06	1.507441e-06	3.650169e-10	1.046527e+01	2.488007e+01
2.180000e-06	1.552506e-06	3.796471e-10	1.077813e+01	2.599761e+01
2.190000e-06	1.597357e-06	3.942248e-10	1.108950e+01	2.709988e+01
2.200000e-06	1.642052e-06	4.111794e-10	1.139979e+01	2.818631e+01
2.210000e-06	1.686647e-06	4.292431e-10	1.170939e+01	2.925636e+01
2.220000e-06	1.731112e-06	4.454768e-10	1.201808e+01	3.030961e+01
2.230000e-06	1.775452e-06	4.588335e-10	1.232590e+01	3.134567e+01
2.240000e-06	1.819717e-06	4.709849e-10	1.263322e+01	3.236422e+01
2.250000e-06	1.863925e-06	4.839162e-10	1.294012e+01	3.336504e+01
2.260000e-06	1.908034e-06	4.960968e-10	1.324634e+01	3.434794e+01
2.270000e-06	1.952015e-06	5.095321e-10	1.355168e+01	3.531281e+01
2.280000e-06	1.995914e-06	5.228950e-10	1.385645e+01	3.625961e+01
2.290000e-06	2.039784e-06	5.359590e-10	1.416100e+01	3.718834e+01
2.300000e-06	2.083535e-06	5.483365e-10	1.446474e+01	3.809907e+01
2.310000e-06	2.127198e-06	5.610392e-10	1.476787e+01	3.899192e+01
2.320000e-06	2.170828e-06	5.733400e-10	1.507077e+01	3.986704e+01
2.330000e-06	2.214326e-06	5.839383e-10	1.537275e+01	4.072464e+01
2.340000e-06	2.257658e-06	5.937066e-10	1.567358e+01	4.156498e+01
2.350000e-06	2.300806e-06	6.036142e-10	1.597313e+01	4.238832e+01
2.360000e-06	2.343749e-06	6.152363e-10	1.627125e+01	4.319499e+01
2.370000e-06	2.386475e-06	6.270053e-10	1.656788e+01	4.398532e+01
2.380000e-06	2.428942e-06	6.373491e-10	1.686270e+01	4.475965e+01
2.390000e-06	2.471054e-06	6.476325e-10	1.715506e+01	4.551837e+01
2.400000e-06	2.512811e-06	6.590931e-10	1.744495e+01	4.626185e+01
2.410000e-06	2.554233e-06	6.712885e-10	1.773252e+01	4.699048e+01
2.420000e-06	2.595340e-06	6.842432e-10	1.801790e+01	4.770466e+01
2.430000e-06	2.636295e-06	6.955832e-10	1.830223e+01	4.840477e+01
2.440000e-06	2.677137e-06	7.061746e-10	1.858577e+01	4.909119e+01
2.450000e-06	2.717647e-06	7.171830e-10	1.886701e+01	4.976430e+01
2.460000e-06	2.757832e-06	7.283095e-10	1.914599e+01	5.042445e+01
2.470000e-06	2.797911e-06	7.373752e-10	1.942423e+01	5.107200e+01
2.480000e-06	2.837848e-06	7.450164e-10	1.970149e+01	5.170726e+01
2.490000e-06	2.877578e-06	7.512113e-10	1.997731e+01	5.233055e+01
2.500000e-06	2.917220e-06	7.587512e-10	2.025252e+01	5.294214e+01
2.510000e-06	2.956764e-06	7.690663e-10	2.052706e+01	5.354231e+01
2.520000e-06	2.996143e-06	7.796127e-10	2.080044e+01	5.413127e+01
2.530000e-06	3.035333e-06	7.896336e-10	2.107251e+01	5.470926e+01
2.540000e-06	3.074279e-06	7.987436e-10	2.134289e+01	5.527644e+01
2.550000e-06	3.112938e-06	8.049578e-10	2.161128e+01	5.583298e+01
2.560000e-06	3.151412e-06	8.084952e-10	2.187838e+01	5.637901e+01
2.570000e-06	3.189725e-06	8.135314e-10	2.214436e+01	5.691465e+01
2.580000e-06	3.227708e-06	8.204868e-10	2.240806e+01	5.743998e+01
2.590000e-06	3.265472e-06	8.276194e-10	2.267023e+01	5.795507e+01
2.600000e-06	3.303138e-06	8.368804e-10	2.293172e+01	5.845997e+01
2.610000e-06	3.340699e-06	8.476149e-10	2.319248e+01	5.895470e+01
2.620000e-06	3.378036e-06	8.571653e-10	2.345169e+01	5.943928e+01
2.630000e-06	3.415121e-06	8.638162e-10	2.370915e+01	5.991372e+01
2.640000e-06	3.451909e-06	8.680888e-10	2.396455e+01	6.037801e+01
2.650000e-06	3.488322e-06	8.710567e-10	2.421735e+01	6.083212e+01
2.660000e-06	3.524514e-06	8.742953e-10	2.446861e+01	6.127604e+01
2.670000e-06	3.560528e-06	8.786743e-10	2.471863e+01	6.170975e+01
2.680000e-06	3.596405e-06	8.832426e-10	2.496770e+01	6.213321e+01
2.690000e-06	3.632249e-06	8.892016e-10	2.521655e+01	6.254642e+01
2.700000e-06	3.668001e-06	8.959936e-10	2.546475e+01	6.294936e+01
2.710000e-06	3.703488e-06	9.024734e-10	2.571111e+01	6.334201e+01
2.720000e-06	3.738706e-06	9.103458e-10	2.595561e+01	6.372439e+01
2.730000e-06	3.773585e-06	9.200621e-10	2.619776e+01	6.409652e+01
2.740000e-06	3.808101e-06	9.266594e-10	2.643738e+01	6.445842e+01
2.750000e-06	3.842221e-06	9.302337e-10	2.667425e+01	6.481014e+01
2.760000e-06	3.875712e-06	9.328888e-10	2.690676e+01	6.515174e+01
2.770000e-06	3.908632e-06	9.352441e-10	2.713531e+01	6.548332e+01
2.780000e-06	3.941205e-06	9.389314e-10	2.736144e+01	6.580497e+01
2.790000e-06	3.973501e-06	9.449811e-10	2.758565e+01	6.611682e+01
2.800000e-06	4.005541e-06	9.525621e-10	2.780809e+01	6.641901e+01
2.810000e-06	4.037429e-06	9.600949e-10	2.802947e+01	6.671171e+01
2.820000e-06	4.069174e-06	9.652558e-10	2.824986e+01	6.699510e+01
2.830000e-06	4.100736e-06	9.686148e-10	2.846897e+01	6.726939e+01
2.840000e-06	4.132045e-06	9.705471e-10	2.868633e+01	6.753481e+01
2.850000e-06	4.163055e-06	9.701925e-10	2.890161e+01	6.779160e+01
2.860000e-06	4.193821e-06	9.726944e-10	2.911520e+01	6.804002e+01
2.870000e-06	4.224325e-06	9.771994e-10	2.932698e+01	6.828034e+01
2.880000e-06	4.254516e-06	9.806076e-10	2.953657e+01	6.851286e+01
2.890000e-06	4.284383e-06	9.855089e-10	2.974392e+01	6.873787e+01
2.900000e-06	4.313930e-06	9.898434e-10	2.994905e+01	6.895569e+01
