# Temperatura_=_-0.4
# Concentracion g/m^3_=_1620.0
# C_Vs_to_Am_M_A/Vsm_=_65563218390.804596
# pendiente_HvsI_1/m_=_3716.3
# ordenada_HvsI_A/m_=_1297.0
# frecuencia_Hz_=_135089.9087562886

Tiempo_(s)	Campo_(V.s)	Magnetizacion_(V.s)	Campo_(kA/m)	Magnetizacion_(A/m)
0.000000e+00	-5.508359e-06	-1.377798e-09	-3.838322e+01	-8.848926e+01
1.000000e-08	-5.508662e-06	-1.378976e-09	-3.838534e+01	-8.847179e+01
2.000000e-08	-5.508696e-06	-1.378735e-09	-3.838557e+01	-8.845275e+01
3.000000e-08	-5.508364e-06	-1.376627e-09	-3.838326e+01	-8.843230e+01
4.000000e-08	-5.507511e-06	-1.371723e-09	-3.837731e+01	-8.841059e+01
5.000000e-08	-5.506105e-06	-1.368717e-09	-3.836752e+01	-8.838773e+01
6.000000e-08	-5.504231e-06	-1.369048e-09	-3.835446e+01	-8.836386e+01
7.000000e-08	-5.501828e-06	-1.376348e-09	-3.833772e+01	-8.833906e+01
8.000000e-08	-5.498897e-06	-1.371006e-09	-3.831729e+01	-8.831344e+01
9.000000e-08	-5.495476e-06	-1.348603e-09	-3.829346e+01	-8.828707e+01
1.000000e-07	-5.491689e-06	-1.344330e-09	-3.826706e+01	-8.826001e+01
1.100000e-07	-5.487548e-06	-1.395147e-09	-3.823821e+01	-8.823230e+01
1.200000e-07	-5.483111e-06	-1.354071e-09	-3.820729e+01	-8.820396e+01
1.300000e-07	-5.478504e-06	-1.325270e-09	-3.817519e+01	-8.817501e+01
1.400000e-07	-5.473627e-06	-1.357268e-09	-3.814121e+01	-8.814544e+01
1.500000e-07	-5.468318e-06	-1.398185e-09	-3.810422e+01	-8.811521e+01
1.600000e-07	-5.462403e-06	-1.350129e-09	-3.806300e+01	-8.808430e+01
1.700000e-07	-5.456174e-06	-1.305006e-09	-3.801959e+01	-8.805263e+01
1.800000e-07	-5.449603e-06	-1.347998e-09	-3.797380e+01	-8.802013e+01
1.900000e-07	-5.442477e-06	-1.381096e-09	-3.792415e+01	-8.798671e+01
2.000000e-07	-5.435108e-06	-1.335458e-09	-3.787280e+01	-8.795224e+01
2.100000e-07	-5.427553e-06	-1.313964e-09	-3.782016e+01	-8.791662e+01
2.200000e-07	-5.419738e-06	-1.372152e-09	-3.776570e+01	-8.787968e+01
2.300000e-07	-5.411612e-06	-1.412209e-09	-3.770908e+01	-8.784129e+01
2.400000e-07	-5.403034e-06	-1.398804e-09	-3.764931e+01	-8.780127e+01
2.500000e-07	-5.393929e-06	-1.356589e-09	-3.758586e+01	-8.775943e+01
2.600000e-07	-5.384159e-06	-1.365963e-09	-3.751778e+01	-8.771559e+01
2.700000e-07	-5.373636e-06	-1.385817e-09	-3.744445e+01	-8.766954e+01
2.800000e-07	-5.362708e-06	-1.380910e-09	-3.736831e+01	-8.762107e+01
2.900000e-07	-5.351399e-06	-1.360006e-09	-3.728950e+01	-8.756997e+01
3.000000e-07	-5.339607e-06	-1.369970e-09	-3.720733e+01	-8.751600e+01
3.100000e-07	-5.327455e-06	-1.372136e-09	-3.712266e+01	-8.745894e+01
3.200000e-07	-5.314975e-06	-1.372184e-09	-3.703569e+01	-8.739855e+01
3.300000e-07	-5.302028e-06	-1.350434e-09	-3.694548e+01	-8.733461e+01
3.400000e-07	-5.288647e-06	-1.351842e-09	-3.685224e+01	-8.726686e+01
3.500000e-07	-5.274905e-06	-1.358724e-09	-3.675648e+01	-8.719508e+01
3.600000e-07	-5.260747e-06	-1.358737e-09	-3.665782e+01	-8.711904e+01
3.700000e-07	-5.246051e-06	-1.324536e-09	-3.655542e+01	-8.703850e+01
3.800000e-07	-5.231020e-06	-1.345983e-09	-3.645068e+01	-8.695325e+01
3.900000e-07	-5.215613e-06	-1.366951e-09	-3.634332e+01	-8.686306e+01
4.000000e-07	-5.199526e-06	-1.328416e-09	-3.623122e+01	-8.676774e+01
4.100000e-07	-5.182964e-06	-1.311075e-09	-3.611581e+01	-8.666708e+01
4.200000e-07	-5.166110e-06	-1.365533e-09	-3.599837e+01	-8.656090e+01
4.300000e-07	-5.148918e-06	-1.345369e-09	-3.587858e+01	-8.644902e+01
4.400000e-07	-5.131359e-06	-1.279084e-09	-3.575622e+01	-8.633129e+01
4.500000e-07	-5.113527e-06	-1.324045e-09	-3.563196e+01	-8.620755e+01
4.600000e-07	-5.095312e-06	-1.356585e-09	-3.550504e+01	-8.607768e+01
4.700000e-07	-5.076651e-06	-1.273423e-09	-3.537501e+01	-8.594157e+01
4.800000e-07	-5.057608e-06	-1.275661e-09	-3.524232e+01	-8.579912e+01
4.900000e-07	-5.038212e-06	-1.361832e-09	-3.510716e+01	-8.565025e+01
5.000000e-07	-5.018611e-06	-1.307365e-09	-3.497058e+01	-8.549491e+01
5.100000e-07	-4.998858e-06	-1.250995e-09	-3.483293e+01	-8.533305e+01
5.200000e-07	-4.978857e-06	-1.327824e-09	-3.469356e+01	-8.516467e+01
5.300000e-07	-4.958465e-06	-1.322097e-09	-3.455147e+01	-8.498976e+01
5.400000e-07	-4.937667e-06	-1.230989e-09	-3.440654e+01	-8.480834e+01
5.500000e-07	-4.916589e-06	-1.286438e-09	-3.425967e+01	-8.462047e+01
5.600000e-07	-4.895184e-06	-1.329353e-09	-3.411052e+01	-8.442619e+01
5.700000e-07	-4.873384e-06	-1.242433e-09	-3.395861e+01	-8.422561e+01
5.800000e-07	-4.851242e-06	-1.244673e-09	-3.380432e+01	-8.401881e+01
5.900000e-07	-4.828766e-06	-1.316582e-09	-3.364770e+01	-8.380593e+01
6.000000e-07	-4.805945e-06	-1.251792e-09	-3.348868e+01	-8.358709e+01
6.100000e-07	-4.782790e-06	-1.218799e-09	-3.332734e+01	-8.336247e+01
6.200000e-07	-4.759387e-06	-1.289104e-09	-3.316426e+01	-8.313223e+01
6.300000e-07	-4.735817e-06	-1.267193e-09	-3.300001e+01	-8.289657e+01
6.400000e-07	-4.711922e-06	-1.207340e-09	-3.283351e+01	-8.265568e+01
6.500000e-07	-4.687765e-06	-1.260037e-09	-3.266518e+01	-8.240979e+01
6.600000e-07	-4.663300e-06	-1.267274e-09	-3.249470e+01	-8.215912e+01
6.700000e-07	-4.638345e-06	-1.207594e-09	-3.232082e+01	-8.190390e+01
6.800000e-07	-4.612849e-06	-1.227923e-09	-3.214315e+01	-8.164440e+01
6.900000e-07	-4.586775e-06	-1.253462e-09	-3.196147e+01	-8.138084e+01
7.000000e-07	-4.560149e-06	-1.204314e-09	-3.177593e+01	-8.111350e+01
7.100000e-07	-4.533147e-06	-1.208063e-09	-3.158777e+01	-8.084263e+01
7.200000e-07	-4.505825e-06	-1.242913e-09	-3.139739e+01	-8.056848e+01
7.300000e-07	-4.478205e-06	-1.209567e-09	-3.120493e+01	-8.029132e+01
7.400000e-07	-4.450405e-06	-1.187460e-09	-3.101121e+01	-8.001139e+01
7.500000e-07	-4.422429e-06	-1.213529e-09	-3.081627e+01	-7.972895e+01
7.600000e-07	-4.394213e-06	-1.197423e-09	-3.061966e+01	-7.944424e+01
7.700000e-07	-4.365707e-06	-1.170905e-09	-3.042102e+01	-7.915748e+01
7.800000e-07	-4.336933e-06	-1.190507e-09	-3.022052e+01	-7.886889e+01
7.900000e-07	-4.307870e-06	-1.187338e-09	-3.001800e+01	-7.857869e+01
8.000000e-07	-4.278544e-06	-1.159759e-09	-2.981366e+01	-7.828706e+01
8.100000e-07	-4.248974e-06	-1.169913e-09	-2.960761e+01	-7.799417e+01
8.200000e-07	-4.219114e-06	-1.182028e-09	-2.939954e+01	-7.770019e+01
8.300000e-07	-4.188799e-06	-1.159172e-09	-2.918830e+01	-7.740524e+01
8.400000e-07	-4.158122e-06	-1.158378e-09	-2.897453e+01	-7.710945e+01
8.500000e-07	-4.127236e-06	-1.169413e-09	-2.875932e+01	-7.681290e+01
8.600000e-07	-4.096024e-06	-1.149253e-09	-2.854183e+01	-7.651567e+01
8.700000e-07	-4.064557e-06	-1.129957e-09	-2.832256e+01	-7.621780e+01
8.800000e-07	-4.033011e-06	-1.139904e-09	-2.810274e+01	-7.591930e+01
8.900000e-07	-4.001386e-06	-1.131159e-09	-2.788237e+01	-7.562018e+01
9.000000e-07	-3.969580e-06	-1.113755e-09	-2.766074e+01	-7.532041e+01
9.100000e-07	-3.937456e-06	-1.119079e-09	-2.743690e+01	-7.501992e+01
9.200000e-07	-3.905015e-06	-1.119743e-09	-2.721084e+01	-7.471864e+01
9.300000e-07	-3.872236e-06	-1.098802e-09	-2.698243e+01	-7.441646e+01
9.400000e-07	-3.839082e-06	-1.095688e-09	-2.675141e+01	-7.411324e+01
9.500000e-07	-3.805603e-06	-1.098957e-09	-2.651812e+01	-7.380884e+01
9.600000e-07	-3.771661e-06	-1.084138e-09	-2.628160e+01	-7.350307e+01
9.700000e-07	-3.737122e-06	-1.074359e-09	-2.604094e+01	-7.319573e+01
9.800000e-07	-3.702086e-06	-1.081725e-09	-2.579680e+01	-7.288660e+01
9.900000e-07	-3.666750e-06	-1.073440e-09	-2.555057e+01	-7.257545e+01
1.000000e-06	-3.631306e-06	-1.062020e-09	-2.530359e+01	-7.226201e+01
1.010000e-06	-3.595759e-06	-1.064779e-09	-2.505589e+01	-7.194602e+01
1.020000e-06	-3.560049e-06	-1.060117e-09	-2.480706e+01	-7.162718e+01
1.030000e-06	-3.524162e-06	-1.046837e-09	-2.455699e+01	-7.130520e+01
1.040000e-06	-3.488099e-06	-1.044649e-09	-2.430570e+01	-7.097978e+01
1.050000e-06	-3.451809e-06	-1.042648e-09	-2.405282e+01	-7.065059e+01
1.060000e-06	-3.415217e-06	-1.025721e-09	-2.379784e+01	-7.031732e+01
1.070000e-06	-3.378333e-06	-1.014612e-09	-2.354083e+01	-6.997965e+01
1.080000e-06	-3.341250e-06	-1.011653e-09	-2.328243e+01	-6.963725e+01
1.090000e-06	-3.303866e-06	-1.000937e-09	-2.302193e+01	-6.928981e+01
1.100000e-06	-3.266228e-06	-9.917709e-10	-2.275966e+01	-6.893702e+01
1.110000e-06	-3.228418e-06	-9.934901e-10	-2.249619e+01	-6.857855e+01
1.120000e-06	-3.190352e-06	-9.877636e-10	-2.223094e+01	-6.821412e+01
1.130000e-06	-3.152149e-06	-9.761729e-10	-2.196474e+01	-6.784344e+01
1.140000e-06	-3.113722e-06	-9.713704e-10	-2.169697e+01	-6.746622e+01
1.150000e-06	-3.075093e-06	-9.660530e-10	-2.142779e+01	-6.708221e+01
1.160000e-06	-3.036283e-06	-9.519691e-10	-2.115736e+01	-6.669117e+01
1.170000e-06	-2.997276e-06	-9.454627e-10	-2.088555e+01	-6.629286e+01
1.180000e-06	-2.958082e-06	-9.430260e-10	-2.061244e+01	-6.588709e+01
1.190000e-06	-2.918656e-06	-9.339537e-10	-2.033771e+01	-6.547365e+01
1.200000e-06	-2.879093e-06	-9.267884e-10	-2.006203e+01	-6.505238e+01
1.210000e-06	-2.839391e-06	-9.263329e-10	-1.978539e+01	-6.462314e+01
1.220000e-06	-2.799558e-06	-9.190346e-10	-1.950782e+01	-6.418580e+01
1.230000e-06	-2.759633e-06	-9.089091e-10	-1.922961e+01	-6.374025e+01
1.240000e-06	-2.719526e-06	-9.031856e-10	-1.895014e+01	-6.328642e+01
1.250000e-06	-2.679210e-06	-8.959149e-10	-1.866921e+01	-6.282424e+01
1.260000e-06	-2.638682e-06	-8.860999e-10	-1.838681e+01	-6.235368e+01
1.270000e-06	-2.597915e-06	-8.811460e-10	-1.810273e+01	-6.187470e+01
1.280000e-06	-2.556951e-06	-8.767489e-10	-1.781729e+01	-6.138731e+01
1.290000e-06	-2.515788e-06	-8.679782e-10	-1.753046e+01	-6.089151e+01
1.300000e-06	-2.474350e-06	-8.569709e-10	-1.724171e+01	-6.038734e+01
1.310000e-06	-2.432540e-06	-8.486777e-10	-1.695037e+01	-5.987482e+01
1.320000e-06	-2.390348e-06	-8.403393e-10	-1.665637e+01	-5.935401e+01
1.330000e-06	-2.347758e-06	-8.312959e-10	-1.635960e+01	-5.882496e+01
1.340000e-06	-2.304886e-06	-8.260785e-10	-1.606086e+01	-5.828773e+01
1.350000e-06	-2.261892e-06	-8.205880e-10	-1.576127e+01	-5.774240e+01
1.360000e-06	-2.218683e-06	-8.103824e-10	-1.546017e+01	-5.718901e+01
1.370000e-06	-2.175329e-06	-8.000207e-10	-1.515808e+01	-5.662764e+01
1.380000e-06	-2.131848e-06	-7.924991e-10	-1.485509e+01	-5.605834e+01
1.390000e-06	-2.088235e-06	-7.836942e-10	-1.455119e+01	-5.548116e+01
1.400000e-06	-2.044573e-06	-7.740188e-10	-1.424695e+01	-5.489612e+01
1.410000e-06	-2.000826e-06	-7.656063e-10	-1.394211e+01	-5.430327e+01
1.420000e-06	-1.957065e-06	-7.582048e-10	-1.363718e+01	-5.370258e+01
1.430000e-06	-1.913245e-06	-7.508839e-10	-1.333183e+01	-5.309406e+01
1.440000e-06	-1.869307e-06	-7.429939e-10	-1.302566e+01	-5.247767e+01
1.450000e-06	-1.825330e-06	-7.344502e-10	-1.271923e+01	-5.185334e+01
1.460000e-06	-1.781243e-06	-7.244168e-10	-1.241202e+01	-5.122099e+01
1.470000e-06	-1.736948e-06	-7.109134e-10	-1.210336e+01	-5.058050e+01
1.480000e-06	-1.692476e-06	-6.974646e-10	-1.179348e+01	-4.993172e+01
1.490000e-06	-1.647848e-06	-6.845864e-10	-1.148250e+01	-4.927448e+01
1.500000e-06	-1.603089e-06	-6.739134e-10	-1.117061e+01	-4.860858e+01
1.510000e-06	-1.558229e-06	-6.652975e-10	-1.085802e+01	-4.793376e+01
1.520000e-06	-1.513264e-06	-6.557044e-10	-1.054469e+01	-4.724975e+01
1.530000e-06	-1.468207e-06	-6.423986e-10	-1.023073e+01	-4.655625e+01
1.540000e-06	-1.423052e-06	-6.297129e-10	-9.916081e+00	-4.585292e+01
1.550000e-06	-1.377833e-06	-6.169961e-10	-9.600985e+00	-4.513938e+01
1.560000e-06	-1.332508e-06	-6.030844e-10	-9.285150e+00	-4.441524e+01
1.570000e-06	-1.287067e-06	-5.895481e-10	-8.968515e+00	-4.368006e+01
1.580000e-06	-1.241488e-06	-5.770658e-10	-8.650907e+00	-4.293339e+01
1.590000e-06	-1.195806e-06	-5.660365e-10	-8.332589e+00	-4.217474e+01
1.600000e-06	-1.150150e-06	-5.549258e-10	-8.014452e+00	-4.140361e+01
1.610000e-06	-1.104342e-06	-5.443352e-10	-7.695250e+00	-4.061948e+01
1.620000e-06	-1.058386e-06	-5.329076e-10	-7.375025e+00	-3.982182e+01
1.630000e-06	-1.012454e-06	-5.209130e-10	-7.054958e+00	-3.901007e+01
1.640000e-06	-9.664547e-07	-5.065945e-10	-6.734429e+00	-3.818368e+01
1.650000e-06	-9.203770e-07	-4.892585e-10	-6.413351e+00	-3.734208e+01
1.660000e-06	-8.742021e-07	-4.727694e-10	-6.091596e+00	-3.648473e+01
1.670000e-06	-8.279004e-07	-4.579716e-10	-5.768958e+00	-3.561107e+01
1.680000e-06	-7.815915e-07	-4.453176e-10	-5.446269e+00	-3.472056e+01
1.690000e-06	-7.352655e-07	-4.323570e-10	-5.123461e+00	-3.381268e+01
1.700000e-06	-6.888868e-07	-4.202243e-10	-4.800286e+00	-3.288692e+01
1.710000e-06	-6.425122e-07	-4.055505e-10	-4.477140e+00	-3.194281e+01
1.720000e-06	-5.962124e-07	-3.864348e-10	-4.154514e+00	-3.097990e+01
1.730000e-06	-5.498171e-07	-3.671829e-10	-3.831224e+00	-2.999777e+01
1.740000e-06	-5.032305e-07	-3.508341e-10	-3.506600e+00	-2.899607e+01
1.750000e-06	-4.566846e-07	-3.360716e-10	-3.182260e+00	-2.797447e+01
1.760000e-06	-4.101952e-07	-3.216686e-10	-2.858313e+00	-2.693269e+01
1.770000e-06	-3.636280e-07	-3.049280e-10	-2.533825e+00	-2.587053e+01
1.780000e-06	-3.169821e-07	-2.893390e-10	-2.208787e+00	-2.478782e+01
1.790000e-06	-2.703235e-07	-2.747545e-10	-1.883662e+00	-2.368446e+01
1.800000e-06	-2.236770e-07	-2.563111e-10	-1.558622e+00	-2.256044e+01
1.810000e-06	-1.769850e-07	-2.358290e-10	-1.233263e+00	-2.141579e+01
1.820000e-06	-1.302694e-07	-2.165983e-10	-9.077405e-01	-2.025062e+01
1.830000e-06	-8.361501e-08	-2.005984e-10	-5.826443e-01	-1.906512e+01
1.840000e-06	-3.704562e-08	-1.856082e-10	-2.581405e-01	-1.785955e+01
1.850000e-06	9.598681e-09	-1.692055e-10	6.688532e-02	-1.663427e+01
1.860000e-06	5.628748e-08	-1.539278e-10	3.922212e-01	-1.538968e+01
1.870000e-06	1.029637e-07	-1.380384e-10	7.174693e-01	-1.412629e+01
1.880000e-06	1.496078e-07	-1.196168e-10	1.042494e+00	-1.284467e+01
1.890000e-06	1.962110e-07	-1.013092e-10	1.367233e+00	-1.154547e+01
1.900000e-06	2.429046e-07	-8.155533e-11	1.692602e+00	-1.022943e+01
1.910000e-06	2.895639e-07	-6.215970e-11	2.017733e+00	-8.897354e+00
1.920000e-06	3.362274e-07	-4.400133e-11	2.342892e+00	-7.550114e+00
1.930000e-06	3.828842e-07	-2.865238e-11	2.668006e+00	-6.188657e+00
1.940000e-06	4.294846e-07	-1.397268e-11	2.992725e+00	-4.813994e+00
1.950000e-06	4.760728e-07	-7.066028e-13	3.317360e+00	-3.427197e+00
1.960000e-06	5.226586e-07	1.510589e-11	3.641978e+00	-2.029398e+00
1.970000e-06	5.691941e-07	3.427046e-11	3.966246e+00	-6.217784e-01
1.980000e-06	6.156352e-07	5.817226e-11	4.289856e+00	7.944310e-01
1.990000e-06	6.619867e-07	8.239851e-11	4.612841e+00	2.217958e+00
2.000000e-06	7.082107e-07	1.039489e-10	4.934938e+00	3.647493e+00
2.010000e-06	7.544089e-07	1.238257e-10	5.256856e+00	5.081698e+00
2.020000e-06	8.005595e-07	1.403846e-10	5.578441e+00	6.519208e+00
2.030000e-06	8.466699e-07	1.538894e-10	5.899746e+00	7.958644e+00
2.040000e-06	8.928334e-07	1.688839e-10	6.221422e+00	9.398614e+00
2.050000e-06	9.389539e-07	1.889172e-10	6.542798e+00	1.083772e+01
2.060000e-06	9.849789e-07	2.116687e-10	6.863509e+00	1.227457e+01
2.070000e-06	1.030959e-06	2.338123e-10	7.183906e+00	1.370778e+01
2.080000e-06	1.076911e-06	2.560109e-10	7.504110e+00	1.513597e+01
2.090000e-06	1.122737e-06	2.761588e-10	7.823434e+00	1.655781e+01
2.100000e-06	1.168418e-06	2.927028e-10	8.141745e+00	1.797196e+01
2.110000e-06	1.213981e-06	3.096661e-10	8.459234e+00	1.937715e+01
2.120000e-06	1.259436e-06	3.264735e-10	8.775977e+00	2.077213e+01
2.130000e-06	1.304813e-06	3.441590e-10	9.092173e+00	2.215570e+01
2.140000e-06	1.350083e-06	3.637838e-10	9.407621e+00	2.352670e+01
2.150000e-06	1.395308e-06	3.830872e-10	9.722756e+00	2.488405e+01
2.160000e-06	1.440434e-06	4.010317e-10	1.003720e+01	2.622671e+01
2.170000e-06	1.485475e-06	4.196253e-10	1.035106e+01	2.755370e+01
2.180000e-06	1.530363e-06	4.385872e-10	1.066385e+01	2.886413e+01
2.190000e-06	1.575009e-06	4.576383e-10	1.097495e+01	3.015716e+01
2.200000e-06	1.619612e-06	4.769930e-10	1.128575e+01	3.143202e+01
2.210000e-06	1.664168e-06	4.954059e-10	1.159622e+01	3.268804e+01
2.220000e-06	1.708551e-06	5.103278e-10	1.190548e+01	3.392459e+01
2.230000e-06	1.752762e-06	5.246998e-10	1.221356e+01	3.514115e+01
2.240000e-06	1.796901e-06	5.389494e-10	1.252112e+01	3.633725e+01
2.250000e-06	1.840973e-06	5.536163e-10	1.282823e+01	3.751251e+01
2.260000e-06	1.884943e-06	5.693535e-10	1.313462e+01	3.866663e+01
2.270000e-06	1.928786e-06	5.868656e-10	1.344013e+01	3.979938e+01
2.280000e-06	1.972535e-06	6.060995e-10	1.374497e+01	4.091059e+01
2.290000e-06	2.016214e-06	6.229458e-10	1.404934e+01	4.200019e+01
2.300000e-06	2.059870e-06	6.372568e-10	1.435354e+01	4.306816e+01
2.310000e-06	2.103542e-06	6.523124e-10	1.465786e+01	4.411453e+01
2.320000e-06	2.147122e-06	6.669917e-10	1.496153e+01	4.513942e+01
2.330000e-06	2.190594e-06	6.799362e-10	1.526445e+01	4.614301e+01
2.340000e-06	2.233887e-06	6.900815e-10	1.556612e+01	4.712550e+01
2.350000e-06	2.276943e-06	7.021233e-10	1.586615e+01	4.808717e+01
2.360000e-06	2.319859e-06	7.178572e-10	1.616519e+01	4.902835e+01
2.370000e-06	2.362682e-06	7.334958e-10	1.646359e+01	4.994938e+01
2.380000e-06	2.405197e-06	7.469991e-10	1.675984e+01	5.085066e+01
2.390000e-06	2.447284e-06	7.588237e-10	1.705311e+01	5.173262e+01
2.400000e-06	2.488921e-06	7.703789e-10	1.734325e+01	5.259571e+01
2.410000e-06	2.530202e-06	7.837647e-10	1.763090e+01	5.344040e+01
2.420000e-06	2.571207e-06	7.962954e-10	1.791663e+01	5.426718e+01
2.430000e-06	2.611913e-06	8.081411e-10	1.820028e+01	5.507655e+01
2.440000e-06	2.652504e-06	8.197008e-10	1.848312e+01	5.586903e+01
2.450000e-06	2.692889e-06	8.304650e-10	1.876453e+01	5.664512e+01
2.460000e-06	2.733077e-06	8.417287e-10	1.904457e+01	5.740532e+01
2.470000e-06	2.773130e-06	8.530083e-10	1.932367e+01	5.815015e+01
2.480000e-06	2.812986e-06	8.665253e-10	1.960139e+01	5.888009e+01
2.490000e-06	2.852707e-06	8.776915e-10	1.987817e+01	5.959563e+01
2.500000e-06	2.892275e-06	8.880486e-10	2.015389e+01	6.029722e+01
2.510000e-06	2.931680e-06	8.982983e-10	2.042847e+01	6.098531e+01
2.520000e-06	2.970951e-06	9.094582e-10	2.070211e+01	6.166032e+01
2.530000e-06	3.010025e-06	9.193504e-10	2.097439e+01	6.232265e+01
2.540000e-06	3.048879e-06	9.280615e-10	2.124514e+01	6.297266e+01
2.550000e-06	3.087480e-06	9.319262e-10	2.151411e+01	6.361069e+01
2.560000e-06	3.125841e-06	9.356924e-10	2.178141e+01	6.423707e+01
2.570000e-06	3.163993e-06	9.434944e-10	2.204727e+01	6.485207e+01
2.580000e-06	3.201933e-06	9.547185e-10	2.231164e+01	6.545594e+01
2.590000e-06	3.239742e-06	9.654633e-10	2.257510e+01	6.604892e+01
2.600000e-06	3.277336e-06	9.739287e-10	2.283706e+01	6.663120e+01
2.610000e-06	3.314733e-06	9.827872e-10	2.309765e+01	6.720294e+01
2.620000e-06	3.351958e-06	9.914053e-10	2.335704e+01	6.776428e+01
2.630000e-06	3.388940e-06	9.992573e-10	2.361474e+01	6.831534e+01
2.640000e-06	3.425674e-06	1.003439e-09	2.387071e+01	6.885620e+01
2.650000e-06	3.462111e-06	1.004719e-09	2.412461e+01	6.938694e+01
2.660000e-06	3.498294e-06	1.007776e-09	2.437674e+01	6.990758e+01
2.670000e-06	3.534251e-06	1.015091e-09	2.462729e+01	7.041817e+01
2.680000e-06	3.570056e-06	1.024531e-09	2.487679e+01	7.091871e+01
2.690000e-06	3.605716e-06	1.034582e-09	2.512527e+01	7.140920e+01
2.700000e-06	3.641205e-06	1.044350e-09	2.537256e+01	7.188962e+01
2.710000e-06	3.676615e-06	1.052873e-09	2.561931e+01	7.235996e+01
2.720000e-06	3.711809e-06	1.057071e-09	2.586455e+01	7.282019e+01
2.730000e-06	3.746657e-06	1.062175e-09	2.610737e+01	7.327028e+01
2.740000e-06	3.781121e-06	1.065401e-09	2.634753e+01	7.371020e+01
2.750000e-06	3.815274e-06	1.067006e-09	2.658551e+01	7.413992e+01
2.760000e-06	3.848874e-06	1.069233e-09	2.681964e+01	7.455943e+01
2.770000e-06	3.881899e-06	1.075072e-09	2.704976e+01	7.496871e+01
2.780000e-06	3.914586e-06	1.084791e-09	2.727753e+01	7.536777e+01
2.790000e-06	3.946853e-06	1.095887e-09	2.750238e+01	7.575660e+01
2.800000e-06	3.978843e-06	1.106101e-09	2.772528e+01	7.613524e+01
2.810000e-06	4.010735e-06	1.114162e-09	2.794751e+01	7.650373e+01
2.820000e-06	4.042485e-06	1.118103e-09	2.816875e+01	7.686211e+01
2.830000e-06	4.074000e-06	1.118096e-09	2.838836e+01	7.721048e+01
2.840000e-06	4.105308e-06	1.117073e-09	2.860652e+01	7.754891e+01
2.850000e-06	4.136399e-06	1.118825e-09	2.882316e+01	7.787754e+01
2.860000e-06	4.167242e-06	1.124881e-09	2.903809e+01	7.819649e+01
2.870000e-06	4.197707e-06	1.133566e-09	2.925037e+01	7.850592e+01
2.880000e-06	4.227753e-06	1.141225e-09	2.945973e+01	7.880601e+01
2.890000e-06	4.257507e-06	1.148877e-09	2.966707e+01	7.909696e+01
2.900000e-06	4.287023e-06	1.156246e-09	2.987274e+01	7.937898e+01
