# Temperatura_=_13.4
# Concentracion g/m^3_=_1620.0
# C_Vs_to_Am_M_A/Vsm_=_65563218390.804596
# pendiente_HvsI_1/m_=_3716.3
# ordenada_HvsI_A/m_=_1297.0
# frecuencia_Hz_=_135104.23840555985

Tiempo_(s)	Campo_(V.s)	Magnetizacion_(V.s)	Campo_(kA/m)	Magnetizacion_(A/m)
0.000000e+00	-5.530912e-06	-8.419577e-10	-3.836691e+01	-5.561862e+01
1.000000e-08	-5.531088e-06	-8.428656e-10	-3.836813e+01	-5.561263e+01
2.000000e-08	-5.531051e-06	-8.438148e-10	-3.836787e+01	-5.560545e+01
3.000000e-08	-5.530740e-06	-8.442827e-10	-3.836571e+01	-5.559703e+01
4.000000e-08	-5.529977e-06	-8.438421e-10	-3.836042e+01	-5.558727e+01
5.000000e-08	-5.528657e-06	-8.409662e-10	-3.835126e+01	-5.557612e+01
6.000000e-08	-5.526749e-06	-8.290486e-10	-3.833803e+01	-5.556349e+01
7.000000e-08	-5.524251e-06	-8.054288e-10	-3.832070e+01	-5.554932e+01
8.000000e-08	-5.521201e-06	-8.208166e-10	-3.829955e+01	-5.553355e+01
9.000000e-08	-5.517656e-06	-9.016483e-10	-3.827495e+01	-5.551611e+01
1.000000e-07	-5.513601e-06	-9.190678e-10	-3.824682e+01	-5.549696e+01
1.100000e-07	-5.509162e-06	-8.072926e-10	-3.821603e+01	-5.547604e+01
1.200000e-07	-5.504630e-06	-7.577826e-10	-3.818459e+01	-5.545332e+01
1.300000e-07	-5.499889e-06	-8.259513e-10	-3.815171e+01	-5.542877e+01
1.400000e-07	-5.494699e-06	-8.949782e-10	-3.811571e+01	-5.540237e+01
1.500000e-07	-5.489088e-06	-8.030820e-10	-3.807678e+01	-5.537411e+01
1.600000e-07	-5.483174e-06	-7.604328e-10	-3.803576e+01	-5.534398e+01
1.700000e-07	-5.476905e-06	-8.566906e-10	-3.799227e+01	-5.531200e+01
1.800000e-07	-5.470169e-06	-9.127205e-10	-3.794554e+01	-5.527818e+01
1.900000e-07	-5.462955e-06	-8.186764e-10	-3.789551e+01	-5.524254e+01
2.000000e-07	-5.455416e-06	-7.321351e-10	-3.784321e+01	-5.520512e+01
2.100000e-07	-5.447694e-06	-7.995185e-10	-3.778964e+01	-5.516596e+01
2.200000e-07	-5.439812e-06	-8.726633e-10	-3.773496e+01	-5.512511e+01
2.300000e-07	-5.431675e-06	-8.616431e-10	-3.767852e+01	-5.508261e+01
2.400000e-07	-5.423067e-06	-8.150296e-10	-3.761881e+01	-5.503852e+01
2.500000e-07	-5.413781e-06	-8.432628e-10	-3.755439e+01	-5.499291e+01
2.600000e-07	-5.403734e-06	-8.595035e-10	-3.748470e+01	-5.494584e+01
2.700000e-07	-5.393131e-06	-8.434598e-10	-3.741115e+01	-5.489736e+01
2.800000e-07	-5.382120e-06	-8.147763e-10	-3.733477e+01	-5.484754e+01
2.900000e-07	-5.370591e-06	-8.453869e-10	-3.725479e+01	-5.479643e+01
3.000000e-07	-5.358647e-06	-8.689291e-10	-3.717194e+01	-5.474410e+01
3.100000e-07	-5.346444e-06	-8.619969e-10	-3.708729e+01	-5.469060e+01
3.200000e-07	-5.333864e-06	-8.310294e-10	-3.700003e+01	-5.463596e+01
3.300000e-07	-5.320791e-06	-8.402062e-10	-3.690934e+01	-5.458023e+01
3.400000e-07	-5.307274e-06	-8.557667e-10	-3.681558e+01	-5.452343e+01
3.500000e-07	-5.293400e-06	-8.348454e-10	-3.671933e+01	-5.446558e+01
3.600000e-07	-5.279086e-06	-8.128966e-10	-3.662004e+01	-5.440669e+01
3.700000e-07	-5.264304e-06	-8.509850e-10	-3.651750e+01	-5.434676e+01
3.800000e-07	-5.249033e-06	-8.653181e-10	-3.641157e+01	-5.428576e+01
3.900000e-07	-5.233181e-06	-8.261827e-10	-3.630160e+01	-5.422368e+01
4.000000e-07	-5.216800e-06	-8.335761e-10	-3.618797e+01	-5.416048e+01
4.100000e-07	-5.200098e-06	-8.644699e-10	-3.607211e+01	-5.409609e+01
4.200000e-07	-5.183155e-06	-8.195639e-10	-3.595459e+01	-5.403046e+01
4.300000e-07	-5.165834e-06	-7.907519e-10	-3.583443e+01	-5.396350e+01
4.400000e-07	-5.148148e-06	-8.588231e-10	-3.571175e+01	-5.389514e+01
4.500000e-07	-5.130143e-06	-8.530400e-10	-3.558685e+01	-5.382526e+01
4.600000e-07	-5.111715e-06	-7.851429e-10	-3.545902e+01	-5.375376e+01
4.700000e-07	-5.092865e-06	-8.099059e-10	-3.532826e+01	-5.368053e+01
4.800000e-07	-5.073713e-06	-8.570760e-10	-3.519540e+01	-5.360543e+01
4.900000e-07	-5.054230e-06	-8.009169e-10	-3.506025e+01	-5.352834e+01
5.000000e-07	-5.034512e-06	-7.986067e-10	-3.492348e+01	-5.344912e+01
5.100000e-07	-5.014679e-06	-8.424381e-10	-3.478590e+01	-5.336763e+01
5.200000e-07	-4.994539e-06	-8.033214e-10	-3.464619e+01	-5.328374e+01
5.300000e-07	-4.973960e-06	-7.719900e-10	-3.450344e+01	-5.319731e+01
5.400000e-07	-4.953042e-06	-8.415495e-10	-3.435833e+01	-5.310820e+01
5.500000e-07	-4.931806e-06	-8.323737e-10	-3.421102e+01	-5.301629e+01
5.600000e-07	-4.910174e-06	-7.696367e-10	-3.406096e+01	-5.292146e+01
5.700000e-07	-4.888197e-06	-8.010832e-10	-3.390851e+01	-5.282358e+01
5.800000e-07	-4.865937e-06	-8.337250e-10	-3.375410e+01	-5.272258e+01
5.900000e-07	-4.843221e-06	-7.770404e-10	-3.359653e+01	-5.261834e+01
6.000000e-07	-4.820097e-06	-7.772412e-10	-3.343612e+01	-5.251081e+01
6.100000e-07	-4.796778e-06	-8.160576e-10	-3.327436e+01	-5.239991e+01
6.200000e-07	-4.773234e-06	-7.873953e-10	-3.311104e+01	-5.228562e+01
6.300000e-07	-4.749525e-06	-7.641613e-10	-3.294657e+01	-5.216790e+01
6.400000e-07	-4.725607e-06	-7.962172e-10	-3.278066e+01	-5.204675e+01
6.500000e-07	-4.701302e-06	-7.895614e-10	-3.261206e+01	-5.192219e+01
6.600000e-07	-4.676515e-06	-7.649323e-10	-3.244012e+01	-5.179426e+01
6.700000e-07	-4.651305e-06	-7.816247e-10	-3.226524e+01	-5.166302e+01
6.800000e-07	-4.625581e-06	-7.849819e-10	-3.208680e+01	-5.152853e+01
6.900000e-07	-4.599240e-06	-7.637265e-10	-3.190407e+01	-5.139091e+01
7.000000e-07	-4.572352e-06	-7.696083e-10	-3.171755e+01	-5.125027e+01
7.100000e-07	-4.545033e-06	-7.798760e-10	-3.152805e+01	-5.110674e+01
7.200000e-07	-4.517490e-06	-7.629231e-10	-3.133699e+01	-5.096048e+01
7.300000e-07	-4.489834e-06	-7.606443e-10	-3.114515e+01	-5.081167e+01
7.400000e-07	-4.461977e-06	-7.705643e-10	-3.095190e+01	-5.066048e+01
7.500000e-07	-4.433885e-06	-7.662354e-10	-3.075703e+01	-5.050711e+01
7.600000e-07	-4.405531e-06	-7.570350e-10	-3.056035e+01	-5.035178e+01
7.700000e-07	-4.376834e-06	-7.607661e-10	-3.036128e+01	-5.019470e+01
7.800000e-07	-4.347829e-06	-7.571418e-10	-3.016008e+01	-5.003610e+01
7.900000e-07	-4.318540e-06	-7.522589e-10	-2.995691e+01	-4.987619e+01
8.000000e-07	-4.289008e-06	-7.515640e-10	-2.975205e+01	-4.971521e+01
8.100000e-07	-4.259219e-06	-7.508166e-10	-2.954541e+01	-4.955338e+01
8.200000e-07	-4.229078e-06	-7.443355e-10	-2.933633e+01	-4.939091e+01
8.300000e-07	-4.198575e-06	-7.501391e-10	-2.912473e+01	-4.922801e+01
8.400000e-07	-4.167766e-06	-7.522186e-10	-2.891102e+01	-4.906489e+01
8.500000e-07	-4.136653e-06	-7.445755e-10	-2.869520e+01	-4.890173e+01
8.600000e-07	-4.105265e-06	-7.390090e-10	-2.847746e+01	-4.873868e+01
8.700000e-07	-4.073722e-06	-7.398152e-10	-2.825866e+01	-4.857591e+01
8.800000e-07	-4.042080e-06	-7.311854e-10	-2.803916e+01	-4.841353e+01
8.900000e-07	-4.010306e-06	-7.271650e-10	-2.781875e+01	-4.825165e+01
9.000000e-07	-3.978298e-06	-7.297312e-10	-2.759671e+01	-4.809034e+01
9.100000e-07	-3.945957e-06	-7.253721e-10	-2.737237e+01	-4.792964e+01
9.200000e-07	-3.913198e-06	-7.170399e-10	-2.714512e+01	-4.776956e+01
9.300000e-07	-3.880029e-06	-7.202440e-10	-2.691504e+01	-4.761011e+01
9.400000e-07	-3.846345e-06	-7.206904e-10	-2.668138e+01	-4.745121e+01
9.500000e-07	-3.812050e-06	-7.121694e-10	-2.644348e+01	-4.729281e+01
9.600000e-07	-3.777381e-06	-7.098637e-10	-2.620299e+01	-4.713477e+01
9.700000e-07	-3.742427e-06	-7.109745e-10	-2.596052e+01	-4.697696e+01
9.800000e-07	-3.707211e-06	-7.050266e-10	-2.571623e+01	-4.681919e+01
9.900000e-07	-3.671788e-06	-7.000408e-10	-2.547051e+01	-4.666126e+01
1.000000e-06	-3.636219e-06	-7.010473e-10	-2.522377e+01	-4.650293e+01
1.010000e-06	-3.600501e-06	-6.953003e-10	-2.497600e+01	-4.634392e+01
1.020000e-06	-3.564605e-06	-6.896911e-10	-2.472700e+01	-4.618394e+01
1.030000e-06	-3.528552e-06	-6.914062e-10	-2.447691e+01	-4.602266e+01
1.040000e-06	-3.492235e-06	-6.908098e-10	-2.422498e+01	-4.585976e+01
1.050000e-06	-3.455628e-06	-6.807625e-10	-2.397105e+01	-4.569485e+01
1.060000e-06	-3.418828e-06	-6.739720e-10	-2.371578e+01	-4.552758e+01
1.070000e-06	-3.381776e-06	-6.700786e-10	-2.345875e+01	-4.535753e+01
1.080000e-06	-3.344425e-06	-6.649862e-10	-2.319965e+01	-4.518432e+01
1.090000e-06	-3.306833e-06	-6.618545e-10	-2.293889e+01	-4.500753e+01
1.100000e-06	-3.269071e-06	-6.628568e-10	-2.267694e+01	-4.482675e+01
1.110000e-06	-3.231083e-06	-6.565041e-10	-2.241343e+01	-4.464159e+01
1.120000e-06	-3.192835e-06	-6.481504e-10	-2.214810e+01	-4.445162e+01
1.130000e-06	-3.154370e-06	-6.452287e-10	-2.188128e+01	-4.425647e+01
1.140000e-06	-3.115653e-06	-6.445188e-10	-2.161270e+01	-4.405575e+01
1.150000e-06	-3.076686e-06	-6.385742e-10	-2.134240e+01	-4.384909e+01
1.160000e-06	-3.037478e-06	-6.337822e-10	-2.107042e+01	-4.363614e+01
1.170000e-06	-2.998120e-06	-6.314366e-10	-2.079740e+01	-4.341658e+01
1.180000e-06	-2.958684e-06	-6.307422e-10	-2.052384e+01	-4.319012e+01
1.190000e-06	-2.919136e-06	-6.282203e-10	-2.024950e+01	-4.295648e+01
1.200000e-06	-2.879437e-06	-6.260946e-10	-1.997412e+01	-4.271541e+01
1.210000e-06	-2.839549e-06	-6.217039e-10	-1.969743e+01	-4.246671e+01
1.220000e-06	-2.799537e-06	-6.143832e-10	-1.941987e+01	-4.221021e+01
1.230000e-06	-2.759346e-06	-6.073040e-10	-1.914107e+01	-4.194576e+01
1.240000e-06	-2.718913e-06	-6.027213e-10	-1.886060e+01	-4.167324e+01
1.250000e-06	-2.678276e-06	-5.988793e-10	-1.857870e+01	-4.139261e+01
1.260000e-06	-2.637421e-06	-5.952443e-10	-1.829530e+01	-4.110380e+01
1.270000e-06	-2.596372e-06	-5.956553e-10	-1.801055e+01	-4.080683e+01
1.280000e-06	-2.555048e-06	-5.905204e-10	-1.772389e+01	-4.050173e+01
1.290000e-06	-2.513335e-06	-5.825166e-10	-1.743454e+01	-4.018855e+01
1.300000e-06	-2.471339e-06	-5.747169e-10	-1.714322e+01	-3.986739e+01
1.310000e-06	-2.429064e-06	-5.664942e-10	-1.684996e+01	-3.953837e+01
1.320000e-06	-2.386467e-06	-5.604709e-10	-1.655448e+01	-3.920164e+01
1.330000e-06	-2.343750e-06	-5.595340e-10	-1.625816e+01	-3.885735e+01
1.340000e-06	-2.300836e-06	-5.601770e-10	-1.596047e+01	-3.850570e+01
1.350000e-06	-2.257593e-06	-5.563930e-10	-1.566050e+01	-3.814687e+01
1.360000e-06	-2.214178e-06	-5.462089e-10	-1.535934e+01	-3.778108e+01
1.370000e-06	-2.170689e-06	-5.366227e-10	-1.505767e+01	-3.740854e+01
1.380000e-06	-2.127089e-06	-5.295564e-10	-1.475522e+01	-3.702945e+01
1.390000e-06	-2.083380e-06	-5.237974e-10	-1.445202e+01	-3.664403e+01
1.400000e-06	-2.039552e-06	-5.200528e-10	-1.414799e+01	-3.625248e+01
1.410000e-06	-1.995634e-06	-5.167936e-10	-1.384334e+01	-3.585499e+01
1.420000e-06	-1.951677e-06	-5.110715e-10	-1.353842e+01	-3.545172e+01
1.430000e-06	-1.907616e-06	-5.045163e-10	-1.323278e+01	-3.504283e+01
1.440000e-06	-1.863463e-06	-4.983607e-10	-1.292650e+01	-3.462843e+01
1.450000e-06	-1.819236e-06	-4.933676e-10	-1.261970e+01	-3.420862e+01
1.460000e-06	-1.774915e-06	-4.873262e-10	-1.231225e+01	-3.378346e+01
1.470000e-06	-1.730545e-06	-4.798852e-10	-1.200447e+01	-3.335296e+01
1.480000e-06	-1.685932e-06	-4.712600e-10	-1.169500e+01	-3.291711e+01
1.490000e-06	-1.641081e-06	-4.611140e-10	-1.138387e+01	-3.247584e+01
1.500000e-06	-1.596125e-06	-4.512923e-10	-1.107202e+01	-3.202904e+01
1.510000e-06	-1.550981e-06	-4.421926e-10	-1.075886e+01	-3.157656e+01
1.520000e-06	-1.505762e-06	-4.326772e-10	-1.044519e+01	-3.111820e+01
1.530000e-06	-1.460537e-06	-4.212334e-10	-1.013147e+01	-3.065369e+01
1.540000e-06	-1.415219e-06	-4.124769e-10	-9.817109e+00	-3.018273e+01
1.550000e-06	-1.369753e-06	-4.046795e-10	-9.501722e+00	-2.970499e+01
1.560000e-06	-1.324139e-06	-4.005511e-10	-9.185309e+00	-2.922005e+01
1.570000e-06	-1.278474e-06	-3.957676e-10	-8.868538e+00	-2.872748e+01
1.580000e-06	-1.232779e-06	-3.873134e-10	-8.551562e+00	-2.822680e+01
1.590000e-06	-1.186946e-06	-3.746017e-10	-8.233627e+00	-2.771747e+01
1.600000e-06	-1.141010e-06	-3.592351e-10	-7.914976e+00	-2.719895e+01
1.610000e-06	-1.094946e-06	-3.467149e-10	-7.595438e+00	-2.667063e+01
1.620000e-06	-1.048714e-06	-3.376276e-10	-7.274732e+00	-2.613190e+01
1.630000e-06	-1.002492e-06	-3.322540e-10	-6.954098e+00	-2.558211e+01
1.640000e-06	-9.562706e-07	-3.237625e-10	-6.633471e+00	-2.502061e+01
1.650000e-06	-9.099475e-07	-3.116402e-10	-6.312137e+00	-2.444673e+01
1.660000e-06	-8.636093e-07	-2.991144e-10	-5.990697e+00	-2.385981e+01
1.670000e-06	-8.172933e-07	-2.858785e-10	-5.669412e+00	-2.325916e+01
1.680000e-06	-7.708928e-07	-2.750220e-10	-5.347540e+00	-2.264413e+01
1.690000e-06	-7.243384e-07	-2.665800e-10	-5.024601e+00	-2.201408e+01
1.700000e-06	-6.776619e-07	-2.595989e-10	-4.700815e+00	-2.136839e+01
1.710000e-06	-6.309827e-07	-2.517323e-10	-4.377010e+00	-2.070646e+01
1.720000e-06	-5.843772e-07	-2.419153e-10	-4.053716e+00	-2.002775e+01
1.730000e-06	-5.377034e-07	-2.306945e-10	-3.729948e+00	-1.933175e+01
1.740000e-06	-4.909264e-07	-2.170535e-10	-3.405465e+00	-1.861801e+01
1.750000e-06	-4.441112e-07	-2.045132e-10	-3.080717e+00	-1.788613e+01
1.760000e-06	-3.972100e-07	-1.943970e-10	-2.755372e+00	-1.713577e+01
1.770000e-06	-3.502442e-07	-1.868006e-10	-2.429579e+00	-1.636668e+01
1.780000e-06	-3.032410e-07	-1.794173e-10	-2.103527e+00	-1.557867e+01
1.790000e-06	-2.562696e-07	-1.698731e-10	-1.777695e+00	-1.477162e+01
1.800000e-06	-2.094060e-07	-1.570067e-10	-1.452610e+00	-1.394551e+01
1.810000e-06	-1.624572e-07	-1.408423e-10	-1.126936e+00	-1.310042e+01
1.820000e-06	-1.154115e-07	-1.243653e-10	-8.005884e-01	-1.223649e+01
1.830000e-06	-6.841085e-08	-1.111270e-10	-4.745534e-01	-1.135397e+01
1.840000e-06	-2.146056e-08	-9.914061e-11	-1.488679e-01	-1.045321e+01
1.850000e-06	2.550137e-08	-8.702121e-11	1.768983e-01	-9.534645e+00
1.860000e-06	7.245273e-08	-7.612891e-11	5.025911e-01	-8.598806e+00
1.870000e-06	1.193351e-07	-6.491888e-11	8.278056e-01	-7.646322e+00
1.880000e-06	1.662997e-07	-5.264791e-11	1.153590e+00	-6.677915e+00
1.890000e-06	2.132990e-07	-3.979935e-11	1.479615e+00	-5.694395e+00
1.900000e-06	2.602002e-07	-2.570940e-11	1.804961e+00	-4.696663e+00
1.910000e-06	3.070748e-07	-1.043810e-11	2.130121e+00	-3.685700e+00
1.920000e-06	3.539890e-07	4.202293e-12	2.455556e+00	-2.662568e+00
1.930000e-06	4.008863e-07	1.526736e-11	2.780874e+00	-1.628403e+00
1.940000e-06	4.477072e-07	2.574090e-11	3.105662e+00	-5.844077e-01
1.950000e-06	4.944555e-07	3.674670e-11	3.429946e+00	4.681519e-01
1.960000e-06	5.411375e-07	4.892498e-11	3.753770e+00	1.527957e+00
1.970000e-06	5.877233e-07	6.276513e-11	4.076927e+00	2.593640e+00
1.980000e-06	6.342261e-07	7.869347e-11	4.399509e+00	3.663797e+00
1.990000e-06	6.806994e-07	9.435813e-11	4.721885e+00	4.736990e+00
2.000000e-06	7.270799e-07	1.094658e-10	5.043618e+00	5.811760e+00
2.010000e-06	7.734211e-07	1.257385e-10	5.365078e+00	6.886634e+00
2.020000e-06	8.198604e-07	1.402621e-10	5.687219e+00	7.960135e+00
2.030000e-06	8.662290e-07	1.534607e-10	6.008869e+00	9.030789e+00
2.040000e-06	9.124717e-07	1.656352e-10	6.329647e+00	1.009713e+01
2.050000e-06	9.586869e-07	1.772620e-10	6.650233e+00	1.115773e+01
2.060000e-06	1.004819e-06	1.904822e-10	6.970243e+00	1.221117e+01
2.070000e-06	1.050897e-06	2.070235e-10	7.289874e+00	1.325608e+01
2.080000e-06	1.096909e-06	2.243622e-10	7.609052e+00	1.429113e+01
2.090000e-06	1.142778e-06	2.403625e-10	7.927242e+00	1.531505e+01
2.100000e-06	1.188566e-06	2.546856e-10	8.244861e+00	1.632663e+01
2.110000e-06	1.234329e-06	2.667380e-10	8.562310e+00	1.732473e+01
2.120000e-06	1.280044e-06	2.766183e-10	8.879427e+00	1.830827e+01
2.130000e-06	1.325595e-06	2.878996e-10	9.195407e+00	1.927626e+01
2.140000e-06	1.371055e-06	3.003267e-10	9.510755e+00	2.022779e+01
2.150000e-06	1.416447e-06	3.146529e-10	9.825631e+00	2.116204e+01
2.160000e-06	1.461703e-06	3.295110e-10	1.013956e+01	2.207828e+01
2.170000e-06	1.506845e-06	3.457830e-10	1.045270e+01	2.297586e+01
2.180000e-06	1.551900e-06	3.619023e-10	1.076524e+01	2.385423e+01
2.190000e-06	1.596828e-06	3.746196e-10	1.107690e+01	2.471295e+01
2.200000e-06	1.641610e-06	3.864793e-10	1.138755e+01	2.555166e+01
2.210000e-06	1.686332e-06	3.954393e-10	1.169777e+01	2.637011e+01
2.220000e-06	1.730948e-06	4.046795e-10	1.200726e+01	2.716811e+01
2.230000e-06	1.775378e-06	4.159051e-10	1.231547e+01	2.794560e+01
2.240000e-06	1.819623e-06	4.284996e-10	1.262238e+01	2.870259e+01
2.250000e-06	1.863724e-06	4.379414e-10	1.292831e+01	2.943917e+01
2.260000e-06	1.907740e-06	4.461360e-10	1.323364e+01	3.015552e+01
2.270000e-06	1.951740e-06	4.549295e-10	1.353886e+01	3.085189e+01
2.280000e-06	1.995710e-06	4.622728e-10	1.384387e+01	3.152862e+01
2.290000e-06	2.039577e-06	4.694106e-10	1.414817e+01	3.218608e+01
2.300000e-06	2.083287e-06	4.783830e-10	1.445138e+01	3.282474e+01
2.310000e-06	2.126938e-06	4.890273e-10	1.475417e+01	3.344508e+01
2.320000e-06	2.170621e-06	4.987970e-10	1.505719e+01	3.404767e+01
2.330000e-06	2.214273e-06	5.059914e-10	1.536000e+01	3.463308e+01
2.340000e-06	2.257776e-06	5.115319e-10	1.566177e+01	3.520195e+01
2.350000e-06	2.301051e-06	5.167874e-10	1.596196e+01	3.575491e+01
2.360000e-06	2.344142e-06	5.233955e-10	1.626088e+01	3.629264e+01
2.370000e-06	2.386958e-06	5.325217e-10	1.655788e+01	3.681581e+01
2.380000e-06	2.429356e-06	5.425738e-10	1.685199e+01	3.732510e+01
2.390000e-06	2.471479e-06	5.529817e-10	1.714419e+01	3.782120e+01
2.400000e-06	2.513427e-06	5.613956e-10	1.743518e+01	3.830478e+01
2.410000e-06	2.555084e-06	5.686797e-10	1.772414e+01	3.877649e+01
2.420000e-06	2.596445e-06	5.754228e-10	1.801105e+01	3.923699e+01
2.430000e-06	2.637422e-06	5.829854e-10	1.829531e+01	3.968687e+01
2.440000e-06	2.678060e-06	5.918260e-10	1.857720e+01	4.012674e+01
2.450000e-06	2.718551e-06	6.019044e-10	1.885808e+01	4.055714e+01
2.460000e-06	2.758852e-06	6.121365e-10	1.913764e+01	4.097859e+01
2.470000e-06	2.799042e-06	6.190753e-10	1.941643e+01	4.139157e+01
2.480000e-06	2.839058e-06	6.222931e-10	1.969402e+01	4.179650e+01
2.490000e-06	2.878859e-06	6.251735e-10	1.997011e+01	4.219378e+01
2.500000e-06	2.918571e-06	6.291406e-10	2.024558e+01	4.258375e+01
2.510000e-06	2.958204e-06	6.358199e-10	2.052051e+01	4.296671e+01
2.520000e-06	2.997692e-06	6.440159e-10	2.079443e+01	4.334289e+01
2.530000e-06	3.036917e-06	6.507521e-10	2.106653e+01	4.371251e+01
2.540000e-06	3.075873e-06	6.547360e-10	2.133676e+01	4.407572e+01
2.550000e-06	3.114577e-06	6.569755e-10	2.160525e+01	4.443264e+01
2.560000e-06	3.153065e-06	6.573655e-10	2.187222e+01	4.478332e+01
2.570000e-06	3.191296e-06	6.586990e-10	2.213743e+01	4.512780e+01
2.580000e-06	3.229325e-06	6.621127e-10	2.240123e+01	4.546607e+01
2.590000e-06	3.267264e-06	6.662073e-10	2.266440e+01	4.579810e+01
2.600000e-06	3.305033e-06	6.710099e-10	2.292640e+01	4.612380e+01
2.610000e-06	3.342498e-06	6.770853e-10	2.318629e+01	4.644307e+01
2.620000e-06	3.379695e-06	6.833717e-10	2.344431e+01	4.675580e+01
2.630000e-06	3.416710e-06	6.872717e-10	2.370108e+01	4.706184e+01
2.640000e-06	3.453517e-06	6.900338e-10	2.395640e+01	4.736103e+01
2.650000e-06	3.490099e-06	6.918728e-10	2.421017e+01	4.765322e+01
2.660000e-06	3.526394e-06	6.936050e-10	2.446194e+01	4.793822e+01
2.670000e-06	3.562431e-06	6.946858e-10	2.471192e+01	4.821587e+01
2.680000e-06	3.598323e-06	6.964557e-10	2.496090e+01	4.848599e+01
2.690000e-06	3.634112e-06	7.003526e-10	2.520916e+01	4.874843e+01
2.700000e-06	3.669753e-06	7.059399e-10	2.545639e+01	4.900302e+01
2.710000e-06	3.705177e-06	7.097910e-10	2.570213e+01	4.924963e+01
2.720000e-06	3.740390e-06	7.121616e-10	2.594639e+01	4.948814e+01
2.730000e-06	3.775325e-06	7.160501e-10	2.618873e+01	4.971845e+01
2.740000e-06	3.809875e-06	7.187783e-10	2.642840e+01	4.994048e+01
2.750000e-06	3.843973e-06	7.198234e-10	2.666492e+01	5.015419e+01
2.760000e-06	3.877625e-06	7.219143e-10	2.689837e+01	5.035955e+01
2.770000e-06	3.910877e-06	7.266831e-10	2.712903e+01	5.055656e+01
2.780000e-06	3.943669e-06	7.320145e-10	2.735650e+01	5.074527e+01
2.790000e-06	3.976044e-06	7.399515e-10	2.758108e+01	5.092574e+01
2.800000e-06	4.008113e-06	7.478211e-10	2.780354e+01	5.109808e+01
2.810000e-06	4.039973e-06	7.536324e-10	2.802454e+01	5.126241e+01
2.820000e-06	4.071723e-06	7.575526e-10	2.824478e+01	5.141891e+01
2.830000e-06	4.103284e-06	7.560111e-10	2.846372e+01	5.156776e+01
2.840000e-06	4.134601e-06	7.506869e-10	2.868096e+01	5.170920e+01
2.850000e-06	4.165694e-06	7.459905e-10	2.889664e+01	5.184347e+01
2.860000e-06	4.196487e-06	7.488680e-10	2.911025e+01	5.197084e+01
2.870000e-06	4.226973e-06	7.548922e-10	2.932173e+01	5.209163e+01
2.880000e-06	4.257201e-06	7.614149e-10	2.953141e+01	5.220614e+01
2.890000e-06	4.287142e-06	7.679923e-10	2.973911e+01	5.231472e+01
2.900000e-06	4.316722e-06	7.713789e-10	2.994430e+01	5.241773e+01
