# Temperatura_=_-0.3
# Concentracion g/m^3_=_1620.0
# C_Vs_to_Am_M_A/Vsm_=_65563218390.804596
# pendiente_HvsI_1/m_=_3716.3
# ordenada_HvsI_A/m_=_1297.0
# frecuencia_Hz_=_135104.19353644972

Tiempo_(s)	Campo_(V.s)	Magnetizacion_(V.s)	Campo_(kA/m)	Magnetizacion_(A/m)
0.000000e+00	-5.515193e-06	-1.407308e-09	-3.837723e+01	-9.183427e+01
1.000000e-08	-5.515329e-06	-1.405714e-09	-3.837818e+01	-9.185104e+01
2.000000e-08	-5.515216e-06	-1.406665e-09	-3.837739e+01	-9.186688e+01
3.000000e-08	-5.514658e-06	-1.407480e-09	-3.837351e+01	-9.188170e+01
4.000000e-08	-5.513546e-06	-1.407593e-09	-3.836577e+01	-9.189541e+01
5.000000e-08	-5.511887e-06	-1.404692e-09	-3.835423e+01	-9.190788e+01
6.000000e-08	-5.509578e-06	-1.389277e-09	-3.833816e+01	-9.191900e+01
7.000000e-08	-5.506654e-06	-1.384538e-09	-3.831782e+01	-9.192862e+01
8.000000e-08	-5.503353e-06	-1.393902e-09	-3.829485e+01	-9.193659e+01
9.000000e-08	-5.499633e-06	-1.413621e-09	-3.826896e+01	-9.194274e+01
1.000000e-07	-5.495540e-06	-1.428376e-09	-3.824048e+01	-9.194690e+01
1.100000e-07	-5.491147e-06	-1.427558e-09	-3.820991e+01	-9.194889e+01
1.200000e-07	-5.486469e-06	-1.347464e-09	-3.817736e+01	-9.194852e+01
1.300000e-07	-5.481485e-06	-1.372581e-09	-3.814268e+01	-9.194559e+01
1.400000e-07	-5.476142e-06	-1.381179e-09	-3.810550e+01	-9.193991e+01
1.500000e-07	-5.470501e-06	-1.409320e-09	-3.806625e+01	-9.193127e+01
1.600000e-07	-5.464430e-06	-1.340585e-09	-3.802400e+01	-9.191947e+01
1.700000e-07	-5.457916e-06	-1.351143e-09	-3.797868e+01	-9.190430e+01
1.800000e-07	-5.450988e-06	-1.401757e-09	-3.793046e+01	-9.188556e+01
1.900000e-07	-5.443672e-06	-1.424438e-09	-3.787956e+01	-9.186306e+01
2.000000e-07	-5.436135e-06	-1.405977e-09	-3.782711e+01	-9.183659e+01
2.100000e-07	-5.428394e-06	-1.407568e-09	-3.777325e+01	-9.180596e+01
2.200000e-07	-5.420304e-06	-1.453129e-09	-3.771695e+01	-9.177099e+01
2.300000e-07	-5.411807e-06	-1.446195e-09	-3.765783e+01	-9.173150e+01
2.400000e-07	-5.402818e-06	-1.438653e-09	-3.759528e+01	-9.168733e+01
2.500000e-07	-5.393125e-06	-1.407586e-09	-3.752783e+01	-9.163831e+01
2.600000e-07	-5.382746e-06	-1.432691e-09	-3.745561e+01	-9.158429e+01
2.700000e-07	-5.371809e-06	-1.404375e-09	-3.737950e+01	-9.152514e+01
2.800000e-07	-5.360403e-06	-1.404555e-09	-3.730013e+01	-9.146073e+01
2.900000e-07	-5.348626e-06	-1.383502e-09	-3.721819e+01	-9.139094e+01
3.000000e-07	-5.336531e-06	-1.419701e-09	-3.713402e+01	-9.131568e+01
3.100000e-07	-5.324066e-06	-1.401102e-09	-3.704729e+01	-9.123486e+01
3.200000e-07	-5.311192e-06	-1.403994e-09	-3.695770e+01	-9.114840e+01
3.300000e-07	-5.297856e-06	-1.371234e-09	-3.686491e+01	-9.105623e+01
3.400000e-07	-5.284152e-06	-1.387546e-09	-3.676955e+01	-9.095832e+01
3.500000e-07	-5.270216e-06	-1.377374e-09	-3.667257e+01	-9.085463e+01
3.600000e-07	-5.255872e-06	-1.374145e-09	-3.657276e+01	-9.074514e+01
3.700000e-07	-5.240885e-06	-1.356155e-09	-3.646847e+01	-9.062983e+01
3.800000e-07	-5.225286e-06	-1.392236e-09	-3.635993e+01	-9.050871e+01
3.900000e-07	-5.209135e-06	-1.390036e-09	-3.624755e+01	-9.038181e+01
4.000000e-07	-5.192573e-06	-1.356728e-09	-3.613230e+01	-9.024914e+01
4.100000e-07	-5.175742e-06	-1.363126e-09	-3.601518e+01	-9.011076e+01
4.200000e-07	-5.158558e-06	-1.390590e-09	-3.589560e+01	-8.996671e+01
4.300000e-07	-5.141038e-06	-1.356980e-09	-3.577370e+01	-8.981705e+01
4.400000e-07	-5.123264e-06	-1.333610e-09	-3.565002e+01	-8.966186e+01
4.500000e-07	-5.105149e-06	-1.387553e-09	-3.552396e+01	-8.950122e+01
4.600000e-07	-5.086588e-06	-1.370626e-09	-3.539481e+01	-8.933522e+01
4.700000e-07	-5.067568e-06	-1.320392e-09	-3.526246e+01	-8.916396e+01
4.800000e-07	-5.048192e-06	-1.347266e-09	-3.512763e+01	-8.898754e+01
4.900000e-07	-5.028601e-06	-1.384547e-09	-3.499130e+01	-8.880608e+01
5.000000e-07	-5.008823e-06	-1.318474e-09	-3.485368e+01	-8.861968e+01
5.100000e-07	-4.988777e-06	-1.321699e-09	-3.471419e+01	-8.842849e+01
5.200000e-07	-4.968411e-06	-1.359621e-09	-3.457247e+01	-8.823261e+01
5.300000e-07	-4.947693e-06	-1.332112e-09	-3.442831e+01	-8.803219e+01
5.400000e-07	-4.926633e-06	-1.302519e-09	-3.428176e+01	-8.782735e+01
5.500000e-07	-4.905223e-06	-1.363013e-09	-3.413278e+01	-8.761824e+01
5.600000e-07	-4.883477e-06	-1.334217e-09	-3.398147e+01	-8.740499e+01
5.700000e-07	-4.861461e-06	-1.282678e-09	-3.382827e+01	-8.718774e+01
5.800000e-07	-4.839094e-06	-1.308073e-09	-3.367263e+01	-8.696663e+01
5.900000e-07	-4.816295e-06	-1.328485e-09	-3.351398e+01	-8.674180e+01
6.000000e-07	-4.793122e-06	-1.271742e-09	-3.335273e+01	-8.651339e+01
6.100000e-07	-4.769723e-06	-1.292137e-09	-3.318991e+01	-8.628153e+01
6.200000e-07	-4.746109e-06	-1.319720e-09	-3.302559e+01	-8.604638e+01
6.300000e-07	-4.722257e-06	-1.285173e-09	-3.285963e+01	-8.580805e+01
6.400000e-07	-4.698155e-06	-1.269781e-09	-3.269191e+01	-8.556668e+01
6.500000e-07	-4.673653e-06	-1.300850e-09	-3.252141e+01	-8.532239e+01
6.600000e-07	-4.648676e-06	-1.272347e-09	-3.234761e+01	-8.507533e+01
6.700000e-07	-4.623257e-06	-1.253194e-09	-3.217074e+01	-8.482559e+01
6.800000e-07	-4.597235e-06	-1.274458e-09	-3.198967e+01	-8.457331e+01
6.900000e-07	-4.570591e-06	-1.267852e-09	-3.180426e+01	-8.431858e+01
7.000000e-07	-4.543511e-06	-1.247406e-09	-3.161582e+01	-8.406152e+01
7.100000e-07	-4.516150e-06	-1.265098e-09	-3.142544e+01	-8.380223e+01
7.200000e-07	-4.488603e-06	-1.265419e-09	-3.123375e+01	-8.354080e+01
7.300000e-07	-4.460895e-06	-1.239956e-09	-3.104095e+01	-8.327730e+01
7.400000e-07	-4.433050e-06	-1.249271e-09	-3.084719e+01	-8.301183e+01
7.500000e-07	-4.404974e-06	-1.252453e-09	-3.065183e+01	-8.274445e+01
7.600000e-07	-4.376600e-06	-1.230853e-09	-3.045439e+01	-8.247523e+01
7.700000e-07	-4.347851e-06	-1.221406e-09	-3.025433e+01	-8.220422e+01
7.800000e-07	-4.318715e-06	-1.227480e-09	-3.005159e+01	-8.193146e+01
7.900000e-07	-4.289276e-06	-1.208560e-09	-2.984674e+01	-8.165698e+01
8.000000e-07	-4.259563e-06	-1.206730e-09	-2.963998e+01	-8.138082e+01
8.100000e-07	-4.229593e-06	-1.218295e-09	-2.943144e+01	-8.110299e+01
8.200000e-07	-4.199294e-06	-1.216900e-09	-2.922061e+01	-8.082349e+01
8.300000e-07	-4.168672e-06	-1.200010e-09	-2.900753e+01	-8.054232e+01
8.400000e-07	-4.137822e-06	-1.204902e-09	-2.879285e+01	-8.025946e+01
8.500000e-07	-4.106716e-06	-1.190443e-09	-2.857641e+01	-7.997487e+01
8.600000e-07	-4.075317e-06	-1.170816e-09	-2.835792e+01	-7.968853e+01
8.700000e-07	-4.043704e-06	-1.166161e-09	-2.813794e+01	-7.940036e+01
8.800000e-07	-4.011938e-06	-1.173749e-09	-2.791690e+01	-7.911032e+01
8.900000e-07	-3.980034e-06	-1.161507e-09	-2.769489e+01	-7.881833e+01
9.000000e-07	-3.947947e-06	-1.162296e-09	-2.747162e+01	-7.852429e+01
9.100000e-07	-3.915528e-06	-1.165892e-09	-2.724603e+01	-7.822811e+01
9.200000e-07	-3.882740e-06	-1.155326e-09	-2.701788e+01	-7.792968e+01
9.300000e-07	-3.849522e-06	-1.140116e-09	-2.678673e+01	-7.762887e+01
9.400000e-07	-3.815742e-06	-1.142772e-09	-2.655168e+01	-7.732555e+01
9.500000e-07	-3.781500e-06	-1.137207e-09	-2.631341e+01	-7.701957e+01
9.600000e-07	-3.746762e-06	-1.125900e-09	-2.607169e+01	-7.671078e+01
9.700000e-07	-3.711653e-06	-1.123558e-09	-2.582738e+01	-7.639902e+01
9.800000e-07	-3.676374e-06	-1.122153e-09	-2.558189e+01	-7.608411e+01
9.900000e-07	-3.640856e-06	-1.110596e-09	-2.533474e+01	-7.576586e+01
1.000000e-06	-3.605212e-06	-1.104969e-09	-2.508672e+01	-7.544410e+01
1.010000e-06	-3.569502e-06	-1.107099e-09	-2.483823e+01	-7.511862e+01
1.020000e-06	-3.533706e-06	-1.102658e-09	-2.458914e+01	-7.478922e+01
1.030000e-06	-3.497730e-06	-1.099985e-09	-2.433880e+01	-7.445569e+01
1.040000e-06	-3.461500e-06	-1.099341e-09	-2.408670e+01	-7.411782e+01
1.050000e-06	-3.425012e-06	-1.091472e-09	-2.383280e+01	-7.377539e+01
1.060000e-06	-3.388217e-06	-1.076589e-09	-2.357677e+01	-7.342819e+01
1.070000e-06	-3.351119e-06	-1.071110e-09	-2.331862e+01	-7.307600e+01
1.080000e-06	-3.313699e-06	-1.065003e-09	-2.305823e+01	-7.271859e+01
1.090000e-06	-3.276015e-06	-1.059860e-09	-2.279601e+01	-7.235575e+01
1.100000e-06	-3.238216e-06	-1.056242e-09	-2.253299e+01	-7.198726e+01
1.110000e-06	-3.200295e-06	-1.054707e-09	-2.226911e+01	-7.161291e+01
1.120000e-06	-3.162101e-06	-1.045619e-09	-2.200334e+01	-7.123249e+01
1.130000e-06	-3.123649e-06	-1.041271e-09	-2.173578e+01	-7.084579e+01
1.140000e-06	-3.084932e-06	-1.035169e-09	-2.146637e+01	-7.045262e+01
1.150000e-06	-3.045912e-06	-1.025382e-09	-2.119485e+01	-7.005277e+01
1.160000e-06	-3.006721e-06	-1.011341e-09	-2.092214e+01	-6.964608e+01
1.170000e-06	-2.967411e-06	-1.004672e-09	-2.064860e+01	-6.923234e+01
1.180000e-06	-2.927990e-06	-9.981513e-10	-2.037429e+01	-6.881141e+01
1.190000e-06	-2.888403e-06	-9.943255e-10	-2.009883e+01	-6.838310e+01
1.200000e-06	-2.848705e-06	-9.903391e-10	-1.982259e+01	-6.794728e+01
1.210000e-06	-2.808938e-06	-9.858805e-10	-1.954587e+01	-6.750380e+01
1.220000e-06	-2.768958e-06	-9.764240e-10	-1.926767e+01	-6.705252e+01
1.230000e-06	-2.728729e-06	-9.685067e-10	-1.898775e+01	-6.659331e+01
1.240000e-06	-2.688375e-06	-9.609955e-10	-1.870694e+01	-6.612606e+01
1.250000e-06	-2.647873e-06	-9.508695e-10	-1.842511e+01	-6.565066e+01
1.260000e-06	-2.607101e-06	-9.430353e-10	-1.814140e+01	-6.516700e+01
1.270000e-06	-2.566097e-06	-9.378061e-10	-1.785608e+01	-6.467500e+01
1.280000e-06	-2.524779e-06	-9.302554e-10	-1.756856e+01	-6.417455e+01
1.290000e-06	-2.483064e-06	-9.219715e-10	-1.727830e+01	-6.366558e+01
1.300000e-06	-2.440978e-06	-9.136863e-10	-1.698544e+01	-6.314801e+01
1.310000e-06	-2.398631e-06	-9.058457e-10	-1.669077e+01	-6.262176e+01
1.320000e-06	-2.356107e-06	-8.983048e-10	-1.639487e+01	-6.208675e+01
1.330000e-06	-2.313348e-06	-8.934583e-10	-1.609734e+01	-6.154290e+01
1.340000e-06	-2.270316e-06	-8.898217e-10	-1.579790e+01	-6.099015e+01
1.350000e-06	-2.227025e-06	-8.813042e-10	-1.549666e+01	-6.042840e+01
1.360000e-06	-2.183598e-06	-8.695782e-10	-1.519448e+01	-5.985758e+01
1.370000e-06	-2.140077e-06	-8.557719e-10	-1.489163e+01	-5.927759e+01
1.380000e-06	-2.096435e-06	-8.440027e-10	-1.458795e+01	-5.868834e+01
1.390000e-06	-2.052683e-06	-8.319345e-10	-1.428350e+01	-5.808971e+01
1.400000e-06	-2.008878e-06	-8.237211e-10	-1.397869e+01	-5.748159e+01
1.410000e-06	-1.965064e-06	-8.162960e-10	-1.367382e+01	-5.686385e+01
1.420000e-06	-1.921210e-06	-8.100786e-10	-1.336866e+01	-5.623635e+01
1.430000e-06	-1.877313e-06	-8.021345e-10	-1.306320e+01	-5.559892e+01
1.440000e-06	-1.833307e-06	-7.923137e-10	-1.275699e+01	-5.495139e+01
1.450000e-06	-1.789159e-06	-7.785105e-10	-1.244979e+01	-5.429356e+01
1.460000e-06	-1.744894e-06	-7.631045e-10	-1.214177e+01	-5.362524e+01
1.470000e-06	-1.700394e-06	-7.468004e-10	-1.183212e+01	-5.294618e+01
1.480000e-06	-1.655707e-06	-7.327135e-10	-1.152116e+01	-5.225614e+01
1.490000e-06	-1.610939e-06	-7.204060e-10	-1.120965e+01	-5.155486e+01
1.500000e-06	-1.566053e-06	-7.116581e-10	-1.089731e+01	-5.084204e+01
1.510000e-06	-1.521012e-06	-7.033024e-10	-1.058390e+01	-5.011739e+01
1.520000e-06	-1.475941e-06	-6.928082e-10	-1.027027e+01	-4.938057e+01
1.530000e-06	-1.430860e-06	-6.803895e-10	-9.956577e+00	-4.863124e+01
1.540000e-06	-1.385636e-06	-6.682470e-10	-9.641892e+00	-4.786904e+01
1.550000e-06	-1.340275e-06	-6.520999e-10	-9.326248e+00	-4.709360e+01
1.560000e-06	-1.294825e-06	-6.339494e-10	-9.009981e+00	-4.630452e+01
1.570000e-06	-1.249242e-06	-6.156726e-10	-8.692799e+00	-4.550140e+01
1.580000e-06	-1.203521e-06	-6.009597e-10	-8.374651e+00	-4.468383e+01
1.590000e-06	-1.157733e-06	-5.877492e-10	-8.056034e+00	-4.385139e+01
1.600000e-06	-1.111876e-06	-5.753590e-10	-7.736943e+00	-4.300364e+01
1.610000e-06	-1.065940e-06	-5.650049e-10	-7.417296e+00	-4.214016e+01
1.620000e-06	-1.019959e-06	-5.541706e-10	-7.097340e+00	-4.126051e+01
1.630000e-06	-9.739610e-07	-5.415361e-10	-6.777266e+00	-4.036427e+01
1.640000e-06	-9.278652e-07	-5.240399e-10	-6.456510e+00	-3.945102e+01
1.650000e-06	-8.816589e-07	-5.049862e-10	-6.134986e+00	-3.852034e+01
1.660000e-06	-8.354147e-07	-4.864008e-10	-5.813197e+00	-3.757183e+01
1.670000e-06	-7.891225e-07	-4.707012e-10	-5.491075e+00	-3.660512e+01
1.680000e-06	-7.427944e-07	-4.556392e-10	-5.168703e+00	-3.561985e+01
1.690000e-06	-6.964540e-07	-4.449589e-10	-4.846245e+00	-3.461569e+01
1.700000e-06	-6.501003e-07	-4.343749e-10	-4.523695e+00	-3.359232e+01
1.710000e-06	-6.036984e-07	-4.205474e-10	-4.200809e+00	-3.254949e+01
1.720000e-06	-5.572070e-07	-4.030227e-10	-3.877301e+00	-3.148695e+01
1.730000e-06	-5.106836e-07	-3.855182e-10	-3.553570e+00	-3.040451e+01
1.740000e-06	-4.641260e-07	-3.683257e-10	-3.229601e+00	-2.930202e+01
1.750000e-06	-4.175146e-07	-3.524593e-10	-2.905258e+00	-2.817938e+01
1.760000e-06	-3.708875e-07	-3.377815e-10	-2.580805e+00	-2.703654e+01
1.770000e-06	-3.242498e-07	-3.227735e-10	-2.256278e+00	-2.587349e+01
1.780000e-06	-2.775868e-07	-3.070162e-10	-1.931576e+00	-2.469030e+01
1.790000e-06	-2.308543e-07	-2.886164e-10	-1.606390e+00	-2.348709e+01
1.800000e-06	-1.840553e-07	-2.667664e-10	-1.280741e+00	-2.226402e+01
1.810000e-06	-1.372115e-07	-2.448755e-10	-9.547801e-01	-2.102136e+01
1.820000e-06	-9.040824e-08	-2.261680e-10	-6.291019e-01	-1.975939e+01
1.830000e-06	-4.363370e-08	-2.113447e-10	-3.036233e-01	-1.847850e+01
1.840000e-06	3.273627e-09	-1.973537e-10	2.277939e-02	-1.717912e+01
1.850000e-06	5.013206e-08	-1.837530e-10	3.488418e-01	-1.586176e+01
1.860000e-06	9.689027e-08	-1.668985e-10	6.742068e-01	-1.452699e+01
1.870000e-06	1.437215e-07	-1.455180e-10	1.000080e+00	-1.317544e+01
1.880000e-06	1.904624e-07	-1.212172e-10	1.325324e+00	-1.180781e+01
1.890000e-06	2.371235e-07	-9.760001e-11	1.650014e+00	-1.042489e+01
1.900000e-06	2.838040e-07	-7.746864e-11	1.974838e+00	-9.027480e+00
1.910000e-06	3.304640e-07	-5.927340e-11	2.299519e+00	-7.616483e+00
1.920000e-06	3.771039e-07	-4.491402e-11	2.624061e+00	-6.192838e+00
1.930000e-06	4.236937e-07	-3.034958e-11	2.948254e+00	-4.757543e+00
1.940000e-06	4.702593e-07	-1.537677e-11	3.272279e+00	-3.311647e+00
1.950000e-06	5.167794e-07	1.446557e-12	3.595988e+00	-1.856244e+00
1.960000e-06	5.631381e-07	2.103733e-11	3.918572e+00	-3.924714e-01
1.970000e-06	6.094799e-07	4.321921e-11	4.241040e+00	1.078497e+00
1.980000e-06	6.558796e-07	6.600765e-11	4.563910e+00	2.555452e+00
1.990000e-06	7.022468e-07	8.955913e-11	4.886554e+00	4.037157e+00
2.000000e-06	7.485694e-07	1.131693e-10	5.208888e+00	5.522353e+00
2.010000e-06	7.948911e-07	1.351954e-10	5.531216e+00	7.009763e+00
2.020000e-06	8.411437e-07	1.538717e-10	5.853062e+00	8.498095e+00
2.030000e-06	8.872466e-07	1.689885e-10	6.173867e+00	9.986055e+00
2.040000e-06	9.333123e-07	1.855323e-10	6.494413e+00	1.147234e+01
2.050000e-06	9.793445e-07	2.057732e-10	6.814727e+00	1.295567e+01
2.060000e-06	1.025340e-06	2.290573e-10	7.134783e+00	1.443474e+01
2.070000e-06	1.071251e-06	2.564632e-10	7.454251e+00	1.590830e+01
2.080000e-06	1.117038e-06	2.836142e-10	7.772859e+00	1.737509e+01
2.090000e-06	1.162716e-06	3.075284e-10	8.090706e+00	1.883390e+01
2.100000e-06	1.208355e-06	3.289846e-10	8.408290e+00	2.028353e+01
2.110000e-06	1.253951e-06	3.473437e-10	8.725565e+00	2.172283e+01
2.120000e-06	1.299394e-06	3.628438e-10	9.041781e+00	2.315068e+01
2.130000e-06	1.344694e-06	3.788928e-10	9.356995e+00	2.456603e+01
2.140000e-06	1.389936e-06	3.967529e-10	9.671809e+00	2.596784e+01
2.150000e-06	1.435140e-06	4.169435e-10	9.986360e+00	2.735514e+01
2.160000e-06	1.480185e-06	4.394068e-10	1.029980e+01	2.872703e+01
2.170000e-06	1.525107e-06	4.618886e-10	1.061239e+01	3.008266e+01
2.180000e-06	1.569900e-06	4.824617e-10	1.092408e+01	3.142122e+01
2.190000e-06	1.614517e-06	5.011030e-10	1.123455e+01	3.274199e+01
2.200000e-06	1.659031e-06	5.195462e-10	1.154429e+01	3.404430e+01
2.210000e-06	1.703435e-06	5.378221e-10	1.185328e+01	3.532755e+01
2.220000e-06	1.747778e-06	5.546698e-10	1.216184e+01	3.659121e+01
2.230000e-06	1.792022e-06	5.703708e-10	1.246971e+01	3.783481e+01
2.240000e-06	1.836035e-06	5.849519e-10	1.277597e+01	3.905795e+01
2.250000e-06	1.879899e-06	5.990146e-10	1.308120e+01	4.026029e+01
2.260000e-06	1.923718e-06	6.142522e-10	1.338611e+01	4.144156e+01
2.270000e-06	1.967503e-06	6.315596e-10	1.369078e+01	4.260155e+01
2.280000e-06	2.011254e-06	6.491808e-10	1.399522e+01	4.374012e+01
2.290000e-06	2.054953e-06	6.655619e-10	1.429931e+01	4.485719e+01
2.300000e-06	2.098587e-06	6.822790e-10	1.460292e+01	4.595271e+01
2.310000e-06	2.142164e-06	6.965358e-10	1.490616e+01	4.702673e+01
2.320000e-06	2.185686e-06	7.092361e-10	1.520901e+01	4.807931e+01
2.330000e-06	2.229141e-06	7.188437e-10	1.551138e+01	4.911057e+01
2.340000e-06	2.272500e-06	7.297602e-10	1.581309e+01	5.012070e+01
2.350000e-06	2.315649e-06	7.424817e-10	1.611334e+01	5.110989e+01
2.360000e-06	2.358494e-06	7.554981e-10	1.641148e+01	5.207841e+01
2.370000e-06	2.401013e-06	7.703615e-10	1.670734e+01	5.302652e+01
2.380000e-06	2.443278e-06	7.865986e-10	1.700145e+01	5.395454e+01
2.390000e-06	2.485241e-06	8.041879e-10	1.729344e+01	5.486280e+01
2.400000e-06	2.526841e-06	8.177294e-10	1.758291e+01	5.575167e+01
2.410000e-06	2.568083e-06	8.297958e-10	1.786990e+01	5.662152e+01
2.420000e-06	2.608982e-06	8.402518e-10	1.815449e+01	5.747274e+01
2.430000e-06	2.649632e-06	8.478819e-10	1.843735e+01	5.830573e+01
2.440000e-06	2.690031e-06	8.557512e-10	1.871846e+01	5.912090e+01
2.450000e-06	2.730229e-06	8.666704e-10	1.899818e+01	5.991867e+01
2.460000e-06	2.770284e-06	8.797792e-10	1.927690e+01	6.069943e+01
2.470000e-06	2.810223e-06	8.949287e-10	1.955482e+01	6.146361e+01
2.480000e-06	2.850026e-06	9.097806e-10	1.983179e+01	6.221160e+01
2.490000e-06	2.889674e-06	9.216971e-10	2.010767e+01	6.294380e+01
2.500000e-06	2.929201e-06	9.311944e-10	2.038272e+01	6.366060e+01
2.510000e-06	2.968612e-06	9.382160e-10	2.065696e+01	6.436237e+01
2.520000e-06	3.007891e-06	9.445030e-10	2.093028e+01	6.504948e+01
2.530000e-06	3.046888e-06	9.509625e-10	2.120164e+01	6.572225e+01
2.540000e-06	3.085599e-06	9.570983e-10	2.147101e+01	6.638103e+01
2.550000e-06	3.124089e-06	9.656199e-10	2.173884e+01	6.702612e+01
2.560000e-06	3.162305e-06	9.763126e-10	2.200476e+01	6.765782e+01
2.570000e-06	3.200329e-06	9.876082e-10	2.226935e+01	6.827641e+01
2.580000e-06	3.238196e-06	9.993687e-10	2.253285e+01	6.888214e+01
2.590000e-06	3.275932e-06	1.011069e-09	2.279543e+01	6.947526e+01
2.600000e-06	3.313519e-06	1.020591e-09	2.305698e+01	7.005599e+01
2.610000e-06	3.350845e-06	1.027012e-09	2.331671e+01	7.062453e+01
2.620000e-06	3.387850e-06	1.032010e-09	2.357421e+01	7.118108e+01
2.630000e-06	3.424598e-06	1.037460e-09	2.382992e+01	7.172583e+01
2.640000e-06	3.461117e-06	1.042722e-09	2.408403e+01	7.225893e+01
2.650000e-06	3.497416e-06	1.047779e-09	2.433662e+01	7.278053e+01
2.660000e-06	3.533494e-06	1.054540e-09	2.458767e+01	7.329079e+01
2.670000e-06	3.569369e-06	1.060974e-09	2.483730e+01	7.378984e+01
2.680000e-06	3.605119e-06	1.068193e-09	2.508607e+01	7.427781e+01
2.690000e-06	3.640748e-06	1.078062e-09	2.533399e+01	7.475483e+01
2.700000e-06	3.676242e-06	1.088977e-09	2.558097e+01	7.522101e+01
2.710000e-06	3.711539e-06	1.096775e-09	2.582658e+01	7.567647e+01
2.720000e-06	3.746513e-06	1.103914e-09	2.606995e+01	7.612133e+01
2.730000e-06	3.781178e-06	1.109500e-09	2.631116e+01	7.655572e+01
2.740000e-06	3.815444e-06	1.113286e-09	2.654960e+01	7.697976e+01
2.750000e-06	3.849133e-06	1.117397e-09	2.678402e+01	7.739358e+01
2.760000e-06	3.882395e-06	1.123896e-09	2.701548e+01	7.779730e+01
2.770000e-06	3.915327e-06	1.132220e-09	2.724464e+01	7.819108e+01
2.780000e-06	3.947787e-06	1.141571e-09	2.747050e+01	7.857505e+01
2.790000e-06	3.979864e-06	1.152272e-09	2.769371e+01	7.894938e+01
2.800000e-06	4.011760e-06	1.162925e-09	2.791566e+01	7.931423e+01
2.810000e-06	4.043506e-06	1.170034e-09	2.813657e+01	7.966978e+01
2.820000e-06	4.075109e-06	1.173098e-09	2.835647e+01	8.001621e+01
2.830000e-06	4.106537e-06	1.172064e-09	2.857516e+01	8.035372e+01
2.840000e-06	4.137706e-06	1.169864e-09	2.879205e+01	8.068251e+01
2.850000e-06	4.168539e-06	1.173156e-09	2.900660e+01	8.100279e+01
2.860000e-06	4.199060e-06	1.180310e-09	2.921898e+01	8.131479e+01
2.870000e-06	4.229217e-06	1.186769e-09	2.942883e+01	8.161874e+01
2.880000e-06	4.259061e-06	1.195187e-09	2.963650e+01	8.191487e+01
2.890000e-06	4.288739e-06	1.203639e-09	2.984301e+01	8.220344e+01
2.900000e-06	4.318227e-06	1.208978e-09	3.004820e+01	8.248469e+01
