# Temperatura_=_-0.2
# Concentracion g/m^3_=_1620.0
# C_Vs_to_Am_M_A/Vsm_=_65563218390.804596
# pendiente_HvsI_1/m_=_3716.3
# ordenada_HvsI_A/m_=_1297.0
# frecuencia_Hz_=_135107.8712370477

Tiempo_(s)	Campo_(V.s)	Magnetizacion_(V.s)	Campo_(kA/m)	Magnetizacion_(A/m)
0.000000e+00	-5.523079e-06	-1.001160e-09	-3.837325e+01	-6.705519e+01
1.000000e-08	-5.523297e-06	-1.003277e-09	-3.837477e+01	-6.703010e+01
2.000000e-08	-5.523226e-06	-1.002310e-09	-3.837428e+01	-6.700385e+01
3.000000e-08	-5.522786e-06	-9.978727e-10	-3.837122e+01	-6.697660e+01
4.000000e-08	-5.521884e-06	-9.888410e-10	-3.836495e+01	-6.694853e+01
5.000000e-08	-5.520404e-06	-9.808316e-10	-3.835467e+01	-6.691981e+01
6.000000e-08	-5.518387e-06	-9.755803e-10	-3.834066e+01	-6.689059e+01
7.000000e-08	-5.515857e-06	-9.830306e-10	-3.832308e+01	-6.686101e+01
8.000000e-08	-5.512781e-06	-1.009793e-09	-3.830171e+01	-6.683121e+01
9.000000e-08	-5.509111e-06	-9.882648e-10	-3.827621e+01	-6.680130e+01
1.000000e-07	-5.505057e-06	-9.130576e-10	-3.824804e+01	-6.677140e+01
1.100000e-07	-5.500843e-06	-9.434344e-10	-3.821876e+01	-6.674157e+01
1.200000e-07	-5.496367e-06	-1.031966e-09	-3.818766e+01	-6.671191e+01
1.300000e-07	-5.491482e-06	-1.025268e-09	-3.815372e+01	-6.668246e+01
1.400000e-07	-5.486258e-06	-9.407623e-10	-3.811743e+01	-6.665326e+01
1.500000e-07	-5.480722e-06	-9.163718e-10	-3.807897e+01	-6.662435e+01
1.600000e-07	-5.474761e-06	-1.020642e-09	-3.803755e+01	-6.659572e+01
1.700000e-07	-5.468322e-06	-1.005822e-09	-3.799282e+01	-6.656737e+01
1.800000e-07	-5.461496e-06	-9.376120e-10	-3.794539e+01	-6.653926e+01
1.900000e-07	-5.454362e-06	-9.176697e-10	-3.789582e+01	-6.651137e+01
2.000000e-07	-5.446831e-06	-1.002485e-09	-3.784350e+01	-6.648362e+01
2.100000e-07	-5.439042e-06	-1.016529e-09	-3.778938e+01	-6.645595e+01
2.200000e-07	-5.431091e-06	-9.829664e-10	-3.773414e+01	-6.642827e+01
2.300000e-07	-5.422777e-06	-9.774825e-10	-3.767638e+01	-6.640047e+01
2.400000e-07	-5.413923e-06	-1.020615e-09	-3.761486e+01	-6.637244e+01
2.500000e-07	-5.404496e-06	-1.039872e-09	-3.754936e+01	-6.634406e+01
2.600000e-07	-5.394527e-06	-1.022877e-09	-3.748010e+01	-6.631518e+01
2.700000e-07	-5.383967e-06	-1.027470e-09	-3.740673e+01	-6.628565e+01
2.800000e-07	-5.372849e-06	-1.041482e-09	-3.732949e+01	-6.625533e+01
2.900000e-07	-5.361341e-06	-1.052449e-09	-3.724953e+01	-6.622404e+01
3.000000e-07	-5.349460e-06	-1.026424e-09	-3.716699e+01	-6.619161e+01
3.100000e-07	-5.337135e-06	-1.022528e-09	-3.708135e+01	-6.615787e+01
3.200000e-07	-5.324406e-06	-1.030926e-09	-3.699291e+01	-6.612263e+01
3.300000e-07	-5.311316e-06	-1.057923e-09	-3.690197e+01	-6.608570e+01
3.400000e-07	-5.297828e-06	-1.018739e-09	-3.680826e+01	-6.604691e+01
3.500000e-07	-5.283943e-06	-1.009991e-09	-3.671178e+01	-6.600606e+01
3.600000e-07	-5.269719e-06	-1.033632e-09	-3.661296e+01	-6.596296e+01
3.700000e-07	-5.255082e-06	-1.038170e-09	-3.651126e+01	-6.591743e+01
3.800000e-07	-5.239792e-06	-9.871763e-10	-3.640504e+01	-6.586929e+01
3.900000e-07	-5.224034e-06	-1.027703e-09	-3.629555e+01	-6.581836e+01
4.000000e-07	-5.207990e-06	-1.058352e-09	-3.618408e+01	-6.576447e+01
4.100000e-07	-5.191442e-06	-9.967701e-10	-3.606911e+01	-6.570745e+01
4.200000e-07	-5.174428e-06	-9.730031e-10	-3.595089e+01	-6.564714e+01
4.300000e-07	-5.157133e-06	-1.056002e-09	-3.583074e+01	-6.558339e+01
4.400000e-07	-5.139587e-06	-1.025187e-09	-3.570883e+01	-6.551606e+01
4.500000e-07	-5.121617e-06	-9.448903e-10	-3.558398e+01	-6.544502e+01
4.600000e-07	-5.103217e-06	-1.004348e-09	-3.545614e+01	-6.537015e+01
4.700000e-07	-5.084484e-06	-1.049597e-09	-3.532599e+01	-6.529134e+01
4.800000e-07	-5.065371e-06	-9.601913e-10	-3.519319e+01	-6.520850e+01
4.900000e-07	-5.045941e-06	-9.648519e-10	-3.505820e+01	-6.512154e+01
5.000000e-07	-5.026291e-06	-1.040978e-09	-3.492167e+01	-6.503039e+01
5.100000e-07	-5.006364e-06	-9.838000e-10	-3.478323e+01	-6.493501e+01
5.200000e-07	-4.986090e-06	-9.468027e-10	-3.464236e+01	-6.483534e+01
5.300000e-07	-4.965518e-06	-1.021850e-09	-3.449943e+01	-6.473137e+01
5.400000e-07	-4.944606e-06	-1.000704e-09	-3.435414e+01	-6.462308e+01
5.500000e-07	-4.923274e-06	-9.301132e-10	-3.420593e+01	-6.451048e+01
5.600000e-07	-4.901599e-06	-9.971599e-10	-3.405534e+01	-6.439359e+01
5.700000e-07	-4.879604e-06	-1.021338e-09	-3.390252e+01	-6.427244e+01
5.800000e-07	-4.857252e-06	-9.462537e-10	-3.374722e+01	-6.414708e+01
5.900000e-07	-4.834561e-06	-9.594802e-10	-3.358957e+01	-6.401759e+01
6.000000e-07	-4.811535e-06	-1.008386e-09	-3.342959e+01	-6.388403e+01
6.100000e-07	-4.788210e-06	-9.522523e-10	-3.326753e+01	-6.374651e+01
6.200000e-07	-4.764633e-06	-9.425226e-10	-3.310372e+01	-6.360512e+01
6.300000e-07	-4.740802e-06	-9.827301e-10	-3.293815e+01	-6.346000e+01
6.400000e-07	-4.716704e-06	-9.578365e-10	-3.277072e+01	-6.331126e+01
6.500000e-07	-4.692346e-06	-9.330129e-10	-3.260149e+01	-6.315906e+01
6.600000e-07	-4.667695e-06	-9.711864e-10	-3.243022e+01	-6.300355e+01
6.700000e-07	-4.642588e-06	-9.547066e-10	-3.225578e+01	-6.284489e+01
6.800000e-07	-4.616884e-06	-9.246073e-10	-3.207719e+01	-6.268326e+01
6.900000e-07	-4.590598e-06	-9.445267e-10	-3.189456e+01	-6.251883e+01
7.000000e-07	-4.563803e-06	-9.488413e-10	-3.170840e+01	-6.235180e+01
7.100000e-07	-4.536567e-06	-9.214976e-10	-3.151917e+01	-6.218234e+01
7.200000e-07	-4.509083e-06	-9.385203e-10	-3.132822e+01	-6.201067e+01
7.300000e-07	-4.481469e-06	-9.448556e-10	-3.113636e+01	-6.183697e+01
7.400000e-07	-4.453668e-06	-9.210091e-10	-3.094320e+01	-6.166143e+01
7.500000e-07	-4.425642e-06	-9.256133e-10	-3.074848e+01	-6.148427e+01
7.600000e-07	-4.397266e-06	-9.374286e-10	-3.055133e+01	-6.130567e+01
7.700000e-07	-4.368564e-06	-9.163333e-10	-3.035192e+01	-6.112582e+01
7.800000e-07	-4.339606e-06	-9.160463e-10	-3.015072e+01	-6.094491e+01
7.900000e-07	-4.310329e-06	-9.321251e-10	-2.994731e+01	-6.076312e+01
8.000000e-07	-4.280711e-06	-9.174150e-10	-2.974153e+01	-6.058062e+01
8.100000e-07	-4.250779e-06	-9.061419e-10	-2.953357e+01	-6.039757e+01
8.200000e-07	-4.220542e-06	-9.205383e-10	-2.932349e+01	-6.021411e+01
8.300000e-07	-4.190030e-06	-9.170252e-10	-2.911150e+01	-6.003039e+01
8.400000e-07	-4.159296e-06	-8.998505e-10	-2.889796e+01	-5.984652e+01
8.500000e-07	-4.128294e-06	-9.107966e-10	-2.868256e+01	-5.966261e+01
8.600000e-07	-4.096983e-06	-9.156777e-10	-2.846502e+01	-5.947875e+01
8.700000e-07	-4.065463e-06	-9.007165e-10	-2.824603e+01	-5.929502e+01
8.800000e-07	-4.033796e-06	-8.975706e-10	-2.802602e+01	-5.911145e+01
8.900000e-07	-4.001962e-06	-9.048145e-10	-2.780484e+01	-5.892809e+01
9.000000e-07	-3.969913e-06	-8.878780e-10	-2.758217e+01	-5.874495e+01
9.100000e-07	-3.937564e-06	-8.790962e-10	-2.735742e+01	-5.856200e+01
9.200000e-07	-3.904937e-06	-8.881116e-10	-2.713073e+01	-5.837924e+01
9.300000e-07	-3.871884e-06	-8.872779e-10	-2.690108e+01	-5.819658e+01
9.400000e-07	-3.838326e-06	-8.761691e-10	-2.666792e+01	-5.801397e+01
9.500000e-07	-3.804390e-06	-8.839061e-10	-2.643215e+01	-5.783129e+01
9.600000e-07	-3.770066e-06	-8.855928e-10	-2.619367e+01	-5.764843e+01
9.700000e-07	-3.735314e-06	-8.752033e-10	-2.595222e+01	-5.746523e+01
9.800000e-07	-3.700228e-06	-8.708453e-10	-2.570845e+01	-5.728154e+01
9.900000e-07	-3.664947e-06	-8.732129e-10	-2.546332e+01	-5.709716e+01
1.000000e-06	-3.629452e-06	-8.643904e-10	-2.521671e+01	-5.691188e+01
1.010000e-06	-3.593717e-06	-8.593342e-10	-2.496843e+01	-5.672547e+01
1.020000e-06	-3.557820e-06	-8.626794e-10	-2.471903e+01	-5.653769e+01
1.030000e-06	-3.521777e-06	-8.604638e-10	-2.446861e+01	-5.634827e+01
1.040000e-06	-3.485565e-06	-8.529364e-10	-2.421702e+01	-5.615694e+01
1.050000e-06	-3.449108e-06	-8.515549e-10	-2.396372e+01	-5.596339e+01
1.060000e-06	-3.412340e-06	-8.456960e-10	-2.370826e+01	-5.576733e+01
1.070000e-06	-3.375265e-06	-8.366601e-10	-2.345067e+01	-5.556843e+01
1.080000e-06	-3.337943e-06	-8.355558e-10	-2.319137e+01	-5.536636e+01
1.090000e-06	-3.300442e-06	-8.364799e-10	-2.293081e+01	-5.516081e+01
1.100000e-06	-3.262713e-06	-8.307960e-10	-2.266868e+01	-5.495143e+01
1.110000e-06	-3.224660e-06	-8.239129e-10	-2.240430e+01	-5.473788e+01
1.120000e-06	-3.186335e-06	-8.191955e-10	-2.213802e+01	-5.451982e+01
1.130000e-06	-3.147823e-06	-8.100557e-10	-2.187045e+01	-5.429691e+01
1.140000e-06	-3.109125e-06	-8.037601e-10	-2.160158e+01	-5.406883e+01
1.150000e-06	-3.070196e-06	-8.024107e-10	-2.133111e+01	-5.383524e+01
1.160000e-06	-3.031107e-06	-8.016699e-10	-2.105953e+01	-5.359582e+01
1.170000e-06	-2.991917e-06	-7.990589e-10	-2.078724e+01	-5.335026e+01
1.180000e-06	-2.952469e-06	-7.986030e-10	-2.051317e+01	-5.309827e+01
1.190000e-06	-2.912832e-06	-7.944254e-10	-2.023778e+01	-5.283955e+01
1.200000e-06	-2.873113e-06	-7.898897e-10	-1.996182e+01	-5.257385e+01
1.210000e-06	-2.833291e-06	-7.857118e-10	-1.968514e+01	-5.230090e+01
1.220000e-06	-2.793339e-06	-7.797232e-10	-1.940757e+01	-5.202047e+01
1.230000e-06	-2.753246e-06	-7.700248e-10	-1.912900e+01	-5.173234e+01
1.240000e-06	-2.712999e-06	-7.644096e-10	-1.884938e+01	-5.143632e+01
1.250000e-06	-2.672478e-06	-7.603195e-10	-1.856784e+01	-5.113221e+01
1.260000e-06	-2.631699e-06	-7.572924e-10	-1.828452e+01	-5.081988e+01
1.270000e-06	-2.590733e-06	-7.540431e-10	-1.799990e+01	-5.049917e+01
1.280000e-06	-2.549566e-06	-7.515979e-10	-1.771388e+01	-5.016998e+01
1.290000e-06	-2.508103e-06	-7.454129e-10	-1.742580e+01	-4.983220e+01
1.300000e-06	-2.466236e-06	-7.361752e-10	-1.713492e+01	-4.948575e+01
1.310000e-06	-2.424048e-06	-7.258280e-10	-1.684180e+01	-4.913059e+01
1.320000e-06	-2.381592e-06	-7.172570e-10	-1.654683e+01	-4.876665e+01
1.330000e-06	-2.338891e-06	-7.120161e-10	-1.625015e+01	-4.839393e+01
1.340000e-06	-2.295931e-06	-7.099118e-10	-1.595167e+01	-4.801239e+01
1.350000e-06	-2.252778e-06	-7.079011e-10	-1.565186e+01	-4.762206e+01
1.360000e-06	-2.209458e-06	-7.021184e-10	-1.535087e+01	-4.722293e+01
1.370000e-06	-2.165894e-06	-6.937910e-10	-1.504820e+01	-4.681503e+01
1.380000e-06	-2.122195e-06	-6.860337e-10	-1.474459e+01	-4.639838e+01
1.390000e-06	-2.078427e-06	-6.771406e-10	-1.444050e+01	-4.597302e+01
1.400000e-06	-2.034597e-06	-6.681637e-10	-1.413598e+01	-4.553897e+01
1.410000e-06	-1.990716e-06	-6.619561e-10	-1.383110e+01	-4.509627e+01
1.420000e-06	-1.946734e-06	-6.542602e-10	-1.352552e+01	-4.464494e+01
1.430000e-06	-1.902637e-06	-6.459807e-10	-1.321914e+01	-4.418500e+01
1.440000e-06	-1.858457e-06	-6.391485e-10	-1.291219e+01	-4.371646e+01
1.450000e-06	-1.814226e-06	-6.318330e-10	-1.260488e+01	-4.323933e+01
1.460000e-06	-1.769942e-06	-6.201613e-10	-1.229721e+01	-4.275357e+01
1.470000e-06	-1.725422e-06	-6.102274e-10	-1.198789e+01	-4.225917e+01
1.480000e-06	-1.680677e-06	-6.027164e-10	-1.167701e+01	-4.175607e+01
1.490000e-06	-1.635889e-06	-5.968054e-10	-1.136583e+01	-4.124419e+01
1.500000e-06	-1.590970e-06	-5.919705e-10	-1.105375e+01	-4.072345e+01
1.510000e-06	-1.545857e-06	-5.873083e-10	-1.074031e+01	-4.019372e+01
1.520000e-06	-1.500646e-06	-5.804338e-10	-1.042619e+01	-3.965485e+01
1.530000e-06	-1.455336e-06	-5.707320e-10	-1.011139e+01	-3.910668e+01
1.540000e-06	-1.409903e-06	-5.577816e-10	-9.795723e+00	-3.854899e+01
1.550000e-06	-1.364395e-06	-5.441897e-10	-9.479542e+00	-3.798157e+01
1.560000e-06	-1.318841e-06	-5.320925e-10	-9.163044e+00	-3.740414e+01
1.570000e-06	-1.273253e-06	-5.217571e-10	-8.846306e+00	-3.681642e+01
1.580000e-06	-1.227591e-06	-5.131376e-10	-8.529056e+00	-3.621811e+01
1.590000e-06	-1.181829e-06	-5.058324e-10	-8.211111e+00	-3.560884e+01
1.600000e-06	-1.136039e-06	-4.968582e-10	-7.892970e+00	-3.498827e+01
1.610000e-06	-1.090186e-06	-4.865935e-10	-7.574396e+00	-3.435599e+01
1.620000e-06	-1.044102e-06	-4.741474e-10	-7.254213e+00	-3.371159e+01
1.630000e-06	-9.978582e-07	-4.608521e-10	-6.932921e+00	-3.305464e+01
1.640000e-06	-9.515945e-07	-4.487750e-10	-6.611489e+00	-3.238470e+01
1.650000e-06	-9.053199e-07	-4.368988e-10	-6.289983e+00	-3.170130e+01
1.660000e-06	-8.589811e-07	-4.255674e-10	-5.968030e+00	-3.100397e+01
1.670000e-06	-8.125147e-07	-4.155921e-10	-5.645191e+00	-3.029224e+01
1.680000e-06	-7.660188e-07	-4.077122e-10	-5.322147e+00	-2.956563e+01
1.690000e-06	-7.195462e-07	-3.994144e-10	-4.999264e+00	-2.882365e+01
1.700000e-06	-6.731332e-07	-3.885028e-10	-4.676796e+00	-2.806586e+01
1.710000e-06	-6.267026e-07	-3.733060e-10	-4.354205e+00	-2.729179e+01
1.720000e-06	-5.801188e-07	-3.560738e-10	-4.030550e+00	-2.650100e+01
1.730000e-06	-5.334794e-07	-3.409666e-10	-3.706509e+00	-2.569308e+01
1.740000e-06	-4.868514e-07	-3.279412e-10	-3.382547e+00	-2.486765e+01
1.750000e-06	-4.401602e-07	-3.168283e-10	-3.058146e+00	-2.402434e+01
1.760000e-06	-3.933919e-07	-3.072356e-10	-2.733209e+00	-2.316285e+01
1.770000e-06	-3.466116e-07	-2.960965e-10	-2.408188e+00	-2.228289e+01
1.780000e-06	-2.998458e-07	-2.849322e-10	-2.083269e+00	-2.138424e+01
1.790000e-06	-2.530755e-07	-2.702129e-10	-1.758318e+00	-2.046671e+01
1.800000e-06	-2.062641e-07	-2.512819e-10	-1.433082e+00	-1.953021e+01
1.810000e-06	-1.593314e-07	-2.332685e-10	-1.107003e+00	-1.857465e+01
1.820000e-06	-1.123763e-07	-2.166869e-10	-7.807686e-01	-1.760006e+01
1.830000e-06	-6.546757e-08	-2.019983e-10	-4.548557e-01	-1.660650e+01
1.840000e-06	-1.858608e-08	-1.899363e-10	-1.291324e-01	-1.559411e+01
1.850000e-06	2.813894e-08	-1.795843e-10	1.955038e-01	-1.456312e+01
1.860000e-06	7.493835e-08	-1.691254e-10	5.206568e-01	-1.351383e+01
1.870000e-06	1.218899e-07	-1.529420e-10	8.468667e-01	-1.244659e+01
1.880000e-06	1.688223e-07	-1.349002e-10	1.172944e+00	-1.136187e+01
1.890000e-06	2.156607e-07	-1.168366e-10	1.498368e+00	-1.026020e+01
1.900000e-06	2.624316e-07	-9.823059e-11	1.823323e+00	-9.142171e+00
1.910000e-06	3.092555e-07	-8.194276e-11	2.148646e+00	-8.008490e+00
1.920000e-06	3.561171e-07	-6.743282e-11	2.474231e+00	-6.859919e+00
1.930000e-06	4.029535e-07	-5.461061e-11	2.799641e+00	-5.697302e+00
1.940000e-06	4.496605e-07	-4.110287e-11	3.124152e+00	-4.521556e+00
1.950000e-06	4.962556e-07	-2.755876e-11	3.447885e+00	-3.333671e+00
1.960000e-06	5.428058e-07	-1.290331e-11	3.771307e+00	-2.134705e+00
1.970000e-06	5.892946e-07	3.695916e-12	4.094302e+00	-9.257794e-01
1.980000e-06	6.357645e-07	2.225841e-11	4.417165e+00	2.919241e-01
1.990000e-06	6.821992e-07	4.202716e-11	4.739784e+00	1.517169e+00
2.000000e-06	7.284836e-07	6.087071e-11	5.061359e+00	2.748668e+00
2.010000e-06	7.747103e-07	7.851461e-11	5.382533e+00	3.985091e+00
2.020000e-06	8.209813e-07	9.681779e-11	5.704015e+00	5.225070e+00
2.030000e-06	8.672885e-07	1.146263e-10	6.025748e+00	6.467207e+00
2.040000e-06	9.135144e-07	1.321335e-10	6.346916e+00	7.710077e+00
2.050000e-06	9.595505e-07	1.480028e-10	6.666766e+00	8.952239e+00
2.060000e-06	1.005511e-06	1.629886e-10	6.986089e+00	1.019224e+01
2.070000e-06	1.051471e-06	1.791550e-10	7.305409e+00	1.142863e+01
2.080000e-06	1.097402e-06	1.958248e-10	7.624534e+00	1.265995e+01
2.090000e-06	1.143299e-06	2.141527e-10	7.943415e+00	1.388478e+01
2.100000e-06	1.189122e-06	2.328772e-10	8.261786e+00	1.510168e+01
2.110000e-06	1.234834e-06	2.508539e-10	8.579382e+00	1.630928e+01
2.120000e-06	1.280462e-06	2.682731e-10	8.896397e+00	1.750620e+01
2.130000e-06	1.325978e-06	2.826112e-10	9.212632e+00	1.869113e+01
2.140000e-06	1.371431e-06	2.954422e-10	9.528433e+00	1.986281e+01
2.150000e-06	1.416832e-06	3.076838e-10	9.843871e+00	2.102002e+01
2.160000e-06	1.462128e-06	3.202682e-10	1.015858e+01	2.216160e+01
2.170000e-06	1.507302e-06	3.365150e-10	1.047243e+01	2.328646e+01
2.180000e-06	1.552307e-06	3.549233e-10	1.078512e+01	2.439358e+01
2.190000e-06	1.597106e-06	3.741938e-10	1.109638e+01	2.548202e+01
2.200000e-06	1.641777e-06	3.897684e-10	1.140674e+01	2.655090e+01
2.210000e-06	1.686415e-06	4.027346e-10	1.171688e+01	2.759946e+01
2.220000e-06	1.730930e-06	4.143335e-10	1.202616e+01	2.862698e+01
2.230000e-06	1.775265e-06	4.258836e-10	1.233419e+01	2.963286e+01
2.240000e-06	1.819493e-06	4.363303e-10	1.264148e+01	3.061658e+01
2.250000e-06	1.863655e-06	4.470457e-10	1.294830e+01	3.157772e+01
2.260000e-06	1.907704e-06	4.593974e-10	1.325435e+01	3.251593e+01
2.270000e-06	1.951651e-06	4.730421e-10	1.355969e+01	3.343097e+01
2.280000e-06	1.995529e-06	4.866554e-10	1.386454e+01	3.432268e+01
2.290000e-06	2.039370e-06	4.976484e-10	1.416914e+01	3.519100e+01
2.300000e-06	2.083144e-06	5.076894e-10	1.447327e+01	3.603595e+01
2.310000e-06	2.126857e-06	5.181097e-10	1.477698e+01	3.685763e+01
2.320000e-06	2.170506e-06	5.288312e-10	1.508025e+01	3.765622e+01
2.330000e-06	2.214013e-06	5.393979e-10	1.538252e+01	3.843199e+01
2.340000e-06	2.257387e-06	5.495869e-10	1.568388e+01	3.918528e+01
2.350000e-06	2.300587e-06	5.609852e-10	1.598402e+01	3.991649e+01
2.360000e-06	2.343477e-06	5.726196e-10	1.628202e+01	4.062608e+01
2.370000e-06	2.385982e-06	5.840365e-10	1.657733e+01	4.131459e+01
2.380000e-06	2.428234e-06	5.940811e-10	1.687089e+01	4.198258e+01
2.390000e-06	2.470288e-06	6.021228e-10	1.716307e+01	4.263069e+01
2.400000e-06	2.511994e-06	6.110607e-10	1.745283e+01	4.325958e+01
2.410000e-06	2.553260e-06	6.210047e-10	1.773954e+01	4.386995e+01
2.420000e-06	2.594313e-06	6.316226e-10	1.802477e+01	4.446252e+01
2.430000e-06	2.635223e-06	6.416160e-10	1.830901e+01	4.503804e+01
2.440000e-06	2.675844e-06	6.521474e-10	1.859123e+01	4.559728e+01
2.450000e-06	2.716289e-06	6.634363e-10	1.887224e+01	4.614100e+01
2.460000e-06	2.756516e-06	6.746891e-10	1.915173e+01	4.666997e+01
2.470000e-06	2.796475e-06	6.843038e-10	1.942935e+01	4.718498e+01
2.480000e-06	2.836315e-06	6.921845e-10	1.970615e+01	4.768677e+01
2.490000e-06	2.876130e-06	6.989812e-10	1.998278e+01	4.817608e+01
2.500000e-06	2.915855e-06	7.071376e-10	2.025878e+01	4.865366e+01
2.510000e-06	2.955417e-06	7.157287e-10	2.053365e+01	4.912018e+01
2.520000e-06	2.994782e-06	7.240085e-10	2.080715e+01	4.957632e+01
2.530000e-06	3.033984e-06	7.322164e-10	2.107952e+01	5.002272e+01
2.540000e-06	3.073024e-06	7.402333e-10	2.135076e+01	5.045997e+01
2.550000e-06	3.111815e-06	7.460864e-10	2.162027e+01	5.088864e+01
2.560000e-06	3.150351e-06	7.508104e-10	2.188802e+01	5.130923e+01
2.570000e-06	3.188625e-06	7.556609e-10	2.215393e+01	5.172221e+01
2.580000e-06	3.226644e-06	7.596860e-10	2.241808e+01	5.212802e+01
2.590000e-06	3.264369e-06	7.642625e-10	2.268019e+01	5.252701e+01
2.600000e-06	3.301877e-06	7.709419e-10	2.294078e+01	5.291953e+01
2.610000e-06	3.339326e-06	7.803596e-10	2.320098e+01	5.330584e+01
2.620000e-06	3.376631e-06	7.898286e-10	2.346016e+01	5.368618e+01
2.630000e-06	3.413591e-06	7.966293e-10	2.371695e+01	5.406073e+01
2.640000e-06	3.450264e-06	8.013683e-10	2.397175e+01	5.442963e+01
2.650000e-06	3.486712e-06	8.056232e-10	2.422498e+01	5.479296e+01
2.660000e-06	3.522903e-06	8.096927e-10	2.447643e+01	5.515079e+01
2.670000e-06	3.558876e-06	8.125430e-10	2.472636e+01	5.550312e+01
2.680000e-06	3.594657e-06	8.156004e-10	2.497496e+01	5.584992e+01
2.690000e-06	3.630314e-06	8.208174e-10	2.522270e+01	5.619114e+01
2.700000e-06	3.665890e-06	8.276791e-10	2.546988e+01	5.652669e+01
2.710000e-06	3.701341e-06	8.343285e-10	2.571618e+01	5.685646e+01
2.720000e-06	3.736462e-06	8.386126e-10	2.596019e+01	5.718030e+01
2.730000e-06	3.771247e-06	8.422865e-10	2.620188e+01	5.749807e+01
2.740000e-06	3.805661e-06	8.456755e-10	2.644097e+01	5.780959e+01
2.750000e-06	3.839549e-06	8.487414e-10	2.667642e+01	5.811469e+01
2.760000e-06	3.872964e-06	8.514850e-10	2.690858e+01	5.841317e+01
2.770000e-06	3.905931e-06	8.536760e-10	2.713763e+01	5.870486e+01
2.780000e-06	3.938481e-06	8.579255e-10	2.736379e+01	5.898956e+01
2.790000e-06	3.970716e-06	8.655029e-10	2.758775e+01	5.926710e+01
2.800000e-06	4.002772e-06	8.738578e-10	2.781046e+01	5.953729e+01
2.810000e-06	4.034719e-06	8.800550e-10	2.803243e+01	5.980000e+01
2.820000e-06	4.066516e-06	8.840538e-10	2.825334e+01	6.005506e+01
2.830000e-06	4.098185e-06	8.870186e-10	2.847337e+01	6.030237e+01
2.840000e-06	4.129554e-06	8.876336e-10	2.869132e+01	6.054181e+01
2.850000e-06	4.160545e-06	8.885129e-10	2.890664e+01	6.077331e+01
2.860000e-06	4.191248e-06	8.914093e-10	2.911996e+01	6.099682e+01
2.870000e-06	4.221587e-06	8.942087e-10	2.933075e+01	6.121231e+01
2.880000e-06	4.251598e-06	8.967111e-10	2.953926e+01	6.141979e+01
2.890000e-06	4.281341e-06	9.012894e-10	2.974591e+01	6.161930e+01
2.900000e-06	4.310891e-06	9.075775e-10	2.995121e+01	6.181089e+01
