# Temperatura_=_-0.2
# Concentracion g/m^3_=_1620.0
# C_Vs_to_Am_M_A/Vsm_=_65563218390.804596
# pendiente_HvsI_1/m_=_3716.3
# ordenada_HvsI_A/m_=_1297.0
# frecuencia_Hz_=_135110.7127728912

Tiempo_(s)	Campo_(V.s)	Magnetizacion_(V.s)	Campo_(kA/m)	Magnetizacion_(A/m)
0.000000e+00	-5.530846e-06	-9.449907e-10	-3.837285e+01	-6.400261e+01
1.000000e-08	-5.530954e-06	-9.468473e-10	-3.837360e+01	-6.401501e+01
2.000000e-08	-5.530866e-06	-9.475762e-10	-3.837299e+01	-6.402857e+01
3.000000e-08	-5.530491e-06	-9.491857e-10	-3.837039e+01	-6.404314e+01
4.000000e-08	-5.529680e-06	-9.465152e-10	-3.836476e+01	-6.405855e+01
5.000000e-08	-5.528405e-06	-9.390932e-10	-3.835592e+01	-6.407461e+01
6.000000e-08	-5.526636e-06	-9.248403e-10	-3.834364e+01	-6.409112e+01
7.000000e-08	-5.524245e-06	-9.092289e-10	-3.832705e+01	-6.410784e+01
8.000000e-08	-5.521185e-06	-9.200638e-10	-3.830582e+01	-6.412453e+01
9.000000e-08	-5.517564e-06	-9.616394e-10	-3.828070e+01	-6.414095e+01
1.000000e-07	-5.513476e-06	-9.933086e-10	-3.825234e+01	-6.415681e+01
1.100000e-07	-5.509070e-06	-9.816639e-10	-3.822177e+01	-6.417186e+01
1.200000e-07	-5.504480e-06	-9.186460e-10	-3.818993e+01	-6.418582e+01
1.300000e-07	-5.499681e-06	-8.758268e-10	-3.815663e+01	-6.419841e+01
1.400000e-07	-5.494539e-06	-9.293450e-10	-3.812095e+01	-6.420934e+01
1.500000e-07	-5.488898e-06	-9.297142e-10	-3.808182e+01	-6.421836e+01
1.600000e-07	-5.482844e-06	-9.132014e-10	-3.803981e+01	-6.422518e+01
1.700000e-07	-5.476478e-06	-8.780600e-10	-3.799565e+01	-6.422956e+01
1.800000e-07	-5.469747e-06	-9.512201e-10	-3.794894e+01	-6.423124e+01
1.900000e-07	-5.462583e-06	-9.839692e-10	-3.789924e+01	-6.423000e+01
2.000000e-07	-5.455041e-06	-9.509874e-10	-3.784692e+01	-6.422560e+01
2.100000e-07	-5.447200e-06	-9.103109e-10	-3.779252e+01	-6.421786e+01
2.200000e-07	-5.439149e-06	-9.466372e-10	-3.773666e+01	-6.420660e+01
2.300000e-07	-5.430881e-06	-9.894852e-10	-3.767930e+01	-6.419164e+01
2.400000e-07	-5.422241e-06	-9.845057e-10	-3.761935e+01	-6.417285e+01
2.500000e-07	-5.412945e-06	-9.764395e-10	-3.755486e+01	-6.415011e+01
2.600000e-07	-5.402920e-06	-9.824832e-10	-3.748531e+01	-6.412332e+01
2.700000e-07	-5.392222e-06	-1.009382e-09	-3.741108e+01	-6.409242e+01
2.800000e-07	-5.380981e-06	-9.931985e-10	-3.733309e+01	-6.405736e+01
2.900000e-07	-5.369438e-06	-9.969739e-10	-3.725301e+01	-6.401811e+01
3.000000e-07	-5.357607e-06	-9.882979e-10	-3.717093e+01	-6.397466e+01
3.100000e-07	-5.345366e-06	-9.956999e-10	-3.708599e+01	-6.392705e+01
3.200000e-07	-5.332643e-06	-9.692562e-10	-3.699772e+01	-6.387530e+01
3.300000e-07	-5.319538e-06	-9.743876e-10	-3.690680e+01	-6.381947e+01
3.400000e-07	-5.305993e-06	-9.634414e-10	-3.681283e+01	-6.375966e+01
3.500000e-07	-5.291981e-06	-9.804513e-10	-3.671561e+01	-6.369594e+01
3.600000e-07	-5.277650e-06	-9.689904e-10	-3.661618e+01	-6.362843e+01
3.700000e-07	-5.262929e-06	-9.706593e-10	-3.651405e+01	-6.355726e+01
3.800000e-07	-5.247671e-06	-9.596338e-10	-3.640819e+01	-6.348257e+01
3.900000e-07	-5.231935e-06	-9.761203e-10	-3.629901e+01	-6.340449e+01
4.000000e-07	-5.215679e-06	-9.625766e-10	-3.618623e+01	-6.332317e+01
4.100000e-07	-5.199053e-06	-9.596827e-10	-3.607088e+01	-6.323879e+01
4.200000e-07	-5.182127e-06	-9.690160e-10	-3.595345e+01	-6.315149e+01
4.300000e-07	-5.164835e-06	-9.653180e-10	-3.583347e+01	-6.306145e+01
4.400000e-07	-5.147295e-06	-9.384823e-10	-3.571179e+01	-6.296881e+01
4.500000e-07	-5.129407e-06	-9.529515e-10	-3.558768e+01	-6.287375e+01
4.600000e-07	-5.111079e-06	-9.740758e-10	-3.546052e+01	-6.277641e+01
4.700000e-07	-5.092240e-06	-9.414338e-10	-3.532981e+01	-6.267695e+01
4.800000e-07	-5.072922e-06	-9.358174e-10	-3.519579e+01	-6.257551e+01
4.900000e-07	-5.053392e-06	-9.764600e-10	-3.506029e+01	-6.247221e+01
5.000000e-07	-5.033716e-06	-9.672506e-10	-3.492378e+01	-6.236718e+01
5.100000e-07	-5.013802e-06	-9.202170e-10	-3.478562e+01	-6.226053e+01
5.200000e-07	-4.993650e-06	-9.408174e-10	-3.464580e+01	-6.215235e+01
5.300000e-07	-4.973201e-06	-9.470283e-10	-3.450392e+01	-6.204274e+01
5.400000e-07	-4.952278e-06	-9.154773e-10	-3.435876e+01	-6.193176e+01
5.500000e-07	-4.930972e-06	-9.302805e-10	-3.421094e+01	-6.181947e+01
5.600000e-07	-4.909377e-06	-9.682366e-10	-3.406111e+01	-6.170593e+01
5.700000e-07	-4.887352e-06	-9.272020e-10	-3.390831e+01	-6.159116e+01
5.800000e-07	-4.864910e-06	-9.176285e-10	-3.375261e+01	-6.147517e+01
5.900000e-07	-4.842207e-06	-9.486817e-10	-3.359509e+01	-6.135799e+01
6.000000e-07	-4.819159e-06	-9.312781e-10	-3.343519e+01	-6.123961e+01
6.100000e-07	-4.795746e-06	-8.946159e-10	-3.327275e+01	-6.112001e+01
6.200000e-07	-4.772126e-06	-9.264531e-10	-3.310887e+01	-6.099916e+01
6.300000e-07	-4.748316e-06	-9.224449e-10	-3.294368e+01	-6.087705e+01
6.400000e-07	-4.724329e-06	-8.937719e-10	-3.277726e+01	-6.075363e+01
6.500000e-07	-4.699982e-06	-9.109941e-10	-3.260834e+01	-6.062885e+01
6.600000e-07	-4.675208e-06	-9.299400e-10	-3.243646e+01	-6.050267e+01
6.700000e-07	-4.649995e-06	-8.988714e-10	-3.226153e+01	-6.037504e+01
6.800000e-07	-4.624191e-06	-9.020398e-10	-3.208250e+01	-6.024590e+01
6.900000e-07	-4.597832e-06	-9.164104e-10	-3.189963e+01	-6.011520e+01
7.000000e-07	-4.570994e-06	-8.967033e-10	-3.171342e+01	-5.998289e+01
7.100000e-07	-4.543675e-06	-8.867188e-10	-3.152388e+01	-5.984893e+01
7.200000e-07	-4.516094e-06	-9.059808e-10	-3.133253e+01	-5.971326e+01
7.300000e-07	-4.488436e-06	-8.954373e-10	-3.114064e+01	-5.957584e+01
7.400000e-07	-4.460603e-06	-8.844786e-10	-3.094754e+01	-5.943664e+01
7.500000e-07	-4.432479e-06	-9.011028e-10	-3.075241e+01	-5.929564e+01
7.600000e-07	-4.404046e-06	-9.013060e-10	-3.055514e+01	-5.915280e+01
7.700000e-07	-4.375303e-06	-8.859687e-10	-3.035573e+01	-5.900812e+01
7.800000e-07	-4.346233e-06	-8.882198e-10	-3.015404e+01	-5.886159e+01
7.900000e-07	-4.316837e-06	-8.879594e-10	-2.995009e+01	-5.871321e+01
8.000000e-07	-4.287168e-06	-8.717673e-10	-2.974425e+01	-5.856300e+01
8.100000e-07	-4.257253e-06	-8.750408e-10	-2.953670e+01	-5.841095e+01
8.200000e-07	-4.227090e-06	-8.826727e-10	-2.932743e+01	-5.825712e+01
8.300000e-07	-4.196643e-06	-8.764845e-10	-2.911619e+01	-5.810151e+01
8.400000e-07	-4.165857e-06	-8.716415e-10	-2.890259e+01	-5.794417e+01
8.500000e-07	-4.134729e-06	-8.802396e-10	-2.868663e+01	-5.778514e+01
8.600000e-07	-4.103368e-06	-8.708621e-10	-2.846905e+01	-5.762446e+01
8.700000e-07	-4.071819e-06	-8.615366e-10	-2.825016e+01	-5.746218e+01
8.800000e-07	-4.040077e-06	-8.645567e-10	-2.802994e+01	-5.729835e+01
8.900000e-07	-4.008183e-06	-8.670553e-10	-2.780866e+01	-5.713301e+01
9.000000e-07	-3.976069e-06	-8.568215e-10	-2.758585e+01	-5.696621e+01
9.100000e-07	-3.943664e-06	-8.607002e-10	-2.736103e+01	-5.679799e+01
9.200000e-07	-3.910953e-06	-8.610503e-10	-2.713408e+01	-5.662837e+01
9.300000e-07	-3.877826e-06	-8.510409e-10	-2.690424e+01	-5.645740e+01
9.400000e-07	-3.844218e-06	-8.450084e-10	-2.667107e+01	-5.628509e+01
9.500000e-07	-3.810185e-06	-8.494395e-10	-2.643495e+01	-5.611144e+01
9.600000e-07	-3.775653e-06	-8.426230e-10	-2.619537e+01	-5.593646e+01
9.700000e-07	-3.740620e-06	-8.397080e-10	-2.595231e+01	-5.576012e+01
9.800000e-07	-3.705303e-06	-8.441426e-10	-2.570729e+01	-5.558240e+01
9.900000e-07	-3.669816e-06	-8.420624e-10	-2.546108e+01	-5.540325e+01
1.000000e-06	-3.634118e-06	-8.333680e-10	-2.521340e+01	-5.522260e+01
1.010000e-06	-3.598314e-06	-8.331094e-10	-2.496500e+01	-5.504037e+01
1.020000e-06	-3.562442e-06	-8.306484e-10	-2.471612e+01	-5.485646e+01
1.030000e-06	-3.526399e-06	-8.217101e-10	-2.446605e+01	-5.467075e+01
1.040000e-06	-3.490127e-06	-8.201016e-10	-2.421440e+01	-5.448311e+01
1.050000e-06	-3.453528e-06	-8.237260e-10	-2.396048e+01	-5.429337e+01
1.060000e-06	-3.416589e-06	-8.188812e-10	-2.370419e+01	-5.410135e+01
1.070000e-06	-3.379394e-06	-8.129595e-10	-2.344614e+01	-5.390687e+01
1.080000e-06	-3.341971e-06	-8.132205e-10	-2.318650e+01	-5.370971e+01
1.090000e-06	-3.304309e-06	-8.070272e-10	-2.292520e+01	-5.350963e+01
1.100000e-06	-3.266385e-06	-7.981750e-10	-2.266208e+01	-5.330640e+01
1.110000e-06	-3.228292e-06	-7.941683e-10	-2.239780e+01	-5.309975e+01
1.120000e-06	-3.189962e-06	-7.908980e-10	-2.213186e+01	-5.288940e+01
1.130000e-06	-3.151373e-06	-7.829804e-10	-2.186413e+01	-5.267508e+01
1.140000e-06	-3.112630e-06	-7.800000e-10	-2.159534e+01	-5.245648e+01
1.150000e-06	-3.073720e-06	-7.758331e-10	-2.132538e+01	-5.223331e+01
1.160000e-06	-3.034636e-06	-7.691720e-10	-2.105421e+01	-5.200524e+01
1.170000e-06	-2.995370e-06	-7.658905e-10	-2.078179e+01	-5.177199e+01
1.180000e-06	-2.955989e-06	-7.677157e-10	-2.050856e+01	-5.153321e+01
1.190000e-06	-2.916438e-06	-7.631193e-10	-2.023416e+01	-5.128862e+01
1.200000e-06	-2.876677e-06	-7.595186e-10	-1.995830e+01	-5.103788e+01
1.210000e-06	-2.836762e-06	-7.581899e-10	-1.968137e+01	-5.078071e+01
1.220000e-06	-2.796707e-06	-7.539418e-10	-1.940348e+01	-5.051680e+01
1.230000e-06	-2.756492e-06	-7.460401e-10	-1.912446e+01	-5.024587e+01
1.240000e-06	-2.716092e-06	-7.415703e-10	-1.884417e+01	-4.996763e+01
1.250000e-06	-2.675588e-06	-7.334290e-10	-1.856315e+01	-4.968183e+01
1.260000e-06	-2.634818e-06	-7.260575e-10	-1.828029e+01	-4.938821e+01
1.270000e-06	-2.593694e-06	-7.245726e-10	-1.799498e+01	-4.908654e+01
1.280000e-06	-2.552329e-06	-7.254002e-10	-1.770798e+01	-4.877661e+01
1.290000e-06	-2.510696e-06	-7.202837e-10	-1.741914e+01	-4.845821e+01
1.300000e-06	-2.468740e-06	-7.112757e-10	-1.712805e+01	-4.813118e+01
1.310000e-06	-2.426417e-06	-7.012073e-10	-1.683441e+01	-4.779534e+01
1.320000e-06	-2.383819e-06	-6.917667e-10	-1.653887e+01	-4.745056e+01
1.330000e-06	-2.341004e-06	-6.869379e-10	-1.624182e+01	-4.709671e+01
1.340000e-06	-2.298010e-06	-6.878292e-10	-1.594353e+01	-4.673369e+01
1.350000e-06	-2.254776e-06	-6.869429e-10	-1.564357e+01	-4.636143e+01
1.360000e-06	-2.211287e-06	-6.820864e-10	-1.534184e+01	-4.597984e+01
1.370000e-06	-2.167694e-06	-6.781538e-10	-1.503940e+01	-4.558887e+01
1.380000e-06	-2.124048e-06	-6.731805e-10	-1.473659e+01	-4.518850e+01
1.390000e-06	-2.080336e-06	-6.648132e-10	-1.443331e+01	-4.477868e+01
1.400000e-06	-2.036505e-06	-6.555142e-10	-1.412921e+01	-4.435941e+01
1.410000e-06	-1.992590e-06	-6.480489e-10	-1.382453e+01	-4.393067e+01
1.420000e-06	-1.948657e-06	-6.404957e-10	-1.351973e+01	-4.349247e+01
1.430000e-06	-1.904630e-06	-6.360628e-10	-1.321427e+01	-4.304481e+01
1.440000e-06	-1.860476e-06	-6.317313e-10	-1.290793e+01	-4.258768e+01
1.450000e-06	-1.816181e-06	-6.284045e-10	-1.260061e+01	-4.212109e+01
1.460000e-06	-1.771753e-06	-6.225506e-10	-1.229237e+01	-4.164503e+01
1.470000e-06	-1.727261e-06	-6.150554e-10	-1.198369e+01	-4.115949e+01
1.480000e-06	-1.682639e-06	-6.037303e-10	-1.167410e+01	-4.066445e+01
1.490000e-06	-1.637831e-06	-5.915647e-10	-1.136323e+01	-4.015986e+01
1.500000e-06	-1.592863e-06	-5.819504e-10	-1.105124e+01	-3.964568e+01
1.510000e-06	-1.547796e-06	-5.750303e-10	-1.073856e+01	-3.912185e+01
1.520000e-06	-1.502645e-06	-5.679753e-10	-1.042531e+01	-3.858826e+01
1.530000e-06	-1.457385e-06	-5.594500e-10	-1.011130e+01	-3.804481e+01
1.540000e-06	-1.411992e-06	-5.495984e-10	-9.796358e+00	-3.749137e+01
1.550000e-06	-1.366515e-06	-5.377337e-10	-9.480844e+00	-3.692778e+01
1.560000e-06	-1.321017e-06	-5.228337e-10	-9.165178e+00	-3.635386e+01
1.570000e-06	-1.275465e-06	-5.088163e-10	-8.849139e+00	-3.576939e+01
1.580000e-06	-1.229806e-06	-4.979623e-10	-8.532360e+00	-3.517414e+01
1.590000e-06	-1.183974e-06	-4.891922e-10	-8.214375e+00	-3.456784e+01
1.600000e-06	-1.137978e-06	-4.802333e-10	-7.895260e+00	-3.395021e+01
1.610000e-06	-1.091950e-06	-4.707136e-10	-7.575920e+00	-3.332094e+01
1.620000e-06	-1.045969e-06	-4.600683e-10	-7.256900e+00	-3.267968e+01
1.630000e-06	-9.998846e-07	-4.472062e-10	-6.937171e+00	-3.202608e+01
1.640000e-06	-9.536857e-07	-4.326536e-10	-6.616644e+00	-3.135976e+01
1.650000e-06	-9.074405e-07	-4.149153e-10	-6.295796e+00	-3.068032e+01
1.660000e-06	-8.610217e-07	-3.986799e-10	-5.973744e+00	-2.998736e+01
1.670000e-06	-8.145485e-07	-3.868231e-10	-5.651314e+00	-2.928046e+01
1.680000e-06	-7.681151e-07	-3.787495e-10	-5.329160e+00	-2.855920e+01
1.690000e-06	-7.216297e-07	-3.720573e-10	-5.006646e+00	-2.782314e+01
1.700000e-06	-6.751359e-07	-3.650232e-10	-4.684073e+00	-2.707186e+01
1.710000e-06	-6.286072e-07	-3.533378e-10	-4.361259e+00	-2.630495e+01
1.720000e-06	-5.820027e-07	-3.382843e-10	-4.037918e+00	-2.552199e+01
1.730000e-06	-5.353494e-07	-3.228036e-10	-3.714239e+00	-2.472261e+01
1.740000e-06	-4.886094e-07	-3.071262e-10	-3.389958e+00	-2.390642e+01
1.750000e-06	-4.418211e-07	-2.923611e-10	-3.065342e+00	-2.307310e+01
1.760000e-06	-3.950415e-07	-2.817916e-10	-2.740787e+00	-2.222233e+01
1.770000e-06	-3.482231e-07	-2.721150e-10	-2.415962e+00	-2.135384e+01
1.780000e-06	-3.013649e-07	-2.628393e-10	-2.090861e+00	-2.046741e+01
1.790000e-06	-2.545176e-07	-2.527476e-10	-1.765836e+00	-1.956286e+01
1.800000e-06	-2.075810e-07	-2.407605e-10	-1.440191e+00	-1.864005e+01
1.810000e-06	-1.605652e-07	-2.238068e-10	-1.113997e+00	-1.769893e+01
1.820000e-06	-1.135433e-07	-2.038471e-10	-7.877604e-01	-1.673948e+01
1.830000e-06	-6.652968e-08	-1.873797e-10	-4.615810e-01	-1.576176e+01
1.840000e-06	-1.953308e-08	-1.723860e-10	-1.355199e-01	-1.476590e+01
1.850000e-06	2.748747e-08	-1.606844e-10	1.907073e-01	-1.375210e+01
1.860000e-06	7.445220e-08	-1.522803e-10	5.165473e-01	-1.272062e+01
1.870000e-06	1.213691e-07	-1.431173e-10	8.420552e-01	-1.167181e+01
1.880000e-06	1.684227e-07	-1.300285e-10	1.168512e+00	-1.060612e+01
1.890000e-06	2.154800e-07	-1.143241e-10	1.494994e+00	-9.524030e+00
1.900000e-06	2.623875e-07	-9.694998e-11	1.820437e+00	-8.426138e+00
1.910000e-06	3.092660e-07	-7.831552e-11	2.145679e+00	-7.313106e+00
1.920000e-06	3.560845e-07	-6.195482e-11	2.470504e+00	-6.185676e+00
1.930000e-06	4.028768e-07	-4.969341e-11	2.795148e+00	-5.044667e+00
1.940000e-06	4.497149e-07	-3.678875e-11	3.120109e+00	-3.890972e+00
1.950000e-06	4.965458e-07	-2.384909e-11	3.445021e+00	-2.725556e+00
1.960000e-06	5.432724e-07	-9.865818e-12	3.769208e+00	-1.549451e+00
1.970000e-06	5.899236e-07	6.651075e-12	4.092873e+00	-3.637531e-01
1.980000e-06	6.365363e-07	2.443697e-11	4.416270e+00	8.303804e-01
1.990000e-06	6.830563e-07	4.241359e-11	4.739025e+00	2.031739e+00
2.000000e-06	7.296086e-07	5.949775e-11	5.062004e+00	3.239064e+00
2.010000e-06	7.761538e-07	7.526216e-11	5.384933e+00	4.451051e+00
2.020000e-06	8.226456e-07	8.946377e-11	5.707492e+00	5.666362e+00
2.030000e-06	8.690351e-07	1.047063e-10	6.029341e+00	6.883627e+00
2.040000e-06	9.152759e-07	1.222241e-10	6.350158e+00	8.101456e+00
2.050000e-06	9.614916e-07	1.396640e-10	6.670801e+00	9.318440e+00
2.060000e-06	1.007593e-06	1.570656e-10	6.990654e+00	1.053316e+01
2.070000e-06	1.053576e-06	1.752864e-10	7.309682e+00	1.174421e+01
2.080000e-06	1.099525e-06	1.938001e-10	7.628473e+00	1.295017e+01
2.090000e-06	1.145390e-06	2.112800e-10	7.946685e+00	1.414965e+01
2.100000e-06	1.191206e-06	2.284295e-10	8.264556e+00	1.534128e+01
2.110000e-06	1.237020e-06	2.444199e-10	8.582406e+00	1.652372e+01
2.120000e-06	1.282775e-06	2.579497e-10	8.899857e+00	1.769565e+01
2.130000e-06	1.328429e-06	2.724683e-10	9.216601e+00	1.885581e+01
2.140000e-06	1.373953e-06	2.890200e-10	9.532447e+00	2.000300e+01
2.150000e-06	1.419325e-06	3.064793e-10	9.847236e+00	2.113604e+01
2.160000e-06	1.464592e-06	3.243586e-10	1.016130e+01	2.225386e+01
2.170000e-06	1.509718e-06	3.414986e-10	1.047438e+01	2.335541e+01
2.180000e-06	1.554653e-06	3.552962e-10	1.078614e+01	2.443974e+01
2.190000e-06	1.599545e-06	3.665814e-10	1.109760e+01	2.550596e+01
2.200000e-06	1.644324e-06	3.775234e-10	1.140828e+01	2.655329e+01
2.210000e-06	1.688891e-06	3.901055e-10	1.171748e+01	2.758098e+01
2.220000e-06	1.733384e-06	4.051467e-10	1.202617e+01	2.858842e+01
2.230000e-06	1.777767e-06	4.208425e-10	1.233410e+01	2.957504e+01
2.240000e-06	1.822031e-06	4.349302e-10	1.264120e+01	3.054039e+01
2.250000e-06	1.866196e-06	4.469151e-10	1.294761e+01	3.148408e+01
2.260000e-06	1.910225e-06	4.570296e-10	1.325309e+01	3.240583e+01
2.270000e-06	1.954200e-06	4.669152e-10	1.355818e+01	3.330544e+01
2.280000e-06	1.998153e-06	4.772990e-10	1.386313e+01	3.418278e+01
2.290000e-06	2.042056e-06	4.885426e-10	1.416773e+01	3.503782e+01
2.300000e-06	2.085905e-06	5.013032e-10	1.447195e+01	3.587060e+01
2.310000e-06	2.129739e-06	5.144246e-10	1.477606e+01	3.668124e+01
2.320000e-06	2.173497e-06	5.260384e-10	1.507966e+01	3.746991e+01
2.330000e-06	2.217137e-06	5.356547e-10	1.538243e+01	3.823689e+01
2.340000e-06	2.260610e-06	5.444535e-10	1.568405e+01	3.898249e+01
2.350000e-06	2.303889e-06	5.537451e-10	1.598432e+01	3.970708e+01
2.360000e-06	2.346970e-06	5.624065e-10	1.628321e+01	4.041109e+01
2.370000e-06	2.389740e-06	5.714240e-10	1.657995e+01	4.109499e+01
2.380000e-06	2.432120e-06	5.815071e-10	1.687398e+01	4.175931e+01
2.390000e-06	2.474227e-06	5.923891e-10	1.716612e+01	4.240458e+01
2.400000e-06	2.516151e-06	6.021909e-10	1.745698e+01	4.303139e+01
2.410000e-06	2.557693e-06	6.107424e-10	1.774520e+01	4.364034e+01
2.420000e-06	2.598834e-06	6.196141e-10	1.803064e+01	4.423203e+01
2.430000e-06	2.639717e-06	6.274371e-10	1.831428e+01	4.480711e+01
2.440000e-06	2.680312e-06	6.367568e-10	1.859593e+01	4.536619e+01
2.450000e-06	2.720627e-06	6.483463e-10	1.887563e+01	4.590990e+01
2.460000e-06	2.760783e-06	6.600124e-10	1.915423e+01	4.643888e+01
2.470000e-06	2.800845e-06	6.694125e-10	1.943218e+01	4.695373e+01
2.480000e-06	2.840792e-06	6.754033e-10	1.970933e+01	4.745504e+01
2.490000e-06	2.880639e-06	6.792430e-10	1.998579e+01	4.794340e+01
2.500000e-06	2.920378e-06	6.827364e-10	2.026150e+01	4.841935e+01
2.510000e-06	2.959941e-06	6.880496e-10	2.053598e+01	4.888341e+01
2.520000e-06	2.999351e-06	6.971804e-10	2.080941e+01	4.933609e+01
2.530000e-06	3.038580e-06	7.079381e-10	2.108158e+01	4.977784e+01
2.540000e-06	3.077607e-06	7.165583e-10	2.135235e+01	5.020909e+01
2.550000e-06	3.116420e-06	7.222321e-10	2.162163e+01	5.063022e+01
2.560000e-06	3.154927e-06	7.266502e-10	2.188879e+01	5.104160e+01
2.570000e-06	3.193236e-06	7.315924e-10	2.215458e+01	5.144354e+01
2.580000e-06	3.231379e-06	7.354054e-10	2.241922e+01	5.183631e+01
2.590000e-06	3.269285e-06	7.391784e-10	2.268221e+01	5.222016e+01
2.600000e-06	3.306981e-06	7.450505e-10	2.294374e+01	5.259530e+01
2.610000e-06	3.344455e-06	7.521736e-10	2.320373e+01	5.296190e+01
2.620000e-06	3.381718e-06	7.598476e-10	2.346226e+01	5.332009e+01
2.630000e-06	3.418751e-06	7.670826e-10	2.371920e+01	5.367000e+01
2.640000e-06	3.455513e-06	7.724587e-10	2.397425e+01	5.401170e+01
2.650000e-06	3.492015e-06	7.759324e-10	2.422750e+01	5.434525e+01
2.660000e-06	3.528274e-06	7.778275e-10	2.447906e+01	5.467068e+01
2.670000e-06	3.564331e-06	7.790599e-10	2.472923e+01	5.498802e+01
2.680000e-06	3.600239e-06	7.826363e-10	2.497835e+01	5.529727e+01
2.690000e-06	3.636087e-06	7.878545e-10	2.522707e+01	5.559841e+01
2.700000e-06	3.671806e-06	7.934361e-10	2.547489e+01	5.589144e+01
2.710000e-06	3.707293e-06	7.986834e-10	2.572109e+01	5.617632e+01
2.720000e-06	3.742537e-06	8.035197e-10	2.596561e+01	5.645305e+01
2.730000e-06	3.777430e-06	8.092444e-10	2.620770e+01	5.672159e+01
2.740000e-06	3.811997e-06	8.144824e-10	2.644752e+01	5.698193e+01
2.750000e-06	3.846145e-06	8.172996e-10	2.668444e+01	5.723407e+01
2.760000e-06	3.879656e-06	8.189706e-10	2.691694e+01	5.747801e+01
2.770000e-06	3.912582e-06	8.214211e-10	2.714538e+01	5.771377e+01
2.780000e-06	3.945162e-06	8.253684e-10	2.737142e+01	5.794138e+01
2.790000e-06	3.977523e-06	8.302370e-10	2.759594e+01	5.816091e+01
2.800000e-06	4.009644e-06	8.350846e-10	2.781879e+01	5.837242e+01
2.810000e-06	4.041579e-06	8.390885e-10	2.804036e+01	5.857602e+01
2.820000e-06	4.073380e-06	8.417450e-10	2.826099e+01	5.877181e+01
2.830000e-06	4.105055e-06	8.442124e-10	2.848075e+01	5.895995e+01
2.840000e-06	4.136482e-06	8.457554e-10	2.869879e+01	5.914060e+01
2.850000e-06	4.167584e-06	8.479029e-10	2.891458e+01	5.931394e+01
2.860000e-06	4.198351e-06	8.532518e-10	2.912804e+01	5.948018e+01
2.870000e-06	4.228777e-06	8.586187e-10	2.933914e+01	5.963957e+01
2.880000e-06	4.258884e-06	8.614869e-10	2.954801e+01	5.979235e+01
2.890000e-06	4.288721e-06	8.642695e-10	2.975502e+01	5.993880e+01
2.900000e-06	4.318379e-06	8.658690e-10	2.996079e+01	6.007921e+01
