# Temperatura_=_10.6
# Concentracion g/m^3_=_1620.0
# C_Vs_to_Am_M_A/Vsm_=_65563218390.804596
# pendiente_HvsI_1/m_=_3716.3
# ordenada_HvsI_A/m_=_1297.0
# frecuencia_Hz_=_135102.38527630322

Tiempo_(s)	Campo_(V.s)	Magnetizacion_(V.s)	Campo_(kA/m)	Magnetizacion_(A/m)
0.000000e+00	-5.513572e-06	-7.171391e-10	-3.837106e+01	-4.855737e+01
1.000000e-08	-5.513602e-06	-7.178540e-10	-3.837127e+01	-4.855215e+01
2.000000e-08	-5.513409e-06	-7.223446e-10	-3.836993e+01	-4.854642e+01
3.000000e-08	-5.512855e-06	-7.255019e-10	-3.836607e+01	-4.854018e+01
4.000000e-08	-5.511819e-06	-7.245272e-10	-3.835886e+01	-4.853337e+01
5.000000e-08	-5.510197e-06	-7.185297e-10	-3.834758e+01	-4.852597e+01
6.000000e-08	-5.508014e-06	-6.954601e-10	-3.833239e+01	-4.851794e+01
7.000000e-08	-5.505241e-06	-6.786616e-10	-3.831309e+01	-4.850923e+01
8.000000e-08	-5.501877e-06	-7.200932e-10	-3.828968e+01	-4.849981e+01
9.000000e-08	-5.498047e-06	-7.966165e-10	-3.826302e+01	-4.848963e+01
1.000000e-07	-5.493773e-06	-7.713029e-10	-3.823327e+01	-4.847865e+01
1.100000e-07	-5.489231e-06	-6.832203e-10	-3.820166e+01	-4.846682e+01
1.200000e-07	-5.484558e-06	-6.267573e-10	-3.816914e+01	-4.845410e+01
1.300000e-07	-5.479661e-06	-7.206502e-10	-3.813506e+01	-4.844045e+01
1.400000e-07	-5.474397e-06	-7.341218e-10	-3.809843e+01	-4.842582e+01
1.500000e-07	-5.468743e-06	-6.654084e-10	-3.805908e+01	-4.841016e+01
1.600000e-07	-5.462702e-06	-6.319949e-10	-3.801704e+01	-4.839344e+01
1.700000e-07	-5.456175e-06	-7.251497e-10	-3.797162e+01	-4.837561e+01
1.800000e-07	-5.449131e-06	-7.989496e-10	-3.792259e+01	-4.835664e+01
1.900000e-07	-5.441677e-06	-7.368505e-10	-3.787072e+01	-4.833648e+01
2.000000e-07	-5.433977e-06	-6.846241e-10	-3.781713e+01	-4.831508e+01
2.100000e-07	-5.426110e-06	-7.102513e-10	-3.776238e+01	-4.829243e+01
2.200000e-07	-5.417985e-06	-7.757695e-10	-3.770584e+01	-4.826847e+01
2.300000e-07	-5.409613e-06	-7.521668e-10	-3.764757e+01	-4.824316e+01
2.400000e-07	-5.400788e-06	-7.476527e-10	-3.758616e+01	-4.821648e+01
2.500000e-07	-5.391224e-06	-7.619793e-10	-3.751959e+01	-4.818838e+01
2.600000e-07	-5.380876e-06	-7.927553e-10	-3.744758e+01	-4.815883e+01
2.700000e-07	-5.369950e-06	-7.529448e-10	-3.737154e+01	-4.812779e+01
2.800000e-07	-5.358647e-06	-7.418584e-10	-3.729288e+01	-4.809522e+01
2.900000e-07	-5.346904e-06	-7.581921e-10	-3.721116e+01	-4.806107e+01
3.000000e-07	-5.334793e-06	-7.848363e-10	-3.712687e+01	-4.802531e+01
3.100000e-07	-5.322324e-06	-7.452395e-10	-3.704009e+01	-4.798789e+01
3.200000e-07	-5.309370e-06	-7.297608e-10	-3.694994e+01	-4.794878e+01
3.300000e-07	-5.295971e-06	-7.467986e-10	-3.685670e+01	-4.790791e+01
3.400000e-07	-5.282208e-06	-7.672338e-10	-3.676091e+01	-4.786524e+01
3.500000e-07	-5.268101e-06	-7.378512e-10	-3.666274e+01	-4.782073e+01
3.600000e-07	-5.253635e-06	-7.373061e-10	-3.656206e+01	-4.777431e+01
3.700000e-07	-5.238767e-06	-7.596885e-10	-3.645859e+01	-4.772592e+01
3.800000e-07	-5.223317e-06	-7.524487e-10	-3.635107e+01	-4.767552e+01
3.900000e-07	-5.207169e-06	-7.291160e-10	-3.623869e+01	-4.762304e+01
4.000000e-07	-5.190635e-06	-7.449948e-10	-3.612362e+01	-4.756841e+01
4.100000e-07	-5.173853e-06	-7.551321e-10	-3.600683e+01	-4.751158e+01
4.200000e-07	-5.156738e-06	-7.148425e-10	-3.588772e+01	-4.745247e+01
4.300000e-07	-5.139342e-06	-7.244482e-10	-3.576665e+01	-4.739104e+01
4.400000e-07	-5.121642e-06	-7.634719e-10	-3.564347e+01	-4.732720e+01
4.500000e-07	-5.103478e-06	-7.521101e-10	-3.551706e+01	-4.726089e+01
4.600000e-07	-5.084858e-06	-7.061359e-10	-3.538748e+01	-4.719207e+01
4.700000e-07	-5.065878e-06	-7.330494e-10	-3.525539e+01	-4.712065e+01
4.800000e-07	-5.046565e-06	-7.440583e-10	-3.512098e+01	-4.704660e+01
4.900000e-07	-5.027012e-06	-7.228914e-10	-3.498491e+01	-4.696985e+01
5.000000e-07	-5.007216e-06	-7.203022e-10	-3.484714e+01	-4.689037e+01
5.100000e-07	-4.987180e-06	-7.422756e-10	-3.470770e+01	-4.680810e+01
5.200000e-07	-4.966889e-06	-7.100296e-10	-3.456649e+01	-4.672302e+01
5.300000e-07	-4.946258e-06	-7.102484e-10	-3.442291e+01	-4.663509e+01
5.400000e-07	-4.925217e-06	-7.414201e-10	-3.427647e+01	-4.654431e+01
5.500000e-07	-4.903717e-06	-7.352047e-10	-3.412685e+01	-4.645067e+01
5.600000e-07	-4.881849e-06	-6.916070e-10	-3.397466e+01	-4.635416e+01
5.700000e-07	-4.859685e-06	-7.079143e-10	-3.382041e+01	-4.625481e+01
5.800000e-07	-4.837259e-06	-7.180007e-10	-3.366434e+01	-4.615264e+01
5.900000e-07	-4.814561e-06	-6.981234e-10	-3.350638e+01	-4.604769e+01
6.000000e-07	-4.791490e-06	-6.985278e-10	-3.334582e+01	-4.594002e+01
6.100000e-07	-4.768095e-06	-7.220662e-10	-3.318301e+01	-4.582968e+01
6.200000e-07	-4.744438e-06	-7.041080e-10	-3.301836e+01	-4.571677e+01
6.300000e-07	-4.720556e-06	-6.902594e-10	-3.285216e+01	-4.560137e+01
6.400000e-07	-4.696386e-06	-7.009515e-10	-3.268395e+01	-4.548358e+01
6.500000e-07	-4.671818e-06	-6.994932e-10	-3.251297e+01	-4.536355e+01
6.600000e-07	-4.646752e-06	-6.922068e-10	-3.233853e+01	-4.524138e+01
6.700000e-07	-4.621085e-06	-7.019367e-10	-3.215990e+01	-4.511725e+01
6.800000e-07	-4.594993e-06	-7.005006e-10	-3.197832e+01	-4.499129e+01
6.900000e-07	-4.568500e-06	-6.893130e-10	-3.179394e+01	-4.486368e+01
7.000000e-07	-4.541461e-06	-6.943447e-10	-3.160577e+01	-4.473461e+01
7.100000e-07	-4.514030e-06	-6.908416e-10	-3.141487e+01	-4.460425e+01
7.200000e-07	-4.486373e-06	-6.780279e-10	-3.122239e+01	-4.447281e+01
7.300000e-07	-4.458515e-06	-6.763062e-10	-3.102852e+01	-4.434048e+01
7.400000e-07	-4.430498e-06	-6.862795e-10	-3.083354e+01	-4.420747e+01
7.500000e-07	-4.402310e-06	-6.829771e-10	-3.063736e+01	-4.407398e+01
7.600000e-07	-4.373944e-06	-6.866248e-10	-3.043996e+01	-4.394023e+01
7.700000e-07	-4.345225e-06	-6.834087e-10	-3.024009e+01	-4.380641e+01
7.800000e-07	-4.316105e-06	-6.743386e-10	-3.003743e+01	-4.367273e+01
7.900000e-07	-4.286717e-06	-6.677996e-10	-2.983291e+01	-4.353939e+01
8.000000e-07	-4.257021e-06	-6.727836e-10	-2.962625e+01	-4.340656e+01
8.100000e-07	-4.227023e-06	-6.643966e-10	-2.941748e+01	-4.327443e+01
8.200000e-07	-4.196797e-06	-6.626068e-10	-2.920712e+01	-4.314315e+01
8.300000e-07	-4.166384e-06	-6.680016e-10	-2.899547e+01	-4.301289e+01
8.400000e-07	-4.135592e-06	-6.709666e-10	-2.878117e+01	-4.288377e+01
8.500000e-07	-4.104392e-06	-6.610502e-10	-2.856404e+01	-4.275590e+01
8.600000e-07	-4.072970e-06	-6.597546e-10	-2.834536e+01	-4.262937e+01
8.700000e-07	-4.041394e-06	-6.560108e-10	-2.812561e+01	-4.250427e+01
8.800000e-07	-4.009655e-06	-6.505587e-10	-2.790473e+01	-4.238063e+01
8.900000e-07	-3.977732e-06	-6.466314e-10	-2.768257e+01	-4.225847e+01
9.000000e-07	-3.945547e-06	-6.474871e-10	-2.745858e+01	-4.213779e+01
9.100000e-07	-3.913036e-06	-6.407471e-10	-2.723232e+01	-4.201857e+01
9.200000e-07	-3.880151e-06	-6.376717e-10	-2.700346e+01	-4.190073e+01
9.300000e-07	-3.846810e-06	-6.424303e-10	-2.677142e+01	-4.178419e+01
9.400000e-07	-3.812988e-06	-6.434581e-10	-2.653605e+01	-4.166883e+01
9.500000e-07	-3.778708e-06	-6.386571e-10	-2.629748e+01	-4.155451e+01
9.600000e-07	-3.744070e-06	-6.382450e-10	-2.605642e+01	-4.144104e+01
9.700000e-07	-3.709091e-06	-6.373794e-10	-2.581299e+01	-4.132823e+01
9.800000e-07	-3.673774e-06	-6.314261e-10	-2.556720e+01	-4.121585e+01
9.900000e-07	-3.638253e-06	-6.301944e-10	-2.532000e+01	-4.110364e+01
1.000000e-06	-3.602628e-06	-6.308298e-10	-2.507207e+01	-4.099132e+01
1.010000e-06	-3.566875e-06	-6.279900e-10	-2.482325e+01	-4.087858e+01
1.020000e-06	-3.530958e-06	-6.235649e-10	-2.457329e+01	-4.076511e+01
1.030000e-06	-3.494818e-06	-6.254436e-10	-2.432178e+01	-4.065055e+01
1.040000e-06	-3.458418e-06	-6.233981e-10	-2.406846e+01	-4.053455e+01
1.050000e-06	-3.421826e-06	-6.177706e-10	-2.381380e+01	-4.041674e+01
1.060000e-06	-3.385022e-06	-6.113006e-10	-2.355767e+01	-4.029673e+01
1.070000e-06	-3.347985e-06	-6.092133e-10	-2.329991e+01	-4.017412e+01
1.080000e-06	-3.310642e-06	-6.042754e-10	-2.304003e+01	-4.004852e+01
1.090000e-06	-3.272938e-06	-6.054736e-10	-2.277763e+01	-3.991953e+01
1.100000e-06	-3.235049e-06	-6.053515e-10	-2.251395e+01	-3.978674e+01
1.110000e-06	-3.197042e-06	-6.018169e-10	-2.224944e+01	-3.964976e+01
1.120000e-06	-3.158841e-06	-5.935045e-10	-2.198359e+01	-3.950819e+01
1.130000e-06	-3.120376e-06	-5.897107e-10	-2.171589e+01	-3.936165e+01
1.140000e-06	-3.081587e-06	-5.850527e-10	-2.144595e+01	-3.920978e+01
1.150000e-06	-3.042561e-06	-5.810348e-10	-2.117435e+01	-3.905221e+01
1.160000e-06	-3.003415e-06	-5.806690e-10	-2.090192e+01	-3.888862e+01
1.170000e-06	-2.964102e-06	-5.836270e-10	-2.062832e+01	-3.871868e+01
1.180000e-06	-2.924650e-06	-5.825976e-10	-2.035376e+01	-3.854210e+01
1.190000e-06	-2.885071e-06	-5.794744e-10	-2.007831e+01	-3.835860e+01
1.200000e-06	-2.845330e-06	-5.736515e-10	-1.980175e+01	-3.816796e+01
1.210000e-06	-2.805407e-06	-5.667133e-10	-1.952390e+01	-3.796995e+01
1.220000e-06	-2.765348e-06	-5.594186e-10	-1.924512e+01	-3.776437e+01
1.230000e-06	-2.725176e-06	-5.540941e-10	-1.896554e+01	-3.755108e+01
1.240000e-06	-2.684810e-06	-5.497832e-10	-1.868462e+01	-3.732994e+01
1.250000e-06	-2.644271e-06	-5.478654e-10	-1.840250e+01	-3.710085e+01
1.260000e-06	-2.603512e-06	-5.525476e-10	-1.811884e+01	-3.686375e+01
1.270000e-06	-2.562522e-06	-5.533003e-10	-1.783357e+01	-3.661859e+01
1.280000e-06	-2.521258e-06	-5.473246e-10	-1.754640e+01	-3.636536e+01
1.290000e-06	-2.479623e-06	-5.391086e-10	-1.725665e+01	-3.610407e+01
1.300000e-06	-2.437758e-06	-5.304826e-10	-1.696529e+01	-3.583476e+01
1.310000e-06	-2.395647e-06	-5.214637e-10	-1.667223e+01	-3.555749e+01
1.320000e-06	-2.353169e-06	-5.167417e-10	-1.637661e+01	-3.527233e+01
1.330000e-06	-2.310465e-06	-5.168871e-10	-1.607941e+01	-3.497940e+01
1.340000e-06	-2.267571e-06	-5.178829e-10	-1.578090e+01	-3.467880e+01
1.350000e-06	-2.224397e-06	-5.152093e-10	-1.548043e+01	-3.437066e+01
1.360000e-06	-2.180991e-06	-5.119726e-10	-1.517835e+01	-3.405511e+01
1.370000e-06	-2.137483e-06	-5.060455e-10	-1.487557e+01	-3.373228e+01
1.380000e-06	-2.093889e-06	-5.004322e-10	-1.457218e+01	-3.340233e+01
1.390000e-06	-2.050144e-06	-4.953035e-10	-1.426774e+01	-3.306539e+01
1.400000e-06	-2.006274e-06	-4.903237e-10	-1.396243e+01	-3.272158e+01
1.410000e-06	-1.962346e-06	-4.822463e-10	-1.365672e+01	-3.237104e+01
1.420000e-06	-1.918386e-06	-4.765300e-10	-1.335078e+01	-3.201388e+01
1.430000e-06	-1.874340e-06	-4.718980e-10	-1.304425e+01	-3.165017e+01
1.440000e-06	-1.830173e-06	-4.669820e-10	-1.273688e+01	-3.128001e+01
1.450000e-06	-1.785867e-06	-4.600011e-10	-1.242854e+01	-3.090343e+01
1.460000e-06	-1.741497e-06	-4.523449e-10	-1.211974e+01	-3.052046e+01
1.470000e-06	-1.697031e-06	-4.434304e-10	-1.181029e+01	-3.013109e+01
1.480000e-06	-1.652379e-06	-4.336233e-10	-1.149954e+01	-2.973529e+01
1.490000e-06	-1.607532e-06	-4.255515e-10	-1.118743e+01	-2.933299e+01
1.500000e-06	-1.562531e-06	-4.200392e-10	-1.087426e+01	-2.892407e+01
1.510000e-06	-1.517421e-06	-4.138058e-10	-1.056032e+01	-2.850839e+01
1.520000e-06	-1.472241e-06	-4.056395e-10	-1.024589e+01	-2.808578e+01
1.530000e-06	-1.427064e-06	-3.954100e-10	-9.931487e+00	-2.765601e+01
1.540000e-06	-1.381766e-06	-3.860700e-10	-9.616238e+00	-2.721883e+01
1.550000e-06	-1.336364e-06	-3.781235e-10	-9.300271e+00	-2.677393e+01
1.560000e-06	-1.290917e-06	-3.695541e-10	-8.983984e+00	-2.632100e+01
1.570000e-06	-1.245296e-06	-3.623117e-10	-8.666493e+00	-2.585966e+01
1.580000e-06	-1.199512e-06	-3.548100e-10	-8.347868e+00	-2.538951e+01
1.590000e-06	-1.153679e-06	-3.455468e-10	-8.028893e+00	-2.491013e+01
1.600000e-06	-1.107803e-06	-3.372982e-10	-7.709627e+00	-2.442105e+01
1.610000e-06	-1.061786e-06	-3.296441e-10	-7.389376e+00	-2.392180e+01
1.620000e-06	-1.015663e-06	-3.199331e-10	-7.068391e+00	-2.341188e+01
1.630000e-06	-9.695132e-07	-3.097156e-10	-6.747215e+00	-2.289075e+01
1.640000e-06	-9.233395e-07	-2.982603e-10	-6.425874e+00	-2.235790e+01
1.650000e-06	-8.770768e-07	-2.881281e-10	-6.103914e+00	-2.181279e+01
1.660000e-06	-8.307041e-07	-2.787176e-10	-5.781188e+00	-2.125487e+01
1.670000e-06	-7.843351e-07	-2.718491e-10	-5.458489e+00	-2.068361e+01
1.680000e-06	-7.379622e-07	-2.650755e-10	-5.135762e+00	-2.009849e+01
1.690000e-06	-6.915470e-07	-2.601159e-10	-4.812741e+00	-1.949899e+01
1.700000e-06	-6.451387e-07	-2.536066e-10	-4.489768e+00	-1.888463e+01
1.710000e-06	-5.987032e-07	-2.423423e-10	-4.166605e+00	-1.825495e+01
1.720000e-06	-5.521766e-07	-2.280298e-10	-3.842809e+00	-1.760950e+01
1.730000e-06	-5.056551e-07	-2.157664e-10	-3.519048e+00	-1.694790e+01
1.740000e-06	-4.590593e-07	-2.051953e-10	-3.194770e+00	-1.626981e+01
1.750000e-06	-4.124506e-07	-1.960680e-10	-2.870402e+00	-1.557492e+01
1.760000e-06	-3.658267e-07	-1.874172e-10	-2.545928e+00	-1.486299e+01
1.770000e-06	-3.191260e-07	-1.798686e-10	-2.220921e+00	-1.413384e+01
1.780000e-06	-2.724547e-07	-1.724965e-10	-1.896117e+00	-1.338735e+01
1.790000e-06	-2.257390e-07	-1.594007e-10	-1.571004e+00	-1.262347e+01
1.800000e-06	-1.789914e-07	-1.426198e-10	-1.245670e+00	-1.184222e+01
1.810000e-06	-1.321720e-07	-1.269006e-10	-9.198360e-01	-1.104369e+01
1.820000e-06	-8.535737e-08	-1.137355e-10	-5.940347e-01	-1.022807e+01
1.830000e-06	-3.856278e-08	-1.016349e-10	-2.683732e-01	-9.395595e+00
1.840000e-06	8.297635e-09	-9.004976e-11	5.774643e-02	-8.546617e+00
1.850000e-06	5.504591e-08	-8.187507e-11	3.830856e-01	-7.681551e+00
1.860000e-06	1.016992e-07	-7.308169e-11	7.077640e-01	-6.800897e+00
1.870000e-06	1.483821e-07	-6.182836e-11	1.032648e+00	-5.905241e+00
1.880000e-06	1.951276e-07	-4.973661e-11	1.357968e+00	-4.995247e+00
1.890000e-06	2.419014e-07	-3.541902e-11	1.683484e+00	-4.071662e+00
1.900000e-06	2.886063e-07	-2.033362e-11	2.008522e+00	-3.135308e+00
1.910000e-06	3.352876e-07	-4.745424e-12	2.333395e+00	-2.187082e+00
1.920000e-06	3.819909e-07	8.192989e-12	2.658421e+00	-1.227953e+00
1.930000e-06	4.286207e-07	2.007332e-11	2.982936e+00	-2.589543e-01
1.940000e-06	4.751623e-07	2.952521e-11	3.306837e+00	7.188167e-01
1.950000e-06	5.216592e-07	3.817059e-11	3.630427e+00	1.704207e+00
1.960000e-06	5.680594e-07	4.777302e-11	3.953343e+00	2.696012e+00
1.970000e-06	6.144983e-07	6.033678e-11	4.276529e+00	3.692982e+00
1.980000e-06	6.608565e-07	7.511688e-11	4.599154e+00	4.693831e+00
1.990000e-06	7.070594e-07	9.201827e-11	4.920698e+00	5.697241e+00
2.000000e-06	7.532703e-07	1.097452e-10	5.242297e+00	6.701867e+00
2.010000e-06	7.994686e-07	1.247002e-10	5.563809e+00	7.706353e+00
2.020000e-06	8.456769e-07	1.358277e-10	5.885390e+00	8.709328e+00
2.030000e-06	8.919252e-07	1.466432e-10	6.207250e+00	9.709424e+00
2.040000e-06	9.380684e-07	1.572057e-10	6.528378e+00	1.070528e+01
2.050000e-06	9.840424e-07	1.691614e-10	6.848329e+00	1.169554e+01
2.060000e-06	1.030020e-06	1.833397e-10	7.168302e+00	1.267888e+01
2.070000e-06	1.075975e-06	1.993591e-10	7.488125e+00	1.365401e+01
2.080000e-06	1.121834e-06	2.147564e-10	7.807273e+00	1.461965e+01
2.090000e-06	1.167613e-06	2.275748e-10	8.125868e+00	1.557460e+01
2.100000e-06	1.213326e-06	2.394547e-10	8.444004e+00	1.651768e+01
2.110000e-06	1.258913e-06	2.501988e-10	8.761261e+00	1.744778e+01
2.120000e-06	1.304390e-06	2.600262e-10	9.077748e+00	1.836385e+01
2.130000e-06	1.349825e-06	2.701812e-10	9.393948e+00	1.926491e+01
2.140000e-06	1.395167e-06	2.828919e-10	9.709503e+00	2.015004e+01
2.150000e-06	1.440389e-06	2.949518e-10	1.002422e+01	2.101841e+01
2.160000e-06	1.485520e-06	3.083989e-10	1.033830e+01	2.186926e+01
2.170000e-06	1.530497e-06	3.213956e-10	1.065132e+01	2.270192e+01
2.180000e-06	1.575212e-06	3.301336e-10	1.096250e+01	2.351580e+01
2.190000e-06	1.619834e-06	3.374659e-10	1.127305e+01	2.431040e+01
2.200000e-06	1.664436e-06	3.453531e-10	1.158345e+01	2.508530e+01
2.210000e-06	1.708910e-06	3.561149e-10	1.189296e+01	2.584019e+01
2.220000e-06	1.753251e-06	3.691370e-10	1.220155e+01	2.657483e+01
2.230000e-06	1.797459e-06	3.811636e-10	1.250920e+01	2.728905e+01
2.240000e-06	1.841583e-06	3.902567e-10	1.281628e+01	2.798281e+01
2.250000e-06	1.885612e-06	3.968701e-10	1.312270e+01	2.865611e+01
2.260000e-06	1.929536e-06	4.023499e-10	1.342838e+01	2.930905e+01
2.270000e-06	1.973416e-06	4.081156e-10	1.373376e+01	2.994181e+01
2.280000e-06	2.017251e-06	4.152498e-10	1.403882e+01	3.055463e+01
2.290000e-06	2.061011e-06	4.224855e-10	1.434336e+01	3.114784e+01
2.300000e-06	2.104679e-06	4.320829e-10	1.464727e+01	3.172180e+01
2.310000e-06	2.148269e-06	4.441749e-10	1.495063e+01	3.227697e+01
2.320000e-06	2.191786e-06	4.542581e-10	1.525348e+01	3.281382e+01
2.330000e-06	2.235164e-06	4.612961e-10	1.555536e+01	3.333291e+01
2.340000e-06	2.278317e-06	4.664231e-10	1.585568e+01	3.383481e+01
2.350000e-06	2.321223e-06	4.717745e-10	1.615428e+01	3.432013e+01
2.360000e-06	2.363974e-06	4.766818e-10	1.645180e+01	3.478952e+01
2.370000e-06	2.406475e-06	4.812678e-10	1.674758e+01	3.524365e+01
2.380000e-06	2.448524e-06	4.893166e-10	1.704022e+01	3.568321e+01
2.390000e-06	2.490227e-06	4.987365e-10	1.733044e+01	3.610887e+01
2.400000e-06	2.531627e-06	5.097514e-10	1.761856e+01	3.652135e+01
2.410000e-06	2.572690e-06	5.208394e-10	1.790433e+01	3.692133e+01
2.420000e-06	2.613521e-06	5.311320e-10	1.818849e+01	3.730951e+01
2.430000e-06	2.654055e-06	5.378746e-10	1.847059e+01	3.768655e+01
2.440000e-06	2.694347e-06	5.424726e-10	1.875099e+01	3.805313e+01
2.450000e-06	2.734510e-06	5.473956e-10	1.903050e+01	3.840985e+01
2.460000e-06	2.774537e-06	5.533192e-10	1.930907e+01	3.875735e+01
2.470000e-06	2.814487e-06	5.603765e-10	1.958710e+01	3.909618e+01
2.480000e-06	2.854308e-06	5.663571e-10	1.986423e+01	3.942689e+01
2.490000e-06	2.893995e-06	5.726092e-10	2.014042e+01	3.974998e+01
2.500000e-06	2.933518e-06	5.791155e-10	2.041548e+01	4.006591e+01
2.510000e-06	2.972885e-06	5.843490e-10	2.068945e+01	4.037511e+01
2.520000e-06	3.012168e-06	5.892227e-10	2.096283e+01	4.067794e+01
2.530000e-06	3.051182e-06	5.945932e-10	2.123435e+01	4.097474e+01
2.540000e-06	3.089852e-06	5.994534e-10	2.150346e+01	4.126579e+01
2.550000e-06	3.128276e-06	6.029161e-10	2.177087e+01	4.155133e+01
2.560000e-06	3.166507e-06	6.052890e-10	2.203694e+01	4.183156e+01
2.570000e-06	3.204579e-06	6.068096e-10	2.230190e+01	4.210664e+01
2.580000e-06	3.242491e-06	6.095104e-10	2.256574e+01	4.237666e+01
2.590000e-06	3.280213e-06	6.143068e-10	2.282826e+01	4.264170e+01
2.600000e-06	3.317700e-06	6.197836e-10	2.308915e+01	4.290178e+01
2.610000e-06	3.354871e-06	6.264931e-10	2.334784e+01	4.315690e+01
2.620000e-06	3.391789e-06	6.330503e-10	2.360476e+01	4.340703e+01
2.630000e-06	3.428505e-06	6.371260e-10	2.386028e+01	4.365208e+01
2.640000e-06	3.464949e-06	6.361224e-10	2.411391e+01	4.389197e+01
2.650000e-06	3.501185e-06	6.340975e-10	2.436609e+01	4.412657e+01
2.660000e-06	3.537205e-06	6.339363e-10	2.461677e+01	4.435575e+01
2.670000e-06	3.573027e-06	6.358127e-10	2.486607e+01	4.457935e+01
2.680000e-06	3.608736e-06	6.393446e-10	2.511458e+01	4.479720e+01
2.690000e-06	3.644347e-06	6.437369e-10	2.536241e+01	4.500913e+01
2.700000e-06	3.679872e-06	6.493001e-10	2.560964e+01	4.521496e+01
2.710000e-06	3.715231e-06	6.537795e-10	2.585572e+01	4.541451e+01
2.720000e-06	3.750212e-06	6.573937e-10	2.609917e+01	4.560761e+01
2.730000e-06	3.784725e-06	6.614431e-10	2.633935e+01	4.579408e+01
2.740000e-06	3.818725e-06	6.641138e-10	2.657597e+01	4.597377e+01
2.750000e-06	3.852159e-06	6.656634e-10	2.680865e+01	4.614653e+01
2.760000e-06	3.885142e-06	6.670916e-10	2.703820e+01	4.631223e+01
2.770000e-06	3.917772e-06	6.686024e-10	2.726528e+01	4.647075e+01
2.780000e-06	3.950100e-06	6.704056e-10	2.749026e+01	4.662202e+01
2.790000e-06	3.982151e-06	6.735568e-10	2.771331e+01	4.676596e+01
2.800000e-06	4.014019e-06	6.780303e-10	2.793510e+01	4.690252e+01
2.810000e-06	4.045774e-06	6.835654e-10	2.815610e+01	4.703170e+01
2.820000e-06	4.077398e-06	6.887995e-10	2.837618e+01	4.715349e+01
2.830000e-06	4.108827e-06	6.912405e-10	2.859491e+01	4.726795e+01
2.840000e-06	4.139938e-06	6.899995e-10	2.881142e+01	4.737513e+01
2.850000e-06	4.170731e-06	6.895475e-10	2.902572e+01	4.747512e+01
2.860000e-06	4.201179e-06	6.914889e-10	2.923762e+01	4.756806e+01
2.870000e-06	4.231271e-06	6.924624e-10	2.944704e+01	4.765408e+01
2.880000e-06	4.261114e-06	6.943102e-10	2.965473e+01	4.773337e+01
2.890000e-06	4.290764e-06	6.976905e-10	2.986107e+01	4.780612e+01
2.900000e-06	4.320179e-06	7.016254e-10	3.006579e+01	4.787256e+01
