# Temperatura_=_15.0
# Concentracion g/m^3_=_1620.0
# C_Vs_to_Am_M_A/Vsm_=_65563218390.804596
# pendiente_HvsI_1/m_=_3716.3
# ordenada_HvsI_A/m_=_1297.0
# frecuencia_Hz_=_135098.49247508158

Tiempo_(s)	Campo_(V.s)	Magnetizacion_(V.s)	Campo_(kA/m)	Magnetizacion_(A/m)
0.000000e+00	-5.542650e-06	-8.613468e-10	-3.837155e+01	-5.661344e+01
1.000000e-08	-5.542748e-06	-8.634033e-10	-3.837223e+01	-5.660189e+01
2.000000e-08	-5.542570e-06	-8.715179e-10	-3.837100e+01	-5.658830e+01
3.000000e-08	-5.541959e-06	-8.760598e-10	-3.836677e+01	-5.657263e+01
4.000000e-08	-5.540876e-06	-8.776739e-10	-3.835927e+01	-5.655483e+01
5.000000e-08	-5.539214e-06	-8.691857e-10	-3.834776e+01	-5.653488e+01
6.000000e-08	-5.536864e-06	-8.411631e-10	-3.833150e+01	-5.651276e+01
7.000000e-08	-5.533936e-06	-8.151414e-10	-3.831122e+01	-5.648846e+01
8.000000e-08	-5.530589e-06	-8.660509e-10	-3.828805e+01	-5.646197e+01
9.000000e-08	-5.526761e-06	-9.514453e-10	-3.826155e+01	-5.643332e+01
1.000000e-07	-5.522401e-06	-9.145210e-10	-3.823136e+01	-5.640251e+01
1.100000e-07	-5.517812e-06	-8.060772e-10	-3.819960e+01	-5.636959e+01
1.200000e-07	-5.513112e-06	-7.760334e-10	-3.816706e+01	-5.633460e+01
1.300000e-07	-5.508128e-06	-8.776180e-10	-3.813255e+01	-5.629760e+01
1.400000e-07	-5.502719e-06	-8.843683e-10	-3.809511e+01	-5.625866e+01
1.500000e-07	-5.496908e-06	-7.874474e-10	-3.805488e+01	-5.621786e+01
1.600000e-07	-5.490818e-06	-7.965983e-10	-3.801272e+01	-5.617529e+01
1.700000e-07	-5.484308e-06	-8.754210e-10	-3.796765e+01	-5.613106e+01
1.800000e-07	-5.477325e-06	-9.109678e-10	-3.791931e+01	-5.608527e+01
1.900000e-07	-5.470029e-06	-8.142668e-10	-3.786880e+01	-5.603804e+01
2.000000e-07	-5.462460e-06	-8.130167e-10	-3.781640e+01	-5.598949e+01
2.100000e-07	-5.454547e-06	-8.571874e-10	-3.776162e+01	-5.593974e+01
2.200000e-07	-5.446369e-06	-9.016664e-10	-3.770500e+01	-5.588893e+01
2.300000e-07	-5.437928e-06	-8.533368e-10	-3.764656e+01	-5.583719e+01
2.400000e-07	-5.429055e-06	-8.435817e-10	-3.758514e+01	-5.578464e+01
2.500000e-07	-5.419344e-06	-8.591444e-10	-3.751790e+01	-5.573141e+01
2.600000e-07	-5.408873e-06	-8.803740e-10	-3.744542e+01	-5.567762e+01
2.700000e-07	-5.397928e-06	-8.637042e-10	-3.736964e+01	-5.562339e+01
2.800000e-07	-5.386506e-06	-8.690579e-10	-3.729057e+01	-5.556883e+01
2.900000e-07	-5.374720e-06	-8.937186e-10	-3.720898e+01	-5.551402e+01
3.000000e-07	-5.362565e-06	-8.992141e-10	-3.712483e+01	-5.545905e+01
3.100000e-07	-5.349970e-06	-8.860971e-10	-3.703763e+01	-5.540400e+01
3.200000e-07	-5.336888e-06	-8.560740e-10	-3.694707e+01	-5.534892e+01
3.300000e-07	-5.323506e-06	-8.753311e-10	-3.685442e+01	-5.529384e+01
3.400000e-07	-5.309826e-06	-8.695317e-10	-3.675972e+01	-5.523878e+01
3.500000e-07	-5.295640e-06	-8.612051e-10	-3.666151e+01	-5.518375e+01
3.600000e-07	-5.281084e-06	-8.607996e-10	-3.656074e+01	-5.512873e+01
3.700000e-07	-5.266197e-06	-9.036327e-10	-3.645768e+01	-5.507366e+01
3.800000e-07	-5.250600e-06	-8.774471e-10	-3.634970e+01	-5.501850e+01
3.900000e-07	-5.234360e-06	-8.560098e-10	-3.623727e+01	-5.496315e+01
4.000000e-07	-5.217748e-06	-8.737344e-10	-3.612226e+01	-5.490751e+01
4.100000e-07	-5.200843e-06	-8.822625e-10	-3.600523e+01	-5.485146e+01
4.200000e-07	-5.183568e-06	-8.240880e-10	-3.588564e+01	-5.479485e+01
4.300000e-07	-5.165916e-06	-8.457234e-10	-3.576344e+01	-5.473750e+01
4.400000e-07	-5.148022e-06	-8.880482e-10	-3.563956e+01	-5.467925e+01
4.500000e-07	-5.129818e-06	-8.652020e-10	-3.551353e+01	-5.461989e+01
4.600000e-07	-5.111138e-06	-8.257515e-10	-3.538421e+01	-5.455920e+01
4.700000e-07	-5.092047e-06	-8.693453e-10	-3.525204e+01	-5.449695e+01
4.800000e-07	-5.072608e-06	-8.679386e-10	-3.511747e+01	-5.443290e+01
4.900000e-07	-5.052902e-06	-8.357041e-10	-3.498104e+01	-5.436681e+01
5.000000e-07	-5.033113e-06	-8.458721e-10	-3.484404e+01	-5.429842e+01
5.100000e-07	-5.013069e-06	-8.616667e-10	-3.470528e+01	-5.422747e+01
5.200000e-07	-4.992559e-06	-8.244277e-10	-3.456329e+01	-5.415371e+01
5.300000e-07	-4.971633e-06	-8.374540e-10	-3.441842e+01	-5.407687e+01
5.400000e-07	-4.950426e-06	-8.700718e-10	-3.427161e+01	-5.399671e+01
5.500000e-07	-4.928859e-06	-8.404188e-10	-3.412230e+01	-5.391298e+01
5.600000e-07	-4.906928e-06	-8.124827e-10	-3.397047e+01	-5.382545e+01
5.700000e-07	-4.884723e-06	-8.420346e-10	-3.381675e+01	-5.373390e+01
5.800000e-07	-4.862157e-06	-8.432171e-10	-3.366053e+01	-5.363813e+01
5.900000e-07	-4.839231e-06	-8.127076e-10	-3.350181e+01	-5.353795e+01
6.000000e-07	-4.815924e-06	-8.276819e-10	-3.334046e+01	-5.343320e+01
6.100000e-07	-4.792319e-06	-8.401549e-10	-3.317704e+01	-5.332374e+01
6.200000e-07	-4.768551e-06	-8.150945e-10	-3.301249e+01	-5.320947e+01
6.300000e-07	-4.744589e-06	-8.042735e-10	-3.284660e+01	-5.309029e+01
6.400000e-07	-4.720307e-06	-8.246558e-10	-3.267850e+01	-5.296615e+01
6.500000e-07	-4.695576e-06	-8.130171e-10	-3.250729e+01	-5.283703e+01
6.600000e-07	-4.670485e-06	-8.041087e-10	-3.233358e+01	-5.270293e+01
6.700000e-07	-4.644927e-06	-8.130038e-10	-3.215665e+01	-5.256390e+01
6.800000e-07	-4.618729e-06	-8.156503e-10	-3.197528e+01	-5.241999e+01
6.900000e-07	-4.591933e-06	-7.965605e-10	-3.178977e+01	-5.227132e+01
7.000000e-07	-4.564670e-06	-8.036138e-10	-3.160103e+01	-5.211801e+01
7.100000e-07	-4.537172e-06	-8.062642e-10	-3.141066e+01	-5.196024e+01
7.200000e-07	-4.509511e-06	-7.971218e-10	-3.121917e+01	-5.179820e+01
7.300000e-07	-4.481682e-06	-7.897586e-10	-3.102651e+01	-5.163210e+01
7.400000e-07	-4.453646e-06	-8.026332e-10	-3.083242e+01	-5.146219e+01
7.500000e-07	-4.425333e-06	-7.939508e-10	-3.063641e+01	-5.128876e+01
7.600000e-07	-4.396745e-06	-7.846922e-10	-3.043849e+01	-5.111207e+01
7.700000e-07	-4.367838e-06	-7.851913e-10	-3.023837e+01	-5.093245e+01
7.800000e-07	-4.338581e-06	-7.853218e-10	-3.003583e+01	-5.075023e+01
7.900000e-07	-4.309010e-06	-7.758040e-10	-2.983110e+01	-5.056572e+01
8.000000e-07	-4.279168e-06	-7.800406e-10	-2.962451e+01	-5.037928e+01
8.100000e-07	-4.248985e-06	-7.781179e-10	-2.941556e+01	-5.019126e+01
8.200000e-07	-4.218375e-06	-7.702053e-10	-2.920365e+01	-5.000199e+01
8.300000e-07	-4.187537e-06	-7.674135e-10	-2.899016e+01	-4.981183e+01
8.400000e-07	-4.156616e-06	-7.666555e-10	-2.877609e+01	-4.962111e+01
8.500000e-07	-4.125442e-06	-7.556268e-10	-2.856027e+01	-4.943015e+01
8.600000e-07	-4.094032e-06	-7.514322e-10	-2.834282e+01	-4.923926e+01
8.700000e-07	-4.062426e-06	-7.546501e-10	-2.812402e+01	-4.904873e+01
8.800000e-07	-4.030605e-06	-7.517885e-10	-2.790372e+01	-4.885883e+01
8.900000e-07	-3.998585e-06	-7.492366e-10	-2.768205e+01	-4.866979e+01
9.000000e-07	-3.966301e-06	-7.450506e-10	-2.745855e+01	-4.848183e+01
9.100000e-07	-3.933576e-06	-7.351294e-10	-2.723199e+01	-4.829511e+01
9.200000e-07	-3.900473e-06	-7.229288e-10	-2.700282e+01	-4.810979e+01
9.300000e-07	-3.866976e-06	-7.234889e-10	-2.677092e+01	-4.792597e+01
9.400000e-07	-3.832952e-06	-7.238959e-10	-2.653538e+01	-4.774372e+01
9.500000e-07	-3.798460e-06	-7.241430e-10	-2.629659e+01	-4.756305e+01
9.600000e-07	-3.763560e-06	-7.248297e-10	-2.605498e+01	-4.738394e+01
9.700000e-07	-3.728353e-06	-7.280664e-10	-2.581124e+01	-4.720635e+01
9.800000e-07	-3.692930e-06	-7.192907e-10	-2.556601e+01	-4.703015e+01
9.900000e-07	-3.657366e-06	-7.119312e-10	-2.531981e+01	-4.685521e+01
1.000000e-06	-3.621631e-06	-7.038651e-10	-2.507241e+01	-4.668133e+01
1.010000e-06	-3.585707e-06	-6.968659e-10	-2.482371e+01	-4.650829e+01
1.020000e-06	-3.549598e-06	-6.913695e-10	-2.457373e+01	-4.633581e+01
1.030000e-06	-3.513286e-06	-6.965111e-10	-2.432234e+01	-4.616358e+01
1.040000e-06	-3.476757e-06	-6.987159e-10	-2.406945e+01	-4.599125e+01
1.050000e-06	-3.439929e-06	-6.951051e-10	-2.381450e+01	-4.581845e+01
1.060000e-06	-3.402828e-06	-6.886942e-10	-2.355765e+01	-4.564478e+01
1.070000e-06	-3.365583e-06	-6.834921e-10	-2.329980e+01	-4.546979e+01
1.080000e-06	-3.328116e-06	-6.739683e-10	-2.304042e+01	-4.529304e+01
1.090000e-06	-3.290322e-06	-6.706238e-10	-2.277877e+01	-4.511404e+01
1.100000e-06	-3.252254e-06	-6.693863e-10	-2.251523e+01	-4.493230e+01
1.110000e-06	-3.213962e-06	-6.653040e-10	-2.225014e+01	-4.474733e+01
1.120000e-06	-3.175441e-06	-6.609609e-10	-2.198345e+01	-4.455863e+01
1.130000e-06	-3.136706e-06	-6.613550e-10	-2.171529e+01	-4.436567e+01
1.140000e-06	-3.097734e-06	-6.583945e-10	-2.144549e+01	-4.416796e+01
1.150000e-06	-3.058646e-06	-6.495967e-10	-2.117489e+01	-4.396501e+01
1.160000e-06	-3.019473e-06	-6.431526e-10	-2.090369e+01	-4.375632e+01
1.170000e-06	-2.980135e-06	-6.397978e-10	-2.063136e+01	-4.354142e+01
1.180000e-06	-2.940642e-06	-6.361158e-10	-2.035795e+01	-4.331988e+01
1.190000e-06	-2.900952e-06	-6.319358e-10	-2.008317e+01	-4.309125e+01
1.200000e-06	-2.861087e-06	-6.307472e-10	-1.980719e+01	-4.285515e+01
1.210000e-06	-2.821080e-06	-6.270707e-10	-1.953023e+01	-4.261121e+01
1.220000e-06	-2.780917e-06	-6.221689e-10	-1.925218e+01	-4.235909e+01
1.230000e-06	-2.740603e-06	-6.183599e-10	-1.897309e+01	-4.209848e+01
1.240000e-06	-2.700124e-06	-6.148420e-10	-1.869285e+01	-4.182914e+01
1.250000e-06	-2.659307e-06	-6.055056e-10	-1.841028e+01	-4.155083e+01
1.260000e-06	-2.618153e-06	-6.008725e-10	-1.812537e+01	-4.126338e+01
1.270000e-06	-2.576660e-06	-5.989093e-10	-1.783812e+01	-4.096663e+01
1.280000e-06	-2.534817e-06	-5.951144e-10	-1.754844e+01	-4.066049e+01
1.290000e-06	-2.492820e-06	-5.905649e-10	-1.725769e+01	-4.034489e+01
1.300000e-06	-2.450611e-06	-5.888655e-10	-1.696549e+01	-4.001981e+01
1.310000e-06	-2.408056e-06	-5.847963e-10	-1.667088e+01	-3.968526e+01
1.320000e-06	-2.365237e-06	-5.776242e-10	-1.637445e+01	-3.934128e+01
1.330000e-06	-2.322189e-06	-5.708074e-10	-1.607642e+01	-3.898796e+01
1.340000e-06	-2.278907e-06	-5.646182e-10	-1.577678e+01	-3.862541e+01
1.350000e-06	-2.235499e-06	-5.555097e-10	-1.547627e+01	-3.825376e+01
1.360000e-06	-2.191979e-06	-5.491759e-10	-1.517499e+01	-3.787318e+01
1.370000e-06	-2.148338e-06	-5.471280e-10	-1.487286e+01	-3.748384e+01
1.380000e-06	-2.104615e-06	-5.451378e-10	-1.457017e+01	-3.708593e+01
1.390000e-06	-2.060782e-06	-5.396761e-10	-1.426672e+01	-3.667967e+01
1.400000e-06	-2.016868e-06	-5.344312e-10	-1.396270e+01	-3.626525e+01
1.410000e-06	-1.972909e-06	-5.283434e-10	-1.365837e+01	-3.584289e+01
1.420000e-06	-1.928869e-06	-5.216519e-10	-1.335348e+01	-3.541279e+01
1.430000e-06	-1.884738e-06	-5.153481e-10	-1.304797e+01	-3.497516e+01
1.440000e-06	-1.840516e-06	-5.075825e-10	-1.274182e+01	-3.453017e+01
1.450000e-06	-1.796068e-06	-4.986836e-10	-1.243411e+01	-3.407799e+01
1.460000e-06	-1.751371e-06	-4.914067e-10	-1.212467e+01	-3.361876e+01
1.470000e-06	-1.706596e-06	-4.854656e-10	-1.181470e+01	-3.315260e+01
1.480000e-06	-1.661711e-06	-4.803404e-10	-1.150396e+01	-3.267959e+01
1.490000e-06	-1.616647e-06	-4.753026e-10	-1.119198e+01	-3.219979e+01
1.500000e-06	-1.571406e-06	-4.661323e-10	-1.087878e+01	-3.171321e+01
1.510000e-06	-1.526046e-06	-4.537019e-10	-1.056476e+01	-3.121982e+01
1.520000e-06	-1.480629e-06	-4.406645e-10	-1.025034e+01	-3.071955e+01
1.530000e-06	-1.435158e-06	-4.289751e-10	-9.935545e+00	-3.021229e+01
1.540000e-06	-1.389656e-06	-4.197679e-10	-9.620535e+00	-2.969788e+01
1.550000e-06	-1.344049e-06	-4.126581e-10	-9.304797e+00	-2.917611e+01
1.560000e-06	-1.298331e-06	-4.048055e-10	-8.988296e+00	-2.864674e+01
1.570000e-06	-1.252595e-06	-3.969743e-10	-8.671665e+00	-2.810947e+01
1.580000e-06	-1.206793e-06	-3.897854e-10	-8.354584e+00	-2.756395e+01
1.590000e-06	-1.160892e-06	-3.793998e-10	-8.036809e+00	-2.700981e+01
1.600000e-06	-1.114923e-06	-3.669071e-10	-7.718569e+00	-2.644662e+01
1.610000e-06	-1.068809e-06	-3.547698e-10	-7.399323e+00	-2.587393e+01
1.620000e-06	-1.022567e-06	-3.428521e-10	-7.079190e+00	-2.529124e+01
1.630000e-06	-9.762250e-07	-3.321886e-10	-6.758368e+00	-2.469804e+01
1.640000e-06	-9.298013e-07	-3.217765e-10	-6.436978e+00	-2.409378e+01
1.650000e-06	-8.833238e-07	-3.135395e-10	-6.115217e+00	-2.347789e+01
1.660000e-06	-8.367233e-07	-3.027020e-10	-5.792603e+00	-2.284981e+01
1.670000e-06	-7.900536e-07	-2.911876e-10	-5.469511e+00	-2.220894e+01
1.680000e-06	-7.433395e-07	-2.818539e-10	-5.146111e+00	-2.155471e+01
1.690000e-06	-6.967014e-07	-2.748156e-10	-4.823237e+00	-2.088654e+01
1.700000e-06	-6.500350e-07	-2.647189e-10	-4.500167e+00	-2.020385e+01
1.710000e-06	-6.032216e-07	-2.517593e-10	-4.176080e+00	-1.950612e+01
1.720000e-06	-5.563870e-07	-2.372250e-10	-3.851845e+00	-1.879281e+01
1.730000e-06	-5.095238e-07	-2.239575e-10	-3.527413e+00	-1.806345e+01
1.740000e-06	-4.626758e-07	-2.146371e-10	-3.203087e+00	-1.731758e+01
1.750000e-06	-4.157755e-07	-2.063693e-10	-2.878398e+00	-1.655480e+01
1.760000e-06	-3.687977e-07	-1.977898e-10	-2.553172e+00	-1.577479e+01
1.770000e-06	-3.218872e-07	-1.886017e-10	-2.228413e+00	-1.497724e+01
1.780000e-06	-2.749513e-07	-1.780046e-10	-1.903477e+00	-1.416194e+01
1.790000e-06	-2.278770e-07	-1.640583e-10	-1.577583e+00	-1.332875e+01
1.800000e-06	-1.807298e-07	-1.487316e-10	-1.251185e+00	-1.247759e+01
1.810000e-06	-1.335966e-07	-1.345437e-10	-9.248843e-01	-1.160847e+01
1.820000e-06	-8.652571e-08	-1.235014e-10	-5.990141e-01	-1.072149e+01
1.830000e-06	-3.951937e-08	-1.140826e-10	-2.735910e-01	-9.816821e+00
1.840000e-06	7.423250e-09	-1.031805e-10	5.139087e-02	-8.894743e+00
1.850000e-06	5.439012e-08	-9.211936e-11	3.765407e-01	-7.955617e+00
1.860000e-06	1.014241e-07	-7.911649e-11	7.021550e-01	-6.999898e+00
1.870000e-06	1.484247e-07	-6.405322e-11	1.027538e+00	-6.028136e+00
1.880000e-06	1.953775e-07	-4.919175e-11	1.352591e+00	-5.040973e+00
1.890000e-06	2.423832e-07	-3.362862e-11	1.678010e+00	-4.039142e+00
1.900000e-06	2.894468e-07	-2.041407e-11	2.003829e+00	-3.023467e+00
1.910000e-06	3.365322e-07	-8.045712e-12	2.329799e+00	-1.994855e+00
1.920000e-06	3.835199e-07	3.832940e-12	2.655093e+00	-9.543005e-01
1.930000e-06	4.303004e-07	1.719854e-11	2.978953e+00	9.712710e-02
1.940000e-06	4.770810e-07	3.186679e-11	3.302813e+00	1.158283e+00
1.950000e-06	5.239444e-07	4.684932e-11	3.627247e+00	2.227955e+00
1.960000e-06	5.707803e-07	6.080677e-11	3.951490e+00	3.304868e+00
1.970000e-06	6.175845e-07	7.376629e-11	4.275513e+00	4.387694e+00
1.980000e-06	6.642362e-07	8.670943e-11	4.598481e+00	5.475055e+00
1.990000e-06	7.107602e-07	1.003067e-10	4.920565e+00	6.565534e+00
2.000000e-06	7.572873e-07	1.160215e-10	5.242671e+00	7.657684e+00
2.010000e-06	8.037732e-07	1.329488e-10	5.564491e+00	8.750031e+00
2.020000e-06	8.502407e-07	1.487847e-10	5.886183e+00	9.841089e+00
2.030000e-06	8.967549e-07	1.651504e-10	6.208199e+00	1.092936e+01
2.040000e-06	9.432187e-07	1.800966e-10	6.529867e+00	1.201337e+01
2.050000e-06	9.895663e-07	1.935109e-10	6.850729e+00	1.309162e+01
2.060000e-06	1.035801e-06	2.075493e-10	7.170810e+00	1.416267e+01
2.070000e-06	1.081855e-06	2.227623e-10	7.489639e+00	1.522507e+01
2.080000e-06	1.127774e-06	2.372625e-10	7.807533e+00	1.627745e+01
2.090000e-06	1.173686e-06	2.509922e-10	8.125386e+00	1.731845e+01
2.100000e-06	1.219568e-06	2.655012e-10	8.443023e+00	1.834678e+01
2.110000e-06	1.265320e-06	2.804571e-10	8.759763e+00	1.936122e+01
2.120000e-06	1.310982e-06	2.963864e-10	9.075878e+00	2.036058e+01
2.130000e-06	1.356570e-06	3.106246e-10	9.391482e+00	2.134379e+01
2.140000e-06	1.402112e-06	3.220616e-10	9.706765e+00	2.230983e+01
2.150000e-06	1.447626e-06	3.317862e-10	1.002186e+01	2.325777e+01
2.160000e-06	1.492962e-06	3.429695e-10	1.033572e+01	2.418678e+01
2.170000e-06	1.538164e-06	3.561817e-10	1.064865e+01	2.509609e+01
2.180000e-06	1.583284e-06	3.679218e-10	1.096102e+01	2.598506e+01
2.190000e-06	1.628259e-06	3.797108e-10	1.127237e+01	2.685313e+01
2.200000e-06	1.673091e-06	3.938642e-10	1.158274e+01	2.769984e+01
2.210000e-06	1.717813e-06	4.067072e-10	1.189235e+01	2.852483e+01
2.220000e-06	1.762397e-06	4.205525e-10	1.220101e+01	2.932783e+01
2.230000e-06	1.806826e-06	4.308626e-10	1.250859e+01	3.010869e+01
2.240000e-06	1.851151e-06	4.372711e-10	1.281545e+01	3.086732e+01
2.250000e-06	1.895377e-06	4.430518e-10	1.312162e+01	3.160375e+01
2.260000e-06	1.939465e-06	4.510516e-10	1.342684e+01	3.231809e+01
2.270000e-06	1.983416e-06	4.618178e-10	1.373111e+01	3.301054e+01
2.280000e-06	2.027286e-06	4.740563e-10	1.403482e+01	3.368137e+01
2.290000e-06	2.071095e-06	4.864403e-10	1.433811e+01	3.433095e+01
2.300000e-06	2.114833e-06	4.950153e-10	1.464091e+01	3.495968e+01
2.310000e-06	2.158469e-06	5.016341e-10	1.494299e+01	3.556808e+01
2.320000e-06	2.202031e-06	5.053399e-10	1.524458e+01	3.615668e+01
2.330000e-06	2.245544e-06	5.090873e-10	1.554582e+01	3.672609e+01
2.340000e-06	2.288978e-06	5.175910e-10	1.584651e+01	3.727695e+01
2.350000e-06	2.332251e-06	5.287752e-10	1.614608e+01	3.780996e+01
2.360000e-06	2.375257e-06	5.400265e-10	1.644381e+01	3.832582e+01
2.370000e-06	2.418067e-06	5.485643e-10	1.674018e+01	3.882529e+01
2.380000e-06	2.460768e-06	5.533465e-10	1.703580e+01	3.930912e+01
2.390000e-06	2.503094e-06	5.565533e-10	1.732882e+01	3.977808e+01
2.400000e-06	2.544916e-06	5.604208e-10	1.761836e+01	4.023295e+01
2.410000e-06	2.586394e-06	5.698367e-10	1.790550e+01	4.067449e+01
2.420000e-06	2.627616e-06	5.814984e-10	1.819088e+01	4.110347e+01
2.430000e-06	2.668554e-06	5.931877e-10	1.847430e+01	4.152063e+01
2.440000e-06	2.709166e-06	6.022031e-10	1.875545e+01	4.192671e+01
2.450000e-06	2.749526e-06	6.092649e-10	1.903486e+01	4.232239e+01
2.460000e-06	2.789696e-06	6.144605e-10	1.931296e+01	4.270836e+01
2.470000e-06	2.829764e-06	6.174322e-10	1.959035e+01	4.308524e+01
2.480000e-06	2.869729e-06	6.207382e-10	1.986702e+01	4.345363e+01
2.490000e-06	2.909535e-06	6.265102e-10	2.014260e+01	4.381409e+01
2.500000e-06	2.949172e-06	6.357807e-10	2.041700e+01	4.416712e+01
2.510000e-06	2.988674e-06	6.457732e-10	2.069047e+01	4.451319e+01
2.520000e-06	3.028088e-06	6.536991e-10	2.096333e+01	4.485272e+01
2.530000e-06	3.067305e-06	6.585254e-10	2.123483e+01	4.518607e+01
2.540000e-06	3.106233e-06	6.618404e-10	2.150433e+01	4.551356e+01
2.550000e-06	3.144978e-06	6.643064e-10	2.177256e+01	4.583546e+01
2.560000e-06	3.183526e-06	6.664794e-10	2.203943e+01	4.615199e+01
2.570000e-06	3.221776e-06	6.696912e-10	2.230423e+01	4.646334e+01
2.580000e-06	3.259837e-06	6.744046e-10	2.256772e+01	4.676963e+01
2.590000e-06	3.297724e-06	6.788102e-10	2.283002e+01	4.707095e+01
2.600000e-06	3.335358e-06	6.836039e-10	2.309056e+01	4.736734e+01
2.610000e-06	3.372785e-06	6.904507e-10	2.334966e+01	4.765882e+01
2.620000e-06	3.409990e-06	6.973395e-10	2.360723e+01	4.794537e+01
2.630000e-06	3.446893e-06	7.013884e-10	2.386271e+01	4.822693e+01
2.640000e-06	3.483532e-06	7.038252e-10	2.411636e+01	4.850342e+01
2.650000e-06	3.519917e-06	7.050472e-10	2.436825e+01	4.877473e+01
2.660000e-06	3.556038e-06	7.086387e-10	2.461831e+01	4.904075e+01
2.670000e-06	3.591991e-06	7.118056e-10	2.486721e+01	4.930134e+01
2.680000e-06	3.627827e-06	7.145599e-10	2.511530e+01	4.955635e+01
2.690000e-06	3.663550e-06	7.183748e-10	2.536261e+01	4.980561e+01
2.700000e-06	3.699181e-06	7.218747e-10	2.560929e+01	5.004899e+01
2.710000e-06	3.734661e-06	7.260312e-10	2.585491e+01	5.028631e+01
2.720000e-06	3.769864e-06	7.312825e-10	2.609862e+01	5.051742e+01
2.730000e-06	3.804733e-06	7.390365e-10	2.634002e+01	5.074219e+01
2.740000e-06	3.839197e-06	7.437865e-10	2.657861e+01	5.096047e+01
2.750000e-06	3.873235e-06	7.459575e-10	2.681425e+01	5.117215e+01
2.760000e-06	3.906740e-06	7.478261e-10	2.704621e+01	5.137713e+01
2.770000e-06	3.939696e-06	7.507119e-10	2.727436e+01	5.157532e+01
2.780000e-06	3.972253e-06	7.545436e-10	2.749975e+01	5.176666e+01
2.790000e-06	4.004467e-06	7.583367e-10	2.772277e+01	5.195112e+01
2.800000e-06	4.036433e-06	7.625256e-10	2.794407e+01	5.212867e+01
2.810000e-06	4.068238e-06	7.656368e-10	2.816425e+01	5.229934e+01
2.820000e-06	4.099907e-06	7.671659e-10	2.838350e+01	5.246315e+01
2.830000e-06	4.131469e-06	7.688694e-10	2.860200e+01	5.262017e+01
2.840000e-06	4.162799e-06	7.694992e-10	2.881889e+01	5.277050e+01
2.850000e-06	4.193702e-06	7.702919e-10	2.903284e+01	5.291424e+01
2.860000e-06	4.224312e-06	7.728620e-10	2.924475e+01	5.305153e+01
2.870000e-06	4.254669e-06	7.757937e-10	2.945491e+01	5.318253e+01
2.880000e-06	4.284672e-06	7.822622e-10	2.966262e+01	5.330744e+01
2.890000e-06	4.314373e-06	7.888173e-10	2.986823e+01	5.342645e+01
2.900000e-06	4.343817e-06	7.913003e-10	3.007207e+01	5.353979e+01
2.910000e-06	4.372960e-06	7.915806e-10	3.027383e+01	5.364770e+01
