# Temperatura_=_13.43
# Concentracion g/m^3_=_1620.0
# C_Vs_to_Am_M_A/Vsm_=_65563218390.804596
# pendiente_HvsI_1/m_=_3716.3
# ordenada_HvsI_A/m_=_1297.0
# frecuencia_Hz_=_135103.2699821401

Tiempo_(s)	Campo_(V.s)	Magnetizacion_(V.s)	Campo_(kA/m)	Magnetizacion_(A/m)
0.000000e+00	-5.524802e-06	-8.215572e-10	-3.836566e+01	-5.400747e+01
1.000000e-08	-5.525012e-06	-8.233972e-10	-3.836713e+01	-5.400651e+01
2.000000e-08	-5.524956e-06	-8.259576e-10	-3.836674e+01	-5.400511e+01
3.000000e-08	-5.524439e-06	-8.258056e-10	-3.836314e+01	-5.400325e+01
4.000000e-08	-5.523468e-06	-8.215313e-10	-3.835640e+01	-5.400094e+01
5.000000e-08	-5.522015e-06	-8.171179e-10	-3.834631e+01	-5.399815e+01
6.000000e-08	-5.519973e-06	-8.119914e-10	-3.833214e+01	-5.399487e+01
7.000000e-08	-5.517434e-06	-8.131888e-10	-3.831450e+01	-5.399107e+01
8.000000e-08	-5.514324e-06	-8.071877e-10	-3.829291e+01	-5.398671e+01
9.000000e-08	-5.510666e-06	-7.936840e-10	-3.826750e+01	-5.398177e+01
1.000000e-07	-5.506640e-06	-8.220261e-10	-3.823955e+01	-5.397622e+01
1.100000e-07	-5.502350e-06	-8.665726e-10	-3.820975e+01	-5.397002e+01
1.200000e-07	-5.497798e-06	-8.261094e-10	-3.817814e+01	-5.396313e+01
1.300000e-07	-5.492941e-06	-7.663880e-10	-3.814441e+01	-5.395552e+01
1.400000e-07	-5.487776e-06	-7.682825e-10	-3.810855e+01	-5.394715e+01
1.500000e-07	-5.482239e-06	-8.280555e-10	-3.807010e+01	-5.393799e+01
1.600000e-07	-5.476213e-06	-8.081562e-10	-3.802825e+01	-5.392800e+01
1.700000e-07	-5.469819e-06	-7.671727e-10	-3.798385e+01	-5.391716e+01
1.800000e-07	-5.463144e-06	-7.971407e-10	-3.793750e+01	-5.390542e+01
1.900000e-07	-5.456020e-06	-8.568357e-10	-3.788803e+01	-5.389277e+01
2.000000e-07	-5.448483e-06	-8.275820e-10	-3.783569e+01	-5.387917e+01
2.100000e-07	-5.440696e-06	-7.858227e-10	-3.778161e+01	-5.386461e+01
2.200000e-07	-5.432705e-06	-7.993548e-10	-3.772612e+01	-5.384906e+01
2.300000e-07	-5.424476e-06	-8.425042e-10	-3.766898e+01	-5.383251e+01
2.400000e-07	-5.415759e-06	-8.456041e-10	-3.760844e+01	-5.381493e+01
2.500000e-07	-5.406410e-06	-8.291785e-10	-3.754352e+01	-5.379631e+01
2.600000e-07	-5.396369e-06	-8.393041e-10	-3.747379e+01	-5.377664e+01
2.700000e-07	-5.385740e-06	-8.476007e-10	-3.739998e+01	-5.375590e+01
2.800000e-07	-5.374672e-06	-8.490931e-10	-3.732313e+01	-5.373408e+01
2.900000e-07	-5.363130e-06	-8.446363e-10	-3.724297e+01	-5.371116e+01
3.000000e-07	-5.351164e-06	-8.575070e-10	-3.715988e+01	-5.368713e+01
3.100000e-07	-5.338795e-06	-8.577086e-10	-3.707399e+01	-5.366196e+01
3.200000e-07	-5.326079e-06	-8.660378e-10	-3.698568e+01	-5.363564e+01
3.300000e-07	-5.312968e-06	-8.459604e-10	-3.689464e+01	-5.360813e+01
3.400000e-07	-5.299418e-06	-8.401998e-10	-3.680054e+01	-5.357942e+01
3.500000e-07	-5.285528e-06	-8.489800e-10	-3.670409e+01	-5.354947e+01
3.600000e-07	-5.271209e-06	-8.565804e-10	-3.660465e+01	-5.351824e+01
3.700000e-07	-5.256325e-06	-8.294275e-10	-3.650129e+01	-5.348568e+01
3.800000e-07	-5.240928e-06	-8.470107e-10	-3.639437e+01	-5.345175e+01
3.900000e-07	-5.225118e-06	-8.690201e-10	-3.628458e+01	-5.341638e+01
4.000000e-07	-5.208866e-06	-8.330884e-10	-3.617173e+01	-5.337950e+01
4.100000e-07	-5.192119e-06	-8.063400e-10	-3.605543e+01	-5.334105e+01
4.200000e-07	-5.175092e-06	-8.542298e-10	-3.593719e+01	-5.330095e+01
4.300000e-07	-5.157831e-06	-8.486721e-10	-3.581732e+01	-5.325909e+01
4.400000e-07	-5.140143e-06	-7.989304e-10	-3.569450e+01	-5.321540e+01
4.500000e-07	-5.122034e-06	-8.346470e-10	-3.556874e+01	-5.316976e+01
4.600000e-07	-5.103564e-06	-8.737867e-10	-3.544048e+01	-5.312207e+01
4.700000e-07	-5.084690e-06	-8.081110e-10	-3.530941e+01	-5.307222e+01
4.800000e-07	-5.065409e-06	-7.919293e-10	-3.517552e+01	-5.302007e+01
4.900000e-07	-5.045842e-06	-8.512004e-10	-3.503964e+01	-5.296551e+01
5.000000e-07	-5.026066e-06	-8.263255e-10	-3.490231e+01	-5.290840e+01
5.100000e-07	-5.006086e-06	-7.847901e-10	-3.476357e+01	-5.284862e+01
5.200000e-07	-4.985877e-06	-8.340206e-10	-3.462323e+01	-5.278604e+01
5.300000e-07	-4.965352e-06	-8.376770e-10	-3.448070e+01	-5.272052e+01
5.400000e-07	-4.944397e-06	-7.827558e-10	-3.433518e+01	-5.265192e+01
5.500000e-07	-4.923045e-06	-8.153276e-10	-3.418691e+01	-5.258013e+01
5.600000e-07	-4.901381e-06	-8.431333e-10	-3.403647e+01	-5.250502e+01
5.700000e-07	-4.879452e-06	-7.864392e-10	-3.388419e+01	-5.242647e+01
5.800000e-07	-4.857288e-06	-7.826575e-10	-3.373028e+01	-5.234437e+01
5.900000e-07	-4.834744e-06	-8.296666e-10	-3.357372e+01	-5.225861e+01
6.000000e-07	-4.811695e-06	-7.983074e-10	-3.341367e+01	-5.216911e+01
6.100000e-07	-4.788305e-06	-7.770325e-10	-3.325124e+01	-5.207579e+01
6.200000e-07	-4.764724e-06	-8.115902e-10	-3.308749e+01	-5.197857e+01
6.300000e-07	-4.740919e-06	-8.003842e-10	-3.292218e+01	-5.187740e+01
6.400000e-07	-4.716822e-06	-7.645203e-10	-3.275485e+01	-5.177225e+01
6.500000e-07	-4.692483e-06	-7.882366e-10	-3.258583e+01	-5.166309e+01
6.600000e-07	-4.667788e-06	-7.936606e-10	-3.241434e+01	-5.154992e+01
6.700000e-07	-4.642498e-06	-7.674056e-10	-3.223872e+01	-5.143275e+01
6.800000e-07	-4.616695e-06	-7.731141e-10	-3.205953e+01	-5.131161e+01
6.900000e-07	-4.590479e-06	-7.851647e-10	-3.187749e+01	-5.118655e+01
7.000000e-07	-4.563675e-06	-7.639247e-10	-3.169135e+01	-5.105763e+01
7.100000e-07	-4.536409e-06	-7.650404e-10	-3.150200e+01	-5.092495e+01
7.200000e-07	-4.508931e-06	-7.764506e-10	-3.131120e+01	-5.078861e+01
7.300000e-07	-4.481212e-06	-7.618538e-10	-3.111870e+01	-5.064872e+01
7.400000e-07	-4.453308e-06	-7.550813e-10	-3.092493e+01	-5.050543e+01
7.500000e-07	-4.425225e-06	-7.690774e-10	-3.072991e+01	-5.035889e+01
7.600000e-07	-4.396941e-06	-7.620910e-10	-3.053351e+01	-5.020927e+01
7.700000e-07	-4.368327e-06	-7.520388e-10	-3.033480e+01	-5.005674e+01
7.800000e-07	-4.339313e-06	-7.582974e-10	-3.013332e+01	-4.990151e+01
7.900000e-07	-4.309972e-06	-7.532603e-10	-2.992957e+01	-4.974376e+01
8.000000e-07	-4.280342e-06	-7.415168e-10	-2.972381e+01	-4.958373e+01
8.100000e-07	-4.250468e-06	-7.475049e-10	-2.951636e+01	-4.942161e+01
8.200000e-07	-4.220271e-06	-7.510438e-10	-2.930666e+01	-4.925762e+01
8.300000e-07	-4.189697e-06	-7.395070e-10	-2.909435e+01	-4.909199e+01
8.400000e-07	-4.158880e-06	-7.387882e-10	-2.888035e+01	-4.892494e+01
8.500000e-07	-4.127823e-06	-7.434380e-10	-2.866468e+01	-4.875667e+01
8.600000e-07	-4.096410e-06	-7.359221e-10	-2.844654e+01	-4.858740e+01
8.700000e-07	-4.064772e-06	-7.289483e-10	-2.822684e+01	-4.841733e+01
8.800000e-07	-4.033018e-06	-7.338461e-10	-2.800633e+01	-4.824664e+01
8.900000e-07	-4.001152e-06	-7.291522e-10	-2.778505e+01	-4.807552e+01
9.000000e-07	-3.969088e-06	-7.194693e-10	-2.756238e+01	-4.790411e+01
9.100000e-07	-3.936796e-06	-7.215779e-10	-2.733814e+01	-4.773256e+01
9.200000e-07	-3.904124e-06	-7.243788e-10	-2.711125e+01	-4.756099e+01
9.300000e-07	-3.871008e-06	-7.150262e-10	-2.688129e+01	-4.738950e+01
9.400000e-07	-3.837526e-06	-7.154331e-10	-2.664878e+01	-4.721817e+01
9.500000e-07	-3.803546e-06	-7.189895e-10	-2.641281e+01	-4.704704e+01
9.600000e-07	-3.769019e-06	-7.135685e-10	-2.617305e+01	-4.687615e+01
9.700000e-07	-3.734053e-06	-7.078079e-10	-2.593024e+01	-4.670549e+01
9.800000e-07	-3.698836e-06	-7.111953e-10	-2.568568e+01	-4.653504e+01
9.900000e-07	-3.663429e-06	-7.067954e-10	-2.543980e+01	-4.636473e+01
1.000000e-06	-3.627806e-06	-6.995228e-10	-2.519243e+01	-4.619448e+01
1.010000e-06	-3.592023e-06	-6.993018e-10	-2.494394e+01	-4.602417e+01
1.020000e-06	-3.556127e-06	-6.994979e-10	-2.469468e+01	-4.585368e+01
1.030000e-06	-3.520049e-06	-6.927946e-10	-2.444414e+01	-4.568282e+01
1.040000e-06	-3.483757e-06	-6.894387e-10	-2.419212e+01	-4.551141e+01
1.050000e-06	-3.447226e-06	-6.868669e-10	-2.393844e+01	-4.533924e+01
1.060000e-06	-3.410375e-06	-6.779996e-10	-2.368253e+01	-4.516605e+01
1.070000e-06	-3.373273e-06	-6.720014e-10	-2.342489e+01	-4.499160e+01
1.080000e-06	-3.335938e-06	-6.725132e-10	-2.316562e+01	-4.481559e+01
1.090000e-06	-3.298370e-06	-6.698588e-10	-2.290474e+01	-4.463775e+01
1.100000e-06	-3.260606e-06	-6.634158e-10	-2.264250e+01	-4.445775e+01
1.110000e-06	-3.222545e-06	-6.579474e-10	-2.237819e+01	-4.427528e+01
1.120000e-06	-3.184188e-06	-6.508058e-10	-2.211183e+01	-4.409001e+01
1.130000e-06	-3.145672e-06	-6.445430e-10	-2.184437e+01	-4.390160e+01
1.140000e-06	-3.107039e-06	-6.424711e-10	-2.157609e+01	-4.370971e+01
1.150000e-06	-3.068247e-06	-6.436415e-10	-2.130671e+01	-4.351401e+01
1.160000e-06	-3.029298e-06	-6.407532e-10	-2.103624e+01	-4.331416e+01
1.170000e-06	-2.990087e-06	-6.355806e-10	-2.076395e+01	-4.310983e+01
1.180000e-06	-2.950591e-06	-6.299551e-10	-2.048967e+01	-4.290071e+01
1.190000e-06	-2.910929e-06	-6.243033e-10	-2.021425e+01	-4.268646e+01
1.200000e-06	-2.871172e-06	-6.163758e-10	-1.993817e+01	-4.246682e+01
1.210000e-06	-2.831257e-06	-6.123571e-10	-1.966099e+01	-4.224147e+01
1.220000e-06	-2.791155e-06	-6.094615e-10	-1.938251e+01	-4.201018e+01
1.230000e-06	-2.750945e-06	-6.079148e-10	-1.910328e+01	-4.177269e+01
1.240000e-06	-2.710599e-06	-6.072622e-10	-1.882311e+01	-4.152877e+01
1.250000e-06	-2.670106e-06	-6.050984e-10	-1.854191e+01	-4.127823e+01
1.260000e-06	-2.629341e-06	-5.975340e-10	-1.825883e+01	-4.102089e+01
1.270000e-06	-2.588222e-06	-5.890391e-10	-1.797329e+01	-4.075659e+01
1.280000e-06	-2.546877e-06	-5.824143e-10	-1.768618e+01	-4.048521e+01
1.290000e-06	-2.505242e-06	-5.754044e-10	-1.739705e+01	-4.020663e+01
1.300000e-06	-2.463232e-06	-5.690652e-10	-1.710533e+01	-3.992079e+01
1.310000e-06	-2.421079e-06	-5.656689e-10	-1.681261e+01	-3.962760e+01
1.320000e-06	-2.378748e-06	-5.635588e-10	-1.651864e+01	-3.932704e+01
1.330000e-06	-2.335982e-06	-5.620982e-10	-1.622167e+01	-3.901909e+01
1.340000e-06	-2.292880e-06	-5.621288e-10	-1.592235e+01	-3.870375e+01
1.350000e-06	-2.249642e-06	-5.593155e-10	-1.562210e+01	-3.838103e+01
1.360000e-06	-2.206284e-06	-5.509764e-10	-1.532101e+01	-3.805096e+01
1.370000e-06	-2.162756e-06	-5.417551e-10	-1.501874e+01	-3.771359e+01
1.380000e-06	-2.119119e-06	-5.360178e-10	-1.471572e+01	-3.736896e+01
1.390000e-06	-2.075430e-06	-5.318014e-10	-1.441233e+01	-3.701712e+01
1.400000e-06	-2.031636e-06	-5.291859e-10	-1.410821e+01	-3.665813e+01
1.410000e-06	-1.987731e-06	-5.269292e-10	-1.380332e+01	-3.629205e+01
1.420000e-06	-1.943735e-06	-5.221518e-10	-1.349780e+01	-3.591892e+01
1.430000e-06	-1.899664e-06	-5.148379e-10	-1.319176e+01	-3.553879e+01
1.440000e-06	-1.855563e-06	-5.077736e-10	-1.288551e+01	-3.515168e+01
1.450000e-06	-1.811378e-06	-4.998606e-10	-1.257868e+01	-3.475761e+01
1.460000e-06	-1.767037e-06	-4.915481e-10	-1.227077e+01	-3.435657e+01
1.470000e-06	-1.722558e-06	-4.830490e-10	-1.196189e+01	-3.394853e+01
1.480000e-06	-1.677907e-06	-4.761333e-10	-1.165182e+01	-3.353346e+01
1.490000e-06	-1.633042e-06	-4.711085e-10	-1.134027e+01	-3.311126e+01
1.500000e-06	-1.588023e-06	-4.660524e-10	-1.102765e+01	-3.268184e+01
1.510000e-06	-1.542963e-06	-4.591609e-10	-1.071474e+01	-3.224505e+01
1.520000e-06	-1.497811e-06	-4.505273e-10	-1.040119e+01	-3.180072e+01
1.530000e-06	-1.452469e-06	-4.409654e-10	-1.008632e+01	-3.134865e+01
1.540000e-06	-1.407017e-06	-4.304667e-10	-9.770696e+00	-3.088860e+01
1.550000e-06	-1.361483e-06	-4.209393e-10	-9.454492e+00	-3.042030e+01
1.560000e-06	-1.315884e-06	-4.143290e-10	-9.137845e+00	-2.994342e+01
1.570000e-06	-1.270215e-06	-4.076473e-10	-8.820704e+00	-2.945763e+01
1.580000e-06	-1.224477e-06	-3.995411e-10	-8.503088e+00	-2.896254e+01
1.590000e-06	-1.178674e-06	-3.905597e-10	-8.185020e+00	-2.845774e+01
1.600000e-06	-1.132755e-06	-3.808336e-10	-7.866144e+00	-2.794279e+01
1.610000e-06	-1.086748e-06	-3.703873e-10	-7.546659e+00	-2.741722e+01
1.620000e-06	-1.040558e-06	-3.603911e-10	-7.225906e+00	-2.688054e+01
1.630000e-06	-9.942972e-07	-3.519891e-10	-6.904659e+00	-2.633222e+01
1.640000e-06	-9.481085e-07	-3.426147e-10	-6.583913e+00	-2.577173e+01
1.650000e-06	-9.018613e-07	-3.325727e-10	-6.262760e+00	-2.519854e+01
1.660000e-06	-8.555329e-07	-3.236357e-10	-5.941044e+00	-2.461208e+01
1.670000e-06	-8.092049e-07	-3.140034e-10	-5.619330e+00	-2.401180e+01
1.680000e-06	-7.628012e-07	-3.043062e-10	-5.297091e+00	-2.339714e+01
1.690000e-06	-7.162975e-07	-2.962270e-10	-4.974157e+00	-2.276757e+01
1.700000e-06	-6.697831e-07	-2.891472e-10	-4.651148e+00	-2.212255e+01
1.710000e-06	-6.232087e-07	-2.794147e-10	-4.327724e+00	-2.146156e+01
1.720000e-06	-5.766429e-07	-2.658362e-10	-4.004359e+00	-2.078413e+01
1.730000e-06	-5.300731e-07	-2.523178e-10	-3.680966e+00	-2.008980e+01
1.740000e-06	-4.833736e-07	-2.419468e-10	-3.356672e+00	-1.937817e+01
1.750000e-06	-4.365671e-07	-2.337885e-10	-3.031636e+00	-1.864885e+01
1.760000e-06	-3.896890e-07	-2.260773e-10	-2.706102e+00	-1.790154e+01
1.770000e-06	-3.428124e-07	-2.179896e-10	-2.380579e+00	-1.713598e+01
1.780000e-06	-2.960156e-07	-2.098686e-10	-2.055610e+00	-1.635196e+01
1.790000e-06	-2.491490e-07	-1.993215e-10	-1.730156e+00	-1.554936e+01
1.800000e-06	-2.022193e-07	-1.842871e-10	-1.404264e+00	-1.472810e+01
1.810000e-06	-1.554050e-07	-1.676435e-10	-1.079173e+00	-1.388822e+01
1.820000e-06	-1.085579e-07	-1.507790e-10	-7.538546e-01	-1.302980e+01
1.830000e-06	-6.159881e-08	-1.373159e-10	-4.277582e-01	-1.215302e+01
1.840000e-06	-1.462546e-08	-1.284621e-10	-1.015630e-01	-1.125814e+01
1.850000e-06	3.228487e-08	-1.206228e-10	2.241946e-01	-1.034552e+01
1.860000e-06	7.912540e-08	-1.110867e-10	5.494674e-01	-9.415597e+00
1.870000e-06	1.260131e-07	-9.795850e-11	8.750681e-01	-8.468894e+00
1.880000e-06	1.729366e-07	-8.199600e-11	1.200917e+00	-7.506031e+00
1.890000e-06	2.198332e-07	-6.443101e-11	1.526579e+00	-6.527717e+00
1.900000e-06	2.667153e-07	-4.665460e-11	1.852140e+00	-5.534745e+00
1.910000e-06	3.136054e-07	-3.159553e-11	2.177758e+00	-4.527994e+00
1.920000e-06	3.604944e-07	-1.892145e-11	2.503367e+00	-3.508426e+00
1.930000e-06	4.073640e-07	-7.868983e-12	2.828842e+00	-2.477080e+00
1.940000e-06	4.541845e-07	2.384911e-12	3.153975e+00	-1.435070e+00
1.950000e-06	5.009029e-07	1.154022e-11	3.478401e+00	-3.835798e-01
1.960000e-06	5.474724e-07	2.211439e-11	3.801791e+00	6.761435e-01
1.970000e-06	5.940237e-07	3.709884e-11	4.125055e+00	1.742795e+00
1.980000e-06	6.406390e-07	5.577869e-11	4.448764e+00	2.815019e+00
1.990000e-06	6.870827e-07	7.342123e-11	4.771282e+00	3.891415e+00
2.000000e-06	7.334248e-07	8.975322e-11	5.093093e+00	4.970547e+00
2.010000e-06	7.797803e-07	1.038997e-10	5.414998e+00	6.050950e+00
2.020000e-06	8.260615e-07	1.178527e-10	5.736387e+00	7.131138e+00
2.030000e-06	8.722914e-07	1.320526e-10	6.057419e+00	8.209614e+00
2.040000e-06	9.185120e-07	1.438646e-10	6.378387e+00	9.284878e+00
2.050000e-06	9.647277e-07	1.569054e-10	6.699321e+00	1.035543e+01
2.060000e-06	1.010816e-06	1.704002e-10	7.019367e+00	1.141980e+01
2.070000e-06	1.056760e-06	1.874820e-10	7.338420e+00	1.247652e+01
2.080000e-06	1.102659e-06	2.060636e-10	7.657153e+00	1.352416e+01
2.090000e-06	1.148463e-06	2.222940e-10	7.975226e+00	1.456133e+01
2.100000e-06	1.194139e-06	2.334756e-10	8.292415e+00	1.558670e+01
2.110000e-06	1.239773e-06	2.420290e-10	8.609307e+00	1.659898e+01
2.120000e-06	1.285334e-06	2.522539e-10	8.925695e+00	1.759694e+01
2.130000e-06	1.330772e-06	2.660237e-10	9.241227e+00	1.857942e+01
2.140000e-06	1.376101e-06	2.804846e-10	9.556001e+00	1.954535e+01
2.150000e-06	1.421370e-06	2.960342e-10	9.870366e+00	2.049373e+01
2.160000e-06	1.466600e-06	3.114375e-10	1.018445e+01	2.142364e+01
2.170000e-06	1.511701e-06	3.253707e-10	1.049765e+01	2.233426e+01
2.180000e-06	1.556715e-06	3.371434e-10	1.081023e+01	2.322485e+01
2.190000e-06	1.601583e-06	3.456783e-10	1.112181e+01	2.409480e+01
2.200000e-06	1.646287e-06	3.533083e-10	1.143224e+01	2.494355e+01
2.210000e-06	1.690933e-06	3.624517e-10	1.174228e+01	2.577069e+01
2.220000e-06	1.735426e-06	3.761383e-10	1.205125e+01	2.657587e+01
2.230000e-06	1.779745e-06	3.918189e-10	1.235901e+01	2.735886e+01
2.240000e-06	1.823943e-06	4.058219e-10	1.266594e+01	2.811953e+01
2.250000e-06	1.868049e-06	4.150554e-10	1.297222e+01	2.885785e+01
2.260000e-06	1.912097e-06	4.200733e-10	1.327810e+01	2.957388e+01
2.270000e-06	1.956050e-06	4.226994e-10	1.358332e+01	3.026776e+01
2.280000e-06	1.999914e-06	4.267535e-10	1.388792e+01	3.093976e+01
2.290000e-06	2.043712e-06	4.324121e-10	1.419207e+01	3.159018e+01
2.300000e-06	2.087456e-06	4.426371e-10	1.449584e+01	3.221945e+01
2.310000e-06	2.131133e-06	4.568786e-10	1.479914e+01	3.282804e+01
2.320000e-06	2.174709e-06	4.716221e-10	1.510175e+01	3.341649e+01
2.330000e-06	2.218241e-06	4.836374e-10	1.540404e+01	3.398543e+01
2.340000e-06	2.261634e-06	4.907935e-10	1.570537e+01	3.453552e+01
2.350000e-06	2.304764e-06	4.935293e-10	1.600488e+01	3.506746e+01
2.360000e-06	2.347748e-06	4.948650e-10	1.630338e+01	3.558202e+01
2.370000e-06	2.390531e-06	4.985824e-10	1.660047e+01	3.607998e+01
2.380000e-06	2.432995e-06	5.067622e-10	1.689535e+01	3.656214e+01
2.390000e-06	2.475102e-06	5.185296e-10	1.718775e+01	3.702935e+01
2.400000e-06	2.516860e-06	5.328363e-10	1.747773e+01	3.748245e+01
2.410000e-06	2.558351e-06	5.472358e-10	1.776586e+01	3.792226e+01
2.420000e-06	2.599427e-06	5.578003e-10	1.805110e+01	3.834964e+01
2.430000e-06	2.640208e-06	5.631082e-10	1.833430e+01	3.876542e+01
2.440000e-06	2.680871e-06	5.651824e-10	1.861666e+01	3.917039e+01
2.450000e-06	2.721291e-06	5.672837e-10	1.889736e+01	3.956536e+01
2.460000e-06	2.761448e-06	5.713601e-10	1.917622e+01	3.995107e+01
2.470000e-06	2.801449e-06	5.780688e-10	1.945399e+01	4.032825e+01
2.480000e-06	2.841353e-06	5.878735e-10	1.973110e+01	4.069759e+01
2.490000e-06	2.881114e-06	5.987775e-10	2.000721e+01	4.105971e+01
2.500000e-06	2.920756e-06	6.088759e-10	2.028249e+01	4.141521e+01
2.510000e-06	2.960260e-06	6.181119e-10	2.055682e+01	4.176462e+01
2.520000e-06	2.999607e-06	6.239307e-10	2.083006e+01	4.210844e+01
2.530000e-06	3.038764e-06	6.250809e-10	2.110197e+01	4.244708e+01
2.540000e-06	3.077713e-06	6.232795e-10	2.137244e+01	4.278093e+01
2.550000e-06	3.116474e-06	6.236890e-10	2.164161e+01	4.311029e+01
2.560000e-06	3.155035e-06	6.286135e-10	2.190938e+01	4.343543e+01
2.570000e-06	3.193352e-06	6.375396e-10	2.217547e+01	4.375653e+01
2.580000e-06	3.231391e-06	6.466387e-10	2.243962e+01	4.407375e+01
2.590000e-06	3.269223e-06	6.535570e-10	2.270234e+01	4.438718e+01
2.600000e-06	3.306876e-06	6.587105e-10	2.296381e+01	4.469684e+01
2.610000e-06	3.344306e-06	6.616725e-10	2.322373e+01	4.500272e+01
2.620000e-06	3.381538e-06	6.626097e-10	2.348228e+01	4.530478e+01
2.630000e-06	3.418519e-06	6.640376e-10	2.373909e+01	4.560289e+01
2.640000e-06	3.455140e-06	6.680661e-10	2.399339e+01	4.589693e+01
2.650000e-06	3.491452e-06	6.740968e-10	2.424556e+01	4.618672e+01
2.660000e-06	3.527576e-06	6.828178e-10	2.449641e+01	4.647204e+01
2.670000e-06	3.563550e-06	6.911477e-10	2.474622e+01	4.675266e+01
2.680000e-06	3.599396e-06	6.959401e-10	2.499515e+01	4.702834e+01
2.690000e-06	3.635126e-06	6.972559e-10	2.524326e+01	4.729880e+01
2.700000e-06	3.670710e-06	6.946659e-10	2.549037e+01	4.756375e+01
2.710000e-06	3.706097e-06	6.938184e-10	2.573610e+01	4.782293e+01
2.720000e-06	3.741248e-06	6.972563e-10	2.598020e+01	4.807602e+01
2.730000e-06	3.776050e-06	7.076857e-10	2.622188e+01	4.832276e+01
2.740000e-06	3.810422e-06	7.183464e-10	2.646057e+01	4.856287e+01
2.750000e-06	3.844348e-06	7.240848e-10	2.669616e+01	4.879607e+01
2.760000e-06	3.877791e-06	7.256964e-10	2.692839e+01	4.902212e+01
2.770000e-06	3.910811e-06	7.236601e-10	2.715769e+01	4.924079e+01
2.780000e-06	3.943487e-06	7.203466e-10	2.738461e+01	4.945189e+01
2.790000e-06	3.975792e-06	7.203134e-10	2.760894e+01	4.965522e+01
2.800000e-06	4.007775e-06	7.267340e-10	2.783104e+01	4.985065e+01
2.810000e-06	4.039590e-06	7.370078e-10	2.805197e+01	5.003805e+01
2.820000e-06	4.071278e-06	7.465382e-10	2.827202e+01	5.021735e+01
2.830000e-06	4.102790e-06	7.522466e-10	2.849085e+01	5.038849e+01
2.840000e-06	4.134088e-06	7.529726e-10	2.870819e+01	5.055147e+01
2.850000e-06	4.165101e-06	7.482166e-10	2.892355e+01	5.070631e+01
2.860000e-06	4.195743e-06	7.439726e-10	2.913634e+01	5.085307e+01
2.870000e-06	4.226118e-06	7.424057e-10	2.934727e+01	5.099185e+01
2.880000e-06	4.256240e-06	7.439651e-10	2.955644e+01	5.112279e+01
2.890000e-06	4.285977e-06	7.493520e-10	2.976295e+01	5.124604e+01
2.900000e-06	4.315412e-06	7.569216e-10	2.996734e+01	5.136183e+01
