# Temperatura_=_-0.3
# Concentracion g/m^3_=_1620.0
# C_Vs_to_Am_M_A/Vsm_=_65563218390.804596
# pendiente_HvsI_1/m_=_3716.3
# ordenada_HvsI_A/m_=_1297.0
# frecuencia_Hz_=_135103.42395694944

Tiempo_(s)	Campo_(V.s)	Magnetizacion_(V.s)	Campo_(kA/m)	Magnetizacion_(A/m)
0.000000e+00	-5.521426e-06	-1.424144e-09	-3.837001e+01	-9.162144e+01
1.000000e-08	-5.521781e-06	-1.426349e-09	-3.837248e+01	-9.163710e+01
2.000000e-08	-5.521945e-06	-1.427673e-09	-3.837362e+01	-9.164927e+01
3.000000e-08	-5.521768e-06	-1.428186e-09	-3.837239e+01	-9.165784e+01
4.000000e-08	-5.521048e-06	-1.425224e-09	-3.836739e+01	-9.166266e+01
5.000000e-08	-5.519727e-06	-1.418062e-09	-3.835820e+01	-9.166360e+01
6.000000e-08	-5.517826e-06	-1.407305e-09	-3.834499e+01	-9.166056e+01
7.000000e-08	-5.515436e-06	-1.391577e-09	-3.832838e+01	-9.165340e+01
8.000000e-08	-5.512557e-06	-1.393561e-09	-3.830837e+01	-9.164202e+01
9.000000e-08	-5.509154e-06	-1.429836e-09	-3.828473e+01	-9.162631e+01
1.000000e-07	-5.505259e-06	-1.468098e-09	-3.825766e+01	-9.160620e+01
1.100000e-07	-5.500962e-06	-1.439527e-09	-3.822780e+01	-9.158159e+01
1.200000e-07	-5.496466e-06	-1.389782e-09	-3.819656e+01	-9.155242e+01
1.300000e-07	-5.491785e-06	-1.358096e-09	-3.816403e+01	-9.151865e+01
1.400000e-07	-5.486805e-06	-1.419155e-09	-3.812942e+01	-9.148023e+01
1.500000e-07	-5.481379e-06	-1.400172e-09	-3.809171e+01	-9.143714e+01
1.600000e-07	-5.475589e-06	-1.373880e-09	-3.805147e+01	-9.138937e+01
1.700000e-07	-5.469468e-06	-1.364688e-09	-3.800893e+01	-9.133694e+01
1.800000e-07	-5.462890e-06	-1.427308e-09	-3.796322e+01	-9.127986e+01
1.900000e-07	-5.455907e-06	-1.430885e-09	-3.791470e+01	-9.121819e+01
2.000000e-07	-5.448585e-06	-1.375907e-09	-3.786381e+01	-9.115197e+01
2.100000e-07	-5.440987e-06	-1.357533e-09	-3.781101e+01	-9.108128e+01
2.200000e-07	-5.433119e-06	-1.395615e-09	-3.775634e+01	-9.100622e+01
2.300000e-07	-5.424982e-06	-1.431490e-09	-3.769979e+01	-9.092687e+01
2.400000e-07	-5.416507e-06	-1.396065e-09	-3.764089e+01	-9.084335e+01
2.500000e-07	-5.407462e-06	-1.388683e-09	-3.757804e+01	-9.075579e+01
2.600000e-07	-5.397630e-06	-1.388379e-09	-3.750972e+01	-9.066433e+01
2.700000e-07	-5.387098e-06	-1.400626e-09	-3.743653e+01	-9.056911e+01
2.800000e-07	-5.376068e-06	-1.362599e-09	-3.735988e+01	-9.047028e+01
2.900000e-07	-5.364624e-06	-1.375677e-09	-3.728035e+01	-9.036800e+01
3.000000e-07	-5.352818e-06	-1.384459e-09	-3.719831e+01	-9.026243e+01
3.100000e-07	-5.340682e-06	-1.394183e-09	-3.711397e+01	-9.015373e+01
3.200000e-07	-5.328135e-06	-1.356720e-09	-3.702677e+01	-9.004207e+01
3.300000e-07	-5.315162e-06	-1.367117e-09	-3.693662e+01	-8.992761e+01
3.400000e-07	-5.301821e-06	-1.368611e-09	-3.684391e+01	-8.981050e+01
3.500000e-07	-5.288132e-06	-1.369854e-09	-3.674878e+01	-8.969090e+01
3.600000e-07	-5.273967e-06	-1.345616e-09	-3.665034e+01	-8.956894e+01
3.700000e-07	-5.259316e-06	-1.364693e-09	-3.654853e+01	-8.944476e+01
3.800000e-07	-5.244255e-06	-1.370572e-09	-3.644387e+01	-8.931849e+01
3.900000e-07	-5.228685e-06	-1.364849e-09	-3.633566e+01	-8.919023e+01
4.000000e-07	-5.212501e-06	-1.348990e-09	-3.622320e+01	-8.906007e+01
4.100000e-07	-5.195890e-06	-1.359225e-09	-3.610777e+01	-8.892810e+01
4.200000e-07	-5.178999e-06	-1.360861e-09	-3.599039e+01	-8.879438e+01
4.300000e-07	-5.161795e-06	-1.346616e-09	-3.587083e+01	-8.865896e+01
4.400000e-07	-5.144264e-06	-1.352288e-09	-3.574900e+01	-8.852186e+01
4.500000e-07	-5.126373e-06	-1.362205e-09	-3.562467e+01	-8.838309e+01
4.600000e-07	-5.108045e-06	-1.350406e-09	-3.549730e+01	-8.824264e+01
4.700000e-07	-5.089250e-06	-1.321913e-09	-3.536669e+01	-8.810049e+01
4.800000e-07	-5.070166e-06	-1.335558e-09	-3.523407e+01	-8.795659e+01
4.900000e-07	-5.050836e-06	-1.344175e-09	-3.509974e+01	-8.781086e+01
5.000000e-07	-5.031282e-06	-1.336102e-09	-3.496385e+01	-8.766324e+01
5.100000e-07	-5.011528e-06	-1.321157e-09	-3.482658e+01	-8.751361e+01
5.200000e-07	-4.991484e-06	-1.333336e-09	-3.468729e+01	-8.736187e+01
5.300000e-07	-4.971068e-06	-1.320654e-09	-3.454541e+01	-8.720788e+01
5.400000e-07	-4.950283e-06	-1.318397e-09	-3.440097e+01	-8.705151e+01
5.500000e-07	-4.929171e-06	-1.322287e-09	-3.425426e+01	-8.689259e+01
5.600000e-07	-4.907737e-06	-1.323741e-09	-3.410531e+01	-8.673097e+01
5.700000e-07	-4.885968e-06	-1.297204e-09	-3.395403e+01	-8.656648e+01
5.800000e-07	-4.863828e-06	-1.306131e-09	-3.380016e+01	-8.639893e+01
5.900000e-07	-4.841347e-06	-1.312604e-09	-3.364394e+01	-8.622816e+01
6.000000e-07	-4.818468e-06	-1.300748e-09	-3.348495e+01	-8.605397e+01
6.100000e-07	-4.795173e-06	-1.286898e-09	-3.332306e+01	-8.587619e+01
6.200000e-07	-4.771644e-06	-1.300130e-09	-3.315955e+01	-8.569464e+01
6.300000e-07	-4.747958e-06	-1.285241e-09	-3.299496e+01	-8.550916e+01
6.400000e-07	-4.724053e-06	-1.271318e-09	-3.282883e+01	-8.531956e+01
6.500000e-07	-4.699781e-06	-1.278001e-09	-3.266016e+01	-8.512570e+01
6.600000e-07	-4.675122e-06	-1.282888e-09	-3.248880e+01	-8.492743e+01
6.700000e-07	-4.650051e-06	-1.267373e-09	-3.231457e+01	-8.472463e+01
6.800000e-07	-4.624443e-06	-1.268521e-09	-3.213661e+01	-8.451716e+01
6.900000e-07	-4.598347e-06	-1.269393e-09	-3.195526e+01	-8.430492e+01
7.000000e-07	-4.571742e-06	-1.260261e-09	-3.177038e+01	-8.408784e+01
7.100000e-07	-4.544687e-06	-1.258436e-09	-3.158236e+01	-8.386584e+01
7.200000e-07	-4.517403e-06	-1.260763e-09	-3.139276e+01	-8.363887e+01
7.300000e-07	-4.489930e-06	-1.251803e-09	-3.120184e+01	-8.340690e+01
7.400000e-07	-4.462246e-06	-1.245033e-09	-3.100946e+01	-8.316992e+01
7.500000e-07	-4.434311e-06	-1.249091e-09	-3.081533e+01	-8.292794e+01
7.600000e-07	-4.406099e-06	-1.240605e-09	-3.061927e+01	-8.268098e+01
7.700000e-07	-4.377600e-06	-1.232585e-09	-3.042122e+01	-8.242909e+01
7.800000e-07	-4.348838e-06	-1.230116e-09	-3.022135e+01	-8.217234e+01
7.900000e-07	-4.319720e-06	-1.228706e-09	-3.001900e+01	-8.191079e+01
8.000000e-07	-4.290272e-06	-1.220797e-09	-2.981436e+01	-8.164456e+01
8.100000e-07	-4.260558e-06	-1.221929e-09	-2.960787e+01	-8.137375e+01
8.200000e-07	-4.230545e-06	-1.215600e-09	-2.939930e+01	-8.109849e+01
8.300000e-07	-4.200232e-06	-1.209886e-09	-2.918864e+01	-8.081890e+01
8.400000e-07	-4.169589e-06	-1.203223e-09	-2.897570e+01	-8.053514e+01
8.500000e-07	-4.138664e-06	-1.200970e-09	-2.876079e+01	-8.024735e+01
8.600000e-07	-4.107464e-06	-1.189587e-09	-2.854397e+01	-7.995569e+01
8.700000e-07	-4.076049e-06	-1.184774e-09	-2.832566e+01	-7.966031e+01
8.800000e-07	-4.044497e-06	-1.180050e-09	-2.810640e+01	-7.936138e+01
8.900000e-07	-4.012773e-06	-1.177428e-09	-2.788594e+01	-7.905904e+01
9.000000e-07	-3.980830e-06	-1.170203e-09	-2.766396e+01	-7.875344e+01
9.100000e-07	-3.948625e-06	-1.168893e-09	-2.744015e+01	-7.844473e+01
9.200000e-07	-3.916067e-06	-1.161053e-09	-2.721390e+01	-7.813304e+01
9.300000e-07	-3.883017e-06	-1.153608e-09	-2.698422e+01	-7.781848e+01
9.400000e-07	-3.849445e-06	-1.146452e-09	-2.675092e+01	-7.750116e+01
9.500000e-07	-3.815492e-06	-1.141039e-09	-2.651497e+01	-7.718117e+01
9.600000e-07	-3.781218e-06	-1.134742e-09	-2.627680e+01	-7.685857e+01
9.700000e-07	-3.746589e-06	-1.133644e-09	-2.603614e+01	-7.653342e+01
9.800000e-07	-3.711506e-06	-1.130569e-09	-2.579234e+01	-7.620574e+01
9.900000e-07	-3.676108e-06	-1.124406e-09	-2.554635e+01	-7.587554e+01
1.000000e-06	-3.640589e-06	-1.119863e-09	-2.529952e+01	-7.554280e+01
1.010000e-06	-3.604909e-06	-1.115786e-09	-2.505157e+01	-7.520747e+01
1.020000e-06	-3.569083e-06	-1.108729e-09	-2.480261e+01	-7.486948e+01
1.030000e-06	-3.533130e-06	-1.100912e-09	-2.455276e+01	-7.452874e+01
1.040000e-06	-3.496994e-06	-1.096647e-09	-2.430164e+01	-7.418512e+01
1.050000e-06	-3.460557e-06	-1.090323e-09	-2.404843e+01	-7.383849e+01
1.060000e-06	-3.423872e-06	-1.082623e-09	-2.379349e+01	-7.348866e+01
1.070000e-06	-3.386968e-06	-1.074222e-09	-2.353703e+01	-7.313545e+01
1.080000e-06	-3.349746e-06	-1.069162e-09	-2.327837e+01	-7.277863e+01
1.090000e-06	-3.312279e-06	-1.063993e-09	-2.301800e+01	-7.241798e+01
1.100000e-06	-3.274663e-06	-1.061340e-09	-2.275659e+01	-7.205322e+01
1.110000e-06	-3.236845e-06	-1.055067e-09	-2.249379e+01	-7.168409e+01
1.120000e-06	-3.198737e-06	-1.048536e-09	-2.222896e+01	-7.131030e+01
1.130000e-06	-3.160314e-06	-1.039223e-09	-2.196195e+01	-7.093153e+01
1.140000e-06	-3.121712e-06	-1.033389e-09	-2.169369e+01	-7.054747e+01
1.150000e-06	-3.083009e-06	-1.025456e-09	-2.142473e+01	-7.015780e+01
1.160000e-06	-3.044076e-06	-1.016585e-09	-2.115418e+01	-6.976218e+01
1.170000e-06	-3.004904e-06	-1.006427e-09	-2.088196e+01	-6.936028e+01
1.180000e-06	-2.965610e-06	-1.000451e-09	-2.060889e+01	-6.895176e+01
1.190000e-06	-2.926182e-06	-9.950005e-10	-2.033490e+01	-6.853629e+01
1.200000e-06	-2.886555e-06	-9.914692e-10	-2.005952e+01	-6.811353e+01
1.210000e-06	-2.846767e-06	-9.864955e-10	-1.978302e+01	-6.768315e+01
1.220000e-06	-2.806868e-06	-9.793018e-10	-1.950575e+01	-6.724485e+01
1.230000e-06	-2.766819e-06	-9.694357e-10	-1.922744e+01	-6.679832e+01
1.240000e-06	-2.726530e-06	-9.604163e-10	-1.894746e+01	-6.634325e+01
1.250000e-06	-2.686063e-06	-9.504909e-10	-1.866624e+01	-6.587938e+01
1.260000e-06	-2.645391e-06	-9.426445e-10	-1.838360e+01	-6.540644e+01
1.270000e-06	-2.604347e-06	-9.382457e-10	-1.809837e+01	-6.492419e+01
1.280000e-06	-2.562967e-06	-9.332159e-10	-1.781081e+01	-6.443239e+01
1.290000e-06	-2.521278e-06	-9.247109e-10	-1.752110e+01	-6.393085e+01
1.300000e-06	-2.479326e-06	-9.146662e-10	-1.722956e+01	-6.341937e+01
1.310000e-06	-2.437182e-06	-9.047295e-10	-1.693669e+01	-6.289780e+01
1.320000e-06	-2.394717e-06	-8.954521e-10	-1.664159e+01	-6.236597e+01
1.330000e-06	-2.351930e-06	-8.867604e-10	-1.634425e+01	-6.182378e+01
1.340000e-06	-2.308917e-06	-8.798177e-10	-1.604534e+01	-6.127110e+01
1.350000e-06	-2.265724e-06	-8.725548e-10	-1.574518e+01	-6.070786e+01
1.360000e-06	-2.222339e-06	-8.620739e-10	-1.544369e+01	-6.013398e+01
1.370000e-06	-2.178847e-06	-8.505400e-10	-1.514145e+01	-5.954940e+01
1.380000e-06	-2.135335e-06	-8.407217e-10	-1.483907e+01	-5.895408e+01
1.390000e-06	-2.091727e-06	-8.328470e-10	-1.453603e+01	-5.834799e+01
1.400000e-06	-2.048050e-06	-8.247457e-10	-1.423250e+01	-5.773111e+01
1.410000e-06	-2.004289e-06	-8.183989e-10	-1.392839e+01	-5.710342e+01
1.420000e-06	-1.960381e-06	-8.095443e-10	-1.362326e+01	-5.646492e+01
1.430000e-06	-1.916396e-06	-7.990888e-10	-1.331760e+01	-5.581560e+01
1.440000e-06	-1.872360e-06	-7.855959e-10	-1.301158e+01	-5.515545e+01
1.450000e-06	-1.828179e-06	-7.715873e-10	-1.270455e+01	-5.448446e+01
1.460000e-06	-1.783868e-06	-7.577738e-10	-1.239662e+01	-5.380261e+01
1.470000e-06	-1.739422e-06	-7.445493e-10	-1.208776e+01	-5.310988e+01
1.480000e-06	-1.694775e-06	-7.315043e-10	-1.177749e+01	-5.240624e+01
1.490000e-06	-1.650001e-06	-7.208844e-10	-1.146634e+01	-5.169163e+01
1.500000e-06	-1.605162e-06	-7.118819e-10	-1.115474e+01	-5.096599e+01
1.510000e-06	-1.560173e-06	-7.038043e-10	-1.084210e+01	-5.022923e+01
1.520000e-06	-1.515067e-06	-6.933591e-10	-1.052864e+01	-4.948126e+01
1.530000e-06	-1.469788e-06	-6.796333e-10	-1.021399e+01	-4.872194e+01
1.540000e-06	-1.424402e-06	-6.639126e-10	-9.898590e+00	-4.795113e+01
1.550000e-06	-1.379025e-06	-6.493015e-10	-9.583248e+00	-4.716865e+01
1.560000e-06	-1.333584e-06	-6.343945e-10	-9.267470e+00	-4.637432e+01
1.570000e-06	-1.288112e-06	-6.216816e-10	-8.951469e+00	-4.556791e+01
1.580000e-06	-1.242442e-06	-6.104248e-10	-8.634094e+00	-4.474918e+01
1.590000e-06	-1.196600e-06	-5.989340e-10	-8.315525e+00	-4.391785e+01
1.600000e-06	-1.150740e-06	-5.854492e-10	-7.996833e+00	-4.307364e+01
1.610000e-06	-1.104786e-06	-5.728434e-10	-7.677479e+00	-4.221622e+01
1.620000e-06	-1.058820e-06	-5.591965e-10	-7.358053e+00	-4.134527e+01
1.630000e-06	-1.012850e-06	-5.443389e-10	-7.038591e+00	-4.046043e+01
1.640000e-06	-9.667424e-07	-5.290653e-10	-6.718176e+00	-3.956133e+01
1.650000e-06	-9.205069e-07	-5.107866e-10	-6.396873e+00	-3.864759e+01
1.660000e-06	-8.741630e-07	-4.949104e-10	-6.074815e+00	-3.771881e+01
1.670000e-06	-8.277852e-07	-4.791784e-10	-5.752522e+00	-3.677461e+01
1.680000e-06	-7.813805e-07	-4.651716e-10	-5.430043e+00	-3.581458e+01
1.690000e-06	-7.348717e-07	-4.514382e-10	-5.106839e+00	-3.483833e+01
1.700000e-06	-6.883152e-07	-4.409334e-10	-4.783304e+00	-3.384546e+01
1.710000e-06	-6.417792e-07	-4.294735e-10	-4.459912e+00	-3.283559e+01
1.720000e-06	-5.952565e-07	-4.133454e-10	-4.136612e+00	-3.180837e+01
1.730000e-06	-5.486545e-07	-3.955467e-10	-3.812761e+00	-3.076344e+01
1.740000e-06	-5.019369e-07	-3.777313e-10	-3.488107e+00	-2.970049e+01
1.750000e-06	-4.552030e-07	-3.591723e-10	-3.163339e+00	-2.861924e+01
1.760000e-06	-4.085115e-07	-3.415208e-10	-2.838866e+00	-2.751943e+01
1.770000e-06	-3.617875e-07	-3.242603e-10	-2.514168e+00	-2.640084e+01
1.780000e-06	-3.149146e-07	-3.095201e-10	-2.188434e+00	-2.526333e+01
1.790000e-06	-2.679940e-07	-2.967154e-10	-1.862369e+00	-2.410676e+01
1.800000e-06	-2.210883e-07	-2.808865e-10	-1.536407e+00	-2.293108e+01
1.810000e-06	-1.742085e-07	-2.615904e-10	-1.210626e+00	-2.173628e+01
1.820000e-06	-1.273592e-07	-2.411243e-10	-8.850562e-01	-2.052242e+01
1.830000e-06	-8.049736e-08	-2.206630e-10	-5.593997e-01	-1.928962e+01
1.840000e-06	-3.366154e-08	-2.000864e-10	-2.339239e-01	-1.803808e+01
1.850000e-06	1.318377e-08	-1.802666e-10	9.161789e-02	-1.676806e+01
1.860000e-06	6.000911e-08	-1.639914e-10	4.170209e-01	-1.547988e+01
1.870000e-06	1.067827e-07	-1.478207e-10	7.420643e-01	-1.417395e+01
1.880000e-06	1.535718e-07	-1.301765e-10	1.067216e+00	-1.285076e+01
1.890000e-06	2.003653e-07	-1.117818e-10	1.392397e+00	-1.151087e+01
1.900000e-06	2.471077e-07	-9.191573e-11	1.717224e+00	-1.015491e+01
1.910000e-06	2.938368e-07	-7.252724e-11	2.041958e+00	-8.783585e+00
1.920000e-06	3.405580e-07	-5.381552e-11	2.366638e+00	-7.397676e+00
1.930000e-06	3.872855e-07	-3.730589e-11	2.691360e+00	-5.998037e+00
1.940000e-06	4.340960e-07	-1.922371e-11	3.016660e+00	-4.585590e+00
1.950000e-06	4.809288e-07	-1.239451e-12	3.342115e+00	-3.161321e+00
1.960000e-06	5.276792e-07	1.584265e-11	3.666998e+00	-1.726281e+00
1.970000e-06	5.742311e-07	3.303448e-11	3.990501e+00	-2.815788e-01
1.980000e-06	6.206630e-07	5.322720e-11	4.313170e+00	1.171622e+00
1.990000e-06	6.670944e-07	7.472699e-11	4.635835e+00	2.632111e+00
2.000000e-06	7.135059e-07	9.609850e-11	4.958362e+00	4.098630e+00
2.010000e-06	7.598883e-07	1.167554e-10	5.280687e+00	5.569887e+00
2.020000e-06	8.061772e-07	1.364013e-10	5.602362e+00	7.044555e+00
2.030000e-06	8.524674e-07	1.552040e-10	5.924046e+00	8.521281e+00
2.040000e-06	8.987439e-07	1.756026e-10	6.245635e+00	9.998696e+00
2.050000e-06	9.449047e-07	1.957641e-10	6.566420e+00	1.147541e+01
2.060000e-06	9.909217e-07	2.165784e-10	6.886206e+00	1.295005e+01
2.070000e-06	1.036856e-06	2.379848e-10	7.205419e+00	1.442121e+01
2.080000e-06	1.082818e-06	2.592613e-10	7.524821e+00	1.588751e+01
2.090000e-06	1.128706e-06	2.820071e-10	7.843711e+00	1.734760e+01
2.100000e-06	1.174489e-06	3.046053e-10	8.161872e+00	1.880012e+01
2.110000e-06	1.220141e-06	3.249096e-10	8.479121e+00	2.024376e+01
2.120000e-06	1.265608e-06	3.426256e-10	8.795083e+00	2.167725e+01
2.130000e-06	1.310978e-06	3.597771e-10	9.110372e+00	2.309934e+01
2.140000e-06	1.356353e-06	3.785960e-10	9.425696e+00	2.450883e+01
2.150000e-06	1.401663e-06	3.974508e-10	9.740569e+00	2.590458e+01
2.160000e-06	1.446824e-06	4.166996e-10	1.005440e+01	2.728552e+01
2.170000e-06	1.491902e-06	4.389737e-10	1.036767e+01	2.865061e+01
2.180000e-06	1.536898e-06	4.611952e-10	1.068036e+01	2.999890e+01
2.190000e-06	1.581804e-06	4.805781e-10	1.099242e+01	3.132949e+01
2.200000e-06	1.626647e-06	4.973108e-10	1.130405e+01	3.264158e+01
2.210000e-06	1.671342e-06	5.139647e-10	1.161464e+01	3.393441e+01
2.220000e-06	1.715907e-06	5.284969e-10	1.192434e+01	3.520732e+01
2.230000e-06	1.760371e-06	5.434711e-10	1.223334e+01	3.645972e+01
2.240000e-06	1.804649e-06	5.588381e-10	1.254104e+01	3.769110e+01
2.250000e-06	1.848756e-06	5.754819e-10	1.284755e+01	3.890103e+01
2.260000e-06	1.892757e-06	5.918671e-10	1.315333e+01	4.008916e+01
2.270000e-06	1.936641e-06	6.085539e-10	1.345829e+01	4.125521e+01
2.280000e-06	1.980414e-06	6.245926e-10	1.376248e+01	4.239898e+01
2.290000e-06	2.024143e-06	6.385547e-10	1.406636e+01	4.352035e+01
2.300000e-06	2.067854e-06	6.512143e-10	1.437012e+01	4.461926e+01
2.310000e-06	2.111509e-06	6.646700e-10	1.467349e+01	4.569574e+01
2.320000e-06	2.155040e-06	6.803010e-10	1.497601e+01	4.674985e+01
2.330000e-06	2.198466e-06	6.968998e-10	1.527779e+01	4.778174e+01
2.340000e-06	2.241803e-06	7.123448e-10	1.557895e+01	4.879161e+01
2.350000e-06	2.285064e-06	7.267194e-10	1.587958e+01	4.977972e+01
2.360000e-06	2.328198e-06	7.387689e-10	1.617933e+01	5.074637e+01
2.370000e-06	2.371074e-06	7.508800e-10	1.647729e+01	5.169191e+01
2.380000e-06	2.413568e-06	7.638859e-10	1.677259e+01	5.261672e+01
2.390000e-06	2.455701e-06	7.769782e-10	1.706538e+01	5.352122e+01
2.400000e-06	2.497563e-06	7.907691e-10	1.735630e+01	5.440586e+01
2.410000e-06	2.539165e-06	8.042077e-10	1.764540e+01	5.527111e+01
2.420000e-06	2.580443e-06	8.183023e-10	1.793226e+01	5.611747e+01
2.430000e-06	2.621420e-06	8.311843e-10	1.821702e+01	5.694544e+01
2.440000e-06	2.662116e-06	8.421755e-10	1.849983e+01	5.775553e+01
2.450000e-06	2.702581e-06	8.535542e-10	1.878103e+01	5.854828e+01
2.460000e-06	2.742878e-06	8.676471e-10	1.906106e+01	5.932418e+01
2.470000e-06	2.782954e-06	8.807534e-10	1.933957e+01	6.008377e+01
2.480000e-06	2.822868e-06	8.922238e-10	1.961694e+01	6.082754e+01
2.490000e-06	2.862628e-06	9.011701e-10	1.989324e+01	6.155599e+01
2.500000e-06	2.902229e-06	9.098105e-10	2.016844e+01	6.226960e+01
2.510000e-06	2.941706e-06	9.196935e-10	2.044278e+01	6.296884e+01
2.520000e-06	2.981084e-06	9.296422e-10	2.071643e+01	6.365414e+01
2.530000e-06	3.020228e-06	9.399071e-10	2.098845e+01	6.432592e+01
2.540000e-06	3.059116e-06	9.495708e-10	2.125869e+01	6.498458e+01
2.550000e-06	3.097822e-06	9.572002e-10	2.152767e+01	6.563049e+01
2.560000e-06	3.136320e-06	9.649515e-10	2.179521e+01	6.626398e+01
2.570000e-06	3.174610e-06	9.729891e-10	2.206130e+01	6.688537e+01
2.580000e-06	3.212646e-06	9.804914e-10	2.232562e+01	6.749495e+01
2.590000e-06	3.250485e-06	9.875644e-10	2.258858e+01	6.809297e+01
2.600000e-06	3.288130e-06	9.942627e-10	2.285018e+01	6.867967e+01
2.610000e-06	3.325555e-06	1.001547e-09	2.311026e+01	6.925525e+01
2.620000e-06	3.362766e-06	1.009722e-09	2.336885e+01	6.981990e+01
2.630000e-06	3.399767e-06	1.017589e-09	2.362598e+01	7.037377e+01
2.640000e-06	3.436488e-06	1.025927e-09	2.388116e+01	7.091699e+01
2.650000e-06	3.472866e-06	1.033458e-09	2.413396e+01	7.144968e+01
2.660000e-06	3.509015e-06	1.039872e-09	2.438517e+01	7.197193e+01
2.670000e-06	3.545023e-06	1.046547e-09	2.463541e+01	7.248383e+01
2.680000e-06	3.580901e-06	1.053398e-09	2.488473e+01	7.298545e+01
2.690000e-06	3.616626e-06	1.060168e-09	2.513299e+01	7.347683e+01
2.700000e-06	3.652218e-06	1.067469e-09	2.538034e+01	7.395803e+01
2.710000e-06	3.687683e-06	1.073932e-09	2.562679e+01	7.442909e+01
2.720000e-06	3.722957e-06	1.078376e-09	2.587192e+01	7.489004e+01
2.730000e-06	3.758029e-06	1.085422e-09	2.611565e+01	7.534092e+01
2.740000e-06	3.792718e-06	1.093289e-09	2.635671e+01	7.578176e+01
2.750000e-06	3.826877e-06	1.100239e-09	2.659409e+01	7.621261e+01
2.760000e-06	3.860625e-06	1.107284e-09	2.682862e+01	7.663351e+01
2.770000e-06	3.893915e-06	1.114068e-09	2.705996e+01	7.704452e+01
2.780000e-06	3.926737e-06	1.121305e-09	2.728805e+01	7.744568e+01
2.790000e-06	3.959178e-06	1.130075e-09	2.751349e+01	7.783708e+01
2.800000e-06	3.991292e-06	1.138519e-09	2.773666e+01	7.821880e+01
2.810000e-06	4.023162e-06	1.145404e-09	2.795813e+01	7.859093e+01
2.820000e-06	4.054851e-06	1.149774e-09	2.817835e+01	7.895359e+01
2.830000e-06	4.086395e-06	1.151617e-09	2.839756e+01	7.930688e+01
2.840000e-06	4.117745e-06	1.153547e-09	2.861542e+01	7.965096e+01
2.850000e-06	4.148876e-06	1.157026e-09	2.883176e+01	7.998597e+01
2.860000e-06	4.179747e-06	1.163192e-09	2.904629e+01	8.031209e+01
2.870000e-06	4.210232e-06	1.170452e-09	2.925814e+01	8.062949e+01
2.880000e-06	4.240338e-06	1.175850e-09	2.946736e+01	8.093836e+01
2.890000e-06	4.270211e-06	1.180991e-09	2.967495e+01	8.123892e+01
2.900000e-06	4.299851e-06	1.184903e-09	2.988092e+01	8.153139e+01
