# Temperatura_=_14.79
# Concentracion g/m^3_=_1620.0
# C_Vs_to_Am_M_A/Vsm_=_65563218390.804596
# pendiente_HvsI_1/m_=_3716.3
# ordenada_HvsI_A/m_=_1297.0
# frecuencia_Hz_=_135101.48706019638

Tiempo_(s)	Campo_(V.s)	Magnetizacion_(V.s)	Campo_(kA/m)	Magnetizacion_(A/m)
0.000000e+00	-5.526361e-06	-8.566135e-10	-3.837628e+01	-5.676357e+01
1.000000e-08	-5.526624e-06	-8.556807e-10	-3.837811e+01	-5.676416e+01
2.000000e-08	-5.526690e-06	-8.544296e-10	-3.837857e+01	-5.676436e+01
3.000000e-08	-5.526465e-06	-8.535697e-10	-3.837700e+01	-5.676411e+01
4.000000e-08	-5.525841e-06	-8.508771e-10	-3.837267e+01	-5.676332e+01
5.000000e-08	-5.524717e-06	-8.465532e-10	-3.836486e+01	-5.676188e+01
6.000000e-08	-5.522938e-06	-8.419025e-10	-3.835251e+01	-5.675967e+01
7.000000e-08	-5.520623e-06	-8.273847e-10	-3.833643e+01	-5.675658e+01
8.000000e-08	-5.517751e-06	-8.270662e-10	-3.831649e+01	-5.675249e+01
9.000000e-08	-5.514302e-06	-8.638008e-10	-3.829254e+01	-5.674725e+01
1.000000e-07	-5.510384e-06	-9.012606e-10	-3.826533e+01	-5.674072e+01
1.100000e-07	-5.506074e-06	-8.663877e-10	-3.823540e+01	-5.673278e+01
1.200000e-07	-5.501615e-06	-8.183257e-10	-3.820444e+01	-5.672327e+01
1.300000e-07	-5.496999e-06	-7.869946e-10	-3.817238e+01	-5.671205e+01
1.400000e-07	-5.491973e-06	-8.489040e-10	-3.813748e+01	-5.669898e+01
1.500000e-07	-5.486528e-06	-8.324214e-10	-3.809967e+01	-5.668392e+01
1.600000e-07	-5.480794e-06	-8.067710e-10	-3.805985e+01	-5.666675e+01
1.700000e-07	-5.474702e-06	-8.066281e-10	-3.801755e+01	-5.664732e+01
1.800000e-07	-5.468103e-06	-8.729094e-10	-3.797172e+01	-5.662552e+01
1.900000e-07	-5.461022e-06	-8.823730e-10	-3.792255e+01	-5.660122e+01
2.000000e-07	-5.453595e-06	-8.254207e-10	-3.787098e+01	-5.657433e+01
2.100000e-07	-5.445983e-06	-8.184186e-10	-3.781812e+01	-5.654475e+01
2.200000e-07	-5.438104e-06	-8.597226e-10	-3.776340e+01	-5.651238e+01
2.300000e-07	-5.429915e-06	-8.888124e-10	-3.770653e+01	-5.647715e+01
2.400000e-07	-5.421422e-06	-8.538076e-10	-3.764756e+01	-5.643900e+01
2.500000e-07	-5.412356e-06	-8.630268e-10	-3.758460e+01	-5.639786e+01
2.600000e-07	-5.402485e-06	-8.719913e-10	-3.751606e+01	-5.635369e+01
2.700000e-07	-5.391962e-06	-8.794406e-10	-3.744298e+01	-5.630647e+01
2.800000e-07	-5.380940e-06	-8.425179e-10	-3.736645e+01	-5.625616e+01
2.900000e-07	-5.369494e-06	-8.599026e-10	-3.728696e+01	-5.620276e+01
3.000000e-07	-5.357774e-06	-8.690278e-10	-3.720557e+01	-5.614628e+01
3.100000e-07	-5.345694e-06	-8.751623e-10	-3.712169e+01	-5.608671e+01
3.200000e-07	-5.333109e-06	-8.417126e-10	-3.703429e+01	-5.602410e+01
3.300000e-07	-5.320082e-06	-8.495296e-10	-3.694383e+01	-5.595846e+01
3.400000e-07	-5.306730e-06	-8.454109e-10	-3.685111e+01	-5.588984e+01
3.500000e-07	-5.293019e-06	-8.413136e-10	-3.675590e+01	-5.581830e+01
3.600000e-07	-5.278834e-06	-8.214085e-10	-3.665739e+01	-5.574388e+01
3.700000e-07	-5.264148e-06	-8.453830e-10	-3.655541e+01	-5.566665e+01
3.800000e-07	-5.249042e-06	-8.557439e-10	-3.645051e+01	-5.558669e+01
3.900000e-07	-5.233432e-06	-8.482078e-10	-3.634211e+01	-5.550407e+01
4.000000e-07	-5.217287e-06	-8.348215e-10	-3.623000e+01	-5.541887e+01
4.100000e-07	-5.200718e-06	-8.436392e-10	-3.611494e+01	-5.533118e+01
4.200000e-07	-5.183787e-06	-8.386752e-10	-3.599737e+01	-5.524108e+01
4.300000e-07	-5.166544e-06	-8.211207e-10	-3.587763e+01	-5.514868e+01
4.400000e-07	-5.148960e-06	-8.366082e-10	-3.575552e+01	-5.505405e+01
4.500000e-07	-5.131108e-06	-8.510586e-10	-3.563156e+01	-5.495729e+01
4.600000e-07	-5.112875e-06	-8.391711e-10	-3.550494e+01	-5.485850e+01
4.700000e-07	-5.094146e-06	-8.192032e-10	-3.537488e+01	-5.475778e+01
4.800000e-07	-5.075057e-06	-8.357017e-10	-3.524232e+01	-5.465520e+01
4.900000e-07	-5.055700e-06	-8.348322e-10	-3.510791e+01	-5.455087e+01
5.000000e-07	-5.036155e-06	-8.305957e-10	-3.497218e+01	-5.444487e+01
5.100000e-07	-5.016378e-06	-8.265662e-10	-3.483484e+01	-5.433730e+01
5.200000e-07	-4.996286e-06	-8.317675e-10	-3.469532e+01	-5.422822e+01
5.300000e-07	-4.975831e-06	-8.164727e-10	-3.455328e+01	-5.411774e+01
5.400000e-07	-4.954981e-06	-8.235402e-10	-3.440849e+01	-5.400593e+01
5.500000e-07	-4.933767e-06	-8.260230e-10	-3.426117e+01	-5.389285e+01
5.600000e-07	-4.912152e-06	-8.195583e-10	-3.411108e+01	-5.377860e+01
5.700000e-07	-4.890247e-06	-8.036017e-10	-3.395896e+01	-5.366323e+01
5.800000e-07	-4.868014e-06	-8.225791e-10	-3.380457e+01	-5.354682e+01
5.900000e-07	-4.845346e-06	-8.251585e-10	-3.364716e+01	-5.342943e+01
6.000000e-07	-4.822372e-06	-8.190073e-10	-3.348762e+01	-5.331111e+01
6.100000e-07	-4.799147e-06	-8.137803e-10	-3.332634e+01	-5.319193e+01
6.200000e-07	-4.775605e-06	-8.204877e-10	-3.316287e+01	-5.307194e+01
6.300000e-07	-4.751867e-06	-8.014179e-10	-3.299802e+01	-5.295119e+01
6.400000e-07	-4.728002e-06	-7.919123e-10	-3.283229e+01	-5.282972e+01
6.500000e-07	-4.703806e-06	-7.982682e-10	-3.266427e+01	-5.270759e+01
6.600000e-07	-4.679155e-06	-8.019439e-10	-3.249309e+01	-5.258482e+01
6.700000e-07	-4.654012e-06	-7.926365e-10	-3.231849e+01	-5.246146e+01
6.800000e-07	-4.628466e-06	-7.985345e-10	-3.214109e+01	-5.233755e+01
6.900000e-07	-4.602344e-06	-8.056463e-10	-3.195970e+01	-5.221310e+01
7.000000e-07	-4.575546e-06	-7.977886e-10	-3.177361e+01	-5.208814e+01
7.100000e-07	-4.548383e-06	-7.919895e-10	-3.158498e+01	-5.196270e+01
7.200000e-07	-4.520991e-06	-7.929543e-10	-3.139477e+01	-5.183680e+01
7.300000e-07	-4.493352e-06	-7.864992e-10	-3.120284e+01	-5.171044e+01
7.400000e-07	-4.465534e-06	-7.788328e-10	-3.100966e+01	-5.158362e+01
7.500000e-07	-4.437542e-06	-7.849536e-10	-3.081528e+01	-5.145636e+01
7.600000e-07	-4.409291e-06	-7.863226e-10	-3.061910e+01	-5.132864e+01
7.700000e-07	-4.380811e-06	-7.809490e-10	-3.042133e+01	-5.120045e+01
7.800000e-07	-4.351972e-06	-7.793698e-10	-3.022106e+01	-5.107177e+01
7.900000e-07	-4.322727e-06	-7.836043e-10	-3.001797e+01	-5.094257e+01
8.000000e-07	-4.293239e-06	-7.720765e-10	-2.981321e+01	-5.081281e+01
8.100000e-07	-4.263475e-06	-7.712741e-10	-2.960652e+01	-5.068246e+01
8.200000e-07	-4.233322e-06	-7.714192e-10	-2.939713e+01	-5.055145e+01
8.300000e-07	-4.202848e-06	-7.718987e-10	-2.918551e+01	-5.041972e+01
8.400000e-07	-4.172171e-06	-7.685738e-10	-2.897249e+01	-5.028720e+01
8.500000e-07	-4.141191e-06	-7.725515e-10	-2.875735e+01	-5.015380e+01
8.600000e-07	-4.109952e-06	-7.640520e-10	-2.854042e+01	-5.001942e+01
8.700000e-07	-4.078550e-06	-7.553659e-10	-2.832236e+01	-4.988395e+01
8.800000e-07	-4.046942e-06	-7.513719e-10	-2.810287e+01	-4.974728e+01
8.900000e-07	-4.015140e-06	-7.551407e-10	-2.788202e+01	-4.960927e+01
9.000000e-07	-3.983128e-06	-7.515706e-10	-2.765973e+01	-4.946978e+01
9.100000e-07	-3.950909e-06	-7.509874e-10	-2.743599e+01	-4.932866e+01
9.200000e-07	-3.918435e-06	-7.479255e-10	-2.721048e+01	-4.918573e+01
9.300000e-07	-3.885531e-06	-7.443444e-10	-2.698199e+01	-4.904083e+01
9.400000e-07	-3.852040e-06	-7.388210e-10	-2.674942e+01	-4.889375e+01
9.500000e-07	-3.818098e-06	-7.373364e-10	-2.651372e+01	-4.874431e+01
9.600000e-07	-3.783749e-06	-7.329469e-10	-2.627519e+01	-4.859230e+01
9.700000e-07	-3.748910e-06	-7.274458e-10	-2.603326e+01	-4.843751e+01
9.800000e-07	-3.713699e-06	-7.241360e-10	-2.578875e+01	-4.827970e+01
9.900000e-07	-3.678243e-06	-7.212593e-10	-2.554254e+01	-4.811865e+01
1.000000e-06	-3.642647e-06	-7.177683e-10	-2.529535e+01	-4.795413e+01
1.010000e-06	-3.606927e-06	-7.153184e-10	-2.504731e+01	-4.778590e+01
1.020000e-06	-3.571118e-06	-7.119745e-10	-2.479863e+01	-4.761372e+01
1.030000e-06	-3.535194e-06	-7.036359e-10	-2.454917e+01	-4.743735e+01
1.040000e-06	-3.499068e-06	-6.991962e-10	-2.429831e+01	-4.725656e+01
1.050000e-06	-3.462659e-06	-6.958234e-10	-2.404547e+01	-4.707109e+01
1.060000e-06	-3.425962e-06	-6.898977e-10	-2.379064e+01	-4.688073e+01
1.070000e-06	-3.389002e-06	-6.820503e-10	-2.353398e+01	-4.668524e+01
1.080000e-06	-3.351777e-06	-6.814264e-10	-2.327548e+01	-4.648441e+01
1.090000e-06	-3.314385e-06	-6.816640e-10	-2.301582e+01	-4.627803e+01
1.100000e-06	-3.276793e-06	-6.818798e-10	-2.275478e+01	-4.606590e+01
1.110000e-06	-3.238944e-06	-6.770801e-10	-2.249195e+01	-4.584784e+01
1.120000e-06	-3.200805e-06	-6.705697e-10	-2.222710e+01	-4.562367e+01
1.130000e-06	-3.162409e-06	-6.595307e-10	-2.196047e+01	-4.539324e+01
1.140000e-06	-3.123841e-06	-6.541184e-10	-2.169264e+01	-4.515642e+01
1.150000e-06	-3.085060e-06	-6.492253e-10	-2.142334e+01	-4.491308e+01
1.160000e-06	-3.046035e-06	-6.443997e-10	-2.115234e+01	-4.466313e+01
1.170000e-06	-3.006834e-06	-6.395014e-10	-2.088012e+01	-4.440648e+01
1.180000e-06	-2.967506e-06	-6.387356e-10	-2.060702e+01	-4.414308e+01
1.190000e-06	-2.928011e-06	-6.355224e-10	-2.033276e+01	-4.387289e+01
1.200000e-06	-2.888361e-06	-6.326841e-10	-2.005742e+01	-4.359589e+01
1.210000e-06	-2.848602e-06	-6.297518e-10	-1.978133e+01	-4.331208e+01
1.220000e-06	-2.808710e-06	-6.245223e-10	-1.950431e+01	-4.302150e+01
1.230000e-06	-2.768667e-06	-6.168974e-10	-1.922624e+01	-4.272419e+01
1.240000e-06	-2.728519e-06	-6.132745e-10	-1.894744e+01	-4.242021e+01
1.250000e-06	-2.688188e-06	-6.085492e-10	-1.866738e+01	-4.210965e+01
1.260000e-06	-2.647569e-06	-6.033249e-10	-1.838531e+01	-4.179260e+01
1.270000e-06	-2.606655e-06	-6.013867e-10	-1.810119e+01	-4.146919e+01
1.280000e-06	-2.565515e-06	-5.998572e-10	-1.781551e+01	-4.113954e+01
1.290000e-06	-2.524125e-06	-5.964977e-10	-1.752809e+01	-4.080379e+01
1.300000e-06	-2.482299e-06	-5.914325e-10	-1.723763e+01	-4.046209e+01
1.310000e-06	-2.440043e-06	-5.849768e-10	-1.694420e+01	-4.011460e+01
1.320000e-06	-2.397529e-06	-5.775591e-10	-1.664897e+01	-3.976148e+01
1.330000e-06	-2.354776e-06	-5.718355e-10	-1.635209e+01	-3.940288e+01
1.340000e-06	-2.311706e-06	-5.688738e-10	-1.605300e+01	-3.903897e+01
1.350000e-06	-2.268436e-06	-5.662018e-10	-1.575253e+01	-3.866990e+01
1.360000e-06	-2.225072e-06	-5.602518e-10	-1.545139e+01	-3.829581e+01
1.370000e-06	-2.181560e-06	-5.544569e-10	-1.514924e+01	-3.791683e+01
1.380000e-06	-2.137943e-06	-5.487875e-10	-1.484635e+01	-3.753309e+01
1.390000e-06	-2.094264e-06	-5.441960e-10	-1.454303e+01	-3.714468e+01
1.400000e-06	-2.050489e-06	-5.386759e-10	-1.423905e+01	-3.675169e+01
1.410000e-06	-2.006614e-06	-5.346581e-10	-1.393438e+01	-3.635416e+01
1.420000e-06	-1.962653e-06	-5.287525e-10	-1.362910e+01	-3.595213e+01
1.430000e-06	-1.918645e-06	-5.232001e-10	-1.332350e+01	-3.554559e+01
1.440000e-06	-1.874588e-06	-5.159680e-10	-1.301755e+01	-3.513451e+01
1.450000e-06	-1.830362e-06	-5.078237e-10	-1.271044e+01	-3.471882e+01
1.460000e-06	-1.785977e-06	-4.986012e-10	-1.240222e+01	-3.429842e+01
1.470000e-06	-1.741533e-06	-4.918080e-10	-1.209359e+01	-3.387317e+01
1.480000e-06	-1.696950e-06	-4.860338e-10	-1.178400e+01	-3.344288e+01
1.490000e-06	-1.652141e-06	-4.789152e-10	-1.147283e+01	-3.300733e+01
1.500000e-06	-1.607164e-06	-4.706217e-10	-1.116051e+01	-3.256627e+01
1.510000e-06	-1.562093e-06	-4.628042e-10	-1.084752e+01	-3.211938e+01
1.520000e-06	-1.516932e-06	-4.522469e-10	-1.053392e+01	-3.166633e+01
1.530000e-06	-1.471700e-06	-4.406725e-10	-1.021981e+01	-3.120674e+01
1.540000e-06	-1.426371e-06	-4.302030e-10	-9.905038e+00	-3.074018e+01
1.550000e-06	-1.380961e-06	-4.207054e-10	-9.589703e+00	-3.026620e+01
1.560000e-06	-1.335451e-06	-4.117379e-10	-9.273666e+00	-2.978432e+01
1.570000e-06	-1.289795e-06	-4.036436e-10	-8.956623e+00	-2.929399e+01
1.580000e-06	-1.244083e-06	-3.948550e-10	-8.639189e+00	-2.879468e+01
1.590000e-06	-1.198314e-06	-3.868170e-10	-8.321362e+00	-2.828581e+01
1.600000e-06	-1.152469e-06	-3.783447e-10	-8.002999e+00	-2.776677e+01
1.610000e-06	-1.106582e-06	-3.689691e-10	-7.684350e+00	-2.723696e+01
1.620000e-06	-1.060670e-06	-3.598110e-10	-7.365530e+00	-2.669574e+01
1.630000e-06	-1.014663e-06	-3.500479e-10	-7.046045e+00	-2.614248e+01
1.640000e-06	-9.684415e-07	-3.386259e-10	-6.725073e+00	-2.557653e+01
1.650000e-06	-9.220800e-07	-3.235451e-10	-6.403128e+00	-2.499727e+01
1.660000e-06	-8.756881e-07	-3.097993e-10	-6.080973e+00	-2.440405e+01
1.670000e-06	-8.292419e-07	-2.986130e-10	-5.758440e+00	-2.379628e+01
1.680000e-06	-7.827489e-07	-2.905702e-10	-5.435582e+00	-2.317334e+01
1.690000e-06	-7.361574e-07	-2.842479e-10	-5.112041e+00	-2.253468e+01
1.700000e-06	-6.895227e-07	-2.801987e-10	-4.788199e+00	-2.187975e+01
1.710000e-06	-6.429909e-07	-2.732129e-10	-4.465072e+00	-2.120805e+01
1.720000e-06	-5.964478e-07	-2.615459e-10	-4.141866e+00	-2.051912e+01
1.730000e-06	-5.498568e-07	-2.470669e-10	-3.818328e+00	-1.981257e+01
1.740000e-06	-5.032517e-07	-2.328881e-10	-3.494692e+00	-1.908802e+01
1.750000e-06	-4.564795e-07	-2.188429e-10	-3.169895e+00	-1.834518e+01
1.760000e-06	-4.096382e-07	-2.074235e-10	-2.844618e+00	-1.758382e+01
1.770000e-06	-3.627608e-07	-1.969956e-10	-2.519092e+00	-1.680378e+01
1.780000e-06	-3.158285e-07	-1.890585e-10	-2.193184e+00	-1.600497e+01
1.790000e-06	-2.689233e-07	-1.830565e-10	-1.867463e+00	-1.518735e+01
1.800000e-06	-2.220161e-07	-1.732150e-10	-1.541729e+00	-1.435101e+01
1.810000e-06	-1.751649e-07	-1.587675e-10	-1.216384e+00	-1.349608e+01
1.820000e-06	-1.282516e-07	-1.421174e-10	-8.906074e-01	-1.262278e+01
1.830000e-06	-8.129941e-08	-1.269640e-10	-5.645611e-01	-1.173143e+01
1.840000e-06	-3.445663e-08	-1.154594e-10	-2.392745e-01	-1.082243e+01
1.850000e-06	1.236964e-08	-1.041320e-10	8.589756e-02	-9.896250e+00
1.860000e-06	5.925560e-08	-9.379280e-11	4.114840e-01	-8.953464e+00
1.870000e-06	1.061516e-07	-8.352821e-11	7.371404e-01	-7.994721e+00
1.880000e-06	1.530371e-07	-7.352155e-11	1.062724e+00	-7.020753e+00
1.890000e-06	1.999505e-07	-6.334830e-11	1.388501e+00	-6.032373e+00
1.900000e-06	2.469214e-07	-5.085974e-11	1.714677e+00	-5.030469e+00
1.910000e-06	2.938993e-07	-3.734590e-11	2.040902e+00	-4.016005e+00
1.920000e-06	3.407607e-07	-2.161345e-11	2.366318e+00	-2.990010e+00
1.930000e-06	3.875951e-07	-7.448064e-12	2.691547e+00	-1.953581e+00
1.940000e-06	4.344816e-07	5.405364e-12	3.017137e+00	-9.078714e-01
1.950000e-06	4.812828e-07	1.553499e-11	3.342135e+00	1.459111e-01
1.960000e-06	5.279046e-07	2.530100e-11	3.665887e+00	1.206512e+00
1.970000e-06	5.744742e-07	3.635734e-11	3.989277e+00	2.272635e+00
1.980000e-06	6.210546e-07	5.078137e-11	4.312741e+00	3.342953e+00
1.990000e-06	6.675236e-07	6.664760e-11	4.635432e+00	4.416108e+00
2.000000e-06	7.140124e-07	8.275954e-11	4.958261e+00	5.490726e+00
2.010000e-06	7.605161e-07	1.002022e-10	5.281193e+00	6.565420e+00
2.020000e-06	8.068279e-07	1.165721e-10	5.602792e+00	7.638800e+00
2.030000e-06	8.529925e-07	1.292001e-10	5.923369e+00	8.709477e+00
2.040000e-06	8.991613e-07	1.418395e-10	6.243976e+00	9.776076e+00
2.050000e-06	9.453850e-07	1.547074e-10	6.564964e+00	1.083724e+01
2.060000e-06	9.915335e-07	1.685163e-10	6.885429e+00	1.189163e+01
2.070000e-06	1.037549e-06	1.840827e-10	7.204974e+00	1.293796e+01
2.080000e-06	1.083460e-06	2.019083e-10	7.523788e+00	1.397496e+01
2.090000e-06	1.129304e-06	2.179327e-10	7.842138e+00	1.500143e+01
2.100000e-06	1.175093e-06	2.326070e-10	8.160108e+00	1.601620e+01
2.110000e-06	1.220775e-06	2.475809e-10	8.477333e+00	1.701817e+01
2.120000e-06	1.266453e-06	2.610285e-10	8.794534e+00	1.800631e+01
2.130000e-06	1.312086e-06	2.745821e-10	9.111417e+00	1.897966e+01
2.140000e-06	1.357524e-06	2.867575e-10	9.426949e+00	1.993731e+01
2.150000e-06	1.402799e-06	2.976934e-10	9.741347e+00	2.087845e+01
2.160000e-06	1.447932e-06	3.090626e-10	1.005476e+01	2.180234e+01
2.170000e-06	1.492969e-06	3.233450e-10	1.036751e+01	2.270833e+01
2.180000e-06	1.537999e-06	3.385893e-10	1.068021e+01	2.359584e+01
2.190000e-06	1.582981e-06	3.520382e-10	1.099257e+01	2.446440e+01
2.200000e-06	1.627844e-06	3.629327e-10	1.130411e+01	2.531359e+01
2.210000e-06	1.672591e-06	3.724923e-10	1.161484e+01	2.614311e+01
2.220000e-06	1.717165e-06	3.823956e-10	1.192437e+01	2.695273e+01
2.230000e-06	1.761528e-06	3.939075e-10	1.223244e+01	2.774230e+01
2.240000e-06	1.805810e-06	4.047741e-10	1.253995e+01	2.851176e+01
2.250000e-06	1.850026e-06	4.154264e-10	1.284699e+01	2.926112e+01
2.260000e-06	1.894078e-06	4.265313e-10	1.315290e+01	2.999048e+01
2.270000e-06	1.938004e-06	4.376863e-10	1.345793e+01	3.070000e+01
2.280000e-06	1.981877e-06	4.478877e-10	1.376260e+01	3.138991e+01
2.290000e-06	2.025740e-06	4.582172e-10	1.406719e+01	3.206050e+01
2.300000e-06	2.069545e-06	4.668966e-10	1.437138e+01	3.271214e+01
2.310000e-06	2.113262e-06	4.742368e-10	1.467496e+01	3.334523e+01
2.320000e-06	2.156855e-06	4.822955e-10	1.497768e+01	3.396022e+01
2.330000e-06	2.200331e-06	4.903099e-10	1.527959e+01	3.455762e+01
2.340000e-06	2.243704e-06	4.967982e-10	1.558078e+01	3.513797e+01
2.350000e-06	2.286881e-06	5.044742e-10	1.588061e+01	3.570183e+01
2.360000e-06	2.329875e-06	5.131898e-10	1.617917e+01	3.624979e+01
2.370000e-06	2.372742e-06	5.205339e-10	1.647685e+01	3.678246e+01
2.380000e-06	2.415411e-06	5.276332e-10	1.677315e+01	3.730047e+01
2.390000e-06	2.457799e-06	5.343915e-10	1.706751e+01	3.780446e+01
2.400000e-06	2.499901e-06	5.402488e-10	1.735987e+01	3.829504e+01
2.410000e-06	2.541622e-06	5.465988e-10	1.764959e+01	3.877285e+01
2.420000e-06	2.582865e-06	5.544602e-10	1.793599e+01	3.923851e+01
2.430000e-06	2.623752e-06	5.625563e-10	1.821992e+01	3.969262e+01
2.440000e-06	2.664410e-06	5.699273e-10	1.850225e+01	4.013578e+01
2.450000e-06	2.704928e-06	5.780510e-10	1.878362e+01	4.056853e+01
2.460000e-06	2.745328e-06	5.865999e-10	1.906416e+01	4.099143e+01
2.470000e-06	2.785541e-06	5.932169e-10	1.934342e+01	4.140497e+01
2.480000e-06	2.825524e-06	5.982823e-10	1.962107e+01	4.180963e+01
2.490000e-06	2.865304e-06	6.017371e-10	1.989731e+01	4.220585e+01
2.500000e-06	2.904964e-06	6.056952e-10	2.017272e+01	4.259403e+01
2.510000e-06	2.944501e-06	6.106422e-10	2.044727e+01	4.297453e+01
2.520000e-06	2.983846e-06	6.157000e-10	2.072049e+01	4.334769e+01
2.530000e-06	3.022996e-06	6.217619e-10	2.099235e+01	4.371378e+01
2.540000e-06	3.062039e-06	6.275493e-10	2.126348e+01	4.407305e+01
2.550000e-06	3.100892e-06	6.319325e-10	2.153329e+01	4.442571e+01
2.560000e-06	3.139437e-06	6.354696e-10	2.180095e+01	4.477191e+01
2.570000e-06	3.177760e-06	6.382155e-10	2.206707e+01	4.511180e+01
2.580000e-06	3.215934e-06	6.414407e-10	2.233216e+01	4.544547e+01
2.590000e-06	3.253921e-06	6.453553e-10	2.259595e+01	4.577298e+01
2.600000e-06	3.291680e-06	6.499935e-10	2.285816e+01	4.609436e+01
2.610000e-06	3.329227e-06	6.557775e-10	2.311889e+01	4.640961e+01
2.620000e-06	3.366561e-06	6.622207e-10	2.337815e+01	4.671872e+01
2.630000e-06	3.403636e-06	6.673414e-10	2.363560e+01	4.702164e+01
2.640000e-06	3.440349e-06	6.691248e-10	2.389055e+01	4.731830e+01
2.650000e-06	3.476801e-06	6.699876e-10	2.414368e+01	4.760863e+01
2.660000e-06	3.513073e-06	6.736106e-10	2.439556e+01	4.789255e+01
2.670000e-06	3.549120e-06	6.788632e-10	2.464588e+01	4.816995e+01
2.680000e-06	3.585038e-06	6.841375e-10	2.489530e+01	4.844074e+01
2.690000e-06	3.620828e-06	6.881363e-10	2.514384e+01	4.870481e+01
2.700000e-06	3.656468e-06	6.907269e-10	2.539133e+01	4.896206e+01
2.710000e-06	3.691931e-06	6.927576e-10	2.563759e+01	4.921240e+01
2.720000e-06	3.727208e-06	6.945492e-10	2.588256e+01	4.945574e+01
2.730000e-06	3.762177e-06	7.000594e-10	2.612539e+01	4.969202e+01
2.740000e-06	3.796645e-06	7.078063e-10	2.636475e+01	4.992116e+01
2.750000e-06	3.830772e-06	7.140380e-10	2.660173e+01	5.014313e+01
2.760000e-06	3.864594e-06	7.182026e-10	2.683660e+01	5.035791e+01
2.770000e-06	3.897889e-06	7.202935e-10	2.706781e+01	5.056549e+01
2.780000e-06	3.930683e-06	7.216357e-10	2.729554e+01	5.076590e+01
2.790000e-06	3.963100e-06	7.247660e-10	2.752064e+01	5.095917e+01
2.800000e-06	3.995227e-06	7.304875e-10	2.774375e+01	5.114537e+01
2.810000e-06	4.027132e-06	7.373239e-10	2.796530e+01	5.132460e+01
2.820000e-06	4.058853e-06	7.416368e-10	2.818558e+01	5.149696e+01
2.830000e-06	4.090398e-06	7.433320e-10	2.840463e+01	5.166261e+01
2.840000e-06	4.121743e-06	7.436262e-10	2.862230e+01	5.182171e+01
2.850000e-06	4.152827e-06	7.419665e-10	2.883815e+01	5.197445e+01
2.860000e-06	4.183587e-06	7.453217e-10	2.905176e+01	5.212103e+01
2.870000e-06	4.214047e-06	7.502838e-10	2.926328e+01	5.226169e+01
2.880000e-06	4.244262e-06	7.535038e-10	2.947310e+01	5.239668e+01
2.890000e-06	4.274215e-06	7.574811e-10	2.968110e+01	5.252627e+01
2.900000e-06	4.303906e-06	7.618442e-10	2.988728e+01	5.265073e+01
