# Temperatura_=_-7.32
# Concentracion g/m^3_=_1620.0
# C_Vs_to_Am_M_A/Vsm_=_65563218390.804596
# pendiente_HvsI_1/m_=_3716.3
# ordenada_HvsI_A/m_=_1297.0
# frecuencia_Hz_=_135096.44321886866

Tiempo_(s)	Campo_(V.s)	Magnetizacion_(V.s)	Campo_(kA/m)	Magnetizacion_(A/m)
0.000000e+00	-5.535908e-06	-9.049114e-10	-3.838107e+01	-5.991577e+01
1.000000e-08	-5.536153e-06	-9.038673e-10	-3.838277e+01	-5.991941e+01
2.000000e-08	-5.536197e-06	-9.013375e-10	-3.838307e+01	-5.992227e+01
3.000000e-08	-5.535896e-06	-8.987318e-10	-3.838099e+01	-5.992430e+01
4.000000e-08	-5.535151e-06	-8.941445e-10	-3.837582e+01	-5.992546e+01
5.000000e-08	-5.533917e-06	-8.895439e-10	-3.836727e+01	-5.992571e+01
6.000000e-08	-5.531966e-06	-8.834323e-10	-3.835374e+01	-5.992500e+01
7.000000e-08	-5.529267e-06	-8.771014e-10	-3.833503e+01	-5.992328e+01
8.000000e-08	-5.526063e-06	-8.980800e-10	-3.831282e+01	-5.992049e+01
9.000000e-08	-5.522440e-06	-9.322115e-10	-3.828769e+01	-5.991658e+01
1.000000e-07	-5.518378e-06	-9.202456e-10	-3.825953e+01	-5.991149e+01
1.100000e-07	-5.513999e-06	-8.850947e-10	-3.822918e+01	-5.990516e+01
1.200000e-07	-5.509438e-06	-8.981217e-10	-3.819755e+01	-5.989753e+01
1.300000e-07	-5.504672e-06	-8.764505e-10	-3.816451e+01	-5.988854e+01
1.400000e-07	-5.499511e-06	-9.071119e-10	-3.812873e+01	-5.987811e+01
1.500000e-07	-5.493910e-06	-8.590832e-10	-3.808990e+01	-5.986620e+01
1.600000e-07	-5.487946e-06	-8.804773e-10	-3.804854e+01	-5.985273e+01
1.700000e-07	-5.481639e-06	-8.841238e-10	-3.800482e+01	-5.983765e+01
1.800000e-07	-5.474942e-06	-9.150412e-10	-3.795839e+01	-5.982088e+01
1.900000e-07	-5.467827e-06	-9.133631e-10	-3.790906e+01	-5.980238e+01
2.000000e-07	-5.460379e-06	-8.902989e-10	-3.785742e+01	-5.978207e+01
2.100000e-07	-5.452666e-06	-9.083191e-10	-3.780395e+01	-5.975991e+01
2.200000e-07	-5.444677e-06	-9.237763e-10	-3.774855e+01	-5.973584e+01
2.300000e-07	-5.436288e-06	-9.405052e-10	-3.769039e+01	-5.970980e+01
2.400000e-07	-5.427505e-06	-9.156172e-10	-3.762950e+01	-5.968174e+01
2.500000e-07	-5.418237e-06	-9.447524e-10	-3.756525e+01	-5.965161e+01
2.600000e-07	-5.408247e-06	-9.377170e-10	-3.749598e+01	-5.961938e+01
2.700000e-07	-5.397573e-06	-9.471020e-10	-3.742198e+01	-5.958499e+01
2.800000e-07	-5.386429e-06	-9.118922e-10	-3.734472e+01	-5.954841e+01
2.900000e-07	-5.374963e-06	-9.354791e-10	-3.726522e+01	-5.950960e+01
3.000000e-07	-5.363130e-06	-9.225254e-10	-3.718318e+01	-5.946852e+01
3.100000e-07	-5.350827e-06	-9.203497e-10	-3.709788e+01	-5.942515e+01
3.200000e-07	-5.338038e-06	-8.957924e-10	-3.700922e+01	-5.937944e+01
3.300000e-07	-5.324876e-06	-9.254252e-10	-3.691796e+01	-5.933138e+01
3.400000e-07	-5.311429e-06	-9.120369e-10	-3.682473e+01	-5.928094e+01
3.500000e-07	-5.297626e-06	-9.046635e-10	-3.672904e+01	-5.922810e+01
3.600000e-07	-5.283431e-06	-8.992744e-10	-3.663062e+01	-5.917283e+01
3.700000e-07	-5.268817e-06	-9.134417e-10	-3.652930e+01	-5.911512e+01
3.800000e-07	-5.253523e-06	-8.885627e-10	-3.642326e+01	-5.905494e+01
3.900000e-07	-5.237561e-06	-8.982342e-10	-3.631260e+01	-5.899228e+01
4.000000e-07	-5.221132e-06	-9.126363e-10	-3.619869e+01	-5.892712e+01
4.100000e-07	-5.204333e-06	-8.933287e-10	-3.608222e+01	-5.885945e+01
4.200000e-07	-5.187204e-06	-8.827018e-10	-3.596347e+01	-5.878925e+01
4.300000e-07	-5.169779e-06	-9.081478e-10	-3.584266e+01	-5.871651e+01
4.400000e-07	-5.152059e-06	-9.072984e-10	-3.571980e+01	-5.864121e+01
4.500000e-07	-5.133987e-06	-8.701303e-10	-3.559451e+01	-5.856334e+01
4.600000e-07	-5.115478e-06	-8.961832e-10	-3.546618e+01	-5.848290e+01
4.700000e-07	-5.096555e-06	-8.996020e-10	-3.533499e+01	-5.839986e+01
4.800000e-07	-5.077359e-06	-8.715968e-10	-3.520190e+01	-5.831422e+01
4.900000e-07	-5.057911e-06	-8.758551e-10	-3.506707e+01	-5.822596e+01
5.000000e-07	-5.038249e-06	-9.190594e-10	-3.493075e+01	-5.813508e+01
5.100000e-07	-5.018374e-06	-8.747232e-10	-3.479295e+01	-5.804158e+01
5.200000e-07	-4.998181e-06	-8.598015e-10	-3.465295e+01	-5.794544e+01
5.300000e-07	-4.977637e-06	-8.903559e-10	-3.451052e+01	-5.784666e+01
5.400000e-07	-4.956764e-06	-8.895311e-10	-3.436580e+01	-5.774525e+01
5.500000e-07	-4.935476e-06	-8.501476e-10	-3.421821e+01	-5.764119e+01
5.600000e-07	-4.913826e-06	-8.838537e-10	-3.406811e+01	-5.753451e+01
5.700000e-07	-4.891812e-06	-8.791573e-10	-3.391548e+01	-5.742519e+01
5.800000e-07	-4.869441e-06	-8.476787e-10	-3.376038e+01	-5.731327e+01
5.900000e-07	-4.846649e-06	-8.571679e-10	-3.360236e+01	-5.719874e+01
6.000000e-07	-4.823499e-06	-8.815269e-10	-3.344186e+01	-5.708164e+01
6.100000e-07	-4.800155e-06	-8.439598e-10	-3.328001e+01	-5.696199e+01
6.200000e-07	-4.776534e-06	-8.467757e-10	-3.311624e+01	-5.683981e+01
6.300000e-07	-4.752713e-06	-8.622121e-10	-3.295109e+01	-5.671516e+01
6.400000e-07	-4.728681e-06	-8.383148e-10	-3.278448e+01	-5.658806e+01
6.500000e-07	-4.704243e-06	-8.254239e-10	-3.261505e+01	-5.645857e+01
6.600000e-07	-4.679417e-06	-8.533361e-10	-3.244292e+01	-5.632675e+01
6.700000e-07	-4.654191e-06	-8.392178e-10	-3.226803e+01	-5.619266e+01
6.800000e-07	-4.628366e-06	-8.216344e-10	-3.208898e+01	-5.605636e+01
6.900000e-07	-4.601877e-06	-8.402919e-10	-3.190533e+01	-5.591793e+01
7.000000e-07	-4.574879e-06	-8.386497e-10	-3.171815e+01	-5.577746e+01
7.100000e-07	-4.547562e-06	-8.175989e-10	-3.152875e+01	-5.563503e+01
7.200000e-07	-4.520054e-06	-8.233225e-10	-3.133804e+01	-5.549074e+01
7.300000e-07	-4.492404e-06	-8.257105e-10	-3.114634e+01	-5.534468e+01
7.400000e-07	-4.464564e-06	-8.037653e-10	-3.095332e+01	-5.519697e+01
7.500000e-07	-4.436515e-06	-8.115855e-10	-3.075886e+01	-5.504769e+01
7.600000e-07	-4.408213e-06	-8.210064e-10	-3.056264e+01	-5.489698e+01
7.700000e-07	-4.379561e-06	-8.099626e-10	-3.036399e+01	-5.474494e+01
7.800000e-07	-4.350550e-06	-8.039677e-10	-3.016285e+01	-5.459170e+01
7.900000e-07	-4.321220e-06	-8.150516e-10	-2.995950e+01	-5.443735e+01
8.000000e-07	-4.291558e-06	-7.992228e-10	-2.975385e+01	-5.428203e+01
8.100000e-07	-4.261594e-06	-7.905755e-10	-2.954611e+01	-5.412585e+01
8.200000e-07	-4.231286e-06	-7.959619e-10	-2.933598e+01	-5.396891e+01
8.300000e-07	-4.200619e-06	-7.976525e-10	-2.912336e+01	-5.381133e+01
8.400000e-07	-4.169742e-06	-7.841179e-10	-2.890929e+01	-5.365321e+01
8.500000e-07	-4.138619e-06	-7.925734e-10	-2.869351e+01	-5.349464e+01
8.600000e-07	-4.107238e-06	-7.925444e-10	-2.847594e+01	-5.333572e+01
8.700000e-07	-4.075667e-06	-7.826973e-10	-2.825705e+01	-5.317651e+01
8.800000e-07	-4.043949e-06	-7.775410e-10	-2.803715e+01	-5.301709e+01
8.900000e-07	-4.012100e-06	-7.843306e-10	-2.781634e+01	-5.285750e+01
9.000000e-07	-3.980036e-06	-7.743347e-10	-2.759403e+01	-5.269780e+01
9.100000e-07	-3.947693e-06	-7.683548e-10	-2.736979e+01	-5.253801e+01
9.200000e-07	-3.914918e-06	-7.681792e-10	-2.714256e+01	-5.237813e+01
9.300000e-07	-3.881748e-06	-7.662623e-10	-2.691260e+01	-5.221816e+01
9.400000e-07	-3.848155e-06	-7.578625e-10	-2.667969e+01	-5.205808e+01
9.500000e-07	-3.814030e-06	-7.594047e-10	-2.644309e+01	-5.189784e+01
9.600000e-07	-3.779461e-06	-7.589000e-10	-2.620342e+01	-5.173739e+01
9.700000e-07	-3.744511e-06	-7.513881e-10	-2.596112e+01	-5.157663e+01
9.800000e-07	-3.709234e-06	-7.511224e-10	-2.571654e+01	-5.141547e+01
9.900000e-07	-3.673735e-06	-7.537977e-10	-2.547042e+01	-5.125378e+01
1.000000e-06	-3.638101e-06	-7.482122e-10	-2.522336e+01	-5.109142e+01
1.010000e-06	-3.602322e-06	-7.397362e-10	-2.497530e+01	-5.092823e+01
1.020000e-06	-3.566441e-06	-7.390506e-10	-2.472653e+01	-5.076402e+01
1.030000e-06	-3.530440e-06	-7.354916e-10	-2.447694e+01	-5.059859e+01
1.040000e-06	-3.494226e-06	-7.317517e-10	-2.422586e+01	-5.043171e+01
1.050000e-06	-3.457638e-06	-7.317837e-10	-2.397219e+01	-5.026314e+01
1.060000e-06	-3.420762e-06	-7.288133e-10	-2.371652e+01	-5.009263e+01
1.070000e-06	-3.383722e-06	-7.209813e-10	-2.345972e+01	-4.991991e+01
1.080000e-06	-3.346435e-06	-7.212954e-10	-2.320121e+01	-4.974467e+01
1.090000e-06	-3.308872e-06	-7.194808e-10	-2.294078e+01	-4.956664e+01
1.100000e-06	-3.270992e-06	-7.150443e-10	-2.267815e+01	-4.938548e+01
1.110000e-06	-3.232887e-06	-7.079292e-10	-2.241397e+01	-4.920087e+01
1.120000e-06	-3.194577e-06	-7.056504e-10	-2.214836e+01	-4.901250e+01
1.130000e-06	-3.155967e-06	-6.996719e-10	-2.188067e+01	-4.882002e+01
1.140000e-06	-3.117115e-06	-6.965812e-10	-2.161131e+01	-4.862309e+01
1.150000e-06	-3.078022e-06	-6.935285e-10	-2.134027e+01	-4.842138e+01
1.160000e-06	-3.038800e-06	-6.892905e-10	-2.106834e+01	-4.821454e+01
1.170000e-06	-2.999514e-06	-6.818680e-10	-2.079597e+01	-4.800223e+01
1.180000e-06	-2.960063e-06	-6.770653e-10	-2.052245e+01	-4.778413e+01
1.190000e-06	-2.920469e-06	-6.716380e-10	-2.024794e+01	-4.755991e+01
1.200000e-06	-2.880738e-06	-6.678277e-10	-1.997248e+01	-4.732924e+01
1.210000e-06	-2.840851e-06	-6.644905e-10	-1.969594e+01	-4.709184e+01
1.220000e-06	-2.800816e-06	-6.626049e-10	-1.941837e+01	-4.684740e+01
1.230000e-06	-2.760628e-06	-6.575113e-10	-1.913974e+01	-4.659565e+01
1.240000e-06	-2.720281e-06	-6.530306e-10	-1.886001e+01	-4.633633e+01
1.250000e-06	-2.679717e-06	-6.474678e-10	-1.857878e+01	-4.606918e+01
1.260000e-06	-2.638856e-06	-6.406700e-10	-1.829548e+01	-4.579400e+01
1.270000e-06	-2.597756e-06	-6.359695e-10	-1.801054e+01	-4.551057e+01
1.280000e-06	-2.556395e-06	-6.324994e-10	-1.772377e+01	-4.521872e+01
1.290000e-06	-2.514675e-06	-6.274761e-10	-1.743452e+01	-4.491827e+01
1.300000e-06	-2.472631e-06	-6.226013e-10	-1.714303e+01	-4.460909e+01
1.310000e-06	-2.430243e-06	-6.193549e-10	-1.684915e+01	-4.429106e+01
1.320000e-06	-2.387623e-06	-6.163249e-10	-1.655366e+01	-4.396409e+01
1.330000e-06	-2.344801e-06	-6.123860e-10	-1.625677e+01	-4.362810e+01
1.340000e-06	-2.301751e-06	-6.086338e-10	-1.595830e+01	-4.328303e+01
1.350000e-06	-2.258529e-06	-6.043102e-10	-1.565864e+01	-4.292887e+01
1.360000e-06	-2.215080e-06	-5.952083e-10	-1.535740e+01	-4.256558e+01
1.370000e-06	-2.171488e-06	-5.866921e-10	-1.505517e+01	-4.219318e+01
1.380000e-06	-2.127834e-06	-5.791019e-10	-1.475251e+01	-4.181169e+01
1.390000e-06	-2.084032e-06	-5.736310e-10	-1.444883e+01	-4.142114e+01
1.400000e-06	-2.040118e-06	-5.696349e-10	-1.414437e+01	-4.102158e+01
1.410000e-06	-1.996221e-06	-5.671639e-10	-1.384002e+01	-4.061308e+01
1.420000e-06	-1.952293e-06	-5.604299e-10	-1.353546e+01	-4.019569e+01
1.430000e-06	-1.908278e-06	-5.521953e-10	-1.323031e+01	-3.976950e+01
1.440000e-06	-1.864169e-06	-5.438770e-10	-1.292449e+01	-3.933459e+01
1.450000e-06	-1.819848e-06	-5.359458e-10	-1.261721e+01	-3.889103e+01
1.460000e-06	-1.775383e-06	-5.264426e-10	-1.230893e+01	-3.843890e+01
1.470000e-06	-1.730904e-06	-5.206655e-10	-1.200055e+01	-3.797828e+01
1.480000e-06	-1.686287e-06	-5.154629e-10	-1.169121e+01	-3.750924e+01
1.490000e-06	-1.641483e-06	-5.093131e-10	-1.138058e+01	-3.703184e+01
1.500000e-06	-1.596619e-06	-5.031310e-10	-1.106954e+01	-3.654614e+01
1.510000e-06	-1.551579e-06	-4.965719e-10	-1.075727e+01	-3.605217e+01
1.520000e-06	-1.506372e-06	-4.866035e-10	-1.044385e+01	-3.554995e+01
1.530000e-06	-1.461036e-06	-4.763710e-10	-1.012953e+01	-3.503950e+01
1.540000e-06	-1.415550e-06	-4.661552e-10	-9.814163e+00	-3.452080e+01
1.550000e-06	-1.369990e-06	-4.572378e-10	-9.498295e+00	-3.399382e+01
1.560000e-06	-1.324345e-06	-4.494511e-10	-9.181833e+00	-3.345850e+01
1.570000e-06	-1.278575e-06	-4.435665e-10	-8.864506e+00	-3.291477e+01
1.580000e-06	-1.232745e-06	-4.382672e-10	-8.546757e+00	-3.236254e+01
1.590000e-06	-1.186907e-06	-4.308264e-10	-8.228960e+00	-3.180167e+01
1.600000e-06	-1.141020e-06	-4.209258e-10	-7.910816e+00	-3.123203e+01
1.610000e-06	-1.095058e-06	-4.096352e-10	-7.592162e+00	-3.065344e+01
1.620000e-06	-1.048948e-06	-3.975443e-10	-7.272477e+00	-3.006572e+01
1.630000e-06	-1.002806e-06	-3.866202e-10	-6.952565e+00	-2.946864e+01
1.640000e-06	-9.566470e-07	-3.767734e-10	-6.632541e+00	-2.886198e+01
1.650000e-06	-9.103648e-07	-3.648658e-10	-6.311661e+00	-2.824547e+01
1.660000e-06	-8.639819e-07	-3.540217e-10	-5.990083e+00	-2.761886e+01
1.670000e-06	-8.174976e-07	-3.436478e-10	-5.667802e+00	-2.698185e+01
1.680000e-06	-7.708878e-07	-3.352867e-10	-5.344651e+00	-2.633415e+01
1.690000e-06	-7.242810e-07	-3.268110e-10	-5.021521e+00	-2.567545e+01
1.700000e-06	-6.776487e-07	-3.186366e-10	-4.698214e+00	-2.500542e+01
1.710000e-06	-6.309244e-07	-3.067410e-10	-4.374270e+00	-2.432376e+01
1.720000e-06	-5.842398e-07	-2.930805e-10	-4.050600e+00	-2.363015e+01
1.730000e-06	-5.374313e-07	-2.797113e-10	-3.726072e+00	-2.292426e+01
1.740000e-06	-4.905756e-07	-2.679478e-10	-3.401216e+00	-2.220580e+01
1.750000e-06	-4.437769e-07	-2.565489e-10	-3.076755e+00	-2.147446e+01
1.760000e-06	-3.969011e-07	-2.456588e-10	-2.751760e+00	-2.072996e+01
1.770000e-06	-3.499315e-07	-2.346226e-10	-2.426114e+00	-1.997204e+01
1.780000e-06	-3.029720e-07	-2.234944e-10	-2.100539e+00	-1.920046e+01
1.790000e-06	-2.560076e-07	-2.122590e-10	-1.774929e+00	-1.841501e+01
1.800000e-06	-2.089448e-07	-1.977033e-10	-1.448638e+00	-1.761551e+01
1.810000e-06	-1.619316e-07	-1.832131e-10	-1.122690e+00	-1.680180e+01
1.820000e-06	-1.149731e-07	-1.700805e-10	-7.971212e-01	-1.597379e+01
1.830000e-06	-6.800753e-08	-1.575070e-10	-4.715038e-01	-1.513139e+01
1.840000e-06	-2.106477e-08	-1.437935e-10	-1.460444e-01	-1.427460e+01
1.850000e-06	2.589155e-08	-1.319032e-10	1.795090e-01	-1.340344e+01
1.860000e-06	7.285671e-08	-1.217828e-10	5.051238e-01	-1.251799e+01
1.870000e-06	1.198025e-07	-1.084772e-10	8.306044e-01	-1.161837e+01
1.880000e-06	1.667191e-07	-9.577652e-11	1.155882e+00	-1.070477e+01
1.890000e-06	2.135874e-07	-8.398866e-11	1.480825e+00	-9.777431e+00
1.900000e-06	2.604930e-07	-7.099762e-11	1.806027e+00	-8.836652e+00
1.910000e-06	3.073958e-07	-5.734873e-11	2.131209e+00	-7.882788e+00
1.920000e-06	3.542916e-07	-4.307438e-11	2.456344e+00	-6.916258e+00
1.930000e-06	4.011777e-07	-3.013895e-11	2.781410e+00	-5.937533e+00
1.940000e-06	4.479614e-07	-1.769363e-11	3.105767e+00	-4.947148e+00
1.950000e-06	4.946748e-07	-6.970210e-12	3.429636e+00	-3.945691e+00
1.960000e-06	5.413642e-07	4.039203e-12	3.753339e+00	-2.933808e+00
1.970000e-06	5.880504e-07	1.714489e-11	4.077020e+00	-1.912198e+00
1.980000e-06	6.346993e-07	3.291908e-11	4.400441e+00	-8.816115e-01
1.990000e-06	6.812622e-07	5.114416e-11	4.723267e+00	1.571520e-01
2.000000e-06	7.277734e-07	6.746419e-11	5.045734e+00	1.203247e+00
2.010000e-06	7.742904e-07	8.136510e-11	5.368242e+00	2.255788e+00
2.020000e-06	8.207170e-07	9.246762e-11	5.690123e+00	3.313847e+00
2.030000e-06	8.670395e-07	1.028390e-10	6.011282e+00	4.376465e+00
2.040000e-06	9.132848e-07	1.159134e-10	6.331906e+00	5.442653e+00
2.050000e-06	9.594459e-07	1.307026e-10	6.651946e+00	6.511395e+00
2.060000e-06	1.005616e-06	1.465848e-10	6.972045e+00	7.581657e+00
2.070000e-06	1.051796e-06	1.630666e-10	7.292223e+00	8.652388e+00
2.080000e-06	1.097872e-06	1.793139e-10	7.611671e+00	9.722529e+00
2.090000e-06	1.143814e-06	1.932277e-10	7.930188e+00	1.079101e+01
2.100000e-06	1.189688e-06	2.058444e-10	8.248241e+00	1.185678e+01
2.110000e-06	1.235384e-06	2.194907e-10	8.565054e+00	1.291877e+01
2.120000e-06	1.280903e-06	2.344507e-10	8.880646e+00	1.397593e+01
2.130000e-06	1.326435e-06	2.507853e-10	9.196325e+00	1.502724e+01
2.140000e-06	1.371939e-06	2.659771e-10	9.511806e+00	1.607169e+01
2.150000e-06	1.417315e-06	2.791942e-10	9.826407e+00	1.710830e+01
2.160000e-06	1.462581e-06	2.909967e-10	1.014024e+01	1.813611e+01
2.170000e-06	1.507793e-06	3.037258e-10	1.045370e+01	1.915422e+01
2.180000e-06	1.552831e-06	3.174500e-10	1.076595e+01	2.016174e+01
2.190000e-06	1.597728e-06	3.296616e-10	1.107723e+01	2.115786e+01
2.200000e-06	1.642666e-06	3.402576e-10	1.138879e+01	2.214178e+01
2.210000e-06	1.687417e-06	3.515237e-10	1.169905e+01	2.311277e+01
2.220000e-06	1.731947e-06	3.659192e-10	1.200778e+01	2.407017e+01
2.230000e-06	1.776392e-06	3.800521e-10	1.231592e+01	2.501333e+01
2.240000e-06	1.820673e-06	3.919901e-10	1.262293e+01	2.594171e+01
2.250000e-06	1.864783e-06	4.032365e-10	1.292875e+01	2.685480e+01
2.260000e-06	1.908759e-06	4.140898e-10	1.323364e+01	2.775214e+01
2.270000e-06	1.952669e-06	4.253103e-10	1.353807e+01	2.863337e+01
2.280000e-06	1.996555e-06	4.360455e-10	1.384234e+01	2.949815e+01
2.290000e-06	2.040385e-06	4.462760e-10	1.414622e+01	3.034623e+01
2.300000e-06	2.084194e-06	4.565113e-10	1.444995e+01	3.117740e+01
2.310000e-06	2.127990e-06	4.676885e-10	1.475359e+01	3.199153e+01
2.320000e-06	2.171649e-06	4.788385e-10	1.505629e+01	3.278853e+01
2.330000e-06	2.215173e-06	4.885058e-10	1.535805e+01	3.356837e+01
2.340000e-06	2.258668e-06	4.977970e-10	1.565960e+01	3.433107e+01
2.350000e-06	2.301983e-06	5.069933e-10	1.595991e+01	3.507672e+01
2.360000e-06	2.345025e-06	5.149832e-10	1.625832e+01	3.580543e+01
2.370000e-06	2.387888e-06	5.242124e-10	1.655550e+01	3.651737e+01
2.380000e-06	2.430461e-06	5.351977e-10	1.685066e+01	3.721276e+01
2.390000e-06	2.472673e-06	5.462395e-10	1.714332e+01	3.789183e+01
2.400000e-06	2.514758e-06	5.561449e-10	1.743510e+01	3.855487e+01
2.410000e-06	2.556582e-06	5.637262e-10	1.772507e+01	3.920218e+01
2.420000e-06	2.597976e-06	5.728567e-10	1.801206e+01	3.983411e+01
2.430000e-06	2.638953e-06	5.830115e-10	1.829616e+01	4.045099e+01
2.440000e-06	2.679555e-06	5.934364e-10	1.857766e+01	4.105321e+01
2.450000e-06	2.719982e-06	6.056173e-10	1.885794e+01	4.164116e+01
2.460000e-06	2.760276e-06	6.168979e-10	1.913730e+01	4.221522e+01
2.470000e-06	2.800430e-06	6.258248e-10	1.941569e+01	4.277579e+01
2.480000e-06	2.840455e-06	6.335333e-10	1.969319e+01	4.332328e+01
2.490000e-06	2.880327e-06	6.403431e-10	1.996963e+01	4.385808e+01
2.500000e-06	2.920022e-06	6.475636e-10	2.024484e+01	4.438058e+01
2.510000e-06	2.959602e-06	6.559417e-10	2.051925e+01	4.489117e+01
2.520000e-06	2.999048e-06	6.633883e-10	2.079273e+01	4.539021e+01
2.530000e-06	3.038303e-06	6.713890e-10	2.106490e+01	4.587806e+01
2.540000e-06	3.077325e-06	6.808935e-10	2.133544e+01	4.635506e+01
2.550000e-06	3.116051e-06	6.872117e-10	2.160393e+01	4.682151e+01
2.560000e-06	3.154634e-06	6.900738e-10	2.187143e+01	4.727772e+01
2.570000e-06	3.193021e-06	6.935156e-10	2.213757e+01	4.772397e+01
2.580000e-06	3.231072e-06	6.981175e-10	2.240139e+01	4.816048e+01
2.590000e-06	3.268890e-06	7.029368e-10	2.266358e+01	4.858750e+01
2.600000e-06	3.306512e-06	7.092054e-10	2.292442e+01	4.900522e+01
2.610000e-06	3.343967e-06	7.159476e-10	2.318410e+01	4.941380e+01
2.620000e-06	3.381250e-06	7.240206e-10	2.344259e+01	4.981340e+01
2.630000e-06	3.418261e-06	7.319854e-10	2.369919e+01	5.020414e+01
2.640000e-06	3.455014e-06	7.373541e-10	2.395400e+01	5.058611e+01
2.650000e-06	3.491500e-06	7.411209e-10	2.420696e+01	5.095939e+01
2.660000e-06	3.527765e-06	7.452721e-10	2.445839e+01	5.132403e+01
2.670000e-06	3.563856e-06	7.499254e-10	2.470861e+01	5.168006e+01
2.680000e-06	3.599761e-06	7.539052e-10	2.495755e+01	5.202750e+01
2.690000e-06	3.635502e-06	7.589147e-10	2.520534e+01	5.236633e+01
2.700000e-06	3.671068e-06	7.655178e-10	2.545192e+01	5.269655e+01
2.710000e-06	3.706480e-06	7.720074e-10	2.569744e+01	5.301812e+01
2.720000e-06	3.741695e-06	7.764069e-10	2.594159e+01	5.333101e+01
2.730000e-06	3.776622e-06	7.818081e-10	2.618374e+01	5.363515e+01
2.740000e-06	3.811097e-06	7.870405e-10	2.642276e+01	5.393051e+01
2.750000e-06	3.845112e-06	7.898035e-10	2.665859e+01	5.421703e+01
2.760000e-06	3.878691e-06	7.920487e-10	2.689140e+01	5.449465e+01
2.770000e-06	3.911799e-06	7.954940e-10	2.712094e+01	5.476331e+01
2.780000e-06	3.944551e-06	7.991652e-10	2.734801e+01	5.502298e+01
2.790000e-06	3.976961e-06	8.024933e-10	2.757272e+01	5.527360e+01
2.800000e-06	4.009072e-06	8.068796e-10	2.779534e+01	5.551515e+01
2.810000e-06	4.040987e-06	8.100711e-10	2.801662e+01	5.574761e+01
2.820000e-06	4.072741e-06	8.114737e-10	2.823677e+01	5.597096e+01
2.830000e-06	4.104338e-06	8.142000e-10	2.845584e+01	5.618522e+01
2.840000e-06	4.135714e-06	8.161266e-10	2.867337e+01	5.639041e+01
2.850000e-06	4.166806e-06	8.152937e-10	2.888893e+01	5.658656e+01
2.860000e-06	4.197583e-06	8.175709e-10	2.910231e+01	5.677374e+01
2.870000e-06	4.228055e-06	8.229612e-10	2.931358e+01	5.695203e+01
2.880000e-06	4.258254e-06	8.263105e-10	2.952295e+01	5.712151e+01
2.890000e-06	4.288224e-06	8.294018e-10	2.973074e+01	5.728232e+01
2.900000e-06	4.317922e-06	8.326006e-10	2.993664e+01	5.743459e+01
