# Temperatura_=_-0.27
# Concentracion g/m^3_=_1620.0
# C_Vs_to_Am_M_A/Vsm_=_65563218390.804596
# pendiente_HvsI_1/m_=_3716.3
# ordenada_HvsI_A/m_=_1297.0
# frecuencia_Hz_=_135108.3073373738

Tiempo_(s)	Campo_(V.s)	Magnetizacion_(V.s)	Campo_(kA/m)	Magnetizacion_(A/m)
0.000000e+00	-5.523045e-06	-1.099778e-09	-3.835859e+01	-7.189380e+01
1.000000e-08	-5.523342e-06	-1.097933e-09	-3.836065e+01	-7.188804e+01
2.000000e-08	-5.523349e-06	-1.097175e-09	-3.836070e+01	-7.188142e+01
3.000000e-08	-5.522898e-06	-1.096290e-09	-3.835757e+01	-7.187391e+01
4.000000e-08	-5.521910e-06	-1.092064e-09	-3.835071e+01	-7.186547e+01
5.000000e-08	-5.520282e-06	-1.085968e-09	-3.833940e+01	-7.185606e+01
6.000000e-08	-5.518053e-06	-1.069304e-09	-3.832392e+01	-7.184559e+01
7.000000e-08	-5.515300e-06	-1.054584e-09	-3.830480e+01	-7.183402e+01
8.000000e-08	-5.512036e-06	-1.113825e-09	-3.828213e+01	-7.182126e+01
9.000000e-08	-5.508280e-06	-1.187017e-09	-3.825604e+01	-7.180723e+01
1.000000e-07	-5.504046e-06	-1.081124e-09	-3.822663e+01	-7.179184e+01
1.100000e-07	-5.499559e-06	-9.234657e-10	-3.819547e+01	-7.177498e+01
1.200000e-07	-5.495018e-06	-9.912230e-10	-3.816394e+01	-7.175658e+01
1.300000e-07	-5.490149e-06	-1.185363e-09	-3.813012e+01	-7.173651e+01
1.400000e-07	-5.484759e-06	-1.181280e-09	-3.809268e+01	-7.171468e+01
1.500000e-07	-5.479041e-06	-9.576511e-10	-3.805297e+01	-7.169099e+01
1.600000e-07	-5.473095e-06	-9.827971e-10	-3.801167e+01	-7.166533e+01
1.700000e-07	-5.466718e-06	-1.149529e-09	-3.796739e+01	-7.163760e+01
1.800000e-07	-5.459749e-06	-1.176277e-09	-3.791898e+01	-7.160770e+01
1.900000e-07	-5.452388e-06	-9.798800e-10	-3.786786e+01	-7.157554e+01
2.000000e-07	-5.444876e-06	-9.719195e-10	-3.781569e+01	-7.154102e+01
2.100000e-07	-5.437127e-06	-1.134494e-09	-3.776187e+01	-7.150406e+01
2.200000e-07	-5.429083e-06	-1.201037e-09	-3.770600e+01	-7.146458e+01
2.300000e-07	-5.420741e-06	-1.091719e-09	-3.764806e+01	-7.142251e+01
2.400000e-07	-5.411916e-06	-1.045603e-09	-3.758677e+01	-7.137778e+01
2.500000e-07	-5.402267e-06	-1.140264e-09	-3.751976e+01	-7.133034e+01
2.600000e-07	-5.391884e-06	-1.177004e-09	-3.744765e+01	-7.128013e+01
2.700000e-07	-5.381132e-06	-1.122628e-09	-3.737297e+01	-7.122710e+01
2.800000e-07	-5.369936e-06	-1.084384e-09	-3.729522e+01	-7.117123e+01
2.900000e-07	-5.358289e-06	-1.156397e-09	-3.721432e+01	-7.111249e+01
3.000000e-07	-5.346279e-06	-1.164701e-09	-3.713091e+01	-7.105085e+01
3.100000e-07	-5.333879e-06	-1.118904e-09	-3.704479e+01	-7.098632e+01
3.200000e-07	-5.321003e-06	-1.073208e-09	-3.695537e+01	-7.091887e+01
3.300000e-07	-5.307763e-06	-1.148126e-09	-3.686341e+01	-7.084851e+01
3.400000e-07	-5.294254e-06	-1.146340e-09	-3.676959e+01	-7.077526e+01
3.500000e-07	-5.280262e-06	-1.086343e-09	-3.667241e+01	-7.069912e+01
3.600000e-07	-5.265612e-06	-1.073585e-09	-3.657066e+01	-7.062011e+01
3.700000e-07	-5.250631e-06	-1.155062e-09	-3.646662e+01	-7.053827e+01
3.800000e-07	-5.235228e-06	-1.106451e-09	-3.635964e+01	-7.045360e+01
3.900000e-07	-5.219112e-06	-1.060949e-09	-3.624771e+01	-7.036615e+01
4.000000e-07	-5.202613e-06	-1.133391e-09	-3.613312e+01	-7.027595e+01
4.100000e-07	-5.185938e-06	-1.149541e-09	-3.601731e+01	-7.018303e+01
4.200000e-07	-5.168871e-06	-1.024538e-09	-3.589878e+01	-7.008742e+01
4.300000e-07	-5.151415e-06	-1.064609e-09	-3.577754e+01	-6.998917e+01
4.400000e-07	-5.133689e-06	-1.178231e-09	-3.565444e+01	-6.988830e+01
4.500000e-07	-5.115454e-06	-1.081341e-09	-3.552779e+01	-6.978486e+01
4.600000e-07	-5.096689e-06	-9.924583e-10	-3.539746e+01	-6.967887e+01
4.700000e-07	-5.077656e-06	-1.116421e-09	-3.526527e+01	-6.957036e+01
4.800000e-07	-5.058448e-06	-1.134074e-09	-3.513187e+01	-6.945938e+01
4.900000e-07	-5.038984e-06	-1.014550e-09	-3.499669e+01	-6.934593e+01
5.000000e-07	-5.019278e-06	-1.069540e-09	-3.485983e+01	-6.923006e+01
5.100000e-07	-4.999304e-06	-1.129700e-09	-3.472110e+01	-6.911178e+01
5.200000e-07	-4.978972e-06	-1.027192e-09	-3.457990e+01	-6.899111e+01
5.300000e-07	-4.958308e-06	-1.030690e-09	-3.443638e+01	-6.886806e+01
5.400000e-07	-4.937287e-06	-1.144373e-09	-3.429039e+01	-6.874266e+01
5.500000e-07	-4.915895e-06	-1.062781e-09	-3.414182e+01	-6.861492e+01
5.600000e-07	-4.894162e-06	-9.896809e-10	-3.399087e+01	-6.848484e+01
5.700000e-07	-4.872166e-06	-1.085566e-09	-3.383811e+01	-6.835243e+01
5.800000e-07	-4.849777e-06	-1.100806e-09	-3.368262e+01	-6.821771e+01
5.900000e-07	-4.826902e-06	-1.007780e-09	-3.352374e+01	-6.808067e+01
6.000000e-07	-4.803776e-06	-1.055974e-09	-3.336313e+01	-6.794133e+01
6.100000e-07	-4.780510e-06	-1.098457e-09	-3.320154e+01	-6.779969e+01
6.200000e-07	-4.756995e-06	-1.031562e-09	-3.303823e+01	-6.765576e+01
6.300000e-07	-4.733162e-06	-1.018146e-09	-3.287270e+01	-6.750954e+01
6.400000e-07	-4.709007e-06	-1.071402e-09	-3.270494e+01	-6.736105e+01
6.500000e-07	-4.684423e-06	-1.034155e-09	-3.253420e+01	-6.721030e+01
6.600000e-07	-4.659395e-06	-1.013953e-09	-3.236037e+01	-6.705730e+01
6.700000e-07	-4.633880e-06	-1.049429e-09	-3.218317e+01	-6.690208e+01
6.800000e-07	-4.607843e-06	-1.042393e-09	-3.200234e+01	-6.674464e+01
6.900000e-07	-4.581256e-06	-1.011695e-09	-3.181768e+01	-6.658501e+01
7.000000e-07	-4.554284e-06	-1.038105e-09	-3.163036e+01	-6.642323e+01
7.100000e-07	-4.527040e-06	-1.040972e-09	-3.144114e+01	-6.625932e+01
7.200000e-07	-4.499520e-06	-1.014886e-09	-3.125002e+01	-6.609332e+01
7.300000e-07	-4.471866e-06	-1.018196e-09	-3.105795e+01	-6.592526e+01
7.400000e-07	-4.444116e-06	-1.029545e-09	-3.086522e+01	-6.575520e+01
7.500000e-07	-4.416074e-06	-1.014016e-09	-3.067046e+01	-6.558317e+01
7.600000e-07	-4.387627e-06	-1.010662e-09	-3.047289e+01	-6.540923e+01
7.700000e-07	-4.358768e-06	-1.016064e-09	-3.027247e+01	-6.523342e+01
7.800000e-07	-4.329498e-06	-1.004694e-09	-3.006918e+01	-6.505580e+01
7.900000e-07	-4.300044e-06	-1.005029e-09	-2.986461e+01	-6.487643e+01
8.000000e-07	-4.270453e-06	-1.012838e-09	-2.965910e+01	-6.469535e+01
8.100000e-07	-4.240523e-06	-9.992079e-10	-2.945123e+01	-6.451262e+01
8.200000e-07	-4.210186e-06	-9.864924e-10	-2.924053e+01	-6.432829e+01
8.300000e-07	-4.179516e-06	-9.983002e-10	-2.902752e+01	-6.414240e+01
8.400000e-07	-4.148600e-06	-9.915028e-10	-2.881281e+01	-6.395502e+01
8.500000e-07	-4.117487e-06	-9.788734e-10	-2.859672e+01	-6.376616e+01
8.600000e-07	-4.086171e-06	-9.832992e-10	-2.837922e+01	-6.357587e+01
8.700000e-07	-4.054680e-06	-9.872001e-10	-2.816051e+01	-6.338418e+01
8.800000e-07	-4.023065e-06	-9.696755e-10	-2.794094e+01	-6.319110e+01
8.900000e-07	-3.991266e-06	-9.693676e-10	-2.772009e+01	-6.299663e+01
9.000000e-07	-3.959155e-06	-9.707183e-10	-2.749708e+01	-6.280078e+01
9.100000e-07	-3.926658e-06	-9.569331e-10	-2.727138e+01	-6.260353e+01
9.200000e-07	-3.893757e-06	-9.492727e-10	-2.704287e+01	-6.240485e+01
9.300000e-07	-3.860427e-06	-9.640202e-10	-2.681139e+01	-6.220470e+01
9.400000e-07	-3.826695e-06	-9.584299e-10	-2.657711e+01	-6.200303e+01
9.500000e-07	-3.792532e-06	-9.474947e-10	-2.633985e+01	-6.179975e+01
9.600000e-07	-3.757924e-06	-9.509737e-10	-2.609949e+01	-6.159479e+01
9.700000e-07	-3.723005e-06	-9.515164e-10	-2.585697e+01	-6.138803e+01
9.800000e-07	-3.687772e-06	-9.343234e-10	-2.561227e+01	-6.117935e+01
9.900000e-07	-3.652328e-06	-9.323889e-10	-2.536611e+01	-6.096861e+01
1.000000e-06	-3.616766e-06	-9.380149e-10	-2.511912e+01	-6.075567e+01
1.010000e-06	-3.581009e-06	-9.309853e-10	-2.487078e+01	-6.054033e+01
1.020000e-06	-3.545069e-06	-9.255791e-10	-2.462117e+01	-6.032242e+01
1.030000e-06	-3.508955e-06	-9.302435e-10	-2.437036e+01	-6.010172e+01
1.040000e-06	-3.472626e-06	-9.229190e-10	-2.411804e+01	-5.987802e+01
1.050000e-06	-3.436036e-06	-9.083069e-10	-2.386392e+01	-5.965107e+01
1.060000e-06	-3.399212e-06	-9.041896e-10	-2.360817e+01	-5.942064e+01
1.070000e-06	-3.362048e-06	-9.001645e-10	-2.335006e+01	-5.918645e+01
1.080000e-06	-3.324569e-06	-8.920866e-10	-2.308976e+01	-5.894823e+01
1.090000e-06	-3.286932e-06	-8.920573e-10	-2.282836e+01	-5.870570e+01
1.100000e-06	-3.249126e-06	-8.955585e-10	-2.256579e+01	-5.845858e+01
1.110000e-06	-3.211091e-06	-8.875037e-10	-2.230163e+01	-5.820656e+01
1.120000e-06	-3.172811e-06	-8.800897e-10	-2.203577e+01	-5.794935e+01
1.130000e-06	-3.134323e-06	-8.771225e-10	-2.176846e+01	-5.768664e+01
1.140000e-06	-3.095638e-06	-8.695572e-10	-2.149979e+01	-5.741814e+01
1.150000e-06	-3.056729e-06	-8.573612e-10	-2.122956e+01	-5.714353e+01
1.160000e-06	-3.017645e-06	-8.546418e-10	-2.095811e+01	-5.686253e+01
1.170000e-06	-2.978470e-06	-8.528574e-10	-2.068603e+01	-5.657483e+01
1.180000e-06	-2.939112e-06	-8.506235e-10	-2.041268e+01	-5.628016e+01
1.190000e-06	-2.899557e-06	-8.485361e-10	-2.013797e+01	-5.597824e+01
1.200000e-06	-2.859879e-06	-8.465169e-10	-1.986240e+01	-5.566881e+01
1.210000e-06	-2.820079e-06	-8.372173e-10	-1.958598e+01	-5.535161e+01
1.220000e-06	-2.780112e-06	-8.288708e-10	-1.930840e+01	-5.502640e+01
1.230000e-06	-2.739945e-06	-8.227465e-10	-1.902944e+01	-5.469297e+01
1.240000e-06	-2.699566e-06	-8.163242e-10	-1.874899e+01	-5.435110e+01
1.250000e-06	-2.659016e-06	-8.069930e-10	-1.846737e+01	-5.400060e+01
1.260000e-06	-2.618264e-06	-8.049299e-10	-1.818433e+01	-5.364131e+01
1.270000e-06	-2.577124e-06	-8.045126e-10	-1.789861e+01	-5.327307e+01
1.280000e-06	-2.535640e-06	-7.999208e-10	-1.761050e+01	-5.289575e+01
1.290000e-06	-2.493913e-06	-7.925107e-10	-1.732070e+01	-5.250923e+01
1.300000e-06	-2.451937e-06	-7.856125e-10	-1.702917e+01	-5.211342e+01
1.310000e-06	-2.409681e-06	-7.771702e-10	-1.673569e+01	-5.170823e+01
1.320000e-06	-2.367147e-06	-7.678220e-10	-1.644028e+01	-5.129361e+01
1.330000e-06	-2.324323e-06	-7.639341e-10	-1.614286e+01	-5.086951e+01
1.340000e-06	-2.281176e-06	-7.605367e-10	-1.584320e+01	-5.043591e+01
1.350000e-06	-2.237857e-06	-7.522828e-10	-1.554234e+01	-4.999278e+01
1.360000e-06	-2.194474e-06	-7.414305e-10	-1.524103e+01	-4.954012e+01
1.370000e-06	-2.150978e-06	-7.332697e-10	-1.493895e+01	-4.907794e+01
1.380000e-06	-2.107355e-06	-7.266979e-10	-1.463598e+01	-4.860626e+01
1.390000e-06	-2.063659e-06	-7.215531e-10	-1.433250e+01	-4.812509e+01
1.400000e-06	-2.019879e-06	-7.165059e-10	-1.402844e+01	-4.763447e+01
1.410000e-06	-1.976029e-06	-7.099165e-10	-1.372389e+01	-4.713440e+01
1.420000e-06	-1.932112e-06	-7.011150e-10	-1.341888e+01	-4.662493e+01
1.430000e-06	-1.888041e-06	-6.941968e-10	-1.311280e+01	-4.610606e+01
1.440000e-06	-1.843867e-06	-6.863472e-10	-1.280601e+01	-4.557781e+01
1.450000e-06	-1.799656e-06	-6.739635e-10	-1.249895e+01	-4.504019e+01
1.460000e-06	-1.755261e-06	-6.605242e-10	-1.219062e+01	-4.449319e+01
1.470000e-06	-1.710659e-06	-6.513979e-10	-1.188085e+01	-4.393678e+01
1.480000e-06	-1.665991e-06	-6.399231e-10	-1.157062e+01	-4.337094e+01
1.490000e-06	-1.621192e-06	-6.269449e-10	-1.125948e+01	-4.279559e+01
1.500000e-06	-1.576163e-06	-6.161980e-10	-1.094675e+01	-4.221068e+01
1.510000e-06	-1.530932e-06	-6.069328e-10	-1.063261e+01	-4.161609e+01
1.520000e-06	-1.485612e-06	-5.967207e-10	-1.031785e+01	-4.101171e+01
1.530000e-06	-1.440256e-06	-5.837366e-10	-1.000285e+01	-4.039738e+01
1.540000e-06	-1.394817e-06	-5.684837e-10	-9.687267e+00	-3.977294e+01
1.550000e-06	-1.349339e-06	-5.532390e-10	-9.371410e+00	-3.913819e+01
1.560000e-06	-1.303820e-06	-5.389034e-10	-9.055275e+00	-3.849289e+01
1.570000e-06	-1.258172e-06	-5.260308e-10	-8.738240e+00	-3.783679e+01
1.580000e-06	-1.212450e-06	-5.136951e-10	-8.420695e+00	-3.716963e+01
1.590000e-06	-1.166674e-06	-5.028784e-10	-8.102774e+00	-3.649108e+01
1.600000e-06	-1.120798e-06	-4.927765e-10	-7.784150e+00	-3.580083e+01
1.610000e-06	-1.074771e-06	-4.810579e-10	-7.464484e+00	-3.509852e+01
1.620000e-06	-1.028659e-06	-4.686970e-10	-7.144230e+00	-3.438378e+01
1.630000e-06	-9.825086e-07	-4.547361e-10	-6.823707e+00	-3.365623e+01
1.640000e-06	-9.362310e-07	-4.380083e-10	-6.502300e+00	-3.291545e+01
1.650000e-06	-8.899713e-07	-4.223941e-10	-6.181018e+00	-3.216104e+01
1.660000e-06	-8.436718e-07	-4.090467e-10	-5.859459e+00	-3.139257e+01
1.670000e-06	-7.971911e-07	-3.963127e-10	-5.536642e+00	-3.060961e+01
1.680000e-06	-7.506532e-07	-3.840179e-10	-5.213428e+00	-2.981173e+01
1.690000e-06	-7.041564e-07	-3.754125e-10	-4.890498e+00	-2.899851e+01
1.700000e-06	-6.576804e-07	-3.668345e-10	-4.567714e+00	-2.816953e+01
1.710000e-06	-6.112071e-07	-3.549632e-10	-4.244949e+00	-2.732439e+01
1.720000e-06	-5.646723e-07	-3.422625e-10	-3.921756e+00	-2.646270e+01
1.730000e-06	-5.180533e-07	-3.280372e-10	-3.597978e+00	-2.558409e+01
1.740000e-06	-4.714001e-07	-3.114480e-10	-3.273962e+00	-2.468823e+01
1.750000e-06	-4.247020e-07	-2.938825e-10	-2.949635e+00	-2.377482e+01
1.760000e-06	-3.779626e-07	-2.778147e-10	-2.625021e+00	-2.284359e+01
1.770000e-06	-3.311209e-07	-2.640890e-10	-2.299697e+00	-2.189431e+01
1.780000e-06	-2.842608e-07	-2.546652e-10	-1.974245e+00	-2.092682e+01
1.790000e-06	-2.374341e-07	-2.432763e-10	-1.649024e+00	-1.994098e+01
1.800000e-06	-1.905568e-07	-2.275904e-10	-1.323453e+00	-1.893672e+01
1.810000e-06	-1.436420e-07	-2.102607e-10	-9.976207e-01	-1.791404e+01
1.820000e-06	-9.675559e-08	-1.929890e-10	-6.719858e-01	-1.687299e+01
1.830000e-06	-4.994050e-08	-1.765316e-10	-3.468461e-01	-1.581369e+01
1.840000e-06	-3.160650e-09	-1.619083e-10	-2.195131e-02	-1.473633e+01
1.850000e-06	4.372064e-08	-1.497572e-10	3.036480e-01	-1.364117e+01
1.860000e-06	9.061048e-08	-1.370552e-10	6.293068e-01	-1.252854e+01
1.870000e-06	1.374254e-07	-1.216729e-10	9.544452e-01	-1.139886e+01
1.880000e-06	1.842425e-07	-1.046325e-10	1.279599e+00	-1.025260e+01
1.890000e-06	2.310773e-07	-8.640770e-11	1.604875e+00	-9.090331e+00
1.900000e-06	2.779349e-07	-6.850478e-11	1.930310e+00	-7.912692e+00
1.910000e-06	3.247037e-07	-5.144342e-11	2.255128e+00	-6.720393e+00
1.920000e-06	3.714224e-07	-3.747374e-11	2.579598e+00	-5.514221e+00
1.930000e-06	4.181108e-07	-2.354786e-11	2.903858e+00	-4.295035e+00
1.940000e-06	4.646790e-07	-9.319865e-12	3.227283e+00	-3.063762e+00
1.950000e-06	5.112593e-07	4.375506e-12	3.550792e+00	-1.821396e+00
1.960000e-06	5.578427e-07	2.016044e-11	3.874323e+00	-5.689943e-01
1.970000e-06	6.043702e-07	3.818301e-11	4.197465e+00	6.923280e-01
1.980000e-06	6.508782e-07	5.718048e-11	4.520472e+00	1.961402e+00
1.990000e-06	6.973419e-07	7.687611e-11	4.843171e+00	3.237008e+00
2.000000e-06	7.437424e-07	9.844204e-11	5.165431e+00	4.517885e+00
2.010000e-06	7.900854e-07	1.184497e-10	5.487292e+00	5.802734e+00
2.020000e-06	8.363778e-07	1.346282e-10	5.808801e+00	7.090224e+00
2.030000e-06	8.826301e-07	1.498394e-10	6.130032e+00	8.378997e+00
2.040000e-06	9.288217e-07	1.657500e-10	6.450841e+00	9.667681e+00
2.050000e-06	9.749455e-07	1.831879e-10	6.771180e+00	1.095489e+01
2.060000e-06	1.021015e-06	2.025584e-10	7.091139e+00	1.223923e+01
2.070000e-06	1.067004e-06	2.240313e-10	7.410546e+00	1.351931e+01
2.080000e-06	1.112881e-06	2.466562e-10	7.729170e+00	1.479376e+01
2.090000e-06	1.158667e-06	2.666396e-10	8.047163e+00	1.606122e+01
2.100000e-06	1.204397e-06	2.838955e-10	8.364761e+00	1.732034e+01
2.110000e-06	1.250010e-06	2.984900e-10	8.681554e+00	1.856982e+01
2.120000e-06	1.295579e-06	3.129367e-10	8.998039e+00	1.980838e+01
2.130000e-06	1.341123e-06	3.281409e-10	9.314349e+00	2.103480e+01
2.140000e-06	1.386573e-06	3.442302e-10	9.630012e+00	2.224790e+01
2.150000e-06	1.431943e-06	3.608444e-10	9.945112e+00	2.344656e+01
2.160000e-06	1.477202e-06	3.797184e-10	1.025944e+01	2.462970e+01
2.170000e-06	1.522329e-06	4.000997e-10	1.057286e+01	2.579633e+01
2.180000e-06	1.567363e-06	4.171324e-10	1.088563e+01	2.694552e+01
2.190000e-06	1.612259e-06	4.304327e-10	1.119744e+01	2.807640e+01
2.200000e-06	1.656993e-06	4.421811e-10	1.150813e+01	2.918820e+01
2.210000e-06	1.701542e-06	4.546198e-10	1.181753e+01	3.028022e+01
2.220000e-06	1.745893e-06	4.700159e-10	1.212555e+01	3.135182e+01
2.230000e-06	1.790063e-06	4.858424e-10	1.243233e+01	3.240246e+01
2.240000e-06	1.834119e-06	5.007551e-10	1.273830e+01	3.343170e+01
2.250000e-06	1.878172e-06	5.153765e-10	1.304426e+01	3.443914e+01
2.260000e-06	1.922162e-06	5.284335e-10	1.334978e+01	3.542450e+01
2.270000e-06	1.966083e-06	5.412227e-10	1.365482e+01	3.638757e+01
2.280000e-06	2.009943e-06	5.519415e-10	1.395943e+01	3.732822e+01
2.290000e-06	2.053706e-06	5.613943e-10	1.426337e+01	3.824639e+01
2.300000e-06	2.097423e-06	5.718899e-10	1.456700e+01	3.914211e+01
2.310000e-06	2.141075e-06	5.837616e-10	1.487017e+01	4.001548e+01
2.320000e-06	2.184666e-06	5.972630e-10	1.517291e+01	4.086666e+01
2.330000e-06	2.228156e-06	6.098504e-10	1.547496e+01	4.169588e+01
2.340000e-06	2.271446e-06	6.204951e-10	1.577562e+01	4.250344e+01
2.350000e-06	2.314550e-06	6.293791e-10	1.607499e+01	4.328968e+01
2.360000e-06	2.357477e-06	6.380070e-10	1.637312e+01	4.405501e+01
2.370000e-06	2.400221e-06	6.472576e-10	1.666998e+01	4.479987e+01
2.380000e-06	2.442661e-06	6.587999e-10	1.696474e+01	4.552475e+01
2.390000e-06	2.484658e-06	6.732649e-10	1.725642e+01	4.623018e+01
2.400000e-06	2.526347e-06	6.867729e-10	1.754596e+01	4.691670e+01
2.410000e-06	2.567615e-06	6.990187e-10	1.783257e+01	4.758491e+01
2.420000e-06	2.608452e-06	7.087833e-10	1.811619e+01	4.823538e+01
2.430000e-06	2.649199e-06	7.144610e-10	1.839918e+01	4.886874e+01
2.440000e-06	2.689811e-06	7.201294e-10	1.868124e+01	4.948560e+01
2.450000e-06	2.730138e-06	7.296525e-10	1.896132e+01	5.008659e+01
2.460000e-06	2.770278e-06	7.431187e-10	1.924010e+01	5.067231e+01
2.470000e-06	2.810291e-06	7.566826e-10	1.951800e+01	5.124339e+01
2.480000e-06	2.850133e-06	7.678639e-10	1.979471e+01	5.180041e+01
2.490000e-06	2.889843e-06	7.758191e-10	2.007050e+01	5.234397e+01
2.500000e-06	2.929461e-06	7.816009e-10	2.034566e+01	5.287463e+01
2.510000e-06	2.968911e-06	7.841749e-10	2.061965e+01	5.339292e+01
2.520000e-06	3.008240e-06	7.864555e-10	2.089279e+01	5.389937e+01
2.530000e-06	3.047400e-06	7.932538e-10	2.116477e+01	5.439445e+01
2.540000e-06	3.086232e-06	8.024756e-10	2.143446e+01	5.487862e+01
2.550000e-06	3.124777e-06	8.117424e-10	2.170217e+01	5.535231e+01
2.560000e-06	3.163125e-06	8.209929e-10	2.196850e+01	5.581589e+01
2.570000e-06	3.201281e-06	8.303025e-10	2.223350e+01	5.626973e+01
2.580000e-06	3.239243e-06	8.371719e-10	2.249715e+01	5.671413e+01
2.590000e-06	3.277072e-06	8.405425e-10	2.275988e+01	5.714939e+01
2.600000e-06	3.314755e-06	8.431594e-10	2.302159e+01	5.757574e+01
2.610000e-06	3.352186e-06	8.475466e-10	2.328156e+01	5.799340e+01
2.620000e-06	3.389298e-06	8.545890e-10	2.353931e+01	5.840255e+01
2.630000e-06	3.426121e-06	8.620670e-10	2.379505e+01	5.880333e+01
2.640000e-06	3.462702e-06	8.688574e-10	2.404911e+01	5.919587e+01
2.650000e-06	3.499060e-06	8.762010e-10	2.430163e+01	5.958026e+01
2.660000e-06	3.535186e-06	8.824861e-10	2.455253e+01	5.995656e+01
2.670000e-06	3.571154e-06	8.871674e-10	2.480234e+01	6.032481e+01
2.680000e-06	3.607012e-06	8.900493e-10	2.505137e+01	6.068504e+01
2.690000e-06	3.642733e-06	8.930570e-10	2.529946e+01	6.103726e+01
2.700000e-06	3.678329e-06	8.971421e-10	2.554668e+01	6.138145e+01
2.710000e-06	3.713781e-06	9.021343e-10	2.579291e+01	6.171761e+01
2.720000e-06	3.748974e-06	9.085781e-10	2.603733e+01	6.204570e+01
2.730000e-06	3.783673e-06	9.155624e-10	2.627832e+01	6.236570e+01
2.740000e-06	3.817874e-06	9.217854e-10	2.651585e+01	6.267757e+01
2.750000e-06	3.851636e-06	9.267985e-10	2.675033e+01	6.298128e+01
2.760000e-06	3.885006e-06	9.302970e-10	2.698210e+01	6.327682e+01
2.770000e-06	3.918027e-06	9.333586e-10	2.721143e+01	6.356415e+01
2.780000e-06	3.950662e-06	9.375216e-10	2.743809e+01	6.384328e+01
2.790000e-06	3.982954e-06	9.428641e-10	2.766236e+01	6.411419e+01
2.800000e-06	4.014948e-06	9.493028e-10	2.788457e+01	6.437692e+01
2.810000e-06	4.046747e-06	9.551701e-10	2.810542e+01	6.463149e+01
2.820000e-06	4.078412e-06	9.591103e-10	2.832534e+01	6.487794e+01
2.830000e-06	4.109874e-06	9.609226e-10	2.854385e+01	6.511635e+01
2.840000e-06	4.141041e-06	9.610227e-10	2.876031e+01	6.534681e+01
2.850000e-06	4.171902e-06	9.627011e-10	2.897464e+01	6.556940e+01
2.860000e-06	4.202469e-06	9.673658e-10	2.918694e+01	6.578428e+01
2.870000e-06	4.232751e-06	9.740958e-10	2.939725e+01	6.599157e+01
2.880000e-06	4.262756e-06	9.816103e-10	2.960564e+01	6.619144e+01
2.890000e-06	4.292521e-06	9.885338e-10	2.981236e+01	6.638408e+01
2.900000e-06	4.322029e-06	9.934947e-10	3.001730e+01	6.656970e+01
