# Temperatura_=_-0.3
# Concentracion g/m^3_=_1620.0
# C_Vs_to_Am_M_A/Vsm_=_65563218390.804596
# pendiente_HvsI_1/m_=_3716.3
# ordenada_HvsI_A/m_=_1297.0
# frecuencia_Hz_=_135109.06140092408

Tiempo_(s)	Campo_(V.s)	Magnetizacion_(V.s)	Campo_(kA/m)	Magnetizacion_(A/m)
0.000000e+00	-5.535879e-06	-1.360858e-09	-3.836511e+01	-8.846563e+01
1.000000e-08	-5.536094e-06	-1.356996e-09	-3.836660e+01	-8.846099e+01
2.000000e-08	-5.536009e-06	-1.355444e-09	-3.836601e+01	-8.845320e+01
3.000000e-08	-5.535548e-06	-1.356555e-09	-3.836282e+01	-8.844210e+01
4.000000e-08	-5.534536e-06	-1.355509e-09	-3.835580e+01	-8.842753e+01
5.000000e-08	-5.532887e-06	-1.357836e-09	-3.834438e+01	-8.840933e+01
6.000000e-08	-5.530602e-06	-1.355181e-09	-3.832854e+01	-8.838735e+01
7.000000e-08	-5.527719e-06	-1.333139e-09	-3.830856e+01	-8.836142e+01
8.000000e-08	-5.524420e-06	-1.335692e-09	-3.828569e+01	-8.833139e+01
9.000000e-08	-5.520682e-06	-1.390240e-09	-3.825979e+01	-8.829711e+01
1.000000e-07	-5.516499e-06	-1.393389e-09	-3.823080e+01	-8.825842e+01
1.100000e-07	-5.511977e-06	-1.316777e-09	-3.819946e+01	-8.821520e+01
1.200000e-07	-5.507242e-06	-1.304058e-09	-3.816665e+01	-8.816730e+01
1.300000e-07	-5.502249e-06	-1.339719e-09	-3.813204e+01	-8.811462e+01
1.400000e-07	-5.496904e-06	-1.371098e-09	-3.809500e+01	-8.805705e+01
1.500000e-07	-5.491182e-06	-1.277095e-09	-3.805534e+01	-8.799451e+01
1.600000e-07	-5.485132e-06	-1.278989e-09	-3.801342e+01	-8.792691e+01
1.700000e-07	-5.478718e-06	-1.363932e-09	-3.796897e+01	-8.785420e+01
1.800000e-07	-5.471795e-06	-1.395543e-09	-3.792099e+01	-8.777634e+01
1.900000e-07	-5.464454e-06	-1.305422e-09	-3.787011e+01	-8.769332e+01
2.000000e-07	-5.456835e-06	-1.276218e-09	-3.781731e+01	-8.760514e+01
2.100000e-07	-5.448928e-06	-1.364991e-09	-3.776251e+01	-8.751181e+01
2.200000e-07	-5.440641e-06	-1.405302e-09	-3.770508e+01	-8.741337e+01
2.300000e-07	-5.432111e-06	-1.354387e-09	-3.764597e+01	-8.730990e+01
2.400000e-07	-5.423245e-06	-1.316802e-09	-3.758453e+01	-8.720146e+01
2.500000e-07	-5.413626e-06	-1.357560e-09	-3.751786e+01	-8.708816e+01
2.600000e-07	-5.403325e-06	-1.353376e-09	-3.744647e+01	-8.697012e+01
2.700000e-07	-5.392607e-06	-1.323539e-09	-3.737220e+01	-8.684747e+01
2.800000e-07	-5.381406e-06	-1.308434e-09	-3.729457e+01	-8.672038e+01
2.900000e-07	-5.369738e-06	-1.350026e-09	-3.721371e+01	-8.658899e+01
3.000000e-07	-5.357703e-06	-1.332861e-09	-3.713030e+01	-8.645351e+01
3.100000e-07	-5.345274e-06	-1.300194e-09	-3.704417e+01	-8.631413e+01
3.200000e-07	-5.332379e-06	-1.276315e-09	-3.695480e+01	-8.617105e+01
3.300000e-07	-5.319086e-06	-1.308476e-09	-3.686268e+01	-8.602448e+01
3.400000e-07	-5.305471e-06	-1.292000e-09	-3.676832e+01	-8.587464e+01
3.500000e-07	-5.291455e-06	-1.261805e-09	-3.667118e+01	-8.572176e+01
3.600000e-07	-5.276931e-06	-1.265559e-09	-3.657053e+01	-8.556607e+01
3.700000e-07	-5.261996e-06	-1.324366e-09	-3.646703e+01	-8.540778e+01
3.800000e-07	-5.246483e-06	-1.298478e-09	-3.635952e+01	-8.524712e+01
3.900000e-07	-5.230392e-06	-1.256455e-09	-3.624800e+01	-8.508432e+01
4.000000e-07	-5.213946e-06	-1.287044e-09	-3.613403e+01	-8.491957e+01
4.100000e-07	-5.197169e-06	-1.312151e-09	-3.601776e+01	-8.475308e+01
4.200000e-07	-5.180045e-06	-1.247231e-09	-3.589908e+01	-8.458504e+01
4.300000e-07	-5.162620e-06	-1.249618e-09	-3.577833e+01	-8.441562e+01
4.400000e-07	-5.144949e-06	-1.324040e-09	-3.565586e+01	-8.424499e+01
4.500000e-07	-5.126848e-06	-1.283150e-09	-3.553042e+01	-8.407329e+01
4.600000e-07	-5.108236e-06	-1.224333e-09	-3.540143e+01	-8.390065e+01
4.700000e-07	-5.089213e-06	-1.281493e-09	-3.526960e+01	-8.372716e+01
4.800000e-07	-5.069929e-06	-1.303032e-09	-3.513595e+01	-8.355292e+01
4.900000e-07	-5.050428e-06	-1.227739e-09	-3.500080e+01	-8.337799e+01
5.000000e-07	-5.030735e-06	-1.252904e-09	-3.486433e+01	-8.320242e+01
5.100000e-07	-5.010831e-06	-1.291159e-09	-3.472638e+01	-8.302621e+01
5.200000e-07	-4.990482e-06	-1.232195e-09	-3.458536e+01	-8.284938e+01
5.300000e-07	-4.969661e-06	-1.220806e-09	-3.444106e+01	-8.267188e+01
5.400000e-07	-4.948575e-06	-1.292178e-09	-3.429493e+01	-8.249369e+01
5.500000e-07	-4.927172e-06	-1.250716e-09	-3.414661e+01	-8.231472e+01
5.600000e-07	-4.905327e-06	-1.203835e-09	-3.399522e+01	-8.213488e+01
5.700000e-07	-4.883134e-06	-1.253964e-09	-3.384141e+01	-8.195408e+01
5.800000e-07	-4.860661e-06	-1.261149e-09	-3.368567e+01	-8.177218e+01
5.900000e-07	-4.837812e-06	-1.195344e-09	-3.352732e+01	-8.158905e+01
6.000000e-07	-4.814646e-06	-1.218386e-09	-3.336677e+01	-8.140452e+01
6.100000e-07	-4.791208e-06	-1.240764e-09	-3.320434e+01	-8.121842e+01
6.200000e-07	-4.767524e-06	-1.195541e-09	-3.304021e+01	-8.103057e+01
6.300000e-07	-4.743622e-06	-1.185570e-09	-3.287456e+01	-8.084078e+01
6.400000e-07	-4.719432e-06	-1.217382e-09	-3.270691e+01	-8.064886e+01
6.500000e-07	-4.694843e-06	-1.189436e-09	-3.253651e+01	-8.045461e+01
6.600000e-07	-4.669787e-06	-1.170774e-09	-3.236286e+01	-8.025781e+01
6.700000e-07	-4.644175e-06	-1.190723e-09	-3.218537e+01	-8.005828e+01
6.800000e-07	-4.618000e-06	-1.182961e-09	-3.200396e+01	-7.985580e+01
6.900000e-07	-4.591325e-06	-1.163133e-09	-3.181910e+01	-7.965018e+01
7.000000e-07	-4.564243e-06	-1.178236e-09	-3.163141e+01	-7.944124e+01
7.100000e-07	-4.536834e-06	-1.180651e-09	-3.144146e+01	-7.922878e+01
7.200000e-07	-4.509184e-06	-1.164537e-09	-3.124984e+01	-7.901266e+01
7.300000e-07	-4.481374e-06	-1.168787e-09	-3.105711e+01	-7.879269e+01
7.400000e-07	-4.453369e-06	-1.172363e-09	-3.086303e+01	-7.856876e+01
7.500000e-07	-4.425141e-06	-1.156792e-09	-3.066740e+01	-7.834072e+01
7.600000e-07	-4.396654e-06	-1.150950e-09	-3.046998e+01	-7.810846e+01
7.700000e-07	-4.367827e-06	-1.157460e-09	-3.027020e+01	-7.787190e+01
7.800000e-07	-4.338633e-06	-1.147696e-09	-3.006788e+01	-7.763097e+01
7.900000e-07	-4.309098e-06	-1.141759e-09	-2.986319e+01	-7.738559e+01
8.000000e-07	-4.279326e-06	-1.140807e-09	-2.965686e+01	-7.713575e+01
8.100000e-07	-4.249318e-06	-1.130405e-09	-2.944890e+01	-7.688142e+01
8.200000e-07	-4.218984e-06	-1.117674e-09	-2.923868e+01	-7.662261e+01
8.300000e-07	-4.188311e-06	-1.123901e-09	-2.902611e+01	-7.635933e+01
8.400000e-07	-4.157381e-06	-1.120055e-09	-2.881175e+01	-7.609163e+01
8.500000e-07	-4.126297e-06	-1.111902e-09	-2.859633e+01	-7.581957e+01
8.600000e-07	-4.094994e-06	-1.110205e-09	-2.837939e+01	-7.554320e+01
8.700000e-07	-4.063486e-06	-1.108496e-09	-2.816104e+01	-7.526263e+01
8.800000e-07	-4.031745e-06	-1.094622e-09	-2.794106e+01	-7.497793e+01
8.900000e-07	-3.999753e-06	-1.089585e-09	-2.771935e+01	-7.468924e+01
9.000000e-07	-3.967516e-06	-1.084911e-09	-2.749593e+01	-7.439665e+01
9.100000e-07	-3.934900e-06	-1.074862e-09	-2.726990e+01	-7.410031e+01
9.200000e-07	-3.901848e-06	-1.068775e-09	-2.704084e+01	-7.380032e+01
9.300000e-07	-3.868442e-06	-1.075156e-09	-2.680933e+01	-7.349683e+01
9.400000e-07	-3.834561e-06	-1.069791e-09	-2.657452e+01	-7.318997e+01
9.500000e-07	-3.800162e-06	-1.061167e-09	-2.633613e+01	-7.287987e+01
9.600000e-07	-3.765421e-06	-1.059959e-09	-2.609536e+01	-7.256664e+01
9.700000e-07	-3.730388e-06	-1.056613e-09	-2.585258e+01	-7.225042e+01
9.800000e-07	-3.695155e-06	-1.047044e-09	-2.560841e+01	-7.193130e+01
9.900000e-07	-3.659803e-06	-1.044417e-09	-2.536341e+01	-7.160938e+01
1.000000e-06	-3.624281e-06	-1.043612e-09	-2.511722e+01	-7.128475e+01
1.010000e-06	-3.588529e-06	-1.035906e-09	-2.486946e+01	-7.095748e+01
1.020000e-06	-3.552603e-06	-1.030347e-09	-2.462048e+01	-7.062762e+01
1.030000e-06	-3.516456e-06	-1.029377e-09	-2.436997e+01	-7.029520e+01
1.040000e-06	-3.480023e-06	-1.023956e-09	-2.411748e+01	-6.996024e+01
1.050000e-06	-3.443363e-06	-1.015408e-09	-2.386342e+01	-6.962273e+01
1.060000e-06	-3.406460e-06	-1.010136e-09	-2.360767e+01	-6.928264e+01
1.070000e-06	-3.369275e-06	-1.002195e-09	-2.334997e+01	-6.893992e+01
1.080000e-06	-3.331870e-06	-9.938960e-10	-2.309074e+01	-6.859450e+01
1.090000e-06	-3.294243e-06	-9.890363e-10	-2.282998e+01	-6.824628e+01
1.100000e-06	-3.256387e-06	-9.853632e-10	-2.256763e+01	-6.789514e+01
1.110000e-06	-3.218175e-06	-9.756134e-10	-2.230280e+01	-6.754093e+01
1.120000e-06	-3.179699e-06	-9.684906e-10	-2.203616e+01	-6.718350e+01
1.130000e-06	-3.141158e-06	-9.630839e-10	-2.176905e+01	-6.682264e+01
1.140000e-06	-3.102374e-06	-9.568947e-10	-2.150027e+01	-6.645816e+01
1.150000e-06	-3.063293e-06	-9.477135e-10	-2.122943e+01	-6.608983e+01
1.160000e-06	-3.024062e-06	-9.416067e-10	-2.095755e+01	-6.571740e+01
1.170000e-06	-2.984733e-06	-9.353766e-10	-2.068499e+01	-6.534061e+01
1.180000e-06	-2.945243e-06	-9.297870e-10	-2.041131e+01	-6.495917e+01
1.190000e-06	-2.905610e-06	-9.255729e-10	-2.013665e+01	-6.457281e+01
1.200000e-06	-2.865880e-06	-9.221038e-10	-1.986131e+01	-6.418121e+01
1.210000e-06	-2.826020e-06	-9.151076e-10	-1.958507e+01	-6.378406e+01
1.220000e-06	-2.785977e-06	-9.096847e-10	-1.930756e+01	-6.338105e+01
1.230000e-06	-2.745706e-06	-9.036498e-10	-1.902847e+01	-6.297185e+01
1.240000e-06	-2.705211e-06	-8.965980e-10	-1.874783e+01	-6.255612e+01
1.250000e-06	-2.664500e-06	-8.912341e-10	-1.846569e+01	-6.213355e+01
1.260000e-06	-2.623545e-06	-8.877489e-10	-1.818186e+01	-6.170380e+01
1.270000e-06	-2.582308e-06	-8.825954e-10	-1.789608e+01	-6.126653e+01
1.280000e-06	-2.540737e-06	-8.750449e-10	-1.760798e+01	-6.082144e+01
1.290000e-06	-2.498845e-06	-8.657823e-10	-1.731766e+01	-6.036819e+01
1.300000e-06	-2.456674e-06	-8.573382e-10	-1.702540e+01	-5.990649e+01
1.310000e-06	-2.414131e-06	-8.493022e-10	-1.673057e+01	-5.943602e+01
1.320000e-06	-2.371320e-06	-8.425634e-10	-1.643388e+01	-5.895650e+01
1.330000e-06	-2.328428e-06	-8.382912e-10	-1.613662e+01	-5.846763e+01
1.340000e-06	-2.285299e-06	-8.343152e-10	-1.583773e+01	-5.796916e+01
1.350000e-06	-2.241927e-06	-8.274790e-10	-1.553715e+01	-5.746082e+01
1.360000e-06	-2.198447e-06	-8.173436e-10	-1.523582e+01	-5.694236e+01
1.370000e-06	-2.154878e-06	-8.080392e-10	-1.493388e+01	-5.641354e+01
1.380000e-06	-2.111267e-06	-7.986913e-10	-1.463164e+01	-5.587415e+01
1.390000e-06	-2.067547e-06	-7.876909e-10	-1.432865e+01	-5.532396e+01
1.400000e-06	-2.023696e-06	-7.772666e-10	-1.402475e+01	-5.476279e+01
1.410000e-06	-1.979765e-06	-7.693521e-10	-1.372030e+01	-5.419042e+01
1.420000e-06	-1.935731e-06	-7.614214e-10	-1.341513e+01	-5.360669e+01
1.430000e-06	-1.891560e-06	-7.538876e-10	-1.310901e+01	-5.301142e+01
1.440000e-06	-1.847313e-06	-7.450751e-10	-1.280237e+01	-5.240444e+01
1.450000e-06	-1.802972e-06	-7.335045e-10	-1.249507e+01	-5.178559e+01
1.460000e-06	-1.758437e-06	-7.194698e-10	-1.218643e+01	-5.115471e+01
1.470000e-06	-1.713785e-06	-7.073676e-10	-1.187698e+01	-5.051164e+01
1.480000e-06	-1.669059e-06	-6.968250e-10	-1.156702e+01	-4.985623e+01
1.490000e-06	-1.624167e-06	-6.879674e-10	-1.125591e+01	-4.918832e+01
1.500000e-06	-1.579131e-06	-6.803392e-10	-1.094380e+01	-4.850776e+01
1.510000e-06	-1.533974e-06	-6.735441e-10	-1.063084e+01	-4.781439e+01
1.520000e-06	-1.488658e-06	-6.620319e-10	-1.031679e+01	-4.710803e+01
1.530000e-06	-1.443212e-06	-6.467778e-10	-1.000184e+01	-4.638852e+01
1.540000e-06	-1.397706e-06	-6.329804e-10	-9.686473e+00	-4.565567e+01
1.550000e-06	-1.352184e-06	-6.203739e-10	-9.370996e+00	-4.490930e+01
1.560000e-06	-1.306518e-06	-6.061282e-10	-9.054515e+00	-4.414921e+01
1.570000e-06	-1.260752e-06	-5.944518e-10	-8.737349e+00	-4.337519e+01
1.580000e-06	-1.214965e-06	-5.852966e-10	-8.420027e+00	-4.258702e+01
1.590000e-06	-1.169015e-06	-5.749140e-10	-8.101586e+00	-4.178447e+01
1.600000e-06	-1.122973e-06	-5.629867e-10	-7.782501e+00	-4.096730e+01
1.610000e-06	-1.076940e-06	-5.504861e-10	-7.463480e+00	-4.013527e+01
1.620000e-06	-1.030801e-06	-5.352923e-10	-7.143724e+00	-3.928812e+01
1.630000e-06	-9.845115e-07	-5.181835e-10	-6.822926e+00	-3.842557e+01
1.640000e-06	-9.381682e-07	-5.009990e-10	-6.501754e+00	-3.754736e+01
1.650000e-06	-8.917783e-07	-4.839544e-10	-6.180260e+00	-3.665321e+01
1.660000e-06	-8.453357e-07	-4.689536e-10	-5.858400e+00	-3.574284e+01
1.670000e-06	-7.988775e-07	-4.560911e-10	-5.536433e+00	-3.481598e+01
1.680000e-06	-7.523679e-07	-4.444487e-10	-5.214109e+00	-3.387233e+01
1.690000e-06	-7.058021e-07	-4.326947e-10	-4.891396e+00	-3.291163e+01
1.700000e-06	-6.591941e-07	-4.192602e-10	-4.568390e+00	-3.193362e+01
1.710000e-06	-6.125458e-07	-4.037332e-10	-4.245105e+00	-3.093803e+01
1.720000e-06	-5.658608e-07	-3.865336e-10	-3.921566e+00	-2.992464e+01
1.730000e-06	-5.190773e-07	-3.677865e-10	-3.597343e+00	-2.889320e+01
1.740000e-06	-4.721737e-07	-3.501156e-10	-3.272289e+00	-2.784354e+01
1.750000e-06	-4.252046e-07	-3.337481e-10	-2.946781e+00	-2.677547e+01
1.760000e-06	-3.782522e-07	-3.202457e-10	-2.621388e+00	-2.568885e+01
1.770000e-06	-3.313272e-07	-3.072833e-10	-2.296185e+00	-2.458357e+01
1.780000e-06	-2.843700e-07	-2.951915e-10	-1.970759e+00	-2.345955e+01
1.790000e-06	-2.373658e-07	-2.790088e-10	-1.645008e+00	-2.231678e+01
1.800000e-06	-1.903512e-07	-2.601799e-10	-1.319185e+00	-2.115525e+01
1.810000e-06	-1.433989e-07	-2.406312e-10	-9.937923e-01	-1.997504e+01
1.820000e-06	-9.646963e-08	-2.210069e-10	-6.685601e-01	-1.877625e+01
1.830000e-06	-4.948126e-08	-2.041097e-10	-3.429182e-01	-1.755907e+01
1.840000e-06	-2.478320e-09	-1.883233e-10	-1.717541e-02	-1.632370e+01
1.850000e-06	4.451866e-08	-1.731544e-10	3.085261e-01	-1.507045e+01
1.860000e-06	9.153179e-08	-1.568680e-10	6.343396e-01	-1.379966e+01
1.870000e-06	1.384696e-07	-1.386347e-10	9.596312e-01	-1.251175e+01
1.880000e-06	1.853612e-07	-1.194896e-10	1.284602e+00	-1.120720e+01
1.890000e-06	2.323009e-07	-1.002160e-10	1.609907e+00	-9.886554e+00
1.900000e-06	2.792418e-07	-8.231895e-11	1.935219e+00	-8.550424e+00
1.910000e-06	3.261404e-07	-6.541402e-11	2.260240e+00	-7.199493e+00
1.920000e-06	3.730492e-07	-4.837030e-11	2.585330e+00	-5.834509e+00
1.930000e-06	4.200066e-07	-3.029695e-11	2.910757e+00	-4.456282e+00
1.940000e-06	4.668420e-07	-1.125654e-11	3.235339e+00	-3.065692e+00
1.950000e-06	5.135313e-07	5.360224e-12	3.558908e+00	-1.663674e+00
1.960000e-06	5.602571e-07	2.102223e-11	3.882730e+00	-2.512290e-01
1.970000e-06	6.070058e-07	3.836679e-11	4.206711e+00	1.170590e+00
1.980000e-06	6.535889e-07	5.815486e-11	4.529544e+00	2.600677e+00
1.990000e-06	7.000294e-07	8.045023e-11	4.851390e+00	4.037874e+00
2.000000e-06	7.465326e-07	1.042327e-10	5.173669e+00	5.480981e+00
2.010000e-06	7.929899e-07	1.260254e-10	5.495630e+00	6.928757e+00
2.020000e-06	8.393036e-07	1.455793e-10	5.816596e+00	8.379926e+00
2.030000e-06	8.855797e-07	1.642370e-10	6.137302e+00	9.833185e+00
2.040000e-06	9.318595e-07	1.817678e-10	6.458033e+00	1.128720e+01
2.050000e-06	9.780682e-07	1.986953e-10	6.778272e+00	1.274064e+01
2.060000e-06	1.024090e-06	2.163339e-10	7.097217e+00	1.419212e+01
2.070000e-06	1.070104e-06	2.362693e-10	7.416106e+00	1.564031e+01
2.080000e-06	1.116137e-06	2.591444e-10	7.735126e+00	1.708382e+01
2.090000e-06	1.162032e-06	2.823638e-10	8.053190e+00	1.852131e+01
2.100000e-06	1.207835e-06	3.052557e-10	8.370614e+00	1.995144e+01
2.110000e-06	1.253572e-06	3.258277e-10	8.687588e+00	2.137289e+01
2.120000e-06	1.299210e-06	3.432793e-10	9.003869e+00	2.278437e+01
2.130000e-06	1.344771e-06	3.595967e-10	9.319619e+00	2.418462e+01
2.140000e-06	1.390250e-06	3.769004e-10	9.634800e+00	2.557241e+01
2.150000e-06	1.435605e-06	3.949346e-10	9.949124e+00	2.694657e+01
2.160000e-06	1.480853e-06	4.137289e-10	1.026270e+01	2.830599e+01
2.170000e-06	1.526040e-06	4.339931e-10	1.057586e+01	2.964957e+01
2.180000e-06	1.571183e-06	4.535079e-10	1.088871e+01	3.097632e+01
2.190000e-06	1.616184e-06	4.719775e-10	1.120058e+01	3.228529e+01
2.200000e-06	1.661005e-06	4.897918e-10	1.151120e+01	3.357559e+01
2.210000e-06	1.705709e-06	5.061020e-10	1.182102e+01	3.484642e+01
2.220000e-06	1.750329e-06	5.211490e-10	1.213025e+01	3.609704e+01
2.230000e-06	1.794744e-06	5.349916e-10	1.243805e+01	3.732680e+01
2.240000e-06	1.838914e-06	5.485757e-10	1.274416e+01	3.853511e+01
2.250000e-06	1.882937e-06	5.635433e-10	1.304925e+01	3.972146e+01
2.260000e-06	1.926865e-06	5.795901e-10	1.335368e+01	4.088543e+01
2.270000e-06	1.970723e-06	5.950140e-10	1.365764e+01	4.202668e+01
2.280000e-06	2.014490e-06	6.103666e-10	1.396095e+01	4.314494e+01
2.290000e-06	2.058203e-06	6.256576e-10	1.426389e+01	4.424002e+01
2.300000e-06	2.101886e-06	6.387810e-10	1.456662e+01	4.531181e+01
2.310000e-06	2.145488e-06	6.511860e-10	1.486880e+01	4.636026e+01
2.320000e-06	2.189016e-06	6.644745e-10	1.517046e+01	4.738542e+01
2.330000e-06	2.232499e-06	6.782248e-10	1.547181e+01	4.838738e+01
2.340000e-06	2.275890e-06	6.923903e-10	1.577252e+01	4.936631e+01
2.350000e-06	2.319110e-06	7.079153e-10	1.607205e+01	5.032243e+01
2.360000e-06	2.362205e-06	7.229958e-10	1.637070e+01	5.125603e+01
2.370000e-06	2.405095e-06	7.356708e-10	1.666794e+01	5.216745e+01
2.380000e-06	2.447699e-06	7.478174e-10	1.696320e+01	5.305707e+01
2.390000e-06	2.490009e-06	7.596884e-10	1.725642e+01	5.392532e+01
2.400000e-06	2.531959e-06	7.704505e-10	1.754715e+01	5.477266e+01
2.410000e-06	2.573600e-06	7.838783e-10	1.783573e+01	5.559960e+01
2.420000e-06	2.614931e-06	7.996086e-10	1.812216e+01	5.640666e+01
2.430000e-06	2.655940e-06	8.144190e-10	1.840637e+01	5.719439e+01
2.440000e-06	2.696731e-06	8.292175e-10	1.868906e+01	5.796335e+01
2.450000e-06	2.737268e-06	8.432384e-10	1.896999e+01	5.871413e+01
2.460000e-06	2.777529e-06	8.540406e-10	1.924901e+01	5.944732e+01
2.470000e-06	2.817561e-06	8.635080e-10	1.952645e+01	6.016350e+01
2.480000e-06	2.857365e-06	8.725290e-10	1.980229e+01	6.086325e+01
2.490000e-06	2.897043e-06	8.819270e-10	2.007728e+01	6.154717e+01
2.500000e-06	2.936598e-06	8.931953e-10	2.035140e+01	6.221581e+01
2.510000e-06	2.976035e-06	9.048261e-10	2.062471e+01	6.286974e+01
2.520000e-06	3.015413e-06	9.149995e-10	2.089761e+01	6.350949e+01
2.530000e-06	3.054655e-06	9.246392e-10	2.116957e+01	6.413559e+01
2.540000e-06	3.093730e-06	9.332411e-10	2.144037e+01	6.474852e+01
2.550000e-06	3.132529e-06	9.400353e-10	2.170925e+01	6.534875e+01
2.560000e-06	3.171051e-06	9.472888e-10	2.197623e+01	6.593673e+01
2.570000e-06	3.209376e-06	9.567342e-10	2.224183e+01	6.651287e+01
2.580000e-06	3.247481e-06	9.663346e-10	2.250591e+01	6.707754e+01
2.590000e-06	3.285381e-06	9.746010e-10	2.276856e+01	6.763111e+01
2.600000e-06	3.323035e-06	9.829256e-10	2.302951e+01	6.817388e+01
2.610000e-06	3.360447e-06	9.916688e-10	2.328879e+01	6.870614e+01
2.620000e-06	3.397633e-06	1.001195e-09	2.354649e+01	6.922816e+01
2.630000e-06	3.434605e-06	1.009718e-09	2.380272e+01	6.974016e+01
2.640000e-06	3.471353e-06	1.016023e-09	2.405740e+01	7.024234e+01
2.650000e-06	3.507772e-06	1.021147e-09	2.430979e+01	7.073487e+01
2.660000e-06	3.543837e-06	1.026291e-09	2.455973e+01	7.121790e+01
2.670000e-06	3.579680e-06	1.031887e-09	2.480813e+01	7.169155e+01
2.680000e-06	3.615419e-06	1.037935e-09	2.505581e+01	7.215591e+01
2.690000e-06	3.651080e-06	1.044892e-09	2.530295e+01	7.261107e+01
2.700000e-06	3.686659e-06	1.053290e-09	2.554952e+01	7.305710e+01
2.710000e-06	3.722140e-06	1.061632e-09	2.579542e+01	7.349403e+01
2.720000e-06	3.757405e-06	1.069778e-09	2.603981e+01	7.392191e+01
2.730000e-06	3.792357e-06	1.077714e-09	2.628204e+01	7.434077e+01
2.740000e-06	3.826966e-06	1.083887e-09	2.652189e+01	7.475062e+01
2.750000e-06	3.861111e-06	1.088113e-09	2.675852e+01	7.515149e+01
2.760000e-06	3.894700e-06	1.092507e-09	2.699131e+01	7.554339e+01
2.770000e-06	3.927796e-06	1.099186e-09	2.722066e+01	7.592633e+01
2.780000e-06	3.960393e-06	1.108208e-09	2.744658e+01	7.630034e+01
2.790000e-06	3.992589e-06	1.117522e-09	2.766970e+01	7.666545e+01
2.800000e-06	4.024519e-06	1.126224e-09	2.789098e+01	7.702167e+01
2.810000e-06	4.056256e-06	1.133067e-09	2.811093e+01	7.736906e+01
2.820000e-06	4.087882e-06	1.137594e-09	2.833010e+01	7.770767e+01
2.830000e-06	4.119374e-06	1.140663e-09	2.854835e+01	7.803756e+01
2.840000e-06	4.150683e-06	1.142728e-09	2.876534e+01	7.835881e+01
2.850000e-06	4.181733e-06	1.145964e-09	2.898052e+01	7.867151e+01
2.860000e-06	4.212439e-06	1.149917e-09	2.919332e+01	7.897576e+01
2.870000e-06	4.242837e-06	1.153544e-09	2.940398e+01	7.927169e+01
2.880000e-06	4.272968e-06	1.158506e-09	2.961280e+01	7.955944e+01
2.890000e-06	4.302753e-06	1.164053e-09	2.981922e+01	7.983914e+01
2.900000e-06	4.332218e-06	1.170260e-09	3.002342e+01	8.011097e+01
