# Temperatura_=_15.0
# Concentracion g/m^3_=_1620.0
# C_Vs_to_Am_M_A/Vsm_=_65563218390.804596
# pendiente_HvsI_1/m_=_3716.3
# ordenada_HvsI_A/m_=_1297.0
# frecuencia_Hz_=_135100.58628254678

Tiempo_(s)	Campo_(V.s)	Magnetizacion_(V.s)	Campo_(kA/m)	Magnetizacion_(A/m)
0.000000e+00	-5.521326e-06	-8.260344e-10	-3.836819e+01	-5.419040e+01
1.000000e-08	-5.521636e-06	-8.254057e-10	-3.837034e+01	-5.417917e+01
2.000000e-08	-5.521704e-06	-8.259250e-10	-3.837081e+01	-5.416626e+01
3.000000e-08	-5.521423e-06	-8.287790e-10	-3.836886e+01	-5.415159e+01
4.000000e-08	-5.520699e-06	-8.320557e-10	-3.836383e+01	-5.413510e+01
5.000000e-08	-5.519496e-06	-8.308840e-10	-3.835547e+01	-5.411671e+01
6.000000e-08	-5.517612e-06	-8.213822e-10	-3.834238e+01	-5.409636e+01
7.000000e-08	-5.515029e-06	-7.955474e-10	-3.832443e+01	-5.407400e+01
8.000000e-08	-5.511959e-06	-7.975664e-10	-3.830310e+01	-5.404957e+01
9.000000e-08	-5.508480e-06	-8.746276e-10	-3.827892e+01	-5.402303e+01
1.000000e-07	-5.504507e-06	-9.119796e-10	-3.825131e+01	-5.399437e+01
1.100000e-07	-5.500102e-06	-7.890682e-10	-3.822070e+01	-5.396354e+01
1.200000e-07	-5.495512e-06	-7.371021e-10	-3.818880e+01	-5.393056e+01
1.300000e-07	-5.490773e-06	-7.917941e-10	-3.815587e+01	-5.389541e+01
1.400000e-07	-5.485704e-06	-8.902898e-10	-3.812064e+01	-5.385811e+01
1.500000e-07	-5.480192e-06	-7.911168e-10	-3.808235e+01	-5.381868e+01
1.600000e-07	-5.474321e-06	-7.204275e-10	-3.804155e+01	-5.377717e+01
1.700000e-07	-5.468082e-06	-8.211699e-10	-3.799819e+01	-5.373361e+01
1.800000e-07	-5.461380e-06	-9.095090e-10	-3.795162e+01	-5.368806e+01
1.900000e-07	-5.454295e-06	-8.451603e-10	-3.790238e+01	-5.364060e+01
2.000000e-07	-5.446939e-06	-7.256209e-10	-3.785127e+01	-5.359130e+01
2.100000e-07	-5.439307e-06	-7.698920e-10	-3.779823e+01	-5.354024e+01
2.200000e-07	-5.431388e-06	-8.268072e-10	-3.774320e+01	-5.348753e+01
2.300000e-07	-5.423236e-06	-8.256080e-10	-3.768655e+01	-5.343326e+01
2.400000e-07	-5.414795e-06	-7.690476e-10	-3.762790e+01	-5.337753e+01
2.500000e-07	-5.405738e-06	-8.064100e-10	-3.756496e+01	-5.332047e+01
2.600000e-07	-5.395852e-06	-8.251935e-10	-3.749626e+01	-5.326219e+01
2.700000e-07	-5.385385e-06	-8.232291e-10	-3.742352e+01	-5.320280e+01
2.800000e-07	-5.374445e-06	-7.847242e-10	-3.734750e+01	-5.314241e+01
2.900000e-07	-5.362990e-06	-8.157771e-10	-3.726790e+01	-5.308115e+01
3.000000e-07	-5.351165e-06	-8.371218e-10	-3.718572e+01	-5.301913e+01
3.100000e-07	-5.339062e-06	-8.350625e-10	-3.710162e+01	-5.295644e+01
3.200000e-07	-5.326465e-06	-7.959773e-10	-3.701408e+01	-5.289320e+01
3.300000e-07	-5.313364e-06	-8.064435e-10	-3.692304e+01	-5.282949e+01
3.400000e-07	-5.299980e-06	-8.364111e-10	-3.683003e+01	-5.276539e+01
3.500000e-07	-5.286233e-06	-8.189815e-10	-3.673451e+01	-5.270099e+01
3.600000e-07	-5.271980e-06	-7.754197e-10	-3.663546e+01	-5.263635e+01
3.700000e-07	-5.257350e-06	-8.053031e-10	-3.653380e+01	-5.257150e+01
3.800000e-07	-5.242350e-06	-8.288036e-10	-3.642956e+01	-5.250649e+01
3.900000e-07	-5.226720e-06	-7.830900e-10	-3.632095e+01	-5.244134e+01
4.000000e-07	-5.210545e-06	-7.884401e-10	-3.620854e+01	-5.237605e+01
4.100000e-07	-5.194003e-06	-8.343283e-10	-3.609359e+01	-5.231062e+01
4.200000e-07	-5.177085e-06	-7.915679e-10	-3.597603e+01	-5.224501e+01
4.300000e-07	-5.159780e-06	-7.402779e-10	-3.585577e+01	-5.217918e+01
4.400000e-07	-5.142293e-06	-8.237075e-10	-3.573425e+01	-5.211308e+01
4.500000e-07	-5.124539e-06	-8.311250e-10	-3.561088e+01	-5.204662e+01
4.600000e-07	-5.106168e-06	-7.506596e-10	-3.548321e+01	-5.197973e+01
4.700000e-07	-5.087249e-06	-7.689840e-10	-3.535175e+01	-5.191230e+01
4.800000e-07	-5.068037e-06	-8.400690e-10	-3.521825e+01	-5.184421e+01
4.900000e-07	-5.048605e-06	-7.698225e-10	-3.508321e+01	-5.177534e+01
5.000000e-07	-5.028983e-06	-7.571394e-10	-3.494685e+01	-5.170554e+01
5.100000e-07	-5.009169e-06	-8.169953e-10	-3.480916e+01	-5.163466e+01
5.200000e-07	-4.989070e-06	-7.819369e-10	-3.466949e+01	-5.156255e+01
5.300000e-07	-4.968552e-06	-7.260164e-10	-3.452691e+01	-5.148905e+01
5.400000e-07	-4.947715e-06	-8.107801e-10	-3.438212e+01	-5.141398e+01
5.500000e-07	-4.926596e-06	-8.153987e-10	-3.423536e+01	-5.133718e+01
5.600000e-07	-4.905055e-06	-7.376310e-10	-3.408567e+01	-5.125848e+01
5.700000e-07	-4.883216e-06	-7.608667e-10	-3.393390e+01	-5.117770e+01
5.800000e-07	-4.861097e-06	-8.111526e-10	-3.378020e+01	-5.109469e+01
5.900000e-07	-4.838551e-06	-7.468611e-10	-3.362353e+01	-5.100928e+01
6.000000e-07	-4.815738e-06	-7.406568e-10	-3.346499e+01	-5.092133e+01
6.100000e-07	-4.792634e-06	-7.914793e-10	-3.330444e+01	-5.083068e+01
6.200000e-07	-4.769153e-06	-7.660728e-10	-3.314127e+01	-5.073721e+01
6.300000e-07	-4.745480e-06	-7.327251e-10	-3.297676e+01	-5.064080e+01
6.400000e-07	-4.721618e-06	-7.688428e-10	-3.281095e+01	-5.054134e+01
6.500000e-07	-4.697437e-06	-7.696833e-10	-3.264291e+01	-5.043875e+01
6.600000e-07	-4.672899e-06	-7.430790e-10	-3.247239e+01	-5.033295e+01
6.700000e-07	-4.647897e-06	-7.615120e-10	-3.229865e+01	-5.022390e+01
6.800000e-07	-4.622199e-06	-7.673248e-10	-3.212008e+01	-5.011155e+01
6.900000e-07	-4.595912e-06	-7.440928e-10	-3.193741e+01	-4.999590e+01
7.000000e-07	-4.569137e-06	-7.480649e-10	-3.175134e+01	-4.987695e+01
7.100000e-07	-4.541872e-06	-7.630368e-10	-3.156188e+01	-4.975473e+01
7.200000e-07	-4.514379e-06	-7.490258e-10	-3.137083e+01	-4.962927e+01
7.300000e-07	-4.486840e-06	-7.463367e-10	-3.117946e+01	-4.950065e+01
7.400000e-07	-4.459149e-06	-7.504801e-10	-3.098702e+01	-4.936895e+01
7.500000e-07	-4.431236e-06	-7.526400e-10	-3.079305e+01	-4.923426e+01
7.600000e-07	-4.403067e-06	-7.467136e-10	-3.059730e+01	-4.909671e+01
7.700000e-07	-4.374568e-06	-7.496600e-10	-3.039927e+01	-4.895643e+01
7.800000e-07	-4.345703e-06	-7.438722e-10	-3.019868e+01	-4.881356e+01
7.900000e-07	-4.316497e-06	-7.427250e-10	-2.999572e+01	-4.866826e+01
8.000000e-07	-4.287005e-06	-7.399679e-10	-2.979078e+01	-4.852071e+01
8.100000e-07	-4.257203e-06	-7.382048e-10	-2.958368e+01	-4.837106e+01
8.200000e-07	-4.227136e-06	-7.312235e-10	-2.937474e+01	-4.821951e+01
8.300000e-07	-4.196765e-06	-7.380324e-10	-2.916369e+01	-4.806623e+01
8.400000e-07	-4.166030e-06	-7.379120e-10	-2.895011e+01	-4.791141e+01
8.500000e-07	-4.135043e-06	-7.337637e-10	-2.873478e+01	-4.775523e+01
8.600000e-07	-4.103785e-06	-7.290011e-10	-2.851757e+01	-4.759787e+01
8.700000e-07	-4.072323e-06	-7.296514e-10	-2.829894e+01	-4.743948e+01
8.800000e-07	-4.040740e-06	-7.199327e-10	-2.807947e+01	-4.728025e+01
8.900000e-07	-4.008975e-06	-7.142753e-10	-2.785873e+01	-4.712030e+01
9.000000e-07	-3.977008e-06	-7.133993e-10	-2.763658e+01	-4.695977e+01
9.100000e-07	-3.944784e-06	-7.064191e-10	-2.741266e+01	-4.679877e+01
9.200000e-07	-3.912213e-06	-6.967243e-10	-2.718632e+01	-4.663741e+01
9.300000e-07	-3.879231e-06	-7.006204e-10	-2.695713e+01	-4.647574e+01
9.400000e-07	-3.845788e-06	-7.024353e-10	-2.672472e+01	-4.631384e+01
9.500000e-07	-3.811955e-06	-6.964351e-10	-2.648962e+01	-4.615172e+01
9.600000e-07	-3.777685e-06	-6.969645e-10	-2.625147e+01	-4.598938e+01
9.700000e-07	-3.742888e-06	-7.002272e-10	-2.600967e+01	-4.582681e+01
9.800000e-07	-3.707718e-06	-6.936877e-10	-2.576526e+01	-4.566395e+01
9.900000e-07	-3.672333e-06	-6.855940e-10	-2.551937e+01	-4.550072e+01
1.000000e-06	-3.636788e-06	-6.868613e-10	-2.527237e+01	-4.533701e+01
1.010000e-06	-3.601071e-06	-6.807274e-10	-2.502417e+01	-4.517271e+01
1.020000e-06	-3.565236e-06	-6.743659e-10	-2.477514e+01	-4.500764e+01
1.030000e-06	-3.529332e-06	-6.761312e-10	-2.452564e+01	-4.484162e+01
1.040000e-06	-3.493240e-06	-6.793225e-10	-2.427484e+01	-4.467445e+01
1.050000e-06	-3.456802e-06	-6.718264e-10	-2.402163e+01	-4.450588e+01
1.060000e-06	-3.420063e-06	-6.660744e-10	-2.376632e+01	-4.433567e+01
1.070000e-06	-3.383071e-06	-6.598285e-10	-2.350926e+01	-4.416355e+01
1.080000e-06	-3.345827e-06	-6.526635e-10	-2.325045e+01	-4.398922e+01
1.090000e-06	-3.308396e-06	-6.464820e-10	-2.299034e+01	-4.381238e+01
1.100000e-06	-3.270724e-06	-6.482065e-10	-2.272855e+01	-4.363271e+01
1.110000e-06	-3.232756e-06	-6.437715e-10	-2.246471e+01	-4.344988e+01
1.120000e-06	-3.194533e-06	-6.359676e-10	-2.219909e+01	-4.326356e+01
1.130000e-06	-3.156131e-06	-6.314808e-10	-2.193224e+01	-4.307342e+01
1.140000e-06	-3.117611e-06	-6.327565e-10	-2.166455e+01	-4.287911e+01
1.150000e-06	-3.078940e-06	-6.271317e-10	-2.139583e+01	-4.268029e+01
1.160000e-06	-3.040008e-06	-6.205568e-10	-2.112529e+01	-4.247663e+01
1.170000e-06	-3.000835e-06	-6.181961e-10	-2.085307e+01	-4.226782e+01
1.180000e-06	-2.961486e-06	-6.176653e-10	-2.057963e+01	-4.205353e+01
1.190000e-06	-2.922000e-06	-6.129946e-10	-2.030524e+01	-4.183346e+01
1.200000e-06	-2.882403e-06	-6.097353e-10	-2.003007e+01	-4.160733e+01
1.210000e-06	-2.842671e-06	-6.027728e-10	-1.975397e+01	-4.137487e+01
1.220000e-06	-2.802786e-06	-5.927239e-10	-1.947681e+01	-4.113583e+01
1.230000e-06	-2.762735e-06	-5.869527e-10	-1.919849e+01	-4.088998e+01
1.240000e-06	-2.722561e-06	-5.858072e-10	-1.891932e+01	-4.063713e+01
1.250000e-06	-2.682206e-06	-5.863299e-10	-1.863889e+01	-4.037709e+01
1.260000e-06	-2.641557e-06	-5.859828e-10	-1.835642e+01	-4.010971e+01
1.270000e-06	-2.600622e-06	-5.879441e-10	-1.807195e+01	-3.983485e+01
1.280000e-06	-2.559445e-06	-5.829164e-10	-1.778581e+01	-3.955242e+01
1.290000e-06	-2.517931e-06	-5.723973e-10	-1.749733e+01	-3.926234e+01
1.300000e-06	-2.476118e-06	-5.634034e-10	-1.720676e+01	-3.896455e+01
1.310000e-06	-2.434012e-06	-5.562579e-10	-1.691417e+01	-3.865902e+01
1.320000e-06	-2.391478e-06	-5.492699e-10	-1.661859e+01	-3.834574e+01
1.330000e-06	-2.348691e-06	-5.470946e-10	-1.632126e+01	-3.802474e+01
1.340000e-06	-2.305803e-06	-5.507041e-10	-1.602323e+01	-3.769604e+01
1.350000e-06	-2.262714e-06	-5.524352e-10	-1.572380e+01	-3.735969e+01
1.360000e-06	-2.219389e-06	-5.451804e-10	-1.542274e+01	-3.701576e+01
1.370000e-06	-2.175876e-06	-5.369585e-10	-1.512035e+01	-3.666432e+01
1.380000e-06	-2.132265e-06	-5.282553e-10	-1.481730e+01	-3.630545e+01
1.390000e-06	-2.088631e-06	-5.204021e-10	-1.451408e+01	-3.593924e+01
1.400000e-06	-2.044918e-06	-5.149708e-10	-1.421031e+01	-3.556579e+01
1.410000e-06	-2.001090e-06	-5.115342e-10	-1.390575e+01	-3.518518e+01
1.420000e-06	-1.957217e-06	-5.059985e-10	-1.360087e+01	-3.479750e+01
1.430000e-06	-1.913206e-06	-5.010000e-10	-1.329504e+01	-3.440283e+01
1.440000e-06	-1.869092e-06	-4.970231e-10	-1.298849e+01	-3.400122e+01
1.450000e-06	-1.824947e-06	-4.911457e-10	-1.268172e+01	-3.359272e+01
1.460000e-06	-1.780716e-06	-4.833435e-10	-1.237435e+01	-3.317738e+01
1.470000e-06	-1.736349e-06	-4.747068e-10	-1.206605e+01	-3.275518e+01
1.480000e-06	-1.691845e-06	-4.651188e-10	-1.175678e+01	-3.232613e+01
1.490000e-06	-1.647175e-06	-4.564899e-10	-1.144636e+01	-3.189017e+01
1.500000e-06	-1.602311e-06	-4.519186e-10	-1.113461e+01	-3.144724e+01
1.510000e-06	-1.557282e-06	-4.500036e-10	-1.082169e+01	-3.099722e+01
1.520000e-06	-1.512081e-06	-4.437365e-10	-1.050759e+01	-3.053998e+01
1.530000e-06	-1.466738e-06	-4.322641e-10	-1.019250e+01	-3.007535e+01
1.540000e-06	-1.421338e-06	-4.195363e-10	-9.877005e+00	-2.960312e+01
1.550000e-06	-1.375931e-06	-4.086859e-10	-9.561470e+00	-2.912305e+01
1.560000e-06	-1.330481e-06	-3.987810e-10	-9.245629e+00	-2.863486e+01
1.570000e-06	-1.284913e-06	-3.926764e-10	-8.928975e+00	-2.813823e+01
1.580000e-06	-1.239188e-06	-3.896447e-10	-8.611229e+00	-2.763282e+01
1.590000e-06	-1.193413e-06	-3.858824e-10	-8.293136e+00	-2.711824e+01
1.600000e-06	-1.147601e-06	-3.774466e-10	-7.974783e+00	-2.659410e+01
1.610000e-06	-1.101643e-06	-3.648931e-10	-7.655418e+00	-2.605994e+01
1.620000e-06	-1.055619e-06	-3.517723e-10	-7.335589e+00	-2.551530e+01
1.630000e-06	-1.009517e-06	-3.390507e-10	-7.015221e+00	-2.495971e+01
1.640000e-06	-9.633278e-07	-3.286896e-10	-6.694251e+00	-2.439265e+01
1.650000e-06	-9.171401e-07	-3.200920e-10	-6.373289e+00	-2.381362e+01
1.660000e-06	-8.709257e-07	-3.146116e-10	-6.052141e+00	-2.322209e+01
1.670000e-06	-8.246753e-07	-3.070299e-10	-5.730742e+00	-2.261753e+01
1.680000e-06	-7.783318e-07	-2.979853e-10	-5.408697e+00	-2.199941e+01
1.690000e-06	-7.318913e-07	-2.859527e-10	-5.085978e+00	-2.136723e+01
1.700000e-06	-6.854495e-07	-2.748910e-10	-4.763250e+00	-2.072047e+01
1.710000e-06	-6.390013e-07	-2.629961e-10	-4.440477e+00	-2.005864e+01
1.720000e-06	-5.924812e-07	-2.515849e-10	-4.117205e+00	-1.938130e+01
1.730000e-06	-5.458782e-07	-2.430250e-10	-3.793357e+00	-1.868799e+01
1.740000e-06	-4.992423e-07	-2.347371e-10	-3.469279e+00	-1.797834e+01
1.750000e-06	-4.526140e-07	-2.253809e-10	-3.145255e+00	-1.725198e+01
1.760000e-06	-4.059148e-07	-2.165787e-10	-2.820738e+00	-1.650861e+01
1.770000e-06	-3.592178e-07	-2.065074e-10	-2.496237e+00	-1.574799e+01
1.780000e-06	-3.124956e-07	-1.960278e-10	-2.171560e+00	-1.496991e+01
1.790000e-06	-2.655784e-07	-1.854371e-10	-1.845528e+00	-1.417425e+01
1.800000e-06	-2.185592e-07	-1.707041e-10	-1.518788e+00	-1.336095e+01
1.810000e-06	-1.716015e-07	-1.544356e-10	-1.192474e+00	-1.253002e+01
1.820000e-06	-1.247420e-07	-1.386915e-10	-8.668432e-01	-1.168155e+01
1.830000e-06	-7.782359e-08	-1.248652e-10	-5.408031e-01	-1.081569e+01
1.840000e-06	-3.096213e-08	-1.135220e-10	-2.151586e-01	-9.932688e+00
1.850000e-06	1.578084e-08	-1.034020e-10	1.096625e-01	-9.032880e+00
1.860000e-06	6.264841e-08	-9.494271e-11	4.353494e-01	-8.116672e+00
1.870000e-06	1.095292e-07	-8.418557e-11	7.611283e-01	-7.184562e+00
1.880000e-06	1.563664e-07	-7.018637e-11	1.086604e+00	-6.237127e+00
1.890000e-06	2.032245e-07	-5.546398e-11	1.412225e+00	-5.275033e+00
1.900000e-06	2.500530e-07	-3.957147e-11	1.737640e+00	-4.299025e+00
1.910000e-06	2.968617e-07	-2.472155e-11	2.062918e+00	-3.309928e+00
1.920000e-06	3.436793e-07	-1.143395e-11	2.388259e+00	-2.308647e+00
1.930000e-06	3.904560e-07	-8.961890e-13	2.713314e+00	-1.296159e+00
1.940000e-06	4.371957e-07	1.144974e-11	3.038112e+00	-2.735109e-01
1.950000e-06	4.839290e-07	2.332933e-11	3.362866e+00	7.581846e-01
1.960000e-06	5.305674e-07	3.667323e-11	3.686961e+00	1.797755e+00
1.970000e-06	5.770721e-07	5.071556e-11	4.010125e+00	2.843972e+00
1.980000e-06	6.235947e-07	6.524237e-11	4.333416e+00	3.895562e+00
1.990000e-06	6.701716e-07	8.111389e-11	4.657083e+00	4.951208e+00
2.000000e-06	7.166132e-07	9.859598e-11	4.979809e+00	6.009557e+00
2.010000e-06	7.629340e-07	1.163834e-10	5.301696e+00	7.069231e+00
2.020000e-06	8.091997e-07	1.321704e-10	5.623201e+00	8.128833e+00
2.030000e-06	8.553211e-07	1.458299e-10	5.943703e+00	9.186952e+00
2.040000e-06	9.013852e-07	1.584757e-10	6.263806e+00	1.024218e+01
2.050000e-06	9.474505e-07	1.683234e-10	6.583918e+00	1.129309e+01
2.060000e-06	9.934625e-07	1.790721e-10	6.903660e+00	1.233830e+01
2.070000e-06	1.039457e-06	1.930267e-10	7.223281e+00	1.337644e+01
2.080000e-06	1.085446e-06	2.094895e-10	7.542862e+00	1.440614e+01
2.090000e-06	1.131307e-06	2.262496e-10	7.861556e+00	1.542609e+01
2.100000e-06	1.177046e-06	2.412294e-10	8.179400e+00	1.643503e+01
2.110000e-06	1.222724e-06	2.557527e-10	8.496816e+00	1.743173e+01
2.120000e-06	1.268283e-06	2.688327e-10	8.813414e+00	1.841503e+01
2.130000e-06	1.313772e-06	2.810088e-10	9.129522e+00	1.938383e+01
2.140000e-06	1.359151e-06	2.926316e-10	9.444865e+00	2.033709e+01
2.150000e-06	1.404503e-06	3.037887e-10	9.760019e+00	2.127384e+01
2.160000e-06	1.449776e-06	3.139923e-10	1.007462e+01	2.219322e+01
2.170000e-06	1.494828e-06	3.273552e-10	1.038769e+01	2.309441e+01
2.180000e-06	1.539822e-06	3.406183e-10	1.070036e+01	2.397671e+01
2.190000e-06	1.584759e-06	3.517161e-10	1.101263e+01	2.483949e+01
2.200000e-06	1.629600e-06	3.638095e-10	1.132423e+01	2.568220e+01
2.210000e-06	1.674288e-06	3.758032e-10	1.163478e+01	2.650442e+01
2.220000e-06	1.718780e-06	3.860296e-10	1.194396e+01	2.730577e+01
2.230000e-06	1.763125e-06	3.963174e-10	1.225212e+01	2.808601e+01
2.240000e-06	1.807330e-06	4.055086e-10	1.255930e+01	2.884496e+01
2.250000e-06	1.851411e-06	4.134805e-10	1.286562e+01	2.958254e+01
2.260000e-06	1.895418e-06	4.199573e-10	1.317143e+01	3.029875e+01
2.270000e-06	1.939357e-06	4.285877e-10	1.347676e+01	3.099370e+01
2.280000e-06	1.983210e-06	4.385889e-10	1.378150e+01	3.166756e+01
2.290000e-06	2.027013e-06	4.472574e-10	1.408590e+01	3.232057e+01
2.300000e-06	2.070754e-06	4.557173e-10	1.438986e+01	3.295307e+01
2.310000e-06	2.114424e-06	4.643522e-10	1.469332e+01	3.356544e+01
2.320000e-06	2.157997e-06	4.732938e-10	1.499611e+01	3.415814e+01
2.330000e-06	2.201513e-06	4.818830e-10	1.529851e+01	3.473170e+01
2.340000e-06	2.244991e-06	4.881570e-10	1.560064e+01	3.528667e+01
2.350000e-06	2.288305e-06	4.947932e-10	1.590164e+01	3.582366e+01
2.360000e-06	2.331390e-06	5.029231e-10	1.620103e+01	3.634333e+01
2.370000e-06	2.374194e-06	5.098461e-10	1.649849e+01	3.684636e+01
2.380000e-06	2.416680e-06	5.157754e-10	1.679373e+01	3.733347e+01
2.390000e-06	2.458839e-06	5.228356e-10	1.708669e+01	3.780537e+01
2.400000e-06	2.500696e-06	5.314643e-10	1.737756e+01	3.826282e+01
2.410000e-06	2.542291e-06	5.403791e-10	1.766660e+01	3.870656e+01
2.420000e-06	2.583515e-06	5.498463e-10	1.795308e+01	3.913735e+01
2.430000e-06	2.624392e-06	5.580313e-10	1.823713e+01	3.955592e+01
2.440000e-06	2.665053e-06	5.650025e-10	1.851969e+01	3.996300e+01
2.450000e-06	2.705504e-06	5.722874e-10	1.880079e+01	4.035932e+01
2.460000e-06	2.745774e-06	5.805166e-10	1.908063e+01	4.074557e+01
2.470000e-06	2.785894e-06	5.881388e-10	1.935942e+01	4.112241e+01
2.480000e-06	2.825817e-06	5.937136e-10	1.963686e+01	4.149048e+01
2.490000e-06	2.865577e-06	5.981060e-10	1.991315e+01	4.185038e+01
2.500000e-06	2.905277e-06	6.051636e-10	2.018903e+01	4.220268e+01
2.510000e-06	2.944919e-06	6.133677e-10	2.046451e+01	4.254789e+01
2.520000e-06	2.984406e-06	6.199055e-10	2.073891e+01	4.288650e+01
2.530000e-06	3.023724e-06	6.259707e-10	2.101213e+01	4.321893e+01
2.540000e-06	3.062754e-06	6.303469e-10	2.128335e+01	4.354558e+01
2.550000e-06	3.101480e-06	6.317925e-10	2.155247e+01	4.386679e+01
2.560000e-06	3.140009e-06	6.342870e-10	2.182020e+01	4.418285e+01
2.570000e-06	3.178324e-06	6.380950e-10	2.208646e+01	4.449400e+01
2.580000e-06	3.216412e-06	6.419829e-10	2.235113e+01	4.480046e+01
2.590000e-06	3.254320e-06	6.459409e-10	2.261456e+01	4.510236e+01
2.600000e-06	3.292020e-06	6.500616e-10	2.287654e+01	4.539983e+01
2.610000e-06	3.329488e-06	6.558030e-10	2.313691e+01	4.569293e+01
2.620000e-06	3.366723e-06	6.626885e-10	2.339566e+01	4.598169e+01
2.630000e-06	3.403689e-06	6.685873e-10	2.365254e+01	4.626612e+01
2.640000e-06	3.440474e-06	6.716806e-10	2.390816e+01	4.654616e+01
2.650000e-06	3.477029e-06	6.726481e-10	2.416219e+01	4.682176e+01
2.660000e-06	3.513258e-06	6.739934e-10	2.441395e+01	4.709280e+01
2.670000e-06	3.549264e-06	6.757676e-10	2.466416e+01	4.735919e+01
2.680000e-06	3.585172e-06	6.776746e-10	2.491368e+01	4.762077e+01
2.690000e-06	3.620954e-06	6.810867e-10	2.516233e+01	4.787740e+01
2.700000e-06	3.656575e-06	6.874721e-10	2.540987e+01	4.812890e+01
2.710000e-06	3.691989e-06	6.953145e-10	2.565596e+01	4.837510e+01
2.720000e-06	3.727158e-06	7.017058e-10	2.590035e+01	4.861583e+01
2.730000e-06	3.762095e-06	7.076558e-10	2.614313e+01	4.885090e+01
2.740000e-06	3.796655e-06	7.119761e-10	2.638330e+01	4.908014e+01
2.750000e-06	3.830764e-06	7.129835e-10	2.662032e+01	4.930338e+01
2.760000e-06	3.864468e-06	7.135478e-10	2.685453e+01	4.952045e+01
2.770000e-06	3.897664e-06	7.156780e-10	2.708521e+01	4.973121e+01
2.780000e-06	3.930372e-06	7.190415e-10	2.731251e+01	4.993552e+01
2.790000e-06	3.962709e-06	7.237610e-10	2.753722e+01	5.013327e+01
2.800000e-06	3.994741e-06	7.284013e-10	2.775981e+01	5.032435e+01
2.810000e-06	4.026614e-06	7.325627e-10	2.798130e+01	5.050868e+01
2.820000e-06	4.058360e-06	7.352170e-10	2.820191e+01	5.068622e+01
2.830000e-06	4.089948e-06	7.369334e-10	2.842142e+01	5.085692e+01
2.840000e-06	4.121286e-06	7.378268e-10	2.863919e+01	5.102078e+01
2.850000e-06	4.152303e-06	7.373515e-10	2.885473e+01	5.117782e+01
2.860000e-06	4.183072e-06	7.384847e-10	2.906854e+01	5.132808e+01
2.870000e-06	4.213552e-06	7.402186e-10	2.928035e+01	5.147161e+01
2.880000e-06	4.243685e-06	7.413381e-10	2.948975e+01	5.160852e+01
2.890000e-06	4.273532e-06	7.447783e-10	2.969716e+01	5.173891e+01
2.900000e-06	4.303096e-06	7.497416e-10	2.990260e+01	5.186291e+01
