# Temperatura_=_4.93
# Concentracion g/m^3_=_1620.0
# C_Vs_to_Am_M_A/Vsm_=_65563218390.804596
# pendiente_HvsI_1/m_=_3716.3
# ordenada_HvsI_A/m_=_1297.0
# frecuencia_Hz_=_135105.19089234786

Tiempo_(s)	Campo_(V.s)	Magnetizacion_(V.s)	Campo_(kA/m)	Magnetizacion_(A/m)
0.000000e+00	-5.519209e-06	-7.871245e-10	-3.836756e+01	-5.202375e+01
1.000000e-08	-5.519233e-06	-7.888272e-10	-3.836772e+01	-5.200914e+01
2.000000e-08	-5.519049e-06	-7.906679e-10	-3.836644e+01	-5.199502e+01
3.000000e-08	-5.518475e-06	-7.901526e-10	-3.836246e+01	-5.198141e+01
4.000000e-08	-5.517329e-06	-7.882057e-10	-3.835449e+01	-5.196830e+01
5.000000e-08	-5.515565e-06	-7.826707e-10	-3.834223e+01	-5.195568e+01
6.000000e-08	-5.513242e-06	-7.605418e-10	-3.832607e+01	-5.194351e+01
7.000000e-08	-5.510374e-06	-7.359752e-10	-3.830614e+01	-5.193175e+01
8.000000e-08	-5.506974e-06	-7.843864e-10	-3.828251e+01	-5.192036e+01
9.000000e-08	-5.503123e-06	-8.816560e-10	-3.825573e+01	-5.190927e+01
1.000000e-07	-5.498848e-06	-8.560544e-10	-3.822601e+01	-5.189842e+01
1.100000e-07	-5.494260e-06	-7.255543e-10	-3.819412e+01	-5.188771e+01
1.200000e-07	-5.489581e-06	-6.735459e-10	-3.816160e+01	-5.187707e+01
1.300000e-07	-5.484650e-06	-7.780210e-10	-3.812732e+01	-5.186639e+01
1.400000e-07	-5.479210e-06	-8.188338e-10	-3.808950e+01	-5.185557e+01
1.500000e-07	-5.473404e-06	-7.108496e-10	-3.804914e+01	-5.184451e+01
1.600000e-07	-5.467373e-06	-6.869577e-10	-3.800721e+01	-5.183308e+01
1.700000e-07	-5.460975e-06	-7.974281e-10	-3.796274e+01	-5.182117e+01
1.800000e-07	-5.453979e-06	-8.779577e-10	-3.791410e+01	-5.180866e+01
1.900000e-07	-5.446483e-06	-7.678029e-10	-3.786199e+01	-5.179541e+01
2.000000e-07	-5.438851e-06	-7.162520e-10	-3.780894e+01	-5.178131e+01
2.100000e-07	-5.431054e-06	-7.726119e-10	-3.775473e+01	-5.176622e+01
2.200000e-07	-5.422953e-06	-8.500409e-10	-3.769842e+01	-5.175001e+01
2.300000e-07	-5.414618e-06	-8.143591e-10	-3.764048e+01	-5.173255e+01
2.400000e-07	-5.405797e-06	-7.931932e-10	-3.757916e+01	-5.171370e+01
2.500000e-07	-5.396173e-06	-8.236429e-10	-3.751226e+01	-5.169335e+01
2.600000e-07	-5.385793e-06	-8.513326e-10	-3.744010e+01	-5.167136e+01
2.700000e-07	-5.374889e-06	-8.173876e-10	-3.736430e+01	-5.164760e+01
2.800000e-07	-5.363534e-06	-7.925032e-10	-3.728536e+01	-5.162196e+01
2.900000e-07	-5.351750e-06	-8.263561e-10	-3.720344e+01	-5.159430e+01
3.000000e-07	-5.339632e-06	-8.478006e-10	-3.711921e+01	-5.156451e+01
3.100000e-07	-5.327136e-06	-8.194287e-10	-3.703233e+01	-5.153248e+01
3.200000e-07	-5.314111e-06	-7.881145e-10	-3.694179e+01	-5.149809e+01
3.300000e-07	-5.300721e-06	-8.345913e-10	-3.684871e+01	-5.146125e+01
3.400000e-07	-5.287045e-06	-8.411479e-10	-3.675364e+01	-5.142183e+01
3.500000e-07	-5.272980e-06	-7.983942e-10	-3.665586e+01	-5.137976e+01
3.600000e-07	-5.258540e-06	-7.831446e-10	-3.655548e+01	-5.133493e+01
3.700000e-07	-5.243712e-06	-8.387216e-10	-3.645240e+01	-5.128726e+01
3.800000e-07	-5.228304e-06	-8.127398e-10	-3.634529e+01	-5.123668e+01
3.900000e-07	-5.212228e-06	-7.801529e-10	-3.623354e+01	-5.118309e+01
4.000000e-07	-5.195670e-06	-8.206922e-10	-3.611843e+01	-5.112645e+01
4.100000e-07	-5.178811e-06	-8.398752e-10	-3.600123e+01	-5.106668e+01
4.200000e-07	-5.161720e-06	-7.548339e-10	-3.588242e+01	-5.100374e+01
4.300000e-07	-5.144365e-06	-7.688978e-10	-3.576178e+01	-5.093757e+01
4.400000e-07	-5.126655e-06	-8.411803e-10	-3.563867e+01	-5.086815e+01
4.500000e-07	-5.108459e-06	-8.021517e-10	-3.551217e+01	-5.079543e+01
4.600000e-07	-5.089823e-06	-7.398847e-10	-3.538262e+01	-5.071941e+01
4.700000e-07	-5.070875e-06	-8.049917e-10	-3.525090e+01	-5.064007e+01
4.800000e-07	-5.051550e-06	-8.144227e-10	-3.511656e+01	-5.055740e+01
4.900000e-07	-5.031907e-06	-7.558893e-10	-3.498001e+01	-5.047142e+01
5.000000e-07	-5.012102e-06	-7.828506e-10	-3.484233e+01	-5.038215e+01
5.100000e-07	-4.992067e-06	-8.154152e-10	-3.470305e+01	-5.028961e+01
5.200000e-07	-4.971668e-06	-7.484986e-10	-3.456125e+01	-5.019385e+01
5.300000e-07	-4.950925e-06	-7.577035e-10	-3.441705e+01	-5.009491e+01
5.400000e-07	-4.929813e-06	-8.263131e-10	-3.427029e+01	-4.999286e+01
5.500000e-07	-4.908339e-06	-7.869358e-10	-3.412101e+01	-4.988777e+01
5.600000e-07	-4.886564e-06	-7.365032e-10	-3.396964e+01	-4.977973e+01
5.700000e-07	-4.864469e-06	-7.806691e-10	-3.381604e+01	-4.966883e+01
5.800000e-07	-4.842014e-06	-7.823708e-10	-3.365994e+01	-4.955518e+01
5.900000e-07	-4.819160e-06	-7.353706e-10	-3.350107e+01	-4.943890e+01
6.000000e-07	-4.796003e-06	-7.613612e-10	-3.334009e+01	-4.932011e+01
6.100000e-07	-4.772582e-06	-7.823651e-10	-3.317728e+01	-4.919896e+01
6.200000e-07	-4.748904e-06	-7.475613e-10	-3.301268e+01	-4.907559e+01
6.300000e-07	-4.725017e-06	-7.451112e-10	-3.284662e+01	-4.895016e+01
6.400000e-07	-4.700905e-06	-7.698749e-10	-3.267900e+01	-4.882283e+01
6.500000e-07	-4.676428e-06	-7.483831e-10	-3.250885e+01	-4.869378e+01
6.600000e-07	-4.651476e-06	-7.467973e-10	-3.233539e+01	-4.856318e+01
6.700000e-07	-4.625950e-06	-7.670297e-10	-3.215794e+01	-4.843121e+01
6.800000e-07	-4.599803e-06	-7.600995e-10	-3.197618e+01	-4.829806e+01
6.900000e-07	-4.573140e-06	-7.458191e-10	-3.179082e+01	-4.816393e+01
7.000000e-07	-4.545991e-06	-7.615321e-10	-3.160209e+01	-4.802899e+01
7.100000e-07	-4.518497e-06	-7.526224e-10	-3.141097e+01	-4.789344e+01
7.200000e-07	-4.490848e-06	-7.395580e-10	-3.121876e+01	-4.775746e+01
7.300000e-07	-4.463052e-06	-7.462096e-10	-3.102553e+01	-4.762123e+01
7.400000e-07	-4.435097e-06	-7.534909e-10	-3.083120e+01	-4.748493e+01
7.500000e-07	-4.406918e-06	-7.421778e-10	-3.063531e+01	-4.734873e+01
7.600000e-07	-4.378450e-06	-7.446152e-10	-3.043741e+01	-4.721279e+01
7.700000e-07	-4.349623e-06	-7.403469e-10	-3.023702e+01	-4.707724e+01
7.800000e-07	-4.320376e-06	-7.280782e-10	-3.003370e+01	-4.694224e+01
7.900000e-07	-4.290887e-06	-7.289048e-10	-2.982870e+01	-4.680788e+01
8.000000e-07	-4.261219e-06	-7.374118e-10	-2.962246e+01	-4.667429e+01
8.100000e-07	-4.231262e-06	-7.280251e-10	-2.941422e+01	-4.654154e+01
8.200000e-07	-4.200988e-06	-7.255313e-10	-2.920376e+01	-4.640969e+01
8.300000e-07	-4.170482e-06	-7.340941e-10	-2.899169e+01	-4.627879e+01
8.400000e-07	-4.139637e-06	-7.297259e-10	-2.877727e+01	-4.614885e+01
8.500000e-07	-4.108380e-06	-7.184148e-10	-2.855998e+01	-4.601989e+01
8.600000e-07	-4.076934e-06	-7.200603e-10	-2.834138e+01	-4.589186e+01
8.700000e-07	-4.045375e-06	-7.186144e-10	-2.812199e+01	-4.576471e+01
8.800000e-07	-4.013610e-06	-7.087066e-10	-2.790117e+01	-4.563837e+01
8.900000e-07	-3.981647e-06	-7.098261e-10	-2.767898e+01	-4.551273e+01
9.000000e-07	-3.949484e-06	-7.101630e-10	-2.745539e+01	-4.538765e+01
9.100000e-07	-3.916971e-06	-6.990196e-10	-2.722937e+01	-4.526299e+01
9.200000e-07	-3.884054e-06	-6.925272e-10	-2.700055e+01	-4.513855e+01
9.300000e-07	-3.850723e-06	-6.995845e-10	-2.676884e+01	-4.501412e+01
9.400000e-07	-3.816912e-06	-6.960566e-10	-2.653380e+01	-4.488948e+01
9.500000e-07	-3.782646e-06	-6.911939e-10	-2.629559e+01	-4.476436e+01
9.600000e-07	-3.747989e-06	-6.943861e-10	-2.605467e+01	-4.463848e+01
9.700000e-07	-3.712925e-06	-6.960248e-10	-2.581092e+01	-4.451155e+01
9.800000e-07	-3.677507e-06	-6.851357e-10	-2.556471e+01	-4.438324e+01
9.900000e-07	-3.641923e-06	-6.834359e-10	-2.531734e+01	-4.425323e+01
1.000000e-06	-3.606261e-06	-6.842358e-10	-2.506943e+01	-4.412115e+01
1.010000e-06	-3.570472e-06	-6.798274e-10	-2.482064e+01	-4.398666e+01
1.020000e-06	-3.534560e-06	-6.759104e-10	-2.457099e+01	-4.384938e+01
1.030000e-06	-3.498468e-06	-6.785684e-10	-2.432009e+01	-4.370893e+01
1.040000e-06	-3.462094e-06	-6.723251e-10	-2.406723e+01	-4.356494e+01
1.050000e-06	-3.425421e-06	-6.645014e-10	-2.381230e+01	-4.341702e+01
1.060000e-06	-3.388495e-06	-6.597873e-10	-2.355560e+01	-4.326479e+01
1.070000e-06	-3.351357e-06	-6.564802e-10	-2.329743e+01	-4.310789e+01
1.080000e-06	-3.313987e-06	-6.524460e-10	-2.303765e+01	-4.294595e+01
1.090000e-06	-3.276354e-06	-6.542479e-10	-2.277603e+01	-4.277861e+01
1.100000e-06	-3.238521e-06	-6.536779e-10	-2.251303e+01	-4.260554e+01
1.110000e-06	-3.200493e-06	-6.451941e-10	-2.224867e+01	-4.242642e+01
1.120000e-06	-3.162218e-06	-6.356610e-10	-2.198261e+01	-4.224095e+01
1.130000e-06	-3.123679e-06	-6.314001e-10	-2.171470e+01	-4.204884e+01
1.140000e-06	-3.084948e-06	-6.261396e-10	-2.144545e+01	-4.184986e+01
1.150000e-06	-3.045943e-06	-6.208717e-10	-2.117430e+01	-4.164376e+01
1.160000e-06	-3.006640e-06	-6.219223e-10	-2.090108e+01	-4.143036e+01
1.170000e-06	-2.967229e-06	-6.215245e-10	-2.062711e+01	-4.120949e+01
1.180000e-06	-2.927716e-06	-6.184821e-10	-2.035243e+01	-4.098101e+01
1.190000e-06	-2.888091e-06	-6.155468e-10	-2.007697e+01	-4.074482e+01
1.200000e-06	-2.848390e-06	-6.124910e-10	-1.980098e+01	-4.050086e+01
1.210000e-06	-2.808549e-06	-6.046098e-10	-1.952402e+01	-4.024909e+01
1.220000e-06	-2.768519e-06	-5.980048e-10	-1.924575e+01	-3.998951e+01
1.230000e-06	-2.728349e-06	-5.947045e-10	-1.896650e+01	-3.972214e+01
1.240000e-06	-2.688037e-06	-5.940922e-10	-1.868627e+01	-3.944707e+01
1.250000e-06	-2.647550e-06	-5.907912e-10	-1.840482e+01	-3.916436e+01
1.260000e-06	-2.606668e-06	-5.908036e-10	-1.812062e+01	-3.887417e+01
1.270000e-06	-2.565438e-06	-5.887429e-10	-1.783401e+01	-3.857662e+01
1.280000e-06	-2.524019e-06	-5.837074e-10	-1.754608e+01	-3.827190e+01
1.290000e-06	-2.482312e-06	-5.774797e-10	-1.725614e+01	-3.796020e+01
1.300000e-06	-2.440326e-06	-5.706866e-10	-1.696427e+01	-3.764175e+01
1.310000e-06	-2.398115e-06	-5.628217e-10	-1.667083e+01	-3.731676e+01
1.320000e-06	-2.355594e-06	-5.568135e-10	-1.637525e+01	-3.698549e+01
1.330000e-06	-2.312717e-06	-5.557236e-10	-1.607718e+01	-3.664819e+01
1.340000e-06	-2.269608e-06	-5.554675e-10	-1.577750e+01	-3.630510e+01
1.350000e-06	-2.226322e-06	-5.523481e-10	-1.547659e+01	-3.595649e+01
1.360000e-06	-2.182823e-06	-5.471372e-10	-1.517420e+01	-3.560260e+01
1.370000e-06	-2.139220e-06	-5.403257e-10	-1.487109e+01	-3.524368e+01
1.380000e-06	-2.095613e-06	-5.339161e-10	-1.456795e+01	-3.487996e+01
1.390000e-06	-2.051961e-06	-5.284455e-10	-1.426450e+01	-3.451164e+01
1.400000e-06	-2.008206e-06	-5.235708e-10	-1.396033e+01	-3.413892e+01
1.410000e-06	-1.964312e-06	-5.180856e-10	-1.365519e+01	-3.376196e+01
1.420000e-06	-1.920306e-06	-5.131764e-10	-1.334928e+01	-3.338089e+01
1.430000e-06	-1.876238e-06	-5.103816e-10	-1.304293e+01	-3.299582e+01
1.440000e-06	-1.832075e-06	-5.079341e-10	-1.273593e+01	-3.260681e+01
1.450000e-06	-1.787781e-06	-5.013530e-10	-1.242801e+01	-3.221389e+01
1.460000e-06	-1.743380e-06	-4.898351e-10	-1.211935e+01	-3.181702e+01
1.470000e-06	-1.698875e-06	-4.782757e-10	-1.180997e+01	-3.141616e+01
1.480000e-06	-1.654229e-06	-4.679657e-10	-1.149960e+01	-3.101119e+01
1.490000e-06	-1.609435e-06	-4.628555e-10	-1.118822e+01	-3.060195e+01
1.500000e-06	-1.564501e-06	-4.599481e-10	-1.087585e+01	-3.018822e+01
1.510000e-06	-1.519481e-06	-4.551273e-10	-1.056289e+01	-2.976976e+01
1.520000e-06	-1.474391e-06	-4.449684e-10	-1.024944e+01	-2.934624e+01
1.530000e-06	-1.429191e-06	-4.281698e-10	-9.935224e+00	-2.891732e+01
1.540000e-06	-1.383924e-06	-4.119167e-10	-9.620540e+00	-2.848257e+01
1.550000e-06	-1.338483e-06	-3.996905e-10	-9.304652e+00	-2.804156e+01
1.560000e-06	-1.292787e-06	-3.925068e-10	-8.986993e+00	-2.759377e+01
1.570000e-06	-1.247061e-06	-3.888331e-10	-8.669122e+00	-2.713867e+01
1.580000e-06	-1.201373e-06	-3.866358e-10	-8.351516e+00	-2.667567e+01
1.590000e-06	-1.155591e-06	-3.822160e-10	-8.033252e+00	-2.620417e+01
1.600000e-06	-1.109702e-06	-3.736841e-10	-7.714249e+00	-2.572351e+01
1.610000e-06	-1.063726e-06	-3.618303e-10	-7.394642e+00	-2.523304e+01
1.620000e-06	-1.017708e-06	-3.484130e-10	-7.074742e+00	-2.473205e+01
1.630000e-06	-9.716507e-07	-3.360383e-10	-6.754566e+00	-2.421985e+01
1.640000e-06	-9.255356e-07	-3.231743e-10	-6.433991e+00	-2.369571e+01
1.650000e-06	-8.793146e-07	-3.137442e-10	-6.112679e+00	-2.315893e+01
1.660000e-06	-8.330100e-07	-3.073605e-10	-5.790786e+00	-2.260880e+01
1.670000e-06	-7.866792e-07	-3.016793e-10	-5.468711e+00	-2.204460e+01
1.680000e-06	-7.403398e-07	-2.932109e-10	-5.146577e+00	-2.146567e+01
1.690000e-06	-6.939571e-07	-2.857550e-10	-4.824141e+00	-2.087133e+01
1.700000e-06	-6.474833e-07	-2.750113e-10	-4.501071e+00	-2.026096e+01
1.710000e-06	-6.009712e-07	-2.597762e-10	-4.177736e+00	-1.963398e+01
1.720000e-06	-5.544635e-07	-2.458651e-10	-3.854431e+00	-1.898982e+01
1.730000e-06	-5.078774e-07	-2.337848e-10	-3.530581e+00	-1.832801e+01
1.740000e-06	-4.610968e-07	-2.236985e-10	-3.205380e+00	-1.764810e+01
1.750000e-06	-4.142451e-07	-2.150421e-10	-2.879683e+00	-1.694972e+01
1.760000e-06	-3.674402e-07	-2.070451e-10	-2.554312e+00	-1.623255e+01
1.770000e-06	-3.206779e-07	-1.985903e-10	-2.229237e+00	-1.549638e+01
1.780000e-06	-2.739103e-07	-1.888844e-10	-1.904126e+00	-1.474104e+01
1.790000e-06	-2.271061e-07	-1.749786e-10	-1.578760e+00	-1.396647e+01
1.800000e-06	-1.802296e-07	-1.579696e-10	-1.252892e+00	-1.317267e+01
1.810000e-06	-1.332402e-07	-1.407173e-10	-9.262377e-01	-1.235976e+01
1.820000e-06	-8.630676e-08	-1.257291e-10	-5.999736e-01	-1.152792e+01
1.830000e-06	-3.953706e-08	-1.137522e-10	-2.748474e-01	-1.067745e+01
1.840000e-06	7.305998e-09	-1.047035e-10	5.078867e-02	-9.808720e+00
1.850000e-06	5.422394e-08	-9.835147e-11	3.769453e-01	-8.922211e+00
1.860000e-06	1.010277e-07	-8.915962e-11	7.023086e-01	-8.018489e+00
1.870000e-06	1.477700e-07	-7.668873e-11	1.027244e+00	-7.098214e+00
1.880000e-06	1.944918e-07	-6.302765e-11	1.352037e+00	-6.162135e+00
1.890000e-06	2.412304e-07	-4.708528e-11	1.676947e+00	-5.211088e+00
1.900000e-06	2.880474e-07	-3.311810e-11	2.002402e+00	-4.245995e+00
1.910000e-06	3.347940e-07	-2.097811e-11	2.327368e+00	-3.267854e+00
1.920000e-06	3.813517e-07	-1.100889e-11	2.651020e+00	-2.277741e+00
1.930000e-06	4.279094e-07	-1.907503e-13	2.974673e+00	-1.276800e+00
1.940000e-06	4.745196e-07	9.722665e-12	3.298690e+00	-2.662383e-01
1.950000e-06	5.210855e-07	2.034864e-11	3.622399e+00	7.526780e-01
1.960000e-06	5.676295e-07	3.342626e-11	3.945956e+00	1.778634e+00
1.970000e-06	6.141181e-07	4.784960e-11	4.269128e+00	2.810272e+00
1.980000e-06	6.605867e-07	6.294512e-11	4.592161e+00	3.846198e+00
1.990000e-06	7.071202e-07	7.813840e-11	4.915645e+00	4.884992e+00
2.000000e-06	7.535590e-07	9.293970e-11	5.238472e+00	5.925214e+00
2.010000e-06	7.998572e-07	1.075218e-10	5.560320e+00	6.965414e+00
2.020000e-06	8.460724e-07	1.216879e-10	5.881591e+00	8.004138e+00
2.030000e-06	8.921486e-07	1.352879e-10	6.201897e+00	9.039941e+00
2.040000e-06	9.381689e-07	1.481133e-10	6.521813e+00	1.007139e+01
2.050000e-06	9.841952e-07	1.619440e-10	6.841772e+00	1.109708e+01
2.060000e-06	1.030154e-06	1.762672e-10	7.161259e+00	1.211562e+01
2.070000e-06	1.076059e-06	1.909530e-10	7.480374e+00	1.312569e+01
2.080000e-06	1.121916e-06	2.051228e-10	7.799158e+00	1.412598e+01
2.090000e-06	1.167673e-06	2.176198e-10	8.117242e+00	1.511526e+01
2.100000e-06	1.213349e-06	2.312180e-10	8.434763e+00	1.609234e+01
2.110000e-06	1.258916e-06	2.444743e-10	8.751533e+00	1.705612e+01
2.120000e-06	1.304337e-06	2.578760e-10	9.067281e+00	1.800554e+01
2.130000e-06	1.349733e-06	2.725758e-10	9.382858e+00	1.893965e+01
2.140000e-06	1.395050e-06	2.867399e-10	9.697888e+00	1.985756e+01
2.150000e-06	1.440196e-06	2.974270e-10	1.001172e+01	2.075847e+01
2.160000e-06	1.485246e-06	3.087837e-10	1.032490e+01	2.164166e+01
2.170000e-06	1.530266e-06	3.215932e-10	1.063786e+01	2.250651e+01
2.180000e-06	1.575170e-06	3.329036e-10	1.095001e+01	2.335250e+01
2.190000e-06	1.619880e-06	3.436498e-10	1.126082e+01	2.417918e+01
2.200000e-06	1.664466e-06	3.558722e-10	1.157077e+01	2.498620e+01
2.210000e-06	1.708946e-06	3.687890e-10	1.187998e+01	2.577333e+01
2.220000e-06	1.753276e-06	3.815705e-10	1.218814e+01	2.654038e+01
2.230000e-06	1.797472e-06	3.928887e-10	1.249538e+01	2.728729e+01
2.240000e-06	1.841580e-06	4.027640e-10	1.280201e+01	2.801406e+01
2.250000e-06	1.885602e-06	4.118836e-10	1.310803e+01	2.872080e+01
2.260000e-06	1.929580e-06	4.212755e-10	1.341374e+01	2.940767e+01
2.270000e-06	1.973508e-06	4.308579e-10	1.371912e+01	3.007493e+01
2.280000e-06	2.017349e-06	4.400801e-10	1.402389e+01	3.072288e+01
2.290000e-06	2.061103e-06	4.481297e-10	1.432805e+01	3.135192e+01
2.300000e-06	2.104788e-06	4.576481e-10	1.463173e+01	3.196249e+01
2.310000e-06	2.148407e-06	4.682395e-10	1.493495e+01	3.255507e+01
2.320000e-06	2.191960e-06	4.782162e-10	1.523772e+01	3.313021e+01
2.330000e-06	2.235378e-06	4.881197e-10	1.553954e+01	3.368848e+01
2.340000e-06	2.278639e-06	4.972406e-10	1.584028e+01	3.423051e+01
2.350000e-06	2.321757e-06	5.051797e-10	1.614002e+01	3.475693e+01
2.360000e-06	2.364579e-06	5.113731e-10	1.643770e+01	3.526840e+01
2.370000e-06	2.407143e-06	5.162833e-10	1.673360e+01	3.576559e+01
2.380000e-06	2.449450e-06	5.239067e-10	1.702770e+01	3.624918e+01
2.390000e-06	2.491360e-06	5.339407e-10	1.731904e+01	3.671985e+01
2.400000e-06	2.532849e-06	5.433192e-10	1.760746e+01	3.717827e+01
2.410000e-06	2.573971e-06	5.525240e-10	1.789332e+01	3.762511e+01
2.420000e-06	2.614920e-06	5.612134e-10	1.817798e+01	3.806100e+01
2.430000e-06	2.655620e-06	5.697471e-10	1.846091e+01	3.848657e+01
2.440000e-06	2.695937e-06	5.768970e-10	1.874118e+01	3.890241e+01
2.450000e-06	2.736024e-06	5.849572e-10	1.901986e+01	3.930909e+01
2.460000e-06	2.776009e-06	5.909564e-10	1.929782e+01	3.970712e+01
2.470000e-06	2.815922e-06	5.948321e-10	1.957528e+01	4.009700e+01
2.480000e-06	2.855742e-06	5.974595e-10	1.985210e+01	4.047916e+01
2.490000e-06	2.895466e-06	6.017061e-10	2.012824e+01	4.085402e+01
2.500000e-06	2.935075e-06	6.099278e-10	2.040359e+01	4.122192e+01
2.510000e-06	2.974576e-06	6.169855e-10	2.067818e+01	4.158318e+01
2.520000e-06	3.013892e-06	6.213467e-10	2.095150e+01	4.193805e+01
2.530000e-06	3.052951e-06	6.251911e-10	2.122302e+01	4.228676e+01
2.540000e-06	3.091770e-06	6.278054e-10	2.149288e+01	4.262946e+01
2.550000e-06	3.130317e-06	6.281219e-10	2.176084e+01	4.296628e+01
2.560000e-06	3.168626e-06	6.304558e-10	2.202715e+01	4.329730e+01
2.570000e-06	3.206774e-06	6.348502e-10	2.229234e+01	4.362255e+01
2.580000e-06	3.244745e-06	6.398271e-10	2.255630e+01	4.394203e+01
2.590000e-06	3.282447e-06	6.457129e-10	2.281839e+01	4.425569e+01
2.600000e-06	3.319969e-06	6.528106e-10	2.307923e+01	4.456347e+01
2.610000e-06	3.357272e-06	6.586548e-10	2.333855e+01	4.486526e+01
2.620000e-06	3.394257e-06	6.627065e-10	2.359566e+01	4.516092e+01
2.630000e-06	3.430997e-06	6.664076e-10	2.385106e+01	4.545030e+01
2.640000e-06	3.467517e-06	6.672283e-10	2.410493e+01	4.573324e+01
2.650000e-06	3.503773e-06	6.675930e-10	2.435697e+01	4.600953e+01
2.660000e-06	3.539793e-06	6.696722e-10	2.460737e+01	4.627900e+01
2.670000e-06	3.575674e-06	6.708847e-10	2.485680e+01	4.654143e+01
2.680000e-06	3.611437e-06	6.727931e-10	2.510541e+01	4.679663e+01
2.690000e-06	3.647046e-06	6.772344e-10	2.535295e+01	4.704439e+01
2.700000e-06	3.682528e-06	6.832849e-10	2.559961e+01	4.728452e+01
2.710000e-06	3.717870e-06	6.885451e-10	2.584530e+01	4.751683e+01
2.720000e-06	3.752888e-06	6.957580e-10	2.608873e+01	4.774118e+01
2.730000e-06	3.787509e-06	7.026503e-10	2.632940e+01	4.795739e+01
2.740000e-06	3.821700e-06	7.052546e-10	2.656708e+01	4.816535e+01
2.750000e-06	3.855367e-06	7.074031e-10	2.680113e+01	4.836496e+01
2.760000e-06	3.888631e-06	7.100837e-10	2.703237e+01	4.855613e+01
2.770000e-06	3.921526e-06	7.122681e-10	2.726104e+01	4.873882e+01
2.780000e-06	3.954030e-06	7.153001e-10	2.748700e+01	4.891301e+01
2.790000e-06	3.986187e-06	7.203008e-10	2.771054e+01	4.907871e+01
2.800000e-06	4.018068e-06	7.262373e-10	2.793216e+01	4.923598e+01
2.810000e-06	4.049792e-06	7.312738e-10	2.815270e+01	4.938489e+01
2.820000e-06	4.081377e-06	7.356204e-10	2.837227e+01	4.952555e+01
2.830000e-06	4.112815e-06	7.369680e-10	2.859081e+01	4.965813e+01
2.840000e-06	4.144017e-06	7.361995e-10	2.880772e+01	4.978278e+01
2.850000e-06	4.174906e-06	7.375050e-10	2.902245e+01	4.989973e+01
2.860000e-06	4.205463e-06	7.401397e-10	2.923487e+01	5.000922e+01
2.870000e-06	4.235685e-06	7.421802e-10	2.944496e+01	5.011151e+01
2.880000e-06	4.265568e-06	7.453362e-10	2.965270e+01	5.020691e+01
2.890000e-06	4.295173e-06	7.491908e-10	2.985850e+01	5.029574e+01
2.900000e-06	4.324554e-06	7.527479e-10	3.006275e+01	5.037832e+01
