# Temperatura_=_10.16
# Concentracion g/m^3_=_1620.0
# C_Vs_to_Am_M_A/Vsm_=_65563218390.804596
# pendiente_HvsI_1/m_=_3716.3
# ordenada_HvsI_A/m_=_1297.0
# frecuencia_Hz_=_135105.71222115122

Tiempo_(s)	Campo_(V.s)	Magnetizacion_(V.s)	Campo_(kA/m)	Magnetizacion_(A/m)
0.000000e+00	-5.529805e-06	-8.162612e-10	-3.836575e+01	-5.305990e+01
1.000000e-08	-5.530030e-06	-8.166289e-10	-3.836731e+01	-5.305796e+01
2.000000e-08	-5.530023e-06	-8.165150e-10	-3.836727e+01	-5.305719e+01
3.000000e-08	-5.529715e-06	-8.152010e-10	-3.836513e+01	-5.305758e+01
4.000000e-08	-5.528985e-06	-8.100606e-10	-3.836007e+01	-5.305913e+01
5.000000e-08	-5.527695e-06	-8.020506e-10	-3.835111e+01	-5.306180e+01
6.000000e-08	-5.525772e-06	-7.932686e-10	-3.833777e+01	-5.306554e+01
7.000000e-08	-5.523337e-06	-7.838104e-10	-3.832088e+01	-5.307026e+01
8.000000e-08	-5.520399e-06	-8.036638e-10	-3.830050e+01	-5.307588e+01
9.000000e-08	-5.516955e-06	-8.606374e-10	-3.827660e+01	-5.308228e+01
1.000000e-07	-5.513009e-06	-8.498986e-10	-3.824922e+01	-5.308934e+01
1.100000e-07	-5.508589e-06	-7.342251e-10	-3.821856e+01	-5.309689e+01
1.200000e-07	-5.503983e-06	-7.150549e-10	-3.818660e+01	-5.310480e+01
1.300000e-07	-5.499222e-06	-8.025779e-10	-3.815357e+01	-5.311287e+01
1.400000e-07	-5.494067e-06	-8.951555e-10	-3.811781e+01	-5.312093e+01
1.500000e-07	-5.488497e-06	-7.705894e-10	-3.807916e+01	-5.312878e+01
1.600000e-07	-5.482698e-06	-6.990470e-10	-3.803893e+01	-5.313622e+01
1.700000e-07	-5.476583e-06	-7.903607e-10	-3.799650e+01	-5.314304e+01
1.800000e-07	-5.469917e-06	-8.780476e-10	-3.795025e+01	-5.314903e+01
1.900000e-07	-5.462843e-06	-8.246934e-10	-3.790117e+01	-5.315398e+01
2.000000e-07	-5.455567e-06	-7.216531e-10	-3.785069e+01	-5.315766e+01
2.100000e-07	-5.448006e-06	-8.118049e-10	-3.779823e+01	-5.315986e+01
2.200000e-07	-5.440071e-06	-8.794969e-10	-3.774318e+01	-5.316038e+01
2.300000e-07	-5.431907e-06	-8.609416e-10	-3.768654e+01	-5.315900e+01
2.400000e-07	-5.423414e-06	-7.636543e-10	-3.762761e+01	-5.315552e+01
2.500000e-07	-5.414270e-06	-8.102951e-10	-3.756418e+01	-5.314975e+01
2.600000e-07	-5.404393e-06	-8.540995e-10	-3.749565e+01	-5.314150e+01
2.700000e-07	-5.393951e-06	-8.595769e-10	-3.742320e+01	-5.313060e+01
2.800000e-07	-5.383033e-06	-8.005623e-10	-3.734745e+01	-5.311687e+01
2.900000e-07	-5.371659e-06	-8.289964e-10	-3.726854e+01	-5.310017e+01
3.000000e-07	-5.359863e-06	-8.554587e-10	-3.718670e+01	-5.308034e+01
3.100000e-07	-5.347719e-06	-8.433575e-10	-3.710244e+01	-5.305725e+01
3.200000e-07	-5.335098e-06	-8.016798e-10	-3.701488e+01	-5.303079e+01
3.300000e-07	-5.321999e-06	-8.248729e-10	-3.692400e+01	-5.300085e+01
3.400000e-07	-5.308658e-06	-8.608697e-10	-3.683144e+01	-5.296734e+01
3.500000e-07	-5.294972e-06	-8.261554e-10	-3.673649e+01	-5.293018e+01
3.600000e-07	-5.280719e-06	-7.942465e-10	-3.663760e+01	-5.288930e+01
3.700000e-07	-5.265959e-06	-8.208828e-10	-3.653519e+01	-5.284464e+01
3.800000e-07	-5.250685e-06	-8.361496e-10	-3.642923e+01	-5.279617e+01
3.900000e-07	-5.234819e-06	-7.926971e-10	-3.631914e+01	-5.274385e+01
4.000000e-07	-5.218585e-06	-8.208338e-10	-3.620651e+01	-5.268767e+01
4.100000e-07	-5.202068e-06	-8.599667e-10	-3.609192e+01	-5.262762e+01
4.200000e-07	-5.185225e-06	-8.165160e-10	-3.597506e+01	-5.256370e+01
4.300000e-07	-5.168000e-06	-7.671391e-10	-3.585555e+01	-5.249592e+01
4.400000e-07	-5.150459e-06	-8.441189e-10	-3.573386e+01	-5.242430e+01
4.500000e-07	-5.132615e-06	-8.396159e-10	-3.561006e+01	-5.234888e+01
4.600000e-07	-5.114308e-06	-7.620429e-10	-3.548304e+01	-5.226969e+01
4.700000e-07	-5.095508e-06	-7.710069e-10	-3.535261e+01	-5.218678e+01
4.800000e-07	-5.076383e-06	-8.524243e-10	-3.521992e+01	-5.210019e+01
4.900000e-07	-5.056975e-06	-7.972028e-10	-3.508527e+01	-5.200998e+01
5.000000e-07	-5.037292e-06	-7.765688e-10	-3.494871e+01	-5.191620e+01
5.100000e-07	-5.017434e-06	-8.266070e-10	-3.481093e+01	-5.181894e+01
5.200000e-07	-4.997282e-06	-8.159483e-10	-3.467111e+01	-5.171825e+01
5.300000e-07	-4.976714e-06	-7.511849e-10	-3.452841e+01	-5.161420e+01
5.400000e-07	-4.955803e-06	-8.065418e-10	-3.438333e+01	-5.150687e+01
5.500000e-07	-4.934570e-06	-8.210637e-10	-3.423602e+01	-5.139635e+01
5.600000e-07	-4.913001e-06	-7.577601e-10	-3.408637e+01	-5.128270e+01
5.700000e-07	-4.891117e-06	-7.612216e-10	-3.393454e+01	-5.116601e+01
5.800000e-07	-4.868878e-06	-8.215401e-10	-3.378025e+01	-5.104638e+01
5.900000e-07	-4.846254e-06	-7.808706e-10	-3.362329e+01	-5.092387e+01
6.000000e-07	-4.823245e-06	-7.551770e-10	-3.346365e+01	-5.079859e+01
6.100000e-07	-4.799896e-06	-7.950248e-10	-3.330165e+01	-5.067061e+01
6.200000e-07	-4.776304e-06	-7.888962e-10	-3.313797e+01	-5.054005e+01
6.300000e-07	-4.752587e-06	-7.488882e-10	-3.297343e+01	-5.040697e+01
6.400000e-07	-4.728701e-06	-7.668437e-10	-3.280770e+01	-5.027150e+01
6.500000e-07	-4.704437e-06	-7.792150e-10	-3.263936e+01	-5.013371e+01
6.600000e-07	-4.679650e-06	-7.532336e-10	-3.246739e+01	-4.999372e+01
6.700000e-07	-4.654322e-06	-7.613529e-10	-3.229166e+01	-4.985161e+01
6.800000e-07	-4.628513e-06	-7.722892e-10	-3.211259e+01	-4.970751e+01
6.900000e-07	-4.602222e-06	-7.580884e-10	-3.193019e+01	-4.956150e+01
7.000000e-07	-4.575524e-06	-7.525736e-10	-3.174496e+01	-4.941370e+01
7.100000e-07	-4.548455e-06	-7.692989e-10	-3.155716e+01	-4.926421e+01
7.200000e-07	-4.521075e-06	-7.582632e-10	-3.136719e+01	-4.911315e+01
7.300000e-07	-4.493494e-06	-7.538154e-10	-3.117584e+01	-4.896063e+01
7.400000e-07	-4.465724e-06	-7.536240e-10	-3.098317e+01	-4.880675e+01
7.500000e-07	-4.437682e-06	-7.542369e-10	-3.078861e+01	-4.865164e+01
7.600000e-07	-4.409333e-06	-7.436673e-10	-3.059193e+01	-4.849539e+01
7.700000e-07	-4.380715e-06	-7.460759e-10	-3.039337e+01	-4.833812e+01
7.800000e-07	-4.351765e-06	-7.367733e-10	-3.019252e+01	-4.817995e+01
7.900000e-07	-4.322546e-06	-7.380220e-10	-2.998980e+01	-4.802097e+01
8.000000e-07	-4.293119e-06	-7.392189e-10	-2.978564e+01	-4.786129e+01
8.100000e-07	-4.263313e-06	-7.390652e-10	-2.957884e+01	-4.770102e+01
8.200000e-07	-4.233058e-06	-7.288338e-10	-2.936893e+01	-4.754024e+01
8.300000e-07	-4.202537e-06	-7.363486e-10	-2.915718e+01	-4.737905e+01
8.400000e-07	-4.171740e-06	-7.323653e-10	-2.894351e+01	-4.721753e+01
8.500000e-07	-4.140669e-06	-7.206226e-10	-2.872794e+01	-4.705575e+01
8.600000e-07	-4.109416e-06	-7.126329e-10	-2.851110e+01	-4.689379e+01
8.700000e-07	-4.077964e-06	-7.142225e-10	-2.829289e+01	-4.673169e+01
8.800000e-07	-4.046339e-06	-7.052533e-10	-2.807347e+01	-4.656951e+01
8.900000e-07	-4.014550e-06	-7.027949e-10	-2.785293e+01	-4.640728e+01
9.000000e-07	-3.982545e-06	-7.074693e-10	-2.763088e+01	-4.624501e+01
9.100000e-07	-3.950169e-06	-7.042345e-10	-2.740625e+01	-4.608273e+01
9.200000e-07	-3.917358e-06	-6.957982e-10	-2.717861e+01	-4.592041e+01
9.300000e-07	-3.884265e-06	-6.972319e-10	-2.694901e+01	-4.575804e+01
9.400000e-07	-3.850843e-06	-6.948070e-10	-2.671712e+01	-4.559557e+01
9.500000e-07	-3.816922e-06	-6.824557e-10	-2.648178e+01	-4.543297e+01
9.600000e-07	-3.782496e-06	-6.796451e-10	-2.624294e+01	-4.527014e+01
9.700000e-07	-3.747665e-06	-6.824038e-10	-2.600128e+01	-4.510700e+01
9.800000e-07	-3.712527e-06	-6.796256e-10	-2.575749e+01	-4.494346e+01
9.900000e-07	-3.677108e-06	-6.735744e-10	-2.551176e+01	-4.477937e+01
1.000000e-06	-3.641492e-06	-6.777804e-10	-2.526465e+01	-4.461461e+01
1.010000e-06	-3.605788e-06	-6.730890e-10	-2.501693e+01	-4.444901e+01
1.020000e-06	-3.570019e-06	-6.670285e-10	-2.476877e+01	-4.428240e+01
1.030000e-06	-3.534116e-06	-6.657089e-10	-2.451967e+01	-4.411460e+01
1.040000e-06	-3.497951e-06	-6.679660e-10	-2.426876e+01	-4.394539e+01
1.050000e-06	-3.461398e-06	-6.606593e-10	-2.401516e+01	-4.377456e+01
1.060000e-06	-3.424554e-06	-6.547916e-10	-2.375954e+01	-4.360189e+01
1.070000e-06	-3.387560e-06	-6.459489e-10	-2.350287e+01	-4.342713e+01
1.080000e-06	-3.350294e-06	-6.395836e-10	-2.324432e+01	-4.325003e+01
1.090000e-06	-3.312777e-06	-6.351964e-10	-2.298403e+01	-4.307034e+01
1.100000e-06	-3.275098e-06	-6.399198e-10	-2.272261e+01	-4.288779e+01
1.110000e-06	-3.237160e-06	-6.387724e-10	-2.245939e+01	-4.270210e+01
1.120000e-06	-3.198927e-06	-6.340976e-10	-2.219414e+01	-4.251302e+01
1.130000e-06	-3.160493e-06	-6.270843e-10	-2.192748e+01	-4.232027e+01
1.140000e-06	-3.121847e-06	-6.216767e-10	-2.165936e+01	-4.212358e+01
1.150000e-06	-3.082958e-06	-6.119289e-10	-2.138955e+01	-4.192269e+01
1.160000e-06	-3.043889e-06	-6.059326e-10	-2.111849e+01	-4.171732e+01
1.170000e-06	-3.004643e-06	-6.033455e-10	-2.084620e+01	-4.150723e+01
1.180000e-06	-2.965200e-06	-6.034235e-10	-2.057254e+01	-4.129218e+01
1.190000e-06	-2.925583e-06	-6.023645e-10	-2.029768e+01	-4.107192e+01
1.200000e-06	-2.885878e-06	-6.022275e-10	-2.002220e+01	-4.084624e+01
1.210000e-06	-2.846078e-06	-6.005965e-10	-1.974607e+01	-4.061492e+01
1.220000e-06	-2.806156e-06	-5.952340e-10	-1.946910e+01	-4.037778e+01
1.230000e-06	-2.766084e-06	-5.888301e-10	-1.919108e+01	-4.013464e+01
1.240000e-06	-2.725850e-06	-5.829637e-10	-1.891193e+01	-3.988534e+01
1.250000e-06	-2.685352e-06	-5.770538e-10	-1.863095e+01	-3.962973e+01
1.260000e-06	-2.644511e-06	-5.721491e-10	-1.834760e+01	-3.936771e+01
1.270000e-06	-2.603464e-06	-5.709512e-10	-1.806282e+01	-3.909915e+01
1.280000e-06	-2.562204e-06	-5.661817e-10	-1.777655e+01	-3.882398e+01
1.290000e-06	-2.520617e-06	-5.594650e-10	-1.748802e+01	-3.854212e+01
1.300000e-06	-2.478736e-06	-5.523428e-10	-1.719746e+01	-3.825354e+01
1.310000e-06	-2.436631e-06	-5.493160e-10	-1.690533e+01	-3.795820e+01
1.320000e-06	-2.394232e-06	-5.454023e-10	-1.661117e+01	-3.765608e+01
1.330000e-06	-2.351566e-06	-5.427907e-10	-1.631515e+01	-3.734719e+01
1.340000e-06	-2.308664e-06	-5.385492e-10	-1.601750e+01	-3.703153e+01
1.350000e-06	-2.265488e-06	-5.330034e-10	-1.571794e+01	-3.670914e+01
1.360000e-06	-2.222129e-06	-5.245768e-10	-1.541712e+01	-3.638003e+01
1.370000e-06	-2.178621e-06	-5.199691e-10	-1.511526e+01	-3.604427e+01
1.380000e-06	-2.135057e-06	-5.168296e-10	-1.481301e+01	-3.570188e+01
1.390000e-06	-2.091429e-06	-5.147176e-10	-1.451032e+01	-3.535292e+01
1.400000e-06	-2.047688e-06	-5.109245e-10	-1.420685e+01	-3.499744e+01
1.410000e-06	-2.003829e-06	-5.064678e-10	-1.390255e+01	-3.463547e+01
1.420000e-06	-1.959863e-06	-4.996756e-10	-1.359752e+01	-3.426706e+01
1.430000e-06	-1.915813e-06	-4.923657e-10	-1.329190e+01	-3.389224e+01
1.440000e-06	-1.871624e-06	-4.855559e-10	-1.298532e+01	-3.351103e+01
1.450000e-06	-1.827337e-06	-4.807916e-10	-1.267805e+01	-3.312342e+01
1.460000e-06	-1.782950e-06	-4.740516e-10	-1.237009e+01	-3.272940e+01
1.470000e-06	-1.738492e-06	-4.659030e-10	-1.206165e+01	-3.232894e+01
1.480000e-06	-1.693941e-06	-4.579881e-10	-1.175255e+01	-3.192198e+01
1.490000e-06	-1.649180e-06	-4.508816e-10	-1.144200e+01	-3.150844e+01
1.500000e-06	-1.604241e-06	-4.467787e-10	-1.113022e+01	-3.108822e+01
1.510000e-06	-1.559235e-06	-4.447697e-10	-1.081796e+01	-3.066118e+01
1.520000e-06	-1.514151e-06	-4.421186e-10	-1.050517e+01	-3.022715e+01
1.530000e-06	-1.468965e-06	-4.363402e-10	-1.019167e+01	-2.978594e+01
1.540000e-06	-1.423628e-06	-4.260659e-10	-9.877124e+00	-2.933732e+01
1.550000e-06	-1.378050e-06	-4.133018e-10	-9.560902e+00	-2.888104e+01
1.560000e-06	-1.332389e-06	-3.999581e-10	-9.244105e+00	-2.841680e+01
1.570000e-06	-1.286778e-06	-3.877356e-10	-8.927659e+00	-2.794428e+01
1.580000e-06	-1.241098e-06	-3.802169e-10	-8.610731e+00	-2.746314e+01
1.590000e-06	-1.195246e-06	-3.770653e-10	-8.292613e+00	-2.697299e+01
1.600000e-06	-1.149314e-06	-3.740253e-10	-7.973932e+00	-2.647342e+01
1.610000e-06	-1.103326e-06	-3.682379e-10	-7.654870e+00	-2.596400e+01
1.620000e-06	-1.057240e-06	-3.593706e-10	-7.335127e+00	-2.544428e+01
1.630000e-06	-1.011053e-06	-3.457702e-10	-7.014682e+00	-2.491378e+01
1.640000e-06	-9.647649e-07	-3.320786e-10	-6.693534e+00	-2.437201e+01
1.650000e-06	-9.184513e-07	-3.175880e-10	-6.372210e+00	-2.381846e+01
1.660000e-06	-8.720687e-07	-3.081425e-10	-6.050408e+00	-2.325264e+01
1.670000e-06	-8.256198e-07	-3.002250e-10	-5.728145e+00	-2.267401e+01
1.680000e-06	-7.791782e-07	-2.921368e-10	-5.405934e+00	-2.208207e+01
1.690000e-06	-7.327310e-07	-2.828480e-10	-5.083683e+00	-2.147632e+01
1.700000e-06	-6.862932e-07	-2.737778e-10	-4.761498e+00	-2.085625e+01
1.710000e-06	-6.397610e-07	-2.632723e-10	-4.438658e+00	-2.022138e+01
1.720000e-06	-5.931266e-07	-2.515436e-10	-4.115109e+00	-1.957126e+01
1.730000e-06	-5.464538e-07	-2.400758e-10	-3.791294e+00	-1.890546e+01
1.740000e-06	-4.997262e-07	-2.295831e-10	-3.467097e+00	-1.822358e+01
1.750000e-06	-4.529641e-07	-2.205599e-10	-3.142662e+00	-1.752527e+01
1.760000e-06	-4.061518e-07	-2.113335e-10	-2.817879e+00	-1.681021e+01
1.770000e-06	-3.592487e-07	-1.990009e-10	-2.492466e+00	-1.607814e+01
1.780000e-06	-3.122811e-07	-1.859135e-10	-2.166604e+00	-1.532885e+01
1.790000e-06	-2.652495e-07	-1.736526e-10	-1.840300e+00	-1.456218e+01
1.800000e-06	-2.182569e-07	-1.606490e-10	-1.514265e+00	-1.377806e+01
1.810000e-06	-1.713728e-07	-1.477945e-10	-1.188984e+00	-1.297646e+01
1.820000e-06	-1.244034e-07	-1.356052e-10	-8.631103e-01	-1.215743e+01
1.830000e-06	-7.737721e-08	-1.254716e-10	-5.368426e-01	-1.132111e+01
1.840000e-06	-3.041511e-08	-1.154404e-10	-2.110199e-01	-1.046769e+01
1.850000e-06	1.652036e-08	-1.038943e-10	1.146182e-01	-9.597467e+00
1.860000e-06	6.351031e-08	-9.248947e-11	4.406342e-01	-8.710797e+00
1.870000e-06	1.104974e-07	-7.828855e-11	7.666303e-01	-7.808131e+00
1.880000e-06	1.573988e-07	-6.214558e-11	1.092032e+00	-6.889997e+00
1.890000e-06	2.042330e-07	-4.902255e-11	1.416968e+00	-5.957007e+00
1.900000e-06	2.510457e-07	-3.803301e-11	1.741754e+00	-5.009853e+00
1.910000e-06	2.978571e-07	-2.865915e-11	2.066531e+00	-4.049310e+00
1.920000e-06	3.446408e-07	-1.878127e-11	2.391116e+00	-3.076225e+00
1.930000e-06	3.914325e-07	-9.565089e-12	2.715756e+00	-2.091526e+00
1.940000e-06	4.382256e-07	3.523424e-12	3.040407e+00	-1.096206e+00
1.950000e-06	4.849816e-07	1.698979e-11	3.364800e+00	-9.132950e-02
1.960000e-06	5.317533e-07	3.036202e-11	3.689301e+00	9.219788e-01
1.970000e-06	5.785273e-07	4.467184e-11	4.013819e+00	1.942536e+00
1.980000e-06	6.251909e-07	6.068568e-11	4.337571e+00	2.969110e+00
1.990000e-06	6.717042e-07	7.608568e-11	4.660280e+00	4.000421e+00
2.000000e-06	7.181495e-07	9.074945e-11	4.982517e+00	5.035152e+00
2.010000e-06	7.646137e-07	1.044443e-10	5.304886e+00	6.071954e+00
2.020000e-06	8.110346e-07	1.152593e-10	5.626953e+00	7.109456e+00
2.030000e-06	8.573567e-07	1.261040e-10	5.948336e+00	8.146267e+00
2.040000e-06	9.035871e-07	1.407052e-10	6.269082e+00	9.180992e+00
2.050000e-06	9.497673e-07	1.572751e-10	6.589480e+00	1.021223e+01
2.060000e-06	9.959407e-07	1.749787e-10	6.909831e+00	1.123859e+01
2.070000e-06	1.042081e-06	1.938754e-10	7.229951e+00	1.225871e+01
2.080000e-06	1.088088e-06	2.132983e-10	7.549147e+00	1.327121e+01
2.090000e-06	1.133916e-06	2.287082e-10	7.867104e+00	1.427480e+01
2.100000e-06	1.179644e-06	2.390025e-10	8.184366e+00	1.526818e+01
2.110000e-06	1.225357e-06	2.490778e-10	8.501523e+00	1.625011e+01
2.120000e-06	1.271014e-06	2.596541e-10	8.818286e+00	1.721942e+01
2.130000e-06	1.316538e-06	2.712549e-10	9.134132e+00	1.817499e+01
2.140000e-06	1.362003e-06	2.838540e-10	9.449570e+00	1.911574e+01
2.150000e-06	1.407446e-06	2.980437e-10	9.764851e+00	2.004071e+01
2.160000e-06	1.452827e-06	3.111509e-10	1.007971e+01	2.094898e+01
2.170000e-06	1.498121e-06	3.244757e-10	1.039396e+01	2.183972e+01
2.180000e-06	1.543260e-06	3.383804e-10	1.070713e+01	2.271219e+01
2.190000e-06	1.588241e-06	3.501967e-10	1.101921e+01	2.356574e+01
2.200000e-06	1.633049e-06	3.602952e-10	1.133008e+01	2.439980e+01
2.210000e-06	1.677715e-06	3.699400e-10	1.163998e+01	2.521389e+01
2.220000e-06	1.722324e-06	3.783577e-10	1.194947e+01	2.600766e+01
2.230000e-06	1.766844e-06	3.871947e-10	1.225835e+01	2.678080e+01
2.240000e-06	1.811185e-06	3.958367e-10	1.256599e+01	2.753314e+01
2.250000e-06	1.855353e-06	4.038283e-10	1.287243e+01	2.826457e+01
2.260000e-06	1.899404e-06	4.115785e-10	1.317806e+01	2.897509e+01
2.270000e-06	1.943380e-06	4.206250e-10	1.348316e+01	2.966479e+01
2.280000e-06	1.987305e-06	4.307515e-10	1.378791e+01	3.033383e+01
2.290000e-06	2.031148e-06	4.405527e-10	1.409210e+01	3.098246e+01
2.300000e-06	2.074887e-06	4.486892e-10	1.439556e+01	3.161100e+01
2.310000e-06	2.118559e-06	4.552271e-10	1.469855e+01	3.221987e+01
2.320000e-06	2.162182e-06	4.606450e-10	1.500120e+01	3.280952e+01
2.330000e-06	2.205685e-06	4.648754e-10	1.530303e+01	3.338049e+01
2.340000e-06	2.249051e-06	4.683347e-10	1.560391e+01	3.393335e+01
2.350000e-06	2.292216e-06	4.747650e-10	1.590338e+01	3.446874e+01
2.360000e-06	2.335186e-06	4.851102e-10	1.620151e+01	3.498733e+01
2.370000e-06	2.377955e-06	4.980972e-10	1.649824e+01	3.548983e+01
2.380000e-06	2.420543e-06	5.099125e-10	1.679372e+01	3.597697e+01
2.390000e-06	2.462990e-06	5.189751e-10	1.708821e+01	3.644952e+01
2.400000e-06	2.505098e-06	5.264545e-10	1.738036e+01	3.690823e+01
2.410000e-06	2.546755e-06	5.316361e-10	1.766937e+01	3.735389e+01
2.420000e-06	2.588029e-06	5.366831e-10	1.795573e+01	3.778728e+01
2.430000e-06	2.629066e-06	5.431919e-10	1.824044e+01	3.820914e+01
2.440000e-06	2.669855e-06	5.508214e-10	1.852344e+01	3.862025e+01
2.450000e-06	2.710340e-06	5.594496e-10	1.880432e+01	3.902134e+01
2.460000e-06	2.750624e-06	5.694559e-10	1.908381e+01	3.941311e+01
2.470000e-06	2.790723e-06	5.787807e-10	1.936202e+01	3.979623e+01
2.480000e-06	2.830680e-06	5.853055e-10	1.963924e+01	4.017135e+01
2.490000e-06	2.870546e-06	5.898960e-10	1.991583e+01	4.053907e+01
2.500000e-06	2.910280e-06	5.959392e-10	2.019150e+01	4.089994e+01
2.510000e-06	2.949836e-06	6.028588e-10	2.046594e+01	4.125446e+01
2.520000e-06	2.989209e-06	6.091197e-10	2.073912e+01	4.160310e+01
2.530000e-06	3.028414e-06	6.155196e-10	2.101112e+01	4.194626e+01
2.540000e-06	3.067457e-06	6.216942e-10	2.128200e+01	4.228428e+01
2.550000e-06	3.106248e-06	6.260322e-10	2.155113e+01	4.261746e+01
2.560000e-06	3.144802e-06	6.306265e-10	2.181862e+01	4.294603e+01
2.570000e-06	3.183247e-06	6.367165e-10	2.208535e+01	4.327019e+01
2.580000e-06	3.221482e-06	6.425148e-10	2.235062e+01	4.359005e+01
2.590000e-06	3.259452e-06	6.465391e-10	2.261406e+01	4.390569e+01
2.600000e-06	3.297196e-06	6.494855e-10	2.287593e+01	4.421715e+01
2.610000e-06	3.334698e-06	6.528430e-10	2.313612e+01	4.452439e+01
2.620000e-06	3.371970e-06	6.572391e-10	2.339471e+01	4.482735e+01
2.630000e-06	3.408934e-06	6.611936e-10	2.365116e+01	4.512592e+01
2.640000e-06	3.445582e-06	6.632768e-10	2.390543e+01	4.541995e+01
2.650000e-06	3.482028e-06	6.655210e-10	2.415829e+01	4.570925e+01
2.660000e-06	3.518292e-06	6.701067e-10	2.440989e+01	4.599362e+01
2.670000e-06	3.554366e-06	6.739610e-10	2.466017e+01	4.627282e+01
2.680000e-06	3.590326e-06	6.766754e-10	2.490966e+01	4.654660e+01
2.690000e-06	3.626134e-06	6.799817e-10	2.515810e+01	4.681467e+01
2.700000e-06	3.661785e-06	6.853543e-10	2.540544e+01	4.707677e+01
2.710000e-06	3.697250e-06	6.911751e-10	2.565150e+01	4.733260e+01
2.720000e-06	3.732427e-06	6.952212e-10	2.589556e+01	4.758188e+01
2.730000e-06	3.767315e-06	6.998900e-10	2.613761e+01	4.782432e+01
2.740000e-06	3.801951e-06	7.033002e-10	2.637792e+01	4.805966e+01
2.750000e-06	3.836184e-06	7.045832e-10	2.661542e+01	4.828764e+01
2.760000e-06	3.869946e-06	7.056521e-10	2.684966e+01	4.850802e+01
2.770000e-06	3.903288e-06	7.083474e-10	2.708099e+01	4.872057e+01
2.780000e-06	3.936154e-06	7.132956e-10	2.730901e+01	4.892512e+01
2.790000e-06	3.968646e-06	7.214527e-10	2.753444e+01	4.912150e+01
2.800000e-06	4.000860e-06	7.313669e-10	2.775795e+01	4.930957e+01
2.810000e-06	4.032855e-06	7.395689e-10	2.797993e+01	4.948925e+01
2.820000e-06	4.064691e-06	7.429266e-10	2.820080e+01	4.966047e+01
2.830000e-06	4.096325e-06	7.408043e-10	2.842028e+01	4.982322e+01
2.840000e-06	4.127681e-06	7.356141e-10	2.863783e+01	4.997752e+01
2.850000e-06	4.158750e-06	7.314597e-10	2.885338e+01	5.012342e+01
2.860000e-06	4.189592e-06	7.331555e-10	2.906737e+01	5.026102e+01
2.870000e-06	4.220145e-06	7.400975e-10	2.927934e+01	5.039046e+01
2.880000e-06	4.250302e-06	7.484287e-10	2.948857e+01	5.051191e+01
2.890000e-06	4.280184e-06	7.563248e-10	2.969589e+01	5.062560e+01
2.900000e-06	4.309822e-06	7.598170e-10	2.990152e+01	5.073176e+01
