# Temperatura_=_-0.3
# Concentracion g/m^3_=_1620.0
# C_Vs_to_Am_M_A/Vsm_=_65563218390.804596
# pendiente_HvsI_1/m_=_3716.3
# ordenada_HvsI_A/m_=_1297.0
# frecuencia_Hz_=_135109.92869369098

Tiempo_(s)	Campo_(V.s)	Magnetizacion_(V.s)	Campo_(kA/m)	Magnetizacion_(A/m)
0.000000e+00	-5.533752e-06	-1.320074e-09	-3.836452e+01	-8.526711e+01
1.000000e-08	-5.533947e-06	-1.320968e-09	-3.836587e+01	-8.526440e+01
2.000000e-08	-5.533856e-06	-1.322881e-09	-3.836524e+01	-8.525873e+01
3.000000e-08	-5.533321e-06	-1.321429e-09	-3.836153e+01	-8.524999e+01
4.000000e-08	-5.532173e-06	-1.315307e-09	-3.835357e+01	-8.523809e+01
5.000000e-08	-5.530502e-06	-1.306324e-09	-3.834198e+01	-8.522294e+01
6.000000e-08	-5.528260e-06	-1.288869e-09	-3.832645e+01	-8.520443e+01
7.000000e-08	-5.525428e-06	-1.272951e-09	-3.830681e+01	-8.518248e+01
8.000000e-08	-5.522185e-06	-1.312472e-09	-3.828433e+01	-8.515700e+01
9.000000e-08	-5.518476e-06	-1.373169e-09	-3.825861e+01	-8.512789e+01
1.000000e-07	-5.514250e-06	-1.355368e-09	-3.822932e+01	-8.509509e+01
1.100000e-07	-5.509682e-06	-1.298148e-09	-3.819764e+01	-8.505852e+01
1.200000e-07	-5.504968e-06	-1.272060e-09	-3.816497e+01	-8.501813e+01
1.300000e-07	-5.500126e-06	-1.285661e-09	-3.813140e+01	-8.497386e+01
1.400000e-07	-5.494860e-06	-1.315553e-09	-3.809489e+01	-8.492566e+01
1.500000e-07	-5.489111e-06	-1.248647e-09	-3.805503e+01	-8.487352e+01
1.600000e-07	-5.483032e-06	-1.275748e-09	-3.801289e+01	-8.481741e+01
1.700000e-07	-5.476471e-06	-1.287088e-09	-3.796740e+01	-8.475733e+01
1.800000e-07	-5.469501e-06	-1.334985e-09	-3.791908e+01	-8.469327e+01
1.900000e-07	-5.462229e-06	-1.277304e-09	-3.786867e+01	-8.462527e+01
2.000000e-07	-5.454657e-06	-1.280289e-09	-3.781616e+01	-8.455334e+01
2.100000e-07	-5.446797e-06	-1.300231e-09	-3.776168e+01	-8.447753e+01
2.200000e-07	-5.438673e-06	-1.343467e-09	-3.770535e+01	-8.439790e+01
2.300000e-07	-5.430268e-06	-1.324746e-09	-3.764708e+01	-8.431449e+01
2.400000e-07	-5.421374e-06	-1.312163e-09	-3.758542e+01	-8.422740e+01
2.500000e-07	-5.411834e-06	-1.319113e-09	-3.751929e+01	-8.413669e+01
2.600000e-07	-5.401643e-06	-1.312287e-09	-3.744863e+01	-8.404246e+01
2.700000e-07	-5.390774e-06	-1.317658e-09	-3.737328e+01	-8.394481e+01
2.800000e-07	-5.379459e-06	-1.312828e-09	-3.729483e+01	-8.384384e+01
2.900000e-07	-5.367848e-06	-1.339948e-09	-3.721434e+01	-8.373964e+01
3.000000e-07	-5.355823e-06	-1.310670e-09	-3.713097e+01	-8.363235e+01
3.100000e-07	-5.343309e-06	-1.311250e-09	-3.704421e+01	-8.352205e+01
3.200000e-07	-5.330330e-06	-1.288103e-09	-3.695423e+01	-8.340887e+01
3.300000e-07	-5.317019e-06	-1.323494e-09	-3.686195e+01	-8.329291e+01
3.400000e-07	-5.303448e-06	-1.273688e-09	-3.676786e+01	-8.317428e+01
3.500000e-07	-5.289446e-06	-1.277692e-09	-3.667079e+01	-8.305308e+01
3.600000e-07	-5.274916e-06	-1.284501e-09	-3.657005e+01	-8.292940e+01
3.700000e-07	-5.259958e-06	-1.323460e-09	-3.646635e+01	-8.280335e+01
3.800000e-07	-5.244447e-06	-1.272352e-09	-3.635882e+01	-8.267499e+01
3.900000e-07	-5.228500e-06	-1.292008e-09	-3.624826e+01	-8.254440e+01
4.000000e-07	-5.212123e-06	-1.304684e-09	-3.613472e+01	-8.241165e+01
4.100000e-07	-5.195305e-06	-1.287574e-09	-3.601813e+01	-8.227678e+01
4.200000e-07	-5.178196e-06	-1.252431e-09	-3.589951e+01	-8.213984e+01
4.300000e-07	-5.160738e-06	-1.293192e-09	-3.577848e+01	-8.200085e+01
4.400000e-07	-5.142870e-06	-1.282719e-09	-3.565461e+01	-8.185984e+01
4.500000e-07	-5.124596e-06	-1.244908e-09	-3.552791e+01	-8.171680e+01
4.600000e-07	-5.105968e-06	-1.261314e-09	-3.539877e+01	-8.157174e+01
4.700000e-07	-5.086985e-06	-1.274768e-09	-3.526716e+01	-8.142462e+01
4.800000e-07	-5.067640e-06	-1.239292e-09	-3.513305e+01	-8.127543e+01
4.900000e-07	-5.048091e-06	-1.255474e-09	-3.499752e+01	-8.112412e+01
5.000000e-07	-5.028423e-06	-1.285961e-09	-3.486116e+01	-8.097065e+01
5.100000e-07	-5.008525e-06	-1.235348e-09	-3.472321e+01	-8.081494e+01
5.200000e-07	-4.988291e-06	-1.226501e-09	-3.458294e+01	-8.065694e+01
5.300000e-07	-4.967661e-06	-1.267344e-09	-3.443991e+01	-8.049657e+01
5.400000e-07	-4.946697e-06	-1.248476e-09	-3.429457e+01	-8.033375e+01
5.500000e-07	-4.925416e-06	-1.205243e-09	-3.414703e+01	-8.016839e+01
5.600000e-07	-4.903732e-06	-1.243346e-09	-3.399670e+01	-8.000042e+01
5.700000e-07	-4.881653e-06	-1.237230e-09	-3.384364e+01	-7.982974e+01
5.800000e-07	-4.859189e-06	-1.209524e-09	-3.368790e+01	-7.965627e+01
5.900000e-07	-4.836366e-06	-1.224675e-09	-3.352967e+01	-7.947993e+01
6.000000e-07	-4.813240e-06	-1.243603e-09	-3.336934e+01	-7.930062e+01
6.100000e-07	-4.789803e-06	-1.203555e-09	-3.320685e+01	-7.911829e+01
6.200000e-07	-4.766190e-06	-1.214684e-09	-3.304315e+01	-7.893285e+01
6.300000e-07	-4.742410e-06	-1.218004e-09	-3.287829e+01	-7.874424e+01
6.400000e-07	-4.718251e-06	-1.195400e-09	-3.271080e+01	-7.855242e+01
6.500000e-07	-4.693638e-06	-1.186358e-09	-3.254016e+01	-7.835735e+01
6.600000e-07	-4.668568e-06	-1.208327e-09	-3.236636e+01	-7.815898e+01
6.700000e-07	-4.642894e-06	-1.187129e-09	-3.218836e+01	-7.795731e+01
6.800000e-07	-4.616652e-06	-1.187360e-09	-3.200643e+01	-7.775233e+01
6.900000e-07	-4.589985e-06	-1.196862e-09	-3.182155e+01	-7.754404e+01
7.000000e-07	-4.562914e-06	-1.190230e-09	-3.163387e+01	-7.733247e+01
7.100000e-07	-4.535571e-06	-1.176522e-09	-3.144431e+01	-7.711766e+01
7.200000e-07	-4.508034e-06	-1.189041e-09	-3.125340e+01	-7.689964e+01
7.300000e-07	-4.480276e-06	-1.177266e-09	-3.106096e+01	-7.667848e+01
7.400000e-07	-4.452257e-06	-1.167323e-09	-3.086670e+01	-7.645425e+01
7.500000e-07	-4.424014e-06	-1.170237e-09	-3.067090e+01	-7.622703e+01
7.600000e-07	-4.395538e-06	-1.161623e-09	-3.047348e+01	-7.599693e+01
7.700000e-07	-4.366832e-06	-1.146347e-09	-3.027447e+01	-7.576404e+01
7.800000e-07	-4.337864e-06	-1.151525e-09	-3.007364e+01	-7.552847e+01
7.900000e-07	-4.308512e-06	-1.152952e-09	-2.987015e+01	-7.529034e+01
8.000000e-07	-4.278800e-06	-1.143606e-09	-2.966416e+01	-7.504977e+01
8.100000e-07	-4.248819e-06	-1.149644e-09	-2.945631e+01	-7.480689e+01
8.200000e-07	-4.218534e-06	-1.152210e-09	-2.924634e+01	-7.456181e+01
8.300000e-07	-4.187901e-06	-1.142259e-09	-2.903397e+01	-7.431466e+01
8.400000e-07	-4.156965e-06	-1.129429e-09	-2.881950e+01	-7.406556e+01
8.500000e-07	-4.125785e-06	-1.129021e-09	-2.860334e+01	-7.381461e+01
8.600000e-07	-4.094410e-06	-1.115232e-09	-2.838582e+01	-7.356192e+01
8.700000e-07	-4.062876e-06	-1.106614e-09	-2.816720e+01	-7.330758e+01
8.800000e-07	-4.031183e-06	-1.106880e-09	-2.794748e+01	-7.305167e+01
8.900000e-07	-3.999255e-06	-1.112911e-09	-2.772612e+01	-7.279424e+01
9.000000e-07	-3.967058e-06	-1.103305e-09	-2.750291e+01	-7.253536e+01
9.100000e-07	-3.934542e-06	-1.103670e-09	-2.727748e+01	-7.227504e+01
9.200000e-07	-3.901648e-06	-1.099222e-09	-2.704943e+01	-7.201329e+01
9.300000e-07	-3.868286e-06	-1.090862e-09	-2.681814e+01	-7.175010e+01
9.400000e-07	-3.834406e-06	-1.078284e-09	-2.658325e+01	-7.148542e+01
9.500000e-07	-3.800168e-06	-1.077212e-09	-2.634589e+01	-7.121919e+01
9.600000e-07	-3.765536e-06	-1.066961e-09	-2.610579e+01	-7.095132e+01
9.700000e-07	-3.730503e-06	-1.061716e-09	-2.586292e+01	-7.068171e+01
9.800000e-07	-3.695226e-06	-1.061397e-09	-2.561834e+01	-7.041019e+01
9.900000e-07	-3.659754e-06	-1.062533e-09	-2.537243e+01	-7.013661e+01
1.000000e-06	-3.624122e-06	-1.053528e-09	-2.512539e+01	-6.986078e+01
1.010000e-06	-3.588338e-06	-1.050294e-09	-2.487731e+01	-6.958246e+01
1.020000e-06	-3.552396e-06	-1.045986e-09	-2.462813e+01	-6.930142e+01
1.030000e-06	-3.516283e-06	-1.038221e-09	-2.437777e+01	-6.901739e+01
1.040000e-06	-3.479915e-06	-1.031886e-09	-2.412563e+01	-6.873008e+01
1.050000e-06	-3.443273e-06	-1.027030e-09	-2.387160e+01	-6.843916e+01
1.060000e-06	-3.406384e-06	-1.016330e-09	-2.361586e+01	-6.814433e+01
1.070000e-06	-3.369179e-06	-1.007032e-09	-2.335792e+01	-6.784521e+01
1.080000e-06	-3.331708e-06	-1.005141e-09	-2.309814e+01	-6.754147e+01
1.090000e-06	-3.294006e-06	-1.001825e-09	-2.283676e+01	-6.723271e+01
1.100000e-06	-3.256122e-06	-9.965223e-10	-2.257411e+01	-6.691856e+01
1.110000e-06	-3.218046e-06	-9.908629e-10	-2.231014e+01	-6.659864e+01
1.120000e-06	-3.179689e-06	-9.840818e-10	-2.204422e+01	-6.627254e+01
1.130000e-06	-3.141114e-06	-9.719705e-10	-2.177678e+01	-6.593988e+01
1.140000e-06	-3.102364e-06	-9.639074e-10	-2.150814e+01	-6.560027e+01
1.150000e-06	-3.063377e-06	-9.548561e-10	-2.123785e+01	-6.525332e+01
1.160000e-06	-3.024143e-06	-9.477269e-10	-2.096585e+01	-6.489867e+01
1.170000e-06	-2.984754e-06	-9.412030e-10	-2.069277e+01	-6.453594e+01
1.180000e-06	-2.945256e-06	-9.406895e-10	-2.041893e+01	-6.416479e+01
1.190000e-06	-2.905622e-06	-9.368093e-10	-2.014416e+01	-6.378488e+01
1.200000e-06	-2.865878e-06	-9.326020e-10	-1.986862e+01	-6.339592e+01
1.210000e-06	-2.825959e-06	-9.256302e-10	-1.959187e+01	-6.299759e+01
1.220000e-06	-2.785838e-06	-9.192732e-10	-1.931372e+01	-6.258964e+01
1.230000e-06	-2.745519e-06	-9.092270e-10	-1.903420e+01	-6.217183e+01
1.240000e-06	-2.704956e-06	-9.013848e-10	-1.875298e+01	-6.174394e+01
1.250000e-06	-2.664206e-06	-8.922907e-10	-1.847047e+01	-6.130578e+01
1.260000e-06	-2.623259e-06	-8.857974e-10	-1.818659e+01	-6.085720e+01
1.270000e-06	-2.581990e-06	-8.806733e-10	-1.790048e+01	-6.039806e+01
1.280000e-06	-2.540279e-06	-8.766116e-10	-1.761130e+01	-5.992826e+01
1.290000e-06	-2.498119e-06	-8.687277e-10	-1.731902e+01	-5.944774e+01
1.300000e-06	-2.455816e-06	-8.603957e-10	-1.702573e+01	-5.895645e+01
1.310000e-06	-2.413443e-06	-8.526310e-10	-1.673197e+01	-5.845436e+01
1.320000e-06	-2.370708e-06	-8.445692e-10	-1.643569e+01	-5.794150e+01
1.330000e-06	-2.327677e-06	-8.367632e-10	-1.613737e+01	-5.741788e+01
1.340000e-06	-2.284471e-06	-8.307473e-10	-1.583783e+01	-5.688357e+01
1.350000e-06	-2.241116e-06	-8.211490e-10	-1.553726e+01	-5.633863e+01
1.360000e-06	-2.197697e-06	-8.104036e-10	-1.523624e+01	-5.578315e+01
1.370000e-06	-2.154184e-06	-8.010302e-10	-1.493458e+01	-5.521723e+01
1.380000e-06	-2.110553e-06	-7.934220e-10	-1.463209e+01	-5.464099e+01
1.390000e-06	-2.066821e-06	-7.868050e-10	-1.432891e+01	-5.405455e+01
1.400000e-06	-2.022974e-06	-7.797604e-10	-1.402492e+01	-5.345802e+01
1.410000e-06	-1.979042e-06	-7.719801e-10	-1.372035e+01	-5.285153e+01
1.420000e-06	-1.935092e-06	-7.625736e-10	-1.341565e+01	-5.223519e+01
1.430000e-06	-1.891052e-06	-7.536548e-10	-1.311033e+01	-5.160912e+01
1.440000e-06	-1.846846e-06	-7.431121e-10	-1.280386e+01	-5.097341e+01
1.450000e-06	-1.802507e-06	-7.313312e-10	-1.249646e+01	-5.032815e+01
1.460000e-06	-1.758040e-06	-7.174744e-10	-1.218818e+01	-4.967340e+01
1.470000e-06	-1.713406e-06	-7.046052e-10	-1.187874e+01	-4.900921e+01
1.480000e-06	-1.668546e-06	-6.914456e-10	-1.156773e+01	-4.833559e+01
1.490000e-06	-1.623526e-06	-6.811251e-10	-1.125561e+01	-4.765253e+01
1.500000e-06	-1.578435e-06	-6.726655e-10	-1.094301e+01	-4.696000e+01
1.510000e-06	-1.533276e-06	-6.641384e-10	-1.062993e+01	-4.625792e+01
1.520000e-06	-1.488000e-06	-6.511576e-10	-1.031604e+01	-4.554618e+01
1.530000e-06	-1.442623e-06	-6.356797e-10	-1.000145e+01	-4.482465e+01
1.540000e-06	-1.397255e-06	-6.181639e-10	-9.686918e+00	-4.409314e+01
1.550000e-06	-1.351790e-06	-6.010003e-10	-9.371722e+00	-4.335144e+01
1.560000e-06	-1.306172e-06	-5.832204e-10	-9.055458e+00	-4.259930e+01
1.570000e-06	-1.260445e-06	-5.709490e-10	-8.738443e+00	-4.183642e+01
1.580000e-06	-1.214620e-06	-5.601475e-10	-8.420745e+00	-4.106248e+01
1.590000e-06	-1.168759e-06	-5.489999e-10	-8.102796e+00	-4.027711e+01
1.600000e-06	-1.122884e-06	-5.379545e-10	-7.784755e+00	-3.947993e+01
1.610000e-06	-1.076890e-06	-5.248554e-10	-7.465887e+00	-3.867051e+01
1.620000e-06	-1.030726e-06	-5.097247e-10	-7.145842e+00	-3.784840e+01
1.630000e-06	-9.845118e-07	-4.960472e-10	-6.825446e+00	-3.701312e+01
1.640000e-06	-9.382758e-07	-4.798630e-10	-6.504900e+00	-3.616419e+01
1.650000e-06	-8.920119e-07	-4.627273e-10	-6.184160e+00	-3.530108e+01
1.660000e-06	-8.456492e-07	-4.474054e-10	-5.862735e+00	-3.442329e+01
1.670000e-06	-7.991514e-07	-4.340424e-10	-5.540375e+00	-3.353028e+01
1.680000e-06	-7.526184e-07	-4.221758e-10	-5.217769e+00	-3.262152e+01
1.690000e-06	-7.061007e-07	-4.099988e-10	-4.895271e+00	-3.169650e+01
1.700000e-06	-6.595563e-07	-3.983476e-10	-4.572586e+00	-3.075469e+01
1.710000e-06	-6.129088e-07	-3.833412e-10	-4.249188e+00	-2.979562e+01
1.720000e-06	-5.661831e-07	-3.666849e-10	-3.925247e+00	-2.881879e+01
1.730000e-06	-5.194262e-07	-3.498302e-10	-3.601089e+00	-2.782378e+01
1.740000e-06	-4.726669e-07	-3.341884e-10	-3.276916e+00	-2.681017e+01
1.750000e-06	-4.258961e-07	-3.184015e-10	-2.952662e+00	-2.577759e+01
1.760000e-06	-3.790697e-07	-3.020277e-10	-2.628023e+00	-2.472572e+01
1.770000e-06	-3.321948e-07	-2.855613e-10	-2.303048e+00	-2.365429e+01
1.780000e-06	-2.852429e-07	-2.716594e-10	-1.977538e+00	-2.256309e+01
1.790000e-06	-2.382530e-07	-2.560223e-10	-1.651765e+00	-2.145197e+01
1.800000e-06	-1.913171e-07	-2.377943e-10	-1.326368e+00	-2.032085e+01
1.810000e-06	-1.443866e-07	-2.191260e-10	-1.001007e+00	-1.916972e+01
1.820000e-06	-9.738703e-08	-2.010512e-10	-6.751670e-01	-1.799864e+01
1.830000e-06	-5.038395e-08	-1.846749e-10	-3.493030e-01	-1.680776e+01
1.840000e-06	-3.460032e-09	-1.687899e-10	-2.398779e-02	-1.559731e+01
1.850000e-06	4.351925e-08	-1.542869e-10	3.017112e-01	-1.436759e+01
1.860000e-06	9.055553e-08	-1.394193e-10	6.278054e-01	-1.311900e+01
1.870000e-06	1.375461e-07	-1.213298e-10	9.535828e-01	-1.185203e+01
1.880000e-06	1.845396e-07	-1.007678e-10	1.279381e+00	-1.056724e+01
1.890000e-06	2.314892e-07	-7.829267e-11	1.604873e+00	-9.265286e+00
1.900000e-06	2.783592e-07	-6.027325e-11	1.929815e+00	-7.946908e+00
1.910000e-06	3.252232e-07	-4.596105e-11	2.254715e+00	-6.612932e+00
1.920000e-06	3.720723e-07	-3.272939e-11	2.579511e+00	-5.264262e+00
1.930000e-06	4.188877e-07	-1.799853e-11	2.904074e+00	-3.901881e+00
1.940000e-06	4.656741e-07	-1.157452e-12	3.228436e+00	-2.526846e+00
1.950000e-06	5.124210e-07	1.816670e-11	3.552523e+00	-1.140287e+00
1.960000e-06	5.591723e-07	3.862663e-11	3.876642e+00	2.566039e-01
1.970000e-06	6.058202e-07	6.000012e-11	4.200044e+00	1.662574e+00
1.980000e-06	6.523900e-07	8.169247e-11	4.522904e+00	3.076315e+00
1.990000e-06	6.989525e-07	1.005731e-10	4.845714e+00	4.496472e+00
2.000000e-06	7.454020e-07	1.174069e-10	5.167740e+00	5.921649e+00
2.010000e-06	7.917509e-07	1.328709e-10	5.489068e+00	7.350416e+00
2.020000e-06	8.380416e-07	1.481225e-10	5.809994e+00	8.781316e+00
2.030000e-06	8.842546e-07	1.666109e-10	6.130380e+00	1.021287e+01
2.040000e-06	9.303800e-07	1.889045e-10	6.450159e+00	1.164360e+01
2.050000e-06	9.765089e-07	2.130444e-10	6.769963e+00	1.307200e+01
2.060000e-06	1.022657e-06	2.366939e-10	7.089900e+00	1.449660e+01
2.070000e-06	1.068735e-06	2.588482e-10	7.409352e+00	1.591592e+01
2.080000e-06	1.114780e-06	2.782681e-10	7.728573e+00	1.732850e+01
2.090000e-06	1.160706e-06	2.926524e-10	8.046965e+00	1.873291e+01
2.100000e-06	1.206464e-06	3.075683e-10	8.364200e+00	2.012777e+01
2.110000e-06	1.252110e-06	3.258005e-10	8.680656e+00	2.151172e+01
2.120000e-06	1.297640e-06	3.472245e-10	8.996308e+00	2.288347e+01
2.130000e-06	1.343159e-06	3.684069e-10	9.311885e+00	2.424175e+01
2.140000e-06	1.388610e-06	3.878245e-10	9.626988e+00	2.558539e+01
2.150000e-06	1.433996e-06	4.054219e-10	9.941639e+00	2.691327e+01
2.160000e-06	1.479312e-06	4.232136e-10	1.025581e+01	2.822433e+01
2.170000e-06	1.524573e-06	4.420222e-10	1.056959e+01	2.951760e+01
2.180000e-06	1.569676e-06	4.590039e-10	1.088229e+01	3.079218e+01
2.190000e-06	1.614526e-06	4.755072e-10	1.119322e+01	3.204725e+01
2.200000e-06	1.659336e-06	4.928924e-10	1.150388e+01	3.328208e+01
2.210000e-06	1.704081e-06	5.098555e-10	1.181409e+01	3.449604e+01
2.220000e-06	1.748649e-06	5.277625e-10	1.212307e+01	3.568855e+01
2.230000e-06	1.793006e-06	5.435577e-10	1.243059e+01	3.685914e+01
2.240000e-06	1.837247e-06	5.562345e-10	1.273731e+01	3.800743e+01
2.250000e-06	1.881410e-06	5.689020e-10	1.304348e+01	3.913312e+01
2.260000e-06	1.925438e-06	5.840253e-10	1.334872e+01	4.023598e+01
2.270000e-06	1.969338e-06	5.994159e-10	1.365307e+01	4.131590e+01
2.280000e-06	2.013145e-06	6.140971e-10	1.395678e+01	4.237281e+01
2.290000e-06	2.056926e-06	6.296605e-10	1.426030e+01	4.340673e+01
2.300000e-06	2.100682e-06	6.444047e-10	1.456365e+01	4.441777e+01
2.310000e-06	2.144334e-06	6.570729e-10	1.486629e+01	4.540607e+01
2.320000e-06	2.187898e-06	6.680951e-10	1.516831e+01	4.637188e+01
2.330000e-06	2.231432e-06	6.784916e-10	1.547012e+01	4.731547e+01
2.340000e-06	2.274881e-06	6.891749e-10	1.577135e+01	4.823719e+01
2.350000e-06	2.318207e-06	7.022577e-10	1.607172e+01	4.913743e+01
2.360000e-06	2.361335e-06	7.178466e-10	1.637072e+01	5.001661e+01
2.370000e-06	2.404158e-06	7.330079e-10	1.666760e+01	5.087520e+01
2.380000e-06	2.446505e-06	7.471429e-10	1.696118e+01	5.171371e+01
2.390000e-06	2.488541e-06	7.605555e-10	1.725261e+01	5.253267e+01
2.400000e-06	2.530462e-06	7.714392e-10	1.754324e+01	5.333260e+01
2.410000e-06	2.572099e-06	7.812379e-10	1.783191e+01	5.411409e+01
2.420000e-06	2.613407e-06	7.917347e-10	1.811829e+01	5.487769e+01
2.430000e-06	2.654370e-06	8.033188e-10	1.840227e+01	5.562397e+01
2.440000e-06	2.694993e-06	8.168454e-10	1.868391e+01	5.635350e+01
2.450000e-06	2.735380e-06	8.321186e-10	1.896391e+01	5.706686e+01
2.460000e-06	2.775597e-06	8.458828e-10	1.924272e+01	5.776458e+01
2.470000e-06	2.815623e-06	8.566227e-10	1.952021e+01	5.844720e+01
2.480000e-06	2.855463e-06	8.644265e-10	1.979642e+01	5.911525e+01
2.490000e-06	2.895163e-06	8.713543e-10	2.007165e+01	5.976921e+01
2.500000e-06	2.934769e-06	8.796063e-10	2.034623e+01	6.040956e+01
2.510000e-06	2.974288e-06	8.871779e-10	2.062021e+01	6.103674e+01
2.520000e-06	3.013679e-06	8.945799e-10	2.089330e+01	6.165116e+01
2.530000e-06	3.052892e-06	9.038398e-10	2.116515e+01	6.225321e+01
2.540000e-06	3.091887e-06	9.127423e-10	2.143550e+01	6.284322e+01
2.550000e-06	3.130657e-06	9.198302e-10	2.170429e+01	6.342153e+01
2.560000e-06	3.169119e-06	9.272453e-10	2.197094e+01	6.398840e+01
2.570000e-06	3.207305e-06	9.364534e-10	2.223567e+01	6.454411e+01
2.580000e-06	3.245318e-06	9.445078e-10	2.249921e+01	6.508885e+01
2.590000e-06	3.283138e-06	9.515549e-10	2.276141e+01	6.562283e+01
2.600000e-06	3.320849e-06	9.601053e-10	2.302286e+01	6.614620e+01
2.610000e-06	3.358367e-06	9.674643e-10	2.328296e+01	6.665910e+01
2.620000e-06	3.395587e-06	9.736205e-10	2.354100e+01	6.716162e+01
2.630000e-06	3.432554e-06	9.779191e-10	2.379729e+01	6.765386e+01
2.640000e-06	3.469203e-06	9.816816e-10	2.405137e+01	6.813588e+01
2.650000e-06	3.505572e-06	9.891005e-10	2.430351e+01	6.860773e+01
2.660000e-06	3.541745e-06	9.982972e-10	2.455429e+01	6.906942e+01
2.670000e-06	3.577674e-06	1.006972e-09	2.480338e+01	6.952100e+01
2.680000e-06	3.613446e-06	1.014283e-09	2.505138e+01	6.996245e+01
2.690000e-06	3.649140e-06	1.021580e-09	2.529884e+01	7.039379e+01
2.700000e-06	3.684715e-06	1.025901e-09	2.554547e+01	7.081503e+01
2.710000e-06	3.720148e-06	1.028048e-09	2.579112e+01	7.122615e+01
2.720000e-06	3.755313e-06	1.033237e-09	2.603492e+01	7.162718e+01
2.730000e-06	3.790137e-06	1.040265e-09	2.627635e+01	7.201811e+01
2.740000e-06	3.824605e-06	1.047137e-09	2.651531e+01	7.239897e+01
2.750000e-06	3.858597e-06	1.054210e-09	2.675097e+01	7.276980e+01
2.760000e-06	3.892093e-06	1.060939e-09	2.698319e+01	7.313063e+01
2.770000e-06	3.925092e-06	1.067391e-09	2.721196e+01	7.348153e+01
2.780000e-06	3.957681e-06	1.073365e-09	2.743790e+01	7.382256e+01
2.790000e-06	3.990045e-06	1.078259e-09	2.766228e+01	7.415383e+01
2.800000e-06	4.022118e-06	1.084391e-09	2.788463e+01	7.447545e+01
2.810000e-06	4.053910e-06	1.090829e-09	2.810504e+01	7.478755e+01
2.820000e-06	4.085539e-06	1.096125e-09	2.832432e+01	7.509028e+01
2.830000e-06	4.117043e-06	1.100880e-09	2.854273e+01	7.538382e+01
2.840000e-06	4.148356e-06	1.102182e-09	2.875982e+01	7.566837e+01
2.850000e-06	4.179399e-06	1.103625e-09	2.897503e+01	7.594412e+01
2.860000e-06	4.210069e-06	1.109290e-09	2.918766e+01	7.621132e+01
2.870000e-06	4.240382e-06	1.114751e-09	2.939781e+01	7.647022e+01
2.880000e-06	4.270488e-06	1.121523e-09	2.960654e+01	7.672108e+01
2.890000e-06	4.300329e-06	1.129314e-09	2.981342e+01	7.696418e+01
2.900000e-06	4.329874e-06	1.134581e-09	3.001825e+01	7.719983e+01
