# Temperatura_=_13.6
# Concentracion g/m^3_=_1620.0
# C_Vs_to_Am_M_A/Vsm_=_65563218390.804596
# pendiente_HvsI_1/m_=_3716.3
# ordenada_HvsI_A/m_=_1297.0
# frecuencia_Hz_=_135100.6546130825

Tiempo_(s)	Campo_(V.s)	Magnetizacion_(V.s)	Campo_(kA/m)	Magnetizacion_(A/m)
0.000000e+00	-5.532924e-06	-8.132997e-10	-3.837569e+01	-5.310751e+01
1.000000e-08	-5.533125e-06	-8.125131e-10	-3.837708e+01	-5.311550e+01
2.000000e-08	-5.532968e-06	-8.132712e-10	-3.837599e+01	-5.312290e+01
3.000000e-08	-5.532364e-06	-8.132663e-10	-3.837180e+01	-5.312957e+01
4.000000e-08	-5.531270e-06	-8.153124e-10	-3.836421e+01	-5.313538e+01
5.000000e-08	-5.529667e-06	-8.320275e-10	-3.835310e+01	-5.314018e+01
6.000000e-08	-5.527419e-06	-8.399323e-10	-3.833751e+01	-5.314384e+01
7.000000e-08	-5.524542e-06	-7.980993e-10	-3.831755e+01	-5.314621e+01
8.000000e-08	-5.521223e-06	-7.336996e-10	-3.829453e+01	-5.314714e+01
9.000000e-08	-5.517524e-06	-7.718641e-10	-3.826887e+01	-5.314649e+01
1.000000e-07	-5.513461e-06	-8.484407e-10	-3.824069e+01	-5.314412e+01
1.100000e-07	-5.509037e-06	-8.675082e-10	-3.821001e+01	-5.313989e+01
1.200000e-07	-5.504345e-06	-7.518632e-10	-3.817747e+01	-5.313367e+01
1.300000e-07	-5.499450e-06	-7.633782e-10	-3.814351e+01	-5.312533e+01
1.400000e-07	-5.494128e-06	-8.255815e-10	-3.810660e+01	-5.311476e+01
1.500000e-07	-5.488307e-06	-8.286369e-10	-3.806623e+01	-5.310184e+01
1.600000e-07	-5.482158e-06	-7.367226e-10	-3.802358e+01	-5.308648e+01
1.700000e-07	-5.475763e-06	-7.264683e-10	-3.797922e+01	-5.306860e+01
1.800000e-07	-5.468964e-06	-8.314929e-10	-3.793207e+01	-5.304810e+01
1.900000e-07	-5.461690e-06	-8.508603e-10	-3.788162e+01	-5.302494e+01
2.000000e-07	-5.454164e-06	-8.119648e-10	-3.782941e+01	-5.299905e+01
2.100000e-07	-5.446379e-06	-7.642413e-10	-3.777542e+01	-5.297039e+01
2.200000e-07	-5.438210e-06	-8.010272e-10	-3.771876e+01	-5.293894e+01
2.300000e-07	-5.429736e-06	-7.886036e-10	-3.765999e+01	-5.290469e+01
2.400000e-07	-5.420886e-06	-7.947478e-10	-3.759860e+01	-5.286763e+01
2.500000e-07	-5.411353e-06	-7.845696e-10	-3.753248e+01	-5.282777e+01
2.600000e-07	-5.401102e-06	-8.263995e-10	-3.746138e+01	-5.278514e+01
2.700000e-07	-5.390297e-06	-8.128184e-10	-3.738644e+01	-5.273976e+01
2.800000e-07	-5.379077e-06	-8.051509e-10	-3.730862e+01	-5.269168e+01
2.900000e-07	-5.367329e-06	-7.831439e-10	-3.722714e+01	-5.264095e+01
3.000000e-07	-5.355116e-06	-8.073172e-10	-3.714243e+01	-5.258764e+01
3.100000e-07	-5.342644e-06	-8.132249e-10	-3.705592e+01	-5.253180e+01
3.200000e-07	-5.329845e-06	-8.091650e-10	-3.696715e+01	-5.247352e+01
3.300000e-07	-5.316583e-06	-7.951106e-10	-3.687517e+01	-5.241287e+01
3.400000e-07	-5.302903e-06	-8.121848e-10	-3.678029e+01	-5.234994e+01
3.500000e-07	-5.288832e-06	-8.096577e-10	-3.668269e+01	-5.228480e+01
3.600000e-07	-5.274198e-06	-7.810090e-10	-3.658119e+01	-5.221756e+01
3.700000e-07	-5.259067e-06	-7.920452e-10	-3.647625e+01	-5.214829e+01
3.800000e-07	-5.243593e-06	-8.187246e-10	-3.636892e+01	-5.207708e+01
3.900000e-07	-5.227596e-06	-8.018027e-10	-3.625797e+01	-5.200402e+01
4.000000e-07	-5.211061e-06	-7.793753e-10	-3.614328e+01	-5.192918e+01
4.100000e-07	-5.194278e-06	-8.215357e-10	-3.602688e+01	-5.185264e+01
4.200000e-07	-5.177239e-06	-8.062738e-10	-3.590870e+01	-5.177447e+01
4.300000e-07	-5.159814e-06	-7.568441e-10	-3.578784e+01	-5.169473e+01
4.400000e-07	-5.141950e-06	-7.656037e-10	-3.566394e+01	-5.161349e+01
4.500000e-07	-5.123655e-06	-8.192712e-10	-3.553704e+01	-5.153078e+01
4.600000e-07	-5.104994e-06	-7.770494e-10	-3.540762e+01	-5.144666e+01
4.700000e-07	-5.085963e-06	-7.603917e-10	-3.527562e+01	-5.136115e+01
4.800000e-07	-5.066637e-06	-7.914223e-10	-3.514157e+01	-5.127428e+01
4.900000e-07	-5.047108e-06	-7.923692e-10	-3.500612e+01	-5.118607e+01
5.000000e-07	-5.027327e-06	-7.504633e-10	-3.486893e+01	-5.109653e+01
5.100000e-07	-5.007306e-06	-7.849946e-10	-3.473007e+01	-5.100564e+01
5.200000e-07	-4.987007e-06	-7.849654e-10	-3.458927e+01	-5.091341e+01
5.300000e-07	-4.966266e-06	-7.466954e-10	-3.444542e+01	-5.081983e+01
5.400000e-07	-4.945107e-06	-7.579505e-10	-3.429866e+01	-5.072486e+01
5.500000e-07	-4.923716e-06	-8.041838e-10	-3.415029e+01	-5.062847e+01
5.600000e-07	-4.902017e-06	-7.651696e-10	-3.399979e+01	-5.053064e+01
5.700000e-07	-4.879931e-06	-7.450671e-10	-3.384660e+01	-5.043133e+01
5.800000e-07	-4.857522e-06	-7.707925e-10	-3.369118e+01	-5.033049e+01
5.900000e-07	-4.834761e-06	-7.618199e-10	-3.353331e+01	-5.022808e+01
6.000000e-07	-4.811642e-06	-7.303509e-10	-3.337296e+01	-5.012405e+01
6.100000e-07	-4.788260e-06	-7.570798e-10	-3.321079e+01	-5.001836e+01
6.200000e-07	-4.764638e-06	-7.627232e-10	-3.304695e+01	-4.991097e+01
6.300000e-07	-4.740769e-06	-7.316605e-10	-3.288140e+01	-4.980182e+01
6.400000e-07	-4.716549e-06	-7.373195e-10	-3.271341e+01	-4.969089e+01
6.500000e-07	-4.691920e-06	-7.521860e-10	-3.254258e+01	-4.957813e+01
6.600000e-07	-4.666897e-06	-7.323549e-10	-3.236903e+01	-4.946351e+01
6.700000e-07	-4.641352e-06	-7.275390e-10	-3.219185e+01	-4.934700e+01
6.800000e-07	-4.615320e-06	-7.465507e-10	-3.201129e+01	-4.922860e+01
6.900000e-07	-4.588805e-06	-7.345968e-10	-3.182739e+01	-4.910828e+01
7.000000e-07	-4.561807e-06	-7.270206e-10	-3.164014e+01	-4.898604e+01
7.100000e-07	-4.534497e-06	-7.355877e-10	-3.145072e+01	-4.886189e+01
7.200000e-07	-4.506964e-06	-7.301763e-10	-3.125975e+01	-4.873583e+01
7.300000e-07	-4.479152e-06	-7.116004e-10	-3.106686e+01	-4.860790e+01
7.400000e-07	-4.451095e-06	-7.260861e-10	-3.087225e+01	-4.847811e+01
7.500000e-07	-4.422871e-06	-7.294336e-10	-3.067650e+01	-4.834651e+01
7.600000e-07	-4.394433e-06	-7.234915e-10	-3.047925e+01	-4.821315e+01
7.700000e-07	-4.365670e-06	-7.217227e-10	-3.027975e+01	-4.807807e+01
7.800000e-07	-4.336586e-06	-7.242291e-10	-3.007803e+01	-4.794133e+01
7.900000e-07	-4.307176e-06	-7.088302e-10	-2.987404e+01	-4.780301e+01
8.000000e-07	-4.277484e-06	-7.127123e-10	-2.966811e+01	-4.766318e+01
8.100000e-07	-4.247469e-06	-7.183129e-10	-2.945993e+01	-4.752192e+01
8.200000e-07	-4.217101e-06	-7.126507e-10	-2.924930e+01	-4.737930e+01
8.300000e-07	-4.186451e-06	-7.028207e-10	-2.903672e+01	-4.723541e+01
8.400000e-07	-4.155458e-06	-7.066340e-10	-2.882175e+01	-4.709033e+01
8.500000e-07	-4.124179e-06	-6.965623e-10	-2.860480e+01	-4.694414e+01
8.600000e-07	-4.092700e-06	-6.873033e-10	-2.838647e+01	-4.679693e+01
8.700000e-07	-4.061086e-06	-6.876369e-10	-2.816720e+01	-4.664878e+01
8.800000e-07	-4.029315e-06	-6.937971e-10	-2.794684e+01	-4.649975e+01
8.900000e-07	-3.997326e-06	-6.919554e-10	-2.772496e+01	-4.634992e+01
9.000000e-07	-3.965152e-06	-6.984305e-10	-2.750181e+01	-4.619935e+01
9.100000e-07	-3.932730e-06	-6.968444e-10	-2.727694e+01	-4.604808e+01
9.200000e-07	-3.899821e-06	-6.801035e-10	-2.704868e+01	-4.589616e+01
9.300000e-07	-3.866424e-06	-6.678373e-10	-2.681704e+01	-4.574362e+01
9.400000e-07	-3.832627e-06	-6.671388e-10	-2.658263e+01	-4.559047e+01
9.500000e-07	-3.798347e-06	-6.684279e-10	-2.634488e+01	-4.543672e+01
9.600000e-07	-3.763570e-06	-6.705108e-10	-2.610366e+01	-4.528235e+01
9.700000e-07	-3.728400e-06	-6.818710e-10	-2.585973e+01	-4.512735e+01
9.800000e-07	-3.693019e-06	-6.840649e-10	-2.561433e+01	-4.497167e+01
9.900000e-07	-3.657552e-06	-6.758517e-10	-2.536833e+01	-4.481524e+01
1.000000e-06	-3.621939e-06	-6.680056e-10	-2.512133e+01	-4.465801e+01
1.010000e-06	-3.586123e-06	-6.650079e-10	-2.487291e+01	-4.449987e+01
1.020000e-06	-3.550099e-06	-6.560247e-10	-2.462305e+01	-4.434072e+01
1.030000e-06	-3.513908e-06	-6.539731e-10	-2.437204e+01	-4.418044e+01
1.040000e-06	-3.477582e-06	-6.561237e-10	-2.412009e+01	-4.401888e+01
1.050000e-06	-3.440973e-06	-6.569115e-10	-2.386617e+01	-4.385591e+01
1.060000e-06	-3.403991e-06	-6.494339e-10	-2.360967e+01	-4.369134e+01
1.070000e-06	-3.366772e-06	-6.475605e-10	-2.335152e+01	-4.352500e+01
1.080000e-06	-3.329392e-06	-6.430571e-10	-2.309226e+01	-4.335670e+01
1.090000e-06	-3.291752e-06	-6.386775e-10	-2.283119e+01	-4.318622e+01
1.100000e-06	-3.253787e-06	-6.339107e-10	-2.256787e+01	-4.301337e+01
1.110000e-06	-3.215604e-06	-6.304789e-10	-2.230303e+01	-4.283792e+01
1.120000e-06	-3.177346e-06	-6.219855e-10	-2.203769e+01	-4.265965e+01
1.130000e-06	-3.138867e-06	-6.203616e-10	-2.177080e+01	-4.247831e+01
1.140000e-06	-3.100025e-06	-6.217119e-10	-2.150140e+01	-4.229368e+01
1.150000e-06	-3.060902e-06	-6.220513e-10	-2.123004e+01	-4.210551e+01
1.160000e-06	-3.021625e-06	-6.185313e-10	-2.095762e+01	-4.191358e+01
1.170000e-06	-2.982271e-06	-6.168772e-10	-2.068467e+01	-4.171764e+01
1.180000e-06	-2.942747e-06	-6.130143e-10	-2.041053e+01	-4.151747e+01
1.190000e-06	-2.903066e-06	-6.088204e-10	-2.013531e+01	-4.131283e+01
1.200000e-06	-2.863283e-06	-6.070489e-10	-1.985938e+01	-4.110350e+01
1.210000e-06	-2.823439e-06	-6.061203e-10	-1.958303e+01	-4.088927e+01
1.220000e-06	-2.783486e-06	-6.043201e-10	-1.930592e+01	-4.066994e+01
1.230000e-06	-2.743295e-06	-6.034841e-10	-1.902716e+01	-4.044530e+01
1.240000e-06	-2.702885e-06	-6.020388e-10	-1.874688e+01	-4.021516e+01
1.250000e-06	-2.662235e-06	-5.959099e-10	-1.846494e+01	-3.997936e+01
1.260000e-06	-2.621213e-06	-5.910355e-10	-1.818041e+01	-3.973772e+01
1.270000e-06	-2.579968e-06	-5.886583e-10	-1.789434e+01	-3.949010e+01
1.280000e-06	-2.538475e-06	-5.867704e-10	-1.760655e+01	-3.923634e+01
1.290000e-06	-2.496615e-06	-5.813540e-10	-1.731622e+01	-3.897632e+01
1.300000e-06	-2.454539e-06	-5.768855e-10	-1.702439e+01	-3.870991e+01
1.310000e-06	-2.412182e-06	-5.709734e-10	-1.673060e+01	-3.843700e+01
1.320000e-06	-2.369473e-06	-5.651438e-10	-1.643438e+01	-3.815750e+01
1.330000e-06	-2.326506e-06	-5.600988e-10	-1.613636e+01	-3.787130e+01
1.340000e-06	-2.283319e-06	-5.581769e-10	-1.583682e+01	-3.757832e+01
1.350000e-06	-2.239933e-06	-5.547717e-10	-1.553590e+01	-3.727847e+01
1.360000e-06	-2.196466e-06	-5.510337e-10	-1.523442e+01	-3.697168e+01
1.370000e-06	-2.152904e-06	-5.467022e-10	-1.493228e+01	-3.665788e+01
1.380000e-06	-2.109237e-06	-5.432584e-10	-1.462941e+01	-3.633698e+01
1.390000e-06	-2.065488e-06	-5.381208e-10	-1.432597e+01	-3.600891e+01
1.400000e-06	-2.021670e-06	-5.337389e-10	-1.402206e+01	-3.567359e+01
1.410000e-06	-1.977831e-06	-5.282778e-10	-1.371800e+01	-3.533092e+01
1.420000e-06	-1.933939e-06	-5.222705e-10	-1.341357e+01	-3.498083e+01
1.430000e-06	-1.889902e-06	-5.160510e-10	-1.310813e+01	-3.462319e+01
1.440000e-06	-1.845725e-06	-5.123300e-10	-1.280173e+01	-3.425791e+01
1.450000e-06	-1.801420e-06	-5.083236e-10	-1.249443e+01	-3.388484e+01
1.460000e-06	-1.756992e-06	-5.014766e-10	-1.218628e+01	-3.350385e+01
1.470000e-06	-1.712377e-06	-4.907964e-10	-1.187684e+01	-3.311477e+01
1.480000e-06	-1.667547e-06	-4.799584e-10	-1.156590e+01	-3.271743e+01
1.490000e-06	-1.622587e-06	-4.726541e-10	-1.125407e+01	-3.231164e+01
1.500000e-06	-1.577519e-06	-4.675716e-10	-1.094148e+01	-3.189716e+01
1.510000e-06	-1.532309e-06	-4.615489e-10	-1.062791e+01	-3.147377e+01
1.520000e-06	-1.487013e-06	-4.524825e-10	-1.031374e+01	-3.104121e+01
1.530000e-06	-1.441662e-06	-4.412920e-10	-9.999191e+00	-3.059919e+01
1.540000e-06	-1.396166e-06	-4.310003e-10	-9.683636e+00	-3.014741e+01
1.550000e-06	-1.350645e-06	-4.210847e-10	-9.367911e+00	-2.968556e+01
1.560000e-06	-1.305111e-06	-4.128531e-10	-9.052094e+00	-2.921328e+01
1.570000e-06	-1.259448e-06	-4.074156e-10	-8.735375e+00	-2.873022e+01
1.580000e-06	-1.213715e-06	-4.017932e-10	-8.418182e+00	-2.823599e+01
1.590000e-06	-1.167941e-06	-3.942020e-10	-8.100699e+00	-2.773022e+01
1.600000e-06	-1.122111e-06	-3.841369e-10	-7.782824e+00	-2.721248e+01
1.610000e-06	-1.076196e-06	-3.728280e-10	-7.464363e+00	-2.668237e+01
1.620000e-06	-1.030082e-06	-3.611833e-10	-7.144523e+00	-2.613946e+01
1.630000e-06	-9.838743e-07	-3.514628e-10	-6.824032e+00	-2.558332e+01
1.640000e-06	-9.376293e-07	-3.409732e-10	-6.503283e+00	-2.501352e+01
1.650000e-06	-8.913039e-07	-3.315293e-10	-6.181975e+00	-2.442964e+01
1.660000e-06	-8.449174e-07	-3.215285e-10	-5.860244e+00	-2.383126e+01
1.670000e-06	-7.984487e-07	-3.130838e-10	-5.537943e+00	-2.321796e+01
1.680000e-06	-7.519917e-07	-3.042410e-10	-5.215722e+00	-2.258937e+01
1.690000e-06	-7.054641e-07	-2.965126e-10	-4.893013e+00	-2.194510e+01
1.700000e-06	-6.588107e-07	-2.880171e-10	-4.569431e+00	-2.128481e+01
1.710000e-06	-6.120905e-07	-2.759373e-10	-4.245385e+00	-2.060818e+01
1.720000e-06	-5.653277e-07	-2.620857e-10	-3.921044e+00	-1.991491e+01
1.730000e-06	-5.185715e-07	-2.495777e-10	-3.596748e+00	-1.920477e+01
1.740000e-06	-4.718040e-07	-2.385389e-10	-3.272375e+00	-1.847754e+01
1.750000e-06	-4.250775e-07	-2.303140e-10	-2.948286e+00	-1.773307e+01
1.760000e-06	-3.783951e-07	-2.234392e-10	-2.624503e+00	-1.697124e+01
1.770000e-06	-3.316704e-07	-2.168723e-10	-2.300426e+00	-1.619201e+01
1.780000e-06	-2.848082e-07	-2.108917e-10	-1.975395e+00	-1.539536e+01
1.790000e-06	-2.378601e-07	-2.004837e-10	-1.649768e+00	-1.458137e+01
1.800000e-06	-1.908919e-07	-1.853476e-10	-1.324003e+00	-1.375016e+01
1.810000e-06	-1.439418e-07	-1.692195e-10	-9.983628e-01	-1.290193e+01
1.820000e-06	-9.701283e-08	-1.547917e-10	-6.728692e-01	-1.203693e+01
1.830000e-06	-5.006301e-08	-1.421197e-10	-3.472309e-01	-1.115551e+01
1.840000e-06	-3.128887e-09	-1.304631e-10	-2.170158e-02	-1.025806e+01
1.850000e-06	4.375123e-08	-1.214047e-10	3.034532e-01	-9.345050e+00
1.860000e-06	9.066872e-08	-1.133446e-10	6.288672e-01	-8.417039e+00
1.870000e-06	1.376768e-07	-1.029098e-10	9.549094e-01	-7.474640e+00
1.880000e-06	1.846797e-07	-8.955279e-11	1.280916e+00	-6.518542e+00
1.890000e-06	2.316665e-07	-7.216634e-11	1.606811e+00	-5.549504e+00
1.900000e-06	2.786457e-07	-5.481636e-11	1.932652e+00	-4.568349e+00
1.910000e-06	3.255767e-07	-4.002717e-11	2.258160e+00	-3.575966e+00
1.920000e-06	3.724879e-07	-2.775323e-11	2.583531e+00	-2.573305e+00
1.930000e-06	4.194183e-07	-1.644706e-11	2.909034e+00	-1.561375e+00
1.940000e-06	4.663204e-07	-6.596339e-12	3.234341e+00	-5.412364e-01
1.950000e-06	5.131614e-07	4.069394e-12	3.559225e+00	4.860012e-01
1.960000e-06	5.599119e-07	1.728488e-11	3.883481e+00	1.519184e+00
1.970000e-06	6.065813e-07	3.286553e-11	4.207174e+00	2.557118e+00
1.980000e-06	6.531541e-07	4.873793e-11	4.530197e+00	3.598579e+00
1.990000e-06	6.997054e-07	6.457257e-11	4.853071e+00	4.642315e+00
2.000000e-06	7.462279e-07	8.051087e-11	5.175746e+00	5.687053e+00
2.010000e-06	7.926315e-07	9.498126e-11	5.497596e+00	6.731507e+00
2.020000e-06	8.389908e-07	1.071428e-10	5.819138e+00	7.774381e+00
2.030000e-06	8.853105e-07	1.198838e-10	6.140406e+00	8.814383e+00
2.040000e-06	9.315394e-07	1.341293e-10	6.461044e+00	9.850222e+00
2.050000e-06	9.777291e-07	1.494124e-10	6.781410e+00	1.088063e+01
2.060000e-06	1.023897e-06	1.645111e-10	7.101627e+00	1.190434e+01
2.070000e-06	1.069945e-06	1.807882e-10	7.421007e+00	1.292012e+01
2.080000e-06	1.115873e-06	1.971564e-10	7.739556e+00	1.392679e+01
2.090000e-06	1.161712e-06	2.122254e-10	8.057492e+00	1.492319e+01
2.100000e-06	1.207407e-06	2.270052e-10	8.374427e+00	1.590820e+01
2.110000e-06	1.253051e-06	2.406211e-10	8.691007e+00	1.688075e+01
2.120000e-06	1.298695e-06	2.546617e-10	9.007589e+00	1.783986e+01
2.130000e-06	1.344249e-06	2.690696e-10	9.323548e+00	1.878456e+01
2.140000e-06	1.389716e-06	2.813634e-10	9.638902e+00	1.971399e+01
2.150000e-06	1.435132e-06	2.923448e-10	9.953900e+00	2.062732e+01
2.160000e-06	1.480494e-06	3.056379e-10	1.026853e+01	2.152383e+01
2.170000e-06	1.525692e-06	3.193409e-10	1.058202e+01	2.240285e+01
2.180000e-06	1.570707e-06	3.305948e-10	1.089424e+01	2.326380e+01
2.190000e-06	1.615644e-06	3.408996e-10	1.120591e+01	2.410616e+01
2.200000e-06	1.660505e-06	3.522324e-10	1.151706e+01	2.492952e+01
2.210000e-06	1.705244e-06	3.635819e-10	1.182736e+01	2.573352e+01
2.220000e-06	1.749870e-06	3.758906e-10	1.213688e+01	2.651791e+01
2.230000e-06	1.794286e-06	3.869748e-10	1.244495e+01	2.728251e+01
2.240000e-06	1.838515e-06	3.947991e-10	1.275172e+01	2.802720e+01
2.250000e-06	1.882649e-06	4.011826e-10	1.305783e+01	2.875197e+01
2.260000e-06	1.926652e-06	4.086482e-10	1.336302e+01	2.945685e+01
2.270000e-06	1.970533e-06	4.171494e-10	1.366738e+01	3.014198e+01
2.280000e-06	2.014356e-06	4.266081e-10	1.397133e+01	3.080753e+01
2.290000e-06	2.058152e-06	4.357484e-10	1.427509e+01	3.145376e+01
2.300000e-06	2.101885e-06	4.448971e-10	1.457842e+01	3.208099e+01
2.310000e-06	2.145549e-06	4.540812e-10	1.488127e+01	3.268958e+01
2.320000e-06	2.189133e-06	4.622924e-10	1.518356e+01	3.327996e+01
2.330000e-06	2.232639e-06	4.686419e-10	1.548531e+01	3.385260e+01
2.340000e-06	2.276004e-06	4.736059e-10	1.578609e+01	3.440800e+01
2.350000e-06	2.319222e-06	4.784407e-10	1.608584e+01	3.494670e+01
2.360000e-06	2.362346e-06	4.842499e-10	1.638495e+01	3.546929e+01
2.370000e-06	2.405268e-06	4.927520e-10	1.668264e+01	3.597636e+01
2.380000e-06	2.447894e-06	5.028847e-10	1.697829e+01	3.646852e+01
2.390000e-06	2.490216e-06	5.126524e-10	1.727184e+01	3.694641e+01
2.400000e-06	2.532203e-06	5.205358e-10	1.756305e+01	3.741066e+01
2.410000e-06	2.573870e-06	5.277694e-10	1.785205e+01	3.786191e+01
2.420000e-06	2.615211e-06	5.359719e-10	1.813878e+01	3.830079e+01
2.430000e-06	2.656154e-06	5.438394e-10	1.842276e+01	3.872793e+01
2.440000e-06	2.696832e-06	5.511271e-10	1.870490e+01	3.914394e+01
2.450000e-06	2.737324e-06	5.594769e-10	1.898575e+01	3.954941e+01
2.460000e-06	2.777539e-06	5.672905e-10	1.926467e+01	3.994491e+01
2.470000e-06	2.817578e-06	5.724633e-10	1.954238e+01	4.033100e+01
2.480000e-06	2.857490e-06	5.753039e-10	1.981920e+01	4.070819e+01
2.490000e-06	2.897256e-06	5.790330e-10	2.009501e+01	4.107697e+01
2.500000e-06	2.936895e-06	5.847269e-10	2.036995e+01	4.143778e+01
2.510000e-06	2.976428e-06	5.903202e-10	2.064414e+01	4.179104e+01
2.520000e-06	3.015795e-06	5.957615e-10	2.091718e+01	4.213713e+01
2.530000e-06	3.054937e-06	6.023646e-10	2.118867e+01	4.247638e+01
2.540000e-06	3.093903e-06	6.075479e-10	2.145893e+01	4.280910e+01
2.550000e-06	3.132646e-06	6.110048e-10	2.172765e+01	4.313555e+01
2.560000e-06	3.171141e-06	6.148032e-10	2.199465e+01	4.345593e+01
2.570000e-06	3.209396e-06	6.194445e-10	2.225998e+01	4.377044e+01
2.580000e-06	3.247405e-06	6.233378e-10	2.252361e+01	4.407921e+01
2.590000e-06	3.285139e-06	6.265331e-10	2.278533e+01	4.438234e+01
2.600000e-06	3.322673e-06	6.313227e-10	2.304566e+01	4.467992e+01
2.610000e-06	3.360101e-06	6.381221e-10	2.330525e+01	4.497198e+01
2.620000e-06	3.397298e-06	6.453690e-10	2.356325e+01	4.525852e+01
2.630000e-06	3.434230e-06	6.503722e-10	2.381940e+01	4.553953e+01
2.640000e-06	3.470859e-06	6.515860e-10	2.407346e+01	4.581497e+01
2.650000e-06	3.507172e-06	6.525328e-10	2.432532e+01	4.608476e+01
2.660000e-06	3.543285e-06	6.554932e-10	2.457579e+01	4.634884e+01
2.670000e-06	3.579204e-06	6.589461e-10	2.482493e+01	4.660710e+01
2.680000e-06	3.614999e-06	6.621334e-10	2.507319e+01	4.685942e+01
2.690000e-06	3.650664e-06	6.660095e-10	2.532056e+01	4.710571e+01
2.700000e-06	3.686159e-06	6.706542e-10	2.556675e+01	4.734582e+01
2.710000e-06	3.721458e-06	6.745873e-10	2.581158e+01	4.757965e+01
2.720000e-06	3.756448e-06	6.777424e-10	2.605427e+01	4.780707e+01
2.730000e-06	3.791168e-06	6.797253e-10	2.629508e+01	4.802796e+01
2.740000e-06	3.825524e-06	6.812735e-10	2.653337e+01	4.824221e+01
2.750000e-06	3.859492e-06	6.829131e-10	2.676896e+01	4.844973e+01
2.760000e-06	3.893111e-06	6.846968e-10	2.700215e+01	4.865044e+01
2.770000e-06	3.926201e-06	6.874953e-10	2.723165e+01	4.884426e+01
2.780000e-06	3.958808e-06	6.931881e-10	2.745781e+01	4.903114e+01
2.790000e-06	3.991052e-06	6.998658e-10	2.768145e+01	4.921104e+01
2.800000e-06	4.022999e-06	7.060847e-10	2.790303e+01	4.938397e+01
2.810000e-06	4.054743e-06	7.107494e-10	2.812320e+01	4.954991e+01
2.820000e-06	4.086344e-06	7.134738e-10	2.834239e+01	4.970892e+01
2.830000e-06	4.117809e-06	7.147813e-10	2.856062e+01	4.986103e+01
2.840000e-06	4.149079e-06	7.143314e-10	2.877751e+01	5.000633e+01
2.850000e-06	4.180084e-06	7.156690e-10	2.899255e+01	5.014491e+01
2.860000e-06	4.210743e-06	7.187406e-10	2.920520e+01	5.027691e+01
2.870000e-06	4.241060e-06	7.218738e-10	2.941548e+01	5.040245e+01
2.880000e-06	4.271053e-06	7.267782e-10	2.962350e+01	5.052172e+01
2.890000e-06	4.300747e-06	7.300288e-10	2.982946e+01	5.063488e+01
2.900000e-06	4.330143e-06	7.319519e-10	3.003334e+01	5.074215e+01
