# Temperatura_=_-0.4
# Concentracion g/m^3_=_1620.0
# C_Vs_to_Am_M_A/Vsm_=_65563218390.804596
# pendiente_HvsI_1/m_=_3716.3
# ordenada_HvsI_A/m_=_1297.0
# frecuencia_Hz_=_135086.80484684193

Tiempo_(s)	Campo_(V.s)	Magnetizacion_(V.s)	Campo_(kA/m)	Magnetizacion_(A/m)
0.000000e+00	-5.525117e-06	-1.310922e-09	-3.838472e+01	-8.594063e+01
1.000000e-08	-5.525335e-06	-1.311821e-09	-3.838623e+01	-8.594332e+01
2.000000e-08	-5.525296e-06	-1.310677e-09	-3.838596e+01	-8.594606e+01
3.000000e-08	-5.524913e-06	-1.308584e-09	-3.838331e+01	-8.594878e+01
4.000000e-08	-5.524059e-06	-1.301999e-09	-3.837737e+01	-8.595139e+01
5.000000e-08	-5.522714e-06	-1.293567e-09	-3.836802e+01	-8.595377e+01
6.000000e-08	-5.520814e-06	-1.290595e-09	-3.835483e+01	-8.595580e+01
7.000000e-08	-5.518361e-06	-1.294464e-09	-3.833779e+01	-8.595733e+01
8.000000e-08	-5.515436e-06	-1.333770e-09	-3.831746e+01	-8.595821e+01
9.000000e-08	-5.511914e-06	-1.363313e-09	-3.829299e+01	-8.595824e+01
1.000000e-07	-5.507829e-06	-1.277072e-09	-3.826462e+01	-8.595726e+01
1.100000e-07	-5.503496e-06	-1.195927e-09	-3.823451e+01	-8.595506e+01
1.200000e-07	-5.499086e-06	-1.288651e-09	-3.820387e+01	-8.595144e+01
1.300000e-07	-5.494354e-06	-1.353090e-09	-3.817100e+01	-8.594619e+01
1.400000e-07	-5.489066e-06	-1.326249e-09	-3.813426e+01	-8.593908e+01
1.500000e-07	-5.483443e-06	-1.170478e-09	-3.809520e+01	-8.592990e+01
1.600000e-07	-5.477653e-06	-1.257717e-09	-3.805497e+01	-8.591841e+01
1.700000e-07	-5.471431e-06	-1.368740e-09	-3.801174e+01	-8.590440e+01
1.800000e-07	-5.464674e-06	-1.352754e-09	-3.796481e+01	-8.588764e+01
1.900000e-07	-5.457548e-06	-1.237268e-09	-3.791530e+01	-8.586790e+01
2.000000e-07	-5.450128e-06	-1.257472e-09	-3.786375e+01	-8.584497e+01
2.100000e-07	-5.442432e-06	-1.367719e-09	-3.781028e+01	-8.581863e+01
2.200000e-07	-5.434453e-06	-1.356662e-09	-3.775485e+01	-8.578868e+01
2.300000e-07	-5.426187e-06	-1.273104e-09	-3.769742e+01	-8.575492e+01
2.400000e-07	-5.417525e-06	-1.265235e-09	-3.763725e+01	-8.571716e+01
2.500000e-07	-5.408186e-06	-1.359021e-09	-3.757236e+01	-8.567521e+01
2.600000e-07	-5.398175e-06	-1.341926e-09	-3.750281e+01	-8.562892e+01
2.700000e-07	-5.387536e-06	-1.296723e-09	-3.742890e+01	-8.557812e+01
2.800000e-07	-5.376328e-06	-1.267661e-09	-3.735104e+01	-8.552266e+01
2.900000e-07	-5.364713e-06	-1.335397e-09	-3.727035e+01	-8.546243e+01
3.000000e-07	-5.352839e-06	-1.305452e-09	-3.718785e+01	-8.539729e+01
3.100000e-07	-5.340643e-06	-1.280493e-09	-3.710312e+01	-8.532715e+01
3.200000e-07	-5.327840e-06	-1.266552e-09	-3.701417e+01	-8.525192e+01
3.300000e-07	-5.314665e-06	-1.338566e-09	-3.692264e+01	-8.517153e+01
3.400000e-07	-5.301279e-06	-1.305682e-09	-3.682965e+01	-8.508590e+01
3.500000e-07	-5.287442e-06	-1.263817e-09	-3.673352e+01	-8.499501e+01
3.600000e-07	-5.273175e-06	-1.265758e-09	-3.663440e+01	-8.489881e+01
3.700000e-07	-5.258528e-06	-1.321070e-09	-3.653264e+01	-8.479729e+01
3.800000e-07	-5.243319e-06	-1.261099e-09	-3.642698e+01	-8.469045e+01
3.900000e-07	-5.227479e-06	-1.254066e-09	-3.631693e+01	-8.457829e+01
4.000000e-07	-5.211284e-06	-1.315763e-09	-3.620443e+01	-8.446084e+01
4.100000e-07	-5.194744e-06	-1.295614e-09	-3.608951e+01	-8.433813e+01
4.200000e-07	-5.177724e-06	-1.205776e-09	-3.597127e+01	-8.421021e+01
4.300000e-07	-5.160409e-06	-1.265572e-09	-3.585098e+01	-8.407713e+01
4.400000e-07	-5.142917e-06	-1.330760e-09	-3.572946e+01	-8.393897e+01
4.500000e-07	-5.124960e-06	-1.225364e-09	-3.560470e+01	-8.379580e+01
4.600000e-07	-5.106407e-06	-1.204326e-09	-3.547581e+01	-8.364771e+01
4.700000e-07	-5.087544e-06	-1.299143e-09	-3.534476e+01	-8.349479e+01
4.800000e-07	-5.068424e-06	-1.273072e-09	-3.521193e+01	-8.333715e+01
4.900000e-07	-5.048971e-06	-1.187526e-09	-3.507679e+01	-8.317490e+01
5.000000e-07	-5.029267e-06	-1.270951e-09	-3.493990e+01	-8.300815e+01
5.100000e-07	-5.009353e-06	-1.276611e-09	-3.480155e+01	-8.283702e+01
5.200000e-07	-4.989059e-06	-1.193636e-09	-3.466056e+01	-8.266164e+01
5.300000e-07	-4.968361e-06	-1.227067e-09	-3.451676e+01	-8.248213e+01
5.400000e-07	-4.947431e-06	-1.298333e-09	-3.437136e+01	-8.229864e+01
5.500000e-07	-4.926218e-06	-1.197091e-09	-3.422398e+01	-8.211130e+01
5.600000e-07	-4.904614e-06	-1.185602e-09	-3.407389e+01	-8.192023e+01
5.700000e-07	-4.882621e-06	-1.261842e-09	-3.392110e+01	-8.172559e+01
5.800000e-07	-4.860313e-06	-1.235932e-09	-3.376612e+01	-8.152751e+01
5.900000e-07	-4.837643e-06	-1.174122e-09	-3.360862e+01	-8.132613e+01
6.000000e-07	-4.814640e-06	-1.239346e-09	-3.344881e+01	-8.112159e+01
6.100000e-07	-4.791359e-06	-1.236328e-09	-3.328708e+01	-8.091402e+01
6.200000e-07	-4.767759e-06	-1.188055e-09	-3.312311e+01	-8.070355e+01
6.300000e-07	-4.743956e-06	-1.203770e-09	-3.295775e+01	-8.049033e+01
6.400000e-07	-4.719964e-06	-1.224965e-09	-3.279107e+01	-8.027448e+01
6.500000e-07	-4.695664e-06	-1.182881e-09	-3.262225e+01	-8.005612e+01
6.600000e-07	-4.670980e-06	-1.194697e-09	-3.245076e+01	-7.983538e+01
6.700000e-07	-4.645772e-06	-1.211508e-09	-3.227563e+01	-7.961236e+01
6.800000e-07	-4.620002e-06	-1.187881e-09	-3.209660e+01	-7.938719e+01
6.900000e-07	-4.593721e-06	-1.183834e-09	-3.191402e+01	-7.915996e+01
7.000000e-07	-4.566981e-06	-1.202332e-09	-3.172825e+01	-7.893078e+01
7.100000e-07	-4.539842e-06	-1.182486e-09	-3.153971e+01	-7.869972e+01
7.200000e-07	-4.512357e-06	-1.171235e-09	-3.134876e+01	-7.846689e+01
7.300000e-07	-4.484728e-06	-1.178406e-09	-3.115681e+01	-7.823234e+01
7.400000e-07	-4.456954e-06	-1.163511e-09	-3.096386e+01	-7.799616e+01
7.500000e-07	-4.428914e-06	-1.161061e-09	-3.076906e+01	-7.775838e+01
7.600000e-07	-4.400605e-06	-1.168791e-09	-3.057239e+01	-7.751907e+01
7.700000e-07	-4.371946e-06	-1.162160e-09	-3.037328e+01	-7.727825e+01
7.800000e-07	-4.342884e-06	-1.152480e-09	-3.017138e+01	-7.703596e+01
7.900000e-07	-4.313522e-06	-1.165342e-09	-2.996739e+01	-7.679221e+01
8.000000e-07	-4.283947e-06	-1.150284e-09	-2.976192e+01	-7.654700e+01
8.100000e-07	-4.254079e-06	-1.133355e-09	-2.955442e+01	-7.630032e+01
8.200000e-07	-4.223879e-06	-1.136115e-09	-2.934461e+01	-7.605215e+01
8.300000e-07	-4.193464e-06	-1.144895e-09	-2.913331e+01	-7.580247e+01
8.400000e-07	-4.162797e-06	-1.125124e-09	-2.892026e+01	-7.555122e+01
8.500000e-07	-4.131781e-06	-1.125454e-09	-2.870477e+01	-7.529834e+01
8.600000e-07	-4.100465e-06	-1.127750e-09	-2.848722e+01	-7.504377e+01
8.700000e-07	-4.068943e-06	-1.116996e-09	-2.826822e+01	-7.478742e+01
8.800000e-07	-4.037300e-06	-1.101707e-09	-2.804839e+01	-7.452920e+01
8.900000e-07	-4.005554e-06	-1.110884e-09	-2.782784e+01	-7.426899e+01
9.000000e-07	-3.973613e-06	-1.101571e-09	-2.760594e+01	-7.400667e+01
9.100000e-07	-3.941346e-06	-1.088727e-09	-2.738177e+01	-7.374211e+01
9.200000e-07	-3.908664e-06	-1.087137e-09	-2.715471e+01	-7.347517e+01
9.300000e-07	-3.875590e-06	-1.089910e-09	-2.692494e+01	-7.320568e+01
9.400000e-07	-3.842161e-06	-1.074124e-09	-2.669269e+01	-7.293348e+01
9.500000e-07	-3.808257e-06	-1.074243e-09	-2.645716e+01	-7.265840e+01
9.600000e-07	-3.773745e-06	-1.080638e-09	-2.621739e+01	-7.238024e+01
9.700000e-07	-3.738817e-06	-1.072599e-09	-2.597474e+01	-7.209881e+01
9.800000e-07	-3.703715e-06	-1.062409e-09	-2.573087e+01	-7.181392e+01
9.900000e-07	-3.668421e-06	-1.064750e-09	-2.548567e+01	-7.152534e+01
1.000000e-06	-3.632873e-06	-1.060418e-09	-2.523871e+01	-7.123288e+01
1.010000e-06	-3.597151e-06	-1.049373e-09	-2.499053e+01	-7.093631e+01
1.020000e-06	-3.561314e-06	-1.047221e-09	-2.474157e+01	-7.063542e+01
1.030000e-06	-3.525335e-06	-1.043451e-09	-2.449161e+01	-7.032997e+01
1.040000e-06	-3.489131e-06	-1.033354e-09	-2.424008e+01	-7.001976e+01
1.050000e-06	-3.452728e-06	-1.027590e-09	-2.398719e+01	-6.970456e+01
1.060000e-06	-3.415977e-06	-1.026554e-09	-2.373186e+01	-6.938415e+01
1.070000e-06	-3.378857e-06	-1.015428e-09	-2.347398e+01	-6.905831e+01
1.080000e-06	-3.341562e-06	-1.013110e-09	-2.321488e+01	-6.872684e+01
1.090000e-06	-3.304038e-06	-1.016126e-09	-2.295419e+01	-6.838954e+01
1.100000e-06	-3.266309e-06	-1.014481e-09	-2.269207e+01	-6.804620e+01
1.110000e-06	-3.228399e-06	-1.003416e-09	-2.242870e+01	-6.769664e+01
1.120000e-06	-3.190248e-06	-9.985454e-10	-2.216366e+01	-6.734069e+01
1.130000e-06	-3.151848e-06	-9.878733e-10	-2.189688e+01	-6.697816e+01
1.140000e-06	-3.113227e-06	-9.784756e-10	-2.162857e+01	-6.660891e+01
1.150000e-06	-3.074374e-06	-9.727327e-10	-2.135864e+01	-6.623279e+01
1.160000e-06	-3.035288e-06	-9.725241e-10	-2.108710e+01	-6.584968e+01
1.170000e-06	-2.996095e-06	-9.679814e-10	-2.081481e+01	-6.545944e+01
1.180000e-06	-2.956664e-06	-9.666876e-10	-2.054087e+01	-6.506197e+01
1.190000e-06	-2.916871e-06	-9.610991e-10	-2.026442e+01	-6.465719e+01
1.200000e-06	-2.877049e-06	-9.532174e-10	-1.998776e+01	-6.424501e+01
1.210000e-06	-2.837288e-06	-9.433623e-10	-1.971153e+01	-6.382536e+01
1.220000e-06	-2.797365e-06	-9.363262e-10	-1.943417e+01	-6.339820e+01
1.230000e-06	-2.757202e-06	-9.282159e-10	-1.915514e+01	-6.296349e+01
1.240000e-06	-2.716939e-06	-9.241984e-10	-1.887543e+01	-6.252118e+01
1.250000e-06	-2.676514e-06	-9.197747e-10	-1.859458e+01	-6.207127e+01
1.260000e-06	-2.635898e-06	-9.154320e-10	-1.831241e+01	-6.161375e+01
1.270000e-06	-2.594990e-06	-9.122568e-10	-1.802821e+01	-6.114860e+01
1.280000e-06	-2.553792e-06	-9.058060e-10	-1.774199e+01	-6.067585e+01
1.290000e-06	-2.512405e-06	-8.941937e-10	-1.745446e+01	-6.019549e+01
1.300000e-06	-2.470619e-06	-8.828422e-10	-1.716417e+01	-5.970753e+01
1.310000e-06	-2.428559e-06	-8.750333e-10	-1.687196e+01	-5.921200e+01
1.320000e-06	-2.386188e-06	-8.682043e-10	-1.657759e+01	-5.870891e+01
1.330000e-06	-2.343485e-06	-8.632837e-10	-1.628093e+01	-5.819826e+01
1.340000e-06	-2.300555e-06	-8.614819e-10	-1.598268e+01	-5.768005e+01
1.350000e-06	-2.257387e-06	-8.551606e-10	-1.568277e+01	-5.715430e+01
1.360000e-06	-2.214028e-06	-8.410962e-10	-1.538155e+01	-5.662099e+01
1.370000e-06	-2.170454e-06	-8.283534e-10	-1.507882e+01	-5.608008e+01
1.380000e-06	-2.126771e-06	-8.165360e-10	-1.477534e+01	-5.553156e+01
1.390000e-06	-2.083043e-06	-8.091871e-10	-1.447155e+01	-5.497535e+01
1.400000e-06	-2.039236e-06	-8.041135e-10	-1.416721e+01	-5.441140e+01
1.410000e-06	-1.995333e-06	-8.011929e-10	-1.386221e+01	-5.383961e+01
1.420000e-06	-1.951328e-06	-7.926280e-10	-1.355649e+01	-5.325988e+01
1.430000e-06	-1.907278e-06	-7.810536e-10	-1.325046e+01	-5.267206e+01
1.440000e-06	-1.863170e-06	-7.660420e-10	-1.294403e+01	-5.207599e+01
1.450000e-06	-1.818898e-06	-7.499522e-10	-1.263645e+01	-5.147149e+01
1.460000e-06	-1.774537e-06	-7.333306e-10	-1.232827e+01	-5.085835e+01
1.470000e-06	-1.730122e-06	-7.230541e-10	-1.201970e+01	-5.023632e+01
1.480000e-06	-1.685515e-06	-7.163240e-10	-1.170980e+01	-4.960514e+01
1.490000e-06	-1.640752e-06	-7.098505e-10	-1.139882e+01	-4.896451e+01
1.500000e-06	-1.595929e-06	-7.032142e-10	-1.108742e+01	-4.831411e+01
1.510000e-06	-1.550942e-06	-6.964091e-10	-1.077488e+01	-4.765357e+01
1.520000e-06	-1.505819e-06	-6.834170e-10	-1.046140e+01	-4.698253e+01
1.530000e-06	-1.460656e-06	-6.646811e-10	-1.014764e+01	-4.630058e+01
1.540000e-06	-1.415336e-06	-6.451459e-10	-9.832785e+00	-4.560727e+01
1.550000e-06	-1.369886e-06	-6.320985e-10	-9.517031e+00	-4.490217e+01
1.560000e-06	-1.324383e-06	-6.223239e-10	-9.200905e+00	-4.418480e+01
1.570000e-06	-1.278792e-06	-6.147643e-10	-8.884170e+00	-4.345467e+01
1.580000e-06	-1.233115e-06	-6.091344e-10	-8.566834e+00	-4.271126e+01
1.590000e-06	-1.187324e-06	-6.028927e-10	-8.248709e+00	-4.195407e+01
1.600000e-06	-1.141502e-06	-5.889417e-10	-7.930371e+00	-4.118255e+01
1.610000e-06	-1.095621e-06	-5.700078e-10	-7.611623e+00	-4.039618e+01
1.620000e-06	-1.049610e-06	-5.509514e-10	-7.291971e+00	-3.959442e+01
1.630000e-06	-1.003500e-06	-5.337838e-10	-6.971628e+00	-3.877674e+01
1.640000e-06	-9.572049e-07	-5.188003e-10	-6.650003e+00	-3.794261e+01
1.650000e-06	-9.108252e-07	-5.045285e-10	-6.327788e+00	-3.709151e+01
1.660000e-06	-8.644581e-07	-4.935873e-10	-6.005662e+00	-3.622294e+01
1.670000e-06	-8.180190e-07	-4.820025e-10	-5.683035e+00	-3.533643e+01
1.680000e-06	-7.715177e-07	-4.694513e-10	-5.359975e+00	-3.443151e+01
1.690000e-06	-7.250324e-07	-4.538857e-10	-5.037027e+00	-3.350776e+01
1.700000e-06	-6.785815e-07	-4.382671e-10	-4.714319e+00	-3.256478e+01
1.710000e-06	-6.320595e-07	-4.201517e-10	-4.391115e+00	-3.160223e+01
1.720000e-06	-5.854272e-07	-4.018341e-10	-4.067147e+00	-3.061978e+01
1.730000e-06	-5.387671e-07	-3.848925e-10	-3.742984e+00	-2.961718e+01
1.740000e-06	-4.920510e-07	-3.711477e-10	-3.418433e+00	-2.859421e+01
1.750000e-06	-4.452759e-07	-3.575717e-10	-3.093471e+00	-2.755071e+01
1.760000e-06	-3.984330e-07	-3.433674e-10	-2.768039e+00	-2.648657e+01
1.770000e-06	-3.514768e-07	-3.265545e-10	-2.441820e+00	-2.540177e+01
1.780000e-06	-3.046094e-07	-3.110727e-10	-2.116217e+00	-2.429633e+01
1.790000e-06	-2.578364e-07	-2.958018e-10	-1.791270e+00	-2.317033e+01
1.800000e-06	-2.109667e-07	-2.769139e-10	-1.465652e+00	-2.202395e+01
1.810000e-06	-1.640615e-07	-2.569425e-10	-1.139787e+00	-2.085742e+01
1.820000e-06	-1.171114e-07	-2.381766e-10	-8.136098e-01	-1.967103e+01
1.830000e-06	-7.018001e-08	-2.213425e-10	-4.875625e-01	-1.846517e+01
1.840000e-06	-2.330318e-08	-2.068549e-10	-1.618945e-01	-1.724030e+01
1.850000e-06	2.364594e-08	-1.917194e-10	1.642758e-01	-1.599693e+01
1.860000e-06	7.053743e-08	-1.767987e-10	4.900456e-01	-1.473568e+01
1.870000e-06	1.173477e-07	-1.607750e-10	8.152516e-01	-1.345720e+01
1.880000e-06	1.642174e-07	-1.439474e-10	1.140870e+00	-1.216223e+01
1.890000e-06	2.110953e-07	-1.263746e-10	1.466545e+00	-1.085159e+01
1.900000e-06	2.579943e-07	-1.072538e-10	1.792367e+00	-9.526156e+00
1.910000e-06	3.048913e-07	-8.988016e-11	2.118175e+00	-8.186852e+00
1.920000e-06	3.516838e-07	-7.282106e-11	2.443257e+00	-6.834678e+00
1.930000e-06	3.984328e-07	-5.547790e-11	2.768038e+00	-5.470684e+00
1.940000e-06	4.451240e-07	-3.748310e-11	3.092416e+00	-4.095968e+00
1.950000e-06	4.918010e-07	-2.045033e-11	3.416696e+00	-2.711677e+00
1.960000e-06	5.384227e-07	-1.914921e-12	3.740591e+00	-1.318998e+00
1.970000e-06	5.849204e-07	1.653663e-11	4.063625e+00	8.084668e-02
1.980000e-06	6.313459e-07	3.554072e-11	4.386158e+00	1.486605e+00
1.990000e-06	6.777097e-07	5.539645e-11	4.708262e+00	2.897000e+00
2.000000e-06	7.241223e-07	7.513198e-11	5.030705e+00	4.310736e+00
2.010000e-06	7.704757e-07	9.561551e-11	5.352736e+00	5.726506e+00
2.020000e-06	8.167442e-07	1.163575e-10	5.674178e+00	7.142996e+00
2.030000e-06	8.630247e-07	1.345638e-10	5.995703e+00	8.558892e+00
2.040000e-06	9.092269e-07	1.538039e-10	6.316685e+00	9.972886e+00
2.050000e-06	9.553758e-07	1.738587e-10	6.637295e+00	1.138368e+01
2.060000e-06	1.001503e-06	1.924436e-10	6.957757e+00	1.279000e+01
2.070000e-06	1.047505e-06	2.108859e-10	7.277346e+00	1.419059e+01
2.080000e-06	1.093358e-06	2.316278e-10	7.595898e+00	1.558423e+01
2.090000e-06	1.139222e-06	2.523135e-10	7.914531e+00	1.696972e+01
2.100000e-06	1.185083e-06	2.711775e-10	8.233140e+00	1.834592e+01
2.110000e-06	1.230751e-06	2.904625e-10	8.550415e+00	1.971171e+01
2.120000e-06	1.276291e-06	3.099797e-10	8.866795e+00	2.106605e+01
2.130000e-06	1.321790e-06	3.291587e-10	9.182888e+00	2.240793e+01
2.140000e-06	1.367206e-06	3.469718e-10	9.498411e+00	2.373640e+01
2.150000e-06	1.412536e-06	3.636300e-10	9.813332e+00	2.505057e+01
2.160000e-06	1.457730e-06	3.801116e-10	1.012731e+01	2.634962e+01
2.170000e-06	1.502822e-06	3.968465e-10	1.044057e+01	2.763279e+01
2.180000e-06	1.547793e-06	4.134966e-10	1.075301e+01	2.889938e+01
2.190000e-06	1.592601e-06	4.301599e-10	1.106430e+01	3.014876e+01
2.200000e-06	1.637267e-06	4.473504e-10	1.137461e+01	3.138038e+01
2.210000e-06	1.681885e-06	4.656999e-10	1.168458e+01	3.259375e+01
2.220000e-06	1.726359e-06	4.847037e-10	1.199356e+01	3.378844e+01
2.230000e-06	1.770643e-06	5.021034e-10	1.230121e+01	3.496409e+01
2.240000e-06	1.814915e-06	5.185949e-10	1.260878e+01	3.612043e+01
2.250000e-06	1.859076e-06	5.353982e-10	1.291559e+01	3.725722e+01
2.260000e-06	1.903076e-06	5.504209e-10	1.322127e+01	3.837431e+01
2.270000e-06	1.947038e-06	5.661156e-10	1.352669e+01	3.947160e+01
2.280000e-06	1.990948e-06	5.825753e-10	1.383174e+01	4.054904e+01
2.290000e-06	2.034778e-06	5.974793e-10	1.413624e+01	4.160665e+01
2.300000e-06	2.078560e-06	6.109553e-10	1.444041e+01	4.264449e+01
2.310000e-06	2.122285e-06	6.248432e-10	1.474418e+01	4.366267e+01
2.320000e-06	2.165940e-06	6.384284e-10	1.504747e+01	4.466135e+01
2.330000e-06	2.209498e-06	6.524797e-10	1.535008e+01	4.564072e+01
2.340000e-06	2.252927e-06	6.662666e-10	1.565179e+01	4.660102e+01
2.350000e-06	2.296204e-06	6.793139e-10	1.595245e+01	4.754251e+01
2.360000e-06	2.339206e-06	6.926850e-10	1.625120e+01	4.846548e+01
2.370000e-06	2.381875e-06	7.061696e-10	1.654763e+01	4.937024e+01
2.380000e-06	2.424316e-06	7.165220e-10	1.684248e+01	5.025712e+01
2.390000e-06	2.466532e-06	7.262062e-10	1.713577e+01	5.112647e+01
2.400000e-06	2.508352e-06	7.383409e-10	1.742631e+01	5.197865e+01
2.410000e-06	2.549732e-06	7.517133e-10	1.771379e+01	5.281402e+01
2.420000e-06	2.590828e-06	7.667953e-10	1.799930e+01	5.363294e+01
2.430000e-06	2.631731e-06	7.811259e-10	1.828346e+01	5.443579e+01
2.440000e-06	2.672388e-06	7.940197e-10	1.856592e+01	5.522292e+01
2.450000e-06	2.712836e-06	8.064343e-10	1.884692e+01	5.599469e+01
2.460000e-06	2.753078e-06	8.182569e-10	1.912650e+01	5.675144e+01
2.470000e-06	2.793150e-06	8.281841e-10	1.940489e+01	5.749351e+01
2.480000e-06	2.833108e-06	8.359047e-10	1.968249e+01	5.822121e+01
2.490000e-06	2.872954e-06	8.421276e-10	1.995931e+01	5.893484e+01
2.500000e-06	2.912705e-06	8.507832e-10	2.023548e+01	5.963469e+01
2.510000e-06	2.952256e-06	8.629471e-10	2.051025e+01	6.032102e+01
2.520000e-06	2.991667e-06	8.747212e-10	2.078405e+01	6.099408e+01
2.530000e-06	3.030950e-06	8.866027e-10	2.105696e+01	6.165409e+01
2.540000e-06	3.069956e-06	8.981588e-10	2.132795e+01	6.230126e+01
2.550000e-06	3.108704e-06	9.051285e-10	2.159714e+01	6.293577e+01
2.560000e-06	3.147243e-06	9.104218e-10	2.186488e+01	6.355779e+01
2.570000e-06	3.185511e-06	9.179269e-10	2.213074e+01	6.416746e+01
2.580000e-06	3.223525e-06	9.258919e-10	2.239484e+01	6.476492e+01
2.590000e-06	3.261330e-06	9.329207e-10	2.265748e+01	6.535027e+01
2.600000e-06	3.298913e-06	9.398818e-10	2.291858e+01	6.592362e+01
2.610000e-06	3.336297e-06	9.482376e-10	2.317830e+01	6.648504e+01
2.620000e-06	3.373512e-06	9.583201e-10	2.343685e+01	6.703462e+01
2.630000e-06	3.410507e-06	9.677915e-10	2.369386e+01	6.757241e+01
2.640000e-06	3.447203e-06	9.752934e-10	2.394880e+01	6.809848e+01
2.650000e-06	3.483596e-06	9.817102e-10	2.420163e+01	6.861287e+01
2.660000e-06	3.519810e-06	9.891271e-10	2.445322e+01	6.911564e+01
2.670000e-06	3.555865e-06	9.964853e-10	2.470371e+01	6.960684e+01
2.680000e-06	3.591739e-06	1.001805e-09	2.495294e+01	7.008651e+01
2.690000e-06	3.627502e-06	1.005716e-09	2.520139e+01	7.055471e+01
2.700000e-06	3.663128e-06	1.011498e-09	2.544890e+01	7.101151e+01
2.710000e-06	3.698654e-06	1.018796e-09	2.569571e+01	7.145696e+01
2.720000e-06	3.733879e-06	1.025025e-09	2.594043e+01	7.189115e+01
2.730000e-06	3.768669e-06	1.034623e-09	2.618213e+01	7.231417e+01
2.740000e-06	3.803160e-06	1.043883e-09	2.642174e+01	7.272612e+01
2.750000e-06	3.837188e-06	1.048625e-09	2.665815e+01	7.312711e+01
2.760000e-06	3.870584e-06	1.052258e-09	2.689016e+01	7.351728e+01
2.770000e-06	3.903562e-06	1.055618e-09	2.711927e+01	7.389678e+01
2.780000e-06	3.936210e-06	1.059274e-09	2.734609e+01	7.426577e+01
2.790000e-06	3.968508e-06	1.065238e-09	2.757047e+01	7.462443e+01
2.800000e-06	4.000599e-06	1.074519e-09	2.779342e+01	7.497296e+01
2.810000e-06	4.032501e-06	1.082527e-09	2.801505e+01	7.531157e+01
2.820000e-06	4.064200e-06	1.088397e-09	2.823527e+01	7.564049e+01
2.830000e-06	4.095739e-06	1.095792e-09	2.845438e+01	7.595998e+01
2.840000e-06	4.127096e-06	1.099306e-09	2.867223e+01	7.627029e+01
2.850000e-06	4.158242e-06	1.102427e-09	2.888861e+01	7.657170e+01
2.860000e-06	4.189056e-06	1.107102e-09	2.910269e+01	7.686450e+01
2.870000e-06	4.219481e-06	1.111261e-09	2.931405e+01	7.714899e+01
2.880000e-06	4.249588e-06	1.113048e-09	2.952322e+01	7.742548e+01
2.890000e-06	4.279442e-06	1.118706e-09	2.973063e+01	7.769428e+01
2.900000e-06	4.309061e-06	1.127575e-09	2.993640e+01	7.795572e+01
