# Temperatura_=_-0.3
# Concentracion g/m^3_=_1620.0
# C_Vs_to_Am_M_A/Vsm_=_65563218390.804596
# pendiente_HvsI_1/m_=_3716.3
# ordenada_HvsI_A/m_=_1297.0
# frecuencia_Hz_=_135101.452119021

Tiempo_(s)	Campo_(V.s)	Magnetizacion_(V.s)	Campo_(kA/m)	Magnetizacion_(A/m)
0.000000e+00	-5.522035e-06	-1.421522e-09	-3.837450e+01	-9.155594e+01
1.000000e-08	-5.522245e-06	-1.420190e-09	-3.837595e+01	-9.155415e+01
2.000000e-08	-5.522227e-06	-1.417764e-09	-3.837583e+01	-9.155156e+01
3.000000e-08	-5.521806e-06	-1.418339e-09	-3.837290e+01	-9.154823e+01
4.000000e-08	-5.520821e-06	-1.415043e-09	-3.836606e+01	-9.154418e+01
5.000000e-08	-5.519247e-06	-1.411137e-09	-3.835513e+01	-9.153943e+01
6.000000e-08	-5.517136e-06	-1.413032e-09	-3.834045e+01	-9.153397e+01
7.000000e-08	-5.514513e-06	-1.423374e-09	-3.832223e+01	-9.152777e+01
8.000000e-08	-5.511380e-06	-1.455102e-09	-3.830045e+01	-9.152078e+01
9.000000e-08	-5.507790e-06	-1.453025e-09	-3.827550e+01	-9.151294e+01
1.000000e-07	-5.503845e-06	-1.348958e-09	-3.824809e+01	-9.150415e+01
1.100000e-07	-5.499654e-06	-1.275533e-09	-3.821897e+01	-9.149432e+01
1.200000e-07	-5.495229e-06	-1.369612e-09	-3.818821e+01	-9.148332e+01
1.300000e-07	-5.490447e-06	-1.468042e-09	-3.815498e+01	-9.147102e+01
1.400000e-07	-5.485223e-06	-1.448953e-09	-3.811868e+01	-9.145725e+01
1.500000e-07	-5.479600e-06	-1.328685e-09	-3.807960e+01	-9.144186e+01
1.600000e-07	-5.473693e-06	-1.365021e-09	-3.803855e+01	-9.142466e+01
1.700000e-07	-5.467376e-06	-1.457083e-09	-3.799465e+01	-9.140546e+01
1.800000e-07	-5.460583e-06	-1.434869e-09	-3.794744e+01	-9.138407e+01
1.900000e-07	-5.453538e-06	-1.357369e-09	-3.789849e+01	-9.136027e+01
2.000000e-07	-5.446204e-06	-1.366082e-09	-3.784753e+01	-9.133386e+01
2.100000e-07	-5.438470e-06	-1.464758e-09	-3.779377e+01	-9.130462e+01
2.200000e-07	-5.430454e-06	-1.468200e-09	-3.773807e+01	-9.127232e+01
2.300000e-07	-5.422129e-06	-1.408791e-09	-3.768022e+01	-9.123675e+01
2.400000e-07	-5.413351e-06	-1.380707e-09	-3.761922e+01	-9.119769e+01
2.500000e-07	-5.403981e-06	-1.434126e-09	-3.755410e+01	-9.115492e+01
2.600000e-07	-5.393979e-06	-1.448999e-09	-3.748459e+01	-9.110823e+01
2.700000e-07	-5.383419e-06	-1.437773e-09	-3.741121e+01	-9.105742e+01
2.800000e-07	-5.372326e-06	-1.415157e-09	-3.733412e+01	-9.100228e+01
2.900000e-07	-5.360848e-06	-1.432765e-09	-3.725435e+01	-9.094263e+01
3.000000e-07	-5.349058e-06	-1.416296e-09	-3.717242e+01	-9.087829e+01
3.100000e-07	-5.336765e-06	-1.389127e-09	-3.708699e+01	-9.080909e+01
3.200000e-07	-5.323913e-06	-1.383477e-09	-3.699768e+01	-9.073487e+01
3.300000e-07	-5.310745e-06	-1.425228e-09	-3.690617e+01	-9.065550e+01
3.400000e-07	-5.297341e-06	-1.427060e-09	-3.681302e+01	-9.057084e+01
3.500000e-07	-5.283462e-06	-1.389061e-09	-3.671658e+01	-9.048077e+01
3.600000e-07	-5.268999e-06	-1.393843e-09	-3.661606e+01	-9.038521e+01
3.700000e-07	-5.254177e-06	-1.414469e-09	-3.651306e+01	-9.028406e+01
3.800000e-07	-5.238826e-06	-1.376716e-09	-3.640638e+01	-9.017727e+01
3.900000e-07	-5.222936e-06	-1.367244e-09	-3.629596e+01	-9.006477e+01
4.000000e-07	-5.206730e-06	-1.424536e-09	-3.618334e+01	-8.994653e+01
4.100000e-07	-5.190121e-06	-1.401910e-09	-3.606791e+01	-8.982254e+01
4.200000e-07	-5.173143e-06	-1.336511e-09	-3.594993e+01	-8.969278e+01
4.300000e-07	-5.155854e-06	-1.381953e-09	-3.582978e+01	-8.955727e+01
4.400000e-07	-5.138195e-06	-1.423922e-09	-3.570706e+01	-8.941604e+01
4.500000e-07	-5.120043e-06	-1.331941e-09	-3.558092e+01	-8.926911e+01
4.600000e-07	-5.101559e-06	-1.324093e-09	-3.545247e+01	-8.911655e+01
4.700000e-07	-5.082780e-06	-1.408354e-09	-3.532197e+01	-8.895842e+01
4.800000e-07	-5.063605e-06	-1.378770e-09	-3.518871e+01	-8.879480e+01
4.900000e-07	-5.044129e-06	-1.311923e-09	-3.505337e+01	-8.862577e+01
5.000000e-07	-5.024448e-06	-1.376276e-09	-3.491659e+01	-8.845144e+01
5.100000e-07	-5.004518e-06	-1.371891e-09	-3.477809e+01	-8.827190e+01
5.200000e-07	-4.984218e-06	-1.294234e-09	-3.463702e+01	-8.808728e+01
5.300000e-07	-4.963524e-06	-1.332730e-09	-3.449321e+01	-8.789769e+01
5.400000e-07	-4.942442e-06	-1.384970e-09	-3.434671e+01	-8.770327e+01
5.500000e-07	-4.921000e-06	-1.304558e-09	-3.419770e+01	-8.750415e+01
5.600000e-07	-4.899288e-06	-1.298943e-09	-3.404682e+01	-8.730047e+01
5.700000e-07	-4.877336e-06	-1.365621e-09	-3.389427e+01	-8.709236e+01
5.800000e-07	-4.855000e-06	-1.331325e-09	-3.373904e+01	-8.687997e+01
5.900000e-07	-4.832281e-06	-1.283271e-09	-3.358116e+01	-8.666344e+01
6.000000e-07	-4.809294e-06	-1.333103e-09	-3.342142e+01	-8.644292e+01
6.100000e-07	-4.785994e-06	-1.326819e-09	-3.325950e+01	-8.621855e+01
6.200000e-07	-4.762479e-06	-1.280151e-09	-3.309609e+01	-8.599046e+01
6.300000e-07	-4.738695e-06	-1.304060e-09	-3.293080e+01	-8.575881e+01
6.400000e-07	-4.714536e-06	-1.314189e-09	-3.276292e+01	-8.552373e+01
6.500000e-07	-4.690082e-06	-1.274477e-09	-3.259297e+01	-8.528534e+01
6.600000e-07	-4.665169e-06	-1.283618e-09	-3.241984e+01	-8.504377e+01
6.700000e-07	-4.639723e-06	-1.305503e-09	-3.224301e+01	-8.479915e+01
6.800000e-07	-4.613787e-06	-1.279636e-09	-3.206277e+01	-8.455160e+01
6.900000e-07	-4.587404e-06	-1.274559e-09	-3.187943e+01	-8.430121e+01
7.000000e-07	-4.560613e-06	-1.290363e-09	-3.169325e+01	-8.404810e+01
7.100000e-07	-4.533443e-06	-1.277555e-09	-3.150444e+01	-8.379235e+01
7.200000e-07	-4.506001e-06	-1.263860e-09	-3.131373e+01	-8.353406e+01
7.300000e-07	-4.478333e-06	-1.271165e-09	-3.112146e+01	-8.327329e+01
7.400000e-07	-4.450436e-06	-1.263231e-09	-3.092759e+01	-8.301013e+01
7.500000e-07	-4.422306e-06	-1.259518e-09	-3.073211e+01	-8.274463e+01
7.600000e-07	-4.393906e-06	-1.268168e-09	-3.053475e+01	-8.247684e+01
7.700000e-07	-4.365178e-06	-1.268648e-09	-3.033510e+01	-8.220680e+01
7.800000e-07	-4.336160e-06	-1.259414e-09	-3.013345e+01	-8.193453e+01
7.900000e-07	-4.306859e-06	-1.261769e-09	-2.992983e+01	-8.166007e+01
8.000000e-07	-4.277248e-06	-1.250331e-09	-2.972405e+01	-8.138342e+01
8.100000e-07	-4.247297e-06	-1.234093e-09	-2.951591e+01	-8.110458e+01
8.200000e-07	-4.217076e-06	-1.232029e-09	-2.930590e+01	-8.082353e+01
8.300000e-07	-4.186618e-06	-1.237914e-09	-2.909423e+01	-8.054026e+01
8.400000e-07	-4.155884e-06	-1.228101e-09	-2.888065e+01	-8.025472e+01
8.500000e-07	-4.124879e-06	-1.225194e-09	-2.866519e+01	-7.996688e+01
8.600000e-07	-4.093588e-06	-1.227823e-09	-2.844773e+01	-7.967667e+01
8.700000e-07	-4.062138e-06	-1.219056e-09	-2.822917e+01	-7.938403e+01
8.800000e-07	-4.030501e-06	-1.204984e-09	-2.800932e+01	-7.908888e+01
8.900000e-07	-3.998636e-06	-1.203208e-09	-2.778788e+01	-7.879113e+01
9.000000e-07	-3.966551e-06	-1.196552e-09	-2.756491e+01	-7.849068e+01
9.100000e-07	-3.934085e-06	-1.184344e-09	-2.733929e+01	-7.818741e+01
9.200000e-07	-3.901266e-06	-1.181900e-09	-2.711122e+01	-7.788122e+01
9.300000e-07	-3.868093e-06	-1.182158e-09	-2.688069e+01	-7.757195e+01
9.400000e-07	-3.834479e-06	-1.170051e-09	-2.664710e+01	-7.725948e+01
9.500000e-07	-3.800451e-06	-1.163283e-09	-2.641062e+01	-7.694365e+01
9.600000e-07	-3.766043e-06	-1.167831e-09	-2.617151e+01	-7.662430e+01
9.700000e-07	-3.731340e-06	-1.162805e-09	-2.593035e+01	-7.630126e+01
9.800000e-07	-3.696304e-06	-1.152718e-09	-2.568688e+01	-7.597436e+01
9.900000e-07	-3.660914e-06	-1.149895e-09	-2.544093e+01	-7.564341e+01
1.000000e-06	-3.625358e-06	-1.145593e-09	-2.519384e+01	-7.530823e+01
1.010000e-06	-3.589670e-06	-1.132641e-09	-2.494584e+01	-7.496860e+01
1.020000e-06	-3.553783e-06	-1.126165e-09	-2.469644e+01	-7.462435e+01
1.030000e-06	-3.517710e-06	-1.123515e-09	-2.444576e+01	-7.427525e+01
1.040000e-06	-3.481445e-06	-1.116389e-09	-2.419374e+01	-7.392110e+01
1.050000e-06	-3.444940e-06	-1.106912e-09	-2.394006e+01	-7.356169e+01
1.060000e-06	-3.408194e-06	-1.101873e-09	-2.368470e+01	-7.319680e+01
1.070000e-06	-3.371174e-06	-1.092666e-09	-2.342743e+01	-7.282623e+01
1.080000e-06	-3.333857e-06	-1.084897e-09	-2.316811e+01	-7.244976e+01
1.090000e-06	-3.296327e-06	-1.081102e-09	-2.290729e+01	-7.206717e+01
1.100000e-06	-3.258573e-06	-1.075056e-09	-2.264493e+01	-7.167827e+01
1.110000e-06	-3.220584e-06	-1.060004e-09	-2.238093e+01	-7.128283e+01
1.120000e-06	-3.182390e-06	-1.046870e-09	-2.211551e+01	-7.088067e+01
1.130000e-06	-3.143973e-06	-1.035421e-09	-2.184854e+01	-7.047159e+01
1.140000e-06	-3.105330e-06	-1.024064e-09	-2.157999e+01	-7.005540e+01
1.150000e-06	-3.066465e-06	-1.015865e-09	-2.130990e+01	-6.963192e+01
1.160000e-06	-3.027349e-06	-1.015581e-09	-2.103807e+01	-6.920097e+01
1.170000e-06	-2.988045e-06	-1.015932e-09	-2.076494e+01	-6.876240e+01
1.180000e-06	-2.948610e-06	-1.010184e-09	-2.049090e+01	-6.831604e+01
1.190000e-06	-2.909013e-06	-9.986625e-10	-2.021572e+01	-6.786176e+01
1.200000e-06	-2.869296e-06	-9.858662e-10	-1.993971e+01	-6.739942e+01
1.210000e-06	-2.829465e-06	-9.720040e-10	-1.966291e+01	-6.692890e+01
1.220000e-06	-2.789481e-06	-9.604927e-10	-1.938505e+01	-6.645008e+01
1.230000e-06	-2.749305e-06	-9.532822e-10	-1.910585e+01	-6.596288e+01
1.240000e-06	-2.708898e-06	-9.474089e-10	-1.882505e+01	-6.546720e+01
1.250000e-06	-2.668229e-06	-9.419120e-10	-1.854243e+01	-6.496297e+01
1.260000e-06	-2.627365e-06	-9.387059e-10	-1.825845e+01	-6.445011e+01
1.270000e-06	-2.586404e-06	-9.367214e-10	-1.797380e+01	-6.392858e+01
1.280000e-06	-2.545245e-06	-9.301022e-10	-1.768777e+01	-6.339833e+01
1.290000e-06	-2.503737e-06	-9.193755e-10	-1.739932e+01	-6.285933e+01
1.300000e-06	-2.461973e-06	-9.066685e-10	-1.710909e+01	-6.231154e+01
1.310000e-06	-2.419954e-06	-8.938450e-10	-1.681708e+01	-6.175494e+01
1.320000e-06	-2.377601e-06	-8.817229e-10	-1.652275e+01	-6.118953e+01
1.330000e-06	-2.334974e-06	-8.743203e-10	-1.622653e+01	-6.061528e+01
1.340000e-06	-2.292056e-06	-8.719420e-10	-1.592828e+01	-6.003219e+01
1.350000e-06	-2.248832e-06	-8.693396e-10	-1.562790e+01	-5.944025e+01
1.360000e-06	-2.205421e-06	-8.631973e-10	-1.532622e+01	-5.883946e+01
1.370000e-06	-2.161927e-06	-8.551649e-10	-1.502397e+01	-5.822981e+01
1.380000e-06	-2.118292e-06	-8.429569e-10	-1.472073e+01	-5.761127e+01
1.390000e-06	-2.074552e-06	-8.291380e-10	-1.441677e+01	-5.698384e+01
1.400000e-06	-2.030767e-06	-8.168280e-10	-1.411249e+01	-5.634748e+01
1.410000e-06	-1.986946e-06	-8.067600e-10	-1.380797e+01	-5.570216e+01
1.420000e-06	-1.943071e-06	-7.964028e-10	-1.350306e+01	-5.504783e+01
1.430000e-06	-1.899081e-06	-7.885218e-10	-1.319736e+01	-5.438442e+01
1.440000e-06	-1.854966e-06	-7.808737e-10	-1.289079e+01	-5.371187e+01
1.450000e-06	-1.810731e-06	-7.705445e-10	-1.258338e+01	-5.303006e+01
1.460000e-06	-1.766342e-06	-7.575224e-10	-1.227491e+01	-5.233890e+01
1.470000e-06	-1.721888e-06	-7.441521e-10	-1.196599e+01	-5.163824e+01
1.480000e-06	-1.677360e-06	-7.312458e-10	-1.165654e+01	-5.092793e+01
1.490000e-06	-1.632601e-06	-7.185874e-10	-1.134550e+01	-5.020780e+01
1.500000e-06	-1.587655e-06	-7.071919e-10	-1.103315e+01	-4.947764e+01
1.510000e-06	-1.542604e-06	-6.961921e-10	-1.072008e+01	-4.873723e+01
1.520000e-06	-1.497455e-06	-6.808931e-10	-1.040633e+01	-4.798633e+01
1.530000e-06	-1.452161e-06	-6.638963e-10	-1.009156e+01	-4.722465e+01
1.540000e-06	-1.406775e-06	-6.490915e-10	-9.776160e+00	-4.645190e+01
1.550000e-06	-1.361365e-06	-6.352132e-10	-9.460589e+00	-4.566777e+01
1.560000e-06	-1.315902e-06	-6.222024e-10	-9.144649e+00	-4.487190e+01
1.570000e-06	-1.270343e-06	-6.113315e-10	-8.828046e+00	-4.406393e+01
1.580000e-06	-1.224686e-06	-5.999308e-10	-8.510762e+00	-4.324347e+01
1.590000e-06	-1.178977e-06	-5.850456e-10	-8.193114e+00	-4.241012e+01
1.600000e-06	-1.133227e-06	-5.688590e-10	-7.875180e+00	-4.156345e+01
1.610000e-06	-1.087396e-06	-5.536532e-10	-7.556684e+00	-4.070303e+01
1.620000e-06	-1.041465e-06	-5.390214e-10	-7.237496e+00	-3.982841e+01
1.630000e-06	-9.954367e-07	-5.237758e-10	-6.917628e+00	-3.893913e+01
1.640000e-06	-9.492826e-07	-5.079012e-10	-6.596887e+00	-3.803473e+01
1.650000e-06	-9.030992e-07	-4.919139e-10	-6.275943e+00	-3.711473e+01
1.660000e-06	-8.568719e-07	-4.785942e-10	-5.954694e+00	-3.617868e+01
1.670000e-06	-8.105475e-07	-4.661595e-10	-5.632770e+00	-3.522612e+01
1.680000e-06	-7.641216e-07	-4.533892e-10	-5.310141e+00	-3.425660e+01
1.690000e-06	-7.175763e-07	-4.382979e-10	-4.986681e+00	-3.326967e+01
1.700000e-06	-6.710878e-07	-4.228960e-10	-4.663617e+00	-3.226493e+01
1.710000e-06	-6.245941e-07	-4.051738e-10	-4.340517e+00	-3.124198e+01
1.720000e-06	-5.779121e-07	-3.848381e-10	-4.016107e+00	-3.020045e+01
1.730000e-06	-5.311785e-07	-3.644824e-10	-3.691340e+00	-2.914001e+01
1.740000e-06	-4.845063e-07	-3.459370e-10	-3.366999e+00	-2.806036e+01
1.750000e-06	-4.378581e-07	-3.306451e-10	-3.042825e+00	-2.696123e+01
1.760000e-06	-3.910349e-07	-3.173763e-10	-2.717434e+00	-2.584243e+01
1.770000e-06	-3.441716e-07	-3.025961e-10	-2.391766e+00	-2.470378e+01
1.780000e-06	-2.974624e-07	-2.873067e-10	-2.067167e+00	-2.354518e+01
1.790000e-06	-2.506616e-07	-2.710458e-10	-1.741932e+00	-2.236659e+01
1.800000e-06	-2.038014e-07	-2.507206e-10	-1.416285e+00	-2.116800e+01
1.810000e-06	-1.569433e-07	-2.287312e-10	-1.090652e+00	-1.994949e+01
1.820000e-06	-1.100308e-07	-2.078843e-10	-7.646416e-01	-1.871121e+01
1.830000e-06	-6.312354e-08	-1.877644e-10	-4.386669e-01	-1.745338e+01
1.840000e-06	-1.623130e-08	-1.704259e-10	-1.127968e-01	-1.617627e+01
1.850000e-06	3.062771e-08	-1.544632e-10	2.128424e-01	-1.488025e+01
1.860000e-06	7.746267e-08	-1.398649e-10	5.383144e-01	-1.356575e+01
1.870000e-06	1.243558e-07	-1.253796e-10	8.641910e-01	-1.223328e+01
1.880000e-06	1.712543e-07	-1.082762e-10	1.190105e+00	-1.088344e+01
1.890000e-06	2.180730e-07	-8.754685e-11	1.515463e+00	-9.516876e+00
1.900000e-06	2.648376e-07	-6.166796e-11	1.840446e+00	-8.134341e+00
1.910000e-06	3.115697e-07	-3.683224e-11	2.165204e+00	-6.736645e+00
1.920000e-06	3.582871e-07	-1.512249e-11	2.489859e+00	-5.324674e+00
1.930000e-06	4.049986e-07	2.000740e-12	2.814473e+00	-3.899385e+00
1.940000e-06	4.516556e-07	1.689477e-11	3.138708e+00	-2.461799e+00
1.950000e-06	4.982875e-07	2.952897e-11	3.462769e+00	-1.013006e+00
1.960000e-06	5.448576e-07	4.321687e-11	3.786401e+00	4.458482e-01
1.970000e-06	5.913009e-07	6.123326e-11	4.109151e+00	1.913561e+00
1.980000e-06	6.376797e-07	8.549123e-11	4.431453e+00	3.388877e+00
1.990000e-06	6.839770e-07	1.095506e-10	4.753188e+00	4.870499e+00
2.000000e-06	7.301944e-07	1.334452e-10	5.074369e+00	6.357086e+00
2.010000e-06	7.765292e-07	1.540200e-10	5.396365e+00	7.847264e+00
2.020000e-06	8.228911e-07	1.692390e-10	5.718550e+00	9.339632e+00
2.030000e-06	8.691096e-07	1.851489e-10	6.039738e+00	1.083277e+01
2.040000e-06	9.152968e-07	2.052587e-10	6.360708e+00	1.232523e+01
2.050000e-06	9.614278e-07	2.288645e-10	6.681288e+00	1.381557e+01
2.060000e-06	1.007446e-06	2.537343e-10	7.001087e+00	1.530235e+01
2.070000e-06	1.053416e-06	2.779290e-10	7.320547e+00	1.678412e+01
2.080000e-06	1.099402e-06	2.976017e-10	7.640119e+00	1.825945e+01
2.090000e-06	1.145303e-06	3.146241e-10	7.959102e+00	1.972694e+01
2.100000e-06	1.191118e-06	3.303832e-10	8.277483e+00	2.118520e+01
2.110000e-06	1.236846e-06	3.477883e-10	8.595260e+00	2.263287e+01
2.120000e-06	1.282459e-06	3.677146e-10	8.912242e+00	2.406866e+01
2.130000e-06	1.327974e-06	3.896467e-10	9.228543e+00	2.549129e+01
2.140000e-06	1.373395e-06	4.104684e-10	9.544190e+00	2.689956e+01
2.150000e-06	1.418729e-06	4.309567e-10	9.859230e+00	2.829230e+01
2.160000e-06	1.463936e-06	4.492390e-10	1.017339e+01	2.966843e+01
2.170000e-06	1.508968e-06	4.650559e-10	1.048633e+01	3.102692e+01
2.180000e-06	1.553875e-06	4.776477e-10	1.079840e+01	3.236681e+01
2.190000e-06	1.598654e-06	4.915348e-10	1.110959e+01	3.368721e+01
2.200000e-06	1.643305e-06	5.090294e-10	1.141989e+01	3.498734e+01
2.210000e-06	1.687939e-06	5.331435e-10	1.173006e+01	3.626647e+01
2.220000e-06	1.732425e-06	5.593474e-10	1.203921e+01	3.752396e+01
2.230000e-06	1.776657e-06	5.807168e-10	1.234659e+01	3.875925e+01
2.240000e-06	1.820809e-06	5.955297e-10	1.265342e+01	3.997187e+01
2.250000e-06	1.864934e-06	6.072505e-10	1.296006e+01	4.116145e+01
2.260000e-06	1.908949e-06	6.189375e-10	1.326593e+01	4.232768e+01
2.270000e-06	1.952865e-06	6.305008e-10	1.357112e+01	4.347035e+01
2.280000e-06	1.996727e-06	6.441064e-10	1.387594e+01	4.458932e+01
2.290000e-06	2.040545e-06	6.599141e-10	1.418044e+01	4.568454e+01
2.300000e-06	2.084293e-06	6.768211e-10	1.448446e+01	4.675605e+01
2.310000e-06	2.127976e-06	6.957303e-10	1.478803e+01	4.780394e+01
2.320000e-06	2.171574e-06	7.145726e-10	1.509101e+01	4.882838e+01
2.330000e-06	2.215016e-06	7.294211e-10	1.539290e+01	4.982962e+01
2.340000e-06	2.258279e-06	7.411252e-10	1.569355e+01	5.080796e+01
2.350000e-06	2.301513e-06	7.522232e-10	1.599399e+01	5.176377e+01
2.360000e-06	2.344642e-06	7.642752e-10	1.629371e+01	5.269746e+01
2.370000e-06	2.387386e-06	7.758165e-10	1.659076e+01	5.360949e+01
2.380000e-06	2.429766e-06	7.883302e-10	1.688527e+01	5.450038e+01
2.390000e-06	2.471785e-06	8.019935e-10	1.717727e+01	5.537067e+01
2.400000e-06	2.513369e-06	8.185841e-10	1.746625e+01	5.622093e+01
2.410000e-06	2.554683e-06	8.360849e-10	1.775336e+01	5.705177e+01
2.420000e-06	2.595828e-06	8.516615e-10	1.803929e+01	5.786381e+01
2.430000e-06	2.636628e-06	8.633827e-10	1.832282e+01	5.865768e+01
2.440000e-06	2.677034e-06	8.732199e-10	1.860362e+01	5.943404e+01
2.450000e-06	2.717247e-06	8.830542e-10	1.888308e+01	6.019351e+01
2.460000e-06	2.757423e-06	8.929620e-10	1.916227e+01	6.093675e+01
2.470000e-06	2.797472e-06	9.030875e-10	1.944058e+01	6.166440e+01
2.480000e-06	2.837362e-06	9.137107e-10	1.971779e+01	6.237707e+01
2.490000e-06	2.877191e-06	9.240691e-10	1.999458e+01	6.307538e+01
2.500000e-06	2.916891e-06	9.353009e-10	2.027046e+01	6.375990e+01
2.510000e-06	2.956402e-06	9.456734e-10	2.054504e+01	6.443120e+01
2.520000e-06	2.995739e-06	9.553797e-10	2.081841e+01	6.508981e+01
2.530000e-06	3.034854e-06	9.651466e-10	2.109023e+01	6.573622e+01
2.540000e-06	3.073746e-06	9.741376e-10	2.136051e+01	6.637090e+01
2.550000e-06	3.112412e-06	9.821415e-10	2.162921e+01	6.699428e+01
2.560000e-06	3.150779e-06	9.913369e-10	2.189583e+01	6.760675e+01
2.570000e-06	3.188923e-06	1.001076e-09	2.216091e+01	6.820867e+01
2.580000e-06	3.226949e-06	1.009118e-09	2.242516e+01	6.880033e+01
2.590000e-06	3.264814e-06	1.015522e-09	2.268830e+01	6.938202e+01
2.600000e-06	3.302468e-06	1.021390e-09	2.294997e+01	6.995397e+01
2.610000e-06	3.339962e-06	1.029040e-09	2.321053e+01	7.051637e+01
2.620000e-06	3.377207e-06	1.038565e-09	2.346936e+01	7.106938e+01
2.630000e-06	3.414030e-06	1.049867e-09	2.372525e+01	7.161312e+01
2.640000e-06	3.450566e-06	1.059638e-09	2.397915e+01	7.214767e+01
2.650000e-06	3.486933e-06	1.066332e-09	2.423188e+01	7.267308e+01
2.660000e-06	3.523080e-06	1.070899e-09	2.448308e+01	7.318938e+01
2.670000e-06	3.559038e-06	1.074263e-09	2.473296e+01	7.369656e+01
2.680000e-06	3.594896e-06	1.077194e-09	2.498215e+01	7.419460e+01
2.690000e-06	3.630691e-06	1.083208e-09	2.523090e+01	7.468345e+01
2.700000e-06	3.666359e-06	1.091813e-09	2.547878e+01	7.516304e+01
2.710000e-06	3.701818e-06	1.099545e-09	2.572519e+01	7.563330e+01
2.720000e-06	3.737018e-06	1.108003e-09	2.596981e+01	7.609412e+01
2.730000e-06	3.771890e-06	1.117981e-09	2.621214e+01	7.654542e+01
2.740000e-06	3.806334e-06	1.124651e-09	2.645151e+01	7.698710e+01
2.750000e-06	3.840288e-06	1.128110e-09	2.668747e+01	7.741906e+01
2.760000e-06	3.873769e-06	1.130614e-09	2.692014e+01	7.784120e+01
2.770000e-06	3.906791e-06	1.134290e-09	2.714962e+01	7.825344e+01
2.780000e-06	3.939364e-06	1.140450e-09	2.737598e+01	7.865569e+01
2.790000e-06	3.971654e-06	1.148150e-09	2.760037e+01	7.904790e+01
2.800000e-06	4.003791e-06	1.156528e-09	2.782370e+01	7.943001e+01
2.810000e-06	4.035719e-06	1.165326e-09	2.804558e+01	7.980200e+01
2.820000e-06	4.067457e-06	1.172878e-09	2.826614e+01	8.016385e+01
2.830000e-06	4.099032e-06	1.177538e-09	2.848557e+01	8.051557e+01
2.840000e-06	4.130379e-06	1.180003e-09	2.870341e+01	8.085721e+01
2.850000e-06	4.161418e-06	1.182651e-09	2.891911e+01	8.118883e+01
2.860000e-06	4.192133e-06	1.186693e-09	2.913256e+01	8.151051e+01
2.870000e-06	4.222517e-06	1.189402e-09	2.934370e+01	8.182236e+01
2.880000e-06	4.252566e-06	1.191247e-09	2.955252e+01	8.212453e+01
2.890000e-06	4.282327e-06	1.196036e-09	2.975934e+01	8.241719e+01
2.900000e-06	4.311849e-06	1.202890e-09	2.996451e+01	8.270053e+01
