# Temperatura_=_-0.3
# Concentracion g/m^3_=_1620.0
# C_Vs_to_Am_M_A/Vsm_=_65563218390.804596
# pendiente_HvsI_1/m_=_3716.3
# ordenada_HvsI_A/m_=_1297.0
# frecuencia_Hz_=_135110.8722438014

Tiempo_(s)	Campo_(V.s)	Magnetizacion_(V.s)	Campo_(kA/m)	Magnetizacion_(A/m)
0.000000e+00	-5.509978e-06	-1.334714e-09	-3.836357e+01	-8.533500e+01
1.000000e-08	-5.510191e-06	-1.332743e-09	-3.836505e+01	-8.534407e+01
2.000000e-08	-5.510142e-06	-1.332654e-09	-3.836471e+01	-8.535077e+01
3.000000e-08	-5.509699e-06	-1.332090e-09	-3.836163e+01	-8.535484e+01
4.000000e-08	-5.508729e-06	-1.329409e-09	-3.835487e+01	-8.535606e+01
5.000000e-08	-5.506998e-06	-1.324781e-09	-3.834282e+01	-8.535416e+01
6.000000e-08	-5.504709e-06	-1.309072e-09	-3.832688e+01	-8.534890e+01
7.000000e-08	-5.502048e-06	-1.296406e-09	-3.830835e+01	-8.534005e+01
8.000000e-08	-5.498857e-06	-1.317152e-09	-3.828614e+01	-8.532737e+01
9.000000e-08	-5.495141e-06	-1.351907e-09	-3.826026e+01	-8.531065e+01
1.000000e-07	-5.490956e-06	-1.355958e-09	-3.823113e+01	-8.528967e+01
1.100000e-07	-5.486416e-06	-1.345584e-09	-3.819952e+01	-8.526424e+01
1.200000e-07	-5.481747e-06	-1.264469e-09	-3.816701e+01	-8.523417e+01
1.300000e-07	-5.476867e-06	-1.284015e-09	-3.813303e+01	-8.519930e+01
1.400000e-07	-5.471533e-06	-1.295917e-09	-3.809590e+01	-8.515948e+01
1.500000e-07	-5.465778e-06	-1.314596e-09	-3.805582e+01	-8.511460e+01
1.600000e-07	-5.459693e-06	-1.283625e-09	-3.801346e+01	-8.506455e+01
1.700000e-07	-5.453241e-06	-1.254210e-09	-3.796853e+01	-8.500923e+01
1.800000e-07	-5.446356e-06	-1.327630e-09	-3.792060e+01	-8.494860e+01
1.900000e-07	-5.439062e-06	-1.322061e-09	-3.786981e+01	-8.488262e+01
2.000000e-07	-5.431452e-06	-1.321761e-09	-3.781682e+01	-8.481126e+01
2.100000e-07	-5.423679e-06	-1.273407e-09	-3.776271e+01	-8.473454e+01
2.200000e-07	-5.415816e-06	-1.328123e-09	-3.770796e+01	-8.465248e+01
2.300000e-07	-5.407629e-06	-1.315649e-09	-3.765096e+01	-8.456514e+01
2.400000e-07	-5.398959e-06	-1.315602e-09	-3.759059e+01	-8.447259e+01
2.500000e-07	-5.389625e-06	-1.280590e-09	-3.752560e+01	-8.437491e+01
2.600000e-07	-5.379471e-06	-1.312106e-09	-3.745491e+01	-8.427222e+01
2.700000e-07	-5.368632e-06	-1.300592e-09	-3.737944e+01	-8.416465e+01
2.800000e-07	-5.357317e-06	-1.295625e-09	-3.730066e+01	-8.405233e+01
2.900000e-07	-5.345596e-06	-1.273302e-09	-3.721905e+01	-8.393542e+01
3.000000e-07	-5.333480e-06	-1.285927e-09	-3.713469e+01	-8.381409e+01
3.100000e-07	-5.321087e-06	-1.290123e-09	-3.704841e+01	-8.368852e+01
3.200000e-07	-5.308400e-06	-1.272773e-09	-3.696007e+01	-8.355888e+01
3.300000e-07	-5.295240e-06	-1.260133e-09	-3.686844e+01	-8.342537e+01
3.400000e-07	-5.281587e-06	-1.249893e-09	-3.677339e+01	-8.328819e+01
3.500000e-07	-5.267519e-06	-1.277643e-09	-3.667543e+01	-8.314753e+01
3.600000e-07	-5.253078e-06	-1.274197e-09	-3.657488e+01	-8.300359e+01
3.700000e-07	-5.238191e-06	-1.265055e-09	-3.647123e+01	-8.285656e+01
3.800000e-07	-5.222794e-06	-1.253686e-09	-3.636403e+01	-8.270663e+01
3.900000e-07	-5.206957e-06	-1.276165e-09	-3.625376e+01	-8.255399e+01
4.000000e-07	-5.190685e-06	-1.248728e-09	-3.614047e+01	-8.239881e+01
4.100000e-07	-5.173944e-06	-1.248136e-09	-3.602391e+01	-8.224125e+01
4.200000e-07	-5.156861e-06	-1.256967e-09	-3.590497e+01	-8.208148e+01
4.300000e-07	-5.139572e-06	-1.263714e-09	-3.578459e+01	-8.191964e+01
4.400000e-07	-5.121980e-06	-1.227900e-09	-3.566211e+01	-8.175587e+01
4.500000e-07	-5.103981e-06	-1.266090e-09	-3.553679e+01	-8.159027e+01
4.600000e-07	-5.085464e-06	-1.257969e-09	-3.540786e+01	-8.142295e+01
4.700000e-07	-5.066490e-06	-1.221478e-09	-3.527576e+01	-8.125401e+01
4.800000e-07	-5.047202e-06	-1.214370e-09	-3.514146e+01	-8.108351e+01
4.900000e-07	-5.027698e-06	-1.265452e-09	-3.500566e+01	-8.091151e+01
5.000000e-07	-5.007998e-06	-1.219726e-09	-3.486850e+01	-8.073806e+01
5.100000e-07	-4.988032e-06	-1.205253e-09	-3.472948e+01	-8.056318e+01
5.200000e-07	-4.967815e-06	-1.239077e-09	-3.458872e+01	-8.038689e+01
5.300000e-07	-4.947305e-06	-1.232271e-09	-3.444592e+01	-8.020919e+01
5.400000e-07	-4.926349e-06	-1.179230e-09	-3.430002e+01	-8.003006e+01
5.500000e-07	-4.904972e-06	-1.221811e-09	-3.415117e+01	-7.984948e+01
5.600000e-07	-4.883216e-06	-1.230643e-09	-3.399970e+01	-7.966742e+01
5.700000e-07	-4.861132e-06	-1.179096e-09	-3.384594e+01	-7.948383e+01
5.800000e-07	-4.838787e-06	-1.188344e-09	-3.369036e+01	-7.929865e+01
5.900000e-07	-4.816112e-06	-1.228465e-09	-3.353249e+01	-7.911182e+01
6.000000e-07	-4.793087e-06	-1.186432e-09	-3.337217e+01	-7.892328e+01
6.100000e-07	-4.769772e-06	-1.170952e-09	-3.320984e+01	-7.873295e+01
6.200000e-07	-4.746245e-06	-1.205812e-09	-3.304603e+01	-7.854077e+01
6.300000e-07	-4.722468e-06	-1.179502e-09	-3.288048e+01	-7.834665e+01
6.400000e-07	-4.698402e-06	-1.154734e-09	-3.271292e+01	-7.815053e+01
6.500000e-07	-4.674058e-06	-1.181643e-09	-3.254342e+01	-7.795232e+01
6.600000e-07	-4.649313e-06	-1.182294e-09	-3.237114e+01	-7.775196e+01
6.700000e-07	-4.624027e-06	-1.148911e-09	-3.219508e+01	-7.754938e+01
6.800000e-07	-4.598137e-06	-1.169841e-09	-3.201482e+01	-7.734451e+01
6.900000e-07	-4.571665e-06	-1.168568e-09	-3.183051e+01	-7.713730e+01
7.000000e-07	-4.544723e-06	-1.145207e-09	-3.164292e+01	-7.692769e+01
7.100000e-07	-4.517410e-06	-1.146592e-09	-3.145275e+01	-7.671565e+01
7.200000e-07	-4.489849e-06	-1.166055e-09	-3.126086e+01	-7.650114e+01
7.300000e-07	-4.462115e-06	-1.138686e-09	-3.106776e+01	-7.628412e+01
7.400000e-07	-4.434219e-06	-1.137240e-09	-3.087353e+01	-7.606458e+01
7.500000e-07	-4.406149e-06	-1.143001e-09	-3.067809e+01	-7.584251e+01
7.600000e-07	-4.377856e-06	-1.133062e-09	-3.048110e+01	-7.561789e+01
7.700000e-07	-4.349261e-06	-1.115641e-09	-3.028201e+01	-7.539074e+01
7.800000e-07	-4.320323e-06	-1.129148e-09	-3.008052e+01	-7.516105e+01
7.900000e-07	-4.291108e-06	-1.118599e-09	-2.987711e+01	-7.492885e+01
8.000000e-07	-4.261568e-06	-1.111305e-09	-2.967144e+01	-7.469415e+01
8.100000e-07	-4.231687e-06	-1.114813e-09	-2.946339e+01	-7.445697e+01
8.200000e-07	-4.201546e-06	-1.117324e-09	-2.925353e+01	-7.421736e+01
8.300000e-07	-4.171127e-06	-1.099168e-09	-2.904173e+01	-7.397532e+01
8.400000e-07	-4.140431e-06	-1.101474e-09	-2.882801e+01	-7.373090e+01
8.500000e-07	-4.109416e-06	-1.102136e-09	-2.861207e+01	-7.348412e+01
8.600000e-07	-4.078065e-06	-1.088896e-09	-2.839378e+01	-7.323500e+01
8.700000e-07	-4.046533e-06	-1.081603e-09	-2.817424e+01	-7.298358e+01
8.800000e-07	-4.014907e-06	-1.088365e-09	-2.795404e+01	-7.272987e+01
8.900000e-07	-3.983098e-06	-1.079782e-09	-2.773257e+01	-7.247388e+01
9.000000e-07	-3.951061e-06	-1.068187e-09	-2.750951e+01	-7.221562e+01
9.100000e-07	-3.918717e-06	-1.070735e-09	-2.728431e+01	-7.195508e+01
9.200000e-07	-3.886001e-06	-1.064250e-09	-2.705652e+01	-7.169226e+01
9.300000e-07	-3.852893e-06	-1.051615e-09	-2.682601e+01	-7.142711e+01
9.400000e-07	-3.819411e-06	-1.050958e-09	-2.659289e+01	-7.115962e+01
9.500000e-07	-3.785543e-06	-1.054400e-09	-2.635708e+01	-7.088972e+01
9.600000e-07	-3.751173e-06	-1.039929e-09	-2.611778e+01	-7.061735e+01
9.700000e-07	-3.716355e-06	-1.036484e-09	-2.587536e+01	-7.034244e+01
9.800000e-07	-3.681169e-06	-1.035672e-09	-2.563037e+01	-7.006490e+01
9.900000e-07	-3.645733e-06	-1.027394e-09	-2.538365e+01	-6.978461e+01
1.000000e-06	-3.610164e-06	-1.016606e-09	-2.513600e+01	-6.950146e+01
1.010000e-06	-3.574451e-06	-1.021589e-09	-2.488734e+01	-6.921530e+01
1.020000e-06	-3.538602e-06	-1.016635e-09	-2.463774e+01	-6.892600e+01
1.030000e-06	-3.502577e-06	-1.012484e-09	-2.438691e+01	-6.863338e+01
1.040000e-06	-3.466348e-06	-1.010839e-09	-2.413466e+01	-6.833728e+01
1.050000e-06	-3.429928e-06	-1.007979e-09	-2.388109e+01	-6.803750e+01
1.060000e-06	-3.393251e-06	-9.918482e-10	-2.362573e+01	-6.773384e+01
1.070000e-06	-3.356236e-06	-9.873229e-10	-2.336800e+01	-6.742609e+01
1.080000e-06	-3.318926e-06	-9.848701e-10	-2.310823e+01	-6.711405e+01
1.090000e-06	-3.281421e-06	-9.790974e-10	-2.284710e+01	-6.679748e+01
1.100000e-06	-3.243754e-06	-9.698626e-10	-2.258484e+01	-6.647615e+01
1.110000e-06	-3.205903e-06	-9.656333e-10	-2.232130e+01	-6.614984e+01
1.120000e-06	-3.167815e-06	-9.534628e-10	-2.205611e+01	-6.581830e+01
1.130000e-06	-3.129475e-06	-9.436351e-10	-2.178917e+01	-6.548131e+01
1.140000e-06	-3.090932e-06	-9.399200e-10	-2.152081e+01	-6.513862e+01
1.150000e-06	-3.052115e-06	-9.366268e-10	-2.125054e+01	-6.479001e+01
1.160000e-06	-3.013038e-06	-9.275543e-10	-2.097847e+01	-6.443525e+01
1.170000e-06	-2.973796e-06	-9.211726e-10	-2.070524e+01	-6.407413e+01
1.180000e-06	-2.934408e-06	-9.168715e-10	-2.043100e+01	-6.370641e+01
1.190000e-06	-2.894903e-06	-9.108252e-10	-2.015594e+01	-6.333191e+01
1.200000e-06	-2.855225e-06	-9.081284e-10	-1.987968e+01	-6.295043e+01
1.210000e-06	-2.815362e-06	-9.052794e-10	-1.960213e+01	-6.256178e+01
1.220000e-06	-2.775429e-06	-8.980303e-10	-1.932410e+01	-6.216580e+01
1.230000e-06	-2.735436e-06	-8.892277e-10	-1.904564e+01	-6.176231e+01
1.240000e-06	-2.695190e-06	-8.844879e-10	-1.876543e+01	-6.135119e+01
1.250000e-06	-2.654699e-06	-8.742776e-10	-1.848351e+01	-6.093229e+01
1.260000e-06	-2.614040e-06	-8.665964e-10	-1.820042e+01	-6.050549e+01
1.270000e-06	-2.573120e-06	-8.628704e-10	-1.791551e+01	-6.007069e+01
1.280000e-06	-2.531876e-06	-8.605758e-10	-1.762834e+01	-5.962779e+01
1.290000e-06	-2.490311e-06	-8.555810e-10	-1.733894e+01	-5.917671e+01
1.300000e-06	-2.448489e-06	-8.505398e-10	-1.704776e+01	-5.871737e+01
1.310000e-06	-2.406403e-06	-8.424320e-10	-1.675473e+01	-5.824971e+01
1.320000e-06	-2.364043e-06	-8.331412e-10	-1.645980e+01	-5.777368e+01
1.330000e-06	-2.321442e-06	-8.234466e-10	-1.616319e+01	-5.728922e+01
1.340000e-06	-2.278592e-06	-8.174907e-10	-1.586484e+01	-5.679629e+01
1.350000e-06	-2.235542e-06	-8.099064e-10	-1.556510e+01	-5.629486e+01
1.360000e-06	-2.192345e-06	-8.035446e-10	-1.526434e+01	-5.578487e+01
1.370000e-06	-2.148967e-06	-7.980035e-10	-1.496232e+01	-5.526628e+01
1.380000e-06	-2.105396e-06	-7.939470e-10	-1.465895e+01	-5.473905e+01
1.390000e-06	-2.061700e-06	-7.861459e-10	-1.435471e+01	-5.420312e+01
1.400000e-06	-2.017908e-06	-7.771202e-10	-1.404981e+01	-5.365843e+01
1.410000e-06	-1.974023e-06	-7.642963e-10	-1.374426e+01	-5.310491e+01
1.420000e-06	-1.930076e-06	-7.504255e-10	-1.343827e+01	-5.254246e+01
1.430000e-06	-1.886047e-06	-7.384621e-10	-1.313172e+01	-5.197099e+01
1.440000e-06	-1.841957e-06	-7.322724e-10	-1.282474e+01	-5.139037e+01
1.450000e-06	-1.797832e-06	-7.260383e-10	-1.251752e+01	-5.080046e+01
1.460000e-06	-1.753665e-06	-7.186271e-10	-1.221000e+01	-5.020110e+01
1.470000e-06	-1.709395e-06	-7.081428e-10	-1.190177e+01	-4.959210e+01
1.480000e-06	-1.664901e-06	-6.937657e-10	-1.159198e+01	-4.897325e+01
1.490000e-06	-1.620216e-06	-6.779277e-10	-1.128085e+01	-4.834431e+01
1.500000e-06	-1.575437e-06	-6.653080e-10	-1.096908e+01	-4.770502e+01
1.510000e-06	-1.530543e-06	-6.550196e-10	-1.065650e+01	-4.705507e+01
1.520000e-06	-1.485587e-06	-6.436404e-10	-1.034349e+01	-4.639416e+01
1.530000e-06	-1.440534e-06	-6.330378e-10	-1.002981e+01	-4.572194e+01
1.540000e-06	-1.395321e-06	-6.221754e-10	-9.715013e+00	-4.503802e+01
1.550000e-06	-1.349958e-06	-6.092518e-10	-9.399170e+00	-4.434200e+01
1.560000e-06	-1.304460e-06	-5.936300e-10	-9.082386e+00	-4.363347e+01
1.570000e-06	-1.258933e-06	-5.798212e-10	-8.765401e+00	-4.291197e+01
1.580000e-06	-1.213332e-06	-5.671952e-10	-8.447899e+00	-4.217702e+01
1.590000e-06	-1.167619e-06	-5.550696e-10	-8.129618e+00	-4.142814e+01
1.600000e-06	-1.121836e-06	-5.425437e-10	-7.810857e+00	-4.066483e+01
1.610000e-06	-1.075943e-06	-5.315603e-10	-7.491324e+00	-3.988656e+01
1.620000e-06	-1.029960e-06	-5.207206e-10	-7.171165e+00	-3.909280e+01
1.630000e-06	-9.839292e-07	-5.109562e-10	-6.850669e+00	-3.828303e+01
1.640000e-06	-9.378521e-07	-4.983027e-10	-6.529855e+00	-3.745671e+01
1.650000e-06	-8.916934e-07	-4.822207e-10	-6.208472e+00	-3.661330e+01
1.660000e-06	-8.454946e-07	-4.634050e-10	-5.886809e+00	-3.575229e+01
1.670000e-06	-7.992506e-07	-4.458722e-10	-5.564833e+00	-3.487315e+01
1.680000e-06	-7.529152e-07	-4.301955e-10	-5.242220e+00	-3.397541e+01
1.690000e-06	-7.064923e-07	-4.177361e-10	-4.918997e+00	-3.305857e+01
1.700000e-06	-6.599820e-07	-4.068568e-10	-4.595166e+00	-3.212221e+01
1.710000e-06	-6.134548e-07	-3.947860e-10	-4.271218e+00	-3.116591e+01
1.720000e-06	-5.668705e-07	-3.794401e-10	-3.946871e+00	-3.018929e+01
1.730000e-06	-5.202688e-07	-3.632113e-10	-3.622404e+00	-2.919203e+01
1.740000e-06	-4.737091e-07	-3.449546e-10	-3.298229e+00	-2.817384e+01
1.750000e-06	-4.270902e-07	-3.261382e-10	-2.973643e+00	-2.713448e+01
1.760000e-06	-3.805007e-07	-3.084492e-10	-2.649260e+00	-2.607379e+01
1.770000e-06	-3.338990e-07	-2.935241e-10	-2.324793e+00	-2.499165e+01
1.780000e-06	-2.871913e-07	-2.813506e-10	-1.999588e+00	-2.388801e+01
1.790000e-06	-2.405194e-07	-2.684438e-10	-1.674631e+00	-2.276288e+01
1.800000e-06	-1.938083e-07	-2.536893e-10	-1.349403e+00	-2.161637e+01
1.810000e-06	-1.470582e-07	-2.360460e-10	-1.023902e+00	-2.044863e+01
1.820000e-06	-1.003225e-07	-2.171188e-10	-6.985014e-01	-1.925990e+01
1.830000e-06	-5.359060e-08	-1.997774e-10	-3.731279e-01	-1.805050e+01
1.840000e-06	-6.839442e-09	-1.834952e-10	-4.762005e-02	-1.682083e+01
1.850000e-06	3.995771e-08	-1.681805e-10	2.782081e-01	-1.557137e+01
1.860000e-06	8.668298e-08	-1.537463e-10	6.035357e-01	-1.430267e+01
1.870000e-06	1.334381e-07	-1.374124e-10	9.290714e-01	-1.301538e+01
1.880000e-06	1.803000e-07	-1.214088e-10	1.255350e+00	-1.171020e+01
1.890000e-06	2.270696e-07	-1.047855e-10	1.580987e+00	-1.038792e+01
1.900000e-06	2.737352e-07	-8.702010e-11	1.905899e+00	-9.049425e+00
1.910000e-06	3.203955e-07	-6.827887e-11	2.230774e+00	-7.695642e+00
1.920000e-06	3.670647e-07	-5.105430e-11	2.555711e+00	-6.327583e+00
1.930000e-06	4.137550e-07	-3.405079e-11	2.880795e+00	-4.946321e+00
1.940000e-06	4.603951e-07	-1.728046e-11	3.205530e+00	-3.552990e+00
1.950000e-06	5.069364e-07	-1.521704e-12	3.529576e+00	-2.148783e+00
1.960000e-06	5.534041e-07	1.517208e-11	3.853111e+00	-7.349413e-01
1.970000e-06	5.998296e-07	3.501131e-11	4.176351e+00	6.872468e-01
1.980000e-06	6.462009e-07	5.669864e-11	4.499214e+00	2.116453e+00
1.990000e-06	6.924672e-07	7.784106e-11	4.821346e+00	3.551314e+00
2.000000e-06	7.386145e-07	9.891831e-11	5.142650e+00	4.990441e+00
2.010000e-06	7.847205e-07	1.201116e-10	5.463666e+00	6.432423e+00
2.020000e-06	8.308366e-07	1.390757e-10	5.784752e+00	7.875835e+00
2.030000e-06	8.769129e-07	1.571865e-10	6.105562e+00	9.319244e+00
2.040000e-06	9.228852e-07	1.766551e-10	6.425646e+00	1.076122e+01
2.050000e-06	9.688003e-07	1.973081e-10	6.745333e+00	1.220033e+01
2.060000e-06	1.014730e-06	2.189466e-10	7.065124e+00	1.363516e+01
2.070000e-06	1.060590e-06	2.418585e-10	7.384427e+00	1.506431e+01
2.080000e-06	1.106449e-06	2.643609e-10	7.703722e+00	1.648643e+01
2.090000e-06	1.152291e-06	2.855930e-10	8.022899e+00	1.790017e+01
2.100000e-06	1.197941e-06	3.066333e-10	8.340739e+00	1.930424e+01
2.110000e-06	1.243399e-06	3.261851e-10	8.657247e+00	2.069737e+01
2.120000e-06	1.288785e-06	3.437076e-10	8.973248e+00	2.207837e+01
2.130000e-06	1.334127e-06	3.604114e-10	9.288946e+00	2.344608e+01
2.140000e-06	1.379404e-06	3.764953e-10	9.604190e+00	2.479942e+01
2.150000e-06	1.424562e-06	3.934948e-10	9.918602e+00	2.613735e+01
2.160000e-06	1.469584e-06	4.136123e-10	1.023207e+01	2.745890e+01
2.170000e-06	1.514556e-06	4.349166e-10	1.054519e+01	2.876319e+01
2.180000e-06	1.559450e-06	4.551151e-10	1.085777e+01	3.004940e+01
2.190000e-06	1.604222e-06	4.729886e-10	1.116950e+01	3.131676e+01
2.200000e-06	1.648853e-06	4.895619e-10	1.148025e+01	3.256461e+01
2.210000e-06	1.693351e-06	5.054917e-10	1.179006e+01	3.379236e+01
2.220000e-06	1.737679e-06	5.225693e-10	1.209870e+01	3.499947e+01
2.230000e-06	1.781797e-06	5.394197e-10	1.240587e+01	3.618550e+01
2.240000e-06	1.825771e-06	5.548884e-10	1.271205e+01	3.735009e+01
2.250000e-06	1.869722e-06	5.694593e-10	1.301806e+01	3.849293e+01
2.260000e-06	1.913638e-06	5.837571e-10	1.332383e+01	3.961381e+01
2.270000e-06	1.957460e-06	5.986009e-10	1.362894e+01	4.071256e+01
2.280000e-06	2.001216e-06	6.141755e-10	1.393359e+01	4.178911e+01
2.290000e-06	2.044932e-06	6.289226e-10	1.423797e+01	4.284343e+01
2.300000e-06	2.088600e-06	6.428920e-10	1.454201e+01	4.387556e+01
2.310000e-06	2.132193e-06	6.575105e-10	1.484553e+01	4.488561e+01
2.320000e-06	2.175698e-06	6.714553e-10	1.514843e+01	4.587372e+01
2.330000e-06	2.219141e-06	6.828562e-10	1.545091e+01	4.684010e+01
2.340000e-06	2.262456e-06	6.934946e-10	1.575249e+01	4.778499e+01
2.350000e-06	2.305543e-06	7.056792e-10	1.605249e+01	4.870870e+01
2.360000e-06	2.348322e-06	7.183268e-10	1.635034e+01	4.961154e+01
2.370000e-06	2.390801e-06	7.306070e-10	1.664610e+01	5.049387e+01
2.380000e-06	2.433021e-06	7.427855e-10	1.694006e+01	5.135608e+01
2.390000e-06	2.474981e-06	7.549304e-10	1.723221e+01	5.219859e+01
2.400000e-06	2.516653e-06	7.683935e-10	1.752235e+01	5.302182e+01
2.410000e-06	2.557965e-06	7.815797e-10	1.780999e+01	5.382621e+01
2.420000e-06	2.599025e-06	7.923454e-10	1.809588e+01	5.461222e+01
2.430000e-06	2.639715e-06	8.018376e-10	1.837918e+01	5.538031e+01
2.440000e-06	2.679998e-06	8.122107e-10	1.865965e+01	5.613094e+01
2.450000e-06	2.720139e-06	8.238249e-10	1.893914e+01	5.686457e+01
2.460000e-06	2.760165e-06	8.341630e-10	1.921782e+01	5.758167e+01
2.470000e-06	2.800029e-06	8.446489e-10	1.949538e+01	5.828268e+01
2.480000e-06	2.839775e-06	8.552008e-10	1.977211e+01	5.896804e+01
2.490000e-06	2.879435e-06	8.648201e-10	2.004825e+01	5.963818e+01
2.500000e-06	2.918963e-06	8.745326e-10	2.032346e+01	6.029353e+01
2.510000e-06	2.958323e-06	8.832429e-10	2.059751e+01	6.093446e+01
2.520000e-06	2.997575e-06	8.906279e-10	2.087080e+01	6.156138e+01
2.530000e-06	3.036650e-06	8.983845e-10	2.114286e+01	6.217464e+01
2.540000e-06	3.075424e-06	9.069484e-10	2.141284e+01	6.277459e+01
2.550000e-06	3.113982e-06	9.159033e-10	2.168130e+01	6.336156e+01
2.560000e-06	3.152415e-06	9.244047e-10	2.194889e+01	6.393584e+01
2.570000e-06	3.190566e-06	9.333156e-10	2.221452e+01	6.449774e+01
2.580000e-06	3.228409e-06	9.408603e-10	2.247800e+01	6.504753e+01
2.590000e-06	3.266140e-06	9.463760e-10	2.274071e+01	6.558545e+01
2.600000e-06	3.303734e-06	9.529579e-10	2.300245e+01	6.611175e+01
2.610000e-06	3.341076e-06	9.613274e-10	2.326246e+01	6.662664e+01
2.620000e-06	3.378174e-06	9.699883e-10	2.352075e+01	6.713033e+01
2.630000e-06	3.415012e-06	9.767771e-10	2.377723e+01	6.762303e+01
2.640000e-06	3.451552e-06	9.798277e-10	2.403164e+01	6.810490e+01
2.650000e-06	3.487807e-06	9.834683e-10	2.428407e+01	6.857613e+01
2.660000e-06	3.523856e-06	9.900576e-10	2.453507e+01	6.903689e+01
2.670000e-06	3.559764e-06	9.968929e-10	2.478508e+01	6.948733e+01
2.680000e-06	3.595528e-06	1.003024e-09	2.503409e+01	6.992762e+01
2.690000e-06	3.631192e-06	1.008437e-09	2.528240e+01	7.035790e+01
2.700000e-06	3.666712e-06	1.014186e-09	2.552971e+01	7.077832e+01
2.710000e-06	3.702032e-06	1.019891e-09	2.577563e+01	7.118905e+01
2.720000e-06	3.737065e-06	1.028079e-09	2.601955e+01	7.159023e+01
2.730000e-06	3.771695e-06	1.037717e-09	2.626067e+01	7.198203e+01
2.740000e-06	3.805903e-06	1.044929e-09	2.649884e+01	7.236460e+01
2.750000e-06	3.839733e-06	1.047844e-09	2.673438e+01	7.273811e+01
2.760000e-06	3.873120e-06	1.048964e-09	2.696684e+01	7.310273e+01
2.770000e-06	3.905936e-06	1.053344e-09	2.719532e+01	7.345864e+01
2.780000e-06	3.938311e-06	1.061793e-09	2.742074e+01	7.380602e+01
2.790000e-06	3.970404e-06	1.072397e-09	2.764419e+01	7.414507e+01
2.800000e-06	4.002285e-06	1.082711e-09	2.786616e+01	7.447597e+01
2.810000e-06	4.034039e-06	1.089984e-09	2.808725e+01	7.479893e+01
2.820000e-06	4.065649e-06	1.094805e-09	2.830734e+01	7.511416e+01
2.830000e-06	4.097088e-06	1.097690e-09	2.852623e+01	7.542188e+01
2.840000e-06	4.128327e-06	1.097283e-09	2.874373e+01	7.572229e+01
2.850000e-06	4.159289e-06	1.097615e-09	2.895931e+01	7.601562e+01
2.860000e-06	4.189896e-06	1.103528e-09	2.917241e+01	7.630210e+01
2.870000e-06	4.220104e-06	1.112269e-09	2.938274e+01	7.658194e+01
2.880000e-06	4.250018e-06	1.120015e-09	2.959102e+01	7.685537e+01
2.890000e-06	4.279714e-06	1.125718e-09	2.979778e+01	7.712261e+01
2.900000e-06	4.309147e-06	1.130133e-09	3.000271e+01	7.738389e+01
