# Temperatura_=_9.8
# Concentracion g/m^3_=_1620.0
# C_Vs_to_Am_M_A/Vsm_=_65563218390.804596
# pendiente_HvsI_1/m_=_3716.3
# ordenada_HvsI_A/m_=_1297.0
# frecuencia_Hz_=_135105.33431995014

Tiempo_(s)	Campo_(V.s)	Magnetizacion_(V.s)	Campo_(kA/m)	Magnetizacion_(A/m)
0.000000e+00	-5.524605e-06	-7.260743e-10	-3.836753e+01	-4.850793e+01
1.000000e-08	-5.524872e-06	-7.252394e-10	-3.836939e+01	-4.850386e+01
2.000000e-08	-5.524928e-06	-7.231966e-10	-3.836978e+01	-4.850167e+01
3.000000e-08	-5.524721e-06	-7.227332e-10	-3.836834e+01	-4.850138e+01
4.000000e-08	-5.524057e-06	-7.214495e-10	-3.836373e+01	-4.850294e+01
5.000000e-08	-5.522728e-06	-7.175617e-10	-3.835450e+01	-4.850633e+01
6.000000e-08	-5.520829e-06	-7.090098e-10	-3.834131e+01	-4.851148e+01
7.000000e-08	-5.518383e-06	-6.843323e-10	-3.832433e+01	-4.851830e+01
8.000000e-08	-5.515407e-06	-6.691397e-10	-3.830365e+01	-4.852671e+01
9.000000e-08	-5.511971e-06	-7.394354e-10	-3.827980e+01	-4.853659e+01
1.000000e-07	-5.508107e-06	-8.493203e-10	-3.825296e+01	-4.854781e+01
1.100000e-07	-5.503842e-06	-7.984389e-10	-3.822334e+01	-4.856024e+01
1.200000e-07	-5.499260e-06	-6.315663e-10	-3.819152e+01	-4.857373e+01
1.300000e-07	-5.494601e-06	-6.089910e-10	-3.815916e+01	-4.858810e+01
1.400000e-07	-5.489700e-06	-7.551488e-10	-3.812513e+01	-4.860321e+01
1.500000e-07	-5.484250e-06	-7.786049e-10	-3.808728e+01	-4.861887e+01
1.600000e-07	-5.478421e-06	-6.344588e-10	-3.804679e+01	-4.863491e+01
1.700000e-07	-5.472356e-06	-6.176431e-10	-3.800468e+01	-4.865113e+01
1.800000e-07	-5.465830e-06	-7.765843e-10	-3.795935e+01	-4.866737e+01
1.900000e-07	-5.458696e-06	-8.335774e-10	-3.790981e+01	-4.868342e+01
2.000000e-07	-5.451202e-06	-7.033688e-10	-3.785776e+01	-4.869910e+01
2.100000e-07	-5.443576e-06	-6.648081e-10	-3.780480e+01	-4.871423e+01
2.200000e-07	-5.435664e-06	-7.688312e-10	-3.774985e+01	-4.872862e+01
2.300000e-07	-5.427440e-06	-8.358134e-10	-3.769274e+01	-4.874210e+01
2.400000e-07	-5.418973e-06	-7.659957e-10	-3.763394e+01	-4.875449e+01
2.500000e-07	-5.409975e-06	-7.341622e-10	-3.757144e+01	-4.876561e+01
2.600000e-07	-5.400103e-06	-7.893575e-10	-3.750289e+01	-4.877530e+01
2.700000e-07	-5.389563e-06	-8.177753e-10	-3.742969e+01	-4.878341e+01
2.800000e-07	-5.378588e-06	-7.780482e-10	-3.735347e+01	-4.878977e+01
2.900000e-07	-5.367192e-06	-7.727104e-10	-3.727433e+01	-4.879424e+01
3.000000e-07	-5.355493e-06	-8.182828e-10	-3.719308e+01	-4.879667e+01
3.100000e-07	-5.343390e-06	-8.268850e-10	-3.710902e+01	-4.879692e+01
3.200000e-07	-5.330780e-06	-7.788533e-10	-3.702145e+01	-4.879487e+01
3.300000e-07	-5.317617e-06	-7.566919e-10	-3.693004e+01	-4.879039e+01
3.400000e-07	-5.304075e-06	-7.999025e-10	-3.683599e+01	-4.878336e+01
3.500000e-07	-5.290326e-06	-8.098193e-10	-3.674050e+01	-4.877367e+01
3.600000e-07	-5.276103e-06	-7.643865e-10	-3.664173e+01	-4.876119e+01
3.700000e-07	-5.261356e-06	-7.649573e-10	-3.653931e+01	-4.874584e+01
3.800000e-07	-5.246259e-06	-8.175606e-10	-3.643446e+01	-4.872751e+01
3.900000e-07	-5.230555e-06	-7.838360e-10	-3.632540e+01	-4.870610e+01
4.000000e-07	-5.214249e-06	-7.428403e-10	-3.621216e+01	-4.868152e+01
4.100000e-07	-5.197578e-06	-8.035727e-10	-3.609638e+01	-4.865368e+01
4.200000e-07	-5.180557e-06	-8.226891e-10	-3.597817e+01	-4.862249e+01
4.300000e-07	-5.163241e-06	-7.258723e-10	-3.585792e+01	-4.858788e+01
4.400000e-07	-5.145679e-06	-7.437166e-10	-3.573595e+01	-4.854976e+01
4.500000e-07	-5.127804e-06	-8.363146e-10	-3.561181e+01	-4.850806e+01
4.600000e-07	-5.109449e-06	-7.759055e-10	-3.548434e+01	-4.846270e+01
4.700000e-07	-5.090580e-06	-6.982780e-10	-3.535329e+01	-4.841363e+01
4.800000e-07	-5.071373e-06	-7.863632e-10	-3.521991e+01	-4.836077e+01
4.900000e-07	-5.051999e-06	-8.084093e-10	-3.508536e+01	-4.830407e+01
5.000000e-07	-5.032439e-06	-7.247869e-10	-3.494952e+01	-4.824348e+01
5.100000e-07	-5.012687e-06	-7.586420e-10	-3.481234e+01	-4.817894e+01
5.200000e-07	-4.992718e-06	-8.082843e-10	-3.467366e+01	-4.811041e+01
5.300000e-07	-4.972277e-06	-7.199866e-10	-3.453170e+01	-4.803787e+01
5.400000e-07	-4.951352e-06	-7.165164e-10	-3.438638e+01	-4.796129e+01
5.500000e-07	-4.930135e-06	-8.064084e-10	-3.423903e+01	-4.788065e+01
5.600000e-07	-4.908622e-06	-7.545167e-10	-3.408963e+01	-4.779594e+01
5.700000e-07	-4.886771e-06	-6.857917e-10	-3.393788e+01	-4.770716e+01
5.800000e-07	-4.864593e-06	-7.619630e-10	-3.378385e+01	-4.761434e+01
5.900000e-07	-4.842023e-06	-7.751293e-10	-3.362711e+01	-4.751750e+01
6.000000e-07	-4.818991e-06	-7.007953e-10	-3.346716e+01	-4.741668e+01
6.100000e-07	-4.795672e-06	-7.342360e-10	-3.330521e+01	-4.731193e+01
6.200000e-07	-4.772211e-06	-7.762086e-10	-3.314227e+01	-4.720333e+01
6.300000e-07	-4.748541e-06	-7.155401e-10	-3.297789e+01	-4.709095e+01
6.400000e-07	-4.724592e-06	-7.046528e-10	-3.281157e+01	-4.697490e+01
6.500000e-07	-4.700311e-06	-7.484057e-10	-3.264294e+01	-4.685529e+01
6.600000e-07	-4.675604e-06	-7.193683e-10	-3.247135e+01	-4.673225e+01
6.700000e-07	-4.650425e-06	-7.006404e-10	-3.229649e+01	-4.660593e+01
6.800000e-07	-4.624672e-06	-7.394419e-10	-3.211764e+01	-4.647649e+01
6.900000e-07	-4.598256e-06	-7.349609e-10	-3.193418e+01	-4.634411e+01
7.000000e-07	-4.571344e-06	-7.055563e-10	-3.174728e+01	-4.620899e+01
7.100000e-07	-4.544147e-06	-7.252310e-10	-3.155841e+01	-4.607132e+01
7.200000e-07	-4.516708e-06	-7.260473e-10	-3.136785e+01	-4.593132e+01
7.300000e-07	-4.489062e-06	-6.974216e-10	-3.117585e+01	-4.578924e+01
7.400000e-07	-4.461254e-06	-7.034000e-10	-3.098273e+01	-4.564530e+01
7.500000e-07	-4.433279e-06	-7.202282e-10	-3.078844e+01	-4.549976e+01
7.600000e-07	-4.405052e-06	-7.061358e-10	-3.059241e+01	-4.535288e+01
7.700000e-07	-4.376513e-06	-7.051655e-10	-3.039421e+01	-4.520492e+01
7.800000e-07	-4.347589e-06	-7.133277e-10	-3.019334e+01	-4.505615e+01
7.900000e-07	-4.318273e-06	-7.011290e-10	-2.998974e+01	-4.490682e+01
8.000000e-07	-4.288683e-06	-6.954239e-10	-2.978425e+01	-4.475720e+01
8.100000e-07	-4.258856e-06	-7.077538e-10	-2.957711e+01	-4.460757e+01
8.200000e-07	-4.228790e-06	-6.999512e-10	-2.936830e+01	-4.445816e+01
8.300000e-07	-4.198418e-06	-6.910395e-10	-2.915737e+01	-4.430922e+01
8.400000e-07	-4.167708e-06	-7.032947e-10	-2.894410e+01	-4.416098e+01
8.500000e-07	-4.136667e-06	-7.033103e-10	-2.872852e+01	-4.401367e+01
8.600000e-07	-4.105369e-06	-6.871198e-10	-2.851116e+01	-4.386748e+01
8.700000e-07	-4.073926e-06	-6.891631e-10	-2.829279e+01	-4.372259e+01
8.800000e-07	-4.042317e-06	-6.931602e-10	-2.807327e+01	-4.357917e+01
8.900000e-07	-4.010554e-06	-6.819380e-10	-2.785268e+01	-4.343734e+01
9.000000e-07	-3.978609e-06	-6.829248e-10	-2.763083e+01	-4.329721e+01
9.100000e-07	-3.946357e-06	-6.923814e-10	-2.740684e+01	-4.315886e+01
9.200000e-07	-3.913722e-06	-6.846153e-10	-2.718020e+01	-4.302235e+01
9.300000e-07	-3.880654e-06	-6.785963e-10	-2.695055e+01	-4.288768e+01
9.400000e-07	-3.847054e-06	-6.881829e-10	-2.671720e+01	-4.275484e+01
9.500000e-07	-3.812952e-06	-6.853401e-10	-2.648037e+01	-4.262378e+01
9.600000e-07	-3.778531e-06	-6.745148e-10	-2.624132e+01	-4.249440e+01
9.700000e-07	-3.743742e-06	-6.776543e-10	-2.599971e+01	-4.236660e+01
9.800000e-07	-3.708531e-06	-6.794132e-10	-2.575518e+01	-4.224022e+01
9.900000e-07	-3.673113e-06	-6.680067e-10	-2.550921e+01	-4.211505e+01
1.000000e-06	-3.637595e-06	-6.666706e-10	-2.526254e+01	-4.199089e+01
1.010000e-06	-3.601931e-06	-6.716078e-10	-2.501486e+01	-4.186745e+01
1.020000e-06	-3.566080e-06	-6.660149e-10	-2.476588e+01	-4.174447e+01
1.030000e-06	-3.530056e-06	-6.605911e-10	-2.451570e+01	-4.162161e+01
1.040000e-06	-3.493848e-06	-6.640973e-10	-2.426424e+01	-4.149853e+01
1.050000e-06	-3.457393e-06	-6.580090e-10	-2.401106e+01	-4.137485e+01
1.060000e-06	-3.420613e-06	-6.456807e-10	-2.375563e+01	-4.125017e+01
1.070000e-06	-3.383570e-06	-6.430232e-10	-2.349837e+01	-4.112408e+01
1.080000e-06	-3.346278e-06	-6.434656e-10	-2.323938e+01	-4.099613e+01
1.090000e-06	-3.308751e-06	-6.393242e-10	-2.297877e+01	-4.086589e+01
1.100000e-06	-3.271062e-06	-6.403136e-10	-2.271703e+01	-4.073288e+01
1.110000e-06	-3.233126e-06	-6.397339e-10	-2.245357e+01	-4.059664e+01
1.120000e-06	-3.194952e-06	-6.302343e-10	-2.218845e+01	-4.045671e+01
1.130000e-06	-3.156544e-06	-6.212010e-10	-2.192171e+01	-4.031261e+01
1.140000e-06	-3.117918e-06	-6.191707e-10	-2.165346e+01	-4.016389e+01
1.150000e-06	-3.079140e-06	-6.136386e-10	-2.138415e+01	-4.001009e+01
1.160000e-06	-3.040149e-06	-6.056641e-10	-2.111337e+01	-3.985076e+01
1.170000e-06	-3.000970e-06	-6.066294e-10	-2.084128e+01	-3.968549e+01
1.180000e-06	-2.961660e-06	-6.099179e-10	-2.056827e+01	-3.951386e+01
1.190000e-06	-2.922166e-06	-6.080510e-10	-2.029399e+01	-3.933551e+01
1.200000e-06	-2.882567e-06	-6.048930e-10	-2.001899e+01	-3.915006e+01
1.210000e-06	-2.842872e-06	-5.991589e-10	-1.974331e+01	-3.895720e+01
1.220000e-06	-2.802999e-06	-5.883383e-10	-1.946640e+01	-3.875664e+01
1.230000e-06	-2.763014e-06	-5.795743e-10	-1.918871e+01	-3.854810e+01
1.240000e-06	-2.722803e-06	-5.780303e-10	-1.890945e+01	-3.833138e+01
1.250000e-06	-2.682249e-06	-5.787651e-10	-1.862781e+01	-3.810627e+01
1.260000e-06	-2.641440e-06	-5.762072e-10	-1.834440e+01	-3.787264e+01
1.270000e-06	-2.600460e-06	-5.763362e-10	-1.805980e+01	-3.763037e+01
1.280000e-06	-2.559275e-06	-5.750353e-10	-1.777377e+01	-3.737939e+01
1.290000e-06	-2.517763e-06	-5.665442e-10	-1.748548e+01	-3.711968e+01
1.300000e-06	-2.475974e-06	-5.574155e-10	-1.719526e+01	-3.685122e+01
1.310000e-06	-2.433922e-06	-5.511696e-10	-1.690321e+01	-3.657408e+01
1.320000e-06	-2.391504e-06	-5.448795e-10	-1.660863e+01	-3.628831e+01
1.330000e-06	-2.348731e-06	-5.414579e-10	-1.631157e+01	-3.599404e+01
1.340000e-06	-2.305728e-06	-5.436672e-10	-1.601293e+01	-3.569139e+01
1.350000e-06	-2.262562e-06	-5.455614e-10	-1.571314e+01	-3.538054e+01
1.360000e-06	-2.219253e-06	-5.416427e-10	-1.541237e+01	-3.506167e+01
1.370000e-06	-2.175807e-06	-5.349613e-10	-1.511064e+01	-3.473499e+01
1.380000e-06	-2.132224e-06	-5.270383e-10	-1.480797e+01	-3.440072e+01
1.390000e-06	-2.088563e-06	-5.189115e-10	-1.450475e+01	-3.405910e+01
1.400000e-06	-2.044816e-06	-5.139964e-10	-1.420094e+01	-3.371037e+01
1.410000e-06	-2.000926e-06	-5.117993e-10	-1.389613e+01	-3.335477e+01
1.420000e-06	-1.956934e-06	-5.102676e-10	-1.359060e+01	-3.299254e+01
1.430000e-06	-1.912937e-06	-5.092053e-10	-1.328505e+01	-3.262391e+01
1.440000e-06	-1.868885e-06	-5.078409e-10	-1.297912e+01	-3.224912e+01
1.450000e-06	-1.824722e-06	-5.020821e-10	-1.267241e+01	-3.186835e+01
1.460000e-06	-1.780483e-06	-4.915020e-10	-1.236518e+01	-3.148179e+01
1.470000e-06	-1.736091e-06	-4.800211e-10	-1.205689e+01	-3.108960e+01
1.480000e-06	-1.691492e-06	-4.695809e-10	-1.174715e+01	-3.069190e+01
1.490000e-06	-1.646772e-06	-4.621499e-10	-1.143658e+01	-3.028878e+01
1.500000e-06	-1.601965e-06	-4.605891e-10	-1.112540e+01	-2.988030e+01
1.510000e-06	-1.557000e-06	-4.616861e-10	-1.081313e+01	-2.946647e+01
1.520000e-06	-1.511895e-06	-4.591915e-10	-1.049988e+01	-2.904725e+01
1.530000e-06	-1.466779e-06	-4.507394e-10	-1.018656e+01	-2.862257e+01
1.540000e-06	-1.421568e-06	-4.371243e-10	-9.872573e+00	-2.819231e+01
1.550000e-06	-1.376116e-06	-4.208237e-10	-9.556913e+00	-2.775627e+01
1.560000e-06	-1.330535e-06	-4.066331e-10	-9.240364e+00	-2.731425e+01
1.570000e-06	-1.284983e-06	-3.969629e-10	-8.924007e+00	-2.686597e+01
1.580000e-06	-1.239390e-06	-3.921059e-10	-8.607374e+00	-2.641109e+01
1.590000e-06	-1.193577e-06	-3.915659e-10	-8.289213e+00	-2.594926e+01
1.600000e-06	-1.147582e-06	-3.877314e-10	-7.969781e+00	-2.548005e+01
1.610000e-06	-1.101583e-06	-3.806849e-10	-7.650322e+00	-2.500300e+01
1.620000e-06	-1.055545e-06	-3.687444e-10	-7.330596e+00	-2.451761e+01
1.630000e-06	-1.009477e-06	-3.537856e-10	-7.010662e+00	-2.402333e+01
1.640000e-06	-9.633792e-07	-3.378890e-10	-6.690521e+00	-2.351961e+01
1.650000e-06	-9.171369e-07	-3.224228e-10	-6.369375e+00	-2.300584e+01
1.660000e-06	-8.708071e-07	-3.120364e-10	-6.047622e+00	-2.248139e+01
1.670000e-06	-8.244451e-07	-3.053203e-10	-5.725645e+00	-2.194563e+01
1.680000e-06	-7.780647e-07	-3.030540e-10	-5.403540e+00	-2.139791e+01
1.690000e-06	-7.316612e-07	-2.990989e-10	-5.081275e+00	-2.083758e+01
1.700000e-06	-6.851315e-07	-2.934702e-10	-4.758133e+00	-2.026398e+01
1.710000e-06	-6.385038e-07	-2.838325e-10	-4.434311e+00	-1.967647e+01
1.720000e-06	-5.918019e-07	-2.683719e-10	-4.109974e+00	-1.907444e+01
1.730000e-06	-5.450724e-07	-2.516250e-10	-3.785444e+00	-1.845728e+01
1.740000e-06	-4.983694e-07	-2.385998e-10	-3.461099e+00	-1.782443e+01
1.750000e-06	-4.517286e-07	-2.300873e-10	-3.137186e+00	-1.717535e+01
1.760000e-06	-4.050568e-07	-2.240651e-10	-2.813057e+00	-1.650956e+01
1.770000e-06	-3.582436e-07	-2.172799e-10	-2.487947e+00	-1.582663e+01
1.780000e-06	-3.113444e-07	-2.093814e-10	-2.162239e+00	-1.512619e+01
1.790000e-06	-2.644758e-07	-1.995256e-10	-1.836744e+00	-1.440793e+01
1.800000e-06	-2.176518e-07	-1.833869e-10	-1.511559e+00	-1.367163e+01
1.810000e-06	-1.707327e-07	-1.635043e-10	-1.185712e+00	-1.291712e+01
1.820000e-06	-1.238026e-07	-1.458288e-10	-8.597902e-01	-1.214433e+01
1.830000e-06	-7.692562e-08	-1.346260e-10	-5.342366e-01	-1.135328e+01
1.840000e-06	-3.007500e-08	-1.273955e-10	-2.088663e-01	-1.054406e+01
1.850000e-06	1.680132e-08	-1.195963e-10	1.166826e-01	-9.716875e+00
1.860000e-06	6.372621e-08	-1.124979e-10	4.425688e-01	-8.872009e+00
1.870000e-06	1.106227e-07	-1.007701e-10	7.682577e-01	-8.009852e+00
1.880000e-06	1.575616e-07	-8.439019e-11	1.094241e+00	-7.130888e+00
1.890000e-06	2.045171e-07	-6.791754e-11	1.420340e+00	-6.235698e+00
1.900000e-06	2.513246e-07	-5.202958e-11	1.745411e+00	-5.324961e+00
1.910000e-06	2.980451e-07	-3.906932e-11	2.069878e+00	-4.399449e+00
1.920000e-06	3.447840e-07	-2.672572e-11	2.394472e+00	-3.460028e+00
1.930000e-06	3.915208e-07	-1.498197e-11	2.719052e+00	-2.507650e+00
1.940000e-06	4.382046e-07	-2.913209e-12	3.043264e+00	-1.543352e+00
1.950000e-06	4.847980e-07	7.847708e-12	3.366848e+00	-5.682534e-01
1.960000e-06	5.313727e-07	2.024167e-11	3.690302e+00	4.164560e-01
1.970000e-06	5.779612e-07	3.507859e-11	4.013852e+00	1.409517e+00
1.980000e-06	6.245484e-07	5.091861e-11	4.337393e+00	2.409609e+00
1.990000e-06	6.710651e-07	6.613428e-11	4.660444e+00	3.415359e+00
2.000000e-06	7.174933e-07	8.014291e-11	4.982881e+00	4.425348e+00
2.010000e-06	7.640181e-07	9.289587e-11	5.305989e+00	5.438121e+00
2.020000e-06	8.105252e-07	1.046703e-10	5.628973e+00	6.452193e+00
2.030000e-06	8.568267e-07	1.165397e-10	5.950530e+00	7.466061e+00
2.040000e-06	9.030329e-07	1.297815e-10	6.271425e+00	8.478209e+00
2.050000e-06	9.492004e-07	1.444646e-10	6.592051e+00	9.487125e+00
2.060000e-06	9.952949e-07	1.606927e-10	6.912170e+00	1.049130e+01
2.070000e-06	1.041337e-06	1.752723e-10	7.231928e+00	1.148925e+01
2.080000e-06	1.087282e-06	1.886650e-10	7.551009e+00	1.247951e+01
2.090000e-06	1.133128e-06	2.009668e-10	7.869402e+00	1.346065e+01
2.100000e-06	1.178896e-06	2.127770e-10	8.187255e+00	1.443130e+01
2.110000e-06	1.224553e-06	2.264375e-10	8.504333e+00	1.539012e+01
2.120000e-06	1.270129e-06	2.398270e-10	8.820852e+00	1.633586e+01
2.130000e-06	1.315604e-06	2.522714e-10	9.136665e+00	1.726730e+01
2.140000e-06	1.360963e-06	2.641235e-10	9.451677e+00	1.818334e+01
2.150000e-06	1.406278e-06	2.758035e-10	9.766383e+00	1.908292e+01
2.160000e-06	1.451554e-06	2.864602e-10	1.008082e+01	1.996509e+01
2.170000e-06	1.496729e-06	2.979288e-10	1.039456e+01	2.082898e+01
2.180000e-06	1.541766e-06	3.099315e-10	1.070733e+01	2.167383e+01
2.190000e-06	1.586694e-06	3.210248e-10	1.101934e+01	2.249897e+01
2.200000e-06	1.631568e-06	3.322829e-10	1.133099e+01	2.330383e+01
2.210000e-06	1.676303e-06	3.428597e-10	1.164166e+01	2.408795e+01
2.220000e-06	1.720833e-06	3.528684e-10	1.195092e+01	2.485095e+01
2.230000e-06	1.765220e-06	3.635993e-10	1.225918e+01	2.559259e+01
2.240000e-06	1.809468e-06	3.724879e-10	1.256648e+01	2.631270e+01
2.250000e-06	1.853579e-06	3.805018e-10	1.287282e+01	2.701123e+01
2.260000e-06	1.897523e-06	3.885946e-10	1.317801e+01	2.768822e+01
2.270000e-06	1.941372e-06	3.966649e-10	1.348253e+01	2.834381e+01
2.280000e-06	1.985198e-06	4.040072e-10	1.378690e+01	2.897822e+01
2.290000e-06	2.028954e-06	4.123574e-10	1.409077e+01	2.959177e+01
2.300000e-06	2.072651e-06	4.200513e-10	1.439425e+01	3.018485e+01
2.310000e-06	2.116304e-06	4.272138e-10	1.469741e+01	3.075792e+01
2.320000e-06	2.159880e-06	4.337421e-10	1.500003e+01	3.131152e+01
2.330000e-06	2.203369e-06	4.390873e-10	1.530206e+01	3.184626e+01
2.340000e-06	2.246725e-06	4.454622e-10	1.560316e+01	3.236277e+01
2.350000e-06	2.289918e-06	4.528748e-10	1.590313e+01	3.286176e+01
2.360000e-06	2.333003e-06	4.604731e-10	1.620235e+01	3.334396e+01
2.370000e-06	2.376021e-06	4.681593e-10	1.650110e+01	3.381014e+01
2.380000e-06	2.418810e-06	4.747667e-10	1.679826e+01	3.426109e+01
2.390000e-06	2.461126e-06	4.806252e-10	1.709215e+01	3.469762e+01
2.400000e-06	2.503019e-06	4.873050e-10	1.738308e+01	3.512054e+01
2.410000e-06	2.544581e-06	4.950916e-10	1.767172e+01	3.553066e+01
2.420000e-06	2.585768e-06	5.039223e-10	1.795776e+01	3.592879e+01
2.430000e-06	2.626673e-06	5.142749e-10	1.824184e+01	3.631571e+01
2.440000e-06	2.667487e-06	5.254195e-10	1.852529e+01	3.669220e+01
2.450000e-06	2.708073e-06	5.350915e-10	1.880715e+01	3.705899e+01
2.460000e-06	2.748267e-06	5.408954e-10	1.908629e+01	3.741680e+01
2.470000e-06	2.788239e-06	5.436176e-10	1.936389e+01	3.776630e+01
2.480000e-06	2.828088e-06	5.469003e-10	1.964064e+01	3.810810e+01
2.490000e-06	2.867807e-06	5.509727e-10	1.991648e+01	3.844279e+01
2.500000e-06	2.907410e-06	5.577509e-10	2.019151e+01	3.877089e+01
2.510000e-06	2.946893e-06	5.672638e-10	2.046572e+01	3.909288e+01
2.520000e-06	2.986272e-06	5.764686e-10	2.073920e+01	3.940918e+01
2.530000e-06	3.025553e-06	5.849076e-10	2.101200e+01	3.972013e+01
2.540000e-06	3.064640e-06	5.907816e-10	2.128345e+01	4.002606e+01
2.550000e-06	3.103454e-06	5.918737e-10	2.155302e+01	4.032719e+01
2.560000e-06	3.142030e-06	5.915801e-10	2.182092e+01	4.062372e+01
2.570000e-06	3.180375e-06	5.928488e-10	2.208722e+01	4.091578e+01
2.580000e-06	3.218490e-06	5.965142e-10	2.235192e+01	4.120344e+01
2.590000e-06	3.256335e-06	6.034739e-10	2.261475e+01	4.148673e+01
2.600000e-06	3.294030e-06	6.133416e-10	2.287653e+01	4.176562e+01
2.610000e-06	3.331546e-06	6.224177e-10	2.313708e+01	4.204004e+01
2.620000e-06	3.368738e-06	6.288989e-10	2.339537e+01	4.230987e+01
2.630000e-06	3.405752e-06	6.322160e-10	2.365242e+01	4.257497e+01
2.640000e-06	3.442538e-06	6.319965e-10	2.390790e+01	4.283516e+01
2.650000e-06	3.478991e-06	6.304485e-10	2.416106e+01	4.309022e+01
2.660000e-06	3.515147e-06	6.314605e-10	2.441216e+01	4.333992e+01
2.670000e-06	3.551098e-06	6.361866e-10	2.466183e+01	4.358401e+01
2.680000e-06	3.586899e-06	6.432346e-10	2.491046e+01	4.382222e+01
2.690000e-06	3.622595e-06	6.502238e-10	2.515837e+01	4.405428e+01
2.700000e-06	3.658188e-06	6.564780e-10	2.540556e+01	4.427992e+01
2.710000e-06	3.693620e-06	6.612610e-10	2.565163e+01	4.449888e+01
2.720000e-06	3.728900e-06	6.624201e-10	2.589664e+01	4.471088e+01
2.730000e-06	3.763911e-06	6.623924e-10	2.613979e+01	4.491569e+01
2.740000e-06	3.798584e-06	6.616852e-10	2.638059e+01	4.511307e+01
2.750000e-06	3.832880e-06	6.620131e-10	2.661877e+01	4.530282e+01
2.760000e-06	3.866689e-06	6.656548e-10	2.685356e+01	4.548475e+01
2.770000e-06	3.899892e-06	6.696704e-10	2.708415e+01	4.565872e+01
2.780000e-06	3.932534e-06	6.729547e-10	2.731085e+01	4.582461e+01
2.790000e-06	3.964903e-06	6.764090e-10	2.753564e+01	4.598233e+01
2.800000e-06	3.997034e-06	6.797253e-10	2.775879e+01	4.613183e+01
2.810000e-06	4.028860e-06	6.824423e-10	2.797982e+01	4.627312e+01
2.820000e-06	4.060526e-06	6.843807e-10	2.819973e+01	4.640622e+01
2.830000e-06	4.092057e-06	6.875063e-10	2.841871e+01	4.653120e+01
2.840000e-06	4.123401e-06	6.896994e-10	2.863639e+01	4.664819e+01
2.850000e-06	4.154520e-06	6.900704e-10	2.885250e+01	4.675733e+01
2.860000e-06	4.185349e-06	6.924892e-10	2.906661e+01	4.685882e+01
2.870000e-06	4.215875e-06	6.950769e-10	2.927860e+01	4.695289e+01
2.880000e-06	4.246038e-06	6.947346e-10	2.948808e+01	4.703982e+01
2.890000e-06	4.275837e-06	6.955433e-10	2.969503e+01	4.711989e+01
2.900000e-06	4.305384e-06	6.980345e-10	2.990023e+01	4.719345e+01
