# Temperatura_=_-0.55
# Concentracion g/m^3_=_1620.0
# C_Vs_to_Am_M_A/Vsm_=_65563218390.804596
# pendiente_HvsI_1/m_=_3716.3
# ordenada_HvsI_A/m_=_1297.0
# frecuencia_Hz_=_135089.87777329015

Tiempo_(s)	Campo_(V.s)	Magnetizacion_(V.s)	Campo_(kA/m)	Magnetizacion_(A/m)
0.000000e+00	-5.531137e-06	-1.308326e-09	-3.837416e+01	-8.442812e+01
1.000000e-08	-5.531420e-06	-1.307220e-09	-3.837613e+01	-8.446858e+01
2.000000e-08	-5.531497e-06	-1.308421e-09	-3.837666e+01	-8.450677e+01
3.000000e-08	-5.531258e-06	-1.313043e-09	-3.837501e+01	-8.454238e+01
4.000000e-08	-5.530605e-06	-1.313792e-09	-3.837047e+01	-8.457512e+01
5.000000e-08	-5.529463e-06	-1.311104e-09	-3.836255e+01	-8.460469e+01
6.000000e-08	-5.527662e-06	-1.309413e-09	-3.835005e+01	-8.463079e+01
7.000000e-08	-5.525173e-06	-1.304993e-09	-3.833279e+01	-8.465313e+01
8.000000e-08	-5.522203e-06	-1.306042e-09	-3.831218e+01	-8.467141e+01
9.000000e-08	-5.518760e-06	-1.306389e-09	-3.828829e+01	-8.468537e+01
1.000000e-07	-5.514932e-06	-1.316270e-09	-3.826173e+01	-8.469473e+01
1.100000e-07	-5.510781e-06	-1.299471e-09	-3.823294e+01	-8.469926e+01
1.200000e-07	-5.506288e-06	-1.312610e-09	-3.820177e+01	-8.469872e+01
1.300000e-07	-5.501556e-06	-1.276049e-09	-3.816894e+01	-8.469290e+01
1.400000e-07	-5.496511e-06	-1.316784e-09	-3.813394e+01	-8.468163e+01
1.500000e-07	-5.491036e-06	-1.279123e-09	-3.809595e+01	-8.466474e+01
1.600000e-07	-5.485284e-06	-1.291381e-09	-3.805604e+01	-8.464209e+01
1.700000e-07	-5.479232e-06	-1.260220e-09	-3.801406e+01	-8.461357e+01
1.800000e-07	-5.472580e-06	-1.302635e-09	-3.796790e+01	-8.457911e+01
1.900000e-07	-5.465427e-06	-1.298611e-09	-3.791828e+01	-8.453865e+01
2.000000e-07	-5.458023e-06	-1.286734e-09	-3.786691e+01	-8.449217e+01
2.100000e-07	-5.450438e-06	-1.284691e-09	-3.781429e+01	-8.443968e+01
2.200000e-07	-5.442638e-06	-1.325700e-09	-3.776017e+01	-8.438121e+01
2.300000e-07	-5.434452e-06	-1.360350e-09	-3.770338e+01	-8.431683e+01
2.400000e-07	-5.425881e-06	-1.326113e-09	-3.764391e+01	-8.424662e+01
2.500000e-07	-5.416787e-06	-1.317366e-09	-3.758083e+01	-8.417071e+01
2.600000e-07	-5.407027e-06	-1.304145e-09	-3.751311e+01	-8.408923e+01
2.700000e-07	-5.396579e-06	-1.335981e-09	-3.744062e+01	-8.400236e+01
2.800000e-07	-5.385565e-06	-1.293583e-09	-3.736421e+01	-8.391028e+01
2.900000e-07	-5.374156e-06	-1.309976e-09	-3.728505e+01	-8.381319e+01
3.000000e-07	-5.362364e-06	-1.291728e-09	-3.720324e+01	-8.371133e+01
3.100000e-07	-5.350218e-06	-1.313178e-09	-3.711898e+01	-8.360492e+01
3.200000e-07	-5.337589e-06	-1.266777e-09	-3.703136e+01	-8.349422e+01
3.300000e-07	-5.324492e-06	-1.290860e-09	-3.694049e+01	-8.337949e+01
3.400000e-07	-5.311064e-06	-1.269474e-09	-3.684733e+01	-8.326098e+01
3.500000e-07	-5.297325e-06	-1.291203e-09	-3.675201e+01	-8.313897e+01
3.600000e-07	-5.283161e-06	-1.260865e-09	-3.665374e+01	-8.301372e+01
3.700000e-07	-5.268495e-06	-1.286175e-09	-3.655200e+01	-8.288550e+01
3.800000e-07	-5.253407e-06	-1.275171e-09	-3.644731e+01	-8.275457e+01
3.900000e-07	-5.237837e-06	-1.293523e-09	-3.633929e+01	-8.262118e+01
4.000000e-07	-5.221776e-06	-1.275932e-09	-3.622787e+01	-8.248556e+01
4.100000e-07	-5.205215e-06	-1.276385e-09	-3.611297e+01	-8.234794e+01
4.200000e-07	-5.188242e-06	-1.268938e-09	-3.599521e+01	-8.220854e+01
4.300000e-07	-5.170996e-06	-1.262083e-09	-3.587556e+01	-8.206755e+01
4.400000e-07	-5.153481e-06	-1.255751e-09	-3.575405e+01	-8.192515e+01
4.500000e-07	-5.135674e-06	-1.255793e-09	-3.563050e+01	-8.178148e+01
4.600000e-07	-5.117395e-06	-1.261680e-09	-3.550369e+01	-8.163667e+01
4.700000e-07	-5.098740e-06	-1.246108e-09	-3.537426e+01	-8.149083e+01
4.800000e-07	-5.079704e-06	-1.252321e-09	-3.524220e+01	-8.134405e+01
4.900000e-07	-5.060321e-06	-1.250238e-09	-3.510771e+01	-8.119638e+01
5.000000e-07	-5.040719e-06	-1.246060e-09	-3.497172e+01	-8.104785e+01
5.100000e-07	-5.020874e-06	-1.222089e-09	-3.483404e+01	-8.089848e+01
5.200000e-07	-5.000790e-06	-1.239343e-09	-3.469470e+01	-8.074823e+01
5.300000e-07	-4.980319e-06	-1.225851e-09	-3.455267e+01	-8.059707e+01
5.400000e-07	-4.959429e-06	-1.225027e-09	-3.440774e+01	-8.044494e+01
5.500000e-07	-4.938207e-06	-1.225443e-09	-3.426051e+01	-8.029174e+01
5.600000e-07	-4.916671e-06	-1.239169e-09	-3.411110e+01	-8.013738e+01
5.700000e-07	-4.894763e-06	-1.204968e-09	-3.395910e+01	-7.998172e+01
5.800000e-07	-4.872642e-06	-1.214955e-09	-3.380563e+01	-7.982463e+01
5.900000e-07	-4.850178e-06	-1.218654e-09	-3.364978e+01	-7.966594e+01
6.000000e-07	-4.827262e-06	-1.209030e-09	-3.349079e+01	-7.950549e+01
6.100000e-07	-4.804032e-06	-1.190775e-09	-3.332962e+01	-7.934309e+01
6.200000e-07	-4.780524e-06	-1.216610e-09	-3.316653e+01	-7.917856e+01
6.300000e-07	-4.756840e-06	-1.199919e-09	-3.300221e+01	-7.901170e+01
6.400000e-07	-4.732932e-06	-1.185864e-09	-3.283634e+01	-7.884233e+01
6.500000e-07	-4.708722e-06	-1.189899e-09	-3.266838e+01	-7.867024e+01
6.600000e-07	-4.684068e-06	-1.194889e-09	-3.249733e+01	-7.849523e+01
6.700000e-07	-4.658965e-06	-1.170126e-09	-3.232317e+01	-7.831713e+01
6.800000e-07	-4.633391e-06	-1.177358e-09	-3.214575e+01	-7.813574e+01
6.900000e-07	-4.607220e-06	-1.179526e-09	-3.196417e+01	-7.795090e+01
7.000000e-07	-4.580429e-06	-1.166314e-09	-3.177830e+01	-7.776243e+01
7.100000e-07	-4.553290e-06	-1.162909e-09	-3.159001e+01	-7.757020e+01
7.200000e-07	-4.525943e-06	-1.172687e-09	-3.140029e+01	-7.737407e+01
7.300000e-07	-4.498321e-06	-1.157389e-09	-3.120865e+01	-7.717391e+01
7.400000e-07	-4.470473e-06	-1.145021e-09	-3.101544e+01	-7.696963e+01
7.500000e-07	-4.442365e-06	-1.157220e-09	-3.082043e+01	-7.676114e+01
7.600000e-07	-4.414029e-06	-1.152510e-09	-3.062385e+01	-7.654837e+01
7.700000e-07	-4.385455e-06	-1.140204e-09	-3.042560e+01	-7.633129e+01
7.800000e-07	-4.356517e-06	-1.140086e-09	-3.022484e+01	-7.610985e+01
7.900000e-07	-4.327239e-06	-1.143571e-09	-3.002171e+01	-7.588407e+01
8.000000e-07	-4.297728e-06	-1.124757e-09	-2.981697e+01	-7.565393e+01
8.100000e-07	-4.267923e-06	-1.123818e-09	-2.961018e+01	-7.541948e+01
8.200000e-07	-4.237832e-06	-1.124188e-09	-2.940141e+01	-7.518076e+01
8.300000e-07	-4.207451e-06	-1.120311e-09	-2.919064e+01	-7.493782e+01
8.400000e-07	-4.176748e-06	-1.110347e-09	-2.897763e+01	-7.469075e+01
8.500000e-07	-4.145792e-06	-1.117373e-09	-2.876285e+01	-7.443963e+01
8.600000e-07	-4.114568e-06	-1.105724e-09	-2.854623e+01	-7.418455e+01
8.700000e-07	-4.083108e-06	-1.099232e-09	-2.832797e+01	-7.392562e+01
8.800000e-07	-4.051503e-06	-1.092406e-09	-2.810869e+01	-7.366296e+01
8.900000e-07	-4.019727e-06	-1.094113e-09	-2.788824e+01	-7.339669e+01
9.000000e-07	-3.987671e-06	-1.084137e-09	-2.766584e+01	-7.312691e+01
9.100000e-07	-3.955422e-06	-1.087616e-09	-2.744210e+01	-7.285375e+01
9.200000e-07	-3.922929e-06	-1.079040e-09	-2.721667e+01	-7.257732e+01
9.300000e-07	-3.889973e-06	-1.071592e-09	-2.698802e+01	-7.229774e+01
9.400000e-07	-3.856526e-06	-1.063797e-09	-2.675598e+01	-7.201510e+01
9.500000e-07	-3.822532e-06	-1.063063e-09	-2.652013e+01	-7.172950e+01
9.600000e-07	-3.788089e-06	-1.056371e-09	-2.628117e+01	-7.144101e+01
9.700000e-07	-3.753215e-06	-1.053827e-09	-2.603922e+01	-7.114971e+01
9.800000e-07	-3.717965e-06	-1.052458e-09	-2.579466e+01	-7.085564e+01
9.900000e-07	-3.682511e-06	-1.049155e-09	-2.554869e+01	-7.055883e+01
1.000000e-06	-3.646899e-06	-1.041427e-09	-2.530161e+01	-7.025930e+01
1.010000e-06	-3.611178e-06	-1.036693e-09	-2.505379e+01	-6.995705e+01
1.020000e-06	-3.575303e-06	-1.029348e-09	-2.480490e+01	-6.965203e+01
1.030000e-06	-3.539222e-06	-1.020974e-09	-2.455457e+01	-6.934421e+01
1.040000e-06	-3.502926e-06	-1.020741e-09	-2.430275e+01	-6.903351e+01
1.050000e-06	-3.466482e-06	-1.019014e-09	-2.404991e+01	-6.871983e+01
1.060000e-06	-3.429788e-06	-1.014516e-09	-2.379534e+01	-6.840306e+01
1.070000e-06	-3.392793e-06	-1.004230e-09	-2.353867e+01	-6.808305e+01
1.080000e-06	-3.355536e-06	-9.993035e-10	-2.328018e+01	-6.775964e+01
1.090000e-06	-3.318033e-06	-9.905984e-10	-2.302000e+01	-6.743265e+01
1.100000e-06	-3.280396e-06	-9.850019e-10	-2.275887e+01	-6.710188e+01
1.110000e-06	-3.242496e-06	-9.779019e-10	-2.249593e+01	-6.676710e+01
1.120000e-06	-3.204280e-06	-9.731056e-10	-2.223079e+01	-6.642808e+01
1.130000e-06	-3.165923e-06	-9.634389e-10	-2.196468e+01	-6.608456e+01
1.140000e-06	-3.127393e-06	-9.588421e-10	-2.169737e+01	-6.573627e+01
1.150000e-06	-3.088643e-06	-9.501617e-10	-2.142852e+01	-6.538294e+01
1.160000e-06	-3.049633e-06	-9.417890e-10	-2.115788e+01	-6.502428e+01
1.170000e-06	-3.010381e-06	-9.313114e-10	-2.088555e+01	-6.466000e+01
1.180000e-06	-2.971026e-06	-9.259851e-10	-2.061251e+01	-6.428980e+01
1.190000e-06	-2.931603e-06	-9.166874e-10	-2.033901e+01	-6.391337e+01
1.200000e-06	-2.891977e-06	-9.125162e-10	-2.006409e+01	-6.353043e+01
1.210000e-06	-2.852128e-06	-9.085706e-10	-1.978762e+01	-6.314067e+01
1.220000e-06	-2.812123e-06	-9.045070e-10	-1.951007e+01	-6.274381e+01
1.230000e-06	-2.771973e-06	-8.965551e-10	-1.923152e+01	-6.233955e+01
1.240000e-06	-2.731686e-06	-8.932463e-10	-1.895201e+01	-6.192762e+01
1.250000e-06	-2.691163e-06	-8.861306e-10	-1.867087e+01	-6.150776e+01
1.260000e-06	-2.650422e-06	-8.773718e-10	-1.838821e+01	-6.107972e+01
1.270000e-06	-2.609467e-06	-8.721310e-10	-1.810407e+01	-6.064326e+01
1.280000e-06	-2.568270e-06	-8.686840e-10	-1.781826e+01	-6.019816e+01
1.290000e-06	-2.526878e-06	-8.608706e-10	-1.753108e+01	-5.974420e+01
1.300000e-06	-2.485128e-06	-8.511057e-10	-1.724143e+01	-5.928121e+01
1.310000e-06	-2.442951e-06	-8.426714e-10	-1.694881e+01	-5.880901e+01
1.320000e-06	-2.400523e-06	-8.333166e-10	-1.665445e+01	-5.832745e+01
1.330000e-06	-2.357893e-06	-8.226870e-10	-1.635869e+01	-5.783638e+01
1.340000e-06	-2.315015e-06	-8.157654e-10	-1.606121e+01	-5.733570e+01
1.350000e-06	-2.271935e-06	-8.095444e-10	-1.576233e+01	-5.682530e+01
1.360000e-06	-2.228676e-06	-7.980163e-10	-1.546221e+01	-5.630510e+01
1.370000e-06	-2.185243e-06	-7.865451e-10	-1.516088e+01	-5.577501e+01
1.380000e-06	-2.141653e-06	-7.773341e-10	-1.485845e+01	-5.523498e+01
1.390000e-06	-2.097933e-06	-7.698527e-10	-1.455513e+01	-5.468497e+01
1.400000e-06	-2.054134e-06	-7.601919e-10	-1.425126e+01	-5.412492e+01
1.410000e-06	-2.010288e-06	-7.536219e-10	-1.394706e+01	-5.355482e+01
1.420000e-06	-1.966338e-06	-7.436847e-10	-1.364215e+01	-5.297463e+01
1.430000e-06	-1.922269e-06	-7.338035e-10	-1.333640e+01	-5.238433e+01
1.440000e-06	-1.878169e-06	-7.232008e-10	-1.303044e+01	-5.178388e+01
1.450000e-06	-1.833994e-06	-7.153375e-10	-1.272396e+01	-5.117328e+01
1.460000e-06	-1.789719e-06	-7.059783e-10	-1.241679e+01	-5.055248e+01
1.470000e-06	-1.745306e-06	-6.972409e-10	-1.210866e+01	-4.992144e+01
1.480000e-06	-1.700683e-06	-6.867541e-10	-1.179907e+01	-4.928012e+01
1.490000e-06	-1.655915e-06	-6.765836e-10	-1.148848e+01	-4.862845e+01
1.500000e-06	-1.611053e-06	-6.663078e-10	-1.117723e+01	-4.796636e+01
1.510000e-06	-1.566074e-06	-6.578226e-10	-1.086518e+01	-4.729377e+01
1.520000e-06	-1.520880e-06	-6.463026e-10	-1.055163e+01	-4.661054e+01
1.530000e-06	-1.475536e-06	-6.346415e-10	-1.023704e+01	-4.591657e+01
1.540000e-06	-1.430181e-06	-6.254589e-10	-9.922372e+00	-4.521170e+01
1.550000e-06	-1.384732e-06	-6.176233e-10	-9.607056e+00	-4.449576e+01
1.560000e-06	-1.339223e-06	-6.028209e-10	-9.291317e+00	-4.376856e+01
1.570000e-06	-1.293619e-06	-5.884778e-10	-8.974927e+00	-4.302987e+01
1.580000e-06	-1.247856e-06	-5.755629e-10	-8.657429e+00	-4.227946e+01
1.590000e-06	-1.202033e-06	-5.643438e-10	-8.339520e+00	-4.151707e+01
1.600000e-06	-1.156132e-06	-5.539721e-10	-8.021067e+00	-4.074241e+01
1.610000e-06	-1.110210e-06	-5.444016e-10	-7.702465e+00	-3.995519e+01
1.620000e-06	-1.064237e-06	-5.323974e-10	-7.383511e+00	-3.915507e+01
1.630000e-06	-1.018144e-06	-5.179302e-10	-7.063721e+00	-3.834173e+01
1.640000e-06	-9.719089e-07	-5.041449e-10	-6.742952e+00	-3.751480e+01
1.650000e-06	-9.256460e-07	-4.880877e-10	-6.421987e+00	-3.667393e+01
1.660000e-06	-8.793346e-07	-4.737469e-10	-6.100686e+00	-3.581874e+01
1.670000e-06	-8.328356e-07	-4.599436e-10	-5.778084e+00	-3.494886e+01
1.680000e-06	-7.863574e-07	-4.483371e-10	-5.455625e+00	-3.406391e+01
1.690000e-06	-7.398908e-07	-4.356332e-10	-5.133247e+00	-3.316351e+01
1.700000e-06	-6.934161e-07	-4.254532e-10	-4.810813e+00	-3.224729e+01
1.710000e-06	-6.468308e-07	-4.104177e-10	-4.487611e+00	-3.131490e+01
1.720000e-06	-6.001807e-07	-3.923252e-10	-4.163960e+00	-3.036599e+01
1.730000e-06	-5.534953e-07	-3.747424e-10	-3.840064e+00	-2.940026e+01
1.740000e-06	-5.067654e-07	-3.609626e-10	-3.515859e+00	-2.841739e+01
1.750000e-06	-4.600300e-07	-3.467736e-10	-3.191616e+00	-2.741712e+01
1.760000e-06	-4.132821e-07	-3.322591e-10	-2.867286e+00	-2.639924e+01
1.770000e-06	-3.664526e-07	-3.163236e-10	-2.542391e+00	-2.536354e+01
1.780000e-06	-3.195457e-07	-3.008161e-10	-2.216958e+00	-2.430988e+01
1.790000e-06	-2.725935e-07	-2.858495e-10	-1.891211e+00	-2.323816e+01
1.800000e-06	-2.255931e-07	-2.697820e-10	-1.565130e+00	-2.214833e+01
1.810000e-06	-1.786330e-07	-2.519876e-10	-1.239328e+00	-2.104041e+01
1.820000e-06	-1.316411e-07	-2.337127e-10	-9.133054e-01	-1.991447e+01
1.830000e-06	-8.467402e-08	-2.172049e-10	-5.874551e-01	-1.877063e+01
1.840000e-06	-3.772469e-08	-2.016587e-10	-2.617280e-01	-1.760911e+01
1.850000e-06	9.251437e-09	-1.851062e-10	6.418503e-02	-1.643015e+01
1.860000e-06	5.624832e-08	-1.703364e-10	3.902421e-01	-1.523410e+01
1.870000e-06	1.031775e-07	-1.558814e-10	7.158293e-01	-1.402137e+01
1.880000e-06	1.501685e-07	-1.391070e-10	1.041846e+00	-1.279243e+01
1.890000e-06	1.971548e-07	-1.220381e-10	1.367829e+00	-1.154783e+01
1.900000e-06	2.440033e-07	-1.061011e-10	1.692857e+00	-1.028819e+01
1.910000e-06	2.908732e-07	-9.048149e-11	2.018033e+00	-9.014199e+00
1.920000e-06	3.378015e-07	-7.220527e-11	2.343614e+00	-7.726626e+00
1.930000e-06	3.847215e-07	-5.439267e-11	2.669138e+00	-6.426294e+00
1.940000e-06	4.315030e-07	-3.689040e-11	2.993701e+00	-5.114097e+00
1.950000e-06	4.782270e-07	-2.127166e-11	3.317864e+00	-3.790986e+00
1.960000e-06	5.249280e-07	-7.318479e-12	3.641869e+00	-2.457974e+00
1.970000e-06	5.715793e-07	5.794650e-12	3.965528e+00	-1.116127e+00
1.980000e-06	6.182110e-07	2.359419e-11	4.289052e+00	2.334411e-01
1.990000e-06	6.647193e-07	4.413364e-11	4.611719e+00	1.589571e+00
2.000000e-06	7.111570e-07	6.448455e-11	4.933896e+00	2.951065e+00
2.010000e-06	7.576277e-07	8.482801e-11	5.256303e+00	4.316692e+00
2.020000e-06	8.040747e-07	1.041993e-10	5.578544e+00	5.685194e+00
2.030000e-06	8.504032e-07	1.202525e-10	5.899965e+00	7.055290e+00
2.040000e-06	8.966364e-07	1.351914e-10	6.220723e+00	8.425687e+00
2.050000e-06	9.427524e-07	1.512861e-10	6.540669e+00	9.795083e+00
2.060000e-06	9.887899e-07	1.709393e-10	6.860070e+00	1.116217e+01
2.070000e-06	1.034779e-06	1.910239e-10	7.179133e+00	1.252566e+01
2.080000e-06	1.080693e-06	2.127742e-10	7.497681e+00	1.388426e+01
2.090000e-06	1.126535e-06	2.328983e-10	7.815721e+00	1.523671e+01
2.100000e-06	1.172359e-06	2.485073e-10	8.133645e+00	1.658175e+01
2.110000e-06	1.218057e-06	2.638491e-10	8.450690e+00	1.791818e+01
2.120000e-06	1.263665e-06	2.803451e-10	8.767113e+00	1.924483e+01
2.130000e-06	1.309231e-06	2.993132e-10	9.083241e+00	2.056056e+01
2.140000e-06	1.354660e-06	3.189736e-10	9.398421e+00	2.186429e+01
2.150000e-06	1.400018e-06	3.374326e-10	9.713106e+00	2.315499e+01
2.160000e-06	1.445268e-06	3.545738e-10	1.002704e+01	2.443168e+01
2.170000e-06	1.490503e-06	3.730004e-10	1.034088e+01	2.569346e+01
2.180000e-06	1.535662e-06	3.921959e-10	1.065418e+01	2.693949e+01
2.190000e-06	1.580632e-06	4.102050e-10	1.096618e+01	2.816897e+01
2.200000e-06	1.625470e-06	4.269426e-10	1.127725e+01	2.938121e+01
2.210000e-06	1.670102e-06	4.436576e-10	1.158691e+01	3.057558e+01
2.220000e-06	1.714673e-06	4.606358e-10	1.189613e+01	3.175151e+01
2.230000e-06	1.759241e-06	4.762141e-10	1.220534e+01	3.290851e+01
2.240000e-06	1.803651e-06	4.905371e-10	1.251345e+01	3.404619e+01
2.250000e-06	1.847885e-06	5.056146e-10	1.282034e+01	3.516420e+01
2.260000e-06	1.891988e-06	5.195850e-10	1.312632e+01	3.626228e+01
2.270000e-06	1.936007e-06	5.342654e-10	1.343172e+01	3.734025e+01
2.280000e-06	1.979966e-06	5.492568e-10	1.373669e+01	3.839798e+01
2.290000e-06	2.023824e-06	5.631554e-10	1.404098e+01	3.943544e+01
2.300000e-06	2.067595e-06	5.768544e-10	1.434465e+01	4.045263e+01
2.310000e-06	2.111293e-06	5.917902e-10	1.464782e+01	4.144963e+01
2.320000e-06	2.154916e-06	6.063109e-10	1.495047e+01	4.242658e+01
2.330000e-06	2.198481e-06	6.197166e-10	1.525272e+01	4.338367e+01
2.340000e-06	2.241922e-06	6.312333e-10	1.555411e+01	4.432114e+01
2.350000e-06	2.285295e-06	6.416473e-10	1.585502e+01	4.523927e+01
2.360000e-06	2.328468e-06	6.520277e-10	1.615455e+01	4.613840e+01
2.370000e-06	2.371262e-06	6.644572e-10	1.645145e+01	4.701889e+01
2.380000e-06	2.413847e-06	6.787092e-10	1.674689e+01	4.788112e+01
2.390000e-06	2.456243e-06	6.924865e-10	1.704103e+01	4.872553e+01
2.400000e-06	2.498246e-06	7.051549e-10	1.733244e+01	4.955254e+01
2.410000e-06	2.539918e-06	7.166969e-10	1.762155e+01	5.036263e+01
2.420000e-06	2.581312e-06	7.284276e-10	1.790874e+01	5.115624e+01
2.430000e-06	2.622351e-06	7.407892e-10	1.819346e+01	5.193387e+01
2.440000e-06	2.663104e-06	7.529481e-10	1.847620e+01	5.269597e+01
2.450000e-06	2.703610e-06	7.655711e-10	1.875722e+01	5.344303e+01
2.460000e-06	2.743917e-06	7.778068e-10	1.903687e+01	5.417550e+01
2.470000e-06	2.784145e-06	7.880539e-10	1.931597e+01	5.489385e+01
2.480000e-06	2.824253e-06	7.996032e-10	1.959423e+01	5.559851e+01
2.490000e-06	2.864169e-06	8.096476e-10	1.987116e+01	5.628990e+01
2.500000e-06	2.903883e-06	8.201612e-10	2.014669e+01	5.696844e+01
2.510000e-06	2.943418e-06	8.318458e-10	2.042097e+01	5.763449e+01
2.520000e-06	2.982821e-06	8.404882e-10	2.069435e+01	5.828842e+01
2.530000e-06	3.022066e-06	8.501105e-10	2.096662e+01	5.893055e+01
2.540000e-06	3.061089e-06	8.605589e-10	2.123736e+01	5.956120e+01
2.550000e-06	3.099934e-06	8.687886e-10	2.150686e+01	6.018063e+01
2.560000e-06	3.138526e-06	8.740786e-10	2.177460e+01	6.078910e+01
2.570000e-06	3.176857e-06	8.819555e-10	2.204054e+01	6.138682e+01
2.580000e-06	3.215061e-06	8.919565e-10	2.230559e+01	6.197398e+01
2.590000e-06	3.253130e-06	9.003120e-10	2.256971e+01	6.255076e+01
2.600000e-06	3.290949e-06	9.087782e-10	2.283209e+01	6.311729e+01
2.610000e-06	3.328522e-06	9.182882e-10	2.309277e+01	6.367368e+01
2.620000e-06	3.365835e-06	9.270118e-10	2.335164e+01	6.422004e+01
2.630000e-06	3.402737e-06	9.358270e-10	2.360766e+01	6.475642e+01
2.640000e-06	3.439423e-06	9.431350e-10	2.386218e+01	6.528289e+01
2.650000e-06	3.475974e-06	9.482989e-10	2.411577e+01	6.579948e+01
2.660000e-06	3.512234e-06	9.551486e-10	2.436733e+01	6.630622e+01
2.670000e-06	3.548351e-06	9.628630e-10	2.461790e+01	6.680311e+01
2.680000e-06	3.584366e-06	9.696208e-10	2.486777e+01	6.729016e+01
2.690000e-06	3.620158e-06	9.753371e-10	2.511609e+01	6.776736e+01
2.700000e-06	3.655791e-06	9.834963e-10	2.536331e+01	6.823471e+01
2.710000e-06	3.691235e-06	9.922839e-10	2.560921e+01	6.869219e+01
2.720000e-06	3.726502e-06	9.986544e-10	2.585389e+01	6.913981e+01
2.730000e-06	3.761562e-06	1.006717e-09	2.609713e+01	6.957756e+01
2.740000e-06	3.796217e-06	1.014422e-09	2.633756e+01	7.000544e+01
2.750000e-06	3.830447e-06	1.019157e-09	2.657504e+01	7.042347e+01
2.760000e-06	3.864302e-06	1.024054e-09	2.680993e+01	7.083165e+01
2.770000e-06	3.897719e-06	1.028406e-09	2.704177e+01	7.123003e+01
2.780000e-06	3.930644e-06	1.034106e-09	2.727020e+01	7.161865e+01
2.790000e-06	3.963101e-06	1.042479e-09	2.749537e+01	7.199757e+01
2.800000e-06	3.995232e-06	1.051819e-09	2.771830e+01	7.236687e+01
2.810000e-06	4.027196e-06	1.059420e-09	2.794006e+01	7.272663e+01
2.820000e-06	4.059047e-06	1.064168e-09	2.816104e+01	7.307695e+01
2.830000e-06	4.090737e-06	1.066782e-09	2.838090e+01	7.341797e+01
2.840000e-06	4.122211e-06	1.068720e-09	2.859925e+01	7.374982e+01
2.850000e-06	4.153434e-06	1.070677e-09	2.881588e+01	7.407266e+01
2.860000e-06	4.184327e-06	1.075977e-09	2.903021e+01	7.438664e+01
2.870000e-06	4.214880e-06	1.081430e-09	2.924218e+01	7.469196e+01
2.880000e-06	4.245090e-06	1.085387e-09	2.945177e+01	7.498881e+01
2.890000e-06	4.274965e-06	1.091343e-09	2.965904e+01	7.527739e+01
2.900000e-06	4.304641e-06	1.098056e-09	2.986492e+01	7.555794e+01
