# Temperatura_=_0.54
# Concentracion g/m^3_=_1620.0
# C_Vs_to_Am_M_A/Vsm_=_65563218390.804596
# pendiente_HvsI_1/m_=_3716.3
# ordenada_HvsI_A/m_=_1297.0
# frecuencia_Hz_=_135105.5171542322

Tiempo_(s)	Campo_(V.s)	Magnetizacion_(V.s)	Campo_(kA/m)	Magnetizacion_(A/m)
0.000000e+00	-5.522602e-06	-8.630662e-10	-3.836907e+01	-5.761844e+01
1.000000e-08	-5.522802e-06	-8.636200e-10	-3.837046e+01	-5.766082e+01
2.000000e-08	-5.522773e-06	-8.636537e-10	-3.837026e+01	-5.770326e+01
3.000000e-08	-5.522466e-06	-8.635447e-10	-3.836813e+01	-5.774546e+01
4.000000e-08	-5.521711e-06	-8.622868e-10	-3.836288e+01	-5.778708e+01
5.000000e-08	-5.520447e-06	-8.597618e-10	-3.835410e+01	-5.782777e+01
6.000000e-08	-5.518592e-06	-8.564317e-10	-3.834121e+01	-5.786720e+01
7.000000e-08	-5.516050e-06	-8.513658e-10	-3.832355e+01	-5.790501e+01
8.000000e-08	-5.512955e-06	-8.435687e-10	-3.830204e+01	-5.794087e+01
9.000000e-08	-5.509411e-06	-8.351625e-10	-3.827742e+01	-5.797443e+01
1.000000e-07	-5.505473e-06	-8.657545e-10	-3.825007e+01	-5.800536e+01
1.100000e-07	-5.501208e-06	-9.092983e-10	-3.822044e+01	-5.803335e+01
1.200000e-07	-5.496619e-06	-8.660472e-10	-3.818855e+01	-5.805807e+01
1.300000e-07	-5.491797e-06	-7.873179e-10	-3.815505e+01	-5.807925e+01
1.400000e-07	-5.486739e-06	-8.174821e-10	-3.811990e+01	-5.809661e+01
1.500000e-07	-5.481274e-06	-8.677551e-10	-3.808194e+01	-5.810989e+01
1.600000e-07	-5.475410e-06	-8.664283e-10	-3.804120e+01	-5.811887e+01
1.700000e-07	-5.469155e-06	-7.861133e-10	-3.799774e+01	-5.812335e+01
1.800000e-07	-5.462515e-06	-8.224237e-10	-3.795161e+01	-5.812315e+01
1.900000e-07	-5.455472e-06	-8.726844e-10	-3.790268e+01	-5.811812e+01
2.000000e-07	-5.447998e-06	-8.701127e-10	-3.785075e+01	-5.810815e+01
2.100000e-07	-5.440287e-06	-8.248622e-10	-3.779717e+01	-5.809313e+01
2.200000e-07	-5.432455e-06	-8.451418e-10	-3.774276e+01	-5.807301e+01
2.300000e-07	-5.424380e-06	-8.890304e-10	-3.768666e+01	-5.804777e+01
2.400000e-07	-5.415892e-06	-8.893552e-10	-3.762769e+01	-5.801739e+01
2.500000e-07	-5.406748e-06	-8.714017e-10	-3.756416e+01	-5.798191e+01
2.600000e-07	-5.396921e-06	-8.680998e-10	-3.749589e+01	-5.794139e+01
2.700000e-07	-5.386366e-06	-8.849347e-10	-3.742255e+01	-5.789591e+01
2.800000e-07	-5.375203e-06	-8.671610e-10	-3.734500e+01	-5.784557e+01
2.900000e-07	-5.363737e-06	-8.647876e-10	-3.726533e+01	-5.779052e+01
3.000000e-07	-5.351931e-06	-8.664442e-10	-3.718331e+01	-5.773091e+01
3.100000e-07	-5.339693e-06	-8.889633e-10	-3.709829e+01	-5.766692e+01
3.200000e-07	-5.327014e-06	-8.701690e-10	-3.701019e+01	-5.759873e+01
3.300000e-07	-5.313893e-06	-8.660031e-10	-3.691904e+01	-5.752657e+01
3.400000e-07	-5.300388e-06	-8.480956e-10	-3.682520e+01	-5.745064e+01
3.500000e-07	-5.286501e-06	-8.695271e-10	-3.672873e+01	-5.737120e+01
3.600000e-07	-5.272239e-06	-8.575029e-10	-3.662964e+01	-5.728846e+01
3.700000e-07	-5.257563e-06	-8.531071e-10	-3.652767e+01	-5.720269e+01
3.800000e-07	-5.242327e-06	-8.632354e-10	-3.642182e+01	-5.711412e+01
3.900000e-07	-5.226603e-06	-8.954575e-10	-3.631257e+01	-5.702301e+01
4.000000e-07	-5.210401e-06	-8.562381e-10	-3.620001e+01	-5.692960e+01
4.100000e-07	-5.193803e-06	-8.382204e-10	-3.608469e+01	-5.683412e+01
4.200000e-07	-5.176943e-06	-8.787421e-10	-3.596756e+01	-5.673681e+01
4.300000e-07	-5.159759e-06	-8.781905e-10	-3.584817e+01	-5.663788e+01
4.400000e-07	-5.142185e-06	-8.178073e-10	-3.572607e+01	-5.653754e+01
4.500000e-07	-5.124243e-06	-8.495977e-10	-3.560142e+01	-5.643598e+01
4.600000e-07	-5.105921e-06	-8.983319e-10	-3.547412e+01	-5.633337e+01
4.700000e-07	-5.087099e-06	-8.359660e-10	-3.534335e+01	-5.622989e+01
4.800000e-07	-5.067852e-06	-8.129010e-10	-3.520963e+01	-5.612565e+01
4.900000e-07	-5.048371e-06	-8.805265e-10	-3.507428e+01	-5.602079e+01
5.000000e-07	-5.028737e-06	-8.633036e-10	-3.493787e+01	-5.591540e+01
5.100000e-07	-5.008881e-06	-8.014265e-10	-3.479992e+01	-5.580956e+01
5.200000e-07	-4.988693e-06	-8.519605e-10	-3.465966e+01	-5.570333e+01
5.300000e-07	-4.968164e-06	-8.652370e-10	-3.451703e+01	-5.559673e+01
5.400000e-07	-4.947249e-06	-8.031903e-10	-3.437173e+01	-5.548979e+01
5.500000e-07	-4.926002e-06	-8.284604e-10	-3.422411e+01	-5.538250e+01
5.600000e-07	-4.904476e-06	-8.849178e-10	-3.407455e+01	-5.527483e+01
5.700000e-07	-4.882587e-06	-8.244029e-10	-3.392247e+01	-5.516673e+01
5.800000e-07	-4.860346e-06	-8.096009e-10	-3.376795e+01	-5.505816e+01
5.900000e-07	-4.837843e-06	-8.594579e-10	-3.361161e+01	-5.494902e+01
6.000000e-07	-4.814985e-06	-8.304555e-10	-3.345280e+01	-5.483923e+01
6.100000e-07	-4.791688e-06	-7.841847e-10	-3.329094e+01	-5.472868e+01
6.200000e-07	-4.768165e-06	-8.342387e-10	-3.312751e+01	-5.461726e+01
6.300000e-07	-4.744473e-06	-8.354627e-10	-3.296291e+01	-5.450485e+01
6.400000e-07	-4.720519e-06	-7.969584e-10	-3.279648e+01	-5.439131e+01
6.500000e-07	-4.696297e-06	-8.239084e-10	-3.262819e+01	-5.427651e+01
6.600000e-07	-4.671613e-06	-8.480070e-10	-3.245670e+01	-5.416031e+01
6.700000e-07	-4.646306e-06	-8.039253e-10	-3.228088e+01	-5.404257e+01
6.800000e-07	-4.620447e-06	-8.052986e-10	-3.210122e+01	-5.392315e+01
6.900000e-07	-4.594081e-06	-8.217056e-10	-3.191804e+01	-5.380192e+01
7.000000e-07	-4.567260e-06	-7.974269e-10	-3.173170e+01	-5.367874e+01
7.100000e-07	-4.540038e-06	-7.905296e-10	-3.154256e+01	-5.355350e+01
7.200000e-07	-4.512550e-06	-8.195367e-10	-3.135159e+01	-5.342608e+01
7.300000e-07	-4.484877e-06	-8.121065e-10	-3.115933e+01	-5.329637e+01
7.400000e-07	-4.456948e-06	-7.997904e-10	-3.096529e+01	-5.316427e+01
7.500000e-07	-4.428879e-06	-8.157097e-10	-3.077027e+01	-5.302969e+01
7.600000e-07	-4.400622e-06	-8.099914e-10	-3.057395e+01	-5.289258e+01
7.700000e-07	-4.371972e-06	-7.880532e-10	-3.037490e+01	-5.275286e+01
7.800000e-07	-4.342981e-06	-7.900067e-10	-3.017348e+01	-5.261048e+01
7.900000e-07	-4.313638e-06	-7.895107e-10	-2.996962e+01	-5.246543e+01
8.000000e-07	-4.283944e-06	-7.731211e-10	-2.976332e+01	-5.231767e+01
8.100000e-07	-4.254062e-06	-7.813429e-10	-2.955571e+01	-5.216720e+01
8.200000e-07	-4.223990e-06	-7.949089e-10	-2.934678e+01	-5.201402e+01
8.300000e-07	-4.193645e-06	-7.873162e-10	-2.913595e+01	-5.185815e+01
8.400000e-07	-4.162950e-06	-7.816624e-10	-2.892269e+01	-5.169963e+01
8.500000e-07	-4.131844e-06	-7.876590e-10	-2.870658e+01	-5.153848e+01
8.600000e-07	-4.100452e-06	-7.721467e-10	-2.848848e+01	-5.137476e+01
8.700000e-07	-4.068897e-06	-7.577178e-10	-2.826925e+01	-5.120852e+01
8.800000e-07	-4.037227e-06	-7.590951e-10	-2.804921e+01	-5.103982e+01
8.900000e-07	-4.005417e-06	-7.603274e-10	-2.782821e+01	-5.086873e+01
9.000000e-07	-3.973357e-06	-7.516618e-10	-2.760547e+01	-5.069532e+01
9.100000e-07	-3.941032e-06	-7.593703e-10	-2.738089e+01	-5.051965e+01
9.200000e-07	-3.908447e-06	-7.622860e-10	-2.715449e+01	-5.034180e+01
9.300000e-07	-3.875426e-06	-7.522046e-10	-2.692508e+01	-5.016184e+01
9.400000e-07	-3.841940e-06	-7.467972e-10	-2.669243e+01	-4.997982e+01
9.500000e-07	-3.808038e-06	-7.486288e-10	-2.645689e+01	-4.979580e+01
9.600000e-07	-3.773652e-06	-7.363836e-10	-2.621799e+01	-4.960984e+01
9.700000e-07	-3.738847e-06	-7.294142e-10	-2.597617e+01	-4.942198e+01
9.800000e-07	-3.703716e-06	-7.339562e-10	-2.573210e+01	-4.923226e+01
9.900000e-07	-3.668306e-06	-7.356217e-10	-2.548609e+01	-4.904069e+01
1.000000e-06	-3.632662e-06	-7.297682e-10	-2.523844e+01	-4.884729e+01
1.010000e-06	-3.596898e-06	-7.311637e-10	-2.498997e+01	-4.865206e+01
1.020000e-06	-3.561024e-06	-7.321936e-10	-2.474073e+01	-4.845497e+01
1.030000e-06	-3.524998e-06	-7.264518e-10	-2.449043e+01	-4.825600e+01
1.040000e-06	-3.488818e-06	-7.220775e-10	-2.423906e+01	-4.805511e+01
1.050000e-06	-3.452397e-06	-7.199962e-10	-2.398602e+01	-4.785224e+01
1.060000e-06	-3.415684e-06	-7.117007e-10	-2.373096e+01	-4.764730e+01
1.070000e-06	-3.378662e-06	-7.048181e-10	-2.347374e+01	-4.744023e+01
1.080000e-06	-3.341326e-06	-7.072633e-10	-2.321434e+01	-4.723090e+01
1.090000e-06	-3.303757e-06	-7.072489e-10	-2.295332e+01	-4.701922e+01
1.100000e-06	-3.266017e-06	-7.037938e-10	-2.269112e+01	-4.680504e+01
1.110000e-06	-3.228091e-06	-7.021513e-10	-2.242763e+01	-4.658824e+01
1.120000e-06	-3.189871e-06	-6.979834e-10	-2.216208e+01	-4.636865e+01
1.130000e-06	-3.151385e-06	-6.887302e-10	-2.189470e+01	-4.614613e+01
1.140000e-06	-3.112780e-06	-6.851988e-10	-2.162648e+01	-4.592050e+01
1.150000e-06	-3.074045e-06	-6.816577e-10	-2.135737e+01	-4.569158e+01
1.160000e-06	-3.035031e-06	-6.760140e-10	-2.108631e+01	-4.545920e+01
1.170000e-06	-2.995728e-06	-6.733836e-10	-2.081325e+01	-4.522318e+01
1.180000e-06	-2.956256e-06	-6.748502e-10	-2.053901e+01	-4.498332e+01
1.190000e-06	-2.916605e-06	-6.706082e-10	-2.026353e+01	-4.473945e+01
1.200000e-06	-2.876835e-06	-6.662028e-10	-1.998723e+01	-4.449136e+01
1.210000e-06	-2.836985e-06	-6.616107e-10	-1.971036e+01	-4.423889e+01
1.220000e-06	-2.797002e-06	-6.567345e-10	-1.943257e+01	-4.398184e+01
1.230000e-06	-2.756887e-06	-6.516099e-10	-1.915387e+01	-4.372004e+01
1.240000e-06	-2.716657e-06	-6.504007e-10	-1.887437e+01	-4.345332e+01
1.250000e-06	-2.676270e-06	-6.480780e-10	-1.859377e+01	-4.318152e+01
1.260000e-06	-2.635661e-06	-6.447863e-10	-1.831163e+01	-4.290448e+01
1.270000e-06	-2.594854e-06	-6.415736e-10	-1.802812e+01	-4.262205e+01
1.280000e-06	-2.553747e-06	-6.391683e-10	-1.774252e+01	-4.233409e+01
1.290000e-06	-2.512247e-06	-6.333462e-10	-1.745420e+01	-4.204047e+01
1.300000e-06	-2.470408e-06	-6.260599e-10	-1.716352e+01	-4.174107e+01
1.310000e-06	-2.428300e-06	-6.193355e-10	-1.687096e+01	-4.143577e+01
1.320000e-06	-2.385871e-06	-6.149215e-10	-1.657618e+01	-4.112448e+01
1.330000e-06	-2.343083e-06	-6.114348e-10	-1.627891e+01	-4.080709e+01
1.340000e-06	-2.300033e-06	-6.103935e-10	-1.597981e+01	-4.048351e+01
1.350000e-06	-2.256769e-06	-6.084097e-10	-1.567923e+01	-4.015367e+01
1.360000e-06	-2.213357e-06	-6.026381e-10	-1.537762e+01	-3.981747e+01
1.370000e-06	-2.169837e-06	-5.961022e-10	-1.507526e+01	-3.947485e+01
1.380000e-06	-2.126213e-06	-5.888641e-10	-1.477217e+01	-3.912574e+01
1.390000e-06	-2.082478e-06	-5.812853e-10	-1.446831e+01	-3.877006e+01
1.400000e-06	-2.038641e-06	-5.742606e-10	-1.416375e+01	-3.840773e+01
1.410000e-06	-1.994740e-06	-5.696988e-10	-1.385874e+01	-3.803869e+01
1.420000e-06	-1.950735e-06	-5.656424e-10	-1.355301e+01	-3.766284e+01
1.430000e-06	-1.906649e-06	-5.616509e-10	-1.324672e+01	-3.728010e+01
1.440000e-06	-1.862493e-06	-5.558156e-10	-1.293994e+01	-3.689037e+01
1.450000e-06	-1.818297e-06	-5.484678e-10	-1.263288e+01	-3.649354e+01
1.460000e-06	-1.774005e-06	-5.367311e-10	-1.232516e+01	-3.608950e+01
1.470000e-06	-1.729537e-06	-5.256850e-10	-1.201621e+01	-3.567810e+01
1.480000e-06	-1.684989e-06	-5.161176e-10	-1.170670e+01	-3.525920e+01
1.490000e-06	-1.640317e-06	-5.088616e-10	-1.139634e+01	-3.483262e+01
1.500000e-06	-1.595539e-06	-5.031571e-10	-1.108524e+01	-3.439818e+01
1.510000e-06	-1.550675e-06	-4.993327e-10	-1.077353e+01	-3.395567e+01
1.520000e-06	-1.505638e-06	-4.937688e-10	-1.046064e+01	-3.350486e+01
1.530000e-06	-1.460467e-06	-4.844291e-10	-1.014680e+01	-3.304551e+01
1.540000e-06	-1.415163e-06	-4.709281e-10	-9.832051e+00	-3.257734e+01
1.550000e-06	-1.369721e-06	-4.574535e-10	-9.516332e+00	-3.210006e+01
1.560000e-06	-1.324193e-06	-4.468664e-10	-9.200018e+00	-3.161336e+01
1.570000e-06	-1.278567e-06	-4.400587e-10	-8.883026e+00	-3.111691e+01
1.580000e-06	-1.232804e-06	-4.345987e-10	-8.565083e+00	-3.061034e+01
1.590000e-06	-1.186974e-06	-4.272452e-10	-8.246674e+00	-3.009329e+01
1.600000e-06	-1.141176e-06	-4.169162e-10	-7.928487e+00	-2.956538e+01
1.610000e-06	-1.095318e-06	-4.063082e-10	-7.609882e+00	-2.902619e+01
1.620000e-06	-1.049313e-06	-3.953502e-10	-7.290255e+00	-2.847532e+01
1.630000e-06	-1.003213e-06	-3.844209e-10	-6.969963e+00	-2.791233e+01
1.640000e-06	-9.570871e-07	-3.730689e-10	-6.649500e+00	-2.733681e+01
1.650000e-06	-9.108629e-07	-3.611772e-10	-6.328350e+00	-2.674831e+01
1.660000e-06	-8.645798e-07	-3.502948e-10	-6.006793e+00	-2.614640e+01
1.670000e-06	-8.183094e-07	-3.403552e-10	-5.685322e+00	-2.553065e+01
1.680000e-06	-7.720162e-07	-3.319652e-10	-5.363693e+00	-2.490065e+01
1.690000e-06	-7.256709e-07	-3.223684e-10	-5.041703e+00	-2.425597e+01
1.700000e-06	-6.791956e-07	-3.137399e-10	-4.718809e+00	-2.359624e+01
1.710000e-06	-6.327020e-07	-3.040534e-10	-4.395788e+00	-2.292107e+01
1.720000e-06	-5.861299e-07	-2.929097e-10	-4.072222e+00	-2.223012e+01
1.730000e-06	-5.394275e-07	-2.809612e-10	-3.747750e+00	-2.152308e+01
1.740000e-06	-4.927079e-07	-2.706414e-10	-3.423159e+00	-2.079965e+01
1.750000e-06	-4.459815e-07	-2.611894e-10	-3.098521e+00	-2.005961e+01
1.760000e-06	-3.992771e-07	-2.525004e-10	-2.774035e+00	-1.930273e+01
1.770000e-06	-3.525942e-07	-2.436769e-10	-2.449699e+00	-1.852888e+01
1.780000e-06	-3.058456e-07	-2.350215e-10	-2.124906e+00	-1.773794e+01
1.790000e-06	-2.589560e-07	-2.251027e-10	-1.799134e+00	-1.692987e+01
1.800000e-06	-2.120768e-07	-2.107783e-10	-1.473434e+00	-1.610467e+01
1.810000e-06	-1.652123e-07	-1.939756e-10	-1.147836e+00	-1.526240e+01
1.820000e-06	-1.182417e-07	-1.788922e-10	-8.215013e-01	-1.440321e+01
1.830000e-06	-7.132415e-08	-1.661801e-10	-4.955348e-01	-1.352728e+01
1.840000e-06	-2.450015e-08	-1.553341e-10	-1.702183e-01	-1.263488e+01
1.850000e-06	2.233822e-08	-1.473612e-10	1.551980e-01	-1.172633e+01
1.860000e-06	6.920299e-08	-1.411495e-10	4.807977e-01	-1.080204e+01
1.870000e-06	1.160483e-07	-1.309201e-10	8.062624e-01	-9.862477e+00
1.880000e-06	1.629257e-07	-1.151094e-10	1.131949e+00	-8.908172e+00
1.890000e-06	2.098642e-07	-9.642060e-11	1.458061e+00	-7.939733e+00
1.900000e-06	2.567205e-07	-7.839065e-11	1.783603e+00	-6.957834e+00
1.910000e-06	3.035056e-07	-6.334063e-11	2.108649e+00	-5.963211e+00
1.920000e-06	3.503073e-07	-5.163155e-11	2.433810e+00	-4.956665e+00
1.930000e-06	3.971292e-07	-4.408891e-11	2.759112e+00	-3.939056e+00
1.940000e-06	4.439290e-07	-3.704600e-11	3.084260e+00	-2.911302e+00
1.950000e-06	4.906221e-07	-2.820510e-11	3.408667e+00	-1.874373e+00
1.960000e-06	5.372530e-07	-1.513679e-11	3.732642e+00	-8.292880e-01
1.970000e-06	5.838917e-07	2.575502e-12	4.056672e+00	2.228894e-01
1.980000e-06	6.304943e-07	2.267659e-11	4.380449e+00	1.281057e+00
1.990000e-06	6.770093e-07	4.148064e-11	4.703619e+00	2.344078e+00
2.000000e-06	7.233741e-07	5.672207e-11	5.025746e+00	3.410787e+00
2.010000e-06	7.696888e-07	6.860809e-11	5.347524e+00	4.479998e+00
2.020000e-06	8.160350e-07	7.913878e-11	5.669520e+00	5.550506e+00
2.030000e-06	8.623084e-07	8.976334e-11	5.991011e+00	6.621097e+00
2.040000e-06	9.084657e-07	1.030541e-10	6.311696e+00	7.690554e+00
2.050000e-06	9.545826e-07	1.188467e-10	6.632100e+00	8.757661e+00
2.060000e-06	1.000645e-06	1.375481e-10	6.952127e+00	9.821210e+00
2.070000e-06	1.046646e-06	1.564196e-10	7.271722e+00	1.088001e+01
2.080000e-06	1.092588e-06	1.744955e-10	7.590912e+00	1.193289e+01
2.090000e-06	1.138430e-06	1.908605e-10	7.909409e+00	1.297871e+01
2.100000e-06	1.184183e-06	2.023025e-10	8.227282e+00	1.401635e+01
2.110000e-06	1.229816e-06	2.136870e-10	8.544327e+00	1.504475e+01
2.120000e-06	1.275359e-06	2.259581e-10	8.860738e+00	1.606287e+01
2.130000e-06	1.320825e-06	2.398121e-10	9.176622e+00	1.706974e+01
2.140000e-06	1.366198e-06	2.543723e-10	9.491854e+00	1.806442e+01
2.150000e-06	1.411497e-06	2.706425e-10	9.806577e+00	1.904605e+01
2.160000e-06	1.456676e-06	2.858262e-10	1.012047e+01	2.001382e+01
2.170000e-06	1.501772e-06	2.996232e-10	1.043378e+01	2.096697e+01
2.180000e-06	1.546844e-06	3.146784e-10	1.074692e+01	2.190484e+01
2.190000e-06	1.591802e-06	3.274407e-10	1.105927e+01	2.282680e+01
2.200000e-06	1.636622e-06	3.384002e-10	1.137067e+01	2.373231e+01
2.210000e-06	1.681317e-06	3.501656e-10	1.168119e+01	2.462091e+01
2.220000e-06	1.725876e-06	3.629451e-10	1.199077e+01	2.549218e+01
2.230000e-06	1.770326e-06	3.758171e-10	1.229960e+01	2.634581e+01
2.240000e-06	1.814648e-06	3.879037e-10	1.260752e+01	2.718153e+01
2.250000e-06	1.858790e-06	4.002752e-10	1.291421e+01	2.799915e+01
2.260000e-06	1.902742e-06	4.110342e-10	1.321957e+01	2.879854e+01
2.270000e-06	1.946600e-06	4.192047e-10	1.352428e+01	2.957965e+01
2.280000e-06	1.990443e-06	4.272857e-10	1.382889e+01	3.034249e+01
2.290000e-06	2.034264e-06	4.366506e-10	1.413334e+01	3.108711e+01
2.300000e-06	2.078011e-06	4.480693e-10	1.443728e+01	3.181365e+01
2.310000e-06	2.121655e-06	4.591962e-10	1.474050e+01	3.252227e+01
2.320000e-06	2.165171e-06	4.709859e-10	1.504284e+01	3.321320e+01
2.330000e-06	2.208587e-06	4.814417e-10	1.534447e+01	3.388671e+01
2.340000e-06	2.251893e-06	4.898110e-10	1.564535e+01	3.454310e+01
2.350000e-06	2.295015e-06	4.950182e-10	1.594495e+01	3.518272e+01
2.360000e-06	2.337983e-06	4.992899e-10	1.624347e+01	3.580593e+01
2.370000e-06	2.380822e-06	5.059460e-10	1.654110e+01	3.641315e+01
2.380000e-06	2.423434e-06	5.162865e-10	1.683715e+01	3.700480e+01
2.390000e-06	2.465639e-06	5.274441e-10	1.713038e+01	3.758131e+01
2.400000e-06	2.507473e-06	5.374775e-10	1.742103e+01	3.814312e+01
2.410000e-06	2.548991e-06	5.470102e-10	1.770948e+01	3.869071e+01
2.420000e-06	2.590190e-06	5.556365e-10	1.799571e+01	3.922453e+01
2.430000e-06	2.631123e-06	5.619690e-10	1.828010e+01	3.974504e+01
2.440000e-06	2.671807e-06	5.675918e-10	1.856276e+01	4.025268e+01
2.450000e-06	2.712265e-06	5.750145e-10	1.884385e+01	4.074792e+01
2.460000e-06	2.752517e-06	5.838591e-10	1.912351e+01	4.123118e+01
2.470000e-06	2.792593e-06	5.910627e-10	1.940194e+01	4.170287e+01
2.480000e-06	2.832531e-06	5.973966e-10	1.967942e+01	4.216340e+01
2.490000e-06	2.872359e-06	6.032960e-10	1.995613e+01	4.261315e+01
2.500000e-06	2.912019e-06	6.088913e-10	2.023167e+01	4.305246e+01
2.510000e-06	2.951463e-06	6.157372e-10	2.050571e+01	4.348169e+01
2.520000e-06	2.990761e-06	6.207994e-10	2.077874e+01	4.390112e+01
2.530000e-06	3.029907e-06	6.260022e-10	2.105071e+01	4.431105e+01
2.540000e-06	3.068877e-06	6.303228e-10	2.132146e+01	4.471174e+01
2.550000e-06	3.107644e-06	6.330227e-10	2.159080e+01	4.510340e+01
2.560000e-06	3.146202e-06	6.352749e-10	2.185869e+01	4.548625e+01
2.570000e-06	3.184526e-06	6.392512e-10	2.212495e+01	4.586047e+01
2.580000e-06	3.222636e-06	6.445613e-10	2.238973e+01	4.622620e+01
2.590000e-06	3.260511e-06	6.488136e-10	2.265287e+01	4.658359e+01
2.600000e-06	3.298120e-06	6.531096e-10	2.291416e+01	4.693274e+01
2.610000e-06	3.335579e-06	6.603681e-10	2.317441e+01	4.727375e+01
2.620000e-06	3.372808e-06	6.681745e-10	2.343307e+01	4.760669e+01
2.630000e-06	3.409765e-06	6.745867e-10	2.368983e+01	4.793162e+01
2.640000e-06	3.446506e-06	6.768894e-10	2.394509e+01	4.824859e+01
2.650000e-06	3.482987e-06	6.769642e-10	2.419855e+01	4.855763e+01
2.660000e-06	3.519248e-06	6.782337e-10	2.445048e+01	4.885878e+01
2.670000e-06	3.555339e-06	6.811449e-10	2.470123e+01	4.915206e+01
2.680000e-06	3.591246e-06	6.852166e-10	2.495069e+01	4.943748e+01
2.690000e-06	3.626962e-06	6.907019e-10	2.519884e+01	4.971507e+01
2.700000e-06	3.662534e-06	6.974165e-10	2.544598e+01	4.998485e+01
2.710000e-06	3.697912e-06	7.036777e-10	2.569177e+01	5.024686e+01
2.720000e-06	3.732988e-06	7.099730e-10	2.593547e+01	5.050111e+01
2.730000e-06	3.767741e-06	7.156479e-10	2.617692e+01	5.074766e+01
2.740000e-06	3.802208e-06	7.189838e-10	2.641639e+01	5.098656e+01
2.750000e-06	3.836308e-06	7.210705e-10	2.665330e+01	5.121786e+01
2.760000e-06	3.869870e-06	7.253939e-10	2.688648e+01	5.144166e+01
2.770000e-06	3.902916e-06	7.308746e-10	2.711607e+01	5.165803e+01
2.780000e-06	3.935564e-06	7.369968e-10	2.734289e+01	5.186710e+01
2.790000e-06	3.967903e-06	7.444614e-10	2.756758e+01	5.206896e+01
2.800000e-06	3.999998e-06	7.514599e-10	2.779056e+01	5.226378e+01
2.810000e-06	4.031872e-06	7.566868e-10	2.801201e+01	5.245168e+01
2.820000e-06	4.063549e-06	7.605337e-10	2.823209e+01	5.263286e+01
2.830000e-06	4.095040e-06	7.618125e-10	2.845088e+01	5.280748e+01
2.840000e-06	4.126306e-06	7.605798e-10	2.866810e+01	5.297576e+01
2.850000e-06	4.157375e-06	7.597006e-10	2.888396e+01	5.313788e+01
2.860000e-06	4.188232e-06	7.620373e-10	2.909834e+01	5.329408e+01
2.870000e-06	4.218735e-06	7.660478e-10	2.931026e+01	5.344460e+01
2.880000e-06	4.248845e-06	7.707161e-10	2.951946e+01	5.358966e+01
2.890000e-06	4.278655e-06	7.781784e-10	2.972657e+01	5.372951e+01
2.900000e-06	4.308251e-06	7.837520e-10	2.993219e+01	5.386442e+01
