# Temperatura_=_-0.4
# Concentracion g/m^3_=_1620.0
# C_Vs_to_Am_M_A/Vsm_=_65563218390.804596
# pendiente_HvsI_1/m_=_3716.3
# ordenada_HvsI_A/m_=_1297.0
# frecuencia_Hz_=_135092.06385764162

Tiempo_(s)	Campo_(V.s)	Magnetizacion_(V.s)	Campo_(kA/m)	Magnetizacion_(A/m)
0.000000e+00	-5.526877e-06	-1.331158e-09	-3.837722e+01	-8.633401e+01
1.000000e-08	-5.527102e-06	-1.331790e-09	-3.837879e+01	-8.634186e+01
2.000000e-08	-5.527013e-06	-1.332898e-09	-3.837817e+01	-8.634941e+01
3.000000e-08	-5.526465e-06	-1.333314e-09	-3.837436e+01	-8.635660e+01
4.000000e-08	-5.525407e-06	-1.331588e-09	-3.836702e+01	-8.636332e+01
5.000000e-08	-5.523889e-06	-1.336501e-09	-3.835648e+01	-8.636944e+01
6.000000e-08	-5.521775e-06	-1.340645e-09	-3.834180e+01	-8.637483e+01
7.000000e-08	-5.519125e-06	-1.329397e-09	-3.832340e+01	-8.637934e+01
8.000000e-08	-5.516086e-06	-1.342914e-09	-3.830229e+01	-8.638280e+01
9.000000e-08	-5.512635e-06	-1.333112e-09	-3.827833e+01	-8.638501e+01
1.000000e-07	-5.508678e-06	-1.220741e-09	-3.825086e+01	-8.638580e+01
1.100000e-07	-5.504484e-06	-1.280664e-09	-3.822173e+01	-8.638496e+01
1.200000e-07	-5.500076e-06	-1.385309e-09	-3.819113e+01	-8.638227e+01
1.300000e-07	-5.495196e-06	-1.414667e-09	-3.815724e+01	-8.637754e+01
1.400000e-07	-5.489875e-06	-1.263960e-09	-3.812030e+01	-8.637053e+01
1.500000e-07	-5.484251e-06	-1.209566e-09	-3.808124e+01	-8.636104e+01
1.600000e-07	-5.478328e-06	-1.380940e-09	-3.804012e+01	-8.634886e+01
1.700000e-07	-5.471961e-06	-1.397985e-09	-3.799590e+01	-8.633376e+01
1.800000e-07	-5.465190e-06	-1.305020e-09	-3.794889e+01	-8.631555e+01
1.900000e-07	-5.458132e-06	-1.227334e-09	-3.789987e+01	-8.629404e+01
2.000000e-07	-5.450750e-06	-1.372873e-09	-3.784862e+01	-8.626902e+01
2.100000e-07	-5.443040e-06	-1.410196e-09	-3.779508e+01	-8.624034e+01
2.200000e-07	-5.435058e-06	-1.364572e-09	-3.773966e+01	-8.620781e+01
2.300000e-07	-5.426782e-06	-1.291818e-09	-3.768220e+01	-8.617130e+01
2.400000e-07	-5.417949e-06	-1.366421e-09	-3.762086e+01	-8.613066e+01
2.500000e-07	-5.408453e-06	-1.388628e-09	-3.755492e+01	-8.608577e+01
2.600000e-07	-5.398495e-06	-1.370539e-09	-3.748577e+01	-8.603653e+01
2.700000e-07	-5.387983e-06	-1.321849e-09	-3.741278e+01	-8.598285e+01
2.800000e-07	-5.376787e-06	-1.346041e-09	-3.733504e+01	-8.592465e+01
2.900000e-07	-5.365151e-06	-1.370789e-09	-3.725424e+01	-8.586188e+01
3.000000e-07	-5.353239e-06	-1.338023e-09	-3.717153e+01	-8.579450e+01
3.100000e-07	-5.340783e-06	-1.317142e-09	-3.708504e+01	-8.572248e+01
3.200000e-07	-5.327843e-06	-1.337898e-09	-3.699519e+01	-8.564581e+01
3.300000e-07	-5.314680e-06	-1.379463e-09	-3.690379e+01	-8.556450e+01
3.400000e-07	-5.301209e-06	-1.319763e-09	-3.681025e+01	-8.547856e+01
3.500000e-07	-5.287146e-06	-1.281957e-09	-3.671260e+01	-8.538803e+01
3.600000e-07	-5.272608e-06	-1.328455e-09	-3.661164e+01	-8.529295e+01
3.700000e-07	-5.257779e-06	-1.353007e-09	-3.650868e+01	-8.519336e+01
3.800000e-07	-5.242380e-06	-1.270463e-09	-3.640175e+01	-8.508933e+01
3.900000e-07	-5.226268e-06	-1.308832e-09	-3.628987e+01	-8.498093e+01
4.000000e-07	-5.209817e-06	-1.369990e-09	-3.617564e+01	-8.486822e+01
4.100000e-07	-5.193150e-06	-1.289675e-09	-3.605991e+01	-8.475128e+01
4.200000e-07	-5.176119e-06	-1.222164e-09	-3.594165e+01	-8.463020e+01
4.300000e-07	-5.158828e-06	-1.369964e-09	-3.582159e+01	-8.450505e+01
4.400000e-07	-5.141225e-06	-1.344041e-09	-3.569935e+01	-8.437590e+01
4.500000e-07	-5.123121e-06	-1.214285e-09	-3.557365e+01	-8.424285e+01
4.600000e-07	-5.104537e-06	-1.286441e-09	-3.544461e+01	-8.410596e+01
4.700000e-07	-5.085673e-06	-1.402511e-09	-3.531362e+01	-8.396531e+01
4.800000e-07	-5.066461e-06	-1.248817e-09	-3.518022e+01	-8.382095e+01
4.900000e-07	-5.046933e-06	-1.233527e-09	-3.504462e+01	-8.367295e+01
5.000000e-07	-5.027229e-06	-1.363611e-09	-3.490780e+01	-8.352137e+01
5.100000e-07	-5.007322e-06	-1.293555e-09	-3.476957e+01	-8.336624e+01
5.200000e-07	-4.987085e-06	-1.189091e-09	-3.462905e+01	-8.320760e+01
5.300000e-07	-4.966615e-06	-1.331356e-09	-3.448691e+01	-8.304548e+01
5.400000e-07	-4.945833e-06	-1.326847e-09	-3.434260e+01	-8.287990e+01
5.500000e-07	-4.924452e-06	-1.187220e-09	-3.419414e+01	-8.271087e+01
5.600000e-07	-4.902579e-06	-1.262366e-09	-3.404226e+01	-8.253839e+01
5.700000e-07	-4.880612e-06	-1.344496e-09	-3.388973e+01	-8.236246e+01
5.800000e-07	-4.858321e-06	-1.210839e-09	-3.373494e+01	-8.218307e+01
5.900000e-07	-4.835614e-06	-1.209581e-09	-3.357727e+01	-8.200020e+01
6.000000e-07	-4.812696e-06	-1.311837e-09	-3.341813e+01	-8.181381e+01
6.100000e-07	-4.789448e-06	-1.234559e-09	-3.325671e+01	-8.162388e+01
6.200000e-07	-4.765934e-06	-1.187034e-09	-3.309343e+01	-8.143038e+01
6.300000e-07	-4.742151e-06	-1.263813e-09	-3.292829e+01	-8.123326e+01
6.400000e-07	-4.718127e-06	-1.237787e-09	-3.276147e+01	-8.103249e+01
6.500000e-07	-4.693759e-06	-1.174570e-09	-3.259227e+01	-8.082802e+01
6.600000e-07	-4.668989e-06	-1.240083e-09	-3.242027e+01	-8.061982e+01
6.700000e-07	-4.643596e-06	-1.235461e-09	-3.224395e+01	-8.040783e+01
6.800000e-07	-4.617541e-06	-1.178609e-09	-3.206303e+01	-8.019202e+01
6.900000e-07	-4.591030e-06	-1.206743e-09	-3.187895e+01	-7.997237e+01
7.000000e-07	-4.564049e-06	-1.233841e-09	-3.169159e+01	-7.974883e+01
7.100000e-07	-4.536804e-06	-1.177308e-09	-3.150241e+01	-7.952139e+01
7.200000e-07	-4.509379e-06	-1.190075e-09	-3.131198e+01	-7.929003e+01
7.300000e-07	-4.481746e-06	-1.209959e-09	-3.112010e+01	-7.905473e+01
7.400000e-07	-4.453865e-06	-1.180358e-09	-3.092650e+01	-7.881549e+01
7.500000e-07	-4.425711e-06	-1.173091e-09	-3.073101e+01	-7.857233e+01
7.600000e-07	-4.397396e-06	-1.206211e-09	-3.053440e+01	-7.832524e+01
7.700000e-07	-4.368732e-06	-1.176217e-09	-3.033536e+01	-7.807427e+01
7.800000e-07	-4.339684e-06	-1.167193e-09	-3.013366e+01	-7.781944e+01
7.900000e-07	-4.310410e-06	-1.185935e-09	-2.993039e+01	-7.756078e+01
8.000000e-07	-4.280824e-06	-1.169038e-09	-2.972495e+01	-7.729836e+01
8.100000e-07	-4.250890e-06	-1.138733e-09	-2.951710e+01	-7.703222e+01
8.200000e-07	-4.220688e-06	-1.161966e-09	-2.930739e+01	-7.676244e+01
8.300000e-07	-4.190165e-06	-1.161555e-09	-2.909544e+01	-7.648908e+01
8.400000e-07	-4.159306e-06	-1.133062e-09	-2.888116e+01	-7.621223e+01
8.500000e-07	-4.128191e-06	-1.139687e-09	-2.866511e+01	-7.593196e+01
8.600000e-07	-4.096888e-06	-1.154574e-09	-2.844775e+01	-7.564835e+01
8.700000e-07	-4.065438e-06	-1.129021e-09	-2.822937e+01	-7.536151e+01
8.800000e-07	-4.033821e-06	-1.118875e-09	-2.800983e+01	-7.507150e+01
8.900000e-07	-4.001997e-06	-1.131489e-09	-2.778885e+01	-7.477843e+01
9.000000e-07	-3.969825e-06	-1.111600e-09	-2.756545e+01	-7.448237e+01
9.100000e-07	-3.937224e-06	-1.091363e-09	-2.733908e+01	-7.418340e+01
9.200000e-07	-3.904244e-06	-1.102765e-09	-2.711008e+01	-7.388159e+01
9.300000e-07	-3.870922e-06	-1.103129e-09	-2.687870e+01	-7.357702e+01
9.400000e-07	-3.837117e-06	-1.080718e-09	-2.664396e+01	-7.326973e+01
9.500000e-07	-3.802957e-06	-1.088242e-09	-2.640676e+01	-7.295978e+01
9.600000e-07	-3.768472e-06	-1.093014e-09	-2.616731e+01	-7.264719e+01
9.700000e-07	-3.733560e-06	-1.075045e-09	-2.592489e+01	-7.233199e+01
9.800000e-07	-3.698376e-06	-1.065116e-09	-2.568058e+01	-7.201418e+01
9.900000e-07	-3.662977e-06	-1.073972e-09	-2.543478e+01	-7.169375e+01
1.000000e-06	-3.627387e-06	-1.058932e-09	-2.518765e+01	-7.137066e+01
1.010000e-06	-3.591673e-06	-1.047957e-09	-2.493966e+01	-7.104488e+01
1.020000e-06	-3.555786e-06	-1.052933e-09	-2.469047e+01	-7.071633e+01
1.030000e-06	-3.519723e-06	-1.052219e-09	-2.444006e+01	-7.038494e+01
1.040000e-06	-3.483505e-06	-1.036062e-09	-2.418857e+01	-7.005059e+01
1.050000e-06	-3.446972e-06	-1.036252e-09	-2.393489e+01	-6.971317e+01
1.060000e-06	-3.410200e-06	-1.029782e-09	-2.367956e+01	-6.937253e+01
1.070000e-06	-3.373143e-06	-1.015337e-09	-2.342225e+01	-6.902850e+01
1.080000e-06	-3.335730e-06	-1.007923e-09	-2.316246e+01	-6.868091e+01
1.090000e-06	-3.298139e-06	-1.010826e-09	-2.290144e+01	-6.832957e+01
1.100000e-06	-3.260244e-06	-1.000136e-09	-2.263831e+01	-6.797424e+01
1.110000e-06	-3.222104e-06	-9.908715e-10	-2.237347e+01	-6.761471e+01
1.120000e-06	-3.183836e-06	-9.867190e-10	-2.210775e+01	-6.725073e+01
1.130000e-06	-3.145346e-06	-9.786840e-10	-2.184048e+01	-6.688204e+01
1.140000e-06	-3.106687e-06	-9.680265e-10	-2.157204e+01	-6.650837e+01
1.150000e-06	-3.067878e-06	-9.660639e-10	-2.130256e+01	-6.612945e+01
1.160000e-06	-3.028862e-06	-9.625322e-10	-2.103165e+01	-6.574499e+01
1.170000e-06	-2.989577e-06	-9.543671e-10	-2.075886e+01	-6.535470e+01
1.180000e-06	-2.950107e-06	-9.493983e-10	-2.048479e+01	-6.495828e+01
1.190000e-06	-2.910560e-06	-9.438693e-10	-2.021019e+01	-6.455545e+01
1.200000e-06	-2.870940e-06	-9.345616e-10	-1.993508e+01	-6.414591e+01
1.210000e-06	-2.831173e-06	-9.264017e-10	-1.965895e+01	-6.372937e+01
1.220000e-06	-2.791235e-06	-9.216460e-10	-1.938163e+01	-6.330554e+01
1.230000e-06	-2.751099e-06	-9.122620e-10	-1.910293e+01	-6.287414e+01
1.240000e-06	-2.710784e-06	-9.051934e-10	-1.882299e+01	-6.243490e+01
1.250000e-06	-2.670220e-06	-8.989520e-10	-1.854133e+01	-6.198756e+01
1.260000e-06	-2.629367e-06	-8.945198e-10	-1.825765e+01	-6.153186e+01
1.270000e-06	-2.588283e-06	-8.905581e-10	-1.797238e+01	-6.106758e+01
1.280000e-06	-2.546890e-06	-8.873359e-10	-1.768496e+01	-6.059448e+01
1.290000e-06	-2.505111e-06	-8.791283e-10	-1.739485e+01	-6.011236e+01
1.300000e-06	-2.462997e-06	-8.700501e-10	-1.710243e+01	-5.962103e+01
1.310000e-06	-2.420674e-06	-8.597121e-10	-1.680855e+01	-5.912031e+01
1.320000e-06	-2.378008e-06	-8.505079e-10	-1.651228e+01	-5.861004e+01
1.330000e-06	-2.335032e-06	-8.418351e-10	-1.621387e+01	-5.809007e+01
1.340000e-06	-2.291858e-06	-8.376751e-10	-1.591408e+01	-5.756028e+01
1.350000e-06	-2.248509e-06	-8.308762e-10	-1.561307e+01	-5.702055e+01
1.360000e-06	-2.205127e-06	-8.231561e-10	-1.531184e+01	-5.647079e+01
1.370000e-06	-2.161689e-06	-8.134522e-10	-1.501022e+01	-5.591091e+01
1.380000e-06	-2.118109e-06	-8.041170e-10	-1.470761e+01	-5.534083e+01
1.390000e-06	-2.074455e-06	-7.922759e-10	-1.440449e+01	-5.476050e+01
1.400000e-06	-2.030769e-06	-7.818682e-10	-1.410114e+01	-5.416986e+01
1.410000e-06	-1.986982e-06	-7.703844e-10	-1.379710e+01	-5.356886e+01
1.420000e-06	-1.943090e-06	-7.592570e-10	-1.349232e+01	-5.295747e+01
1.430000e-06	-1.899110e-06	-7.500505e-10	-1.318693e+01	-5.233564e+01
1.440000e-06	-1.854965e-06	-7.433400e-10	-1.288041e+01	-5.170335e+01
1.450000e-06	-1.810676e-06	-7.330604e-10	-1.257287e+01	-5.106054e+01
1.460000e-06	-1.766280e-06	-7.203137e-10	-1.226460e+01	-5.040719e+01
1.470000e-06	-1.721726e-06	-7.072566e-10	-1.195523e+01	-4.974323e+01
1.480000e-06	-1.677166e-06	-6.945927e-10	-1.164581e+01	-4.906862e+01
1.490000e-06	-1.632505e-06	-6.823581e-10	-1.133570e+01	-4.838330e+01
1.500000e-06	-1.587600e-06	-6.725848e-10	-1.102389e+01	-4.768717e+01
1.510000e-06	-1.542497e-06	-6.625869e-10	-1.071071e+01	-4.698015e+01
1.520000e-06	-1.497352e-06	-6.484221e-10	-1.039723e+01	-4.626212e+01
1.530000e-06	-1.452117e-06	-6.341989e-10	-1.008313e+01	-4.553297e+01
1.540000e-06	-1.406695e-06	-6.206167e-10	-9.767730e+00	-4.479254e+01
1.550000e-06	-1.361183e-06	-6.091815e-10	-9.451705e+00	-4.404067e+01
1.560000e-06	-1.315606e-06	-5.973706e-10	-9.135233e+00	-4.327718e+01
1.570000e-06	-1.269981e-06	-5.871760e-10	-8.818425e+00	-4.250185e+01
1.580000e-06	-1.224322e-06	-5.769939e-10	-8.501381e+00	-4.171445e+01
1.590000e-06	-1.178593e-06	-5.647537e-10	-8.183847e+00	-4.091475e+01
1.600000e-06	-1.132763e-06	-5.490138e-10	-7.865615e+00	-4.010246e+01
1.610000e-06	-1.086909e-06	-5.355332e-10	-7.547218e+00	-3.927731e+01
1.620000e-06	-1.040986e-06	-5.212077e-10	-7.228343e+00	-3.843897e+01
1.630000e-06	-9.949222e-07	-5.070040e-10	-6.908486e+00	-3.758715e+01
1.640000e-06	-9.487661e-07	-4.939454e-10	-6.587990e+00	-3.672149e+01
1.650000e-06	-9.025273e-07	-4.806246e-10	-6.266920e+00	-3.584165e+01
1.660000e-06	-8.561789e-07	-4.663285e-10	-5.945089e+00	-3.494728e+01
1.670000e-06	-8.098495e-07	-4.522504e-10	-5.623389e+00	-3.403802e+01
1.680000e-06	-7.634594e-07	-4.381713e-10	-5.301268e+00	-3.311350e+01
1.690000e-06	-7.170481e-07	-4.233332e-10	-4.978999e+00	-3.217337e+01
1.700000e-06	-6.705262e-07	-4.095592e-10	-4.655963e+00	-3.121728e+01
1.710000e-06	-6.238147e-07	-3.953698e-10	-4.331611e+00	-3.024489e+01
1.720000e-06	-5.770816e-07	-3.767165e-10	-4.007108e+00	-2.925586e+01
1.730000e-06	-5.303497e-07	-3.579130e-10	-3.682613e+00	-2.824990e+01
1.740000e-06	-4.836920e-07	-3.407327e-10	-3.358634e+00	-2.722672e+01
1.750000e-06	-4.370023e-07	-3.252946e-10	-3.034433e+00	-2.618606e+01
1.760000e-06	-3.902667e-07	-3.121743e-10	-2.709913e+00	-2.512772e+01
1.770000e-06	-3.434329e-07	-2.996695e-10	-2.384710e+00	-2.405150e+01
1.780000e-06	-2.965110e-07	-2.871704e-10	-2.058897e+00	-2.295728e+01
1.790000e-06	-2.495790e-07	-2.719450e-10	-1.733013e+00	-2.184495e+01
1.800000e-06	-2.026929e-07	-2.507399e-10	-1.407448e+00	-2.071448e+01
1.810000e-06	-1.558167e-07	-2.279487e-10	-1.081951e+00	-1.956589e+01
1.820000e-06	-1.089085e-07	-2.072048e-10	-7.562331e-01	-1.839926e+01
1.830000e-06	-6.195566e-08	-1.892929e-10	-4.302043e-01	-1.721472e+01
1.840000e-06	-1.498599e-08	-1.738723e-10	-1.040589e-01	-1.601247e+01
1.850000e-06	3.189420e-08	-1.597435e-10	2.214652e-01	-1.479279e+01
1.860000e-06	7.878055e-08	-1.458819e-10	5.470321e-01	-1.355603e+01
1.870000e-06	1.256233e-07	-1.297887e-10	8.722964e-01	-1.230258e+01
1.880000e-06	1.724234e-07	-1.130211e-10	1.197264e+00	-1.103295e+01
1.890000e-06	2.193094e-07	-9.539749e-11	1.522829e+00	-9.747683e+00
1.900000e-06	2.661486e-07	-7.729680e-11	1.848068e+00	-8.447420e+00
1.910000e-06	3.129085e-07	-5.894496e-11	2.172757e+00	-7.132864e+00
1.920000e-06	3.596903e-07	-4.124767e-11	2.497597e+00	-5.804791e+00
1.930000e-06	4.065120e-07	-2.294308e-11	2.822716e+00	-4.464048e+00
1.940000e-06	4.533619e-07	-5.881305e-12	3.148030e+00	-3.111548e+00
1.950000e-06	5.001400e-07	8.319537e-12	3.472845e+00	-1.748268e+00
1.960000e-06	5.468637e-07	2.154886e-11	3.797283e+00	-3.752465e-01
1.970000e-06	5.934775e-07	3.719543e-11	4.120957e+00	1.006420e+00
1.980000e-06	6.401015e-07	5.658190e-11	4.444702e+00	2.395583e+00
1.990000e-06	6.866801e-07	7.978109e-11	4.768132e+00	3.791048e+00
2.000000e-06	7.330394e-07	1.046526e-10	5.090039e+00	5.191577e+00
2.010000e-06	7.793268e-07	1.266011e-10	5.411447e+00	6.595894e+00
2.020000e-06	8.255617e-07	1.453785e-10	5.732490e+00	8.002695e+00
2.030000e-06	8.718138e-07	1.632905e-10	6.053653e+00	9.410652e+00
2.040000e-06	9.180809e-07	1.814200e-10	6.374920e+00	1.081842e+01
2.050000e-06	9.642778e-07	1.996253e-10	6.695699e+00	1.222464e+01
2.060000e-06	1.010395e-06	2.182226e-10	7.015926e+00	1.362795e+01
2.070000e-06	1.056388e-06	2.386994e-10	7.335290e+00	1.502699e+01
2.080000e-06	1.102307e-06	2.603269e-10	7.654139e+00	1.642043e+01
2.090000e-06	1.148188e-06	2.806934e-10	7.972726e+00	1.780693e+01
2.100000e-06	1.193932e-06	2.997336e-10	8.290363e+00	1.918519e+01
2.110000e-06	1.239588e-06	3.192857e-10	8.607382e+00	2.055393e+01
2.120000e-06	1.285244e-06	3.387246e-10	8.924407e+00	2.191192e+01
2.130000e-06	1.330761e-06	3.568874e-10	9.240464e+00	2.325798e+01
2.140000e-06	1.376173e-06	3.744532e-10	9.555794e+00	2.459095e+01
2.150000e-06	1.421547e-06	3.912952e-10	9.870858e+00	2.590976e+01
2.160000e-06	1.466834e-06	4.091271e-10	1.018532e+01	2.721338e+01
2.170000e-06	1.512015e-06	4.285549e-10	1.049904e+01	2.850086e+01
2.180000e-06	1.557028e-06	4.483453e-10	1.081161e+01	2.977130e+01
2.190000e-06	1.601895e-06	4.667009e-10	1.112315e+01	3.102388e+01
2.200000e-06	1.646568e-06	4.837292e-10	1.143335e+01	3.225788e+01
2.210000e-06	1.691096e-06	4.996050e-10	1.174254e+01	3.347262e+01
2.220000e-06	1.735516e-06	5.156549e-10	1.205098e+01	3.466753e+01
2.230000e-06	1.779756e-06	5.320410e-10	1.235817e+01	3.584211e+01
2.240000e-06	1.823923e-06	5.481251e-10	1.266485e+01	3.699594e+01
2.250000e-06	1.868035e-06	5.633959e-10	1.297116e+01	3.812868e+01
2.260000e-06	1.912004e-06	5.776756e-10	1.327647e+01	3.924009e+01
2.270000e-06	1.955879e-06	5.929430e-10	1.358112e+01	4.032998e+01
2.280000e-06	1.999730e-06	6.085764e-10	1.388561e+01	4.139827e+01
2.290000e-06	2.043544e-06	6.229065e-10	1.418985e+01	4.244494e+01
2.300000e-06	2.087229e-06	6.369617e-10	1.449318e+01	4.347003e+01
2.310000e-06	2.130790e-06	6.511264e-10	1.479566e+01	4.447368e+01
2.320000e-06	2.174287e-06	6.654640e-10	1.509770e+01	4.545607e+01
2.330000e-06	2.217693e-06	6.793105e-10	1.539909e+01	4.641745e+01
2.340000e-06	2.260946e-06	6.921806e-10	1.569943e+01	4.735813e+01
2.350000e-06	2.304066e-06	7.041802e-10	1.599885e+01	4.827846e+01
2.360000e-06	2.347023e-06	7.143450e-10	1.629713e+01	4.917886e+01
2.370000e-06	2.389735e-06	7.246765e-10	1.659371e+01	5.005975e+01
2.380000e-06	2.432169e-06	7.357696e-10	1.688836e+01	5.092162e+01
2.390000e-06	2.474323e-06	7.475048e-10	1.718107e+01	5.176498e+01
2.400000e-06	2.516210e-06	7.600189e-10	1.747192e+01	5.259036e+01
2.410000e-06	2.557726e-06	7.721575e-10	1.776020e+01	5.339830e+01
2.420000e-06	2.598911e-06	7.858689e-10	1.804618e+01	5.418937e+01
2.430000e-06	2.639967e-06	8.003637e-10	1.833126e+01	5.496412e+01
2.440000e-06	2.680765e-06	8.124401e-10	1.861455e+01	5.572311e+01
2.450000e-06	2.721240e-06	8.234099e-10	1.889560e+01	5.646692e+01
2.460000e-06	2.761528e-06	8.346614e-10	1.917535e+01	5.719608e+01
2.470000e-06	2.801577e-06	8.444305e-10	1.945344e+01	5.791113e+01
2.480000e-06	2.841451e-06	8.524514e-10	1.973031e+01	5.861258e+01
2.490000e-06	2.881244e-06	8.606034e-10	2.000663e+01	5.930093e+01
2.500000e-06	2.920878e-06	8.717485e-10	2.028184e+01	5.997663e+01
2.510000e-06	2.960347e-06	8.849102e-10	2.055589e+01	6.064013e+01
2.520000e-06	2.999696e-06	8.968134e-10	2.082912e+01	6.129181e+01
2.530000e-06	3.038864e-06	9.073260e-10	2.110110e+01	6.193206e+01
2.540000e-06	3.077802e-06	9.147576e-10	2.137147e+01	6.256120e+01
2.550000e-06	3.116534e-06	9.197994e-10	2.164042e+01	6.317953e+01
2.560000e-06	3.155054e-06	9.254707e-10	2.190789e+01	6.378730e+01
2.570000e-06	3.193299e-06	9.331953e-10	2.217346e+01	6.438472e+01
2.580000e-06	3.231286e-06	9.420424e-10	2.243722e+01	6.497199e+01
2.590000e-06	3.269052e-06	9.491627e-10	2.269946e+01	6.554924e+01
2.600000e-06	3.306637e-06	9.546661e-10	2.296045e+01	6.611658e+01
2.610000e-06	3.344118e-06	9.611977e-10	2.322071e+01	6.667409e+01
2.620000e-06	3.381343e-06	9.700311e-10	2.347918e+01	6.722181e+01
2.630000e-06	3.418243e-06	9.796848e-10	2.373541e+01	6.775975e+01
2.640000e-06	3.454903e-06	9.883735e-10	2.398996e+01	6.828790e+01
2.650000e-06	3.491322e-06	9.961818e-10	2.424285e+01	6.880622e+01
2.660000e-06	3.527529e-06	1.003318e-09	2.449426e+01	6.931466e+01
2.670000e-06	3.563520e-06	1.009681e-09	2.474418e+01	6.981314e+01
2.680000e-06	3.599340e-06	1.014823e-09	2.499290e+01	7.030157e+01
2.690000e-06	3.635042e-06	1.019936e-09	2.524081e+01	7.077987e+01
2.700000e-06	3.670607e-06	1.025665e-09	2.548776e+01	7.124792e+01
2.710000e-06	3.706022e-06	1.033552e-09	2.573367e+01	7.170563e+01
2.720000e-06	3.741175e-06	1.043844e-09	2.597776e+01	7.215288e+01
2.730000e-06	3.776024e-06	1.055411e-09	2.621975e+01	7.258959e+01
2.740000e-06	3.810529e-06	1.065443e-09	2.645935e+01	7.301567e+01
2.750000e-06	3.844572e-06	1.071824e-09	2.669573e+01	7.343104e+01
2.760000e-06	3.878106e-06	1.076401e-09	2.692858e+01	7.383563e+01
2.770000e-06	3.911163e-06	1.079322e-09	2.715812e+01	7.422941e+01
2.780000e-06	3.943813e-06	1.082153e-09	2.738483e+01	7.461236e+01
2.790000e-06	3.976122e-06	1.087155e-09	2.760918e+01	7.498447e+01
2.800000e-06	4.008199e-06	1.093114e-09	2.783191e+01	7.534577e+01
2.810000e-06	4.040047e-06	1.099524e-09	2.805306e+01	7.569631e+01
2.820000e-06	4.071741e-06	1.106661e-09	2.827313e+01	7.603616e+01
2.830000e-06	4.103273e-06	1.113475e-09	2.849208e+01	7.636544e+01
2.840000e-06	4.134570e-06	1.118166e-09	2.870940e+01	7.668429e+01
2.850000e-06	4.165562e-06	1.121548e-09	2.892460e+01	7.699286e+01
2.860000e-06	4.196224e-06	1.126832e-09	2.913751e+01	7.729135e+01
2.870000e-06	4.226653e-06	1.129729e-09	2.934880e+01	7.757997e+01
2.880000e-06	4.256752e-06	1.131562e-09	2.955780e+01	7.785899e+01
2.890000e-06	4.286486e-06	1.137785e-09	2.976427e+01	7.812866e+01
2.900000e-06	4.315919e-06	1.145972e-09	2.996865e+01	7.838928e+01
