# Temperatura_=_-0.05
# Concentracion g/m^3_=_1620.0
# C_Vs_to_Am_M_A/Vsm_=_65563218390.804596
# pendiente_HvsI_1/m_=_3716.3
# ordenada_HvsI_A/m_=_1297.0
# frecuencia_Hz_=_135107.50182905575

Tiempo_(s)	Campo_(V.s)	Magnetizacion_(V.s)	Campo_(kA/m)	Magnetizacion_(A/m)
0.000000e+00	-5.528793e-06	-8.635384e-10	-3.837102e+01	-5.732543e+01
1.000000e-08	-5.528904e-06	-8.643109e-10	-3.837179e+01	-5.733977e+01
2.000000e-08	-5.528763e-06	-8.661531e-10	-3.837082e+01	-5.735280e+01
3.000000e-08	-5.528291e-06	-8.660354e-10	-3.836754e+01	-5.736436e+01
4.000000e-08	-5.527369e-06	-8.628060e-10	-3.836114e+01	-5.737431e+01
5.000000e-08	-5.525883e-06	-8.596482e-10	-3.835083e+01	-5.738252e+01
6.000000e-08	-5.523794e-06	-8.478320e-10	-3.833633e+01	-5.738884e+01
7.000000e-08	-5.521114e-06	-8.319408e-10	-3.831773e+01	-5.739313e+01
8.000000e-08	-5.517959e-06	-8.448534e-10	-3.829583e+01	-5.739526e+01
9.000000e-08	-5.514312e-06	-8.827039e-10	-3.827053e+01	-5.739509e+01
1.000000e-07	-5.510229e-06	-8.965124e-10	-3.824218e+01	-5.739251e+01
1.100000e-07	-5.505886e-06	-8.865264e-10	-3.821205e+01	-5.738738e+01
1.200000e-07	-5.501418e-06	-8.224864e-10	-3.818104e+01	-5.737962e+01
1.300000e-07	-5.496734e-06	-8.041015e-10	-3.814853e+01	-5.736911e+01
1.400000e-07	-5.491613e-06	-8.369522e-10	-3.811299e+01	-5.735577e+01
1.500000e-07	-5.486017e-06	-8.501842e-10	-3.807415e+01	-5.733952e+01
1.600000e-07	-5.479943e-06	-8.461544e-10	-3.803200e+01	-5.732030e+01
1.700000e-07	-5.473487e-06	-8.145517e-10	-3.798719e+01	-5.729806e+01
1.800000e-07	-5.466733e-06	-8.504979e-10	-3.794031e+01	-5.727275e+01
1.900000e-07	-5.459516e-06	-8.535488e-10	-3.789023e+01	-5.724435e+01
2.000000e-07	-5.451998e-06	-8.392169e-10	-3.783805e+01	-5.721285e+01
2.100000e-07	-5.444302e-06	-8.192184e-10	-3.778464e+01	-5.717823e+01
2.200000e-07	-5.436311e-06	-8.614029e-10	-3.772918e+01	-5.714052e+01
2.300000e-07	-5.428029e-06	-8.787906e-10	-3.767170e+01	-5.709972e+01
2.400000e-07	-5.419365e-06	-8.756776e-10	-3.761157e+01	-5.705589e+01
2.500000e-07	-5.410123e-06	-8.591875e-10	-3.754743e+01	-5.700905e+01
2.600000e-07	-5.400092e-06	-8.644773e-10	-3.747781e+01	-5.695927e+01
2.700000e-07	-5.389327e-06	-8.687836e-10	-3.740310e+01	-5.690660e+01
2.800000e-07	-5.378087e-06	-8.709667e-10	-3.732510e+01	-5.685111e+01
2.900000e-07	-5.366495e-06	-8.811069e-10	-3.724464e+01	-5.679287e+01
3.000000e-07	-5.354580e-06	-8.781677e-10	-3.716195e+01	-5.673198e+01
3.100000e-07	-5.342210e-06	-8.784943e-10	-3.707610e+01	-5.666851e+01
3.200000e-07	-5.329346e-06	-8.640396e-10	-3.698682e+01	-5.660254e+01
3.300000e-07	-5.316097e-06	-8.622790e-10	-3.689487e+01	-5.653418e+01
3.400000e-07	-5.302508e-06	-8.424517e-10	-3.680056e+01	-5.646351e+01
3.500000e-07	-5.288527e-06	-8.501854e-10	-3.670353e+01	-5.639061e+01
3.600000e-07	-5.274096e-06	-8.550969e-10	-3.660337e+01	-5.631558e+01
3.700000e-07	-5.259269e-06	-8.625156e-10	-3.650047e+01	-5.623851e+01
3.800000e-07	-5.243980e-06	-8.532483e-10	-3.639436e+01	-5.615946e+01
3.900000e-07	-5.228139e-06	-8.623918e-10	-3.628442e+01	-5.607853e+01
4.000000e-07	-5.211760e-06	-8.449684e-10	-3.617075e+01	-5.599578e+01
4.100000e-07	-5.195021e-06	-8.408138e-10	-3.605457e+01	-5.591127e+01
4.200000e-07	-5.177986e-06	-8.504247e-10	-3.593635e+01	-5.582507e+01
4.300000e-07	-5.160720e-06	-8.579334e-10	-3.581652e+01	-5.573724e+01
4.400000e-07	-5.143148e-06	-8.367903e-10	-3.569456e+01	-5.564780e+01
4.500000e-07	-5.125163e-06	-8.528634e-10	-3.556975e+01	-5.555681e+01
4.600000e-07	-5.106795e-06	-8.642142e-10	-3.544227e+01	-5.546429e+01
4.700000e-07	-5.087986e-06	-8.329089e-10	-3.531173e+01	-5.537027e+01
4.800000e-07	-5.068776e-06	-8.216710e-10	-3.517841e+01	-5.527476e+01
4.900000e-07	-5.049284e-06	-8.632901e-10	-3.504313e+01	-5.517778e+01
5.000000e-07	-5.029569e-06	-8.524482e-10	-3.490631e+01	-5.507933e+01
5.100000e-07	-5.009580e-06	-8.167107e-10	-3.476757e+01	-5.497941e+01
5.200000e-07	-4.989275e-06	-8.409096e-10	-3.462665e+01	-5.487801e+01
5.300000e-07	-4.968630e-06	-8.562481e-10	-3.448337e+01	-5.477513e+01
5.400000e-07	-4.947631e-06	-8.195128e-10	-3.433764e+01	-5.467076e+01
5.500000e-07	-4.926303e-06	-8.259489e-10	-3.418961e+01	-5.456488e+01
5.600000e-07	-4.904656e-06	-8.531989e-10	-3.403938e+01	-5.445747e+01
5.700000e-07	-4.882618e-06	-8.187439e-10	-3.388643e+01	-5.434853e+01
5.800000e-07	-4.860207e-06	-8.055554e-10	-3.373090e+01	-5.423804e+01
5.900000e-07	-4.837513e-06	-8.358617e-10	-3.357339e+01	-5.412599e+01
6.000000e-07	-4.814492e-06	-8.222766e-10	-3.341362e+01	-5.401238e+01
6.100000e-07	-4.791104e-06	-7.933637e-10	-3.325130e+01	-5.389718e+01
6.200000e-07	-4.767462e-06	-8.198809e-10	-3.308723e+01	-5.378041e+01
6.300000e-07	-4.743628e-06	-8.188753e-10	-3.292181e+01	-5.366208e+01
6.400000e-07	-4.719577e-06	-7.930367e-10	-3.275489e+01	-5.354218e+01
6.500000e-07	-4.695277e-06	-8.045661e-10	-3.258625e+01	-5.342074e+01
6.600000e-07	-4.670611e-06	-8.210199e-10	-3.241506e+01	-5.329779e+01
6.700000e-07	-4.645427e-06	-7.964423e-10	-3.224027e+01	-5.317334e+01
6.800000e-07	-4.619549e-06	-7.981648e-10	-3.206068e+01	-5.304745e+01
6.900000e-07	-4.593056e-06	-8.120788e-10	-3.187681e+01	-5.292016e+01
7.000000e-07	-4.566105e-06	-8.002317e-10	-3.168976e+01	-5.279151e+01
7.100000e-07	-4.538741e-06	-7.907133e-10	-3.149985e+01	-5.266157e+01
7.200000e-07	-4.511129e-06	-8.086909e-10	-3.130822e+01	-5.253040e+01
7.300000e-07	-4.483368e-06	-8.043898e-10	-3.111555e+01	-5.239808e+01
7.400000e-07	-4.455444e-06	-7.951655e-10	-3.092175e+01	-5.226467e+01
7.500000e-07	-4.427309e-06	-8.001235e-10	-3.072649e+01	-5.213026e+01
7.600000e-07	-4.398914e-06	-7.980663e-10	-3.052942e+01	-5.199492e+01
7.700000e-07	-4.370156e-06	-7.825783e-10	-3.032983e+01	-5.185875e+01
7.800000e-07	-4.341019e-06	-7.842777e-10	-3.012762e+01	-5.172181e+01
7.900000e-07	-4.311623e-06	-7.859161e-10	-2.992360e+01	-5.158421e+01
8.000000e-07	-4.281978e-06	-7.767988e-10	-2.971786e+01	-5.144601e+01
8.100000e-07	-4.252074e-06	-7.757186e-10	-2.951032e+01	-5.130728e+01
8.200000e-07	-4.221893e-06	-7.808165e-10	-2.930085e+01	-5.116811e+01
8.300000e-07	-4.191351e-06	-7.730930e-10	-2.908888e+01	-5.102855e+01
8.400000e-07	-4.160528e-06	-7.680876e-10	-2.887497e+01	-5.088866e+01
8.500000e-07	-4.129420e-06	-7.745253e-10	-2.865907e+01	-5.074848e+01
8.600000e-07	-4.097970e-06	-7.693512e-10	-2.844080e+01	-5.060805e+01
8.700000e-07	-4.066330e-06	-7.600379e-10	-2.822121e+01	-5.046738e+01
8.800000e-07	-4.034598e-06	-7.602183e-10	-2.800099e+01	-5.032648e+01
8.900000e-07	-4.002707e-06	-7.582480e-10	-2.777966e+01	-5.018534e+01
9.000000e-07	-3.970511e-06	-7.483721e-10	-2.755621e+01	-5.004394e+01
9.100000e-07	-3.938058e-06	-7.483669e-10	-2.733098e+01	-4.990222e+01
9.200000e-07	-3.905285e-06	-7.502372e-10	-2.710353e+01	-4.976014e+01
9.300000e-07	-3.872058e-06	-7.465368e-10	-2.687293e+01	-4.961761e+01
9.400000e-07	-3.838383e-06	-7.445453e-10	-2.663921e+01	-4.947452e+01
9.500000e-07	-3.804238e-06	-7.487930e-10	-2.640224e+01	-4.933078e+01
9.600000e-07	-3.769695e-06	-7.411260e-10	-2.616250e+01	-4.918623e+01
9.700000e-07	-3.734832e-06	-7.340298e-10	-2.592055e+01	-4.904073e+01
9.800000e-07	-3.699649e-06	-7.332605e-10	-2.567637e+01	-4.889410e+01
9.900000e-07	-3.664145e-06	-7.326213e-10	-2.542996e+01	-4.874615e+01
1.000000e-06	-3.628416e-06	-7.249510e-10	-2.518199e+01	-4.859668e+01
1.010000e-06	-3.592592e-06	-7.237796e-10	-2.493337e+01	-4.844546e+01
1.020000e-06	-3.556669e-06	-7.227210e-10	-2.468405e+01	-4.829225e+01
1.030000e-06	-3.520573e-06	-7.186925e-10	-2.443354e+01	-4.813682e+01
1.040000e-06	-3.484315e-06	-7.155501e-10	-2.418190e+01	-4.797890e+01
1.050000e-06	-3.447863e-06	-7.145595e-10	-2.392892e+01	-4.781822e+01
1.060000e-06	-3.410995e-06	-7.071298e-10	-2.367305e+01	-4.765451e+01
1.070000e-06	-3.373797e-06	-7.017825e-10	-2.341488e+01	-4.748749e+01
1.080000e-06	-3.336489e-06	-7.027081e-10	-2.315596e+01	-4.731687e+01
1.090000e-06	-3.298878e-06	-7.005565e-10	-2.289493e+01	-4.714239e+01
1.100000e-06	-3.260917e-06	-6.929965e-10	-2.263147e+01	-4.696374e+01
1.110000e-06	-3.222821e-06	-6.904704e-10	-2.236708e+01	-4.678067e+01
1.120000e-06	-3.184552e-06	-6.885562e-10	-2.210148e+01	-4.659289e+01
1.130000e-06	-3.146067e-06	-6.819951e-10	-2.183439e+01	-4.640016e+01
1.140000e-06	-3.107448e-06	-6.775893e-10	-2.156636e+01	-4.620220e+01
1.150000e-06	-3.068564e-06	-6.757224e-10	-2.129650e+01	-4.599880e+01
1.160000e-06	-3.029374e-06	-6.721523e-10	-2.102451e+01	-4.578972e+01
1.170000e-06	-2.990009e-06	-6.691439e-10	-2.075131e+01	-4.557476e+01
1.180000e-06	-2.950543e-06	-6.712047e-10	-2.047741e+01	-4.535372e+01
1.190000e-06	-2.910968e-06	-6.707385e-10	-2.020275e+01	-4.512644e+01
1.200000e-06	-2.871264e-06	-6.672233e-10	-1.992719e+01	-4.489276e+01
1.210000e-06	-2.831443e-06	-6.621925e-10	-1.965083e+01	-4.465256e+01
1.220000e-06	-2.791442e-06	-6.548129e-10	-1.937322e+01	-4.440572e+01
1.230000e-06	-2.751274e-06	-6.446602e-10	-1.909444e+01	-4.415215e+01
1.240000e-06	-2.710943e-06	-6.400922e-10	-1.881453e+01	-4.389180e+01
1.250000e-06	-2.670394e-06	-6.377281e-10	-1.853312e+01	-4.362462e+01
1.260000e-06	-2.629557e-06	-6.354617e-10	-1.824970e+01	-4.335057e+01
1.270000e-06	-2.588408e-06	-6.341649e-10	-1.796411e+01	-4.306967e+01
1.280000e-06	-2.547048e-06	-6.337006e-10	-1.767707e+01	-4.278191e+01
1.290000e-06	-2.505510e-06	-6.258912e-10	-1.738878e+01	-4.248733e+01
1.300000e-06	-2.463744e-06	-6.156192e-10	-1.709892e+01	-4.218598e+01
1.310000e-06	-2.421621e-06	-6.073517e-10	-1.680658e+01	-4.187790e+01
1.320000e-06	-2.379068e-06	-6.029818e-10	-1.651125e+01	-4.156318e+01
1.330000e-06	-2.336239e-06	-6.014819e-10	-1.621401e+01	-4.124188e+01
1.340000e-06	-2.293180e-06	-6.021575e-10	-1.591517e+01	-4.091409e+01
1.350000e-06	-2.249868e-06	-6.001835e-10	-1.561458e+01	-4.057988e+01
1.360000e-06	-2.206393e-06	-5.939020e-10	-1.531285e+01	-4.023935e+01
1.370000e-06	-2.162753e-06	-5.849384e-10	-1.500998e+01	-3.989256e+01
1.380000e-06	-2.119023e-06	-5.771684e-10	-1.470648e+01	-3.953959e+01
1.390000e-06	-2.075247e-06	-5.702446e-10	-1.440267e+01	-3.918051e+01
1.400000e-06	-2.031380e-06	-5.653041e-10	-1.409822e+01	-3.881535e+01
1.410000e-06	-1.987391e-06	-5.613524e-10	-1.379293e+01	-3.844415e+01
1.420000e-06	-1.943306e-06	-5.559129e-10	-1.348697e+01	-3.806692e+01
1.430000e-06	-1.899190e-06	-5.499439e-10	-1.318079e+01	-3.768364e+01
1.440000e-06	-1.855036e-06	-5.449010e-10	-1.287435e+01	-3.729429e+01
1.450000e-06	-1.810765e-06	-5.395040e-10	-1.256710e+01	-3.689878e+01
1.460000e-06	-1.766361e-06	-5.305929e-10	-1.225893e+01	-3.649704e+01
1.470000e-06	-1.721927e-06	-5.205141e-10	-1.195055e+01	-3.608892e+01
1.480000e-06	-1.677349e-06	-5.107970e-10	-1.164116e+01	-3.567427e+01
1.490000e-06	-1.632579e-06	-5.040562e-10	-1.133045e+01	-3.525289e+01
1.500000e-06	-1.587687e-06	-4.992636e-10	-1.101889e+01	-3.482455e+01
1.510000e-06	-1.542665e-06	-4.945148e-10	-1.070643e+01	-3.438898e+01
1.520000e-06	-1.497541e-06	-4.872235e-10	-1.039326e+01	-3.394586e+01
1.530000e-06	-1.452275e-06	-4.778613e-10	-1.007910e+01	-3.349487e+01
1.540000e-06	-1.406842e-06	-4.678196e-10	-9.763788e+00	-3.303561e+01
1.550000e-06	-1.361298e-06	-4.579514e-10	-9.447707e+00	-3.256768e+01
1.560000e-06	-1.315717e-06	-4.468254e-10	-9.131361e+00	-3.209063e+01
1.570000e-06	-1.270086e-06	-4.371220e-10	-8.814671e+00	-3.160399e+01
1.580000e-06	-1.224341e-06	-4.292334e-10	-8.497193e+00	-3.110725e+01
1.590000e-06	-1.178494e-06	-4.214660e-10	-8.179007e+00	-3.059988e+01
1.600000e-06	-1.132575e-06	-4.118453e-10	-7.860317e+00	-3.008133e+01
1.610000e-06	-1.086539e-06	-4.027769e-10	-7.540816e+00	-2.955104e+01
1.620000e-06	-1.040436e-06	-3.930329e-10	-7.220850e+00	-2.900842e+01
1.630000e-06	-9.943126e-07	-3.841566e-10	-6.900745e+00	-2.845288e+01
1.640000e-06	-9.481525e-07	-3.737737e-10	-6.580384e+00	-2.788384e+01
1.650000e-06	-9.018920e-07	-3.623459e-10	-6.259327e+00	-2.730069e+01
1.660000e-06	-8.554737e-07	-3.519623e-10	-5.937174e+00	-2.670285e+01
1.670000e-06	-8.089619e-07	-3.422508e-10	-5.614371e+00	-2.608975e+01
1.680000e-06	-7.624102e-07	-3.338911e-10	-5.291292e+00	-2.546083e+01
1.690000e-06	-7.158486e-07	-3.266238e-10	-4.968145e+00	-2.481556e+01
1.700000e-06	-6.693039e-07	-3.196065e-10	-4.645115e+00	-2.415343e+01
1.710000e-06	-6.227090e-07	-3.095866e-10	-4.321736e+00	-2.347398e+01
1.720000e-06	-5.760661e-07	-2.968944e-10	-3.998024e+00	-2.277677e+01
1.730000e-06	-5.294049e-07	-2.843412e-10	-3.674185e+00	-2.206142e+01
1.740000e-06	-4.826430e-07	-2.741633e-10	-3.349647e+00	-2.132760e+01
1.750000e-06	-4.358516e-07	-2.648990e-10	-3.024905e+00	-2.057503e+01
1.760000e-06	-3.890752e-07	-2.548385e-10	-2.700266e+00	-1.980350e+01
1.770000e-06	-3.423154e-07	-2.438701e-10	-2.375743e+00	-1.901286e+01
1.780000e-06	-2.955132e-07	-2.340304e-10	-2.050926e+00	-1.820302e+01
1.790000e-06	-2.485522e-07	-2.222687e-10	-1.725006e+00	-1.737397e+01
1.800000e-06	-2.014983e-07	-2.070133e-10	-1.398442e+00	-1.652579e+01
1.810000e-06	-1.544810e-07	-1.900340e-10	-1.072131e+00	-1.565861e+01
1.820000e-06	-1.075212e-07	-1.739382e-10	-7.462202e-01	-1.477267e+01
1.830000e-06	-6.051834e-08	-1.618542e-10	-4.200104e-01	-1.386825e+01
1.840000e-06	-1.354542e-08	-1.513359e-10	-9.400816e-02	-1.294576e+01
1.850000e-06	3.339052e-08	-1.397889e-10	2.317375e-01	-1.200567e+01
1.860000e-06	8.032599e-08	-1.288661e-10	5.574799e-01	-1.104852e+01
1.870000e-06	1.272146e-07	-1.153197e-10	8.828971e-01	-1.007494e+01
1.880000e-06	1.740979e-07	-9.917446e-11	1.208278e+00	-9.085663e+00
1.890000e-06	2.209588e-07	-8.252852e-11	1.533502e+00	-8.081463e+00
1.900000e-06	2.677951e-07	-6.751943e-11	1.858556e+00	-7.063208e+00
1.910000e-06	3.146143e-07	-5.334903e-11	2.183492e+00	-6.031830e+00
1.920000e-06	3.614029e-07	-4.006790e-11	2.508214e+00	-4.988332e+00
1.930000e-06	4.081799e-07	-3.015955e-11	2.832858e+00	-3.933776e+00
1.940000e-06	4.549170e-07	-2.066400e-11	3.157223e+00	-2.869282e+00
1.950000e-06	5.016218e-07	-8.362406e-12	3.481364e+00	-1.796021e+00
1.960000e-06	5.482887e-07	6.147328e-12	3.805242e+00	-7.152106e-01
1.970000e-06	5.948742e-07	2.131427e-11	4.128556e+00	3.718931e-01
1.980000e-06	6.414356e-07	3.648563e-11	4.451702e+00	1.464001e+00
1.990000e-06	6.879601e-07	5.103355e-11	4.774593e+00	2.559798e+00
2.000000e-06	7.344579e-07	6.805144e-11	5.097297e+00	3.657950e+00
2.010000e-06	7.808958e-07	8.556732e-11	5.419587e+00	4.757111e+00
2.020000e-06	8.271763e-07	1.007324e-10	5.740783e+00	5.855931e+00
2.030000e-06	8.733746e-07	1.129047e-10	6.061410e+00	6.953064e+00
2.040000e-06	9.195526e-07	1.238905e-10	6.381895e+00	8.047171e+00
2.050000e-06	9.657222e-07	1.365938e-10	6.702322e+00	9.136933e+00
2.060000e-06	1.011830e-06	1.532200e-10	7.022321e+00	1.022105e+01
2.070000e-06	1.057875e-06	1.717479e-10	7.341883e+00	1.129827e+01
2.080000e-06	1.103882e-06	1.905153e-10	7.661182e+00	1.236736e+01
2.090000e-06	1.149808e-06	2.091907e-10	7.979919e+00	1.342712e+01
2.100000e-06	1.195602e-06	2.255151e-10	8.297738e+00	1.447644e+01
2.110000e-06	1.241284e-06	2.381450e-10	8.614783e+00	1.551424e+01
2.120000e-06	1.286927e-06	2.491460e-10	8.931550e+00	1.653948e+01
2.130000e-06	1.332451e-06	2.616538e-10	9.247501e+00	1.755122e+01
2.140000e-06	1.377923e-06	2.752236e-10	9.563083e+00	1.854858e+01
2.150000e-06	1.423414e-06	2.876152e-10	9.878802e+00	1.953073e+01
2.160000e-06	1.468794e-06	2.999363e-10	1.019375e+01	2.049693e+01
2.170000e-06	1.513969e-06	3.149646e-10	1.050727e+01	2.144653e+01
2.180000e-06	1.558971e-06	3.305751e-10	1.081960e+01	2.237893e+01
2.190000e-06	1.603817e-06	3.452567e-10	1.113084e+01	2.329363e+01
2.200000e-06	1.648506e-06	3.598103e-10	1.144099e+01	2.419020e+01
2.210000e-06	1.693095e-06	3.742498e-10	1.175045e+01	2.506828e+01
2.220000e-06	1.737571e-06	3.855133e-10	1.205912e+01	2.592762e+01
2.230000e-06	1.781941e-06	3.936202e-10	1.236706e+01	2.676800e+01
2.240000e-06	1.826218e-06	4.015579e-10	1.267435e+01	2.758933e+01
2.250000e-06	1.870378e-06	4.115290e-10	1.298083e+01	2.839153e+01
2.260000e-06	1.914440e-06	4.245787e-10	1.328663e+01	2.917465e+01
2.270000e-06	1.958404e-06	4.381970e-10	1.359175e+01	2.993875e+01
2.280000e-06	2.002281e-06	4.496669e-10	1.389627e+01	3.068400e+01
2.290000e-06	2.046100e-06	4.588000e-10	1.420038e+01	3.141060e+01
2.300000e-06	2.089885e-06	4.644272e-10	1.450425e+01	3.211881e+01
2.310000e-06	2.133646e-06	4.686900e-10	1.480797e+01	3.280893e+01
2.320000e-06	2.177289e-06	4.748856e-10	1.511086e+01	3.348132e+01
2.330000e-06	2.220743e-06	4.835548e-10	1.541244e+01	3.413637e+01
2.340000e-06	2.264108e-06	4.937040e-10	1.571340e+01	3.477450e+01
2.350000e-06	2.307324e-06	5.044699e-10	1.601333e+01	3.539615e+01
2.360000e-06	2.350355e-06	5.132726e-10	1.631197e+01	3.600179e+01
2.370000e-06	2.393126e-06	5.194801e-10	1.660881e+01	3.659192e+01
2.380000e-06	2.435570e-06	5.261342e-10	1.690339e+01	3.716703e+01
2.390000e-06	2.477752e-06	5.348450e-10	1.719613e+01	3.772763e+01
2.400000e-06	2.519549e-06	5.445644e-10	1.748622e+01	3.827422e+01
2.410000e-06	2.560935e-06	5.545274e-10	1.777344e+01	3.880730e+01
2.420000e-06	2.602014e-06	5.635421e-10	1.805854e+01	3.932737e+01
2.430000e-06	2.642906e-06	5.703776e-10	1.834234e+01	3.983490e+01
2.440000e-06	2.683566e-06	5.762866e-10	1.862453e+01	4.033037e+01
2.450000e-06	2.723950e-06	5.823588e-10	1.890480e+01	4.081422e+01
2.460000e-06	2.764154e-06	5.888360e-10	1.918383e+01	4.128688e+01
2.470000e-06	2.804203e-06	5.958290e-10	1.946178e+01	4.174874e+01
2.480000e-06	2.844127e-06	6.021277e-10	1.973886e+01	4.220018e+01
2.490000e-06	2.883957e-06	6.073314e-10	2.001529e+01	4.264154e+01
2.500000e-06	2.923706e-06	6.140952e-10	2.029116e+01	4.307313e+01
2.510000e-06	2.963347e-06	6.221219e-10	2.056627e+01	4.349525e+01
2.520000e-06	3.002786e-06	6.304110e-10	2.083999e+01	4.390813e+01
2.530000e-06	3.041962e-06	6.372155e-10	2.111188e+01	4.431201e+01
2.540000e-06	3.080857e-06	6.411366e-10	2.138182e+01	4.470706e+01
2.550000e-06	3.119575e-06	6.431476e-10	2.165053e+01	4.509345e+01
2.560000e-06	3.158101e-06	6.464329e-10	2.191791e+01	4.547132e+01
2.570000e-06	3.196306e-06	6.526780e-10	2.218306e+01	4.584075e+01
2.580000e-06	3.234293e-06	6.597634e-10	2.244670e+01	4.620184e+01
2.590000e-06	3.272163e-06	6.657221e-10	2.270952e+01	4.655463e+01
2.600000e-06	3.309900e-06	6.721580e-10	2.297142e+01	4.689915e+01
2.610000e-06	3.347382e-06	6.786735e-10	2.323156e+01	4.723543e+01
2.620000e-06	3.384545e-06	6.826101e-10	2.348948e+01	4.756346e+01
2.630000e-06	3.421498e-06	6.840323e-10	2.374594e+01	4.788323e+01
2.640000e-06	3.458218e-06	6.847050e-10	2.400078e+01	4.819471e+01
2.650000e-06	3.494641e-06	6.874202e-10	2.425357e+01	4.849787e+01
2.660000e-06	3.530846e-06	6.922579e-10	2.450484e+01	4.879269e+01
2.670000e-06	3.566912e-06	6.965416e-10	2.475515e+01	4.907911e+01
2.680000e-06	3.602847e-06	6.994287e-10	2.500454e+01	4.935712e+01
2.690000e-06	3.638616e-06	7.022641e-10	2.525279e+01	4.962667e+01
2.700000e-06	3.674175e-06	7.060940e-10	2.549957e+01	4.988776e+01
2.710000e-06	3.709539e-06	7.099013e-10	2.574500e+01	5.014037e+01
2.720000e-06	3.744674e-06	7.140272e-10	2.598885e+01	5.038449e+01
2.730000e-06	3.779434e-06	7.195440e-10	2.623010e+01	5.062016e+01
2.740000e-06	3.813776e-06	7.249967e-10	2.646843e+01	5.084740e+01
2.750000e-06	3.847717e-06	7.288239e-10	2.670399e+01	5.106626e+01
2.760000e-06	3.881278e-06	7.311461e-10	2.693691e+01	5.127682e+01
2.770000e-06	3.914416e-06	7.342285e-10	2.716690e+01	5.147916e+01
2.780000e-06	3.947085e-06	7.389561e-10	2.739362e+01	5.167340e+01
2.790000e-06	3.979368e-06	7.446317e-10	2.761768e+01	5.185966e+01
2.800000e-06	4.011373e-06	7.499323e-10	2.783980e+01	5.203812e+01
2.810000e-06	4.043240e-06	7.565033e-10	2.806097e+01	5.220893e+01
2.820000e-06	4.075022e-06	7.618061e-10	2.828154e+01	5.237231e+01
2.830000e-06	4.106666e-06	7.617030e-10	2.850115e+01	5.252847e+01
2.840000e-06	4.138096e-06	7.591678e-10	2.871929e+01	5.267764e+01
2.850000e-06	4.169192e-06	7.595569e-10	2.893510e+01	5.282008e+01
2.860000e-06	4.199891e-06	7.636207e-10	2.914816e+01	5.295606e+01
2.870000e-06	4.230242e-06	7.674769e-10	2.935880e+01	5.308588e+01
2.880000e-06	4.260285e-06	7.712704e-10	2.956730e+01	5.320982e+01
2.890000e-06	4.290063e-06	7.762367e-10	2.977397e+01	5.332820e+01
2.900000e-06	4.319616e-06	7.812264e-10	2.997908e+01	5.344133e+01
