# Temperatura_=_10.98
# Concentracion g/m^3_=_1620.0
# C_Vs_to_Am_M_A/Vsm_=_65563218390.804596
# pendiente_HvsI_1/m_=_3716.3
# ordenada_HvsI_A/m_=_1297.0
# frecuencia_Hz_=_135104.90890918675

Tiempo_(s)	Campo_(V.s)	Magnetizacion_(V.s)	Campo_(kA/m)	Magnetizacion_(A/m)
0.000000e+00	-5.519516e-06	-7.782514e-10	-3.836497e+01	-5.032337e+01
1.000000e-08	-5.519836e-06	-7.760037e-10	-3.836720e+01	-5.032457e+01
2.000000e-08	-5.519925e-06	-7.746931e-10	-3.836782e+01	-5.032402e+01
3.000000e-08	-5.519638e-06	-7.771108e-10	-3.836582e+01	-5.032159e+01
4.000000e-08	-5.518916e-06	-7.798995e-10	-3.836080e+01	-5.031717e+01
5.000000e-08	-5.517643e-06	-7.803523e-10	-3.835195e+01	-5.031067e+01
6.000000e-08	-5.515739e-06	-7.708608e-10	-3.833872e+01	-5.030200e+01
7.000000e-08	-5.513240e-06	-7.471995e-10	-3.832135e+01	-5.029110e+01
8.000000e-08	-5.510175e-06	-7.464777e-10	-3.830004e+01	-5.027791e+01
9.000000e-08	-5.506669e-06	-8.102205e-10	-3.827568e+01	-5.026240e+01
1.000000e-07	-5.502726e-06	-8.629037e-10	-3.824827e+01	-5.024457e+01
1.100000e-07	-5.498298e-06	-8.086660e-10	-3.821749e+01	-5.022442e+01
1.200000e-07	-5.493699e-06	-7.104582e-10	-3.818552e+01	-5.020196e+01
1.300000e-07	-5.489013e-06	-7.100199e-10	-3.815295e+01	-5.017724e+01
1.400000e-07	-5.483954e-06	-7.862086e-10	-3.811779e+01	-5.015032e+01
1.500000e-07	-5.478393e-06	-7.767147e-10	-3.807913e+01	-5.012128e+01
1.600000e-07	-5.472441e-06	-7.161421e-10	-3.803777e+01	-5.009020e+01
1.700000e-07	-5.466266e-06	-7.462883e-10	-3.799484e+01	-5.005719e+01
1.800000e-07	-5.459663e-06	-8.185594e-10	-3.794894e+01	-5.002236e+01
1.900000e-07	-5.452546e-06	-8.094207e-10	-3.789948e+01	-4.998585e+01
2.000000e-07	-5.445129e-06	-7.260762e-10	-3.784792e+01	-4.994779e+01
2.100000e-07	-5.437504e-06	-7.298567e-10	-3.779493e+01	-4.990834e+01
2.200000e-07	-5.429586e-06	-7.753818e-10	-3.773989e+01	-4.986763e+01
2.300000e-07	-5.421405e-06	-7.972924e-10	-3.768303e+01	-4.982583e+01
2.400000e-07	-5.412854e-06	-7.653564e-10	-3.762359e+01	-4.978310e+01
2.500000e-07	-5.403579e-06	-7.656837e-10	-3.755912e+01	-4.973959e+01
2.600000e-07	-5.393485e-06	-7.782241e-10	-3.748895e+01	-4.969545e+01
2.700000e-07	-5.382745e-06	-7.834255e-10	-3.741431e+01	-4.965084e+01
2.800000e-07	-5.371568e-06	-7.697454e-10	-3.733662e+01	-4.960589e+01
2.900000e-07	-5.360063e-06	-7.772460e-10	-3.725665e+01	-4.956073e+01
3.000000e-07	-5.348274e-06	-7.947081e-10	-3.717471e+01	-4.951549e+01
3.100000e-07	-5.336086e-06	-8.002482e-10	-3.708999e+01	-4.947028e+01
3.200000e-07	-5.323405e-06	-7.894819e-10	-3.700185e+01	-4.942517e+01
3.300000e-07	-5.310316e-06	-7.723122e-10	-3.691087e+01	-4.938025e+01
3.400000e-07	-5.296910e-06	-7.883839e-10	-3.681768e+01	-4.933558e+01
3.500000e-07	-5.283134e-06	-7.855572e-10	-3.672193e+01	-4.929119e+01
3.600000e-07	-5.268848e-06	-7.749984e-10	-3.662264e+01	-4.924709e+01
3.700000e-07	-5.254122e-06	-7.771570e-10	-3.652027e+01	-4.920329e+01
3.800000e-07	-5.238998e-06	-8.066572e-10	-3.641515e+01	-4.915975e+01
3.900000e-07	-5.223296e-06	-7.863428e-10	-3.630601e+01	-4.911643e+01
4.000000e-07	-5.207153e-06	-7.742365e-10	-3.619381e+01	-4.907326e+01
4.100000e-07	-5.190619e-06	-7.951305e-10	-3.607888e+01	-4.903014e+01
4.200000e-07	-5.173684e-06	-7.961746e-10	-3.596117e+01	-4.898696e+01
4.300000e-07	-5.156466e-06	-7.564450e-10	-3.584149e+01	-4.894360e+01
4.400000e-07	-5.138942e-06	-7.765436e-10	-3.571968e+01	-4.889990e+01
4.500000e-07	-5.121042e-06	-8.059816e-10	-3.559527e+01	-4.885569e+01
4.600000e-07	-5.102637e-06	-7.757029e-10	-3.546734e+01	-4.881079e+01
4.700000e-07	-5.083763e-06	-7.490421e-10	-3.533614e+01	-4.876499e+01
4.800000e-07	-5.064577e-06	-7.844806e-10	-3.520279e+01	-4.871810e+01
4.900000e-07	-5.045178e-06	-7.819605e-10	-3.506795e+01	-4.866989e+01
5.000000e-07	-5.025602e-06	-7.588290e-10	-3.493188e+01	-4.862012e+01
5.100000e-07	-5.005825e-06	-7.705552e-10	-3.479442e+01	-4.856858e+01
5.200000e-07	-4.985739e-06	-7.730629e-10	-3.465480e+01	-4.851503e+01
5.300000e-07	-4.965206e-06	-7.430699e-10	-3.451208e+01	-4.845922e+01
5.400000e-07	-4.944277e-06	-7.595082e-10	-3.436661e+01	-4.840094e+01
5.500000e-07	-4.923065e-06	-7.791333e-10	-3.421917e+01	-4.833996e+01
5.600000e-07	-4.901593e-06	-7.481405e-10	-3.406992e+01	-4.827606e+01
5.700000e-07	-4.879761e-06	-7.377227e-10	-3.391817e+01	-4.820903e+01
5.800000e-07	-4.857423e-06	-7.661014e-10	-3.376291e+01	-4.813869e+01
5.900000e-07	-4.834702e-06	-7.601991e-10	-3.360498e+01	-4.806487e+01
6.000000e-07	-4.811759e-06	-7.421943e-10	-3.344551e+01	-4.798740e+01
6.100000e-07	-4.788535e-06	-7.563664e-10	-3.328408e+01	-4.790615e+01
6.200000e-07	-4.765052e-06	-7.539861e-10	-3.312086e+01	-4.782100e+01
6.300000e-07	-4.741368e-06	-7.307446e-10	-3.295623e+01	-4.773188e+01
6.400000e-07	-4.717471e-06	-7.290981e-10	-3.279013e+01	-4.763870e+01
6.500000e-07	-4.693212e-06	-7.364593e-10	-3.262151e+01	-4.754145e+01
6.600000e-07	-4.668456e-06	-7.250426e-10	-3.244943e+01	-4.744010e+01
6.700000e-07	-4.643284e-06	-7.282380e-10	-3.227447e+01	-4.733467e+01
6.800000e-07	-4.617542e-06	-7.352719e-10	-3.209554e+01	-4.722522e+01
6.900000e-07	-4.591185e-06	-7.288735e-10	-3.191234e+01	-4.711180e+01
7.000000e-07	-4.564391e-06	-7.204655e-10	-3.172610e+01	-4.699453e+01
7.100000e-07	-4.537224e-06	-7.245403e-10	-3.153727e+01	-4.687352e+01
7.200000e-07	-4.509789e-06	-7.137329e-10	-3.134658e+01	-4.674893e+01
7.300000e-07	-4.482160e-06	-7.060473e-10	-3.115454e+01	-4.662094e+01
7.400000e-07	-4.454353e-06	-7.100838e-10	-3.096125e+01	-4.648974e+01
7.500000e-07	-4.426352e-06	-7.157260e-10	-3.076662e+01	-4.635555e+01
7.600000e-07	-4.398159e-06	-7.087785e-10	-3.057066e+01	-4.621860e+01
7.700000e-07	-4.369706e-06	-7.071602e-10	-3.037289e+01	-4.607915e+01
7.800000e-07	-4.340857e-06	-7.043121e-10	-3.017237e+01	-4.593744e+01
7.900000e-07	-4.311632e-06	-6.979901e-10	-2.996923e+01	-4.579377e+01
8.000000e-07	-4.282049e-06	-6.952151e-10	-2.976361e+01	-4.564839e+01
8.100000e-07	-4.252170e-06	-6.988328e-10	-2.955592e+01	-4.550160e+01
8.200000e-07	-4.222046e-06	-6.936225e-10	-2.934654e+01	-4.535367e+01
8.300000e-07	-4.191663e-06	-6.913607e-10	-2.913535e+01	-4.520488e+01
8.400000e-07	-4.160970e-06	-6.921106e-10	-2.892201e+01	-4.505550e+01
8.500000e-07	-4.129901e-06	-6.864524e-10	-2.870605e+01	-4.490578e+01
8.600000e-07	-4.098583e-06	-6.789008e-10	-2.848837e+01	-4.475598e+01
8.700000e-07	-4.067156e-06	-6.783544e-10	-2.826993e+01	-4.460632e+01
8.800000e-07	-4.035587e-06	-6.778550e-10	-2.805050e+01	-4.445701e+01
8.900000e-07	-4.003817e-06	-6.740936e-10	-2.782967e+01	-4.430823e+01
9.000000e-07	-3.971807e-06	-6.738533e-10	-2.760718e+01	-4.416015e+01
9.100000e-07	-3.939479e-06	-6.715211e-10	-2.738247e+01	-4.401291e+01
9.200000e-07	-3.906784e-06	-6.659692e-10	-2.715522e+01	-4.386660e+01
9.300000e-07	-3.873609e-06	-6.623475e-10	-2.692462e+01	-4.372130e+01
9.400000e-07	-3.839949e-06	-6.626145e-10	-2.669066e+01	-4.357705e+01
9.500000e-07	-3.806005e-06	-6.570639e-10	-2.645473e+01	-4.343386e+01
9.600000e-07	-3.771787e-06	-6.527900e-10	-2.621688e+01	-4.329169e+01
9.700000e-07	-3.737124e-06	-6.551897e-10	-2.597594e+01	-4.315049e+01
9.800000e-07	-3.701999e-06	-6.571623e-10	-2.573180e+01	-4.301016e+01
9.900000e-07	-3.666580e-06	-6.523363e-10	-2.548561e+01	-4.287056e+01
1.000000e-06	-3.631003e-06	-6.498122e-10	-2.523832e+01	-4.273152e+01
1.010000e-06	-3.595271e-06	-6.438635e-10	-2.498995e+01	-4.259285e+01
1.020000e-06	-3.559364e-06	-6.372206e-10	-2.474038e+01	-4.245430e+01
1.030000e-06	-3.523332e-06	-6.340666e-10	-2.448993e+01	-4.231563e+01
1.040000e-06	-3.487160e-06	-6.358463e-10	-2.423850e+01	-4.217653e+01
1.050000e-06	-3.450762e-06	-6.328692e-10	-2.398550e+01	-4.203670e+01
1.060000e-06	-3.414117e-06	-6.284515e-10	-2.373079e+01	-4.189579e+01
1.070000e-06	-3.377232e-06	-6.251171e-10	-2.347442e+01	-4.175345e+01
1.080000e-06	-3.340109e-06	-6.225748e-10	-2.321638e+01	-4.160929e+01
1.090000e-06	-3.302627e-06	-6.187479e-10	-2.295585e+01	-4.146294e+01
1.100000e-06	-3.264814e-06	-6.182123e-10	-2.269302e+01	-4.131399e+01
1.110000e-06	-3.226807e-06	-6.157606e-10	-2.242884e+01	-4.116204e+01
1.120000e-06	-3.188672e-06	-6.113574e-10	-2.216377e+01	-4.100667e+01
1.130000e-06	-3.150301e-06	-6.060276e-10	-2.189707e+01	-4.084749e+01
1.140000e-06	-3.111683e-06	-6.008713e-10	-2.162864e+01	-4.068408e+01
1.150000e-06	-3.072819e-06	-5.924277e-10	-2.135851e+01	-4.051606e+01
1.160000e-06	-3.033758e-06	-5.844728e-10	-2.108700e+01	-4.034303e+01
1.170000e-06	-2.994610e-06	-5.820245e-10	-2.081489e+01	-4.016462e+01
1.180000e-06	-2.955272e-06	-5.823536e-10	-2.054146e+01	-3.998049e+01
1.190000e-06	-2.915703e-06	-5.844670e-10	-2.026642e+01	-3.979030e+01
1.200000e-06	-2.876002e-06	-5.872737e-10	-1.999047e+01	-3.959374e+01
1.210000e-06	-2.836265e-06	-5.875160e-10	-1.971427e+01	-3.939052e+01
1.220000e-06	-2.796302e-06	-5.809285e-10	-1.943649e+01	-3.918039e+01
1.230000e-06	-2.756101e-06	-5.718635e-10	-1.915707e+01	-3.896311e+01
1.240000e-06	-2.715796e-06	-5.648916e-10	-1.887692e+01	-3.873849e+01
1.250000e-06	-2.675347e-06	-5.583701e-10	-1.859577e+01	-3.850636e+01
1.260000e-06	-2.634614e-06	-5.529735e-10	-1.831264e+01	-3.826657e+01
1.270000e-06	-2.593548e-06	-5.536278e-10	-1.802720e+01	-3.801902e+01
1.280000e-06	-2.552200e-06	-5.547332e-10	-1.773979e+01	-3.776363e+01
1.290000e-06	-2.510574e-06	-5.545985e-10	-1.745046e+01	-3.750035e+01
1.300000e-06	-2.468777e-06	-5.484605e-10	-1.715994e+01	-3.722917e+01
1.310000e-06	-2.426753e-06	-5.406261e-10	-1.686784e+01	-3.695010e+01
1.320000e-06	-2.384317e-06	-5.317088e-10	-1.657287e+01	-3.666316e+01
1.330000e-06	-2.341548e-06	-5.252196e-10	-1.627559e+01	-3.636842e+01
1.340000e-06	-2.298559e-06	-5.224114e-10	-1.597679e+01	-3.606594e+01
1.350000e-06	-2.255372e-06	-5.216495e-10	-1.567661e+01	-3.575583e+01
1.360000e-06	-2.211991e-06	-5.191084e-10	-1.537507e+01	-3.543819e+01
1.370000e-06	-2.168476e-06	-5.141913e-10	-1.507261e+01	-3.511314e+01
1.380000e-06	-2.124903e-06	-5.090531e-10	-1.476974e+01	-3.478081e+01
1.390000e-06	-2.081242e-06	-5.053163e-10	-1.446626e+01	-3.444132e+01
1.400000e-06	-2.037505e-06	-5.006964e-10	-1.416226e+01	-3.409480e+01
1.410000e-06	-1.993696e-06	-4.964720e-10	-1.385776e+01	-3.374139e+01
1.420000e-06	-1.949785e-06	-4.909663e-10	-1.355254e+01	-3.338118e+01
1.430000e-06	-1.905814e-06	-4.844239e-10	-1.324691e+01	-3.301430e+01
1.440000e-06	-1.861817e-06	-4.782199e-10	-1.294109e+01	-3.264082e+01
1.450000e-06	-1.817731e-06	-4.715689e-10	-1.263466e+01	-3.226082e+01
1.460000e-06	-1.773468e-06	-4.642276e-10	-1.232699e+01	-3.187434e+01
1.470000e-06	-1.729034e-06	-4.570019e-10	-1.201815e+01	-3.148141e+01
1.480000e-06	-1.684489e-06	-4.498419e-10	-1.170852e+01	-3.108202e+01
1.490000e-06	-1.639864e-06	-4.424885e-10	-1.139834e+01	-3.067613e+01
1.500000e-06	-1.595072e-06	-4.376531e-10	-1.108700e+01	-3.026366e+01
1.510000e-06	-1.550092e-06	-4.337844e-10	-1.077436e+01	-2.984451e+01
1.520000e-06	-1.504930e-06	-4.273283e-10	-1.046045e+01	-2.941855e+01
1.530000e-06	-1.459686e-06	-4.168644e-10	-1.014597e+01	-2.898558e+01
1.540000e-06	-1.414479e-06	-4.041575e-10	-9.831742e+00	-2.854538e+01
1.550000e-06	-1.369196e-06	-3.914300e-10	-9.516987e+00	-2.809772e+01
1.560000e-06	-1.323761e-06	-3.820324e-10	-9.201178e+00	-2.764228e+01
1.570000e-06	-1.278249e-06	-3.746230e-10	-8.884834e+00	-2.717874e+01
1.580000e-06	-1.232662e-06	-3.683390e-10	-8.567970e+00	-2.670674e+01
1.590000e-06	-1.186913e-06	-3.622893e-10	-8.249980e+00	-2.622588e+01
1.600000e-06	-1.141043e-06	-3.562563e-10	-7.931146e+00	-2.573574e+01
1.610000e-06	-1.095120e-06	-3.508574e-10	-7.611942e+00	-2.523586e+01
1.620000e-06	-1.049220e-06	-3.442273e-10	-7.292901e+00	-2.472577e+01
1.630000e-06	-1.003226e-06	-3.356054e-10	-6.973207e+00	-2.420496e+01
1.640000e-06	-9.570589e-07	-3.255061e-10	-6.652311e+00	-2.367294e+01
1.650000e-06	-9.108498e-07	-3.127417e-10	-6.331122e+00	-2.312917e+01
1.660000e-06	-8.645953e-07	-3.031717e-10	-6.009616e+00	-2.257314e+01
1.670000e-06	-8.183090e-07	-2.958000e-10	-5.687890e+00	-2.200431e+01
1.680000e-06	-7.719635e-07	-2.902448e-10	-5.365752e+00	-2.142216e+01
1.690000e-06	-7.255501e-07	-2.845429e-10	-5.043143e+00	-2.082618e+01
1.700000e-06	-6.791175e-07	-2.795952e-10	-4.720400e+00	-2.021588e+01
1.710000e-06	-6.325316e-07	-2.733454e-10	-4.396592e+00	-1.959077e+01
1.720000e-06	-5.859329e-07	-2.627095e-10	-4.072694e+00	-1.895043e+01
1.730000e-06	-5.394007e-07	-2.489565e-10	-3.749259e+00	-1.829442e+01
1.740000e-06	-4.927465e-07	-2.349355e-10	-3.424975e+00	-1.762239e+01
1.750000e-06	-4.460172e-07	-2.217640e-10	-3.100170e+00	-1.693401e+01
1.760000e-06	-3.992829e-07	-2.121324e-10	-2.775330e+00	-1.622899e+01
1.770000e-06	-3.525645e-07	-2.052895e-10	-2.450600e+00	-1.550712e+01
1.780000e-06	-3.057811e-07	-1.975849e-10	-2.125419e+00	-1.476823e+01
1.790000e-06	-2.589014e-07	-1.886749e-10	-1.799568e+00	-1.401222e+01
1.800000e-06	-2.119783e-07	-1.760952e-10	-1.473415e+00	-1.323907e+01
1.810000e-06	-1.650707e-07	-1.609980e-10	-1.147371e+00	-1.244881e+01
1.820000e-06	-1.181960e-07	-1.447373e-10	-8.215550e-01	-1.164156e+01
1.830000e-06	-7.129033e-08	-1.303940e-10	-4.955238e-01	-1.081751e+01
1.840000e-06	-2.446858e-08	-1.181667e-10	-1.700758e-01	-9.976924e+00
1.850000e-06	2.227154e-08	-1.067630e-10	1.548047e-01	-9.120150e+00
1.860000e-06	6.899898e-08	-9.773895e-11	4.795971e-01	-8.247616e+00
1.870000e-06	1.157095e-07	-8.753762e-11	8.042721e-01	-7.359828e+00
1.880000e-06	1.624474e-07	-7.530505e-11	1.129137e+00	-6.457372e+00
1.890000e-06	2.091463e-07	-6.028984e-11	1.453731e+00	-5.540910e+00
1.900000e-06	2.558944e-07	-4.601946e-11	1.778667e+00	-4.611181e+00
1.910000e-06	3.026650e-07	-3.372433e-11	2.103759e+00	-3.668995e+00
1.920000e-06	3.493350e-07	-2.028026e-11	2.428153e+00	-2.715234e+00
1.930000e-06	3.960323e-07	-8.645403e-12	2.752735e+00	-1.750844e+00
1.940000e-06	4.427867e-07	2.982436e-12	3.077715e+00	-7.768360e-01
1.950000e-06	4.895177e-07	1.511162e-11	3.402533e+00	2.057256e-01
1.960000e-06	5.361000e-07	2.907969e-11	3.726316e+00	1.195722e+00
1.970000e-06	5.825734e-07	4.239419e-11	4.049343e+00	2.191991e+00
1.980000e-06	6.290108e-07	5.570716e-11	4.372119e+00	3.193326e+00
1.990000e-06	6.754078e-07	7.082094e-11	4.694615e+00	4.198491e+00
2.000000e-06	7.218049e-07	8.745096e-11	5.017111e+00	5.206219e+00
2.010000e-06	7.682391e-07	1.029290e-10	5.339865e+00	6.215227e+00
2.020000e-06	8.145754e-07	1.181591e-10	5.661939e+00	7.224214e+00
2.030000e-06	8.607673e-07	1.319018e-10	5.983009e+00	8.231877e+00
2.040000e-06	9.069568e-07	1.445810e-10	6.304062e+00	9.236911e+00
2.050000e-06	9.531092e-07	1.571780e-10	6.624858e+00	1.023802e+01
2.060000e-06	9.992157e-07	1.709358e-10	6.945334e+00	1.123393e+01
2.070000e-06	1.045270e-06	1.853535e-10	7.265449e+00	1.222337e+01
2.080000e-06	1.091233e-06	2.017047e-10	7.584926e+00	1.320511e+01
2.090000e-06	1.137118e-06	2.179871e-10	7.903864e+00	1.417797e+01
2.100000e-06	1.182869e-06	2.311188e-10	8.221869e+00	1.514079e+01
2.110000e-06	1.228492e-06	2.426635e-10	8.538983e+00	1.609246e+01
2.120000e-06	1.274065e-06	2.540509e-10	8.855752e+00	1.703192e+01
2.130000e-06	1.319632e-06	2.651502e-10	9.172477e+00	1.795819e+01
2.140000e-06	1.365098e-06	2.758390e-10	9.488505e+00	1.887033e+01
2.150000e-06	1.410436e-06	2.879858e-10	9.803640e+00	1.976747e+01
2.160000e-06	1.455636e-06	3.014509e-10	1.011782e+01	2.064881e+01
2.170000e-06	1.500719e-06	3.150219e-10	1.043117e+01	2.151363e+01
2.180000e-06	1.545795e-06	3.283504e-10	1.074449e+01	2.236127e+01
2.190000e-06	1.590760e-06	3.395436e-10	1.105703e+01	2.319117e+01
2.200000e-06	1.635556e-06	3.475683e-10	1.136840e+01	2.400282e+01
2.210000e-06	1.680253e-06	3.558592e-10	1.167908e+01	2.479581e+01
2.220000e-06	1.724780e-06	3.657243e-10	1.198858e+01	2.556980e+01
2.230000e-06	1.769104e-06	3.787243e-10	1.229666e+01	2.632453e+01
2.240000e-06	1.813332e-06	3.918770e-10	1.260408e+01	2.705981e+01
2.250000e-06	1.857516e-06	4.035788e-10	1.291119e+01	2.777553e+01
2.260000e-06	1.901594e-06	4.128101e-10	1.321758e+01	2.847167e+01
2.270000e-06	1.945488e-06	4.202219e-10	1.352267e+01	2.914824e+01
2.280000e-06	1.989301e-06	4.268368e-10	1.382721e+01	2.980536e+01
2.290000e-06	2.033063e-06	4.323912e-10	1.413139e+01	3.044318e+01
2.300000e-06	2.076753e-06	4.384793e-10	1.443507e+01	3.106195e+01
2.310000e-06	2.120364e-06	4.477238e-10	1.473819e+01	3.166193e+01
2.320000e-06	2.163889e-06	4.575056e-10	1.504073e+01	3.224346e+01
2.330000e-06	2.207254e-06	4.655249e-10	1.534215e+01	3.280693e+01
2.340000e-06	2.250493e-06	4.711945e-10	1.564270e+01	3.335276e+01
2.350000e-06	2.293695e-06	4.764180e-10	1.594299e+01	3.388140e+01
2.360000e-06	2.336699e-06	4.810376e-10	1.624190e+01	3.439335e+01
2.370000e-06	2.379501e-06	4.846991e-10	1.653940e+01	3.488914e+01
2.380000e-06	2.422047e-06	4.906757e-10	1.683513e+01	3.536929e+01
2.390000e-06	2.464154e-06	4.993080e-10	1.712781e+01	3.583438e+01
2.400000e-06	2.505956e-06	5.082155e-10	1.741836e+01	3.628497e+01
2.410000e-06	2.547547e-06	5.163944e-10	1.770746e+01	3.672164e+01
2.420000e-06	2.588869e-06	5.245459e-10	1.799468e+01	3.714498e+01
2.430000e-06	2.629865e-06	5.311929e-10	1.827963e+01	3.755556e+01
2.440000e-06	2.670465e-06	5.359301e-10	1.856183e+01	3.795395e+01
2.450000e-06	2.710863e-06	5.424738e-10	1.884263e+01	3.834073e+01
2.460000e-06	2.751163e-06	5.504251e-10	1.912274e+01	3.871643e+01
2.470000e-06	2.791237e-06	5.571631e-10	1.940129e+01	3.908160e+01
2.480000e-06	2.831110e-06	5.642087e-10	1.967844e+01	3.943676e+01
2.490000e-06	2.870912e-06	5.696966e-10	1.995510e+01	3.978238e+01
2.500000e-06	2.910623e-06	5.738474e-10	2.023112e+01	4.011895e+01
2.510000e-06	2.950157e-06	5.781119e-10	2.050591e+01	4.044691e+01
2.520000e-06	2.989512e-06	5.833303e-10	2.077945e+01	4.076666e+01
2.530000e-06	3.028687e-06	5.895101e-10	2.105175e+01	4.107860e+01
2.540000e-06	3.067684e-06	5.955397e-10	2.132281e+01	4.138309e+01
2.550000e-06	3.106421e-06	6.010530e-10	2.159207e+01	4.168045e+01
2.560000e-06	3.144949e-06	6.064600e-10	2.185987e+01	4.197098e+01
2.570000e-06	3.183280e-06	6.124482e-10	2.212630e+01	4.225495e+01
2.580000e-06	3.221351e-06	6.176924e-10	2.239092e+01	4.253260e+01
2.590000e-06	3.259178e-06	6.207520e-10	2.265385e+01	4.280415e+01
2.600000e-06	3.296786e-06	6.229635e-10	2.291525e+01	4.306977e+01
2.610000e-06	3.334231e-06	6.257622e-10	2.317553e+01	4.332963e+01
2.620000e-06	3.371453e-06	6.311901e-10	2.343425e+01	4.358386e+01
2.630000e-06	3.408413e-06	6.375903e-10	2.369115e+01	4.383258e+01
2.640000e-06	3.445086e-06	6.430339e-10	2.394605e+01	4.407587e+01
2.650000e-06	3.481458e-06	6.471241e-10	2.419887e+01	4.431383e+01
2.660000e-06	3.517592e-06	6.503451e-10	2.445003e+01	4.454649e+01
2.670000e-06	3.553581e-06	6.530090e-10	2.470018e+01	4.477391e+01
2.680000e-06	3.589455e-06	6.547401e-10	2.494953e+01	4.499611e+01
2.690000e-06	3.625135e-06	6.570415e-10	2.519754e+01	4.521312e+01
2.700000e-06	3.660675e-06	6.603252e-10	2.544457e+01	4.542495e+01
2.710000e-06	3.696081e-06	6.647305e-10	2.569067e+01	4.563160e+01
2.720000e-06	3.731232e-06	6.680906e-10	2.593499e+01	4.583309e+01
2.730000e-06	3.766073e-06	6.717334e-10	2.617717e+01	4.602940e+01
2.740000e-06	3.800546e-06	6.752708e-10	2.641678e+01	4.622054e+01
2.750000e-06	3.834566e-06	6.783654e-10	2.665325e+01	4.640650e+01
2.760000e-06	3.868047e-06	6.831195e-10	2.688597e+01	4.658728e+01
2.770000e-06	3.901101e-06	6.880752e-10	2.711572e+01	4.676290e+01
2.780000e-06	3.933879e-06	6.918923e-10	2.734355e+01	4.693336e+01
2.790000e-06	3.966309e-06	6.962904e-10	2.756897e+01	4.709868e+01
2.800000e-06	3.998371e-06	7.011237e-10	2.779182e+01	4.725887e+01
2.810000e-06	4.030228e-06	7.046676e-10	2.801325e+01	4.741396e+01
2.820000e-06	4.061973e-06	7.072353e-10	2.823390e+01	4.756399e+01
2.830000e-06	4.093521e-06	7.081605e-10	2.845319e+01	4.770900e+01
2.840000e-06	4.124843e-06	7.067332e-10	2.867090e+01	4.784903e+01
2.850000e-06	4.155934e-06	7.059694e-10	2.888700e+01	4.798414e+01
2.860000e-06	4.186708e-06	7.083485e-10	2.910091e+01	4.811440e+01
2.870000e-06	4.217104e-06	7.126170e-10	2.931219e+01	4.823987e+01
2.880000e-06	4.247172e-06	7.167121e-10	2.952118e+01	4.836062e+01
2.890000e-06	4.276970e-06	7.201348e-10	2.972830e+01	4.847675e+01
2.900000e-06	4.306577e-06	7.226634e-10	2.993409e+01	4.858832e+01
