# Temperatura_=_-0.3
# Concentracion g/m^3_=_1620.0
# C_Vs_to_Am_M_A/Vsm_=_65563218390.804596
# pendiente_HvsI_1/m_=_3716.3
# ordenada_HvsI_A/m_=_1297.0
# frecuencia_Hz_=_135103.40287340648

Tiempo_(s)	Campo_(V.s)	Magnetizacion_(V.s)	Campo_(kA/m)	Magnetizacion_(A/m)
0.000000e+00	-5.500261e-06	-1.436877e-09	-3.836495e+01	-9.082003e+01
1.000000e-08	-5.500489e-06	-1.438782e-09	-3.836653e+01	-9.082949e+01
2.000000e-08	-5.500480e-06	-1.440906e-09	-3.836648e+01	-9.083880e+01
3.000000e-08	-5.500232e-06	-1.440839e-09	-3.836474e+01	-9.084789e+01
4.000000e-08	-5.499493e-06	-1.437042e-09	-3.835959e+01	-9.085664e+01
5.000000e-08	-5.498224e-06	-1.435259e-09	-3.835074e+01	-9.086495e+01
6.000000e-08	-5.496412e-06	-1.434741e-09	-3.833810e+01	-9.087265e+01
7.000000e-08	-5.494004e-06	-1.446963e-09	-3.832130e+01	-9.087959e+01
8.000000e-08	-5.491034e-06	-1.461749e-09	-3.830059e+01	-9.088557e+01
9.000000e-08	-5.487539e-06	-1.411803e-09	-3.827621e+01	-9.089040e+01
1.000000e-07	-5.483643e-06	-1.367563e-09	-3.824904e+01	-9.089385e+01
1.100000e-07	-5.479507e-06	-1.488680e-09	-3.822018e+01	-9.089571e+01
1.200000e-07	-5.475015e-06	-1.510736e-09	-3.818885e+01	-9.089572e+01
1.300000e-07	-5.470136e-06	-1.391178e-09	-3.815482e+01	-9.089366e+01
1.400000e-07	-5.465025e-06	-1.334790e-09	-3.811917e+01	-9.088928e+01
1.500000e-07	-5.459628e-06	-1.424696e-09	-3.808153e+01	-9.088232e+01
1.600000e-07	-5.453813e-06	-1.530482e-09	-3.804097e+01	-9.087254e+01
1.700000e-07	-5.447561e-06	-1.396744e-09	-3.799736e+01	-9.085970e+01
1.800000e-07	-5.440957e-06	-1.356923e-09	-3.795129e+01	-9.084356e+01
1.900000e-07	-5.433983e-06	-1.435592e-09	-3.790265e+01	-9.082390e+01
2.000000e-07	-5.426571e-06	-1.513904e-09	-3.785095e+01	-9.080050e+01
2.100000e-07	-5.418895e-06	-1.431411e-09	-3.779741e+01	-9.077315e+01
2.200000e-07	-5.411081e-06	-1.388603e-09	-3.774290e+01	-9.074166e+01
2.300000e-07	-5.402909e-06	-1.442843e-09	-3.768590e+01	-9.070584e+01
2.400000e-07	-5.394206e-06	-1.491870e-09	-3.762520e+01	-9.066555e+01
2.500000e-07	-5.385009e-06	-1.447997e-09	-3.756105e+01	-9.062064e+01
2.600000e-07	-5.375259e-06	-1.402597e-09	-3.749304e+01	-9.057098e+01
2.700000e-07	-5.364828e-06	-1.425418e-09	-3.742028e+01	-9.051646e+01
2.800000e-07	-5.353800e-06	-1.433583e-09	-3.734337e+01	-9.045699e+01
2.900000e-07	-5.342334e-06	-1.409995e-09	-3.726339e+01	-9.039251e+01
3.000000e-07	-5.330525e-06	-1.373273e-09	-3.718102e+01	-9.032296e+01
3.100000e-07	-5.318332e-06	-1.399502e-09	-3.709597e+01	-9.024832e+01
3.200000e-07	-5.305784e-06	-1.409584e-09	-3.700845e+01	-9.016855e+01
3.300000e-07	-5.292909e-06	-1.397418e-09	-3.691864e+01	-9.008367e+01
3.400000e-07	-5.279513e-06	-1.339794e-09	-3.682520e+01	-8.999369e+01
3.500000e-07	-5.265636e-06	-1.373542e-09	-3.672841e+01	-8.989865e+01
3.600000e-07	-5.251498e-06	-1.407402e-09	-3.662980e+01	-8.979859e+01
3.700000e-07	-5.236911e-06	-1.366378e-09	-3.652805e+01	-8.969356e+01
3.800000e-07	-5.221739e-06	-1.330086e-09	-3.642222e+01	-8.958363e+01
3.900000e-07	-5.206217e-06	-1.414688e-09	-3.631396e+01	-8.946889e+01
4.000000e-07	-5.190131e-06	-1.379345e-09	-3.620175e+01	-8.934942e+01
4.100000e-07	-5.173396e-06	-1.283623e-09	-3.608503e+01	-8.922531e+01
4.200000e-07	-5.156328e-06	-1.357525e-09	-3.596597e+01	-8.909665e+01
4.300000e-07	-5.139041e-06	-1.444735e-09	-3.584539e+01	-8.896355e+01
4.400000e-07	-5.121448e-06	-1.302923e-09	-3.572269e+01	-8.882610e+01
4.500000e-07	-5.103499e-06	-1.283098e-09	-3.559748e+01	-8.868442e+01
4.600000e-07	-5.085276e-06	-1.435653e-09	-3.547038e+01	-8.853859e+01
4.700000e-07	-5.066649e-06	-1.367271e-09	-3.534045e+01	-8.838872e+01
4.800000e-07	-5.047525e-06	-1.233401e-09	-3.520706e+01	-8.823490e+01
4.900000e-07	-5.028148e-06	-1.367431e-09	-3.507191e+01	-8.807722e+01
5.000000e-07	-5.008568e-06	-1.409574e-09	-3.493533e+01	-8.791577e+01
5.100000e-07	-4.988690e-06	-1.245113e-09	-3.479668e+01	-8.775062e+01
5.200000e-07	-4.968551e-06	-1.304252e-09	-3.465621e+01	-8.758186e+01
5.300000e-07	-4.948126e-06	-1.416513e-09	-3.451374e+01	-8.740954e+01
5.400000e-07	-4.927328e-06	-1.268215e-09	-3.436867e+01	-8.723372e+01
5.500000e-07	-4.906194e-06	-1.232861e-09	-3.422126e+01	-8.705446e+01
5.600000e-07	-4.884726e-06	-1.397213e-09	-3.407152e+01	-8.687180e+01
5.700000e-07	-4.862883e-06	-1.326296e-09	-3.391916e+01	-8.668577e+01
5.800000e-07	-4.840805e-06	-1.220408e-09	-3.376517e+01	-8.649642e+01
5.900000e-07	-4.818470e-06	-1.341303e-09	-3.360938e+01	-8.630375e+01
6.000000e-07	-4.795703e-06	-1.353253e-09	-3.345057e+01	-8.610780e+01
6.100000e-07	-4.772551e-06	-1.220889e-09	-3.328909e+01	-8.590858e+01
6.200000e-07	-4.749138e-06	-1.286098e-09	-3.312577e+01	-8.570609e+01
6.300000e-07	-4.725462e-06	-1.339726e-09	-3.296063e+01	-8.550034e+01
6.400000e-07	-4.701434e-06	-1.243969e-09	-3.279304e+01	-8.529134e+01
6.500000e-07	-4.677095e-06	-1.258232e-09	-3.262327e+01	-8.507909e+01
6.600000e-07	-4.652443e-06	-1.336833e-09	-3.245132e+01	-8.486358e+01
6.700000e-07	-4.627316e-06	-1.264412e-09	-3.227605e+01	-8.464482e+01
6.800000e-07	-4.601766e-06	-1.238953e-09	-3.209784e+01	-8.442281e+01
6.900000e-07	-4.575833e-06	-1.296570e-09	-3.191695e+01	-8.419755e+01
7.000000e-07	-4.549364e-06	-1.265376e-09	-3.173233e+01	-8.396905e+01
7.100000e-07	-4.522426e-06	-1.224677e-09	-3.154444e+01	-8.373730e+01
7.200000e-07	-4.495232e-06	-1.275523e-09	-3.135476e+01	-8.350233e+01
7.300000e-07	-4.467744e-06	-1.269000e-09	-3.116302e+01	-8.326415e+01
7.400000e-07	-4.439966e-06	-1.229873e-09	-3.096927e+01	-8.302277e+01
7.500000e-07	-4.412018e-06	-1.255200e-09	-3.077433e+01	-8.277821e+01
7.600000e-07	-4.383862e-06	-1.260837e-09	-3.057794e+01	-8.253050e+01
7.700000e-07	-4.355393e-06	-1.221354e-09	-3.037936e+01	-8.227967e+01
7.800000e-07	-4.326640e-06	-1.233987e-09	-3.017880e+01	-8.202575e+01
7.900000e-07	-4.297577e-06	-1.247586e-09	-2.997609e+01	-8.176878e+01
8.000000e-07	-4.268137e-06	-1.212613e-09	-2.977074e+01	-8.150879e+01
8.100000e-07	-4.238371e-06	-1.211297e-09	-2.956312e+01	-8.124582e+01
8.200000e-07	-4.208331e-06	-1.234814e-09	-2.935359e+01	-8.097991e+01
8.300000e-07	-4.178063e-06	-1.214339e-09	-2.914246e+01	-8.071111e+01
8.400000e-07	-4.147508e-06	-1.197046e-09	-2.892934e+01	-8.043945e+01
8.500000e-07	-4.116678e-06	-1.222217e-09	-2.871429e+01	-8.016498e+01
8.600000e-07	-4.085602e-06	-1.215906e-09	-2.849754e+01	-7.988773e+01
8.700000e-07	-4.054288e-06	-1.190497e-09	-2.827912e+01	-7.960772e+01
8.800000e-07	-4.022788e-06	-1.198407e-09	-2.805941e+01	-7.932499e+01
8.900000e-07	-3.991027e-06	-1.202039e-09	-2.783787e+01	-7.903955e+01
9.000000e-07	-3.958975e-06	-1.170495e-09	-2.761430e+01	-7.875141e+01
9.100000e-07	-3.926719e-06	-1.168761e-09	-2.738931e+01	-7.846057e+01
9.200000e-07	-3.894322e-06	-1.178511e-09	-2.716334e+01	-7.816702e+01
9.300000e-07	-3.861560e-06	-1.159441e-09	-2.693482e+01	-7.787074e+01
9.400000e-07	-3.828344e-06	-1.146639e-09	-2.670313e+01	-7.757169e+01
9.500000e-07	-3.794761e-06	-1.163429e-09	-2.646889e+01	-7.726982e+01
9.600000e-07	-3.760690e-06	-1.152456e-09	-2.623124e+01	-7.696508e+01
9.700000e-07	-3.726158e-06	-1.133222e-09	-2.599037e+01	-7.665737e+01
9.800000e-07	-3.691301e-06	-1.139631e-09	-2.574725e+01	-7.634661e+01
9.900000e-07	-3.656070e-06	-1.140875e-09	-2.550150e+01	-7.603269e+01
1.000000e-06	-3.620570e-06	-1.120008e-09	-2.525389e+01	-7.571547e+01
1.010000e-06	-3.584951e-06	-1.118533e-09	-2.500544e+01	-7.539481e+01
1.020000e-06	-3.549164e-06	-1.122975e-09	-2.475582e+01	-7.507055e+01
1.030000e-06	-3.513206e-06	-1.107518e-09	-2.450501e+01	-7.474251e+01
1.040000e-06	-3.477044e-06	-1.096730e-09	-2.425278e+01	-7.441050e+01
1.050000e-06	-3.440677e-06	-1.101215e-09	-2.399911e+01	-7.407431e+01
1.060000e-06	-3.404068e-06	-1.091123e-09	-2.374376e+01	-7.373372e+01
1.070000e-06	-3.367200e-06	-1.077212e-09	-2.348660e+01	-7.338851e+01
1.080000e-06	-3.330084e-06	-1.078282e-09	-2.322771e+01	-7.303841e+01
1.090000e-06	-3.292781e-06	-1.073518e-09	-2.296752e+01	-7.268319e+01
1.100000e-06	-3.255286e-06	-1.057559e-09	-2.270599e+01	-7.232257e+01
1.110000e-06	-3.217505e-06	-1.050329e-09	-2.244246e+01	-7.195628e+01
1.120000e-06	-3.179441e-06	-1.046027e-09	-2.217696e+01	-7.158407e+01
1.130000e-06	-3.141200e-06	-1.031910e-09	-2.191022e+01	-7.120564e+01
1.140000e-06	-3.102780e-06	-1.025469e-09	-2.164224e+01	-7.082072e+01
1.150000e-06	-3.064109e-06	-1.026222e-09	-2.137251e+01	-7.042903e+01
1.160000e-06	-3.025235e-06	-1.019960e-09	-2.110136e+01	-7.003031e+01
1.170000e-06	-2.986215e-06	-1.009454e-09	-2.082919e+01	-6.962428e+01
1.180000e-06	-2.947020e-06	-1.006145e-09	-2.055580e+01	-6.921069e+01
1.190000e-06	-2.907625e-06	-9.989415e-10	-2.028101e+01	-6.878928e+01
1.200000e-06	-2.868069e-06	-9.897464e-10	-2.000511e+01	-6.835981e+01
1.210000e-06	-2.828382e-06	-9.846407e-10	-1.972828e+01	-6.792206e+01
1.220000e-06	-2.788554e-06	-9.793124e-10	-1.945048e+01	-6.747582e+01
1.230000e-06	-2.748599e-06	-9.681808e-10	-1.917179e+01	-6.702087e+01
1.240000e-06	-2.708464e-06	-9.637450e-10	-1.889185e+01	-6.655705e+01
1.250000e-06	-2.668093e-06	-9.593997e-10	-1.861025e+01	-6.608419e+01
1.260000e-06	-2.627525e-06	-9.522977e-10	-1.832728e+01	-6.560213e+01
1.270000e-06	-2.586706e-06	-9.479409e-10	-1.804257e+01	-6.511075e+01
1.280000e-06	-2.545578e-06	-9.441289e-10	-1.775570e+01	-6.460993e+01
1.290000e-06	-2.504124e-06	-9.340958e-10	-1.746655e+01	-6.409958e+01
1.300000e-06	-2.462436e-06	-9.212526e-10	-1.717577e+01	-6.357963e+01
1.310000e-06	-2.420518e-06	-9.111850e-10	-1.688339e+01	-6.305001e+01
1.320000e-06	-2.378316e-06	-9.033230e-10	-1.658903e+01	-6.251068e+01
1.330000e-06	-2.335902e-06	-8.954102e-10	-1.629318e+01	-6.196160e+01
1.340000e-06	-2.293181e-06	-8.906808e-10	-1.599520e+01	-6.140277e+01
1.350000e-06	-2.250143e-06	-8.855074e-10	-1.569500e+01	-6.083416e+01
1.360000e-06	-2.206929e-06	-8.779217e-10	-1.539358e+01	-6.025579e+01
1.370000e-06	-2.163564e-06	-8.682427e-10	-1.509111e+01	-5.966766e+01
1.380000e-06	-2.120043e-06	-8.590736e-10	-1.478754e+01	-5.906978e+01
1.390000e-06	-2.076440e-06	-8.497111e-10	-1.448341e+01	-5.846217e+01
1.400000e-06	-2.032830e-06	-8.392627e-10	-1.417922e+01	-5.784483e+01
1.410000e-06	-1.989121e-06	-8.279115e-10	-1.387434e+01	-5.721778e+01
1.420000e-06	-1.945279e-06	-8.157760e-10	-1.356854e+01	-5.658102e+01
1.430000e-06	-1.901383e-06	-8.041391e-10	-1.326236e+01	-5.593454e+01
1.440000e-06	-1.857404e-06	-7.930057e-10	-1.295560e+01	-5.527831e+01
1.450000e-06	-1.813344e-06	-7.827840e-10	-1.264828e+01	-5.461231e+01
1.460000e-06	-1.769193e-06	-7.737846e-10	-1.234032e+01	-5.393647e+01
1.470000e-06	-1.724882e-06	-7.655007e-10	-1.203125e+01	-5.325073e+01
1.480000e-06	-1.680416e-06	-7.531224e-10	-1.172109e+01	-5.255498e+01
1.490000e-06	-1.635839e-06	-7.380412e-10	-1.141017e+01	-5.184911e+01
1.500000e-06	-1.591156e-06	-7.241647e-10	-1.109850e+01	-5.113296e+01
1.510000e-06	-1.546324e-06	-7.117450e-10	-1.078579e+01	-5.040636e+01
1.520000e-06	-1.501391e-06	-6.969377e-10	-1.047237e+01	-4.966910e+01
1.530000e-06	-1.456330e-06	-6.836514e-10	-1.015807e+01	-4.892094e+01
1.540000e-06	-1.411070e-06	-6.693673e-10	-9.842375e+00	-4.816162e+01
1.550000e-06	-1.365670e-06	-6.549204e-10	-9.525701e+00	-4.739083e+01
1.560000e-06	-1.320251e-06	-6.407209e-10	-9.208903e+00	-4.660824e+01
1.570000e-06	-1.274826e-06	-6.284523e-10	-8.892056e+00	-4.581351e+01
1.580000e-06	-1.229290e-06	-6.166438e-10	-8.574438e+00	-4.500623e+01
1.590000e-06	-1.183671e-06	-6.051022e-10	-8.256242e+00	-4.418599e+01
1.600000e-06	-1.137984e-06	-5.910352e-10	-7.937565e+00	-4.335236e+01
1.610000e-06	-1.092249e-06	-5.755477e-10	-7.618558e+00	-4.250487e+01
1.620000e-06	-1.046456e-06	-5.589230e-10	-7.299147e+00	-4.164304e+01
1.630000e-06	-1.000598e-06	-5.433220e-10	-6.979283e+00	-4.076638e+01
1.640000e-06	-9.546957e-07	-5.291847e-10	-6.659111e+00	-3.987438e+01
1.650000e-06	-9.086885e-07	-5.132692e-10	-6.338206e+00	-3.896651e+01
1.660000e-06	-8.625435e-07	-4.977419e-10	-6.016339e+00	-3.804227e+01
1.670000e-06	-8.162707e-07	-4.838478e-10	-5.693581e+00	-3.710114e+01
1.680000e-06	-7.699482e-07	-4.697294e-10	-5.370476e+00	-3.614261e+01
1.690000e-06	-7.237001e-07	-4.542380e-10	-5.047891e+00	-3.516617e+01
1.700000e-06	-6.775102e-07	-4.404857e-10	-4.725711e+00	-3.417136e+01
1.710000e-06	-6.312607e-07	-4.251285e-10	-4.403115e+00	-3.315771e+01
1.720000e-06	-5.849221e-07	-4.067625e-10	-4.079898e+00	-3.212481e+01
1.730000e-06	-5.384934e-07	-3.879724e-10	-3.756053e+00	-3.107225e+01
1.740000e-06	-4.919789e-07	-3.711575e-10	-3.431609e+00	-2.999970e+01
1.750000e-06	-4.454664e-07	-3.542706e-10	-3.107179e+00	-2.890685e+01
1.760000e-06	-3.989356e-07	-3.387412e-10	-2.782621e+00	-2.779345e+01
1.770000e-06	-3.523639e-07	-3.227805e-10	-2.457778e+00	-2.665931e+01
1.780000e-06	-3.058003e-07	-3.080995e-10	-2.132992e+00	-2.550429e+01
1.790000e-06	-2.592569e-07	-2.928301e-10	-1.808346e+00	-2.432834e+01
1.800000e-06	-2.126451e-07	-2.738675e-10	-1.483224e+00	-2.313145e+01
1.810000e-06	-1.659723e-07	-2.529392e-10	-1.157675e+00	-2.191372e+01
1.820000e-06	-1.193186e-07	-2.313723e-10	-8.322609e-01	-2.067531e+01
1.830000e-06	-7.267066e-08	-2.111971e-10	-5.068861e-01	-1.941646e+01
1.840000e-06	-2.602422e-08	-1.938144e-10	-1.815219e-01	-1.813750e+01
1.850000e-06	2.065463e-08	-1.776502e-10	1.440684e-01	-1.683884e+01
1.860000e-06	6.736525e-08	-1.632925e-10	4.698803e-01	-1.552099e+01
1.870000e-06	1.141311e-07	-1.465320e-10	7.960774e-01	-1.418452e+01
1.880000e-06	1.609460e-07	-1.276394e-10	1.122617e+00	-1.283012e+01
1.890000e-06	2.076577e-07	-1.082161e-10	1.448436e+00	-1.145854e+01
1.900000e-06	2.542700e-07	-8.841172e-11	1.773562e+00	-1.007063e+01
1.910000e-06	3.009026e-07	-7.005884e-11	2.098830e+00	-8.667321e+00
1.920000e-06	3.475107e-07	-5.288468e-11	2.423927e+00	-7.249613e+00
1.930000e-06	3.940606e-07	-3.739170e-11	2.748617e+00	-5.818593e+00
1.940000e-06	4.405202e-07	-2.119795e-11	3.072679e+00	-4.375413e+00
1.950000e-06	4.869409e-07	-5.449455e-12	3.396468e+00	-2.921297e+00
1.960000e-06	5.333710e-07	1.187995e-11	3.720323e+00	-1.457527e+00
1.970000e-06	5.797148e-07	3.083546e-11	4.043577e+00	1.455913e-02
1.980000e-06	6.259935e-07	5.181360e-11	4.366376e+00	1.493572e+00
1.990000e-06	6.722409e-07	7.379130e-11	4.688957e+00	2.978082e+00
2.000000e-06	7.184534e-07	9.601597e-11	5.011294e+00	4.466623e+00
2.010000e-06	7.646060e-07	1.180738e-10	5.333214e+00	5.957702e+00
2.020000e-06	8.107396e-07	1.383064e-10	5.655001e+00	7.449805e+00
2.030000e-06	8.568458e-07	1.569030e-10	5.976597e+00	8.941407e+00
2.040000e-06	9.028200e-07	1.756224e-10	6.297272e+00	1.043098e+01
2.050000e-06	9.486882e-07	1.939450e-10	6.617208e+00	1.191700e+01
2.060000e-06	9.945641e-07	2.140728e-10	6.937198e+00	1.339795e+01
2.070000e-06	1.040436e-06	2.372109e-10	7.257163e+00	1.487234e+01
2.080000e-06	1.086201e-06	2.605785e-10	7.576377e+00	1.633872e+01
2.090000e-06	1.131841e-06	2.824990e-10	7.894719e+00	1.779564e+01
2.100000e-06	1.177424e-06	3.008514e-10	8.212667e+00	1.924174e+01
2.110000e-06	1.222988e-06	3.162919e-10	8.530479e+00	2.067568e+01
2.120000e-06	1.268493e-06	3.323554e-10	8.847882e+00	2.209619e+01
2.130000e-06	1.313882e-06	3.521688e-10	9.164479e+00	2.350206e+01
2.140000e-06	1.359049e-06	3.759197e-10	9.479523e+00	2.489214e+01
2.150000e-06	1.404082e-06	3.973438e-10	9.793630e+00	2.626538e+01
2.160000e-06	1.449067e-06	4.158380e-10	1.010741e+01	2.762078e+01
2.170000e-06	1.493982e-06	4.349871e-10	1.042070e+01	2.895745e+01
2.180000e-06	1.538863e-06	4.531289e-10	1.073375e+01	3.027457e+01
2.190000e-06	1.583648e-06	4.679410e-10	1.104612e+01	3.157142e+01
2.200000e-06	1.628172e-06	4.841644e-10	1.135669e+01	3.284736e+01
2.210000e-06	1.672509e-06	5.028268e-10	1.166594e+01	3.410185e+01
2.220000e-06	1.716815e-06	5.227191e-10	1.197498e+01	3.533443e+01
2.230000e-06	1.761047e-06	5.438208e-10	1.228350e+01	3.654476e+01
2.240000e-06	1.805119e-06	5.631127e-10	1.259091e+01	3.773256e+01
2.250000e-06	1.849038e-06	5.781136e-10	1.289725e+01	3.889766e+01
2.260000e-06	1.892905e-06	5.889794e-10	1.320322e+01	4.003996e+01
2.270000e-06	1.936769e-06	5.999401e-10	1.350918e+01	4.115947e+01
2.280000e-06	1.980546e-06	6.145402e-10	1.381453e+01	4.225625e+01
2.290000e-06	2.024219e-06	6.313424e-10	1.411916e+01	4.333047e+01
2.300000e-06	2.067849e-06	6.481962e-10	1.442348e+01	4.438233e+01
2.310000e-06	2.111443e-06	6.651875e-10	1.472755e+01	4.541213e+01
2.320000e-06	2.154945e-06	6.830273e-10	1.503099e+01	4.642023e+01
2.330000e-06	2.198306e-06	6.995588e-10	1.533343e+01	4.740701e+01
2.340000e-06	2.241504e-06	7.104941e-10	1.563475e+01	4.837294e+01
2.350000e-06	2.284467e-06	7.188720e-10	1.593442e+01	4.931852e+01
2.360000e-06	2.327190e-06	7.281011e-10	1.623241e+01	5.024426e+01
2.370000e-06	2.369698e-06	7.396728e-10	1.652891e+01	5.115074e+01
2.380000e-06	2.411917e-06	7.525092e-10	1.682340e+01	5.203853e+01
2.390000e-06	2.453824e-06	7.687205e-10	1.711570e+01	5.290823e+01
2.400000e-06	2.495387e-06	7.867584e-10	1.740561e+01	5.376045e+01
2.410000e-06	2.536546e-06	8.019188e-10	1.769269e+01	5.459580e+01
2.420000e-06	2.577367e-06	8.149280e-10	1.797743e+01	5.541487e+01
2.430000e-06	2.618007e-06	8.262731e-10	1.826089e+01	5.621827e+01
2.440000e-06	2.658477e-06	8.350726e-10	1.854318e+01	5.700658e+01
2.450000e-06	2.698686e-06	8.439072e-10	1.882364e+01	5.778036e+01
2.460000e-06	2.738727e-06	8.548758e-10	1.910293e+01	5.854014e+01
2.470000e-06	2.778673e-06	8.675051e-10	1.938156e+01	5.928643e+01
2.480000e-06	2.818468e-06	8.804495e-10	1.965914e+01	6.001971e+01
2.490000e-06	2.858132e-06	8.929198e-10	1.993580e+01	6.074041e+01
2.500000e-06	2.897741e-06	9.041105e-10	2.021208e+01	6.144894e+01
2.510000e-06	2.937315e-06	9.142047e-10	2.048811e+01	6.214566e+01
2.520000e-06	2.976671e-06	9.229561e-10	2.076262e+01	6.283088e+01
2.530000e-06	3.015680e-06	9.311778e-10	2.103471e+01	6.350489e+01
2.540000e-06	3.054467e-06	9.393386e-10	2.130525e+01	6.416791e+01
2.550000e-06	3.093022e-06	9.471158e-10	2.157418e+01	6.482013e+01
2.560000e-06	3.131286e-06	9.555674e-10	2.184107e+01	6.546171e+01
2.570000e-06	3.169360e-06	9.656332e-10	2.210665e+01	6.609275e+01
2.580000e-06	3.207284e-06	9.743971e-10	2.237117e+01	6.671333e+01
2.590000e-06	3.245012e-06	9.796714e-10	2.263433e+01	6.732348e+01
2.600000e-06	3.282566e-06	9.848810e-10	2.289627e+01	6.792319e+01
2.610000e-06	3.319944e-06	9.918065e-10	2.315699e+01	6.851245e+01
2.620000e-06	3.357097e-06	1.001320e-09	2.341613e+01	6.909119e+01
2.630000e-06	3.393971e-06	1.011236e-09	2.367333e+01	6.965934e+01
2.640000e-06	3.430520e-06	1.019451e-09	2.392827e+01	7.021679e+01
2.650000e-06	3.466776e-06	1.025969e-09	2.418115e+01	7.076344e+01
2.660000e-06	3.502796e-06	1.031469e-09	2.443240e+01	7.129917e+01
2.670000e-06	3.538663e-06	1.036266e-09	2.468257e+01	7.182384e+01
2.680000e-06	3.574412e-06	1.040409e-09	2.493193e+01	7.233732e+01
2.690000e-06	3.610004e-06	1.045777e-09	2.518019e+01	7.283950e+01
2.700000e-06	3.645437e-06	1.052491e-09	2.542734e+01	7.333024e+01
2.710000e-06	3.680709e-06	1.059967e-09	2.567336e+01	7.380945e+01
2.720000e-06	3.715739e-06	1.068304e-09	2.591770e+01	7.427703e+01
2.730000e-06	3.750410e-06	1.077960e-09	2.615954e+01	7.473290e+01
2.740000e-06	3.784728e-06	1.087869e-09	2.639891e+01	7.517701e+01
2.750000e-06	3.818659e-06	1.094546e-09	2.663558e+01	7.560935e+01
2.760000e-06	3.852055e-06	1.097851e-09	2.686852e+01	7.602991e+01
2.770000e-06	3.884960e-06	1.100425e-09	2.709804e+01	7.643872e+01
2.780000e-06	3.917497e-06	1.103651e-09	2.732499e+01	7.683585e+01
2.790000e-06	3.949754e-06	1.109098e-09	2.754998e+01	7.722140e+01
2.800000e-06	3.981788e-06	1.118115e-09	2.777342e+01	7.759551e+01
2.810000e-06	4.013613e-06	1.128542e-09	2.799540e+01	7.795834e+01
2.820000e-06	4.045245e-06	1.137866e-09	2.821604e+01	7.831010e+01
2.830000e-06	4.076704e-06	1.143775e-09	2.843547e+01	7.865103e+01
2.840000e-06	4.107974e-06	1.146980e-09	2.865359e+01	7.898141e+01
2.850000e-06	4.138947e-06	1.149507e-09	2.886962e+01	7.930154e+01
2.860000e-06	4.169565e-06	1.152638e-09	2.908319e+01	7.961177e+01
2.870000e-06	4.199877e-06	1.157412e-09	2.929462e+01	7.991245e+01
2.880000e-06	4.229830e-06	1.162612e-09	2.950354e+01	8.020400e+01
2.890000e-06	4.259461e-06	1.170168e-09	2.971023e+01	8.048681e+01
2.900000e-06	4.288864e-06	1.178246e-09	2.991531e+01	8.076135e+01
