# Temperatura_=_-0.4
# Concentracion g/m^3_=_1620.0
# C_Vs_to_Am_M_A/Vsm_=_65563218390.804596
# pendiente_HvsI_1/m_=_3716.3
# ordenada_HvsI_A/m_=_1297.0
# frecuencia_Hz_=_135097.1526463917

Tiempo_(s)	Campo_(V.s)	Magnetizacion_(V.s)	Campo_(kA/m)	Magnetizacion_(A/m)
0.000000e+00	-5.509947e-06	-1.458011e-09	-3.836505e+01	-9.296700e+01
1.000000e-08	-5.510156e-06	-1.458004e-09	-3.836651e+01	-9.299395e+01
2.000000e-08	-5.510135e-06	-1.458242e-09	-3.836636e+01	-9.301994e+01
3.000000e-08	-5.509831e-06	-1.457669e-09	-3.836424e+01	-9.304483e+01
4.000000e-08	-5.509108e-06	-1.455318e-09	-3.835921e+01	-9.306847e+01
5.000000e-08	-5.507829e-06	-1.454682e-09	-3.835030e+01	-9.309071e+01
6.000000e-08	-5.505918e-06	-1.449976e-09	-3.833700e+01	-9.311136e+01
7.000000e-08	-5.503418e-06	-1.430445e-09	-3.831959e+01	-9.313024e+01
8.000000e-08	-5.500352e-06	-1.411771e-09	-3.829824e+01	-9.314713e+01
9.000000e-08	-5.496805e-06	-1.475585e-09	-3.827355e+01	-9.316184e+01
1.000000e-07	-5.492865e-06	-1.571548e-09	-3.824611e+01	-9.317413e+01
1.100000e-07	-5.488490e-06	-1.484830e-09	-3.821565e+01	-9.318379e+01
1.200000e-07	-5.483929e-06	-1.358824e-09	-3.818389e+01	-9.319057e+01
1.300000e-07	-5.479258e-06	-1.352758e-09	-3.815136e+01	-9.319426e+01
1.400000e-07	-5.474147e-06	-1.508743e-09	-3.811578e+01	-9.319462e+01
1.500000e-07	-5.468495e-06	-1.482650e-09	-3.807643e+01	-9.319142e+01
1.600000e-07	-5.462558e-06	-1.348972e-09	-3.803508e+01	-9.318443e+01
1.700000e-07	-5.456392e-06	-1.393570e-09	-3.799215e+01	-9.317343e+01
1.800000e-07	-5.449679e-06	-1.533000e-09	-3.794541e+01	-9.315821e+01
1.900000e-07	-5.442440e-06	-1.568625e-09	-3.789500e+01	-9.313857e+01
2.000000e-07	-5.434966e-06	-1.404014e-09	-3.784296e+01	-9.311432e+01
2.100000e-07	-5.427396e-06	-1.389890e-09	-3.779026e+01	-9.308527e+01
2.200000e-07	-5.419576e-06	-1.466649e-09	-3.773581e+01	-9.305126e+01
2.300000e-07	-5.411400e-06	-1.542415e-09	-3.767888e+01	-9.301214e+01
2.400000e-07	-5.402957e-06	-1.472790e-09	-3.762009e+01	-9.296776e+01
2.500000e-07	-5.393993e-06	-1.463783e-09	-3.755767e+01	-9.291800e+01
2.600000e-07	-5.384149e-06	-1.484126e-09	-3.748913e+01	-9.286276e+01
2.700000e-07	-5.373655e-06	-1.498083e-09	-3.741607e+01	-9.280195e+01
2.800000e-07	-5.362747e-06	-1.417499e-09	-3.734011e+01	-9.273548e+01
2.900000e-07	-5.351358e-06	-1.418748e-09	-3.726081e+01	-9.266331e+01
3.000000e-07	-5.339537e-06	-1.469852e-09	-3.717851e+01	-9.258539e+01
3.100000e-07	-5.327370e-06	-1.469405e-09	-3.709379e+01	-9.250169e+01
3.200000e-07	-5.314796e-06	-1.408031e-09	-3.700624e+01	-9.241221e+01
3.300000e-07	-5.301688e-06	-1.397345e-09	-3.691497e+01	-9.231694e+01
3.400000e-07	-5.288191e-06	-1.453815e-09	-3.682099e+01	-9.221591e+01
3.500000e-07	-5.274402e-06	-1.432225e-09	-3.672498e+01	-9.210913e+01
3.600000e-07	-5.260125e-06	-1.382069e-09	-3.662557e+01	-9.199666e+01
3.700000e-07	-5.245390e-06	-1.405816e-09	-3.652297e+01	-9.187854e+01
3.800000e-07	-5.230216e-06	-1.462314e-09	-3.641732e+01	-9.175482e+01
3.900000e-07	-5.214368e-06	-1.400576e-09	-3.630697e+01	-9.162559e+01
4.000000e-07	-5.198018e-06	-1.380885e-09	-3.619313e+01	-9.149091e+01
4.100000e-07	-5.181467e-06	-1.438614e-09	-3.607788e+01	-9.135086e+01
4.200000e-07	-5.164536e-06	-1.427549e-09	-3.596000e+01	-9.120553e+01
4.300000e-07	-5.147057e-06	-1.331305e-09	-3.583829e+01	-9.105500e+01
4.400000e-07	-5.129363e-06	-1.402022e-09	-3.571509e+01	-9.089936e+01
4.500000e-07	-5.111551e-06	-1.459313e-09	-3.559107e+01	-9.073871e+01
4.600000e-07	-5.093283e-06	-1.381083e-09	-3.546387e+01	-9.057313e+01
4.700000e-07	-5.074441e-06	-1.336065e-09	-3.533267e+01	-9.040272e+01
4.800000e-07	-5.055257e-06	-1.430890e-09	-3.519910e+01	-9.022756e+01
4.900000e-07	-5.035803e-06	-1.389266e-09	-3.506364e+01	-9.004773e+01
5.000000e-07	-5.016068e-06	-1.334818e-09	-3.492623e+01	-8.986333e+01
5.100000e-07	-4.996210e-06	-1.388054e-09	-3.478797e+01	-8.967442e+01
5.200000e-07	-4.976162e-06	-1.398282e-09	-3.464837e+01	-8.948110e+01
5.300000e-07	-4.955658e-06	-1.308340e-09	-3.450560e+01	-8.928341e+01
5.400000e-07	-4.934805e-06	-1.365258e-09	-3.436041e+01	-8.908145e+01
5.500000e-07	-4.913646e-06	-1.416768e-09	-3.421308e+01	-8.887527e+01
5.600000e-07	-4.892053e-06	-1.332980e-09	-3.406273e+01	-8.866493e+01
5.700000e-07	-4.870190e-06	-1.305465e-09	-3.391050e+01	-8.845049e+01
5.800000e-07	-4.848057e-06	-1.381188e-09	-3.375639e+01	-8.823200e+01
5.900000e-07	-4.825562e-06	-1.346495e-09	-3.359976e+01	-8.800953e+01
6.000000e-07	-4.802606e-06	-1.302156e-09	-3.343992e+01	-8.778311e+01
6.100000e-07	-4.779233e-06	-1.353290e-09	-3.327718e+01	-8.755280e+01
6.200000e-07	-4.755683e-06	-1.352077e-09	-3.311320e+01	-8.731864e+01
6.300000e-07	-4.731979e-06	-1.298652e-09	-3.294816e+01	-8.708069e+01
6.400000e-07	-4.708064e-06	-1.317805e-09	-3.278164e+01	-8.683900e+01
6.500000e-07	-4.683760e-06	-1.337818e-09	-3.261241e+01	-8.659360e+01
6.600000e-07	-4.659056e-06	-1.297479e-09	-3.244041e+01	-8.634457e+01
6.700000e-07	-4.634005e-06	-1.307256e-09	-3.226598e+01	-8.609194e+01
6.800000e-07	-4.608454e-06	-1.322555e-09	-3.208807e+01	-8.583579e+01
6.900000e-07	-4.582308e-06	-1.301345e-09	-3.190601e+01	-8.557616e+01
7.000000e-07	-4.555604e-06	-1.292539e-09	-3.172008e+01	-8.531314e+01
7.100000e-07	-4.528504e-06	-1.312751e-09	-3.153138e+01	-8.504678e+01
7.200000e-07	-4.501086e-06	-1.283122e-09	-3.134048e+01	-8.477716e+01
7.300000e-07	-4.473431e-06	-1.269929e-09	-3.114792e+01	-8.450436e+01
7.400000e-07	-4.445616e-06	-1.279822e-09	-3.095425e+01	-8.422846e+01
7.500000e-07	-4.417583e-06	-1.279056e-09	-3.075906e+01	-8.394955e+01
7.600000e-07	-4.389323e-06	-1.262491e-09	-3.056229e+01	-8.366773e+01
7.700000e-07	-4.360769e-06	-1.275193e-09	-3.036347e+01	-8.338309e+01
7.800000e-07	-4.331895e-06	-1.262935e-09	-3.016243e+01	-8.309572e+01
7.900000e-07	-4.302687e-06	-1.246158e-09	-2.995905e+01	-8.280573e+01
8.000000e-07	-4.273082e-06	-1.246188e-09	-2.975292e+01	-8.251322e+01
8.100000e-07	-4.243230e-06	-1.250074e-09	-2.954506e+01	-8.221830e+01
8.200000e-07	-4.213129e-06	-1.227063e-09	-2.933547e+01	-8.192106e+01
8.300000e-07	-4.182744e-06	-1.227966e-09	-2.912390e+01	-8.162160e+01
8.400000e-07	-4.152156e-06	-1.232757e-09	-2.891093e+01	-8.132003e+01
8.500000e-07	-4.121200e-06	-1.218425e-09	-2.869538e+01	-8.101644e+01
8.600000e-07	-4.089941e-06	-1.206395e-09	-2.847773e+01	-8.071090e+01
8.700000e-07	-4.058471e-06	-1.212711e-09	-2.825861e+01	-8.040351e+01
8.800000e-07	-4.026786e-06	-1.202808e-09	-2.803799e+01	-8.009433e+01
8.900000e-07	-3.995007e-06	-1.190326e-09	-2.781671e+01	-7.978343e+01
9.000000e-07	-3.963004e-06	-1.194322e-09	-2.759389e+01	-7.947085e+01
9.100000e-07	-3.930757e-06	-1.186761e-09	-2.736935e+01	-7.915663e+01
9.200000e-07	-3.898193e-06	-1.166749e-09	-2.714261e+01	-7.884079e+01
9.300000e-07	-3.865210e-06	-1.165517e-09	-2.691295e+01	-7.852333e+01
9.400000e-07	-3.831928e-06	-1.171654e-09	-2.668122e+01	-7.820424e+01
9.500000e-07	-3.798166e-06	-1.158827e-09	-2.644614e+01	-7.788350e+01
9.600000e-07	-3.763825e-06	-1.155586e-09	-2.620702e+01	-7.756105e+01
9.700000e-07	-3.729077e-06	-1.157823e-09	-2.596508e+01	-7.723683e+01
9.800000e-07	-3.694020e-06	-1.150563e-09	-2.572099e+01	-7.691074e+01
9.900000e-07	-3.658738e-06	-1.137638e-09	-2.547532e+01	-7.658267e+01
1.000000e-06	-3.623227e-06	-1.140562e-09	-2.522806e+01	-7.625249e+01
1.010000e-06	-3.587529e-06	-1.133325e-09	-2.497950e+01	-7.592006e+01
1.020000e-06	-3.551718e-06	-1.122945e-09	-2.473015e+01	-7.558518e+01
1.030000e-06	-3.515765e-06	-1.117911e-09	-2.447981e+01	-7.524767e+01
1.040000e-06	-3.479595e-06	-1.117062e-09	-2.422797e+01	-7.490732e+01
1.050000e-06	-3.443139e-06	-1.104926e-09	-2.397413e+01	-7.456387e+01
1.060000e-06	-3.406450e-06	-1.098856e-09	-2.371867e+01	-7.421709e+01
1.070000e-06	-3.369531e-06	-1.091664e-09	-2.346161e+01	-7.386670e+01
1.080000e-06	-3.332328e-06	-1.082973e-09	-2.320257e+01	-7.351241e+01
1.090000e-06	-3.294906e-06	-1.075594e-09	-2.294200e+01	-7.315392e+01
1.100000e-06	-3.257268e-06	-1.075377e-09	-2.267993e+01	-7.279091e+01
1.110000e-06	-3.219370e-06	-1.064230e-09	-2.241606e+01	-7.242306e+01
1.120000e-06	-3.181257e-06	-1.050905e-09	-2.215068e+01	-7.205003e+01
1.130000e-06	-3.143028e-06	-1.042702e-09	-2.188450e+01	-7.167149e+01
1.140000e-06	-3.104587e-06	-1.037643e-09	-2.161684e+01	-7.128707e+01
1.150000e-06	-3.065851e-06	-1.028289e-09	-2.134712e+01	-7.089644e+01
1.160000e-06	-3.026880e-06	-1.019223e-09	-2.107578e+01	-7.049925e+01
1.170000e-06	-2.987705e-06	-1.012916e-09	-2.080300e+01	-7.009514e+01
1.180000e-06	-2.948330e-06	-1.005358e-09	-2.052884e+01	-6.968378e+01
1.190000e-06	-2.908771e-06	-9.988927e-10	-2.025339e+01	-6.926483e+01
1.200000e-06	-2.869114e-06	-9.946369e-10	-1.997727e+01	-6.883796e+01
1.210000e-06	-2.829386e-06	-9.868235e-10	-1.970065e+01	-6.840284e+01
1.220000e-06	-2.789525e-06	-9.758919e-10	-1.942310e+01	-6.795919e+01
1.230000e-06	-2.749493e-06	-9.678105e-10	-1.914437e+01	-6.750670e+01
1.240000e-06	-2.709301e-06	-9.600961e-10	-1.886451e+01	-6.704511e+01
1.250000e-06	-2.668855e-06	-9.543377e-10	-1.858289e+01	-6.657415e+01
1.260000e-06	-2.628176e-06	-9.486209e-10	-1.829965e+01	-6.609358e+01
1.270000e-06	-2.587376e-06	-9.441673e-10	-1.801556e+01	-6.560319e+01
1.280000e-06	-2.546379e-06	-9.366196e-10	-1.773011e+01	-6.510277e+01
1.290000e-06	-2.505110e-06	-9.266735e-10	-1.744276e+01	-6.459215e+01
1.300000e-06	-2.463426e-06	-9.134626e-10	-1.715251e+01	-6.407116e+01
1.310000e-06	-2.421398e-06	-9.028048e-10	-1.685988e+01	-6.353966e+01
1.320000e-06	-2.379128e-06	-8.932142e-10	-1.656556e+01	-6.299754e+01
1.330000e-06	-2.336549e-06	-8.877470e-10	-1.626909e+01	-6.244469e+01
1.340000e-06	-2.293607e-06	-8.834310e-10	-1.597009e+01	-6.188103e+01
1.350000e-06	-2.250428e-06	-8.783896e-10	-1.566944e+01	-6.130650e+01
1.360000e-06	-2.207185e-06	-8.667900e-10	-1.536835e+01	-6.072104e+01
1.370000e-06	-2.163785e-06	-8.547188e-10	-1.506616e+01	-6.012462e+01
1.380000e-06	-2.120238e-06	-8.429934e-10	-1.476294e+01	-5.951721e+01
1.390000e-06	-2.076608e-06	-8.334578e-10	-1.445915e+01	-5.889879e+01
1.400000e-06	-2.032911e-06	-8.231169e-10	-1.415489e+01	-5.826936e+01
1.410000e-06	-1.989118e-06	-8.134755e-10	-1.384997e+01	-5.762892e+01
1.420000e-06	-1.945219e-06	-8.033131e-10	-1.354431e+01	-5.697746e+01
1.430000e-06	-1.901259e-06	-7.946312e-10	-1.323822e+01	-5.631498e+01
1.440000e-06	-1.857175e-06	-7.867519e-10	-1.293127e+01	-5.564148e+01
1.450000e-06	-1.812975e-06	-7.785442e-10	-1.262351e+01	-5.495694e+01
1.460000e-06	-1.768703e-06	-7.645520e-10	-1.231525e+01	-5.426135e+01
1.470000e-06	-1.724315e-06	-7.482224e-10	-1.200619e+01	-5.355469e+01
1.480000e-06	-1.679854e-06	-7.360295e-10	-1.169661e+01	-5.283690e+01
1.490000e-06	-1.635255e-06	-7.262346e-10	-1.138607e+01	-5.210794e+01
1.500000e-06	-1.590473e-06	-7.161301e-10	-1.107426e+01	-5.136772e+01
1.510000e-06	-1.545575e-06	-7.056247e-10	-1.076164e+01	-5.061616e+01
1.520000e-06	-1.500577e-06	-6.948914e-10	-1.044832e+01	-4.985314e+01
1.530000e-06	-1.455474e-06	-6.805037e-10	-1.013428e+01	-4.907852e+01
1.540000e-06	-1.410264e-06	-6.658218e-10	-9.819489e+00	-4.829215e+01
1.550000e-06	-1.364981e-06	-6.506587e-10	-9.504187e+00	-4.749383e+01
1.560000e-06	-1.319652e-06	-6.342901e-10	-9.188565e+00	-4.668336e+01
1.570000e-06	-1.274268e-06	-6.192396e-10	-8.872564e+00	-4.586051e+01
1.580000e-06	-1.228785e-06	-6.080635e-10	-8.555872e+00	-4.502501e+01
1.590000e-06	-1.183111e-06	-5.978326e-10	-8.237850e+00	-4.417659e+01
1.600000e-06	-1.137314e-06	-5.845728e-10	-7.918970e+00	-4.331494e+01
1.610000e-06	-1.091509e-06	-5.679394e-10	-7.600038e+00	-4.243973e+01
1.620000e-06	-1.045661e-06	-5.524265e-10	-7.280799e+00	-4.155064e+01
1.630000e-06	-9.997293e-07	-5.387555e-10	-6.960986e+00	-4.064729e+01
1.640000e-06	-9.536667e-07	-5.260208e-10	-6.640258e+00	-3.972931e+01
1.650000e-06	-9.075362e-07	-5.103243e-10	-6.319057e+00	-3.879632e+01
1.660000e-06	-8.613167e-07	-4.952960e-10	-5.997237e+00	-3.784793e+01
1.670000e-06	-8.150278e-07	-4.798476e-10	-5.674933e+00	-3.688375e+01
1.680000e-06	-7.687824e-07	-4.672490e-10	-5.352932e+00	-3.590338e+01
1.690000e-06	-7.225499e-07	-4.548045e-10	-5.031021e+00	-3.490644e+01
1.700000e-06	-6.762206e-07	-4.413555e-10	-4.708436e+00	-3.389255e+01
1.710000e-06	-6.298389e-07	-4.247624e-10	-4.385487e+00	-3.286134e+01
1.720000e-06	-5.834831e-07	-4.050677e-10	-4.062717e+00	-3.181248e+01
1.730000e-06	-5.370335e-07	-3.862133e-10	-3.739295e+00	-3.074563e+01
1.740000e-06	-4.904884e-07	-3.719941e-10	-3.415207e+00	-2.966052e+01
1.750000e-06	-4.439247e-07	-3.569381e-10	-3.090990e+00	-2.855687e+01
1.760000e-06	-3.972652e-07	-3.407505e-10	-2.766106e+00	-2.743449e+01
1.770000e-06	-3.505701e-07	-3.246396e-10	-2.440974e+00	-2.629319e+01
1.780000e-06	-3.038900e-07	-3.074162e-10	-2.115947e+00	-2.513284e+01
1.790000e-06	-2.571728e-07	-2.890249e-10	-1.790661e+00	-2.395338e+01
1.800000e-06	-2.104987e-07	-2.677712e-10	-1.465675e+00	-2.275478e+01
1.810000e-06	-1.638337e-07	-2.488961e-10	-1.140753e+00	-2.153710e+01
1.820000e-06	-1.171011e-07	-2.297336e-10	-8.153601e-01	-2.030044e+01
1.830000e-06	-7.024615e-08	-2.132265e-10	-4.891149e-01	-1.904498e+01
1.840000e-06	-2.335642e-08	-1.947218e-10	-1.626277e-01	-1.777097e+01
1.850000e-06	2.346535e-08	-1.759901e-10	1.633862e-01	-1.647872e+01
1.860000e-06	7.026725e-08	-1.590911e-10	4.892618e-01	-1.516863e+01
1.870000e-06	1.170129e-07	-1.417452e-10	8.147456e-01	-1.384116e+01
1.880000e-06	1.636964e-07	-1.239726e-10	1.139797e+00	-1.249686e+01
1.890000e-06	2.103920e-07	-1.052636e-10	1.464932e+00	-1.113636e+01
1.900000e-06	2.570242e-07	-8.408969e-11	1.789626e+00	-9.760338e+00
1.910000e-06	3.036107e-07	-6.397950e-11	2.114002e+00	-8.369571e+00
1.920000e-06	3.502304e-07	-4.508875e-11	2.438609e+00	-6.964900e+00
1.930000e-06	3.967311e-07	-2.875642e-11	2.762387e+00	-5.547238e+00
1.940000e-06	4.431935e-07	-1.165331e-11	3.085899e+00	-4.117562e+00
1.950000e-06	4.897183e-07	4.787304e-12	3.409845e+00	-2.676917e+00
1.960000e-06	5.361865e-07	1.983620e-11	3.733397e+00	-1.226406e+00
1.970000e-06	5.826471e-07	3.876469e-11	4.056896e+00	2.328133e-01
1.980000e-06	6.290447e-07	5.988371e-11	4.379957e+00	1.699530e+00
1.990000e-06	6.753215e-07	8.226033e-11	4.702176e+00	3.172490e+00
2.000000e-06	7.215076e-07	1.021083e-10	5.023764e+00	4.650400e+00
2.010000e-06	7.676504e-07	1.195518e-10	5.345051e+00	6.131930e+00
2.020000e-06	8.137550e-07	1.365955e-10	5.666071e+00	7.615728e+00
2.030000e-06	8.597953e-07	1.542032e-10	5.986643e+00	9.100418e+00
2.040000e-06	9.058431e-07	1.738371e-10	6.307269e+00	1.058461e+01
2.050000e-06	9.519140e-07	1.956636e-10	6.628054e+00	1.206692e+01
2.060000e-06	9.979421e-07	2.191923e-10	6.948542e+00	1.354594e+01
2.070000e-06	1.043822e-06	2.428397e-10	7.267999e+00	1.502028e+01
2.080000e-06	1.089559e-06	2.640089e-10	7.586455e+00	1.648859e+01
2.090000e-06	1.135176e-06	2.837113e-10	7.904081e+00	1.794951e+01
2.100000e-06	1.180734e-06	3.026503e-10	8.221296e+00	1.940171e+01
2.110000e-06	1.226262e-06	3.228347e-10	8.538304e+00	2.084392e+01
2.120000e-06	1.271788e-06	3.431124e-10	8.855297e+00	2.227490e+01
2.130000e-06	1.317205e-06	3.639187e-10	9.171531e+00	2.369343e+01
2.140000e-06	1.362483e-06	3.842839e-10	9.486794e+00	2.509839e+01
2.150000e-06	1.407704e-06	4.060989e-10	9.801664e+00	2.648870e+01
2.160000e-06	1.452800e-06	4.274914e-10	1.011566e+01	2.786332e+01
2.170000e-06	1.497804e-06	4.477939e-10	1.042901e+01	2.922132e+01
2.180000e-06	1.542745e-06	4.651549e-10	1.074193e+01	3.056180e+01
2.190000e-06	1.587564e-06	4.802663e-10	1.105400e+01	3.188397e+01
2.200000e-06	1.632288e-06	4.941071e-10	1.136541e+01	3.318710e+01
2.210000e-06	1.676892e-06	5.122920e-10	1.167598e+01	3.447053e+01
2.220000e-06	1.721242e-06	5.334719e-10	1.198478e+01	3.573371e+01
2.230000e-06	1.765423e-06	5.543019e-10	1.229241e+01	3.697615e+01
2.240000e-06	1.809521e-06	5.726075e-10	1.259946e+01	3.819744e+01
2.250000e-06	1.853496e-06	5.868243e-10	1.290565e+01	3.939726e+01
2.260000e-06	1.897427e-06	5.994234e-10	1.321154e+01	4.057536e+01
2.270000e-06	1.941323e-06	6.132787e-10	1.351718e+01	4.173160e+01
2.280000e-06	1.985121e-06	6.296361e-10	1.382214e+01	4.286587e+01
2.290000e-06	2.028901e-06	6.463608e-10	1.412697e+01	4.397818e+01
2.300000e-06	2.072670e-06	6.621056e-10	1.443173e+01	4.506857e+01
2.310000e-06	2.116375e-06	6.778817e-10	1.473604e+01	4.613717e+01
2.320000e-06	2.159959e-06	6.929840e-10	1.503952e+01	4.718417e+01
2.330000e-06	2.203408e-06	7.042714e-10	1.534205e+01	4.820982e+01
2.340000e-06	2.246744e-06	7.148286e-10	1.564379e+01	4.921442e+01
2.350000e-06	2.289796e-06	7.257185e-10	1.594355e+01	5.019831e+01
2.360000e-06	2.332571e-06	7.388347e-10	1.624139e+01	5.116189e+01
2.370000e-06	2.375169e-06	7.523349e-10	1.653800e+01	5.210560e+01
2.380000e-06	2.417431e-06	7.665398e-10	1.683226e+01	5.302988e+01
2.390000e-06	2.459268e-06	7.818048e-10	1.712357e+01	5.393524e+01
2.400000e-06	2.500814e-06	7.971896e-10	1.741284e+01	5.482217e+01
2.410000e-06	2.542082e-06	8.109325e-10	1.770019e+01	5.569122e+01
2.420000e-06	2.583051e-06	8.244962e-10	1.798545e+01	5.654290e+01
2.430000e-06	2.623680e-06	8.364752e-10	1.826835e+01	5.737776e+01
2.440000e-06	2.664092e-06	8.475363e-10	1.854973e+01	5.819634e+01
2.450000e-06	2.704400e-06	8.592539e-10	1.883038e+01	5.899916e+01
2.460000e-06	2.744465e-06	8.723401e-10	1.910936e+01	5.978676e+01
2.470000e-06	2.784317e-06	8.845525e-10	1.938684e+01	6.055963e+01
2.480000e-06	2.824106e-06	8.969789e-10	1.966389e+01	6.131827e+01
2.490000e-06	2.863839e-06	9.075179e-10	1.994054e+01	6.206315e+01
2.500000e-06	2.903436e-06	9.154044e-10	2.021625e+01	6.279469e+01
2.510000e-06	2.942905e-06	9.251309e-10	2.049107e+01	6.351332e+01
2.520000e-06	2.982145e-06	9.346892e-10	2.076429e+01	6.421941e+01
2.530000e-06	3.021180e-06	9.442582e-10	2.103608e+01	6.491332e+01
2.540000e-06	3.060168e-06	9.542018e-10	2.130755e+01	6.559537e+01
2.550000e-06	3.098899e-06	9.628667e-10	2.157723e+01	6.626582e+01
2.560000e-06	3.137273e-06	9.709231e-10	2.184443e+01	6.692494e+01
2.570000e-06	3.175517e-06	9.807725e-10	2.211071e+01	6.757294e+01
2.580000e-06	3.213523e-06	9.917205e-10	2.237534e+01	6.820999e+01
2.590000e-06	3.251278e-06	1.002266e-09	2.263823e+01	6.883624e+01
2.600000e-06	3.288886e-06	1.011022e-09	2.290009e+01	6.945180e+01
2.610000e-06	3.326272e-06	1.019919e-09	2.316040e+01	7.005676e+01
2.620000e-06	3.363430e-06	1.029090e-09	2.341913e+01	7.065117e+01
2.630000e-06	3.400347e-06	1.037529e-09	2.367618e+01	7.123506e+01
2.640000e-06	3.437007e-06	1.046132e-09	2.393143e+01	7.180845e+01
2.650000e-06	3.473365e-06	1.053974e-09	2.418459e+01	7.237132e+01
2.660000e-06	3.509439e-06	1.062550e-09	2.443577e+01	7.292364e+01
2.670000e-06	3.545327e-06	1.070429e-09	2.468565e+01	7.346536e+01
2.680000e-06	3.581077e-06	1.076563e-09	2.493457e+01	7.399644e+01
2.690000e-06	3.616737e-06	1.084175e-09	2.518287e+01	7.451681e+01
2.700000e-06	3.652295e-06	1.091742e-09	2.543046e+01	7.502640e+01
2.710000e-06	3.687689e-06	1.098798e-09	2.567690e+01	7.552516e+01
2.720000e-06	3.722853e-06	1.107292e-09	2.592174e+01	7.601303e+01
2.730000e-06	3.757719e-06	1.118525e-09	2.616451e+01	7.648993e+01
2.740000e-06	3.792153e-06	1.128095e-09	2.640427e+01	7.695584e+01
2.750000e-06	3.826049e-06	1.134086e-09	2.664028e+01	7.741072e+01
2.760000e-06	3.859482e-06	1.137857e-09	2.687307e+01	7.785453e+01
2.770000e-06	3.892427e-06	1.141291e-09	2.710246e+01	7.828729e+01
2.780000e-06	3.924934e-06	1.147807e-09	2.732881e+01	7.870901e+01
2.790000e-06	3.957120e-06	1.156684e-09	2.755292e+01	7.911973e+01
2.800000e-06	3.989029e-06	1.165586e-09	2.777509e+01	7.951950e+01
2.810000e-06	4.020791e-06	1.173985e-09	2.799625e+01	7.990841e+01
2.820000e-06	4.052465e-06	1.181160e-09	2.821679e+01	8.028656e+01
2.830000e-06	4.084006e-06	1.185184e-09	2.843640e+01	8.065410e+01
2.840000e-06	4.115401e-06	1.187177e-09	2.865500e+01	8.101116e+01
2.850000e-06	4.146554e-06	1.191427e-09	2.887192e+01	8.135795e+01
2.860000e-06	4.177209e-06	1.198589e-09	2.908537e+01	8.169466e+01
2.870000e-06	4.207466e-06	1.204630e-09	2.929604e+01	8.202152e+01
2.880000e-06	4.237513e-06	1.209252e-09	2.950525e+01	8.233879e+01
2.890000e-06	4.267295e-06	1.216642e-09	2.971262e+01	8.264673e+01
2.900000e-06	4.296789e-06	1.224018e-09	2.991798e+01	8.294565e+01
