# Temperatura_=_-0.2
# Concentracion g/m^3_=_1620.0
# C_Vs_to_Am_M_A/Vsm_=_65563218390.804596
# pendiente_HvsI_1/m_=_3716.3
# ordenada_HvsI_A/m_=_1297.0
# frecuencia_Hz_=_135109.67808520794

Tiempo_(s)	Campo_(V.s)	Magnetizacion_(V.s)	Campo_(kA/m)	Magnetizacion_(A/m)
0.000000e+00	-5.530698e-06	-1.182070e-09	-3.837143e+01	-7.467665e+01
1.000000e-08	-5.530814e-06	-1.183586e-09	-3.837223e+01	-7.468398e+01
2.000000e-08	-5.530555e-06	-1.187377e-09	-3.837044e+01	-7.469302e+01
3.000000e-08	-5.529868e-06	-1.188751e-09	-3.836567e+01	-7.470375e+01
4.000000e-08	-5.528737e-06	-1.186945e-09	-3.835783e+01	-7.471611e+01
5.000000e-08	-5.527003e-06	-1.185684e-09	-3.834579e+01	-7.473005e+01
6.000000e-08	-5.524660e-06	-1.188940e-09	-3.832954e+01	-7.474543e+01
7.000000e-08	-5.521840e-06	-1.181973e-09	-3.830997e+01	-7.476212e+01
8.000000e-08	-5.518497e-06	-1.143531e-09	-3.828678e+01	-7.477996e+01
9.000000e-08	-5.514682e-06	-1.153909e-09	-3.826031e+01	-7.479875e+01
1.000000e-07	-5.510542e-06	-1.243240e-09	-3.823158e+01	-7.481829e+01
1.100000e-07	-5.506003e-06	-1.212791e-09	-3.820009e+01	-7.483832e+01
1.200000e-07	-5.501215e-06	-1.111433e-09	-3.816687e+01	-7.485860e+01
1.300000e-07	-5.496307e-06	-1.115291e-09	-3.813283e+01	-7.487886e+01
1.400000e-07	-5.490975e-06	-1.191635e-09	-3.809583e+01	-7.489880e+01
1.500000e-07	-5.485118e-06	-1.214018e-09	-3.805520e+01	-7.491813e+01
1.600000e-07	-5.478910e-06	-1.084345e-09	-3.801213e+01	-7.493654e+01
1.700000e-07	-5.472378e-06	-1.124438e-09	-3.796681e+01	-7.495371e+01
1.800000e-07	-5.465433e-06	-1.226975e-09	-3.791863e+01	-7.496933e+01
1.900000e-07	-5.458129e-06	-1.243607e-09	-3.786795e+01	-7.498306e+01
2.000000e-07	-5.450524e-06	-1.154907e-09	-3.781519e+01	-7.499460e+01
2.100000e-07	-5.442677e-06	-1.148496e-09	-3.776075e+01	-7.500363e+01
2.200000e-07	-5.434591e-06	-1.213278e-09	-3.770465e+01	-7.500983e+01
2.300000e-07	-5.426087e-06	-1.212628e-09	-3.764565e+01	-7.501289e+01
2.400000e-07	-5.417116e-06	-1.174406e-09	-3.758341e+01	-7.501252e+01
2.500000e-07	-5.407562e-06	-1.168675e-09	-3.751712e+01	-7.500844e+01
2.600000e-07	-5.397231e-06	-1.209979e-09	-3.744545e+01	-7.500038e+01
2.700000e-07	-5.386281e-06	-1.193907e-09	-3.736947e+01	-7.498807e+01
2.800000e-07	-5.374880e-06	-1.162428e-09	-3.729038e+01	-7.497129e+01
2.900000e-07	-5.363107e-06	-1.145044e-09	-3.720870e+01	-7.494979e+01
3.000000e-07	-5.351017e-06	-1.183476e-09	-3.712482e+01	-7.492339e+01
3.100000e-07	-5.338551e-06	-1.173101e-09	-3.703833e+01	-7.489189e+01
3.200000e-07	-5.325594e-06	-1.146386e-09	-3.694844e+01	-7.485513e+01
3.300000e-07	-5.312203e-06	-1.117828e-09	-3.685553e+01	-7.481296e+01
3.400000e-07	-5.298507e-06	-1.164058e-09	-3.676051e+01	-7.476526e+01
3.500000e-07	-5.284487e-06	-1.164690e-09	-3.666324e+01	-7.471191e+01
3.600000e-07	-5.269925e-06	-1.118198e-09	-3.656221e+01	-7.465285e+01
3.700000e-07	-5.254713e-06	-1.129828e-09	-3.645667e+01	-7.458799e+01
3.800000e-07	-5.239093e-06	-1.199596e-09	-3.634830e+01	-7.451730e+01
3.900000e-07	-5.223117e-06	-1.141761e-09	-3.623746e+01	-7.444075e+01
4.000000e-07	-5.206626e-06	-1.085262e-09	-3.612305e+01	-7.435834e+01
4.100000e-07	-5.189752e-06	-1.162371e-09	-3.600598e+01	-7.427009e+01
4.200000e-07	-5.172662e-06	-1.174983e-09	-3.588741e+01	-7.417601e+01
4.300000e-07	-5.155183e-06	-1.065709e-09	-3.576615e+01	-7.407617e+01
4.400000e-07	-5.137348e-06	-1.114854e-09	-3.564240e+01	-7.397063e+01
4.500000e-07	-5.119213e-06	-1.212026e-09	-3.551659e+01	-7.385946e+01
4.600000e-07	-5.100500e-06	-1.107834e-09	-3.538676e+01	-7.374276e+01
4.700000e-07	-5.081283e-06	-1.058550e-09	-3.525343e+01	-7.362064e+01
4.800000e-07	-5.061943e-06	-1.177407e-09	-3.511925e+01	-7.349321e+01
4.900000e-07	-5.042455e-06	-1.144912e-09	-3.498405e+01	-7.336062e+01
5.000000e-07	-5.022683e-06	-1.038041e-09	-3.484687e+01	-7.322299e+01
5.100000e-07	-5.002636e-06	-1.138682e-09	-3.470779e+01	-7.308048e+01
5.200000e-07	-4.982317e-06	-1.168970e-09	-3.456682e+01	-7.293325e+01
5.300000e-07	-4.961600e-06	-1.042642e-09	-3.442309e+01	-7.278147e+01
5.400000e-07	-4.940489e-06	-1.086006e-09	-3.427662e+01	-7.262530e+01
5.500000e-07	-4.919029e-06	-1.188278e-09	-3.412773e+01	-7.246493e+01
5.600000e-07	-4.897164e-06	-1.072503e-09	-3.397603e+01	-7.230054e+01
5.700000e-07	-4.874999e-06	-1.038870e-09	-3.382226e+01	-7.213232e+01
5.800000e-07	-4.852575e-06	-1.147422e-09	-3.366668e+01	-7.196045e+01
5.900000e-07	-4.829697e-06	-1.100034e-09	-3.350795e+01	-7.178512e+01
6.000000e-07	-4.806426e-06	-1.017055e-09	-3.334650e+01	-7.160654e+01
6.100000e-07	-4.782942e-06	-1.108935e-09	-3.318357e+01	-7.142489e+01
6.200000e-07	-4.759260e-06	-1.111274e-09	-3.301927e+01	-7.124036e+01
6.300000e-07	-4.735340e-06	-1.025703e-09	-3.285331e+01	-7.105316e+01
6.400000e-07	-4.711135e-06	-1.068684e-09	-3.268538e+01	-7.086346e+01
6.500000e-07	-4.686600e-06	-1.109577e-09	-3.251516e+01	-7.067146e+01
6.600000e-07	-4.661528e-06	-1.037113e-09	-3.234121e+01	-7.047735e+01
6.700000e-07	-4.635993e-06	-1.049494e-09	-3.216405e+01	-7.028130e+01
6.800000e-07	-4.610092e-06	-1.096271e-09	-3.198436e+01	-7.008349e+01
6.900000e-07	-4.583556e-06	-1.052442e-09	-3.180025e+01	-6.988410e+01
7.000000e-07	-4.556452e-06	-1.034826e-09	-3.161221e+01	-6.968328e+01
7.100000e-07	-4.529081e-06	-1.074859e-09	-3.142231e+01	-6.948121e+01
7.200000e-07	-4.501519e-06	-1.046595e-09	-3.123109e+01	-6.927802e+01
7.300000e-07	-4.473727e-06	-1.014709e-09	-3.103827e+01	-6.907387e+01
7.400000e-07	-4.445738e-06	-1.045591e-09	-3.084408e+01	-6.886889e+01
7.500000e-07	-4.417522e-06	-1.044890e-09	-3.064832e+01	-6.866320e+01
7.600000e-07	-4.388956e-06	-1.020260e-09	-3.045014e+01	-6.845691e+01
7.700000e-07	-4.360051e-06	-1.043317e-09	-3.024960e+01	-6.825013e+01
7.800000e-07	-4.330878e-06	-1.052734e-09	-3.004720e+01	-6.804295e+01
7.900000e-07	-4.301406e-06	-1.020694e-09	-2.984272e+01	-6.783544e+01
8.000000e-07	-4.271670e-06	-1.024143e-09	-2.963642e+01	-6.762767e+01
8.100000e-07	-4.241698e-06	-1.034793e-09	-2.942848e+01	-6.741967e+01
8.200000e-07	-4.211386e-06	-1.010080e-09	-2.921817e+01	-6.721149e+01
8.300000e-07	-4.180673e-06	-1.004467e-09	-2.900509e+01	-6.700314e+01
8.400000e-07	-4.149645e-06	-1.032093e-09	-2.878982e+01	-6.679462e+01
8.500000e-07	-4.118371e-06	-1.022114e-09	-2.857284e+01	-6.658590e+01
8.600000e-07	-4.086907e-06	-1.007298e-09	-2.835455e+01	-6.637696e+01
8.700000e-07	-4.055344e-06	-1.018609e-09	-2.813557e+01	-6.616773e+01
8.800000e-07	-4.023592e-06	-1.013421e-09	-2.791528e+01	-6.595815e+01
8.900000e-07	-3.991603e-06	-9.849076e-10	-2.769334e+01	-6.574812e+01
9.000000e-07	-3.959422e-06	-9.885480e-10	-2.747007e+01	-6.553753e+01
9.100000e-07	-3.926920e-06	-9.910398e-10	-2.724457e+01	-6.532625e+01
9.200000e-07	-3.894020e-06	-9.724192e-10	-2.701632e+01	-6.511414e+01
9.300000e-07	-3.860639e-06	-9.729350e-10	-2.678473e+01	-6.490101e+01
9.400000e-07	-3.826659e-06	-9.911747e-10	-2.654898e+01	-6.468670e+01
9.500000e-07	-3.792136e-06	-9.811329e-10	-2.630946e+01	-6.447099e+01
9.600000e-07	-3.757261e-06	-9.713418e-10	-2.606750e+01	-6.425367e+01
9.700000e-07	-3.722104e-06	-9.776510e-10	-2.582358e+01	-6.403451e+01
9.800000e-07	-3.686676e-06	-9.671447e-10	-2.557779e+01	-6.381325e+01
9.900000e-07	-3.651083e-06	-9.454820e-10	-2.533085e+01	-6.358963e+01
1.000000e-06	-3.615370e-06	-9.480019e-10	-2.508307e+01	-6.336339e+01
1.010000e-06	-3.579569e-06	-9.498298e-10	-2.483469e+01	-6.313424e+01
1.020000e-06	-3.543627e-06	-9.403864e-10	-2.458533e+01	-6.290188e+01
1.030000e-06	-3.507470e-06	-9.429909e-10	-2.433448e+01	-6.266602e+01
1.040000e-06	-3.471056e-06	-9.494698e-10	-2.408184e+01	-6.242635e+01
1.050000e-06	-3.434385e-06	-9.362480e-10	-2.382742e+01	-6.218257e+01
1.060000e-06	-3.397428e-06	-9.217901e-10	-2.357101e+01	-6.193437e+01
1.070000e-06	-3.360203e-06	-9.205554e-10	-2.331275e+01	-6.168144e+01
1.080000e-06	-3.322774e-06	-9.134177e-10	-2.305307e+01	-6.142348e+01
1.090000e-06	-3.285070e-06	-9.086309e-10	-2.279149e+01	-6.116019e+01
1.100000e-06	-3.247045e-06	-9.125282e-10	-2.252767e+01	-6.089129e+01
1.110000e-06	-3.208818e-06	-9.088695e-10	-2.226246e+01	-6.061649e+01
1.120000e-06	-3.170422e-06	-8.924215e-10	-2.199607e+01	-6.033553e+01
1.130000e-06	-3.131801e-06	-8.842009e-10	-2.172812e+01	-6.004814e+01
1.140000e-06	-3.092917e-06	-8.775963e-10	-2.145834e+01	-5.975410e+01
1.150000e-06	-3.053892e-06	-8.657844e-10	-2.118760e+01	-5.945317e+01
1.160000e-06	-3.014764e-06	-8.598514e-10	-2.091613e+01	-5.914516e+01
1.170000e-06	-2.975431e-06	-8.640841e-10	-2.064324e+01	-5.882989e+01
1.180000e-06	-2.935922e-06	-8.607394e-10	-2.036913e+01	-5.850718e+01
1.190000e-06	-2.896265e-06	-8.558701e-10	-2.009399e+01	-5.817690e+01
1.200000e-06	-2.856475e-06	-8.522397e-10	-1.981793e+01	-5.783893e+01
1.210000e-06	-2.816561e-06	-8.446532e-10	-1.954102e+01	-5.749317e+01
1.220000e-06	-2.776488e-06	-8.305080e-10	-1.926299e+01	-5.713956e+01
1.230000e-06	-2.736177e-06	-8.227605e-10	-1.898332e+01	-5.677805e+01
1.240000e-06	-2.695622e-06	-8.169718e-10	-1.870195e+01	-5.640861e+01
1.250000e-06	-2.654819e-06	-8.104522e-10	-1.841887e+01	-5.603124e+01
1.260000e-06	-2.613854e-06	-8.083285e-10	-1.813466e+01	-5.564595e+01
1.270000e-06	-2.572712e-06	-8.103988e-10	-1.784922e+01	-5.525279e+01
1.280000e-06	-2.531232e-06	-8.060347e-10	-1.756143e+01	-5.485179e+01
1.290000e-06	-2.489469e-06	-7.957149e-10	-1.727169e+01	-5.444305e+01
1.300000e-06	-2.447373e-06	-7.844424e-10	-1.697963e+01	-5.402663e+01
1.310000e-06	-2.404847e-06	-7.732211e-10	-1.668459e+01	-5.360264e+01
1.320000e-06	-2.362012e-06	-7.627664e-10	-1.638740e+01	-5.317118e+01
1.330000e-06	-2.318968e-06	-7.591390e-10	-1.608877e+01	-5.273235e+01
1.340000e-06	-2.275695e-06	-7.602426e-10	-1.578854e+01	-5.228628e+01
1.350000e-06	-2.232219e-06	-7.571722e-10	-1.548691e+01	-5.183307e+01
1.360000e-06	-2.188638e-06	-7.524975e-10	-1.518455e+01	-5.137283e+01
1.370000e-06	-2.145009e-06	-7.478506e-10	-1.488186e+01	-5.090567e+01
1.380000e-06	-2.101344e-06	-7.414717e-10	-1.457892e+01	-5.043167e+01
1.390000e-06	-2.057620e-06	-7.326544e-10	-1.427556e+01	-4.995091e+01
1.400000e-06	-2.013812e-06	-7.252192e-10	-1.397162e+01	-4.946344e+01
1.410000e-06	-1.969881e-06	-7.160675e-10	-1.366684e+01	-4.896931e+01
1.420000e-06	-1.925870e-06	-7.073382e-10	-1.336149e+01	-4.846852e+01
1.430000e-06	-1.881826e-06	-6.996141e-10	-1.305592e+01	-4.796107e+01
1.440000e-06	-1.837692e-06	-6.939050e-10	-1.274972e+01	-4.744690e+01
1.450000e-06	-1.793421e-06	-6.871133e-10	-1.244258e+01	-4.692594e+01
1.460000e-06	-1.748986e-06	-6.804240e-10	-1.213429e+01	-4.639807e+01
1.470000e-06	-1.704445e-06	-6.718744e-10	-1.182527e+01	-4.586315e+01
1.480000e-06	-1.659783e-06	-6.622446e-10	-1.151540e+01	-4.532097e+01
1.490000e-06	-1.614937e-06	-6.524130e-10	-1.120427e+01	-4.477130e+01
1.500000e-06	-1.569935e-06	-6.439317e-10	-1.089205e+01	-4.421388e+01
1.510000e-06	-1.524801e-06	-6.343392e-10	-1.057892e+01	-4.364839e+01
1.520000e-06	-1.479520e-06	-6.223611e-10	-1.026476e+01	-4.307445e+01
1.530000e-06	-1.434048e-06	-6.083417e-10	-9.949284e+00	-4.249168e+01
1.540000e-06	-1.388503e-06	-5.964499e-10	-9.633291e+00	-4.189963e+01
1.550000e-06	-1.342892e-06	-5.881170e-10	-9.316853e+00	-4.129781e+01
1.560000e-06	-1.297216e-06	-5.804438e-10	-8.999953e+00	-4.068570e+01
1.570000e-06	-1.251538e-06	-5.735647e-10	-8.683047e+00	-4.006275e+01
1.580000e-06	-1.205780e-06	-5.656522e-10	-8.365578e+00	-3.942836e+01
1.590000e-06	-1.159937e-06	-5.535717e-10	-8.047529e+00	-3.878192e+01
1.600000e-06	-1.113995e-06	-5.404279e-10	-7.728789e+00	-3.812278e+01
1.610000e-06	-1.067970e-06	-5.265557e-10	-7.409468e+00	-3.745026e+01
1.620000e-06	-1.021901e-06	-5.134630e-10	-7.089849e+00	-3.676370e+01
1.630000e-06	-9.757319e-07	-5.020859e-10	-6.769530e+00	-3.606239e+01
1.640000e-06	-9.294540e-07	-4.896753e-10	-6.448459e+00	-3.534563e+01
1.650000e-06	-8.831227e-07	-4.759211e-10	-6.127017e+00	-3.461272e+01
1.660000e-06	-8.367810e-07	-4.626880e-10	-5.805502e+00	-3.386296e+01
1.670000e-06	-7.903981e-07	-4.507631e-10	-5.483703e+00	-3.309567e+01
1.680000e-06	-7.439553e-07	-4.386179e-10	-5.161487e+00	-3.231018e+01
1.690000e-06	-6.974751e-07	-4.280277e-10	-4.839012e+00	-3.150586e+01
1.700000e-06	-6.509449e-07	-4.158354e-10	-4.516190e+00	-3.068208e+01
1.710000e-06	-6.043374e-07	-4.002140e-10	-4.192832e+00	-2.983828e+01
1.720000e-06	-5.576721e-07	-3.829307e-10	-3.869073e+00	-2.897394e+01
1.730000e-06	-5.109700e-07	-3.676473e-10	-3.545058e+00	-2.808856e+01
1.740000e-06	-4.642965e-07	-3.542713e-10	-3.221242e+00	-2.718174e+01
1.750000e-06	-4.175844e-07	-3.420699e-10	-2.897159e+00	-2.625311e+01
1.760000e-06	-3.707779e-07	-3.309265e-10	-2.572420e+00	-2.530239e+01
1.770000e-06	-3.239698e-07	-3.206766e-10	-2.247670e+00	-2.432937e+01
1.780000e-06	-2.771730e-07	-3.094243e-10	-1.922999e+00	-2.333389e+01
1.790000e-06	-2.302884e-07	-2.924962e-10	-1.597717e+00	-2.231592e+01
1.800000e-06	-1.833021e-07	-2.722109e-10	-1.271732e+00	-2.127547e+01
1.810000e-06	-1.363564e-07	-2.521254e-10	-9.460269e-01	-2.021269e+01
1.820000e-06	-8.942033e-08	-2.333495e-10	-6.203893e-01	-1.912777e+01
1.830000e-06	-4.247518e-08	-2.188813e-10	-2.946885e-01	-1.802103e+01
1.840000e-06	4.452950e-09	-2.058977e-10	3.089412e-02	-1.689287e+01
1.850000e-06	5.140599e-08	-1.951157e-10	3.566496e-01	-1.574380e+01
1.860000e-06	9.832278e-08	-1.821990e-10	6.821536e-01	-1.457442e+01
1.870000e-06	1.451786e-07	-1.662692e-10	1.007235e+00	-1.338541e+01
1.880000e-06	1.920642e-07	-1.488479e-10	1.332522e+00	-1.217756e+01
1.890000e-06	2.389500e-07	-1.305503e-10	1.657811e+00	-1.095176e+01
1.900000e-06	2.858615e-07	-1.137448e-10	1.983278e+00	-9.708965e+00
1.910000e-06	3.327324e-07	-9.603801e-11	2.308464e+00	-8.450236e+00
1.920000e-06	3.794901e-07	-7.912077e-11	2.632864e+00	-7.176704e+00
1.930000e-06	4.262616e-07	-6.359722e-11	2.957361e+00	-5.889578e+00
1.940000e-06	4.730591e-07	-4.791796e-11	3.282037e+00	-4.590138e+00
1.950000e-06	5.198210e-07	-3.335404e-11	3.606466e+00	-3.279727e+00
1.960000e-06	5.664946e-07	-1.957420e-11	3.930283e+00	-1.959746e+00
1.970000e-06	6.131331e-07	-4.535863e-12	4.253856e+00	-6.316454e-01
1.980000e-06	6.597421e-07	1.244651e-11	4.577225e+00	7.030819e-01
1.990000e-06	7.062633e-07	3.209004e-11	4.899984e+00	2.042908e+00
2.000000e-06	7.527260e-07	5.296279e-11	5.222337e+00	3.386280e+00
2.010000e-06	7.991233e-07	7.418498e-11	5.544238e+00	4.731624e+00
2.020000e-06	8.454684e-07	9.443057e-11	5.865775e+00	6.077362e+00
2.030000e-06	8.917861e-07	1.122912e-10	6.187122e+00	7.421910e+00
2.040000e-06	9.379612e-07	1.277352e-10	6.507481e+00	8.763697e+00
2.050000e-06	9.840310e-07	1.418704e-10	6.827108e+00	1.010116e+01
2.060000e-06	1.030116e-06	1.580763e-10	7.146838e+00	1.143278e+01
2.070000e-06	1.076150e-06	1.787925e-10	7.466221e+00	1.275705e+01
2.080000e-06	1.122108e-06	1.991955e-10	7.785072e+00	1.407252e+01
2.090000e-06	1.168032e-06	2.169685e-10	8.103687e+00	1.537777e+01
2.100000e-06	1.213892e-06	2.337180e-10	8.421864e+00	1.667147e+01
2.110000e-06	1.259602e-06	2.510945e-10	8.738992e+00	1.795232e+01
2.120000e-06	1.305121e-06	2.697260e-10	9.054802e+00	1.921910e+01
2.130000e-06	1.350562e-06	2.885045e-10	9.370063e+00	2.047067e+01
2.140000e-06	1.395975e-06	3.054714e-10	9.685135e+00	2.170597e+01
2.150000e-06	1.441386e-06	3.209046e-10	1.000019e+01	2.292403e+01
2.160000e-06	1.486750e-06	3.368175e-10	1.031492e+01	2.412394e+01
2.170000e-06	1.531946e-06	3.543976e-10	1.062849e+01	2.530493e+01
2.180000e-06	1.577005e-06	3.707330e-10	1.094110e+01	2.646627e+01
2.190000e-06	1.621857e-06	3.859800e-10	1.125228e+01	2.760736e+01
2.200000e-06	1.666533e-06	4.029342e-10	1.156224e+01	2.872769e+01
2.210000e-06	1.711098e-06	4.206831e-10	1.187143e+01	2.982684e+01
2.220000e-06	1.755452e-06	4.380659e-10	1.217915e+01	3.090449e+01
2.230000e-06	1.799621e-06	4.544026e-10	1.248559e+01	3.196040e+01
2.240000e-06	1.843708e-06	4.694431e-10	1.279146e+01	3.299445e+01
2.250000e-06	1.887714e-06	4.826134e-10	1.309677e+01	3.400657e+01
2.260000e-06	1.931636e-06	4.947179e-10	1.340150e+01	3.499680e+01
2.270000e-06	1.975504e-06	5.062924e-10	1.370585e+01	3.596526e+01
2.280000e-06	2.019308e-06	5.175075e-10	1.400976e+01	3.691215e+01
2.290000e-06	2.063052e-06	5.296431e-10	1.431325e+01	3.783771e+01
2.300000e-06	2.106771e-06	5.434799e-10	1.461656e+01	3.874228e+01
2.310000e-06	2.150478e-06	5.578199e-10	1.491980e+01	3.962625e+01
2.320000e-06	2.194069e-06	5.726584e-10	1.522223e+01	4.049004e+01
2.330000e-06	2.237538e-06	5.859670e-10	1.552381e+01	4.133416e+01
2.340000e-06	2.280897e-06	5.975755e-10	1.582463e+01	4.215912e+01
2.350000e-06	2.324115e-06	6.078501e-10	1.612447e+01	4.296547e+01
2.360000e-06	2.367155e-06	6.175129e-10	1.642308e+01	4.375380e+01
2.370000e-06	2.409894e-06	6.276443e-10	1.671960e+01	4.452471e+01
2.380000e-06	2.452304e-06	6.379467e-10	1.701384e+01	4.527880e+01
2.390000e-06	2.494416e-06	6.500562e-10	1.730601e+01	4.601669e+01
2.400000e-06	2.536238e-06	6.637072e-10	1.759616e+01	4.673900e+01
2.410000e-06	2.577733e-06	6.772010e-10	1.788405e+01	4.744633e+01
2.420000e-06	2.618914e-06	6.905758e-10	1.816976e+01	4.813926e+01
2.430000e-06	2.659810e-06	7.020033e-10	1.845349e+01	4.881838e+01
2.440000e-06	2.700415e-06	7.118600e-10	1.873521e+01	4.948422e+01
2.450000e-06	2.740803e-06	7.222962e-10	1.901542e+01	5.013730e+01
2.460000e-06	2.781050e-06	7.315805e-10	1.929465e+01	5.077811e+01
2.470000e-06	2.821067e-06	7.383018e-10	1.957228e+01	5.140708e+01
2.480000e-06	2.860858e-06	7.445201e-10	1.984834e+01	5.202463e+01
2.490000e-06	2.900551e-06	7.530346e-10	2.012373e+01	5.263112e+01
2.500000e-06	2.940137e-06	7.641415e-10	2.039837e+01	5.322687e+01
2.510000e-06	2.979611e-06	7.757848e-10	2.067224e+01	5.381215e+01
2.520000e-06	3.018967e-06	7.864057e-10	2.094529e+01	5.438718e+01
2.530000e-06	3.058123e-06	7.957856e-10	2.121695e+01	5.495216e+01
2.540000e-06	3.097044e-06	8.021461e-10	2.148698e+01	5.550720e+01
2.550000e-06	3.135644e-06	8.051381e-10	2.175479e+01	5.605242e+01
2.560000e-06	3.173965e-06	8.080595e-10	2.202065e+01	5.658785e+01
2.570000e-06	3.212147e-06	8.127953e-10	2.228555e+01	5.711350e+01
2.580000e-06	3.250078e-06	8.180137e-10	2.254872e+01	5.762936e+01
2.590000e-06	3.287695e-06	8.245038e-10	2.280970e+01	5.813535e+01
2.600000e-06	3.325168e-06	8.338509e-10	2.306969e+01	5.863138e+01
2.610000e-06	3.362554e-06	8.450220e-10	2.332906e+01	5.911734e+01
2.620000e-06	3.399658e-06	8.555309e-10	2.358649e+01	5.959308e+01
2.630000e-06	3.436422e-06	8.622283e-10	2.384155e+01	6.005845e+01
2.640000e-06	3.472961e-06	8.655438e-10	2.409505e+01	6.051327e+01
2.650000e-06	3.509296e-06	8.685486e-10	2.434714e+01	6.095736e+01
2.660000e-06	3.545380e-06	8.715470e-10	2.459749e+01	6.139055e+01
2.670000e-06	3.581274e-06	8.760295e-10	2.484652e+01	6.181264e+01
2.680000e-06	3.617049e-06	8.816484e-10	2.509472e+01	6.222347e+01
2.690000e-06	3.652710e-06	8.892466e-10	2.534213e+01	6.262286e+01
2.700000e-06	3.688262e-06	8.985057e-10	2.558879e+01	6.301067e+01
2.710000e-06	3.723600e-06	9.065703e-10	2.583397e+01	6.338677e+01
2.720000e-06	3.758647e-06	9.145764e-10	2.607711e+01	6.375104e+01
2.730000e-06	3.793385e-06	9.213548e-10	2.631812e+01	6.410342e+01
2.740000e-06	3.827721e-06	9.242849e-10	2.655634e+01	6.444384e+01
2.750000e-06	3.861584e-06	9.253321e-10	2.679129e+01	6.477231e+01
2.760000e-06	3.894914e-06	9.267298e-10	2.702252e+01	6.508884e+01
2.770000e-06	3.927684e-06	9.297228e-10	2.724987e+01	6.539348e+01
2.780000e-06	3.960064e-06	9.356928e-10	2.747452e+01	6.568634e+01
2.790000e-06	3.992149e-06	9.427414e-10	2.769713e+01	6.596756e+01
2.800000e-06	4.024057e-06	9.491993e-10	2.791851e+01	6.623732e+01
2.810000e-06	4.055867e-06	9.545079e-10	2.813920e+01	6.649584e+01
2.820000e-06	4.087503e-06	9.603261e-10	2.835868e+01	6.674340e+01
2.830000e-06	4.118914e-06	9.651217e-10	2.857661e+01	6.698028e+01
2.840000e-06	4.150051e-06	9.684302e-10	2.879264e+01	6.720685e+01
2.850000e-06	4.180943e-06	9.716177e-10	2.900696e+01	6.742347e+01
2.860000e-06	4.211547e-06	9.739317e-10	2.921929e+01	6.763057e+01
2.870000e-06	4.241830e-06	9.751584e-10	2.942939e+01	6.782860e+01
2.880000e-06	4.271862e-06	9.781946e-10	2.963775e+01	6.801802e+01
2.890000e-06	4.301678e-06	9.815588e-10	2.984461e+01	6.819934e+01
2.900000e-06	4.331218e-06	9.862166e-10	3.004956e+01	6.837309e+01
