# Temperatura_=_9.9
# Concentracion g/m^3_=_1620.0
# C_Vs_to_Am_M_A/Vsm_=_65563218390.804596
# pendiente_HvsI_1/m_=_3716.3
# ordenada_HvsI_A/m_=_1297.0
# frecuencia_Hz_=_135101.88278587302

Tiempo_(s)	Campo_(V.s)	Magnetizacion_(V.s)	Campo_(kA/m)	Magnetizacion_(A/m)
0.000000e+00	-5.520627e-06	-7.689024e-10	-3.837403e+01	-5.090897e+01
1.000000e-08	-5.520814e-06	-7.680162e-10	-3.837533e+01	-5.093422e+01
2.000000e-08	-5.520697e-06	-7.677591e-10	-3.837451e+01	-5.096052e+01
3.000000e-08	-5.520176e-06	-7.687553e-10	-3.837089e+01	-5.098774e+01
4.000000e-08	-5.519153e-06	-7.676319e-10	-3.836378e+01	-5.101572e+01
5.000000e-08	-5.517560e-06	-7.613964e-10	-3.835271e+01	-5.104430e+01
6.000000e-08	-5.515387e-06	-7.429687e-10	-3.833760e+01	-5.107327e+01
7.000000e-08	-5.512582e-06	-7.148556e-10	-3.831811e+01	-5.110244e+01
8.000000e-08	-5.509253e-06	-7.231531e-10	-3.829497e+01	-5.113156e+01
9.000000e-08	-5.505521e-06	-8.096795e-10	-3.826903e+01	-5.116041e+01
1.000000e-07	-5.501359e-06	-8.704366e-10	-3.824010e+01	-5.118873e+01
1.100000e-07	-5.496873e-06	-7.842755e-10	-3.820891e+01	-5.121626e+01
1.200000e-07	-5.492201e-06	-6.482706e-10	-3.817644e+01	-5.124272e+01
1.300000e-07	-5.487366e-06	-7.100510e-10	-3.814283e+01	-5.126784e+01
1.400000e-07	-5.482155e-06	-8.174775e-10	-3.810661e+01	-5.129134e+01
1.500000e-07	-5.476414e-06	-7.724292e-10	-3.806670e+01	-5.131295e+01
1.600000e-07	-5.470314e-06	-6.383548e-10	-3.802430e+01	-5.133239e+01
1.700000e-07	-5.463948e-06	-7.022876e-10	-3.798005e+01	-5.134939e+01
1.800000e-07	-5.457137e-06	-8.551604e-10	-3.793271e+01	-5.136369e+01
1.900000e-07	-5.449808e-06	-8.286427e-10	-3.788176e+01	-5.137504e+01
2.000000e-07	-5.442190e-06	-7.114506e-10	-3.782881e+01	-5.138319e+01
2.100000e-07	-5.434430e-06	-7.151110e-10	-3.777487e+01	-5.138792e+01
2.200000e-07	-5.426424e-06	-8.243853e-10	-3.771922e+01	-5.138902e+01
2.300000e-07	-5.418088e-06	-8.340983e-10	-3.766128e+01	-5.138630e+01
2.400000e-07	-5.409374e-06	-7.774245e-10	-3.760071e+01	-5.137958e+01
2.500000e-07	-5.399941e-06	-7.758650e-10	-3.753513e+01	-5.136872e+01
2.600000e-07	-5.389674e-06	-8.272059e-10	-3.746377e+01	-5.135358e+01
2.700000e-07	-5.378891e-06	-8.154790e-10	-3.738882e+01	-5.133407e+01
2.800000e-07	-5.367691e-06	-7.817921e-10	-3.731097e+01	-5.131009e+01
2.900000e-07	-5.356027e-06	-7.931116e-10	-3.722989e+01	-5.128159e+01
3.000000e-07	-5.344016e-06	-8.412163e-10	-3.714640e+01	-5.124855e+01
3.100000e-07	-5.331732e-06	-8.123463e-10	-3.706101e+01	-5.121094e+01
3.200000e-07	-5.319027e-06	-7.679393e-10	-3.697270e+01	-5.116879e+01
3.300000e-07	-5.305829e-06	-7.700919e-10	-3.688096e+01	-5.112214e+01
3.400000e-07	-5.292273e-06	-8.137844e-10	-3.678673e+01	-5.107105e+01
3.500000e-07	-5.278288e-06	-7.931748e-10	-3.668952e+01	-5.101561e+01
3.600000e-07	-5.263762e-06	-7.583660e-10	-3.658856e+01	-5.095592e+01
3.700000e-07	-5.248767e-06	-7.828157e-10	-3.648432e+01	-5.089212e+01
3.800000e-07	-5.233366e-06	-8.150352e-10	-3.637727e+01	-5.082434e+01
3.900000e-07	-5.217470e-06	-7.667333e-10	-3.626677e+01	-5.075276e+01
4.000000e-07	-5.200989e-06	-7.539358e-10	-3.615222e+01	-5.067754e+01
4.100000e-07	-5.184241e-06	-8.133509e-10	-3.603580e+01	-5.059888e+01
4.200000e-07	-5.167199e-06	-7.940542e-10	-3.591734e+01	-5.051699e+01
4.300000e-07	-5.149690e-06	-7.292545e-10	-3.579563e+01	-5.043206e+01
4.400000e-07	-5.131937e-06	-7.816308e-10	-3.567223e+01	-5.034433e+01
4.500000e-07	-5.113937e-06	-8.344414e-10	-3.554711e+01	-5.025400e+01
4.600000e-07	-5.095422e-06	-7.489885e-10	-3.541841e+01	-5.016132e+01
4.700000e-07	-5.076387e-06	-7.220055e-10	-3.528611e+01	-5.006649e+01
4.800000e-07	-5.057094e-06	-7.975197e-10	-3.515200e+01	-4.996975e+01
4.900000e-07	-5.037637e-06	-7.824546e-10	-3.501675e+01	-4.987132e+01
5.000000e-07	-5.017989e-06	-7.264784e-10	-3.488017e+01	-4.977142e+01
5.100000e-07	-4.998126e-06	-7.815556e-10	-3.474211e+01	-4.967024e+01
5.200000e-07	-4.977955e-06	-7.830179e-10	-3.460190e+01	-4.956800e+01
5.300000e-07	-4.957369e-06	-7.154101e-10	-3.445880e+01	-4.946487e+01
5.400000e-07	-4.936354e-06	-7.533625e-10	-3.431273e+01	-4.936105e+01
5.500000e-07	-4.914985e-06	-8.102633e-10	-3.416420e+01	-4.925668e+01
5.600000e-07	-4.893284e-06	-7.341806e-10	-3.401335e+01	-4.915193e+01
5.700000e-07	-4.871262e-06	-7.152512e-10	-3.386027e+01	-4.904692e+01
5.800000e-07	-4.848877e-06	-7.816326e-10	-3.370468e+01	-4.894178e+01
5.900000e-07	-4.826073e-06	-7.560101e-10	-3.354616e+01	-4.883661e+01
6.000000e-07	-4.802949e-06	-7.048243e-10	-3.338543e+01	-4.873150e+01
6.100000e-07	-4.779605e-06	-7.591892e-10	-3.322316e+01	-4.862651e+01
6.200000e-07	-4.756045e-06	-7.645587e-10	-3.305940e+01	-4.852171e+01
6.300000e-07	-4.732230e-06	-7.080952e-10	-3.289386e+01	-4.841712e+01
6.400000e-07	-4.708092e-06	-7.253985e-10	-3.272607e+01	-4.831276e+01
6.500000e-07	-4.683536e-06	-7.549370e-10	-3.255539e+01	-4.820864e+01
6.600000e-07	-4.658453e-06	-7.142758e-10	-3.238103e+01	-4.810476e+01
6.700000e-07	-4.632898e-06	-7.122267e-10	-3.220340e+01	-4.800107e+01
6.800000e-07	-4.606902e-06	-7.424981e-10	-3.202270e+01	-4.789756e+01
6.900000e-07	-4.580308e-06	-7.176870e-10	-3.183784e+01	-4.779415e+01
7.000000e-07	-4.553229e-06	-6.991679e-10	-3.164962e+01	-4.769080e+01
7.100000e-07	-4.525891e-06	-7.250653e-10	-3.145959e+01	-4.758742e+01
7.200000e-07	-4.498362e-06	-7.165075e-10	-3.126823e+01	-4.748394e+01
7.300000e-07	-4.470646e-06	-6.926342e-10	-3.107558e+01	-4.738025e+01
7.400000e-07	-4.442767e-06	-7.123828e-10	-3.088179e+01	-4.727628e+01
7.500000e-07	-4.414679e-06	-7.190781e-10	-3.068656e+01	-4.717190e+01
7.600000e-07	-4.386286e-06	-6.957604e-10	-3.048920e+01	-4.706702e+01
7.700000e-07	-4.357570e-06	-6.952702e-10	-3.028959e+01	-4.696152e+01
7.800000e-07	-4.328475e-06	-7.009438e-10	-3.008735e+01	-4.685529e+01
7.900000e-07	-4.299068e-06	-6.815909e-10	-2.988294e+01	-4.674821e+01
8.000000e-07	-4.269457e-06	-6.822215e-10	-2.967711e+01	-4.664017e+01
8.100000e-07	-4.239569e-06	-6.914355e-10	-2.946936e+01	-4.653105e+01
8.200000e-07	-4.209358e-06	-6.792419e-10	-2.925936e+01	-4.642074e+01
8.300000e-07	-4.178813e-06	-6.742714e-10	-2.904704e+01	-4.630913e+01
8.400000e-07	-4.147933e-06	-6.927356e-10	-2.883239e+01	-4.619611e+01
8.500000e-07	-4.116780e-06	-6.874627e-10	-2.861585e+01	-4.608157e+01
8.600000e-07	-4.085426e-06	-6.736677e-10	-2.839791e+01	-4.596542e+01
8.700000e-07	-4.053951e-06	-6.767976e-10	-2.817913e+01	-4.584755e+01
8.800000e-07	-4.022362e-06	-6.767831e-10	-2.795954e+01	-4.572788e+01
8.900000e-07	-3.990557e-06	-6.644647e-10	-2.773847e+01	-4.560631e+01
9.000000e-07	-3.958520e-06	-6.705196e-10	-2.751578e+01	-4.548276e+01
9.100000e-07	-3.926190e-06	-6.758039e-10	-2.729105e+01	-4.535714e+01
9.200000e-07	-3.893350e-06	-6.663981e-10	-2.706278e+01	-4.522939e+01
9.300000e-07	-3.860014e-06	-6.657856e-10	-2.683106e+01	-4.509942e+01
9.400000e-07	-3.826191e-06	-6.761285e-10	-2.659596e+01	-4.496717e+01
9.500000e-07	-3.791827e-06	-6.691672e-10	-2.635709e+01	-4.483258e+01
9.600000e-07	-3.757037e-06	-6.604715e-10	-2.611526e+01	-4.469556e+01
9.700000e-07	-3.722012e-06	-6.637226e-10	-2.587180e+01	-4.455607e+01
9.800000e-07	-3.686782e-06	-6.601367e-10	-2.562692e+01	-4.441403e+01
9.900000e-07	-3.651302e-06	-6.529534e-10	-2.538030e+01	-4.426939e+01
1.000000e-06	-3.615683e-06	-6.600425e-10	-2.513271e+01	-4.412209e+01
1.010000e-06	-3.579991e-06	-6.643683e-10	-2.488462e+01	-4.397206e+01
1.020000e-06	-3.544202e-06	-6.567650e-10	-2.463584e+01	-4.381925e+01
1.030000e-06	-3.508265e-06	-6.548215e-10	-2.438604e+01	-4.366358e+01
1.040000e-06	-3.472045e-06	-6.551642e-10	-2.413428e+01	-4.350499e+01
1.050000e-06	-3.435516e-06	-6.457181e-10	-2.388037e+01	-4.334342e+01
1.060000e-06	-3.398707e-06	-6.382291e-10	-2.362451e+01	-4.317879e+01
1.070000e-06	-3.361604e-06	-6.396878e-10	-2.336660e+01	-4.301102e+01
1.080000e-06	-3.324276e-06	-6.349668e-10	-2.310713e+01	-4.284005e+01
1.090000e-06	-3.286712e-06	-6.314241e-10	-2.284602e+01	-4.266579e+01
1.100000e-06	-3.248875e-06	-6.345008e-10	-2.258302e+01	-4.248815e+01
1.110000e-06	-3.210725e-06	-6.342082e-10	-2.231783e+01	-4.230706e+01
1.120000e-06	-3.172279e-06	-6.259266e-10	-2.205060e+01	-4.212241e+01
1.130000e-06	-3.133743e-06	-6.241800e-10	-2.178274e+01	-4.193411e+01
1.140000e-06	-3.095132e-06	-6.238312e-10	-2.151435e+01	-4.174208e+01
1.150000e-06	-3.056277e-06	-6.173226e-10	-2.124427e+01	-4.154619e+01
1.160000e-06	-3.017118e-06	-6.099714e-10	-2.097207e+01	-4.134636e+01
1.170000e-06	-2.977761e-06	-6.070609e-10	-2.069849e+01	-4.114248e+01
1.180000e-06	-2.938315e-06	-6.028949e-10	-2.042431e+01	-4.093443e+01
1.190000e-06	-2.898777e-06	-6.015657e-10	-2.014947e+01	-4.072211e+01
1.200000e-06	-2.859120e-06	-6.034375e-10	-1.987382e+01	-4.050541e+01
1.210000e-06	-2.819314e-06	-6.025755e-10	-1.959713e+01	-4.028422e+01
1.220000e-06	-2.779429e-06	-5.951610e-10	-1.931988e+01	-4.005842e+01
1.230000e-06	-2.739395e-06	-5.893061e-10	-1.904161e+01	-3.982790e+01
1.240000e-06	-2.699185e-06	-5.835659e-10	-1.876211e+01	-3.959255e+01
1.250000e-06	-2.658718e-06	-5.760043e-10	-1.848082e+01	-3.935226e+01
1.260000e-06	-2.617972e-06	-5.718115e-10	-1.819759e+01	-3.910691e+01
1.270000e-06	-2.577036e-06	-5.728786e-10	-1.791305e+01	-3.885640e+01
1.280000e-06	-2.535726e-06	-5.708869e-10	-1.762590e+01	-3.860062e+01
1.290000e-06	-2.494021e-06	-5.643942e-10	-1.733601e+01	-3.833946e+01
1.300000e-06	-2.452034e-06	-5.583936e-10	-1.704416e+01	-3.807281e+01
1.310000e-06	-2.409784e-06	-5.516001e-10	-1.675047e+01	-3.780057e+01
1.320000e-06	-2.367223e-06	-5.444003e-10	-1.645463e+01	-3.752264e+01
1.330000e-06	-2.324295e-06	-5.413694e-10	-1.615624e+01	-3.723890e+01
1.340000e-06	-2.281093e-06	-5.409584e-10	-1.585594e+01	-3.694927e+01
1.350000e-06	-2.237758e-06	-5.373259e-10	-1.555472e+01	-3.665362e+01
1.360000e-06	-2.194349e-06	-5.327820e-10	-1.525298e+01	-3.635186e+01
1.370000e-06	-2.150863e-06	-5.271673e-10	-1.495070e+01	-3.604389e+01
1.380000e-06	-2.107297e-06	-5.196411e-10	-1.464788e+01	-3.572958e+01
1.390000e-06	-2.063669e-06	-5.120621e-10	-1.434462e+01	-3.540884e+01
1.400000e-06	-2.019950e-06	-5.056844e-10	-1.404072e+01	-3.508154e+01
1.410000e-06	-1.976181e-06	-4.973894e-10	-1.373649e+01	-3.474757e+01
1.420000e-06	-1.932357e-06	-4.907130e-10	-1.343186e+01	-3.440679e+01
1.430000e-06	-1.888387e-06	-4.894490e-10	-1.312623e+01	-3.405908e+01
1.440000e-06	-1.844273e-06	-4.897210e-10	-1.281959e+01	-3.370429e+01
1.450000e-06	-1.800004e-06	-4.837052e-10	-1.251187e+01	-3.334227e+01
1.460000e-06	-1.755595e-06	-4.737504e-10	-1.220318e+01	-3.297287e+01
1.470000e-06	-1.711063e-06	-4.620005e-10	-1.189364e+01	-3.259592e+01
1.480000e-06	-1.666395e-06	-4.510428e-10	-1.158316e+01	-3.221123e+01
1.490000e-06	-1.621571e-06	-4.443033e-10	-1.127159e+01	-3.181861e+01
1.500000e-06	-1.576609e-06	-4.415775e-10	-1.095905e+01	-3.141785e+01
1.510000e-06	-1.531570e-06	-4.385804e-10	-1.064598e+01	-3.100874e+01
1.520000e-06	-1.486443e-06	-4.338914e-10	-1.033230e+01	-3.059105e+01
1.530000e-06	-1.441167e-06	-4.261043e-10	-1.001759e+01	-3.016452e+01
1.540000e-06	-1.395792e-06	-4.163848e-10	-9.702184e+00	-2.972890e+01
1.550000e-06	-1.350370e-06	-4.054371e-10	-9.386457e+00	-2.928392e+01
1.560000e-06	-1.304889e-06	-3.960655e-10	-9.070319e+00	-2.882930e+01
1.570000e-06	-1.259261e-06	-3.875324e-10	-8.753158e+00	-2.836472e+01
1.580000e-06	-1.213573e-06	-3.786215e-10	-8.435577e+00	-2.788989e+01
1.590000e-06	-1.167859e-06	-3.709599e-10	-8.117820e+00	-2.740449e+01
1.600000e-06	-1.122021e-06	-3.645065e-10	-7.799199e+00	-2.690818e+01
1.610000e-06	-1.076090e-06	-3.585158e-10	-7.479930e+00	-2.640064e+01
1.620000e-06	-1.030095e-06	-3.518991e-10	-7.160220e+00	-2.588151e+01
1.630000e-06	-9.841297e-07	-3.435876e-10	-6.840712e+00	-2.535046e+01
1.640000e-06	-9.381068e-07	-3.322114e-10	-6.520806e+00	-2.480714e+01
1.650000e-06	-8.919690e-07	-3.205815e-10	-6.200101e+00	-2.425119e+01
1.660000e-06	-8.457666e-07	-3.118076e-10	-5.878947e+00	-2.368229e+01
1.670000e-06	-7.994064e-07	-3.047256e-10	-5.556696e+00	-2.310010e+01
1.680000e-06	-7.529981e-07	-2.980557e-10	-5.234110e+00	-2.250429e+01
1.690000e-06	-7.066110e-07	-2.936527e-10	-4.911672e+00	-2.189455e+01
1.700000e-06	-6.601563e-07	-2.884393e-10	-4.588764e+00	-2.127058e+01
1.710000e-06	-6.137071e-07	-2.793100e-10	-4.265895e+00	-2.063211e+01
1.720000e-06	-5.671677e-07	-2.661861e-10	-3.942398e+00	-1.997889e+01
1.730000e-06	-5.205281e-07	-2.533386e-10	-3.618205e+00	-1.931068e+01
1.740000e-06	-4.739165e-07	-2.396147e-10	-3.294206e+00	-1.862730e+01
1.750000e-06	-4.272212e-07	-2.253536e-10	-2.969626e+00	-1.792858e+01
1.760000e-06	-3.804090e-07	-2.146740e-10	-2.644233e+00	-1.721439e+01
1.770000e-06	-3.335002e-07	-2.063314e-10	-2.318169e+00	-1.648465e+01
1.780000e-06	-2.865327e-07	-2.009238e-10	-1.991697e+00	-1.573932e+01
1.790000e-06	-2.396524e-07	-1.932527e-10	-1.665830e+00	-1.497841e+01
1.800000e-06	-1.927977e-07	-1.816244e-10	-1.340142e+00	-1.420196e+01
1.810000e-06	-1.458797e-07	-1.669674e-10	-1.014014e+00	-1.341008e+01
1.820000e-06	-9.894216e-08	-1.514621e-10	-6.877496e-01	-1.260293e+01
1.830000e-06	-5.196046e-08	-1.366275e-10	-3.611785e-01	-1.178073e+01
1.840000e-06	-5.036984e-09	-1.206147e-10	-3.501221e-02	-1.094376e+01
1.850000e-06	4.177942e-08	-1.094181e-10	2.904099e-01	-1.009234e+01
1.860000e-06	8.861646e-08	-1.025755e-10	6.159754e-01	-9.226879e+00
1.870000e-06	1.354235e-07	-9.494978e-11	9.413323e-01	-8.347818e+00
1.880000e-06	1.822043e-07	-8.555389e-11	1.266507e+00	-7.455678e+00
1.890000e-06	2.290586e-07	-7.224983e-11	1.592193e+00	-6.551035e+00
1.900000e-06	2.758917e-07	-5.499809e-11	1.917731e+00	-5.634524e+00
1.910000e-06	3.226888e-07	-3.728804e-11	2.243019e+00	-4.706840e+00
1.920000e-06	3.694009e-07	-2.144770e-11	2.567716e+00	-3.768733e+00
1.930000e-06	4.160310e-07	-9.447940e-12	2.891842e+00	-2.821012e+00
1.940000e-06	4.626754e-07	-4.536032e-13	3.216069e+00	-1.864534e+00
1.950000e-06	5.093147e-07	4.913273e-12	3.540260e+00	-9.002075e-01
1.960000e-06	5.559086e-07	1.430870e-11	3.864136e+00	7.101201e-02
1.970000e-06	6.024669e-07	2.792215e-11	4.187764e+00	1.048128e+00
1.980000e-06	6.490271e-07	4.461279e-11	4.511405e+00	2.030104e+00
1.990000e-06	6.954475e-07	6.313264e-11	4.834074e+00	3.015873e+00
2.000000e-06	7.417134e-07	8.239570e-11	5.155670e+00	4.004334e+00
2.010000e-06	7.879320e-07	9.929581e-11	5.476936e+00	4.994367e+00
2.020000e-06	8.340722e-07	1.112824e-10	5.797658e+00	5.984829e+00
2.030000e-06	8.802101e-07	1.215342e-10	6.118364e+00	6.974567e+00
2.040000e-06	9.264536e-07	1.318057e-10	6.439804e+00	7.962419e+00
2.050000e-06	9.726854e-07	1.432450e-10	6.761163e+00	8.947222e+00
2.060000e-06	1.018755e-06	1.557722e-10	7.081395e+00	9.927815e+00
2.070000e-06	1.064658e-06	1.726456e-10	7.400466e+00	1.090305e+01
2.080000e-06	1.110495e-06	1.929256e-10	7.719081e+00	1.187179e+01
2.090000e-06	1.156245e-06	2.126999e-10	8.037092e+00	1.283293e+01
2.100000e-06	1.201882e-06	2.295402e-10	8.354311e+00	1.378539e+01
2.110000e-06	1.247464e-06	2.417953e-10	8.671153e+00	1.472810e+01
2.120000e-06	1.292995e-06	2.533117e-10	8.987641e+00	1.566007e+01
2.130000e-06	1.338478e-06	2.632548e-10	9.303795e+00	1.658031e+01
2.140000e-06	1.383886e-06	2.725438e-10	9.619428e+00	1.748791e+01
2.150000e-06	1.429116e-06	2.826060e-10	9.933824e+00	1.838200e+01
2.160000e-06	1.474223e-06	2.965839e-10	1.024736e+01	1.926177e+01
2.170000e-06	1.519284e-06	3.151543e-10	1.056059e+01	2.012646e+01
2.180000e-06	1.564227e-06	3.314749e-10	1.087298e+01	2.097539e+01
2.190000e-06	1.609037e-06	3.449828e-10	1.118446e+01	2.180794e+01
2.200000e-06	1.653679e-06	3.543450e-10	1.149477e+01	2.262355e+01
2.210000e-06	1.698186e-06	3.618248e-10	1.180414e+01	2.342175e+01
2.220000e-06	1.742671e-06	3.685343e-10	1.211335e+01	2.420211e+01
2.230000e-06	1.787051e-06	3.774959e-10	1.242184e+01	2.496431e+01
2.240000e-06	1.831265e-06	3.878291e-10	1.272917e+01	2.570807e+01
2.250000e-06	1.875318e-06	4.002161e-10	1.303538e+01	2.643322e+01
2.260000e-06	1.919253e-06	4.117198e-10	1.334078e+01	2.713961e+01
2.270000e-06	1.963156e-06	4.214401e-10	1.364595e+01	2.782721e+01
2.280000e-06	2.006980e-06	4.290673e-10	1.395057e+01	2.849603e+01
2.290000e-06	2.050687e-06	4.343141e-10	1.425438e+01	2.914615e+01
2.300000e-06	2.094323e-06	4.398008e-10	1.455770e+01	2.977773e+01
2.310000e-06	2.137934e-06	4.470378e-10	1.486084e+01	3.039097e+01
2.320000e-06	2.181453e-06	4.551635e-10	1.516334e+01	3.098613e+01
2.330000e-06	2.224849e-06	4.636892e-10	1.546499e+01	3.156353e+01
2.340000e-06	2.268136e-06	4.706886e-10	1.576587e+01	3.212355e+01
2.350000e-06	2.311282e-06	4.767155e-10	1.606579e+01	3.266657e+01
2.360000e-06	2.354235e-06	4.823234e-10	1.636435e+01	3.319307e+01
2.370000e-06	2.396905e-06	4.883037e-10	1.666095e+01	3.370352e+01
2.380000e-06	2.439316e-06	4.945624e-10	1.695575e+01	3.419843e+01
2.390000e-06	2.481433e-06	5.005201e-10	1.724851e+01	3.467834e+01
2.400000e-06	2.523186e-06	5.068359e-10	1.753873e+01	3.514381e+01
2.410000e-06	2.564644e-06	5.142403e-10	1.782691e+01	3.559540e+01
2.420000e-06	2.605801e-06	5.227689e-10	1.811299e+01	3.603370e+01
2.430000e-06	2.646681e-06	5.299442e-10	1.839715e+01	3.645929e+01
2.440000e-06	2.687270e-06	5.372126e-10	1.867928e+01	3.687275e+01
2.450000e-06	2.727505e-06	5.446288e-10	1.895896e+01	3.727466e+01
2.460000e-06	2.767541e-06	5.505514e-10	1.923725e+01	3.766557e+01
2.470000e-06	2.807421e-06	5.545252e-10	1.951446e+01	3.804604e+01
2.480000e-06	2.847147e-06	5.581491e-10	1.979060e+01	3.841661e+01
2.490000e-06	2.886785e-06	5.627313e-10	2.006612e+01	3.877778e+01
2.500000e-06	2.926331e-06	5.704560e-10	2.034101e+01	3.913003e+01
2.510000e-06	2.965799e-06	5.790586e-10	2.061535e+01	3.947383e+01
2.520000e-06	3.005146e-06	5.873816e-10	2.088885e+01	3.980959e+01
2.530000e-06	3.044260e-06	5.934404e-10	2.116073e+01	4.013772e+01
2.540000e-06	3.083132e-06	5.960222e-10	2.143093e+01	4.045857e+01
2.550000e-06	3.121824e-06	5.963287e-10	2.169989e+01	4.077245e+01
2.560000e-06	3.160202e-06	5.988328e-10	2.196665e+01	4.107967e+01
2.570000e-06	3.198340e-06	6.038084e-10	2.223175e+01	4.138047e+01
2.580000e-06	3.236320e-06	6.091439e-10	2.249575e+01	4.167507e+01
2.590000e-06	3.274043e-06	6.131197e-10	2.275796e+01	4.196364e+01
2.600000e-06	3.311582e-06	6.167851e-10	2.301890e+01	4.224634e+01
2.610000e-06	3.348974e-06	6.224053e-10	2.327881e+01	4.252326e+01
2.620000e-06	3.386113e-06	6.286946e-10	2.353696e+01	4.279450e+01
2.630000e-06	3.422913e-06	6.325394e-10	2.379276e+01	4.306010e+01
2.640000e-06	3.459478e-06	6.342018e-10	2.404692e+01	4.332007e+01
2.650000e-06	3.495771e-06	6.375558e-10	2.429920e+01	4.357443e+01
2.660000e-06	3.531759e-06	6.424179e-10	2.454935e+01	4.382315e+01
2.670000e-06	3.567574e-06	6.469505e-10	2.479830e+01	4.406617e+01
2.680000e-06	3.603274e-06	6.515138e-10	2.504645e+01	4.430345e+01
2.690000e-06	3.638885e-06	6.562809e-10	2.529399e+01	4.453490e+01
2.700000e-06	3.674339e-06	6.603442e-10	2.554043e+01	4.476045e+01
2.710000e-06	3.709573e-06	6.646582e-10	2.578534e+01	4.498001e+01
2.720000e-06	3.744615e-06	6.701175e-10	2.602892e+01	4.519347e+01
2.730000e-06	3.779409e-06	6.751279e-10	2.627078e+01	4.540076e+01
2.740000e-06	3.813799e-06	6.774500e-10	2.650982e+01	4.560179e+01
2.750000e-06	3.847736e-06	6.789829e-10	2.674572e+01	4.579646e+01
2.760000e-06	3.881212e-06	6.809077e-10	2.697841e+01	4.598472e+01
2.770000e-06	3.914211e-06	6.846233e-10	2.720778e+01	4.616649e+01
2.780000e-06	3.946734e-06	6.906064e-10	2.743386e+01	4.634173e+01
2.790000e-06	3.978883e-06	6.972410e-10	2.765732e+01	4.651042e+01
2.800000e-06	4.010767e-06	7.026782e-10	2.787895e+01	4.667253e+01
2.810000e-06	4.042465e-06	7.062633e-10	2.809929e+01	4.682809e+01
2.820000e-06	4.074050e-06	7.078192e-10	2.831883e+01	4.697711e+01
2.830000e-06	4.105445e-06	7.043774e-10	2.853706e+01	4.711965e+01
2.840000e-06	4.136651e-06	6.973608e-10	2.875397e+01	4.725580e+01
2.850000e-06	4.167586e-06	6.951601e-10	2.896900e+01	4.738563e+01
2.860000e-06	4.198161e-06	6.989611e-10	2.918153e+01	4.750929e+01
2.870000e-06	4.228461e-06	7.041269e-10	2.939215e+01	4.762691e+01
2.880000e-06	4.258451e-06	7.098725e-10	2.960061e+01	4.773867e+01
2.890000e-06	4.288067e-06	7.157817e-10	2.980647e+01	4.784476e+01
2.900000e-06	4.317429e-06	7.190768e-10	3.001057e+01	4.794538e+01
