# Temperatura_=_-0.27
# Concentracion g/m^3_=_1620.0
# C_Vs_to_Am_M_A/Vsm_=_65563218390.804596
# pendiente_HvsI_1/m_=_3716.3
# ordenada_HvsI_A/m_=_1297.0
# frecuencia_Hz_=_135109.03437088375

Tiempo_(s)	Campo_(V.s)	Magnetizacion_(V.s)	Campo_(kA/m)	Magnetizacion_(A/m)
0.000000e+00	-5.516447e-06	-1.278057e-09	-3.836428e+01	-8.332870e+01
1.000000e-08	-5.516625e-06	-1.279490e-09	-3.836552e+01	-8.338102e+01
2.000000e-08	-5.516520e-06	-1.282650e-09	-3.836479e+01	-8.343242e+01
3.000000e-08	-5.515963e-06	-1.284675e-09	-3.836092e+01	-8.348254e+01
4.000000e-08	-5.514783e-06	-1.283404e-09	-3.835271e+01	-8.353100e+01
5.000000e-08	-5.512988e-06	-1.280392e-09	-3.834022e+01	-8.357741e+01
6.000000e-08	-5.510576e-06	-1.271299e-09	-3.832345e+01	-8.362136e+01
7.000000e-08	-5.507626e-06	-1.273915e-09	-3.830294e+01	-8.366246e+01
8.000000e-08	-5.504260e-06	-1.287247e-09	-3.827952e+01	-8.370028e+01
9.000000e-08	-5.500453e-06	-1.276476e-09	-3.825305e+01	-8.373444e+01
1.000000e-07	-5.496257e-06	-1.267176e-09	-3.822387e+01	-8.376452e+01
1.100000e-07	-5.491785e-06	-1.306458e-09	-3.819277e+01	-8.379014e+01
1.200000e-07	-5.487075e-06	-1.281403e-09	-3.816001e+01	-8.381093e+01
1.300000e-07	-5.482127e-06	-1.252357e-09	-3.812561e+01	-8.382651e+01
1.400000e-07	-5.476834e-06	-1.226223e-09	-3.808879e+01	-8.383655e+01
1.500000e-07	-5.471104e-06	-1.253538e-09	-3.804894e+01	-8.384073e+01
1.600000e-07	-5.464943e-06	-1.274996e-09	-3.800609e+01	-8.383876e+01
1.700000e-07	-5.458387e-06	-1.261536e-09	-3.796050e+01	-8.383038e+01
1.800000e-07	-5.451469e-06	-1.299490e-09	-3.791239e+01	-8.381535e+01
1.900000e-07	-5.444173e-06	-1.289185e-09	-3.786165e+01	-8.379347e+01
2.000000e-07	-5.436564e-06	-1.281951e-09	-3.780874e+01	-8.376457e+01
2.100000e-07	-5.428727e-06	-1.250101e-09	-3.775423e+01	-8.372852e+01
2.200000e-07	-5.420625e-06	-1.280352e-09	-3.769788e+01	-8.368523e+01
2.300000e-07	-5.412189e-06	-1.289879e-09	-3.763921e+01	-8.363462e+01
2.400000e-07	-5.403209e-06	-1.316398e-09	-3.757676e+01	-8.357668e+01
2.500000e-07	-5.393611e-06	-1.305084e-09	-3.751002e+01	-8.351143e+01
2.600000e-07	-5.383473e-06	-1.295182e-09	-3.743951e+01	-8.343890e+01
2.700000e-07	-5.372637e-06	-1.262230e-09	-3.736415e+01	-8.335918e+01
2.800000e-07	-5.361269e-06	-1.266907e-09	-3.728509e+01	-8.327240e+01
2.900000e-07	-5.349589e-06	-1.274898e-09	-3.720386e+01	-8.317869e+01
3.000000e-07	-5.337562e-06	-1.279791e-09	-3.712022e+01	-8.307824e+01
3.100000e-07	-5.325134e-06	-1.279287e-09	-3.703379e+01	-8.297126e+01
3.200000e-07	-5.312255e-06	-1.287918e-09	-3.694422e+01	-8.285797e+01
3.300000e-07	-5.298926e-06	-1.288638e-09	-3.685153e+01	-8.273864e+01
3.400000e-07	-5.285192e-06	-1.252408e-09	-3.675601e+01	-8.261354e+01
3.500000e-07	-5.271101e-06	-1.251441e-09	-3.665802e+01	-8.248296e+01
3.600000e-07	-5.256572e-06	-1.250371e-09	-3.655697e+01	-8.234722e+01
3.700000e-07	-5.241541e-06	-1.249160e-09	-3.645244e+01	-8.220664e+01
3.800000e-07	-5.225933e-06	-1.257311e-09	-3.634389e+01	-8.206154e+01
3.900000e-07	-5.209839e-06	-1.297604e-09	-3.623197e+01	-8.191226e+01
4.000000e-07	-5.193322e-06	-1.253128e-09	-3.611710e+01	-8.175913e+01
4.100000e-07	-5.176434e-06	-1.220923e-09	-3.599965e+01	-8.160248e+01
4.200000e-07	-5.159288e-06	-1.251260e-09	-3.588041e+01	-8.144266e+01
4.300000e-07	-5.141803e-06	-1.263494e-09	-3.575881e+01	-8.127997e+01
4.400000e-07	-5.123909e-06	-1.197913e-09	-3.563437e+01	-8.111474e+01
4.500000e-07	-5.105622e-06	-1.229987e-09	-3.550719e+01	-8.094727e+01
4.600000e-07	-5.086969e-06	-1.276346e-09	-3.537747e+01	-8.077783e+01
4.700000e-07	-5.067902e-06	-1.223620e-09	-3.524486e+01	-8.060670e+01
4.800000e-07	-5.048449e-06	-1.190690e-09	-3.510958e+01	-8.043413e+01
4.900000e-07	-5.028806e-06	-1.264674e-09	-3.497297e+01	-8.026034e+01
5.000000e-07	-5.009002e-06	-1.236250e-09	-3.483524e+01	-8.008554e+01
5.100000e-07	-4.988948e-06	-1.171634e-09	-3.469578e+01	-7.990992e+01
5.200000e-07	-4.968569e-06	-1.220739e-09	-3.455405e+01	-7.973363e+01
5.300000e-07	-4.947829e-06	-1.257189e-09	-3.440981e+01	-7.955680e+01
5.400000e-07	-4.926752e-06	-1.194848e-09	-3.426323e+01	-7.937954e+01
5.500000e-07	-4.905336e-06	-1.212798e-09	-3.411429e+01	-7.920194e+01
5.600000e-07	-4.883560e-06	-1.252816e-09	-3.396285e+01	-7.902405e+01
5.700000e-07	-4.861399e-06	-1.197580e-09	-3.380873e+01	-7.884590e+01
5.800000e-07	-4.838850e-06	-1.181647e-09	-3.365192e+01	-7.866750e+01
5.900000e-07	-4.815943e-06	-1.236708e-09	-3.349261e+01	-7.848883e+01
6.000000e-07	-4.792738e-06	-1.212343e-09	-3.333123e+01	-7.830987e+01
6.100000e-07	-4.769367e-06	-1.175278e-09	-3.316869e+01	-7.813054e+01
6.200000e-07	-4.745791e-06	-1.214324e-09	-3.300474e+01	-7.795077e+01
6.300000e-07	-4.721920e-06	-1.209539e-09	-3.283872e+01	-7.777047e+01
6.400000e-07	-4.697757e-06	-1.174758e-09	-3.267068e+01	-7.758952e+01
6.500000e-07	-4.673235e-06	-1.196282e-09	-3.250014e+01	-7.740779e+01
6.600000e-07	-4.648278e-06	-1.209574e-09	-3.232658e+01	-7.722516e+01
6.700000e-07	-4.622762e-06	-1.172229e-09	-3.214912e+01	-7.704147e+01
6.800000e-07	-4.596689e-06	-1.179998e-09	-3.196780e+01	-7.685656e+01
6.900000e-07	-4.570138e-06	-1.195310e-09	-3.178315e+01	-7.667026e+01
7.000000e-07	-4.543102e-06	-1.176679e-09	-3.159513e+01	-7.648242e+01
7.100000e-07	-4.515747e-06	-1.166114e-09	-3.140489e+01	-7.629286e+01
7.200000e-07	-4.488224e-06	-1.181117e-09	-3.121348e+01	-7.610141e+01
7.300000e-07	-4.460493e-06	-1.167424e-09	-3.102062e+01	-7.590790e+01
7.400000e-07	-4.432542e-06	-1.167160e-09	-3.082624e+01	-7.571215e+01
7.500000e-07	-4.404378e-06	-1.176180e-09	-3.063036e+01	-7.551401e+01
7.600000e-07	-4.375971e-06	-1.166959e-09	-3.043281e+01	-7.531330e+01
7.700000e-07	-4.347253e-06	-1.149371e-09	-3.023309e+01	-7.510989e+01
7.800000e-07	-4.318120e-06	-1.155468e-09	-3.003048e+01	-7.490361e+01
7.900000e-07	-4.288631e-06	-1.146811e-09	-2.982540e+01	-7.469434e+01
8.000000e-07	-4.258896e-06	-1.132535e-09	-2.961861e+01	-7.448193e+01
8.100000e-07	-4.228866e-06	-1.134066e-09	-2.940977e+01	-7.426626e+01
8.200000e-07	-4.198572e-06	-1.136504e-09	-2.919908e+01	-7.404723e+01
8.300000e-07	-4.167974e-06	-1.122463e-09	-2.898629e+01	-7.382473e+01
8.400000e-07	-4.137072e-06	-1.122837e-09	-2.877138e+01	-7.359865e+01
8.500000e-07	-4.105848e-06	-1.128953e-09	-2.855423e+01	-7.336891e+01
8.600000e-07	-4.074347e-06	-1.117454e-09	-2.833516e+01	-7.313544e+01
8.700000e-07	-4.042729e-06	-1.105434e-09	-2.811527e+01	-7.289816e+01
8.800000e-07	-4.010993e-06	-1.106598e-09	-2.789456e+01	-7.265700e+01
8.900000e-07	-3.979118e-06	-1.097927e-09	-2.767288e+01	-7.241192e+01
9.000000e-07	-3.947024e-06	-1.083085e-09	-2.744968e+01	-7.216284e+01
9.100000e-07	-3.914605e-06	-1.082332e-09	-2.722423e+01	-7.190973e+01
9.200000e-07	-3.881713e-06	-1.080683e-09	-2.699548e+01	-7.165254e+01
9.300000e-07	-3.848342e-06	-1.071273e-09	-2.676340e+01	-7.139123e+01
9.400000e-07	-3.814650e-06	-1.068610e-09	-2.652908e+01	-7.112575e+01
9.500000e-07	-3.780551e-06	-1.073406e-09	-2.629195e+01	-7.085607e+01
9.600000e-07	-3.745984e-06	-1.063775e-09	-2.605155e+01	-7.058215e+01
9.700000e-07	-3.711071e-06	-1.056489e-09	-2.580875e+01	-7.030393e+01
9.800000e-07	-3.675831e-06	-1.056453e-09	-2.556366e+01	-7.002138e+01
9.900000e-07	-3.640291e-06	-1.052941e-09	-2.531650e+01	-6.973444e+01
1.000000e-06	-3.604624e-06	-1.041818e-09	-2.506846e+01	-6.944308e+01
1.010000e-06	-3.568884e-06	-1.039607e-09	-2.481990e+01	-6.914722e+01
1.020000e-06	-3.532967e-06	-1.037326e-09	-2.457012e+01	-6.884681e+01
1.030000e-06	-3.496855e-06	-1.031824e-09	-2.431897e+01	-6.854178e+01
1.040000e-06	-3.460569e-06	-1.027978e-09	-2.406662e+01	-6.823206e+01
1.050000e-06	-3.424015e-06	-1.025661e-09	-2.381241e+01	-6.791757e+01
1.060000e-06	-3.387129e-06	-1.012474e-09	-2.355588e+01	-6.759822e+01
1.070000e-06	-3.349910e-06	-1.004423e-09	-2.329704e+01	-6.727394e+01
1.080000e-06	-3.312427e-06	-1.002046e-09	-2.303636e+01	-6.694462e+01
1.090000e-06	-3.274786e-06	-9.987120e-10	-2.277459e+01	-6.661016e+01
1.100000e-06	-3.236977e-06	-9.905885e-10	-2.251164e+01	-6.627046e+01
1.110000e-06	-3.198966e-06	-9.847447e-10	-2.224729e+01	-6.592541e+01
1.120000e-06	-3.160742e-06	-9.780546e-10	-2.198147e+01	-6.557489e+01
1.130000e-06	-3.122240e-06	-9.712175e-10	-2.171371e+01	-6.521880e+01
1.140000e-06	-3.083394e-06	-9.658760e-10	-2.144355e+01	-6.485701e+01
1.150000e-06	-3.044343e-06	-9.620009e-10	-2.117197e+01	-6.448941e+01
1.160000e-06	-3.005181e-06	-9.556767e-10	-2.089961e+01	-6.411587e+01
1.170000e-06	-2.965862e-06	-9.498220e-10	-2.062617e+01	-6.373628e+01
1.180000e-06	-2.926412e-06	-9.465851e-10	-2.035181e+01	-6.335051e+01
1.190000e-06	-2.886822e-06	-9.400237e-10	-2.007649e+01	-6.295845e+01
1.200000e-06	-2.847099e-06	-9.310632e-10	-1.980023e+01	-6.255999e+01
1.210000e-06	-2.807297e-06	-9.242217e-10	-1.952343e+01	-6.215500e+01
1.220000e-06	-2.767342e-06	-9.182811e-10	-1.924555e+01	-6.174339e+01
1.230000e-06	-2.727189e-06	-9.105562e-10	-1.896631e+01	-6.132504e+01
1.240000e-06	-2.686852e-06	-9.060224e-10	-1.868578e+01	-6.089986e+01
1.250000e-06	-2.646254e-06	-9.008454e-10	-1.840344e+01	-6.046775e+01
1.260000e-06	-2.605442e-06	-8.965132e-10	-1.811962e+01	-6.002860e+01
1.270000e-06	-2.564334e-06	-8.914637e-10	-1.783373e+01	-5.958234e+01
1.280000e-06	-2.522928e-06	-8.846427e-10	-1.754577e+01	-5.912888e+01
1.290000e-06	-2.481338e-06	-8.754356e-10	-1.725653e+01	-5.866813e+01
1.300000e-06	-2.439439e-06	-8.653059e-10	-1.696515e+01	-5.820001e+01
1.310000e-06	-2.397168e-06	-8.565180e-10	-1.667117e+01	-5.772444e+01
1.320000e-06	-2.354580e-06	-8.517768e-10	-1.637499e+01	-5.724135e+01
1.330000e-06	-2.311793e-06	-8.489718e-10	-1.607743e+01	-5.675065e+01
1.340000e-06	-2.268758e-06	-8.452622e-10	-1.577814e+01	-5.625226e+01
1.350000e-06	-2.225447e-06	-8.366133e-10	-1.547693e+01	-5.574611e+01
1.360000e-06	-2.182031e-06	-8.269771e-10	-1.517499e+01	-5.523210e+01
1.370000e-06	-2.138513e-06	-8.176398e-10	-1.487235e+01	-5.471013e+01
1.380000e-06	-2.094931e-06	-8.101020e-10	-1.456926e+01	-5.418012e+01
1.390000e-06	-2.051316e-06	-8.016924e-10	-1.426593e+01	-5.364194e+01
1.400000e-06	-2.007565e-06	-7.931216e-10	-1.396167e+01	-5.309547e+01
1.410000e-06	-1.963714e-06	-7.828470e-10	-1.365670e+01	-5.254058e+01
1.420000e-06	-1.919784e-06	-7.732408e-10	-1.335119e+01	-5.197712e+01
1.430000e-06	-1.875764e-06	-7.653676e-10	-1.304505e+01	-5.140493e+01
1.440000e-06	-1.831679e-06	-7.589316e-10	-1.273846e+01	-5.082383e+01
1.450000e-06	-1.787494e-06	-7.500897e-10	-1.243117e+01	-5.023360e+01
1.460000e-06	-1.743163e-06	-7.388434e-10	-1.212288e+01	-4.963404e+01
1.470000e-06	-1.698603e-06	-7.260300e-10	-1.181298e+01	-4.902490e+01
1.480000e-06	-1.653915e-06	-7.119767e-10	-1.150220e+01	-4.840592e+01
1.490000e-06	-1.609182e-06	-6.988449e-10	-1.119110e+01	-4.777680e+01
1.500000e-06	-1.564323e-06	-6.871879e-10	-1.087913e+01	-4.713725e+01
1.510000e-06	-1.519340e-06	-6.751327e-10	-1.056629e+01	-4.648693e+01
1.520000e-06	-1.474254e-06	-6.621209e-10	-1.025274e+01	-4.582548e+01
1.530000e-06	-1.429096e-06	-6.487322e-10	-9.938686e+00	-4.515252e+01
1.540000e-06	-1.383889e-06	-6.368573e-10	-9.624290e+00	-4.446767e+01
1.550000e-06	-1.338599e-06	-6.253569e-10	-9.309324e+00	-4.377048e+01
1.560000e-06	-1.293144e-06	-6.110851e-10	-8.993207e+00	-4.306053e+01
1.570000e-06	-1.247576e-06	-5.973956e-10	-8.676304e+00	-4.233737e+01
1.580000e-06	-1.201909e-06	-5.840895e-10	-8.358711e+00	-4.160051e+01
1.590000e-06	-1.156087e-06	-5.703918e-10	-8.040040e+00	-4.084947e+01
1.600000e-06	-1.110136e-06	-5.573195e-10	-7.720474e+00	-4.008375e+01
1.610000e-06	-1.064133e-06	-5.460362e-10	-7.400543e+00	-3.930287e+01
1.620000e-06	-1.018052e-06	-5.350915e-10	-7.080070e+00	-3.850630e+01
1.630000e-06	-9.718721e-07	-5.234686e-10	-6.758911e+00	-3.769355e+01
1.640000e-06	-9.256608e-07	-5.085740e-10	-6.437533e+00	-3.686411e+01
1.650000e-06	-8.793722e-07	-4.926130e-10	-6.115618e+00	-3.601749e+01
1.660000e-06	-8.330295e-07	-4.757457e-10	-5.793327e+00	-3.515322e+01
1.670000e-06	-7.867147e-07	-4.604094e-10	-5.471229e+00	-3.427082e+01
1.680000e-06	-7.403581e-07	-4.454401e-10	-5.148840e+00	-3.336986e+01
1.690000e-06	-6.939460e-07	-4.339671e-10	-4.826067e+00	-3.244992e+01
1.700000e-06	-6.475560e-07	-4.218274e-10	-4.503446e+00	-3.151062e+01
1.710000e-06	-6.011347e-07	-4.085664e-10	-4.180608e+00	-3.055161e+01
1.720000e-06	-5.546359e-07	-3.938619e-10	-3.857231e+00	-2.957258e+01
1.730000e-06	-5.080822e-07	-3.760798e-10	-3.533471e+00	-2.857327e+01
1.740000e-06	-4.614316e-07	-3.587109e-10	-3.209039e+00	-2.755348e+01
1.750000e-06	-4.147097e-07	-3.435421e-10	-2.884110e+00	-2.651303e+01
1.760000e-06	-3.679577e-07	-3.296272e-10	-2.558972e+00	-2.545183e+01
1.770000e-06	-3.212205e-07	-3.164646e-10	-2.233936e+00	-2.436985e+01
1.780000e-06	-2.744484e-07	-3.048100e-10	-1.908659e+00	-2.326710e+01
1.790000e-06	-2.276122e-07	-2.881056e-10	-1.582936e+00	-2.214368e+01
1.800000e-06	-1.807500e-07	-2.690892e-10	-1.257031e+00	-2.099977e+01
1.810000e-06	-1.339308e-07	-2.496500e-10	-9.314254e-01	-1.983559e+01
1.820000e-06	-8.720871e-08	-2.312273e-10	-6.064954e-01	-1.865146e+01
1.830000e-06	-4.041807e-08	-2.150970e-10	-2.810886e-01	-1.744777e+01
1.840000e-06	6.438663e-09	-2.012859e-10	4.477786e-02	-1.622499e+01
1.850000e-06	5.323629e-08	-1.899641e-10	3.702332e-01	-1.498367e+01
1.860000e-06	1.000474e-07	-1.755112e-10	6.957825e-01	-1.372442e+01
1.870000e-06	1.468693e-07	-1.582351e-10	1.021407e+00	-1.244795e+01
1.880000e-06	1.936487e-07	-1.392276e-10	1.346735e+00	-1.115502e+01
1.890000e-06	2.403888e-07	-1.175190e-10	1.671790e+00	-9.846486e+00
1.900000e-06	2.870665e-07	-9.771429e-11	1.996412e+00	-8.523261e+00
1.910000e-06	3.336706e-07	-7.828449e-11	2.320521e+00	-7.186330e+00
1.920000e-06	3.802971e-07	-6.308276e-11	2.644787e+00	-5.836742e+00
1.930000e-06	4.269466e-07	-4.875869e-11	2.969212e+00	-4.475603e+00
1.940000e-06	4.735027e-07	-3.440343e-11	3.292987e+00	-3.104077e+00
1.950000e-06	5.200086e-07	-1.882668e-11	3.616414e+00	-1.723379e+00
1.960000e-06	5.664906e-07	2.986606e-13	3.939674e+00	-3.347662e-01
1.970000e-06	6.129610e-07	2.110831e-11	4.262854e+00	1.060462e+00
1.980000e-06	6.594151e-07	4.317720e-11	4.585920e+00	2.460974e+00
1.990000e-06	7.057679e-07	6.397899e-11	4.908282e+00	3.865412e+00
2.000000e-06	7.520663e-07	8.375091e-11	5.230266e+00	5.272396e+00
2.010000e-06	7.983260e-07	1.024098e-10	5.551980e+00	6.680534e+00
2.020000e-06	8.444884e-07	1.199081e-10	5.873018e+00	8.088424e+00
2.030000e-06	8.906091e-07	1.392254e-10	6.193765e+00	9.494668e+00
2.040000e-06	9.366143e-07	1.590256e-10	6.513709e+00	1.089787e+01
2.050000e-06	9.825822e-07	1.789035e-10	6.833395e+00	1.229665e+01
2.060000e-06	1.028599e-06	1.993396e-10	7.153422e+00	1.368965e+01
2.070000e-06	1.074565e-06	2.209120e-10	7.473089e+00	1.507554e+01
2.080000e-06	1.120434e-06	2.428960e-10	7.792086e+00	1.645302e+01
2.090000e-06	1.166171e-06	2.624089e-10	8.110168e+00	1.782082e+01
2.100000e-06	1.211780e-06	2.817787e-10	8.427358e+00	1.917773e+01
2.110000e-06	1.257287e-06	3.010343e-10	8.743838e+00	2.052259e+01
2.120000e-06	1.302692e-06	3.215562e-10	9.059608e+00	2.185428e+01
2.130000e-06	1.348061e-06	3.408602e-10	9.375130e+00	2.317176e+01
2.140000e-06	1.393337e-06	3.587956e-10	9.690004e+00	2.447403e+01
2.150000e-06	1.438518e-06	3.762608e-10	1.000421e+01	2.576018e+01
2.160000e-06	1.483679e-06	3.943754e-10	1.031829e+01	2.702936e+01
2.170000e-06	1.528749e-06	4.128431e-10	1.063173e+01	2.828079e+01
2.180000e-06	1.573682e-06	4.314231e-10	1.094421e+01	2.951378e+01
2.190000e-06	1.618476e-06	4.507880e-10	1.125574e+01	3.072769e+01
2.200000e-06	1.663121e-06	4.690032e-10	1.156622e+01	3.192198e+01
2.210000e-06	1.707595e-06	4.848772e-10	1.187552e+01	3.309617e+01
2.220000e-06	1.751943e-06	5.014612e-10	1.218394e+01	3.424988e+01
2.230000e-06	1.796146e-06	5.169229e-10	1.249135e+01	3.538277e+01
2.240000e-06	1.840248e-06	5.303720e-10	1.279806e+01	3.649461e+01
2.250000e-06	1.884304e-06	5.435659e-10	1.310444e+01	3.758521e+01
2.260000e-06	1.928257e-06	5.580171e-10	1.341012e+01	3.865449e+01
2.270000e-06	1.972089e-06	5.722382e-10	1.371494e+01	3.970239e+01
2.280000e-06	2.015834e-06	5.859874e-10	1.401917e+01	4.072894e+01
2.290000e-06	2.059515e-06	6.002854e-10	1.432295e+01	4.173423e+01
2.300000e-06	2.103162e-06	6.142376e-10	1.462650e+01	4.271839e+01
2.310000e-06	2.146765e-06	6.281948e-10	1.492974e+01	4.368163e+01
2.320000e-06	2.190309e-06	6.415731e-10	1.523257e+01	4.462417e+01
2.330000e-06	2.233787e-06	6.532262e-10	1.553494e+01	4.554629e+01
2.340000e-06	2.277066e-06	6.643847e-10	1.583592e+01	4.644832e+01
2.350000e-06	2.320087e-06	6.760637e-10	1.613511e+01	4.733059e+01
2.360000e-06	2.362801e-06	6.880835e-10	1.643216e+01	4.819348e+01
2.370000e-06	2.405306e-06	7.008638e-10	1.672777e+01	4.903740e+01
2.380000e-06	2.447615e-06	7.140643e-10	1.702201e+01	4.986275e+01
2.390000e-06	2.489473e-06	7.279483e-10	1.731311e+01	5.066995e+01
2.400000e-06	2.530988e-06	7.415666e-10	1.760182e+01	5.145944e+01
2.410000e-06	2.572222e-06	7.547418e-10	1.788859e+01	5.223166e+01
2.420000e-06	2.613143e-06	7.668908e-10	1.817318e+01	5.298704e+01
2.430000e-06	2.653870e-06	7.777895e-10	1.845641e+01	5.372601e+01
2.440000e-06	2.694377e-06	7.884903e-10	1.873812e+01	5.444900e+01
2.450000e-06	2.734604e-06	7.990193e-10	1.901788e+01	5.515640e+01
2.460000e-06	2.774644e-06	8.083198e-10	1.929634e+01	5.584862e+01
2.470000e-06	2.814577e-06	8.171204e-10	1.957405e+01	5.652603e+01
2.480000e-06	2.854349e-06	8.254560e-10	1.985065e+01	5.718899e+01
2.490000e-06	2.893988e-06	8.350288e-10	2.012632e+01	5.783785e+01
2.500000e-06	2.933539e-06	8.459092e-10	2.040138e+01	5.847290e+01
2.510000e-06	2.972995e-06	8.568460e-10	2.067577e+01	5.909446e+01
2.520000e-06	3.012281e-06	8.676410e-10	2.094899e+01	5.970278e+01
2.530000e-06	3.051290e-06	8.780642e-10	2.122028e+01	6.029811e+01
2.540000e-06	3.090070e-06	8.850209e-10	2.148998e+01	6.088067e+01
2.550000e-06	3.128624e-06	8.908382e-10	2.175810e+01	6.145067e+01
2.560000e-06	3.166914e-06	8.966680e-10	2.202439e+01	6.200829e+01
2.570000e-06	3.205020e-06	8.995323e-10	2.228940e+01	6.255368e+01
2.580000e-06	3.242939e-06	9.035955e-10	2.255311e+01	6.308700e+01
2.590000e-06	3.280663e-06	9.115751e-10	2.281546e+01	6.360835e+01
2.600000e-06	3.318173e-06	9.230323e-10	2.307633e+01	6.411787e+01
2.610000e-06	3.355389e-06	9.361605e-10	2.333515e+01	6.461564e+01
2.620000e-06	3.392333e-06	9.474541e-10	2.359207e+01	6.510177e+01
2.630000e-06	3.429095e-06	9.532073e-10	2.384774e+01	6.557633e+01
2.640000e-06	3.465644e-06	9.540143e-10	2.410191e+01	6.603941e+01
2.650000e-06	3.501916e-06	9.542567e-10	2.435417e+01	6.649110e+01
2.660000e-06	3.537964e-06	9.586131e-10	2.460487e+01	6.693147e+01
2.670000e-06	3.573871e-06	9.663906e-10	2.485459e+01	6.736062e+01
2.680000e-06	3.609660e-06	9.752049e-10	2.510348e+01	6.777864e+01
2.690000e-06	3.645293e-06	9.840595e-10	2.535129e+01	6.818563e+01
2.700000e-06	3.680779e-06	9.911767e-10	2.559808e+01	6.858171e+01
2.710000e-06	3.716050e-06	9.968356e-10	2.584337e+01	6.896701e+01
2.720000e-06	3.750989e-06	1.002366e-09	2.608636e+01	6.934166e+01
2.730000e-06	3.785560e-06	1.009609e-09	2.632678e+01	6.970584e+01
2.740000e-06	3.819776e-06	1.017884e-09	2.656474e+01	7.005973e+01
2.750000e-06	3.853486e-06	1.024208e-09	2.679917e+01	7.040351e+01
2.760000e-06	3.886694e-06	1.030000e-09	2.703012e+01	7.073740e+01
2.770000e-06	3.919465e-06	1.035830e-09	2.725802e+01	7.106164e+01
2.780000e-06	3.951826e-06	1.042429e-09	2.748308e+01	7.137649e+01
2.790000e-06	3.983973e-06	1.050365e-09	2.770665e+01	7.168222e+01
2.800000e-06	4.015934e-06	1.059687e-09	2.792892e+01	7.197913e+01
2.810000e-06	4.047714e-06	1.069665e-09	2.814994e+01	7.226752e+01
2.820000e-06	4.079343e-06	1.077452e-09	2.836990e+01	7.254772e+01
2.830000e-06	4.110791e-06	1.080091e-09	2.858861e+01	7.282008e+01
2.840000e-06	4.142023e-06	1.078550e-09	2.880581e+01	7.308494e+01
2.850000e-06	4.172933e-06	1.079444e-09	2.902077e+01	7.334267e+01
2.860000e-06	4.203392e-06	1.083777e-09	2.923260e+01	7.359365e+01
2.870000e-06	4.233530e-06	1.088729e-09	2.944220e+01	7.383825e+01
2.880000e-06	4.263481e-06	1.095869e-09	2.965049e+01	7.407685e+01
2.890000e-06	4.293169e-06	1.104320e-09	2.985696e+01	7.430984e+01
2.900000e-06	4.322559e-06	1.112839e-09	3.006136e+01	7.453760e+01
