# Temperatura_=_7.0
# Concentracion g/m^3_=_1620.0
# C_Vs_to_Am_M_A/Vsm_=_65563218390.804596
# pendiente_HvsI_1/m_=_3716.3
# ordenada_HvsI_A/m_=_1297.0
# frecuencia_Hz_=_135106.66609659226

Tiempo_(s)	Campo_(V.s)	Magnetizacion_(V.s)	Campo_(kA/m)	Magnetizacion_(A/m)
0.000000e+00	-5.526053e-06	-7.194547e-10	-3.836044e+01	-4.825624e+01
1.000000e-08	-5.526329e-06	-7.189257e-10	-3.836235e+01	-4.825771e+01
2.000000e-08	-5.526367e-06	-7.190975e-10	-3.836261e+01	-4.826149e+01
3.000000e-08	-5.526064e-06	-7.211320e-10	-3.836051e+01	-4.826746e+01
4.000000e-08	-5.525389e-06	-7.205462e-10	-3.835582e+01	-4.827549e+01
5.000000e-08	-5.524241e-06	-7.165584e-10	-3.834786e+01	-4.828541e+01
6.000000e-08	-5.522449e-06	-7.101832e-10	-3.833542e+01	-4.829703e+01
7.000000e-08	-5.520035e-06	-6.996000e-10	-3.831866e+01	-4.831013e+01
8.000000e-08	-5.517132e-06	-6.995898e-10	-3.829851e+01	-4.832447e+01
9.000000e-08	-5.513745e-06	-7.035995e-10	-3.827500e+01	-4.833980e+01
1.000000e-07	-5.509904e-06	-7.074540e-10	-3.824833e+01	-4.835583e+01
1.100000e-07	-5.505742e-06	-7.401483e-10	-3.821944e+01	-4.837229e+01
1.200000e-07	-5.501339e-06	-7.779897e-10	-3.818888e+01	-4.838886e+01
1.300000e-07	-5.496654e-06	-6.840435e-10	-3.815636e+01	-4.840523e+01
1.400000e-07	-5.491705e-06	-6.789094e-10	-3.812200e+01	-4.842108e+01
1.500000e-07	-5.486474e-06	-6.701874e-10	-3.808569e+01	-4.843609e+01
1.600000e-07	-5.480768e-06	-7.234022e-10	-3.804608e+01	-4.844994e+01
1.700000e-07	-5.474531e-06	-6.804377e-10	-3.800278e+01	-4.846230e+01
1.800000e-07	-5.467933e-06	-6.785932e-10	-3.795698e+01	-4.847286e+01
1.900000e-07	-5.461016e-06	-7.684913e-10	-3.790896e+01	-4.848131e+01
2.000000e-07	-5.453661e-06	-7.685312e-10	-3.785791e+01	-4.848736e+01
2.100000e-07	-5.445966e-06	-7.289965e-10	-3.780449e+01	-4.849071e+01
2.200000e-07	-5.438101e-06	-6.787468e-10	-3.774989e+01	-4.849110e+01
2.300000e-07	-5.429987e-06	-7.617582e-10	-3.769357e+01	-4.848829e+01
2.400000e-07	-5.421413e-06	-7.744368e-10	-3.763405e+01	-4.848205e+01
2.500000e-07	-5.412272e-06	-7.875408e-10	-3.757060e+01	-4.847217e+01
2.600000e-07	-5.402542e-06	-7.493005e-10	-3.750306e+01	-4.845846e+01
2.700000e-07	-5.392103e-06	-7.844806e-10	-3.743059e+01	-4.844077e+01
2.800000e-07	-5.381043e-06	-7.505756e-10	-3.735382e+01	-4.841898e+01
2.900000e-07	-5.369618e-06	-7.599442e-10	-3.727450e+01	-4.839297e+01
3.000000e-07	-5.357843e-06	-7.480237e-10	-3.719277e+01	-4.836268e+01
3.100000e-07	-5.345717e-06	-7.700200e-10	-3.710859e+01	-4.832805e+01
3.200000e-07	-5.333247e-06	-7.535146e-10	-3.702203e+01	-4.828908e+01
3.300000e-07	-5.320353e-06	-7.572688e-10	-3.693252e+01	-4.824576e+01
3.400000e-07	-5.307003e-06	-7.423751e-10	-3.683984e+01	-4.819814e+01
3.500000e-07	-5.293230e-06	-7.340093e-10	-3.674424e+01	-4.814627e+01
3.600000e-07	-5.279129e-06	-7.335331e-10	-3.664635e+01	-4.809026e+01
3.700000e-07	-5.264629e-06	-7.194338e-10	-3.654570e+01	-4.803020e+01
3.800000e-07	-5.249387e-06	-7.121000e-10	-3.643989e+01	-4.796623e+01
3.900000e-07	-5.233562e-06	-7.543372e-10	-3.633004e+01	-4.789852e+01
4.000000e-07	-5.217318e-06	-7.772746e-10	-3.621728e+01	-4.782723e+01
4.100000e-07	-5.200642e-06	-7.128014e-10	-3.610151e+01	-4.775255e+01
4.200000e-07	-5.183788e-06	-7.197779e-10	-3.598452e+01	-4.767470e+01
4.300000e-07	-5.166730e-06	-7.688702e-10	-3.586611e+01	-4.759389e+01
4.400000e-07	-5.149304e-06	-7.405931e-10	-3.574514e+01	-4.751034e+01
4.500000e-07	-5.131400e-06	-6.789943e-10	-3.562086e+01	-4.742430e+01
4.600000e-07	-5.113029e-06	-7.638487e-10	-3.549333e+01	-4.733600e+01
4.700000e-07	-5.094238e-06	-7.602044e-10	-3.536289e+01	-4.724568e+01
4.800000e-07	-5.075055e-06	-6.799161e-10	-3.522972e+01	-4.715359e+01
4.900000e-07	-5.055646e-06	-6.990522e-10	-3.509499e+01	-4.705996e+01
5.000000e-07	-5.036098e-06	-7.867481e-10	-3.495929e+01	-4.696504e+01
5.100000e-07	-5.016333e-06	-7.007777e-10	-3.482209e+01	-4.686904e+01
5.200000e-07	-4.996291e-06	-6.833253e-10	-3.468296e+01	-4.677218e+01
5.300000e-07	-4.975945e-06	-7.525165e-10	-3.454173e+01	-4.667468e+01
5.400000e-07	-4.955179e-06	-7.310261e-10	-3.439758e+01	-4.657672e+01
5.500000e-07	-4.933976e-06	-6.655525e-10	-3.425039e+01	-4.647849e+01
5.600000e-07	-4.912459e-06	-7.443404e-10	-3.410102e+01	-4.638014e+01
5.700000e-07	-4.890586e-06	-7.339895e-10	-3.394919e+01	-4.628183e+01
5.800000e-07	-4.868385e-06	-6.586326e-10	-3.379507e+01	-4.618367e+01
5.900000e-07	-4.845865e-06	-6.989580e-10	-3.363874e+01	-4.608578e+01
6.000000e-07	-4.823007e-06	-7.531786e-10	-3.348007e+01	-4.598825e+01
6.100000e-07	-4.799793e-06	-6.826423e-10	-3.331892e+01	-4.589114e+01
6.200000e-07	-4.776268e-06	-6.894503e-10	-3.315562e+01	-4.579449e+01
6.300000e-07	-4.752556e-06	-7.373148e-10	-3.299102e+01	-4.569833e+01
6.400000e-07	-4.728636e-06	-6.874077e-10	-3.282497e+01	-4.560268e+01
6.500000e-07	-4.704445e-06	-6.635596e-10	-3.265704e+01	-4.550750e+01
6.600000e-07	-4.679860e-06	-7.143226e-10	-3.248638e+01	-4.541278e+01
6.700000e-07	-4.654735e-06	-6.945409e-10	-3.231197e+01	-4.531844e+01
6.800000e-07	-4.629065e-06	-6.564640e-10	-3.213378e+01	-4.522444e+01
6.900000e-07	-4.602836e-06	-6.971901e-10	-3.195170e+01	-4.513067e+01
7.000000e-07	-4.576065e-06	-6.980331e-10	-3.176587e+01	-4.503704e+01
7.100000e-07	-4.548876e-06	-6.701205e-10	-3.157712e+01	-4.494343e+01
7.200000e-07	-4.521427e-06	-6.853089e-10	-3.138658e+01	-4.484970e+01
7.300000e-07	-4.493830e-06	-6.966703e-10	-3.119501e+01	-4.475573e+01
7.400000e-07	-4.466079e-06	-6.612888e-10	-3.100237e+01	-4.466135e+01
7.500000e-07	-4.438151e-06	-6.767428e-10	-3.080850e+01	-4.456642e+01
7.600000e-07	-4.409926e-06	-6.884793e-10	-3.061257e+01	-4.447077e+01
7.700000e-07	-4.381294e-06	-6.666314e-10	-3.041381e+01	-4.437422e+01
7.800000e-07	-4.352315e-06	-6.571157e-10	-3.021265e+01	-4.427662e+01
7.900000e-07	-4.323056e-06	-6.808277e-10	-3.000954e+01	-4.417777e+01
8.000000e-07	-4.293490e-06	-6.614712e-10	-2.980430e+01	-4.407752e+01
8.100000e-07	-4.263673e-06	-6.569559e-10	-2.959732e+01	-4.397569e+01
8.200000e-07	-4.233658e-06	-6.713341e-10	-2.938896e+01	-4.387211e+01
8.300000e-07	-4.203348e-06	-6.698732e-10	-2.917856e+01	-4.376661e+01
8.400000e-07	-4.172676e-06	-6.475081e-10	-2.896564e+01	-4.365904e+01
8.500000e-07	-4.141701e-06	-6.623473e-10	-2.875062e+01	-4.354925e+01
8.600000e-07	-4.110511e-06	-6.627154e-10	-2.853410e+01	-4.343707e+01
8.700000e-07	-4.079147e-06	-6.448267e-10	-2.831639e+01	-4.332239e+01
8.800000e-07	-4.047570e-06	-6.425936e-10	-2.809719e+01	-4.320507e+01
8.900000e-07	-4.015796e-06	-6.545275e-10	-2.787662e+01	-4.308498e+01
9.000000e-07	-3.983866e-06	-6.400795e-10	-2.765497e+01	-4.296202e+01
9.100000e-07	-3.951660e-06	-6.341969e-10	-2.743141e+01	-4.283609e+01
9.200000e-07	-3.919012e-06	-6.422451e-10	-2.720477e+01	-4.270710e+01
9.300000e-07	-3.885865e-06	-6.351718e-10	-2.697467e+01	-4.257496e+01
9.400000e-07	-3.852237e-06	-6.241383e-10	-2.674124e+01	-4.243962e+01
9.500000e-07	-3.818233e-06	-6.319167e-10	-2.650519e+01	-4.230100e+01
9.600000e-07	-3.783878e-06	-6.323694e-10	-2.626671e+01	-4.215906e+01
9.700000e-07	-3.749099e-06	-6.182515e-10	-2.602528e+01	-4.201376e+01
9.800000e-07	-3.713968e-06	-6.201021e-10	-2.578141e+01	-4.186506e+01
9.900000e-07	-3.678588e-06	-6.236663e-10	-2.553581e+01	-4.171295e+01
1.000000e-06	-3.642972e-06	-6.181147e-10	-2.528857e+01	-4.155740e+01
1.010000e-06	-3.607186e-06	-6.146173e-10	-2.504015e+01	-4.139840e+01
1.020000e-06	-3.571330e-06	-6.222530e-10	-2.479125e+01	-4.123596e+01
1.030000e-06	-3.535361e-06	-6.139839e-10	-2.454156e+01	-4.107007e+01
1.040000e-06	-3.499206e-06	-6.073006e-10	-2.429059e+01	-4.090074e+01
1.050000e-06	-3.462817e-06	-6.059928e-10	-2.403798e+01	-4.072799e+01
1.060000e-06	-3.426117e-06	-6.022065e-10	-2.378322e+01	-4.055182e+01
1.070000e-06	-3.389132e-06	-5.902342e-10	-2.352648e+01	-4.037226e+01
1.080000e-06	-3.351896e-06	-5.926369e-10	-2.326800e+01	-4.018931e+01
1.090000e-06	-3.314371e-06	-5.931839e-10	-2.300751e+01	-4.000301e+01
1.100000e-06	-3.276570e-06	-5.906608e-10	-2.274511e+01	-3.981337e+01
1.110000e-06	-3.238553e-06	-5.843936e-10	-2.248120e+01	-3.962040e+01
1.120000e-06	-3.200398e-06	-5.814607e-10	-2.221633e+01	-3.942413e+01
1.130000e-06	-3.162088e-06	-5.704245e-10	-2.195040e+01	-3.922458e+01
1.140000e-06	-3.123438e-06	-5.657524e-10	-2.168210e+01	-3.902174e+01
1.150000e-06	-3.084546e-06	-5.658126e-10	-2.141212e+01	-3.881565e+01
1.160000e-06	-3.045530e-06	-5.661743e-10	-2.114129e+01	-3.860630e+01
1.170000e-06	-3.006238e-06	-5.619816e-10	-2.086853e+01	-3.839369e+01
1.180000e-06	-2.966761e-06	-5.634769e-10	-2.059449e+01	-3.817784e+01
1.190000e-06	-2.927200e-06	-5.606668e-10	-2.031987e+01	-3.795872e+01
1.200000e-06	-2.887579e-06	-5.548176e-10	-2.004483e+01	-3.773634e+01
1.210000e-06	-2.847896e-06	-5.481088e-10	-1.976936e+01	-3.751067e+01
1.220000e-06	-2.808021e-06	-5.430684e-10	-1.949256e+01	-3.728171e+01
1.230000e-06	-2.767952e-06	-5.393648e-10	-1.921441e+01	-3.704941e+01
1.240000e-06	-2.727671e-06	-5.378231e-10	-1.893479e+01	-3.681375e+01
1.250000e-06	-2.687145e-06	-5.374914e-10	-1.865347e+01	-3.657469e+01
1.260000e-06	-2.646401e-06	-5.352623e-10	-1.837063e+01	-3.633219e+01
1.270000e-06	-2.605412e-06	-5.332061e-10	-1.808610e+01	-3.608619e+01
1.280000e-06	-2.564157e-06	-5.279776e-10	-1.779971e+01	-3.583663e+01
1.290000e-06	-2.522738e-06	-5.200173e-10	-1.751220e+01	-3.558345e+01
1.300000e-06	-2.481097e-06	-5.098622e-10	-1.722313e+01	-3.532656e+01
1.310000e-06	-2.439017e-06	-5.059884e-10	-1.693103e+01	-3.506589e+01
1.320000e-06	-2.396558e-06	-5.053282e-10	-1.663629e+01	-3.480135e+01
1.330000e-06	-2.353780e-06	-5.081025e-10	-1.633934e+01	-3.453283e+01
1.340000e-06	-2.310722e-06	-5.107997e-10	-1.604044e+01	-3.426022e+01
1.350000e-06	-2.267494e-06	-5.141631e-10	-1.574036e+01	-3.398340e+01
1.360000e-06	-2.224148e-06	-5.066847e-10	-1.543946e+01	-3.370224e+01
1.370000e-06	-2.180657e-06	-4.951527e-10	-1.513756e+01	-3.341660e+01
1.380000e-06	-2.137040e-06	-4.832631e-10	-1.483478e+01	-3.312631e+01
1.390000e-06	-2.093374e-06	-4.760504e-10	-1.453166e+01	-3.283122e+01
1.400000e-06	-2.049673e-06	-4.710116e-10	-1.422830e+01	-3.253114e+01
1.410000e-06	-2.005850e-06	-4.719710e-10	-1.392409e+01	-3.222588e+01
1.420000e-06	-1.961922e-06	-4.733672e-10	-1.361916e+01	-3.191524e+01
1.430000e-06	-1.917956e-06	-4.727242e-10	-1.331396e+01	-3.159899e+01
1.440000e-06	-1.873918e-06	-4.670715e-10	-1.300825e+01	-3.127689e+01
1.450000e-06	-1.829794e-06	-4.601776e-10	-1.270196e+01	-3.094871e+01
1.460000e-06	-1.785525e-06	-4.489850e-10	-1.239465e+01	-3.061417e+01
1.470000e-06	-1.741063e-06	-4.388480e-10	-1.208601e+01	-3.027298e+01
1.480000e-06	-1.696451e-06	-4.319214e-10	-1.177633e+01	-2.992486e+01
1.490000e-06	-1.651698e-06	-4.280992e-10	-1.146566e+01	-2.956950e+01
1.500000e-06	-1.606871e-06	-4.267275e-10	-1.115448e+01	-2.920656e+01
1.510000e-06	-1.561904e-06	-4.262811e-10	-1.084234e+01	-2.883571e+01
1.520000e-06	-1.516694e-06	-4.217645e-10	-1.052850e+01	-2.845659e+01
1.530000e-06	-1.471378e-06	-4.107564e-10	-1.021393e+01	-2.806882e+01
1.540000e-06	-1.426041e-06	-3.971459e-10	-9.899208e+00	-2.767204e+01
1.550000e-06	-1.380681e-06	-3.830196e-10	-9.584333e+00	-2.726584e+01
1.560000e-06	-1.335202e-06	-3.711790e-10	-9.268631e+00	-2.684982e+01
1.570000e-06	-1.289636e-06	-3.606366e-10	-8.952319e+00	-2.642356e+01
1.580000e-06	-1.243999e-06	-3.535003e-10	-8.635522e+00	-2.598665e+01
1.590000e-06	-1.198243e-06	-3.483428e-10	-8.317897e+00	-2.553866e+01
1.600000e-06	-1.152390e-06	-3.430030e-10	-7.999593e+00	-2.507915e+01
1.610000e-06	-1.106432e-06	-3.363244e-10	-7.680568e+00	-2.460771e+01
1.620000e-06	-1.060424e-06	-3.277335e-10	-7.361189e+00	-2.412388e+01
1.630000e-06	-1.014354e-06	-3.169673e-10	-7.041382e+00	-2.362725e+01
1.640000e-06	-9.682166e-07	-3.061200e-10	-6.721110e+00	-2.311740e+01
1.650000e-06	-9.220206e-07	-2.930644e-10	-6.400429e+00	-2.259391e+01
1.660000e-06	-8.757536e-07	-2.831897e-10	-6.079256e+00	-2.205639e+01
1.670000e-06	-8.294127e-07	-2.745591e-10	-5.757569e+00	-2.150444e+01
1.680000e-06	-7.830279e-07	-2.685967e-10	-5.435578e+00	-2.093771e+01
1.690000e-06	-7.365211e-07	-2.611655e-10	-5.112740e+00	-2.035585e+01
1.700000e-06	-6.898181e-07	-2.538363e-10	-4.788540e+00	-1.975854e+01
1.710000e-06	-6.431694e-07	-2.450388e-10	-4.464716e+00	-1.914549e+01
1.720000e-06	-5.966187e-07	-2.352944e-10	-4.141573e+00	-1.851645e+01
1.730000e-06	-5.500322e-07	-2.257635e-10	-3.818181e+00	-1.787120e+01
1.740000e-06	-5.033873e-07	-2.166613e-10	-3.494385e+00	-1.720954e+01
1.750000e-06	-4.566836e-07	-2.065596e-10	-3.170180e+00	-1.653135e+01
1.760000e-06	-4.099373e-07	-1.973838e-10	-2.845679e+00	-1.583653e+01
1.770000e-06	-3.630658e-07	-1.884806e-10	-2.520309e+00	-1.512503e+01
1.780000e-06	-3.161286e-07	-1.812644e-10	-2.194483e+00	-1.439686e+01
1.790000e-06	-2.692321e-07	-1.740281e-10	-1.868940e+00	-1.365208e+01
1.800000e-06	-2.223461e-07	-1.637340e-10	-1.543470e+00	-1.289079e+01
1.810000e-06	-1.754293e-07	-1.511009e-10	-1.217785e+00	-1.211318e+01
1.820000e-06	-1.284631e-07	-1.372405e-10	-8.917577e-01	-1.131948e+01
1.830000e-06	-8.144520e-08	-1.250750e-10	-5.653716e-01	-1.050998e+01
1.840000e-06	-3.446837e-08	-1.135996e-10	-2.392706e-01	-9.685030e+00
1.850000e-06	1.235298e-08	-1.028403e-10	8.575120e-02	-8.845055e+00
1.860000e-06	5.913000e-08	-9.485529e-11	4.104652e-01	-7.990534e+00
1.870000e-06	1.059622e-07	-8.490911e-11	7.355623e-01	-7.122009e+00
1.880000e-06	1.528893e-07	-7.200710e-11	1.061318e+00	-6.240087e+00
1.890000e-06	1.998087e-07	-5.779417e-11	1.387020e+00	-5.345434e+00
1.900000e-06	2.466454e-07	-4.228265e-11	1.712149e+00	-4.438775e+00
1.910000e-06	2.934357e-07	-2.858477e-11	2.036955e+00	-3.520894e+00
1.920000e-06	3.402190e-07	-1.591704e-11	2.361712e+00	-2.592629e+00
1.930000e-06	3.870739e-07	-8.487122e-12	2.686967e+00	-1.654871e+00
1.940000e-06	4.339345e-07	-7.686652e-13	3.012262e+00	-7.085598e-01
1.950000e-06	4.807114e-07	7.871245e-12	3.336975e+00	2.453179e-01
1.960000e-06	5.274192e-07	2.002814e-11	3.661208e+00	1.205735e+00
1.970000e-06	5.740520e-07	3.579375e-11	3.984921e+00	2.171626e+00
1.980000e-06	6.204857e-07	5.358268e-11	4.307252e+00	3.141895e+00
1.990000e-06	6.668528e-07	7.058385e-11	4.629120e+00	4.115415e+00
2.000000e-06	7.133500e-07	8.614396e-11	4.951892e+00	5.091038e+00
2.010000e-06	7.598256e-07	9.933431e-11	5.274513e+00	6.067600e+00
2.020000e-06	8.061312e-07	1.102276e-10	5.595955e+00	7.043923e+00
2.030000e-06	8.523768e-07	1.206047e-10	5.916980e+00	8.018825e+00
2.040000e-06	8.986232e-07	1.333258e-10	6.238010e+00	8.991123e+00
2.050000e-06	9.448281e-07	1.458708e-10	6.558753e+00	9.959641e+00
2.060000e-06	9.909787e-07	1.604121e-10	6.879118e+00	1.092321e+01
2.070000e-06	1.037050e-06	1.768143e-10	7.198937e+00	1.188069e+01
2.080000e-06	1.083019e-06	1.931262e-10	7.518037e+00	1.283096e+01
2.090000e-06	1.128901e-06	2.072490e-10	7.836537e+00	1.377291e+01
2.100000e-06	1.174724e-06	2.186973e-10	8.154630e+00	1.470550e+01
2.110000e-06	1.220484e-06	2.298699e-10	8.472286e+00	1.562770e+01
2.120000e-06	1.266196e-06	2.406623e-10	8.789608e+00	1.653853e+01
2.130000e-06	1.311816e-06	2.516289e-10	9.106286e+00	1.743707e+01
2.140000e-06	1.357285e-06	2.624704e-10	9.421922e+00	1.832246e+01
2.150000e-06	1.402632e-06	2.749951e-10	9.736713e+00	1.919387e+01
2.160000e-06	1.447881e-06	2.881058e-10	1.005082e+01	2.005056e+01
2.170000e-06	1.493056e-06	3.034378e-10	1.036441e+01	2.089183e+01
2.180000e-06	1.538148e-06	3.193476e-10	1.067743e+01	2.171708e+01
2.190000e-06	1.583097e-06	3.335282e-10	1.098945e+01	2.252574e+01
2.200000e-06	1.627904e-06	3.449839e-10	1.130049e+01	2.331734e+01
2.210000e-06	1.672594e-06	3.531053e-10	1.161072e+01	2.409148e+01
2.220000e-06	1.717140e-06	3.613844e-10	1.191994e+01	2.484782e+01
2.230000e-06	1.761567e-06	3.732759e-10	1.222834e+01	2.558609e+01
2.240000e-06	1.805899e-06	3.832275e-10	1.253609e+01	2.630611e+01
2.250000e-06	1.850082e-06	3.920538e-10	1.284279e+01	2.700777e+01
2.260000e-06	1.894137e-06	4.016996e-10	1.314861e+01	2.769101e+01
2.270000e-06	1.938097e-06	4.121950e-10	1.345377e+01	2.835585e+01
2.280000e-06	1.981937e-06	4.208869e-10	1.375809e+01	2.900238e+01
2.290000e-06	2.025685e-06	4.293283e-10	1.406178e+01	2.963075e+01
2.300000e-06	2.069374e-06	4.368975e-10	1.436506e+01	3.024117e+01
2.310000e-06	2.112999e-06	4.439544e-10	1.466790e+01	3.083390e+01
2.320000e-06	2.156554e-06	4.533512e-10	1.497024e+01	3.140925e+01
2.330000e-06	2.200064e-06	4.620828e-10	1.527228e+01	3.196759e+01
2.340000e-06	2.243508e-06	4.688499e-10	1.557385e+01	3.250933e+01
2.350000e-06	2.286813e-06	4.756205e-10	1.587447e+01	3.303489e+01
2.360000e-06	2.329996e-06	4.821361e-10	1.617423e+01	3.354476e+01
2.370000e-06	2.372936e-06	4.899729e-10	1.647231e+01	3.403945e+01
2.380000e-06	2.415595e-06	4.976691e-10	1.676844e+01	3.451946e+01
2.390000e-06	2.457938e-06	5.045487e-10	1.706237e+01	3.498536e+01
2.400000e-06	2.499929e-06	5.128120e-10	1.735386e+01	3.543768e+01
2.410000e-06	2.541634e-06	5.201060e-10	1.764336e+01	3.587699e+01
2.420000e-06	2.582982e-06	5.279551e-10	1.793040e+01	3.630385e+01
2.430000e-06	2.624028e-06	5.343397e-10	1.821533e+01	3.671881e+01
2.440000e-06	2.664801e-06	5.388709e-10	1.849836e+01	3.712243e+01
2.450000e-06	2.705302e-06	5.442511e-10	1.877951e+01	3.751525e+01
2.460000e-06	2.745558e-06	5.517259e-10	1.905895e+01	3.789778e+01
2.470000e-06	2.785592e-06	5.578895e-10	1.933686e+01	3.827052e+01
2.480000e-06	2.825463e-06	5.641952e-10	1.961363e+01	3.863395e+01
2.490000e-06	2.865203e-06	5.698686e-10	1.988950e+01	3.898851e+01
2.500000e-06	2.904897e-06	5.757548e-10	2.016505e+01	3.933463e+01
2.510000e-06	2.944520e-06	5.826117e-10	2.044010e+01	3.967268e+01
2.520000e-06	2.983981e-06	5.883323e-10	2.071403e+01	4.000303e+01
2.530000e-06	3.023283e-06	5.926961e-10	2.098685e+01	4.032598e+01
2.540000e-06	3.062382e-06	5.948933e-10	2.125826e+01	4.064182e+01
2.550000e-06	3.101207e-06	5.933018e-10	2.152778e+01	4.095079e+01
2.560000e-06	3.139709e-06	5.919027e-10	2.179505e+01	4.125310e+01
2.570000e-06	3.178026e-06	5.950293e-10	2.206104e+01	4.154891e+01
2.580000e-06	3.216173e-06	6.012036e-10	2.232585e+01	4.183835e+01
2.590000e-06	3.254057e-06	6.077528e-10	2.258882e+01	4.212153e+01
2.600000e-06	3.291744e-06	6.136890e-10	2.285043e+01	4.239851e+01
2.610000e-06	3.329233e-06	6.195046e-10	2.311068e+01	4.266932e+01
2.620000e-06	3.366534e-06	6.245300e-10	2.336961e+01	4.293398e+01
2.630000e-06	3.403586e-06	6.274548e-10	2.362681e+01	4.319244e+01
2.640000e-06	3.440336e-06	6.282903e-10	2.388193e+01	4.344468e+01
2.650000e-06	3.476792e-06	6.302602e-10	2.413499e+01	4.369063e+01
2.660000e-06	3.513022e-06	6.339198e-10	2.438649e+01	4.393020e+01
2.670000e-06	3.549089e-06	6.377639e-10	2.463686e+01	4.416330e+01
2.680000e-06	3.584992e-06	6.410616e-10	2.488609e+01	4.438982e+01
2.690000e-06	3.620787e-06	6.453052e-10	2.513457e+01	4.460965e+01
2.700000e-06	3.656460e-06	6.492039e-10	2.538221e+01	4.482267e+01
2.710000e-06	3.691947e-06	6.517541e-10	2.562854e+01	4.502877e+01
2.720000e-06	3.727258e-06	6.530436e-10	2.587366e+01	4.522782e+01
2.730000e-06	3.762292e-06	6.563493e-10	2.611686e+01	4.541974e+01
2.740000e-06	3.796951e-06	6.592507e-10	2.635745e+01	4.560442e+01
2.750000e-06	3.831241e-06	6.604223e-10	2.659549e+01	4.578178e+01
2.760000e-06	3.865091e-06	6.619509e-10	2.683047e+01	4.595175e+01
2.770000e-06	3.898385e-06	6.637590e-10	2.706159e+01	4.611429e+01
2.780000e-06	3.931183e-06	6.673329e-10	2.728926e+01	4.626938e+01
2.790000e-06	3.963631e-06	6.740810e-10	2.751450e+01	4.641700e+01
2.800000e-06	3.995785e-06	6.824951e-10	2.773771e+01	4.655718e+01
2.810000e-06	4.027701e-06	6.909257e-10	2.795926e+01	4.668997e+01
2.820000e-06	4.059426e-06	6.969117e-10	2.817949e+01	4.681544e+01
2.830000e-06	4.091021e-06	6.981795e-10	2.839881e+01	4.693370e+01
2.840000e-06	4.122421e-06	6.952234e-10	2.861679e+01	4.704486e+01
2.850000e-06	4.153509e-06	6.935264e-10	2.883259e+01	4.714909e+01
2.860000e-06	4.184292e-06	6.954822e-10	2.904628e+01	4.724657e+01
2.870000e-06	4.214817e-06	6.988002e-10	2.925817e+01	4.733751e+01
2.880000e-06	4.245010e-06	7.023215e-10	2.946776e+01	4.742215e+01
2.890000e-06	4.274910e-06	7.073990e-10	2.967532e+01	4.750073e+01
2.900000e-06	4.304574e-06	7.107745e-10	2.988125e+01	4.757354e+01
