# Temperatura_=_13.4
# Concentracion g/m^3_=_1620.0
# C_Vs_to_Am_M_A/Vsm_=_65563218390.804596
# pendiente_HvsI_1/m_=_3716.3
# ordenada_HvsI_A/m_=_1297.0
# frecuencia_Hz_=_135102.3853399824

Tiempo_(s)	Campo_(V.s)	Magnetizacion_(V.s)	Campo_(kA/m)	Magnetizacion_(A/m)
0.000000e+00	-5.528961e-06	-8.416546e-10	-3.836329e+01	-5.534915e+01
1.000000e-08	-5.529048e-06	-8.425373e-10	-3.836390e+01	-5.535281e+01
2.000000e-08	-5.528737e-06	-8.441882e-10	-3.836173e+01	-5.535576e+01
3.000000e-08	-5.528085e-06	-8.444186e-10	-3.835721e+01	-5.535797e+01
4.000000e-08	-5.527001e-06	-8.439174e-10	-3.834969e+01	-5.535941e+01
5.000000e-08	-5.525395e-06	-8.478039e-10	-3.833854e+01	-5.536003e+01
6.000000e-08	-5.523232e-06	-8.429531e-10	-3.832354e+01	-5.535979e+01
7.000000e-08	-5.520535e-06	-8.162348e-10	-3.830482e+01	-5.535865e+01
8.000000e-08	-5.517250e-06	-7.909529e-10	-3.828203e+01	-5.535657e+01
9.000000e-08	-5.513444e-06	-8.377463e-10	-3.825563e+01	-5.535349e+01
1.000000e-07	-5.509221e-06	-8.846500e-10	-3.822632e+01	-5.534938e+01
1.100000e-07	-5.504596e-06	-8.546193e-10	-3.819423e+01	-5.534419e+01
1.200000e-07	-5.499797e-06	-7.733863e-10	-3.816093e+01	-5.533786e+01
1.300000e-07	-5.494853e-06	-8.023811e-10	-3.812663e+01	-5.533036e+01
1.400000e-07	-5.489530e-06	-8.335534e-10	-3.808969e+01	-5.532163e+01
1.500000e-07	-5.483771e-06	-8.233401e-10	-3.804973e+01	-5.531164e+01
1.600000e-07	-5.477657e-06	-7.624037e-10	-3.800731e+01	-5.530033e+01
1.700000e-07	-5.471126e-06	-8.157362e-10	-3.796200e+01	-5.528767e+01
1.800000e-07	-5.464122e-06	-8.698469e-10	-3.791340e+01	-5.527361e+01
1.900000e-07	-5.456756e-06	-8.614592e-10	-3.786229e+01	-5.525811e+01
2.000000e-07	-5.449164e-06	-8.064856e-10	-3.780961e+01	-5.524113e+01
2.100000e-07	-5.441350e-06	-8.031378e-10	-3.775539e+01	-5.522262e+01
2.200000e-07	-5.433173e-06	-8.300686e-10	-3.769865e+01	-5.520254e+01
2.300000e-07	-5.424629e-06	-8.317483e-10	-3.763937e+01	-5.518086e+01
2.400000e-07	-5.415787e-06	-8.305141e-10	-3.757802e+01	-5.515752e+01
2.500000e-07	-5.406320e-06	-8.339131e-10	-3.751233e+01	-5.513250e+01
2.600000e-07	-5.396059e-06	-8.575457e-10	-3.744114e+01	-5.510575e+01
2.700000e-07	-5.385191e-06	-8.406132e-10	-3.736573e+01	-5.507722e+01
2.800000e-07	-5.373846e-06	-8.385244e-10	-3.728701e+01	-5.504687e+01
2.900000e-07	-5.362115e-06	-8.239737e-10	-3.720561e+01	-5.501465e+01
3.000000e-07	-5.350028e-06	-8.538956e-10	-3.712174e+01	-5.498053e+01
3.100000e-07	-5.337528e-06	-8.503308e-10	-3.703501e+01	-5.494445e+01
3.200000e-07	-5.324617e-06	-8.521803e-10	-3.694543e+01	-5.490636e+01
3.300000e-07	-5.311276e-06	-8.248943e-10	-3.685286e+01	-5.486621e+01
3.400000e-07	-5.297551e-06	-8.506989e-10	-3.675762e+01	-5.482395e+01
3.500000e-07	-5.283473e-06	-8.314780e-10	-3.665994e+01	-5.477952e+01
3.600000e-07	-5.268918e-06	-8.199276e-10	-3.655895e+01	-5.473286e+01
3.700000e-07	-5.253916e-06	-8.262720e-10	-3.645486e+01	-5.468392e+01
3.800000e-07	-5.238425e-06	-8.597798e-10	-3.634738e+01	-5.463264e+01
3.900000e-07	-5.222303e-06	-8.277029e-10	-3.623551e+01	-5.457894e+01
4.000000e-07	-5.205774e-06	-8.272328e-10	-3.612082e+01	-5.452278e+01
4.100000e-07	-5.188921e-06	-8.549978e-10	-3.600389e+01	-5.446408e+01
4.200000e-07	-5.171668e-06	-8.303144e-10	-3.588417e+01	-5.440279e+01
4.300000e-07	-5.154127e-06	-7.893191e-10	-3.576246e+01	-5.433883e+01
4.400000e-07	-5.136356e-06	-8.325900e-10	-3.563916e+01	-5.427214e+01
4.500000e-07	-5.118175e-06	-8.560555e-10	-3.551301e+01	-5.420267e+01
4.600000e-07	-5.099470e-06	-8.018298e-10	-3.538322e+01	-5.413035e+01
4.700000e-07	-5.080375e-06	-8.084363e-10	-3.525073e+01	-5.405513e+01
4.800000e-07	-5.061050e-06	-8.491818e-10	-3.511664e+01	-5.397695e+01
4.900000e-07	-5.041477e-06	-8.168304e-10	-3.498083e+01	-5.389576e+01
5.000000e-07	-5.021609e-06	-7.887602e-10	-3.484297e+01	-5.381152e+01
5.100000e-07	-5.001508e-06	-8.408128e-10	-3.470350e+01	-5.372418e+01
5.200000e-07	-4.981074e-06	-8.265368e-10	-3.456172e+01	-5.363373e+01
5.300000e-07	-4.960267e-06	-7.877192e-10	-3.441734e+01	-5.354012e+01
5.400000e-07	-4.939145e-06	-8.238972e-10	-3.427079e+01	-5.344335e+01
5.500000e-07	-4.917655e-06	-8.494793e-10	-3.412168e+01	-5.334339e+01
5.600000e-07	-4.895801e-06	-7.880567e-10	-3.397004e+01	-5.324027e+01
5.700000e-07	-4.873644e-06	-7.957092e-10	-3.381630e+01	-5.313397e+01
5.800000e-07	-4.851182e-06	-8.293524e-10	-3.366045e+01	-5.302453e+01
5.900000e-07	-4.828274e-06	-8.013832e-10	-3.350150e+01	-5.291197e+01
6.000000e-07	-4.805050e-06	-7.828235e-10	-3.334036e+01	-5.279633e+01
6.100000e-07	-4.781683e-06	-8.286322e-10	-3.317822e+01	-5.267767e+01
6.200000e-07	-4.758049e-06	-8.092381e-10	-3.301424e+01	-5.255605e+01
6.300000e-07	-4.734174e-06	-7.762633e-10	-3.284857e+01	-5.243154e+01
6.400000e-07	-4.709949e-06	-7.975170e-10	-3.268048e+01	-5.230423e+01
6.500000e-07	-4.685298e-06	-8.084909e-10	-3.250944e+01	-5.217420e+01
6.600000e-07	-4.660182e-06	-7.756885e-10	-3.233517e+01	-5.204158e+01
6.700000e-07	-4.634577e-06	-7.911674e-10	-3.215751e+01	-5.190646e+01
6.800000e-07	-4.608516e-06	-8.066259e-10	-3.197668e+01	-5.176897e+01
6.900000e-07	-4.581983e-06	-7.835212e-10	-3.179258e+01	-5.162925e+01
7.000000e-07	-4.555038e-06	-7.757837e-10	-3.160562e+01	-5.148743e+01
7.100000e-07	-4.527687e-06	-7.930834e-10	-3.141584e+01	-5.134365e+01
7.200000e-07	-4.500041e-06	-7.749869e-10	-3.122402e+01	-5.119806e+01
7.300000e-07	-4.472202e-06	-7.597182e-10	-3.103085e+01	-5.105082e+01
7.400000e-07	-4.444170e-06	-7.769421e-10	-3.083635e+01	-5.090207e+01
7.500000e-07	-4.415898e-06	-7.786708e-10	-3.064018e+01	-5.075196e+01
7.600000e-07	-4.387368e-06	-7.658155e-10	-3.044223e+01	-5.060066e+01
7.700000e-07	-4.358558e-06	-7.707449e-10	-3.024232e+01	-5.044830e+01
7.800000e-07	-4.329452e-06	-7.707006e-10	-3.004036e+01	-5.029504e+01
7.900000e-07	-4.300037e-06	-7.504473e-10	-2.983627e+01	-5.014100e+01
8.000000e-07	-4.270291e-06	-7.540459e-10	-2.962987e+01	-4.998633e+01
8.100000e-07	-4.240266e-06	-7.636004e-10	-2.942154e+01	-4.983114e+01
8.200000e-07	-4.209938e-06	-7.555002e-10	-2.921111e+01	-4.967555e+01
8.300000e-07	-4.179337e-06	-7.481506e-10	-2.899878e+01	-4.951965e+01
8.400000e-07	-4.148473e-06	-7.572331e-10	-2.878463e+01	-4.936352e+01
8.500000e-07	-4.117291e-06	-7.474705e-10	-2.856826e+01	-4.920725e+01
8.600000e-07	-4.085869e-06	-7.366732e-10	-2.835024e+01	-4.905087e+01
8.700000e-07	-4.054325e-06	-7.366485e-10	-2.813137e+01	-4.889443e+01
8.800000e-07	-4.022667e-06	-7.350320e-10	-2.791170e+01	-4.873795e+01
8.900000e-07	-3.990764e-06	-7.214477e-10	-2.769035e+01	-4.858141e+01
9.000000e-07	-3.958504e-06	-7.255166e-10	-2.746650e+01	-4.842480e+01
9.100000e-07	-3.925880e-06	-7.247557e-10	-2.724014e+01	-4.826808e+01
9.200000e-07	-3.892895e-06	-7.144281e-10	-2.701127e+01	-4.811119e+01
9.300000e-07	-3.859545e-06	-7.110892e-10	-2.677986e+01	-4.795403e+01
9.400000e-07	-3.825831e-06	-7.187409e-10	-2.654594e+01	-4.779651e+01
9.500000e-07	-3.791662e-06	-7.127476e-10	-2.630885e+01	-4.763850e+01
9.600000e-07	-3.757017e-06	-7.089088e-10	-2.606847e+01	-4.747985e+01
9.700000e-07	-3.722007e-06	-7.111138e-10	-2.582555e+01	-4.732041e+01
9.800000e-07	-3.686686e-06	-7.056774e-10	-2.558046e+01	-4.715998e+01
9.900000e-07	-3.651097e-06	-6.930559e-10	-2.533353e+01	-4.699838e+01
1.000000e-06	-3.615378e-06	-6.931391e-10	-2.508569e+01	-4.683538e+01
1.010000e-06	-3.579551e-06	-6.940269e-10	-2.483710e+01	-4.667076e+01
1.020000e-06	-3.543569e-06	-6.886176e-10	-2.458744e+01	-4.650428e+01
1.030000e-06	-3.507405e-06	-6.893246e-10	-2.433650e+01	-4.633567e+01
1.040000e-06	-3.470982e-06	-6.920145e-10	-2.408378e+01	-4.616469e+01
1.050000e-06	-3.434266e-06	-6.843718e-10	-2.382902e+01	-4.599106e+01
1.060000e-06	-3.397318e-06	-6.751238e-10	-2.357266e+01	-4.581450e+01
1.070000e-06	-3.360082e-06	-6.748469e-10	-2.331429e+01	-4.563474e+01
1.080000e-06	-3.322557e-06	-6.712181e-10	-2.305392e+01	-4.545150e+01
1.090000e-06	-3.284791e-06	-6.679744e-10	-2.279187e+01	-4.526450e+01
1.100000e-06	-3.246838e-06	-6.698504e-10	-2.252853e+01	-4.507348e+01
1.110000e-06	-3.208748e-06	-6.691792e-10	-2.226424e+01	-4.487815e+01
1.120000e-06	-3.170443e-06	-6.593531e-10	-2.199846e+01	-4.467826e+01
1.130000e-06	-3.131859e-06	-6.548443e-10	-2.173074e+01	-4.447356e+01
1.140000e-06	-3.092917e-06	-6.515556e-10	-2.146054e+01	-4.426380e+01
1.150000e-06	-3.053824e-06	-6.452181e-10	-2.118928e+01	-4.404877e+01
1.160000e-06	-3.014718e-06	-6.399761e-10	-2.091795e+01	-4.382823e+01
1.170000e-06	-2.975450e-06	-6.415887e-10	-2.064548e+01	-4.360201e+01
1.180000e-06	-2.935943e-06	-6.376278e-10	-2.037136e+01	-4.336990e+01
1.190000e-06	-2.896299e-06	-6.327471e-10	-2.009628e+01	-4.313176e+01
1.200000e-06	-2.856572e-06	-6.292868e-10	-1.982063e+01	-4.288743e+01
1.210000e-06	-2.816646e-06	-6.248557e-10	-1.954360e+01	-4.263679e+01
1.220000e-06	-2.776513e-06	-6.165665e-10	-1.926513e+01	-4.237972e+01
1.230000e-06	-2.736182e-06	-6.134267e-10	-1.898529e+01	-4.211615e+01
1.240000e-06	-2.695640e-06	-6.100954e-10	-1.870398e+01	-4.184599e+01
1.250000e-06	-2.654905e-06	-6.052640e-10	-1.842135e+01	-4.156919e+01
1.260000e-06	-2.613893e-06	-6.025355e-10	-1.813678e+01	-4.128572e+01
1.270000e-06	-2.572590e-06	-6.031903e-10	-1.785019e+01	-4.099556e+01
1.280000e-06	-2.531015e-06	-5.982951e-10	-1.756172e+01	-4.069869e+01
1.290000e-06	-2.489159e-06	-5.903115e-10	-1.727129e+01	-4.039512e+01
1.300000e-06	-2.447138e-06	-5.849733e-10	-1.697973e+01	-4.008487e+01
1.310000e-06	-2.404906e-06	-5.800582e-10	-1.668670e+01	-3.976796e+01
1.320000e-06	-2.362316e-06	-5.741650e-10	-1.639119e+01	-3.944442e+01
1.330000e-06	-2.319411e-06	-5.723800e-10	-1.609348e+01	-3.911429e+01
1.340000e-06	-2.276270e-06	-5.729017e-10	-1.579414e+01	-3.877759e+01
1.350000e-06	-2.232966e-06	-5.687669e-10	-1.549368e+01	-3.843438e+01
1.360000e-06	-2.189539e-06	-5.619988e-10	-1.519235e+01	-3.808467e+01
1.370000e-06	-2.145943e-06	-5.543798e-10	-1.488986e+01	-3.772850e+01
1.380000e-06	-2.102186e-06	-5.467230e-10	-1.458624e+01	-3.736587e+01
1.390000e-06	-2.058386e-06	-5.405251e-10	-1.428233e+01	-3.699679e+01
1.400000e-06	-2.014518e-06	-5.375607e-10	-1.397795e+01	-3.662125e+01
1.410000e-06	-1.970563e-06	-5.323339e-10	-1.367296e+01	-3.623922e+01
1.420000e-06	-1.926553e-06	-5.271181e-10	-1.336759e+01	-3.585065e+01
1.430000e-06	-1.882407e-06	-5.226839e-10	-1.306129e+01	-3.545547e+01
1.440000e-06	-1.838125e-06	-5.169822e-10	-1.275403e+01	-3.505358e+01
1.450000e-06	-1.793764e-06	-5.060026e-10	-1.244623e+01	-3.464486e+01
1.460000e-06	-1.749284e-06	-4.946422e-10	-1.213759e+01	-3.422917e+01
1.470000e-06	-1.704666e-06	-4.842823e-10	-1.182801e+01	-3.380634e+01
1.480000e-06	-1.659972e-06	-4.761038e-10	-1.151789e+01	-3.337614e+01
1.490000e-06	-1.615175e-06	-4.677225e-10	-1.120706e+01	-3.293835e+01
1.500000e-06	-1.570248e-06	-4.610970e-10	-1.089534e+01	-3.249271e+01
1.510000e-06	-1.525180e-06	-4.552674e-10	-1.058263e+01	-3.203891e+01
1.520000e-06	-1.480031e-06	-4.470518e-10	-1.026935e+01	-3.157663e+01
1.530000e-06	-1.434774e-06	-4.359759e-10	-9.955332e+00	-3.110551e+01
1.540000e-06	-1.389399e-06	-4.230653e-10	-9.640495e+00	-3.062517e+01
1.550000e-06	-1.343868e-06	-4.105101e-10	-9.324575e+00	-3.013521e+01
1.560000e-06	-1.298179e-06	-4.005349e-10	-9.007552e+00	-2.963518e+01
1.570000e-06	-1.252481e-06	-3.932522e-10	-8.690472e+00	-2.912464e+01
1.580000e-06	-1.206732e-06	-3.864453e-10	-8.373040e+00	-2.860312e+01
1.590000e-06	-1.160827e-06	-3.806383e-10	-8.054523e+00	-2.807012e+01
1.600000e-06	-1.114822e-06	-3.751613e-10	-7.735310e+00	-2.752514e+01
1.610000e-06	-1.068782e-06	-3.664958e-10	-7.415861e+00	-2.696769e+01
1.620000e-06	-1.022637e-06	-3.541429e-10	-7.095674e+00	-2.639724e+01
1.630000e-06	-9.764208e-07	-3.402771e-10	-6.775001e+00	-2.581329e+01
1.640000e-06	-9.301205e-07	-3.263993e-10	-6.453741e+00	-2.521533e+01
1.650000e-06	-8.837588e-07	-3.139634e-10	-6.132056e+00	-2.460286e+01
1.660000e-06	-8.373928e-07	-3.042881e-10	-5.810340e+00	-2.397542e+01
1.670000e-06	-7.909327e-07	-2.967654e-10	-5.487972e+00	-2.333252e+01
1.680000e-06	-7.444476e-07	-2.914758e-10	-5.165430e+00	-2.267375e+01
1.690000e-06	-6.980729e-07	-2.855836e-10	-4.843653e+00	-2.199868e+01
1.700000e-06	-6.516880e-07	-2.755371e-10	-4.521808e+00	-2.130696e+01
1.710000e-06	-6.051634e-07	-2.629319e-10	-4.198991e+00	-2.059825e+01
1.720000e-06	-5.585499e-07	-2.476526e-10	-3.875558e+00	-1.987225e+01
1.730000e-06	-5.118401e-07	-2.341269e-10	-3.551458e+00	-1.912875e+01
1.740000e-06	-4.651083e-07	-2.216745e-10	-3.227204e+00	-1.836754e+01
1.750000e-06	-4.183924e-07	-2.122547e-10	-2.903060e+00	-1.758851e+01
1.760000e-06	-3.716111e-07	-2.038995e-10	-2.578464e+00	-1.679158e+01
1.770000e-06	-3.246810e-07	-1.970525e-10	-2.252834e+00	-1.597677e+01
1.780000e-06	-2.776473e-07	-1.910968e-10	-1.926486e+00	-1.514413e+01
1.790000e-06	-2.306633e-07	-1.789985e-10	-1.600482e+00	-1.429380e+01
1.800000e-06	-1.837672e-07	-1.622189e-10	-1.275088e+00	-1.342600e+01
1.810000e-06	-1.368827e-07	-1.453524e-10	-9.497754e-01	-1.254101e+01
1.820000e-06	-8.997634e-08	-1.286834e-10	-6.243105e-01	-1.163918e+01
1.830000e-06	-4.304753e-08	-1.170539e-10	-2.986899e-01	-1.072096e+01
1.840000e-06	3.938071e-09	-1.079752e-10	2.732473e-02	-9.786852e+00
1.850000e-06	5.084163e-08	-1.022437e-10	3.527701e-01	-8.837446e+00
1.860000e-06	9.762137e-08	-9.539926e-11	6.773564e-01	-7.873402e+00
1.870000e-06	1.444619e-07	-8.435059e-11	1.002364e+00	-6.895453e+00
1.880000e-06	1.913357e-07	-6.936076e-11	1.327603e+00	-5.904403e+00
1.890000e-06	2.381697e-07	-5.038707e-11	1.652566e+00	-4.901122e+00
1.900000e-06	2.850037e-07	-3.234036e-11	1.977529e+00	-3.886548e+00
1.910000e-06	3.318206e-07	-1.644503e-11	2.302373e+00	-2.861675e+00
1.920000e-06	3.785861e-07	-7.665028e-12	2.626861e+00	-1.827556e+00
1.930000e-06	4.253713e-07	-3.691352e-13	2.951484e+00	-7.852959e-01
1.940000e-06	4.720766e-07	7.141247e-12	3.275554e+00	2.639556e-01
1.950000e-06	5.186093e-07	1.684205e-11	3.598426e+00	1.319007e+00
1.960000e-06	5.651522e-07	3.134767e-11	3.921369e+00	2.378631e+00
1.970000e-06	6.117105e-07	4.962523e-11	4.244419e+00	3.441573e+00
1.980000e-06	6.581457e-07	6.793819e-11	4.566614e+00	4.506554e+00
1.990000e-06	7.045686e-07	8.569410e-11	4.888725e+00	5.572280e+00
2.000000e-06	7.510198e-07	1.009988e-10	5.211032e+00	6.637448e+00
2.010000e-06	7.973818e-07	1.139549e-10	5.532720e+00	7.700750e+00
2.020000e-06	8.437427e-07	1.238852e-10	5.854400e+00	8.760886e+00
2.030000e-06	8.900040e-07	1.354500e-10	6.175388e+00	9.816564e+00
2.040000e-06	9.361266e-07	1.470634e-10	6.495415e+00	1.086651e+01
2.050000e-06	9.822321e-07	1.614143e-10	6.815323e+00	1.190948e+01
2.060000e-06	1.028299e-06	1.789607e-10	7.134966e+00	1.294425e+01
2.070000e-06	1.074283e-06	1.970348e-10	7.454028e+00	1.396965e+01
2.080000e-06	1.120147e-06	2.137287e-10	7.772262e+00	1.498453e+01
2.090000e-06	1.165975e-06	2.276961e-10	8.090245e+00	1.598781e+01
2.100000e-06	1.211773e-06	2.400226e-10	8.408018e+00	1.697846e+01
2.110000e-06	1.257459e-06	2.515301e-10	8.725012e+00	1.795548e+01
2.120000e-06	1.303012e-06	2.644022e-10	9.041087e+00	1.891799e+01
2.130000e-06	1.348438e-06	2.772297e-10	9.356282e+00	1.986511e+01
2.140000e-06	1.393866e-06	2.893732e-10	9.671488e+00	2.079610e+01
2.150000e-06	1.439316e-06	3.025447e-10	9.986848e+00	2.171022e+01
2.160000e-06	1.484623e-06	3.171398e-10	1.030121e+01	2.260688e+01
2.170000e-06	1.529726e-06	3.317109e-10	1.061417e+01	2.348550e+01
2.180000e-06	1.574721e-06	3.439948e-10	1.092637e+01	2.434562e+01
2.190000e-06	1.619572e-06	3.534186e-10	1.123757e+01	2.518685e+01
2.200000e-06	1.664247e-06	3.620676e-10	1.154756e+01	2.600888e+01
2.210000e-06	1.708795e-06	3.716884e-10	1.185666e+01	2.681146e+01
2.220000e-06	1.753208e-06	3.838597e-10	1.216482e+01	2.759445e+01
2.230000e-06	1.797440e-06	3.956080e-10	1.247173e+01	2.835776e+01
2.240000e-06	1.841553e-06	4.064291e-10	1.277781e+01	2.910138e+01
2.250000e-06	1.885635e-06	4.159358e-10	1.308368e+01	2.982538e+01
2.260000e-06	1.929620e-06	4.252097e-10	1.338887e+01	3.052989e+01
2.270000e-06	1.973507e-06	4.328405e-10	1.369339e+01	3.121511e+01
2.280000e-06	2.017320e-06	4.404849e-10	1.399739e+01	3.188128e+01
2.290000e-06	2.061139e-06	4.480981e-10	1.430144e+01	3.252873e+01
2.300000e-06	2.104953e-06	4.563130e-10	1.460544e+01	3.315782e+01
2.310000e-06	2.148659e-06	4.658083e-10	1.490870e+01	3.376897e+01
2.320000e-06	2.192251e-06	4.758740e-10	1.521117e+01	3.436262e+01
2.330000e-06	2.235723e-06	4.846402e-10	1.551281e+01	3.493927e+01
2.340000e-06	2.279057e-06	4.914745e-10	1.581348e+01	3.549944e+01
2.350000e-06	2.322328e-06	4.972299e-10	1.611372e+01	3.604368e+01
2.360000e-06	2.365418e-06	5.044170e-10	1.641271e+01	3.657257e+01
2.370000e-06	2.408133e-06	5.128714e-10	1.670909e+01	3.708668e+01
2.380000e-06	2.450479e-06	5.204377e-10	1.700291e+01	3.758662e+01
2.390000e-06	2.492502e-06	5.301837e-10	1.729449e+01	3.807298e+01
2.400000e-06	2.534168e-06	5.379057e-10	1.758360e+01	3.854637e+01
2.410000e-06	2.575516e-06	5.438342e-10	1.787050e+01	3.900739e+01
2.420000e-06	2.616683e-06	5.506214e-10	1.815613e+01	3.945662e+01
2.430000e-06	2.657502e-06	5.568557e-10	1.843937e+01	3.989464e+01
2.440000e-06	2.697974e-06	5.637647e-10	1.872018e+01	4.032199e+01
2.450000e-06	2.738276e-06	5.740378e-10	1.899983e+01	4.073923e+01
2.460000e-06	2.778368e-06	5.835304e-10	1.927801e+01	4.114686e+01
2.470000e-06	2.818283e-06	5.877119e-10	1.955496e+01	4.154537e+01
2.480000e-06	2.858115e-06	5.901865e-10	1.983134e+01	4.193520e+01
2.490000e-06	2.897876e-06	5.938473e-10	2.010722e+01	4.231679e+01
2.500000e-06	2.937537e-06	6.000405e-10	2.038241e+01	4.269052e+01
2.510000e-06	2.977066e-06	6.065417e-10	2.065669e+01	4.305674e+01
2.520000e-06	3.016394e-06	6.128722e-10	2.092958e+01	4.341577e+01
2.530000e-06	3.055417e-06	6.192947e-10	2.120034e+01	4.376790e+01
2.540000e-06	3.094230e-06	6.234076e-10	2.146965e+01	4.411337e+01
2.550000e-06	3.132889e-06	6.249489e-10	2.173789e+01	4.445240e+01
2.560000e-06	3.171249e-06	6.259937e-10	2.200405e+01	4.478514e+01
2.570000e-06	3.209381e-06	6.276686e-10	2.226864e+01	4.511176e+01
2.580000e-06	3.247362e-06	6.305166e-10	2.253217e+01	4.543235e+01
2.590000e-06	3.285138e-06	6.341757e-10	2.279428e+01	4.574700e+01
2.600000e-06	3.322750e-06	6.415186e-10	2.305526e+01	4.605574e+01
2.610000e-06	3.360159e-06	6.503321e-10	2.331483e+01	4.635861e+01
2.620000e-06	3.397326e-06	6.575404e-10	2.357271e+01	4.665560e+01
2.630000e-06	3.434239e-06	6.617351e-10	2.382883e+01	4.694668e+01
2.640000e-06	3.470797e-06	6.642792e-10	2.408249e+01	4.723182e+01
2.650000e-06	3.507069e-06	6.675636e-10	2.433417e+01	4.751095e+01
2.660000e-06	3.543125e-06	6.697169e-10	2.458436e+01	4.778400e+01
2.670000e-06	3.578981e-06	6.719822e-10	2.483315e+01	4.805089e+01
2.680000e-06	3.614765e-06	6.743945e-10	2.508144e+01	4.831153e+01
2.690000e-06	3.650489e-06	6.772007e-10	2.532931e+01	4.856582e+01
2.700000e-06	3.686067e-06	6.826962e-10	2.557617e+01	4.881367e+01
2.710000e-06	3.721459e-06	6.913322e-10	2.582175e+01	4.905499e+01
2.720000e-06	3.756643e-06	7.016789e-10	2.606587e+01	4.928968e+01
2.730000e-06	3.791500e-06	7.090250e-10	2.630773e+01	4.951766e+01
2.740000e-06	3.825835e-06	7.103029e-10	2.654597e+01	4.973887e+01
2.750000e-06	3.859700e-06	7.084620e-10	2.678095e+01	4.995322e+01
2.760000e-06	3.893122e-06	7.076634e-10	2.701285e+01	5.016069e+01
2.770000e-06	3.926053e-06	7.108665e-10	2.724134e+01	5.036123e+01
2.780000e-06	3.958536e-06	7.179625e-10	2.746673e+01	5.055482e+01
2.790000e-06	3.990700e-06	7.274196e-10	2.768990e+01	5.074147e+01
2.800000e-06	4.022706e-06	7.372807e-10	2.791198e+01	5.092119e+01
2.810000e-06	4.054552e-06	7.457296e-10	2.813295e+01	5.109402e+01
2.820000e-06	4.086220e-06	7.490078e-10	2.835267e+01	5.126002e+01
2.830000e-06	4.117714e-06	7.471284e-10	2.857120e+01	5.141926e+01
2.840000e-06	4.148954e-06	7.428380e-10	2.878796e+01	5.157184e+01
2.850000e-06	4.179899e-06	7.416713e-10	2.900268e+01	5.171789e+01
2.860000e-06	4.210493e-06	7.451251e-10	2.921496e+01	5.185753e+01
2.870000e-06	4.240724e-06	7.511962e-10	2.942472e+01	5.199091e+01
2.880000e-06	4.270681e-06	7.600169e-10	2.963258e+01	5.211822e+01
2.890000e-06	4.300347e-06	7.679064e-10	2.983842e+01	5.223963e+01
2.900000e-06	4.329772e-06	7.719192e-10	3.004259e+01	5.235536e+01
