# Temperatura_=_9.1
# Concentracion g/m^3_=_1620.0
# C_Vs_to_Am_M_A/Vsm_=_65563218390.804596
# pendiente_HvsI_1/m_=_3716.3
# ordenada_HvsI_A/m_=_1297.0
# frecuencia_Hz_=_135103.89541521747

Tiempo_(s)	Campo_(V.s)	Magnetizacion_(V.s)	Campo_(kA/m)	Magnetizacion_(A/m)
0.000000e+00	-5.519742e-06	-7.612078e-10	-3.836500e+01	-5.147241e+01
1.000000e-08	-5.519877e-06	-7.582735e-10	-3.836594e+01	-5.148428e+01
2.000000e-08	-5.519757e-06	-7.552998e-10	-3.836511e+01	-5.149667e+01
3.000000e-08	-5.519263e-06	-7.507760e-10	-3.836167e+01	-5.150949e+01
4.000000e-08	-5.518273e-06	-7.470202e-10	-3.835479e+01	-5.152262e+01
5.000000e-08	-5.516733e-06	-7.463010e-10	-3.834409e+01	-5.153593e+01
6.000000e-08	-5.514565e-06	-7.481646e-10	-3.832902e+01	-5.154927e+01
7.000000e-08	-5.511835e-06	-7.482067e-10	-3.831005e+01	-5.156249e+01
8.000000e-08	-5.508634e-06	-7.309035e-10	-3.828779e+01	-5.157542e+01
9.000000e-08	-5.504938e-06	-7.434630e-10	-3.826211e+01	-5.158789e+01
1.000000e-07	-5.500856e-06	-7.939653e-10	-3.823373e+01	-5.159971e+01
1.100000e-07	-5.496356e-06	-7.787623e-10	-3.820246e+01	-5.161070e+01
1.200000e-07	-5.491522e-06	-6.851681e-10	-3.816886e+01	-5.162067e+01
1.300000e-07	-5.486539e-06	-7.125992e-10	-3.813422e+01	-5.162943e+01
1.400000e-07	-5.481256e-06	-7.409748e-10	-3.809750e+01	-5.163678e+01
1.500000e-07	-5.475550e-06	-7.738505e-10	-3.805784e+01	-5.164254e+01
1.600000e-07	-5.469400e-06	-6.681816e-10	-3.801510e+01	-5.164652e+01
1.700000e-07	-5.462905e-06	-7.272780e-10	-3.796996e+01	-5.164855e+01
1.800000e-07	-5.455973e-06	-7.909354e-10	-3.792177e+01	-5.164844e+01
1.900000e-07	-5.448659e-06	-7.975098e-10	-3.787094e+01	-5.164604e+01
2.000000e-07	-5.441149e-06	-7.185340e-10	-3.781874e+01	-5.164119e+01
2.100000e-07	-5.433378e-06	-7.367631e-10	-3.776472e+01	-5.163375e+01
2.200000e-07	-5.425227e-06	-7.992759e-10	-3.770808e+01	-5.162359e+01
2.300000e-07	-5.416754e-06	-8.011740e-10	-3.764919e+01	-5.161059e+01
2.400000e-07	-5.407956e-06	-7.756111e-10	-3.758803e+01	-5.159466e+01
2.500000e-07	-5.398552e-06	-7.685854e-10	-3.752267e+01	-5.157571e+01
2.600000e-07	-5.388388e-06	-8.230900e-10	-3.745203e+01	-5.155366e+01
2.700000e-07	-5.377595e-06	-7.962145e-10	-3.737701e+01	-5.152846e+01
2.800000e-07	-5.366341e-06	-7.931943e-10	-3.729878e+01	-5.150008e+01
2.900000e-07	-5.354631e-06	-7.825280e-10	-3.721740e+01	-5.146848e+01
3.000000e-07	-5.342539e-06	-8.314441e-10	-3.713335e+01	-5.143366e+01
3.100000e-07	-5.330090e-06	-7.921096e-10	-3.704682e+01	-5.139563e+01
3.200000e-07	-5.317265e-06	-8.024725e-10	-3.695769e+01	-5.135441e+01
3.300000e-07	-5.304086e-06	-7.752943e-10	-3.686609e+01	-5.131004e+01
3.400000e-07	-5.290512e-06	-8.161443e-10	-3.677174e+01	-5.126257e+01
3.500000e-07	-5.276471e-06	-7.832670e-10	-3.667414e+01	-5.121206e+01
3.600000e-07	-5.261963e-06	-7.802602e-10	-3.657331e+01	-5.115858e+01
3.700000e-07	-5.246964e-06	-7.750124e-10	-3.646906e+01	-5.110222e+01
3.800000e-07	-5.231525e-06	-8.340594e-10	-3.636175e+01	-5.104308e+01
3.900000e-07	-5.215551e-06	-7.921106e-10	-3.625072e+01	-5.098125e+01
4.000000e-07	-5.199059e-06	-7.663582e-10	-3.613609e+01	-5.091684e+01
4.100000e-07	-5.182240e-06	-8.045161e-10	-3.601919e+01	-5.084997e+01
4.200000e-07	-5.165172e-06	-8.244303e-10	-3.590056e+01	-5.078076e+01
4.300000e-07	-5.147770e-06	-7.518200e-10	-3.577961e+01	-5.070931e+01
4.400000e-07	-5.130015e-06	-7.671352e-10	-3.565620e+01	-5.063577e+01
4.500000e-07	-5.111994e-06	-8.319175e-10	-3.553094e+01	-5.056024e+01
4.600000e-07	-5.093485e-06	-7.704267e-10	-3.540230e+01	-5.048286e+01
4.700000e-07	-5.074404e-06	-7.314096e-10	-3.526968e+01	-5.040373e+01
4.800000e-07	-5.055001e-06	-8.095126e-10	-3.513481e+01	-5.032298e+01
4.900000e-07	-5.035397e-06	-8.190110e-10	-3.499856e+01	-5.024071e+01
5.000000e-07	-5.015582e-06	-7.386104e-10	-3.486083e+01	-5.015704e+01
5.100000e-07	-4.995576e-06	-7.901499e-10	-3.472178e+01	-5.007206e+01
5.200000e-07	-4.975292e-06	-8.147289e-10	-3.458080e+01	-4.998587e+01
5.300000e-07	-4.954634e-06	-7.421392e-10	-3.443722e+01	-4.989856e+01
5.400000e-07	-4.933660e-06	-7.466345e-10	-3.429144e+01	-4.981021e+01
5.500000e-07	-4.912355e-06	-8.296793e-10	-3.414336e+01	-4.972089e+01
5.600000e-07	-4.890625e-06	-7.608515e-10	-3.399232e+01	-4.963066e+01
5.700000e-07	-4.868585e-06	-7.347824e-10	-3.383913e+01	-4.953959e+01
5.800000e-07	-4.846291e-06	-8.035296e-10	-3.368418e+01	-4.944773e+01
5.900000e-07	-4.823546e-06	-7.962969e-10	-3.352609e+01	-4.935511e+01
6.000000e-07	-4.800317e-06	-7.220644e-10	-3.336463e+01	-4.926178e+01
6.100000e-07	-4.776826e-06	-7.787519e-10	-3.320136e+01	-4.916776e+01
6.200000e-07	-4.753180e-06	-7.888843e-10	-3.303701e+01	-4.907308e+01
6.300000e-07	-4.729322e-06	-7.326299e-10	-3.287118e+01	-4.897775e+01
6.400000e-07	-4.705171e-06	-7.420316e-10	-3.270332e+01	-4.888178e+01
6.500000e-07	-4.680706e-06	-7.893741e-10	-3.253328e+01	-4.878517e+01
6.600000e-07	-4.655813e-06	-7.444612e-10	-3.236026e+01	-4.868793e+01
6.700000e-07	-4.630363e-06	-7.402391e-10	-3.218337e+01	-4.859006e+01
6.800000e-07	-4.604346e-06	-7.733662e-10	-3.200254e+01	-4.849155e+01
6.900000e-07	-4.577818e-06	-7.590014e-10	-3.181815e+01	-4.839239e+01
7.000000e-07	-4.550874e-06	-7.316712e-10	-3.163088e+01	-4.829257e+01
7.100000e-07	-4.523629e-06	-7.579891e-10	-3.144151e+01	-4.819208e+01
7.200000e-07	-4.496096e-06	-7.542787e-10	-3.125014e+01	-4.809091e+01
7.300000e-07	-4.468313e-06	-7.323697e-10	-3.105704e+01	-4.798904e+01
7.400000e-07	-4.440388e-06	-7.460871e-10	-3.086294e+01	-4.788646e+01
7.500000e-07	-4.412265e-06	-7.550125e-10	-3.066748e+01	-4.778315e+01
7.600000e-07	-4.383899e-06	-7.363190e-10	-3.047031e+01	-4.767911e+01
7.700000e-07	-4.355225e-06	-7.342912e-10	-3.027102e+01	-4.757432e+01
7.800000e-07	-4.326202e-06	-7.464272e-10	-3.006930e+01	-4.746876e+01
7.900000e-07	-4.296830e-06	-7.324499e-10	-2.986514e+01	-4.736243e+01
8.000000e-07	-4.267172e-06	-7.331228e-10	-2.965900e+01	-4.725531e+01
8.100000e-07	-4.237250e-06	-7.424885e-10	-2.945103e+01	-4.714738e+01
8.200000e-07	-4.206996e-06	-7.388133e-10	-2.924075e+01	-4.703865e+01
8.300000e-07	-4.176414e-06	-7.245475e-10	-2.902819e+01	-4.692909e+01
8.400000e-07	-4.145497e-06	-7.357396e-10	-2.881330e+01	-4.681869e+01
8.500000e-07	-4.114274e-06	-7.287142e-10	-2.859629e+01	-4.670743e+01
8.600000e-07	-4.082814e-06	-7.179787e-10	-2.837763e+01	-4.659529e+01
8.700000e-07	-4.051211e-06	-7.178275e-10	-2.815797e+01	-4.648226e+01
8.800000e-07	-4.019515e-06	-7.272722e-10	-2.793767e+01	-4.636830e+01
8.900000e-07	-3.987673e-06	-7.159621e-10	-2.771635e+01	-4.625338e+01
9.000000e-07	-3.955586e-06	-7.221918e-10	-2.749332e+01	-4.613748e+01
9.100000e-07	-3.923177e-06	-7.240628e-10	-2.726807e+01	-4.602055e+01
9.200000e-07	-3.890322e-06	-7.149645e-10	-2.703970e+01	-4.590254e+01
9.300000e-07	-3.857114e-06	-7.037499e-10	-2.680889e+01	-4.578340e+01
9.400000e-07	-3.823527e-06	-7.121154e-10	-2.657545e+01	-4.566306e+01
9.500000e-07	-3.789355e-06	-7.047174e-10	-2.633794e+01	-4.554145e+01
9.600000e-07	-3.754730e-06	-6.982187e-10	-2.609727e+01	-4.541850e+01
9.700000e-07	-3.719781e-06	-7.017324e-10	-2.585436e+01	-4.529412e+01
9.800000e-07	-3.684533e-06	-7.057111e-10	-2.560937e+01	-4.516820e+01
9.900000e-07	-3.649058e-06	-7.001697e-10	-2.536280e+01	-4.504064e+01
1.000000e-06	-3.613424e-06	-7.026101e-10	-2.511512e+01	-4.491132e+01
1.010000e-06	-3.577680e-06	-7.040179e-10	-2.486668e+01	-4.478012e+01
1.020000e-06	-3.541824e-06	-6.956042e-10	-2.461747e+01	-4.464689e+01
1.030000e-06	-3.505731e-06	-6.909513e-10	-2.436660e+01	-4.451149e+01
1.040000e-06	-3.469361e-06	-6.927633e-10	-2.411382e+01	-4.437376e+01
1.050000e-06	-3.432762e-06	-6.889873e-10	-2.385943e+01	-4.423353e+01
1.060000e-06	-3.395941e-06	-6.842329e-10	-2.360351e+01	-4.409063e+01
1.070000e-06	-3.358867e-06	-6.886661e-10	-2.334583e+01	-4.394489e+01
1.080000e-06	-3.321527e-06	-6.887648e-10	-2.308629e+01	-4.379611e+01
1.090000e-06	-3.283987e-06	-6.842389e-10	-2.282537e+01	-4.364410e+01
1.100000e-06	-3.246254e-06	-6.810910e-10	-2.256311e+01	-4.348866e+01
1.110000e-06	-3.208314e-06	-6.806554e-10	-2.229941e+01	-4.332960e+01
1.120000e-06	-3.170046e-06	-6.696412e-10	-2.203342e+01	-4.316670e+01
1.130000e-06	-3.131484e-06	-6.642315e-10	-2.176540e+01	-4.299976e+01
1.140000e-06	-3.092761e-06	-6.613892e-10	-2.149625e+01	-4.282857e+01
1.150000e-06	-3.053865e-06	-6.578885e-10	-2.122591e+01	-4.265294e+01
1.160000e-06	-3.014805e-06	-6.512769e-10	-2.095442e+01	-4.247265e+01
1.170000e-06	-2.975583e-06	-6.537708e-10	-2.068181e+01	-4.228752e+01
1.180000e-06	-2.936187e-06	-6.530303e-10	-2.040799e+01	-4.209734e+01
1.190000e-06	-2.896600e-06	-6.501410e-10	-2.013284e+01	-4.190194e+01
1.200000e-06	-2.856885e-06	-6.461137e-10	-1.985680e+01	-4.170112e+01
1.210000e-06	-2.817047e-06	-6.441691e-10	-1.957990e+01	-4.149472e+01
1.220000e-06	-2.777051e-06	-6.347017e-10	-1.930191e+01	-4.128257e+01
1.230000e-06	-2.736933e-06	-6.305342e-10	-1.902307e+01	-4.106452e+01
1.240000e-06	-2.696634e-06	-6.263281e-10	-1.874297e+01	-4.084043e+01
1.250000e-06	-2.656130e-06	-6.208353e-10	-1.846145e+01	-4.061015e+01
1.260000e-06	-2.615352e-06	-6.144897e-10	-1.817802e+01	-4.037358e+01
1.270000e-06	-2.574215e-06	-6.131015e-10	-1.789210e+01	-4.013059e+01
1.280000e-06	-2.532843e-06	-6.070098e-10	-1.760454e+01	-3.988108e+01
1.290000e-06	-2.491285e-06	-5.998864e-10	-1.731569e+01	-3.962498e+01
1.300000e-06	-2.449461e-06	-5.958389e-10	-1.702500e+01	-3.936219e+01
1.310000e-06	-2.407296e-06	-5.928792e-10	-1.673193e+01	-3.909265e+01
1.320000e-06	-2.364742e-06	-5.864163e-10	-1.643615e+01	-3.881629e+01
1.330000e-06	-2.321821e-06	-5.818451e-10	-1.613783e+01	-3.853307e+01
1.340000e-06	-2.278688e-06	-5.789737e-10	-1.583803e+01	-3.824293e+01
1.350000e-06	-2.235428e-06	-5.729474e-10	-1.553735e+01	-3.794584e+01
1.360000e-06	-2.191993e-06	-5.648490e-10	-1.523546e+01	-3.764176e+01
1.370000e-06	-2.148395e-06	-5.586275e-10	-1.493243e+01	-3.733065e+01
1.380000e-06	-2.104723e-06	-5.563388e-10	-1.462889e+01	-3.701248e+01
1.390000e-06	-2.061042e-06	-5.534770e-10	-1.432528e+01	-3.668722e+01
1.400000e-06	-2.017286e-06	-5.528288e-10	-1.402116e+01	-3.635482e+01
1.410000e-06	-1.973398e-06	-5.472746e-10	-1.371612e+01	-3.601524e+01
1.420000e-06	-1.929429e-06	-5.399483e-10	-1.341051e+01	-3.566843e+01
1.430000e-06	-1.885359e-06	-5.319000e-10	-1.310420e+01	-3.531434e+01
1.440000e-06	-1.841211e-06	-5.252340e-10	-1.279735e+01	-3.495289e+01
1.450000e-06	-1.796998e-06	-5.134092e-10	-1.249005e+01	-3.458400e+01
1.460000e-06	-1.752639e-06	-5.033786e-10	-1.218173e+01	-3.420758e+01
1.470000e-06	-1.708149e-06	-4.954146e-10	-1.187250e+01	-3.382351e+01
1.480000e-06	-1.663552e-06	-4.912047e-10	-1.156253e+01	-3.343166e+01
1.490000e-06	-1.618831e-06	-4.859164e-10	-1.125170e+01	-3.303188e+01
1.500000e-06	-1.573980e-06	-4.834669e-10	-1.093996e+01	-3.262400e+01
1.510000e-06	-1.528969e-06	-4.773602e-10	-1.062711e+01	-3.220783e+01
1.520000e-06	-1.483830e-06	-4.648547e-10	-1.031337e+01	-3.178316e+01
1.530000e-06	-1.438628e-06	-4.486420e-10	-9.999191e+00	-3.134976e+01
1.540000e-06	-1.393323e-06	-4.356109e-10	-9.684300e+00	-3.090737e+01
1.550000e-06	-1.347937e-06	-4.264302e-10	-9.368848e+00	-3.045571e+01
1.560000e-06	-1.302456e-06	-4.198406e-10	-9.052729e+00	-2.999448e+01
1.570000e-06	-1.256898e-06	-4.130721e-10	-8.736080e+00	-2.952336e+01
1.580000e-06	-1.211261e-06	-4.055047e-10	-8.418879e+00	-2.904202e+01
1.590000e-06	-1.165481e-06	-3.976130e-10	-8.100682e+00	-2.855009e+01
1.600000e-06	-1.119535e-06	-3.906844e-10	-7.781332e+00	-2.804719e+01
1.610000e-06	-1.073446e-06	-3.809125e-10	-7.460995e+00	-2.753295e+01
1.620000e-06	-1.027373e-06	-3.706683e-10	-7.140762e+00	-2.700696e+01
1.630000e-06	-9.812733e-07	-3.608850e-10	-6.820346e+00	-2.646882e+01
1.640000e-06	-9.350452e-07	-3.488968e-10	-6.499037e+00	-2.591811e+01
1.650000e-06	-8.887519e-07	-3.379719e-10	-6.177276e+00	-2.535441e+01
1.660000e-06	-8.424376e-07	-3.290975e-10	-5.855368e+00	-2.477730e+01
1.670000e-06	-7.960763e-07	-3.224610e-10	-5.533133e+00	-2.418639e+01
1.680000e-06	-7.496699e-07	-3.160274e-10	-5.210585e+00	-2.358126e+01
1.690000e-06	-7.032385e-07	-3.107328e-10	-4.887864e+00	-2.296153e+01
1.700000e-06	-6.566703e-07	-3.035447e-10	-4.564191e+00	-2.232683e+01
1.710000e-06	-6.099949e-07	-2.937404e-10	-4.239774e+00	-2.167681e+01
1.720000e-06	-5.633537e-07	-2.803552e-10	-3.915594e+00	-2.101114e+01
1.730000e-06	-5.167321e-07	-2.679076e-10	-3.591550e+00	-2.032955e+01
1.740000e-06	-4.700728e-07	-2.545230e-10	-3.267244e+00	-1.963176e+01
1.750000e-06	-4.233636e-07	-2.421726e-10	-2.942592e+00	-1.891756e+01
1.760000e-06	-3.765153e-07	-2.322085e-10	-2.616972e+00	-1.818679e+01
1.770000e-06	-3.295824e-07	-2.244495e-10	-2.290764e+00	-1.743931e+01
1.780000e-06	-2.827336e-07	-2.155752e-10	-1.965142e+00	-1.667505e+01
1.790000e-06	-2.359268e-07	-2.042047e-10	-1.639811e+00	-1.589399e+01
1.800000e-06	-1.890912e-07	-1.912995e-10	-1.314280e+00	-1.509617e+01
1.810000e-06	-1.421926e-07	-1.779080e-10	-9.883106e-01	-1.428170e+01
1.820000e-06	-9.529964e-08	-1.638591e-10	-6.623808e-01	-1.345073e+01
1.830000e-06	-4.847496e-08	-1.521329e-10	-3.369255e-01	-1.260350e+01
1.840000e-06	-1.701891e-09	-1.403522e-10	-1.182901e-02	-1.174030e+01
1.850000e-06	4.502951e-08	-1.286957e-10	3.129779e-01	-1.086151e+01
1.860000e-06	9.178994e-08	-1.178560e-10	6.379865e-01	-9.967565e+00
1.870000e-06	1.386358e-07	-1.081400e-10	9.635890e-01	-9.058965e+00
1.880000e-06	1.854999e-07	-9.788527e-11	1.289318e+00	-8.136292e+00
1.890000e-06	2.322890e-07	-8.627053e-11	1.614526e+00	-7.200193e+00
1.900000e-06	2.790292e-07	-7.480936e-11	1.939395e+00	-6.251382e+00
1.910000e-06	3.257519e-07	-6.090346e-11	2.264141e+00	-5.290640e+00
1.920000e-06	3.724331e-07	-4.587513e-11	2.588598e+00	-4.318811e+00
1.930000e-06	4.191271e-07	-3.074085e-11	2.913146e+00	-3.336801e+00
1.940000e-06	4.658546e-07	-1.657905e-11	3.237925e+00	-2.345573e+00
1.950000e-06	5.125486e-07	-3.888874e-12	3.562472e+00	-1.346143e+00
1.960000e-06	5.591915e-07	7.425944e-12	3.886664e+00	-3.395786e-01
1.970000e-06	6.057635e-07	1.820828e-11	4.210363e+00	6.730109e-01
1.980000e-06	6.522134e-07	3.075289e-11	4.533213e+00	1.690474e+00
1.990000e-06	6.985531e-07	4.453085e-11	4.855298e+00	2.711628e+00
2.000000e-06	7.448738e-07	5.925257e-11	5.177250e+00	3.735257e+00
2.010000e-06	7.912255e-07	7.471190e-11	5.499418e+00	4.760129e+00
2.020000e-06	8.375249e-07	8.885387e-11	5.821222e+00	5.784991e+00
2.030000e-06	8.836935e-07	1.043279e-10	6.142117e+00	6.808583e+00
2.040000e-06	9.298064e-07	1.188959e-10	6.462626e+00	7.829642e+00
2.050000e-06	9.758828e-07	1.326119e-10	6.782880e+00	8.846907e+00
2.060000e-06	1.021897e-06	1.465983e-10	7.102699e+00	9.859130e+00
2.070000e-06	1.067843e-06	1.615667e-10	7.422053e+00	1.086508e+01
2.080000e-06	1.113663e-06	1.764726e-10	7.740520e+00	1.186354e+01
2.090000e-06	1.159422e-06	1.896919e-10	8.058571e+00	1.285334e+01
2.100000e-06	1.205192e-06	2.028566e-10	8.376695e+00	1.383334e+01
2.110000e-06	1.250835e-06	2.163165e-10	8.693934e+00	1.480243e+01
2.120000e-06	1.296313e-06	2.291378e-10	9.010029e+00	1.575956e+01
2.130000e-06	1.341733e-06	2.418730e-10	9.325722e+00	1.670374e+01
2.140000e-06	1.387116e-06	2.538459e-10	9.641158e+00	1.763402e+01
2.150000e-06	1.432414e-06	2.648319e-10	9.956000e+00	1.854951e+01
2.160000e-06	1.477664e-06	2.766959e-10	1.027051e+01	1.944942e+01
2.170000e-06	1.522831e-06	2.901661e-10	1.058444e+01	2.033299e+01
2.180000e-06	1.567826e-06	3.032399e-10	1.089718e+01	2.119956e+01
2.190000e-06	1.612679e-06	3.149722e-10	1.120894e+01	2.204853e+01
2.200000e-06	1.657310e-06	3.268852e-10	1.151915e+01	2.287939e+01
2.210000e-06	1.701772e-06	3.387235e-10	1.182818e+01	2.369169e+01
2.220000e-06	1.746174e-06	3.485401e-10	1.213679e+01	2.448508e+01
2.230000e-06	1.790425e-06	3.556274e-10	1.244436e+01	2.525927e+01
2.240000e-06	1.834556e-06	3.623452e-10	1.275109e+01	2.601407e+01
2.250000e-06	1.878604e-06	3.702817e-10	1.305725e+01	2.674935e+01
2.260000e-06	1.922564e-06	3.794787e-10	1.336280e+01	2.746507e+01
2.270000e-06	1.966479e-06	3.906698e-10	1.366803e+01	2.816124e+01
2.280000e-06	2.010328e-06	4.026155e-10	1.397280e+01	2.883798e+01
2.290000e-06	2.054117e-06	4.113559e-10	1.427716e+01	2.949544e+01
2.300000e-06	2.097797e-06	4.176246e-10	1.458075e+01	3.013385e+01
2.310000e-06	2.141413e-06	4.228433e-10	1.488390e+01	3.075352e+01
2.320000e-06	2.185008e-06	4.274007e-10	1.518691e+01	3.135478e+01
2.330000e-06	2.228448e-06	4.335253e-10	1.548884e+01	3.193803e+01
2.340000e-06	2.271700e-06	4.430087e-10	1.578946e+01	3.250372e+01
2.350000e-06	2.314763e-06	4.549669e-10	1.608878e+01	3.305234e+01
2.360000e-06	2.357554e-06	4.661520e-10	1.638619e+01	3.358442e+01
2.370000e-06	2.400006e-06	4.749083e-10	1.668126e+01	3.410049e+01
2.380000e-06	2.442107e-06	4.811371e-10	1.697388e+01	3.460115e+01
2.390000e-06	2.483880e-06	4.852891e-10	1.726423e+01	3.508698e+01
2.400000e-06	2.525356e-06	4.906256e-10	1.755251e+01	3.555861e+01
2.410000e-06	2.566632e-06	4.981097e-10	1.783939e+01	3.601663e+01
2.420000e-06	2.607683e-06	5.060220e-10	1.812472e+01	3.646169e+01
2.430000e-06	2.648459e-06	5.127091e-10	1.840813e+01	3.689439e+01
2.440000e-06	2.688923e-06	5.194556e-10	1.868937e+01	3.731534e+01
2.450000e-06	2.729106e-06	5.262001e-10	1.896867e+01	3.772514e+01
2.460000e-06	2.769174e-06	5.314919e-10	1.924716e+01	3.812437e+01
2.470000e-06	2.809147e-06	5.368845e-10	1.952499e+01	3.851359e+01
2.480000e-06	2.849007e-06	5.415956e-10	1.980204e+01	3.889332e+01
2.490000e-06	2.888769e-06	5.461839e-10	2.007840e+01	3.926409e+01
2.500000e-06	2.928400e-06	5.525000e-10	2.035386e+01	3.962635e+01
2.510000e-06	2.967902e-06	5.585263e-10	2.062842e+01	3.998055e+01
2.520000e-06	3.007219e-06	5.650749e-10	2.090169e+01	4.032709e+01
2.530000e-06	3.046261e-06	5.726552e-10	2.117305e+01	4.066635e+01
2.540000e-06	3.085033e-06	5.785480e-10	2.144254e+01	4.099864e+01
2.550000e-06	3.123514e-06	5.828443e-10	2.171000e+01	4.132425e+01
2.560000e-06	3.161806e-06	5.874447e-10	2.197615e+01	4.164344e+01
2.570000e-06	3.199963e-06	5.913444e-10	2.224136e+01	4.195641e+01
2.580000e-06	3.237939e-06	5.930935e-10	2.250532e+01	4.226334e+01
2.590000e-06	3.275713e-06	5.952401e-10	2.276787e+01	4.256437e+01
2.600000e-06	3.313249e-06	6.004873e-10	2.302876e+01	4.285958e+01
2.610000e-06	3.350628e-06	6.077556e-10	2.328856e+01	4.314905e+01
2.620000e-06	3.387838e-06	6.145327e-10	2.354719e+01	4.343280e+01
2.630000e-06	3.424703e-06	6.188882e-10	2.380342e+01	4.371085e+01
2.640000e-06	3.461221e-06	6.196800e-10	2.405724e+01	4.398317e+01
2.650000e-06	3.497507e-06	6.216086e-10	2.430944e+01	4.424972e+01
2.660000e-06	3.533605e-06	6.265655e-10	2.456035e+01	4.451042e+01
2.670000e-06	3.569542e-06	6.311964e-10	2.481012e+01	4.476521e+01
2.680000e-06	3.605327e-06	6.361935e-10	2.505885e+01	4.501397e+01
2.690000e-06	3.640989e-06	6.426576e-10	2.530672e+01	4.525661e+01
2.700000e-06	3.676529e-06	6.475076e-10	2.555374e+01	4.549301e+01
2.710000e-06	3.711917e-06	6.500520e-10	2.579970e+01	4.572306e+01
2.720000e-06	3.747048e-06	6.545054e-10	2.604388e+01	4.594664e+01
2.730000e-06	3.781764e-06	6.601099e-10	2.628517e+01	4.616365e+01
2.740000e-06	3.816067e-06	6.637987e-10	2.652360e+01	4.637398e+01
2.750000e-06	3.849909e-06	6.677619e-10	2.675882e+01	4.657753e+01
2.760000e-06	3.883231e-06	6.736003e-10	2.699042e+01	4.677423e+01
2.770000e-06	3.916109e-06	6.798204e-10	2.721894e+01	4.696401e+01
2.780000e-06	3.948623e-06	6.856376e-10	2.744493e+01	4.714683e+01
2.790000e-06	3.980874e-06	6.905340e-10	2.766909e+01	4.732264e+01
2.800000e-06	4.012892e-06	6.942101e-10	2.789163e+01	4.749146e+01
2.810000e-06	4.044669e-06	6.967092e-10	2.811250e+01	4.765329e+01
2.820000e-06	4.076296e-06	7.005469e-10	2.833232e+01	4.780818e+01
2.830000e-06	4.107794e-06	7.033175e-10	2.855125e+01	4.795618e+01
2.840000e-06	4.139077e-06	7.029336e-10	2.876868e+01	4.809740e+01
2.850000e-06	4.170050e-06	7.043024e-10	2.898396e+01	4.823193e+01
2.860000e-06	4.200700e-06	7.086386e-10	2.919699e+01	4.835993e+01
2.870000e-06	4.230985e-06	7.138131e-10	2.940749e+01	4.848156e+01
2.880000e-06	4.260910e-06	7.172378e-10	2.961548e+01	4.859700e+01
2.890000e-06	4.290531e-06	7.205771e-10	2.982136e+01	4.870646e+01
2.900000e-06	4.319885e-06	7.234151e-10	3.002539e+01	4.881017e+01
