# Temperatura_=_10.3
# Concentracion g/m^3_=_1620.0
# C_Vs_to_Am_M_A/Vsm_=_65563218390.804596
# pendiente_HvsI_1/m_=_3716.3
# ordenada_HvsI_A/m_=_1297.0
# frecuencia_Hz_=_135103.45930662396

Tiempo_(s)	Campo_(V.s)	Magnetizacion_(V.s)	Campo_(kA/m)	Magnetizacion_(A/m)
0.000000e+00	-5.529552e-06	-7.801896e-10	-3.836451e+01	-5.140556e+01
1.000000e-08	-5.529571e-06	-7.806351e-10	-3.836465e+01	-5.141979e+01
2.000000e-08	-5.529271e-06	-7.830113e-10	-3.836256e+01	-5.143503e+01
3.000000e-08	-5.528611e-06	-7.829317e-10	-3.835798e+01	-5.145113e+01
4.000000e-08	-5.527481e-06	-7.790165e-10	-3.835014e+01	-5.146795e+01
5.000000e-08	-5.525799e-06	-7.744290e-10	-3.833847e+01	-5.148532e+01
6.000000e-08	-5.523537e-06	-7.628303e-10	-3.832278e+01	-5.150307e+01
7.000000e-08	-5.520659e-06	-7.619684e-10	-3.830281e+01	-5.152104e+01
8.000000e-08	-5.517291e-06	-7.811821e-10	-3.827945e+01	-5.153904e+01
9.000000e-08	-5.513490e-06	-7.858694e-10	-3.825308e+01	-5.155690e+01
1.000000e-07	-5.509346e-06	-7.487609e-10	-3.822432e+01	-5.157444e+01
1.100000e-07	-5.504899e-06	-7.760135e-10	-3.819347e+01	-5.159149e+01
1.200000e-07	-5.500120e-06	-7.696000e-10	-3.816031e+01	-5.160785e+01
1.300000e-07	-5.495062e-06	-8.063448e-10	-3.812522e+01	-5.162336e+01
1.400000e-07	-5.489688e-06	-7.381603e-10	-3.808793e+01	-5.163785e+01
1.500000e-07	-5.484023e-06	-7.542121e-10	-3.804863e+01	-5.165114e+01
1.600000e-07	-5.477884e-06	-7.661428e-10	-3.800604e+01	-5.166307e+01
1.700000e-07	-5.471160e-06	-7.840942e-10	-3.795938e+01	-5.167350e+01
1.800000e-07	-5.464088e-06	-7.645631e-10	-3.791032e+01	-5.168226e+01
1.900000e-07	-5.456790e-06	-7.501526e-10	-3.785968e+01	-5.168922e+01
2.000000e-07	-5.449270e-06	-7.833059e-10	-3.780751e+01	-5.169424e+01
2.100000e-07	-5.441443e-06	-7.815889e-10	-3.775321e+01	-5.169720e+01
2.200000e-07	-5.433374e-06	-7.824407e-10	-3.769722e+01	-5.169798e+01
2.300000e-07	-5.424913e-06	-7.494051e-10	-3.763852e+01	-5.169647e+01
2.400000e-07	-5.415843e-06	-7.834316e-10	-3.757559e+01	-5.169257e+01
2.500000e-07	-5.406185e-06	-7.798348e-10	-3.750858e+01	-5.168619e+01
2.600000e-07	-5.395886e-06	-8.024299e-10	-3.743713e+01	-5.167724e+01
2.700000e-07	-5.384993e-06	-7.767065e-10	-3.736155e+01	-5.166565e+01
2.800000e-07	-5.373581e-06	-8.108697e-10	-3.728237e+01	-5.165136e+01
2.900000e-07	-5.361807e-06	-8.045224e-10	-3.720068e+01	-5.163430e+01
3.000000e-07	-5.349752e-06	-8.191105e-10	-3.711705e+01	-5.161442e+01
3.100000e-07	-5.337223e-06	-7.858342e-10	-3.703012e+01	-5.159168e+01
3.200000e-07	-5.324249e-06	-8.092554e-10	-3.694010e+01	-5.156604e+01
3.300000e-07	-5.310946e-06	-7.999730e-10	-3.684781e+01	-5.153746e+01
3.400000e-07	-5.297252e-06	-7.970981e-10	-3.675280e+01	-5.150592e+01
3.500000e-07	-5.283078e-06	-7.738937e-10	-3.665446e+01	-5.147140e+01
3.600000e-07	-5.268470e-06	-8.026579e-10	-3.655310e+01	-5.143386e+01
3.700000e-07	-5.253415e-06	-7.915478e-10	-3.644865e+01	-5.139331e+01
3.800000e-07	-5.237899e-06	-7.881335e-10	-3.634100e+01	-5.134973e+01
3.900000e-07	-5.221835e-06	-8.010272e-10	-3.622954e+01	-5.130310e+01
4.000000e-07	-5.205371e-06	-8.096775e-10	-3.611532e+01	-5.125343e+01
4.100000e-07	-5.188582e-06	-7.811712e-10	-3.599884e+01	-5.120071e+01
4.200000e-07	-5.171438e-06	-7.774732e-10	-3.587989e+01	-5.114493e+01
4.300000e-07	-5.154002e-06	-8.062785e-10	-3.575892e+01	-5.108610e+01
4.400000e-07	-5.136136e-06	-7.784401e-10	-3.563496e+01	-5.102422e+01
4.500000e-07	-5.117874e-06	-7.677076e-10	-3.550826e+01	-5.095929e+01
4.600000e-07	-5.099211e-06	-7.854287e-10	-3.537877e+01	-5.089132e+01
4.700000e-07	-5.080147e-06	-7.966462e-10	-3.524650e+01	-5.082031e+01
4.800000e-07	-5.060749e-06	-7.606460e-10	-3.511192e+01	-5.074627e+01
4.900000e-07	-5.041129e-06	-7.859711e-10	-3.497579e+01	-5.066921e+01
5.000000e-07	-5.021305e-06	-7.842453e-10	-3.483825e+01	-5.058913e+01
5.100000e-07	-5.001222e-06	-7.636804e-10	-3.469891e+01	-5.050607e+01
5.200000e-07	-4.980790e-06	-7.563338e-10	-3.455716e+01	-5.042002e+01
5.300000e-07	-4.959999e-06	-7.928391e-10	-3.441291e+01	-5.033101e+01
5.400000e-07	-4.938864e-06	-7.631802e-10	-3.426627e+01	-5.023907e+01
5.500000e-07	-4.917397e-06	-7.610371e-10	-3.411733e+01	-5.014421e+01
5.600000e-07	-4.895623e-06	-7.731223e-10	-3.396626e+01	-5.004647e+01
5.700000e-07	-4.873486e-06	-7.724567e-10	-3.381267e+01	-4.994589e+01
5.800000e-07	-4.851005e-06	-7.422562e-10	-3.365670e+01	-4.984249e+01
5.900000e-07	-4.828219e-06	-7.628183e-10	-3.349861e+01	-4.973632e+01
6.000000e-07	-4.805115e-06	-7.613056e-10	-3.333831e+01	-4.962744e+01
6.100000e-07	-4.781681e-06	-7.527328e-10	-3.317572e+01	-4.951589e+01
6.200000e-07	-4.757971e-06	-7.516488e-10	-3.301122e+01	-4.940173e+01
6.300000e-07	-4.734052e-06	-7.599899e-10	-3.284527e+01	-4.928503e+01
6.400000e-07	-4.709858e-06	-7.445125e-10	-3.267740e+01	-4.916585e+01
6.500000e-07	-4.685320e-06	-7.476769e-10	-3.250716e+01	-4.904428e+01
6.600000e-07	-4.660283e-06	-7.497826e-10	-3.233345e+01	-4.892038e+01
6.700000e-07	-4.634653e-06	-7.398793e-10	-3.215563e+01	-4.879425e+01
6.800000e-07	-4.608398e-06	-7.351990e-10	-3.197346e+01	-4.866597e+01
6.900000e-07	-4.581633e-06	-7.407707e-10	-3.178777e+01	-4.853564e+01
7.000000e-07	-4.554564e-06	-7.358804e-10	-3.159996e+01	-4.840335e+01
7.100000e-07	-4.527202e-06	-7.288190e-10	-3.141012e+01	-4.826920e+01
7.200000e-07	-4.499599e-06	-7.310106e-10	-3.121861e+01	-4.813329e+01
7.300000e-07	-4.471862e-06	-7.243430e-10	-3.102617e+01	-4.799574e+01
7.400000e-07	-4.443955e-06	-7.240082e-10	-3.083254e+01	-4.785663e+01
7.500000e-07	-4.415748e-06	-7.231724e-10	-3.063685e+01	-4.771607e+01
7.600000e-07	-4.387285e-06	-7.229937e-10	-3.043936e+01	-4.757417e+01
7.700000e-07	-4.358543e-06	-7.127199e-10	-3.023995e+01	-4.743103e+01
7.800000e-07	-4.329414e-06	-7.168930e-10	-3.003785e+01	-4.728673e+01
7.900000e-07	-4.299928e-06	-7.104898e-10	-2.983327e+01	-4.714137e+01
8.000000e-07	-4.270147e-06	-7.081742e-10	-2.962665e+01	-4.699505e+01
8.100000e-07	-4.240110e-06	-7.048987e-10	-2.941826e+01	-4.684782e+01
8.200000e-07	-4.209797e-06	-7.105880e-10	-2.920794e+01	-4.669978e+01
8.300000e-07	-4.179163e-06	-6.991592e-10	-2.899540e+01	-4.655097e+01
8.400000e-07	-4.148185e-06	-6.972891e-10	-2.878047e+01	-4.640145e+01
8.500000e-07	-4.116923e-06	-6.915591e-10	-2.856357e+01	-4.625126e+01
8.600000e-07	-4.085500e-06	-6.887507e-10	-2.834556e+01	-4.610043e+01
8.700000e-07	-4.053888e-06	-6.782044e-10	-2.812623e+01	-4.594898e+01
8.800000e-07	-4.022067e-06	-6.828339e-10	-2.790545e+01	-4.579690e+01
8.900000e-07	-3.990006e-06	-6.806328e-10	-2.768301e+01	-4.564419e+01
9.000000e-07	-3.957659e-06	-6.761014e-10	-2.745858e+01	-4.549083e+01
9.100000e-07	-3.924997e-06	-6.691757e-10	-2.723197e+01	-4.533676e+01
9.200000e-07	-3.892038e-06	-6.692907e-10	-2.700330e+01	-4.518194e+01
9.300000e-07	-3.858708e-06	-6.618414e-10	-2.677205e+01	-4.502630e+01
9.400000e-07	-3.824916e-06	-6.591348e-10	-2.653760e+01	-4.486974e+01
9.500000e-07	-3.790730e-06	-6.613996e-10	-2.630041e+01	-4.471218e+01
9.600000e-07	-3.756131e-06	-6.625139e-10	-2.606036e+01	-4.455349e+01
9.700000e-07	-3.721094e-06	-6.594477e-10	-2.581727e+01	-4.439356e+01
9.800000e-07	-3.685756e-06	-6.577262e-10	-2.557210e+01	-4.423223e+01
9.900000e-07	-3.650262e-06	-6.548285e-10	-2.532584e+01	-4.406936e+01
1.000000e-06	-3.614586e-06	-6.468874e-10	-2.507831e+01	-4.390479e+01
1.010000e-06	-3.578707e-06	-6.425851e-10	-2.482938e+01	-4.373833e+01
1.020000e-06	-3.542675e-06	-6.412470e-10	-2.457939e+01	-4.356981e+01
1.030000e-06	-3.506431e-06	-6.412201e-10	-2.432793e+01	-4.339904e+01
1.040000e-06	-3.469943e-06	-6.384824e-10	-2.407477e+01	-4.322583e+01
1.050000e-06	-3.433215e-06	-6.382479e-10	-2.381995e+01	-4.304997e+01
1.060000e-06	-3.396214e-06	-6.317073e-10	-2.356323e+01	-4.287126e+01
1.070000e-06	-3.358965e-06	-6.284286e-10	-2.330479e+01	-4.268951e+01
1.080000e-06	-3.321426e-06	-6.251612e-10	-2.304434e+01	-4.250450e+01
1.090000e-06	-3.283684e-06	-6.260121e-10	-2.278248e+01	-4.231604e+01
1.100000e-06	-3.245817e-06	-6.196286e-10	-2.251976e+01	-4.212393e+01
1.110000e-06	-3.207709e-06	-6.169480e-10	-2.225536e+01	-4.192798e+01
1.120000e-06	-3.169361e-06	-6.138768e-10	-2.198930e+01	-4.172800e+01
1.130000e-06	-3.130774e-06	-6.137971e-10	-2.172158e+01	-4.152383e+01
1.140000e-06	-3.091857e-06	-6.083334e-10	-2.145157e+01	-4.131529e+01
1.150000e-06	-3.052725e-06	-6.050393e-10	-2.118007e+01	-4.110224e+01
1.160000e-06	-3.013530e-06	-5.986414e-10	-2.090813e+01	-4.088452e+01
1.170000e-06	-2.974196e-06	-5.945332e-10	-2.063523e+01	-4.066201e+01
1.180000e-06	-2.934685e-06	-5.895459e-10	-2.036110e+01	-4.043459e+01
1.190000e-06	-2.895063e-06	-5.884662e-10	-2.008620e+01	-4.020215e+01
1.200000e-06	-2.855321e-06	-5.863347e-10	-1.981047e+01	-3.996462e+01
1.210000e-06	-2.815386e-06	-5.858822e-10	-1.953340e+01	-3.972191e+01
1.220000e-06	-2.775259e-06	-5.833787e-10	-1.925499e+01	-3.947396e+01
1.230000e-06	-2.735020e-06	-5.817393e-10	-1.897581e+01	-3.922074e+01
1.240000e-06	-2.694580e-06	-5.779983e-10	-1.869523e+01	-3.896220e+01
1.250000e-06	-2.653859e-06	-5.737854e-10	-1.841270e+01	-3.869833e+01
1.260000e-06	-2.612847e-06	-5.695977e-10	-1.812816e+01	-3.842912e+01
1.270000e-06	-2.571578e-06	-5.650821e-10	-1.784183e+01	-3.815457e+01
1.280000e-06	-2.530088e-06	-5.602832e-10	-1.755397e+01	-3.787468e+01
1.290000e-06	-2.488278e-06	-5.542576e-10	-1.726389e+01	-3.758949e+01
1.300000e-06	-2.446149e-06	-5.492808e-10	-1.697159e+01	-3.729901e+01
1.310000e-06	-2.403710e-06	-5.450548e-10	-1.667715e+01	-3.700326e+01
1.320000e-06	-2.361034e-06	-5.423150e-10	-1.638106e+01	-3.670228e+01
1.330000e-06	-2.318129e-06	-5.405042e-10	-1.608338e+01	-3.639609e+01
1.340000e-06	-2.274939e-06	-5.386897e-10	-1.578373e+01	-3.608471e+01
1.350000e-06	-2.231591e-06	-5.314291e-10	-1.548297e+01	-3.576817e+01
1.360000e-06	-2.188140e-06	-5.237769e-10	-1.518151e+01	-3.544646e+01
1.370000e-06	-2.144582e-06	-5.152862e-10	-1.487930e+01	-3.511959e+01
1.380000e-06	-2.100946e-06	-5.107024e-10	-1.457655e+01	-3.478754e+01
1.390000e-06	-2.057220e-06	-5.058622e-10	-1.427317e+01	-3.445027e+01
1.400000e-06	-2.013372e-06	-5.025002e-10	-1.396895e+01	-3.410775e+01
1.410000e-06	-1.969433e-06	-4.979219e-10	-1.366410e+01	-3.375990e+01
1.420000e-06	-1.925429e-06	-4.948982e-10	-1.335879e+01	-3.340663e+01
1.430000e-06	-1.881306e-06	-4.881213e-10	-1.305267e+01	-3.304782e+01
1.440000e-06	-1.837116e-06	-4.804967e-10	-1.274607e+01	-3.268334e+01
1.450000e-06	-1.792822e-06	-4.714879e-10	-1.243876e+01	-3.231301e+01
1.460000e-06	-1.748377e-06	-4.648910e-10	-1.213039e+01	-3.193663e+01
1.470000e-06	-1.703806e-06	-4.582110e-10	-1.182115e+01	-3.155399e+01
1.480000e-06	-1.659117e-06	-4.531398e-10	-1.151110e+01	-3.116482e+01
1.490000e-06	-1.614334e-06	-4.466251e-10	-1.120039e+01	-3.076884e+01
1.500000e-06	-1.569393e-06	-4.395676e-10	-1.088859e+01	-3.036573e+01
1.510000e-06	-1.524297e-06	-4.312931e-10	-1.057570e+01	-2.995515e+01
1.520000e-06	-1.479113e-06	-4.219226e-10	-1.026222e+01	-2.953672e+01
1.530000e-06	-1.433807e-06	-4.113942e-10	-9.947879e+00	-2.911004e+01
1.540000e-06	-1.388336e-06	-4.023206e-10	-9.632398e+00	-2.867468e+01
1.550000e-06	-1.342693e-06	-3.960604e-10	-9.315724e+00	-2.823019e+01
1.560000e-06	-1.296960e-06	-3.887873e-10	-8.998424e+00	-2.777610e+01
1.570000e-06	-1.251211e-06	-3.812682e-10	-8.681009e+00	-2.731190e+01
1.580000e-06	-1.205384e-06	-3.718897e-10	-8.363058e+00	-2.683710e+01
1.590000e-06	-1.159518e-06	-3.620751e-10	-8.044840e+00	-2.635116e+01
1.600000e-06	-1.113560e-06	-3.531561e-10	-7.725974e+00	-2.585356e+01
1.610000e-06	-1.067480e-06	-3.452860e-10	-7.406269e+00	-2.534375e+01
1.620000e-06	-1.021386e-06	-3.383315e-10	-7.086467e+00	-2.482121e+01
1.630000e-06	-9.751902e-07	-3.301990e-10	-6.765955e+00	-2.428538e+01
1.640000e-06	-9.289604e-07	-3.186180e-10	-6.445208e+00	-2.373575e+01
1.650000e-06	-8.827530e-07	-3.076842e-10	-6.124617e+00	-2.317180e+01
1.660000e-06	-8.363763e-07	-2.977854e-10	-5.802852e+00	-2.259302e+01
1.670000e-06	-7.899184e-07	-2.903467e-10	-5.480523e+00	-2.199894e+01
1.680000e-06	-7.434268e-07	-2.832121e-10	-5.157960e+00	-2.138910e+01
1.690000e-06	-6.968768e-07	-2.790481e-10	-4.834992e+00	-2.076310e+01
1.700000e-06	-6.502653e-07	-2.734535e-10	-4.511597e+00	-2.012053e+01
1.710000e-06	-6.036214e-07	-2.643571e-10	-4.187978e+00	-1.946107e+01
1.720000e-06	-5.569882e-07	-2.520217e-10	-3.864433e+00	-1.878440e+01
1.730000e-06	-5.103154e-07	-2.382927e-10	-3.540613e+00	-1.809030e+01
1.740000e-06	-4.636360e-07	-2.252222e-10	-3.216747e+00	-1.737855e+01
1.750000e-06	-4.168590e-07	-2.138577e-10	-2.892204e+00	-1.664903e+01
1.760000e-06	-3.699794e-07	-2.021440e-10	-2.566949e+00	-1.590166e+01
1.770000e-06	-3.230507e-07	-1.922691e-10	-2.241354e+00	-1.513643e+01
1.780000e-06	-2.761396e-07	-1.838677e-10	-1.915881e+00	-1.435339e+01
1.790000e-06	-2.292486e-07	-1.723578e-10	-1.590547e+00	-1.355267e+01
1.800000e-06	-1.822724e-07	-1.581108e-10	-1.264622e+00	-1.273448e+01
1.810000e-06	-1.352835e-07	-1.441157e-10	-9.386089e-01	-1.189907e+01
1.820000e-06	-8.830952e-08	-1.310357e-10	-6.126992e-01	-1.104679e+01
1.830000e-06	-4.134031e-08	-1.191074e-10	-2.868227e-01	-1.017806e+01
1.840000e-06	5.635927e-09	-1.074608e-10	3.910255e-02	-9.293368e+00
1.850000e-06	5.258642e-08	-9.758053e-11	3.648492e-01	-8.393277e+00
1.860000e-06	9.954904e-08	-8.739819e-11	6.906799e-01	-7.478423e+00
1.870000e-06	1.465471e-07	-7.553163e-11	1.016756e+00	-6.549512e+00
1.880000e-06	1.935208e-07	-6.177489e-11	1.342664e+00	-5.607318e+00
1.890000e-06	2.404677e-07	-4.594742e-11	1.668386e+00	-4.652678e+00
1.900000e-06	2.873412e-07	-3.217248e-11	1.993598e+00	-3.686493e+00
1.910000e-06	3.341573e-07	-1.911300e-11	2.318412e+00	-2.709723e+00
1.920000e-06	3.809703e-07	-7.514813e-12	2.643205e+00	-1.723380e+00
1.930000e-06	4.277805e-07	3.660191e-12	2.967978e+00	-7.285265e-01
1.940000e-06	4.745934e-07	1.282714e-11	3.292770e+00	2.737313e-01
1.950000e-06	5.213918e-07	2.209085e-11	3.617462e+00	1.282247e+00
1.960000e-06	5.681487e-07	3.452270e-11	3.941865e+00	2.295841e+00
1.970000e-06	6.147334e-07	5.041708e-11	4.265074e+00	3.313305e+00
1.980000e-06	6.611788e-07	6.753922e-11	4.587316e+00	4.333411e+00
1.990000e-06	7.076308e-07	8.583489e-11	4.909604e+00	5.354914e+00
2.000000e-06	7.540852e-07	1.022487e-10	5.231909e+00	6.376559e+00
2.010000e-06	8.005527e-07	1.152693e-10	5.554304e+00	7.397090e+00
2.020000e-06	8.469096e-07	1.264421e-10	5.875933e+00	8.415254e+00
2.030000e-06	8.931152e-07	1.391374e-10	6.196511e+00	9.429807e+00
2.040000e-06	9.392628e-07	1.524975e-10	6.516687e+00	1.043952e+01
2.050000e-06	9.853674e-07	1.668752e-10	6.836564e+00	1.144320e+01
2.060000e-06	1.031394e-06	1.834137e-10	7.155900e+00	1.243966e+01
2.070000e-06	1.077353e-06	2.013882e-10	7.474769e+00	1.342776e+01
2.080000e-06	1.123227e-06	2.175721e-10	7.793046e+00	1.440640e+01
2.090000e-06	1.169022e-06	2.308208e-10	8.110779e+00	1.537452e+01
2.100000e-06	1.214802e-06	2.426670e-10	8.428404e+00	1.633112e+01
2.110000e-06	1.260556e-06	2.537552e-10	8.745848e+00	1.727524e+01
2.120000e-06	1.306185e-06	2.666980e-10	9.062428e+00	1.820598e+01
2.130000e-06	1.351646e-06	2.802755e-10	9.377839e+00	1.912252e+01
2.140000e-06	1.397016e-06	2.935621e-10	9.692621e+00	2.002409e+01
2.150000e-06	1.442312e-06	3.060044e-10	1.000689e+01	2.090998e+01
2.160000e-06	1.487565e-06	3.184804e-10	1.032086e+01	2.177956e+01
2.170000e-06	1.532719e-06	3.321557e-10	1.063414e+01	2.263227e+01
2.180000e-06	1.577666e-06	3.444512e-10	1.094598e+01	2.346762e+01
2.190000e-06	1.622462e-06	3.550010e-10	1.125679e+01	2.428519e+01
2.200000e-06	1.667111e-06	3.668401e-10	1.156656e+01	2.508465e+01
2.210000e-06	1.711726e-06	3.786145e-10	1.187610e+01	2.586571e+01
2.220000e-06	1.756288e-06	3.905438e-10	1.218528e+01	2.662817e+01
2.230000e-06	1.800616e-06	4.015826e-10	1.249283e+01	2.737191e+01
2.240000e-06	1.844780e-06	4.109575e-10	1.279924e+01	2.809685e+01
2.250000e-06	1.888866e-06	4.192765e-10	1.310512e+01	2.880300e+01
2.260000e-06	1.932904e-06	4.279655e-10	1.341066e+01	2.949042e+01
2.270000e-06	1.976892e-06	4.370243e-10	1.371585e+01	3.015924e+01
2.280000e-06	2.020780e-06	4.458811e-10	1.402035e+01	3.080962e+01
2.290000e-06	2.064583e-06	4.536151e-10	1.432426e+01	3.144180e+01
2.300000e-06	2.108348e-06	4.614847e-10	1.462790e+01	3.205606e+01
2.310000e-06	2.152053e-06	4.696230e-10	1.493113e+01	3.265271e+01
2.320000e-06	2.195676e-06	4.778168e-10	1.523379e+01	3.323213e+01
2.330000e-06	2.239198e-06	4.842531e-10	1.553575e+01	3.379469e+01
2.340000e-06	2.282609e-06	4.883859e-10	1.583694e+01	3.434084e+01
2.350000e-06	2.325833e-06	4.928416e-10	1.613683e+01	3.487101e+01
2.360000e-06	2.368858e-06	4.995175e-10	1.643534e+01	3.538568e+01
2.370000e-06	2.411642e-06	5.081280e-10	1.673218e+01	3.588534e+01
2.380000e-06	2.454061e-06	5.171477e-10	1.702649e+01	3.637049e+01
2.390000e-06	2.496120e-06	5.257743e-10	1.731830e+01	3.684163e+01
2.400000e-06	2.537858e-06	5.337303e-10	1.760788e+01	3.729927e+01
2.410000e-06	2.579274e-06	5.414998e-10	1.789523e+01	3.774393e+01
2.420000e-06	2.620366e-06	5.484910e-10	1.818032e+01	3.817611e+01
2.430000e-06	2.661163e-06	5.541765e-10	1.846338e+01	3.859629e+01
2.440000e-06	2.701680e-06	5.606378e-10	1.874449e+01	3.900498e+01
2.450000e-06	2.741993e-06	5.677275e-10	1.902419e+01	3.940263e+01
2.460000e-06	2.782177e-06	5.742976e-10	1.930299e+01	3.978969e+01
2.470000e-06	2.822183e-06	5.813873e-10	1.958055e+01	4.016661e+01
2.480000e-06	2.862008e-06	5.874280e-10	1.985686e+01	4.053379e+01
2.490000e-06	2.901768e-06	5.928040e-10	2.013272e+01	4.089162e+01
2.500000e-06	2.941465e-06	5.987225e-10	2.040814e+01	4.124046e+01
2.510000e-06	2.981015e-06	6.044445e-10	2.068254e+01	4.158066e+01
2.520000e-06	3.020393e-06	6.099058e-10	2.095575e+01	4.191251e+01
2.530000e-06	3.059623e-06	6.151833e-10	2.122793e+01	4.223632e+01
2.540000e-06	3.098641e-06	6.193308e-10	2.149864e+01	4.255233e+01
2.550000e-06	3.137284e-06	6.227018e-10	2.176675e+01	4.286079e+01
2.560000e-06	3.175586e-06	6.267914e-10	2.203249e+01	4.316189e+01
2.570000e-06	3.213672e-06	6.303420e-10	2.229674e+01	4.345584e+01
2.580000e-06	3.251579e-06	6.334804e-10	2.255974e+01	4.374278e+01
2.590000e-06	3.289361e-06	6.382559e-10	2.282188e+01	4.402285e+01
2.600000e-06	3.326971e-06	6.427643e-10	2.308282e+01	4.429619e+01
2.610000e-06	3.364344e-06	6.475964e-10	2.334211e+01	4.456288e+01
2.620000e-06	3.401482e-06	6.530703e-10	2.359978e+01	4.482302e+01
2.630000e-06	3.438375e-06	6.562917e-10	2.385575e+01	4.507668e+01
2.640000e-06	3.475017e-06	6.569257e-10	2.410997e+01	4.532392e+01
2.650000e-06	3.511401e-06	6.605957e-10	2.436240e+01	4.556479e+01
2.660000e-06	3.547561e-06	6.669914e-10	2.461329e+01	4.579932e+01
2.670000e-06	3.583528e-06	6.710802e-10	2.486283e+01	4.602757e+01
2.680000e-06	3.619342e-06	6.746533e-10	2.511131e+01	4.624955e+01
2.690000e-06	3.655054e-06	6.804179e-10	2.535908e+01	4.646530e+01
2.700000e-06	3.690639e-06	6.865949e-10	2.560598e+01	4.667486e+01
2.710000e-06	3.726035e-06	6.922085e-10	2.585155e+01	4.687825e+01
2.720000e-06	3.761164e-06	6.989553e-10	2.609528e+01	4.707552e+01
2.730000e-06	3.795903e-06	7.046874e-10	2.633631e+01	4.726670e+01
2.740000e-06	3.830189e-06	7.071945e-10	2.657419e+01	4.745186e+01
2.750000e-06	3.864030e-06	7.075187e-10	2.680898e+01	4.763105e+01
2.760000e-06	3.897423e-06	7.079402e-10	2.704066e+01	4.780432e+01
2.770000e-06	3.930358e-06	7.085688e-10	2.726916e+01	4.797178e+01
2.780000e-06	3.962871e-06	7.104132e-10	2.749474e+01	4.813348e+01
2.790000e-06	3.995036e-06	7.153961e-10	2.771791e+01	4.828955e+01
2.800000e-06	4.026943e-06	7.228164e-10	2.793928e+01	4.844008e+01
2.810000e-06	4.058702e-06	7.290598e-10	2.815963e+01	4.858519e+01
2.820000e-06	4.090342e-06	7.314806e-10	2.837915e+01	4.872502e+01
2.830000e-06	4.121790e-06	7.303677e-10	2.859734e+01	4.885969e+01
2.840000e-06	4.153018e-06	7.279876e-10	2.881400e+01	4.898936e+01
2.850000e-06	4.184029e-06	7.292679e-10	2.902916e+01	4.911419e+01
2.860000e-06	4.214757e-06	7.332260e-10	2.924235e+01	4.923433e+01
2.870000e-06	4.245109e-06	7.364983e-10	2.945294e+01	4.934996e+01
2.880000e-06	4.275059e-06	7.407348e-10	2.966073e+01	4.946125e+01
2.890000e-06	4.304674e-06	7.442099e-10	2.986620e+01	4.956838e+01
2.900000e-06	4.334048e-06	7.461288e-10	3.007000e+01	4.967153e+01
