# Temperatura_=_-0.3
# Concentracion g/m^3_=_1620.0
# C_Vs_to_Am_M_A/Vsm_=_65563218390.804596
# pendiente_HvsI_1/m_=_3716.3
# ordenada_HvsI_A/m_=_1297.0
# frecuencia_Hz_=_135103.98461398075

Tiempo_(s)	Campo_(V.s)	Magnetizacion_(V.s)	Campo_(kA/m)	Magnetizacion_(A/m)
0.000000e+00	-5.509354e-06	-1.386794e-09	-3.836472e+01	-9.248253e+01
1.000000e-08	-5.509581e-06	-1.385937e-09	-3.836630e+01	-9.252062e+01
2.000000e-08	-5.509556e-06	-1.389736e-09	-3.836612e+01	-9.255761e+01
3.000000e-08	-5.509164e-06	-1.393732e-09	-3.836339e+01	-9.259332e+01
4.000000e-08	-5.508175e-06	-1.394002e-09	-3.835651e+01	-9.262756e+01
5.000000e-08	-5.506534e-06	-1.390270e-09	-3.834508e+01	-9.266012e+01
6.000000e-08	-5.504321e-06	-1.379311e-09	-3.832966e+01	-9.269077e+01
7.000000e-08	-5.501533e-06	-1.372435e-09	-3.831025e+01	-9.271926e+01
8.000000e-08	-5.498231e-06	-1.401539e-09	-3.828726e+01	-9.274536e+01
9.000000e-08	-5.494459e-06	-1.444901e-09	-3.826099e+01	-9.276880e+01
1.000000e-07	-5.490260e-06	-1.397258e-09	-3.823175e+01	-9.278932e+01
1.100000e-07	-5.485840e-06	-1.321518e-09	-3.820097e+01	-9.280667e+01
1.200000e-07	-5.481270e-06	-1.315972e-09	-3.816915e+01	-9.282057e+01
1.300000e-07	-5.476359e-06	-1.419003e-09	-3.813495e+01	-9.283077e+01
1.400000e-07	-5.471038e-06	-1.399536e-09	-3.809790e+01	-9.283701e+01
1.500000e-07	-5.465291e-06	-1.324577e-09	-3.805788e+01	-9.283905e+01
1.600000e-07	-5.459257e-06	-1.318915e-09	-3.801586e+01	-9.283664e+01
1.700000e-07	-5.452908e-06	-1.427702e-09	-3.797165e+01	-9.282957e+01
1.800000e-07	-5.446075e-06	-1.443416e-09	-3.792407e+01	-9.281762e+01
1.900000e-07	-5.438862e-06	-1.354762e-09	-3.787384e+01	-9.280060e+01
2.000000e-07	-5.431374e-06	-1.339303e-09	-3.782169e+01	-9.277833e+01
2.100000e-07	-5.423613e-06	-1.413216e-09	-3.776765e+01	-9.275066e+01
2.200000e-07	-5.415604e-06	-1.452922e-09	-3.771188e+01	-9.271745e+01
2.300000e-07	-5.407354e-06	-1.392146e-09	-3.765443e+01	-9.267858e+01
2.400000e-07	-5.398579e-06	-1.384944e-09	-3.759333e+01	-9.263397e+01
2.500000e-07	-5.389012e-06	-1.416349e-09	-3.752671e+01	-9.258354e+01
2.600000e-07	-5.378726e-06	-1.441959e-09	-3.745508e+01	-9.252725e+01
2.700000e-07	-5.367950e-06	-1.389721e-09	-3.738004e+01	-9.246508e+01
2.800000e-07	-5.356729e-06	-1.391210e-09	-3.730190e+01	-9.239702e+01
2.900000e-07	-5.345100e-06	-1.413950e-09	-3.722092e+01	-9.232311e+01
3.000000e-07	-5.333115e-06	-1.427267e-09	-3.713746e+01	-9.224338e+01
3.100000e-07	-5.320697e-06	-1.380022e-09	-3.705099e+01	-9.215789e+01
3.200000e-07	-5.307820e-06	-1.384350e-09	-3.696132e+01	-9.206674e+01
3.300000e-07	-5.294585e-06	-1.410336e-09	-3.686916e+01	-9.197001e+01
3.400000e-07	-5.280993e-06	-1.421969e-09	-3.677451e+01	-9.186783e+01
3.500000e-07	-5.267011e-06	-1.376880e-09	-3.667715e+01	-9.176032e+01
3.600000e-07	-5.252657e-06	-1.385105e-09	-3.657719e+01	-9.164764e+01
3.700000e-07	-5.237745e-06	-1.412195e-09	-3.647335e+01	-9.152992e+01
3.800000e-07	-5.222174e-06	-1.394019e-09	-3.636492e+01	-9.140733e+01
3.900000e-07	-5.206027e-06	-1.359074e-09	-3.625248e+01	-9.128003e+01
4.000000e-07	-5.189479e-06	-1.395937e-09	-3.613724e+01	-9.114819e+01
4.100000e-07	-5.172676e-06	-1.406857e-09	-3.602023e+01	-9.101198e+01
4.200000e-07	-5.155552e-06	-1.350148e-09	-3.590099e+01	-9.087157e+01
4.300000e-07	-5.138130e-06	-1.363622e-09	-3.577967e+01	-9.072711e+01
4.400000e-07	-5.120440e-06	-1.416063e-09	-3.565649e+01	-9.057878e+01
4.500000e-07	-5.102325e-06	-1.374061e-09	-3.553034e+01	-9.042671e+01
4.600000e-07	-5.083761e-06	-1.316110e-09	-3.540108e+01	-9.027106e+01
4.700000e-07	-5.064808e-06	-1.378312e-09	-3.526909e+01	-9.011194e+01
4.800000e-07	-5.045534e-06	-1.387859e-09	-3.513487e+01	-8.994948e+01
4.900000e-07	-5.026021e-06	-1.330657e-09	-3.499900e+01	-8.978379e+01
5.000000e-07	-5.006344e-06	-1.344141e-09	-3.486197e+01	-8.961494e+01
5.100000e-07	-4.986524e-06	-1.385494e-09	-3.472395e+01	-8.944302e+01
5.200000e-07	-4.966349e-06	-1.320049e-09	-3.458347e+01	-8.926807e+01
5.300000e-07	-4.945709e-06	-1.316640e-09	-3.443974e+01	-8.909015e+01
5.400000e-07	-4.924703e-06	-1.372931e-09	-3.429346e+01	-8.890927e+01
5.500000e-07	-4.903366e-06	-1.345235e-09	-3.414488e+01	-8.872544e+01
5.600000e-07	-4.881672e-06	-1.292983e-09	-3.399382e+01	-8.853865e+01
5.700000e-07	-4.859710e-06	-1.350893e-09	-3.384088e+01	-8.834887e+01
5.800000e-07	-4.837356e-06	-1.356106e-09	-3.368521e+01	-8.815607e+01
5.900000e-07	-4.814530e-06	-1.298713e-09	-3.352627e+01	-8.796018e+01
6.000000e-07	-4.791440e-06	-1.309840e-09	-3.336548e+01	-8.776114e+01
6.100000e-07	-4.768145e-06	-1.341792e-09	-3.320326e+01	-8.755887e+01
6.200000e-07	-4.744631e-06	-1.291574e-09	-3.303952e+01	-8.735328e+01
6.300000e-07	-4.720897e-06	-1.282340e-09	-3.287424e+01	-8.714428e+01
6.400000e-07	-4.696868e-06	-1.317732e-09	-3.270692e+01	-8.693175e+01
6.500000e-07	-4.672510e-06	-1.304415e-09	-3.253730e+01	-8.671559e+01
6.600000e-07	-4.647767e-06	-1.283550e-09	-3.236500e+01	-8.649569e+01
6.700000e-07	-4.622421e-06	-1.306364e-09	-3.218851e+01	-8.627193e+01
6.800000e-07	-4.596377e-06	-1.297379e-09	-3.200715e+01	-8.604421e+01
6.900000e-07	-4.569805e-06	-1.270401e-09	-3.182211e+01	-8.581241e+01
7.000000e-07	-4.542840e-06	-1.280937e-09	-3.163434e+01	-8.557642e+01
7.100000e-07	-4.515548e-06	-1.282928e-09	-3.144429e+01	-8.533616e+01
7.200000e-07	-4.488038e-06	-1.261978e-09	-3.125272e+01	-8.509153e+01
7.300000e-07	-4.460400e-06	-1.261349e-09	-3.106026e+01	-8.484246e+01
7.400000e-07	-4.432648e-06	-1.271972e-09	-3.086701e+01	-8.458886e+01
7.500000e-07	-4.404703e-06	-1.259772e-09	-3.067241e+01	-8.433070e+01
7.600000e-07	-4.376405e-06	-1.257107e-09	-3.047535e+01	-8.406791e+01
7.700000e-07	-4.347757e-06	-1.260666e-09	-3.027587e+01	-8.380048e+01
7.800000e-07	-4.318791e-06	-1.253222e-09	-3.007416e+01	-8.352839e+01
7.900000e-07	-4.289468e-06	-1.240439e-09	-2.986996e+01	-8.325164e+01
8.000000e-07	-4.259865e-06	-1.242051e-09	-2.966383e+01	-8.297024e+01
8.100000e-07	-4.230046e-06	-1.230876e-09	-2.945617e+01	-8.268423e+01
8.200000e-07	-4.199887e-06	-1.225392e-09	-2.924616e+01	-8.239364e+01
8.300000e-07	-4.169348e-06	-1.230715e-09	-2.903350e+01	-8.209855e+01
8.400000e-07	-4.138561e-06	-1.233150e-09	-2.881912e+01	-8.179901e+01
8.500000e-07	-4.107519e-06	-1.220045e-09	-2.860295e+01	-8.149512e+01
8.600000e-07	-4.076189e-06	-1.220009e-09	-2.838478e+01	-8.118697e+01
8.700000e-07	-4.044671e-06	-1.216234e-09	-2.816530e+01	-8.087467e+01
8.800000e-07	-4.013061e-06	-1.204054e-09	-2.794519e+01	-8.055832e+01
8.900000e-07	-3.981253e-06	-1.195251e-09	-2.772369e+01	-8.023805e+01
9.000000e-07	-3.949177e-06	-1.194020e-09	-2.750033e+01	-7.991397e+01
9.100000e-07	-3.916833e-06	-1.179825e-09	-2.727510e+01	-7.958622e+01
9.200000e-07	-3.884090e-06	-1.172168e-09	-2.704709e+01	-7.925492e+01
9.300000e-07	-3.850861e-06	-1.174023e-09	-2.681570e+01	-7.892020e+01
9.400000e-07	-3.817191e-06	-1.168722e-09	-2.658123e+01	-7.858216e+01
9.500000e-07	-3.783142e-06	-1.158653e-09	-2.634414e+01	-7.824093e+01
9.600000e-07	-3.748648e-06	-1.160645e-09	-2.610393e+01	-7.789661e+01
9.700000e-07	-3.713691e-06	-1.159220e-09	-2.586051e+01	-7.754930e+01
9.800000e-07	-3.678398e-06	-1.147501e-09	-2.561474e+01	-7.719907e+01
9.900000e-07	-3.642921e-06	-1.141306e-09	-2.536770e+01	-7.684600e+01
1.000000e-06	-3.607340e-06	-1.138466e-09	-2.511993e+01	-7.649013e+01
1.010000e-06	-3.571643e-06	-1.127544e-09	-2.487135e+01	-7.613150e+01
1.020000e-06	-3.535846e-06	-1.118992e-09	-2.462208e+01	-7.577013e+01
1.030000e-06	-3.499971e-06	-1.120862e-09	-2.437225e+01	-7.540600e+01
1.040000e-06	-3.463925e-06	-1.116342e-09	-2.412125e+01	-7.503910e+01
1.050000e-06	-3.427534e-06	-1.108262e-09	-2.386784e+01	-7.466938e+01
1.060000e-06	-3.390760e-06	-1.101766e-09	-2.361176e+01	-7.429676e+01
1.070000e-06	-3.353718e-06	-1.097512e-09	-2.335381e+01	-7.392116e+01
1.080000e-06	-3.316451e-06	-1.088561e-09	-2.309430e+01	-7.354246e+01
1.090000e-06	-3.278982e-06	-1.085136e-09	-2.283338e+01	-7.316051e+01
1.100000e-06	-3.241319e-06	-1.078010e-09	-2.257112e+01	-7.277517e+01
1.110000e-06	-3.203409e-06	-1.066338e-09	-2.230713e+01	-7.238625e+01
1.120000e-06	-3.165249e-06	-1.054452e-09	-2.204140e+01	-7.199355e+01
1.130000e-06	-3.126863e-06	-1.048484e-09	-2.177409e+01	-7.159685e+01
1.140000e-06	-3.088235e-06	-1.042122e-09	-2.150511e+01	-7.119591e+01
1.150000e-06	-3.049381e-06	-1.038363e-09	-2.123454e+01	-7.079048e+01
1.160000e-06	-3.010338e-06	-1.038183e-09	-2.096267e+01	-7.038030e+01
1.170000e-06	-2.971069e-06	-1.037573e-09	-2.068922e+01	-6.996507e+01
1.180000e-06	-2.931648e-06	-1.028118e-09	-2.041471e+01	-6.954453e+01
1.190000e-06	-2.892159e-06	-1.017952e-09	-2.013972e+01	-6.911836e+01
1.200000e-06	-2.852531e-06	-1.006610e-09	-1.986377e+01	-6.868626e+01
1.210000e-06	-2.812770e-06	-9.948135e-10	-1.958689e+01	-6.824792e+01
1.220000e-06	-2.772879e-06	-9.872520e-10	-1.930911e+01	-6.780304e+01
1.230000e-06	-2.732877e-06	-9.865066e-10	-1.903055e+01	-6.735130e+01
1.240000e-06	-2.692698e-06	-9.830914e-10	-1.875076e+01	-6.689241e+01
1.250000e-06	-2.652258e-06	-9.769791e-10	-1.846916e+01	-6.642605e+01
1.260000e-06	-2.611528e-06	-9.741790e-10	-1.818553e+01	-6.595193e+01
1.270000e-06	-2.570530e-06	-9.670342e-10	-1.790004e+01	-6.546976e+01
1.280000e-06	-2.529263e-06	-9.549986e-10	-1.761267e+01	-6.497927e+01
1.290000e-06	-2.487755e-06	-9.419096e-10	-1.732363e+01	-6.448020e+01
1.300000e-06	-2.445943e-06	-9.332218e-10	-1.703247e+01	-6.397228e+01
1.310000e-06	-2.403760e-06	-9.265725e-10	-1.673873e+01	-6.345528e+01
1.320000e-06	-2.361232e-06	-9.190182e-10	-1.644258e+01	-6.292897e+01
1.330000e-06	-2.318378e-06	-9.127412e-10	-1.614416e+01	-6.239314e+01
1.340000e-06	-2.275422e-06	-9.078159e-10	-1.584504e+01	-6.184760e+01
1.350000e-06	-2.232352e-06	-8.982416e-10	-1.554512e+01	-6.129216e+01
1.360000e-06	-2.189052e-06	-8.855116e-10	-1.524359e+01	-6.072666e+01
1.370000e-06	-2.145560e-06	-8.725978e-10	-1.494073e+01	-6.015093e+01
1.380000e-06	-2.101966e-06	-8.637090e-10	-1.463716e+01	-5.956485e+01
1.390000e-06	-2.058311e-06	-8.566204e-10	-1.433317e+01	-5.896828e+01
1.400000e-06	-2.014577e-06	-8.500871e-10	-1.402862e+01	-5.836111e+01
1.410000e-06	-1.970806e-06	-8.399001e-10	-1.372382e+01	-5.774322e+01
1.420000e-06	-1.926996e-06	-8.266575e-10	-1.341875e+01	-5.711451e+01
1.430000e-06	-1.883105e-06	-8.127355e-10	-1.311312e+01	-5.647489e+01
1.440000e-06	-1.839136e-06	-8.003211e-10	-1.280693e+01	-5.582427e+01
1.450000e-06	-1.795033e-06	-7.884729e-10	-1.249982e+01	-5.516254e+01
1.460000e-06	-1.750734e-06	-7.786361e-10	-1.219134e+01	-5.448963e+01
1.470000e-06	-1.706325e-06	-7.700248e-10	-1.188209e+01	-5.380543e+01
1.480000e-06	-1.661813e-06	-7.600850e-10	-1.157213e+01	-5.310984e+01
1.490000e-06	-1.617161e-06	-7.471480e-10	-1.126120e+01	-5.240275e+01
1.500000e-06	-1.572459e-06	-7.337931e-10	-1.094991e+01	-5.168405e+01
1.510000e-06	-1.527597e-06	-7.195153e-10	-1.063751e+01	-5.095360e+01
1.520000e-06	-1.482479e-06	-7.031765e-10	-1.032333e+01	-5.021126e+01
1.530000e-06	-1.437201e-06	-6.865309e-10	-1.000804e+01	-4.945687e+01
1.540000e-06	-1.391870e-06	-6.724723e-10	-9.692367e+00	-4.869025e+01
1.550000e-06	-1.346483e-06	-6.602396e-10	-9.376316e+00	-4.791121e+01
1.560000e-06	-1.301013e-06	-6.482532e-10	-9.059685e+00	-4.711954e+01
1.570000e-06	-1.255474e-06	-6.367374e-10	-8.742568e+00	-4.631500e+01
1.580000e-06	-1.209836e-06	-6.258564e-10	-8.424767e+00	-4.549735e+01
1.590000e-06	-1.164084e-06	-6.133213e-10	-8.106165e+00	-4.466629e+01
1.600000e-06	-1.118229e-06	-5.988940e-10	-7.786854e+00	-4.382156e+01
1.610000e-06	-1.072287e-06	-5.848694e-10	-7.466935e+00	-4.296283e+01
1.620000e-06	-1.026305e-06	-5.715325e-10	-7.146736e+00	-4.208977e+01
1.630000e-06	-9.803610e-07	-5.579410e-10	-6.826802e+00	-4.120204e+01
1.640000e-06	-9.343282e-07	-5.413770e-10	-6.506250e+00	-4.029929e+01
1.650000e-06	-8.881435e-07	-5.250896e-10	-6.184640e+00	-3.938113e+01
1.660000e-06	-8.419428e-07	-5.109428e-10	-5.862919e+00	-3.844720e+01
1.670000e-06	-7.956765e-07	-4.998986e-10	-5.540741e+00	-3.749711e+01
1.680000e-06	-7.492832e-07	-4.884792e-10	-5.217678e+00	-3.653048e+01
1.690000e-06	-7.029027e-07	-4.778346e-10	-4.894705e+00	-3.554690e+01
1.700000e-06	-6.565857e-07	-4.644596e-10	-4.572173e+00	-3.454602e+01
1.710000e-06	-6.101587e-07	-4.463900e-10	-4.248877e+00	-3.352745e+01
1.720000e-06	-5.636714e-07	-4.250820e-10	-3.925159e+00	-3.249083e+01
1.730000e-06	-5.171361e-07	-4.042864e-10	-3.601108e+00	-3.143585e+01
1.740000e-06	-4.705159e-07	-3.856604e-10	-3.276466e+00	-3.036217e+01
1.750000e-06	-4.239385e-07	-3.711463e-10	-2.952121e+00	-2.926951e+01
1.760000e-06	-3.773187e-07	-3.587736e-10	-2.627481e+00	-2.815763e+01
1.770000e-06	-3.306365e-07	-3.452254e-10	-2.302407e+00	-2.702631e+01
1.780000e-06	-2.839210e-07	-3.316865e-10	-1.977101e+00	-2.587539e+01
1.790000e-06	-2.371649e-07	-3.149980e-10	-1.651512e+00	-2.470474e+01
1.800000e-06	-1.904511e-07	-2.933911e-10	-1.326217e+00	-2.351429e+01
1.810000e-06	-1.437304e-07	-2.712239e-10	-1.000875e+00	-2.230403e+01
1.820000e-06	-9.700496e-08	-2.509273e-10	-6.754998e-01	-2.107402e+01
1.830000e-06	-5.032966e-08	-2.325955e-10	-3.504736e-01	-1.982438e+01
1.840000e-06	-3.665107e-09	-2.158362e-10	-2.552219e-02	-1.855527e+01
1.850000e-06	4.302288e-08	-2.004812e-10	2.995924e-01	-1.726697e+01
1.860000e-06	8.967919e-08	-1.859741e-10	6.244864e-01	-1.595979e+01
1.870000e-06	1.363060e-07	-1.694745e-10	9.491748e-01	-1.463415e+01
1.880000e-06	1.830036e-07	-1.504408e-10	1.274356e+00	-1.329052e+01
1.890000e-06	2.297185e-07	-1.286426e-10	1.599659e+00	-1.192947e+01
1.900000e-06	2.764580e-07	-1.059082e-10	1.925132e+00	-1.055163e+01
1.910000e-06	3.231864e-07	-8.432785e-11	2.250528e+00	-9.157730e+00
1.920000e-06	3.698063e-07	-6.607097e-11	2.575168e+00	-7.748555e+00
1.930000e-06	4.164173e-07	-4.947487e-11	2.899746e+00	-6.324981e+00
1.940000e-06	4.630725e-07	-3.429067e-11	3.224633e+00	-4.887952e+00
1.950000e-06	5.096604e-07	-1.884848e-11	3.549051e+00	-3.438486e+00
1.960000e-06	5.561518e-07	-1.573553e-12	3.872796e+00	-1.977666e+00
1.970000e-06	6.025989e-07	1.881851e-11	4.196233e+00	-5.066436e-01
1.980000e-06	6.489800e-07	4.239262e-11	4.519211e+00	9.733732e-01
1.990000e-06	6.952863e-07	6.746472e-11	4.841668e+00	2.461120e+00
2.000000e-06	7.415383e-07	9.105707e-11	5.163746e+00	3.955283e+00
2.010000e-06	7.877687e-07	1.115581e-10	5.485674e+00	5.454504e+00
2.020000e-06	8.339319e-07	1.297753e-10	5.807134e+00	6.957390e+00
2.030000e-06	8.800049e-07	1.484632e-10	6.127966e+00	8.462514e+00
2.040000e-06	9.260117e-07	1.685100e-10	6.448338e+00	9.968428e+00
2.050000e-06	9.719732e-07	1.893149e-10	6.768393e+00	1.147367e+01
2.060000e-06	1.017924e-06	2.100080e-10	7.088377e+00	1.297675e+01
2.070000e-06	1.063790e-06	2.319195e-10	7.407765e+00	1.447621e+01
2.080000e-06	1.109460e-06	2.544652e-10	7.725794e+00	1.597057e+01
2.090000e-06	1.155048e-06	2.753464e-10	8.043249e+00	1.745837e+01
2.100000e-06	1.200655e-06	2.956711e-10	8.360832e+00	1.893818e+01
2.110000e-06	1.246199e-06	3.140683e-10	8.677979e+00	2.040860e+01
2.120000e-06	1.291628e-06	3.314759e-10	8.994325e+00	2.186824e+01
2.130000e-06	1.336946e-06	3.501296e-10	9.309905e+00	2.331578e+01
2.140000e-06	1.382208e-06	3.700543e-10	9.625090e+00	2.474995e+01
2.150000e-06	1.427372e-06	3.908555e-10	9.939590e+00	2.616951e+01
2.160000e-06	1.472390e-06	4.117365e-10	1.025307e+01	2.757330e+01
2.170000e-06	1.517250e-06	4.314185e-10	1.056546e+01	2.896024e+01
2.180000e-06	1.561981e-06	4.500590e-10	1.087694e+01	3.032929e+01
2.190000e-06	1.606600e-06	4.689096e-10	1.118765e+01	3.167951e+01
2.200000e-06	1.651130e-06	4.881424e-10	1.149774e+01	3.301004e+01
2.210000e-06	1.695602e-06	5.062660e-10	1.180742e+01	3.432008e+01
2.220000e-06	1.739933e-06	5.243874e-10	1.211613e+01	3.560895e+01
2.230000e-06	1.784082e-06	5.426998e-10	1.242356e+01	3.687603e+01
2.240000e-06	1.828107e-06	5.594007e-10	1.273013e+01	3.812080e+01
2.250000e-06	1.872081e-06	5.750698e-10	1.303635e+01	3.934283e+01
2.260000e-06	1.915972e-06	5.906976e-10	1.334199e+01	4.054177e+01
2.270000e-06	1.959782e-06	6.049992e-10	1.364706e+01	4.171738e+01
2.280000e-06	2.003542e-06	6.177957e-10	1.395178e+01	4.286947e+01
2.290000e-06	2.047234e-06	6.310327e-10	1.425604e+01	4.399799e+01
2.300000e-06	2.090869e-06	6.467681e-10	1.455989e+01	4.510291e+01
2.310000e-06	2.134436e-06	6.638102e-10	1.486327e+01	4.618432e+01
2.320000e-06	2.177918e-06	6.797702e-10	1.516606e+01	4.724238e+01
2.330000e-06	2.221263e-06	6.924922e-10	1.546790e+01	4.827730e+01
2.340000e-06	2.264421e-06	7.038270e-10	1.576843e+01	4.928939e+01
2.350000e-06	2.307364e-06	7.160188e-10	1.606747e+01	5.027898e+01
2.360000e-06	2.350125e-06	7.287736e-10	1.636524e+01	5.124649e+01
2.370000e-06	2.392723e-06	7.413470e-10	1.666187e+01	5.219237e+01
2.380000e-06	2.435001e-06	7.547959e-10	1.695627e+01	5.311713e+01
2.390000e-06	2.476852e-06	7.697379e-10	1.724770e+01	5.402130e+01
2.400000e-06	2.518307e-06	7.823434e-10	1.753638e+01	5.490545e+01
2.410000e-06	2.559396e-06	7.939038e-10	1.782250e+01	5.577018e+01
2.420000e-06	2.600296e-06	8.070638e-10	1.810731e+01	5.661610e+01
2.430000e-06	2.640990e-06	8.204867e-10	1.839069e+01	5.744383e+01
2.440000e-06	2.681457e-06	8.335495e-10	1.867248e+01	5.825401e+01
2.450000e-06	2.721783e-06	8.468112e-10	1.895330e+01	5.904727e+01
2.460000e-06	2.761946e-06	8.590645e-10	1.923298e+01	5.982424e+01
2.470000e-06	2.801966e-06	8.694986e-10	1.951165e+01	6.058553e+01
2.480000e-06	2.841830e-06	8.780761e-10	1.978925e+01	6.133176e+01
2.490000e-06	2.881522e-06	8.865543e-10	2.006565e+01	6.206349e+01
2.500000e-06	2.921024e-06	8.978786e-10	2.034072e+01	6.278129e+01
2.510000e-06	2.960362e-06	9.111746e-10	2.061466e+01	6.348569e+01
2.520000e-06	2.999487e-06	9.244413e-10	2.088711e+01	6.417719e+01
2.530000e-06	3.038407e-06	9.364815e-10	2.115813e+01	6.485625e+01
2.540000e-06	3.077195e-06	9.460403e-10	2.142823e+01	6.552329e+01
2.550000e-06	3.115767e-06	9.523933e-10	2.169683e+01	6.617872e+01
2.560000e-06	3.154087e-06	9.574050e-10	2.196367e+01	6.682287e+01
2.570000e-06	3.192160e-06	9.640983e-10	2.222880e+01	6.745606e+01
2.580000e-06	3.230027e-06	9.720506e-10	2.249248e+01	6.807856e+01
2.590000e-06	3.267784e-06	9.802004e-10	2.275541e+01	6.869060e+01
2.600000e-06	3.305274e-06	9.900540e-10	2.301647e+01	6.929236e+01
2.610000e-06	3.342402e-06	1.001134e-09	2.327502e+01	6.988400e+01
2.620000e-06	3.379333e-06	1.010267e-09	2.353219e+01	7.046564e+01
2.630000e-06	3.416106e-06	1.017597e-09	2.378826e+01	7.103735e+01
2.640000e-06	3.452586e-06	1.023443e-09	2.404229e+01	7.159918e+01
2.650000e-06	3.488814e-06	1.028955e-09	2.429456e+01	7.215116e+01
2.660000e-06	3.524827e-06	1.036002e-09	2.454534e+01	7.269327e+01
2.670000e-06	3.560628e-06	1.043894e-09	2.479465e+01	7.322549e+01
2.680000e-06	3.596353e-06	1.050761e-09	2.504342e+01	7.374777e+01
2.690000e-06	3.632056e-06	1.056763e-09	2.529204e+01	7.426005e+01
2.700000e-06	3.667617e-06	1.064298e-09	2.553967e+01	7.476224e+01
2.710000e-06	3.702961e-06	1.072563e-09	2.578579e+01	7.525427e+01
2.720000e-06	3.738087e-06	1.081467e-09	2.603039e+01	7.573604e+01
2.730000e-06	3.772794e-06	1.090855e-09	2.627207e+01	7.620746e+01
2.740000e-06	3.806944e-06	1.100118e-09	2.650988e+01	7.666845e+01
2.750000e-06	3.840612e-06	1.107617e-09	2.674433e+01	7.711893e+01
2.760000e-06	3.873803e-06	1.112778e-09	2.697546e+01	7.755882e+01
2.770000e-06	3.906532e-06	1.116999e-09	2.720336e+01	7.798807e+01
2.780000e-06	3.938997e-06	1.121863e-09	2.742944e+01	7.840663e+01
2.790000e-06	3.971187e-06	1.128486e-09	2.765360e+01	7.881448e+01
2.800000e-06	4.003090e-06	1.137013e-09	2.787575e+01	7.921162e+01
2.810000e-06	4.034849e-06	1.146831e-09	2.809691e+01	7.959807e+01
2.820000e-06	4.066436e-06	1.155219e-09	2.831687e+01	7.997387e+01
2.830000e-06	4.097836e-06	1.161316e-09	2.853553e+01	8.033908e+01
2.840000e-06	4.129099e-06	1.165188e-09	2.875322e+01	8.069381e+01
2.850000e-06	4.160075e-06	1.169596e-09	2.896893e+01	8.103818e+01
2.860000e-06	4.190634e-06	1.175176e-09	2.918173e+01	8.137233e+01
2.870000e-06	4.220855e-06	1.178206e-09	2.939218e+01	8.169643e+01
2.880000e-06	4.250864e-06	1.181346e-09	2.960114e+01	8.201070e+01
2.890000e-06	4.280599e-06	1.186034e-09	2.980821e+01	8.231535e+01
2.900000e-06	4.309976e-06	1.190914e-09	3.001278e+01	8.261063e+01
