# Temperatura_=_-0.22
# Concentracion g/m^3_=_1620.0
# C_Vs_to_Am_M_A/Vsm_=_65563218390.804596
# pendiente_HvsI_1/m_=_3716.3
# ordenada_HvsI_A/m_=_1297.0
# frecuencia_Hz_=_135109.07054963414

Tiempo_(s)	Campo_(V.s)	Magnetizacion_(V.s)	Campo_(kA/m)	Magnetizacion_(A/m)
0.000000e+00	-5.515536e-06	-1.089839e-09	-3.837039e+01	-7.064648e+01
1.000000e-08	-5.515808e-06	-1.089709e-09	-3.837228e+01	-7.065805e+01
2.000000e-08	-5.515832e-06	-1.088286e-09	-3.837245e+01	-7.066833e+01
3.000000e-08	-5.515538e-06	-1.086501e-09	-3.837041e+01	-7.067704e+01
4.000000e-08	-5.514799e-06	-1.085451e-09	-3.836527e+01	-7.068391e+01
5.000000e-08	-5.513442e-06	-1.086029e-09	-3.835582e+01	-7.068864e+01
6.000000e-08	-5.511488e-06	-1.084865e-09	-3.834223e+01	-7.069095e+01
7.000000e-08	-5.508929e-06	-1.073121e-09	-3.832443e+01	-7.069055e+01
8.000000e-08	-5.505850e-06	-1.061645e-09	-3.830301e+01	-7.068715e+01
9.000000e-08	-5.502369e-06	-1.090826e-09	-3.827879e+01	-7.068047e+01
1.000000e-07	-5.498507e-06	-1.145256e-09	-3.825192e+01	-7.067026e+01
1.100000e-07	-5.494243e-06	-1.127789e-09	-3.822226e+01	-7.065625e+01
1.200000e-07	-5.489672e-06	-1.061810e-09	-3.819046e+01	-7.063822e+01
1.300000e-07	-5.484933e-06	-1.024139e-09	-3.815749e+01	-7.061593e+01
1.400000e-07	-5.479858e-06	-1.083633e-09	-3.812218e+01	-7.058921e+01
1.500000e-07	-5.474347e-06	-1.099284e-09	-3.808385e+01	-7.055786e+01
1.600000e-07	-5.468449e-06	-1.040693e-09	-3.804281e+01	-7.052175e+01
1.700000e-07	-5.462242e-06	-1.034411e-09	-3.799964e+01	-7.048074e+01
1.800000e-07	-5.455625e-06	-1.097699e-09	-3.795360e+01	-7.043475e+01
1.900000e-07	-5.448524e-06	-1.125117e-09	-3.790420e+01	-7.038370e+01
2.000000e-07	-5.441101e-06	-1.053978e-09	-3.785256e+01	-7.032755e+01
2.100000e-07	-5.433439e-06	-1.032246e-09	-3.779926e+01	-7.026630e+01
2.200000e-07	-5.425549e-06	-1.067977e-09	-3.774437e+01	-7.019997e+01
2.300000e-07	-5.417357e-06	-1.108561e-09	-3.768738e+01	-7.012860e+01
2.400000e-07	-5.408814e-06	-1.084331e-09	-3.762795e+01	-7.005228e+01
2.500000e-07	-5.399738e-06	-1.088509e-09	-3.756481e+01	-6.997110e+01
2.600000e-07	-5.389862e-06	-1.092182e-09	-3.749610e+01	-6.988519e+01
2.700000e-07	-5.379263e-06	-1.092377e-09	-3.742237e+01	-6.979471e+01
2.800000e-07	-5.368158e-06	-1.061161e-09	-3.734511e+01	-6.969984e+01
2.900000e-07	-5.356638e-06	-1.060626e-09	-3.726497e+01	-6.960076e+01
3.000000e-07	-5.344750e-06	-1.080511e-09	-3.718227e+01	-6.949769e+01
3.100000e-07	-5.332517e-06	-1.084687e-09	-3.709716e+01	-6.939086e+01
3.200000e-07	-5.319873e-06	-1.061355e-09	-3.700920e+01	-6.928050e+01
3.300000e-07	-5.306763e-06	-1.043244e-09	-3.691800e+01	-6.916688e+01
3.400000e-07	-5.293267e-06	-1.054763e-09	-3.682411e+01	-6.905023e+01
3.500000e-07	-5.279449e-06	-1.050777e-09	-3.672799e+01	-6.893083e+01
3.600000e-07	-5.265150e-06	-1.026906e-09	-3.662851e+01	-6.880893e+01
3.700000e-07	-5.250352e-06	-1.024257e-09	-3.652556e+01	-6.868479e+01
3.800000e-07	-5.235138e-06	-1.056961e-09	-3.641972e+01	-6.855866e+01
3.900000e-07	-5.219361e-06	-1.044652e-09	-3.630997e+01	-6.843079e+01
4.000000e-07	-5.203108e-06	-1.023595e-09	-3.619690e+01	-6.830142e+01
4.100000e-07	-5.186471e-06	-1.037475e-09	-3.608116e+01	-6.817076e+01
4.200000e-07	-5.169460e-06	-1.046875e-09	-3.596281e+01	-6.803902e+01
4.300000e-07	-5.152173e-06	-1.002156e-09	-3.584255e+01	-6.790640e+01
4.400000e-07	-5.134593e-06	-1.012409e-09	-3.572025e+01	-6.777306e+01
4.500000e-07	-5.116679e-06	-1.051486e-09	-3.559563e+01	-6.763915e+01
4.600000e-07	-5.098305e-06	-1.031786e-09	-3.546781e+01	-6.750480e+01
4.700000e-07	-5.079402e-06	-9.914353e-10	-3.533630e+01	-6.737012e+01
4.800000e-07	-5.060183e-06	-1.025644e-09	-3.520260e+01	-6.723519e+01
4.900000e-07	-5.040814e-06	-1.027156e-09	-3.506785e+01	-6.710006e+01
5.000000e-07	-5.021226e-06	-9.945342e-10	-3.493158e+01	-6.696477e+01
5.100000e-07	-5.001366e-06	-1.007903e-09	-3.479342e+01	-6.682932e+01
5.200000e-07	-4.981195e-06	-1.029894e-09	-3.465309e+01	-6.669371e+01
5.300000e-07	-4.960653e-06	-9.898739e-10	-3.451019e+01	-6.655790e+01
5.400000e-07	-4.939734e-06	-9.939000e-10	-3.436466e+01	-6.642183e+01
5.500000e-07	-4.918526e-06	-1.029428e-09	-3.421712e+01	-6.628542e+01
5.600000e-07	-4.896963e-06	-1.002470e-09	-3.406711e+01	-6.614858e+01
5.700000e-07	-4.875001e-06	-9.693758e-10	-3.391433e+01	-6.601119e+01
5.800000e-07	-4.852797e-06	-1.003984e-09	-3.375986e+01	-6.587313e+01
5.900000e-07	-4.830279e-06	-1.010393e-09	-3.360320e+01	-6.573425e+01
6.000000e-07	-4.807311e-06	-9.810459e-10	-3.344342e+01	-6.559442e+01
6.100000e-07	-4.784013e-06	-9.925820e-10	-3.328134e+01	-6.545346e+01
6.200000e-07	-4.760463e-06	-1.002206e-09	-3.311751e+01	-6.531122e+01
6.300000e-07	-4.736640e-06	-9.704249e-10	-3.295178e+01	-6.516753e+01
6.400000e-07	-4.712632e-06	-9.625069e-10	-3.278476e+01	-6.502223e+01
6.500000e-07	-4.688389e-06	-9.837606e-10	-3.261610e+01	-6.487514e+01
6.600000e-07	-4.663676e-06	-9.769467e-10	-3.244418e+01	-6.472612e+01
6.700000e-07	-4.638477e-06	-9.714186e-10	-3.226888e+01	-6.457500e+01
6.800000e-07	-4.612834e-06	-9.805243e-10	-3.209049e+01	-6.442164e+01
6.900000e-07	-4.586563e-06	-9.755697e-10	-3.190772e+01	-6.426591e+01
7.000000e-07	-4.559721e-06	-9.560380e-10	-3.172099e+01	-6.410768e+01
7.100000e-07	-4.532509e-06	-9.576669e-10	-3.153168e+01	-6.394686e+01
7.200000e-07	-4.505019e-06	-9.584841e-10	-3.134044e+01	-6.378334e+01
7.300000e-07	-4.477344e-06	-9.520498e-10	-3.114791e+01	-6.361705e+01
7.400000e-07	-4.449514e-06	-9.499485e-10	-3.095431e+01	-6.344793e+01
7.500000e-07	-4.421533e-06	-9.591048e-10	-3.075965e+01	-6.327594e+01
7.600000e-07	-4.393352e-06	-9.540464e-10	-3.056360e+01	-6.310105e+01
7.700000e-07	-4.364801e-06	-9.476777e-10	-3.036497e+01	-6.292327e+01
7.800000e-07	-4.335863e-06	-9.434697e-10	-3.016366e+01	-6.274260e+01
7.900000e-07	-4.306627e-06	-9.388787e-10	-2.996027e+01	-6.255906e+01
8.000000e-07	-4.277073e-06	-9.305374e-10	-2.975467e+01	-6.237271e+01
8.100000e-07	-4.247227e-06	-9.314766e-10	-2.954704e+01	-6.218360e+01
8.200000e-07	-4.217073e-06	-9.304078e-10	-2.933726e+01	-6.199180e+01
8.300000e-07	-4.186618e-06	-9.286319e-10	-2.912540e+01	-6.179740e+01
8.400000e-07	-4.155989e-06	-9.271038e-10	-2.891232e+01	-6.160048e+01
8.500000e-07	-4.125088e-06	-9.249389e-10	-2.869734e+01	-6.140114e+01
8.600000e-07	-4.093842e-06	-9.160441e-10	-2.847997e+01	-6.119949e+01
8.700000e-07	-4.062399e-06	-9.115762e-10	-2.826123e+01	-6.099564e+01
8.800000e-07	-4.030812e-06	-9.110101e-10	-2.804149e+01	-6.078969e+01
8.900000e-07	-3.999067e-06	-9.070196e-10	-2.782064e+01	-6.058175e+01
9.000000e-07	-3.967124e-06	-9.027191e-10	-2.759842e+01	-6.037192e+01
9.100000e-07	-3.934866e-06	-9.003406e-10	-2.737401e+01	-6.016028e+01
9.200000e-07	-3.902201e-06	-8.945777e-10	-2.714676e+01	-5.994693e+01
9.300000e-07	-3.869087e-06	-8.900245e-10	-2.691640e+01	-5.973193e+01
9.400000e-07	-3.835489e-06	-8.914593e-10	-2.668267e+01	-5.951534e+01
9.500000e-07	-3.801531e-06	-8.887268e-10	-2.644643e+01	-5.929721e+01
9.600000e-07	-3.767235e-06	-8.834830e-10	-2.620784e+01	-5.907754e+01
9.700000e-07	-3.732462e-06	-8.791742e-10	-2.596593e+01	-5.885635e+01
9.800000e-07	-3.697296e-06	-8.764061e-10	-2.572128e+01	-5.863360e+01
9.900000e-07	-3.661896e-06	-8.686454e-10	-2.547502e+01	-5.840927e+01
1.000000e-06	-3.626324e-06	-8.642455e-10	-2.522755e+01	-5.818328e+01
1.010000e-06	-3.590609e-06	-8.621495e-10	-2.497909e+01	-5.795554e+01
1.020000e-06	-3.554759e-06	-8.601120e-10	-2.472969e+01	-5.772593e+01
1.030000e-06	-3.518741e-06	-8.560932e-10	-2.447912e+01	-5.749431e+01
1.040000e-06	-3.482583e-06	-8.537435e-10	-2.422758e+01	-5.726052e+01
1.050000e-06	-3.446230e-06	-8.464397e-10	-2.397467e+01	-5.702436e+01
1.060000e-06	-3.409540e-06	-8.385284e-10	-2.371943e+01	-5.678562e+01
1.070000e-06	-3.372457e-06	-8.317111e-10	-2.346146e+01	-5.654407e+01
1.080000e-06	-3.335098e-06	-8.264737e-10	-2.320156e+01	-5.629944e+01
1.090000e-06	-3.297615e-06	-8.222145e-10	-2.294079e+01	-5.605147e+01
1.100000e-06	-3.259900e-06	-8.192100e-10	-2.267841e+01	-5.579985e+01
1.110000e-06	-3.221967e-06	-8.156564e-10	-2.241453e+01	-5.554428e+01
1.120000e-06	-3.183826e-06	-8.110305e-10	-2.214919e+01	-5.528445e+01
1.130000e-06	-3.145392e-06	-8.050710e-10	-2.188181e+01	-5.502001e+01
1.140000e-06	-3.106812e-06	-8.018952e-10	-2.161342e+01	-5.475065e+01
1.150000e-06	-3.068066e-06	-7.971585e-10	-2.134387e+01	-5.447601e+01
1.160000e-06	-3.029128e-06	-7.901140e-10	-2.107299e+01	-5.419576e+01
1.170000e-06	-2.989998e-06	-7.840616e-10	-2.080077e+01	-5.390955e+01
1.180000e-06	-2.950674e-06	-7.828138e-10	-2.052720e+01	-5.361705e+01
1.190000e-06	-2.911228e-06	-7.826597e-10	-2.025278e+01	-5.331794e+01
1.200000e-06	-2.871562e-06	-7.822779e-10	-1.997684e+01	-5.301189e+01
1.210000e-06	-2.831739e-06	-7.780825e-10	-1.969980e+01	-5.269860e+01
1.220000e-06	-2.791817e-06	-7.672491e-10	-1.942206e+01	-5.237779e+01
1.230000e-06	-2.751728e-06	-7.553334e-10	-1.914318e+01	-5.204917e+01
1.240000e-06	-2.711454e-06	-7.471768e-10	-1.886299e+01	-5.171251e+01
1.250000e-06	-2.670988e-06	-7.424553e-10	-1.858149e+01	-5.136756e+01
1.260000e-06	-2.630342e-06	-7.381913e-10	-1.829872e+01	-5.101412e+01
1.270000e-06	-2.589500e-06	-7.377347e-10	-1.801459e+01	-5.065201e+01
1.280000e-06	-2.548342e-06	-7.359001e-10	-1.772826e+01	-5.028107e+01
1.290000e-06	-2.506745e-06	-7.277732e-10	-1.743888e+01	-4.990116e+01
1.300000e-06	-2.464842e-06	-7.186561e-10	-1.714737e+01	-4.951218e+01
1.310000e-06	-2.422749e-06	-7.117579e-10	-1.685454e+01	-4.911405e+01
1.320000e-06	-2.380338e-06	-7.055671e-10	-1.655950e+01	-4.870669e+01
1.330000e-06	-2.337575e-06	-7.013067e-10	-1.626200e+01	-4.829009e+01
1.340000e-06	-2.294634e-06	-6.984048e-10	-1.596327e+01	-4.786422e+01
1.350000e-06	-2.251515e-06	-6.948664e-10	-1.566330e+01	-4.742909e+01
1.360000e-06	-2.208178e-06	-6.880251e-10	-1.536182e+01	-4.698473e+01
1.370000e-06	-2.164692e-06	-6.822095e-10	-1.505929e+01	-4.653118e+01
1.380000e-06	-2.121131e-06	-6.765130e-10	-1.475625e+01	-4.606849e+01
1.390000e-06	-2.077510e-06	-6.696475e-10	-1.445279e+01	-4.559672e+01
1.400000e-06	-2.033768e-06	-6.617588e-10	-1.414848e+01	-4.511596e+01
1.410000e-06	-1.989977e-06	-6.540486e-10	-1.384384e+01	-4.462627e+01
1.420000e-06	-1.946132e-06	-6.450492e-10	-1.353882e+01	-4.412772e+01
1.430000e-06	-1.902194e-06	-6.371344e-10	-1.323315e+01	-4.362040e+01
1.440000e-06	-1.858185e-06	-6.316936e-10	-1.292699e+01	-4.310437e+01
1.450000e-06	-1.814061e-06	-6.255576e-10	-1.262003e+01	-4.257968e+01
1.460000e-06	-1.769805e-06	-6.163313e-10	-1.231215e+01	-4.204638e+01
1.470000e-06	-1.725412e-06	-6.072140e-10	-1.200332e+01	-4.150449e+01
1.480000e-06	-1.680842e-06	-5.969644e-10	-1.169326e+01	-4.095401e+01
1.490000e-06	-1.636048e-06	-5.846610e-10	-1.138163e+01	-4.039493e+01
1.500000e-06	-1.591140e-06	-5.739893e-10	-1.106922e+01	-3.982719e+01
1.510000e-06	-1.546218e-06	-5.657765e-10	-1.075671e+01	-3.925074e+01
1.520000e-06	-1.501162e-06	-5.572886e-10	-1.044326e+01	-3.866545e+01
1.530000e-06	-1.455958e-06	-5.459278e-10	-1.012879e+01	-3.807120e+01
1.540000e-06	-1.410696e-06	-5.311799e-10	-9.813906e+00	-3.746780e+01
1.550000e-06	-1.365332e-06	-5.175849e-10	-9.498322e+00	-3.685506e+01
1.560000e-06	-1.319837e-06	-5.061368e-10	-9.181823e+00	-3.623272e+01
1.570000e-06	-1.274297e-06	-4.949352e-10	-8.865007e+00	-3.560050e+01
1.580000e-06	-1.228684e-06	-4.851838e-10	-8.547690e+00	-3.495810e+01
1.590000e-06	-1.182948e-06	-4.746294e-10	-8.229511e+00	-3.430516e+01
1.600000e-06	-1.137092e-06	-4.620272e-10	-7.910499e+00	-3.364129e+01
1.610000e-06	-1.091172e-06	-4.514015e-10	-7.591045e+00	-3.296609e+01
1.620000e-06	-1.045181e-06	-4.426525e-10	-7.271098e+00	-3.227911e+01
1.630000e-06	-9.990791e-07	-4.324610e-10	-6.950377e+00	-3.157988e+01
1.640000e-06	-9.529177e-07	-4.195251e-10	-6.629242e+00	-3.086791e+01
1.650000e-06	-9.067583e-07	-4.046018e-10	-6.308121e+00	-3.014270e+01
1.660000e-06	-8.606295e-07	-3.908281e-10	-5.987213e+00	-2.940372e+01
1.670000e-06	-8.143994e-07	-3.773817e-10	-5.665600e+00	-2.865044e+01
1.680000e-06	-7.680770e-07	-3.667526e-10	-5.343346e+00	-2.788233e+01
1.690000e-06	-7.217365e-07	-3.576783e-10	-5.020964e+00	-2.709885e+01
1.700000e-06	-6.753162e-07	-3.482674e-10	-4.698029e+00	-2.629949e+01
1.710000e-06	-6.288313e-07	-3.361950e-10	-4.374643e+00	-2.548373e+01
1.720000e-06	-5.823152e-07	-3.223492e-10	-4.051041e+00	-2.465108e+01
1.730000e-06	-5.357948e-07	-3.085541e-10	-3.727408e+00	-2.380107e+01
1.740000e-06	-4.892584e-07	-2.945284e-10	-3.403665e+00	-2.293327e+01
1.750000e-06	-4.426982e-07	-2.806523e-10	-3.079755e+00	-2.204729e+01
1.760000e-06	-3.961198e-07	-2.676943e-10	-2.755720e+00	-2.114277e+01
1.770000e-06	-3.494696e-07	-2.544427e-10	-2.431184e+00	-2.021942e+01
1.780000e-06	-3.027302e-07	-2.429000e-10	-2.106029e+00	-1.927698e+01
1.790000e-06	-2.559938e-07	-2.305522e-10	-1.780894e+00	-1.831528e+01
1.800000e-06	-2.092707e-07	-2.157110e-10	-1.455851e+00	-1.733419e+01
1.810000e-06	-1.625026e-07	-2.002922e-10	-1.130495e+00	-1.633367e+01
1.820000e-06	-1.157112e-07	-1.832382e-10	-8.049780e-01	-1.531375e+01
1.830000e-06	-6.888225e-08	-1.659136e-10	-4.791989e-01	-1.427453e+01
1.840000e-06	-2.205468e-08	-1.499416e-10	-1.534296e-01	-1.321621e+01
1.850000e-06	2.475819e-08	-1.360976e-10	1.722374e-01	-1.213905e+01
1.860000e-06	7.154120e-08	-1.241012e-10	4.976966e-01	-1.104342e+01
1.870000e-06	1.183272e-07	-1.104465e-10	8.231766e-01	-9.929770e+00
1.880000e-06	1.651436e-07	-9.540994e-11	1.148868e+00	-8.798626e+00
1.890000e-06	2.119368e-07	-7.895104e-11	1.474398e+00	-7.650615e+00
1.900000e-06	2.587305e-07	-6.145541e-11	1.799932e+00	-6.486450e+00
1.910000e-06	3.054312e-07	-4.526701e-11	2.124819e+00	-5.306927e+00
1.920000e-06	3.521117e-07	-2.927866e-11	2.449565e+00	-4.112926e+00
1.930000e-06	3.988687e-07	-1.461996e-11	2.774843e+00	-2.905408e+00
1.940000e-06	4.456328e-07	2.243419e-13	3.100171e+00	-1.685411e+00
1.950000e-06	4.922847e-07	1.402148e-11	3.424718e+00	-4.540459e-01
1.960000e-06	5.388362e-07	2.778377e-11	3.748567e+00	7.875098e-01
1.970000e-06	5.853396e-07	4.177235e-11	4.072081e+00	2.038015e+00
1.980000e-06	6.317980e-07	5.746105e-11	4.395282e+00	3.296174e+00
1.990000e-06	6.782056e-07	7.541929e-11	4.718130e+00	4.560639e+00
2.000000e-06	7.245962e-07	9.498867e-11	5.040859e+00	5.830021e+00
2.010000e-06	7.709466e-07	1.141778e-10	5.363308e+00	7.102894e+00
2.020000e-06	8.172187e-07	1.313711e-10	5.685213e+00	8.377808e+00
2.030000e-06	8.634631e-07	1.479074e-10	6.006926e+00	9.653288e+00
2.040000e-06	9.096268e-07	1.649137e-10	6.328077e+00	1.092785e+01
2.050000e-06	9.557354e-07	1.810758e-10	6.648844e+00	1.220000e+01
2.060000e-06	1.001735e-06	1.965029e-10	6.968852e+00	1.346827e+01
2.070000e-06	1.047613e-06	2.127829e-10	7.288014e+00	1.473117e+01
2.080000e-06	1.093424e-06	2.312967e-10	7.606716e+00	1.598726e+01
2.090000e-06	1.139162e-06	2.501457e-10	7.924905e+00	1.723512e+01
2.100000e-06	1.184842e-06	2.697018e-10	8.242686e+00	1.847336e+01
2.110000e-06	1.230481e-06	2.872247e-10	8.560187e+00	1.970064e+01
2.120000e-06	1.276073e-06	3.032625e-10	8.877363e+00	2.091567e+01
2.130000e-06	1.321632e-06	3.180118e-10	9.194309e+00	2.211722e+01
2.140000e-06	1.367137e-06	3.309953e-10	9.510875e+00	2.330411e+01
2.150000e-06	1.412500e-06	3.458878e-10	9.826458e+00	2.447525e+01
2.160000e-06	1.457691e-06	3.621958e-10	1.014084e+01	2.562961e+01
2.170000e-06	1.502746e-06	3.828109e-10	1.045428e+01	2.676624e+01
2.180000e-06	1.547739e-06	4.015693e-10	1.076728e+01	2.788428e+01
2.190000e-06	1.592668e-06	4.176047e-10	1.107985e+01	2.898295e+01
2.200000e-06	1.637372e-06	4.323550e-10	1.139084e+01	3.006155e+01
2.210000e-06	1.681887e-06	4.452450e-10	1.170052e+01	3.111948e+01
2.220000e-06	1.726356e-06	4.585947e-10	1.200989e+01	3.215623e+01
2.230000e-06	1.770717e-06	4.730916e-10	1.231849e+01	3.317137e+01
2.240000e-06	1.814885e-06	4.851191e-10	1.262576e+01	3.416457e+01
2.250000e-06	1.858941e-06	4.958478e-10	1.293225e+01	3.513560e+01
2.260000e-06	1.902929e-06	5.063110e-10	1.323827e+01	3.608428e+01
2.270000e-06	1.946830e-06	5.180939e-10	1.354368e+01	3.701055e+01
2.280000e-06	1.990675e-06	5.304261e-10	1.384869e+01	3.791442e+01
2.290000e-06	2.034456e-06	5.418985e-10	1.415327e+01	3.879598e+01
2.300000e-06	2.078139e-06	5.531420e-10	1.445717e+01	3.965538e+01
2.310000e-06	2.121692e-06	5.660724e-10	1.476015e+01	4.049286e+01
2.320000e-06	2.165218e-06	5.798629e-10	1.506296e+01	4.130870e+01
2.330000e-06	2.208696e-06	5.913917e-10	1.536542e+01	4.210328e+01
2.340000e-06	2.252047e-06	6.008112e-10	1.566701e+01	4.287697e+01
2.350000e-06	2.295202e-06	6.099751e-10	1.596723e+01	4.363026e+01
2.360000e-06	2.338072e-06	6.192911e-10	1.626546e+01	4.436361e+01
2.370000e-06	2.380686e-06	6.283512e-10	1.656191e+01	4.507757e+01
2.380000e-06	2.422962e-06	6.380657e-10	1.685602e+01	4.577269e+01
2.390000e-06	2.464939e-06	6.481080e-10	1.714805e+01	4.644955e+01
2.400000e-06	2.506629e-06	6.585298e-10	1.743808e+01	4.710875e+01
2.410000e-06	2.548025e-06	6.682941e-10	1.772606e+01	4.775088e+01
2.420000e-06	2.589185e-06	6.789943e-10	1.801240e+01	4.837657e+01
2.430000e-06	2.630112e-06	6.892568e-10	1.829712e+01	4.898641e+01
2.440000e-06	2.670820e-06	6.982260e-10	1.858032e+01	4.958101e+01
2.450000e-06	2.711252e-06	7.079161e-10	1.886159e+01	5.016096e+01
2.460000e-06	2.751415e-06	7.188262e-10	1.914100e+01	5.072683e+01
2.470000e-06	2.791439e-06	7.275928e-10	1.941943e+01	5.127917e+01
2.480000e-06	2.831328e-06	7.349078e-10	1.969693e+01	5.181852e+01
2.490000e-06	2.871060e-06	7.405555e-10	1.997335e+01	5.234536e+01
2.500000e-06	2.910679e-06	7.481621e-10	2.024896e+01	5.286018e+01
2.510000e-06	2.950169e-06	7.564596e-10	2.052369e+01	5.336341e+01
2.520000e-06	2.989469e-06	7.655242e-10	2.079709e+01	5.385546e+01
2.530000e-06	3.028549e-06	7.755661e-10	2.106896e+01	5.433669e+01
2.540000e-06	3.067408e-06	7.832853e-10	2.133929e+01	5.480744e+01
2.550000e-06	3.106014e-06	7.867929e-10	2.160787e+01	5.526801e+01
2.560000e-06	3.144374e-06	7.887924e-10	2.187473e+01	5.571865e+01
2.570000e-06	3.182521e-06	7.927945e-10	2.214011e+01	5.615959e+01
2.580000e-06	3.220497e-06	7.974481e-10	2.240430e+01	5.659103e+01
2.590000e-06	3.258337e-06	8.030396e-10	2.266755e+01	5.701312e+01
2.600000e-06	3.295941e-06	8.097418e-10	2.292915e+01	5.742599e+01
2.610000e-06	3.333286e-06	8.177269e-10	2.318895e+01	5.782975e+01
2.620000e-06	3.370432e-06	8.265679e-10	2.344737e+01	5.822448e+01
2.630000e-06	3.407362e-06	8.333009e-10	2.370428e+01	5.861022e+01
2.640000e-06	3.444031e-06	8.360593e-10	2.395938e+01	5.898702e+01
2.650000e-06	3.480436e-06	8.381530e-10	2.421264e+01	5.935490e+01
2.660000e-06	3.516599e-06	8.425529e-10	2.446422e+01	5.971385e+01
2.670000e-06	3.552514e-06	8.482003e-10	2.471407e+01	6.006389e+01
2.680000e-06	3.588247e-06	8.525986e-10	2.496266e+01	6.040501e+01
2.690000e-06	3.623904e-06	8.569698e-10	2.521071e+01	6.073719e+01
2.700000e-06	3.659474e-06	8.606935e-10	2.545817e+01	6.106043e+01
2.710000e-06	3.694866e-06	8.647586e-10	2.570438e+01	6.137472e+01
2.720000e-06	3.729891e-06	8.707870e-10	2.594805e+01	6.168008e+01
2.730000e-06	3.764443e-06	8.787291e-10	2.618842e+01	6.197651e+01
2.740000e-06	3.798732e-06	8.841751e-10	2.642696e+01	6.226404e+01
2.750000e-06	3.832803e-06	8.872417e-10	2.666398e+01	6.254271e+01
2.760000e-06	3.866370e-06	8.896827e-10	2.689750e+01	6.281258e+01
2.770000e-06	3.899336e-06	8.932635e-10	2.712684e+01	6.307374e+01
2.780000e-06	3.931895e-06	8.993041e-10	2.735334e+01	6.332628e+01
2.790000e-06	3.964128e-06	9.065022e-10	2.757758e+01	6.357032e+01
2.800000e-06	3.996143e-06	9.143989e-10	2.780030e+01	6.380600e+01
2.810000e-06	4.028008e-06	9.233147e-10	2.802198e+01	6.403349e+01
2.820000e-06	4.059646e-06	9.303579e-10	2.824208e+01	6.425297e+01
2.830000e-06	4.091036e-06	9.334848e-10	2.846045e+01	6.446464e+01
2.840000e-06	4.122276e-06	9.331904e-10	2.867778e+01	6.466875e+01
2.850000e-06	4.153341e-06	9.318205e-10	2.889389e+01	6.486553e+01
2.860000e-06	4.184054e-06	9.340183e-10	2.910756e+01	6.505525e+01
2.870000e-06	4.214415e-06	9.385844e-10	2.931877e+01	6.523820e+01
2.880000e-06	4.244480e-06	9.427771e-10	2.952793e+01	6.541467e+01
2.890000e-06	4.274281e-06	9.471668e-10	2.973525e+01	6.558496e+01
2.900000e-06	4.303824e-06	9.505140e-10	2.994077e+01	6.574940e+01
