# Temperatura_=_-0.48
# Concentracion g/m^3_=_1620.0
# C_Vs_to_Am_M_A/Vsm_=_65563218390.804596
# pendiente_HvsI_1/m_=_3716.3
# ordenada_HvsI_A/m_=_1297.0
# frecuencia_Hz_=_135088.76634974158

Tiempo_(s)	Campo_(V.s)	Magnetizacion_(V.s)	Campo_(kA/m)	Magnetizacion_(A/m)
0.000000e+00	-5.554586e-06	-1.323669e-09	-3.837668e+01	-8.555379e+01
1.000000e-08	-5.554711e-06	-1.325008e-09	-3.837754e+01	-8.556261e+01
2.000000e-08	-5.554584e-06	-1.326274e-09	-3.837666e+01	-8.557069e+01
3.000000e-08	-5.553879e-06	-1.326082e-09	-3.837179e+01	-8.557803e+01
4.000000e-08	-5.552647e-06	-1.319787e-09	-3.836328e+01	-8.558462e+01
5.000000e-08	-5.550933e-06	-1.311277e-09	-3.835144e+01	-8.559044e+01
6.000000e-08	-5.548625e-06	-1.291269e-09	-3.833549e+01	-8.559545e+01
7.000000e-08	-5.545763e-06	-1.286443e-09	-3.831572e+01	-8.559958e+01
8.000000e-08	-5.542379e-06	-1.299543e-09	-3.829234e+01	-8.560275e+01
9.000000e-08	-5.538553e-06	-1.347635e-09	-3.826590e+01	-8.560487e+01
1.000000e-07	-5.534306e-06	-1.377569e-09	-3.823656e+01	-8.560583e+01
1.100000e-07	-5.529724e-06	-1.336145e-09	-3.820490e+01	-8.560550e+01
1.200000e-07	-5.524999e-06	-1.206323e-09	-3.817226e+01	-8.560375e+01
1.300000e-07	-5.520030e-06	-1.271276e-09	-3.813793e+01	-8.560043e+01
1.400000e-07	-5.514549e-06	-1.307468e-09	-3.810006e+01	-8.559538e+01
1.500000e-07	-5.508682e-06	-1.339850e-09	-3.805953e+01	-8.558842e+01
1.600000e-07	-5.502491e-06	-1.221960e-09	-3.801675e+01	-8.557938e+01
1.700000e-07	-5.495977e-06	-1.293072e-09	-3.797175e+01	-8.556806e+01
1.800000e-07	-5.489067e-06	-1.374057e-09	-3.792400e+01	-8.555429e+01
1.900000e-07	-5.481655e-06	-1.367707e-09	-3.787279e+01	-8.553787e+01
2.000000e-07	-5.473969e-06	-1.280240e-09	-3.781969e+01	-8.551860e+01
2.100000e-07	-5.466139e-06	-1.288827e-09	-3.776559e+01	-8.549629e+01
2.200000e-07	-5.458026e-06	-1.371451e-09	-3.770954e+01	-8.547074e+01
2.300000e-07	-5.449596e-06	-1.361463e-09	-3.765130e+01	-8.544176e+01
2.400000e-07	-5.440689e-06	-1.347266e-09	-3.758976e+01	-8.540917e+01
2.500000e-07	-5.431036e-06	-1.321400e-09	-3.752307e+01	-8.537279e+01
2.600000e-07	-5.420660e-06	-1.367481e-09	-3.745138e+01	-8.533244e+01
2.700000e-07	-5.409703e-06	-1.333295e-09	-3.737568e+01	-8.528797e+01
2.800000e-07	-5.398333e-06	-1.339286e-09	-3.729712e+01	-8.523921e+01
2.900000e-07	-5.386549e-06	-1.305178e-09	-3.721571e+01	-8.518603e+01
3.000000e-07	-5.374423e-06	-1.356397e-09	-3.713193e+01	-8.512829e+01
3.100000e-07	-5.361914e-06	-1.318790e-09	-3.704550e+01	-8.506588e+01
3.200000e-07	-5.348904e-06	-1.335580e-09	-3.695561e+01	-8.499870e+01
3.300000e-07	-5.335428e-06	-1.294981e-09	-3.686251e+01	-8.492664e+01
3.400000e-07	-5.321613e-06	-1.344298e-09	-3.676706e+01	-8.484965e+01
3.500000e-07	-5.307496e-06	-1.318369e-09	-3.666953e+01	-8.476765e+01
3.600000e-07	-5.292758e-06	-1.312440e-09	-3.656771e+01	-8.468061e+01
3.700000e-07	-5.277418e-06	-1.292054e-09	-3.646172e+01	-8.458849e+01
3.800000e-07	-5.261656e-06	-1.340397e-09	-3.635282e+01	-8.449127e+01
3.900000e-07	-5.245319e-06	-1.300612e-09	-3.623995e+01	-8.438896e+01
4.000000e-07	-5.228502e-06	-1.275645e-09	-3.612376e+01	-8.428157e+01
4.100000e-07	-5.211392e-06	-1.322197e-09	-3.600554e+01	-8.416913e+01
4.200000e-07	-5.194126e-06	-1.336769e-09	-3.588626e+01	-8.405166e+01
4.300000e-07	-5.176491e-06	-1.265250e-09	-3.576442e+01	-8.392924e+01
4.400000e-07	-5.158539e-06	-1.283372e-09	-3.564038e+01	-8.380192e+01
4.500000e-07	-5.140319e-06	-1.359696e-09	-3.551450e+01	-8.366978e+01
4.600000e-07	-5.121534e-06	-1.284865e-09	-3.538472e+01	-8.353290e+01
4.700000e-07	-5.102275e-06	-1.235068e-09	-3.525166e+01	-8.339138e+01
4.800000e-07	-5.082773e-06	-1.316239e-09	-3.511692e+01	-8.324532e+01
4.900000e-07	-5.063141e-06	-1.329498e-09	-3.498128e+01	-8.309483e+01
5.000000e-07	-5.043303e-06	-1.229401e-09	-3.484422e+01	-8.294003e+01
5.100000e-07	-5.023180e-06	-1.284072e-09	-3.470519e+01	-8.278103e+01
5.200000e-07	-5.002643e-06	-1.316002e-09	-3.456330e+01	-8.261796e+01
5.300000e-07	-4.981655e-06	-1.237959e-09	-3.441829e+01	-8.245095e+01
5.400000e-07	-4.960324e-06	-1.234375e-09	-3.427092e+01	-8.228012e+01
5.500000e-07	-4.938761e-06	-1.327417e-09	-3.412194e+01	-8.210561e+01
5.600000e-07	-4.916904e-06	-1.251055e-09	-3.397092e+01	-8.192755e+01
5.700000e-07	-4.894599e-06	-1.216852e-09	-3.381682e+01	-8.174605e+01
5.800000e-07	-4.871953e-06	-1.291942e-09	-3.366036e+01	-8.156125e+01
5.900000e-07	-4.849083e-06	-1.289631e-09	-3.350235e+01	-8.137328e+01
6.000000e-07	-4.825900e-06	-1.209400e-09	-3.334218e+01	-8.118224e+01
6.100000e-07	-4.802412e-06	-1.270905e-09	-3.317990e+01	-8.098826e+01
6.200000e-07	-4.778676e-06	-1.278194e-09	-3.301590e+01	-8.079144e+01
6.300000e-07	-4.754749e-06	-1.210760e-09	-3.285060e+01	-8.059189e+01
6.400000e-07	-4.730600e-06	-1.220706e-09	-3.268375e+01	-8.038971e+01
6.500000e-07	-4.705950e-06	-1.267382e-09	-3.251344e+01	-8.018499e+01
6.600000e-07	-4.680734e-06	-1.213932e-09	-3.233923e+01	-7.997781e+01
6.700000e-07	-4.655102e-06	-1.217473e-09	-3.216213e+01	-7.976825e+01
6.800000e-07	-4.628916e-06	-1.253162e-09	-3.198121e+01	-7.955639e+01
6.900000e-07	-4.602119e-06	-1.222021e-09	-3.179607e+01	-7.934228e+01
7.000000e-07	-4.574814e-06	-1.193172e-09	-3.160742e+01	-7.912597e+01
7.100000e-07	-4.547204e-06	-1.222605e-09	-3.141667e+01	-7.890753e+01
7.200000e-07	-4.519499e-06	-1.205942e-09	-3.122525e+01	-7.868698e+01
7.300000e-07	-4.491680e-06	-1.181554e-09	-3.103305e+01	-7.846435e+01
7.400000e-07	-4.463642e-06	-1.211942e-09	-3.083933e+01	-7.823967e+01
7.500000e-07	-4.435246e-06	-1.214703e-09	-3.064315e+01	-7.801296e+01
7.600000e-07	-4.406518e-06	-1.189569e-09	-3.044467e+01	-7.778422e+01
7.700000e-07	-4.377596e-06	-1.194167e-09	-3.024484e+01	-7.755345e+01
7.800000e-07	-4.348340e-06	-1.196004e-09	-3.004271e+01	-7.732064e+01
7.900000e-07	-4.318736e-06	-1.160724e-09	-2.983818e+01	-7.708578e+01
8.000000e-07	-4.288891e-06	-1.165625e-09	-2.963198e+01	-7.684885e+01
8.100000e-07	-4.258811e-06	-1.177575e-09	-2.942415e+01	-7.660981e+01
8.200000e-07	-4.228434e-06	-1.166024e-09	-2.921428e+01	-7.636864e+01
8.300000e-07	-4.197716e-06	-1.155405e-09	-2.900205e+01	-7.612527e+01
8.400000e-07	-4.166639e-06	-1.176695e-09	-2.878734e+01	-7.587968e+01
8.500000e-07	-4.135226e-06	-1.160730e-09	-2.857031e+01	-7.563179e+01
8.600000e-07	-4.103587e-06	-1.144064e-09	-2.835171e+01	-7.538154e+01
8.700000e-07	-4.071803e-06	-1.146844e-09	-2.813211e+01	-7.512887e+01
8.800000e-07	-4.039843e-06	-1.150482e-09	-2.791130e+01	-7.487370e+01
8.900000e-07	-4.007726e-06	-1.128454e-09	-2.768941e+01	-7.461595e+01
9.000000e-07	-3.975390e-06	-1.135896e-09	-2.746600e+01	-7.435553e+01
9.100000e-07	-3.942653e-06	-1.136379e-09	-2.723982e+01	-7.409234e+01
9.200000e-07	-3.909461e-06	-1.121030e-09	-2.701049e+01	-7.382629e+01
9.300000e-07	-3.875749e-06	-1.111175e-09	-2.677758e+01	-7.355726e+01
9.400000e-07	-3.841665e-06	-1.122675e-09	-2.654209e+01	-7.328516e+01
9.500000e-07	-3.807171e-06	-1.112226e-09	-2.630377e+01	-7.300986e+01
9.600000e-07	-3.772126e-06	-1.103472e-09	-2.606165e+01	-7.273124e+01
9.700000e-07	-3.736749e-06	-1.108378e-09	-2.581722e+01	-7.244918e+01
9.800000e-07	-3.701236e-06	-1.106521e-09	-2.557186e+01	-7.216353e+01
9.900000e-07	-3.665574e-06	-1.090397e-09	-2.532548e+01	-7.187418e+01
1.000000e-06	-3.629808e-06	-1.088057e-09	-2.507837e+01	-7.158097e+01
1.010000e-06	-3.593942e-06	-1.086694e-09	-2.483057e+01	-7.128376e+01
1.020000e-06	-3.557884e-06	-1.073355e-09	-2.458144e+01	-7.098241e+01
1.030000e-06	-3.521590e-06	-1.067854e-09	-2.433069e+01	-7.067675e+01
1.040000e-06	-3.484933e-06	-1.071089e-09	-2.407742e+01	-7.036663e+01
1.050000e-06	-3.447978e-06	-1.065598e-09	-2.382210e+01	-7.005190e+01
1.060000e-06	-3.410822e-06	-1.055026e-09	-2.356539e+01	-6.973239e+01
1.070000e-06	-3.373440e-06	-1.054928e-09	-2.330712e+01	-6.940793e+01
1.080000e-06	-3.335792e-06	-1.045858e-09	-2.304701e+01	-6.907837e+01
1.090000e-06	-3.297930e-06	-1.034248e-09	-2.278542e+01	-6.874353e+01
1.100000e-06	-3.259886e-06	-1.026411e-09	-2.252257e+01	-6.840324e+01
1.110000e-06	-3.221502e-06	-1.022707e-09	-2.225738e+01	-6.805734e+01
1.120000e-06	-3.182793e-06	-1.009887e-09	-2.198994e+01	-6.770566e+01
1.130000e-06	-3.143950e-06	-1.005333e-09	-2.172157e+01	-6.734802e+01
1.140000e-06	-3.104911e-06	-1.001373e-09	-2.145185e+01	-6.698427e+01
1.150000e-06	-3.065625e-06	-9.937364e-10	-2.118042e+01	-6.661423e+01
1.160000e-06	-3.026265e-06	-9.831770e-10	-2.090849e+01	-6.623773e+01
1.170000e-06	-2.986797e-06	-9.820105e-10	-2.063580e+01	-6.585462e+01
1.180000e-06	-2.947153e-06	-9.732836e-10	-2.036190e+01	-6.546474e+01
1.190000e-06	-2.907382e-06	-9.676102e-10	-2.008712e+01	-6.506793e+01
1.200000e-06	-2.867431e-06	-9.628146e-10	-1.981110e+01	-6.466404e+01
1.210000e-06	-2.827371e-06	-9.567122e-10	-1.953433e+01	-6.425291e+01
1.220000e-06	-2.787197e-06	-9.446855e-10	-1.925677e+01	-6.383441e+01
1.230000e-06	-2.746725e-06	-9.387234e-10	-1.897714e+01	-6.340838e+01
1.240000e-06	-2.706033e-06	-9.330240e-10	-1.869600e+01	-6.297469e+01
1.250000e-06	-2.665081e-06	-9.265362e-10	-1.841306e+01	-6.253321e+01
1.260000e-06	-2.623727e-06	-9.224976e-10	-1.812735e+01	-6.208381e+01
1.270000e-06	-2.582045e-06	-9.201545e-10	-1.783937e+01	-6.162635e+01
1.280000e-06	-2.540193e-06	-9.116412e-10	-1.755021e+01	-6.116072e+01
1.290000e-06	-2.498091e-06	-9.015276e-10	-1.725933e+01	-6.068680e+01
1.300000e-06	-2.455684e-06	-8.908134e-10	-1.696634e+01	-6.020446e+01
1.310000e-06	-2.413028e-06	-8.811178e-10	-1.667163e+01	-5.971360e+01
1.320000e-06	-2.370138e-06	-8.728009e-10	-1.637530e+01	-5.921410e+01
1.330000e-06	-2.327014e-06	-8.681482e-10	-1.607735e+01	-5.870585e+01
1.340000e-06	-2.283681e-06	-8.644556e-10	-1.577797e+01	-5.818873e+01
1.350000e-06	-2.240205e-06	-8.562707e-10	-1.547760e+01	-5.766264e+01
1.360000e-06	-2.196605e-06	-8.461734e-10	-1.517636e+01	-5.712745e+01
1.370000e-06	-2.152892e-06	-8.341301e-10	-1.487435e+01	-5.658306e+01
1.380000e-06	-2.109100e-06	-8.246085e-10	-1.457178e+01	-5.602935e+01
1.390000e-06	-2.065207e-06	-8.156376e-10	-1.426853e+01	-5.546618e+01
1.400000e-06	-2.021235e-06	-8.074117e-10	-1.396473e+01	-5.489343e+01
1.410000e-06	-1.977201e-06	-7.966267e-10	-1.366050e+01	-5.431097e+01
1.420000e-06	-1.933001e-06	-7.888005e-10	-1.335512e+01	-5.371865e+01
1.430000e-06	-1.888596e-06	-7.796180e-10	-1.304832e+01	-5.311633e+01
1.440000e-06	-1.844042e-06	-7.680207e-10	-1.274050e+01	-5.250383e+01
1.450000e-06	-1.799421e-06	-7.547503e-10	-1.243221e+01	-5.188100e+01
1.460000e-06	-1.754698e-06	-7.441040e-10	-1.212322e+01	-5.124765e+01
1.470000e-06	-1.709854e-06	-7.320573e-10	-1.181340e+01	-5.060359e+01
1.480000e-06	-1.664929e-06	-7.213742e-10	-1.150301e+01	-4.994862e+01
1.490000e-06	-1.619830e-06	-7.093921e-10	-1.119142e+01	-4.928252e+01
1.500000e-06	-1.574635e-06	-6.980651e-10	-1.087916e+01	-4.860506e+01
1.510000e-06	-1.529345e-06	-6.859900e-10	-1.056626e+01	-4.791600e+01
1.520000e-06	-1.483896e-06	-6.752803e-10	-1.025225e+01	-4.721509e+01
1.530000e-06	-1.438396e-06	-6.611081e-10	-9.937890e+00	-4.650205e+01
1.540000e-06	-1.392807e-06	-6.479119e-10	-9.622912e+00	-4.577662e+01
1.550000e-06	-1.347142e-06	-6.348272e-10	-9.307414e+00	-4.503849e+01
1.560000e-06	-1.301429e-06	-6.219179e-10	-8.991585e+00	-4.428737e+01
1.570000e-06	-1.255521e-06	-6.080106e-10	-8.674402e+00	-4.352294e+01
1.580000e-06	-1.209494e-06	-5.961568e-10	-8.356403e+00	-4.274488e+01
1.590000e-06	-1.163401e-06	-5.826803e-10	-8.037947e+00	-4.195287e+01
1.600000e-06	-1.117242e-06	-5.696468e-10	-7.719032e+00	-4.114657e+01
1.610000e-06	-1.071040e-06	-5.573627e-10	-7.399823e+00	-4.032565e+01
1.620000e-06	-1.024812e-06	-5.449705e-10	-7.080435e+00	-3.948976e+01
1.630000e-06	-9.785332e-07	-5.326405e-10	-6.760693e+00	-3.863856e+01
1.640000e-06	-9.320990e-07	-5.158618e-10	-6.439879e+00	-3.777173e+01
1.650000e-06	-8.855666e-07	-4.995005e-10	-6.118386e+00	-3.688893e+01
1.660000e-06	-8.389849e-07	-4.844009e-10	-5.796553e+00	-3.598983e+01
1.670000e-06	-7.923699e-07	-4.722147e-10	-5.474489e+00	-3.507414e+01
1.680000e-06	-7.456478e-07	-4.589661e-10	-5.151686e+00	-3.414155e+01
1.690000e-06	-6.987835e-07	-4.478819e-10	-4.827900e+00	-3.319178e+01
1.700000e-06	-6.519668e-07	-4.341565e-10	-4.504443e+00	-3.222459e+01
1.710000e-06	-6.051046e-07	-4.175628e-10	-4.180672e+00	-3.123972e+01
1.720000e-06	-5.581411e-07	-3.991070e-10	-3.856201e+00	-3.023699e+01
1.730000e-06	-5.112696e-07	-3.826708e-10	-3.532365e+00	-2.921621e+01
1.740000e-06	-4.643376e-07	-3.660671e-10	-3.208112e+00	-2.817725e+01
1.750000e-06	-4.173481e-07	-3.512097e-10	-2.883461e+00	-2.712000e+01
1.760000e-06	-3.703292e-07	-3.371185e-10	-2.558607e+00	-2.604440e+01
1.770000e-06	-3.232784e-07	-3.232590e-10	-2.233533e+00	-2.495043e+01
1.780000e-06	-2.762177e-07	-3.097875e-10	-1.908390e+00	-2.383812e+01
1.790000e-06	-2.290328e-07	-2.927844e-10	-1.582389e+00	-2.270753e+01
1.800000e-06	-1.818248e-07	-2.720104e-10	-1.256229e+00	-2.155881e+01
1.810000e-06	-1.346269e-07	-2.510390e-10	-9.301381e-01	-2.039214e+01
1.820000e-06	-8.743246e-08	-2.318088e-10	-6.040715e-01	-1.920774e+01
1.830000e-06	-4.028303e-08	-2.147940e-10	-2.783158e-01	-1.800592e+01
1.840000e-06	6.849378e-09	-1.989508e-10	4.732240e-02	-1.678702e+01
1.850000e-06	5.401998e-08	-1.857837e-10	3.732244e-01	-1.555147e+01
1.860000e-06	1.011775e-07	-1.713651e-10	6.990364e-01	-1.429974e+01
1.870000e-06	1.483246e-07	-1.537910e-10	1.024776e+00	-1.303235e+01
1.880000e-06	1.954814e-07	-1.326742e-10	1.350582e+00	-1.174991e+01
1.890000e-06	2.425825e-07	-1.101072e-10	1.676004e+00	-1.045307e+01
1.900000e-06	2.896767e-07	-8.956012e-11	2.001378e+00	-9.142549e+00
1.910000e-06	3.368493e-07	-7.111211e-11	2.327294e+00	-7.819114e+00
1.920000e-06	3.840079e-07	-5.655043e-11	2.653114e+00	-6.483598e+00
1.930000e-06	4.310393e-07	-4.211176e-11	2.978054e+00	-5.136882e+00
1.940000e-06	4.780144e-07	-2.809099e-11	3.302605e+00	-3.779902e+00
1.950000e-06	5.249528e-07	-1.324360e-11	3.626903e+00	-2.413641e+00
1.960000e-06	5.718943e-07	4.896920e-12	3.951222e+00	-1.039130e+00
1.970000e-06	6.187972e-07	2.509143e-11	4.275274e+00	3.425618e-01
1.980000e-06	6.656622e-07	4.649878e-11	4.599065e+00	1.730324e+00
1.990000e-06	7.124091e-07	6.840467e-11	4.922039e+00	3.123014e+00
2.000000e-06	7.590127e-07	8.746764e-11	5.244024e+00	4.519461e+00
2.010000e-06	8.055793e-07	1.053871e-10	5.565754e+00	5.918466e+00
2.020000e-06	8.521133e-07	1.214726e-10	5.887257e+00	7.318816e+00
2.030000e-06	8.986241e-07	1.412546e-10	6.208600e+00	8.719278e+00
2.040000e-06	9.450236e-07	1.608077e-10	6.529175e+00	1.011862e+01
2.050000e-06	9.913333e-07	1.810624e-10	6.849129e+00	1.151559e+01
2.060000e-06	1.037665e-06	2.012253e-10	7.169237e+00	1.290895e+01
2.070000e-06	1.083924e-06	2.224372e-10	7.488837e+00	1.429747e+01
2.080000e-06	1.130007e-06	2.420439e-10	7.807225e+00	1.567993e+01
2.090000e-06	1.175935e-06	2.605431e-10	8.124542e+00	1.705514e+01
2.100000e-06	1.221806e-06	2.807315e-10	8.441464e+00	1.842190e+01
2.110000e-06	1.267617e-06	3.010201e-10	8.757978e+00	1.977909e+01
2.120000e-06	1.313361e-06	3.204050e-10	9.074018e+00	2.112557e+01
2.130000e-06	1.359138e-06	3.376828e-10	9.390294e+00	2.246029e+01
2.140000e-06	1.404794e-06	3.552071e-10	9.705731e+00	2.378220e+01
2.150000e-06	1.450224e-06	3.716317e-10	1.001961e+01	2.509034e+01
2.160000e-06	1.495572e-06	3.895344e-10	1.033292e+01	2.638376e+01
2.170000e-06	1.540858e-06	4.090064e-10	1.064580e+01	2.766159e+01
2.180000e-06	1.586017e-06	4.279634e-10	1.095780e+01	2.892303e+01
2.190000e-06	1.631063e-06	4.481154e-10	1.126903e+01	3.016731e+01
2.200000e-06	1.676006e-06	4.666941e-10	1.157954e+01	3.139375e+01
2.210000e-06	1.720923e-06	4.825722e-10	1.188987e+01	3.260172e+01
2.220000e-06	1.765693e-06	4.999383e-10	1.219919e+01	3.379067e+01
2.230000e-06	1.810204e-06	5.154291e-10	1.250671e+01	3.496012e+01
2.240000e-06	1.854579e-06	5.290207e-10	1.281330e+01	3.610964e+01
2.250000e-06	1.898801e-06	5.418697e-10	1.311883e+01	3.723889e+01
2.260000e-06	1.942918e-06	5.580113e-10	1.342363e+01	3.834759e+01
2.270000e-06	1.986908e-06	5.744612e-10	1.372756e+01	3.943553e+01
2.280000e-06	2.030755e-06	5.892352e-10	1.403050e+01	4.050257e+01
2.290000e-06	2.074556e-06	6.022456e-10	1.433313e+01	4.154863e+01
2.300000e-06	2.118321e-06	6.157793e-10	1.463549e+01	4.257370e+01
2.310000e-06	2.162054e-06	6.302907e-10	1.493765e+01	4.357782e+01
2.320000e-06	2.205694e-06	6.451634e-10	1.523916e+01	4.456110e+01
2.330000e-06	2.249246e-06	6.584718e-10	1.554006e+01	4.552370e+01
2.340000e-06	2.292681e-06	6.701818e-10	1.584015e+01	4.646583e+01
2.350000e-06	2.335887e-06	6.812254e-10	1.613866e+01	4.738775e+01
2.360000e-06	2.378923e-06	6.920414e-10	1.643600e+01	4.828976e+01
2.370000e-06	2.421725e-06	7.031751e-10	1.673171e+01	4.917220e+01
2.380000e-06	2.464295e-06	7.166103e-10	1.702583e+01	5.003545e+01
2.390000e-06	2.506640e-06	7.313504e-10	1.731839e+01	5.087991e+01
2.400000e-06	2.548662e-06	7.449697e-10	1.760872e+01	5.170601e+01
2.410000e-06	2.590273e-06	7.585942e-10	1.789622e+01	5.251422e+01
2.420000e-06	2.631521e-06	7.724056e-10	1.818119e+01	5.330500e+01
2.430000e-06	2.672481e-06	7.847345e-10	1.846419e+01	5.407882e+01
2.440000e-06	2.713179e-06	7.960489e-10	1.874537e+01	5.483619e+01
2.450000e-06	2.753761e-06	8.068336e-10	1.902575e+01	5.557759e+01
2.460000e-06	2.794177e-06	8.160142e-10	1.930499e+01	5.630352e+01
2.470000e-06	2.834296e-06	8.253559e-10	1.958217e+01	5.701447e+01
2.480000e-06	2.874190e-06	8.353014e-10	1.985780e+01	5.771090e+01
2.490000e-06	2.913964e-06	8.469644e-10	2.013260e+01	5.839329e+01
2.500000e-06	2.953632e-06	8.598087e-10	2.040667e+01	5.906210e+01
2.510000e-06	2.993209e-06	8.721995e-10	2.068010e+01	5.971774e+01
2.520000e-06	3.032678e-06	8.824913e-10	2.095279e+01	6.036064e+01
2.530000e-06	3.071957e-06	8.905714e-10	2.122418e+01	6.099117e+01
2.540000e-06	3.111056e-06	8.975864e-10	2.149431e+01	6.160971e+01
2.550000e-06	3.149907e-06	9.040937e-10	2.176273e+01	6.221659e+01
2.560000e-06	3.188411e-06	9.113095e-10	2.202876e+01	6.281213e+01
2.570000e-06	3.226580e-06	9.189831e-10	2.229246e+01	6.339659e+01
2.580000e-06	3.264598e-06	9.250490e-10	2.255513e+01	6.397023e+01
2.590000e-06	3.302470e-06	9.314244e-10	2.281679e+01	6.453327e+01
2.600000e-06	3.340130e-06	9.400062e-10	2.307698e+01	6.508591e+01
2.610000e-06	3.377616e-06	9.504799e-10	2.333597e+01	6.562831e+01
2.620000e-06	3.414848e-06	9.606182e-10	2.359321e+01	6.616062e+01
2.630000e-06	3.451917e-06	9.702332e-10	2.384932e+01	6.668293e+01
2.640000e-06	3.488723e-06	9.762395e-10	2.410361e+01	6.719535e+01
2.650000e-06	3.525178e-06	9.809887e-10	2.435548e+01	6.769793e+01
2.660000e-06	3.561358e-06	9.873258e-10	2.460545e+01	6.819072e+01
2.670000e-06	3.597278e-06	9.933094e-10	2.485362e+01	6.867375e+01
2.680000e-06	3.633063e-06	9.991661e-10	2.510086e+01	6.914703e+01
2.690000e-06	3.668787e-06	1.007343e-09	2.534768e+01	6.961055e+01
2.700000e-06	3.704358e-06	1.016438e-09	2.559343e+01	7.006431e+01
2.710000e-06	3.739780e-06	1.024682e-09	2.583816e+01	7.050829e+01
2.720000e-06	3.775053e-06	1.034205e-09	2.608187e+01	7.094245e+01
2.730000e-06	3.810016e-06	1.042039e-09	2.632343e+01	7.136677e+01
2.740000e-06	3.844538e-06	1.045974e-09	2.656194e+01	7.178122e+01
2.750000e-06	3.878539e-06	1.047926e-09	2.679685e+01	7.218578e+01
2.760000e-06	3.912042e-06	1.051244e-09	2.702833e+01	7.258043e+01
2.770000e-06	3.945175e-06	1.056385e-09	2.725724e+01	7.296515e+01
2.780000e-06	3.977931e-06	1.064547e-09	2.748355e+01	7.333996e+01
2.790000e-06	4.010255e-06	1.075958e-09	2.770688e+01	7.370485e+01
2.800000e-06	4.042274e-06	1.085428e-09	2.792810e+01	7.405985e+01
2.810000e-06	4.074170e-06	1.090662e-09	2.814847e+01	7.440501e+01
2.820000e-06	4.105935e-06	1.095333e-09	2.836794e+01	7.474039e+01
2.830000e-06	4.137441e-06	1.099650e-09	2.858561e+01	7.506606e+01
2.840000e-06	4.168760e-06	1.103103e-09	2.880199e+01	7.538213e+01
2.850000e-06	4.199942e-06	1.106972e-09	2.901743e+01	7.568872e+01
2.860000e-06	4.230773e-06	1.112022e-09	2.923044e+01	7.598596e+01
2.870000e-06	4.261187e-06	1.117432e-09	2.944057e+01	7.627401e+01
2.880000e-06	4.291312e-06	1.122668e-09	2.964870e+01	7.655306e+01
2.890000e-06	4.321165e-06	1.127052e-09	2.985496e+01	7.682331e+01
2.900000e-06	4.350690e-06	1.130953e-09	3.005895e+01	7.708498e+01
