# Temperatura_=_-1.9
# Concentracion g/m^3_=_1620.0
# C_Vs_to_Am_M_A/Vsm_=_65563218390.804596
# pendiente_HvsI_1/m_=_3716.3
# ordenada_HvsI_A/m_=_1297.0
# frecuencia_Hz_=_135092.11848846744

Tiempo_(s)	Campo_(V.s)	Magnetizacion_(V.s)	Campo_(kA/m)	Magnetizacion_(A/m)
0.000000e+00	-5.524823e-06	-1.059561e-09	-3.836529e+01	-7.048990e+01
1.000000e-08	-5.525028e-06	-1.058442e-09	-3.836672e+01	-7.045560e+01
2.000000e-08	-5.524994e-06	-1.060364e-09	-3.836648e+01	-7.042031e+01
3.000000e-08	-5.524655e-06	-1.064972e-09	-3.836413e+01	-7.038389e+01
4.000000e-08	-5.523952e-06	-1.065740e-09	-3.835924e+01	-7.034621e+01
5.000000e-08	-5.522672e-06	-1.059588e-09	-3.835036e+01	-7.030711e+01
6.000000e-08	-5.520775e-06	-1.053064e-09	-3.833719e+01	-7.026643e+01
7.000000e-08	-5.518300e-06	-1.043453e-09	-3.831999e+01	-7.022400e+01
8.000000e-08	-5.515310e-06	-1.047836e-09	-3.829923e+01	-7.017965e+01
9.000000e-08	-5.511863e-06	-1.092214e-09	-3.827530e+01	-7.013319e+01
1.000000e-07	-5.507945e-06	-1.123115e-09	-3.824809e+01	-7.008443e+01
1.100000e-07	-5.503608e-06	-1.046564e-09	-3.821797e+01	-7.003319e+01
1.200000e-07	-5.499129e-06	-1.023811e-09	-3.818687e+01	-6.997929e+01
1.300000e-07	-5.494484e-06	-1.036825e-09	-3.815462e+01	-6.992254e+01
1.400000e-07	-5.489330e-06	-1.121201e-09	-3.811882e+01	-6.986277e+01
1.500000e-07	-5.483718e-06	-1.043821e-09	-3.807985e+01	-6.979980e+01
1.600000e-07	-5.477818e-06	-9.979296e-10	-3.803888e+01	-6.973347e+01
1.700000e-07	-5.471543e-06	-1.051949e-09	-3.799531e+01	-6.966363e+01
1.800000e-07	-5.464767e-06	-1.121645e-09	-3.794826e+01	-6.959014e+01
1.900000e-07	-5.457567e-06	-1.071339e-09	-3.789826e+01	-6.951288e+01
2.000000e-07	-5.450123e-06	-1.002176e-09	-3.784657e+01	-6.943173e+01
2.100000e-07	-5.442510e-06	-1.066956e-09	-3.779370e+01	-6.934659e+01
2.200000e-07	-5.434494e-06	-1.129112e-09	-3.773803e+01	-6.925740e+01
2.300000e-07	-5.426121e-06	-1.125387e-09	-3.767989e+01	-6.916408e+01
2.400000e-07	-5.417494e-06	-1.065409e-09	-3.761999e+01	-6.906660e+01
2.500000e-07	-5.408343e-06	-1.102203e-09	-3.755643e+01	-6.896492e+01
2.600000e-07	-5.398488e-06	-1.103210e-09	-3.748800e+01	-6.885905e+01
2.700000e-07	-5.387968e-06	-1.096012e-09	-3.741495e+01	-6.874900e+01
2.800000e-07	-5.376938e-06	-1.047004e-09	-3.733835e+01	-6.863480e+01
2.900000e-07	-5.365450e-06	-1.086532e-09	-3.725858e+01	-6.851650e+01
3.000000e-07	-5.353562e-06	-1.090859e-09	-3.717603e+01	-6.839416e+01
3.100000e-07	-5.341311e-06	-1.081981e-09	-3.709095e+01	-6.826786e+01
3.200000e-07	-5.328593e-06	-1.044280e-09	-3.700264e+01	-6.813771e+01
3.300000e-07	-5.315438e-06	-1.072209e-09	-3.691129e+01	-6.800381e+01
3.400000e-07	-5.301982e-06	-1.067900e-09	-3.681785e+01	-6.786629e+01
3.500000e-07	-5.288300e-06	-1.045610e-09	-3.672283e+01	-6.772527e+01
3.600000e-07	-5.274151e-06	-1.017040e-09	-3.662458e+01	-6.758091e+01
3.700000e-07	-5.259508e-06	-1.070367e-09	-3.652290e+01	-6.743335e+01
3.800000e-07	-5.244395e-06	-1.074478e-09	-3.641795e+01	-6.728273e+01
3.900000e-07	-5.228693e-06	-1.033019e-09	-3.630892e+01	-6.712923e+01
4.000000e-07	-5.212422e-06	-1.027952e-09	-3.619593e+01	-6.697300e+01
4.100000e-07	-5.195624e-06	-1.065249e-09	-3.607928e+01	-6.681419e+01
4.200000e-07	-5.178545e-06	-1.028534e-09	-3.596068e+01	-6.665297e+01
4.300000e-07	-5.161205e-06	-9.854871e-10	-3.584027e+01	-6.648947e+01
4.400000e-07	-5.143650e-06	-1.052934e-09	-3.571837e+01	-6.632385e+01
4.500000e-07	-5.125782e-06	-1.060187e-09	-3.559428e+01	-6.615625e+01
4.600000e-07	-5.107411e-06	-9.936888e-10	-3.546671e+01	-6.598679e+01
4.700000e-07	-5.088656e-06	-9.918589e-10	-3.533647e+01	-6.581559e+01
4.800000e-07	-5.069491e-06	-1.055968e-09	-3.520339e+01	-6.564275e+01
4.900000e-07	-5.049949e-06	-1.001815e-09	-3.506769e+01	-6.546837e+01
5.000000e-07	-5.030190e-06	-9.815504e-10	-3.493048e+01	-6.529252e+01
5.100000e-07	-5.010304e-06	-1.020678e-09	-3.479239e+01	-6.511527e+01
5.200000e-07	-4.990199e-06	-1.013212e-09	-3.465277e+01	-6.493667e+01
5.300000e-07	-4.969661e-06	-9.581101e-10	-3.451016e+01	-6.475675e+01
5.400000e-07	-4.948745e-06	-1.009870e-09	-3.436491e+01	-6.457553e+01
5.500000e-07	-4.927512e-06	-1.011626e-09	-3.421747e+01	-6.439302e+01
5.600000e-07	-4.905914e-06	-9.557536e-10	-3.406748e+01	-6.420921e+01
5.700000e-07	-4.884054e-06	-9.559455e-10	-3.391569e+01	-6.402406e+01
5.800000e-07	-4.861881e-06	-1.004906e-09	-3.376171e+01	-6.383756e+01
5.900000e-07	-4.839335e-06	-9.617947e-10	-3.360515e+01	-6.364964e+01
6.000000e-07	-4.816437e-06	-9.458190e-10	-3.344614e+01	-6.346025e+01
6.100000e-07	-4.793214e-06	-9.752566e-10	-3.328488e+01	-6.326932e+01
6.200000e-07	-4.769687e-06	-9.681119e-10	-3.312150e+01	-6.307677e+01
6.300000e-07	-4.745915e-06	-9.283707e-10	-3.295642e+01	-6.288252e+01
6.400000e-07	-4.721965e-06	-9.449836e-10	-3.279011e+01	-6.268648e+01
6.500000e-07	-4.697671e-06	-9.519221e-10	-3.262141e+01	-6.248856e+01
6.600000e-07	-4.672931e-06	-9.309585e-10	-3.244961e+01	-6.228867e+01
6.700000e-07	-4.647796e-06	-9.308439e-10	-3.227507e+01	-6.208672e+01
6.800000e-07	-4.622164e-06	-9.434288e-10	-3.209708e+01	-6.188262e+01
6.900000e-07	-4.595927e-06	-9.291271e-10	-3.191488e+01	-6.167627e+01
7.000000e-07	-4.569134e-06	-9.151078e-10	-3.172883e+01	-6.146762e+01
7.100000e-07	-4.541902e-06	-9.203931e-10	-3.153973e+01	-6.125657e+01
7.200000e-07	-4.514402e-06	-9.158427e-10	-3.134876e+01	-6.104306e+01
7.300000e-07	-4.486717e-06	-9.084777e-10	-3.115651e+01	-6.082705e+01
7.400000e-07	-4.458829e-06	-9.079474e-10	-3.096285e+01	-6.060849e+01
7.500000e-07	-4.430782e-06	-9.139394e-10	-3.076809e+01	-6.038735e+01
7.600000e-07	-4.402508e-06	-8.988199e-10	-3.057175e+01	-6.016362e+01
7.700000e-07	-4.373903e-06	-8.916042e-10	-3.037311e+01	-5.993728e+01
7.800000e-07	-4.344945e-06	-8.897778e-10	-3.017202e+01	-5.970834e+01
7.900000e-07	-4.315675e-06	-8.903376e-10	-2.996876e+01	-5.947684e+01
8.000000e-07	-4.286121e-06	-8.786042e-10	-2.976354e+01	-5.924281e+01
8.100000e-07	-4.256310e-06	-8.806633e-10	-2.955653e+01	-5.900630e+01
8.200000e-07	-4.226252e-06	-8.753687e-10	-2.934780e+01	-5.876737e+01
8.300000e-07	-4.195779e-06	-8.735983e-10	-2.913619e+01	-5.852610e+01
8.400000e-07	-4.164956e-06	-8.685457e-10	-2.892215e+01	-5.828258e+01
8.500000e-07	-4.133826e-06	-8.674500e-10	-2.870597e+01	-5.803690e+01
8.600000e-07	-4.102448e-06	-8.565723e-10	-2.848808e+01	-5.778917e+01
8.700000e-07	-4.070961e-06	-8.552288e-10	-2.826943e+01	-5.753951e+01
8.800000e-07	-4.039331e-06	-8.505304e-10	-2.804979e+01	-5.728803e+01
8.900000e-07	-4.007541e-06	-8.498578e-10	-2.782904e+01	-5.703484e+01
9.000000e-07	-3.975512e-06	-8.459404e-10	-2.760662e+01	-5.678008e+01
9.100000e-07	-3.943223e-06	-8.435099e-10	-2.738240e+01	-5.652386e+01
9.200000e-07	-3.910665e-06	-8.330932e-10	-2.715631e+01	-5.626630e+01
9.300000e-07	-3.877698e-06	-8.309510e-10	-2.692738e+01	-5.600752e+01
9.400000e-07	-3.844218e-06	-8.309860e-10	-2.669489e+01	-5.574760e+01
9.500000e-07	-3.810187e-06	-8.300681e-10	-2.645858e+01	-5.548666e+01
9.600000e-07	-3.775680e-06	-8.285520e-10	-2.621895e+01	-5.522476e+01
9.700000e-07	-3.740906e-06	-8.287805e-10	-2.597747e+01	-5.496198e+01
9.800000e-07	-3.705811e-06	-8.248007e-10	-2.573377e+01	-5.469837e+01
9.900000e-07	-3.670367e-06	-8.152034e-10	-2.548764e+01	-5.443395e+01
1.000000e-06	-3.634755e-06	-8.087947e-10	-2.524034e+01	-5.416874e+01
1.010000e-06	-3.599043e-06	-8.030064e-10	-2.499235e+01	-5.390272e+01
1.020000e-06	-3.563207e-06	-7.979158e-10	-2.474350e+01	-5.363587e+01
1.030000e-06	-3.527212e-06	-7.940876e-10	-2.449355e+01	-5.336812e+01
1.040000e-06	-3.491023e-06	-7.944261e-10	-2.424225e+01	-5.309939e+01
1.050000e-06	-3.454528e-06	-7.883097e-10	-2.398882e+01	-5.282957e+01
1.060000e-06	-3.417666e-06	-7.805144e-10	-2.373285e+01	-5.255853e+01
1.070000e-06	-3.380606e-06	-7.711221e-10	-2.347549e+01	-5.228610e+01
1.080000e-06	-3.343370e-06	-7.676126e-10	-2.321692e+01	-5.201210e+01
1.090000e-06	-3.305878e-06	-7.630940e-10	-2.295657e+01	-5.173631e+01
1.100000e-06	-3.268135e-06	-7.616683e-10	-2.269447e+01	-5.145850e+01
1.110000e-06	-3.230121e-06	-7.550334e-10	-2.243050e+01	-5.117840e+01
1.120000e-06	-3.191828e-06	-7.465468e-10	-2.216459e+01	-5.089572e+01
1.130000e-06	-3.153319e-06	-7.365352e-10	-2.189717e+01	-5.061018e+01
1.140000e-06	-3.114629e-06	-7.348656e-10	-2.162850e+01	-5.032143e+01
1.150000e-06	-3.075790e-06	-7.295953e-10	-2.135880e+01	-5.002915e+01
1.160000e-06	-3.036761e-06	-7.242220e-10	-2.108777e+01	-4.973297e+01
1.170000e-06	-2.997535e-06	-7.193637e-10	-2.081538e+01	-4.943253e+01
1.180000e-06	-2.958220e-06	-7.155131e-10	-2.054237e+01	-4.912746e+01
1.190000e-06	-2.918770e-06	-7.055947e-10	-2.026843e+01	-4.881737e+01
1.200000e-06	-2.879081e-06	-6.982460e-10	-1.999282e+01	-4.850188e+01
1.210000e-06	-2.839231e-06	-6.924427e-10	-1.971609e+01	-4.818059e+01
1.220000e-06	-2.799292e-06	-6.864010e-10	-1.943875e+01	-4.785313e+01
1.230000e-06	-2.759201e-06	-6.817124e-10	-1.916035e+01	-4.751912e+01
1.240000e-06	-2.718923e-06	-6.799593e-10	-1.888066e+01	-4.717817e+01
1.250000e-06	-2.678437e-06	-6.746072e-10	-1.859952e+01	-4.682994e+01
1.260000e-06	-2.637752e-06	-6.661893e-10	-1.831699e+01	-4.647407e+01
1.270000e-06	-2.596848e-06	-6.592822e-10	-1.803294e+01	-4.611023e+01
1.280000e-06	-2.555632e-06	-6.516909e-10	-1.774673e+01	-4.573810e+01
1.290000e-06	-2.514060e-06	-6.420787e-10	-1.745805e+01	-4.535740e+01
1.300000e-06	-2.472329e-06	-6.332662e-10	-1.716826e+01	-4.496784e+01
1.310000e-06	-2.430256e-06	-6.265334e-10	-1.687610e+01	-4.456918e+01
1.320000e-06	-2.387803e-06	-6.201711e-10	-1.658130e+01	-4.416121e+01
1.330000e-06	-2.345223e-06	-6.151507e-10	-1.628562e+01	-4.374371e+01
1.340000e-06	-2.302338e-06	-6.123398e-10	-1.598782e+01	-4.331652e+01
1.350000e-06	-2.259083e-06	-6.062700e-10	-1.568745e+01	-4.287950e+01
1.360000e-06	-2.215654e-06	-5.960317e-10	-1.538587e+01	-4.243253e+01
1.370000e-06	-2.172138e-06	-5.884788e-10	-1.508369e+01	-4.197552e+01
1.380000e-06	-2.128500e-06	-5.797963e-10	-1.478066e+01	-4.150842e+01
1.390000e-06	-2.084774e-06	-5.725617e-10	-1.447702e+01	-4.103118e+01
1.400000e-06	-2.040959e-06	-5.659360e-10	-1.417276e+01	-4.054380e+01
1.410000e-06	-1.997049e-06	-5.632496e-10	-1.386784e+01	-4.004629e+01
1.420000e-06	-1.953042e-06	-5.575671e-10	-1.356225e+01	-3.953867e+01
1.430000e-06	-1.908986e-06	-5.504794e-10	-1.325631e+01	-3.902101e+01
1.440000e-06	-1.864853e-06	-5.427628e-10	-1.294985e+01	-3.849337e+01
1.450000e-06	-1.820545e-06	-5.353775e-10	-1.264217e+01	-3.795583e+01
1.460000e-06	-1.776111e-06	-5.244622e-10	-1.233361e+01	-3.740849e+01
1.470000e-06	-1.731553e-06	-5.147511e-10	-1.202420e+01	-3.685145e+01
1.480000e-06	-1.686932e-06	-5.060017e-10	-1.171434e+01	-3.628482e+01
1.490000e-06	-1.642160e-06	-4.995667e-10	-1.140343e+01	-3.570870e+01
1.500000e-06	-1.597222e-06	-4.929557e-10	-1.109137e+01	-3.512321e+01
1.510000e-06	-1.552167e-06	-4.858924e-10	-1.077851e+01	-3.452846e+01
1.520000e-06	-1.507046e-06	-4.769840e-10	-1.046518e+01	-3.392453e+01
1.530000e-06	-1.461966e-06	-4.668522e-10	-1.015213e+01	-3.331153e+01
1.540000e-06	-1.416697e-06	-4.551348e-10	-9.837780e+00	-3.268953e+01
1.550000e-06	-1.371189e-06	-4.432084e-10	-9.521767e+00	-3.205859e+01
1.560000e-06	-1.325598e-06	-4.331999e-10	-9.205171e+00	-3.141876e+01
1.570000e-06	-1.279898e-06	-4.240246e-10	-8.887828e+00	-3.077005e+01
1.580000e-06	-1.234082e-06	-4.156489e-10	-8.569671e+00	-3.011248e+01
1.590000e-06	-1.188258e-06	-4.068519e-10	-8.251462e+00	-2.944602e+01
1.600000e-06	-1.142424e-06	-3.940300e-10	-7.933183e+00	-2.877062e+01
1.610000e-06	-1.096553e-06	-3.809067e-10	-7.614650e+00	-2.808621e+01
1.620000e-06	-1.050596e-06	-3.671518e-10	-7.295512e+00	-2.739270e+01
1.630000e-06	-1.004449e-06	-3.589262e-10	-6.975062e+00	-2.668997e+01
1.640000e-06	-9.581834e-07	-3.532138e-10	-6.653785e+00	-2.597785e+01
1.650000e-06	-9.118931e-07	-3.432928e-10	-6.332338e+00	-2.525619e+01
1.660000e-06	-8.655513e-07	-3.292737e-10	-6.010533e+00	-2.452477e+01
1.670000e-06	-8.192010e-07	-3.111131e-10	-5.688668e+00	-2.378338e+01
1.680000e-06	-7.728832e-07	-2.947946e-10	-5.367030e+00	-2.303177e+01
1.690000e-06	-7.264861e-07	-2.791366e-10	-5.044841e+00	-2.226969e+01
1.700000e-06	-6.799801e-07	-2.722463e-10	-4.721895e+00	-2.149687e+01
1.710000e-06	-6.335010e-07	-2.660265e-10	-4.399137e+00	-2.071300e+01
1.720000e-06	-5.869417e-07	-2.576573e-10	-4.075821e+00	-1.991780e+01
1.730000e-06	-5.402731e-07	-2.449260e-10	-3.751746e+00	-1.911096e+01
1.740000e-06	-4.936004e-07	-2.308441e-10	-3.427644e+00	-1.829218e+01
1.750000e-06	-4.468917e-07	-2.149632e-10	-3.103291e+00	-1.746116e+01
1.760000e-06	-4.001256e-07	-1.996494e-10	-2.778539e+00	-1.661762e+01
1.770000e-06	-3.532325e-07	-1.870708e-10	-2.452905e+00	-1.576126e+01
1.780000e-06	-3.062552e-07	-1.765759e-10	-2.126687e+00	-1.489183e+01
1.790000e-06	-2.593088e-07	-1.708977e-10	-1.800684e+00	-1.400908e+01
1.800000e-06	-2.124604e-07	-1.595288e-10	-1.475360e+00	-1.311281e+01
1.810000e-06	-1.656559e-07	-1.384161e-10	-1.150342e+00	-1.220282e+01
1.820000e-06	-1.188270e-07	-1.218022e-10	-8.251547e-01	-1.127897e+01
1.830000e-06	-7.201557e-08	-1.088221e-10	-5.000881e-01	-1.034115e+01
1.840000e-06	-2.527332e-08	-9.706026e-11	-1.755022e-01	-9.389298e+00
1.850000e-06	2.145226e-08	-8.409488e-11	1.489681e-01	-8.423397e+00
1.860000e-06	6.825442e-08	-7.319409e-11	4.739701e-01	-7.443485e+00
1.870000e-06	1.151019e-07	-6.059478e-11	7.992865e-01	-6.449652e+00
1.880000e-06	1.619679e-07	-4.544918e-11	1.124732e+00	-5.442048e+00
1.890000e-06	2.089155e-07	-3.035615e-11	1.450744e+00	-4.420884e+00
1.900000e-06	2.557527e-07	-1.473496e-11	1.775989e+00	-3.386433e+00
1.910000e-06	3.024527e-07	1.569384e-12	2.100282e+00	-2.339033e+00
1.920000e-06	3.490925e-07	1.724367e-11	2.424157e+00	-1.279085e+00
1.930000e-06	3.958200e-07	3.197907e-11	2.748640e+00	-2.070581e-01
1.940000e-06	4.425468e-07	4.558511e-11	3.073119e+00	8.765133e-01
1.950000e-06	4.891139e-07	5.563096e-11	3.396488e+00	1.971030e+00
1.960000e-06	5.357622e-07	6.687870e-11	3.720422e+00	3.075829e+00
1.970000e-06	5.823619e-07	7.876327e-11	4.044018e+00	4.190185e+00
1.980000e-06	6.289030e-07	9.273717e-11	4.367207e+00	5.313313e+00
1.990000e-06	6.753857e-07	1.109788e-10	4.689991e+00	6.444369e+00
2.000000e-06	7.217440e-07	1.323024e-10	5.011911e+00	7.582457e+00
2.010000e-06	7.681530e-07	1.523685e-10	5.334183e+00	8.726632e+00
2.020000e-06	8.146453e-07	1.670421e-10	5.657033e+00	9.875900e+00
2.030000e-06	8.610084e-07	1.770893e-10	5.978986e+00	1.102923e+01
2.040000e-06	9.071977e-07	1.895163e-10	6.299732e+00	1.218555e+01
2.050000e-06	9.533685e-07	2.007665e-10	6.620350e+00	1.334376e+01
2.060000e-06	9.994473e-07	2.170366e-10	6.940329e+00	1.450274e+01
2.070000e-06	1.045463e-06	2.362067e-10	7.259870e+00	1.566135e+01
2.080000e-06	1.091455e-06	2.587575e-10	7.579245e+00	1.681843e+01
2.090000e-06	1.137297e-06	2.790039e-10	7.897578e+00	1.797282e+01
2.100000e-06	1.183011e-06	2.961441e-10	8.215028e+00	1.912335e+01
2.110000e-06	1.228727e-06	3.098483e-10	8.532488e+00	2.026888e+01
2.120000e-06	1.274427e-06	3.210523e-10	8.849836e+00	2.140827e+01
2.130000e-06	1.319968e-06	3.331019e-10	9.166077e+00	2.254039e+01
2.140000e-06	1.365388e-06	3.479035e-10	9.481480e+00	2.366415e+01
2.150000e-06	1.410755e-06	3.656055e-10	9.796519e+00	2.477849e+01
2.160000e-06	1.456002e-06	3.835895e-10	1.011072e+01	2.588238e+01
2.170000e-06	1.501184e-06	4.008391e-10	1.042447e+01	2.697484e+01
2.180000e-06	1.546349e-06	4.160768e-10	1.073811e+01	2.805494e+01
2.190000e-06	1.591448e-06	4.284114e-10	1.105128e+01	2.912180e+01
2.200000e-06	1.636272e-06	4.422834e-10	1.136254e+01	3.017459e+01
2.210000e-06	1.680809e-06	4.577354e-10	1.167182e+01	3.121256e+01
2.220000e-06	1.725282e-06	4.744952e-10	1.198064e+01	3.223501e+01
2.230000e-06	1.769725e-06	4.913131e-10	1.228926e+01	3.324130e+01
2.240000e-06	1.814054e-06	5.041164e-10	1.259709e+01	3.423088e+01
2.250000e-06	1.858214e-06	5.151323e-10	1.290375e+01	3.520326e+01
2.260000e-06	1.902276e-06	5.245306e-10	1.320972e+01	3.615802e+01
2.270000e-06	1.946245e-06	5.358489e-10	1.351505e+01	3.709482e+01
2.280000e-06	1.990126e-06	5.483010e-10	1.381977e+01	3.801339e+01
2.290000e-06	2.033949e-06	5.628507e-10	1.412408e+01	3.891352e+01
2.300000e-06	2.077707e-06	5.758976e-10	1.442794e+01	3.979510e+01
2.310000e-06	2.121412e-06	5.885891e-10	1.473144e+01	4.065805e+01
2.320000e-06	2.165038e-06	5.987389e-10	1.503439e+01	4.150240e+01
2.330000e-06	2.208467e-06	6.063943e-10	1.533596e+01	4.232819e+01
2.340000e-06	2.251756e-06	6.132306e-10	1.563657e+01	4.313558e+01
2.350000e-06	2.294967e-06	6.226954e-10	1.593663e+01	4.392474e+01
2.360000e-06	2.337846e-06	6.339865e-10	1.623439e+01	4.469591e+01
2.370000e-06	2.380404e-06	6.460430e-10	1.652992e+01	4.544939e+01
2.380000e-06	2.422838e-06	6.579833e-10	1.682459e+01	4.618550e+01
2.390000e-06	2.465033e-06	6.705970e-10	1.711760e+01	4.690462e+01
2.400000e-06	2.506878e-06	6.811731e-10	1.740818e+01	4.760715e+01
2.410000e-06	2.548302e-06	6.910071e-10	1.769584e+01	4.829352e+01
2.420000e-06	2.589488e-06	7.036856e-10	1.798184e+01	4.896419e+01
2.430000e-06	2.630464e-06	7.181151e-10	1.826638e+01	4.961962e+01
2.440000e-06	2.671171e-06	7.291395e-10	1.854905e+01	5.026030e+01
2.450000e-06	2.711702e-06	7.373807e-10	1.883051e+01	5.088673e+01
2.460000e-06	2.752026e-06	7.483362e-10	1.911053e+01	5.149940e+01
2.470000e-06	2.792128e-06	7.578619e-10	1.938900e+01	5.209878e+01
2.480000e-06	2.832015e-06	7.648478e-10	1.966598e+01	5.268538e+01
2.490000e-06	2.871794e-06	7.709677e-10	1.994222e+01	5.325965e+01
2.500000e-06	2.911464e-06	7.798540e-10	2.021769e+01	5.382204e+01
2.510000e-06	2.951019e-06	7.887473e-10	2.049237e+01	5.437299e+01
2.520000e-06	2.990502e-06	7.971083e-10	2.076655e+01	5.491290e+01
2.530000e-06	3.029705e-06	8.081133e-10	2.103878e+01	5.544216e+01
2.540000e-06	3.068600e-06	8.160517e-10	2.130887e+01	5.596111e+01
2.550000e-06	3.107382e-06	8.183440e-10	2.157818e+01	5.647008e+01
2.560000e-06	3.145875e-06	8.212012e-10	2.184548e+01	5.696934e+01
2.570000e-06	3.184135e-06	8.272018e-10	2.211116e+01	5.745916e+01
2.580000e-06	3.222281e-06	8.338313e-10	2.237606e+01	5.793974e+01
2.590000e-06	3.260187e-06	8.395595e-10	2.263928e+01	5.841127e+01
2.600000e-06	3.297818e-06	8.464655e-10	2.290060e+01	5.887389e+01
2.610000e-06	3.335219e-06	8.534034e-10	2.316032e+01	5.932771e+01
2.620000e-06	3.372418e-06	8.614996e-10	2.341863e+01	5.977281e+01
2.630000e-06	3.409386e-06	8.677848e-10	2.367535e+01	6.020923e+01
2.640000e-06	3.446119e-06	8.697191e-10	2.393043e+01	6.063698e+01
2.650000e-06	3.482615e-06	8.705652e-10	2.418386e+01	6.105605e+01
2.660000e-06	3.518880e-06	8.740408e-10	2.443569e+01	6.146639e+01
2.670000e-06	3.554970e-06	8.801455e-10	2.468630e+01	6.186795e+01
2.680000e-06	3.590922e-06	8.862968e-10	2.493596e+01	6.226063e+01
2.690000e-06	3.626730e-06	8.936578e-10	2.518462e+01	6.264434e+01
2.700000e-06	3.662426e-06	9.011878e-10	2.543250e+01	6.301897e+01
2.710000e-06	3.697907e-06	9.063727e-10	2.567889e+01	6.338437e+01
2.720000e-06	3.733142e-06	9.122579e-10	2.592356e+01	6.374043e+01
2.730000e-06	3.768104e-06	9.199976e-10	2.616634e+01	6.408701e+01
2.740000e-06	3.802536e-06	9.243603e-10	2.640545e+01	6.442397e+01
2.750000e-06	3.836559e-06	9.259188e-10	2.664170e+01	6.475118e+01
2.760000e-06	3.870277e-06	9.270312e-10	2.687585e+01	6.506852e+01
2.770000e-06	3.903420e-06	9.299706e-10	2.710600e+01	6.537588e+01
2.780000e-06	3.936084e-06	9.340819e-10	2.733282e+01	6.567316e+01
2.790000e-06	3.968460e-06	9.375400e-10	2.755765e+01	6.596026e+01
2.800000e-06	4.000546e-06	9.425911e-10	2.778046e+01	6.623714e+01
2.810000e-06	4.032412e-06	9.501283e-10	2.800174e+01	6.650374e+01
2.820000e-06	4.064151e-06	9.565686e-10	2.822214e+01	6.676005e+01
2.830000e-06	4.095745e-06	9.602895e-10	2.844154e+01	6.700607e+01
2.840000e-06	4.127096e-06	9.619139e-10	2.865924e+01	6.724183e+01
2.850000e-06	4.158206e-06	9.601966e-10	2.887528e+01	6.746739e+01
2.860000e-06	4.188986e-06	9.596552e-10	2.908902e+01	6.768284e+01
2.870000e-06	4.219393e-06	9.602112e-10	2.930017e+01	6.788829e+01
2.880000e-06	4.249546e-06	9.620227e-10	2.950956e+01	6.808389e+01
2.890000e-06	4.279507e-06	9.670931e-10	2.971761e+01	6.826981e+01
2.900000e-06	4.309205e-06	9.726935e-10	2.992384e+01	6.844624e+01
