# Temperatura_=_-0.3
# Concentracion g/m^3_=_1620.0
# C_Vs_to_Am_M_A/Vsm_=_65563218390.804596
# pendiente_HvsI_1/m_=_3716.3
# ordenada_HvsI_A/m_=_1297.0
# frecuencia_Hz_=_135094.9146521053

Tiempo_(s)	Campo_(V.s)	Magnetizacion_(V.s)	Campo_(kA/m)	Magnetizacion_(A/m)
0.000000e+00	-5.510276e-06	-1.467120e-09	-3.836786e+01	-9.416759e+01
1.000000e-08	-5.510365e-06	-1.467931e-09	-3.836848e+01	-9.419361e+01
2.000000e-08	-5.510251e-06	-1.469275e-09	-3.836769e+01	-9.421795e+01
3.000000e-08	-5.509783e-06	-1.468666e-09	-3.836442e+01	-9.424042e+01
4.000000e-08	-5.508858e-06	-1.464464e-09	-3.835799e+01	-9.426084e+01
5.000000e-08	-5.507327e-06	-1.456810e-09	-3.834733e+01	-9.427900e+01
6.000000e-08	-5.505041e-06	-1.435815e-09	-3.833141e+01	-9.429471e+01
7.000000e-08	-5.502107e-06	-1.422680e-09	-3.831098e+01	-9.430775e+01
8.000000e-08	-5.498655e-06	-1.487625e-09	-3.828694e+01	-9.431793e+01
9.000000e-08	-5.494773e-06	-1.569291e-09	-3.825992e+01	-9.432502e+01
1.000000e-07	-5.490511e-06	-1.511595e-09	-3.823024e+01	-9.432882e+01
1.100000e-07	-5.486020e-06	-1.415578e-09	-3.819897e+01	-9.432914e+01
1.200000e-07	-5.481413e-06	-1.383697e-09	-3.816689e+01	-9.432576e+01
1.300000e-07	-5.476516e-06	-1.475446e-09	-3.813279e+01	-9.431850e+01
1.400000e-07	-5.471192e-06	-1.472655e-09	-3.809572e+01	-9.430718e+01
1.500000e-07	-5.465497e-06	-1.388138e-09	-3.805607e+01	-9.429162e+01
1.600000e-07	-5.459507e-06	-1.420610e-09	-3.801436e+01	-9.427167e+01
1.700000e-07	-5.453026e-06	-1.493084e-09	-3.796923e+01	-9.424716e+01
1.800000e-07	-5.446030e-06	-1.533500e-09	-3.792052e+01	-9.421798e+01
1.900000e-07	-5.438722e-06	-1.417517e-09	-3.786963e+01	-9.418400e+01
2.000000e-07	-5.431134e-06	-1.413386e-09	-3.781680e+01	-9.414510e+01
2.100000e-07	-5.423346e-06	-1.455942e-09	-3.776257e+01	-9.410120e+01
2.200000e-07	-5.415373e-06	-1.519571e-09	-3.770706e+01	-9.405221e+01
2.300000e-07	-5.407016e-06	-1.468328e-09	-3.764887e+01	-9.399808e+01
2.400000e-07	-5.398196e-06	-1.465212e-09	-3.758745e+01	-9.393875e+01
2.500000e-07	-5.388682e-06	-1.475061e-09	-3.752120e+01	-9.387419e+01
2.600000e-07	-5.378397e-06	-1.480711e-09	-3.744959e+01	-9.380437e+01
2.700000e-07	-5.367523e-06	-1.435896e-09	-3.737388e+01	-9.372930e+01
2.800000e-07	-5.356136e-06	-1.434330e-09	-3.729458e+01	-9.364896e+01
2.900000e-07	-5.344397e-06	-1.462317e-09	-3.721285e+01	-9.356338e+01
3.000000e-07	-5.332405e-06	-1.450069e-09	-3.712935e+01	-9.347257e+01
3.100000e-07	-5.320019e-06	-1.417902e-09	-3.704310e+01	-9.337658e+01
3.200000e-07	-5.307111e-06	-1.399464e-09	-3.695323e+01	-9.327543e+01
3.300000e-07	-5.293845e-06	-1.436251e-09	-3.686086e+01	-9.316918e+01
3.400000e-07	-5.280221e-06	-1.407419e-09	-3.676599e+01	-9.305788e+01
3.500000e-07	-5.266133e-06	-1.395523e-09	-3.666790e+01	-9.294157e+01
3.600000e-07	-5.251598e-06	-1.413239e-09	-3.656670e+01	-9.282033e+01
3.700000e-07	-5.236750e-06	-1.449248e-09	-3.646331e+01	-9.269421e+01
3.800000e-07	-5.221341e-06	-1.389900e-09	-3.635602e+01	-9.256326e+01
3.900000e-07	-5.205332e-06	-1.388864e-09	-3.624454e+01	-9.242756e+01
4.000000e-07	-5.188909e-06	-1.417485e-09	-3.613019e+01	-9.228714e+01
4.100000e-07	-5.172053e-06	-1.404449e-09	-3.601282e+01	-9.214208e+01
4.200000e-07	-5.154871e-06	-1.345123e-09	-3.589318e+01	-9.199241e+01
4.300000e-07	-5.137433e-06	-1.398200e-09	-3.577177e+01	-9.183818e+01
4.400000e-07	-5.119719e-06	-1.416275e-09	-3.564843e+01	-9.167945e+01
4.500000e-07	-5.101619e-06	-1.369654e-09	-3.552239e+01	-9.151624e+01
4.600000e-07	-5.082992e-06	-1.351882e-09	-3.539270e+01	-9.134858e+01
4.700000e-07	-5.063910e-06	-1.399342e-09	-3.525983e+01	-9.117651e+01
4.800000e-07	-5.044549e-06	-1.366259e-09	-3.512502e+01	-9.100005e+01
4.900000e-07	-5.025004e-06	-1.354530e-09	-3.498893e+01	-9.081922e+01
5.000000e-07	-5.005261e-06	-1.382938e-09	-3.485146e+01	-9.063402e+01
5.100000e-07	-4.985265e-06	-1.369433e-09	-3.471222e+01	-9.044447e+01
5.200000e-07	-4.964958e-06	-1.327991e-09	-3.457083e+01	-9.025058e+01
5.300000e-07	-4.944324e-06	-1.367033e-09	-3.442715e+01	-9.005234e+01
5.400000e-07	-4.923370e-06	-1.379416e-09	-3.428125e+01	-8.984977e+01
5.500000e-07	-4.902071e-06	-1.333845e-09	-3.413295e+01	-8.964285e+01
5.600000e-07	-4.880352e-06	-1.332587e-09	-3.398172e+01	-8.943161e+01
5.700000e-07	-4.858306e-06	-1.360311e-09	-3.382822e+01	-8.921603e+01
5.800000e-07	-4.836001e-06	-1.339770e-09	-3.367290e+01	-8.899612e+01
5.900000e-07	-4.813308e-06	-1.324184e-09	-3.351490e+01	-8.877189e+01
6.000000e-07	-4.790224e-06	-1.342435e-09	-3.335416e+01	-8.854336e+01
6.100000e-07	-4.766823e-06	-1.327329e-09	-3.319122e+01	-8.831054e+01
6.200000e-07	-4.743187e-06	-1.309882e-09	-3.302665e+01	-8.807345e+01
6.300000e-07	-4.719402e-06	-1.311863e-09	-3.286103e+01	-8.783212e+01
6.400000e-07	-4.695391e-06	-1.315378e-09	-3.269385e+01	-8.758660e+01
6.500000e-07	-4.670969e-06	-1.301285e-09	-3.252380e+01	-8.733693e+01
6.600000e-07	-4.646135e-06	-1.308075e-09	-3.235088e+01	-8.708317e+01
6.700000e-07	-4.620852e-06	-1.304670e-09	-3.217483e+01	-8.682537e+01
6.800000e-07	-4.594926e-06	-1.300755e-09	-3.199431e+01	-8.656361e+01
6.900000e-07	-4.568362e-06	-1.289011e-09	-3.180935e+01	-8.629798e+01
7.000000e-07	-4.541349e-06	-1.288884e-09	-3.162125e+01	-8.602857e+01
7.100000e-07	-4.514028e-06	-1.277319e-09	-3.143102e+01	-8.575547e+01
7.200000e-07	-4.486541e-06	-1.277706e-09	-3.123963e+01	-8.547879e+01
7.300000e-07	-4.458906e-06	-1.269490e-09	-3.104721e+01	-8.519866e+01
7.400000e-07	-4.431066e-06	-1.271722e-09	-3.085336e+01	-8.491519e+01
7.500000e-07	-4.402963e-06	-1.267473e-09	-3.065768e+01	-8.462852e+01
7.600000e-07	-4.374610e-06	-1.267403e-09	-3.046026e+01	-8.433878e+01
7.700000e-07	-4.345945e-06	-1.261837e-09	-3.026067e+01	-8.404610e+01
7.800000e-07	-4.316862e-06	-1.264187e-09	-3.005816e+01	-8.375062e+01
7.900000e-07	-4.287441e-06	-1.257560e-09	-2.985330e+01	-8.345249e+01
8.000000e-07	-4.257750e-06	-1.252650e-09	-2.964656e+01	-8.315184e+01
8.100000e-07	-4.227809e-06	-1.244251e-09	-2.943809e+01	-8.284880e+01
8.200000e-07	-4.197624e-06	-1.238784e-09	-2.922791e+01	-8.254352e+01
8.300000e-07	-4.167049e-06	-1.232764e-09	-2.901502e+01	-8.223610e+01
8.400000e-07	-4.136072e-06	-1.230757e-09	-2.879932e+01	-8.192666e+01
8.500000e-07	-4.104899e-06	-1.228326e-09	-2.858227e+01	-8.161531e+01
8.600000e-07	-4.073562e-06	-1.224134e-09	-2.836407e+01	-8.130214e+01
8.700000e-07	-4.042031e-06	-1.215283e-09	-2.814452e+01	-8.098722e+01
8.800000e-07	-4.010370e-06	-1.207053e-09	-2.792406e+01	-8.067062e+01
8.900000e-07	-3.978570e-06	-1.204296e-09	-2.770264e+01	-8.035238e+01
9.000000e-07	-3.946468e-06	-1.193410e-09	-2.747912e+01	-8.003252e+01
9.100000e-07	-3.914032e-06	-1.184332e-09	-2.725327e+01	-7.971105e+01
9.200000e-07	-3.881300e-06	-1.174347e-09	-2.702535e+01	-7.938795e+01
9.300000e-07	-3.848086e-06	-1.169825e-09	-2.679409e+01	-7.906318e+01
9.400000e-07	-3.814388e-06	-1.162277e-09	-2.655945e+01	-7.873668e+01
9.500000e-07	-3.780276e-06	-1.163420e-09	-2.632193e+01	-7.840836e+01
9.600000e-07	-3.745758e-06	-1.160771e-09	-2.608158e+01	-7.807810e+01
9.700000e-07	-3.710829e-06	-1.158153e-09	-2.583837e+01	-7.774578e+01
9.800000e-07	-3.675571e-06	-1.149502e-09	-2.559287e+01	-7.741123e+01
9.900000e-07	-3.640131e-06	-1.143709e-09	-2.534611e+01	-7.707427e+01
1.000000e-06	-3.604533e-06	-1.131529e-09	-2.509823e+01	-7.673469e+01
1.010000e-06	-3.568808e-06	-1.123301e-09	-2.484949e+01	-7.639227e+01
1.020000e-06	-3.532976e-06	-1.115412e-09	-2.459999e+01	-7.604677e+01
1.030000e-06	-3.496923e-06	-1.111239e-09	-2.434895e+01	-7.569790e+01
1.040000e-06	-3.460563e-06	-1.106200e-09	-2.409578e+01	-7.534540e+01
1.050000e-06	-3.424012e-06	-1.104794e-09	-2.384127e+01	-7.498895e+01
1.060000e-06	-3.387201e-06	-1.098695e-09	-2.358496e+01	-7.462824e+01
1.070000e-06	-3.350049e-06	-1.090703e-09	-2.332627e+01	-7.426296e+01
1.080000e-06	-3.312667e-06	-1.079248e-09	-2.306598e+01	-7.389276e+01
1.090000e-06	-3.275095e-06	-1.072398e-09	-2.280437e+01	-7.351730e+01
1.100000e-06	-3.237272e-06	-1.064812e-09	-2.254101e+01	-7.313625e+01
1.110000e-06	-3.199128e-06	-1.057152e-09	-2.227542e+01	-7.274924e+01
1.120000e-06	-3.160741e-06	-1.050564e-09	-2.200813e+01	-7.235595e+01
1.130000e-06	-3.122261e-06	-1.045078e-09	-2.174019e+01	-7.195603e+01
1.140000e-06	-3.083583e-06	-1.038652e-09	-2.147088e+01	-7.154915e+01
1.150000e-06	-3.044595e-06	-1.030939e-09	-2.119941e+01	-7.113498e+01
1.160000e-06	-3.005393e-06	-1.024549e-09	-2.092645e+01	-7.071320e+01
1.170000e-06	-2.966122e-06	-1.017382e-09	-2.065300e+01	-7.028353e+01
1.180000e-06	-2.926747e-06	-1.009810e-09	-2.037884e+01	-6.984568e+01
1.190000e-06	-2.887229e-06	-1.001259e-09	-2.010367e+01	-6.939937e+01
1.200000e-06	-2.847588e-06	-9.966025e-10	-1.982766e+01	-6.894438e+01
1.210000e-06	-2.807823e-06	-9.888071e-10	-1.955078e+01	-6.848046e+01
1.220000e-06	-2.767930e-06	-9.812565e-10	-1.927300e+01	-6.800743e+01
1.230000e-06	-2.727887e-06	-9.709615e-10	-1.899419e+01	-6.752510e+01
1.240000e-06	-2.687596e-06	-9.613178e-10	-1.871364e+01	-6.703332e+01
1.250000e-06	-2.647096e-06	-9.511283e-10	-1.843164e+01	-6.653195e+01
1.260000e-06	-2.606423e-06	-9.464293e-10	-1.814843e+01	-6.602089e+01
1.270000e-06	-2.565490e-06	-9.425798e-10	-1.786342e+01	-6.550006e+01
1.280000e-06	-2.524248e-06	-9.372669e-10	-1.757625e+01	-6.496940e+01
1.290000e-06	-2.482658e-06	-9.279397e-10	-1.728666e+01	-6.442886e+01
1.300000e-06	-2.440852e-06	-9.180403e-10	-1.699556e+01	-6.387843e+01
1.310000e-06	-2.398840e-06	-9.058069e-10	-1.670304e+01	-6.331810e+01
1.320000e-06	-2.356536e-06	-8.948216e-10	-1.640848e+01	-6.274791e+01
1.330000e-06	-2.313844e-06	-8.881540e-10	-1.611121e+01	-6.216787e+01
1.340000e-06	-2.270796e-06	-8.832079e-10	-1.581147e+01	-6.157803e+01
1.350000e-06	-2.227542e-06	-8.740894e-10	-1.551030e+01	-6.097845e+01
1.360000e-06	-2.184151e-06	-8.649526e-10	-1.520817e+01	-6.036918e+01
1.370000e-06	-2.140597e-06	-8.557354e-10	-1.490490e+01	-5.975028e+01
1.380000e-06	-2.096938e-06	-8.479071e-10	-1.460091e+01	-5.912183e+01
1.390000e-06	-2.053244e-06	-8.369339e-10	-1.429667e+01	-5.848386e+01
1.400000e-06	-2.009495e-06	-8.261987e-10	-1.399204e+01	-5.783645e+01
1.410000e-06	-1.965678e-06	-8.146619e-10	-1.368695e+01	-5.717963e+01
1.420000e-06	-1.921698e-06	-8.045346e-10	-1.338072e+01	-5.651343e+01
1.430000e-06	-1.877609e-06	-7.975849e-10	-1.307373e+01	-5.583786e+01
1.440000e-06	-1.833494e-06	-7.901376e-10	-1.276655e+01	-5.515291e+01
1.450000e-06	-1.789269e-06	-7.791453e-10	-1.245862e+01	-5.445856e+01
1.460000e-06	-1.744933e-06	-7.639378e-10	-1.214991e+01	-5.375475e+01
1.470000e-06	-1.700493e-06	-7.507897e-10	-1.184047e+01	-5.304140e+01
1.480000e-06	-1.655945e-06	-7.376513e-10	-1.153029e+01	-5.231839e+01
1.490000e-06	-1.611232e-06	-7.247957e-10	-1.121895e+01	-5.158558e+01
1.500000e-06	-1.566318e-06	-7.129399e-10	-1.090622e+01	-5.084279e+01
1.510000e-06	-1.521285e-06	-7.001456e-10	-1.059265e+01	-5.008981e+01
1.520000e-06	-1.476190e-06	-6.856147e-10	-1.027866e+01	-4.932639e+01
1.530000e-06	-1.431008e-06	-6.711875e-10	-9.964059e+00	-4.855226e+01
1.540000e-06	-1.385673e-06	-6.560899e-10	-9.648395e+00	-4.776708e+01
1.550000e-06	-1.340255e-06	-6.421973e-10	-9.332152e+00	-4.697052e+01
1.560000e-06	-1.294789e-06	-6.269426e-10	-9.015572e+00	-4.616219e+01
1.570000e-06	-1.249302e-06	-6.132464e-10	-8.698850e+00	-4.534167e+01
1.580000e-06	-1.203774e-06	-6.010072e-10	-8.381834e+00	-4.450851e+01
1.590000e-06	-1.158112e-06	-5.858948e-10	-8.063891e+00	-4.366226e+01
1.600000e-06	-1.112402e-06	-5.689465e-10	-7.745616e+00	-4.280240e+01
1.610000e-06	-1.066653e-06	-5.518655e-10	-7.427065e+00	-4.192844e+01
1.620000e-06	-1.020817e-06	-5.340488e-10	-7.107912e+00	-4.103983e+01
1.630000e-06	-9.749537e-07	-5.211244e-10	-6.788568e+00	-4.013603e+01
1.640000e-06	-9.289955e-07	-5.088781e-10	-6.468563e+00	-3.921650e+01
1.650000e-06	-8.828918e-07	-4.957162e-10	-6.147545e+00	-3.828068e+01
1.660000e-06	-8.367337e-07	-4.785253e-10	-5.826148e+00	-3.732803e+01
1.670000e-06	-7.905244e-07	-4.616015e-10	-5.504394e+00	-3.635801e+01
1.680000e-06	-7.442582e-07	-4.428690e-10	-5.182244e+00	-3.537009e+01
1.690000e-06	-6.979376e-07	-4.255276e-10	-4.859715e+00	-3.436377e+01
1.700000e-06	-6.515265e-07	-4.109764e-10	-4.536557e+00	-3.333856e+01
1.710000e-06	-6.050199e-07	-3.961947e-10	-4.212733e+00	-3.229403e+01
1.720000e-06	-5.584900e-07	-3.780721e-10	-3.888747e+00	-3.122977e+01
1.730000e-06	-5.118849e-07	-3.595359e-10	-3.564236e+00	-3.014540e+01
1.740000e-06	-4.652368e-07	-3.410738e-10	-3.239428e+00	-2.904062e+01
1.750000e-06	-4.185885e-07	-3.228010e-10	-2.914617e+00	-2.791515e+01
1.760000e-06	-3.718927e-07	-3.056148e-10	-2.589476e+00	-2.676881e+01
1.770000e-06	-3.252145e-07	-2.892465e-10	-2.264457e+00	-2.560145e+01
1.780000e-06	-2.785178e-07	-2.755462e-10	-1.939309e+00	-2.441301e+01
1.790000e-06	-2.318224e-07	-2.593224e-10	-1.614171e+00	-2.320349e+01
1.800000e-06	-1.850865e-07	-2.413509e-10	-1.288751e+00	-2.197297e+01
1.810000e-06	-1.383167e-07	-2.204039e-10	-9.630944e-01	-2.072160e+01
1.820000e-06	-9.155760e-08	-2.001008e-10	-6.375124e-01	-1.944965e+01
1.830000e-06	-4.477789e-08	-1.814929e-10	-3.117869e-01	-1.815742e+01
1.840000e-06	2.030174e-09	-1.632603e-10	1.413603e-02	-1.684533e+01
1.850000e-06	4.879365e-08	-1.465371e-10	3.397484e-01	-1.551388e+01
1.860000e-06	9.542018e-08	-1.311331e-10	6.644074e-01	-1.416365e+01
1.870000e-06	1.419997e-07	-1.148920e-10	9.887390e-01	-1.279531e+01
1.880000e-06	1.886578e-07	-9.854273e-11	1.313617e+00	-1.140961e+01
1.890000e-06	2.353664e-07	-8.035494e-11	1.638848e+00	-1.000738e+01
1.900000e-06	2.821477e-07	-6.366028e-11	1.964585e+00	-8.589537e+00
1.910000e-06	3.289358e-07	-4.427621e-11	2.290368e+00	-7.157067e+00
1.920000e-06	3.755892e-07	-2.364037e-11	2.615215e+00	-5.711032e+00
1.930000e-06	4.222349e-07	-2.739611e-12	2.940007e+00	-4.252560e+00
1.940000e-06	4.688687e-07	1.593732e-11	3.264716e+00	-2.782843e+00
1.950000e-06	5.153888e-07	3.331533e-11	3.588634e+00	-1.303130e+00
1.960000e-06	5.618496e-07	4.988685e-11	3.912139e+00	1.852796e-01
1.970000e-06	6.082699e-07	6.712042e-11	4.235362e+00	1.681039e+00
1.980000e-06	6.546991e-07	8.681118e-11	4.558647e+00	3.182765e+00
1.990000e-06	7.010810e-07	1.095827e-10	4.881602e+00	4.689042e+00
2.000000e-06	7.472982e-07	1.348285e-10	5.203411e+00	6.198429e+00
2.010000e-06	7.934602e-07	1.582616e-10	5.524836e+00	7.709472e+00
2.020000e-06	8.396546e-07	1.774443e-10	5.846486e+00	9.220704e+00
2.030000e-06	8.858349e-07	1.961742e-10	6.168038e+00	1.073066e+01
2.040000e-06	9.319072e-07	2.159380e-10	6.488837e+00	1.223787e+01
2.050000e-06	9.779074e-07	2.351287e-10	6.809135e+00	1.374090e+01
2.060000e-06	1.023882e-06	2.549544e-10	7.129254e+00	1.523832e+01
2.070000e-06	1.069780e-06	2.758961e-10	7.448842e+00	1.672872e+01
2.080000e-06	1.115574e-06	2.961159e-10	7.767700e+00	1.821076e+01
2.090000e-06	1.161256e-06	3.162580e-10	8.085784e+00	1.968310e+01
2.100000e-06	1.206867e-06	3.384814e-10	8.403373e+00	2.114448e+01
2.110000e-06	1.252407e-06	3.587315e-10	8.720469e+00	2.259367e+01
2.120000e-06	1.297840e-06	3.778992e-10	9.036814e+00	2.402953e+01
2.130000e-06	1.343191e-06	3.961705e-10	9.352589e+00	2.545095e+01
2.140000e-06	1.388519e-06	4.146786e-10	9.668208e+00	2.685691e+01
2.150000e-06	1.433743e-06	4.323106e-10	9.983104e+00	2.824647e+01
2.160000e-06	1.478816e-06	4.516152e-10	1.029694e+01	2.961874e+01
2.170000e-06	1.523810e-06	4.718793e-10	1.061023e+01	3.097294e+01
2.180000e-06	1.568632e-06	4.888792e-10	1.092233e+01	3.230834e+01
2.190000e-06	1.613362e-06	5.049330e-10	1.123378e+01	3.362431e+01
2.200000e-06	1.657955e-06	5.233161e-10	1.154429e+01	3.492030e+01
2.210000e-06	1.702341e-06	5.433721e-10	1.185334e+01	3.619584e+01
2.220000e-06	1.746634e-06	5.627668e-10	1.216175e+01	3.745055e+01
2.230000e-06	1.790796e-06	5.800687e-10	1.246925e+01	3.868412e+01
2.240000e-06	1.834876e-06	5.959510e-10	1.277618e+01	3.989632e+01
2.250000e-06	1.878867e-06	6.109998e-10	1.308249e+01	4.108701e+01
2.260000e-06	1.922796e-06	6.271916e-10	1.338836e+01	4.225611e+01
2.270000e-06	1.966713e-06	6.432413e-10	1.369416e+01	4.340361e+01
2.280000e-06	2.010587e-06	6.588166e-10	1.399965e+01	4.452958e+01
2.290000e-06	2.054342e-06	6.753655e-10	1.430431e+01	4.563414e+01
2.300000e-06	2.097964e-06	6.919184e-10	1.460805e+01	4.671747e+01
2.310000e-06	2.141544e-06	7.077007e-10	1.491150e+01	4.777980e+01
2.320000e-06	2.185076e-06	7.229710e-10	1.521461e+01	4.882143e+01
2.330000e-06	2.228513e-06	7.358070e-10	1.551706e+01	4.984266e+01
2.340000e-06	2.271784e-06	7.479011e-10	1.581835e+01	5.084387e+01
2.350000e-06	2.314833e-06	7.607685e-10	1.611810e+01	5.182545e+01
2.360000e-06	2.357560e-06	7.728789e-10	1.641561e+01	5.278781e+01
2.370000e-06	2.399879e-06	7.855807e-10	1.671027e+01	5.373139e+01
2.380000e-06	2.441793e-06	7.989181e-10	1.700212e+01	5.465665e+01
2.390000e-06	2.483497e-06	8.122496e-10	1.729250e+01	5.556405e+01
2.400000e-06	2.524999e-06	8.257163e-10	1.758148e+01	5.645405e+01
2.410000e-06	2.566200e-06	8.396103e-10	1.786836e+01	5.732712e+01
2.420000e-06	2.607094e-06	8.531140e-10	1.815311e+01	5.818372e+01
2.430000e-06	2.647642e-06	8.664293e-10	1.843544e+01	5.902430e+01
2.440000e-06	2.687886e-06	8.782139e-10	1.871566e+01	5.984930e+01
2.450000e-06	2.727947e-06	8.894380e-10	1.899460e+01	6.065913e+01
2.460000e-06	2.767964e-06	9.000081e-10	1.927324e+01	6.145419e+01
2.470000e-06	2.807873e-06	9.094818e-10	1.955112e+01	6.223487e+01
2.480000e-06	2.847677e-06	9.183354e-10	1.982828e+01	6.300150e+01
2.490000e-06	2.887390e-06	9.281507e-10	2.010480e+01	6.375442e+01
2.500000e-06	2.926953e-06	9.401331e-10	2.038027e+01	6.449392e+01
2.510000e-06	2.966410e-06	9.516275e-10	2.065501e+01	6.522026e+01
2.520000e-06	3.005714e-06	9.613251e-10	2.092868e+01	6.593367e+01
2.530000e-06	3.044682e-06	9.704042e-10	2.120001e+01	6.663437e+01
2.540000e-06	3.083365e-06	9.777876e-10	2.146936e+01	6.732252e+01
2.550000e-06	3.121845e-06	9.843730e-10	2.173730e+01	6.799828e+01
2.560000e-06	3.160094e-06	9.933398e-10	2.200362e+01	6.866176e+01
2.570000e-06	3.198106e-06	1.002496e-09	2.226830e+01	6.931306e+01
2.580000e-06	3.235874e-06	1.010647e-09	2.253128e+01	6.995225e+01
2.590000e-06	3.273478e-06	1.020159e-09	2.279311e+01	7.057938e+01
2.600000e-06	3.310937e-06	1.029888e-09	2.305394e+01	7.119448e+01
2.610000e-06	3.348149e-06	1.040124e-09	2.331304e+01	7.179756e+01
2.620000e-06	3.385080e-06	1.049538e-09	2.357019e+01	7.238862e+01
2.630000e-06	3.421806e-06	1.055343e-09	2.382592e+01	7.296766e+01
2.640000e-06	3.458291e-06	1.060928e-09	2.407996e+01	7.353465e+01
2.650000e-06	3.494512e-06	1.067880e-09	2.433217e+01	7.408959e+01
2.660000e-06	3.530540e-06	1.075220e-09	2.458303e+01	7.463244e+01
2.670000e-06	3.566416e-06	1.081200e-09	2.483283e+01	7.516319e+01
2.680000e-06	3.602209e-06	1.089385e-09	2.508206e+01	7.568182e+01
2.690000e-06	3.637879e-06	1.097547e-09	2.533042e+01	7.618834e+01
2.700000e-06	3.673394e-06	1.104960e-09	2.557771e+01	7.668274e+01
2.710000e-06	3.708672e-06	1.111472e-09	2.582336e+01	7.716506e+01
2.720000e-06	3.743690e-06	1.120691e-09	2.606719e+01	7.763532e+01
2.730000e-06	3.778321e-06	1.131862e-09	2.630832e+01	7.809358e+01
2.740000e-06	3.812401e-06	1.140116e-09	2.654561e+01	7.853991e+01
2.750000e-06	3.846024e-06	1.144962e-09	2.677973e+01	7.897442e+01
2.760000e-06	3.879154e-06	1.148447e-09	2.701041e+01	7.939721e+01
2.770000e-06	3.911793e-06	1.152136e-09	2.723768e+01	7.980844e+01
2.780000e-06	3.944078e-06	1.157091e-09	2.746248e+01	8.020826e+01
2.790000e-06	3.976123e-06	1.165876e-09	2.768560e+01	8.059688e+01
2.800000e-06	4.007972e-06	1.176783e-09	2.790737e+01	8.097450e+01
2.810000e-06	4.039689e-06	1.188134e-09	2.812821e+01	8.134135e+01
2.820000e-06	4.071270e-06	1.195477e-09	2.834811e+01	8.169772e+01
2.830000e-06	4.102591e-06	1.197502e-09	2.856620e+01	8.204386e+01
2.840000e-06	4.133683e-06	1.197591e-09	2.878269e+01	8.238009e+01
2.850000e-06	4.164519e-06	1.199715e-09	2.899740e+01	8.270673e+01
2.860000e-06	4.195008e-06	1.203480e-09	2.920969e+01	8.302411e+01
2.870000e-06	4.225205e-06	1.208171e-09	2.941995e+01	8.333258e+01
2.880000e-06	4.255128e-06	1.215929e-09	2.962831e+01	8.363251e+01
2.890000e-06	4.284697e-06	1.226886e-09	2.983420e+01	8.392427e+01
2.900000e-06	4.313984e-06	1.236208e-09	3.003812e+01	8.420824e+01
