# Temperatura_=_-0.3
# Concentracion g/m^3_=_1620.0
# C_Vs_to_Am_M_A/Vsm_=_65563218390.804596
# pendiente_HvsI_1/m_=_3716.3
# ordenada_HvsI_A/m_=_1297.0
# frecuencia_Hz_=_135094.7787247654

Tiempo_(s)	Campo_(V.s)	Magnetizacion_(V.s)	Campo_(kA/m)	Magnetizacion_(A/m)
0.000000e+00	-5.514646e-06	-1.443826e-09	-3.837338e+01	-9.336202e+01
1.000000e-08	-5.514916e-06	-1.447702e-09	-3.837526e+01	-9.340105e+01
2.000000e-08	-5.514885e-06	-1.451515e-09	-3.837504e+01	-9.343720e+01
3.000000e-08	-5.514408e-06	-1.453591e-09	-3.837172e+01	-9.347027e+01
4.000000e-08	-5.513442e-06	-1.450885e-09	-3.836500e+01	-9.350008e+01
5.000000e-08	-5.511968e-06	-1.442795e-09	-3.835474e+01	-9.352642e+01
6.000000e-08	-5.509876e-06	-1.427883e-09	-3.834019e+01	-9.354909e+01
7.000000e-08	-5.507190e-06	-1.414956e-09	-3.832150e+01	-9.356791e+01
8.000000e-08	-5.504006e-06	-1.440818e-09	-3.829934e+01	-9.358267e+01
9.000000e-08	-5.500354e-06	-1.501217e-09	-3.827393e+01	-9.359319e+01
1.000000e-07	-5.496238e-06	-1.464512e-09	-3.824529e+01	-9.359928e+01
1.100000e-07	-5.491817e-06	-1.370058e-09	-3.821452e+01	-9.360076e+01
1.200000e-07	-5.487355e-06	-1.403183e-09	-3.818348e+01	-9.359747e+01
1.300000e-07	-5.482683e-06	-1.468073e-09	-3.815096e+01	-9.358926e+01
1.400000e-07	-5.477569e-06	-1.469398e-09	-3.811538e+01	-9.357597e+01
1.500000e-07	-5.472086e-06	-1.367217e-09	-3.807723e+01	-9.355748e+01
1.600000e-07	-5.466247e-06	-1.378719e-09	-3.803660e+01	-9.353367e+01
1.700000e-07	-5.459967e-06	-1.478589e-09	-3.799290e+01	-9.350444e+01
1.800000e-07	-5.453160e-06	-1.450150e-09	-3.794553e+01	-9.346971e+01
1.900000e-07	-5.446032e-06	-1.402812e-09	-3.789593e+01	-9.342941e+01
2.000000e-07	-5.438713e-06	-1.385280e-09	-3.784500e+01	-9.338350e+01
2.100000e-07	-5.431127e-06	-1.484010e-09	-3.779222e+01	-9.333194e+01
2.200000e-07	-5.423209e-06	-1.474303e-09	-3.773712e+01	-9.327472e+01
2.300000e-07	-5.415001e-06	-1.448843e-09	-3.768000e+01	-9.321185e+01
2.400000e-07	-5.406328e-06	-1.427408e-09	-3.761966e+01	-9.314335e+01
2.500000e-07	-5.396868e-06	-1.475974e-09	-3.755383e+01	-9.306928e+01
2.600000e-07	-5.386734e-06	-1.462212e-09	-3.748331e+01	-9.298967e+01
2.700000e-07	-5.376124e-06	-1.439892e-09	-3.740948e+01	-9.290462e+01
2.800000e-07	-5.365020e-06	-1.429849e-09	-3.733222e+01	-9.281421e+01
2.900000e-07	-5.353443e-06	-1.451003e-09	-3.725166e+01	-9.271855e+01
3.000000e-07	-5.341598e-06	-1.447408e-09	-3.716923e+01	-9.261776e+01
3.100000e-07	-5.329432e-06	-1.416255e-09	-3.708458e+01	-9.251197e+01
3.200000e-07	-5.316763e-06	-1.416691e-09	-3.699642e+01	-9.240131e+01
3.300000e-07	-5.303673e-06	-1.427048e-09	-3.690533e+01	-9.228595e+01
3.400000e-07	-5.290227e-06	-1.436223e-09	-3.681177e+01	-9.216602e+01
3.500000e-07	-5.276254e-06	-1.394273e-09	-3.671454e+01	-9.204170e+01
3.600000e-07	-5.261861e-06	-1.419728e-09	-3.661439e+01	-9.191315e+01
3.700000e-07	-5.247194e-06	-1.438899e-09	-3.651233e+01	-9.178053e+01
3.800000e-07	-5.231999e-06	-1.408184e-09	-3.640659e+01	-9.164401e+01
3.900000e-07	-5.216088e-06	-1.370080e-09	-3.629588e+01	-9.150376e+01
4.000000e-07	-5.199761e-06	-1.439367e-09	-3.618227e+01	-9.135993e+01
4.100000e-07	-5.183192e-06	-1.430941e-09	-3.606698e+01	-9.121268e+01
4.200000e-07	-5.166198e-06	-1.361526e-09	-3.594872e+01	-9.106216e+01
4.300000e-07	-5.148830e-06	-1.386357e-09	-3.582787e+01	-9.090852e+01
4.400000e-07	-5.131238e-06	-1.467917e-09	-3.570546e+01	-9.075187e+01
4.500000e-07	-5.113265e-06	-1.378502e-09	-3.558039e+01	-9.059234e+01
4.600000e-07	-5.094798e-06	-1.337388e-09	-3.545189e+01	-9.043004e+01
4.700000e-07	-5.075976e-06	-1.420307e-09	-3.532091e+01	-9.026507e+01
4.800000e-07	-5.056864e-06	-1.419756e-09	-3.518793e+01	-9.009750e+01
4.900000e-07	-5.037448e-06	-1.325461e-09	-3.505282e+01	-8.992741e+01
5.000000e-07	-5.017830e-06	-1.387342e-09	-3.491631e+01	-8.975486e+01
5.100000e-07	-4.998040e-06	-1.422966e-09	-3.477860e+01	-8.957987e+01
5.200000e-07	-4.977891e-06	-1.337407e-09	-3.463840e+01	-8.940247e+01
5.300000e-07	-4.957426e-06	-1.342683e-09	-3.449599e+01	-8.922269e+01
5.400000e-07	-4.936683e-06	-1.419533e-09	-3.435166e+01	-8.904051e+01
5.500000e-07	-4.915449e-06	-1.353012e-09	-3.420390e+01	-8.885591e+01
5.600000e-07	-4.893799e-06	-1.314932e-09	-3.405325e+01	-8.866888e+01
5.700000e-07	-4.871856e-06	-1.389768e-09	-3.390056e+01	-8.847936e+01
5.800000e-07	-4.849554e-06	-1.371897e-09	-3.374537e+01	-8.828732e+01
5.900000e-07	-4.826958e-06	-1.304678e-09	-3.358814e+01	-8.809267e+01
6.000000e-07	-4.804028e-06	-1.351086e-09	-3.342858e+01	-8.789537e+01
6.100000e-07	-4.780749e-06	-1.371890e-09	-3.326660e+01	-8.769533e+01
6.200000e-07	-4.757257e-06	-1.308821e-09	-3.310313e+01	-8.749246e+01
6.300000e-07	-4.733524e-06	-1.325458e-09	-3.293798e+01	-8.728668e+01
6.400000e-07	-4.709525e-06	-1.355980e-09	-3.277099e+01	-8.707790e+01
6.500000e-07	-4.685217e-06	-1.319127e-09	-3.260184e+01	-8.686603e+01
6.600000e-07	-4.660514e-06	-1.307257e-09	-3.242994e+01	-8.665097e+01
6.700000e-07	-4.635305e-06	-1.338837e-09	-3.225453e+01	-8.643264e+01
6.800000e-07	-4.609395e-06	-1.307741e-09	-3.207423e+01	-8.621095e+01
6.900000e-07	-4.582936e-06	-1.289952e-09	-3.189012e+01	-8.598581e+01
7.000000e-07	-4.556118e-06	-1.306191e-09	-3.170351e+01	-8.575714e+01
7.100000e-07	-4.528948e-06	-1.302490e-09	-3.151445e+01	-8.552488e+01
7.200000e-07	-4.501501e-06	-1.281821e-09	-3.132346e+01	-8.528895e+01
7.300000e-07	-4.473896e-06	-1.298101e-09	-3.113137e+01	-8.504930e+01
7.400000e-07	-4.446151e-06	-1.290608e-09	-3.093831e+01	-8.480588e+01
7.500000e-07	-4.418161e-06	-1.278200e-09	-3.074354e+01	-8.455865e+01
7.600000e-07	-4.389826e-06	-1.278703e-09	-3.054638e+01	-8.430759e+01
7.700000e-07	-4.361160e-06	-1.276616e-09	-3.034691e+01	-8.405267e+01
7.800000e-07	-4.332200e-06	-1.255250e-09	-3.014539e+01	-8.379388e+01
7.900000e-07	-4.302957e-06	-1.257747e-09	-2.994190e+01	-8.353122e+01
8.000000e-07	-4.273497e-06	-1.258113e-09	-2.973691e+01	-8.326471e+01
8.100000e-07	-4.243742e-06	-1.249315e-09	-2.952986e+01	-8.299436e+01
8.200000e-07	-4.213629e-06	-1.249030e-09	-2.932032e+01	-8.272020e+01
8.300000e-07	-4.183220e-06	-1.257597e-09	-2.910872e+01	-8.244226e+01
8.400000e-07	-4.152465e-06	-1.244757e-09	-2.889471e+01	-8.216059e+01
8.500000e-07	-4.121456e-06	-1.233756e-09	-2.867894e+01	-8.187523e+01
8.600000e-07	-4.090285e-06	-1.235379e-09	-2.846203e+01	-8.158622e+01
8.700000e-07	-4.058908e-06	-1.226923e-09	-2.824370e+01	-8.129364e+01
8.800000e-07	-4.027323e-06	-1.213959e-09	-2.802392e+01	-8.099752e+01
8.900000e-07	-3.995554e-06	-1.216171e-09	-2.780286e+01	-8.069792e+01
9.000000e-07	-3.963615e-06	-1.215708e-09	-2.758061e+01	-8.039490e+01
9.100000e-07	-3.931311e-06	-1.201496e-09	-2.735582e+01	-8.008851e+01
9.200000e-07	-3.898620e-06	-1.200250e-09	-2.712834e+01	-7.977878e+01
9.300000e-07	-3.865543e-06	-1.202476e-09	-2.689818e+01	-7.946577e+01
9.400000e-07	-3.831923e-06	-1.194791e-09	-2.666424e+01	-7.914950e+01
9.500000e-07	-3.797796e-06	-1.184888e-09	-2.642677e+01	-7.882998e+01
9.600000e-07	-3.763198e-06	-1.187538e-09	-2.618602e+01	-7.850724e+01
9.700000e-07	-3.728199e-06	-1.177885e-09	-2.594248e+01	-7.818127e+01
9.800000e-07	-3.693042e-06	-1.165040e-09	-2.569784e+01	-7.785206e+01
9.900000e-07	-3.657733e-06	-1.159166e-09	-2.545214e+01	-7.751957e+01
1.000000e-06	-3.622206e-06	-1.158917e-09	-2.520493e+01	-7.718377e+01
1.010000e-06	-3.586547e-06	-1.149114e-09	-2.495680e+01	-7.684459e+01
1.020000e-06	-3.550761e-06	-1.147286e-09	-2.470779e+01	-7.650195e+01
1.030000e-06	-3.514775e-06	-1.145786e-09	-2.445738e+01	-7.615577e+01
1.040000e-06	-3.478533e-06	-1.139984e-09	-2.420519e+01	-7.580593e+01
1.050000e-06	-3.442132e-06	-1.129731e-09	-2.395190e+01	-7.545231e+01
1.060000e-06	-3.405505e-06	-1.123581e-09	-2.369703e+01	-7.509476e+01
1.070000e-06	-3.368565e-06	-1.113179e-09	-2.343999e+01	-7.473312e+01
1.080000e-06	-3.331323e-06	-1.106189e-09	-2.318084e+01	-7.436722e+01
1.090000e-06	-3.293830e-06	-1.102815e-09	-2.291995e+01	-7.399686e+01
1.100000e-06	-3.256167e-06	-1.100301e-09	-2.265787e+01	-7.362183e+01
1.110000e-06	-3.218280e-06	-1.093412e-09	-2.239424e+01	-7.324193e+01
1.120000e-06	-3.180141e-06	-1.087948e-09	-2.212884e+01	-7.285691e+01
1.130000e-06	-3.141767e-06	-1.080983e-09	-2.186182e+01	-7.246654e+01
1.140000e-06	-3.103216e-06	-1.071496e-09	-2.159357e+01	-7.207057e+01
1.150000e-06	-3.064544e-06	-1.062172e-09	-2.132447e+01	-7.166874e+01
1.160000e-06	-3.025638e-06	-1.055856e-09	-2.105374e+01	-7.126078e+01
1.170000e-06	-2.986435e-06	-1.050594e-09	-2.078095e+01	-7.084643e+01
1.180000e-06	-2.947084e-06	-1.044366e-09	-2.050713e+01	-7.042542e+01
1.190000e-06	-2.907572e-06	-1.037944e-09	-2.023219e+01	-6.999749e+01
1.200000e-06	-2.867881e-06	-1.033085e-09	-1.995600e+01	-6.956235e+01
1.210000e-06	-2.828170e-06	-1.029499e-09	-1.967967e+01	-6.911975e+01
1.220000e-06	-2.788380e-06	-1.022331e-09	-1.940280e+01	-6.866944e+01
1.230000e-06	-2.748396e-06	-1.014739e-09	-1.912457e+01	-6.821114e+01
1.240000e-06	-2.708181e-06	-1.005621e-09	-1.884474e+01	-6.774462e+01
1.250000e-06	-2.667701e-06	-9.971411e-10	-1.856306e+01	-6.726965e+01
1.260000e-06	-2.626967e-06	-9.878686e-10	-1.827962e+01	-6.678599e+01
1.270000e-06	-2.585961e-06	-9.826664e-10	-1.799427e+01	-6.629343e+01
1.280000e-06	-2.544604e-06	-9.747293e-10	-1.770649e+01	-6.579177e+01
1.290000e-06	-2.502943e-06	-9.644206e-10	-1.741660e+01	-6.528082e+01
1.300000e-06	-2.461021e-06	-9.538785e-10	-1.712489e+01	-6.476040e+01
1.310000e-06	-2.418814e-06	-9.451805e-10	-1.683119e+01	-6.423035e+01
1.320000e-06	-2.376385e-06	-9.357491e-10	-1.653596e+01	-6.369052e+01
1.330000e-06	-2.333704e-06	-9.295659e-10	-1.623896e+01	-6.314078e+01
1.340000e-06	-2.290804e-06	-9.233782e-10	-1.594044e+01	-6.258100e+01
1.350000e-06	-2.247735e-06	-9.136543e-10	-1.564075e+01	-6.201108e+01
1.360000e-06	-2.204499e-06	-9.004169e-10	-1.533989e+01	-6.143091e+01
1.370000e-06	-2.161135e-06	-8.888735e-10	-1.503815e+01	-6.084041e+01
1.380000e-06	-2.117624e-06	-8.765560e-10	-1.473538e+01	-6.023949e+01
1.390000e-06	-2.074022e-06	-8.654229e-10	-1.443198e+01	-5.962809e+01
1.400000e-06	-2.030378e-06	-8.551035e-10	-1.412828e+01	-5.900613e+01
1.410000e-06	-1.986652e-06	-8.471091e-10	-1.382402e+01	-5.837356e+01
1.420000e-06	-1.942836e-06	-8.385431e-10	-1.351912e+01	-5.773032e+01
1.430000e-06	-1.898851e-06	-8.311023e-10	-1.321306e+01	-5.707634e+01
1.440000e-06	-1.854730e-06	-8.238493e-10	-1.290604e+01	-5.641157e+01
1.450000e-06	-1.810574e-06	-8.121223e-10	-1.259879e+01	-5.573594e+01
1.460000e-06	-1.766344e-06	-7.960712e-10	-1.229102e+01	-5.504938e+01
1.470000e-06	-1.721979e-06	-7.795855e-10	-1.198230e+01	-5.435181e+01
1.480000e-06	-1.677474e-06	-7.645901e-10	-1.167262e+01	-5.364314e+01
1.490000e-06	-1.632808e-06	-7.493951e-10	-1.136181e+01	-5.292327e+01
1.500000e-06	-1.587943e-06	-7.381041e-10	-1.104962e+01	-5.219210e+01
1.510000e-06	-1.542921e-06	-7.306064e-10	-1.073633e+01	-5.144948e+01
1.520000e-06	-1.497835e-06	-7.229184e-10	-1.042261e+01	-5.069527e+01
1.530000e-06	-1.452664e-06	-7.125842e-10	-1.010829e+01	-4.992931e+01
1.540000e-06	-1.407379e-06	-6.991150e-10	-9.793178e+00	-4.915142e+01
1.550000e-06	-1.362025e-06	-6.821339e-10	-9.477579e+00	-4.836140e+01
1.560000e-06	-1.316612e-06	-6.635199e-10	-9.161575e+00	-4.755902e+01
1.570000e-06	-1.271085e-06	-6.457668e-10	-8.844778e+00	-4.674405e+01
1.580000e-06	-1.225465e-06	-6.299170e-10	-8.527332e+00	-4.591622e+01
1.590000e-06	-1.179727e-06	-6.154336e-10	-8.209068e+00	-4.507525e+01
1.600000e-06	-1.133866e-06	-6.049847e-10	-7.889945e+00	-4.422084e+01
1.610000e-06	-1.087986e-06	-5.962075e-10	-7.570698e+00	-4.335268e+01
1.620000e-06	-1.042074e-06	-5.865580e-10	-7.251221e+00	-4.247043e+01
1.630000e-06	-9.960435e-07	-5.749684e-10	-6.930917e+00	-4.157376e+01
1.640000e-06	-9.499738e-07	-5.604816e-10	-6.610344e+00	-4.066229e+01
1.650000e-06	-9.038140e-07	-5.414345e-10	-6.289143e+00	-3.973567e+01
1.660000e-06	-8.575439e-07	-5.210499e-10	-5.967175e+00	-3.879353e+01
1.670000e-06	-8.112993e-07	-5.030298e-10	-5.645385e+00	-3.783548e+01
1.680000e-06	-7.650139e-07	-4.893237e-10	-5.323310e+00	-3.686116e+01
1.690000e-06	-7.185684e-07	-4.769496e-10	-5.000121e+00	-3.587020e+01
1.700000e-06	-6.720360e-07	-4.669278e-10	-4.676328e+00	-3.486223e+01
1.710000e-06	-6.255226e-07	-4.545038e-10	-4.352667e+00	-3.383690e+01
1.720000e-06	-5.790501e-07	-4.355117e-10	-4.029290e+00	-3.279389e+01
1.730000e-06	-5.325157e-07	-4.129460e-10	-3.705483e+00	-3.173287e+01
1.740000e-06	-4.859106e-07	-3.916879e-10	-3.381184e+00	-3.065358e+01
1.750000e-06	-4.392448e-07	-3.732657e-10	-3.056463e+00	-2.955574e+01
1.760000e-06	-3.924312e-07	-3.569221e-10	-2.730712e+00	-2.843914e+01
1.770000e-06	-3.457111e-07	-3.423922e-10	-2.405613e+00	-2.730360e+01
1.780000e-06	-2.990495e-07	-3.291519e-10	-2.080921e+00	-2.614897e+01
1.790000e-06	-2.523017e-07	-3.143179e-10	-1.755629e+00	-2.497517e+01
1.800000e-06	-2.055056e-07	-2.953568e-10	-1.430000e+00	-2.378215e+01
1.810000e-06	-1.587115e-07	-2.745072e-10	-1.104386e+00	-2.256994e+01
1.820000e-06	-1.118408e-07	-2.536614e-10	-7.782386e-01	-2.133859e+01
1.830000e-06	-6.492006e-08	-2.354867e-10	-4.517429e-01	-2.008826e+01
1.840000e-06	-1.808217e-08	-2.200493e-10	-1.258239e-01	-1.881914e+01
1.850000e-06	2.870954e-08	-2.066580e-10	1.997738e-01	-1.753149e+01
1.860000e-06	7.549086e-08	-1.942209e-10	5.252993e-01	-1.622565e+01
1.870000e-06	1.222940e-07	-1.764513e-10	8.509763e-01	-1.490203e+01
1.880000e-06	1.691449e-07	-1.544609e-10	1.176986e+00	-1.356111e+01
1.890000e-06	2.159712e-07	-1.332950e-10	1.502824e+00	-1.220344e+01
1.900000e-06	2.627296e-07	-1.126639e-10	1.828191e+00	-1.082963e+01
1.910000e-06	3.094782e-07	-9.318843e-11	2.153488e+00	-9.440399e+00
1.920000e-06	3.561841e-07	-7.538283e-11	2.478488e+00	-8.036495e+00
1.930000e-06	4.029123e-07	-5.852543e-11	2.803645e+00	-6.618760e+00
1.940000e-06	4.496417e-07	-4.200363e-11	3.128808e+00	-5.188095e+00
1.950000e-06	4.963274e-07	-2.663964e-11	3.453669e+00	-3.745468e+00
1.960000e-06	5.429576e-07	-9.209583e-12	3.778142e+00	-2.291910e+00
1.970000e-06	5.894041e-07	1.137188e-11	4.101338e+00	-8.285068e-01
1.980000e-06	6.357259e-07	3.498245e-11	4.423666e+00	6.435981e-01
1.990000e-06	6.820128e-07	5.921461e-11	4.745751e+00	2.123214e+00
2.000000e-06	7.283272e-07	8.172365e-11	5.068027e+00	3.609103e+00
2.010000e-06	7.746164e-07	1.020386e-10	5.390128e+00	5.099990e+00
2.020000e-06	8.208429e-07	1.194073e-10	5.711793e+00	6.594564e+00
2.030000e-06	8.670509e-07	1.354632e-10	6.033329e+00	8.091488e+00
2.040000e-06	9.132429e-07	1.538056e-10	6.354754e+00	9.589401e+00
2.050000e-06	9.593790e-07	1.745682e-10	6.675789e+00	1.108693e+01
2.060000e-06	1.005287e-06	1.972795e-10	6.995239e+00	1.258268e+01
2.070000e-06	1.051089e-06	2.220914e-10	7.313949e+00	1.407528e+01
2.080000e-06	1.096825e-06	2.474041e-10	7.632200e+00	1.556333e+01
2.090000e-06	1.142479e-06	2.703806e-10	7.949883e+00	1.704547e+01
2.100000e-06	1.188166e-06	2.924899e-10	8.267793e+00	1.852033e+01
2.110000e-06	1.233821e-06	3.121247e-10	8.585478e+00	1.998660e+01
2.120000e-06	1.279296e-06	3.280598e-10	8.901917e+00	2.144297e+01
2.130000e-06	1.324629e-06	3.445261e-10	9.217362e+00	2.288817e+01
2.140000e-06	1.369934e-06	3.627988e-10	9.532613e+00	2.432098e+01
2.150000e-06	1.415185e-06	3.829665e-10	9.847489e+00	2.574023e+01
2.160000e-06	1.460359e-06	4.041876e-10	1.016183e+01	2.714480e+01
2.170000e-06	1.505396e-06	4.264645e-10	1.047522e+01	2.853362e+01
2.180000e-06	1.550343e-06	4.477956e-10	1.078798e+01	2.990569e+01
2.190000e-06	1.595152e-06	4.677414e-10	1.109978e+01	3.126009e+01
2.200000e-06	1.639779e-06	4.868860e-10	1.141032e+01	3.259593e+01
2.210000e-06	1.684280e-06	5.044226e-10	1.171998e+01	3.391244e+01
2.220000e-06	1.728746e-06	5.205184e-10	1.202939e+01	3.520889e+01
2.230000e-06	1.773060e-06	5.361154e-10	1.233774e+01	3.648465e+01
2.240000e-06	1.817166e-06	5.518277e-10	1.264466e+01	3.773915e+01
2.250000e-06	1.861233e-06	5.671265e-10	1.295129e+01	3.897191e+01
2.260000e-06	1.905192e-06	5.836957e-10	1.325718e+01	4.018252e+01
2.270000e-06	1.949036e-06	6.005342e-10	1.356226e+01	4.137067e+01
2.280000e-06	1.992784e-06	6.169242e-10	1.386668e+01	4.253611e+01
2.290000e-06	2.036417e-06	6.330384e-10	1.417030e+01	4.367866e+01
2.300000e-06	2.080019e-06	6.482643e-10	1.447370e+01	4.479823e+01
2.310000e-06	2.123581e-06	6.634049e-10	1.477683e+01	4.589480e+01
2.320000e-06	2.167087e-06	6.772142e-10	1.507956e+01	4.696843e+01
2.330000e-06	2.210507e-06	6.891673e-10	1.538170e+01	4.801921e+01
2.340000e-06	2.253676e-06	6.995873e-10	1.568209e+01	4.904734e+01
2.350000e-06	2.296679e-06	7.128337e-10	1.598132e+01	5.005304e+01
2.360000e-06	2.339592e-06	7.274830e-10	1.627993e+01	5.103661e+01
2.370000e-06	2.382353e-06	7.431559e-10	1.657748e+01	5.199839e+01
2.380000e-06	2.424778e-06	7.612368e-10	1.687269e+01	5.293876e+01
2.390000e-06	2.466763e-06	7.783072e-10	1.716485e+01	5.385816e+01
2.400000e-06	2.508494e-06	7.912663e-10	1.745523e+01	5.475703e+01
2.410000e-06	2.549991e-06	8.020047e-10	1.774398e+01	5.563588e+01
2.420000e-06	2.591146e-06	8.122381e-10	1.803035e+01	5.649522e+01
2.430000e-06	2.631984e-06	8.220789e-10	1.831453e+01	5.733559e+01
2.440000e-06	2.672527e-06	8.343534e-10	1.859664e+01	5.815755e+01
2.450000e-06	2.712867e-06	8.492470e-10	1.887734e+01	5.896165e+01
2.460000e-06	2.753031e-06	8.638596e-10	1.915682e+01	5.974846e+01
2.470000e-06	2.792958e-06	8.774367e-10	1.943465e+01	6.051855e+01
2.480000e-06	2.832721e-06	8.901180e-10	1.971134e+01	6.127248e+01
2.490000e-06	2.872404e-06	9.013682e-10	1.998747e+01	6.201082e+01
2.500000e-06	2.912022e-06	9.117558e-10	2.026315e+01	6.273410e+01
2.510000e-06	2.951523e-06	9.210157e-10	2.053802e+01	6.344285e+01
2.520000e-06	2.990842e-06	9.290702e-10	2.081162e+01	6.413760e+01
2.530000e-06	3.029929e-06	9.376868e-10	2.108361e+01	6.481882e+01
2.540000e-06	3.068784e-06	9.469109e-10	2.135397e+01	6.548697e+01
2.550000e-06	3.107439e-06	9.547030e-10	2.162296e+01	6.614251e+01
2.560000e-06	3.145895e-06	9.626200e-10	2.189055e+01	6.678585e+01
2.570000e-06	3.184085e-06	9.728799e-10	2.215629e+01	6.741735e+01
2.580000e-06	3.222034e-06	9.832296e-10	2.242036e+01	6.803739e+01
2.590000e-06	3.259779e-06	9.911270e-10	2.268300e+01	6.864628e+01
2.600000e-06	3.297288e-06	9.995679e-10	2.294401e+01	6.924432e+01
2.610000e-06	3.334592e-06	1.008837e-09	2.320359e+01	6.983176e+01
2.620000e-06	3.371783e-06	1.017715e-09	2.346238e+01	7.040883e+01
2.630000e-06	3.408642e-06	1.024944e-09	2.371886e+01	7.097575e+01
2.640000e-06	3.445161e-06	1.031378e-09	2.397297e+01	7.153269e+01
2.650000e-06	3.481468e-06	1.036271e-09	2.422562e+01	7.207979e+01
2.660000e-06	3.517534e-06	1.039660e-09	2.447658e+01	7.261719e+01
2.670000e-06	3.553404e-06	1.045389e-09	2.472618e+01	7.314497e+01
2.680000e-06	3.589128e-06	1.054213e-09	2.497477e+01	7.366322e+01
2.690000e-06	3.624780e-06	1.065798e-09	2.522285e+01	7.417201e+01
2.700000e-06	3.660318e-06	1.079483e-09	2.547013e+01	7.467137e+01
2.710000e-06	3.695726e-06	1.091622e-09	2.571652e+01	7.516135e+01
2.720000e-06	3.730972e-06	1.098876e-09	2.596178e+01	7.564195e+01
2.730000e-06	3.765888e-06	1.101177e-09	2.620474e+01	7.611319e+01
2.740000e-06	3.800299e-06	1.101236e-09	2.644419e+01	7.657509e+01
2.750000e-06	3.834213e-06	1.102867e-09	2.668017e+01	7.702762e+01
2.760000e-06	3.867675e-06	1.109287e-09	2.691301e+01	7.747081e+01
2.770000e-06	3.900709e-06	1.119599e-09	2.714288e+01	7.790465e+01
2.780000e-06	3.933316e-06	1.130051e-09	2.736978e+01	7.832913e+01
2.790000e-06	3.965523e-06	1.138955e-09	2.759389e+01	7.874428e+01
2.800000e-06	3.997533e-06	1.146920e-09	2.781663e+01	7.915010e+01
2.810000e-06	4.029412e-06	1.153427e-09	2.803846e+01	7.954662e+01
2.820000e-06	4.061096e-06	1.157056e-09	2.825893e+01	7.993387e+01
2.830000e-06	4.092577e-06	1.159320e-09	2.847798e+01	8.031190e+01
2.840000e-06	4.123864e-06	1.160215e-09	2.869569e+01	8.068077e+01
2.850000e-06	4.154839e-06	1.161522e-09	2.891123e+01	8.104054e+01
2.860000e-06	4.185441e-06	1.166941e-09	2.912418e+01	8.139130e+01
2.870000e-06	4.215739e-06	1.175446e-09	2.933500e+01	8.173314e+01
2.880000e-06	4.245665e-06	1.184699e-09	2.954324e+01	8.206618e+01
2.890000e-06	4.275298e-06	1.192370e-09	2.974944e+01	8.239055e+01
2.900000e-06	4.304713e-06	1.198291e-09	2.995412e+01	8.270638e+01
