# Temperatura_=_-0.22
# Concentracion g/m^3_=_1620.0
# C_Vs_to_Am_M_A/Vsm_=_65563218390.804596
# pendiente_HvsI_1/m_=_3716.3
# ordenada_HvsI_A/m_=_1297.0
# frecuencia_Hz_=_135106.83844577332

Tiempo_(s)	Campo_(V.s)	Magnetizacion_(V.s)	Campo_(kA/m)	Magnetizacion_(A/m)
0.000000e+00	-5.522681e-06	-1.450569e-09	-3.836845e+01	-9.317200e+01
1.000000e-08	-5.522834e-06	-1.450791e-09	-3.836951e+01	-9.318325e+01
2.000000e-08	-5.522663e-06	-1.450613e-09	-3.836832e+01	-9.319120e+01
3.000000e-08	-5.522113e-06	-1.450457e-09	-3.836450e+01	-9.319568e+01
4.000000e-08	-5.521111e-06	-1.446759e-09	-3.835754e+01	-9.319649e+01
5.000000e-08	-5.519523e-06	-1.443701e-09	-3.834651e+01	-9.319345e+01
6.000000e-08	-5.517321e-06	-1.436100e-09	-3.833121e+01	-9.318636e+01
7.000000e-08	-5.514607e-06	-1.432416e-09	-3.831235e+01	-9.317503e+01
8.000000e-08	-5.511404e-06	-1.447447e-09	-3.829010e+01	-9.315929e+01
9.000000e-08	-5.507728e-06	-1.464296e-09	-3.826456e+01	-9.313895e+01
1.000000e-07	-5.503644e-06	-1.453620e-09	-3.823619e+01	-9.311386e+01
1.100000e-07	-5.499242e-06	-1.447324e-09	-3.820560e+01	-9.308386e+01
1.200000e-07	-5.494630e-06	-1.424529e-09	-3.817356e+01	-9.304881e+01
1.300000e-07	-5.489742e-06	-1.423848e-09	-3.813961e+01	-9.300861e+01
1.400000e-07	-5.484499e-06	-1.420579e-09	-3.810318e+01	-9.296313e+01
1.500000e-07	-5.478878e-06	-1.426279e-09	-3.806413e+01	-9.291230e+01
1.600000e-07	-5.472869e-06	-1.437521e-09	-3.802238e+01	-9.285605e+01
1.700000e-07	-5.466520e-06	-1.439902e-09	-3.797827e+01	-9.279435e+01
1.800000e-07	-5.459748e-06	-1.443372e-09	-3.793122e+01	-9.272717e+01
1.900000e-07	-5.452531e-06	-1.429450e-09	-3.788108e+01	-9.265452e+01
2.000000e-07	-5.444987e-06	-1.419025e-09	-3.782867e+01	-9.257643e+01
2.100000e-07	-5.437217e-06	-1.420393e-09	-3.777469e+01	-9.249293e+01
2.200000e-07	-5.429260e-06	-1.441663e-09	-3.771941e+01	-9.240411e+01
2.300000e-07	-5.420977e-06	-1.452101e-09	-3.766187e+01	-9.231006e+01
2.400000e-07	-5.412171e-06	-1.458000e-09	-3.760069e+01	-9.221088e+01
2.500000e-07	-5.402760e-06	-1.449470e-09	-3.753530e+01	-9.210672e+01
2.600000e-07	-5.392624e-06	-1.434943e-09	-3.746489e+01	-9.199771e+01
2.700000e-07	-5.381861e-06	-1.422501e-09	-3.739011e+01	-9.188404e+01
2.800000e-07	-5.370672e-06	-1.437041e-09	-3.731237e+01	-9.176587e+01
2.900000e-07	-5.359068e-06	-1.453224e-09	-3.723176e+01	-9.164339e+01
3.000000e-07	-5.347053e-06	-1.446478e-09	-3.714828e+01	-9.151682e+01
3.100000e-07	-5.334614e-06	-1.423099e-09	-3.706186e+01	-9.138636e+01
3.200000e-07	-5.321800e-06	-1.426084e-09	-3.697284e+01	-9.125222e+01
3.300000e-07	-5.308663e-06	-1.424362e-09	-3.688157e+01	-9.111461e+01
3.400000e-07	-5.295108e-06	-1.403220e-09	-3.678740e+01	-9.097376e+01
3.500000e-07	-5.281042e-06	-1.390107e-09	-3.668968e+01	-9.082987e+01
3.600000e-07	-5.266550e-06	-1.409036e-09	-3.658899e+01	-9.068315e+01
3.700000e-07	-5.251692e-06	-1.413055e-09	-3.648577e+01	-9.053379e+01
3.800000e-07	-5.236233e-06	-1.403534e-09	-3.637837e+01	-9.038199e+01
3.900000e-07	-5.220251e-06	-1.403763e-09	-3.626733e+01	-9.022791e+01
4.000000e-07	-5.203888e-06	-1.394797e-09	-3.615365e+01	-9.007172e+01
4.100000e-07	-5.187096e-06	-1.375956e-09	-3.603699e+01	-8.991356e+01
4.200000e-07	-5.169984e-06	-1.383537e-09	-3.591810e+01	-8.975354e+01
4.300000e-07	-5.152566e-06	-1.396527e-09	-3.579710e+01	-8.959178e+01
4.400000e-07	-5.134815e-06	-1.376290e-09	-3.567377e+01	-8.942835e+01
4.500000e-07	-5.116709e-06	-1.374934e-09	-3.554798e+01	-8.926332e+01
4.600000e-07	-5.098161e-06	-1.391412e-09	-3.541912e+01	-8.909671e+01
4.700000e-07	-5.079142e-06	-1.370471e-09	-3.528699e+01	-8.892855e+01
4.800000e-07	-5.059832e-06	-1.348885e-09	-3.515283e+01	-8.875883e+01
4.900000e-07	-5.040322e-06	-1.377275e-09	-3.501729e+01	-8.858751e+01
5.000000e-07	-5.020629e-06	-1.370691e-09	-3.488047e+01	-8.841453e+01
5.100000e-07	-5.000704e-06	-1.330204e-09	-3.474204e+01	-8.823982e+01
5.200000e-07	-4.980502e-06	-1.341531e-09	-3.460169e+01	-8.806329e+01
5.300000e-07	-4.959902e-06	-1.366570e-09	-3.445857e+01	-8.788482e+01
5.400000e-07	-4.938848e-06	-1.335110e-09	-3.431230e+01	-8.770428e+01
5.500000e-07	-4.917474e-06	-1.326479e-09	-3.416381e+01	-8.752151e+01
5.600000e-07	-4.895830e-06	-1.348641e-09	-3.401344e+01	-8.733637e+01
5.700000e-07	-4.873892e-06	-1.329612e-09	-3.386103e+01	-8.714867e+01
5.800000e-07	-4.851446e-06	-1.306472e-09	-3.370509e+01	-8.695824e+01
5.900000e-07	-4.828497e-06	-1.326255e-09	-3.354565e+01	-8.676490e+01
6.000000e-07	-4.805367e-06	-1.318345e-09	-3.338496e+01	-8.656846e+01
6.100000e-07	-4.782061e-06	-1.292020e-09	-3.322304e+01	-8.636872e+01
6.200000e-07	-4.758504e-06	-1.301079e-09	-3.305938e+01	-8.616551e+01
6.300000e-07	-4.734738e-06	-1.303476e-09	-3.289426e+01	-8.595864e+01
6.400000e-07	-4.710722e-06	-1.280066e-09	-3.272742e+01	-8.574794e+01
6.500000e-07	-4.686355e-06	-1.285173e-09	-3.255813e+01	-8.553325e+01
6.600000e-07	-4.661463e-06	-1.295917e-09	-3.238519e+01	-8.531441e+01
6.700000e-07	-4.636001e-06	-1.275951e-09	-3.220830e+01	-8.509130e+01
6.800000e-07	-4.610002e-06	-1.267138e-09	-3.202767e+01	-8.486379e+01
6.900000e-07	-4.583444e-06	-1.276184e-09	-3.184316e+01	-8.463178e+01
7.000000e-07	-4.556453e-06	-1.263845e-09	-3.165564e+01	-8.439521e+01
7.100000e-07	-4.529119e-06	-1.248842e-09	-3.146574e+01	-8.415399e+01
7.200000e-07	-4.501549e-06	-1.255934e-09	-3.127420e+01	-8.390811e+01
7.300000e-07	-4.473865e-06	-1.257007e-09	-3.108187e+01	-8.365755e+01
7.400000e-07	-4.446025e-06	-1.250159e-09	-3.088845e+01	-8.340232e+01
7.500000e-07	-4.417999e-06	-1.250737e-09	-3.069375e+01	-8.314246e+01
7.600000e-07	-4.389635e-06	-1.246925e-09	-3.049668e+01	-8.287801e+01
7.700000e-07	-4.360803e-06	-1.235389e-09	-3.029638e+01	-8.260907e+01
7.800000e-07	-4.331617e-06	-1.234860e-09	-3.009361e+01	-8.233572e+01
7.900000e-07	-4.302236e-06	-1.234883e-09	-2.988949e+01	-8.205810e+01
8.000000e-07	-4.272627e-06	-1.226697e-09	-2.968378e+01	-8.177634e+01
8.100000e-07	-4.242762e-06	-1.222672e-09	-2.947630e+01	-8.149060e+01
8.200000e-07	-4.212640e-06	-1.226202e-09	-2.926702e+01	-8.120104e+01
8.300000e-07	-4.182166e-06	-1.219576e-09	-2.905531e+01	-8.090785e+01
8.400000e-07	-4.151344e-06	-1.212030e-09	-2.884118e+01	-8.061121e+01
8.500000e-07	-4.120220e-06	-1.211863e-09	-2.862495e+01	-8.031133e+01
8.600000e-07	-4.088882e-06	-1.206477e-09	-2.840722e+01	-8.000840e+01
8.700000e-07	-4.057411e-06	-1.193758e-09	-2.818858e+01	-7.970262e+01
8.800000e-07	-4.025779e-06	-1.190230e-09	-2.796882e+01	-7.939419e+01
8.900000e-07	-3.993953e-06	-1.186591e-09	-2.774771e+01	-7.908330e+01
9.000000e-07	-3.961904e-06	-1.174730e-09	-2.752506e+01	-7.877014e+01
9.100000e-07	-3.929557e-06	-1.165581e-09	-2.730032e+01	-7.845486e+01
9.200000e-07	-3.896800e-06	-1.162638e-09	-2.707275e+01	-7.813763e+01
9.300000e-07	-3.863578e-06	-1.155385e-09	-2.684194e+01	-7.781857e+01
9.400000e-07	-3.829879e-06	-1.150369e-09	-2.660782e+01	-7.749781e+01
9.500000e-07	-3.795756e-06	-1.150866e-09	-2.637075e+01	-7.717543e+01
9.600000e-07	-3.761275e-06	-1.144464e-09	-2.613120e+01	-7.685149e+01
9.700000e-07	-3.726398e-06	-1.133159e-09	-2.588889e+01	-7.652604e+01
9.800000e-07	-3.691144e-06	-1.127519e-09	-2.564397e+01	-7.619907e+01
9.900000e-07	-3.655670e-06	-1.122677e-09	-2.539752e+01	-7.587057e+01
1.000000e-06	-3.620079e-06	-1.113354e-09	-2.515025e+01	-7.554047e+01
1.010000e-06	-3.584372e-06	-1.107338e-09	-2.490218e+01	-7.520869e+01
1.020000e-06	-3.548523e-06	-1.105552e-09	-2.465312e+01	-7.487510e+01
1.030000e-06	-3.512497e-06	-1.099027e-09	-2.440283e+01	-7.453954e+01
1.040000e-06	-3.476246e-06	-1.091601e-09	-2.415098e+01	-7.420183e+01
1.050000e-06	-3.439709e-06	-1.087413e-09	-2.389714e+01	-7.386175e+01
1.060000e-06	-3.402888e-06	-1.076462e-09	-2.364133e+01	-7.351904e+01
1.070000e-06	-3.365810e-06	-1.065851e-09	-2.338374e+01	-7.317342e+01
1.080000e-06	-3.328518e-06	-1.063027e-09	-2.312465e+01	-7.282459e+01
1.090000e-06	-3.290996e-06	-1.059943e-09	-2.286396e+01	-7.247220e+01
1.100000e-06	-3.253210e-06	-1.049419e-09	-2.260145e+01	-7.211591e+01
1.110000e-06	-3.215261e-06	-1.039656e-09	-2.233781e+01	-7.175534e+01
1.120000e-06	-3.177129e-06	-1.032635e-09	-2.207289e+01	-7.139010e+01
1.130000e-06	-3.138674e-06	-1.024852e-09	-2.180572e+01	-7.101978e+01
1.140000e-06	-3.099926e-06	-1.017424e-09	-2.153652e+01	-7.064397e+01
1.150000e-06	-3.061015e-06	-1.013156e-09	-2.126619e+01	-7.026225e+01
1.160000e-06	-3.021911e-06	-1.007169e-09	-2.099452e+01	-6.987418e+01
1.170000e-06	-2.982581e-06	-9.997630e-10	-2.072128e+01	-6.947936e+01
1.180000e-06	-2.943132e-06	-9.937964e-10	-2.044721e+01	-6.907735e+01
1.190000e-06	-2.903573e-06	-9.864450e-10	-2.017238e+01	-6.866775e+01
1.200000e-06	-2.863875e-06	-9.769084e-10	-1.989657e+01	-6.825015e+01
1.210000e-06	-2.824046e-06	-9.720673e-10	-1.961986e+01	-6.782418e+01
1.220000e-06	-2.784097e-06	-9.698801e-10	-1.934232e+01	-6.738947e+01
1.230000e-06	-2.743990e-06	-9.648630e-10	-1.906368e+01	-6.694566e+01
1.240000e-06	-2.703633e-06	-9.578074e-10	-1.878330e+01	-6.649244e+01
1.250000e-06	-2.662987e-06	-9.499436e-10	-1.850092e+01	-6.602950e+01
1.260000e-06	-2.621918e-06	-9.412954e-10	-1.821560e+01	-6.555658e+01
1.270000e-06	-2.580573e-06	-9.337991e-10	-1.792835e+01	-6.507343e+01
1.280000e-06	-2.539124e-06	-9.277067e-10	-1.764039e+01	-6.457985e+01
1.290000e-06	-2.497366e-06	-9.199347e-10	-1.735028e+01	-6.407564e+01
1.300000e-06	-2.455232e-06	-9.103906e-10	-1.705756e+01	-6.356067e+01
1.310000e-06	-2.412701e-06	-9.011514e-10	-1.676208e+01	-6.303481e+01
1.320000e-06	-2.369829e-06	-8.932365e-10	-1.646423e+01	-6.249798e+01
1.330000e-06	-2.326863e-06	-8.854874e-10	-1.616572e+01	-6.195010e+01
1.340000e-06	-2.283775e-06	-8.773564e-10	-1.586637e+01	-6.139117e+01
1.350000e-06	-2.240552e-06	-8.683922e-10	-1.556608e+01	-6.082116e+01
1.360000e-06	-2.197247e-06	-8.576606e-10	-1.526522e+01	-6.024009e+01
1.370000e-06	-2.153854e-06	-8.484032e-10	-1.496375e+01	-5.964801e+01
1.380000e-06	-2.110371e-06	-8.428540e-10	-1.466166e+01	-5.904498e+01
1.390000e-06	-2.066756e-06	-8.363147e-10	-1.435864e+01	-5.843106e+01
1.400000e-06	-2.023045e-06	-8.253190e-10	-1.405496e+01	-5.780634e+01
1.410000e-06	-1.979269e-06	-8.133199e-10	-1.375084e+01	-5.717091e+01
1.420000e-06	-1.935418e-06	-8.022252e-10	-1.344618e+01	-5.652487e+01
1.430000e-06	-1.891458e-06	-7.909094e-10	-1.314077e+01	-5.586831e+01
1.440000e-06	-1.847342e-06	-7.812358e-10	-1.283428e+01	-5.520132e+01
1.450000e-06	-1.803033e-06	-7.720111e-10	-1.252645e+01	-5.452398e+01
1.460000e-06	-1.758604e-06	-7.617781e-10	-1.221778e+01	-5.383635e+01
1.470000e-06	-1.714038e-06	-7.497609e-10	-1.190816e+01	-5.313850e+01
1.480000e-06	-1.669278e-06	-7.376276e-10	-1.159719e+01	-5.243045e+01
1.490000e-06	-1.624404e-06	-7.239599e-10	-1.128543e+01	-5.171221e+01
1.500000e-06	-1.579450e-06	-7.110177e-10	-1.097312e+01	-5.098376e+01
1.510000e-06	-1.534407e-06	-7.001615e-10	-1.066019e+01	-5.024503e+01
1.520000e-06	-1.489269e-06	-6.891188e-10	-1.034659e+01	-4.949595e+01
1.530000e-06	-1.444031e-06	-6.754066e-10	-1.003231e+01	-4.873640e+01
1.540000e-06	-1.398741e-06	-6.624550e-10	-9.717654e+00	-4.796621e+01
1.550000e-06	-1.353317e-06	-6.505866e-10	-9.402076e+00	-4.718519e+01
1.560000e-06	-1.307725e-06	-6.384496e-10	-9.085330e+00	-4.639309e+01
1.570000e-06	-1.262071e-06	-6.265317e-10	-8.768152e+00	-4.558963e+01
1.580000e-06	-1.216315e-06	-6.147386e-10	-8.450262e+00	-4.477450e+01
1.590000e-06	-1.170499e-06	-6.034402e-10	-8.131962e+00	-4.394734e+01
1.600000e-06	-1.124588e-06	-5.926186e-10	-7.812996e+00	-4.310775e+01
1.610000e-06	-1.078579e-06	-5.810399e-10	-7.493355e+00	-4.225529e+01
1.620000e-06	-1.032550e-06	-5.693556e-10	-7.173568e+00	-4.138951e+01
1.630000e-06	-9.864393e-07	-5.577332e-10	-6.853219e+00	-4.050990e+01
1.640000e-06	-9.403240e-07	-5.429562e-10	-6.532836e+00	-3.961594e+01
1.650000e-06	-8.942014e-07	-5.261102e-10	-6.212403e+00	-3.870710e+01
1.660000e-06	-8.479949e-07	-5.092191e-10	-5.891386e+00	-3.778280e+01
1.670000e-06	-8.016961e-07	-4.938688e-10	-5.569728e+00	-3.684247e+01
1.680000e-06	-7.553571e-07	-4.800475e-10	-5.247791e+00	-3.588555e+01
1.690000e-06	-7.089668e-07	-4.687281e-10	-4.925498e+00	-3.491143e+01
1.700000e-06	-6.624298e-07	-4.566604e-10	-4.602186e+00	-3.391957e+01
1.710000e-06	-6.158666e-07	-4.410703e-10	-4.278691e+00	-3.290938e+01
1.720000e-06	-5.693866e-07	-4.214457e-10	-3.955774e+00	-3.188034e+01
1.730000e-06	-5.228469e-07	-4.015965e-10	-3.632443e+00	-3.083193e+01
1.740000e-06	-4.761206e-07	-3.835263e-10	-3.307815e+00	-2.976366e+01
1.750000e-06	-4.293147e-07	-3.671745e-10	-2.982634e+00	-2.867510e+01
1.760000e-06	-3.824867e-07	-3.522458e-10	-2.657300e+00	-2.756585e+01
1.770000e-06	-3.355525e-07	-3.379434e-10	-2.331228e+00	-2.643558e+01
1.780000e-06	-2.886102e-07	-3.228980e-10	-2.005099e+00	-2.528399e+01
1.790000e-06	-2.417234e-07	-3.050206e-10	-1.679357e+00	-2.411089e+01
1.800000e-06	-1.948505e-07	-2.835599e-10	-1.353710e+00	-2.291613e+01
1.810000e-06	-1.479973e-07	-2.601118e-10	-1.028201e+00	-2.169964e+01
1.820000e-06	-1.011656e-07	-2.382244e-10	-7.028412e-01	-2.046145e+01
1.830000e-06	-5.429610e-08	-2.200403e-10	-3.772184e-01	-1.920166e+01
1.840000e-06	-7.293026e-09	-2.033926e-10	-5.066779e-02	-1.792047e+01
1.850000e-06	3.969282e-08	-1.870903e-10	2.757632e-01	-1.661816e+01
1.860000e-06	8.654596e-08	-1.706773e-10	6.012721e-01	-1.529513e+01
1.870000e-06	1.333969e-07	-1.519268e-10	9.267658e-01	-1.395185e+01
1.880000e-06	1.802303e-07	-1.315372e-10	1.252137e+00	-1.258891e+01
1.890000e-06	2.270114e-07	-1.108359e-10	1.577146e+00	-1.120699e+01
1.900000e-06	2.738089e-07	-9.022063e-11	1.902268e+00	-9.806854e+00
1.910000e-06	3.205901e-07	-7.129568e-11	2.227278e+00	-8.389381e+00
1.920000e-06	3.673404e-07	-5.410598e-11	2.552072e+00	-6.955535e+00
1.930000e-06	4.140411e-07	-3.706201e-11	2.876522e+00	-5.506372e+00
1.940000e-06	4.606939e-07	-2.030790e-11	3.200639e+00	-4.043032e+00
1.950000e-06	5.073049e-07	-3.018969e-12	3.524466e+00	-2.566739e+00
1.960000e-06	5.538691e-07	1.535509e-11	3.847968e+00	-1.078791e+00
1.970000e-06	6.004500e-07	3.549603e-11	4.171585e+00	4.194435e-01
1.980000e-06	6.469591e-07	5.681465e-11	4.494704e+00	1.926531e+00
1.990000e-06	6.933862e-07	7.899003e-11	4.817253e+00	3.440984e+00
2.000000e-06	7.397579e-07	1.012673e-10	5.139417e+00	4.961265e+00
2.010000e-06	7.860714e-07	1.225870e-10	5.461177e+00	6.485798e+00
2.020000e-06	8.323687e-07	1.422059e-10	5.782825e+00	8.012973e+00
2.030000e-06	8.786135e-07	1.608373e-10	6.104107e+00	9.541161e+00
2.040000e-06	9.247550e-07	1.795425e-10	6.424671e+00	1.106872e+01
2.050000e-06	9.708187e-07	1.986296e-10	6.744696e+00	1.259399e+01
2.060000e-06	1.016860e-06	2.193102e-10	7.064563e+00	1.411534e+01
2.070000e-06	1.062859e-06	2.419252e-10	7.384140e+00	1.563113e+01
2.080000e-06	1.108750e-06	2.649607e-10	7.702963e+00	1.713976e+01
2.090000e-06	1.154497e-06	2.871504e-10	8.020789e+00	1.863966e+01
2.100000e-06	1.200093e-06	3.074275e-10	8.337560e+00	2.012928e+01
2.110000e-06	1.245632e-06	3.261207e-10	8.653945e+00	2.160716e+01
2.120000e-06	1.291155e-06	3.446777e-10	8.970212e+00	2.307186e+01
2.130000e-06	1.336650e-06	3.636637e-10	9.286281e+00	2.452202e+01
2.140000e-06	1.382090e-06	3.824283e-10	9.601977e+00	2.595636e+01
2.150000e-06	1.427441e-06	4.018089e-10	9.917046e+00	2.737366e+01
2.160000e-06	1.472702e-06	4.236839e-10	1.023150e+01	2.877280e+01
2.170000e-06	1.517771e-06	4.467131e-10	1.054461e+01	3.015275e+01
2.180000e-06	1.562685e-06	4.670221e-10	1.085665e+01	3.151255e+01
2.190000e-06	1.607527e-06	4.843344e-10	1.116818e+01	3.285136e+01
2.200000e-06	1.652236e-06	5.014913e-10	1.147880e+01	3.416844e+01
2.210000e-06	1.696795e-06	5.190511e-10	1.178837e+01	3.546314e+01
2.220000e-06	1.741203e-06	5.376712e-10	1.209689e+01	3.673492e+01
2.230000e-06	1.785447e-06	5.551194e-10	1.240427e+01	3.798333e+01
2.240000e-06	1.829623e-06	5.712450e-10	1.271118e+01	3.920803e+01
2.250000e-06	1.873710e-06	5.877986e-10	1.301747e+01	4.040880e+01
2.260000e-06	1.917637e-06	6.036989e-10	1.332265e+01	4.158549e+01
2.270000e-06	1.961445e-06	6.191226e-10	1.362701e+01	4.273805e+01
2.280000e-06	2.005177e-06	6.352361e-10	1.393083e+01	4.386654e+01
2.290000e-06	2.048876e-06	6.501408e-10	1.423443e+01	4.497109e+01
2.300000e-06	2.092549e-06	6.633467e-10	1.453784e+01	4.605191e+01
2.310000e-06	2.136204e-06	6.775184e-10	1.484113e+01	4.710932e+01
2.320000e-06	2.179789e-06	6.925078e-10	1.514393e+01	4.814367e+01
2.330000e-06	2.223210e-06	7.059967e-10	1.544560e+01	4.915539e+01
2.340000e-06	2.266490e-06	7.195029e-10	1.574628e+01	5.014498e+01
2.350000e-06	2.309647e-06	7.337473e-10	1.604612e+01	5.111298e+01
2.360000e-06	2.352601e-06	7.459478e-10	1.634454e+01	5.205998e+01
2.370000e-06	2.395305e-06	7.568913e-10	1.664122e+01	5.298659e+01
2.380000e-06	2.437752e-06	7.684054e-10	1.693611e+01	5.389347e+01
2.390000e-06	2.479878e-06	7.823236e-10	1.722878e+01	5.478130e+01
2.400000e-06	2.521607e-06	7.982535e-10	1.751869e+01	5.565075e+01
2.410000e-06	2.562934e-06	8.148993e-10	1.780581e+01	5.650252e+01
2.420000e-06	2.604027e-06	8.313825e-10	1.809130e+01	5.733731e+01
2.430000e-06	2.644948e-06	8.456029e-10	1.837559e+01	5.815581e+01
2.440000e-06	2.685688e-06	8.570588e-10	1.865864e+01	5.895868e+01
2.450000e-06	2.726159e-06	8.665499e-10	1.893980e+01	5.974658e+01
2.460000e-06	2.766288e-06	8.750405e-10	1.921859e+01	6.052015e+01
2.470000e-06	2.806237e-06	8.850131e-10	1.949614e+01	6.127997e+01
2.480000e-06	2.846068e-06	8.962633e-10	1.977286e+01	6.202663e+01
2.490000e-06	2.885781e-06	9.079781e-10	2.004877e+01	6.276064e+01
2.500000e-06	2.925313e-06	9.198767e-10	2.032341e+01	6.348248e+01
2.510000e-06	2.964681e-06	9.316022e-10	2.059691e+01	6.419261e+01
2.520000e-06	3.003948e-06	9.424341e-10	2.086972e+01	6.489141e+01
2.530000e-06	3.043029e-06	9.516088e-10	2.114124e+01	6.557923e+01
2.540000e-06	3.081877e-06	9.613268e-10	2.141113e+01	6.625638e+01
2.550000e-06	3.120471e-06	9.674656e-10	2.167926e+01	6.692309e+01
2.560000e-06	3.158808e-06	9.721268e-10	2.194560e+01	6.757956e+01
2.570000e-06	3.196951e-06	9.789123e-10	2.221060e+01	6.822596e+01
2.580000e-06	3.234939e-06	9.895017e-10	2.247451e+01	6.886239e+01
2.590000e-06	3.272698e-06	1.000787e-09	2.273684e+01	6.948891e+01
2.600000e-06	3.310227e-06	1.013179e-09	2.299758e+01	7.010553e+01
2.610000e-06	3.347547e-06	1.027190e-09	2.325686e+01	7.071226e+01
2.620000e-06	3.384633e-06	1.035404e-09	2.351451e+01	7.130903e+01
2.630000e-06	3.421511e-06	1.041610e-09	2.377071e+01	7.189576e+01
2.640000e-06	3.458137e-06	1.045394e-09	2.402517e+01	7.247234e+01
2.650000e-06	3.494434e-06	1.048695e-09	2.427734e+01	7.303865e+01
2.660000e-06	3.530454e-06	1.054986e-09	2.452759e+01	7.359452e+01
2.670000e-06	3.566293e-06	1.063508e-09	2.477657e+01	7.413980e+01
2.680000e-06	3.602001e-06	1.075388e-09	2.502465e+01	7.467432e+01
2.690000e-06	3.637624e-06	1.087424e-09	2.527214e+01	7.519790e+01
2.700000e-06	3.673162e-06	1.096773e-09	2.551904e+01	7.571036e+01
2.710000e-06	3.708510e-06	1.101879e-09	2.576461e+01	7.621153e+01
2.720000e-06	3.743561e-06	1.105246e-09	2.600813e+01	7.670126e+01
2.730000e-06	3.778210e-06	1.110197e-09	2.624885e+01	7.717939e+01
2.740000e-06	3.812408e-06	1.115349e-09	2.648644e+01	7.764579e+01
2.750000e-06	3.846271e-06	1.122063e-09	2.672170e+01	7.810035e+01
2.760000e-06	3.879723e-06	1.129900e-09	2.695411e+01	7.854300e+01
2.770000e-06	3.912684e-06	1.137883e-09	2.718310e+01	7.897367e+01
2.780000e-06	3.945187e-06	1.144801e-09	2.740891e+01	7.939233e+01
2.790000e-06	3.977361e-06	1.150962e-09	2.763244e+01	7.979898e+01
2.800000e-06	4.009384e-06	1.155796e-09	2.785492e+01	8.019367e+01
2.810000e-06	4.041206e-06	1.157474e-09	2.807600e+01	8.057647e+01
2.820000e-06	4.072811e-06	1.160477e-09	2.829557e+01	8.094747e+01
2.830000e-06	4.104281e-06	1.164721e-09	2.851421e+01	8.130683e+01
2.840000e-06	4.135556e-06	1.170465e-09	2.873149e+01	8.165471e+01
2.850000e-06	4.166556e-06	1.177252e-09	2.894686e+01	8.199133e+01
2.860000e-06	4.197242e-06	1.182992e-09	2.916005e+01	8.231694e+01
2.870000e-06	4.227561e-06	1.187011e-09	2.937069e+01	8.263180e+01
2.880000e-06	4.257617e-06	1.190374e-09	2.957950e+01	8.293622e+01
2.890000e-06	4.287427e-06	1.194938e-09	2.978660e+01	8.323054e+01
2.900000e-06	4.316853e-06	1.200327e-09	2.999104e+01	8.351511e+01
