# Temperatura_=_-5.24
# Concentracion g/m^3_=_1620.0
# C_Vs_to_Am_M_A/Vsm_=_65563218390.804596
# pendiente_HvsI_1/m_=_3716.3
# ordenada_HvsI_A/m_=_1297.0
# frecuencia_Hz_=_135096.546120978

Tiempo_(s)	Campo_(V.s)	Magnetizacion_(V.s)	Campo_(kA/m)	Magnetizacion_(A/m)
0.000000e+00	-5.522139e-06	-9.910231e-10	-3.837431e+01	-6.523042e+01
1.000000e-08	-5.522441e-06	-9.942845e-10	-3.837641e+01	-6.523844e+01
2.000000e-08	-5.522417e-06	-9.983671e-10	-3.837624e+01	-6.524422e+01
3.000000e-08	-5.521935e-06	-1.001208e-09	-3.837289e+01	-6.524757e+01
4.000000e-08	-5.520920e-06	-9.982450e-10	-3.836584e+01	-6.524829e+01
5.000000e-08	-5.519278e-06	-9.913434e-10	-3.835443e+01	-6.524619e+01
6.000000e-08	-5.517077e-06	-9.805352e-10	-3.833913e+01	-6.524111e+01
7.000000e-08	-5.514408e-06	-9.915921e-10	-3.832059e+01	-6.523288e+01
8.000000e-08	-5.511277e-06	-1.040554e-09	-3.829883e+01	-6.522136e+01
9.000000e-08	-5.507650e-06	-1.048382e-09	-3.827363e+01	-6.520642e+01
1.000000e-07	-5.503493e-06	-9.455860e-10	-3.824474e+01	-6.518794e+01
1.100000e-07	-5.499095e-06	-8.750755e-10	-3.821418e+01	-6.516583e+01
1.200000e-07	-5.494551e-06	-9.657506e-10	-3.818260e+01	-6.514001e+01
1.300000e-07	-5.489617e-06	-1.084285e-09	-3.814831e+01	-6.511041e+01
1.400000e-07	-5.484227e-06	-1.021901e-09	-3.811086e+01	-6.507700e+01
1.500000e-07	-5.478484e-06	-8.834110e-10	-3.807095e+01	-6.503976e+01
1.600000e-07	-5.472489e-06	-9.498465e-10	-3.802929e+01	-6.499866e+01
1.700000e-07	-5.466087e-06	-1.077358e-09	-3.798480e+01	-6.495374e+01
1.800000e-07	-5.459238e-06	-1.038638e-09	-3.793721e+01	-6.490501e+01
1.900000e-07	-5.452041e-06	-9.048442e-10	-3.788719e+01	-6.485253e+01
2.000000e-07	-5.444591e-06	-9.276488e-10	-3.783542e+01	-6.479635e+01
2.100000e-07	-5.436862e-06	-1.078037e-09	-3.778171e+01	-6.473655e+01
2.200000e-07	-5.428811e-06	-1.086945e-09	-3.772576e+01	-6.467322e+01
2.300000e-07	-5.420426e-06	-9.912134e-10	-3.766749e+01	-6.460645e+01
2.400000e-07	-5.411550e-06	-9.551918e-10	-3.760581e+01	-6.453636e+01
2.500000e-07	-5.401900e-06	-1.026116e-09	-3.753875e+01	-6.446307e+01
2.600000e-07	-5.391554e-06	-1.030972e-09	-3.746685e+01	-6.438669e+01
2.700000e-07	-5.380894e-06	-9.755321e-10	-3.739278e+01	-6.430737e+01
2.800000e-07	-5.369832e-06	-9.611075e-10	-3.731591e+01	-6.422522e+01
2.900000e-07	-5.358257e-06	-1.013965e-09	-3.723547e+01	-6.414040e+01
3.000000e-07	-5.346293e-06	-1.002332e-09	-3.715233e+01	-6.405303e+01
3.100000e-07	-5.333924e-06	-9.511534e-10	-3.706637e+01	-6.396325e+01
3.200000e-07	-5.321054e-06	-9.605321e-10	-3.697694e+01	-6.387118e+01
3.300000e-07	-5.307789e-06	-1.013273e-09	-3.688476e+01	-6.377695e+01
3.400000e-07	-5.294261e-06	-9.947872e-10	-3.679075e+01	-6.368068e+01
3.500000e-07	-5.280276e-06	-9.403827e-10	-3.669356e+01	-6.358247e+01
3.600000e-07	-5.265690e-06	-9.627298e-10	-3.659220e+01	-6.348244e+01
3.700000e-07	-5.250651e-06	-9.948218e-10	-3.648769e+01	-6.338067e+01
3.800000e-07	-5.235096e-06	-9.567940e-10	-3.637960e+01	-6.327724e+01
3.900000e-07	-5.218946e-06	-9.408318e-10	-3.626737e+01	-6.317222e+01
4.000000e-07	-5.202396e-06	-9.867903e-10	-3.615236e+01	-6.306567e+01
4.100000e-07	-5.185574e-06	-9.727081e-10	-3.603546e+01	-6.295762e+01
4.200000e-07	-5.168475e-06	-9.270031e-10	-3.591664e+01	-6.284812e+01
4.300000e-07	-5.150988e-06	-9.690412e-10	-3.579512e+01	-6.273718e+01
4.400000e-07	-5.133239e-06	-1.011720e-09	-3.567178e+01	-6.262481e+01
4.500000e-07	-5.115151e-06	-9.347804e-10	-3.554608e+01	-6.251099e+01
4.600000e-07	-5.096541e-06	-9.070624e-10	-3.541675e+01	-6.239572e+01
4.700000e-07	-5.077633e-06	-9.655595e-10	-3.528536e+01	-6.227895e+01
4.800000e-07	-5.058475e-06	-9.698946e-10	-3.515223e+01	-6.216066e+01
4.900000e-07	-5.039036e-06	-9.188191e-10	-3.501714e+01	-6.204080e+01
5.000000e-07	-5.019401e-06	-9.518699e-10	-3.488070e+01	-6.191930e+01
5.100000e-07	-4.999490e-06	-9.665287e-10	-3.474233e+01	-6.179610e+01
5.200000e-07	-4.979189e-06	-9.299027e-10	-3.460126e+01	-6.167113e+01
5.300000e-07	-4.958539e-06	-9.441611e-10	-3.445776e+01	-6.154433e+01
5.400000e-07	-4.937539e-06	-9.783526e-10	-3.431182e+01	-6.141561e+01
5.500000e-07	-4.916155e-06	-9.208529e-10	-3.416322e+01	-6.128490e+01
5.600000e-07	-4.894504e-06	-8.961245e-10	-3.401277e+01	-6.115211e+01
5.700000e-07	-4.872606e-06	-9.446383e-10	-3.386060e+01	-6.101718e+01
5.800000e-07	-4.850232e-06	-9.478551e-10	-3.370511e+01	-6.088003e+01
5.900000e-07	-4.827448e-06	-9.081633e-10	-3.354678e+01	-6.074058e+01
6.000000e-07	-4.804407e-06	-9.304360e-10	-3.338667e+01	-6.059879e+01
6.100000e-07	-4.781110e-06	-9.443326e-10	-3.322477e+01	-6.045459e+01
6.200000e-07	-4.757640e-06	-9.116338e-10	-3.306168e+01	-6.030793e+01
6.300000e-07	-4.733977e-06	-9.052484e-10	-3.289724e+01	-6.015878e+01
6.400000e-07	-4.709960e-06	-9.189518e-10	-3.273034e+01	-6.000710e+01
6.500000e-07	-4.685486e-06	-9.050116e-10	-3.256027e+01	-5.985289e+01
6.600000e-07	-4.660509e-06	-8.990106e-10	-3.238669e+01	-5.969612e+01
6.700000e-07	-4.634983e-06	-9.163680e-10	-3.220931e+01	-5.953681e+01
6.800000e-07	-4.609022e-06	-9.107593e-10	-3.202890e+01	-5.937498e+01
6.900000e-07	-4.582585e-06	-9.020238e-10	-3.184519e+01	-5.921065e+01
7.000000e-07	-4.555657e-06	-9.074102e-10	-3.165806e+01	-5.904386e+01
7.100000e-07	-4.528409e-06	-9.016164e-10	-3.146871e+01	-5.887466e+01
7.200000e-07	-4.500909e-06	-8.844206e-10	-3.127761e+01	-5.870312e+01
7.300000e-07	-4.473210e-06	-8.865090e-10	-3.108512e+01	-5.852931e+01
7.400000e-07	-4.445329e-06	-8.874397e-10	-3.089137e+01	-5.835330e+01
7.500000e-07	-4.417280e-06	-8.852519e-10	-3.069646e+01	-5.817520e+01
7.600000e-07	-4.388930e-06	-8.841320e-10	-3.049944e+01	-5.799509e+01
7.700000e-07	-4.360141e-06	-8.858703e-10	-3.029939e+01	-5.781308e+01
7.800000e-07	-4.331012e-06	-8.779127e-10	-3.009696e+01	-5.762927e+01
7.900000e-07	-4.301611e-06	-8.763377e-10	-2.989265e+01	-5.744378e+01
8.000000e-07	-4.271960e-06	-8.685917e-10	-2.968660e+01	-5.725672e+01
8.100000e-07	-4.242056e-06	-8.589110e-10	-2.947879e+01	-5.706820e+01
8.200000e-07	-4.211810e-06	-8.583169e-10	-2.926861e+01	-5.687833e+01
8.300000e-07	-4.181258e-06	-8.679634e-10	-2.905629e+01	-5.668721e+01
8.400000e-07	-4.150418e-06	-8.639412e-10	-2.884198e+01	-5.649494e+01
8.500000e-07	-4.119352e-06	-8.582334e-10	-2.862610e+01	-5.630162e+01
8.600000e-07	-4.088075e-06	-8.560733e-10	-2.840875e+01	-5.610734e+01
8.700000e-07	-4.056522e-06	-8.468173e-10	-2.818948e+01	-5.591215e+01
8.800000e-07	-4.024776e-06	-8.325109e-10	-2.796887e+01	-5.571614e+01
8.900000e-07	-3.992881e-06	-8.310787e-10	-2.774723e+01	-5.551934e+01
9.000000e-07	-3.960760e-06	-8.288785e-10	-2.752401e+01	-5.532179e+01
9.100000e-07	-3.928312e-06	-8.227095e-10	-2.729853e+01	-5.512351e+01
9.200000e-07	-3.895526e-06	-8.258544e-10	-2.707070e+01	-5.492451e+01
9.300000e-07	-3.862203e-06	-8.300028e-10	-2.683913e+01	-5.472476e+01
9.400000e-07	-3.828374e-06	-8.206401e-10	-2.660404e+01	-5.452424e+01
9.500000e-07	-3.794156e-06	-8.118568e-10	-2.636625e+01	-5.432290e+01
9.600000e-07	-3.759597e-06	-8.127083e-10	-2.612610e+01	-5.412067e+01
9.700000e-07	-3.724695e-06	-8.065605e-10	-2.588356e+01	-5.391746e+01
9.800000e-07	-3.689396e-06	-7.968551e-10	-2.563826e+01	-5.371316e+01
9.900000e-07	-3.653875e-06	-7.956332e-10	-2.539142e+01	-5.350765e+01
1.000000e-06	-3.618228e-06	-7.973747e-10	-2.514370e+01	-5.330080e+01
1.010000e-06	-3.582474e-06	-7.918318e-10	-2.489524e+01	-5.309243e+01
1.020000e-06	-3.546612e-06	-7.928838e-10	-2.464603e+01	-5.288238e+01
1.030000e-06	-3.510625e-06	-7.950250e-10	-2.439595e+01	-5.267047e+01
1.040000e-06	-3.474432e-06	-7.898476e-10	-2.414444e+01	-5.245648e+01
1.050000e-06	-3.437913e-06	-7.801134e-10	-2.389066e+01	-5.224020e+01
1.060000e-06	-3.401049e-06	-7.732313e-10	-2.363449e+01	-5.202142e+01
1.070000e-06	-3.363923e-06	-7.643627e-10	-2.337649e+01	-5.179989e+01
1.080000e-06	-3.326555e-06	-7.592366e-10	-2.311681e+01	-5.157538e+01
1.090000e-06	-3.288932e-06	-7.578683e-10	-2.285536e+01	-5.134765e+01
1.100000e-06	-3.251126e-06	-7.562473e-10	-2.259264e+01	-5.111643e+01
1.110000e-06	-3.213179e-06	-7.508984e-10	-2.232894e+01	-5.088149e+01
1.120000e-06	-3.174960e-06	-7.494381e-10	-2.206336e+01	-5.064256e+01
1.130000e-06	-3.136437e-06	-7.455677e-10	-2.179565e+01	-5.039941e+01
1.140000e-06	-3.097719e-06	-7.357897e-10	-2.152660e+01	-5.015178e+01
1.150000e-06	-3.058888e-06	-7.248648e-10	-2.125675e+01	-4.989944e+01
1.160000e-06	-3.019900e-06	-7.185175e-10	-2.098582e+01	-4.964215e+01
1.170000e-06	-2.980659e-06	-7.150275e-10	-2.071312e+01	-4.937969e+01
1.180000e-06	-2.941233e-06	-7.153616e-10	-2.043914e+01	-4.911183e+01
1.190000e-06	-2.901676e-06	-7.163965e-10	-2.016426e+01	-4.883839e+01
1.200000e-06	-2.861995e-06	-7.150482e-10	-1.988851e+01	-4.855916e+01
1.210000e-06	-2.822201e-06	-7.102218e-10	-1.961197e+01	-4.827396e+01
1.220000e-06	-2.782224e-06	-7.053020e-10	-1.933416e+01	-4.798264e+01
1.230000e-06	-2.742041e-06	-7.007651e-10	-1.905493e+01	-4.768502e+01
1.240000e-06	-2.701721e-06	-6.949396e-10	-1.877474e+01	-4.738099e+01
1.250000e-06	-2.661263e-06	-6.899408e-10	-1.849359e+01	-4.707040e+01
1.260000e-06	-2.620591e-06	-6.882638e-10	-1.821095e+01	-4.675316e+01
1.270000e-06	-2.579552e-06	-6.873149e-10	-1.792576e+01	-4.642915e+01
1.280000e-06	-2.538155e-06	-6.822457e-10	-1.763808e+01	-4.609831e+01
1.290000e-06	-2.496498e-06	-6.760835e-10	-1.734860e+01	-4.576055e+01
1.300000e-06	-2.454509e-06	-6.693843e-10	-1.705682e+01	-4.541581e+01
1.310000e-06	-2.412162e-06	-6.624306e-10	-1.676254e+01	-4.506404e+01
1.320000e-06	-2.369629e-06	-6.545278e-10	-1.646696e+01	-4.470520e+01
1.330000e-06	-2.326910e-06	-6.500387e-10	-1.617010e+01	-4.433925e+01
1.340000e-06	-2.283875e-06	-6.471707e-10	-1.587105e+01	-4.396615e+01
1.350000e-06	-2.240652e-06	-6.410210e-10	-1.557069e+01	-4.358588e+01
1.360000e-06	-2.197358e-06	-6.308139e-10	-1.526983e+01	-4.319841e+01
1.370000e-06	-2.153922e-06	-6.220305e-10	-1.496798e+01	-4.280371e+01
1.380000e-06	-2.110336e-06	-6.152392e-10	-1.466509e+01	-4.240176e+01
1.390000e-06	-2.066629e-06	-6.102217e-10	-1.436137e+01	-4.199251e+01
1.400000e-06	-2.022838e-06	-6.062072e-10	-1.405705e+01	-4.157594e+01
1.410000e-06	-1.979003e-06	-6.027823e-10	-1.375244e+01	-4.115198e+01
1.420000e-06	-1.935134e-06	-5.981827e-10	-1.344758e+01	-4.072058e+01
1.430000e-06	-1.891180e-06	-5.927614e-10	-1.314214e+01	-4.028168e+01
1.440000e-06	-1.847097e-06	-5.843968e-10	-1.283580e+01	-3.983518e+01
1.450000e-06	-1.802818e-06	-5.755023e-10	-1.252810e+01	-3.938100e+01
1.460000e-06	-1.758355e-06	-5.646478e-10	-1.221912e+01	-3.891902e+01
1.470000e-06	-1.713741e-06	-5.520721e-10	-1.190909e+01	-3.844910e+01
1.480000e-06	-1.668948e-06	-5.392957e-10	-1.159781e+01	-3.797111e+01
1.490000e-06	-1.624145e-06	-5.281385e-10	-1.128647e+01	-3.748487e+01
1.500000e-06	-1.579305e-06	-5.216703e-10	-1.097487e+01	-3.699020e+01
1.510000e-06	-1.534285e-06	-5.177135e-10	-1.066201e+01	-3.648689e+01
1.520000e-06	-1.489183e-06	-5.114794e-10	-1.034859e+01	-3.597473e+01
1.530000e-06	-1.443983e-06	-5.015038e-10	-1.003449e+01	-3.545346e+01
1.540000e-06	-1.398628e-06	-4.885657e-10	-9.719311e+00	-3.492284e+01
1.550000e-06	-1.353161e-06	-4.731493e-10	-9.403354e+00	-3.438258e+01
1.560000e-06	-1.307518e-06	-4.570399e-10	-9.086172e+00	-3.383240e+01
1.570000e-06	-1.261853e-06	-4.442527e-10	-8.768841e+00	-3.327199e+01
1.580000e-06	-1.216187e-06	-4.367935e-10	-8.451494e+00	-3.270104e+01
1.590000e-06	-1.170426e-06	-4.302559e-10	-8.133499e+00	-3.211921e+01
1.600000e-06	-1.124638e-06	-4.233633e-10	-7.815303e+00	-3.152617e+01
1.610000e-06	-1.078771e-06	-4.153170e-10	-7.496571e+00	-3.092158e+01
1.620000e-06	-1.032769e-06	-4.050656e-10	-7.176890e+00	-3.030510e+01
1.630000e-06	-9.866612e-07	-3.905650e-10	-6.856482e+00	-2.967639e+01
1.640000e-06	-9.404813e-07	-3.729484e-10	-6.535569e+00	-2.903511e+01
1.650000e-06	-8.942769e-07	-3.567417e-10	-6.214487e+00	-2.838092e+01
1.660000e-06	-8.480256e-07	-3.452522e-10	-5.893078e+00	-2.771351e+01
1.670000e-06	-8.016819e-07	-3.373831e-10	-5.571028e+00	-2.703256e+01
1.680000e-06	-7.552175e-07	-3.291649e-10	-5.248139e+00	-2.633778e+01
1.690000e-06	-7.087521e-07	-3.191159e-10	-4.925242e+00	-2.562890e+01
1.700000e-06	-6.622822e-07	-3.076387e-10	-4.602315e+00	-2.490567e+01
1.710000e-06	-6.157581e-07	-2.938299e-10	-4.279011e+00	-2.416786e+01
1.720000e-06	-5.692004e-07	-2.790036e-10	-3.955474e+00	-2.341528e+01
1.730000e-06	-5.225203e-07	-2.644566e-10	-3.631085e+00	-2.264777e+01
1.740000e-06	-4.757757e-07	-2.510961e-10	-3.306249e+00	-2.186520e+01
1.750000e-06	-4.290467e-07	-2.395155e-10	-2.981521e+00	-2.106748e+01
1.760000e-06	-3.822526e-07	-2.291258e-10	-2.656341e+00	-2.025457e+01
1.770000e-06	-3.353761e-07	-2.184941e-10	-2.330588e+00	-1.942646e+01
1.780000e-06	-2.884802e-07	-2.082664e-10	-2.004699e+00	-1.858318e+01
1.790000e-06	-2.415365e-07	-1.954050e-10	-1.678479e+00	-1.772482e+01
1.800000e-06	-1.946793e-07	-1.778287e-10	-1.352860e+00	-1.685153e+01
1.810000e-06	-1.479497e-07	-1.600011e-10	-1.028129e+00	-1.596347e+01
1.820000e-06	-1.011311e-07	-1.448308e-10	-7.027774e-01	-1.506087e+01
1.830000e-06	-5.421060e-08	-1.332763e-10	-3.767190e-01	-1.414403e+01
1.840000e-06	-7.323801e-09	-1.231369e-10	-5.089438e-02	-1.321327e+01
1.850000e-06	3.950865e-08	-1.147253e-10	2.745525e-01	-1.226896e+01
1.860000e-06	8.624804e-08	-1.069459e-10	5.993528e-01	-1.131154e+01
1.870000e-06	1.330617e-07	-9.513690e-11	9.246694e-01	-1.034148e+01
1.880000e-06	1.799277e-07	-7.979001e-11	1.250349e+00	-9.359301e+00
1.890000e-06	2.267428e-07	-6.383886e-11	1.575675e+00	-8.365572e+00
1.900000e-06	2.736048e-07	-4.836781e-11	1.901327e+00	-7.360899e+00
1.910000e-06	3.204600e-07	-3.476823e-11	2.226933e+00	-6.345931e+00
1.920000e-06	3.672605e-07	-2.406196e-11	2.552158e+00	-5.321351e+00
1.930000e-06	4.139568e-07	-1.440828e-11	2.876659e+00	-4.287880e+00
1.940000e-06	4.606021e-07	-3.771451e-12	3.200805e+00	-3.246268e+00
1.950000e-06	5.072340e-07	8.175097e-12	3.524858e+00	-2.197295e+00
1.960000e-06	5.538587e-07	2.101145e-11	3.848862e+00	-1.141763e+00
1.970000e-06	6.004379e-07	3.496052e-11	4.172548e+00	-8.049803e-02
1.980000e-06	6.469631e-07	5.143137e-11	4.495860e+00	9.856601e-01
1.990000e-06	6.934230e-07	6.944882e-11	4.818718e+00	2.055856e+00
2.000000e-06	7.397731e-07	8.628838e-11	5.140813e+00	3.129227e+00
2.010000e-06	7.860870e-07	9.925873e-11	5.462657e+00	4.204902e+00
2.020000e-06	8.323670e-07	1.093196e-10	5.784264e+00	5.282010e+00
2.030000e-06	8.785976e-07	1.204209e-10	6.105529e+00	6.359684e+00
2.040000e-06	9.247442e-07	1.318304e-10	6.426210e+00	7.437058e+00
2.050000e-06	9.708031e-07	1.449748e-10	6.746281e+00	8.513281e+00
2.060000e-06	1.016861e-06	1.606980e-10	7.066345e+00	9.587512e+00
2.070000e-06	1.062855e-06	1.784292e-10	7.385966e+00	1.065893e+01
2.080000e-06	1.108809e-06	1.959916e-10	7.705306e+00	1.172672e+01
2.090000e-06	1.154708e-06	2.115535e-10	8.024271e+00	1.279011e+01
2.100000e-06	1.200421e-06	2.263260e-10	8.341936e+00	1.384834e+01
2.110000e-06	1.246003e-06	2.388644e-10	8.658696e+00	1.490068e+01
2.120000e-06	1.291544e-06	2.518117e-10	8.975163e+00	1.594643e+01
2.130000e-06	1.337044e-06	2.663674e-10	9.291354e+00	1.698492e+01
2.140000e-06	1.382476e-06	2.798559e-10	9.607066e+00	1.801552e+01
2.150000e-06	1.427837e-06	2.928325e-10	9.922287e+00	1.903762e+01
2.160000e-06	1.473091e-06	3.074313e-10	1.023677e+01	2.005067e+01
2.170000e-06	1.518226e-06	3.235008e-10	1.055042e+01	2.105412e+01
2.180000e-06	1.563171e-06	3.388090e-10	1.086275e+01	2.204749e+01
2.190000e-06	1.607936e-06	3.537122e-10	1.117383e+01	2.303032e+01
2.200000e-06	1.652571e-06	3.672459e-10	1.148401e+01	2.400218e+01
2.210000e-06	1.697069e-06	3.794664e-10	1.179323e+01	2.496271e+01
2.220000e-06	1.741443e-06	3.927591e-10	1.210159e+01	2.591153e+01
2.230000e-06	1.785762e-06	4.065035e-10	1.240957e+01	2.684835e+01
2.240000e-06	1.830043e-06	4.195198e-10	1.271729e+01	2.777289e+01
2.250000e-06	1.874177e-06	4.327080e-10	1.302398e+01	2.868488e+01
2.260000e-06	1.918256e-06	4.468861e-10	1.333029e+01	2.958411e+01
2.270000e-06	1.962248e-06	4.602000e-10	1.363600e+01	3.047040e+01
2.280000e-06	2.006035e-06	4.709085e-10	1.394029e+01	3.134357e+01
2.290000e-06	2.049728e-06	4.814410e-10	1.424392e+01	3.220350e+01
2.300000e-06	2.093373e-06	4.924167e-10	1.454722e+01	3.305007e+01
2.310000e-06	2.136973e-06	5.038125e-10	1.485020e+01	3.388319e+01
2.320000e-06	2.180510e-06	5.155727e-10	1.515275e+01	3.470278e+01
2.330000e-06	2.223908e-06	5.257155e-10	1.545432e+01	3.550878e+01
2.340000e-06	2.267174e-06	5.351413e-10	1.575499e+01	3.630117e+01
2.350000e-06	2.310307e-06	5.444480e-10	1.605473e+01	3.707991e+01
2.360000e-06	2.353151e-06	5.558173e-10	1.635246e+01	3.784500e+01
2.370000e-06	2.395753e-06	5.661083e-10	1.664851e+01	3.859642e+01
2.380000e-06	2.438117e-06	5.772510e-10	1.694290e+01	3.933419e+01
2.390000e-06	2.480073e-06	5.901689e-10	1.723446e+01	4.005831e+01
2.400000e-06	2.521655e-06	6.002923e-10	1.752342e+01	4.076881e+01
2.410000e-06	2.563030e-06	6.101346e-10	1.781095e+01	4.146571e+01
2.420000e-06	2.604211e-06	6.205066e-10	1.809712e+01	4.214904e+01
2.430000e-06	2.645127e-06	6.287292e-10	1.838145e+01	4.281883e+01
2.440000e-06	2.685755e-06	6.365936e-10	1.866378e+01	4.347511e+01
2.450000e-06	2.726152e-06	6.474158e-10	1.894451e+01	4.411792e+01
2.460000e-06	2.766330e-06	6.576231e-10	1.922371e+01	4.474730e+01
2.470000e-06	2.806292e-06	6.655011e-10	1.950142e+01	4.536329e+01
2.480000e-06	2.846158e-06	6.723501e-10	1.977845e+01	4.596592e+01
2.490000e-06	2.885953e-06	6.793674e-10	2.005500e+01	4.655524e+01
2.500000e-06	2.925598e-06	6.860401e-10	2.033050e+01	4.713129e+01
2.510000e-06	2.965091e-06	6.929885e-10	2.060493e+01	4.769412e+01
2.520000e-06	3.004347e-06	6.986071e-10	2.087773e+01	4.824378e+01
2.530000e-06	3.043366e-06	7.021828e-10	2.114889e+01	4.878032e+01
2.540000e-06	3.082179e-06	7.052671e-10	2.141861e+01	4.930380e+01
2.550000e-06	3.120743e-06	7.092348e-10	2.168659e+01	4.981430e+01
2.560000e-06	3.159148e-06	7.163196e-10	2.195347e+01	5.031186e+01
2.570000e-06	3.197409e-06	7.258546e-10	2.221935e+01	5.079658e+01
2.580000e-06	3.235482e-06	7.336462e-10	2.248393e+01	5.126854e+01
2.590000e-06	3.273301e-06	7.396185e-10	2.274674e+01	5.172783e+01
2.600000e-06	3.310886e-06	7.449637e-10	2.300793e+01	5.217455e+01
2.610000e-06	3.348295e-06	7.506118e-10	2.326789e+01	5.260883e+01
2.620000e-06	3.385434e-06	7.548245e-10	2.352598e+01	5.303079e+01
2.630000e-06	3.422300e-06	7.569146e-10	2.378216e+01	5.344057e+01
2.640000e-06	3.458944e-06	7.585541e-10	2.403681e+01	5.383831e+01
2.650000e-06	3.495300e-06	7.615652e-10	2.428946e+01	5.422419e+01
2.660000e-06	3.531447e-06	7.668677e-10	2.454065e+01	5.459837e+01
2.670000e-06	3.567408e-06	7.722318e-10	2.479054e+01	5.496106e+01
2.680000e-06	3.603189e-06	7.771700e-10	2.503919e+01	5.531246e+01
2.690000e-06	3.638866e-06	7.823151e-10	2.528711e+01	5.565278e+01
2.700000e-06	3.674436e-06	7.885312e-10	2.553430e+01	5.598226e+01
2.710000e-06	3.709775e-06	7.939223e-10	2.577987e+01	5.630115e+01
2.720000e-06	3.744789e-06	8.008814e-10	2.602320e+01	5.660969e+01
2.730000e-06	3.779478e-06	8.091942e-10	2.626426e+01	5.690817e+01
2.740000e-06	3.813760e-06	8.143986e-10	2.650249e+01	5.719685e+01
2.750000e-06	3.847602e-06	8.172956e-10	2.673766e+01	5.747603e+01
2.760000e-06	3.881028e-06	8.198602e-10	2.696994e+01	5.774601e+01
2.770000e-06	3.914132e-06	8.228237e-10	2.719999e+01	5.800709e+01
2.780000e-06	3.946869e-06	8.285787e-10	2.742749e+01	5.825958e+01
2.790000e-06	3.979168e-06	8.359181e-10	2.765193e+01	5.850379e+01
2.800000e-06	4.011205e-06	8.430589e-10	2.787457e+01	5.874005e+01
2.810000e-06	4.043051e-06	8.496397e-10	2.809587e+01	5.896866e+01
2.820000e-06	4.074697e-06	8.549394e-10	2.831579e+01	5.918996e+01
2.830000e-06	4.106121e-06	8.571223e-10	2.853415e+01	5.940425e+01
2.840000e-06	4.137239e-06	8.559495e-10	2.875040e+01	5.961185e+01
2.850000e-06	4.168105e-06	8.557744e-10	2.896489e+01	5.981306e+01
2.860000e-06	4.198680e-06	8.588147e-10	2.917736e+01	6.000818e+01
2.870000e-06	4.228976e-06	8.640354e-10	2.938789e+01	6.019749e+01
2.880000e-06	4.259039e-06	8.712324e-10	2.959681e+01	6.038129e+01
2.890000e-06	4.288788e-06	8.784972e-10	2.980354e+01	6.055982e+01
2.900000e-06	4.318233e-06	8.833528e-10	3.000816e+01	6.073336e+01
