# Temperatura_=_7.5
# Concentracion g/m^3_=_1620.0
# C_Vs_to_Am_M_A/Vsm_=_65563218390.804596
# pendiente_HvsI_1/m_=_3716.3
# ordenada_HvsI_A/m_=_1297.0
# frecuencia_Hz_=_135105.7779342811

Tiempo_(s)	Campo_(V.s)	Magnetizacion_(V.s)	Campo_(kA/m)	Magnetizacion_(A/m)
0.000000e+00	-5.527792e-06	-7.588784e-10	-3.837980e+01	-5.078318e+01
1.000000e-08	-5.527927e-06	-7.577898e-10	-3.838073e+01	-5.079836e+01
2.000000e-08	-5.527750e-06	-7.592728e-10	-3.837951e+01	-5.081410e+01
3.000000e-08	-5.527146e-06	-7.600862e-10	-3.837531e+01	-5.083024e+01
4.000000e-08	-5.526030e-06	-7.595885e-10	-3.836756e+01	-5.084666e+01
5.000000e-08	-5.524348e-06	-7.571549e-10	-3.835588e+01	-5.086318e+01
6.000000e-08	-5.522016e-06	-7.452318e-10	-3.833970e+01	-5.087962e+01
7.000000e-08	-5.519154e-06	-7.427351e-10	-3.831982e+01	-5.089580e+01
8.000000e-08	-5.515897e-06	-7.576180e-10	-3.829721e+01	-5.091153e+01
9.000000e-08	-5.512175e-06	-7.741897e-10	-3.827137e+01	-5.092659e+01
1.000000e-07	-5.508015e-06	-7.734359e-10	-3.824249e+01	-5.094078e+01
1.100000e-07	-5.503595e-06	-7.808244e-10	-3.821179e+01	-5.095389e+01
1.200000e-07	-5.498919e-06	-7.356395e-10	-3.817933e+01	-5.096570e+01
1.300000e-07	-5.493900e-06	-7.237704e-10	-3.814448e+01	-5.097601e+01
1.400000e-07	-5.488519e-06	-7.116804e-10	-3.810712e+01	-5.098460e+01
1.500000e-07	-5.482828e-06	-7.332801e-10	-3.806761e+01	-5.099128e+01
1.600000e-07	-5.476801e-06	-7.372058e-10	-3.802577e+01	-5.099585e+01
1.700000e-07	-5.470336e-06	-7.480403e-10	-3.798088e+01	-5.099812e+01
1.800000e-07	-5.463410e-06	-7.669508e-10	-3.793279e+01	-5.099791e+01
1.900000e-07	-5.456052e-06	-7.779992e-10	-3.788170e+01	-5.099506e+01
2.000000e-07	-5.448403e-06	-7.623205e-10	-3.782860e+01	-5.098943e+01
2.100000e-07	-5.440564e-06	-7.545199e-10	-3.777417e+01	-5.098087e+01
2.200000e-07	-5.432493e-06	-7.678817e-10	-3.771813e+01	-5.096926e+01
2.300000e-07	-5.424120e-06	-7.783392e-10	-3.765999e+01	-5.095451e+01
2.400000e-07	-5.415282e-06	-7.872331e-10	-3.759864e+01	-5.093653e+01
2.500000e-07	-5.405765e-06	-7.799602e-10	-3.753256e+01	-5.091525e+01
2.600000e-07	-5.395558e-06	-7.843442e-10	-3.746169e+01	-5.089062e+01
2.700000e-07	-5.384687e-06	-7.735217e-10	-3.738621e+01	-5.086260e+01
2.800000e-07	-5.373301e-06	-7.878357e-10	-3.730716e+01	-5.083120e+01
2.900000e-07	-5.361622e-06	-7.883637e-10	-3.722607e+01	-5.079640e+01
3.000000e-07	-5.349546e-06	-7.885873e-10	-3.714223e+01	-5.075823e+01
3.100000e-07	-5.336954e-06	-7.639489e-10	-3.705479e+01	-5.071673e+01
3.200000e-07	-5.324015e-06	-7.789950e-10	-3.696496e+01	-5.067194e+01
3.300000e-07	-5.310734e-06	-7.715953e-10	-3.687275e+01	-5.062394e+01
3.400000e-07	-5.297011e-06	-7.619233e-10	-3.677747e+01	-5.057280e+01
3.500000e-07	-5.282860e-06	-7.552932e-10	-3.667922e+01	-5.051861e+01
3.600000e-07	-5.268228e-06	-7.823922e-10	-3.657763e+01	-5.046146e+01
3.700000e-07	-5.253144e-06	-7.713597e-10	-3.647290e+01	-5.040148e+01
3.800000e-07	-5.237573e-06	-7.764355e-10	-3.636479e+01	-5.033878e+01
3.900000e-07	-5.221549e-06	-7.916805e-10	-3.625353e+01	-5.027347e+01
4.000000e-07	-5.205092e-06	-7.768308e-10	-3.613927e+01	-5.020567e+01
4.100000e-07	-5.188208e-06	-7.480769e-10	-3.602205e+01	-5.013553e+01
4.200000e-07	-5.171031e-06	-7.699475e-10	-3.590279e+01	-5.006315e+01
4.300000e-07	-5.153613e-06	-7.784401e-10	-3.578185e+01	-4.998867e+01
4.400000e-07	-5.135853e-06	-7.434444e-10	-3.565854e+01	-4.991222e+01
4.500000e-07	-5.117620e-06	-7.626429e-10	-3.553195e+01	-4.983390e+01
4.600000e-07	-5.098924e-06	-7.977938e-10	-3.540214e+01	-4.975384e+01
4.700000e-07	-5.079895e-06	-7.589360e-10	-3.527002e+01	-4.967213e+01
4.800000e-07	-5.060562e-06	-7.387342e-10	-3.513579e+01	-4.958889e+01
4.900000e-07	-5.040960e-06	-7.878310e-10	-3.499969e+01	-4.950421e+01
5.000000e-07	-5.021228e-06	-7.665524e-10	-3.486269e+01	-4.941816e+01
5.100000e-07	-5.001297e-06	-7.206128e-10	-3.472431e+01	-4.933082e+01
5.200000e-07	-4.981002e-06	-7.579725e-10	-3.458340e+01	-4.924225e+01
5.300000e-07	-4.960242e-06	-7.830447e-10	-3.443927e+01	-4.915250e+01
5.400000e-07	-4.939056e-06	-7.329401e-10	-3.429217e+01	-4.906163e+01
5.500000e-07	-4.917593e-06	-7.468810e-10	-3.414315e+01	-4.896966e+01
5.600000e-07	-4.895869e-06	-7.759067e-10	-3.399232e+01	-4.887661e+01
5.700000e-07	-4.873823e-06	-7.358398e-10	-3.383925e+01	-4.878249e+01
5.800000e-07	-4.851411e-06	-7.210069e-10	-3.368364e+01	-4.868732e+01
5.900000e-07	-4.828648e-06	-7.629952e-10	-3.352560e+01	-4.859108e+01
6.000000e-07	-4.805592e-06	-7.382328e-10	-3.336552e+01	-4.849376e+01
6.100000e-07	-4.782246e-06	-7.153627e-10	-3.320342e+01	-4.839534e+01
6.200000e-07	-4.758652e-06	-7.446003e-10	-3.303961e+01	-4.829580e+01
6.300000e-07	-4.734795e-06	-7.397132e-10	-3.287397e+01	-4.819511e+01
6.400000e-07	-4.710572e-06	-7.058824e-10	-3.270579e+01	-4.809323e+01
6.500000e-07	-4.685958e-06	-7.293784e-10	-3.253489e+01	-4.799012e+01
6.600000e-07	-4.660984e-06	-7.386990e-10	-3.236149e+01	-4.788575e+01
6.700000e-07	-4.635524e-06	-7.159702e-10	-3.218472e+01	-4.778007e+01
6.800000e-07	-4.609477e-06	-7.276798e-10	-3.200388e+01	-4.767304e+01
6.900000e-07	-4.582836e-06	-7.482611e-10	-3.181891e+01	-4.756464e+01
7.000000e-07	-4.555690e-06	-7.241192e-10	-3.163044e+01	-4.745481e+01
7.100000e-07	-4.528260e-06	-7.161886e-10	-3.143998e+01	-4.734352e+01
7.200000e-07	-4.500637e-06	-7.282626e-10	-3.124820e+01	-4.723075e+01
7.300000e-07	-4.472878e-06	-7.158952e-10	-3.105547e+01	-4.711647e+01
7.400000e-07	-4.444950e-06	-7.106102e-10	-3.086156e+01	-4.700066e+01
7.500000e-07	-4.416782e-06	-7.260264e-10	-3.066599e+01	-4.688331e+01
7.600000e-07	-4.388370e-06	-7.208472e-10	-3.046872e+01	-4.676439e+01
7.700000e-07	-4.359591e-06	-7.095231e-10	-3.026891e+01	-4.664392e+01
7.800000e-07	-4.330479e-06	-7.201841e-10	-3.006678e+01	-4.652188e+01
7.900000e-07	-4.301083e-06	-7.203643e-10	-2.986268e+01	-4.639830e+01
8.000000e-07	-4.271363e-06	-7.093564e-10	-2.965634e+01	-4.627317e+01
8.100000e-07	-4.241331e-06	-7.126809e-10	-2.944782e+01	-4.614651e+01
8.200000e-07	-4.210997e-06	-7.197557e-10	-2.923721e+01	-4.601836e+01
8.300000e-07	-4.180363e-06	-7.064940e-10	-2.902452e+01	-4.588872e+01
8.400000e-07	-4.149423e-06	-7.033479e-10	-2.880970e+01	-4.575762e+01
8.500000e-07	-4.118236e-06	-7.085276e-10	-2.859316e+01	-4.562510e+01
8.600000e-07	-4.086875e-06	-7.029304e-10	-2.837542e+01	-4.549119e+01
8.700000e-07	-4.055337e-06	-6.959911e-10	-2.815646e+01	-4.535590e+01
8.800000e-07	-4.023627e-06	-7.054504e-10	-2.793629e+01	-4.521927e+01
8.900000e-07	-3.991767e-06	-7.021999e-10	-2.771508e+01	-4.508132e+01
9.000000e-07	-3.959650e-06	-6.906741e-10	-2.749209e+01	-4.494207e+01
9.100000e-07	-3.927204e-06	-6.880661e-10	-2.726682e+01	-4.480153e+01
9.200000e-07	-3.894357e-06	-6.880983e-10	-2.703876e+01	-4.465972e+01
9.300000e-07	-3.861044e-06	-6.776117e-10	-2.680746e+01	-4.451664e+01
9.400000e-07	-3.827242e-06	-6.793256e-10	-2.657277e+01	-4.437227e+01
9.500000e-07	-3.792971e-06	-6.879196e-10	-2.633483e+01	-4.422660e+01
9.600000e-07	-3.758306e-06	-6.863179e-10	-2.609415e+01	-4.407961e+01
9.700000e-07	-3.723281e-06	-6.818759e-10	-2.585097e+01	-4.393126e+01
9.800000e-07	-3.687983e-06	-6.859560e-10	-2.560589e+01	-4.378149e+01
9.900000e-07	-3.652503e-06	-6.820284e-10	-2.535955e+01	-4.363025e+01
1.000000e-06	-3.616855e-06	-6.712556e-10	-2.511204e+01	-4.347746e+01
1.010000e-06	-3.581057e-06	-6.691737e-10	-2.486350e+01	-4.332304e+01
1.020000e-06	-3.545135e-06	-6.699072e-10	-2.461409e+01	-4.316689e+01
1.030000e-06	-3.509087e-06	-6.660215e-10	-2.436380e+01	-4.300889e+01
1.040000e-06	-3.472771e-06	-6.663050e-10	-2.411166e+01	-4.284892e+01
1.050000e-06	-3.436098e-06	-6.661120e-10	-2.385704e+01	-4.268685e+01
1.060000e-06	-3.399139e-06	-6.570819e-10	-2.360043e+01	-4.252253e+01
1.070000e-06	-3.361937e-06	-6.495869e-10	-2.334214e+01	-4.235581e+01
1.080000e-06	-3.324464e-06	-6.476660e-10	-2.308195e+01	-4.218652e+01
1.090000e-06	-3.286775e-06	-6.442820e-10	-2.282028e+01	-4.201448e+01
1.100000e-06	-3.248853e-06	-6.371941e-10	-2.255699e+01	-4.183952e+01
1.110000e-06	-3.210710e-06	-6.346316e-10	-2.229215e+01	-4.166145e+01
1.120000e-06	-3.172362e-06	-6.289437e-10	-2.202590e+01	-4.148008e+01
1.130000e-06	-3.133802e-06	-6.204010e-10	-2.175818e+01	-4.129522e+01
1.140000e-06	-3.095051e-06	-6.150626e-10	-2.148913e+01	-4.110668e+01
1.150000e-06	-3.055998e-06	-6.122209e-10	-2.121798e+01	-4.091427e+01
1.160000e-06	-3.016716e-06	-6.070219e-10	-2.094524e+01	-4.071781e+01
1.170000e-06	-2.977338e-06	-6.057987e-10	-2.067184e+01	-4.051709e+01
1.180000e-06	-2.937875e-06	-6.063612e-10	-2.039784e+01	-4.031196e+01
1.190000e-06	-2.898301e-06	-6.052328e-10	-2.012308e+01	-4.010223e+01
1.200000e-06	-2.858557e-06	-6.020924e-10	-1.984714e+01	-3.988774e+01
1.210000e-06	-2.818630e-06	-6.002488e-10	-1.956992e+01	-3.966834e+01
1.220000e-06	-2.778622e-06	-5.940030e-10	-1.929214e+01	-3.944390e+01
1.230000e-06	-2.738447e-06	-5.874304e-10	-1.901321e+01	-3.921427e+01
1.240000e-06	-2.698040e-06	-5.827449e-10	-1.873265e+01	-3.897935e+01
1.250000e-06	-2.657485e-06	-5.791349e-10	-1.845108e+01	-3.873902e+01
1.260000e-06	-2.616582e-06	-5.753151e-10	-1.816709e+01	-3.849321e+01
1.270000e-06	-2.575263e-06	-5.734271e-10	-1.788021e+01	-3.824183e+01
1.280000e-06	-2.533718e-06	-5.719424e-10	-1.759176e+01	-3.798482e+01
1.290000e-06	-2.491882e-06	-5.684982e-10	-1.730129e+01	-3.772214e+01
1.300000e-06	-2.449646e-06	-5.616654e-10	-1.700804e+01	-3.745375e+01
1.310000e-06	-2.407070e-06	-5.542194e-10	-1.671243e+01	-3.717962e+01
1.320000e-06	-2.364295e-06	-5.475603e-10	-1.641544e+01	-3.689975e+01
1.330000e-06	-2.321328e-06	-5.422485e-10	-1.611712e+01	-3.661413e+01
1.340000e-06	-2.278206e-06	-5.379857e-10	-1.581773e+01	-3.632276e+01
1.350000e-06	-2.234952e-06	-5.336129e-10	-1.551741e+01	-3.602566e+01
1.360000e-06	-2.191550e-06	-5.300290e-10	-1.521607e+01	-3.572284e+01
1.370000e-06	-2.148049e-06	-5.278141e-10	-1.491403e+01	-3.541433e+01
1.380000e-06	-2.104375e-06	-5.269618e-10	-1.461080e+01	-3.510013e+01
1.390000e-06	-2.060552e-06	-5.239455e-10	-1.430654e+01	-3.478026e+01
1.400000e-06	-2.016662e-06	-5.175894e-10	-1.400181e+01	-3.445473e+01
1.410000e-06	-1.972724e-06	-5.084965e-10	-1.369674e+01	-3.412355e+01
1.420000e-06	-1.928749e-06	-4.991929e-10	-1.339142e+01	-3.378669e+01
1.430000e-06	-1.884748e-06	-4.912087e-10	-1.308592e+01	-3.344415e+01
1.440000e-06	-1.840602e-06	-4.876330e-10	-1.277941e+01	-3.309587e+01
1.450000e-06	-1.796273e-06	-4.842569e-10	-1.247163e+01	-3.274181e+01
1.460000e-06	-1.751908e-06	-4.806188e-10	-1.216361e+01	-3.238188e+01
1.470000e-06	-1.707455e-06	-4.765136e-10	-1.185496e+01	-3.201599e+01
1.480000e-06	-1.662763e-06	-4.714092e-10	-1.154466e+01	-3.164400e+01
1.490000e-06	-1.617857e-06	-4.649167e-10	-1.123288e+01	-3.126575e+01
1.500000e-06	-1.572889e-06	-4.588066e-10	-1.092066e+01	-3.088108e+01
1.510000e-06	-1.527808e-06	-4.507222e-10	-1.060766e+01	-3.048975e+01
1.520000e-06	-1.482531e-06	-4.403155e-10	-1.029330e+01	-3.009153e+01
1.530000e-06	-1.437143e-06	-4.284628e-10	-9.978174e+00	-2.968614e+01
1.540000e-06	-1.391699e-06	-4.180682e-10	-9.662652e+00	-2.927326e+01
1.550000e-06	-1.346266e-06	-4.086230e-10	-9.347208e+00	-2.885256e+01
1.560000e-06	-1.300758e-06	-4.011401e-10	-9.031244e+00	-2.842366e+01
1.570000e-06	-1.255068e-06	-3.957181e-10	-8.714011e+00	-2.798616e+01
1.580000e-06	-1.209269e-06	-3.902353e-10	-8.396029e+00	-2.753962e+01
1.590000e-06	-1.163378e-06	-3.815692e-10	-8.077405e+00	-2.708358e+01
1.600000e-06	-1.117362e-06	-3.722899e-10	-7.757915e+00	-2.661755e+01
1.610000e-06	-1.071307e-06	-3.623165e-10	-7.438152e+00	-2.614102e+01
1.620000e-06	-1.025208e-06	-3.520984e-10	-7.118085e+00	-2.565346e+01
1.630000e-06	-9.789915e-07	-3.442032e-10	-6.797198e+00	-2.515433e+01
1.640000e-06	-9.326754e-07	-3.341171e-10	-6.475622e+00	-2.464306e+01
1.650000e-06	-8.863358e-07	-3.235643e-10	-6.153883e+00	-2.411910e+01
1.660000e-06	-8.400415e-07	-3.134939e-10	-5.832460e+00	-2.358186e+01
1.670000e-06	-7.936167e-07	-3.051798e-10	-5.510129e+00	-2.303079e+01
1.680000e-06	-7.470843e-07	-2.997079e-10	-5.187052e+00	-2.246532e+01
1.690000e-06	-7.005677e-07	-2.958309e-10	-4.864084e+00	-2.188490e+01
1.700000e-06	-6.540374e-07	-2.901189e-10	-4.541021e+00	-2.128900e+01
1.710000e-06	-6.075538e-07	-2.796155e-10	-4.218283e+00	-2.067711e+01
1.720000e-06	-5.610662e-07	-2.663595e-10	-3.895517e+00	-2.004875e+01
1.730000e-06	-5.144691e-07	-2.543246e-10	-3.571991e+00	-1.940348e+01
1.740000e-06	-4.676340e-07	-2.435809e-10	-3.246811e+00	-1.874089e+01
1.750000e-06	-4.206821e-07	-2.345662e-10	-2.920821e+00	-1.806063e+01
1.760000e-06	-3.738393e-07	-2.243756e-10	-2.595589e+00	-1.736238e+01
1.770000e-06	-3.271018e-07	-2.157530e-10	-2.271088e+00	-1.664591e+01
1.780000e-06	-2.803608e-07	-2.082743e-10	-1.946562e+00	-1.591101e+01
1.790000e-06	-2.335567e-07	-1.977832e-10	-1.621599e+00	-1.515757e+01
1.800000e-06	-1.867474e-07	-1.843215e-10	-1.296599e+00	-1.438553e+01
1.810000e-06	-1.399095e-07	-1.697085e-10	-9.714002e-01	-1.359492e+01
1.820000e-06	-9.305740e-08	-1.553618e-10	-6.461032e-01	-1.278584e+01
1.830000e-06	-4.624021e-08	-1.427391e-10	-3.210486e-01	-1.195847e+01
1.840000e-06	5.946602e-10	-1.315168e-10	4.128762e-03	-1.111308e+01
1.850000e-06	4.738985e-08	-1.227339e-10	3.290306e-01	-1.025001e+01
1.860000e-06	9.415879e-08	-1.132140e-10	6.537502e-01	-9.369698e+00
1.870000e-06	1.410520e-07	-1.015960e-10	9.793328e-01	-8.472667e+00
1.880000e-06	1.879779e-07	-8.858812e-11	1.305142e+00	-7.559524e+00
1.890000e-06	2.347841e-07	-7.368759e-11	1.630121e+00	-6.630961e+00
1.900000e-06	2.815353e-07	-6.014705e-11	1.954717e+00	-5.687755e+00
1.910000e-06	3.283017e-07	-4.783034e-11	2.279419e+00	-4.730764e+00
1.920000e-06	3.750677e-07	-3.506196e-11	2.604118e+00	-3.760923e+00
1.930000e-06	4.218868e-07	-2.132454e-11	2.929186e+00	-2.779244e+00
1.940000e-06	4.686721e-07	-9.076603e-12	3.254019e+00	-1.786810e+00
1.950000e-06	5.153454e-07	2.140146e-12	3.578075e+00	-7.847690e-01
1.960000e-06	5.620073e-07	1.423434e-11	3.902051e+00	2.256703e-01
1.970000e-06	6.086503e-07	2.905232e-11	4.225896e+00	1.243244e+00
1.980000e-06	6.552977e-07	4.360730e-11	4.549772e+00	2.266640e+00
1.990000e-06	7.018770e-07	5.673605e-11	4.873175e+00	3.294504e+00
2.000000e-06	7.482743e-07	7.048106e-11	5.195314e+00	4.325448e+00
2.010000e-06	7.946098e-07	8.556978e-11	5.517024e+00	5.358058e+00
2.020000e-06	8.409234e-07	1.005539e-10	5.838582e+00	6.390900e+00
2.030000e-06	8.871450e-07	1.159039e-10	6.159502e+00	7.422530e+00
2.040000e-06	9.333416e-07	1.311973e-10	6.480248e+00	8.451501e+00
2.050000e-06	9.795371e-07	1.450385e-10	6.800986e+00	9.476372e+00
2.060000e-06	1.025657e-06	1.585075e-10	7.121203e+00	1.049572e+01
2.070000e-06	1.071584e-06	1.731741e-10	7.440071e+00	1.150813e+01
2.080000e-06	1.117336e-06	1.879390e-10	7.757730e+00	1.251224e+01
2.090000e-06	1.163063e-06	2.022847e-10	8.075215e+00	1.350670e+01
2.100000e-06	1.208793e-06	2.162676e-10	8.392721e+00	1.449024e+01
2.110000e-06	1.254438e-06	2.294218e-10	8.709637e+00	1.546160e+01
2.120000e-06	1.299979e-06	2.427955e-10	9.025830e+00	1.641962e+01
2.130000e-06	1.345419e-06	2.564982e-10	9.341326e+00	1.736319e+01
2.140000e-06	1.390780e-06	2.692976e-10	9.656270e+00	1.829126e+01
2.150000e-06	1.436057e-06	2.812837e-10	9.970633e+00	1.920288e+01
2.160000e-06	1.481184e-06	2.941583e-10	1.028395e+01	2.009718e+01
2.170000e-06	1.526240e-06	3.067964e-10	1.059678e+01	2.097335e+01
2.180000e-06	1.571231e-06	3.168048e-10	1.090915e+01	2.183071e+01
2.190000e-06	1.616133e-06	3.253392e-10	1.122091e+01	2.266864e+01
2.200000e-06	1.660898e-06	3.344611e-10	1.153172e+01	2.348663e+01
2.210000e-06	1.705485e-06	3.447299e-10	1.184128e+01	2.428426e+01
2.220000e-06	1.749972e-06	3.577843e-10	1.215017e+01	2.506122e+01
2.230000e-06	1.794340e-06	3.706573e-10	1.245821e+01	2.581729e+01
2.240000e-06	1.838591e-06	3.805241e-10	1.276545e+01	2.655232e+01
2.250000e-06	1.882777e-06	3.882365e-10	1.307223e+01	2.726630e+01
2.260000e-06	1.926828e-06	3.947774e-10	1.337808e+01	2.795927e+01
2.270000e-06	1.970722e-06	4.005306e-10	1.368284e+01	2.863138e+01
2.280000e-06	2.014521e-06	4.064290e-10	1.398695e+01	2.928287e+01
2.290000e-06	2.058289e-06	4.136081e-10	1.429082e+01	2.991403e+01
2.300000e-06	2.102007e-06	4.224913e-10	1.459436e+01	3.052526e+01
2.310000e-06	2.145608e-06	4.317208e-10	1.489709e+01	3.111701e+01
2.320000e-06	2.189117e-06	4.399787e-10	1.519917e+01	3.168979e+01
2.330000e-06	2.232553e-06	4.461157e-10	1.550075e+01	3.224418e+01
2.340000e-06	2.275884e-06	4.506129e-10	1.580160e+01	3.278081e+01
2.350000e-06	2.319067e-06	4.560432e-10	1.610142e+01	3.330035e+01
2.360000e-06	2.362049e-06	4.623372e-10	1.639985e+01	3.380350e+01
2.370000e-06	2.404771e-06	4.679709e-10	1.669647e+01	3.429101e+01
2.380000e-06	2.447159e-06	4.741185e-10	1.699078e+01	3.476362e+01
2.390000e-06	2.489184e-06	4.820713e-10	1.728256e+01	3.522212e+01
2.400000e-06	2.530871e-06	4.898027e-10	1.757199e+01	3.566728e+01
2.410000e-06	2.572337e-06	4.976724e-10	1.785989e+01	3.609989e+01
2.420000e-06	2.613584e-06	5.074068e-10	1.814627e+01	3.652073e+01
2.430000e-06	2.654378e-06	5.172760e-10	1.842951e+01	3.693056e+01
2.440000e-06	2.694885e-06	5.265778e-10	1.871075e+01	3.733012e+01
2.450000e-06	2.735270e-06	5.353047e-10	1.899115e+01	3.772013e+01
2.460000e-06	2.775472e-06	5.424445e-10	1.927027e+01	3.810128e+01
2.470000e-06	2.815493e-06	5.476533e-10	1.954814e+01	3.847424e+01
2.480000e-06	2.855340e-06	5.512899e-10	1.982480e+01	3.883960e+01
2.490000e-06	2.895072e-06	5.554514e-10	2.010066e+01	3.919794e+01
2.500000e-06	2.934643e-06	5.619986e-10	2.037540e+01	3.954978e+01
2.510000e-06	2.974064e-06	5.697319e-10	2.064911e+01	3.989559e+01
2.520000e-06	3.013411e-06	5.767351e-10	2.092229e+01	4.023579e+01
2.530000e-06	3.052516e-06	5.831331e-10	2.119381e+01	4.057075e+01
2.540000e-06	3.091327e-06	5.875079e-10	2.146327e+01	4.090078e+01
2.550000e-06	3.129914e-06	5.898370e-10	2.173119e+01	4.122612e+01
2.560000e-06	3.168297e-06	5.929382e-10	2.199768e+01	4.154698e+01
2.570000e-06	3.206501e-06	5.966594e-10	2.226293e+01	4.186350e+01
2.580000e-06	3.244479e-06	6.010122e-10	2.252661e+01	4.217578e+01
2.590000e-06	3.282263e-06	6.067157e-10	2.278895e+01	4.248384e+01
2.600000e-06	3.319815e-06	6.124257e-10	2.304968e+01	4.278769e+01
2.610000e-06	3.357133e-06	6.171680e-10	2.330878e+01	4.308726e+01
2.620000e-06	3.394270e-06	6.208931e-10	2.356662e+01	4.338247e+01
2.630000e-06	3.431149e-06	6.241498e-10	2.382267e+01	4.367317e+01
2.640000e-06	3.467682e-06	6.258629e-10	2.407633e+01	4.395920e+01
2.650000e-06	3.503982e-06	6.275507e-10	2.432836e+01	4.424035e+01
2.660000e-06	3.540081e-06	6.325948e-10	2.457900e+01	4.451639e+01
2.670000e-06	3.575924e-06	6.383399e-10	2.482786e+01	4.478708e+01
2.680000e-06	3.611650e-06	6.415628e-10	2.507591e+01	4.505216e+01
2.690000e-06	3.647318e-06	6.439088e-10	2.532355e+01	4.531135e+01
2.700000e-06	3.682901e-06	6.456934e-10	2.557061e+01	4.556436e+01
2.710000e-06	3.718326e-06	6.467685e-10	2.581657e+01	4.581092e+01
2.720000e-06	3.753439e-06	6.524897e-10	2.606036e+01	4.605075e+01
2.730000e-06	3.788180e-06	6.615217e-10	2.630157e+01	4.628357e+01
2.740000e-06	3.822505e-06	6.689637e-10	2.653988e+01	4.650913e+01
2.750000e-06	3.856390e-06	6.747653e-10	2.677515e+01	4.672719e+01
2.760000e-06	3.889804e-06	6.788291e-10	2.700715e+01	4.693752e+01
2.770000e-06	3.922731e-06	6.803345e-10	2.723576e+01	4.713993e+01
2.780000e-06	3.955276e-06	6.803540e-10	2.746173e+01	4.733425e+01
2.790000e-06	3.987541e-06	6.812579e-10	2.768574e+01	4.752034e+01
2.800000e-06	4.019520e-06	6.841380e-10	2.790777e+01	4.769809e+01
2.810000e-06	4.051266e-06	6.888338e-10	2.812819e+01	4.786743e+01
2.820000e-06	4.082880e-06	6.948968e-10	2.834768e+01	4.802832e+01
2.830000e-06	4.114324e-06	6.997571e-10	2.856600e+01	4.818078e+01
2.840000e-06	4.145558e-06	7.013343e-10	2.878286e+01	4.832482e+01
2.850000e-06	4.176458e-06	7.025409e-10	2.899740e+01	4.846054e+01
2.860000e-06	4.207016e-06	7.039861e-10	2.920957e+01	4.858804e+01
2.870000e-06	4.237324e-06	7.038662e-10	2.942000e+01	4.870748e+01
2.880000e-06	4.267416e-06	7.052608e-10	2.962893e+01	4.881904e+01
2.890000e-06	4.297177e-06	7.068675e-10	2.983556e+01	4.892294e+01
2.900000e-06	4.326545e-06	7.088841e-10	3.003947e+01	4.901943e+01
