# Temperatura_=_-0.28
# Concentracion g/m^3_=_1620.0
# C_Vs_to_Am_M_A/Vsm_=_65563218390.804596
# pendiente_HvsI_1/m_=_3716.3
# ordenada_HvsI_A/m_=_1297.0
# frecuencia_Hz_=_135113.42470791342

Tiempo_(s)	Campo_(V.s)	Magnetizacion_(V.s)	Campo_(kA/m)	Magnetizacion_(A/m)
0.000000e+00	-5.518983e-06	-1.209144e-09	-3.836815e+01	-7.946282e+01
1.000000e-08	-5.519015e-06	-1.213610e-09	-3.836837e+01	-7.947240e+01
2.000000e-08	-5.518785e-06	-1.218566e-09	-3.836677e+01	-7.948266e+01
3.000000e-08	-5.518175e-06	-1.217528e-09	-3.836253e+01	-7.949348e+01
4.000000e-08	-5.517152e-06	-1.211056e-09	-3.835542e+01	-7.950475e+01
5.000000e-08	-5.515596e-06	-1.202850e-09	-3.834460e+01	-7.951633e+01
6.000000e-08	-5.513411e-06	-1.196427e-09	-3.832941e+01	-7.952803e+01
7.000000e-08	-5.510640e-06	-1.195017e-09	-3.831015e+01	-7.953969e+01
8.000000e-08	-5.507380e-06	-1.205833e-09	-3.828748e+01	-7.955107e+01
9.000000e-08	-5.503601e-06	-1.213716e-09	-3.826121e+01	-7.956195e+01
1.000000e-07	-5.499345e-06	-1.201893e-09	-3.823163e+01	-7.957210e+01
1.100000e-07	-5.494866e-06	-1.186369e-09	-3.820049e+01	-7.958125e+01
1.200000e-07	-5.490252e-06	-1.184331e-09	-3.816841e+01	-7.958914e+01
1.300000e-07	-5.485314e-06	-1.212407e-09	-3.813408e+01	-7.959550e+01
1.400000e-07	-5.479929e-06	-1.203923e-09	-3.809664e+01	-7.960004e+01
1.500000e-07	-5.474125e-06	-1.177438e-09	-3.805630e+01	-7.960249e+01
1.600000e-07	-5.467983e-06	-1.186388e-09	-3.801360e+01	-7.960257e+01
1.700000e-07	-5.461458e-06	-1.193854e-09	-3.796823e+01	-7.959998e+01
1.800000e-07	-5.454513e-06	-1.215302e-09	-3.791995e+01	-7.959447e+01
1.900000e-07	-5.447244e-06	-1.180624e-09	-3.786942e+01	-7.958576e+01
2.000000e-07	-5.439760e-06	-1.214426e-09	-3.781739e+01	-7.957359e+01
2.100000e-07	-5.432043e-06	-1.221962e-09	-3.776374e+01	-7.955772e+01
2.200000e-07	-5.424054e-06	-1.250452e-09	-3.770820e+01	-7.953791e+01
2.300000e-07	-5.415760e-06	-1.218820e-09	-3.765054e+01	-7.951394e+01
2.400000e-07	-5.406815e-06	-1.224219e-09	-3.758835e+01	-7.948561e+01
2.500000e-07	-5.397045e-06	-1.231260e-09	-3.752044e+01	-7.945273e+01
2.600000e-07	-5.386668e-06	-1.249170e-09	-3.744829e+01	-7.941514e+01
2.700000e-07	-5.375860e-06	-1.236358e-09	-3.737316e+01	-7.937269e+01
2.800000e-07	-5.364650e-06	-1.234154e-09	-3.729522e+01	-7.932525e+01
2.900000e-07	-5.353009e-06	-1.247271e-09	-3.721429e+01	-7.927271e+01
3.000000e-07	-5.340946e-06	-1.242957e-09	-3.713043e+01	-7.921500e+01
3.100000e-07	-5.328432e-06	-1.234455e-09	-3.704343e+01	-7.915203e+01
3.200000e-07	-5.315483e-06	-1.218214e-09	-3.695341e+01	-7.908377e+01
3.300000e-07	-5.302168e-06	-1.235072e-09	-3.686084e+01	-7.901019e+01
3.400000e-07	-5.288542e-06	-1.209601e-09	-3.676611e+01	-7.893129e+01
3.500000e-07	-5.274578e-06	-1.210755e-09	-3.666904e+01	-7.884707e+01
3.600000e-07	-5.260071e-06	-1.205267e-09	-3.656818e+01	-7.875757e+01
3.700000e-07	-5.245044e-06	-1.225646e-09	-3.646372e+01	-7.866284e+01
3.800000e-07	-5.229515e-06	-1.205356e-09	-3.635576e+01	-7.856292e+01
3.900000e-07	-5.213456e-06	-1.210303e-09	-3.624412e+01	-7.845791e+01
4.000000e-07	-5.197051e-06	-1.201800e-09	-3.613007e+01	-7.834789e+01
4.100000e-07	-5.180285e-06	-1.201888e-09	-3.601351e+01	-7.823295e+01
4.200000e-07	-5.163099e-06	-1.182772e-09	-3.589403e+01	-7.811320e+01
4.300000e-07	-5.145592e-06	-1.197221e-09	-3.577232e+01	-7.798876e+01
4.400000e-07	-5.127794e-06	-1.193255e-09	-3.564859e+01	-7.785976e+01
4.500000e-07	-5.109621e-06	-1.188928e-09	-3.552225e+01	-7.772632e+01
4.600000e-07	-5.090998e-06	-1.173881e-09	-3.539278e+01	-7.758857e+01
4.700000e-07	-5.072017e-06	-1.186320e-09	-3.526083e+01	-7.744664e+01
4.800000e-07	-5.052743e-06	-1.178862e-09	-3.512683e+01	-7.730067e+01
4.900000e-07	-5.033209e-06	-1.179952e-09	-3.499104e+01	-7.715080e+01
5.000000e-07	-5.013472e-06	-1.175203e-09	-3.485382e+01	-7.699715e+01
5.100000e-07	-4.993484e-06	-1.179454e-09	-3.471486e+01	-7.683985e+01
5.200000e-07	-4.973154e-06	-1.169713e-09	-3.457353e+01	-7.667903e+01
5.300000e-07	-4.952419e-06	-1.167098e-09	-3.442938e+01	-7.651482e+01
5.400000e-07	-4.931341e-06	-1.167600e-09	-3.428285e+01	-7.634732e+01
5.500000e-07	-4.909908e-06	-1.166933e-09	-3.413384e+01	-7.617666e+01
5.600000e-07	-4.888140e-06	-1.156345e-09	-3.398251e+01	-7.600293e+01
5.700000e-07	-4.866036e-06	-1.153876e-09	-3.382884e+01	-7.582623e+01
5.800000e-07	-4.843498e-06	-1.159503e-09	-3.367216e+01	-7.564667e+01
5.900000e-07	-4.820627e-06	-1.153322e-09	-3.351315e+01	-7.546432e+01
6.000000e-07	-4.797482e-06	-1.147382e-09	-3.335225e+01	-7.527928e+01
6.100000e-07	-4.774103e-06	-1.153342e-09	-3.318972e+01	-7.509160e+01
6.200000e-07	-4.750476e-06	-1.156529e-09	-3.302547e+01	-7.490138e+01
6.300000e-07	-4.726550e-06	-1.139675e-09	-3.285913e+01	-7.470866e+01
6.400000e-07	-4.702350e-06	-1.144125e-09	-3.269089e+01	-7.451351e+01
6.500000e-07	-4.677746e-06	-1.147365e-09	-3.251984e+01	-7.431599e+01
6.600000e-07	-4.652645e-06	-1.138872e-09	-3.234534e+01	-7.411615e+01
6.700000e-07	-4.627114e-06	-1.124761e-09	-3.216785e+01	-7.391403e+01
6.800000e-07	-4.601112e-06	-1.132748e-09	-3.198708e+01	-7.370969e+01
6.900000e-07	-4.574480e-06	-1.123235e-09	-3.180193e+01	-7.350316e+01
7.000000e-07	-4.547376e-06	-1.122405e-09	-3.161351e+01	-7.329449e+01
7.100000e-07	-4.519986e-06	-1.127236e-09	-3.142309e+01	-7.308372e+01
7.200000e-07	-4.492371e-06	-1.131661e-09	-3.123111e+01	-7.287089e+01
7.300000e-07	-4.464548e-06	-1.113059e-09	-3.103768e+01	-7.265604e+01
7.400000e-07	-4.436506e-06	-1.113261e-09	-3.084273e+01	-7.243920e+01
7.500000e-07	-4.408247e-06	-1.110532e-09	-3.064628e+01	-7.222042e+01
7.600000e-07	-4.379742e-06	-1.101568e-09	-3.044811e+01	-7.199973e+01
7.700000e-07	-4.350951e-06	-1.094759e-09	-3.024795e+01	-7.177717e+01
7.800000e-07	-4.321853e-06	-1.102155e-09	-3.004566e+01	-7.155277e+01
7.900000e-07	-4.292428e-06	-1.094191e-09	-2.984110e+01	-7.132658e+01
8.000000e-07	-4.262656e-06	-1.089440e-09	-2.963412e+01	-7.109863e+01
8.100000e-07	-4.232641e-06	-1.089806e-09	-2.942546e+01	-7.086894e+01
8.200000e-07	-4.202368e-06	-1.088603e-09	-2.921500e+01	-7.063755e+01
8.300000e-07	-4.171822e-06	-1.081169e-09	-2.900264e+01	-7.040449e+01
8.400000e-07	-4.140999e-06	-1.081723e-09	-2.878836e+01	-7.016979e+01
8.500000e-07	-4.109917e-06	-1.078760e-09	-2.857228e+01	-6.993345e+01
8.600000e-07	-4.078615e-06	-1.067767e-09	-2.835466e+01	-6.969550e+01
8.700000e-07	-4.047088e-06	-1.060168e-09	-2.813549e+01	-6.945595e+01
8.800000e-07	-4.015383e-06	-1.055291e-09	-2.791508e+01	-6.921478e+01
8.900000e-07	-3.983420e-06	-1.048516e-09	-2.769286e+01	-6.897200e+01
9.000000e-07	-3.951167e-06	-1.043512e-09	-2.746864e+01	-6.872759e+01
9.100000e-07	-3.918593e-06	-1.046971e-09	-2.724218e+01	-6.848151e+01
9.200000e-07	-3.885646e-06	-1.044541e-09	-2.701314e+01	-6.823373e+01
9.300000e-07	-3.852328e-06	-1.041767e-09	-2.678151e+01	-6.798420e+01
9.400000e-07	-3.818610e-06	-1.034976e-09	-2.654710e+01	-6.773286e+01
9.500000e-07	-3.784402e-06	-1.028980e-09	-2.630928e+01	-6.747961e+01
9.600000e-07	-3.749716e-06	-1.016664e-09	-2.606814e+01	-6.722438e+01
9.700000e-07	-3.714660e-06	-1.013536e-09	-2.582444e+01	-6.696705e+01
9.800000e-07	-3.679369e-06	-1.012380e-09	-2.557910e+01	-6.670749e+01
9.900000e-07	-3.643910e-06	-1.012468e-09	-2.533258e+01	-6.644558e+01
1.000000e-06	-3.608242e-06	-1.008783e-09	-2.508462e+01	-6.618115e+01
1.010000e-06	-3.572413e-06	-1.009533e-09	-2.483553e+01	-6.591403e+01
1.020000e-06	-3.536445e-06	-1.004514e-09	-2.458548e+01	-6.564405e+01
1.030000e-06	-3.500340e-06	-1.000034e-09	-2.433448e+01	-6.537099e+01
1.040000e-06	-3.464029e-06	-9.917900e-10	-2.408204e+01	-6.509464e+01
1.050000e-06	-3.427422e-06	-9.833668e-10	-2.382755e+01	-6.481478e+01
1.060000e-06	-3.390491e-06	-9.729496e-10	-2.357080e+01	-6.453115e+01
1.070000e-06	-3.353234e-06	-9.681064e-10	-2.331179e+01	-6.424352e+01
1.080000e-06	-3.315638e-06	-9.633030e-10	-2.305042e+01	-6.395161e+01
1.090000e-06	-3.277864e-06	-9.603363e-10	-2.278782e+01	-6.365515e+01
1.100000e-06	-3.240043e-06	-9.586855e-10	-2.252489e+01	-6.335386e+01
1.110000e-06	-3.202083e-06	-9.565254e-10	-2.226099e+01	-6.304746e+01
1.120000e-06	-3.163808e-06	-9.488596e-10	-2.199489e+01	-6.273565e+01
1.130000e-06	-3.125232e-06	-9.404504e-10	-2.172672e+01	-6.241815e+01
1.140000e-06	-3.086465e-06	-9.314690e-10	-2.145721e+01	-6.209466e+01
1.150000e-06	-3.047506e-06	-9.219146e-10	-2.118636e+01	-6.176488e+01
1.160000e-06	-3.008377e-06	-9.163474e-10	-2.091433e+01	-6.142854e+01
1.170000e-06	-2.969102e-06	-9.153698e-10	-2.064130e+01	-6.108535e+01
1.180000e-06	-2.929673e-06	-9.133837e-10	-2.036718e+01	-6.073503e+01
1.190000e-06	-2.890103e-06	-9.069367e-10	-2.009209e+01	-6.037732e+01
1.200000e-06	-2.850425e-06	-9.000592e-10	-1.981625e+01	-6.001197e+01
1.210000e-06	-2.810622e-06	-8.915482e-10	-1.953953e+01	-5.963873e+01
1.220000e-06	-2.770670e-06	-8.846403e-10	-1.926179e+01	-5.925737e+01
1.230000e-06	-2.730518e-06	-8.780438e-10	-1.898265e+01	-5.886768e+01
1.240000e-06	-2.690198e-06	-8.742459e-10	-1.870234e+01	-5.846947e+01
1.250000e-06	-2.649609e-06	-8.680957e-10	-1.842017e+01	-5.806255e+01
1.260000e-06	-2.608648e-06	-8.641734e-10	-1.813540e+01	-5.764677e+01
1.270000e-06	-2.567433e-06	-8.598265e-10	-1.784888e+01	-5.722198e+01
1.280000e-06	-2.525979e-06	-8.532125e-10	-1.756069e+01	-5.678806e+01
1.290000e-06	-2.484275e-06	-8.429642e-10	-1.727076e+01	-5.634490e+01
1.300000e-06	-2.442412e-06	-8.348677e-10	-1.697973e+01	-5.589241e+01
1.310000e-06	-2.400298e-06	-8.287038e-10	-1.668695e+01	-5.543054e+01
1.320000e-06	-2.357776e-06	-8.246324e-10	-1.639134e+01	-5.495922e+01
1.330000e-06	-2.314879e-06	-8.215694e-10	-1.609311e+01	-5.447843e+01
1.340000e-06	-2.271716e-06	-8.178303e-10	-1.579304e+01	-5.398814e+01
1.350000e-06	-2.228395e-06	-8.065208e-10	-1.549188e+01	-5.348834e+01
1.360000e-06	-2.184956e-06	-7.936139e-10	-1.518989e+01	-5.297904e+01
1.370000e-06	-2.141366e-06	-7.821364e-10	-1.488685e+01	-5.246025e+01
1.380000e-06	-2.097731e-06	-7.749396e-10	-1.458349e+01	-5.193200e+01
1.390000e-06	-2.054047e-06	-7.686317e-10	-1.427980e+01	-5.139431e+01
1.400000e-06	-2.010246e-06	-7.617473e-10	-1.397530e+01	-5.084720e+01
1.410000e-06	-1.966336e-06	-7.533237e-10	-1.367003e+01	-5.029070e+01
1.420000e-06	-1.922337e-06	-7.450187e-10	-1.336415e+01	-4.972484e+01
1.430000e-06	-1.878268e-06	-7.379300e-10	-1.305778e+01	-4.914963e+01
1.440000e-06	-1.834185e-06	-7.281419e-10	-1.275132e+01	-4.856508e+01
1.450000e-06	-1.790047e-06	-7.174318e-10	-1.244446e+01	-4.797120e+01
1.460000e-06	-1.745702e-06	-7.084361e-10	-1.213618e+01	-4.736796e+01
1.470000e-06	-1.701240e-06	-6.979540e-10	-1.182707e+01	-4.675533e+01
1.480000e-06	-1.656659e-06	-6.855940e-10	-1.151715e+01	-4.613326e+01
1.490000e-06	-1.611857e-06	-6.731746e-10	-1.120568e+01	-4.550168e+01
1.500000e-06	-1.566905e-06	-6.620217e-10	-1.089318e+01	-4.486048e+01
1.510000e-06	-1.521860e-06	-6.514298e-10	-1.058002e+01	-4.420954e+01
1.520000e-06	-1.476684e-06	-6.388911e-10	-1.026595e+01	-4.354873e+01
1.530000e-06	-1.431397e-06	-6.248402e-10	-9.951121e+00	-4.287784e+01
1.540000e-06	-1.386023e-06	-6.099792e-10	-9.635680e+00	-4.219669e+01
1.550000e-06	-1.340515e-06	-5.954058e-10	-9.319301e+00	-4.150504e+01
1.560000e-06	-1.294896e-06	-5.795838e-10	-9.002160e+00	-4.080261e+01
1.570000e-06	-1.249224e-06	-5.650638e-10	-8.684643e+00	-4.008912e+01
1.580000e-06	-1.203492e-06	-5.529488e-10	-8.366717e+00	-3.936424e+01
1.590000e-06	-1.157630e-06	-5.412050e-10	-8.047878e+00	-3.862762e+01
1.600000e-06	-1.111627e-06	-5.299263e-10	-7.728065e+00	-3.787889e+01
1.610000e-06	-1.065635e-06	-5.208605e-10	-7.408332e+00	-3.711764e+01
1.620000e-06	-1.019623e-06	-5.101951e-10	-7.088454e+00	-3.634345e+01
1.630000e-06	-9.734893e-07	-4.958188e-10	-6.767730e+00	-3.555588e+01
1.640000e-06	-9.272101e-07	-4.779634e-10	-6.445995e+00	-3.475447e+01
1.650000e-06	-8.808731e-07	-4.600676e-10	-6.123859e+00	-3.393877e+01
1.660000e-06	-8.345824e-07	-4.431457e-10	-5.802044e+00	-3.310828e+01
1.670000e-06	-7.882758e-07	-4.287698e-10	-5.480119e+00	-3.226254e+01
1.680000e-06	-7.419158e-07	-4.160234e-10	-5.157823e+00	-3.140106e+01
1.690000e-06	-6.955238e-07	-4.065711e-10	-4.835304e+00	-3.052338e+01
1.700000e-06	-6.490750e-07	-3.958161e-10	-4.512390e+00	-2.962903e+01
1.710000e-06	-6.024652e-07	-3.824403e-10	-4.188358e+00	-2.871757e+01
1.720000e-06	-5.557531e-07	-3.674607e-10	-3.863614e+00	-2.778857e+01
1.730000e-06	-5.090454e-07	-3.526412e-10	-3.538900e+00	-2.684164e+01
1.740000e-06	-4.623397e-07	-3.390534e-10	-3.214201e+00	-2.587642e+01
1.750000e-06	-4.155933e-07	-3.255182e-10	-2.889218e+00	-2.489258e+01
1.760000e-06	-3.688844e-07	-3.095328e-10	-2.564496e+00	-2.388985e+01
1.770000e-06	-3.222516e-07	-2.947003e-10	-2.240303e+00	-2.286798e+01
1.780000e-06	-2.755154e-07	-2.825677e-10	-1.915392e+00	-2.182680e+01
1.790000e-06	-2.287008e-07	-2.668369e-10	-1.589935e+00	-2.076619e+01
1.800000e-06	-1.818829e-07	-2.471642e-10	-1.264456e+00	-1.968609e+01
1.810000e-06	-1.350457e-07	-2.280482e-10	-9.388419e-01	-1.858652e+01
1.820000e-06	-8.820267e-08	-2.116261e-10	-6.131878e-01	-1.746755e+01
1.830000e-06	-4.139374e-08	-1.955222e-10	-2.877706e-01	-1.632934e+01
1.840000e-06	5.374838e-09	-1.794736e-10	3.736605e-02	-1.517212e+01
1.850000e-06	5.215773e-08	-1.648416e-10	3.626023e-01	-1.399620e+01
1.860000e-06	9.894435e-08	-1.486078e-10	6.878643e-01	-1.280198e+01
1.870000e-06	1.457805e-07	-1.316624e-10	1.013471e+00	-1.158993e+01
1.880000e-06	1.926694e-07	-1.149371e-10	1.339444e+00	-1.036060e+01
1.890000e-06	2.395137e-07	-9.668568e-11	1.665107e+00	-9.114650e+00
1.900000e-06	2.863061e-07	-7.908809e-11	1.990409e+00	-7.852789e+00
1.910000e-06	3.331140e-07	-6.177877e-11	2.315820e+00	-6.575823e+00
1.920000e-06	3.798679e-07	-4.697856e-11	2.640854e+00	-5.284635e+00
1.930000e-06	4.264855e-07	-3.106396e-11	2.964941e+00	-3.980182e+00
1.940000e-06	4.731092e-07	-1.566043e-11	3.289070e+00	-2.663497e+00
1.950000e-06	5.197276e-07	-1.196580e-12	3.613163e+00	-1.335680e+00
1.960000e-06	5.662662e-07	1.540405e-11	3.936701e+00	2.106396e-03
1.970000e-06	6.127333e-07	3.497731e-11	4.259742e+00	1.348636e+00
1.980000e-06	6.592108e-07	5.542043e-11	4.582855e+00	2.702631e+00
1.990000e-06	7.056979e-07	7.621312e-11	4.906035e+00	4.062766e+00
2.000000e-06	7.521118e-07	9.574896e-11	5.228706e+00	5.427671e+00
2.010000e-06	7.984042e-07	1.122394e-10	5.550532e+00	6.795945e+00
2.020000e-06	8.446228e-07	1.269525e-10	5.871845e+00	8.166155e+00
2.030000e-06	8.908419e-07	1.434938e-10	6.193162e+00	9.536851e+00
2.040000e-06	9.369962e-07	1.620997e-10	6.514028e+00	1.090657e+01
2.050000e-06	9.830385e-07	1.824311e-10	6.834116e+00	1.227384e+01
2.060000e-06	1.028983e-06	2.043946e-10	7.153524e+00	1.363719e+01
2.070000e-06	1.074808e-06	2.282073e-10	7.472098e+00	1.499518e+01
2.080000e-06	1.120518e-06	2.509683e-10	7.789880e+00	1.634635e+01
2.090000e-06	1.166260e-06	2.695911e-10	8.107876e+00	1.768931e+01
2.100000e-06	1.212007e-06	2.848024e-10	8.425916e+00	1.902266e+01
2.110000e-06	1.257627e-06	2.986368e-10	8.743065e+00	2.034508e+01
2.120000e-06	1.303093e-06	3.140264e-10	9.059142e+00	2.165527e+01
2.130000e-06	1.348509e-06	3.309822e-10	9.374878e+00	2.295199e+01
2.140000e-06	1.393832e-06	3.498666e-10	9.689966e+00	2.423407e+01
2.150000e-06	1.439007e-06	3.688985e-10	1.000403e+01	2.550039e+01
2.160000e-06	1.484089e-06	3.887069e-10	1.031743e+01	2.674992e+01
2.170000e-06	1.529052e-06	4.089819e-10	1.063002e+01	2.798168e+01
2.180000e-06	1.573914e-06	4.261807e-10	1.094190e+01	2.919481e+01
2.190000e-06	1.618740e-06	4.402428e-10	1.125353e+01	3.038848e+01
2.200000e-06	1.663441e-06	4.553927e-10	1.156429e+01	3.156199e+01
2.210000e-06	1.707880e-06	4.715035e-10	1.187323e+01	3.271470e+01
2.220000e-06	1.752139e-06	4.881232e-10	1.218093e+01	3.384608e+01
2.230000e-06	1.796280e-06	5.052052e-10	1.248780e+01	3.495566e+01
2.240000e-06	1.840334e-06	5.211056e-10	1.279406e+01	3.604310e+01
2.250000e-06	1.884322e-06	5.334432e-10	1.309987e+01	3.710811e+01
2.260000e-06	1.928218e-06	5.450063e-10	1.340504e+01	3.815052e+01
2.270000e-06	1.972076e-06	5.579564e-10	1.370994e+01	3.917021e+01
2.280000e-06	2.015953e-06	5.715329e-10	1.401497e+01	4.016718e+01
2.290000e-06	2.059774e-06	5.866795e-10	1.431962e+01	4.114148e+01
2.300000e-06	2.103466e-06	6.031760e-10	1.462336e+01	4.209326e+01
2.310000e-06	2.147079e-06	6.180724e-10	1.492656e+01	4.302272e+01
2.320000e-06	2.190621e-06	6.303582e-10	1.522927e+01	4.393014e+01
2.330000e-06	2.234028e-06	6.394988e-10	1.553104e+01	4.481586e+01
2.340000e-06	2.277324e-06	6.473694e-10	1.583203e+01	4.568027e+01
2.350000e-06	2.320384e-06	6.575012e-10	1.613138e+01	4.652382e+01
2.360000e-06	2.363153e-06	6.712108e-10	1.642872e+01	4.734700e+01
2.370000e-06	2.405718e-06	6.865239e-10	1.672463e+01	4.815034e+01
2.380000e-06	2.447961e-06	7.016644e-10	1.701830e+01	4.893439e+01
2.390000e-06	2.489818e-06	7.167689e-10	1.730930e+01	4.969974e+01
2.400000e-06	2.531392e-06	7.295936e-10	1.759832e+01	5.044701e+01
2.410000e-06	2.572673e-06	7.385246e-10	1.788531e+01	5.117679e+01
2.420000e-06	2.613615e-06	7.458955e-10	1.816994e+01	5.188973e+01
2.430000e-06	2.654249e-06	7.527517e-10	1.845243e+01	5.258645e+01
2.440000e-06	2.694703e-06	7.607262e-10	1.873366e+01	5.326757e+01
2.450000e-06	2.735010e-06	7.726648e-10	1.901388e+01	5.393369e+01
2.460000e-06	2.775072e-06	7.857800e-10	1.929239e+01	5.458542e+01
2.470000e-06	2.814950e-06	7.994947e-10	1.956962e+01	5.522333e+01
2.480000e-06	2.854720e-06	8.130341e-10	1.984610e+01	5.584798e+01
2.490000e-06	2.894417e-06	8.243962e-10	2.012208e+01	5.645988e+01
2.500000e-06	2.934034e-06	8.334193e-10	2.039750e+01	5.705953e+01
2.510000e-06	2.973522e-06	8.399579e-10	2.067202e+01	5.764738e+01
2.520000e-06	3.012839e-06	8.456808e-10	2.094535e+01	5.822385e+01
2.530000e-06	3.051975e-06	8.524119e-10	2.121743e+01	5.878934e+01
2.540000e-06	3.090814e-06	8.604395e-10	2.148744e+01	5.934417e+01
2.550000e-06	3.129308e-06	8.704376e-10	2.175505e+01	5.988865e+01
2.560000e-06	3.167548e-06	8.815521e-10	2.202090e+01	6.042305e+01
2.570000e-06	3.205639e-06	8.916302e-10	2.228571e+01	6.094758e+01
2.580000e-06	3.243604e-06	8.990063e-10	2.254964e+01	6.146243e+01
2.590000e-06	3.281363e-06	9.041922e-10	2.281214e+01	6.196773e+01
2.600000e-06	3.318877e-06	9.087112e-10	2.307294e+01	6.246360e+01
2.610000e-06	3.356166e-06	9.155597e-10	2.333218e+01	6.295011e+01
2.620000e-06	3.393226e-06	9.254207e-10	2.358982e+01	6.342730e+01
2.630000e-06	3.430026e-06	9.340561e-10	2.384565e+01	6.389518e+01
2.640000e-06	3.466586e-06	9.398448e-10	2.409982e+01	6.435375e+01
2.650000e-06	3.502879e-06	9.453424e-10	2.435213e+01	6.480296e+01
2.660000e-06	3.538961e-06	9.507974e-10	2.460297e+01	6.524276e+01
2.670000e-06	3.574876e-06	9.549982e-10	2.485266e+01	6.567308e+01
2.680000e-06	3.610624e-06	9.591802e-10	2.510118e+01	6.609385e+01
2.690000e-06	3.646269e-06	9.662772e-10	2.534898e+01	6.650498e+01
2.700000e-06	3.681801e-06	9.752454e-10	2.559600e+01	6.690638e+01
2.710000e-06	3.717115e-06	9.825144e-10	2.584151e+01	6.729796e+01
2.720000e-06	3.752110e-06	9.890148e-10	2.608479e+01	6.767965e+01
2.730000e-06	3.786734e-06	9.939728e-10	2.632550e+01	6.805137e+01
2.740000e-06	3.820943e-06	9.959311e-10	2.656332e+01	6.841306e+01
2.750000e-06	3.854656e-06	9.970275e-10	2.679770e+01	6.876467e+01
2.760000e-06	3.887828e-06	9.997778e-10	2.702831e+01	6.910617e+01
2.770000e-06	3.920527e-06	1.005480e-09	2.725563e+01	6.943756e+01
2.780000e-06	3.952926e-06	1.014247e-09	2.748087e+01	6.975886e+01
2.790000e-06	3.985108e-06	1.023834e-09	2.770460e+01	7.007011e+01
2.800000e-06	4.017022e-06	1.031929e-09	2.792647e+01	7.037137e+01
2.810000e-06	4.048761e-06	1.037789e-09	2.814712e+01	7.066275e+01
2.820000e-06	4.080363e-06	1.041089e-09	2.836682e+01	7.094437e+01
2.830000e-06	4.111761e-06	1.041580e-09	2.858510e+01	7.121639e+01
2.840000e-06	4.142953e-06	1.041826e-09	2.880195e+01	7.147899e+01
2.850000e-06	4.173807e-06	1.045399e-09	2.901644e+01	7.173239e+01
2.860000e-06	4.204239e-06	1.051637e-09	2.922801e+01	7.197683e+01
2.870000e-06	4.234381e-06	1.057200e-09	2.943756e+01	7.221258e+01
2.880000e-06	4.264213e-06	1.063320e-09	2.964495e+01	7.243994e+01
2.890000e-06	4.293748e-06	1.070034e-09	2.985028e+01	7.265922e+01
2.900000e-06	4.323089e-06	1.076111e-09	3.005426e+01	7.287077e+01
