# Temperatura_=_8.19
# Concentracion g/m^3_=_1620.0
# C_Vs_to_Am_M_A/Vsm_=_65563218390.804596
# pendiente_HvsI_1/m_=_3716.3
# ordenada_HvsI_A/m_=_1297.0
# frecuencia_Hz_=_135107.0019833979

Tiempo_(s)	Campo_(V.s)	Magnetizacion_(V.s)	Campo_(kA/m)	Magnetizacion_(A/m)
0.000000e+00	-5.525070e-06	-7.125224e-10	-3.836518e+01	-4.682019e+01
1.000000e-08	-5.525447e-06	-7.136228e-10	-3.836779e+01	-4.685705e+01
2.000000e-08	-5.525559e-06	-7.152315e-10	-3.836857e+01	-4.689679e+01
3.000000e-08	-5.525332e-06	-7.158282e-10	-3.836699e+01	-4.693919e+01
4.000000e-08	-5.524727e-06	-7.127198e-10	-3.836280e+01	-4.698400e+01
5.000000e-08	-5.523605e-06	-7.076784e-10	-3.835501e+01	-4.703096e+01
6.000000e-08	-5.521860e-06	-7.007849e-10	-3.834289e+01	-4.707976e+01
7.000000e-08	-5.519428e-06	-6.793990e-10	-3.832600e+01	-4.713009e+01
8.000000e-08	-5.516368e-06	-6.725596e-10	-3.830475e+01	-4.718160e+01
9.000000e-08	-5.512947e-06	-7.302539e-10	-3.828100e+01	-4.723395e+01
1.000000e-07	-5.509100e-06	-7.950088e-10	-3.825428e+01	-4.728677e+01
1.100000e-07	-5.504712e-06	-7.398469e-10	-3.822381e+01	-4.733968e+01
1.200000e-07	-5.500054e-06	-6.705547e-10	-3.819147e+01	-4.739230e+01
1.300000e-07	-5.495361e-06	-6.291927e-10	-3.815888e+01	-4.744426e+01
1.400000e-07	-5.490454e-06	-7.223508e-10	-3.812481e+01	-4.749516e+01
1.500000e-07	-5.485064e-06	-7.014242e-10	-3.808738e+01	-4.754463e+01
1.600000e-07	-5.479265e-06	-6.348190e-10	-3.804711e+01	-4.759228e+01
1.700000e-07	-5.473173e-06	-6.422266e-10	-3.800482e+01	-4.763777e+01
1.800000e-07	-5.466650e-06	-7.296317e-10	-3.795952e+01	-4.768073e+01
1.900000e-07	-5.459655e-06	-7.875913e-10	-3.791095e+01	-4.772084e+01
2.000000e-07	-5.452314e-06	-7.000363e-10	-3.785997e+01	-4.775777e+01
2.100000e-07	-5.444693e-06	-6.794869e-10	-3.780705e+01	-4.779123e+01
2.200000e-07	-5.436833e-06	-7.008986e-10	-3.775247e+01	-4.782095e+01
2.300000e-07	-5.428691e-06	-7.643965e-10	-3.769593e+01	-4.784668e+01
2.400000e-07	-5.420243e-06	-7.228962e-10	-3.763728e+01	-4.786819e+01
2.500000e-07	-5.411291e-06	-7.334604e-10	-3.757511e+01	-4.788529e+01
2.600000e-07	-5.401450e-06	-7.424104e-10	-3.750678e+01	-4.789783e+01
2.700000e-07	-5.390814e-06	-7.793550e-10	-3.743292e+01	-4.790566e+01
2.800000e-07	-5.379640e-06	-7.359618e-10	-3.735534e+01	-4.790868e+01
2.900000e-07	-5.368114e-06	-7.353387e-10	-3.727530e+01	-4.790681e+01
3.000000e-07	-5.356387e-06	-7.502772e-10	-3.719387e+01	-4.790003e+01
3.100000e-07	-5.344364e-06	-7.610940e-10	-3.711039e+01	-4.788831e+01
3.200000e-07	-5.331810e-06	-7.190472e-10	-3.702321e+01	-4.787166e+01
3.300000e-07	-5.318700e-06	-7.116238e-10	-3.693218e+01	-4.785014e+01
3.400000e-07	-5.305287e-06	-7.470068e-10	-3.683904e+01	-4.782382e+01
3.500000e-07	-5.291600e-06	-7.472502e-10	-3.674400e+01	-4.779279e+01
3.600000e-07	-5.277415e-06	-7.193325e-10	-3.664550e+01	-4.775718e+01
3.700000e-07	-5.262743e-06	-7.264888e-10	-3.654362e+01	-4.771713e+01
3.800000e-07	-5.247580e-06	-7.486332e-10	-3.643833e+01	-4.767280e+01
3.900000e-07	-5.231781e-06	-7.211934e-10	-3.632863e+01	-4.762436e+01
4.000000e-07	-5.215527e-06	-7.281055e-10	-3.621576e+01	-4.757203e+01
4.100000e-07	-5.198985e-06	-7.534126e-10	-3.610090e+01	-4.751599e+01
4.200000e-07	-5.182076e-06	-7.393656e-10	-3.598348e+01	-4.745648e+01
4.300000e-07	-5.164824e-06	-6.945175e-10	-3.586369e+01	-4.739371e+01
4.400000e-07	-5.147299e-06	-7.393904e-10	-3.574200e+01	-4.732790e+01
4.500000e-07	-5.129437e-06	-7.488115e-10	-3.561796e+01	-4.725930e+01
4.600000e-07	-5.111121e-06	-7.209783e-10	-3.549078e+01	-4.718812e+01
4.700000e-07	-5.092311e-06	-7.105152e-10	-3.536017e+01	-4.711460e+01
4.800000e-07	-5.073169e-06	-7.466995e-10	-3.522725e+01	-4.703896e+01
4.900000e-07	-5.053760e-06	-7.101331e-10	-3.509248e+01	-4.696140e+01
5.000000e-07	-5.034155e-06	-7.109315e-10	-3.495635e+01	-4.688213e+01
5.100000e-07	-5.014357e-06	-7.299924e-10	-3.481887e+01	-4.680135e+01
5.200000e-07	-4.994225e-06	-7.181435e-10	-3.467908e+01	-4.671922e+01
5.300000e-07	-4.973730e-06	-6.826743e-10	-3.453677e+01	-4.663591e+01
5.400000e-07	-4.952940e-06	-7.253244e-10	-3.439240e+01	-4.655157e+01
5.500000e-07	-4.931757e-06	-7.359321e-10	-3.424531e+01	-4.646633e+01
5.600000e-07	-4.910156e-06	-7.080353e-10	-3.409531e+01	-4.638030e+01
5.700000e-07	-4.888287e-06	-6.960689e-10	-3.394346e+01	-4.629357e+01
5.800000e-07	-4.866177e-06	-7.121867e-10	-3.378993e+01	-4.620622e+01
5.900000e-07	-4.843613e-06	-6.917822e-10	-3.363325e+01	-4.611831e+01
6.000000e-07	-4.820615e-06	-6.896774e-10	-3.347356e+01	-4.602987e+01
6.100000e-07	-4.797409e-06	-7.046586e-10	-3.331242e+01	-4.594092e+01
6.200000e-07	-4.773977e-06	-7.027518e-10	-3.314971e+01	-4.585148e+01
6.300000e-07	-4.750293e-06	-6.907755e-10	-3.298525e+01	-4.576152e+01
6.400000e-07	-4.726343e-06	-6.903093e-10	-3.281895e+01	-4.567101e+01
6.500000e-07	-4.702084e-06	-6.879509e-10	-3.265050e+01	-4.557992e+01
6.600000e-07	-4.677477e-06	-6.819801e-10	-3.247963e+01	-4.548819e+01
6.700000e-07	-4.652423e-06	-6.870713e-10	-3.230566e+01	-4.539575e+01
6.800000e-07	-4.626704e-06	-6.864036e-10	-3.212707e+01	-4.530253e+01
6.900000e-07	-4.600302e-06	-6.894201e-10	-3.194374e+01	-4.520844e+01
7.000000e-07	-4.573439e-06	-6.891584e-10	-3.175720e+01	-4.511340e+01
7.100000e-07	-4.546248e-06	-6.933694e-10	-3.156840e+01	-4.501731e+01
7.200000e-07	-4.518824e-06	-6.851196e-10	-3.137797e+01	-4.492007e+01
7.300000e-07	-4.491244e-06	-6.827764e-10	-3.118646e+01	-4.482159e+01
7.400000e-07	-4.463520e-06	-6.742335e-10	-3.099395e+01	-4.472177e+01
7.500000e-07	-4.435556e-06	-6.815113e-10	-3.079977e+01	-4.462052e+01
7.600000e-07	-4.407288e-06	-6.820084e-10	-3.060348e+01	-4.451774e+01
7.700000e-07	-4.378797e-06	-6.824914e-10	-3.040564e+01	-4.441335e+01
7.800000e-07	-4.350008e-06	-6.742398e-10	-3.020574e+01	-4.430727e+01
7.900000e-07	-4.320870e-06	-6.773831e-10	-3.000341e+01	-4.419943e+01
8.000000e-07	-4.291424e-06	-6.710423e-10	-2.979895e+01	-4.408977e+01
8.100000e-07	-4.261692e-06	-6.696167e-10	-2.959249e+01	-4.397823e+01
8.200000e-07	-4.231648e-06	-6.639815e-10	-2.938387e+01	-4.386477e+01
8.300000e-07	-4.201259e-06	-6.678887e-10	-2.917285e+01	-4.374937e+01
8.400000e-07	-4.170550e-06	-6.646379e-10	-2.895961e+01	-4.363199e+01
8.500000e-07	-4.139548e-06	-6.654459e-10	-2.874434e+01	-4.351263e+01
8.600000e-07	-4.108294e-06	-6.609045e-10	-2.852732e+01	-4.339129e+01
8.700000e-07	-4.076886e-06	-6.587584e-10	-2.830923e+01	-4.326797e+01
8.800000e-07	-4.045361e-06	-6.537105e-10	-2.809032e+01	-4.314269e+01
8.900000e-07	-4.013679e-06	-6.524820e-10	-2.787033e+01	-4.301549e+01
9.000000e-07	-3.981768e-06	-6.501559e-10	-2.764874e+01	-4.288640e+01
9.100000e-07	-3.949549e-06	-6.469620e-10	-2.742502e+01	-4.275546e+01
9.200000e-07	-3.916948e-06	-6.414560e-10	-2.719864e+01	-4.262273e+01
9.300000e-07	-3.883918e-06	-6.389028e-10	-2.696928e+01	-4.248824e+01
9.400000e-07	-3.850451e-06	-6.386779e-10	-2.673690e+01	-4.235207e+01
9.500000e-07	-3.816512e-06	-6.363616e-10	-2.650123e+01	-4.221427e+01
9.600000e-07	-3.782089e-06	-6.373174e-10	-2.626221e+01	-4.207490e+01
9.700000e-07	-3.747214e-06	-6.365692e-10	-2.602004e+01	-4.193402e+01
9.800000e-07	-3.712042e-06	-6.346345e-10	-2.577581e+01	-4.179167e+01
9.900000e-07	-3.676642e-06	-6.289561e-10	-2.553000e+01	-4.164792e+01
1.000000e-06	-3.641018e-06	-6.290574e-10	-2.528263e+01	-4.150281e+01
1.010000e-06	-3.605257e-06	-6.258666e-10	-2.503431e+01	-4.135637e+01
1.020000e-06	-3.569401e-06	-6.237794e-10	-2.478533e+01	-4.120863e+01
1.030000e-06	-3.533444e-06	-6.200448e-10	-2.453565e+01	-4.105962e+01
1.040000e-06	-3.497289e-06	-6.209178e-10	-2.428460e+01	-4.090934e+01
1.050000e-06	-3.460869e-06	-6.172046e-10	-2.403170e+01	-4.075778e+01
1.060000e-06	-3.424166e-06	-6.156982e-10	-2.377684e+01	-4.060494e+01
1.070000e-06	-3.387153e-06	-6.122048e-10	-2.351983e+01	-4.045077e+01
1.080000e-06	-3.349942e-06	-6.119885e-10	-2.326144e+01	-4.029525e+01
1.090000e-06	-3.312517e-06	-6.089169e-10	-2.300157e+01	-4.013829e+01
1.100000e-06	-3.274823e-06	-6.092666e-10	-2.273983e+01	-3.997984e+01
1.110000e-06	-3.236925e-06	-6.043382e-10	-2.247668e+01	-3.981981e+01
1.120000e-06	-3.198722e-06	-5.991538e-10	-2.221140e+01	-3.965808e+01
1.130000e-06	-3.160301e-06	-5.928958e-10	-2.194461e+01	-3.949455e+01
1.140000e-06	-3.121723e-06	-5.925874e-10	-2.167673e+01	-3.932907e+01
1.150000e-06	-3.082902e-06	-5.905200e-10	-2.140716e+01	-3.916151e+01
1.160000e-06	-3.043892e-06	-5.890756e-10	-2.113628e+01	-3.899170e+01
1.170000e-06	-3.004760e-06	-5.882927e-10	-2.086456e+01	-3.881948e+01
1.180000e-06	-2.965488e-06	-5.889144e-10	-2.059186e+01	-3.864467e+01
1.190000e-06	-2.926034e-06	-5.875472e-10	-2.031790e+01	-3.846706e+01
1.200000e-06	-2.886415e-06	-5.863594e-10	-2.004279e+01	-3.828647e+01
1.210000e-06	-2.846588e-06	-5.831560e-10	-1.976624e+01	-3.810269e+01
1.220000e-06	-2.806653e-06	-5.771522e-10	-1.948894e+01	-3.791550e+01
1.230000e-06	-2.766645e-06	-5.723492e-10	-1.921113e+01	-3.772468e+01
1.240000e-06	-2.726444e-06	-5.690159e-10	-1.893198e+01	-3.753002e+01
1.250000e-06	-2.685970e-06	-5.653934e-10	-1.865093e+01	-3.733129e+01
1.260000e-06	-2.645201e-06	-5.617190e-10	-1.836784e+01	-3.712828e+01
1.270000e-06	-2.604169e-06	-5.626361e-10	-1.808292e+01	-3.692074e+01
1.280000e-06	-2.562908e-06	-5.599550e-10	-1.779641e+01	-3.670848e+01
1.290000e-06	-2.521417e-06	-5.536121e-10	-1.750831e+01	-3.649125e+01
1.300000e-06	-2.479637e-06	-5.465508e-10	-1.721819e+01	-3.626886e+01
1.310000e-06	-2.437459e-06	-5.418695e-10	-1.692532e+01	-3.604108e+01
1.320000e-06	-2.394888e-06	-5.358806e-10	-1.662971e+01	-3.580772e+01
1.330000e-06	-2.352086e-06	-5.337235e-10	-1.633250e+01	-3.556856e+01
1.340000e-06	-2.309178e-06	-5.335835e-10	-1.603456e+01	-3.532343e+01
1.350000e-06	-2.266088e-06	-5.337814e-10	-1.573534e+01	-3.507212e+01
1.360000e-06	-2.222753e-06	-5.269976e-10	-1.543443e+01	-3.481446e+01
1.370000e-06	-2.179332e-06	-5.195332e-10	-1.513293e+01	-3.455026e+01
1.380000e-06	-2.135847e-06	-5.117263e-10	-1.483097e+01	-3.427937e+01
1.390000e-06	-2.092208e-06	-5.071693e-10	-1.452795e+01	-3.400161e+01
1.400000e-06	-2.048442e-06	-5.035293e-10	-1.422404e+01	-3.371682e+01
1.410000e-06	-2.004588e-06	-5.008877e-10	-1.391953e+01	-3.342485e+01
1.420000e-06	-1.960657e-06	-4.948710e-10	-1.361448e+01	-3.312554e+01
1.430000e-06	-1.916667e-06	-4.885266e-10	-1.330902e+01	-3.281873e+01
1.440000e-06	-1.872610e-06	-4.818042e-10	-1.300309e+01	-3.250428e+01
1.450000e-06	-1.828433e-06	-4.749204e-10	-1.269634e+01	-3.218204e+01
1.460000e-06	-1.784075e-06	-4.676656e-10	-1.238832e+01	-3.185185e+01
1.470000e-06	-1.739574e-06	-4.626329e-10	-1.207932e+01	-3.151355e+01
1.480000e-06	-1.695006e-06	-4.580308e-10	-1.176985e+01	-3.116698e+01
1.490000e-06	-1.650344e-06	-4.522885e-10	-1.145972e+01	-3.081199e+01
1.500000e-06	-1.605515e-06	-4.476759e-10	-1.114843e+01	-3.044838e+01
1.510000e-06	-1.560536e-06	-4.443936e-10	-1.083610e+01	-3.007599e+01
1.520000e-06	-1.515519e-06	-4.401941e-10	-1.052352e+01	-2.969462e+01
1.530000e-06	-1.470398e-06	-4.326014e-10	-1.021020e+01	-2.930408e+01
1.540000e-06	-1.425114e-06	-4.234714e-10	-9.895760e+00	-2.890414e+01
1.550000e-06	-1.379773e-06	-4.137722e-10	-9.580914e+00	-2.849461e+01
1.560000e-06	-1.334334e-06	-4.050971e-10	-9.265393e+00	-2.807523e+01
1.570000e-06	-1.288753e-06	-3.952346e-10	-8.948886e+00	-2.764576e+01
1.580000e-06	-1.243008e-06	-3.870933e-10	-8.631246e+00	-2.720596e+01
1.590000e-06	-1.197160e-06	-3.811068e-10	-8.312883e+00	-2.675555e+01
1.600000e-06	-1.151325e-06	-3.752482e-10	-7.994611e+00	-2.629425e+01
1.610000e-06	-1.105430e-06	-3.675334e-10	-7.675924e+00	-2.582178e+01
1.620000e-06	-1.059436e-06	-3.596869e-10	-7.356551e+00	-2.533784e+01
1.630000e-06	-1.013272e-06	-3.509753e-10	-7.035997e+00	-2.484212e+01
1.640000e-06	-9.670144e-07	-3.409915e-10	-6.714789e+00	-2.433432e+01
1.650000e-06	-9.207866e-07	-3.299249e-10	-6.393790e+00	-2.381412e+01
1.660000e-06	-8.745423e-07	-3.222141e-10	-6.072678e+00	-2.328121e+01
1.670000e-06	-8.282807e-07	-3.147965e-10	-5.751445e+00	-2.273528e+01
1.680000e-06	-7.818611e-07	-3.084455e-10	-5.429115e+00	-2.217601e+01
1.690000e-06	-7.353798e-07	-3.015456e-10	-5.106357e+00	-2.160310e+01
1.700000e-06	-6.889487e-07	-2.942230e-10	-4.783947e+00	-2.101626e+01
1.710000e-06	-6.424065e-07	-2.834832e-10	-4.460765e+00	-2.041521e+01
1.720000e-06	-5.958103e-07	-2.710897e-10	-4.137209e+00	-1.979968e+01
1.730000e-06	-5.491486e-07	-2.602089e-10	-3.813198e+00	-1.916944e+01
1.740000e-06	-5.023440e-07	-2.500184e-10	-3.488194e+00	-1.852426e+01
1.750000e-06	-4.555314e-07	-2.397997e-10	-3.163135e+00	-1.786396e+01
1.760000e-06	-4.087439e-07	-2.321066e-10	-2.838251e+00	-1.718838e+01
1.770000e-06	-3.619301e-07	-2.240391e-10	-2.513183e+00	-1.649739e+01
1.780000e-06	-3.151004e-07	-2.164245e-10	-2.188006e+00	-1.579091e+01
1.790000e-06	-2.682419e-07	-2.094790e-10	-1.862628e+00	-1.506890e+01
1.800000e-06	-2.213652e-07	-1.980863e-10	-1.537124e+00	-1.433136e+01
1.810000e-06	-1.745263e-07	-1.829490e-10	-1.211882e+00	-1.357835e+01
1.820000e-06	-1.276553e-07	-1.663934e-10	-8.864173e-01	-1.280997e+01
1.830000e-06	-8.074786e-08	-1.525268e-10	-5.606998e-01	-1.202639e+01
1.840000e-06	-3.386759e-08	-1.402203e-10	-2.351710e-01	-1.122782e+01
1.850000e-06	1.304265e-08	-1.272326e-10	9.056601e-02	-1.041454e+01
1.860000e-06	5.993739e-08	-1.174985e-10	4.161954e-01	-9.586878e+00
1.870000e-06	1.068028e-07	-1.080383e-10	7.416211e-01	-8.745247e+00
1.880000e-06	1.537057e-07	-9.751684e-11	1.067307e+00	-7.890106e+00
1.890000e-06	2.006056e-07	-8.590387e-11	1.392972e+00	-7.021979e+00
1.900000e-06	2.475125e-07	-7.078021e-11	1.718686e+00	-6.141457e+00
1.910000e-06	2.943595e-07	-5.523931e-11	2.043984e+00	-5.249190e+00
1.920000e-06	3.411263e-07	-3.860740e-11	2.368725e+00	-4.345892e+00
1.930000e-06	3.877864e-07	-2.519853e-11	2.692725e+00	-3.432335e+00
1.940000e-06	4.343899e-07	-1.413344e-11	3.016332e+00	-2.509350e+00
1.950000e-06	4.810865e-07	-9.619616e-12	3.340586e+00	-1.577822e+00
1.960000e-06	5.277414e-07	-5.794926e-12	3.664549e+00	-6.386874e-01
1.970000e-06	5.742668e-07	3.565583e-12	3.987614e+00	3.070667e-01
1.980000e-06	6.207805e-07	2.022670e-11	4.310598e+00	1.258410e+00
1.990000e-06	6.673059e-07	4.016706e-11	4.633662e+00	2.214273e+00
2.000000e-06	7.137969e-07	5.971796e-11	4.956488e+00	3.173550e+00
2.010000e-06	7.601482e-07	7.738539e-11	5.278344e+00	4.135104e+00
2.020000e-06	8.063200e-07	9.097413e-11	5.598953e+00	5.097775e+00
2.030000e-06	8.525143e-07	1.006414e-10	5.919719e+00	6.060383e+00
2.040000e-06	8.987209e-07	1.098761e-10	6.240570e+00	7.021737e+00
2.050000e-06	9.448096e-07	1.203942e-10	6.560603e+00	7.980637e+00
2.060000e-06	9.908442e-07	1.339560e-10	6.880259e+00	8.935882e+00
2.070000e-06	1.036842e-06	1.503445e-10	7.199663e+00	9.886280e+00
2.080000e-06	1.082747e-06	1.687347e-10	7.518414e+00	1.083065e+01
2.090000e-06	1.128553e-06	1.849212e-10	7.836483e+00	1.176782e+01
2.100000e-06	1.174285e-06	1.972249e-10	8.154042e+00	1.269667e+01
2.110000e-06	1.219983e-06	2.067604e-10	8.471359e+00	1.361607e+01
2.120000e-06	1.265609e-06	2.146195e-10	8.788178e+00	1.452497e+01
2.130000e-06	1.311122e-06	2.259440e-10	9.104215e+00	1.542233e+01
2.140000e-06	1.356580e-06	2.390187e-10	9.419865e+00	1.630717e+01
2.150000e-06	1.401957e-06	2.540975e-10	9.734957e+00	1.717858e+01
2.160000e-06	1.447209e-06	2.694688e-10	1.004918e+01	1.803567e+01
2.170000e-06	1.492403e-06	2.859250e-10	1.036300e+01	1.887765e+01
2.180000e-06	1.537529e-06	3.014361e-10	1.067635e+01	1.970378e+01
2.190000e-06	1.582458e-06	3.124288e-10	1.098833e+01	2.051338e+01
2.200000e-06	1.627222e-06	3.193440e-10	1.129916e+01	2.130586e+01
2.210000e-06	1.671870e-06	3.248938e-10	1.160919e+01	2.208070e+01
2.220000e-06	1.716327e-06	3.323734e-10	1.191789e+01	2.283745e+01
2.230000e-06	1.760665e-06	3.433343e-10	1.222577e+01	2.357575e+01
2.240000e-06	1.804863e-06	3.557110e-10	1.253267e+01	2.429530e+01
2.250000e-06	1.848911e-06	3.693435e-10	1.283853e+01	2.499588e+01
2.260000e-06	1.892907e-06	3.812492e-10	1.314404e+01	2.567738e+01
2.270000e-06	1.936849e-06	3.899953e-10	1.344916e+01	2.633972e+01
2.280000e-06	1.980702e-06	3.953218e-10	1.375367e+01	2.698293e+01
2.290000e-06	2.024492e-06	4.002753e-10	1.405774e+01	2.760710e+01
2.300000e-06	2.068262e-06	4.061597e-10	1.436167e+01	2.821237e+01
2.310000e-06	2.111947e-06	4.143719e-10	1.466501e+01	2.879899e+01
2.320000e-06	2.155521e-06	4.244603e-10	1.496758e+01	2.936724e+01
2.330000e-06	2.199087e-06	4.344777e-10	1.527010e+01	2.991746e+01
2.340000e-06	2.242600e-06	4.429016e-10	1.557225e+01	3.045006e+01
2.350000e-06	2.285936e-06	4.501462e-10	1.587316e+01	3.096548e+01
2.360000e-06	2.329082e-06	4.564352e-10	1.617276e+01	3.146422e+01
2.370000e-06	2.371961e-06	4.620161e-10	1.647051e+01	3.194681e+01
2.380000e-06	2.414571e-06	4.665145e-10	1.676638e+01	3.241382e+01
2.390000e-06	2.456863e-06	4.711522e-10	1.706005e+01	3.286584e+01
2.400000e-06	2.498755e-06	4.780668e-10	1.735095e+01	3.330349e+01
2.410000e-06	2.540359e-06	4.859374e-10	1.763983e+01	3.372739e+01
2.420000e-06	2.581722e-06	4.948536e-10	1.792705e+01	3.413819e+01
2.430000e-06	2.622789e-06	5.023635e-10	1.821222e+01	3.453654e+01
2.440000e-06	2.663567e-06	5.091528e-10	1.849537e+01	3.492307e+01
2.450000e-06	2.704029e-06	5.140590e-10	1.877633e+01	3.529843e+01
2.460000e-06	2.744236e-06	5.192791e-10	1.905552e+01	3.566325e+01
2.470000e-06	2.784310e-06	5.234679e-10	1.933379e+01	3.601814e+01
2.480000e-06	2.824243e-06	5.284241e-10	1.961108e+01	3.636368e+01
2.490000e-06	2.864053e-06	5.329947e-10	1.988751e+01	3.670046e+01
2.500000e-06	2.903725e-06	5.374538e-10	2.016299e+01	3.702900e+01
2.510000e-06	2.943297e-06	5.436640e-10	2.043777e+01	3.734981e+01
2.520000e-06	2.982751e-06	5.499285e-10	2.071173e+01	3.766337e+01
2.530000e-06	3.021978e-06	5.553560e-10	2.098412e+01	3.797012e+01
2.540000e-06	3.060937e-06	5.607511e-10	2.125465e+01	3.827044e+01
2.550000e-06	3.099692e-06	5.632421e-10	2.152375e+01	3.856471e+01
2.560000e-06	3.138301e-06	5.639834e-10	2.179185e+01	3.885323e+01
2.570000e-06	3.176654e-06	5.658606e-10	2.205817e+01	3.913628e+01
2.580000e-06	3.214702e-06	5.692859e-10	2.232236e+01	3.941410e+01
2.590000e-06	3.252463e-06	5.757181e-10	2.258456e+01	3.968688e+01
2.600000e-06	3.290059e-06	5.834216e-10	2.284563e+01	3.995477e+01
2.610000e-06	3.327591e-06	5.920994e-10	2.310624e+01	4.021788e+01
2.620000e-06	3.364965e-06	5.983705e-10	2.336577e+01	4.047630e+01
2.630000e-06	3.402093e-06	6.012970e-10	2.362358e+01	4.073006e+01
2.640000e-06	3.438922e-06	6.018346e-10	2.387931e+01	4.097919e+01
2.650000e-06	3.475481e-06	6.015802e-10	2.413317e+01	4.122364e+01
2.660000e-06	3.511795e-06	6.031723e-10	2.438533e+01	4.146339e+01
2.670000e-06	3.547856e-06	6.082363e-10	2.463573e+01	4.169835e+01
2.680000e-06	3.583683e-06	6.147189e-10	2.488450e+01	4.192844e+01
2.690000e-06	3.619351e-06	6.208172e-10	2.513218e+01	4.215355e+01
2.700000e-06	3.654961e-06	6.256843e-10	2.537945e+01	4.237356e+01
2.710000e-06	3.690440e-06	6.296727e-10	2.562581e+01	4.258835e+01
2.720000e-06	3.725736e-06	6.312657e-10	2.587090e+01	4.279776e+01
2.730000e-06	3.760800e-06	6.344820e-10	2.611438e+01	4.300167e+01
2.740000e-06	3.795483e-06	6.392231e-10	2.635521e+01	4.319994e+01
2.750000e-06	3.829709e-06	6.424948e-10	2.659287e+01	4.339243e+01
2.760000e-06	3.863460e-06	6.452529e-10	2.682723e+01	4.357903e+01
2.770000e-06	3.896758e-06	6.498170e-10	2.705844e+01	4.375961e+01
2.780000e-06	3.929577e-06	6.556179e-10	2.728634e+01	4.393407e+01
2.790000e-06	3.961876e-06	6.607903e-10	2.751061e+01	4.410233e+01
2.800000e-06	3.993864e-06	6.648890e-10	2.773274e+01	4.426433e+01
2.810000e-06	4.025726e-06	6.676940e-10	2.795398e+01	4.442000e+01
2.820000e-06	4.057458e-06	6.691581e-10	2.817432e+01	4.456934e+01
2.830000e-06	4.089044e-06	6.699534e-10	2.839365e+01	4.471232e+01
2.840000e-06	4.120467e-06	6.708573e-10	2.861185e+01	4.484898e+01
2.850000e-06	4.151693e-06	6.723621e-10	2.882867e+01	4.497936e+01
2.860000e-06	4.182609e-06	6.747349e-10	2.904335e+01	4.510351e+01
2.870000e-06	4.213139e-06	6.766549e-10	2.925535e+01	4.522155e+01
2.880000e-06	4.243283e-06	6.773399e-10	2.946466e+01	4.533357e+01
2.890000e-06	4.273118e-06	6.788648e-10	2.967183e+01	4.543972e+01
2.900000e-06	4.302733e-06	6.804166e-10	2.987747e+01	4.554015e+01
