# Temperatura_=_-0.21
# Concentracion g/m^3_=_1620.0
# C_Vs_to_Am_M_A/Vsm_=_65563218390.804596
# pendiente_HvsI_1/m_=_3716.3
# ordenada_HvsI_A/m_=_1297.0
# frecuencia_Hz_=_135107.58090819014

Tiempo_(s)	Campo_(V.s)	Magnetizacion_(V.s)	Campo_(kA/m)	Magnetizacion_(A/m)
0.000000e+00	-5.517809e-06	-1.223621e-09	-3.836261e+01	-7.962255e+01
1.000000e-08	-5.518007e-06	-1.221058e-09	-3.836399e+01	-7.962850e+01
2.000000e-08	-5.517960e-06	-1.218360e-09	-3.836366e+01	-7.963209e+01
3.000000e-08	-5.517485e-06	-1.214765e-09	-3.836036e+01	-7.963301e+01
4.000000e-08	-5.516481e-06	-1.209440e-09	-3.835338e+01	-7.963096e+01
5.000000e-08	-5.514816e-06	-1.205661e-09	-3.834181e+01	-7.962563e+01
6.000000e-08	-5.512537e-06	-1.196768e-09	-3.832596e+01	-7.961672e+01
7.000000e-08	-5.509805e-06	-1.184658e-09	-3.830697e+01	-7.960394e+01
8.000000e-08	-5.506619e-06	-1.211469e-09	-3.828482e+01	-7.958697e+01
9.000000e-08	-5.502947e-06	-1.270733e-09	-3.825928e+01	-7.956555e+01
1.000000e-07	-5.498856e-06	-1.255663e-09	-3.823084e+01	-7.953940e+01
1.100000e-07	-5.494437e-06	-1.180099e-09	-3.820012e+01	-7.950828e+01
1.200000e-07	-5.489818e-06	-1.158943e-09	-3.816801e+01	-7.947195e+01
1.300000e-07	-5.484932e-06	-1.210868e-09	-3.813404e+01	-7.943020e+01
1.400000e-07	-5.479622e-06	-1.223847e-09	-3.809712e+01	-7.938287e+01
1.500000e-07	-5.473927e-06	-1.159802e-09	-3.805752e+01	-7.932978e+01
1.600000e-07	-5.467948e-06	-1.160688e-09	-3.801595e+01	-7.927082e+01
1.700000e-07	-5.461561e-06	-1.234205e-09	-3.797155e+01	-7.920590e+01
1.800000e-07	-5.454712e-06	-1.262054e-09	-3.792393e+01	-7.913494e+01
1.900000e-07	-5.447559e-06	-1.184538e-09	-3.787420e+01	-7.905793e+01
2.000000e-07	-5.440099e-06	-1.154305e-09	-3.782233e+01	-7.897486e+01
2.100000e-07	-5.432330e-06	-1.219488e-09	-3.776832e+01	-7.888578e+01
2.200000e-07	-5.424308e-06	-1.261039e-09	-3.771254e+01	-7.879076e+01
2.300000e-07	-5.415936e-06	-1.231592e-09	-3.765434e+01	-7.868989e+01
2.400000e-07	-5.407053e-06	-1.202968e-09	-3.759258e+01	-7.858332e+01
2.500000e-07	-5.397450e-06	-1.233866e-09	-3.752582e+01	-7.847121e+01
2.600000e-07	-5.387141e-06	-1.232501e-09	-3.745414e+01	-7.835375e+01
2.700000e-07	-5.376352e-06	-1.197850e-09	-3.737913e+01	-7.823117e+01
2.800000e-07	-5.365131e-06	-1.189347e-09	-3.730112e+01	-7.810370e+01
2.900000e-07	-5.353522e-06	-1.216345e-09	-3.722040e+01	-7.797161e+01
3.000000e-07	-5.341493e-06	-1.215330e-09	-3.713677e+01	-7.783519e+01
3.100000e-07	-5.329019e-06	-1.194618e-09	-3.705005e+01	-7.769473e+01
3.200000e-07	-5.316187e-06	-1.192207e-09	-3.696083e+01	-7.755055e+01
3.300000e-07	-5.302985e-06	-1.206597e-09	-3.686905e+01	-7.740296e+01
3.400000e-07	-5.289384e-06	-1.192427e-09	-3.677449e+01	-7.725230e+01
3.500000e-07	-5.275411e-06	-1.161026e-09	-3.667734e+01	-7.709889e+01
3.600000e-07	-5.261034e-06	-1.169835e-09	-3.657738e+01	-7.694305e+01
3.700000e-07	-5.246203e-06	-1.198336e-09	-3.647427e+01	-7.678512e+01
3.800000e-07	-5.230784e-06	-1.182431e-09	-3.636707e+01	-7.662540e+01
3.900000e-07	-5.214737e-06	-1.153809e-09	-3.625550e+01	-7.646420e+01
4.000000e-07	-5.198347e-06	-1.180598e-09	-3.614155e+01	-7.630181e+01
4.100000e-07	-5.181619e-06	-1.188188e-09	-3.602525e+01	-7.613850e+01
4.200000e-07	-5.164492e-06	-1.141149e-09	-3.590617e+01	-7.597453e+01
4.300000e-07	-5.147060e-06	-1.144206e-09	-3.578498e+01	-7.581011e+01
4.400000e-07	-5.129374e-06	-1.188485e-09	-3.566201e+01	-7.564547e+01
4.500000e-07	-5.111329e-06	-1.157742e-09	-3.553655e+01	-7.548077e+01
4.600000e-07	-5.092764e-06	-1.117165e-09	-3.540748e+01	-7.531616e+01
4.700000e-07	-5.073815e-06	-1.155807e-09	-3.527574e+01	-7.515178e+01
4.800000e-07	-5.054579e-06	-1.170316e-09	-3.514201e+01	-7.498770e+01
4.900000e-07	-5.035060e-06	-1.132595e-09	-3.500630e+01	-7.482400e+01
5.000000e-07	-5.015362e-06	-1.149496e-09	-3.486935e+01	-7.466070e+01
5.100000e-07	-4.995459e-06	-1.167400e-09	-3.473097e+01	-7.449779e+01
5.200000e-07	-4.975229e-06	-1.125069e-09	-3.459032e+01	-7.433526e+01
5.300000e-07	-4.954572e-06	-1.125821e-09	-3.444670e+01	-7.417303e+01
5.400000e-07	-4.933501e-06	-1.166746e-09	-3.430021e+01	-7.401103e+01
5.500000e-07	-4.912198e-06	-1.135163e-09	-3.415210e+01	-7.384913e+01
5.600000e-07	-4.890624e-06	-1.102103e-09	-3.400210e+01	-7.368720e+01
5.700000e-07	-4.868667e-06	-1.139019e-09	-3.384945e+01	-7.352507e+01
5.800000e-07	-4.846315e-06	-1.143552e-09	-3.369405e+01	-7.336256e+01
5.900000e-07	-4.823549e-06	-1.109782e-09	-3.353576e+01	-7.319946e+01
6.000000e-07	-4.800464e-06	-1.125953e-09	-3.337527e+01	-7.303557e+01
6.100000e-07	-4.777168e-06	-1.139141e-09	-3.321330e+01	-7.287065e+01
6.200000e-07	-4.753675e-06	-1.105573e-09	-3.304997e+01	-7.270446e+01
6.300000e-07	-4.729972e-06	-1.097893e-09	-3.288517e+01	-7.253675e+01
6.400000e-07	-4.705997e-06	-1.113183e-09	-3.271848e+01	-7.236728e+01
6.500000e-07	-4.681641e-06	-1.099219e-09	-3.254915e+01	-7.219580e+01
6.600000e-07	-4.656792e-06	-1.090760e-09	-3.237639e+01	-7.202205e+01
6.700000e-07	-4.631391e-06	-1.103371e-09	-3.219978e+01	-7.184579e+01
6.800000e-07	-4.605395e-06	-1.099604e-09	-3.201905e+01	-7.166679e+01
6.900000e-07	-4.578835e-06	-1.089871e-09	-3.183438e+01	-7.148482e+01
7.000000e-07	-4.551904e-06	-1.093109e-09	-3.164715e+01	-7.129967e+01
7.100000e-07	-4.524668e-06	-1.089689e-09	-3.145779e+01	-7.111113e+01
7.200000e-07	-4.497166e-06	-1.078200e-09	-3.126658e+01	-7.091903e+01
7.300000e-07	-4.469518e-06	-1.076397e-09	-3.107436e+01	-7.072320e+01
7.400000e-07	-4.441683e-06	-1.076404e-09	-3.088084e+01	-7.052350e+01
7.500000e-07	-4.413603e-06	-1.069918e-09	-3.068561e+01	-7.031981e+01
7.600000e-07	-4.385217e-06	-1.063000e-09	-3.048826e+01	-7.011204e+01
7.700000e-07	-4.356423e-06	-1.058236e-09	-3.028807e+01	-6.990009e+01
7.800000e-07	-4.327245e-06	-1.052779e-09	-3.008521e+01	-6.968392e+01
7.900000e-07	-4.297772e-06	-1.049266e-09	-2.988030e+01	-6.946349e+01
8.000000e-07	-4.268093e-06	-1.045148e-09	-2.967395e+01	-6.923880e+01
8.100000e-07	-4.238177e-06	-1.041233e-09	-2.946596e+01	-6.900985e+01
8.200000e-07	-4.207983e-06	-1.040193e-09	-2.925603e+01	-6.877669e+01
8.300000e-07	-4.177500e-06	-1.039741e-09	-2.904410e+01	-6.853935e+01
8.400000e-07	-4.146675e-06	-1.034562e-09	-2.882979e+01	-6.829791e+01
8.500000e-07	-4.115561e-06	-1.027044e-09	-2.861347e+01	-6.805245e+01
8.600000e-07	-4.084199e-06	-1.022061e-09	-2.839542e+01	-6.780308e+01
8.700000e-07	-4.052723e-06	-1.015895e-09	-2.817659e+01	-6.754990e+01
8.800000e-07	-4.021154e-06	-1.010016e-09	-2.795711e+01	-6.729303e+01
8.900000e-07	-3.989377e-06	-1.009175e-09	-2.773618e+01	-6.703261e+01
9.000000e-07	-3.957305e-06	-1.005862e-09	-2.751319e+01	-6.676875e+01
9.100000e-07	-3.924880e-06	-9.966527e-10	-2.728776e+01	-6.650160e+01
9.200000e-07	-3.892081e-06	-9.895131e-10	-2.705973e+01	-6.623129e+01
9.300000e-07	-3.858814e-06	-9.847671e-10	-2.682844e+01	-6.595795e+01
9.400000e-07	-3.825083e-06	-9.764498e-10	-2.659392e+01	-6.568171e+01
9.500000e-07	-3.790856e-06	-9.693596e-10	-2.635596e+01	-6.540267e+01
9.600000e-07	-3.756193e-06	-9.681671e-10	-2.611497e+01	-6.512095e+01
9.700000e-07	-3.721226e-06	-9.654251e-10	-2.587186e+01	-6.483665e+01
9.800000e-07	-3.686014e-06	-9.607370e-10	-2.562704e+01	-6.454983e+01
9.900000e-07	-3.650575e-06	-9.577039e-10	-2.538066e+01	-6.426058e+01
1.000000e-06	-3.614978e-06	-9.537969e-10	-2.513316e+01	-6.396892e+01
1.010000e-06	-3.579280e-06	-9.472569e-10	-2.488497e+01	-6.367489e+01
1.020000e-06	-3.543427e-06	-9.425457e-10	-2.463571e+01	-6.337849e+01
1.030000e-06	-3.507359e-06	-9.391098e-10	-2.438494e+01	-6.307972e+01
1.040000e-06	-3.471022e-06	-9.326049e-10	-2.413231e+01	-6.277853e+01
1.050000e-06	-3.434369e-06	-9.235935e-10	-2.387748e+01	-6.247488e+01
1.060000e-06	-3.397451e-06	-9.145622e-10	-2.362081e+01	-6.216867e+01
1.070000e-06	-3.360370e-06	-9.080804e-10	-2.336300e+01	-6.185982e+01
1.080000e-06	-3.323028e-06	-9.031624e-10	-2.310338e+01	-6.154819e+01
1.090000e-06	-3.285412e-06	-8.988594e-10	-2.284185e+01	-6.123366e+01
1.100000e-06	-3.247625e-06	-8.948780e-10	-2.257914e+01	-6.091606e+01
1.110000e-06	-3.209547e-06	-8.878825e-10	-2.231440e+01	-6.059522e+01
1.120000e-06	-3.171202e-06	-8.813057e-10	-2.204781e+01	-6.027095e+01
1.130000e-06	-3.132596e-06	-8.752385e-10	-2.177940e+01	-5.994303e+01
1.140000e-06	-3.093790e-06	-8.684037e-10	-2.150960e+01	-5.961125e+01
1.150000e-06	-3.054914e-06	-8.605875e-10	-2.123931e+01	-5.927539e+01
1.160000e-06	-3.015795e-06	-8.544075e-10	-2.096734e+01	-5.893520e+01
1.170000e-06	-2.976526e-06	-8.490923e-10	-2.069432e+01	-5.859045e+01
1.180000e-06	-2.937194e-06	-8.444327e-10	-2.042086e+01	-5.824088e+01
1.190000e-06	-2.897698e-06	-8.425484e-10	-2.014627e+01	-5.788625e+01
1.200000e-06	-2.858067e-06	-8.400994e-10	-1.987073e+01	-5.752630e+01
1.210000e-06	-2.818347e-06	-8.338534e-10	-1.959458e+01	-5.716080e+01
1.220000e-06	-2.778490e-06	-8.237466e-10	-1.931748e+01	-5.678950e+01
1.230000e-06	-2.738392e-06	-8.136546e-10	-1.903869e+01	-5.641216e+01
1.240000e-06	-2.698076e-06	-8.070835e-10	-1.875839e+01	-5.602857e+01
1.250000e-06	-2.657588e-06	-8.014841e-10	-1.847690e+01	-5.563848e+01
1.260000e-06	-2.616793e-06	-7.979665e-10	-1.819327e+01	-5.524171e+01
1.270000e-06	-2.575657e-06	-7.976994e-10	-1.790728e+01	-5.483805e+01
1.280000e-06	-2.534295e-06	-7.939458e-10	-1.761971e+01	-5.442732e+01
1.290000e-06	-2.492592e-06	-7.873807e-10	-1.732977e+01	-5.400934e+01
1.300000e-06	-2.450436e-06	-7.781310e-10	-1.703668e+01	-5.358396e+01
1.310000e-06	-2.407971e-06	-7.687798e-10	-1.674144e+01	-5.315102e+01
1.320000e-06	-2.365305e-06	-7.595785e-10	-1.644480e+01	-5.271040e+01
1.330000e-06	-2.322475e-06	-7.541883e-10	-1.614702e+01	-5.226197e+01
1.340000e-06	-2.279529e-06	-7.511662e-10	-1.584845e+01	-5.180562e+01
1.350000e-06	-2.236414e-06	-7.452583e-10	-1.554869e+01	-5.134124e+01
1.360000e-06	-2.193084e-06	-7.372709e-10	-1.524743e+01	-5.086874e+01
1.370000e-06	-2.149626e-06	-7.283726e-10	-1.494529e+01	-5.038803e+01
1.380000e-06	-2.106049e-06	-7.195266e-10	-1.464232e+01	-4.989902e+01
1.390000e-06	-2.062415e-06	-7.116840e-10	-1.433896e+01	-4.940165e+01
1.400000e-06	-2.018720e-06	-7.063351e-10	-1.403517e+01	-4.889581e+01
1.410000e-06	-1.974880e-06	-7.013399e-10	-1.373037e+01	-4.838144e+01
1.420000e-06	-1.930932e-06	-6.934733e-10	-1.342482e+01	-4.785843e+01
1.430000e-06	-1.886899e-06	-6.852390e-10	-1.311868e+01	-4.732670e+01
1.440000e-06	-1.842784e-06	-6.765282e-10	-1.281197e+01	-4.678614e+01
1.450000e-06	-1.798526e-06	-6.651663e-10	-1.250427e+01	-4.623663e+01
1.460000e-06	-1.754157e-06	-6.525611e-10	-1.219579e+01	-4.567804e+01
1.470000e-06	-1.709647e-06	-6.400385e-10	-1.188633e+01	-4.511022e+01
1.480000e-06	-1.664941e-06	-6.289765e-10	-1.157552e+01	-4.453299e+01
1.490000e-06	-1.620120e-06	-6.205605e-10	-1.126390e+01	-4.394618e+01
1.500000e-06	-1.575273e-06	-6.137566e-10	-1.095210e+01	-4.334957e+01
1.510000e-06	-1.530346e-06	-6.050157e-10	-1.063974e+01	-4.274292e+01
1.520000e-06	-1.485243e-06	-5.938766e-10	-1.032616e+01	-4.212596e+01
1.530000e-06	-1.440028e-06	-5.797345e-10	-1.001181e+01	-4.149842e+01
1.540000e-06	-1.394680e-06	-5.637398e-10	-9.696524e+00	-4.085998e+01
1.550000e-06	-1.349219e-06	-5.481379e-10	-9.380454e+00	-4.021029e+01
1.560000e-06	-1.303752e-06	-5.359416e-10	-9.064350e+00	-3.954899e+01
1.570000e-06	-1.258234e-06	-5.279510e-10	-8.747879e+00	-3.887568e+01
1.580000e-06	-1.212566e-06	-5.211043e-10	-8.430373e+00	-3.818995e+01
1.590000e-06	-1.166811e-06	-5.131817e-10	-8.112265e+00	-3.749136e+01
1.600000e-06	-1.120985e-06	-5.039753e-10	-7.793656e+00	-3.677944e+01
1.610000e-06	-1.075071e-06	-4.931696e-10	-7.474439e+00	-3.605372e+01
1.620000e-06	-1.029096e-06	-4.817496e-10	-7.154797e+00	-3.531369e+01
1.630000e-06	-9.829731e-07	-4.687314e-10	-6.834129e+00	-3.455886e+01
1.640000e-06	-9.367640e-07	-4.544846e-10	-6.512859e+00	-3.378871e+01
1.650000e-06	-8.905034e-07	-4.400406e-10	-6.191232e+00	-3.300271e+01
1.660000e-06	-8.442023e-07	-4.256828e-10	-5.869323e+00	-3.220036e+01
1.670000e-06	-7.978888e-07	-4.124119e-10	-5.547329e+00	-3.138113e+01
1.680000e-06	-7.515017e-07	-3.998520e-10	-5.224822e+00	-3.054452e+01
1.690000e-06	-7.050576e-07	-3.895475e-10	-4.901919e+00	-2.969005e+01
1.700000e-06	-6.585418e-07	-3.793152e-10	-4.578517e+00	-2.881723e+01
1.710000e-06	-6.120100e-07	-3.679560e-10	-4.255004e+00	-2.792564e+01
1.720000e-06	-5.654748e-07	-3.552611e-10	-3.931468e+00	-2.701485e+01
1.730000e-06	-5.189717e-07	-3.406654e-10	-3.608155e+00	-2.608450e+01
1.740000e-06	-4.724172e-07	-3.241599e-10	-3.284485e+00	-2.513425e+01
1.750000e-06	-4.257446e-07	-3.071169e-10	-2.959993e+00	-2.416381e+01
1.760000e-06	-3.790330e-07	-2.916172e-10	-2.635230e+00	-2.317295e+01
1.770000e-06	-3.323140e-07	-2.775691e-10	-2.310416e+00	-2.216150e+01
1.780000e-06	-2.856107e-07	-2.661703e-10	-1.985711e+00	-2.112935e+01
1.790000e-06	-2.388608e-07	-2.541209e-10	-1.660682e+00	-2.007644e+01
1.800000e-06	-1.920348e-07	-2.390204e-10	-1.335123e+00	-1.900281e+01
1.810000e-06	-1.452049e-07	-2.225093e-10	-1.009538e+00	-1.790856e+01
1.820000e-06	-9.836597e-08	-2.053067e-10	-6.838902e-01	-1.679386e+01
1.830000e-06	-5.153369e-08	-1.880618e-10	-3.582884e-01	-1.565897e+01
1.840000e-06	-4.730129e-09	-1.710408e-10	-3.288626e-02	-1.450424e+01
1.850000e-06	4.207953e-08	-1.563400e-10	2.925583e-01	-1.333007e+01
1.860000e-06	8.889762e-08	-1.410850e-10	6.180614e-01	-1.213699e+01
1.870000e-06	1.356893e-07	-1.235312e-10	9.433811e-01	-1.092558e+01
1.880000e-06	1.824626e-07	-1.051186e-10	1.268573e+00	-9.696521e+00
1.890000e-06	2.292533e-07	-8.534724e-11	1.593885e+00	-8.450568e+00
1.900000e-06	2.760360e-07	-6.699004e-11	1.919143e+00	-7.188564e+00
1.910000e-06	3.227960e-07	-5.104178e-11	2.244242e+00	-5.911428e+00
1.920000e-06	3.695431e-07	-3.720888e-11	2.569251e+00	-4.620154e+00
1.930000e-06	4.162998e-07	-2.291348e-11	2.894328e+00	-3.315809e+00
1.940000e-06	4.629894e-07	-7.092008e-12	3.218938e+00	-1.999527e+00
1.950000e-06	5.096165e-07	9.296674e-12	3.543113e+00	-6.725076e-01
1.960000e-06	5.562020e-07	2.760711e-11	3.866999e+00	6.639952e-01
1.970000e-06	6.027397e-07	4.760599e-11	4.190553e+00	2.008674e+00
1.980000e-06	6.492335e-07	6.600437e-11	4.513801e+00	3.360177e+00
1.990000e-06	6.956620e-07	8.277633e-11	4.836595e+00	4.717112e+00
2.000000e-06	7.420386e-07	1.006876e-10	5.159030e+00	6.078056e+00
2.010000e-06	7.883830e-07	1.191080e-10	5.481239e+00	7.441562e+00
2.020000e-06	8.346973e-07	1.358108e-10	5.803240e+00	8.806166e+00
2.030000e-06	8.808860e-07	1.528999e-10	6.124367e+00	1.017039e+01
2.040000e-06	9.269636e-07	1.722702e-10	6.444722e+00	1.153277e+01
2.050000e-06	9.729963e-07	1.929755e-10	6.764765e+00	1.289183e+01
2.060000e-06	1.019005e-06	2.138508e-10	7.084640e+00	1.424612e+01
2.070000e-06	1.064982e-06	2.352063e-10	7.404294e+00	1.559420e+01
2.080000e-06	1.110898e-06	2.561466e-10	7.723526e+00	1.693468e+01
2.090000e-06	1.156732e-06	2.743330e-10	8.042187e+00	1.826618e+01
2.100000e-06	1.202440e-06	2.912213e-10	8.359971e+00	1.958738e+01
2.110000e-06	1.248089e-06	3.080058e-10	8.677347e+00	2.089702e+01
2.120000e-06	1.293640e-06	3.254713e-10	8.994039e+00	2.219387e+01
2.130000e-06	1.339059e-06	3.441442e-10	9.309819e+00	2.347678e+01
2.140000e-06	1.384384e-06	3.624850e-10	9.624938e+00	2.474467e+01
2.150000e-06	1.429619e-06	3.807699e-10	9.939441e+00	2.599651e+01
2.160000e-06	1.474754e-06	4.008490e-10	1.025324e+01	2.723137e+01
2.170000e-06	1.519786e-06	4.214484e-10	1.056633e+01	2.844839e+01
2.180000e-06	1.564710e-06	4.393844e-10	1.087866e+01	2.964680e+01
2.190000e-06	1.609490e-06	4.548338e-10	1.118999e+01	3.082588e+01
2.200000e-06	1.654120e-06	4.705468e-10	1.150028e+01	3.198505e+01
2.210000e-06	1.698608e-06	4.858471e-10	1.180959e+01	3.312377e+01
2.220000e-06	1.742999e-06	4.997529e-10	1.211821e+01	3.424161e+01
2.230000e-06	1.787265e-06	5.133332e-10	1.242598e+01	3.533822e+01
2.240000e-06	1.831435e-06	5.286038e-10	1.273306e+01	3.641333e+01
2.250000e-06	1.875477e-06	5.448922e-10	1.303927e+01	3.746676e+01
2.260000e-06	1.919384e-06	5.611661e-10	1.334453e+01	3.849841e+01
2.270000e-06	1.963251e-06	5.776959e-10	1.364952e+01	3.950825e+01
2.280000e-06	2.007001e-06	5.940050e-10	1.395369e+01	4.049632e+01
2.290000e-06	2.050667e-06	6.085532e-10	1.425728e+01	4.146275e+01
2.300000e-06	2.094333e-06	6.208012e-10	1.456086e+01	4.240772e+01
2.310000e-06	2.137933e-06	6.317144e-10	1.486400e+01	4.333147e+01
2.320000e-06	2.181461e-06	6.429824e-10	1.516662e+01	4.423429e+01
2.330000e-06	2.224897e-06	6.547456e-10	1.546861e+01	4.511654e+01
2.340000e-06	2.268162e-06	6.684342e-10	1.576942e+01	4.597859e+01
2.350000e-06	2.311212e-06	6.836676e-10	1.606872e+01	4.682089e+01
2.360000e-06	2.354135e-06	6.965983e-10	1.636715e+01	4.764389e+01
2.370000e-06	2.396868e-06	7.068462e-10	1.666424e+01	4.844808e+01
2.380000e-06	2.439238e-06	7.163933e-10	1.695883e+01	4.923395e+01
2.390000e-06	2.481334e-06	7.273528e-10	1.725150e+01	5.000204e+01
2.400000e-06	2.523134e-06	7.380573e-10	1.754211e+01	5.075287e+01
2.410000e-06	2.564585e-06	7.486682e-10	1.783030e+01	5.148697e+01
2.420000e-06	2.605627e-06	7.598391e-10	1.811564e+01	5.220487e+01
2.430000e-06	2.646308e-06	7.697605e-10	1.839847e+01	5.290709e+01
2.440000e-06	2.686800e-06	7.781229e-10	1.868000e+01	5.359414e+01
2.450000e-06	2.727064e-06	7.871883e-10	1.895993e+01	5.426652e+01
2.460000e-06	2.767117e-06	7.974804e-10	1.923840e+01	5.492469e+01
2.470000e-06	2.806995e-06	8.075575e-10	1.951565e+01	5.556912e+01
2.480000e-06	2.846734e-06	8.160596e-10	1.979194e+01	5.620022e+01
2.490000e-06	2.886382e-06	8.239207e-10	2.006759e+01	5.681839e+01
2.500000e-06	2.925940e-06	8.336217e-10	2.034262e+01	5.742399e+01
2.510000e-06	2.965415e-06	8.426865e-10	2.061707e+01	5.801737e+01
2.520000e-06	3.004772e-06	8.505293e-10	2.089070e+01	5.859881e+01
2.530000e-06	3.043919e-06	8.588064e-10	2.116287e+01	5.916859e+01
2.540000e-06	3.082758e-06	8.661070e-10	2.143290e+01	5.972695e+01
2.550000e-06	3.121316e-06	8.729373e-10	2.170097e+01	6.027408e+01
2.560000e-06	3.159666e-06	8.806038e-10	2.196761e+01	6.081016e+01
2.570000e-06	3.197765e-06	8.887915e-10	2.223249e+01	6.133533e+01
2.580000e-06	3.235681e-06	8.970302e-10	2.249610e+01	6.184970e+01
2.590000e-06	3.273459e-06	9.036630e-10	2.275875e+01	6.235336e+01
2.600000e-06	3.311002e-06	9.087224e-10	2.301977e+01	6.284638e+01
2.610000e-06	3.348249e-06	9.153563e-10	2.327873e+01	6.332879e+01
2.620000e-06	3.385215e-06	9.225130e-10	2.353573e+01	6.380063e+01
2.630000e-06	3.422002e-06	9.282332e-10	2.379150e+01	6.426191e+01
2.640000e-06	3.458599e-06	9.336378e-10	2.404594e+01	6.471262e+01
2.650000e-06	3.494918e-06	9.391302e-10	2.429845e+01	6.515276e+01
2.660000e-06	3.530970e-06	9.452675e-10	2.454910e+01	6.558232e+01
2.670000e-06	3.566857e-06	9.510707e-10	2.479860e+01	6.600128e+01
2.680000e-06	3.602603e-06	9.570823e-10	2.504712e+01	6.640965e+01
2.690000e-06	3.638181e-06	9.643267e-10	2.529448e+01	6.680741e+01
2.700000e-06	3.673607e-06	9.723586e-10	2.554079e+01	6.719456e+01
2.710000e-06	3.708899e-06	9.794435e-10	2.578615e+01	6.757114e+01
2.720000e-06	3.743971e-06	9.860534e-10	2.602999e+01	6.793717e+01
2.730000e-06	3.778702e-06	9.929462e-10	2.627146e+01	6.829269e+01
2.740000e-06	3.813082e-06	9.980036e-10	2.651049e+01	6.863779e+01
2.750000e-06	3.847050e-06	1.004098e-09	2.674665e+01	6.897254e+01
2.760000e-06	3.880531e-06	1.010431e-09	2.697942e+01	6.929706e+01
2.770000e-06	3.913518e-06	1.017329e-09	2.720877e+01	6.961149e+01
2.780000e-06	3.946035e-06	1.025189e-09	2.743484e+01	6.991598e+01
2.790000e-06	3.978183e-06	1.033441e-09	2.765835e+01	7.021072e+01
2.800000e-06	4.010088e-06	1.039097e-09	2.788017e+01	7.049592e+01
2.810000e-06	4.041823e-06	1.043364e-09	2.810080e+01	7.077181e+01
2.820000e-06	4.073389e-06	1.048391e-09	2.832027e+01	7.103865e+01
2.830000e-06	4.104780e-06	1.052050e-09	2.853852e+01	7.129672e+01
2.840000e-06	4.135984e-06	1.053538e-09	2.875547e+01	7.154633e+01
2.850000e-06	4.166950e-06	1.054006e-09	2.897076e+01	7.178778e+01
2.860000e-06	4.197602e-06	1.057533e-09	2.918386e+01	7.202141e+01
2.870000e-06	4.227865e-06	1.061991e-09	2.939427e+01	7.224759e+01
2.880000e-06	4.257755e-06	1.068440e-09	2.960208e+01	7.246666e+01
2.890000e-06	4.287394e-06	1.076657e-09	2.980814e+01	7.267901e+01
2.900000e-06	4.316773e-06	1.083594e-09	3.001240e+01	7.288502e+01
