# Temperatura_=_-0.3
# Concentracion g/m^3_=_1620.0
# C_Vs_to_Am_M_A/Vsm_=_65563218390.804596
# pendiente_HvsI_1/m_=_3716.3
# ordenada_HvsI_A/m_=_1297.0
# frecuencia_Hz_=_135102.35571531428

Tiempo_(s)	Campo_(V.s)	Magnetizacion_(V.s)	Campo_(kA/m)	Magnetizacion_(A/m)
0.000000e+00	-5.519618e-06	-1.406755e-09	-3.837936e+01	-9.011375e+01
1.000000e-08	-5.519726e-06	-1.407982e-09	-3.838011e+01	-9.012426e+01
2.000000e-08	-5.519568e-06	-1.409589e-09	-3.837902e+01	-9.013602e+01
3.000000e-08	-5.519104e-06	-1.408694e-09	-3.837579e+01	-9.014905e+01
4.000000e-08	-5.518139e-06	-1.404846e-09	-3.836908e+01	-9.016333e+01
5.000000e-08	-5.516526e-06	-1.399274e-09	-3.835786e+01	-9.017882e+01
6.000000e-08	-5.514220e-06	-1.382451e-09	-3.834183e+01	-9.019544e+01
7.000000e-08	-5.511299e-06	-1.373089e-09	-3.832152e+01	-9.021309e+01
8.000000e-08	-5.507893e-06	-1.415791e-09	-3.829783e+01	-9.023164e+01
9.000000e-08	-5.504047e-06	-1.456581e-09	-3.827109e+01	-9.025093e+01
1.000000e-07	-5.499859e-06	-1.424228e-09	-3.824197e+01	-9.027078e+01
1.100000e-07	-5.495504e-06	-1.395907e-09	-3.821169e+01	-9.029099e+01
1.200000e-07	-5.490939e-06	-1.355323e-09	-3.817995e+01	-9.031132e+01
1.300000e-07	-5.486011e-06	-1.411812e-09	-3.814568e+01	-9.033153e+01
1.400000e-07	-5.480693e-06	-1.397962e-09	-3.810871e+01	-9.035135e+01
1.500000e-07	-5.475009e-06	-1.359831e-09	-3.806919e+01	-9.037050e+01
1.600000e-07	-5.468974e-06	-1.358117e-09	-3.802722e+01	-9.038868e+01
1.700000e-07	-5.462470e-06	-1.378070e-09	-3.798200e+01	-9.040558e+01
1.800000e-07	-5.455522e-06	-1.441613e-09	-3.793368e+01	-9.042088e+01
1.900000e-07	-5.448175e-06	-1.401996e-09	-3.788260e+01	-9.043425e+01
2.000000e-07	-5.440570e-06	-1.415610e-09	-3.782972e+01	-9.044536e+01
2.100000e-07	-5.432744e-06	-1.399150e-09	-3.777530e+01	-9.045388e+01
2.200000e-07	-5.424628e-06	-1.441627e-09	-3.771887e+01	-9.045947e+01
2.300000e-07	-5.416256e-06	-1.411919e-09	-3.766066e+01	-9.046180e+01
2.400000e-07	-5.407459e-06	-1.427009e-09	-3.759949e+01	-9.046054e+01
2.500000e-07	-5.397942e-06	-1.424895e-09	-3.753332e+01	-9.045536e+01
2.600000e-07	-5.387714e-06	-1.457228e-09	-3.746220e+01	-9.044595e+01
2.700000e-07	-5.376925e-06	-1.432528e-09	-3.738718e+01	-9.043202e+01
2.800000e-07	-5.365641e-06	-1.423296e-09	-3.730872e+01	-9.041326e+01
2.900000e-07	-5.353982e-06	-1.424914e-09	-3.722765e+01	-9.038940e+01
3.000000e-07	-5.341966e-06	-1.432181e-09	-3.714410e+01	-9.036018e+01
3.100000e-07	-5.329509e-06	-1.413827e-09	-3.705749e+01	-9.032535e+01
3.200000e-07	-5.316542e-06	-1.395207e-09	-3.696732e+01	-9.028470e+01
3.300000e-07	-5.303166e-06	-1.419750e-09	-3.687431e+01	-9.023801e+01
3.400000e-07	-5.289485e-06	-1.408464e-09	-3.677919e+01	-9.018509e+01
3.500000e-07	-5.275418e-06	-1.403435e-09	-3.668137e+01	-9.012579e+01
3.600000e-07	-5.260886e-06	-1.400779e-09	-3.658033e+01	-9.005997e+01
3.700000e-07	-5.245903e-06	-1.407953e-09	-3.647615e+01	-8.998749e+01
3.800000e-07	-5.230292e-06	-1.375243e-09	-3.636760e+01	-8.990827e+01
3.900000e-07	-5.214127e-06	-1.398352e-09	-3.625520e+01	-8.982223e+01
4.000000e-07	-5.197585e-06	-1.410158e-09	-3.614018e+01	-8.972932e+01
4.100000e-07	-5.180672e-06	-1.395676e-09	-3.602258e+01	-8.962952e+01
4.200000e-07	-5.163396e-06	-1.369696e-09	-3.590245e+01	-8.952280e+01
4.300000e-07	-5.145933e-06	-1.406999e-09	-3.578103e+01	-8.940919e+01
4.400000e-07	-5.128262e-06	-1.381777e-09	-3.565816e+01	-8.928872e+01
4.500000e-07	-5.110115e-06	-1.364169e-09	-3.553198e+01	-8.916144e+01
4.600000e-07	-5.091474e-06	-1.372354e-09	-3.540236e+01	-8.902744e+01
4.700000e-07	-5.072388e-06	-1.390138e-09	-3.526966e+01	-8.888680e+01
4.800000e-07	-5.052952e-06	-1.352560e-09	-3.513451e+01	-8.873963e+01
4.900000e-07	-5.033297e-06	-1.377807e-09	-3.499785e+01	-8.858606e+01
5.000000e-07	-5.013465e-06	-1.380948e-09	-3.485995e+01	-8.842622e+01
5.100000e-07	-4.993403e-06	-1.346198e-09	-3.472045e+01	-8.826027e+01
5.200000e-07	-4.972988e-06	-1.331398e-09	-3.457850e+01	-8.808838e+01
5.300000e-07	-4.952238e-06	-1.369823e-09	-3.443422e+01	-8.791072e+01
5.400000e-07	-4.931204e-06	-1.350074e-09	-3.428796e+01	-8.772748e+01
5.500000e-07	-4.909811e-06	-1.343262e-09	-3.413922e+01	-8.753884e+01
5.600000e-07	-4.888062e-06	-1.362303e-09	-3.398798e+01	-8.734500e+01
5.700000e-07	-4.866032e-06	-1.345054e-09	-3.383480e+01	-8.714618e+01
5.800000e-07	-4.843559e-06	-1.314551e-09	-3.367855e+01	-8.694257e+01
5.900000e-07	-4.820655e-06	-1.337003e-09	-3.351929e+01	-8.673438e+01
6.000000e-07	-4.797482e-06	-1.335943e-09	-3.335816e+01	-8.652182e+01
6.100000e-07	-4.773999e-06	-1.310022e-09	-3.319487e+01	-8.630511e+01
6.200000e-07	-4.750292e-06	-1.326668e-09	-3.303004e+01	-8.608444e+01
6.300000e-07	-4.726417e-06	-1.329487e-09	-3.286402e+01	-8.586002e+01
6.400000e-07	-4.702341e-06	-1.301797e-09	-3.269662e+01	-8.563204e+01
6.500000e-07	-4.677892e-06	-1.299353e-09	-3.252662e+01	-8.540070e+01
6.600000e-07	-4.653109e-06	-1.313553e-09	-3.235429e+01	-8.516618e+01
6.700000e-07	-4.627813e-06	-1.286961e-09	-3.217841e+01	-8.492865e+01
6.800000e-07	-4.601803e-06	-1.288483e-09	-3.199755e+01	-8.468828e+01
6.900000e-07	-4.575230e-06	-1.301326e-09	-3.181279e+01	-8.444523e+01
7.000000e-07	-4.548118e-06	-1.295585e-09	-3.162426e+01	-8.419964e+01
7.100000e-07	-4.520712e-06	-1.281207e-09	-3.143370e+01	-8.395165e+01
7.200000e-07	-4.493138e-06	-1.296752e-09	-3.124198e+01	-8.370137e+01
7.300000e-07	-4.465320e-06	-1.280073e-09	-3.104855e+01	-8.344891e+01
7.400000e-07	-4.437336e-06	-1.268387e-09	-3.085397e+01	-8.319436e+01
7.500000e-07	-4.409183e-06	-1.270871e-09	-3.065822e+01	-8.293780e+01
7.600000e-07	-4.380700e-06	-1.272787e-09	-3.046017e+01	-8.267929e+01
7.700000e-07	-4.351879e-06	-1.251576e-09	-3.025976e+01	-8.241887e+01
7.800000e-07	-4.322772e-06	-1.257499e-09	-3.005737e+01	-8.215659e+01
7.900000e-07	-4.293302e-06	-1.258828e-09	-2.985246e+01	-8.189244e+01
8.000000e-07	-4.263519e-06	-1.250117e-09	-2.964537e+01	-8.162644e+01
8.100000e-07	-4.233512e-06	-1.242828e-09	-2.943673e+01	-8.135856e+01
8.200000e-07	-4.203232e-06	-1.249913e-09	-2.922618e+01	-8.108876e+01
8.300000e-07	-4.172687e-06	-1.238088e-09	-2.901379e+01	-8.081699e+01
8.400000e-07	-4.141844e-06	-1.228339e-09	-2.879934e+01	-8.054320e+01
8.500000e-07	-4.110634e-06	-1.226386e-09	-2.858232e+01	-8.026728e+01
8.600000e-07	-4.079153e-06	-1.219648e-09	-2.836343e+01	-7.998915e+01
8.700000e-07	-4.047530e-06	-1.205965e-09	-2.814355e+01	-7.970868e+01
8.800000e-07	-4.015794e-06	-1.206500e-09	-2.792288e+01	-7.942575e+01
8.900000e-07	-3.983860e-06	-1.207725e-09	-2.770083e+01	-7.914021e+01
9.000000e-07	-3.951673e-06	-1.198042e-09	-2.747702e+01	-7.885192e+01
9.100000e-07	-3.919188e-06	-1.193424e-09	-2.725115e+01	-7.856068e+01
9.200000e-07	-3.886299e-06	-1.190686e-09	-2.702246e+01	-7.826633e+01
9.300000e-07	-3.853019e-06	-1.182313e-09	-2.679106e+01	-7.796867e+01
9.400000e-07	-3.819351e-06	-1.172601e-09	-2.655696e+01	-7.766749e+01
9.500000e-07	-3.785235e-06	-1.172470e-09	-2.631974e+01	-7.736258e+01
9.600000e-07	-3.750673e-06	-1.163365e-09	-2.607942e+01	-7.705372e+01
9.700000e-07	-3.715725e-06	-1.155960e-09	-2.583642e+01	-7.674069e+01
9.800000e-07	-3.680410e-06	-1.150622e-09	-2.559086e+01	-7.642325e+01
9.900000e-07	-3.644810e-06	-1.147335e-09	-2.534333e+01	-7.610115e+01
1.000000e-06	-3.609062e-06	-1.136278e-09	-2.509476e+01	-7.577417e+01
1.010000e-06	-3.573153e-06	-1.133663e-09	-2.484507e+01	-7.544206e+01
1.020000e-06	-3.537165e-06	-1.128217e-09	-2.459485e+01	-7.510456e+01
1.030000e-06	-3.501038e-06	-1.121986e-09	-2.434364e+01	-7.476146e+01
1.040000e-06	-3.464670e-06	-1.113520e-09	-2.409077e+01	-7.441249e+01
1.050000e-06	-3.428140e-06	-1.109088e-09	-2.383676e+01	-7.405743e+01
1.060000e-06	-3.391290e-06	-1.095968e-09	-2.358054e+01	-7.369605e+01
1.070000e-06	-3.354204e-06	-1.087216e-09	-2.332266e+01	-7.332813e+01
1.080000e-06	-3.316920e-06	-1.081539e-09	-2.306342e+01	-7.295344e+01
1.090000e-06	-3.279350e-06	-1.077463e-09	-2.280219e+01	-7.257179e+01
1.100000e-06	-3.241526e-06	-1.068026e-09	-2.253919e+01	-7.218297e+01
1.110000e-06	-3.203506e-06	-1.063427e-09	-2.227482e+01	-7.178681e+01
1.120000e-06	-3.165325e-06	-1.056296e-09	-2.200934e+01	-7.138313e+01
1.130000e-06	-3.126918e-06	-1.047543e-09	-2.174228e+01	-7.097177e+01
1.140000e-06	-3.088218e-06	-1.038541e-09	-2.147320e+01	-7.055259e+01
1.150000e-06	-3.049238e-06	-1.031060e-09	-2.120215e+01	-7.012547e+01
1.160000e-06	-3.010175e-06	-1.021209e-09	-2.093054e+01	-6.969028e+01
1.170000e-06	-2.970902e-06	-1.013071e-09	-2.065746e+01	-6.924693e+01
1.180000e-06	-2.931314e-06	-1.008058e-09	-2.038220e+01	-6.879534e+01
1.190000e-06	-2.891569e-06	-1.002477e-09	-2.010585e+01	-6.833545e+01
1.200000e-06	-2.851752e-06	-9.980339e-10	-1.982898e+01	-6.786721e+01
1.210000e-06	-2.811818e-06	-9.944531e-10	-1.955131e+01	-6.739057e+01
1.220000e-06	-2.771753e-06	-9.885819e-10	-1.927273e+01	-6.690553e+01
1.230000e-06	-2.731633e-06	-9.776612e-10	-1.899376e+01	-6.641209e+01
1.240000e-06	-2.691343e-06	-9.681735e-10	-1.871362e+01	-6.591024e+01
1.250000e-06	-2.650816e-06	-9.576838e-10	-1.843182e+01	-6.540002e+01
1.260000e-06	-2.610099e-06	-9.504137e-10	-1.814871e+01	-6.488145e+01
1.270000e-06	-2.569068e-06	-9.439734e-10	-1.786341e+01	-6.435459e+01
1.280000e-06	-2.527773e-06	-9.392548e-10	-1.757627e+01	-6.381948e+01
1.290000e-06	-2.486250e-06	-9.310695e-10	-1.728755e+01	-6.327618e+01
1.300000e-06	-2.444408e-06	-9.238581e-10	-1.699662e+01	-6.272476e+01
1.310000e-06	-2.402246e-06	-9.164029e-10	-1.670345e+01	-6.216528e+01
1.320000e-06	-2.359738e-06	-9.082819e-10	-1.640789e+01	-6.159781e+01
1.330000e-06	-2.316935e-06	-9.004461e-10	-1.611026e+01	-6.102241e+01
1.340000e-06	-2.273881e-06	-8.944747e-10	-1.581089e+01	-6.043914e+01
1.350000e-06	-2.230597e-06	-8.839734e-10	-1.550993e+01	-5.984807e+01
1.360000e-06	-2.187156e-06	-8.740153e-10	-1.520787e+01	-5.924922e+01
1.370000e-06	-2.143596e-06	-8.649524e-10	-1.490499e+01	-5.864264e+01
1.380000e-06	-2.099959e-06	-8.571285e-10	-1.460157e+01	-5.802835e+01
1.390000e-06	-2.056258e-06	-8.471129e-10	-1.429770e+01	-5.740635e+01
1.400000e-06	-2.012460e-06	-8.399765e-10	-1.399316e+01	-5.677663e+01
1.410000e-06	-1.968599e-06	-8.306087e-10	-1.368819e+01	-5.613914e+01
1.420000e-06	-1.924629e-06	-8.199817e-10	-1.338245e+01	-5.549384e+01
1.430000e-06	-1.880553e-06	-8.092418e-10	-1.307598e+01	-5.484064e+01
1.440000e-06	-1.836416e-06	-7.983100e-10	-1.276909e+01	-5.417942e+01
1.450000e-06	-1.792124e-06	-7.847032e-10	-1.246111e+01	-5.351006e+01
1.460000e-06	-1.747721e-06	-7.699878e-10	-1.215236e+01	-5.283239e+01
1.470000e-06	-1.703271e-06	-7.571203e-10	-1.184329e+01	-5.214620e+01
1.480000e-06	-1.658614e-06	-7.446273e-10	-1.153278e+01	-5.145127e+01
1.490000e-06	-1.613727e-06	-7.310457e-10	-1.122067e+01	-5.074734e+01
1.500000e-06	-1.568744e-06	-7.192604e-10	-1.090789e+01	-5.003412e+01
1.510000e-06	-1.523706e-06	-7.085009e-10	-1.059473e+01	-4.931128e+01
1.520000e-06	-1.478523e-06	-6.942650e-10	-1.028056e+01	-4.857846e+01
1.530000e-06	-1.433217e-06	-6.799819e-10	-9.965534e+00	-4.783529e+01
1.540000e-06	-1.387839e-06	-6.677631e-10	-9.650012e+00	-4.708133e+01
1.550000e-06	-1.342323e-06	-6.545471e-10	-9.333523e+00	-4.631615e+01
1.560000e-06	-1.296724e-06	-6.383360e-10	-9.016461e+00	-4.553928e+01
1.570000e-06	-1.251081e-06	-6.227894e-10	-8.699099e+00	-4.475023e+01
1.580000e-06	-1.205299e-06	-6.065376e-10	-8.380760e+00	-4.394847e+01
1.590000e-06	-1.159440e-06	-5.923802e-10	-8.061896e+00	-4.313348e+01
1.600000e-06	-1.113612e-06	-5.815049e-10	-7.743239e+00	-4.230471e+01
1.610000e-06	-1.067696e-06	-5.710479e-10	-7.423973e+00	-4.146159e+01
1.620000e-06	-1.021630e-06	-5.587837e-10	-7.103666e+00	-4.060356e+01
1.630000e-06	-9.754661e-07	-5.463687e-10	-6.782674e+00	-3.973005e+01
1.640000e-06	-9.292339e-07	-5.294853e-10	-6.461209e+00	-3.884048e+01
1.650000e-06	-8.829595e-07	-5.091515e-10	-6.139451e+00	-3.793431e+01
1.660000e-06	-8.366889e-07	-4.883864e-10	-5.817719e+00	-3.701096e+01
1.670000e-06	-7.904311e-07	-4.722527e-10	-5.496076e+00	-3.606991e+01
1.680000e-06	-7.441433e-07	-4.577792e-10	-5.174225e+00	-3.511064e+01
1.690000e-06	-6.977307e-07	-4.449085e-10	-4.851506e+00	-3.413265e+01
1.700000e-06	-6.511798e-07	-4.319446e-10	-4.527825e+00	-3.313548e+01
1.710000e-06	-6.046121e-07	-4.156362e-10	-4.204028e+00	-3.211871e+01
1.720000e-06	-5.580846e-07	-3.977797e-10	-3.880509e+00	-3.108196e+01
1.730000e-06	-5.115529e-07	-3.813170e-10	-3.556963e+00	-3.002487e+01
1.740000e-06	-4.649472e-07	-3.639566e-10	-3.232901e+00	-2.894718e+01
1.750000e-06	-4.182654e-07	-3.459860e-10	-2.908310e+00	-2.784864e+01
1.760000e-06	-3.715025e-07	-3.266140e-10	-2.583155e+00	-2.672908e+01
1.770000e-06	-3.246856e-07	-3.088580e-10	-2.257625e+00	-2.558839e+01
1.780000e-06	-2.779301e-07	-2.933631e-10	-1.932522e+00	-2.442653e+01
1.790000e-06	-2.311749e-07	-2.768658e-10	-1.607420e+00	-2.324352e+01
1.800000e-06	-1.843549e-07	-2.592627e-10	-1.281868e+00	-2.203947e+01
1.810000e-06	-1.375188e-07	-2.403394e-10	-9.562042e-01	-2.081455e+01
1.820000e-06	-9.061432e-08	-2.212981e-10	-6.300653e-01	-1.956903e+01
1.830000e-06	-4.376975e-08	-2.028161e-10	-3.043426e-01	-1.830323e+01
1.840000e-06	3.011034e-09	-1.857849e-10	2.093651e-02	-1.701758e+01
1.850000e-06	4.986613e-08	-1.698770e-10	3.467324e-01	-1.571258e+01
1.860000e-06	9.668320e-08	-1.519221e-10	6.722638e-01	-1.438879e+01
1.870000e-06	1.435166e-07	-1.309770e-10	9.979089e-01	-1.304689e+01
1.880000e-06	1.904153e-07	-1.096367e-10	1.324008e+00	-1.168762e+01
1.890000e-06	2.372226e-07	-9.105667e-11	1.649472e+00	-1.031178e+01
1.900000e-06	2.839933e-07	-7.519876e-11	1.974681e+00	-8.920293e+00
1.910000e-06	3.307688e-07	-6.067747e-11	2.299923e+00	-7.514109e+00
1.920000e-06	3.774662e-07	-4.411244e-11	2.624622e+00	-6.094271e+00
1.930000e-06	4.241632e-07	-2.467277e-11	2.949319e+00	-4.661883e+00
1.940000e-06	4.708339e-07	-4.361063e-12	3.273832e+00	-3.218110e+00
1.950000e-06	5.173993e-07	1.727583e-11	3.597614e+00	-1.764175e+00
1.960000e-06	5.639650e-07	3.795630e-11	3.921398e+00	-3.013516e-01
1.970000e-06	6.106470e-07	5.886639e-11	4.245990e+00	1.169040e+00
1.980000e-06	6.572754e-07	7.802505e-11	4.570210e+00	2.645639e+00
1.990000e-06	7.036656e-07	9.594958e-11	4.892773e+00	4.127053e+00
2.000000e-06	7.499272e-07	1.151472e-10	5.214442e+00	5.611861e+00
2.010000e-06	7.961859e-07	1.361589e-10	5.536091e+00	7.098622e+00
2.020000e-06	8.423866e-07	1.586746e-10	5.857337e+00	8.585881e+00
2.030000e-06	8.884962e-07	1.823189e-10	6.177949e+00	1.007218e+01
2.040000e-06	9.345590e-07	2.021424e-10	6.498236e+00	1.155605e+01
2.050000e-06	9.805561e-07	2.185602e-10	6.818065e+00	1.303606e+01
2.060000e-06	1.026493e-06	2.343705e-10	7.137480e+00	1.451075e+01
2.070000e-06	1.072451e-06	2.546712e-10	7.457038e+00	1.597872e+01
2.080000e-06	1.118375e-06	2.761790e-10	7.776357e+00	1.743859e+01
2.090000e-06	1.164183e-06	2.976607e-10	8.094870e+00	1.888900e+01
2.100000e-06	1.209930e-06	3.212271e-10	8.412961e+00	2.032864e+01
2.110000e-06	1.255654e-06	3.449882e-10	8.730897e+00	2.175627e+01
2.120000e-06	1.301274e-06	3.660791e-10	9.048104e+00	2.317066e+01
2.130000e-06	1.346716e-06	3.830212e-10	9.364075e+00	2.457069e+01
2.140000e-06	1.392061e-06	3.974922e-10	9.679370e+00	2.595526e+01
2.150000e-06	1.437293e-06	4.115658e-10	9.993878e+00	2.732337e+01
2.160000e-06	1.482457e-06	4.291752e-10	1.030791e+01	2.867407e+01
2.170000e-06	1.527542e-06	4.524739e-10	1.062140e+01	3.000650e+01
2.180000e-06	1.572422e-06	4.771525e-10	1.093346e+01	3.131987e+01
2.190000e-06	1.617116e-06	5.001835e-10	1.124423e+01	3.261347e+01
2.200000e-06	1.661708e-06	5.210599e-10	1.155429e+01	3.388669e+01
2.210000e-06	1.706218e-06	5.375956e-10	1.186379e+01	3.513899e+01
2.220000e-06	1.750607e-06	5.512576e-10	1.217243e+01	3.636990e+01
2.230000e-06	1.794841e-06	5.630991e-10	1.248000e+01	3.757905e+01
2.240000e-06	1.838970e-06	5.752524e-10	1.278684e+01	3.876616e+01
2.250000e-06	1.883035e-06	5.905067e-10	1.309324e+01	3.993102e+01
2.260000e-06	1.927003e-06	6.104455e-10	1.339896e+01	4.107349e+01
2.270000e-06	1.970897e-06	6.330042e-10	1.370417e+01	4.219353e+01
2.280000e-06	2.014773e-06	6.546700e-10	1.400925e+01	4.329115e+01
2.290000e-06	2.058573e-06	6.706162e-10	1.431380e+01	4.436645e+01
2.300000e-06	2.102305e-06	6.834415e-10	1.461788e+01	4.541960e+01
2.310000e-06	2.145986e-06	6.943074e-10	1.492161e+01	4.645080e+01
2.320000e-06	2.189582e-06	7.044636e-10	1.522474e+01	4.746035e+01
2.330000e-06	2.233030e-06	7.163834e-10	1.552685e+01	4.844857e+01
2.340000e-06	2.276251e-06	7.315352e-10	1.582737e+01	4.941586e+01
2.350000e-06	2.319252e-06	7.477704e-10	1.612637e+01	5.036262e+01
2.360000e-06	2.362067e-06	7.642583e-10	1.642407e+01	5.128932e+01
2.370000e-06	2.404678e-06	7.795566e-10	1.672036e+01	5.219646e+01
2.380000e-06	2.446923e-06	7.918123e-10	1.701410e+01	5.308456e+01
2.390000e-06	2.488770e-06	8.029933e-10	1.730508e+01	5.395414e+01
2.400000e-06	2.530274e-06	8.133801e-10	1.759366e+01	5.480577e+01
2.410000e-06	2.571455e-06	8.240982e-10	1.788001e+01	5.564001e+01
2.420000e-06	2.612368e-06	8.362012e-10	1.816448e+01	5.645741e+01
2.430000e-06	2.653022e-06	8.487672e-10	1.844716e+01	5.725855e+01
2.440000e-06	2.693468e-06	8.629203e-10	1.872839e+01	5.804398e+01
2.450000e-06	2.733729e-06	8.777584e-10	1.900834e+01	5.881424e+01
2.460000e-06	2.773784e-06	8.893937e-10	1.928685e+01	5.956986e+01
2.470000e-06	2.813694e-06	8.982205e-10	1.956436e+01	6.031136e+01
2.480000e-06	2.853518e-06	9.053539e-10	1.984127e+01	6.103921e+01
2.490000e-06	2.893249e-06	9.141077e-10	2.011752e+01	6.175389e+01
2.500000e-06	2.932884e-06	9.249472e-10	2.039312e+01	6.245581e+01
2.510000e-06	2.972371e-06	9.356156e-10	2.066768e+01	6.314537e+01
2.520000e-06	3.011588e-06	9.456854e-10	2.094037e+01	6.382295e+01
2.530000e-06	3.050567e-06	9.563046e-10	2.121140e+01	6.448887e+01
2.540000e-06	3.089299e-06	9.655862e-10	2.148071e+01	6.514343e+01
2.550000e-06	3.127760e-06	9.713834e-10	2.174814e+01	6.578687e+01
2.560000e-06	3.166018e-06	9.772064e-10	2.201416e+01	6.641944e+01
2.570000e-06	3.204069e-06	9.853603e-10	2.227874e+01	6.704130e+01
2.580000e-06	3.241972e-06	9.931047e-10	2.254229e+01	6.765261e+01
2.590000e-06	3.279711e-06	1.000933e-09	2.280470e+01	6.825349e+01
2.600000e-06	3.317244e-06	1.009344e-09	2.306567e+01	6.884402e+01
2.610000e-06	3.354611e-06	1.017982e-09	2.332549e+01	6.942425e+01
2.620000e-06	3.391682e-06	1.025564e-09	2.358326e+01	6.999422e+01
2.630000e-06	3.428385e-06	1.030480e-09	2.383847e+01	7.055392e+01
2.640000e-06	3.464806e-06	1.033683e-09	2.409171e+01	7.110333e+01
2.650000e-06	3.501084e-06	1.038074e-09	2.434396e+01	7.164241e+01
2.660000e-06	3.537199e-06	1.045396e-09	2.459508e+01	7.217111e+01
2.670000e-06	3.573122e-06	1.053995e-09	2.484486e+01	7.268935e+01
2.680000e-06	3.608956e-06	1.062302e-09	2.509403e+01	7.319705e+01
2.690000e-06	3.644674e-06	1.069916e-09	2.534238e+01	7.369414e+01
2.700000e-06	3.680186e-06	1.077016e-09	2.558931e+01	7.418052e+01
2.710000e-06	3.715473e-06	1.082944e-09	2.583467e+01	7.465612e+01
2.720000e-06	3.750441e-06	1.089726e-09	2.607780e+01	7.512084e+01
2.730000e-06	3.785027e-06	1.097608e-09	2.631829e+01	7.557462e+01
2.740000e-06	3.819172e-06	1.103627e-09	2.655571e+01	7.601740e+01
2.750000e-06	3.852802e-06	1.107840e-09	2.678955e+01	7.644912e+01
2.760000e-06	3.885928e-06	1.111864e-09	2.701989e+01	7.686976e+01
2.770000e-06	3.918542e-06	1.118661e-09	2.724666e+01	7.727930e+01
2.780000e-06	3.950820e-06	1.129865e-09	2.747109e+01	7.767776e+01
2.790000e-06	3.982938e-06	1.142670e-09	2.769442e+01	7.806516e+01
2.800000e-06	4.014934e-06	1.152538e-09	2.791689e+01	7.844156e+01
2.810000e-06	4.046784e-06	1.158979e-09	2.813836e+01	7.880705e+01
2.820000e-06	4.078466e-06	1.163006e-09	2.835865e+01	7.916174e+01
2.830000e-06	4.109907e-06	1.164135e-09	2.857727e+01	7.950576e+01
2.840000e-06	4.141072e-06	1.165082e-09	2.879397e+01	7.983927e+01
2.850000e-06	4.171948e-06	1.171040e-09	2.900866e+01	8.016247e+01
2.860000e-06	4.202455e-06	1.180732e-09	2.922078e+01	8.047557e+01
2.870000e-06	4.232650e-06	1.189577e-09	2.943073e+01	8.077882e+01
2.880000e-06	4.262618e-06	1.197927e-09	2.963911e+01	8.107248e+01
2.890000e-06	4.292321e-06	1.205033e-09	2.984564e+01	8.135684e+01
2.900000e-06	4.321773e-06	1.209967e-09	3.005043e+01	8.163222e+01
