# Temperatura_=_-0.3
# Concentracion g/m^3_=_1620.0
# C_Vs_to_Am_M_A/Vsm_=_65563218390.804596
# pendiente_HvsI_1/m_=_3716.3
# ordenada_HvsI_A/m_=_1297.0
# frecuencia_Hz_=_135104.23399884472

Tiempo_(s)	Campo_(V.s)	Magnetizacion_(V.s)	Campo_(kA/m)	Magnetizacion_(A/m)
0.000000e+00	-5.520962e-06	-1.380188e-09	-3.837502e+01	-8.995347e+01
1.000000e-08	-5.520996e-06	-1.380066e-09	-3.837526e+01	-8.995308e+01
2.000000e-08	-5.520745e-06	-1.380685e-09	-3.837351e+01	-8.995275e+01
3.000000e-08	-5.520072e-06	-1.379327e-09	-3.836883e+01	-8.995250e+01
4.000000e-08	-5.518857e-06	-1.378277e-09	-3.836039e+01	-8.995237e+01
5.000000e-08	-5.517118e-06	-1.383333e-09	-3.834830e+01	-8.995235e+01
6.000000e-08	-5.514781e-06	-1.377931e-09	-3.833206e+01	-8.995239e+01
7.000000e-08	-5.511807e-06	-1.368724e-09	-3.831139e+01	-8.995244e+01
8.000000e-08	-5.508344e-06	-1.360848e-09	-3.828732e+01	-8.995242e+01
9.000000e-08	-5.504470e-06	-1.361404e-09	-3.826039e+01	-8.995222e+01
1.000000e-07	-5.500270e-06	-1.371939e-09	-3.823120e+01	-8.995171e+01
1.100000e-07	-5.495816e-06	-1.448497e-09	-3.820024e+01	-8.995075e+01
1.200000e-07	-5.490991e-06	-1.347871e-09	-3.816670e+01	-8.994918e+01
1.300000e-07	-5.485868e-06	-1.333604e-09	-3.813109e+01	-8.994682e+01
1.400000e-07	-5.480491e-06	-1.319084e-09	-3.809371e+01	-8.994347e+01
1.500000e-07	-5.474692e-06	-1.403391e-09	-3.805341e+01	-8.993893e+01
1.600000e-07	-5.468437e-06	-1.383115e-09	-3.800993e+01	-8.993301e+01
1.700000e-07	-5.461788e-06	-1.320736e-09	-3.796372e+01	-8.992547e+01
1.800000e-07	-5.454790e-06	-1.384254e-09	-3.791508e+01	-8.991610e+01
1.900000e-07	-5.447346e-06	-1.412329e-09	-3.786333e+01	-8.990467e+01
2.000000e-07	-5.439630e-06	-1.435648e-09	-3.780970e+01	-8.989097e+01
2.100000e-07	-5.431786e-06	-1.359309e-09	-3.775518e+01	-8.987476e+01
2.200000e-07	-5.423666e-06	-1.408886e-09	-3.769874e+01	-8.985582e+01
2.300000e-07	-5.415145e-06	-1.408539e-09	-3.763951e+01	-8.983395e+01
2.400000e-07	-5.406039e-06	-1.450009e-09	-3.757621e+01	-8.980893e+01
2.500000e-07	-5.396204e-06	-1.391928e-09	-3.750785e+01	-8.978056e+01
2.600000e-07	-5.385799e-06	-1.425858e-09	-3.743553e+01	-8.974864e+01
2.700000e-07	-5.374929e-06	-1.413424e-09	-3.735997e+01	-8.971299e+01
2.800000e-07	-5.363632e-06	-1.437671e-09	-3.728146e+01	-8.967344e+01
2.900000e-07	-5.351940e-06	-1.394052e-09	-3.720019e+01	-8.962982e+01
3.000000e-07	-5.339790e-06	-1.407093e-09	-3.711573e+01	-8.958197e+01
3.100000e-07	-5.327179e-06	-1.402744e-09	-3.702808e+01	-8.952975e+01
3.200000e-07	-5.314186e-06	-1.405104e-09	-3.693776e+01	-8.947303e+01
3.300000e-07	-5.300815e-06	-1.373137e-09	-3.684483e+01	-8.941168e+01
3.400000e-07	-5.287051e-06	-1.366141e-09	-3.674916e+01	-8.934561e+01
3.500000e-07	-5.272874e-06	-1.393939e-09	-3.665061e+01	-8.927470e+01
3.600000e-07	-5.258363e-06	-1.401698e-09	-3.654975e+01	-8.919887e+01
3.700000e-07	-5.243236e-06	-1.378967e-09	-3.644461e+01	-8.911804e+01
3.800000e-07	-5.227454e-06	-1.383850e-09	-3.633491e+01	-8.903213e+01
3.900000e-07	-5.211344e-06	-1.411683e-09	-3.622293e+01	-8.894108e+01
4.000000e-07	-5.194777e-06	-1.351795e-09	-3.610778e+01	-8.884484e+01
4.100000e-07	-5.177801e-06	-1.342350e-09	-3.598978e+01	-8.874336e+01
4.200000e-07	-5.160489e-06	-1.384169e-09	-3.586945e+01	-8.863660e+01
4.300000e-07	-5.142888e-06	-1.387100e-09	-3.574711e+01	-8.852451e+01
4.400000e-07	-5.124991e-06	-1.306945e-09	-3.562271e+01	-8.840708e+01
4.500000e-07	-5.106708e-06	-1.371997e-09	-3.549563e+01	-8.828426e+01
4.600000e-07	-5.087961e-06	-1.393878e-09	-3.536532e+01	-8.815605e+01
4.700000e-07	-5.068769e-06	-1.330403e-09	-3.523193e+01	-8.802243e+01
4.800000e-07	-5.049273e-06	-1.305736e-09	-3.509641e+01	-8.788337e+01
4.900000e-07	-5.029628e-06	-1.400616e-09	-3.495986e+01	-8.773887e+01
5.000000e-07	-5.009788e-06	-1.337170e-09	-3.482196e+01	-8.758893e+01
5.100000e-07	-4.989644e-06	-1.297739e-09	-3.468195e+01	-8.743353e+01
5.200000e-07	-4.969193e-06	-1.351874e-09	-3.453980e+01	-8.727268e+01
5.300000e-07	-4.948459e-06	-1.354645e-09	-3.439567e+01	-8.710637e+01
5.400000e-07	-4.927348e-06	-1.259330e-09	-3.424893e+01	-8.693463e+01
5.500000e-07	-4.905849e-06	-1.323090e-09	-3.409950e+01	-8.675745e+01
5.600000e-07	-4.884034e-06	-1.357389e-09	-3.394787e+01	-8.657486e+01
5.700000e-07	-4.861852e-06	-1.284977e-09	-3.379369e+01	-8.638688e+01
5.800000e-07	-4.839288e-06	-1.278599e-09	-3.363685e+01	-8.619353e+01
5.900000e-07	-4.816393e-06	-1.346494e-09	-3.347772e+01	-8.599486e+01
6.000000e-07	-4.793203e-06	-1.286851e-09	-3.331652e+01	-8.579089e+01
6.100000e-07	-4.769742e-06	-1.255135e-09	-3.315345e+01	-8.558169e+01
6.200000e-07	-4.746042e-06	-1.309481e-09	-3.298872e+01	-8.536731e+01
6.300000e-07	-4.722165e-06	-1.291660e-09	-3.282276e+01	-8.514781e+01
6.400000e-07	-4.698040e-06	-1.249056e-09	-3.265506e+01	-8.492329e+01
6.500000e-07	-4.673484e-06	-1.291205e-09	-3.248438e+01	-8.469381e+01
6.600000e-07	-4.648352e-06	-1.299853e-09	-3.230970e+01	-8.445950e+01
6.700000e-07	-4.622714e-06	-1.252570e-09	-3.213149e+01	-8.422045e+01
6.800000e-07	-4.596591e-06	-1.274540e-09	-3.194992e+01	-8.397678e+01
6.900000e-07	-4.569898e-06	-1.284259e-09	-3.176438e+01	-8.372864e+01
7.000000e-07	-4.542758e-06	-1.252455e-09	-3.157574e+01	-8.347616e+01
7.100000e-07	-4.515343e-06	-1.248547e-09	-3.138518e+01	-8.321950e+01
7.200000e-07	-4.487742e-06	-1.275495e-09	-3.119333e+01	-8.295883e+01
7.300000e-07	-4.459933e-06	-1.242670e-09	-3.100004e+01	-8.269432e+01
7.400000e-07	-4.431951e-06	-1.241828e-09	-3.080554e+01	-8.242616e+01
7.500000e-07	-4.403800e-06	-1.255744e-09	-3.060987e+01	-8.215455e+01
7.600000e-07	-4.375347e-06	-1.249981e-09	-3.041210e+01	-8.187968e+01
7.700000e-07	-4.346490e-06	-1.230032e-09	-3.021152e+01	-8.160177e+01
7.800000e-07	-4.317284e-06	-1.250134e-09	-3.000852e+01	-8.132103e+01
7.900000e-07	-4.287740e-06	-1.235154e-09	-2.980316e+01	-8.103767e+01
8.000000e-07	-4.257890e-06	-1.222249e-09	-2.959568e+01	-8.075191e+01
8.100000e-07	-4.227787e-06	-1.226914e-09	-2.938644e+01	-8.046397e+01
8.200000e-07	-4.197493e-06	-1.233224e-09	-2.917587e+01	-8.017405e+01
8.300000e-07	-4.166939e-06	-1.207590e-09	-2.896350e+01	-7.988238e+01
8.400000e-07	-4.136043e-06	-1.211496e-09	-2.874874e+01	-7.958914e+01
8.500000e-07	-4.104857e-06	-1.214862e-09	-2.853198e+01	-7.929453e+01
8.600000e-07	-4.073451e-06	-1.205828e-09	-2.831368e+01	-7.899872e+01
8.700000e-07	-4.041879e-06	-1.199799e-09	-2.809424e+01	-7.870189e+01
8.800000e-07	-4.010101e-06	-1.214110e-09	-2.787335e+01	-7.840418e+01
8.900000e-07	-3.978058e-06	-1.199561e-09	-2.765063e+01	-7.810572e+01
9.000000e-07	-3.945791e-06	-1.182279e-09	-2.742635e+01	-7.780662e+01
9.100000e-07	-3.913203e-06	-1.181839e-09	-2.719984e+01	-7.750697e+01
9.200000e-07	-3.880184e-06	-1.174426e-09	-2.697033e+01	-7.720682e+01
9.300000e-07	-3.846822e-06	-1.158349e-09	-2.673844e+01	-7.690622e+01
9.400000e-07	-3.813040e-06	-1.164456e-09	-2.650362e+01	-7.660516e+01
9.500000e-07	-3.778763e-06	-1.175679e-09	-2.626537e+01	-7.630363e+01
9.600000e-07	-3.744056e-06	-1.163232e-09	-2.602413e+01	-7.600157e+01
9.700000e-07	-3.709025e-06	-1.157423e-09	-2.578064e+01	-7.569889e+01
9.800000e-07	-3.673789e-06	-1.153601e-09	-2.553572e+01	-7.539549e+01
9.900000e-07	-3.638349e-06	-1.140652e-09	-2.528938e+01	-7.509120e+01
1.000000e-06	-3.602722e-06	-1.123500e-09	-2.504175e+01	-7.478586e+01
1.010000e-06	-3.566960e-06	-1.128802e-09	-2.479318e+01	-7.447924e+01
1.020000e-06	-3.531027e-06	-1.126612e-09	-2.454341e+01	-7.417111e+01
1.030000e-06	-3.494902e-06	-1.120189e-09	-2.429231e+01	-7.386119e+01
1.040000e-06	-3.458543e-06	-1.115567e-09	-2.403959e+01	-7.354917e+01
1.050000e-06	-3.421904e-06	-1.112876e-09	-2.378492e+01	-7.323474e+01
1.060000e-06	-3.384907e-06	-1.092704e-09	-2.352776e+01	-7.291752e+01
1.070000e-06	-3.347639e-06	-1.084076e-09	-2.326872e+01	-7.259716e+01
1.080000e-06	-3.310193e-06	-1.078678e-09	-2.300844e+01	-7.227324e+01
1.090000e-06	-3.272532e-06	-1.074462e-09	-2.274666e+01	-7.194536e+01
1.100000e-06	-3.234677e-06	-1.065377e-09	-2.248355e+01	-7.161308e+01
1.110000e-06	-3.196523e-06	-1.065248e-09	-2.221835e+01	-7.127596e+01
1.120000e-06	-3.158201e-06	-1.055437e-09	-2.195198e+01	-7.093355e+01
1.130000e-06	-3.119754e-06	-1.047400e-09	-2.168474e+01	-7.058540e+01
1.140000e-06	-3.080994e-06	-1.039384e-09	-2.141533e+01	-7.023104e+01
1.150000e-06	-3.042030e-06	-1.031108e-09	-2.114450e+01	-6.987002e+01
1.160000e-06	-3.002990e-06	-1.018691e-09	-2.087314e+01	-6.950189e+01
1.170000e-06	-2.963825e-06	-1.015724e-09	-2.060091e+01	-6.912621e+01
1.180000e-06	-2.924391e-06	-1.014461e-09	-2.032681e+01	-6.874254e+01
1.190000e-06	-2.884736e-06	-1.009834e-09	-2.005118e+01	-6.835048e+01
1.200000e-06	-2.844984e-06	-1.004118e-09	-1.977487e+01	-6.794961e+01
1.210000e-06	-2.805137e-06	-9.994899e-10	-1.949790e+01	-6.753957e+01
1.220000e-06	-2.765129e-06	-9.892206e-10	-1.921982e+01	-6.712001e+01
1.230000e-06	-2.724898e-06	-9.766927e-10	-1.894018e+01	-6.669059e+01
1.240000e-06	-2.684512e-06	-9.695771e-10	-1.865946e+01	-6.625102e+01
1.250000e-06	-2.643900e-06	-9.601403e-10	-1.837718e+01	-6.580103e+01
1.260000e-06	-2.602993e-06	-9.538877e-10	-1.809284e+01	-6.534037e+01
1.270000e-06	-2.561863e-06	-9.514388e-10	-1.780696e+01	-6.486885e+01
1.280000e-06	-2.520434e-06	-9.493018e-10	-1.751900e+01	-6.438629e+01
1.290000e-06	-2.478702e-06	-9.407374e-10	-1.722892e+01	-6.389254e+01
1.300000e-06	-2.436684e-06	-9.311664e-10	-1.693687e+01	-6.338750e+01
1.310000e-06	-2.394307e-06	-9.192569e-10	-1.664231e+01	-6.287109e+01
1.320000e-06	-2.351603e-06	-9.077692e-10	-1.634549e+01	-6.234326e+01
1.330000e-06	-2.308741e-06	-8.994960e-10	-1.604756e+01	-6.180399e+01
1.340000e-06	-2.265724e-06	-8.961340e-10	-1.574856e+01	-6.125329e+01
1.350000e-06	-2.222466e-06	-8.870775e-10	-1.544788e+01	-6.069119e+01
1.360000e-06	-2.179090e-06	-8.793998e-10	-1.514638e+01	-6.011776e+01
1.370000e-06	-2.135603e-06	-8.727289e-10	-1.484412e+01	-5.953306e+01
1.380000e-06	-2.091986e-06	-8.669009e-10	-1.454095e+01	-5.893718e+01
1.390000e-06	-2.048312e-06	-8.558522e-10	-1.423738e+01	-5.833023e+01
1.400000e-06	-2.004549e-06	-8.467534e-10	-1.393319e+01	-5.771231e+01
1.410000e-06	-1.960696e-06	-8.349388e-10	-1.362838e+01	-5.708354e+01
1.420000e-06	-1.916757e-06	-8.253444e-10	-1.332297e+01	-5.644404e+01
1.430000e-06	-1.872711e-06	-8.159522e-10	-1.301681e+01	-5.579391e+01
1.440000e-06	-1.828572e-06	-8.081261e-10	-1.271001e+01	-5.513326e+01
1.450000e-06	-1.784307e-06	-7.983048e-10	-1.240233e+01	-5.446218e+01
1.460000e-06	-1.739949e-06	-7.880922e-10	-1.209401e+01	-5.378074e+01
1.470000e-06	-1.695466e-06	-7.757833e-10	-1.178482e+01	-5.308901e+01
1.480000e-06	-1.650800e-06	-7.629258e-10	-1.147436e+01	-5.238700e+01
1.490000e-06	-1.605955e-06	-7.510608e-10	-1.116265e+01	-5.167473e+01
1.500000e-06	-1.561008e-06	-7.419323e-10	-1.085023e+01	-5.095217e+01
1.510000e-06	-1.515972e-06	-7.314491e-10	-1.053720e+01	-5.021925e+01
1.520000e-06	-1.470809e-06	-7.177820e-10	-1.022328e+01	-4.947588e+01
1.530000e-06	-1.425594e-06	-7.011892e-10	-9.909000e+00	-4.872193e+01
1.540000e-06	-1.380310e-06	-6.849359e-10	-9.594242e+00	-4.795723e+01
1.550000e-06	-1.334858e-06	-6.697075e-10	-9.278308e+00	-4.718155e+01
1.560000e-06	-1.289288e-06	-6.560623e-10	-8.961566e+00	-4.639465e+01
1.570000e-06	-1.243641e-06	-6.451946e-10	-8.644284e+00	-4.559622e+01
1.580000e-06	-1.197901e-06	-6.347072e-10	-8.326353e+00	-4.478594e+01
1.590000e-06	-1.152031e-06	-6.241842e-10	-8.007523e+00	-4.396343e+01
1.600000e-06	-1.106159e-06	-6.115628e-10	-7.688676e+00	-4.312828e+01
1.610000e-06	-1.060307e-06	-5.977585e-10	-7.369964e+00	-4.228004e+01
1.620000e-06	-1.014269e-06	-5.811738e-10	-7.049969e+00	-4.141823e+01
1.630000e-06	-9.681316e-07	-5.649857e-10	-6.729275e+00	-4.054235e+01
1.640000e-06	-9.219442e-07	-5.454967e-10	-6.408236e+00	-3.965187e+01
1.650000e-06	-8.756930e-07	-5.274653e-10	-6.086754e+00	-3.874623e+01
1.660000e-06	-8.294035e-07	-5.108564e-10	-5.765006e+00	-3.782488e+01
1.670000e-06	-7.830449e-07	-4.982792e-10	-5.442777e+00	-3.688724e+01
1.680000e-06	-7.365949e-07	-4.848950e-10	-5.119913e+00	-3.593274e+01
1.690000e-06	-6.900743e-07	-4.742707e-10	-4.796558e+00	-3.496080e+01
1.700000e-06	-6.435362e-07	-4.596472e-10	-4.473082e+00	-3.397087e+01
1.710000e-06	-5.969620e-07	-4.404384e-10	-4.149355e+00	-3.296239e+01
1.720000e-06	-5.503538e-07	-4.190200e-10	-3.825391e+00	-3.193485e+01
1.730000e-06	-5.037129e-07	-3.979895e-10	-3.501200e+00	-3.088775e+01
1.740000e-06	-4.570010e-07	-3.786788e-10	-3.176516e+00	-2.982065e+01
1.750000e-06	-4.102615e-07	-3.638489e-10	-2.851640e+00	-2.873314e+01
1.760000e-06	-3.634472e-07	-3.490938e-10	-2.526243e+00	-2.762486e+01
1.770000e-06	-3.165605e-07	-3.345055e-10	-2.200344e+00	-2.649551e+01
1.780000e-06	-2.697033e-07	-3.205349e-10	-1.874650e+00	-2.534486e+01
1.790000e-06	-2.229284e-07	-3.030205e-10	-1.549528e+00	-2.417274e+01
1.800000e-06	-1.761567e-07	-2.833423e-10	-1.224427e+00	-2.297908e+01
1.810000e-06	-1.293139e-07	-2.614185e-10	-8.988335e-01	-2.176387e+01
1.820000e-06	-8.248459e-08	-2.399991e-10	-5.733327e-01	-2.052718e+01
1.830000e-06	-3.569686e-08	-2.207055e-10	-2.481212e-01	-1.926920e+01
1.840000e-06	1.106472e-08	-2.027575e-10	7.690846e-02	-1.799018e+01
1.850000e-06	5.784802e-08	-1.873047e-10	4.020892e-01	-1.669049e+01
1.860000e-06	1.046552e-07	-1.706319e-10	7.274361e-01	-1.537059e+01
1.870000e-06	1.514794e-07	-1.519239e-10	1.052901e+00	-1.403103e+01
1.880000e-06	1.982872e-07	-1.338417e-10	1.378252e+00	-1.267249e+01
1.890000e-06	2.451042e-07	-1.148507e-10	1.703667e+00	-1.129570e+01
1.900000e-06	2.919798e-07	-9.663469e-11	2.029489e+00	-9.901536e+00
1.910000e-06	3.388365e-07	-7.719699e-11	2.355180e+00	-8.490943e+00
1.920000e-06	3.855645e-07	-5.866906e-11	2.679976e+00	-7.064966e+00
1.930000e-06	4.322099e-07	-3.813260e-11	3.004198e+00	-5.624738e+00
1.940000e-06	4.788381e-07	-1.905907e-11	3.328301e+00	-4.171478e+00
1.950000e-06	5.254471e-07	-3.423182e-13	3.652270e+00	-2.706485e+00
1.960000e-06	5.720088e-07	1.703335e-11	3.975910e+00	-1.231128e+00
1.970000e-06	6.184624e-07	3.558824e-11	4.298799e+00	2.531530e-01
1.980000e-06	6.647991e-07	5.650330e-11	4.620876e+00	1.744862e+00
1.990000e-06	7.110878e-07	7.939174e-11	4.942619e+00	3.242449e+00
2.000000e-06	7.574000e-07	1.014621e-10	5.264525e+00	4.744323e+00
2.010000e-06	8.036540e-07	1.216242e-10	5.586026e+00	6.248856e+00
2.020000e-06	8.498225e-07	1.405005e-10	5.906934e+00	7.754396e+00
2.030000e-06	8.959121e-07	1.606795e-10	6.227293e+00	9.259275e+00
2.040000e-06	9.419750e-07	1.791846e-10	6.547466e+00	1.076182e+01
2.050000e-06	9.880517e-07	1.978071e-10	6.867735e+00	1.226036e+01
2.060000e-06	1.034032e-06	2.198387e-10	7.187331e+00	1.375323e+01
2.070000e-06	1.079839e-06	2.432065e-10	7.505726e+00	1.523880e+01
2.080000e-06	1.125540e-06	2.637148e-10	7.823389e+00	1.671547e+01
2.090000e-06	1.171259e-06	2.805498e-10	8.141167e+00	1.818168e+01
2.100000e-06	1.216926e-06	2.976226e-10	8.458594e+00	1.963591e+01
2.110000e-06	1.262470e-06	3.145774e-10	8.775155e+00	2.107671e+01
2.120000e-06	1.307948e-06	3.341816e-10	9.091265e+00	2.250270e+01
2.130000e-06	1.353420e-06	3.559417e-10	9.407330e+00	2.391256e+01
2.140000e-06	1.398823e-06	3.768594e-10	9.722915e+00	2.530507e+01
2.150000e-06	1.444082e-06	3.954929e-10	1.003751e+01	2.667910e+01
2.160000e-06	1.489202e-06	4.140011e-10	1.035112e+01	2.803358e+01
2.170000e-06	1.534176e-06	4.314921e-10	1.066372e+01	2.936757e+01
2.180000e-06	1.579022e-06	4.468474e-10	1.097545e+01	3.068023e+01
2.190000e-06	1.623766e-06	4.629880e-10	1.128645e+01	3.197080e+01
2.200000e-06	1.668447e-06	4.811092e-10	1.159701e+01	3.323867e+01
2.210000e-06	1.712965e-06	4.987872e-10	1.190645e+01	3.448330e+01
2.220000e-06	1.757336e-06	5.189033e-10	1.221486e+01	3.570427e+01
2.230000e-06	1.801704e-06	5.376809e-10	1.252326e+01	3.690128e+01
2.240000e-06	1.845962e-06	5.527089e-10	1.283088e+01	3.807413e+01
2.250000e-06	1.889942e-06	5.669582e-10	1.313658e+01	3.922273e+01
2.260000e-06	1.933803e-06	5.834361e-10	1.344145e+01	4.034707e+01
2.270000e-06	1.977633e-06	5.994420e-10	1.374610e+01	4.144727e+01
2.280000e-06	2.021354e-06	6.139681e-10	1.404999e+01	4.252352e+01
2.290000e-06	2.065071e-06	6.279644e-10	1.435387e+01	4.357612e+01
2.300000e-06	2.108770e-06	6.417176e-10	1.465761e+01	4.460543e+01
2.310000e-06	2.152374e-06	6.554252e-10	1.496069e+01	4.561190e+01
2.320000e-06	2.195900e-06	6.690024e-10	1.526323e+01	4.659604e+01
2.330000e-06	2.239356e-06	6.810684e-10	1.556528e+01	4.755843e+01
2.340000e-06	2.282658e-06	6.942633e-10	1.586626e+01	4.849971e+01
2.350000e-06	2.325742e-06	7.109831e-10	1.616573e+01	4.942055e+01
2.360000e-06	2.368631e-06	7.271864e-10	1.646385e+01	5.032166e+01
2.370000e-06	2.411303e-06	7.412782e-10	1.676045e+01	5.120378e+01
2.380000e-06	2.453677e-06	7.535219e-10	1.705498e+01	5.206768e+01
2.390000e-06	2.495659e-06	7.641946e-10	1.734679e+01	5.291413e+01
2.400000e-06	2.537290e-06	7.756878e-10	1.763616e+01	5.374391e+01
2.410000e-06	2.578554e-06	7.891797e-10	1.792297e+01	5.455780e+01
2.420000e-06	2.619471e-06	8.028230e-10	1.820738e+01	5.535655e+01
2.430000e-06	2.660146e-06	8.161112e-10	1.849010e+01	5.614091e+01
2.440000e-06	2.700590e-06	8.298036e-10	1.877122e+01	5.691159e+01
2.450000e-06	2.740793e-06	8.446806e-10	1.905066e+01	5.766928e+01
2.460000e-06	2.780808e-06	8.578455e-10	1.932880e+01	5.841462e+01
2.470000e-06	2.820715e-06	8.677608e-10	1.960618e+01	5.914820e+01
2.480000e-06	2.860487e-06	8.754554e-10	1.988263e+01	5.987058e+01
2.490000e-06	2.900129e-06	8.844215e-10	2.015817e+01	6.058226e+01
2.500000e-06	2.939659e-06	8.950400e-10	2.043293e+01	6.128368e+01
2.510000e-06	2.979095e-06	9.060236e-10	2.070705e+01	6.197521e+01
2.520000e-06	3.018301e-06	9.174659e-10	2.097956e+01	6.265718e+01
2.530000e-06	3.057196e-06	9.280164e-10	2.124991e+01	6.332986e+01
2.540000e-06	3.095832e-06	9.367205e-10	2.151846e+01	6.399343e+01
2.550000e-06	3.134233e-06	9.450147e-10	2.178538e+01	6.464804e+01
2.560000e-06	3.172481e-06	9.545290e-10	2.205124e+01	6.529377e+01
2.570000e-06	3.210577e-06	9.628518e-10	2.231603e+01	6.593063e+01
2.580000e-06	3.248474e-06	9.688564e-10	2.257945e+01	6.655859e+01
2.590000e-06	3.286166e-06	9.764234e-10	2.284143e+01	6.717756e+01
2.600000e-06	3.323644e-06	9.854971e-10	2.310193e+01	6.778740e+01
2.610000e-06	3.360851e-06	9.950399e-10	2.336055e+01	6.838795e+01
2.620000e-06	3.397804e-06	1.005076e-09	2.361740e+01	6.897897e+01
2.630000e-06	3.434518e-06	1.011412e-09	2.387260e+01	6.956021e+01
2.640000e-06	3.470958e-06	1.015091e-09	2.412589e+01	7.013140e+01
2.650000e-06	3.507153e-06	1.021542e-09	2.437747e+01	7.069223e+01
2.660000e-06	3.543192e-06	1.031341e-09	2.462796e+01	7.124238e+01
2.670000e-06	3.579137e-06	1.039402e-09	2.487781e+01	7.178152e+01
2.680000e-06	3.614909e-06	1.046243e-09	2.512646e+01	7.230932e+01
2.690000e-06	3.650490e-06	1.053520e-09	2.537377e+01	7.282545e+01
2.700000e-06	3.685941e-06	1.058649e-09	2.562019e+01	7.332958e+01
2.710000e-06	3.721208e-06	1.062464e-09	2.586532e+01	7.382141e+01
2.720000e-06	3.756187e-06	1.067439e-09	2.610845e+01	7.430065e+01
2.730000e-06	3.790817e-06	1.074197e-09	2.634916e+01	7.476703e+01
2.740000e-06	3.824982e-06	1.081305e-09	2.658663e+01	7.522034e+01
2.750000e-06	3.858563e-06	1.087778e-09	2.682004e+01	7.566036e+01
2.760000e-06	3.891710e-06	1.093636e-09	2.705044e+01	7.608695e+01
2.770000e-06	3.924545e-06	1.097933e-09	2.727867e+01	7.650000e+01
2.780000e-06	3.956958e-06	1.102509e-09	2.750397e+01	7.689944e+01
2.790000e-06	3.989032e-06	1.108207e-09	2.772690e+01	7.728525e+01
2.800000e-06	4.020906e-06	1.114583e-09	2.794845e+01	7.765747e+01
2.810000e-06	4.052623e-06	1.121489e-09	2.816891e+01	7.801618e+01
2.820000e-06	4.084219e-06	1.126146e-09	2.838853e+01	7.836155e+01
2.830000e-06	4.115594e-06	1.128834e-09	2.860661e+01	7.869375e+01
2.840000e-06	4.146713e-06	1.130987e-09	2.882291e+01	7.901303e+01
2.850000e-06	4.177572e-06	1.136151e-09	2.903740e+01	7.931971e+01
2.860000e-06	4.208081e-06	1.142736e-09	2.924947e+01	7.961413e+01
2.870000e-06	4.238245e-06	1.147865e-09	2.945913e+01	7.989670e+01
2.880000e-06	4.268123e-06	1.154307e-09	2.966680e+01	8.016786e+01
2.890000e-06	4.297707e-06	1.160409e-09	2.987244e+01	8.042810e+01
2.900000e-06	4.326983e-06	1.164823e-09	3.007593e+01	8.067795e+01
