# Temperatura_=_-0.2
# Concentracion g/m^3_=_1620.0
# C_Vs_to_Am_M_A/Vsm_=_65563218390.804596
# pendiente_HvsI_1/m_=_3716.3
# ordenada_HvsI_A/m_=_1297.0
# frecuencia_Hz_=_135107.46609669572

Tiempo_(s)	Campo_(V.s)	Magnetizacion_(V.s)	Campo_(kA/m)	Magnetizacion_(A/m)
0.000000e+00	-5.528385e-06	-1.276379e-09	-3.836832e+01	-8.301418e+01
1.000000e-08	-5.528735e-06	-1.276423e-09	-3.837075e+01	-8.302849e+01
2.000000e-08	-5.528803e-06	-1.275859e-09	-3.837123e+01	-8.304105e+01
3.000000e-08	-5.528546e-06	-1.275299e-09	-3.836944e+01	-8.305174e+01
4.000000e-08	-5.527860e-06	-1.272459e-09	-3.836468e+01	-8.306043e+01
5.000000e-08	-5.526567e-06	-1.268811e-09	-3.835571e+01	-8.306696e+01
6.000000e-08	-5.524658e-06	-1.271168e-09	-3.834246e+01	-8.307116e+01
7.000000e-08	-5.522246e-06	-1.277614e-09	-3.832571e+01	-8.307288e+01
8.000000e-08	-5.519329e-06	-1.258508e-09	-3.830547e+01	-8.307192e+01
9.000000e-08	-5.515875e-06	-1.215111e-09	-3.828150e+01	-8.306809e+01
1.000000e-07	-5.511952e-06	-1.232062e-09	-3.825427e+01	-8.306120e+01
1.100000e-07	-5.507705e-06	-1.312729e-09	-3.822480e+01	-8.305105e+01
1.200000e-07	-5.503144e-06	-1.324993e-09	-3.819314e+01	-8.303746e+01
1.300000e-07	-5.498300e-06	-1.232828e-09	-3.815953e+01	-8.302022e+01
1.400000e-07	-5.493203e-06	-1.203183e-09	-3.812415e+01	-8.299915e+01
1.500000e-07	-5.487768e-06	-1.261708e-09	-3.808643e+01	-8.297406e+01
1.600000e-07	-5.481925e-06	-1.280564e-09	-3.804588e+01	-8.294479e+01
1.700000e-07	-5.475661e-06	-1.215948e-09	-3.800240e+01	-8.291118e+01
1.800000e-07	-5.469013e-06	-1.198503e-09	-3.795627e+01	-8.287308e+01
1.900000e-07	-5.461956e-06	-1.295888e-09	-3.790729e+01	-8.283035e+01
2.000000e-07	-5.454527e-06	-1.318106e-09	-3.785573e+01	-8.278289e+01
2.100000e-07	-5.446850e-06	-1.276046e-09	-3.780245e+01	-8.273060e+01
2.200000e-07	-5.438913e-06	-1.243667e-09	-3.774736e+01	-8.267341e+01
2.300000e-07	-5.430687e-06	-1.289646e-09	-3.769028e+01	-8.261125e+01
2.400000e-07	-5.421999e-06	-1.299605e-09	-3.762998e+01	-8.254410e+01
2.500000e-07	-5.412773e-06	-1.275626e-09	-3.756595e+01	-8.247195e+01
2.600000e-07	-5.402967e-06	-1.260161e-09	-3.749789e+01	-8.239479e+01
2.700000e-07	-5.392487e-06	-1.287792e-09	-3.742516e+01	-8.231268e+01
2.800000e-07	-5.381383e-06	-1.284067e-09	-3.734809e+01	-8.222565e+01
2.900000e-07	-5.369821e-06	-1.259412e-09	-3.726785e+01	-8.213378e+01
3.000000e-07	-5.357925e-06	-1.243951e-09	-3.718529e+01	-8.203718e+01
3.100000e-07	-5.345608e-06	-1.255317e-09	-3.709980e+01	-8.193594e+01
3.200000e-07	-5.332865e-06	-1.265320e-09	-3.701137e+01	-8.183020e+01
3.300000e-07	-5.319747e-06	-1.237843e-09	-3.692032e+01	-8.172010e+01
3.400000e-07	-5.306203e-06	-1.226764e-09	-3.682633e+01	-8.160581e+01
3.500000e-07	-5.292275e-06	-1.240642e-09	-3.672966e+01	-8.148749e+01
3.600000e-07	-5.277945e-06	-1.247783e-09	-3.663021e+01	-8.136532e+01
3.700000e-07	-5.263153e-06	-1.206754e-09	-3.652755e+01	-8.123950e+01
3.800000e-07	-5.247961e-06	-1.217809e-09	-3.642211e+01	-8.111021e+01
3.900000e-07	-5.232318e-06	-1.247554e-09	-3.631355e+01	-8.097765e+01
4.000000e-07	-5.216207e-06	-1.223337e-09	-3.620173e+01	-8.084201e+01
4.100000e-07	-5.199680e-06	-1.190310e-09	-3.608703e+01	-8.070350e+01
4.200000e-07	-5.182793e-06	-1.243946e-09	-3.596983e+01	-8.056228e+01
4.300000e-07	-5.165561e-06	-1.246965e-09	-3.585023e+01	-8.041855e+01
4.400000e-07	-5.148048e-06	-1.186418e-09	-3.572870e+01	-8.027247e+01
4.500000e-07	-5.130208e-06	-1.196181e-09	-3.560488e+01	-8.012421e+01
4.600000e-07	-5.111806e-06	-1.255378e-09	-3.547716e+01	-7.997391e+01
4.700000e-07	-5.092864e-06	-1.203719e-09	-3.534570e+01	-7.982170e+01
4.800000e-07	-5.073591e-06	-1.169332e-09	-3.521194e+01	-7.966769e+01
4.900000e-07	-5.054108e-06	-1.219515e-09	-3.507672e+01	-7.951198e+01
5.000000e-07	-5.034436e-06	-1.217155e-09	-3.494019e+01	-7.935464e+01
5.100000e-07	-5.014601e-06	-1.160679e-09	-3.480254e+01	-7.919574e+01
5.200000e-07	-4.994502e-06	-1.197999e-09	-3.466304e+01	-7.903529e+01
5.300000e-07	-4.974045e-06	-1.217493e-09	-3.452107e+01	-7.887332e+01
5.400000e-07	-4.953236e-06	-1.164302e-09	-3.437665e+01	-7.870983e+01
5.500000e-07	-4.932055e-06	-1.178589e-09	-3.422965e+01	-7.854477e+01
5.600000e-07	-4.910531e-06	-1.231740e-09	-3.408026e+01	-7.837810e+01
5.700000e-07	-4.888648e-06	-1.182383e-09	-3.392839e+01	-7.820976e+01
5.800000e-07	-4.866311e-06	-1.145430e-09	-3.377337e+01	-7.803966e+01
5.900000e-07	-4.843667e-06	-1.186098e-09	-3.361621e+01	-7.786770e+01
6.000000e-07	-4.820781e-06	-1.174402e-09	-3.345738e+01	-7.769376e+01
6.100000e-07	-4.797536e-06	-1.138886e-09	-3.329605e+01	-7.751770e+01
6.200000e-07	-4.774010e-06	-1.171368e-09	-3.313278e+01	-7.733939e+01
6.300000e-07	-4.750290e-06	-1.182385e-09	-3.296816e+01	-7.715868e+01
6.400000e-07	-4.726363e-06	-1.144288e-09	-3.280210e+01	-7.697540e+01
6.500000e-07	-4.702113e-06	-1.153011e-09	-3.263380e+01	-7.678940e+01
6.600000e-07	-4.677358e-06	-1.161701e-09	-3.246199e+01	-7.660050e+01
6.700000e-07	-4.652022e-06	-1.128337e-09	-3.228615e+01	-7.640855e+01
6.800000e-07	-4.626155e-06	-1.120819e-09	-3.210663e+01	-7.621338e+01
6.900000e-07	-4.599807e-06	-1.141425e-09	-3.192377e+01	-7.601484e+01
7.000000e-07	-4.573009e-06	-1.124808e-09	-3.173778e+01	-7.581278e+01
7.100000e-07	-4.545843e-06	-1.122816e-09	-3.154924e+01	-7.560706e+01
7.200000e-07	-4.518406e-06	-1.137051e-09	-3.135883e+01	-7.539756e+01
7.300000e-07	-4.490729e-06	-1.123761e-09	-3.116674e+01	-7.518417e+01
7.400000e-07	-4.462802e-06	-1.102948e-09	-3.097292e+01	-7.496678e+01
7.500000e-07	-4.434686e-06	-1.112565e-09	-3.077778e+01	-7.474533e+01
7.600000e-07	-4.406398e-06	-1.103959e-09	-3.058146e+01	-7.451976e+01
7.700000e-07	-4.377786e-06	-1.090979e-09	-3.038289e+01	-7.429002e+01
7.800000e-07	-4.348856e-06	-1.099849e-09	-3.018211e+01	-7.405611e+01
7.900000e-07	-4.319646e-06	-1.103039e-09	-2.997938e+01	-7.381801e+01
8.000000e-07	-4.290111e-06	-1.084926e-09	-2.977441e+01	-7.357577e+01
8.100000e-07	-4.260293e-06	-1.086633e-09	-2.956746e+01	-7.332942e+01
8.200000e-07	-4.230186e-06	-1.088734e-09	-2.935851e+01	-7.307904e+01
8.300000e-07	-4.199750e-06	-1.073041e-09	-2.914727e+01	-7.282471e+01
8.400000e-07	-4.169007e-06	-1.067724e-09	-2.893391e+01	-7.256653e+01
8.500000e-07	-4.137990e-06	-1.079181e-09	-2.871865e+01	-7.230463e+01
8.600000e-07	-4.106741e-06	-1.071280e-09	-2.850177e+01	-7.203916e+01
8.700000e-07	-4.075317e-06	-1.058315e-09	-2.828368e+01	-7.177025e+01
8.800000e-07	-4.043752e-06	-1.060722e-09	-2.806461e+01	-7.149809e+01
8.900000e-07	-4.012044e-06	-1.054967e-09	-2.784455e+01	-7.122284e+01
9.000000e-07	-3.980090e-06	-1.039139e-09	-2.762278e+01	-7.094468e+01
9.100000e-07	-3.947818e-06	-1.038409e-09	-2.739881e+01	-7.066381e+01
9.200000e-07	-3.915204e-06	-1.040686e-09	-2.717246e+01	-7.038040e+01
9.300000e-07	-3.882216e-06	-1.029823e-09	-2.694351e+01	-7.009464e+01
9.400000e-07	-3.848835e-06	-1.028230e-09	-2.671184e+01	-6.980671e+01
9.500000e-07	-3.814927e-06	-1.032562e-09	-2.647651e+01	-6.951679e+01
9.600000e-07	-3.780466e-06	-1.024681e-09	-2.623734e+01	-6.922503e+01
9.700000e-07	-3.745611e-06	-1.013496e-09	-2.599544e+01	-6.893157e+01
9.800000e-07	-3.710453e-06	-1.013199e-09	-2.575144e+01	-6.863656e+01
9.900000e-07	-3.675089e-06	-1.005863e-09	-2.550600e+01	-6.834009e+01
1.000000e-06	-3.639598e-06	-9.968695e-10	-2.525968e+01	-6.804227e+01
1.010000e-06	-3.603947e-06	-9.970222e-10	-2.501226e+01	-6.774315e+01
1.020000e-06	-3.568109e-06	-9.984054e-10	-2.476354e+01	-6.744277e+01
1.030000e-06	-3.532119e-06	-9.906003e-10	-2.451376e+01	-6.714114e+01
1.040000e-06	-3.495908e-06	-9.886729e-10	-2.426244e+01	-6.683824e+01
1.050000e-06	-3.459367e-06	-9.872527e-10	-2.400884e+01	-6.653402e+01
1.060000e-06	-3.422535e-06	-9.768156e-10	-2.375321e+01	-6.622839e+01
1.070000e-06	-3.385425e-06	-9.638851e-10	-2.349566e+01	-6.592124e+01
1.080000e-06	-3.348083e-06	-9.599933e-10	-2.323650e+01	-6.561243e+01
1.090000e-06	-3.310540e-06	-9.527458e-10	-2.297594e+01	-6.530176e+01
1.100000e-06	-3.272736e-06	-9.466458e-10	-2.271358e+01	-6.498903e+01
1.110000e-06	-3.234711e-06	-9.458130e-10	-2.244967e+01	-6.467400e+01
1.120000e-06	-3.196497e-06	-9.448299e-10	-2.218446e+01	-6.435638e+01
1.130000e-06	-3.158125e-06	-9.393114e-10	-2.191815e+01	-6.403588e+01
1.140000e-06	-3.119560e-06	-9.359728e-10	-2.165049e+01	-6.371216e+01
1.150000e-06	-3.080769e-06	-9.307630e-10	-2.138128e+01	-6.338488e+01
1.160000e-06	-3.041788e-06	-9.205613e-10	-2.111074e+01	-6.305367e+01
1.170000e-06	-3.002561e-06	-9.116809e-10	-2.083849e+01	-6.271811e+01
1.180000e-06	-2.963172e-06	-9.056508e-10	-2.056512e+01	-6.237782e+01
1.190000e-06	-2.923659e-06	-8.997742e-10	-2.029090e+01	-6.203237e+01
1.200000e-06	-2.884030e-06	-8.971139e-10	-2.001586e+01	-6.168131e+01
1.210000e-06	-2.844291e-06	-8.964162e-10	-1.974006e+01	-6.132423e+01
1.220000e-06	-2.804311e-06	-8.919762e-10	-1.946259e+01	-6.096067e+01
1.230000e-06	-2.764125e-06	-8.860067e-10	-1.918369e+01	-6.059020e+01
1.240000e-06	-2.723794e-06	-8.790116e-10	-1.890379e+01	-6.021238e+01
1.250000e-06	-2.683282e-06	-8.706676e-10	-1.862262e+01	-5.982678e+01
1.260000e-06	-2.642547e-06	-8.621400e-10	-1.833991e+01	-5.943299e+01
1.270000e-06	-2.601577e-06	-8.582634e-10	-1.805557e+01	-5.903060e+01
1.280000e-06	-2.560334e-06	-8.538548e-10	-1.776933e+01	-5.861923e+01
1.290000e-06	-2.518693e-06	-8.481607e-10	-1.748034e+01	-5.819850e+01
1.300000e-06	-2.476712e-06	-8.413463e-10	-1.718897e+01	-5.776808e+01
1.310000e-06	-2.434512e-06	-8.325215e-10	-1.689610e+01	-5.732765e+01
1.320000e-06	-2.391984e-06	-8.223589e-10	-1.660094e+01	-5.687690e+01
1.330000e-06	-2.349181e-06	-8.159086e-10	-1.630388e+01	-5.641557e+01
1.340000e-06	-2.306183e-06	-8.124521e-10	-1.600547e+01	-5.594343e+01
1.350000e-06	-2.262936e-06	-8.087802e-10	-1.570532e+01	-5.546025e+01
1.360000e-06	-2.219505e-06	-8.020440e-10	-1.540390e+01	-5.496587e+01
1.370000e-06	-2.175949e-06	-7.938470e-10	-1.510161e+01	-5.446012e+01
1.380000e-06	-2.132315e-06	-7.843540e-10	-1.479878e+01	-5.394288e+01
1.390000e-06	-2.088631e-06	-7.745811e-10	-1.449560e+01	-5.341407e+01
1.400000e-06	-2.044905e-06	-7.640266e-10	-1.419213e+01	-5.287360e+01
1.410000e-06	-2.001140e-06	-7.546954e-10	-1.388839e+01	-5.232144e+01
1.420000e-06	-1.957309e-06	-7.461532e-10	-1.358420e+01	-5.175757e+01
1.430000e-06	-1.913321e-06	-7.389993e-10	-1.327890e+01	-5.118198e+01
1.440000e-06	-1.869113e-06	-7.318514e-10	-1.297209e+01	-5.059469e+01
1.450000e-06	-1.824748e-06	-7.240402e-10	-1.266419e+01	-4.999574e+01
1.460000e-06	-1.780342e-06	-7.134122e-10	-1.235600e+01	-4.938516e+01
1.470000e-06	-1.735871e-06	-7.003484e-10	-1.204736e+01	-4.876301e+01
1.480000e-06	-1.691281e-06	-6.846275e-10	-1.173790e+01	-4.812934e+01
1.490000e-06	-1.646516e-06	-6.703548e-10	-1.142722e+01	-4.748422e+01
1.500000e-06	-1.601495e-06	-6.609873e-10	-1.111476e+01	-4.682770e+01
1.510000e-06	-1.556375e-06	-6.532155e-10	-1.080162e+01	-4.615982e+01
1.520000e-06	-1.511203e-06	-6.451030e-10	-1.048811e+01	-4.548064e+01
1.530000e-06	-1.465842e-06	-6.338155e-10	-1.017330e+01	-4.479018e+01
1.540000e-06	-1.420376e-06	-6.196412e-10	-9.857754e+00	-4.408845e+01
1.550000e-06	-1.374866e-06	-6.047132e-10	-9.541904e+00	-4.337544e+01
1.560000e-06	-1.329277e-06	-5.910315e-10	-9.225501e+00	-4.265113e+01
1.570000e-06	-1.283633e-06	-5.776956e-10	-8.908719e+00	-4.191545e+01
1.580000e-06	-1.237939e-06	-5.651119e-10	-8.591593e+00	-4.116834e+01
1.590000e-06	-1.192137e-06	-5.539146e-10	-8.273719e+00	-4.040968e+01
1.600000e-06	-1.146265e-06	-5.421159e-10	-7.955357e+00	-3.963934e+01
1.610000e-06	-1.100377e-06	-5.306395e-10	-7.636881e+00	-3.885714e+01
1.620000e-06	-1.054380e-06	-5.202390e-10	-7.317648e+00	-3.806289e+01
1.630000e-06	-1.008288e-06	-5.100343e-10	-6.997764e+00	-3.725636e+01
1.640000e-06	-9.621966e-07	-4.995220e-10	-6.677876e+00	-3.643728e+01
1.650000e-06	-9.160876e-07	-4.854577e-10	-6.357868e+00	-3.560538e+01
1.660000e-06	-8.699130e-07	-4.707685e-10	-6.037406e+00	-3.476033e+01
1.670000e-06	-8.236450e-07	-4.555150e-10	-5.716294e+00	-3.390178e+01
1.680000e-06	-7.772740e-07	-4.400410e-10	-5.394469e+00	-3.302939e+01
1.690000e-06	-7.308394e-07	-4.247941e-10	-5.072201e+00	-3.214276e+01
1.700000e-06	-6.843686e-07	-4.125682e-10	-4.749683e+00	-3.124150e+01
1.710000e-06	-6.378549e-07	-4.001978e-10	-4.426866e+00	-3.032520e+01
1.720000e-06	-5.912773e-07	-3.872652e-10	-4.103607e+00	-2.939345e+01
1.730000e-06	-5.446404e-07	-3.734351e-10	-3.779935e+00	-2.844582e+01
1.740000e-06	-4.979679e-07	-3.577577e-10	-3.456017e+00	-2.748191e+01
1.750000e-06	-4.512312e-07	-3.417480e-10	-3.131653e+00	-2.650130e+01
1.760000e-06	-4.044157e-07	-3.265488e-10	-2.806742e+00	-2.550362e+01
1.770000e-06	-3.575114e-07	-3.100877e-10	-2.481215e+00	-2.448850e+01
1.780000e-06	-3.105498e-07	-2.939308e-10	-2.155290e+00	-2.345559e+01
1.790000e-06	-2.635990e-07	-2.798277e-10	-1.829441e+00	-2.240459e+01
1.800000e-06	-2.166530e-07	-2.650979e-10	-1.503624e+00	-2.133524e+01
1.810000e-06	-1.696801e-07	-2.507788e-10	-1.177621e+00	-2.024730e+01
1.820000e-06	-1.228028e-07	-2.362388e-10	-8.522808e-01	-1.914062e+01
1.830000e-06	-7.592815e-08	-2.210543e-10	-5.269596e-01	-1.801507e+01
1.840000e-06	-2.897080e-08	-2.049580e-10	-2.010643e-01	-1.687061e+01
1.850000e-06	1.798953e-08	-1.882235e-10	1.248517e-01	-1.570725e+01
1.860000e-06	6.497865e-08	-1.727277e-10	4.509675e-01	-1.452509e+01
1.870000e-06	1.119332e-07	-1.557827e-10	7.768433e-01	-1.332428e+01
1.880000e-06	1.588144e-07	-1.373134e-10	1.102210e+00	-1.210508e+01
1.890000e-06	2.056987e-07	-1.183483e-10	1.427598e+00	-1.086782e+01
1.900000e-06	2.525763e-07	-9.897621e-11	1.752940e+00	-9.612896e+00
1.910000e-06	2.994831e-07	-8.166236e-11	2.078485e+00	-8.340822e+00
1.920000e-06	3.464220e-07	-6.461496e-11	2.404252e+00	-7.052185e+00
1.930000e-06	3.932279e-07	-4.881256e-11	2.729096e+00	-5.747662e+00
1.940000e-06	4.400024e-07	-3.267527e-11	3.053722e+00	-4.428020e+00
1.950000e-06	4.868066e-07	-1.776457e-11	3.378555e+00	-3.094113e+00
1.960000e-06	5.335680e-07	-1.635831e-12	3.703091e+00	-1.746879e+00
1.970000e-06	5.802401e-07	1.591824e-11	4.027006e+00	-3.873415e-01
1.980000e-06	6.268601e-07	3.521538e-11	4.350560e+00	9.833995e-01
1.990000e-06	6.734447e-07	5.533167e-11	4.673869e+00	2.364166e+00
2.000000e-06	7.199416e-07	7.437092e-11	4.996568e+00	3.753712e+00
2.010000e-06	7.663890e-07	9.271511e-11	5.318924e+00	5.150722e+00
2.020000e-06	8.127588e-07	1.113822e-10	5.640742e+00	6.553824e+00
2.030000e-06	8.590385e-07	1.303976e-10	5.961934e+00	7.961594e+00
2.040000e-06	9.052252e-07	1.489043e-10	6.282481e+00	9.372560e+00
2.050000e-06	9.513488e-07	1.667997e-10	6.602590e+00	1.078521e+01
2.060000e-06	9.974653e-07	1.866826e-10	6.922649e+00	1.219801e+01
2.070000e-06	1.043458e-06	2.079338e-10	7.241848e+00	1.360940e+01
2.080000e-06	1.089297e-06	2.312707e-10	7.559987e+00	1.501780e+01
2.090000e-06	1.135066e-06	2.542834e-10	7.877631e+00	1.642163e+01
2.100000e-06	1.180750e-06	2.742027e-10	8.194689e+00	1.781933e+01
2.110000e-06	1.226413e-06	2.936782e-10	8.511600e+00	1.920932e+01
2.120000e-06	1.272045e-06	3.130113e-10	8.828300e+00	2.059007e+01
2.130000e-06	1.317574e-06	3.313982e-10	9.144279e+00	2.196006e+01
2.140000e-06	1.363084e-06	3.471232e-10	9.460129e+00	2.331785e+01
2.150000e-06	1.408551e-06	3.630562e-10	9.775680e+00	2.466199e+01
2.160000e-06	1.453918e-06	3.799089e-10	1.009054e+01	2.599113e+01
2.170000e-06	1.499120e-06	3.993844e-10	1.040425e+01	2.730397e+01
2.180000e-06	1.544163e-06	4.215531e-10	1.071686e+01	2.859927e+01
2.190000e-06	1.589158e-06	4.432950e-10	1.102914e+01	2.987587e+01
2.200000e-06	1.634057e-06	4.619119e-10	1.134075e+01	3.113272e+01
2.210000e-06	1.678836e-06	4.777245e-10	1.165152e+01	3.236882e+01
2.220000e-06	1.723401e-06	4.927200e-10	1.196081e+01	3.358328e+01
2.230000e-06	1.767746e-06	5.067659e-10	1.226858e+01	3.477532e+01
2.240000e-06	1.812065e-06	5.191418e-10	1.257617e+01	3.594422e+01
2.250000e-06	1.856315e-06	5.332272e-10	1.288327e+01	3.708940e+01
2.260000e-06	1.900401e-06	5.488516e-10	1.318924e+01	3.821037e+01
2.270000e-06	1.944430e-06	5.647924e-10	1.349481e+01	3.930674e+01
2.280000e-06	1.988382e-06	5.813606e-10	1.379985e+01	4.037823e+01
2.290000e-06	2.032219e-06	5.983016e-10	1.410409e+01	4.142465e+01
2.300000e-06	2.075999e-06	6.129323e-10	1.440793e+01	4.244593e+01
2.310000e-06	2.119688e-06	6.260751e-10	1.471115e+01	4.344209e+01
2.320000e-06	2.163297e-06	6.390138e-10	1.501380e+01	4.441323e+01
2.330000e-06	2.206872e-06	6.494521e-10	1.531622e+01	4.535957e+01
2.340000e-06	2.250344e-06	6.577052e-10	1.561793e+01	4.628139e+01
2.350000e-06	2.293602e-06	6.680438e-10	1.591815e+01	4.717907e+01
2.360000e-06	2.336641e-06	6.802455e-10	1.621685e+01	4.805305e+01
2.370000e-06	2.379523e-06	6.933560e-10	1.651447e+01	4.890386e+01
2.380000e-06	2.422166e-06	7.080285e-10	1.681042e+01	4.973206e+01
2.390000e-06	2.464507e-06	7.230557e-10	1.710427e+01	5.053831e+01
2.400000e-06	2.506491e-06	7.365811e-10	1.739565e+01	5.132328e+01
2.410000e-06	2.548159e-06	7.478279e-10	1.768484e+01	5.208769e+01
2.420000e-06	2.589545e-06	7.588319e-10	1.797206e+01	5.283231e+01
2.430000e-06	2.630528e-06	7.683539e-10	1.825650e+01	5.355792e+01
2.440000e-06	2.671170e-06	7.763713e-10	1.853857e+01	5.426532e+01
2.450000e-06	2.711661e-06	7.873161e-10	1.881958e+01	5.495533e+01
2.460000e-06	2.752043e-06	8.011988e-10	1.909984e+01	5.562875e+01
2.470000e-06	2.792179e-06	8.134323e-10	1.937840e+01	5.628640e+01
2.480000e-06	2.832134e-06	8.238946e-10	1.965569e+01	5.692907e+01
2.490000e-06	2.871958e-06	8.334625e-10	1.993208e+01	5.755755e+01
2.500000e-06	2.911607e-06	8.435895e-10	2.020725e+01	5.817259e+01
2.510000e-06	2.951121e-06	8.533920e-10	2.048149e+01	5.877492e+01
2.520000e-06	2.990501e-06	8.622932e-10	2.075480e+01	5.936524e+01
2.530000e-06	3.029748e-06	8.705265e-10	2.102718e+01	5.994418e+01
2.540000e-06	3.068825e-06	8.778885e-10	2.129839e+01	6.051237e+01
2.550000e-06	3.107615e-06	8.831642e-10	2.156760e+01	6.107036e+01
2.560000e-06	3.146162e-06	8.882653e-10	2.183512e+01	6.161867e+01
2.570000e-06	3.184508e-06	8.956725e-10	2.210125e+01	6.215774e+01
2.580000e-06	3.222642e-06	9.037384e-10	2.236591e+01	6.268800e+01
2.590000e-06	3.260578e-06	9.112855e-10	2.262920e+01	6.320978e+01
2.600000e-06	3.298350e-06	9.194688e-10	2.289134e+01	6.372339e+01
2.610000e-06	3.335939e-06	9.292164e-10	2.315222e+01	6.422907e+01
2.620000e-06	3.373216e-06	9.386652e-10	2.341093e+01	6.472700e+01
2.630000e-06	3.410225e-06	9.464325e-10	2.366778e+01	6.521733e+01
2.640000e-06	3.446988e-06	9.524348e-10	2.392293e+01	6.570013e+01
2.650000e-06	3.483431e-06	9.570929e-10	2.417585e+01	6.617545e+01
2.660000e-06	3.519553e-06	9.616018e-10	2.442654e+01	6.664329e+01
2.670000e-06	3.555504e-06	9.661026e-10	2.467606e+01	6.710360e+01
2.680000e-06	3.591398e-06	9.713369e-10	2.492516e+01	6.755631e+01
2.690000e-06	3.627154e-06	9.789706e-10	2.517332e+01	6.800129e+01
2.700000e-06	3.662723e-06	9.886594e-10	2.542018e+01	6.843842e+01
2.710000e-06	3.698131e-06	9.989157e-10	2.566592e+01	6.886753e+01
2.720000e-06	3.733342e-06	1.007095e-09	2.591029e+01	6.928844e+01
2.730000e-06	3.768217e-06	1.014494e-09	2.615233e+01	6.970095e+01
2.740000e-06	3.802797e-06	1.020038e-09	2.639233e+01	7.010488e+01
2.750000e-06	3.837032e-06	1.021899e-09	2.662992e+01	7.050000e+01
2.760000e-06	3.870822e-06	1.022957e-09	2.686443e+01	7.088613e+01
2.770000e-06	3.904209e-06	1.026102e-09	2.709615e+01	7.126306e+01
2.780000e-06	3.937151e-06	1.032634e-09	2.732478e+01	7.163060e+01
2.790000e-06	3.969723e-06	1.041954e-09	2.755083e+01	7.198860e+01
2.800000e-06	4.001971e-06	1.051826e-09	2.777464e+01	7.233690e+01
2.810000e-06	4.033904e-06	1.060983e-09	2.799627e+01	7.267536e+01
2.820000e-06	4.065643e-06	1.067996e-09	2.821654e+01	7.300389e+01
2.830000e-06	4.097228e-06	1.070120e-09	2.843575e+01	7.332242e+01
2.840000e-06	4.128605e-06	1.068720e-09	2.865351e+01	7.363089e+01
2.850000e-06	4.159704e-06	1.068373e-09	2.886935e+01	7.392930e+01
2.860000e-06	4.190524e-06	1.071430e-09	2.908324e+01	7.421767e+01
2.870000e-06	4.221122e-06	1.075879e-09	2.929560e+01	7.449606e+01
2.880000e-06	4.251375e-06	1.080306e-09	2.950557e+01	7.476456e+01
2.890000e-06	4.281238e-06	1.087246e-09	2.971282e+01	7.502331e+01
2.900000e-06	4.310825e-06	1.094917e-09	2.991816e+01	7.527247e+01
