# Temperatura_=_-0.25
# Concentracion g/m^3_=_1620.0
# C_Vs_to_Am_M_A/Vsm_=_65563218390.804596
# pendiente_HvsI_1/m_=_3716.3
# ordenada_HvsI_A/m_=_1297.0
# frecuencia_Hz_=_135106.54901574223

Tiempo_(s)	Campo_(V.s)	Magnetizacion_(V.s)	Campo_(kA/m)	Magnetizacion_(A/m)
0.000000e+00	-5.522690e-06	-9.937293e-10	-3.836635e+01	-6.676369e+01
1.000000e-08	-5.522873e-06	-9.923065e-10	-3.836762e+01	-6.678444e+01
2.000000e-08	-5.522753e-06	-9.948254e-10	-3.836678e+01	-6.680728e+01
3.000000e-08	-5.522261e-06	-9.977440e-10	-3.836337e+01	-6.683203e+01
4.000000e-08	-5.521335e-06	-9.960405e-10	-3.835693e+01	-6.685850e+01
5.000000e-08	-5.519940e-06	-9.912163e-10	-3.834724e+01	-6.688645e+01
6.000000e-08	-5.517939e-06	-9.781067e-10	-3.833334e+01	-6.691563e+01
7.000000e-08	-5.515247e-06	-9.742315e-10	-3.831464e+01	-6.694576e+01
8.000000e-08	-5.512025e-06	-9.984128e-10	-3.829226e+01	-6.697656e+01
9.000000e-08	-5.508256e-06	-1.019759e-09	-3.826607e+01	-6.700770e+01
1.000000e-07	-5.504013e-06	-9.952356e-10	-3.823660e+01	-6.703885e+01
1.100000e-07	-5.499536e-06	-9.855002e-10	-3.820550e+01	-6.706969e+01
1.200000e-07	-5.494899e-06	-9.773458e-10	-3.817328e+01	-6.709985e+01
1.300000e-07	-5.490017e-06	-1.012563e-09	-3.813936e+01	-6.712898e+01
1.400000e-07	-5.484804e-06	-9.828408e-10	-3.810315e+01	-6.715673e+01
1.500000e-07	-5.479290e-06	-9.625302e-10	-3.806485e+01	-6.718274e+01
1.600000e-07	-5.473435e-06	-9.712895e-10	-3.802417e+01	-6.720665e+01
1.700000e-07	-5.467109e-06	-1.000902e-09	-3.798022e+01	-6.722811e+01
1.800000e-07	-5.460208e-06	-9.975432e-10	-3.793228e+01	-6.724679e+01
1.900000e-07	-5.452866e-06	-9.792680e-10	-3.788128e+01	-6.726236e+01
2.000000e-07	-5.445309e-06	-1.011283e-09	-3.782878e+01	-6.727451e+01
2.100000e-07	-5.437543e-06	-1.040768e-09	-3.777483e+01	-6.728294e+01
2.200000e-07	-5.429518e-06	-1.049330e-09	-3.771908e+01	-6.728738e+01
2.300000e-07	-5.421227e-06	-1.026860e-09	-3.766148e+01	-6.728756e+01
2.400000e-07	-5.412520e-06	-1.050006e-09	-3.760099e+01	-6.728326e+01
2.500000e-07	-5.403094e-06	-1.049048e-09	-3.753551e+01	-6.727426e+01
2.600000e-07	-5.392930e-06	-1.050611e-09	-3.746490e+01	-6.726037e+01
2.700000e-07	-5.382268e-06	-1.036482e-09	-3.739083e+01	-6.724145e+01
2.800000e-07	-5.371178e-06	-1.060089e-09	-3.731379e+01	-6.721734e+01
2.900000e-07	-5.359615e-06	-1.060784e-09	-3.723346e+01	-6.718796e+01
3.000000e-07	-5.347663e-06	-1.057478e-09	-3.715043e+01	-6.715320e+01
3.100000e-07	-5.335290e-06	-1.038901e-09	-3.706447e+01	-6.711304e+01
3.200000e-07	-5.322408e-06	-1.052931e-09	-3.697498e+01	-6.706742e+01
3.300000e-07	-5.309100e-06	-1.051539e-09	-3.688253e+01	-6.701637e+01
3.400000e-07	-5.295476e-06	-1.040039e-09	-3.678788e+01	-6.695988e+01
3.500000e-07	-5.281458e-06	-1.025815e-09	-3.669050e+01	-6.689802e+01
3.600000e-07	-5.267003e-06	-1.041075e-09	-3.659008e+01	-6.683085e+01
3.700000e-07	-5.252113e-06	-1.041563e-09	-3.648664e+01	-6.675846e+01
3.800000e-07	-5.236733e-06	-1.025290e-09	-3.637980e+01	-6.668096e+01
3.900000e-07	-5.220806e-06	-1.027514e-09	-3.626915e+01	-6.659848e+01
4.000000e-07	-5.204460e-06	-1.042375e-09	-3.615559e+01	-6.651115e+01
4.100000e-07	-5.187743e-06	-1.032244e-09	-3.603945e+01	-6.641912e+01
4.200000e-07	-5.170564e-06	-1.011486e-09	-3.592011e+01	-6.632258e+01
4.300000e-07	-5.153100e-06	-1.030845e-09	-3.579879e+01	-6.622169e+01
4.400000e-07	-5.135409e-06	-1.032436e-09	-3.567589e+01	-6.611663e+01
4.500000e-07	-5.117371e-06	-1.013219e-09	-3.555058e+01	-6.600760e+01
4.600000e-07	-5.098894e-06	-1.007085e-09	-3.542222e+01	-6.589478e+01
4.700000e-07	-5.079955e-06	-1.029452e-09	-3.529065e+01	-6.577838e+01
4.800000e-07	-5.060644e-06	-1.018467e-09	-3.515649e+01	-6.565859e+01
4.900000e-07	-5.041109e-06	-1.010382e-09	-3.502078e+01	-6.553559e+01
5.000000e-07	-5.021386e-06	-1.010873e-09	-3.488377e+01	-6.540958e+01
5.100000e-07	-5.001414e-06	-1.010829e-09	-3.474502e+01	-6.528074e+01
5.200000e-07	-4.981128e-06	-9.962415e-10	-3.460410e+01	-6.514926e+01
5.300000e-07	-4.960511e-06	-1.007856e-09	-3.446087e+01	-6.501528e+01
5.400000e-07	-4.939511e-06	-1.006741e-09	-3.431498e+01	-6.487899e+01
5.500000e-07	-4.918122e-06	-9.966875e-10	-3.416639e+01	-6.474053e+01
5.600000e-07	-4.896367e-06	-9.875722e-10	-3.401526e+01	-6.460003e+01
5.700000e-07	-4.874284e-06	-9.938897e-10	-3.386185e+01	-6.445764e+01
5.800000e-07	-4.851942e-06	-9.848411e-10	-3.370664e+01	-6.431346e+01
5.900000e-07	-4.829262e-06	-9.780483e-10	-3.354907e+01	-6.416760e+01
6.000000e-07	-4.806183e-06	-9.731463e-10	-3.338875e+01	-6.402017e+01
6.100000e-07	-4.782786e-06	-9.746979e-10	-3.322620e+01	-6.387123e+01
6.200000e-07	-4.759183e-06	-9.703784e-10	-3.306224e+01	-6.372086e+01
6.300000e-07	-4.735412e-06	-9.668031e-10	-3.289710e+01	-6.356913e+01
6.400000e-07	-4.711355e-06	-9.656930e-10	-3.272997e+01	-6.341608e+01
6.500000e-07	-4.686893e-06	-9.695929e-10	-3.256003e+01	-6.326174e+01
6.600000e-07	-4.661956e-06	-9.635312e-10	-3.238680e+01	-6.310615e+01
6.700000e-07	-4.636460e-06	-9.553875e-10	-3.220967e+01	-6.294932e+01
6.800000e-07	-4.610368e-06	-9.586171e-10	-3.202841e+01	-6.279127e+01
6.900000e-07	-4.583794e-06	-9.554763e-10	-3.184380e+01	-6.263200e+01
7.000000e-07	-4.556771e-06	-9.450793e-10	-3.165607e+01	-6.247151e+01
7.100000e-07	-4.529373e-06	-9.481628e-10	-3.146573e+01	-6.230978e+01
7.200000e-07	-4.501779e-06	-9.574450e-10	-3.127404e+01	-6.214680e+01
7.300000e-07	-4.474018e-06	-9.469682e-10	-3.108118e+01	-6.198254e+01
7.400000e-07	-4.446087e-06	-9.452790e-10	-3.088715e+01	-6.181699e+01
7.500000e-07	-4.417990e-06	-9.508150e-10	-3.069195e+01	-6.165012e+01
7.600000e-07	-4.389573e-06	-9.438931e-10	-3.049454e+01	-6.148189e+01
7.700000e-07	-4.360848e-06	-9.329688e-10	-3.029498e+01	-6.131228e+01
7.800000e-07	-4.331868e-06	-9.412723e-10	-3.009366e+01	-6.114125e+01
7.900000e-07	-4.302558e-06	-9.371783e-10	-2.989004e+01	-6.096876e+01
8.000000e-07	-4.272999e-06	-9.267667e-10	-2.968469e+01	-6.079478e+01
8.100000e-07	-4.243186e-06	-9.259842e-10	-2.947758e+01	-6.061927e+01
8.200000e-07	-4.213062e-06	-9.309179e-10	-2.926831e+01	-6.044219e+01
8.300000e-07	-4.182573e-06	-9.209138e-10	-2.905650e+01	-6.026350e+01
8.400000e-07	-4.151696e-06	-9.189212e-10	-2.884200e+01	-6.008317e+01
8.500000e-07	-4.120460e-06	-9.186766e-10	-2.862500e+01	-5.990116e+01
8.600000e-07	-4.088991e-06	-9.121558e-10	-2.840638e+01	-5.971741e+01
8.700000e-07	-4.057434e-06	-9.026686e-10	-2.818715e+01	-5.953190e+01
8.800000e-07	-4.025713e-06	-9.021490e-10	-2.796679e+01	-5.934457e+01
8.900000e-07	-3.993835e-06	-8.964208e-10	-2.774533e+01	-5.915538e+01
9.000000e-07	-3.961780e-06	-8.886642e-10	-2.752265e+01	-5.896428e+01
9.100000e-07	-3.929469e-06	-8.851608e-10	-2.729818e+01	-5.877121e+01
9.200000e-07	-3.896834e-06	-8.837334e-10	-2.707146e+01	-5.857612e+01
9.300000e-07	-3.863651e-06	-8.780809e-10	-2.684094e+01	-5.837895e+01
9.400000e-07	-3.829910e-06	-8.768553e-10	-2.660654e+01	-5.817963e+01
9.500000e-07	-3.795766e-06	-8.773313e-10	-2.636934e+01	-5.797809e+01
9.600000e-07	-3.761136e-06	-8.722801e-10	-2.612876e+01	-5.777425e+01
9.700000e-07	-3.726162e-06	-8.665919e-10	-2.588580e+01	-5.756804e+01
9.800000e-07	-3.690980e-06	-8.624436e-10	-2.564139e+01	-5.735936e+01
9.900000e-07	-3.655486e-06	-8.561734e-10	-2.539481e+01	-5.714812e+01
1.000000e-06	-3.619792e-06	-8.490410e-10	-2.514684e+01	-5.693421e+01
1.010000e-06	-3.583984e-06	-8.472758e-10	-2.489808e+01	-5.671752e+01
1.020000e-06	-3.548045e-06	-8.454350e-10	-2.464841e+01	-5.649794e+01
1.030000e-06	-3.511933e-06	-8.447919e-10	-2.439754e+01	-5.627534e+01
1.040000e-06	-3.475588e-06	-8.433211e-10	-2.414505e+01	-5.604959e+01
1.050000e-06	-3.439002e-06	-8.377090e-10	-2.389088e+01	-5.582055e+01
1.060000e-06	-3.402133e-06	-8.256144e-10	-2.363475e+01	-5.558807e+01
1.070000e-06	-3.364974e-06	-8.190904e-10	-2.337661e+01	-5.535202e+01
1.080000e-06	-3.327592e-06	-8.160684e-10	-2.311692e+01	-5.511222e+01
1.090000e-06	-3.289991e-06	-8.142352e-10	-2.285570e+01	-5.486851e+01
1.100000e-06	-3.252167e-06	-8.112436e-10	-2.259293e+01	-5.462074e+01
1.110000e-06	-3.214137e-06	-8.108450e-10	-2.232874e+01	-5.436873e+01
1.120000e-06	-3.175814e-06	-8.055766e-10	-2.206251e+01	-5.411232e+01
1.130000e-06	-3.137257e-06	-8.002487e-10	-2.179465e+01	-5.385131e+01
1.140000e-06	-3.098609e-06	-7.948541e-10	-2.152616e+01	-5.358556e+01
1.150000e-06	-3.059746e-06	-7.877699e-10	-2.125618e+01	-5.331487e+01
1.160000e-06	-3.020604e-06	-7.794112e-10	-2.098426e+01	-5.303907e+01
1.170000e-06	-2.981326e-06	-7.762971e-10	-2.071139e+01	-5.275800e+01
1.180000e-06	-2.941880e-06	-7.725974e-10	-2.043736e+01	-5.247149e+01
1.190000e-06	-2.902217e-06	-7.677291e-10	-2.016182e+01	-5.217936e+01
1.200000e-06	-2.862424e-06	-7.636804e-10	-1.988538e+01	-5.188147e+01
1.210000e-06	-2.822564e-06	-7.598071e-10	-1.960846e+01	-5.157766e+01
1.220000e-06	-2.782673e-06	-7.542281e-10	-1.933134e+01	-5.126777e+01
1.230000e-06	-2.742634e-06	-7.501101e-10	-1.905319e+01	-5.095167e+01
1.240000e-06	-2.702345e-06	-7.480133e-10	-1.877330e+01	-5.062922e+01
1.250000e-06	-2.661815e-06	-7.445562e-10	-1.849173e+01	-5.030029e+01
1.260000e-06	-2.620982e-06	-7.410371e-10	-1.820807e+01	-4.996477e+01
1.270000e-06	-2.579850e-06	-7.387649e-10	-1.792232e+01	-4.962253e+01
1.280000e-06	-2.538506e-06	-7.338629e-10	-1.763510e+01	-4.927348e+01
1.290000e-06	-2.496852e-06	-7.263478e-10	-1.734573e+01	-4.891751e+01
1.300000e-06	-2.454824e-06	-7.207991e-10	-1.705376e+01	-4.855454e+01
1.310000e-06	-2.412481e-06	-7.152158e-10	-1.675960e+01	-4.818447e+01
1.320000e-06	-2.369825e-06	-7.097933e-10	-1.646327e+01	-4.780722e+01
1.330000e-06	-2.326936e-06	-7.074852e-10	-1.616532e+01	-4.742272e+01
1.340000e-06	-2.283854e-06	-7.074430e-10	-1.586603e+01	-4.703089e+01
1.350000e-06	-2.240609e-06	-7.003151e-10	-1.556560e+01	-4.663167e+01
1.360000e-06	-2.197208e-06	-6.896371e-10	-1.526409e+01	-4.622497e+01
1.370000e-06	-2.153666e-06	-6.789582e-10	-1.496160e+01	-4.581072e+01
1.380000e-06	-2.110045e-06	-6.706955e-10	-1.465857e+01	-4.538886e+01
1.390000e-06	-2.066273e-06	-6.635549e-10	-1.435448e+01	-4.495930e+01
1.400000e-06	-2.022422e-06	-6.580871e-10	-1.404984e+01	-4.452195e+01
1.410000e-06	-1.978562e-06	-6.519421e-10	-1.374515e+01	-4.407672e+01
1.420000e-06	-1.934616e-06	-6.454371e-10	-1.343985e+01	-4.362351e+01
1.430000e-06	-1.890548e-06	-6.391890e-10	-1.313371e+01	-4.316221e+01
1.440000e-06	-1.846346e-06	-6.339655e-10	-1.282664e+01	-4.269269e+01
1.450000e-06	-1.802008e-06	-6.269074e-10	-1.251862e+01	-4.221481e+01
1.460000e-06	-1.757630e-06	-6.188124e-10	-1.221033e+01	-4.172841e+01
1.470000e-06	-1.713177e-06	-6.081797e-10	-1.190151e+01	-4.123332e+01
1.480000e-06	-1.668523e-06	-5.960803e-10	-1.159130e+01	-4.072935e+01
1.490000e-06	-1.623742e-06	-5.855651e-10	-1.128020e+01	-4.021629e+01
1.500000e-06	-1.578797e-06	-5.771102e-10	-1.096797e+01	-3.969391e+01
1.510000e-06	-1.533635e-06	-5.677837e-10	-1.065422e+01	-3.916195e+01
1.520000e-06	-1.488363e-06	-5.567899e-10	-1.033972e+01	-3.862014e+01
1.530000e-06	-1.442975e-06	-5.460182e-10	-1.002441e+01	-3.806819e+01
1.540000e-06	-1.397511e-06	-5.348263e-10	-9.708567e+00	-3.750579e+01
1.550000e-06	-1.352054e-06	-5.235819e-10	-9.392773e+00	-3.693259e+01
1.560000e-06	-1.306482e-06	-5.112371e-10	-9.076180e+00	-3.634825e+01
1.570000e-06	-1.260820e-06	-4.979691e-10	-8.758966e+00	-3.575238e+01
1.580000e-06	-1.215049e-06	-4.858210e-10	-8.440993e+00	-3.514461e+01
1.590000e-06	-1.169187e-06	-4.748729e-10	-8.122387e+00	-3.452451e+01
1.600000e-06	-1.123373e-06	-4.631950e-10	-7.804120e+00	-3.389168e+01
1.610000e-06	-1.077456e-06	-4.515030e-10	-7.485133e+00	-3.324568e+01
1.620000e-06	-1.031409e-06	-4.392411e-10	-7.165239e+00	-3.258608e+01
1.630000e-06	-9.852450e-07	-4.263815e-10	-6.844537e+00	-3.191243e+01
1.640000e-06	-9.389907e-07	-4.121065e-10	-6.523206e+00	-3.122429e+01
1.650000e-06	-8.927414e-07	-3.984433e-10	-6.201910e+00	-3.052121e+01
1.660000e-06	-8.464576e-07	-3.864494e-10	-5.880375e+00	-2.980276e+01
1.670000e-06	-8.001619e-07	-3.752554e-10	-5.558757e+00	-2.906851e+01
1.680000e-06	-7.538170e-07	-3.631240e-10	-5.236797e+00	-2.831804e+01
1.690000e-06	-7.073410e-07	-3.513494e-10	-4.913926e+00	-2.755096e+01
1.700000e-06	-6.607893e-07	-3.404855e-10	-4.590530e+00	-2.676689e+01
1.710000e-06	-6.142139e-07	-3.275912e-10	-4.266968e+00	-2.596549e+01
1.720000e-06	-5.676707e-07	-3.143932e-10	-3.943631e+00	-2.514644e+01
1.730000e-06	-5.211138e-07	-3.046871e-10	-3.620198e+00	-2.430946e+01
1.740000e-06	-4.745084e-07	-2.938113e-10	-3.296429e+00	-2.345431e+01
1.750000e-06	-4.278778e-07	-2.817935e-10	-2.972484e+00	-2.258080e+01
1.760000e-06	-3.812317e-07	-2.697148e-10	-2.648432e+00	-2.168877e+01
1.770000e-06	-3.345797e-07	-2.575443e-10	-2.324338e+00	-2.077813e+01
1.780000e-06	-2.878698e-07	-2.459965e-10	-1.999843e+00	-1.984884e+01
1.790000e-06	-2.410264e-07	-2.320494e-10	-1.674420e+00	-1.890092e+01
1.800000e-06	-1.940315e-07	-2.157109e-10	-1.347945e+00	-1.793445e+01
1.810000e-06	-1.471167e-07	-1.988549e-10	-1.022026e+00	-1.694958e+01
1.820000e-06	-1.003003e-07	-1.835949e-10	-6.967899e-01	-1.594653e+01
1.830000e-06	-5.343165e-08	-1.704465e-10	-3.711918e-01	-1.492556e+01
1.840000e-06	-6.556999e-09	-1.578532e-10	-4.555174e-02	-1.388706e+01
1.850000e-06	4.028573e-08	-1.469681e-10	2.798666e-01	-1.283142e+01
1.860000e-06	8.715757e-08	-1.357288e-10	6.054871e-01	-1.175917e+01
1.870000e-06	1.340758e-07	-1.204838e-10	9.314297e-01	-1.067085e+01
1.880000e-06	1.809508e-07	-1.043140e-10	1.257073e+00	-9.567127e+00
1.890000e-06	2.277562e-07	-8.752729e-11	1.582231e+00	-8.448701e+00
1.900000e-06	2.744779e-07	-7.003503e-11	1.906809e+00	-7.316355e+00
1.910000e-06	3.212195e-07	-5.386537e-11	2.231524e+00	-6.170938e+00
1.920000e-06	3.680443e-07	-4.177287e-11	2.556819e+00	-5.013360e+00
1.930000e-06	4.147638e-07	-3.097545e-11	2.881381e+00	-3.844596e+00
1.940000e-06	4.614189e-07	-1.879735e-11	3.205496e+00	-2.665673e+00
1.950000e-06	5.080582e-07	-6.242598e-12	3.529501e+00	-1.477676e+00
1.960000e-06	5.545268e-07	7.977878e-12	3.852320e+00	-2.817354e-01
1.970000e-06	6.009653e-07	2.500476e-11	4.174930e+00	9.209744e-01
1.980000e-06	6.474335e-07	4.425432e-11	4.497746e+00	2.129241e+00
1.990000e-06	6.938719e-07	6.444011e-11	4.820356e+00	3.341818e+00
2.000000e-06	7.402758e-07	8.421345e-11	5.142726e+00	4.557435e+00
2.010000e-06	7.865590e-07	1.020015e-10	5.464257e+00	5.774801e+00
2.020000e-06	8.327775e-07	1.177723e-10	5.785338e+00	6.992609e+00
2.030000e-06	8.790222e-07	1.335667e-10	6.106602e+00	8.209547e+00
2.040000e-06	9.252282e-07	1.487867e-10	6.427597e+00	9.424302e+00
2.050000e-06	9.712708e-07	1.638626e-10	6.747457e+00	1.063557e+01
2.060000e-06	1.017220e-06	1.813316e-10	7.066665e+00	1.184205e+01
2.070000e-06	1.063181e-06	2.006840e-10	7.385959e+00	1.304247e+01
2.080000e-06	1.109089e-06	2.219253e-10	7.704886e+00	1.423557e+01
2.090000e-06	1.154924e-06	2.392947e-10	8.023305e+00	1.542016e+01
2.100000e-06	1.200719e-06	2.554689e-10	8.341445e+00	1.659503e+01
2.110000e-06	1.246406e-06	2.714772e-10	8.658831e+00	1.775906e+01
2.120000e-06	1.291953e-06	2.872127e-10	8.975246e+00	1.891116e+01
2.130000e-06	1.337311e-06	3.025051e-10	9.290354e+00	2.005030e+01
2.140000e-06	1.382586e-06	3.174103e-10	9.604877e+00	2.117551e+01
2.150000e-06	1.427810e-06	3.327226e-10	9.919054e+00	2.228586e+01
2.160000e-06	1.472949e-06	3.477462e-10	1.023263e+01	2.338052e+01
2.170000e-06	1.518048e-06	3.638927e-10	1.054594e+01	2.445871e+01
2.180000e-06	1.563058e-06	3.796366e-10	1.085863e+01	2.551973e+01
2.190000e-06	1.607920e-06	3.958696e-10	1.117028e+01	2.656295e+01
2.200000e-06	1.652652e-06	4.112923e-10	1.148104e+01	2.758781e+01
2.210000e-06	1.697284e-06	4.261902e-10	1.179110e+01	2.859385e+01
2.220000e-06	1.741750e-06	4.420634e-10	1.210001e+01	2.958065e+01
2.230000e-06	1.786062e-06	4.552644e-10	1.240784e+01	3.054789e+01
2.240000e-06	1.830273e-06	4.645879e-10	1.271498e+01	3.149534e+01
2.250000e-06	1.874411e-06	4.732447e-10	1.302161e+01	3.242281e+01
2.260000e-06	1.918438e-06	4.837235e-10	1.332746e+01	3.333020e+01
2.270000e-06	1.962369e-06	4.968080e-10	1.363266e+01	3.421748e+01
2.280000e-06	2.006238e-06	5.087155e-10	1.393742e+01	3.508469e+01
2.290000e-06	2.050060e-06	5.219282e-10	1.424185e+01	3.593193e+01
2.300000e-06	2.093814e-06	5.357974e-10	1.454581e+01	3.675935e+01
2.310000e-06	2.137462e-06	5.504327e-10	1.484903e+01	3.756718e+01
2.320000e-06	2.181016e-06	5.622887e-10	1.515161e+01	3.835567e+01
2.330000e-06	2.224447e-06	5.703533e-10	1.545332e+01	3.912515e+01
2.340000e-06	2.267771e-06	5.783252e-10	1.575430e+01	3.987596e+01
2.350000e-06	2.310864e-06	5.859047e-10	1.605367e+01	4.060849e+01
2.360000e-06	2.353607e-06	5.936429e-10	1.635060e+01	4.132318e+01
2.370000e-06	2.396071e-06	6.019874e-10	1.664560e+01	4.202046e+01
2.380000e-06	2.438283e-06	6.120438e-10	1.693885e+01	4.270082e+01
2.390000e-06	2.480243e-06	6.242091e-10	1.723035e+01	4.336472e+01
2.400000e-06	2.521956e-06	6.365347e-10	1.752013e+01	4.401267e+01
2.410000e-06	2.563352e-06	6.477658e-10	1.780771e+01	4.464516e+01
2.420000e-06	2.604496e-06	6.576842e-10	1.809354e+01	4.526271e+01
2.430000e-06	2.645456e-06	6.666253e-10	1.837809e+01	4.586579e+01
2.440000e-06	2.686060e-06	6.749367e-10	1.866017e+01	4.645490e+01
2.450000e-06	2.726404e-06	6.823811e-10	1.894044e+01	4.703051e+01
2.460000e-06	2.766616e-06	6.908237e-10	1.921979e+01	4.759309e+01
2.470000e-06	2.806654e-06	6.998010e-10	1.949794e+01	4.814305e+01
2.480000e-06	2.846548e-06	7.092565e-10	1.977508e+01	4.868083e+01
2.490000e-06	2.886288e-06	7.190397e-10	2.005116e+01	4.920681e+01
2.500000e-06	2.925914e-06	7.294589e-10	2.032644e+01	4.972135e+01
2.510000e-06	2.965387e-06	7.395660e-10	2.060066e+01	5.022478e+01
2.520000e-06	3.004646e-06	7.474731e-10	2.087339e+01	5.071740e+01
2.530000e-06	3.043771e-06	7.533923e-10	2.114520e+01	5.119949e+01
2.540000e-06	3.082677e-06	7.579175e-10	2.141548e+01	5.167129e+01
2.550000e-06	3.121319e-06	7.607068e-10	2.168393e+01	5.213300e+01
2.560000e-06	3.159828e-06	7.648247e-10	2.195145e+01	5.258479e+01
2.570000e-06	3.198091e-06	7.717183e-10	2.221726e+01	5.302683e+01
2.580000e-06	3.236064e-06	7.789050e-10	2.248107e+01	5.345922e+01
2.590000e-06	3.273894e-06	7.853797e-10	2.274387e+01	5.388206e+01
2.600000e-06	3.311590e-06	7.914659e-10	2.300575e+01	5.429541e+01
2.610000e-06	3.349043e-06	7.964825e-10	2.326594e+01	5.469934e+01
2.620000e-06	3.386191e-06	8.009774e-10	2.352400e+01	5.509385e+01
2.630000e-06	3.423076e-06	8.058927e-10	2.378024e+01	5.547896e+01
2.640000e-06	3.459710e-06	8.103389e-10	2.403474e+01	5.585468e+01
2.650000e-06	3.496128e-06	8.136058e-10	2.428774e+01	5.622097e+01
2.660000e-06	3.532350e-06	8.190577e-10	2.453938e+01	5.657783e+01
2.670000e-06	3.568347e-06	8.269843e-10	2.478945e+01	5.692522e+01
2.680000e-06	3.604148e-06	8.326738e-10	2.503816e+01	5.726313e+01
2.690000e-06	3.639812e-06	8.391117e-10	2.528592e+01	5.759152e+01
2.700000e-06	3.675359e-06	8.442943e-10	2.553287e+01	5.791038e+01
2.710000e-06	3.710716e-06	8.480869e-10	2.577849e+01	5.821971e+01
2.720000e-06	3.745760e-06	8.530364e-10	2.602195e+01	5.851949e+01
2.730000e-06	3.780356e-06	8.598817e-10	2.626229e+01	5.880975e+01
2.740000e-06	3.814608e-06	8.661146e-10	2.650024e+01	5.909053e+01
2.750000e-06	3.848529e-06	8.703520e-10	2.673588e+01	5.936187e+01
2.760000e-06	3.881983e-06	8.728442e-10	2.696829e+01	5.962385e+01
2.770000e-06	3.914946e-06	8.732580e-10	2.719728e+01	5.987656e+01
2.780000e-06	3.947473e-06	8.758985e-10	2.742325e+01	6.012012e+01
2.790000e-06	3.979705e-06	8.808376e-10	2.764717e+01	6.035468e+01
2.800000e-06	4.011663e-06	8.890958e-10	2.786918e+01	6.058040e+01
2.810000e-06	4.043432e-06	8.990124e-10	2.808988e+01	6.079747e+01
2.820000e-06	4.075081e-06	9.041616e-10	2.830975e+01	6.100612e+01
2.830000e-06	4.106545e-06	9.048474e-10	2.852833e+01	6.120658e+01
2.840000e-06	4.137777e-06	9.036606e-10	2.874530e+01	6.139912e+01
2.850000e-06	4.168733e-06	9.031255e-10	2.896035e+01	6.158402e+01
2.860000e-06	4.199316e-06	9.032676e-10	2.917282e+01	6.176160e+01
2.870000e-06	4.229541e-06	9.036957e-10	2.938279e+01	6.193219e+01
2.880000e-06	4.259511e-06	9.083109e-10	2.959099e+01	6.209612e+01
2.890000e-06	4.289227e-06	9.140030e-10	2.979743e+01	6.225375e+01
2.900000e-06	4.318625e-06	9.195861e-10	3.000166e+01	6.240546e+01
