# Temperatura_=_11.5
# Concentracion g/m^3_=_1620.0
# C_Vs_to_Am_M_A/Vsm_=_65563218390.804596
# pendiente_HvsI_1/m_=_3716.3
# ordenada_HvsI_A/m_=_1297.0
# frecuencia_Hz_=_135104.04149767477

Tiempo_(s)	Campo_(V.s)	Magnetizacion_(V.s)	Campo_(kA/m)	Magnetizacion_(A/m)
0.000000e+00	-5.533622e-06	-7.236491e-10	-3.837520e+01	-4.788371e+01
1.000000e-08	-5.533679e-06	-7.207948e-10	-3.837560e+01	-4.785304e+01
2.000000e-08	-5.533455e-06	-7.194897e-10	-3.837405e+01	-4.782133e+01
3.000000e-08	-5.532805e-06	-7.190382e-10	-3.836954e+01	-4.778860e+01
4.000000e-08	-5.531610e-06	-7.177254e-10	-3.836125e+01	-4.775489e+01
5.000000e-08	-5.529897e-06	-7.185592e-10	-3.834937e+01	-4.772024e+01
6.000000e-08	-5.527559e-06	-7.191968e-10	-3.833315e+01	-4.768472e+01
7.000000e-08	-5.524642e-06	-7.020497e-10	-3.831293e+01	-4.764838e+01
8.000000e-08	-5.521321e-06	-6.980223e-10	-3.828990e+01	-4.761130e+01
9.000000e-08	-5.517522e-06	-7.249035e-10	-3.826355e+01	-4.757357e+01
1.000000e-07	-5.513241e-06	-7.371970e-10	-3.823386e+01	-4.753527e+01
1.100000e-07	-5.508680e-06	-7.176211e-10	-3.820223e+01	-4.749651e+01
1.200000e-07	-5.504018e-06	-6.853903e-10	-3.816990e+01	-4.745738e+01
1.300000e-07	-5.499077e-06	-6.672378e-10	-3.813563e+01	-4.741802e+01
1.400000e-07	-5.493685e-06	-6.955581e-10	-3.809825e+01	-4.737852e+01
1.500000e-07	-5.487929e-06	-6.704598e-10	-3.805833e+01	-4.733902e+01
1.600000e-07	-5.481858e-06	-6.994781e-10	-3.801623e+01	-4.729963e+01
1.700000e-07	-5.475333e-06	-6.930347e-10	-3.797097e+01	-4.726048e+01
1.800000e-07	-5.468394e-06	-7.249695e-10	-3.792285e+01	-4.722171e+01
1.900000e-07	-5.461108e-06	-6.931548e-10	-3.787232e+01	-4.718342e+01
2.000000e-07	-5.453447e-06	-6.939433e-10	-3.781920e+01	-4.714574e+01
2.100000e-07	-5.445437e-06	-6.782525e-10	-3.776365e+01	-4.710878e+01
2.200000e-07	-5.437153e-06	-6.946872e-10	-3.770620e+01	-4.707266e+01
2.300000e-07	-5.428643e-06	-7.023100e-10	-3.764718e+01	-4.703747e+01
2.400000e-07	-5.419697e-06	-7.172575e-10	-3.758514e+01	-4.700331e+01
2.500000e-07	-5.409990e-06	-7.228044e-10	-3.751783e+01	-4.697024e+01
2.600000e-07	-5.399602e-06	-7.130092e-10	-3.744579e+01	-4.693835e+01
2.700000e-07	-5.388676e-06	-7.158191e-10	-3.737002e+01	-4.690768e+01
2.800000e-07	-5.377167e-06	-7.044240e-10	-3.729020e+01	-4.687827e+01
2.900000e-07	-5.365283e-06	-7.221457e-10	-3.720778e+01	-4.685015e+01
3.000000e-07	-5.353058e-06	-7.164538e-10	-3.712301e+01	-4.682331e+01
3.100000e-07	-5.340399e-06	-7.437095e-10	-3.703521e+01	-4.679774e+01
3.200000e-07	-5.327360e-06	-7.147170e-10	-3.694480e+01	-4.677341e+01
3.300000e-07	-5.314049e-06	-7.279249e-10	-3.685248e+01	-4.675028e+01
3.400000e-07	-5.300355e-06	-7.039613e-10	-3.675752e+01	-4.672826e+01
3.500000e-07	-5.286201e-06	-7.084614e-10	-3.665936e+01	-4.670726e+01
3.600000e-07	-5.271606e-06	-6.866117e-10	-3.655815e+01	-4.668719e+01
3.700000e-07	-5.256500e-06	-7.229300e-10	-3.645339e+01	-4.666791e+01
3.800000e-07	-5.240777e-06	-7.187100e-10	-3.634435e+01	-4.664927e+01
3.900000e-07	-5.224573e-06	-7.224524e-10	-3.623197e+01	-4.663111e+01
4.000000e-07	-5.207967e-06	-7.141264e-10	-3.611681e+01	-4.661325e+01
4.100000e-07	-5.191014e-06	-7.184442e-10	-3.599924e+01	-4.659550e+01
4.200000e-07	-5.173780e-06	-6.894663e-10	-3.587973e+01	-4.657765e+01
4.300000e-07	-5.156289e-06	-6.925235e-10	-3.575843e+01	-4.655947e+01
4.400000e-07	-5.138520e-06	-7.009439e-10	-3.563520e+01	-4.654074e+01
4.500000e-07	-5.120239e-06	-7.005628e-10	-3.550842e+01	-4.652122e+01
4.600000e-07	-5.101474e-06	-6.962220e-10	-3.537829e+01	-4.650065e+01
4.700000e-07	-5.082382e-06	-7.084910e-10	-3.524589e+01	-4.647880e+01
4.800000e-07	-5.062972e-06	-7.023338e-10	-3.511128e+01	-4.645542e+01
4.900000e-07	-5.043338e-06	-6.940348e-10	-3.497512e+01	-4.643024e+01
5.000000e-07	-5.023518e-06	-7.026827e-10	-3.483768e+01	-4.640302e+01
5.100000e-07	-5.003410e-06	-6.945896e-10	-3.469822e+01	-4.637352e+01
5.200000e-07	-4.983008e-06	-6.824911e-10	-3.455674e+01	-4.634150e+01
5.300000e-07	-4.962315e-06	-6.887213e-10	-3.441323e+01	-4.630675e+01
5.400000e-07	-4.941215e-06	-6.993878e-10	-3.426691e+01	-4.626903e+01
5.500000e-07	-4.919696e-06	-6.856379e-10	-3.411768e+01	-4.622815e+01
5.600000e-07	-4.897869e-06	-6.907498e-10	-3.396631e+01	-4.618393e+01
5.700000e-07	-4.875748e-06	-6.887841e-10	-3.381290e+01	-4.613621e+01
5.800000e-07	-4.853289e-06	-6.831781e-10	-3.365715e+01	-4.608482e+01
5.900000e-07	-4.830424e-06	-6.791502e-10	-3.349858e+01	-4.602966e+01
6.000000e-07	-4.807169e-06	-6.917577e-10	-3.333731e+01	-4.597061e+01
6.100000e-07	-4.783597e-06	-6.806532e-10	-3.317384e+01	-4.590760e+01
6.200000e-07	-4.759818e-06	-6.790013e-10	-3.300894e+01	-4.584056e+01
6.300000e-07	-4.735881e-06	-6.712224e-10	-3.284294e+01	-4.576947e+01
6.400000e-07	-4.711646e-06	-6.729029e-10	-3.267487e+01	-4.569432e+01
6.500000e-07	-4.687009e-06	-6.714831e-10	-3.250401e+01	-4.561514e+01
6.600000e-07	-4.661913e-06	-6.814745e-10	-3.232998e+01	-4.553195e+01
6.700000e-07	-4.636372e-06	-6.755793e-10	-3.215285e+01	-4.544484e+01
6.800000e-07	-4.610339e-06	-6.803474e-10	-3.197231e+01	-4.535389e+01
6.900000e-07	-4.583706e-06	-6.756136e-10	-3.178761e+01	-4.525922e+01
7.000000e-07	-4.556638e-06	-6.698700e-10	-3.159990e+01	-4.516096e+01
7.100000e-07	-4.529244e-06	-6.622296e-10	-3.140993e+01	-4.505926e+01
7.200000e-07	-4.501600e-06	-6.639897e-10	-3.121822e+01	-4.495431e+01
7.300000e-07	-4.473814e-06	-6.569065e-10	-3.102552e+01	-4.484628e+01
7.400000e-07	-4.445833e-06	-6.648034e-10	-3.083148e+01	-4.473538e+01
7.500000e-07	-4.417607e-06	-6.713836e-10	-3.063573e+01	-4.462183e+01
7.600000e-07	-4.389103e-06	-6.649339e-10	-3.043806e+01	-4.450584e+01
7.700000e-07	-4.360255e-06	-6.582167e-10	-3.023800e+01	-4.438765e+01
7.800000e-07	-4.331030e-06	-6.581071e-10	-3.003533e+01	-4.426748e+01
7.900000e-07	-4.301481e-06	-6.513188e-10	-2.983041e+01	-4.414557e+01
8.000000e-07	-4.271648e-06	-6.473121e-10	-2.962352e+01	-4.402215e+01
8.100000e-07	-4.241571e-06	-6.545661e-10	-2.941494e+01	-4.389744e+01
8.200000e-07	-4.211258e-06	-6.536237e-10	-2.920472e+01	-4.377166e+01
8.300000e-07	-4.180640e-06	-6.492473e-10	-2.899239e+01	-4.364503e+01
8.400000e-07	-4.149646e-06	-6.477744e-10	-2.877744e+01	-4.351774e+01
8.500000e-07	-4.118414e-06	-6.469529e-10	-2.856085e+01	-4.338996e+01
8.600000e-07	-4.087047e-06	-6.365693e-10	-2.834333e+01	-4.326185e+01
8.700000e-07	-4.055471e-06	-6.358187e-10	-2.812435e+01	-4.313357e+01
8.800000e-07	-4.023732e-06	-6.356941e-10	-2.790424e+01	-4.300524e+01
8.900000e-07	-3.991817e-06	-6.374834e-10	-2.768291e+01	-4.287694e+01
9.000000e-07	-3.959595e-06	-6.351717e-10	-2.745946e+01	-4.274876e+01
9.100000e-07	-3.926988e-06	-6.348923e-10	-2.723333e+01	-4.262073e+01
9.200000e-07	-3.893951e-06	-6.244807e-10	-2.700422e+01	-4.249289e+01
9.300000e-07	-3.860493e-06	-6.194101e-10	-2.677219e+01	-4.236523e+01
9.400000e-07	-3.826599e-06	-6.151486e-10	-2.653714e+01	-4.223770e+01
9.500000e-07	-3.792214e-06	-6.178145e-10	-2.629869e+01	-4.211026e+01
9.600000e-07	-3.757394e-06	-6.143257e-10	-2.605721e+01	-4.198280e+01
9.700000e-07	-3.722233e-06	-6.172986e-10	-2.581337e+01	-4.185521e+01
9.800000e-07	-3.686787e-06	-6.166921e-10	-2.556756e+01	-4.172736e+01
9.900000e-07	-3.651161e-06	-6.147889e-10	-2.532049e+01	-4.159906e+01
1.000000e-06	-3.615416e-06	-6.101711e-10	-2.507260e+01	-4.147015e+01
1.010000e-06	-3.579520e-06	-6.070356e-10	-2.482367e+01	-4.134039e+01
1.020000e-06	-3.543510e-06	-6.024659e-10	-2.457394e+01	-4.120957e+01
1.030000e-06	-3.507370e-06	-6.012725e-10	-2.432331e+01	-4.107744e+01
1.040000e-06	-3.471013e-06	-6.016393e-10	-2.407119e+01	-4.094372e+01
1.050000e-06	-3.434402e-06	-5.990881e-10	-2.381729e+01	-4.080815e+01
1.060000e-06	-3.397479e-06	-5.947271e-10	-2.356123e+01	-4.067045e+01
1.070000e-06	-3.360245e-06	-5.923099e-10	-2.330301e+01	-4.053031e+01
1.080000e-06	-3.322793e-06	-5.908975e-10	-2.304329e+01	-4.038744e+01
1.090000e-06	-3.285155e-06	-5.877417e-10	-2.278227e+01	-4.024155e+01
1.100000e-06	-3.247301e-06	-5.838162e-10	-2.251976e+01	-4.009234e+01
1.110000e-06	-3.209142e-06	-5.772308e-10	-2.225513e+01	-3.993951e+01
1.120000e-06	-3.170713e-06	-5.709912e-10	-2.198863e+01	-3.978278e+01
1.130000e-06	-3.132135e-06	-5.665577e-10	-2.172109e+01	-3.962187e+01
1.140000e-06	-3.093324e-06	-5.647059e-10	-2.145194e+01	-3.945652e+01
1.150000e-06	-3.054280e-06	-5.602362e-10	-2.118118e+01	-3.928648e+01
1.160000e-06	-3.015074e-06	-5.609145e-10	-2.090929e+01	-3.911151e+01
1.170000e-06	-2.975724e-06	-5.619006e-10	-2.063640e+01	-3.893139e+01
1.180000e-06	-2.936201e-06	-5.624917e-10	-2.036231e+01	-3.874592e+01
1.190000e-06	-2.896535e-06	-5.583873e-10	-2.008722e+01	-3.855494e+01
1.200000e-06	-2.856768e-06	-5.555109e-10	-1.981145e+01	-3.835828e+01
1.210000e-06	-2.816825e-06	-5.500364e-10	-1.953445e+01	-3.815581e+01
1.220000e-06	-2.776709e-06	-5.433911e-10	-1.925624e+01	-3.794742e+01
1.230000e-06	-2.736432e-06	-5.368578e-10	-1.897693e+01	-3.773302e+01
1.240000e-06	-2.695915e-06	-5.354869e-10	-1.869595e+01	-3.751254e+01
1.250000e-06	-2.655157e-06	-5.316535e-10	-1.841329e+01	-3.728595e+01
1.260000e-06	-2.614180e-06	-5.312612e-10	-1.812912e+01	-3.705321e+01
1.270000e-06	-2.572938e-06	-5.291701e-10	-1.784311e+01	-3.681431e+01
1.280000e-06	-2.531424e-06	-5.251153e-10	-1.755521e+01	-3.656929e+01
1.290000e-06	-2.489591e-06	-5.187117e-10	-1.726510e+01	-3.631815e+01
1.300000e-06	-2.447418e-06	-5.138001e-10	-1.697264e+01	-3.606094e+01
1.310000e-06	-2.404959e-06	-5.094284e-10	-1.667819e+01	-3.579772e+01
1.320000e-06	-2.362199e-06	-5.057928e-10	-1.638165e+01	-3.552853e+01
1.330000e-06	-2.319163e-06	-5.054494e-10	-1.608320e+01	-3.525346e+01
1.340000e-06	-2.275968e-06	-5.042867e-10	-1.578364e+01	-3.497256e+01
1.350000e-06	-2.232619e-06	-4.994244e-10	-1.548303e+01	-3.468589e+01
1.360000e-06	-2.189074e-06	-4.921510e-10	-1.518105e+01	-3.439354e+01
1.370000e-06	-2.145430e-06	-4.859530e-10	-1.487838e+01	-3.409553e+01
1.380000e-06	-2.101778e-06	-4.806008e-10	-1.457566e+01	-3.379193e+01
1.390000e-06	-2.058072e-06	-4.774135e-10	-1.427256e+01	-3.348275e+01
1.400000e-06	-2.014274e-06	-4.741359e-10	-1.396882e+01	-3.316801e+01
1.410000e-06	-1.970406e-06	-4.710041e-10	-1.366460e+01	-3.284771e+01
1.420000e-06	-1.926427e-06	-4.658662e-10	-1.335961e+01	-3.252181e+01
1.430000e-06	-1.882277e-06	-4.608512e-10	-1.305343e+01	-3.219024e+01
1.440000e-06	-1.838035e-06	-4.543005e-10	-1.274662e+01	-3.185294e+01
1.450000e-06	-1.793707e-06	-4.473398e-10	-1.243920e+01	-3.150978e+01
1.460000e-06	-1.749281e-06	-4.403062e-10	-1.213112e+01	-3.116060e+01
1.470000e-06	-1.704722e-06	-4.361597e-10	-1.182210e+01	-3.080525e+01
1.480000e-06	-1.659945e-06	-4.309601e-10	-1.151158e+01	-3.044348e+01
1.490000e-06	-1.615067e-06	-4.273958e-10	-1.120035e+01	-3.007506e+01
1.500000e-06	-1.570105e-06	-4.223864e-10	-1.088855e+01	-2.969969e+01
1.510000e-06	-1.524993e-06	-4.158385e-10	-1.057570e+01	-2.931706e+01
1.520000e-06	-1.479752e-06	-4.056640e-10	-1.026195e+01	-2.892680e+01
1.530000e-06	-1.434401e-06	-3.932447e-10	-9.947451e+00	-2.852853e+01
1.540000e-06	-1.388977e-06	-3.823259e-10	-9.632439e+00	-2.812181e+01
1.550000e-06	-1.343492e-06	-3.729061e-10	-9.317003e+00	-2.770620e+01
1.560000e-06	-1.297858e-06	-3.661862e-10	-9.000539e+00	-2.728122e+01
1.570000e-06	-1.252103e-06	-3.617097e-10	-8.683231e+00	-2.684635e+01
1.580000e-06	-1.206282e-06	-3.592474e-10	-8.365462e+00	-2.640107e+01
1.590000e-06	-1.160359e-06	-3.550758e-10	-8.046989e+00	-2.594483e+01
1.600000e-06	-1.114440e-06	-3.479566e-10	-7.728547e+00	-2.547707e+01
1.610000e-06	-1.068465e-06	-3.385355e-10	-7.409713e+00	-2.499723e+01
1.620000e-06	-1.022343e-06	-3.266537e-10	-7.089863e+00	-2.450472e+01
1.630000e-06	-9.761210e-07	-3.169121e-10	-6.769317e+00	-2.399897e+01
1.640000e-06	-9.298723e-07	-3.050203e-10	-6.448586e+00	-2.347941e+01
1.650000e-06	-8.835954e-07	-2.942480e-10	-6.127659e+00	-2.294548e+01
1.660000e-06	-8.372284e-07	-2.859416e-10	-5.806108e+00	-2.239663e+01
1.670000e-06	-7.908573e-07	-2.797202e-10	-5.484529e+00	-2.183235e+01
1.680000e-06	-7.444406e-07	-2.748300e-10	-5.162633e+00	-2.125213e+01
1.690000e-06	-6.978981e-07	-2.686214e-10	-4.839865e+00	-2.065552e+01
1.700000e-06	-6.512823e-07	-2.596800e-10	-4.516588e+00	-2.004208e+01
1.710000e-06	-6.046181e-07	-2.465251e-10	-4.192976e+00	-1.941143e+01
1.720000e-06	-5.579642e-07	-2.340641e-10	-3.869435e+00	-1.876324e+01
1.730000e-06	-5.112709e-07	-2.224629e-10	-3.545620e+00	-1.809722e+01
1.740000e-06	-4.644752e-07	-2.124870e-10	-3.221096e+00	-1.741315e+01
1.750000e-06	-4.176852e-07	-2.036231e-10	-2.896612e+00	-1.671087e+01
1.760000e-06	-3.708541e-07	-1.935711e-10	-2.571842e+00	-1.599027e+01
1.770000e-06	-3.238764e-07	-1.839814e-10	-2.246055e+00	-1.525132e+01
1.780000e-06	-2.768232e-07	-1.755084e-10	-1.919746e+00	-1.449407e+01
1.790000e-06	-2.297845e-07	-1.637893e-10	-1.593536e+00	-1.371863e+01
1.800000e-06	-1.827835e-07	-1.496985e-10	-1.267589e+00	-1.292520e+01
1.810000e-06	-1.358107e-07	-1.333292e-10	-9.418360e-01	-1.211405e+01
1.820000e-06	-8.882422e-08	-1.194489e-10	-6.159885e-01	-1.128551e+01
1.830000e-06	-4.190631e-08	-1.088862e-10	-2.906167e-01	-1.044003e+01
1.840000e-06	4.939651e-09	-9.996859e-11	3.425606e-02	-9.578105e+00
1.850000e-06	5.182477e-08	-9.184796e-11	3.594004e-01	-8.700317e+00
1.860000e-06	9.878150e-08	-8.124280e-11	6.850414e-01	-7.807328e+00
1.870000e-06	1.457083e-07	-6.824729e-11	1.010474e+00	-6.899870e+00
1.880000e-06	1.926209e-07	-5.447617e-11	1.335810e+00	-5.978748e+00
1.890000e-06	2.395958e-07	-4.100126e-11	1.661577e+00	-5.044833e+00
1.900000e-06	2.865442e-07	-2.909149e-11	1.987160e+00	-4.099063e+00
1.910000e-06	3.334880e-07	-1.678987e-11	2.312711e+00	-3.142435e+00
1.920000e-06	3.804171e-07	-6.903257e-12	2.638160e+00	-2.176002e+00
1.930000e-06	4.273043e-07	4.049453e-12	2.963319e+00	-1.200867e+00
1.940000e-06	4.741744e-07	1.560180e-11	3.288359e+00	-2.181784e-01
1.950000e-06	5.209603e-07	2.671431e-11	3.612816e+00	7.708759e-01
1.960000e-06	5.676396e-07	3.900319e-11	3.936533e+00	1.765075e+00
1.970000e-06	6.142222e-07	5.296391e-11	4.259579e+00	2.763173e+00
1.980000e-06	6.607340e-07	6.715589e-11	4.582134e+00	3.763901e+00
1.990000e-06	7.071900e-07	8.051570e-11	4.904303e+00	4.765977e+00
2.000000e-06	7.535359e-07	9.396813e-11	5.225708e+00	5.768116e+00
2.010000e-06	7.998893e-07	1.068779e-10	5.547165e+00	6.769028e+00
2.020000e-06	8.464425e-07	1.204657e-10	5.870007e+00	7.767433e+00
2.030000e-06	8.929879e-07	1.351139e-10	6.192796e+00	8.762063e+00
2.040000e-06	9.393105e-07	1.501245e-10	6.514039e+00	9.751672e+00
2.050000e-06	9.854405e-07	1.647838e-10	6.833947e+00	1.073504e+01
2.060000e-06	1.031463e-06	1.786494e-10	7.153108e+00	1.171097e+01
2.070000e-06	1.077516e-06	1.930064e-10	7.472483e+00	1.267833e+01
2.080000e-06	1.123515e-06	2.081001e-10	7.791483e+00	1.363600e+01
2.090000e-06	1.169345e-06	2.220770e-10	8.109309e+00	1.458292e+01
2.100000e-06	1.215093e-06	2.351053e-10	8.426565e+00	1.551810e+01
2.110000e-06	1.260782e-06	2.475203e-10	8.743416e+00	1.644058e+01
2.120000e-06	1.306353e-06	2.607044e-10	9.059448e+00	1.734949e+01
2.130000e-06	1.351825e-06	2.747335e-10	9.374795e+00	1.824401e+01
2.140000e-06	1.397196e-06	2.883919e-10	9.689437e+00	1.912338e+01
2.150000e-06	1.442501e-06	2.999230e-10	1.000362e+01	1.998692e+01
2.160000e-06	1.487784e-06	3.113505e-10	1.031766e+01	2.083404e+01
2.170000e-06	1.532973e-06	3.233311e-10	1.063104e+01	2.166418e+01
2.180000e-06	1.578000e-06	3.349772e-10	1.094330e+01	2.247690e+01
2.190000e-06	1.622824e-06	3.462812e-10	1.125415e+01	2.327179e+01
2.200000e-06	1.667517e-06	3.579385e-10	1.156409e+01	2.404855e+01
2.210000e-06	1.712135e-06	3.699220e-10	1.187351e+01	2.480694e+01
2.220000e-06	1.756658e-06	3.819322e-10	1.218228e+01	2.554678e+01
2.230000e-06	1.801078e-06	3.920618e-10	1.249033e+01	2.626797e+01
2.240000e-06	1.845399e-06	4.007129e-10	1.279769e+01	2.697046e+01
2.250000e-06	1.889561e-06	4.078965e-10	1.310395e+01	2.765430e+01
2.260000e-06	1.933530e-06	4.149498e-10	1.340887e+01	2.831957e+01
2.270000e-06	1.977422e-06	4.227010e-10	1.371325e+01	2.896640e+01
2.280000e-06	2.021255e-06	4.300487e-10	1.401723e+01	2.959501e+01
2.290000e-06	2.065033e-06	4.367222e-10	1.432083e+01	3.020563e+01
2.300000e-06	2.108770e-06	4.438755e-10	1.462415e+01	3.079855e+01
2.310000e-06	2.152394e-06	4.514633e-10	1.492667e+01	3.137412e+01
2.320000e-06	2.195922e-06	4.582921e-10	1.522854e+01	3.193269e+01
2.330000e-06	2.239384e-06	4.656994e-10	1.552994e+01	3.247467e+01
2.340000e-06	2.282714e-06	4.738559e-10	1.583043e+01	3.300048e+01
2.350000e-06	2.325859e-06	4.819147e-10	1.612964e+01	3.351057e+01
2.360000e-06	2.368811e-06	4.901500e-10	1.642750e+01	3.400541e+01
2.370000e-06	2.411543e-06	4.970218e-10	1.672384e+01	3.448546e+01
2.380000e-06	2.454042e-06	5.030865e-10	1.701858e+01	3.495123e+01
2.390000e-06	2.496222e-06	5.093830e-10	1.731109e+01	3.540318e+01
2.400000e-06	2.537989e-06	5.150545e-10	1.760074e+01	3.584183e+01
2.410000e-06	2.579482e-06	5.226534e-10	1.788849e+01	3.626765e+01
2.420000e-06	2.620653e-06	5.318746e-10	1.817401e+01	3.668112e+01
2.430000e-06	2.661448e-06	5.403586e-10	1.845692e+01	3.708271e+01
2.440000e-06	2.702001e-06	5.482702e-10	1.873815e+01	3.747287e+01
2.450000e-06	2.742379e-06	5.560156e-10	1.901817e+01	3.785205e+01
2.460000e-06	2.782572e-06	5.605645e-10	1.929690e+01	3.822066e+01
2.470000e-06	2.822574e-06	5.626875e-10	1.957431e+01	3.857910e+01
2.480000e-06	2.862419e-06	5.641228e-10	1.985064e+01	3.892776e+01
2.490000e-06	2.902105e-06	5.672129e-10	2.012585e+01	3.926699e+01
2.500000e-06	2.941643e-06	5.733529e-10	2.040005e+01	3.959712e+01
2.510000e-06	2.981055e-06	5.797194e-10	2.067336e+01	3.991846e+01
2.520000e-06	3.020302e-06	5.851150e-10	2.094554e+01	4.023129e+01
2.530000e-06	3.059277e-06	5.901576e-10	2.121583e+01	4.053587e+01
2.540000e-06	3.098060e-06	5.933562e-10	2.148479e+01	4.083243e+01
2.550000e-06	3.136751e-06	5.952753e-10	2.175310e+01	4.112118e+01
2.560000e-06	3.175253e-06	5.983247e-10	2.202012e+01	4.140232e+01
2.570000e-06	3.213493e-06	6.018627e-10	2.228530e+01	4.167600e+01
2.580000e-06	3.251455e-06	6.043479e-10	2.254857e+01	4.194238e+01
2.590000e-06	3.289207e-06	6.066507e-10	2.281037e+01	4.220158e+01
2.600000e-06	3.326796e-06	6.114517e-10	2.307105e+01	4.245371e+01
2.610000e-06	3.364242e-06	6.170221e-10	2.333073e+01	4.269887e+01
2.620000e-06	3.401401e-06	6.205528e-10	2.358843e+01	4.293715e+01
2.630000e-06	3.438127e-06	6.232810e-10	2.384312e+01	4.316860e+01
2.640000e-06	3.474625e-06	6.245678e-10	2.409623e+01	4.339331e+01
2.650000e-06	3.510974e-06	6.257521e-10	2.434831e+01	4.361132e+01
2.660000e-06	3.547064e-06	6.280000e-10	2.459859e+01	4.382269e+01
2.670000e-06	3.582996e-06	6.300068e-10	2.484777e+01	4.402746e+01
2.680000e-06	3.618797e-06	6.338424e-10	2.509605e+01	4.422568e+01
2.690000e-06	3.654418e-06	6.384528e-10	2.534308e+01	4.441740e+01
2.700000e-06	3.689910e-06	6.421479e-10	2.558922e+01	4.460267e+01
2.710000e-06	3.725236e-06	6.453978e-10	2.583420e+01	4.478154e+01
2.720000e-06	3.760320e-06	6.510550e-10	2.607750e+01	4.495407e+01
2.730000e-06	3.795184e-06	6.559600e-10	2.631928e+01	4.512032e+01
2.740000e-06	3.829610e-06	6.567150e-10	2.655803e+01	4.528038e+01
2.750000e-06	3.863458e-06	6.576853e-10	2.679276e+01	4.543431e+01
2.760000e-06	3.896798e-06	6.579620e-10	2.702397e+01	4.558222e+01
2.770000e-06	3.929635e-06	6.590785e-10	2.725169e+01	4.572420e+01
2.780000e-06	3.962100e-06	6.634540e-10	2.747683e+01	4.586036e+01
2.790000e-06	3.994239e-06	6.690507e-10	2.769971e+01	4.599082e+01
2.800000e-06	4.026149e-06	6.744905e-10	2.792101e+01	4.611571e+01
2.810000e-06	4.057992e-06	6.761270e-10	2.814183e+01	4.623517e+01
2.820000e-06	4.089669e-06	6.744955e-10	2.836151e+01	4.634934e+01
2.830000e-06	4.121100e-06	6.731299e-10	2.857948e+01	4.645839e+01
2.840000e-06	4.152343e-06	6.728315e-10	2.879615e+01	4.656248e+01
2.850000e-06	4.183308e-06	6.752983e-10	2.901089e+01	4.666177e+01
2.860000e-06	4.213911e-06	6.790431e-10	2.922312e+01	4.675645e+01
2.870000e-06	4.244131e-06	6.815274e-10	2.943269e+01	4.684669e+01
2.880000e-06	4.274033e-06	6.840049e-10	2.964006e+01	4.693269e+01
2.890000e-06	4.303752e-06	6.845964e-10	2.984616e+01	4.701463e+01
2.900000e-06	4.333284e-06	6.848393e-10	3.005096e+01	4.709269e+01
