# Temperatura_=_10.77
# Concentracion g/m^3_=_1620.0
# C_Vs_to_Am_M_A/Vsm_=_65563218390.804596
# pendiente_HvsI_1/m_=_3716.3
# ordenada_HvsI_A/m_=_1297.0
# frecuencia_Hz_=_135105.33583361955

Tiempo_(s)	Campo_(V.s)	Magnetizacion_(V.s)	Campo_(kA/m)	Magnetizacion_(A/m)
0.000000e+00	-5.520527e-06	-7.679094e-10	-3.836809e+01	-4.947969e+01
1.000000e-08	-5.520658e-06	-7.693407e-10	-3.836900e+01	-4.948938e+01
2.000000e-08	-5.520504e-06	-7.712693e-10	-3.836793e+01	-4.950050e+01
3.000000e-08	-5.519889e-06	-7.704660e-10	-3.836366e+01	-4.951282e+01
4.000000e-08	-5.518744e-06	-7.652750e-10	-3.835570e+01	-4.952613e+01
5.000000e-08	-5.517033e-06	-7.593530e-10	-3.834381e+01	-4.954017e+01
6.000000e-08	-5.514697e-06	-7.531360e-10	-3.832758e+01	-4.955468e+01
7.000000e-08	-5.511795e-06	-7.414413e-10	-3.830740e+01	-4.956938e+01
8.000000e-08	-5.508449e-06	-7.368859e-10	-3.828415e+01	-4.958399e+01
9.000000e-08	-5.504677e-06	-7.502216e-10	-3.825794e+01	-4.959821e+01
1.000000e-07	-5.500534e-06	-7.641689e-10	-3.822914e+01	-4.961174e+01
1.100000e-07	-5.496132e-06	-7.726555e-10	-3.819855e+01	-4.962427e+01
1.200000e-07	-5.491513e-06	-7.172053e-10	-3.816645e+01	-4.963550e+01
1.300000e-07	-5.486572e-06	-7.112988e-10	-3.813210e+01	-4.964513e+01
1.400000e-07	-5.481231e-06	-7.189909e-10	-3.809498e+01	-4.965286e+01
1.500000e-07	-5.475485e-06	-7.344583e-10	-3.805504e+01	-4.965842e+01
1.600000e-07	-5.469362e-06	-7.212498e-10	-3.801249e+01	-4.966151e+01
1.700000e-07	-5.462878e-06	-7.111567e-10	-3.796743e+01	-4.966189e+01
1.800000e-07	-5.455993e-06	-7.502626e-10	-3.791958e+01	-4.965930e+01
1.900000e-07	-5.448686e-06	-7.468376e-10	-3.786879e+01	-4.965353e+01
2.000000e-07	-5.441061e-06	-7.432721e-10	-3.781580e+01	-4.964436e+01
2.100000e-07	-5.433200e-06	-7.296790e-10	-3.776116e+01	-4.963161e+01
2.200000e-07	-5.425090e-06	-7.633717e-10	-3.770480e+01	-4.961512e+01
2.300000e-07	-5.416663e-06	-7.696186e-10	-3.764623e+01	-4.959474e+01
2.400000e-07	-5.407747e-06	-7.851220e-10	-3.758426e+01	-4.957038e+01
2.500000e-07	-5.398220e-06	-7.731531e-10	-3.751805e+01	-4.954194e+01
2.600000e-07	-5.388073e-06	-7.798892e-10	-3.744753e+01	-4.950936e+01
2.700000e-07	-5.377279e-06	-7.695966e-10	-3.737251e+01	-4.947261e+01
2.800000e-07	-5.365914e-06	-7.766189e-10	-3.729352e+01	-4.943168e+01
2.900000e-07	-5.354201e-06	-7.758298e-10	-3.721211e+01	-4.938660e+01
3.000000e-07	-5.342195e-06	-7.783527e-10	-3.712867e+01	-4.933740e+01
3.100000e-07	-5.329816e-06	-7.821992e-10	-3.704264e+01	-4.928416e+01
3.200000e-07	-5.317000e-06	-7.816200e-10	-3.695356e+01	-4.922696e+01
3.300000e-07	-5.303734e-06	-7.753566e-10	-3.686136e+01	-4.916592e+01
3.400000e-07	-5.290103e-06	-7.673875e-10	-3.676663e+01	-4.910117e+01
3.500000e-07	-5.276146e-06	-7.626249e-10	-3.666962e+01	-4.903285e+01
3.600000e-07	-5.261620e-06	-7.558139e-10	-3.656867e+01	-4.896113e+01
3.700000e-07	-5.246516e-06	-7.628283e-10	-3.646369e+01	-4.888620e+01
3.800000e-07	-5.230923e-06	-7.727612e-10	-3.635532e+01	-4.880823e+01
3.900000e-07	-5.214864e-06	-7.660222e-10	-3.624371e+01	-4.872743e+01
4.000000e-07	-5.198463e-06	-7.499184e-10	-3.612972e+01	-4.864400e+01
4.100000e-07	-5.181746e-06	-7.654585e-10	-3.601354e+01	-4.855815e+01
4.200000e-07	-5.164684e-06	-7.665195e-10	-3.589496e+01	-4.847009e+01
4.300000e-07	-5.147303e-06	-7.537751e-10	-3.577416e+01	-4.838004e+01
4.400000e-07	-5.129549e-06	-7.475958e-10	-3.565077e+01	-4.828819e+01
4.500000e-07	-5.111288e-06	-7.706631e-10	-3.552385e+01	-4.819476e+01
4.600000e-07	-5.092617e-06	-7.527951e-10	-3.539409e+01	-4.809992e+01
4.700000e-07	-5.073633e-06	-7.385597e-10	-3.526214e+01	-4.800388e+01
4.800000e-07	-5.054365e-06	-7.471909e-10	-3.512823e+01	-4.790679e+01
4.900000e-07	-5.034846e-06	-7.600286e-10	-3.499257e+01	-4.780883e+01
5.000000e-07	-5.015079e-06	-7.316935e-10	-3.485519e+01	-4.771013e+01
5.100000e-07	-4.995094e-06	-7.350217e-10	-3.471630e+01	-4.761083e+01
5.200000e-07	-4.974738e-06	-7.465792e-10	-3.457481e+01	-4.751104e+01
5.300000e-07	-4.953974e-06	-7.411381e-10	-3.443050e+01	-4.741086e+01
5.400000e-07	-4.932947e-06	-7.293335e-10	-3.428437e+01	-4.731036e+01
5.500000e-07	-4.911623e-06	-7.458756e-10	-3.413616e+01	-4.720960e+01
5.600000e-07	-4.889921e-06	-7.354873e-10	-3.398533e+01	-4.710863e+01
5.700000e-07	-4.867803e-06	-7.163152e-10	-3.383161e+01	-4.700746e+01
5.800000e-07	-4.845304e-06	-7.201086e-10	-3.367524e+01	-4.690610e+01
5.900000e-07	-4.822484e-06	-7.303791e-10	-3.351664e+01	-4.680454e+01
6.000000e-07	-4.799286e-06	-7.170174e-10	-3.335541e+01	-4.670274e+01
6.100000e-07	-4.775824e-06	-7.175756e-10	-3.319235e+01	-4.660067e+01
6.200000e-07	-4.752243e-06	-7.228982e-10	-3.302846e+01	-4.649824e+01
6.300000e-07	-4.728434e-06	-7.075894e-10	-3.286299e+01	-4.639540e+01
6.400000e-07	-4.704307e-06	-7.004281e-10	-3.269530e+01	-4.629206e+01
6.500000e-07	-4.679814e-06	-7.097328e-10	-3.252507e+01	-4.618811e+01
6.600000e-07	-4.654867e-06	-7.060515e-10	-3.235169e+01	-4.608345e+01
6.700000e-07	-4.629425e-06	-6.941632e-10	-3.217487e+01	-4.597797e+01
6.800000e-07	-4.603375e-06	-7.011771e-10	-3.199381e+01	-4.587155e+01
6.900000e-07	-4.576682e-06	-6.977464e-10	-3.180830e+01	-4.576406e+01
7.000000e-07	-4.549599e-06	-6.868712e-10	-3.162007e+01	-4.565538e+01
7.100000e-07	-4.522283e-06	-6.852953e-10	-3.143022e+01	-4.554538e+01
7.200000e-07	-4.494749e-06	-6.918895e-10	-3.123886e+01	-4.543395e+01
7.300000e-07	-4.467042e-06	-6.832508e-10	-3.104629e+01	-4.532096e+01
7.400000e-07	-4.439134e-06	-6.857427e-10	-3.085233e+01	-4.520629e+01
7.500000e-07	-4.410942e-06	-6.872766e-10	-3.065639e+01	-4.508985e+01
7.600000e-07	-4.382497e-06	-6.803731e-10	-3.045870e+01	-4.497151e+01
7.700000e-07	-4.353762e-06	-6.707319e-10	-3.025899e+01	-4.485121e+01
7.800000e-07	-4.324648e-06	-6.726485e-10	-3.005664e+01	-4.472883e+01
7.900000e-07	-4.295223e-06	-6.637931e-10	-2.985214e+01	-4.460433e+01
8.000000e-07	-4.265548e-06	-6.622981e-10	-2.964589e+01	-4.447763e+01
8.100000e-07	-4.235626e-06	-6.675304e-10	-2.943793e+01	-4.434868e+01
8.200000e-07	-4.205447e-06	-6.689441e-10	-2.922818e+01	-4.421745e+01
8.300000e-07	-4.174883e-06	-6.596411e-10	-2.901576e+01	-4.408391e+01
8.400000e-07	-4.143962e-06	-6.599660e-10	-2.880086e+01	-4.394804e+01
8.500000e-07	-4.112763e-06	-6.567099e-10	-2.858402e+01	-4.380984e+01
8.600000e-07	-4.081336e-06	-6.471548e-10	-2.836561e+01	-4.366932e+01
8.700000e-07	-4.049786e-06	-6.404603e-10	-2.814633e+01	-4.352650e+01
8.800000e-07	-4.018097e-06	-6.398591e-10	-2.792609e+01	-4.338140e+01
8.900000e-07	-3.986210e-06	-6.330800e-10	-2.770447e+01	-4.323406e+01
9.000000e-07	-3.954051e-06	-6.289198e-10	-2.748096e+01	-4.308452e+01
9.100000e-07	-3.921618e-06	-6.297508e-10	-2.725555e+01	-4.293283e+01
9.200000e-07	-3.888880e-06	-6.270399e-10	-2.702802e+01	-4.277905e+01
9.300000e-07	-3.855696e-06	-6.243553e-10	-2.679739e+01	-4.262323e+01
9.400000e-07	-3.821944e-06	-6.275296e-10	-2.656281e+01	-4.246543e+01
9.500000e-07	-3.787702e-06	-6.278523e-10	-2.632482e+01	-4.230571e+01
9.600000e-07	-3.753127e-06	-6.205444e-10	-2.608453e+01	-4.214414e+01
9.700000e-07	-3.718241e-06	-6.180242e-10	-2.584206e+01	-4.198076e+01
9.800000e-07	-3.683075e-06	-6.158693e-10	-2.559766e+01	-4.181563e+01
9.900000e-07	-3.647669e-06	-6.105584e-10	-2.535158e+01	-4.164879e+01
1.000000e-06	-3.612016e-06	-6.049951e-10	-2.510379e+01	-4.148029e+01
1.010000e-06	-3.576164e-06	-6.060275e-10	-2.485462e+01	-4.131015e+01
1.020000e-06	-3.540172e-06	-6.027209e-10	-2.460447e+01	-4.113840e+01
1.030000e-06	-3.504024e-06	-6.002808e-10	-2.435324e+01	-4.096504e+01
1.040000e-06	-3.467639e-06	-5.987679e-10	-2.410036e+01	-4.079007e+01
1.050000e-06	-3.431023e-06	-5.952818e-10	-2.384588e+01	-4.061348e+01
1.060000e-06	-3.394152e-06	-5.854328e-10	-2.358962e+01	-4.043525e+01
1.070000e-06	-3.356964e-06	-5.814737e-10	-2.333116e+01	-4.025533e+01
1.080000e-06	-3.319525e-06	-5.796231e-10	-2.307096e+01	-4.007366e+01
1.090000e-06	-3.281904e-06	-5.773546e-10	-2.280949e+01	-3.989018e+01
1.100000e-06	-3.244129e-06	-5.726963e-10	-2.254695e+01	-3.970480e+01
1.110000e-06	-3.206159e-06	-5.693334e-10	-2.228306e+01	-3.951743e+01
1.120000e-06	-3.167891e-06	-5.633325e-10	-2.201709e+01	-3.932795e+01
1.130000e-06	-3.129335e-06	-5.611475e-10	-2.174912e+01	-3.913624e+01
1.140000e-06	-3.090570e-06	-5.626012e-10	-2.147970e+01	-3.894216e+01
1.150000e-06	-3.051605e-06	-5.626139e-10	-2.120889e+01	-3.874555e+01
1.160000e-06	-3.012480e-06	-5.597433e-10	-2.093697e+01	-3.854627e+01
1.170000e-06	-2.973217e-06	-5.574627e-10	-2.066409e+01	-3.834413e+01
1.180000e-06	-2.933776e-06	-5.531499e-10	-2.038997e+01	-3.813896e+01
1.190000e-06	-2.894189e-06	-5.489600e-10	-2.011484e+01	-3.793056e+01
1.200000e-06	-2.854512e-06	-5.471977e-10	-1.983908e+01	-3.771875e+01
1.210000e-06	-2.814699e-06	-5.468566e-10	-1.956238e+01	-3.750332e+01
1.220000e-06	-2.774665e-06	-5.462060e-10	-1.928414e+01	-3.728405e+01
1.230000e-06	-2.734476e-06	-5.472590e-10	-1.900482e+01	-3.706076e+01
1.240000e-06	-2.694186e-06	-5.464158e-10	-1.872480e+01	-3.683322e+01
1.250000e-06	-2.653677e-06	-5.404945e-10	-1.844326e+01	-3.660122e+01
1.260000e-06	-2.612936e-06	-5.356751e-10	-1.816011e+01	-3.636456e+01
1.270000e-06	-2.571852e-06	-5.317994e-10	-1.787457e+01	-3.612303e+01
1.280000e-06	-2.530435e-06	-5.288399e-10	-1.758672e+01	-3.587641e+01
1.290000e-06	-2.488790e-06	-5.234881e-10	-1.729729e+01	-3.562450e+01
1.300000e-06	-2.446805e-06	-5.188061e-10	-1.700549e+01	-3.536711e+01
1.310000e-06	-2.404476e-06	-5.134203e-10	-1.671129e+01	-3.510405e+01
1.320000e-06	-2.361819e-06	-5.084246e-10	-1.641483e+01	-3.483511e+01
1.330000e-06	-2.318884e-06	-5.069280e-10	-1.611642e+01	-3.456013e+01
1.340000e-06	-2.275759e-06	-5.063963e-10	-1.581670e+01	-3.427892e+01
1.350000e-06	-2.232564e-06	-5.008220e-10	-1.551649e+01	-3.399130e+01
1.360000e-06	-2.189228e-06	-4.927339e-10	-1.521530e+01	-3.369712e+01
1.370000e-06	-2.145666e-06	-4.831680e-10	-1.491254e+01	-3.339621e+01
1.380000e-06	-2.101974e-06	-4.754194e-10	-1.460889e+01	-3.308840e+01
1.390000e-06	-2.058254e-06	-4.681874e-10	-1.430503e+01	-3.277356e+01
1.400000e-06	-2.014510e-06	-4.627298e-10	-1.400100e+01	-3.245153e+01
1.410000e-06	-1.970729e-06	-4.572103e-10	-1.369672e+01	-3.212215e+01
1.420000e-06	-1.926837e-06	-4.522665e-10	-1.339166e+01	-3.178530e+01
1.430000e-06	-1.882769e-06	-4.481166e-10	-1.308539e+01	-3.144080e+01
1.440000e-06	-1.838588e-06	-4.442480e-10	-1.277833e+01	-3.108854e+01
1.450000e-06	-1.794301e-06	-4.359110e-10	-1.247053e+01	-3.072834e+01
1.460000e-06	-1.749898e-06	-4.245531e-10	-1.216193e+01	-3.036007e+01
1.470000e-06	-1.705364e-06	-4.145383e-10	-1.185241e+01	-2.998356e+01
1.480000e-06	-1.660690e-06	-4.048515e-10	-1.154193e+01	-2.959866e+01
1.490000e-06	-1.615923e-06	-3.975238e-10	-1.123079e+01	-2.920519e+01
1.500000e-06	-1.571029e-06	-3.939109e-10	-1.091877e+01	-2.880299e+01
1.510000e-06	-1.525946e-06	-3.902907e-10	-1.060544e+01	-2.839186e+01
1.520000e-06	-1.480765e-06	-3.839567e-10	-1.029143e+01	-2.797162e+01
1.530000e-06	-1.435541e-06	-3.746624e-10	-9.977120e+00	-2.754207e+01
1.540000e-06	-1.390186e-06	-3.661082e-10	-9.661902e+00	-2.710298e+01
1.550000e-06	-1.344664e-06	-3.576944e-10	-9.345519e+00	-2.665414e+01
1.560000e-06	-1.299057e-06	-3.473321e-10	-9.028548e+00	-2.619532e+01
1.570000e-06	-1.253397e-06	-3.372593e-10	-8.711204e+00	-2.572626e+01
1.580000e-06	-1.207683e-06	-3.290480e-10	-8.393493e+00	-2.524672e+01
1.590000e-06	-1.161873e-06	-3.238910e-10	-8.075111e+00	-2.475642e+01
1.600000e-06	-1.115915e-06	-3.193745e-10	-7.755696e+00	-2.425511e+01
1.610000e-06	-1.069896e-06	-3.146360e-10	-7.435861e+00	-2.374249e+01
1.620000e-06	-1.023890e-06	-3.048471e-10	-7.116118e+00	-2.321828e+01
1.630000e-06	-9.778611e-07	-2.936802e-10	-6.796211e+00	-2.268220e+01
1.640000e-06	-9.317607e-07	-2.811421e-10	-6.475809e+00	-2.213394e+01
1.650000e-06	-8.856537e-07	-2.713995e-10	-6.155362e+00	-2.157322e+01
1.660000e-06	-8.394185e-07	-2.648160e-10	-5.834024e+00	-2.099975e+01
1.670000e-06	-7.929352e-07	-2.582342e-10	-5.510961e+00	-2.041324e+01
1.680000e-06	-7.464892e-07	-2.514900e-10	-5.188158e+00	-1.981340e+01
1.690000e-06	-7.000780e-07	-2.449264e-10	-4.865597e+00	-1.919999e+01
1.700000e-06	-6.535368e-07	-2.350702e-10	-4.542132e+00	-1.857273e+01
1.710000e-06	-6.069478e-07	-2.227248e-10	-4.218335e+00	-1.793140e+01
1.720000e-06	-5.604072e-07	-2.106875e-10	-3.894873e+00	-1.727578e+01
1.730000e-06	-5.138843e-07	-2.015762e-10	-3.571536e+00	-1.660568e+01
1.740000e-06	-4.672906e-07	-1.945849e-10	-3.247706e+00	-1.592093e+01
1.750000e-06	-4.206239e-07	-1.878692e-10	-2.923369e+00	-1.522141e+01
1.760000e-06	-3.738351e-07	-1.797017e-10	-2.598183e+00	-1.450701e+01
1.770000e-06	-3.269640e-07	-1.688072e-10	-2.272425e+00	-1.377768e+01
1.780000e-06	-2.801317e-07	-1.584262e-10	-1.946937e+00	-1.303339e+01
1.790000e-06	-2.332991e-07	-1.457749e-10	-1.621447e+00	-1.227417e+01
1.800000e-06	-1.864442e-07	-1.315013e-10	-1.295802e+00	-1.150009e+01
1.810000e-06	-1.396181e-07	-1.167126e-10	-9.703568e-01	-1.071128e+01
1.820000e-06	-9.277065e-08	-1.041235e-10	-6.447632e-01	-9.907897e+00
1.830000e-06	-4.590265e-08	-9.467769e-11	-3.190270e-01	-9.090183e+00
1.840000e-06	8.629053e-10	-8.580869e-11	5.997259e-03	-8.258418e+00
1.850000e-06	4.751946e-08	-7.787944e-11	3.302639e-01	-7.412943e+00
1.860000e-06	9.425235e-08	-6.854032e-11	6.550611e-01	-6.554158e+00
1.870000e-06	1.410602e-07	-5.548289e-11	9.803795e-01	-5.682521e+00
1.880000e-06	1.878910e-07	-4.245679e-11	1.305857e+00	-4.798551e+00
1.890000e-06	2.347251e-07	-2.757092e-11	1.631358e+00	-3.902825e+00
1.900000e-06	2.815246e-07	-1.346533e-11	1.956618e+00	-2.995978e+00
1.910000e-06	3.283336e-07	6.146206e-13	2.281944e+00	-2.078702e+00
1.920000e-06	3.750547e-07	1.223646e-11	2.606660e+00	-1.151745e+00
1.930000e-06	4.217097e-07	2.129774e-11	2.930915e+00	-2.159086e-01
1.940000e-06	4.683237e-07	2.958710e-11	3.254886e+00	7.279543e-01
1.950000e-06	5.149255e-07	3.855409e-11	3.578772e+00	1.678943e+00
1.960000e-06	5.615090e-07	5.225077e-11	3.902531e+00	2.636114e+00
1.970000e-06	6.080121e-07	6.848799e-11	4.225732e+00	3.598479e+00
1.980000e-06	6.545610e-07	8.602881e-11	4.549250e+00	4.565017e+00
1.990000e-06	7.010202e-07	1.026135e-10	4.872145e+00	5.534671e+00
2.000000e-06	7.473698e-07	1.168147e-10	5.194278e+00	6.506360e+00
2.010000e-06	7.936891e-07	1.278288e-10	5.516201e+00	7.478978e+00
2.020000e-06	8.398999e-07	1.373259e-10	5.837370e+00	8.451404e+00
2.030000e-06	8.860460e-07	1.473827e-10	6.158088e+00	9.422503e+00
2.040000e-06	9.321011e-07	1.588966e-10	6.478176e+00	1.039114e+01
2.050000e-06	9.780721e-07	1.720663e-10	6.797677e+00	1.135616e+01
2.060000e-06	1.024050e-06	1.873900e-10	7.117231e+00	1.231645e+01
2.070000e-06	1.069968e-06	2.049437e-10	7.436361e+00	1.327088e+01
2.080000e-06	1.115848e-06	2.216997e-10	7.755233e+00	1.421834e+01
2.090000e-06	1.161737e-06	2.369132e-10	8.074163e+00	1.515776e+01
2.100000e-06	1.207432e-06	2.503958e-10	8.391747e+00	1.608807e+01
2.110000e-06	1.252996e-06	2.621699e-10	8.708422e+00	1.700826e+01
2.120000e-06	1.298538e-06	2.744284e-10	9.024941e+00	1.791736e+01
2.130000e-06	1.343993e-06	2.869856e-10	9.340858e+00	1.881442e+01
2.140000e-06	1.389426e-06	2.984765e-10	9.656620e+00	1.969857e+01
2.150000e-06	1.434744e-06	3.106050e-10	9.971581e+00	2.056896e+01
2.160000e-06	1.479937e-06	3.242794e-10	1.028567e+01	2.142482e+01
2.170000e-06	1.525068e-06	3.383531e-10	1.059934e+01	2.226545e+01
2.180000e-06	1.570111e-06	3.506813e-10	1.091239e+01	2.309018e+01
2.190000e-06	1.615065e-06	3.618266e-10	1.122483e+01	2.389843e+01
2.200000e-06	1.659837e-06	3.715175e-10	1.153600e+01	2.468968e+01
2.210000e-06	1.704379e-06	3.795629e-10	1.184557e+01	2.546349e+01
2.220000e-06	1.748829e-06	3.881594e-10	1.215450e+01	2.621948e+01
2.230000e-06	1.793194e-06	3.976505e-10	1.246284e+01	2.695734e+01
2.240000e-06	1.837341e-06	4.073647e-10	1.276966e+01	2.767683e+01
2.250000e-06	1.881329e-06	4.164258e-10	1.307538e+01	2.837780e+01
2.260000e-06	1.925256e-06	4.257051e-10	1.338068e+01	2.906015e+01
2.270000e-06	1.969110e-06	4.349886e-10	1.368547e+01	2.972384e+01
2.280000e-06	2.012869e-06	4.442523e-10	1.398960e+01	3.036892e+01
2.290000e-06	2.056556e-06	4.538648e-10	1.429322e+01	3.099549e+01
2.300000e-06	2.100189e-06	4.636967e-10	1.459648e+01	3.160371e+01
2.310000e-06	2.143786e-06	4.713931e-10	1.489948e+01	3.219379e+01
2.320000e-06	2.187279e-06	4.771324e-10	1.520176e+01	3.276602e+01
2.330000e-06	2.230664e-06	4.811133e-10	1.550329e+01	3.332071e+01
2.340000e-06	2.273928e-06	4.843753e-10	1.580398e+01	3.385822e+01
2.350000e-06	2.316952e-06	4.894972e-10	1.610300e+01	3.437896e+01
2.360000e-06	2.359747e-06	4.975945e-10	1.640043e+01	3.488338e+01
2.370000e-06	2.402370e-06	5.072712e-10	1.669666e+01	3.537195e+01
2.380000e-06	2.444745e-06	5.167327e-10	1.699117e+01	3.584517e+01
2.390000e-06	2.486796e-06	5.253850e-10	1.728343e+01	3.630355e+01
2.400000e-06	2.528556e-06	5.324599e-10	1.757366e+01	3.674763e+01
2.410000e-06	2.569990e-06	5.392993e-10	1.786163e+01	3.717796e+01
2.420000e-06	2.611079e-06	5.465120e-10	1.814720e+01	3.759509e+01
2.430000e-06	2.651889e-06	5.521801e-10	1.843083e+01	3.799957e+01
2.440000e-06	2.692430e-06	5.579826e-10	1.871260e+01	3.839196e+01
2.450000e-06	2.732696e-06	5.655725e-10	1.899245e+01	3.877279e+01
2.460000e-06	2.772726e-06	5.723499e-10	1.927066e+01	3.914261e+01
2.470000e-06	2.812615e-06	5.772837e-10	1.954789e+01	3.950192e+01
2.480000e-06	2.852354e-06	5.806031e-10	1.982408e+01	3.985122e+01
2.490000e-06	2.891960e-06	5.854408e-10	2.009935e+01	4.019100e+01
2.500000e-06	2.931473e-06	5.922237e-10	2.037397e+01	4.052168e+01
2.510000e-06	2.970841e-06	5.974492e-10	2.064758e+01	4.084371e+01
2.520000e-06	3.010053e-06	6.016949e-10	2.092011e+01	4.115748e+01
2.530000e-06	3.049063e-06	6.059627e-10	2.119123e+01	4.146335e+01
2.540000e-06	3.087876e-06	6.083210e-10	2.146098e+01	4.176165e+01
2.550000e-06	3.126450e-06	6.091505e-10	2.172907e+01	4.205268e+01
2.560000e-06	3.164760e-06	6.119917e-10	2.199533e+01	4.233671e+01
2.570000e-06	3.202878e-06	6.166273e-10	2.226025e+01	4.261398e+01
2.580000e-06	3.240825e-06	6.203032e-10	2.252399e+01	4.288469e+01
2.590000e-06	3.278519e-06	6.237343e-10	2.278596e+01	4.314900e+01
2.600000e-06	3.315981e-06	6.277680e-10	2.304633e+01	4.340707e+01
2.610000e-06	3.353235e-06	6.334749e-10	2.330524e+01	4.365900e+01
2.620000e-06	3.390290e-06	6.394449e-10	2.356278e+01	4.390488e+01
2.630000e-06	3.427129e-06	6.434341e-10	2.381881e+01	4.414478e+01
2.640000e-06	3.463671e-06	6.447347e-10	2.407278e+01	4.437873e+01
2.650000e-06	3.499961e-06	6.451417e-10	2.432500e+01	4.460675e+01
2.660000e-06	3.536006e-06	6.459016e-10	2.457552e+01	4.482886e+01
2.670000e-06	3.571830e-06	6.476324e-10	2.482450e+01	4.504503e+01
2.680000e-06	3.607506e-06	6.523378e-10	2.507244e+01	4.525525e+01
2.690000e-06	3.643076e-06	6.587253e-10	2.531966e+01	4.545949e+01
2.700000e-06	3.678563e-06	6.645768e-10	2.556630e+01	4.565772e+01
2.710000e-06	3.713888e-06	6.703171e-10	2.581181e+01	4.584989e+01
2.720000e-06	3.748911e-06	6.779601e-10	2.605522e+01	4.603597e+01
2.730000e-06	3.783556e-06	6.848421e-10	2.629601e+01	4.621593e+01
2.740000e-06	3.817733e-06	6.868236e-10	2.653354e+01	4.638974e+01
2.750000e-06	3.851427e-06	6.858729e-10	2.676772e+01	4.655739e+01
2.760000e-06	3.884667e-06	6.865086e-10	2.699874e+01	4.671885e+01
2.770000e-06	3.917574e-06	6.892033e-10	2.722744e+01	4.687415e+01
2.780000e-06	3.950170e-06	6.941549e-10	2.745399e+01	4.702329e+01
2.790000e-06	3.982427e-06	7.021644e-10	2.767818e+01	4.716631e+01
2.800000e-06	4.014410e-06	7.104562e-10	2.790046e+01	4.730326e+01
2.810000e-06	4.046172e-06	7.154912e-10	2.812121e+01	4.743421e+01
2.820000e-06	4.077774e-06	7.171663e-10	2.834085e+01	4.755925e+01
2.830000e-06	4.109253e-06	7.158132e-10	2.855963e+01	4.767849e+01
2.840000e-06	4.140537e-06	7.128856e-10	2.877705e+01	4.779205e+01
2.850000e-06	4.171423e-06	7.109375e-10	2.899171e+01	4.790007e+01
2.860000e-06	4.201999e-06	7.113004e-10	2.920422e+01	4.800271e+01
2.870000e-06	4.232398e-06	7.142465e-10	2.941549e+01	4.810017e+01
2.880000e-06	4.262463e-06	7.211059e-10	2.962445e+01	4.819262e+01
2.890000e-06	4.292176e-06	7.284204e-10	2.983096e+01	4.828028e+01
2.900000e-06	4.321550e-06	7.337536e-10	3.003511e+01	4.836337e+01
