# Temperatura_=_-5.54
# Concentracion g/m^3_=_1620.0
# C_Vs_to_Am_M_A/Vsm_=_65563218390.804596
# pendiente_HvsI_1/m_=_3716.3
# ordenada_HvsI_A/m_=_1297.0
# frecuencia_Hz_=_135093.48058302893

Tiempo_(s)	Campo_(V.s)	Magnetizacion_(V.s)	Campo_(kA/m)	Magnetizacion_(A/m)
0.000000e+00	-5.520641e-06	-9.331743e-10	-3.837866e+01	-6.133441e+01
1.000000e-08	-5.520757e-06	-9.345363e-10	-3.837947e+01	-6.131517e+01
2.000000e-08	-5.520594e-06	-9.383972e-10	-3.837834e+01	-6.129526e+01
3.000000e-08	-5.520004e-06	-9.404555e-10	-3.837423e+01	-6.127468e+01
4.000000e-08	-5.518864e-06	-9.414480e-10	-3.836631e+01	-6.125339e+01
5.000000e-08	-5.517145e-06	-9.437871e-10	-3.835436e+01	-6.123137e+01
6.000000e-08	-5.514698e-06	-9.304713e-10	-3.833735e+01	-6.120858e+01
7.000000e-08	-5.511707e-06	-8.986505e-10	-3.831655e+01	-6.118495e+01
8.000000e-08	-5.508431e-06	-8.996575e-10	-3.829378e+01	-6.116042e+01
9.000000e-08	-5.504672e-06	-9.871541e-10	-3.826765e+01	-6.113491e+01
1.000000e-07	-5.500386e-06	-1.012679e-09	-3.823785e+01	-6.110833e+01
1.100000e-07	-5.495904e-06	-9.819879e-10	-3.820669e+01	-6.108057e+01
1.200000e-07	-5.491311e-06	-7.937092e-10	-3.817476e+01	-6.105153e+01
1.300000e-07	-5.486437e-06	-9.234987e-10	-3.814088e+01	-6.102108e+01
1.400000e-07	-5.481133e-06	-9.666319e-10	-3.810401e+01	-6.098911e+01
1.500000e-07	-5.475355e-06	-9.603528e-10	-3.806384e+01	-6.095547e+01
1.600000e-07	-5.469150e-06	-8.393972e-10	-3.802071e+01	-6.092005e+01
1.700000e-07	-5.462637e-06	-9.115174e-10	-3.797543e+01	-6.088269e+01
1.800000e-07	-5.455728e-06	-1.029966e-09	-3.792740e+01	-6.084326e+01
1.900000e-07	-5.448381e-06	-9.653133e-10	-3.787632e+01	-6.080162e+01
2.000000e-07	-5.440764e-06	-8.933026e-10	-3.782337e+01	-6.075763e+01
2.100000e-07	-5.432939e-06	-8.981532e-10	-3.776897e+01	-6.071116e+01
2.200000e-07	-5.424762e-06	-1.017638e-09	-3.771213e+01	-6.066209e+01
2.300000e-07	-5.416258e-06	-9.748457e-10	-3.765301e+01	-6.061028e+01
2.400000e-07	-5.407393e-06	-9.700383e-10	-3.759138e+01	-6.055563e+01
2.500000e-07	-5.397745e-06	-9.257967e-10	-3.752431e+01	-6.049803e+01
2.600000e-07	-5.387326e-06	-1.004487e-09	-3.745187e+01	-6.043739e+01
2.700000e-07	-5.376401e-06	-9.357434e-10	-3.737593e+01	-6.037363e+01
2.800000e-07	-5.365060e-06	-9.360944e-10	-3.729709e+01	-6.030667e+01
2.900000e-07	-5.353296e-06	-9.107567e-10	-3.721530e+01	-6.023646e+01
3.000000e-07	-5.341247e-06	-9.828071e-10	-3.713154e+01	-6.016297e+01
3.100000e-07	-5.328853e-06	-9.283698e-10	-3.704538e+01	-6.008616e+01
3.200000e-07	-5.315980e-06	-9.277720e-10	-3.695589e+01	-6.000604e+01
3.300000e-07	-5.302603e-06	-9.069557e-10	-3.686289e+01	-5.992260e+01
3.400000e-07	-5.288865e-06	-9.610587e-10	-3.676739e+01	-5.983587e+01
3.500000e-07	-5.274783e-06	-9.143974e-10	-3.666950e+01	-5.974589e+01
3.600000e-07	-5.260113e-06	-9.129140e-10	-3.656751e+01	-5.965273e+01
3.700000e-07	-5.244882e-06	-9.243693e-10	-3.646163e+01	-5.955645e+01
3.800000e-07	-5.229202e-06	-9.590681e-10	-3.635262e+01	-5.945714e+01
3.900000e-07	-5.212961e-06	-9.020835e-10	-3.623971e+01	-5.935491e+01
4.000000e-07	-5.196274e-06	-8.892511e-10	-3.612371e+01	-5.924987e+01
4.100000e-07	-5.179348e-06	-9.452891e-10	-3.600604e+01	-5.914216e+01
4.200000e-07	-5.162110e-06	-9.108714e-10	-3.588620e+01	-5.903192e+01
4.300000e-07	-5.144500e-06	-8.641051e-10	-3.576379e+01	-5.891930e+01
4.400000e-07	-5.126585e-06	-8.989720e-10	-3.563925e+01	-5.880448e+01
4.500000e-07	-5.108366e-06	-9.720022e-10	-3.551259e+01	-5.868761e+01
4.600000e-07	-5.089702e-06	-8.745610e-10	-3.538284e+01	-5.856888e+01
4.700000e-07	-5.070605e-06	-8.741652e-10	-3.525008e+01	-5.844848e+01
4.800000e-07	-5.051271e-06	-9.318114e-10	-3.511567e+01	-5.832658e+01
4.900000e-07	-5.031739e-06	-9.281213e-10	-3.497988e+01	-5.820338e+01
5.000000e-07	-5.011933e-06	-8.375040e-10	-3.484220e+01	-5.807907e+01
5.100000e-07	-4.991892e-06	-9.149293e-10	-3.470288e+01	-5.795382e+01
5.200000e-07	-4.971481e-06	-9.107712e-10	-3.456098e+01	-5.782784e+01
5.300000e-07	-4.950670e-06	-8.603011e-10	-3.441631e+01	-5.770128e+01
5.400000e-07	-4.929517e-06	-8.752812e-10	-3.426926e+01	-5.757432e+01
5.500000e-07	-4.908027e-06	-9.536945e-10	-3.411986e+01	-5.744713e+01
5.600000e-07	-4.886250e-06	-8.593275e-10	-3.396847e+01	-5.731985e+01
5.700000e-07	-4.864120e-06	-8.479635e-10	-3.381463e+01	-5.719264e+01
5.800000e-07	-4.841517e-06	-9.053929e-10	-3.365749e+01	-5.706561e+01
5.900000e-07	-4.818640e-06	-8.901501e-10	-3.349846e+01	-5.693888e+01
6.000000e-07	-4.795480e-06	-8.200290e-10	-3.333745e+01	-5.681256e+01
6.100000e-07	-4.772003e-06	-8.837470e-10	-3.317424e+01	-5.668673e+01
6.200000e-07	-4.748338e-06	-8.837808e-10	-3.300973e+01	-5.656145e+01
6.300000e-07	-4.724441e-06	-8.315214e-10	-3.284360e+01	-5.643679e+01
6.400000e-07	-4.700207e-06	-8.490351e-10	-3.267513e+01	-5.631277e+01
6.500000e-07	-4.675524e-06	-8.881029e-10	-3.250354e+01	-5.618942e+01
6.600000e-07	-4.650430e-06	-8.473491e-10	-3.232909e+01	-5.606673e+01
6.700000e-07	-4.624907e-06	-8.471695e-10	-3.215166e+01	-5.594470e+01
6.800000e-07	-4.598809e-06	-8.771517e-10	-3.197022e+01	-5.582327e+01
6.900000e-07	-4.572168e-06	-8.461440e-10	-3.178502e+01	-5.570241e+01
7.000000e-07	-4.545081e-06	-8.267320e-10	-3.159672e+01	-5.558204e+01
7.100000e-07	-4.517701e-06	-8.437632e-10	-3.140637e+01	-5.546209e+01
7.200000e-07	-4.490122e-06	-8.400322e-10	-3.121465e+01	-5.534245e+01
7.300000e-07	-4.462336e-06	-8.182264e-10	-3.102148e+01	-5.522301e+01
7.400000e-07	-4.434452e-06	-8.473778e-10	-3.082764e+01	-5.510364e+01
7.500000e-07	-4.406358e-06	-8.454621e-10	-3.063233e+01	-5.498421e+01
7.600000e-07	-4.377914e-06	-8.317971e-10	-3.043460e+01	-5.486456e+01
7.700000e-07	-4.349112e-06	-8.244786e-10	-3.023437e+01	-5.474454e+01
7.800000e-07	-4.319984e-06	-8.330895e-10	-3.003187e+01	-5.462398e+01
7.900000e-07	-4.290530e-06	-8.090809e-10	-2.982711e+01	-5.450270e+01
8.000000e-07	-4.260827e-06	-8.224247e-10	-2.962062e+01	-5.438052e+01
8.100000e-07	-4.230856e-06	-8.249742e-10	-2.941227e+01	-5.425726e+01
8.200000e-07	-4.200454e-06	-8.243021e-10	-2.920092e+01	-5.413272e+01
8.300000e-07	-4.169780e-06	-8.129384e-10	-2.898768e+01	-5.400671e+01
8.400000e-07	-4.138902e-06	-8.313423e-10	-2.877302e+01	-5.387904e+01
8.500000e-07	-4.107778e-06	-8.150981e-10	-2.855665e+01	-5.374951e+01
8.600000e-07	-4.076464e-06	-8.093176e-10	-2.833896e+01	-5.361794e+01
8.700000e-07	-4.044971e-06	-8.106897e-10	-2.812002e+01	-5.348412e+01
8.800000e-07	-4.013310e-06	-8.167301e-10	-2.789993e+01	-5.334789e+01
8.900000e-07	-3.981402e-06	-8.017676e-10	-2.767810e+01	-5.320904e+01
9.000000e-07	-3.949213e-06	-8.083442e-10	-2.745433e+01	-5.306742e+01
9.100000e-07	-3.916660e-06	-8.027332e-10	-2.722803e+01	-5.292284e+01
9.200000e-07	-3.883667e-06	-7.912768e-10	-2.699866e+01	-5.277514e+01
9.300000e-07	-3.850252e-06	-7.885540e-10	-2.676637e+01	-5.262416e+01
9.400000e-07	-3.816365e-06	-8.012529e-10	-2.653079e+01	-5.246976e+01
9.500000e-07	-3.782057e-06	-7.967676e-10	-2.629229e+01	-5.231179e+01
9.600000e-07	-3.747325e-06	-7.924867e-10	-2.605083e+01	-5.215012e+01
9.700000e-07	-3.712247e-06	-7.983011e-10	-2.580698e+01	-5.198461e+01
9.800000e-07	-3.676994e-06	-7.909315e-10	-2.556190e+01	-5.181516e+01
9.900000e-07	-3.641558e-06	-7.793257e-10	-2.531556e+01	-5.164165e+01
1.000000e-06	-3.605932e-06	-7.771596e-10	-2.506790e+01	-5.146398e+01
1.010000e-06	-3.570150e-06	-7.798801e-10	-2.481914e+01	-5.128205e+01
1.020000e-06	-3.534287e-06	-7.682837e-10	-2.456983e+01	-5.109578e+01
1.030000e-06	-3.498241e-06	-7.696605e-10	-2.431924e+01	-5.090508e+01
1.040000e-06	-3.461852e-06	-7.692407e-10	-2.406627e+01	-5.070987e+01
1.050000e-06	-3.425201e-06	-7.640352e-10	-2.381148e+01	-5.051010e+01
1.060000e-06	-3.388380e-06	-7.517897e-10	-2.355550e+01	-5.030569e+01
1.070000e-06	-3.351290e-06	-7.554793e-10	-2.329766e+01	-5.009659e+01
1.080000e-06	-3.313886e-06	-7.479354e-10	-2.303763e+01	-4.988273e+01
1.090000e-06	-3.276293e-06	-7.431299e-10	-2.277629e+01	-4.966406e+01
1.100000e-06	-3.238538e-06	-7.358363e-10	-2.251382e+01	-4.944054e+01
1.110000e-06	-3.200523e-06	-7.347829e-10	-2.224955e+01	-4.921212e+01
1.120000e-06	-3.162223e-06	-7.210556e-10	-2.198329e+01	-4.897874e+01
1.130000e-06	-3.123688e-06	-7.184529e-10	-2.171540e+01	-4.874036e+01
1.140000e-06	-3.084907e-06	-7.145601e-10	-2.144581e+01	-4.849694e+01
1.150000e-06	-3.045859e-06	-7.112423e-10	-2.117435e+01	-4.824842e+01
1.160000e-06	-3.006698e-06	-7.046265e-10	-2.090211e+01	-4.799475e+01
1.170000e-06	-2.967394e-06	-7.057554e-10	-2.062888e+01	-4.773589e+01
1.180000e-06	-2.927904e-06	-6.985078e-10	-2.035435e+01	-4.747177e+01
1.190000e-06	-2.888328e-06	-6.929975e-10	-2.007922e+01	-4.720235e+01
1.200000e-06	-2.848617e-06	-6.878414e-10	-1.980315e+01	-4.692756e+01
1.210000e-06	-2.808767e-06	-6.823077e-10	-1.952612e+01	-4.664735e+01
1.220000e-06	-2.768760e-06	-6.725946e-10	-1.924800e+01	-4.636163e+01
1.230000e-06	-2.728569e-06	-6.696275e-10	-1.896860e+01	-4.607035e+01
1.240000e-06	-2.688200e-06	-6.662772e-10	-1.868796e+01	-4.577343e+01
1.250000e-06	-2.647667e-06	-6.616060e-10	-1.840618e+01	-4.547078e+01
1.260000e-06	-2.606825e-06	-6.623129e-10	-1.812225e+01	-4.516233e+01
1.270000e-06	-2.565660e-06	-6.622630e-10	-1.783608e+01	-4.484799e+01
1.280000e-06	-2.524252e-06	-6.559068e-10	-1.754822e+01	-4.452766e+01
1.290000e-06	-2.482496e-06	-6.463810e-10	-1.725793e+01	-4.420124e+01
1.300000e-06	-2.440405e-06	-6.381090e-10	-1.696532e+01	-4.386864e+01
1.310000e-06	-2.397968e-06	-6.281245e-10	-1.667031e+01	-4.352975e+01
1.320000e-06	-2.355263e-06	-6.208454e-10	-1.637343e+01	-4.318445e+01
1.330000e-06	-2.312324e-06	-6.171381e-10	-1.607493e+01	-4.283263e+01
1.340000e-06	-2.269136e-06	-6.177151e-10	-1.577469e+01	-4.247417e+01
1.350000e-06	-2.225858e-06	-6.133052e-10	-1.547383e+01	-4.210896e+01
1.360000e-06	-2.182480e-06	-6.109343e-10	-1.517227e+01	-4.173685e+01
1.370000e-06	-2.138962e-06	-6.039354e-10	-1.486974e+01	-4.135772e+01
1.380000e-06	-2.095386e-06	-5.962373e-10	-1.456680e+01	-4.097143e+01
1.390000e-06	-2.051781e-06	-5.841324e-10	-1.426367e+01	-4.057785e+01
1.400000e-06	-2.008121e-06	-5.745515e-10	-1.396015e+01	-4.017683e+01
1.410000e-06	-1.964301e-06	-5.642854e-10	-1.365552e+01	-3.976822e+01
1.420000e-06	-1.920389e-06	-5.610374e-10	-1.335025e+01	-3.935187e+01
1.430000e-06	-1.876438e-06	-5.570131e-10	-1.304471e+01	-3.892763e+01
1.440000e-06	-1.832298e-06	-5.559895e-10	-1.273786e+01	-3.849534e+01
1.450000e-06	-1.787957e-06	-5.489554e-10	-1.242961e+01	-3.805484e+01
1.460000e-06	-1.743502e-06	-5.408725e-10	-1.212056e+01	-3.760596e+01
1.470000e-06	-1.698996e-06	-5.305269e-10	-1.181116e+01	-3.714853e+01
1.480000e-06	-1.654363e-06	-5.211907e-10	-1.150088e+01	-3.668238e+01
1.490000e-06	-1.609567e-06	-5.092760e-10	-1.118946e+01	-3.620734e+01
1.500000e-06	-1.564645e-06	-5.000393e-10	-1.087718e+01	-3.572322e+01
1.510000e-06	-1.519490e-06	-4.920037e-10	-1.056327e+01	-3.522983e+01
1.520000e-06	-1.474239e-06	-4.851558e-10	-1.024869e+01	-3.472699e+01
1.530000e-06	-1.428977e-06	-4.776305e-10	-9.934030e+00	-3.421451e+01
1.540000e-06	-1.383607e-06	-4.713858e-10	-9.618624e+00	-3.369220e+01
1.550000e-06	-1.338173e-06	-4.621627e-10	-9.302778e+00	-3.315984e+01
1.560000e-06	-1.292729e-06	-4.507037e-10	-8.986856e+00	-3.261726e+01
1.570000e-06	-1.247198e-06	-4.399411e-10	-8.670330e+00	-3.206423e+01
1.580000e-06	-1.201527e-06	-4.316515e-10	-8.352837e+00	-3.150055e+01
1.590000e-06	-1.155794e-06	-4.240637e-10	-8.034904e+00	-3.092602e+01
1.600000e-06	-1.109952e-06	-4.136638e-10	-7.716216e+00	-3.034043e+01
1.610000e-06	-1.063971e-06	-4.011169e-10	-7.396566e+00	-2.974356e+01
1.620000e-06	-1.017873e-06	-3.909672e-10	-7.076097e+00	-2.913522e+01
1.630000e-06	-9.716104e-07	-3.845431e-10	-6.754488e+00	-2.851518e+01
1.640000e-06	-9.252412e-07	-3.715155e-10	-6.432136e+00	-2.788325e+01
1.650000e-06	-8.789104e-07	-3.588290e-10	-6.110052e+00	-2.723922e+01
1.660000e-06	-8.326190e-07	-3.462616e-10	-5.788241e+00	-2.658290e+01
1.670000e-06	-7.863364e-07	-3.358120e-10	-5.466491e+00	-2.591409e+01
1.680000e-06	-7.399250e-07	-3.240838e-10	-5.143847e+00	-2.523260e+01
1.690000e-06	-6.934244e-07	-3.167132e-10	-4.820581e+00	-2.453827e+01
1.700000e-06	-6.468542e-07	-3.050561e-10	-4.496833e+00	-2.383092e+01
1.710000e-06	-6.001999e-07	-2.907471e-10	-4.172499e+00	-2.311040e+01
1.720000e-06	-5.535708e-07	-2.756263e-10	-3.848340e+00	-2.237656e+01
1.730000e-06	-5.068989e-07	-2.645007e-10	-3.523884e+00	-2.162929e+01
1.740000e-06	-4.601878e-07	-2.534417e-10	-3.199156e+00	-2.086847e+01
1.750000e-06	-4.133934e-07	-2.439268e-10	-2.873848e+00	-2.009401e+01
1.760000e-06	-3.665755e-07	-2.319820e-10	-2.548377e+00	-1.930585e+01
1.770000e-06	-3.197609e-07	-2.190026e-10	-2.222929e+00	-1.850394e+01
1.780000e-06	-2.729062e-07	-2.083702e-10	-1.897203e+00	-1.768827e+01
1.790000e-06	-2.259812e-07	-1.956148e-10	-1.570987e+00	-1.685883e+01
1.800000e-06	-1.790067e-07	-1.775213e-10	-1.244428e+00	-1.601566e+01
1.810000e-06	-1.320678e-07	-1.591923e-10	-9.181150e-01	-1.515884e+01
1.820000e-06	-8.520524e-08	-1.441916e-10	-5.923339e-01	-1.428846e+01
1.830000e-06	-3.841549e-08	-1.315732e-10	-2.670587e-01	-1.340465e+01
1.840000e-06	8.327854e-09	-1.207246e-10	5.789398e-02	-1.250758e+01
1.850000e-06	5.506998e-08	-1.124250e-10	3.828381e-01	-1.159746e+01
1.860000e-06	1.018351e-07	-1.047834e-10	7.079422e-01	-1.067453e+01
1.870000e-06	1.486384e-07	-9.456848e-11	1.033312e+00	-9.739069e+00
1.880000e-06	1.955604e-07	-8.226057e-11	1.359506e+00	-8.791410e+00
1.890000e-06	2.424786e-07	-6.561590e-11	1.685675e+00	-7.831913e+00
1.900000e-06	2.892732e-07	-4.849022e-11	2.010983e+00	-6.860983e+00
1.910000e-06	3.360879e-07	-3.167169e-11	2.336432e+00	-5.879066e+00
1.920000e-06	3.829112e-07	-1.853619e-11	2.661941e+00	-4.886652e+00
1.930000e-06	4.296543e-07	-8.416290e-12	2.986892e+00	-3.884269e+00
1.940000e-06	4.763671e-07	-2.447550e-13	3.311632e+00	-2.872487e+00
1.950000e-06	5.230364e-07	9.991858e-12	3.636070e+00	-1.851915e+00
1.960000e-06	5.696573e-07	2.368509e-11	3.960171e+00	-8.232027e-01
1.970000e-06	6.162612e-07	4.091842e-11	4.284155e+00	2.129658e-01
1.980000e-06	6.628097e-07	5.855084e-11	4.607753e+00	1.255869e+00
1.990000e-06	7.092884e-07	7.615411e-11	4.930866e+00	2.304753e+00
2.000000e-06	7.556230e-07	9.151871e-11	5.252977e+00	3.358831e+00
2.010000e-06	8.018385e-07	1.056715e-10	5.574260e+00	4.417288e+00
2.020000e-06	8.480782e-07	1.184554e-10	5.895711e+00	5.479283e+00
2.030000e-06	8.943112e-07	1.312240e-10	6.217116e+00	6.543950e+00
2.040000e-06	9.404797e-07	1.429897e-10	6.538072e+00	7.610405e+00
2.050000e-06	9.865130e-07	1.543431e-10	6.858089e+00	8.677745e+00
2.060000e-06	1.032421e-06	1.694258e-10	7.177233e+00	9.745054e+00
2.070000e-06	1.078267e-06	1.878847e-10	7.495951e+00	1.081141e+01
2.080000e-06	1.123991e-06	2.049790e-10	7.813818e+00	1.187587e+01
2.090000e-06	1.169676e-06	2.195881e-10	8.131414e+00	1.293751e+01
2.100000e-06	1.215365e-06	2.338097e-10	8.449033e+00	1.399539e+01
2.110000e-06	1.260923e-06	2.483003e-10	8.765744e+00	1.504859e+01
2.120000e-06	1.306448e-06	2.616898e-10	9.082231e+00	1.609619e+01
2.130000e-06	1.351949e-06	2.748428e-10	9.398544e+00	1.713728e+01
2.140000e-06	1.397353e-06	2.879604e-10	9.714186e+00	1.817097e+01
2.150000e-06	1.442707e-06	2.995067e-10	1.002948e+01	1.919641e+01
2.160000e-06	1.487939e-06	3.127289e-10	1.034393e+01	2.021274e+01
2.170000e-06	1.532971e-06	3.273776e-10	1.065698e+01	2.121916e+01
2.180000e-06	1.577872e-06	3.401073e-10	1.096913e+01	2.221489e+01
2.190000e-06	1.622635e-06	3.520390e-10	1.128031e+01	2.319917e+01
2.200000e-06	1.667223e-06	3.655650e-10	1.159028e+01	2.417130e+01
2.210000e-06	1.711691e-06	3.799462e-10	1.189942e+01	2.513062e+01
2.220000e-06	1.756012e-06	3.945459e-10	1.220753e+01	2.607649e+01
2.230000e-06	1.800193e-06	4.073955e-10	1.251467e+01	2.700835e+01
2.240000e-06	1.844274e-06	4.188008e-10	1.282111e+01	2.792566e+01
2.250000e-06	1.888243e-06	4.292205e-10	1.312678e+01	2.882794e+01
2.260000e-06	1.932106e-06	4.393150e-10	1.343171e+01	2.971476e+01
2.270000e-06	1.975895e-06	4.484285e-10	1.373612e+01	3.058575e+01
2.280000e-06	2.019609e-06	4.589834e-10	1.404001e+01	3.144056e+01
2.290000e-06	2.063256e-06	4.702472e-10	1.434344e+01	3.227893e+01
2.300000e-06	2.106867e-06	4.820151e-10	1.464662e+01	3.310064e+01
2.310000e-06	2.150429e-06	4.934741e-10	1.494945e+01	3.390552e+01
2.320000e-06	2.193924e-06	5.041604e-10	1.525183e+01	3.469343e+01
2.330000e-06	2.237382e-06	5.127384e-10	1.555394e+01	3.546432e+01
2.340000e-06	2.280750e-06	5.195815e-10	1.585543e+01	3.621817e+01
2.350000e-06	2.323839e-06	5.263513e-10	1.615497e+01	3.695499e+01
2.360000e-06	2.366616e-06	5.353854e-10	1.645236e+01	3.767486e+01
2.370000e-06	2.409195e-06	5.451243e-10	1.674836e+01	3.837788e+01
2.380000e-06	2.451565e-06	5.551316e-10	1.704291e+01	3.906422e+01
2.390000e-06	2.493577e-06	5.665049e-10	1.733497e+01	3.973406e+01
2.400000e-06	2.535230e-06	5.775193e-10	1.762453e+01	4.038762e+01
2.410000e-06	2.576565e-06	5.890585e-10	1.791189e+01	4.102517e+01
2.420000e-06	2.617505e-06	6.009511e-10	1.819650e+01	4.164697e+01
2.430000e-06	2.658126e-06	6.110704e-10	1.847889e+01	4.225334e+01
2.440000e-06	2.698522e-06	6.190051e-10	1.875972e+01	4.284461e+01
2.450000e-06	2.738645e-06	6.264175e-10	1.903864e+01	4.342112e+01
2.460000e-06	2.778597e-06	6.320550e-10	1.931638e+01	4.398323e+01
2.470000e-06	2.818465e-06	6.371573e-10	1.959354e+01	4.453132e+01
2.480000e-06	2.858190e-06	6.443063e-10	1.986970e+01	4.506576e+01
2.490000e-06	2.897800e-06	6.536384e-10	2.014507e+01	4.558693e+01
2.500000e-06	2.937297e-06	6.630652e-10	2.041965e+01	4.609521e+01
2.510000e-06	2.976708e-06	6.718063e-10	2.069362e+01	4.659099e+01
2.520000e-06	3.015962e-06	6.785880e-10	2.096651e+01	4.707465e+01
2.530000e-06	3.055004e-06	6.830415e-10	2.123792e+01	4.754653e+01
2.540000e-06	3.093788e-06	6.850309e-10	2.150755e+01	4.800701e+01
2.550000e-06	3.132267e-06	6.883916e-10	2.177505e+01	4.845643e+01
2.560000e-06	3.170538e-06	6.959575e-10	2.204110e+01	4.889511e+01
2.570000e-06	3.208614e-06	7.050050e-10	2.230580e+01	4.932337e+01
2.580000e-06	3.246461e-06	7.131866e-10	2.256890e+01	4.974149e+01
2.590000e-06	3.284155e-06	7.193694e-10	2.283095e+01	5.014975e+01
2.600000e-06	3.321684e-06	7.237962e-10	2.309185e+01	5.054841e+01
2.610000e-06	3.358913e-06	7.293067e-10	2.335065e+01	5.093769e+01
2.620000e-06	3.395944e-06	7.347474e-10	2.360809e+01	5.131781e+01
2.630000e-06	3.432746e-06	7.385890e-10	2.386393e+01	5.168894e+01
2.640000e-06	3.469243e-06	7.415425e-10	2.411765e+01	5.205126e+01
2.650000e-06	3.505499e-06	7.456077e-10	2.436970e+01	5.240491e+01
2.660000e-06	3.541490e-06	7.504922e-10	2.461990e+01	5.275002e+01
2.670000e-06	3.577246e-06	7.546275e-10	2.486847e+01	5.308669e+01
2.680000e-06	3.612886e-06	7.582674e-10	2.511624e+01	5.341500e+01
2.690000e-06	3.648450e-06	7.622043e-10	2.536347e+01	5.373503e+01
2.700000e-06	3.683876e-06	7.676490e-10	2.560975e+01	5.404682e+01
2.710000e-06	3.719111e-06	7.740779e-10	2.585470e+01	5.435042e+01
2.720000e-06	3.754110e-06	7.830020e-10	2.609801e+01	5.464585e+01
2.730000e-06	3.788792e-06	7.922571e-10	2.633911e+01	5.493314e+01
2.740000e-06	3.822999e-06	7.975376e-10	2.657691e+01	5.521228e+01
2.750000e-06	3.856667e-06	7.999295e-10	2.681097e+01	5.548329e+01
2.760000e-06	3.889884e-06	8.009230e-10	2.704188e+01	5.574616e+01
2.770000e-06	3.922711e-06	8.018343e-10	2.727010e+01	5.600089e+01
2.780000e-06	3.955131e-06	8.046108e-10	2.749547e+01	5.624749e+01
2.790000e-06	3.987201e-06	8.088201e-10	2.771842e+01	5.648595e+01
2.800000e-06	4.019028e-06	8.148174e-10	2.793967e+01	5.671628e+01
2.810000e-06	4.050712e-06	8.202392e-10	2.815993e+01	5.693849e+01
2.820000e-06	4.082272e-06	8.251753e-10	2.837934e+01	5.715260e+01
2.830000e-06	4.113702e-06	8.283114e-10	2.859784e+01	5.735866e+01
2.840000e-06	4.144916e-06	8.287581e-10	2.881483e+01	5.755669e+01
2.850000e-06	4.175750e-06	8.311386e-10	2.902918e+01	5.774677e+01
2.860000e-06	4.206250e-06	8.342977e-10	2.924121e+01	5.792896e+01
2.870000e-06	4.236451e-06	8.345221e-10	2.945117e+01	5.810334e+01
2.880000e-06	4.266388e-06	8.356066e-10	2.965928e+01	5.827003e+01
2.890000e-06	4.296025e-06	8.395279e-10	2.986531e+01	5.842914e+01
2.900000e-06	4.325381e-06	8.454902e-10	3.006939e+01	5.858080e+01
