# Temperatura_=_-0.3
# Concentracion g/m^3_=_1620.0
# C_Vs_to_Am_M_A/Vsm_=_65563218390.804596
# pendiente_HvsI_1/m_=_3716.3
# ordenada_HvsI_A/m_=_1297.0
# frecuencia_Hz_=_135107.9933540534

Tiempo_(s)	Campo_(V.s)	Magnetizacion_(V.s)	Campo_(kA/m)	Magnetizacion_(A/m)
0.000000e+00	-5.514631e-06	-1.118754e-09	-3.836299e+01	-7.230975e+01
1.000000e-08	-5.514845e-06	-1.121148e-09	-3.836448e+01	-7.231973e+01
2.000000e-08	-5.514791e-06	-1.124196e-09	-3.836411e+01	-7.232928e+01
3.000000e-08	-5.514367e-06	-1.127521e-09	-3.836115e+01	-7.233826e+01
4.000000e-08	-5.513446e-06	-1.126945e-09	-3.835474e+01	-7.234653e+01
5.000000e-08	-5.511847e-06	-1.123164e-09	-3.834362e+01	-7.235393e+01
6.000000e-08	-5.509643e-06	-1.112289e-09	-3.832829e+01	-7.236029e+01
7.000000e-08	-5.506988e-06	-1.102526e-09	-3.830982e+01	-7.236544e+01
8.000000e-08	-5.503852e-06	-1.115860e-09	-3.828801e+01	-7.236919e+01
9.000000e-08	-5.500276e-06	-1.145277e-09	-3.826313e+01	-7.237135e+01
1.000000e-07	-5.496273e-06	-1.150333e-09	-3.823528e+01	-7.237175e+01
1.100000e-07	-5.491868e-06	-1.128648e-09	-3.820464e+01	-7.237019e+01
1.200000e-07	-5.487258e-06	-1.099639e-09	-3.817257e+01	-7.236648e+01
1.300000e-07	-5.482446e-06	-1.104372e-09	-3.813909e+01	-7.236046e+01
1.400000e-07	-5.477254e-06	-1.115178e-09	-3.810297e+01	-7.235194e+01
1.500000e-07	-5.471646e-06	-1.086403e-09	-3.806396e+01	-7.234077e+01
1.600000e-07	-5.465694e-06	-1.089043e-09	-3.802256e+01	-7.232678e+01
1.700000e-07	-5.459441e-06	-1.123268e-09	-3.797906e+01	-7.230983e+01
1.800000e-07	-5.452748e-06	-1.164024e-09	-3.793249e+01	-7.228980e+01
1.900000e-07	-5.445583e-06	-1.123920e-09	-3.788265e+01	-7.226656e+01
2.000000e-07	-5.438144e-06	-1.102400e-09	-3.783090e+01	-7.224002e+01
2.100000e-07	-5.430495e-06	-1.134149e-09	-3.777769e+01	-7.221009e+01
2.200000e-07	-5.422532e-06	-1.174831e-09	-3.772229e+01	-7.217669e+01
2.300000e-07	-5.414244e-06	-1.155409e-09	-3.766464e+01	-7.213978e+01
2.400000e-07	-5.405544e-06	-1.132873e-09	-3.760412e+01	-7.209931e+01
2.500000e-07	-5.396217e-06	-1.142279e-09	-3.753923e+01	-7.205526e+01
2.600000e-07	-5.386211e-06	-1.142058e-09	-3.746963e+01	-7.200764e+01
2.700000e-07	-5.375599e-06	-1.120570e-09	-3.739580e+01	-7.195643e+01
2.800000e-07	-5.364502e-06	-1.108323e-09	-3.731861e+01	-7.190168e+01
2.900000e-07	-5.352970e-06	-1.130014e-09	-3.723838e+01	-7.184341e+01
3.000000e-07	-5.341021e-06	-1.137077e-09	-3.715525e+01	-7.178167e+01
3.100000e-07	-5.328701e-06	-1.126049e-09	-3.706955e+01	-7.171652e+01
3.200000e-07	-5.315930e-06	-1.112172e-09	-3.698071e+01	-7.164803e+01
3.300000e-07	-5.302708e-06	-1.123749e-09	-3.688873e+01	-7.157628e+01
3.400000e-07	-5.289221e-06	-1.110507e-09	-3.679491e+01	-7.150135e+01
3.500000e-07	-5.275396e-06	-1.094559e-09	-3.669873e+01	-7.142332e+01
3.600000e-07	-5.260950e-06	-1.089058e-09	-3.659824e+01	-7.134229e+01
3.700000e-07	-5.246012e-06	-1.112705e-09	-3.649432e+01	-7.125834e+01
3.800000e-07	-5.230781e-06	-1.113612e-09	-3.638836e+01	-7.117157e+01
3.900000e-07	-5.215062e-06	-1.108892e-09	-3.627901e+01	-7.108206e+01
4.000000e-07	-5.198756e-06	-1.098622e-09	-3.616558e+01	-7.098991e+01
4.100000e-07	-5.182103e-06	-1.101902e-09	-3.604973e+01	-7.089518e+01
4.200000e-07	-5.165177e-06	-1.093066e-09	-3.593199e+01	-7.079795e+01
4.300000e-07	-5.147957e-06	-1.090637e-09	-3.581219e+01	-7.069829e+01
4.400000e-07	-5.130418e-06	-1.096659e-09	-3.569018e+01	-7.059625e+01
4.500000e-07	-5.112442e-06	-1.103241e-09	-3.556513e+01	-7.049189e+01
4.600000e-07	-5.093978e-06	-1.089294e-09	-3.543668e+01	-7.038522e+01
4.700000e-07	-5.075054e-06	-1.076643e-09	-3.530504e+01	-7.027629e+01
4.800000e-07	-5.055832e-06	-1.082975e-09	-3.517131e+01	-7.016510e+01
4.900000e-07	-5.036423e-06	-1.086690e-09	-3.503630e+01	-7.005166e+01
5.000000e-07	-5.016801e-06	-1.076574e-09	-3.489979e+01	-6.993596e+01
5.100000e-07	-4.996934e-06	-1.071478e-09	-3.476159e+01	-6.981797e+01
5.200000e-07	-4.976749e-06	-1.075842e-09	-3.462117e+01	-6.969768e+01
5.300000e-07	-4.956139e-06	-1.072264e-09	-3.447780e+01	-6.957503e+01
5.400000e-07	-4.935170e-06	-1.070509e-09	-3.433192e+01	-6.944998e+01
5.500000e-07	-4.913863e-06	-1.068589e-09	-3.418369e+01	-6.932248e+01
5.600000e-07	-4.892238e-06	-1.059621e-09	-3.403326e+01	-6.919245e+01
5.700000e-07	-4.870309e-06	-1.050577e-09	-3.388071e+01	-6.905983e+01
5.800000e-07	-4.848014e-06	-1.060348e-09	-3.372562e+01	-6.892455e+01
5.900000e-07	-4.825367e-06	-1.058619e-09	-3.356807e+01	-6.878654e+01
6.000000e-07	-4.802413e-06	-1.046173e-09	-3.340838e+01	-6.864570e+01
6.100000e-07	-4.779208e-06	-1.041977e-09	-3.324696e+01	-6.850198e+01
6.200000e-07	-4.755768e-06	-1.045049e-09	-3.308389e+01	-6.835530e+01
6.300000e-07	-4.732104e-06	-1.031710e-09	-3.291928e+01	-6.820559e+01
6.400000e-07	-4.708162e-06	-1.028513e-09	-3.275272e+01	-6.805278e+01
6.500000e-07	-4.683836e-06	-1.036194e-09	-3.258349e+01	-6.789682e+01
6.600000e-07	-4.658990e-06	-1.036641e-09	-3.241065e+01	-6.773766e+01
6.700000e-07	-4.633682e-06	-1.025610e-09	-3.223459e+01	-6.757528e+01
6.800000e-07	-4.607880e-06	-1.024011e-09	-3.205510e+01	-6.740963e+01
6.900000e-07	-4.581398e-06	-1.019317e-09	-3.187088e+01	-6.724071e+01
7.000000e-07	-4.554402e-06	-1.011990e-09	-3.168307e+01	-6.706851e+01
7.100000e-07	-4.527115e-06	-1.009755e-09	-3.149325e+01	-6.689306e+01
7.200000e-07	-4.499616e-06	-1.012612e-09	-3.130195e+01	-6.671437e+01
7.300000e-07	-4.471945e-06	-1.008364e-09	-3.110945e+01	-6.653250e+01
7.400000e-07	-4.444134e-06	-1.006460e-09	-3.091599e+01	-6.634749e+01
7.500000e-07	-4.416163e-06	-1.005657e-09	-3.072141e+01	-6.615942e+01
7.600000e-07	-4.387945e-06	-9.996063e-10	-3.052510e+01	-6.596837e+01
7.700000e-07	-4.359378e-06	-9.909016e-10	-3.032638e+01	-6.577444e+01
7.800000e-07	-4.330439e-06	-9.877122e-10	-3.012506e+01	-6.557775e+01
7.900000e-07	-4.301144e-06	-9.850851e-10	-2.992127e+01	-6.537841e+01
8.000000e-07	-4.271619e-06	-9.806120e-10	-2.971587e+01	-6.517654e+01
8.100000e-07	-4.241855e-06	-9.802760e-10	-2.950881e+01	-6.497230e+01
8.200000e-07	-4.211731e-06	-9.823542e-10	-2.929926e+01	-6.476583e+01
8.300000e-07	-4.181208e-06	-9.821031e-10	-2.908692e+01	-6.455727e+01
8.400000e-07	-4.150419e-06	-9.788418e-10	-2.887274e+01	-6.434677e+01
8.500000e-07	-4.119407e-06	-9.763132e-10	-2.865700e+01	-6.413449e+01
8.600000e-07	-4.088159e-06	-9.698841e-10	-2.843962e+01	-6.392058e+01
8.700000e-07	-4.056799e-06	-9.643183e-10	-2.822146e+01	-6.370517e+01
8.800000e-07	-4.025252e-06	-9.603933e-10	-2.800200e+01	-6.348841e+01
8.900000e-07	-3.993503e-06	-9.579907e-10	-2.778114e+01	-6.327041e+01
9.000000e-07	-3.961564e-06	-9.511260e-10	-2.755895e+01	-6.305131e+01
9.100000e-07	-3.929351e-06	-9.475721e-10	-2.733486e+01	-6.283119e+01
9.200000e-07	-3.896773e-06	-9.474742e-10	-2.710823e+01	-6.261014e+01
9.300000e-07	-3.863734e-06	-9.485919e-10	-2.687839e+01	-6.238823e+01
9.400000e-07	-3.830145e-06	-9.474887e-10	-2.664472e+01	-6.216549e+01
9.500000e-07	-3.796058e-06	-9.450924e-10	-2.640759e+01	-6.194197e+01
9.600000e-07	-3.761535e-06	-9.370672e-10	-2.616743e+01	-6.171764e+01
9.700000e-07	-3.726586e-06	-9.299855e-10	-2.592431e+01	-6.149250e+01
9.800000e-07	-3.691351e-06	-9.262243e-10	-2.567919e+01	-6.126647e+01
9.900000e-07	-3.655923e-06	-9.258092e-10	-2.543273e+01	-6.103950e+01
1.000000e-06	-3.620313e-06	-9.250589e-10	-2.518501e+01	-6.081146e+01
1.010000e-06	-3.584602e-06	-9.241388e-10	-2.493658e+01	-6.058223e+01
1.020000e-06	-3.548755e-06	-9.216630e-10	-2.468721e+01	-6.035165e+01
1.030000e-06	-3.512669e-06	-9.176768e-10	-2.443617e+01	-6.011952e+01
1.040000e-06	-3.476358e-06	-9.113935e-10	-2.418357e+01	-5.988564e+01
1.050000e-06	-3.439867e-06	-9.043243e-10	-2.392972e+01	-5.964976e+01
1.060000e-06	-3.403220e-06	-8.954874e-10	-2.367478e+01	-5.941161e+01
1.070000e-06	-3.366299e-06	-8.898243e-10	-2.341794e+01	-5.917093e+01
1.080000e-06	-3.329050e-06	-8.881549e-10	-2.315881e+01	-5.892739e+01
1.090000e-06	-3.291554e-06	-8.853540e-10	-2.289797e+01	-5.868068e+01
1.100000e-06	-3.253779e-06	-8.797759e-10	-2.263518e+01	-5.843045e+01
1.110000e-06	-3.215767e-06	-8.711888e-10	-2.237075e+01	-5.817636e+01
1.120000e-06	-3.177635e-06	-8.619560e-10	-2.210548e+01	-5.791804e+01
1.130000e-06	-3.139315e-06	-8.529409e-10	-2.183891e+01	-5.765513e+01
1.140000e-06	-3.100737e-06	-8.469934e-10	-2.157053e+01	-5.738725e+01
1.150000e-06	-3.061926e-06	-8.429831e-10	-2.130054e+01	-5.711402e+01
1.160000e-06	-3.022900e-06	-8.399333e-10	-2.102905e+01	-5.683508e+01
1.170000e-06	-2.983693e-06	-8.368911e-10	-2.075631e+01	-5.655005e+01
1.180000e-06	-2.944350e-06	-8.335589e-10	-2.048261e+01	-5.625858e+01
1.190000e-06	-2.904906e-06	-8.284384e-10	-2.020822e+01	-5.596033e+01
1.200000e-06	-2.865334e-06	-8.228186e-10	-1.993294e+01	-5.565495e+01
1.210000e-06	-2.825563e-06	-8.167011e-10	-1.965626e+01	-5.534213e+01
1.220000e-06	-2.785654e-06	-8.110836e-10	-1.937863e+01	-5.502158e+01
1.230000e-06	-2.745640e-06	-8.040997e-10	-1.910027e+01	-5.469302e+01
1.240000e-06	-2.705402e-06	-7.985989e-10	-1.882036e+01	-5.435619e+01
1.250000e-06	-2.664998e-06	-7.925470e-10	-1.853928e+01	-5.401089e+01
1.260000e-06	-2.624399e-06	-7.873379e-10	-1.825685e+01	-5.365689e+01
1.270000e-06	-2.583466e-06	-7.829571e-10	-1.797210e+01	-5.329404e+01
1.280000e-06	-2.542122e-06	-7.787870e-10	-1.768449e+01	-5.292219e+01
1.290000e-06	-2.500498e-06	-7.719664e-10	-1.739492e+01	-5.254123e+01
1.300000e-06	-2.458674e-06	-7.635188e-10	-1.710397e+01	-5.215106e+01
1.310000e-06	-2.416608e-06	-7.564101e-10	-1.681133e+01	-5.175165e+01
1.320000e-06	-2.374225e-06	-7.503060e-10	-1.651650e+01	-5.134294e+01
1.330000e-06	-2.331437e-06	-7.458382e-10	-1.621883e+01	-5.092495e+01
1.340000e-06	-2.288356e-06	-7.437817e-10	-1.591914e+01	-5.049769e+01
1.350000e-06	-2.245086e-06	-7.423364e-10	-1.561813e+01	-5.006120e+01
1.360000e-06	-2.201674e-06	-7.374640e-10	-1.531613e+01	-4.961554e+01
1.370000e-06	-2.158176e-06	-7.289403e-10	-1.501353e+01	-4.916079e+01
1.380000e-06	-2.114654e-06	-7.212909e-10	-1.471077e+01	-4.869705e+01
1.390000e-06	-2.071055e-06	-7.143946e-10	-1.440747e+01	-4.822442e+01
1.400000e-06	-2.027336e-06	-7.060319e-10	-1.410333e+01	-4.774301e+01
1.410000e-06	-1.983547e-06	-6.978547e-10	-1.379871e+01	-4.725293e+01
1.420000e-06	-1.939718e-06	-6.909117e-10	-1.349381e+01	-4.675429e+01
1.430000e-06	-1.895817e-06	-6.851341e-10	-1.318841e+01	-4.624720e+01
1.440000e-06	-1.851774e-06	-6.805207e-10	-1.288202e+01	-4.573177e+01
1.450000e-06	-1.807625e-06	-6.754026e-10	-1.257489e+01	-4.520808e+01
1.460000e-06	-1.763377e-06	-6.644922e-10	-1.226708e+01	-4.467620e+01
1.470000e-06	-1.719004e-06	-6.505312e-10	-1.195839e+01	-4.413618e+01
1.480000e-06	-1.674544e-06	-6.378579e-10	-1.164911e+01	-4.358805e+01
1.490000e-06	-1.629927e-06	-6.274353e-10	-1.133872e+01	-4.303181e+01
1.500000e-06	-1.585082e-06	-6.188444e-10	-1.102676e+01	-4.246743e+01
1.510000e-06	-1.540122e-06	-6.120509e-10	-1.071399e+01	-4.189485e+01
1.520000e-06	-1.495104e-06	-6.037670e-10	-1.040081e+01	-4.131396e+01
1.530000e-06	-1.449943e-06	-5.909159e-10	-1.008665e+01	-4.072463e+01
1.540000e-06	-1.404623e-06	-5.758728e-10	-9.771373e+00	-4.012668e+01
1.550000e-06	-1.359233e-06	-5.635470e-10	-9.455620e+00	-3.951989e+01
1.560000e-06	-1.313758e-06	-5.526868e-10	-9.139264e+00	-3.890401e+01
1.570000e-06	-1.268198e-06	-5.422239e-10	-8.822327e+00	-3.827872e+01
1.580000e-06	-1.222590e-06	-5.343759e-10	-8.505049e+00	-3.764370e+01
1.590000e-06	-1.176873e-06	-5.267174e-10	-8.187012e+00	-3.699856e+01
1.600000e-06	-1.131086e-06	-5.157910e-10	-7.868491e+00	-3.634288e+01
1.610000e-06	-1.085255e-06	-5.044826e-10	-7.549664e+00	-3.567620e+01
1.620000e-06	-1.039334e-06	-4.940128e-10	-7.230213e+00	-3.499802e+01
1.630000e-06	-9.932845e-07	-4.826037e-10	-6.909866e+00	-3.430784e+01
1.640000e-06	-9.471749e-07	-4.691629e-10	-6.589101e+00	-3.360509e+01
1.650000e-06	-9.010398e-07	-4.553296e-10	-6.268159e+00	-3.288920e+01
1.660000e-06	-8.548536e-07	-4.417922e-10	-5.946860e+00	-3.215959e+01
1.670000e-06	-8.085363e-07	-4.290484e-10	-5.624650e+00	-3.141565e+01
1.680000e-06	-7.620972e-07	-4.188314e-10	-5.301593e+00	-3.065677e+01
1.690000e-06	-7.156651e-07	-4.101702e-10	-4.978584e+00	-2.988233e+01
1.700000e-06	-6.692126e-07	-4.001331e-10	-4.655433e+00	-2.909174e+01
1.710000e-06	-6.227930e-07	-3.869656e-10	-4.332511e+00	-2.828439e+01
1.720000e-06	-5.763546e-07	-3.736534e-10	-4.009459e+00	-2.745971e+01
1.730000e-06	-5.297693e-07	-3.605652e-10	-3.685384e+00	-2.661714e+01
1.740000e-06	-4.831749e-07	-3.473634e-10	-3.361247e+00	-2.575615e+01
1.750000e-06	-4.365949e-07	-3.330877e-10	-3.037209e+00	-2.487627e+01
1.760000e-06	-3.900128e-07	-3.200653e-10	-2.713156e+00	-2.397705e+01
1.770000e-06	-3.433990e-07	-3.079198e-10	-2.388884e+00	-2.305811e+01
1.780000e-06	-2.966694e-07	-2.964111e-10	-2.063806e+00	-2.211911e+01
1.790000e-06	-2.499443e-07	-2.838219e-10	-1.738758e+00	-2.115980e+01
1.800000e-06	-2.032105e-07	-2.687777e-10	-1.413651e+00	-2.017996e+01
1.810000e-06	-1.564203e-07	-2.521593e-10	-1.088151e+00	-1.917948e+01
1.820000e-06	-1.096032e-07	-2.358347e-10	-7.624640e-01	-1.815831e+01
1.830000e-06	-6.281434e-08	-2.209148e-10	-4.369732e-01	-1.711650e+01
1.840000e-06	-1.599839e-08	-2.068358e-10	-1.112942e-01	-1.605418e+01
1.850000e-06	3.085554e-08	-1.923017e-10	2.146491e-01	-1.497157e+01
1.860000e-06	7.767220e-08	-1.781692e-10	5.403331e-01	-1.386897e+01
1.870000e-06	1.244639e-07	-1.637375e-10	8.658437e-01	-1.274681e+01
1.880000e-06	1.710937e-07	-1.482098e-10	1.190227e+00	-1.160557e+01
1.890000e-06	2.176613e-07	-1.311030e-10	1.514179e+00	-1.044587e+01
1.900000e-06	2.643077e-07	-1.125145e-10	1.838678e+00	-9.268403e+00
1.910000e-06	3.109800e-07	-9.677207e-11	2.163358e+00	-8.073955e+00
1.920000e-06	3.576704e-07	-8.173115e-11	2.488164e+00	-6.863411e+00
1.930000e-06	4.042879e-07	-6.517999e-11	2.812462e+00	-5.637744e+00
1.940000e-06	4.507601e-07	-4.863032e-11	3.135750e+00	-4.398013e+00
1.950000e-06	4.972081e-07	-3.491874e-11	3.458869e+00	-3.145359e+00
1.960000e-06	5.438051e-07	-2.116389e-11	3.783026e+00	-1.880998e+00
1.970000e-06	5.903834e-07	-6.234621e-12	4.107051e+00	-6.062186e-01
1.980000e-06	6.368666e-07	1.069767e-11	4.430415e+00	6.776267e-01
1.990000e-06	6.833246e-07	2.980665e-11	4.753604e+00	1.969127e+00
2.000000e-06	7.296844e-07	5.097751e-11	5.076110e+00	3.266823e+00
2.010000e-06	7.760052e-07	7.240508e-11	5.398345e+00	4.569210e+00
2.020000e-06	8.222823e-07	9.123535e-11	5.720275e+00	5.874750e+00
2.030000e-06	8.684503e-07	1.075816e-10	6.041446e+00	7.181880e+00
2.040000e-06	9.144752e-07	1.234681e-10	6.361623e+00	8.489019e+00
2.050000e-06	9.604116e-07	1.404529e-10	6.681183e+00	9.794578e+00
2.060000e-06	1.006391e-06	1.593054e-10	7.001043e+00	1.109697e+01
2.070000e-06	1.052373e-06	1.798511e-10	7.320920e+00	1.239462e+01
2.080000e-06	1.098205e-06	2.011638e-10	7.639752e+00	1.368596e+01
2.090000e-06	1.143932e-06	2.216448e-10	7.957860e+00	1.496947e+01
2.100000e-06	1.189595e-06	2.396812e-10	8.275516e+00	1.624365e+01
2.110000e-06	1.235200e-06	2.545943e-10	8.592770e+00	1.750705e+01
2.120000e-06	1.280761e-06	2.693127e-10	8.909720e+00	1.875827e+01
2.130000e-06	1.326218e-06	2.855412e-10	9.225944e+00	1.999598e+01
2.140000e-06	1.371537e-06	3.019010e-10	9.541213e+00	2.121890e+01
2.150000e-06	1.416720e-06	3.190110e-10	9.855528e+00	2.242585e+01
2.160000e-06	1.461892e-06	3.370965e-10	1.016977e+01	2.361571e+01
2.170000e-06	1.507040e-06	3.537315e-10	1.048385e+01	2.478743e+01
2.180000e-06	1.552056e-06	3.688779e-10	1.079701e+01	2.594010e+01
2.190000e-06	1.596886e-06	3.829318e-10	1.110887e+01	2.707285e+01
2.200000e-06	1.641525e-06	3.956156e-10	1.141940e+01	2.818493e+01
2.210000e-06	1.685972e-06	4.091201e-10	1.172861e+01	2.927569e+01
2.220000e-06	1.730290e-06	4.248539e-10	1.203691e+01	3.034458e+01
2.230000e-06	1.774521e-06	4.405451e-10	1.234461e+01	3.139115e+01
2.240000e-06	1.818668e-06	4.531010e-10	1.265171e+01	3.241503e+01
2.250000e-06	1.862762e-06	4.646111e-10	1.295846e+01	3.341599e+01
2.260000e-06	1.906739e-06	4.757472e-10	1.326439e+01	3.439387e+01
2.270000e-06	1.950576e-06	4.875156e-10	1.356935e+01	3.534860e+01
2.280000e-06	1.994325e-06	5.006657e-10	1.387368e+01	3.628022e+01
2.290000e-06	2.038025e-06	5.144697e-10	1.417769e+01	3.718885e+01
2.300000e-06	2.081673e-06	5.282060e-10	1.448133e+01	3.807470e+01
2.310000e-06	2.125249e-06	5.420926e-10	1.478447e+01	3.893806e+01
2.320000e-06	2.168723e-06	5.558439e-10	1.508690e+01	3.977928e+01
2.330000e-06	2.212117e-06	5.673235e-10	1.538878e+01	4.059880e+01
2.340000e-06	2.255352e-06	5.769546e-10	1.568955e+01	4.139709e+01
2.350000e-06	2.298416e-06	5.875226e-10	1.598912e+01	4.217471e+01
2.360000e-06	2.341344e-06	5.979003e-10	1.628775e+01	4.293224e+01
2.370000e-06	2.383973e-06	6.087933e-10	1.658430e+01	4.367031e+01
2.380000e-06	2.426326e-06	6.209856e-10	1.687894e+01	4.438959e+01
2.390000e-06	2.468435e-06	6.325207e-10	1.717187e+01	4.509078e+01
2.400000e-06	2.510206e-06	6.430721e-10	1.746245e+01	4.577458e+01
2.410000e-06	2.551570e-06	6.541712e-10	1.775021e+01	4.644170e+01
2.420000e-06	2.592599e-06	6.659499e-10	1.803563e+01	4.709289e+01
2.430000e-06	2.633407e-06	6.764042e-10	1.831951e+01	4.772885e+01
2.440000e-06	2.674014e-06	6.858183e-10	1.860200e+01	4.835031e+01
2.450000e-06	2.714377e-06	6.961463e-10	1.888279e+01	4.895797e+01
2.460000e-06	2.754521e-06	7.054758e-10	1.916206e+01	4.955249e+01
2.470000e-06	2.794564e-06	7.134626e-10	1.944062e+01	5.013455e+01
2.480000e-06	2.834478e-06	7.216300e-10	1.971828e+01	5.070475e+01
2.490000e-06	2.874229e-06	7.291370e-10	1.999482e+01	5.126369e+01
2.500000e-06	2.913852e-06	7.375871e-10	2.027046e+01	5.181190e+01
2.510000e-06	2.953347e-06	7.473048e-10	2.054521e+01	5.234991e+01
2.520000e-06	2.992668e-06	7.564986e-10	2.081875e+01	5.287817e+01
2.530000e-06	3.031751e-06	7.639455e-10	2.109063e+01	5.339709e+01
2.540000e-06	3.070561e-06	7.692707e-10	2.136061e+01	5.390704e+01
2.550000e-06	3.109171e-06	7.739356e-10	2.162921e+01	5.440834e+01
2.560000e-06	3.147605e-06	7.800458e-10	2.189657e+01	5.490126e+01
2.570000e-06	3.185753e-06	7.875706e-10	2.216195e+01	5.538602e+01
2.580000e-06	3.223728e-06	7.953636e-10	2.242613e+01	5.586279e+01
2.590000e-06	3.261567e-06	8.030038e-10	2.268936e+01	5.633170e+01
2.600000e-06	3.299216e-06	8.107583e-10	2.295127e+01	5.679283e+01
2.610000e-06	3.336651e-06	8.175767e-10	2.321169e+01	5.724623e+01
2.620000e-06	3.373817e-06	8.237807e-10	2.347024e+01	5.769190e+01
2.630000e-06	3.410729e-06	8.289576e-10	2.372702e+01	5.812981e+01
2.640000e-06	3.447318e-06	8.326376e-10	2.398155e+01	5.855991e+01
2.650000e-06	3.483694e-06	8.373177e-10	2.423460e+01	5.898209e+01
2.660000e-06	3.519928e-06	8.437653e-10	2.448667e+01	5.939625e+01
2.670000e-06	3.555931e-06	8.500501e-10	2.473713e+01	5.980225e+01
2.680000e-06	3.591706e-06	8.558760e-10	2.498600e+01	6.019996e+01
2.690000e-06	3.627348e-06	8.615198e-10	2.523395e+01	6.058921e+01
2.700000e-06	3.662911e-06	8.676147e-10	2.548135e+01	6.096985e+01
2.710000e-06	3.698295e-06	8.746477e-10	2.572750e+01	6.134170e+01
2.720000e-06	3.733338e-06	8.834183e-10	2.597127e+01	6.170462e+01
2.730000e-06	3.767996e-06	8.930440e-10	2.621238e+01	6.205845e+01
2.740000e-06	3.802260e-06	9.001915e-10	2.645074e+01	6.240306e+01
2.750000e-06	3.836118e-06	9.038162e-10	2.668627e+01	6.273830e+01
2.760000e-06	3.869580e-06	9.060738e-10	2.691906e+01	6.306409e+01
2.770000e-06	3.902581e-06	9.094806e-10	2.714863e+01	6.338033e+01
2.780000e-06	3.935104e-06	9.153471e-10	2.737488e+01	6.368696e+01
2.790000e-06	3.967303e-06	9.232613e-10	2.759887e+01	6.398396e+01
2.800000e-06	3.999280e-06	9.308195e-10	2.782132e+01	6.427130e+01
2.810000e-06	4.031097e-06	9.379755e-10	2.804266e+01	6.454902e+01
2.820000e-06	4.062809e-06	9.440773e-10	2.826327e+01	6.481717e+01
2.830000e-06	4.094336e-06	9.468662e-10	2.848259e+01	6.507584e+01
2.840000e-06	4.125606e-06	9.464422e-10	2.870012e+01	6.532515e+01
2.850000e-06	4.156622e-06	9.458366e-10	2.891589e+01	6.556525e+01
2.860000e-06	4.187354e-06	9.481737e-10	2.912967e+01	6.579631e+01
2.870000e-06	4.217792e-06	9.521340e-10	2.934142e+01	6.601856e+01
2.880000e-06	4.247965e-06	9.574107e-10	2.955132e+01	6.623224e+01
2.890000e-06	4.277776e-06	9.648878e-10	2.975870e+01	6.643760e+01
2.900000e-06	4.307245e-06	9.712588e-10	2.996371e+01	6.663494e+01
