# Temperatura_=_-0.3
# Concentracion g/m^3_=_1620.0
# C_Vs_to_Am_M_A/Vsm_=_65563218390.804596
# pendiente_HvsI_1/m_=_3716.3
# ordenada_HvsI_A/m_=_1297.0
# frecuencia_Hz_=_135111.1768091989

Tiempo_(s)	Campo_(V.s)	Magnetizacion_(V.s)	Campo_(kA/m)	Magnetizacion_(A/m)
0.000000e+00	-5.511303e-06	-1.359628e-09	-3.835492e+01	-8.765234e+01
1.000000e-08	-5.511451e-06	-1.364534e-09	-3.835595e+01	-8.767404e+01
2.000000e-08	-5.511297e-06	-1.368840e-09	-3.835488e+01	-8.769328e+01
3.000000e-08	-5.510750e-06	-1.369361e-09	-3.835107e+01	-8.770977e+01
4.000000e-08	-5.509741e-06	-1.362679e-09	-3.834405e+01	-8.772326e+01
5.000000e-08	-5.508164e-06	-1.353468e-09	-3.833307e+01	-8.773346e+01
6.000000e-08	-5.506010e-06	-1.338286e-09	-3.831808e+01	-8.774011e+01
7.000000e-08	-5.503305e-06	-1.330496e-09	-3.829926e+01	-8.774294e+01
8.000000e-08	-5.500048e-06	-1.358809e-09	-3.827659e+01	-8.774170e+01
9.000000e-08	-5.496304e-06	-1.383729e-09	-3.825054e+01	-8.773614e+01
1.000000e-07	-5.492148e-06	-1.339155e-09	-3.822162e+01	-8.772604e+01
1.100000e-07	-5.487753e-06	-1.328659e-09	-3.819103e+01	-8.771117e+01
1.200000e-07	-5.483165e-06	-1.338300e-09	-3.815910e+01	-8.769135e+01
1.300000e-07	-5.478229e-06	-1.345084e-09	-3.812475e+01	-8.766639e+01
1.400000e-07	-5.472954e-06	-1.311075e-09	-3.808804e+01	-8.763614e+01
1.500000e-07	-5.467388e-06	-1.272248e-09	-3.804930e+01	-8.760046e+01
1.600000e-07	-5.461485e-06	-1.320763e-09	-3.800822e+01	-8.755925e+01
1.700000e-07	-5.455078e-06	-1.339188e-09	-3.796364e+01	-8.751242e+01
1.800000e-07	-5.448204e-06	-1.320849e-09	-3.791580e+01	-8.745992e+01
1.900000e-07	-5.441053e-06	-1.311604e-09	-3.786603e+01	-8.740170e+01
2.000000e-07	-5.433602e-06	-1.336696e-09	-3.781418e+01	-8.733777e+01
2.100000e-07	-5.425837e-06	-1.359835e-09	-3.776014e+01	-8.726814e+01
2.200000e-07	-5.417833e-06	-1.327468e-09	-3.770443e+01	-8.719286e+01
2.300000e-07	-5.409525e-06	-1.313862e-09	-3.764662e+01	-8.711200e+01
2.400000e-07	-5.400619e-06	-1.325463e-09	-3.758464e+01	-8.702565e+01
2.500000e-07	-5.391024e-06	-1.340250e-09	-3.751786e+01	-8.693393e+01
2.600000e-07	-5.380813e-06	-1.324145e-09	-3.744680e+01	-8.683698e+01
2.700000e-07	-5.370076e-06	-1.314008e-09	-3.737208e+01	-8.673495e+01
2.800000e-07	-5.358952e-06	-1.318007e-09	-3.729466e+01	-8.662802e+01
2.900000e-07	-5.347459e-06	-1.326816e-09	-3.721468e+01	-8.651637e+01
3.000000e-07	-5.335571e-06	-1.309056e-09	-3.713195e+01	-8.640021e+01
3.100000e-07	-5.323201e-06	-1.287503e-09	-3.704585e+01	-8.627976e+01
3.200000e-07	-5.310346e-06	-1.295817e-09	-3.695639e+01	-8.615523e+01
3.300000e-07	-5.297116e-06	-1.306747e-09	-3.686433e+01	-8.602686e+01
3.400000e-07	-5.283551e-06	-1.293068e-09	-3.676992e+01	-8.589488e+01
3.500000e-07	-5.269582e-06	-1.276772e-09	-3.667271e+01	-8.575952e+01
3.600000e-07	-5.255234e-06	-1.306777e-09	-3.657285e+01	-8.562101e+01
3.700000e-07	-5.240440e-06	-1.300233e-09	-3.646990e+01	-8.547958e+01
3.800000e-07	-5.225036e-06	-1.267178e-09	-3.636270e+01	-8.533544e+01
3.900000e-07	-5.209074e-06	-1.277122e-09	-3.625161e+01	-8.518882e+01
4.000000e-07	-5.192724e-06	-1.300940e-09	-3.613783e+01	-8.503992e+01
4.100000e-07	-5.176007e-06	-1.258138e-09	-3.602149e+01	-8.488891e+01
4.200000e-07	-5.158920e-06	-1.247464e-09	-3.590258e+01	-8.473598e+01
4.300000e-07	-5.141572e-06	-1.302288e-09	-3.578185e+01	-8.458128e+01
4.400000e-07	-5.123893e-06	-1.291389e-09	-3.565881e+01	-8.442495e+01
4.500000e-07	-5.105823e-06	-1.236516e-09	-3.553306e+01	-8.426711e+01
4.600000e-07	-5.087322e-06	-1.272076e-09	-3.540430e+01	-8.410785e+01
4.700000e-07	-5.068395e-06	-1.290101e-09	-3.527258e+01	-8.394727e+01
4.800000e-07	-5.049131e-06	-1.232313e-09	-3.513852e+01	-8.378542e+01
4.900000e-07	-5.029589e-06	-1.238857e-09	-3.500252e+01	-8.362233e+01
5.000000e-07	-5.009879e-06	-1.288403e-09	-3.486535e+01	-8.345803e+01
5.100000e-07	-4.989946e-06	-1.241392e-09	-3.472663e+01	-8.329250e+01
5.200000e-07	-4.969679e-06	-1.219740e-09	-3.458559e+01	-8.312572e+01
5.300000e-07	-4.949074e-06	-1.278866e-09	-3.444219e+01	-8.295765e+01
5.400000e-07	-4.928097e-06	-1.265728e-09	-3.429620e+01	-8.278822e+01
5.500000e-07	-4.906734e-06	-1.215662e-09	-3.414753e+01	-8.261736e+01
5.600000e-07	-4.885094e-06	-1.253444e-09	-3.399693e+01	-8.244497e+01
5.700000e-07	-4.863200e-06	-1.263474e-09	-3.384457e+01	-8.227093e+01
5.800000e-07	-4.840924e-06	-1.210543e-09	-3.368954e+01	-8.209514e+01
5.900000e-07	-4.818146e-06	-1.223592e-09	-3.353102e+01	-8.191745e+01
6.000000e-07	-4.795008e-06	-1.252992e-09	-3.336999e+01	-8.173773e+01
6.100000e-07	-4.771681e-06	-1.216695e-09	-3.320765e+01	-8.155582e+01
6.200000e-07	-4.748142e-06	-1.208903e-09	-3.304384e+01	-8.137158e+01
6.300000e-07	-4.724379e-06	-1.236125e-09	-3.287847e+01	-8.118486e+01
6.400000e-07	-4.700327e-06	-1.214581e-09	-3.271108e+01	-8.099550e+01
6.500000e-07	-4.675841e-06	-1.199541e-09	-3.254068e+01	-8.080334e+01
6.600000e-07	-4.650948e-06	-1.220652e-09	-3.236744e+01	-8.060825e+01
6.700000e-07	-4.625625e-06	-1.210379e-09	-3.219120e+01	-8.041007e+01
6.800000e-07	-4.599727e-06	-1.185810e-09	-3.201097e+01	-8.020868e+01
6.900000e-07	-4.573255e-06	-1.196691e-09	-3.182675e+01	-8.000395e+01
7.000000e-07	-4.546276e-06	-1.193289e-09	-3.163899e+01	-7.979577e+01
7.100000e-07	-4.518959e-06	-1.175617e-09	-3.144888e+01	-7.958403e+01
7.200000e-07	-4.491399e-06	-1.180724e-09	-3.125708e+01	-7.936865e+01
7.300000e-07	-4.463666e-06	-1.184776e-09	-3.106408e+01	-7.914954e+01
7.400000e-07	-4.435783e-06	-1.171465e-09	-3.087003e+01	-7.892666e+01
7.500000e-07	-4.407696e-06	-1.175892e-09	-3.067457e+01	-7.869994e+01
7.600000e-07	-4.379351e-06	-1.178524e-09	-3.047731e+01	-7.846937e+01
7.700000e-07	-4.350671e-06	-1.164179e-09	-3.027771e+01	-7.823493e+01
7.800000e-07	-4.321667e-06	-1.157917e-09	-3.007586e+01	-7.799661e+01
7.900000e-07	-4.292346e-06	-1.160591e-09	-2.987181e+01	-7.775444e+01
8.000000e-07	-4.262723e-06	-1.147421e-09	-2.966565e+01	-7.750843e+01
8.100000e-07	-4.232863e-06	-1.140941e-09	-2.945785e+01	-7.725863e+01
8.200000e-07	-4.202694e-06	-1.148499e-09	-2.924789e+01	-7.700509e+01
8.300000e-07	-4.172109e-06	-1.143073e-09	-2.903504e+01	-7.674787e+01
8.400000e-07	-4.141208e-06	-1.130944e-09	-2.881999e+01	-7.648704e+01
8.500000e-07	-4.110077e-06	-1.133983e-09	-2.860334e+01	-7.622269e+01
8.600000e-07	-4.078783e-06	-1.132078e-09	-2.838556e+01	-7.595488e+01
8.700000e-07	-4.047330e-06	-1.118121e-09	-2.816667e+01	-7.568372e+01
8.800000e-07	-4.015679e-06	-1.113926e-09	-2.794639e+01	-7.540928e+01
8.900000e-07	-3.983900e-06	-1.113415e-09	-2.772523e+01	-7.513165e+01
9.000000e-07	-3.951905e-06	-1.100975e-09	-2.750257e+01	-7.485092e+01
9.100000e-07	-3.919568e-06	-1.092995e-09	-2.727753e+01	-7.456716e+01
9.200000e-07	-3.886872e-06	-1.096838e-09	-2.704998e+01	-7.428046e+01
9.300000e-07	-3.853731e-06	-1.092159e-09	-2.681935e+01	-7.399087e+01
9.400000e-07	-3.820092e-06	-1.084732e-09	-2.658524e+01	-7.369845e+01
9.500000e-07	-3.785928e-06	-1.086738e-09	-2.634748e+01	-7.340324e+01
9.600000e-07	-3.751341e-06	-1.085145e-09	-2.610678e+01	-7.310526e+01
9.700000e-07	-3.716440e-06	-1.072809e-09	-2.586390e+01	-7.280454e+01
9.800000e-07	-3.681214e-06	-1.067370e-09	-2.561874e+01	-7.250107e+01
9.900000e-07	-3.645738e-06	-1.065687e-09	-2.537186e+01	-7.219483e+01
1.000000e-06	-3.610152e-06	-1.058020e-09	-2.512420e+01	-7.188578e+01
1.010000e-06	-3.574470e-06	-1.050653e-09	-2.487588e+01	-7.157385e+01
1.020000e-06	-3.538605e-06	-1.048749e-09	-2.462628e+01	-7.125898e+01
1.030000e-06	-3.502613e-06	-1.042992e-09	-2.437580e+01	-7.094107e+01
1.040000e-06	-3.466442e-06	-1.036847e-09	-2.412408e+01	-7.062000e+01
1.050000e-06	-3.429900e-06	-1.034312e-09	-2.386977e+01	-7.029562e+01
1.060000e-06	-3.393080e-06	-1.029176e-09	-2.361353e+01	-6.996780e+01
1.070000e-06	-3.356048e-06	-1.020180e-09	-2.335581e+01	-6.963635e+01
1.080000e-06	-3.318712e-06	-1.015835e-09	-2.309598e+01	-6.930108e+01
1.090000e-06	-3.281103e-06	-1.011490e-09	-2.283425e+01	-6.896178e+01
1.100000e-06	-3.243311e-06	-1.003288e-09	-2.257124e+01	-6.861824e+01
1.110000e-06	-3.205335e-06	-9.959281e-10	-2.230695e+01	-6.827021e+01
1.120000e-06	-3.167131e-06	-9.917043e-10	-2.204108e+01	-6.791745e+01
1.130000e-06	-3.128722e-06	-9.863899e-10	-2.177378e+01	-6.755970e+01
1.140000e-06	-3.090116e-06	-9.814474e-10	-2.150510e+01	-6.719670e+01
1.150000e-06	-3.051344e-06	-9.780795e-10	-2.123528e+01	-6.682817e+01
1.160000e-06	-3.012279e-06	-9.717507e-10	-2.096341e+01	-6.645383e+01
1.170000e-06	-2.972954e-06	-9.626826e-10	-2.068974e+01	-6.607341e+01
1.180000e-06	-2.933545e-06	-9.560548e-10	-2.041548e+01	-6.568662e+01
1.190000e-06	-2.893993e-06	-9.490858e-10	-2.014023e+01	-6.529319e+01
1.200000e-06	-2.854333e-06	-9.406676e-10	-1.986422e+01	-6.489284e+01
1.210000e-06	-2.814571e-06	-9.334194e-10	-1.958750e+01	-6.448530e+01
1.220000e-06	-2.774631e-06	-9.285674e-10	-1.930955e+01	-6.407032e+01
1.230000e-06	-2.734456e-06	-9.245117e-10	-1.902995e+01	-6.364762e+01
1.240000e-06	-2.694035e-06	-9.193939e-10	-1.874865e+01	-6.321698e+01
1.250000e-06	-2.653438e-06	-9.140672e-10	-1.846612e+01	-6.277815e+01
1.260000e-06	-2.612780e-06	-9.063961e-10	-1.818317e+01	-6.233091e+01
1.270000e-06	-2.571972e-06	-9.010254e-10	-1.789918e+01	-6.187506e+01
1.280000e-06	-2.530803e-06	-8.944982e-10	-1.761267e+01	-6.141039e+01
1.290000e-06	-2.489279e-06	-8.859824e-10	-1.732369e+01	-6.093673e+01
1.300000e-06	-2.447459e-06	-8.764065e-10	-1.703265e+01	-6.045390e+01
1.310000e-06	-2.405335e-06	-8.676013e-10	-1.673949e+01	-5.996175e+01
1.320000e-06	-2.362859e-06	-8.581206e-10	-1.644389e+01	-5.946014e+01
1.330000e-06	-2.320062e-06	-8.515108e-10	-1.614605e+01	-5.894894e+01
1.340000e-06	-2.277026e-06	-8.471993e-10	-1.584655e+01	-5.842802e+01
1.350000e-06	-2.233807e-06	-8.396765e-10	-1.554577e+01	-5.789729e+01
1.360000e-06	-2.190435e-06	-8.304078e-10	-1.524394e+01	-5.735663e+01
1.370000e-06	-2.146932e-06	-8.208988e-10	-1.494119e+01	-5.680596e+01
1.380000e-06	-2.103345e-06	-8.111176e-10	-1.463785e+01	-5.624519e+01
1.390000e-06	-2.059678e-06	-8.003740e-10	-1.433396e+01	-5.567423e+01
1.400000e-06	-2.015917e-06	-7.874119e-10	-1.402941e+01	-5.509302e+01
1.410000e-06	-1.972071e-06	-7.756314e-10	-1.372427e+01	-5.450146e+01
1.420000e-06	-1.928165e-06	-7.667874e-10	-1.341872e+01	-5.389947e+01
1.430000e-06	-1.884236e-06	-7.623923e-10	-1.311300e+01	-5.328696e+01
1.440000e-06	-1.840233e-06	-7.570406e-10	-1.280677e+01	-5.266385e+01
1.450000e-06	-1.796088e-06	-7.467212e-10	-1.249955e+01	-5.203002e+01
1.460000e-06	-1.751830e-06	-7.330584e-10	-1.219154e+01	-5.138536e+01
1.470000e-06	-1.707461e-06	-7.169003e-10	-1.188277e+01	-5.072975e+01
1.480000e-06	-1.662947e-06	-7.017838e-10	-1.157298e+01	-5.006304e+01
1.490000e-06	-1.618273e-06	-6.874769e-10	-1.126208e+01	-4.938508e+01
1.500000e-06	-1.573407e-06	-6.770740e-10	-1.094984e+01	-4.869569e+01
1.510000e-06	-1.528389e-06	-6.701691e-10	-1.063655e+01	-4.799467e+01
1.520000e-06	-1.483311e-06	-6.610028e-10	-1.032284e+01	-4.728182e+01
1.530000e-06	-1.438168e-06	-6.481543e-10	-1.000867e+01	-4.655690e+01
1.540000e-06	-1.392881e-06	-6.348274e-10	-9.693505e+00	-4.581966e+01
1.550000e-06	-1.347385e-06	-6.199273e-10	-9.376885e+00	-4.506981e+01
1.560000e-06	-1.301775e-06	-6.048543e-10	-9.059466e+00	-4.430707e+01
1.570000e-06	-1.256184e-06	-5.912560e-10	-8.742184e+00	-4.353111e+01
1.580000e-06	-1.210554e-06	-5.793204e-10	-8.424631e+00	-4.274161e+01
1.590000e-06	-1.164827e-06	-5.678780e-10	-8.106402e+00	-4.193821e+01
1.600000e-06	-1.119021e-06	-5.578749e-10	-7.787622e+00	-4.112055e+01
1.610000e-06	-1.073162e-06	-5.468421e-10	-7.468481e+00	-4.028824e+01
1.620000e-06	-1.027275e-06	-5.334811e-10	-7.149138e+00	-3.944090e+01
1.630000e-06	-9.813219e-07	-5.187094e-10	-6.829333e+00	-3.857812e+01
1.640000e-06	-9.352513e-07	-5.025564e-10	-6.508713e+00	-3.769951e+01
1.650000e-06	-8.890544e-07	-4.865452e-10	-6.187214e+00	-3.680465e+01
1.660000e-06	-8.427568e-07	-4.715690e-10	-5.865014e+00	-3.589315e+01
1.670000e-06	-7.964482e-07	-4.594056e-10	-5.542738e+00	-3.496462e+01
1.680000e-06	-7.502045e-07	-4.476292e-10	-5.220913e+00	-3.401865e+01
1.690000e-06	-7.039255e-07	-4.358794e-10	-4.898843e+00	-3.305489e+01
1.700000e-06	-6.575261e-07	-4.222790e-10	-4.575934e+00	-3.207298e+01
1.710000e-06	-6.110978e-07	-4.052138e-10	-4.252825e+00	-3.107260e+01
1.720000e-06	-5.646506e-07	-3.859933e-10	-3.929584e+00	-3.005344e+01
1.730000e-06	-5.181432e-07	-3.662701e-10	-3.605925e+00	-2.901525e+01
1.740000e-06	-4.715777e-07	-3.499832e-10	-3.281860e+00	-2.795779e+01
1.750000e-06	-4.249862e-07	-3.368999e-10	-2.957615e+00	-2.688088e+01
1.760000e-06	-3.783868e-07	-3.242128e-10	-2.633315e+00	-2.578438e+01
1.770000e-06	-3.317219e-07	-3.114141e-10	-2.308559e+00	-2.466821e+01
1.780000e-06	-2.849693e-07	-2.985355e-10	-1.983192e+00	-2.353233e+01
1.790000e-06	-2.381660e-07	-2.815433e-10	-1.657473e+00	-2.237676e+01
1.800000e-06	-1.913691e-07	-2.591362e-10	-1.331799e+00	-2.120160e+01
1.810000e-06	-1.445374e-07	-2.369269e-10	-1.005882e+00	-2.000699e+01
1.820000e-06	-9.767008e-08	-2.176911e-10	-6.797173e-01	-1.879317e+01
1.830000e-06	-5.088614e-08	-2.018591e-10	-3.541329e-01	-1.756040e+01
1.840000e-06	-4.194445e-09	-1.895951e-10	-2.919048e-02	-1.630907e+01
1.850000e-06	4.249847e-08	-1.786717e-10	2.957604e-01	-1.503959e+01
1.860000e-06	8.928385e-08	-1.643914e-10	6.213549e-01	-1.375248e+01
1.870000e-06	1.361082e-07	-1.460151e-10	9.472203e-01	-1.244832e+01
1.880000e-06	1.828154e-07	-1.246535e-10	1.272271e+00	-1.112776e+01
1.890000e-06	2.294584e-07	-1.012905e-10	1.596874e+00	-9.791519e+00
1.900000e-06	2.761051e-07	-7.872212e-11	1.921504e+00	-8.440402e+00
1.910000e-06	3.227344e-07	-5.928017e-11	2.246012e+00	-7.075270e+00
1.920000e-06	3.693946e-07	-4.301817e-11	2.570735e+00	-5.697055e+00
1.930000e-06	4.160238e-07	-2.719959e-11	2.895243e+00	-4.306753e+00
1.940000e-06	4.625894e-07	-1.230578e-11	3.219308e+00	-2.905418e+00
1.950000e-06	5.091141e-07	2.759058e-12	3.543088e+00	-1.494160e+00
1.960000e-06	5.555668e-07	2.091462e-11	3.866367e+00	-7.414190e-02
1.970000e-06	6.019580e-07	4.238374e-11	4.189218e+00	1.353428e+00
1.980000e-06	6.483128e-07	6.542873e-11	4.511816e+00	2.787301e+00
1.990000e-06	6.946136e-07	8.881239e-11	4.834038e+00	4.226191e+00
2.000000e-06	7.409133e-07	1.109810e-10	5.156252e+00	5.668782e+00
2.010000e-06	7.871218e-07	1.296756e-10	5.477832e+00	7.113736e+00
2.020000e-06	8.331989e-07	1.464354e-10	5.798498e+00	8.559697e+00
2.030000e-06	8.793152e-07	1.637021e-10	6.119436e+00	1.000530e+01
2.040000e-06	9.254356e-07	1.813320e-10	6.440402e+00	1.144917e+01
2.050000e-06	9.714863e-07	2.004679e-10	6.760884e+00	1.288994e+01
2.060000e-06	1.017536e-06	2.225636e-10	7.081358e+00	1.432625e+01
2.070000e-06	1.063552e-06	2.460952e-10	7.401596e+00	1.575676e+01
2.080000e-06	1.109381e-06	2.692117e-10	7.720537e+00	1.718014e+01
2.090000e-06	1.155127e-06	2.910782e-10	8.038895e+00	1.859510e+01
2.100000e-06	1.200877e-06	3.109074e-10	8.357289e+00	2.000039e+01
2.110000e-06	1.246533e-06	3.296875e-10	8.675024e+00	2.139478e+01
2.120000e-06	1.292032e-06	3.494506e-10	8.991661e+00	2.277711e+01
2.130000e-06	1.337387e-06	3.692888e-10	9.307303e+00	2.414624e+01
2.140000e-06	1.382636e-06	3.862896e-10	9.622204e+00	2.550111e+01
2.150000e-06	1.427804e-06	4.028400e-10	9.936547e+00	2.684072e+01
2.160000e-06	1.472937e-06	4.224827e-10	1.025064e+01	2.816413e+01
2.170000e-06	1.517965e-06	4.436674e-10	1.056400e+01	2.947045e+01
2.180000e-06	1.562820e-06	4.639085e-10	1.087616e+01	3.075888e+01
2.190000e-06	1.607591e-06	4.817326e-10	1.118774e+01	3.202869e+01
2.200000e-06	1.652276e-06	4.976933e-10	1.149872e+01	3.327922e+01
2.210000e-06	1.696820e-06	5.123911e-10	1.180871e+01	3.450989e+01
2.220000e-06	1.741242e-06	5.283969e-10	1.211786e+01	3.572017e+01
2.230000e-06	1.785541e-06	5.458211e-10	1.242615e+01	3.690965e+01
2.240000e-06	1.829687e-06	5.622137e-10	1.273337e+01	3.807796e+01
2.250000e-06	1.873710e-06	5.779955e-10	1.303975e+01	3.922482e+01
2.260000e-06	1.917679e-06	5.922164e-10	1.334574e+01	4.035002e+01
2.270000e-06	1.961601e-06	6.055611e-10	1.365141e+01	4.145342e+01
2.280000e-06	2.005451e-06	6.186352e-10	1.395657e+01	4.253495e+01
2.290000e-06	2.049194e-06	6.322297e-10	1.426100e+01	4.359461e+01
2.300000e-06	2.092901e-06	6.475424e-10	1.456517e+01	4.463245e+01
2.310000e-06	2.136574e-06	6.632488e-10	1.486910e+01	4.564859e+01
2.320000e-06	2.180110e-06	6.775800e-10	1.517209e+01	4.664320e+01
2.330000e-06	2.223493e-06	6.887901e-10	1.547400e+01	4.761651e+01
2.340000e-06	2.266765e-06	6.983080e-10	1.577514e+01	4.856879e+01
2.350000e-06	2.309833e-06	7.080826e-10	1.607487e+01	4.950035e+01
2.360000e-06	2.352571e-06	7.183724e-10	1.637229e+01	5.041154e+01
2.370000e-06	2.395039e-06	7.298212e-10	1.666784e+01	5.130274e+01
2.380000e-06	2.437115e-06	7.429652e-10	1.696067e+01	5.217437e+01
2.390000e-06	2.478822e-06	7.578337e-10	1.725091e+01	5.302685e+01
2.400000e-06	2.520305e-06	7.725334e-10	1.753961e+01	5.386065e+01
2.410000e-06	2.561540e-06	7.871256e-10	1.782658e+01	5.467622e+01
2.420000e-06	2.602549e-06	8.010026e-10	1.811197e+01	5.547404e+01
2.430000e-06	2.643302e-06	8.126271e-10	1.839559e+01	5.625460e+01
2.440000e-06	2.683802e-06	8.227034e-10	1.867744e+01	5.701837e+01
2.450000e-06	2.724100e-06	8.320879e-10	1.895789e+01	5.776584e+01
2.460000e-06	2.764235e-06	8.413158e-10	1.923720e+01	5.849747e+01
2.470000e-06	2.804203e-06	8.514849e-10	1.951535e+01	5.921373e+01
2.480000e-06	2.844010e-06	8.622927e-10	1.979238e+01	5.991507e+01
2.490000e-06	2.883651e-06	8.730405e-10	2.006825e+01	6.060192e+01
2.500000e-06	2.923228e-06	8.843707e-10	2.034368e+01	6.127470e+01
2.510000e-06	2.962728e-06	8.944228e-10	2.061857e+01	6.193381e+01
2.520000e-06	3.001997e-06	9.024258e-10	2.089186e+01	6.257963e+01
2.530000e-06	3.041023e-06	9.095461e-10	2.116345e+01	6.321250e+01
2.540000e-06	3.079778e-06	9.151711e-10	2.143316e+01	6.383276e+01
2.550000e-06	3.118340e-06	9.192778e-10	2.170152e+01	6.444072e+01
2.560000e-06	3.156722e-06	9.250701e-10	2.196863e+01	6.503666e+01
2.570000e-06	3.194876e-06	9.329402e-10	2.223416e+01	6.562085e+01
2.580000e-06	3.232848e-06	9.405632e-10	2.249842e+01	6.619351e+01
2.590000e-06	3.270589e-06	9.487117e-10	2.276108e+01	6.675488e+01
2.600000e-06	3.308142e-06	9.582801e-10	2.302242e+01	6.730514e+01
2.610000e-06	3.345504e-06	9.683180e-10	2.328243e+01	6.784446e+01
2.620000e-06	3.382603e-06	9.773951e-10	2.354062e+01	6.837302e+01
2.630000e-06	3.419432e-06	9.844949e-10	2.379692e+01	6.889095e+01
2.640000e-06	3.455923e-06	9.895514e-10	2.405088e+01	6.939837e+01
2.650000e-06	3.492180e-06	9.932485e-10	2.430320e+01	6.989540e+01
2.660000e-06	3.528315e-06	9.994350e-10	2.455467e+01	7.038215e+01
2.670000e-06	3.564242e-06	1.009207e-09	2.480470e+01	7.085871e+01
2.680000e-06	3.599997e-06	1.018485e-09	2.505353e+01	7.132518e+01
2.690000e-06	3.635694e-06	1.026748e-09	2.530196e+01	7.178163e+01
2.700000e-06	3.671254e-06	1.035489e-09	2.554943e+01	7.222816e+01
2.710000e-06	3.706574e-06	1.043338e-09	2.579523e+01	7.266484e+01
2.720000e-06	3.741603e-06	1.051129e-09	2.603902e+01	7.309176e+01
2.730000e-06	3.776227e-06	1.058652e-09	2.627997e+01	7.350901e+01
2.740000e-06	3.810436e-06	1.064367e-09	2.651805e+01	7.391669e+01
2.750000e-06	3.844218e-06	1.068958e-09	2.675314e+01	7.431488e+01
2.760000e-06	3.877503e-06	1.074115e-09	2.698478e+01	7.470371e+01
2.770000e-06	3.910317e-06	1.080613e-09	2.721314e+01	7.508328e+01
2.780000e-06	3.942772e-06	1.088381e-09	2.743901e+01	7.545372e+01
2.790000e-06	3.974953e-06	1.096631e-09	2.766297e+01	7.581516e+01
2.800000e-06	4.006885e-06	1.104256e-09	2.788519e+01	7.616775e+01
2.810000e-06	4.038648e-06	1.111245e-09	2.810624e+01	7.651165e+01
2.820000e-06	4.070261e-06	1.116289e-09	2.832625e+01	7.684702e+01
2.830000e-06	4.101655e-06	1.118757e-09	2.854473e+01	7.717404e+01
2.840000e-06	4.132780e-06	1.119004e-09	2.876134e+01	7.749288e+01
2.850000e-06	4.163629e-06	1.120679e-09	2.897603e+01	7.780375e+01
2.860000e-06	4.194223e-06	1.125594e-09	2.918894e+01	7.810684e+01
2.870000e-06	4.224503e-06	1.130779e-09	2.939966e+01	7.840236e+01
2.880000e-06	4.254431e-06	1.137482e-09	2.960795e+01	7.869052e+01
2.890000e-06	4.284090e-06	1.145678e-09	2.981435e+01	7.897154e+01
2.900000e-06	4.313491e-06	1.153003e-09	3.001897e+01	7.924563e+01
