# Temperatura_=_-0.28
# Concentracion g/m^3_=_1620.0
# C_Vs_to_Am_M_A/Vsm_=_65563218390.804596
# pendiente_HvsI_1/m_=_3716.3
# ordenada_HvsI_A/m_=_1297.0
# frecuencia_Hz_=_135106.8457109395

Tiempo_(s)	Campo_(V.s)	Magnetizacion_(V.s)	Campo_(kA/m)	Magnetizacion_(A/m)
0.000000e+00	-5.517006e-06	-1.376235e-09	-3.837258e+01	-8.921538e+01
1.000000e-08	-5.517237e-06	-1.376049e-09	-3.837419e+01	-8.923050e+01
2.000000e-08	-5.517146e-06	-1.376633e-09	-3.837355e+01	-8.924174e+01
3.000000e-08	-5.516519e-06	-1.374107e-09	-3.836919e+01	-8.924879e+01
4.000000e-08	-5.515338e-06	-1.369711e-09	-3.836098e+01	-8.925133e+01
5.000000e-08	-5.513588e-06	-1.365385e-09	-3.834881e+01	-8.924904e+01
6.000000e-08	-5.511308e-06	-1.344164e-09	-3.833295e+01	-8.924164e+01
7.000000e-08	-5.508549e-06	-1.325208e-09	-3.831376e+01	-8.922886e+01
8.000000e-08	-5.505191e-06	-1.363655e-09	-3.829040e+01	-8.921043e+01
9.000000e-08	-5.501344e-06	-1.448479e-09	-3.826364e+01	-8.918613e+01
1.000000e-07	-5.497116e-06	-1.420059e-09	-3.823424e+01	-8.915576e+01
1.100000e-07	-5.492638e-06	-1.302895e-09	-3.820309e+01	-8.911913e+01
1.200000e-07	-5.488015e-06	-1.275277e-09	-3.817094e+01	-8.907611e+01
1.300000e-07	-5.483037e-06	-1.376062e-09	-3.813631e+01	-8.902657e+01
1.400000e-07	-5.477618e-06	-1.384508e-09	-3.809862e+01	-8.897046e+01
1.500000e-07	-5.471882e-06	-1.281131e-09	-3.805873e+01	-8.890771e+01
1.600000e-07	-5.465884e-06	-1.264109e-09	-3.801701e+01	-8.883833e+01
1.700000e-07	-5.459499e-06	-1.394593e-09	-3.797260e+01	-8.876234e+01
1.800000e-07	-5.452561e-06	-1.419455e-09	-3.792434e+01	-8.867981e+01
1.900000e-07	-5.445255e-06	-1.326860e-09	-3.787353e+01	-8.859083e+01
2.000000e-07	-5.437718e-06	-1.263492e-09	-3.782111e+01	-8.849555e+01
2.100000e-07	-5.429895e-06	-1.340030e-09	-3.776669e+01	-8.839413e+01
2.200000e-07	-5.421753e-06	-1.371442e-09	-3.771007e+01	-8.828677e+01
2.300000e-07	-5.413325e-06	-1.335190e-09	-3.765144e+01	-8.817370e+01
2.400000e-07	-5.404456e-06	-1.319980e-09	-3.758976e+01	-8.805517e+01
2.500000e-07	-5.394761e-06	-1.356575e-09	-3.752233e+01	-8.793147e+01
2.600000e-07	-5.384322e-06	-1.352826e-09	-3.744972e+01	-8.780288e+01
2.700000e-07	-5.373468e-06	-1.295495e-09	-3.737422e+01	-8.766974e+01
2.800000e-07	-5.362191e-06	-1.288264e-09	-3.729579e+01	-8.753238e+01
2.900000e-07	-5.350434e-06	-1.317306e-09	-3.721402e+01	-8.739113e+01
3.000000e-07	-5.338316e-06	-1.328430e-09	-3.712973e+01	-8.724635e+01
3.100000e-07	-5.325861e-06	-1.285399e-09	-3.704310e+01	-8.709839e+01
3.200000e-07	-5.312952e-06	-1.290158e-09	-3.695332e+01	-8.694762e+01
3.300000e-07	-5.299633e-06	-1.305156e-09	-3.686068e+01	-8.679437e+01
3.400000e-07	-5.285996e-06	-1.308726e-09	-3.676583e+01	-8.663898e+01
3.500000e-07	-5.271896e-06	-1.251579e-09	-3.666776e+01	-8.648180e+01
3.600000e-07	-5.257284e-06	-1.267098e-09	-3.656613e+01	-8.632313e+01
3.700000e-07	-5.242331e-06	-1.300422e-09	-3.646213e+01	-8.616328e+01
3.800000e-07	-5.226880e-06	-1.289281e-09	-3.635466e+01	-8.600251e+01
3.900000e-07	-5.210854e-06	-1.250360e-09	-3.624319e+01	-8.584108e+01
4.000000e-07	-5.194473e-06	-1.301330e-09	-3.612926e+01	-8.567921e+01
4.100000e-07	-5.177710e-06	-1.309555e-09	-3.601267e+01	-8.551710e+01
4.200000e-07	-5.160520e-06	-1.238840e-09	-3.589310e+01	-8.535492e+01
4.300000e-07	-5.143098e-06	-1.241908e-09	-3.577193e+01	-8.519279e+01
4.400000e-07	-5.125461e-06	-1.317930e-09	-3.564925e+01	-8.503082e+01
4.500000e-07	-5.107284e-06	-1.269851e-09	-3.552283e+01	-8.486907e+01
4.600000e-07	-5.088504e-06	-1.211049e-09	-3.539221e+01	-8.470757e+01
4.700000e-07	-5.069398e-06	-1.273556e-09	-3.525932e+01	-8.454633e+01
4.800000e-07	-5.050130e-06	-1.295762e-09	-3.512530e+01	-8.438530e+01
4.900000e-07	-5.030693e-06	-1.226530e-09	-3.499011e+01	-8.422442e+01
5.000000e-07	-5.011060e-06	-1.247477e-09	-3.485356e+01	-8.406358e+01
5.100000e-07	-4.991152e-06	-1.287231e-09	-3.471509e+01	-8.390267e+01
5.200000e-07	-4.970836e-06	-1.225433e-09	-3.457379e+01	-8.374152e+01
5.300000e-07	-4.950036e-06	-1.224838e-09	-3.442912e+01	-8.357995e+01
5.400000e-07	-4.928936e-06	-1.293848e-09	-3.428236e+01	-8.341776e+01
5.500000e-07	-4.907514e-06	-1.253745e-09	-3.413336e+01	-8.325473e+01
5.600000e-07	-4.885720e-06	-1.195082e-09	-3.398178e+01	-8.309062e+01
5.700000e-07	-4.863687e-06	-1.254492e-09	-3.382854e+01	-8.292517e+01
5.800000e-07	-4.841379e-06	-1.263791e-09	-3.367337e+01	-8.275813e+01
5.900000e-07	-4.818633e-06	-1.206670e-09	-3.351517e+01	-8.258922e+01
6.000000e-07	-4.795510e-06	-1.225586e-09	-3.335434e+01	-8.241818e+01
6.100000e-07	-4.772151e-06	-1.257498e-09	-3.319187e+01	-8.224474e+01
6.200000e-07	-4.748585e-06	-1.204575e-09	-3.302796e+01	-8.206863e+01
6.300000e-07	-4.724827e-06	-1.195604e-09	-3.286271e+01	-8.188959e+01
6.400000e-07	-4.700749e-06	-1.227907e-09	-3.269524e+01	-8.170738e+01
6.500000e-07	-4.676259e-06	-1.213735e-09	-3.252491e+01	-8.152177e+01
6.600000e-07	-4.651259e-06	-1.192746e-09	-3.235103e+01	-8.133255e+01
6.700000e-07	-4.625723e-06	-1.219907e-09	-3.217342e+01	-8.113951e+01
6.800000e-07	-4.599580e-06	-1.212357e-09	-3.199158e+01	-8.094249e+01
6.900000e-07	-4.572846e-06	-1.190936e-09	-3.180564e+01	-8.074133e+01
7.000000e-07	-4.545767e-06	-1.197223e-09	-3.161730e+01	-8.053592e+01
7.100000e-07	-4.518499e-06	-1.201932e-09	-3.142764e+01	-8.032615e+01
7.200000e-07	-4.491050e-06	-1.182195e-09	-3.123672e+01	-8.011196e+01
7.300000e-07	-4.463396e-06	-1.185146e-09	-3.104438e+01	-7.989331e+01
7.400000e-07	-4.435522e-06	-1.193019e-09	-3.085050e+01	-7.967019e+01
7.500000e-07	-4.407402e-06	-1.184268e-09	-3.065492e+01	-7.944261e+01
7.600000e-07	-4.378962e-06	-1.173211e-09	-3.045711e+01	-7.921061e+01
7.700000e-07	-4.350206e-06	-1.172912e-09	-3.025711e+01	-7.897427e+01
7.800000e-07	-4.321138e-06	-1.164352e-09	-3.005493e+01	-7.873368e+01
7.900000e-07	-4.291745e-06	-1.158907e-09	-2.985049e+01	-7.848896e+01
8.000000e-07	-4.262055e-06	-1.160904e-09	-2.964399e+01	-7.824024e+01
8.100000e-07	-4.231996e-06	-1.155486e-09	-2.943492e+01	-7.798768e+01
8.200000e-07	-4.201645e-06	-1.149631e-09	-2.922381e+01	-7.773145e+01
8.300000e-07	-4.171087e-06	-1.150975e-09	-2.901128e+01	-7.747175e+01
8.400000e-07	-4.140239e-06	-1.149076e-09	-2.879671e+01	-7.720875e+01
8.500000e-07	-4.109091e-06	-1.137836e-09	-2.858007e+01	-7.694266e+01
8.600000e-07	-4.077710e-06	-1.134457e-09	-2.836181e+01	-7.667368e+01
8.700000e-07	-4.046183e-06	-1.129238e-09	-2.814252e+01	-7.640202e+01
8.800000e-07	-4.014500e-06	-1.119356e-09	-2.792216e+01	-7.612786e+01
8.900000e-07	-3.982602e-06	-1.113118e-09	-2.770030e+01	-7.585139e+01
9.000000e-07	-3.950464e-06	-1.113779e-09	-2.747677e+01	-7.557279e+01
9.100000e-07	-3.917941e-06	-1.104869e-09	-2.725056e+01	-7.529221e+01
9.200000e-07	-3.884990e-06	-1.100309e-09	-2.702138e+01	-7.500980e+01
9.300000e-07	-3.851599e-06	-1.101126e-09	-2.678913e+01	-7.472568e+01
9.400000e-07	-3.817732e-06	-1.098588e-09	-2.655357e+01	-7.443993e+01
9.500000e-07	-3.783396e-06	-1.089424e-09	-2.631476e+01	-7.415263e+01
9.600000e-07	-3.748628e-06	-1.089623e-09	-2.607293e+01	-7.386381e+01
9.700000e-07	-3.713536e-06	-1.087008e-09	-2.582885e+01	-7.357348e+01
9.800000e-07	-3.678211e-06	-1.081939e-09	-2.558316e+01	-7.328161e+01
9.900000e-07	-3.642719e-06	-1.079517e-09	-2.533630e+01	-7.298813e+01
1.000000e-06	-3.607104e-06	-1.078029e-09	-2.508858e+01	-7.269296e+01
1.010000e-06	-3.571354e-06	-1.068024e-09	-2.483993e+01	-7.239596e+01
1.020000e-06	-3.535481e-06	-1.061387e-09	-2.459043e+01	-7.209697e+01
1.030000e-06	-3.499492e-06	-1.059383e-09	-2.434011e+01	-7.179578e+01
1.040000e-06	-3.463207e-06	-1.056051e-09	-2.408773e+01	-7.149215e+01
1.050000e-06	-3.426612e-06	-1.048758e-09	-2.383321e+01	-7.118584e+01
1.060000e-06	-3.389744e-06	-1.044126e-09	-2.357678e+01	-7.087653e+01
1.070000e-06	-3.352591e-06	-1.038914e-09	-2.331837e+01	-7.056390e+01
1.080000e-06	-3.315286e-06	-1.031754e-09	-2.305890e+01	-7.024760e+01
1.090000e-06	-3.277754e-06	-1.025401e-09	-2.279785e+01	-6.992725e+01
1.100000e-06	-3.239899e-06	-1.019353e-09	-2.253456e+01	-6.960247e+01
1.110000e-06	-3.201806e-06	-1.011610e-09	-2.226961e+01	-6.927285e+01
1.120000e-06	-3.163490e-06	-1.004424e-09	-2.200311e+01	-6.893795e+01
1.130000e-06	-3.124935e-06	-1.001704e-09	-2.173494e+01	-6.859734e+01
1.140000e-06	-3.086143e-06	-9.971713e-10	-2.146513e+01	-6.825060e+01
1.150000e-06	-3.047157e-06	-9.896036e-10	-2.119397e+01	-6.789728e+01
1.160000e-06	-3.008026e-06	-9.829198e-10	-2.092181e+01	-6.753693e+01
1.170000e-06	-2.968730e-06	-9.793097e-10	-2.064849e+01	-6.716914e+01
1.180000e-06	-2.929251e-06	-9.724485e-10	-2.037390e+01	-6.679348e+01
1.190000e-06	-2.889642e-06	-9.646003e-10	-2.009840e+01	-6.640955e+01
1.200000e-06	-2.849936e-06	-9.571237e-10	-1.982224e+01	-6.601694e+01
1.210000e-06	-2.810079e-06	-9.509542e-10	-1.954502e+01	-6.561531e+01
1.220000e-06	-2.770108e-06	-9.441756e-10	-1.926701e+01	-6.520429e+01
1.230000e-06	-2.729991e-06	-9.396790e-10	-1.898798e+01	-6.478357e+01
1.240000e-06	-2.689591e-06	-9.328300e-10	-1.870698e+01	-6.435286e+01
1.250000e-06	-2.648944e-06	-9.258450e-10	-1.842427e+01	-6.391189e+01
1.260000e-06	-2.608092e-06	-9.199700e-10	-1.814013e+01	-6.346045e+01
1.270000e-06	-2.566949e-06	-9.166808e-10	-1.785397e+01	-6.299832e+01
1.280000e-06	-2.525438e-06	-9.098657e-10	-1.756524e+01	-6.252536e+01
1.290000e-06	-2.483646e-06	-8.994581e-10	-1.727457e+01	-6.204143e+01
1.300000e-06	-2.441621e-06	-8.882743e-10	-1.698227e+01	-6.154643e+01
1.310000e-06	-2.399319e-06	-8.783348e-10	-1.668805e+01	-6.104030e+01
1.320000e-06	-2.356719e-06	-8.682196e-10	-1.639175e+01	-6.052302e+01
1.330000e-06	-2.313908e-06	-8.622141e-10	-1.609398e+01	-5.999458e+01
1.340000e-06	-2.270947e-06	-8.571923e-10	-1.579518e+01	-5.945500e+01
1.350000e-06	-2.227722e-06	-8.478530e-10	-1.549453e+01	-5.890434e+01
1.360000e-06	-2.184305e-06	-8.366872e-10	-1.519256e+01	-5.834268e+01
1.370000e-06	-2.140828e-06	-8.271831e-10	-1.489016e+01	-5.777009e+01
1.380000e-06	-2.097271e-06	-8.180341e-10	-1.458720e+01	-5.718670e+01
1.390000e-06	-2.053611e-06	-8.076697e-10	-1.428353e+01	-5.659262e+01
1.400000e-06	-2.009856e-06	-7.994934e-10	-1.397920e+01	-5.598797e+01
1.410000e-06	-1.966044e-06	-7.933667e-10	-1.367448e+01	-5.537288e+01
1.420000e-06	-1.922176e-06	-7.851915e-10	-1.336936e+01	-5.474749e+01
1.430000e-06	-1.878218e-06	-7.758258e-10	-1.306362e+01	-5.411190e+01
1.440000e-06	-1.834103e-06	-7.660718e-10	-1.275679e+01	-5.346624e+01
1.450000e-06	-1.789845e-06	-7.538790e-10	-1.244896e+01	-5.281060e+01
1.460000e-06	-1.745452e-06	-7.406674e-10	-1.214019e+01	-5.214506e+01
1.470000e-06	-1.700927e-06	-7.287701e-10	-1.183051e+01	-5.146967e+01
1.480000e-06	-1.656292e-06	-7.186642e-10	-1.152005e+01	-5.078447e+01
1.490000e-06	-1.611511e-06	-7.079754e-10	-1.120858e+01	-5.008944e+01
1.500000e-06	-1.566627e-06	-6.987853e-10	-1.089640e+01	-4.938456e+01
1.510000e-06	-1.521623e-06	-6.895175e-10	-1.058338e+01	-4.866975e+01
1.520000e-06	-1.476478e-06	-6.773467e-10	-1.026939e+01	-4.794490e+01
1.530000e-06	-1.431176e-06	-6.620908e-10	-9.954300e+00	-4.720986e+01
1.540000e-06	-1.385798e-06	-6.476715e-10	-9.638681e+00	-4.646444e+01
1.550000e-06	-1.340360e-06	-6.338231e-10	-9.322641e+00	-4.570841e+01
1.560000e-06	-1.294808e-06	-6.199504e-10	-9.005813e+00	-4.494148e+01
1.570000e-06	-1.249225e-06	-6.062617e-10	-8.688771e+00	-4.416333e+01
1.580000e-06	-1.203617e-06	-5.959316e-10	-8.371549e+00	-4.337361e+01
1.590000e-06	-1.157902e-06	-5.838167e-10	-8.053590e+00	-4.257191e+01
1.600000e-06	-1.112084e-06	-5.707370e-10	-7.734911e+00	-4.175779e+01
1.610000e-06	-1.066195e-06	-5.589537e-10	-7.415735e+00	-4.093077e+01
1.620000e-06	-1.020248e-06	-5.486053e-10	-7.096160e+00	-4.009036e+01
1.630000e-06	-9.742315e-07	-5.367681e-10	-6.776099e+00	-3.923601e+01
1.640000e-06	-9.281620e-07	-5.198070e-10	-6.455670e+00	-3.836718e+01
1.650000e-06	-8.819669e-07	-5.022652e-10	-6.134368e+00	-3.748329e+01
1.660000e-06	-8.356342e-07	-4.864041e-10	-5.812109e+00	-3.658374e+01
1.670000e-06	-7.893044e-07	-4.728058e-10	-5.489870e+00	-3.566795e+01
1.680000e-06	-7.429938e-07	-4.609296e-10	-5.167765e+00	-3.473532e+01
1.690000e-06	-6.965924e-07	-4.516919e-10	-4.845028e+00	-3.378527e+01
1.700000e-06	-6.500814e-07	-4.403095e-10	-4.521529e+00	-3.281721e+01
1.710000e-06	-6.035775e-07	-4.239718e-10	-4.198079e+00	-3.183060e+01
1.720000e-06	-5.570359e-07	-4.043656e-10	-3.874366e+00	-3.082489e+01
1.730000e-06	-5.104368e-07	-3.850887e-10	-3.550255e+00	-2.979961e+01
1.740000e-06	-4.637737e-07	-3.675080e-10	-3.225697e+00	-2.875429e+01
1.750000e-06	-4.170711e-07	-3.510675e-10	-2.900866e+00	-2.768852e+01
1.760000e-06	-3.703430e-07	-3.359245e-10	-2.575856e+00	-2.660195e+01
1.770000e-06	-3.235705e-07	-3.226792e-10	-2.250538e+00	-2.549429e+01
1.780000e-06	-2.768425e-07	-3.103760e-10	-1.925530e+00	-2.436531e+01
1.790000e-06	-2.300965e-07	-2.938126e-10	-1.600396e+00	-2.321486e+01
1.800000e-06	-1.832319e-07	-2.710031e-10	-1.274438e+00	-2.204286e+01
1.810000e-06	-1.363863e-07	-2.484630e-10	-9.486114e-01	-2.084931e+01
1.820000e-06	-8.966855e-08	-2.267352e-10	-6.236741e-01	-1.963432e+01
1.830000e-06	-4.294833e-08	-2.098267e-10	-2.987197e-01	-1.839806e+01
1.840000e-06	3.885337e-09	-1.961375e-10	2.702379e-02	-1.714080e+01
1.850000e-06	5.069394e-08	-1.827136e-10	3.525929e-01	-1.586292e+01
1.860000e-06	9.744730e-08	-1.662031e-10	6.777778e-01	-1.456487e+01
1.870000e-06	1.442347e-07	-1.450299e-10	1.003199e+00	-1.324723e+01
1.880000e-06	1.910222e-07	-1.237673e-10	1.328622e+00	-1.191066e+01
1.890000e-06	2.377779e-07	-1.015793e-10	1.653823e+00	-1.055590e+01
1.900000e-06	2.845187e-07	-8.215734e-11	1.978921e+00	-9.183804e+00
1.910000e-06	3.312768e-07	-6.482153e-11	2.304139e+00	-7.795314e+00
1.920000e-06	3.781384e-07	-4.916091e-11	2.630076e+00	-6.391457e+00
1.930000e-06	4.249654e-07	-3.104123e-11	2.955773e+00	-4.973345e+00
1.940000e-06	4.715680e-07	-1.231692e-11	3.279910e+00	-3.542167e+00
1.950000e-06	5.181434e-07	6.099434e-12	3.603857e+00	-2.099189e+00
1.960000e-06	5.647458e-07	2.665825e-11	3.927992e+00	-6.457429e-01
1.970000e-06	6.111820e-07	4.838719e-11	4.250971e+00	8.167781e-01
1.980000e-06	6.575459e-07	6.992575e-11	4.573446e+00	2.286927e+00
1.990000e-06	7.039530e-07	9.108275e-11	4.896223e+00	3.763210e+00
2.000000e-06	7.502730e-07	1.109837e-10	5.218394e+00	5.244097e+00
2.010000e-06	7.965037e-07	1.305921e-10	5.539944e+00	6.728026e+00
2.020000e-06	8.427269e-07	1.496250e-10	5.861441e+00	8.213415e+00
2.030000e-06	8.889793e-07	1.695765e-10	6.183141e+00	9.698669e+00
2.040000e-06	9.351869e-07	1.880555e-10	6.504531e+00	1.118219e+01
2.050000e-06	9.812484e-07	2.071287e-10	6.824904e+00	1.266239e+01
2.060000e-06	1.027248e-06	2.282025e-10	7.144843e+00	1.413768e+01
2.070000e-06	1.073191e-06	2.500363e-10	7.464397e+00	1.560652e+01
2.080000e-06	1.118984e-06	2.726641e-10	7.782898e+00	1.706737e+01
2.090000e-06	1.164704e-06	2.931350e-10	8.100894e+00	1.851876e+01
2.100000e-06	1.210365e-06	3.128386e-10	8.418485e+00	1.995924e+01
2.110000e-06	1.255865e-06	3.309962e-10	8.734953e+00	2.138745e+01
2.120000e-06	1.301304e-06	3.494771e-10	9.050994e+00	2.280205e+01
2.130000e-06	1.346681e-06	3.678490e-10	9.366607e+00	2.420180e+01
2.140000e-06	1.391947e-06	3.856352e-10	9.681448e+00	2.558552e+01
2.150000e-06	1.437118e-06	4.032984e-10	9.995626e+00	2.695212e+01
2.160000e-06	1.482180e-06	4.223416e-10	1.030904e+01	2.830058e+01
2.170000e-06	1.527198e-06	4.422314e-10	1.062216e+01	2.962998e+01
2.180000e-06	1.572112e-06	4.602402e-10	1.093455e+01	3.093949e+01
2.190000e-06	1.616858e-06	4.771257e-10	1.124578e+01	3.222836e+01
2.200000e-06	1.661461e-06	4.937895e-10	1.155601e+01	3.349594e+01
2.210000e-06	1.705985e-06	5.108067e-10	1.186568e+01	3.474170e+01
2.220000e-06	1.750385e-06	5.286792e-10	1.217450e+01	3.596516e+01
2.230000e-06	1.794567e-06	5.444099e-10	1.248180e+01	3.716597e+01
2.240000e-06	1.838614e-06	5.588816e-10	1.278816e+01	3.834386e+01
2.250000e-06	1.882632e-06	5.729093e-10	1.309432e+01	3.949866e+01
2.260000e-06	1.926554e-06	5.875780e-10	1.339981e+01	4.063027e+01
2.270000e-06	1.970333e-06	6.030988e-10	1.370431e+01	4.173869e+01
2.280000e-06	2.014040e-06	6.183930e-10	1.400830e+01	4.282399e+01
2.290000e-06	2.057697e-06	6.325306e-10	1.431195e+01	4.388633e+01
2.300000e-06	2.101299e-06	6.463258e-10	1.461522e+01	4.492594e+01
2.310000e-06	2.144851e-06	6.606188e-10	1.491814e+01	4.594309e+01
2.320000e-06	2.188333e-06	6.747878e-10	1.522057e+01	4.693813e+01
2.330000e-06	2.231686e-06	6.860880e-10	1.552211e+01	4.791147e+01
2.340000e-06	2.274854e-06	6.963592e-10	1.582235e+01	4.886355e+01
2.350000e-06	2.317861e-06	7.088082e-10	1.612148e+01	4.979487e+01
2.360000e-06	2.360671e-06	7.216054e-10	1.641924e+01	5.070594e+01
2.370000e-06	2.403228e-06	7.333846e-10	1.671524e+01	5.159731e+01
2.380000e-06	2.445564e-06	7.454930e-10	1.700970e+01	5.246956e+01
2.390000e-06	2.487599e-06	7.584461e-10	1.730206e+01	5.332327e+01
2.400000e-06	2.529210e-06	7.712821e-10	1.759148e+01	5.415904e+01
2.410000e-06	2.570423e-06	7.838114e-10	1.787813e+01	5.497745e+01
2.420000e-06	2.611335e-06	7.967651e-10	1.816269e+01	5.577910e+01
2.430000e-06	2.652023e-06	8.095444e-10	1.844569e+01	5.656458e+01
2.440000e-06	2.692499e-06	8.210060e-10	1.872721e+01	5.733445e+01
2.450000e-06	2.732715e-06	8.324512e-10	1.900693e+01	5.808927e+01
2.460000e-06	2.772711e-06	8.435341e-10	1.928511e+01	5.882956e+01
2.470000e-06	2.812557e-06	8.537207e-10	1.956225e+01	5.955583e+01
2.480000e-06	2.852284e-06	8.627879e-10	1.983856e+01	6.026854e+01
2.490000e-06	2.891914e-06	8.730652e-10	2.011421e+01	6.096815e+01
2.500000e-06	2.931442e-06	8.843366e-10	2.038914e+01	6.165505e+01
2.510000e-06	2.970887e-06	8.943555e-10	2.066349e+01	6.232962e+01
2.520000e-06	3.010197e-06	9.041524e-10	2.093690e+01	6.299220e+01
2.530000e-06	3.049295e-06	9.128037e-10	2.120884e+01	6.364308e+01
2.540000e-06	3.088106e-06	9.187198e-10	2.147878e+01	6.428253e+01
2.550000e-06	3.126628e-06	9.244853e-10	2.174672e+01	6.491077e+01
2.560000e-06	3.164917e-06	9.322293e-10	2.201303e+01	6.552800e+01
2.570000e-06	3.203021e-06	9.416720e-10	2.227806e+01	6.613437e+01
2.580000e-06	3.240917e-06	9.511321e-10	2.254164e+01	6.673002e+01
2.590000e-06	3.278615e-06	9.606919e-10	2.280384e+01	6.731504e+01
2.600000e-06	3.316179e-06	9.702028e-10	2.306511e+01	6.788949e+01
2.610000e-06	3.353521e-06	9.794930e-10	2.332483e+01	6.845344e+01
2.620000e-06	3.390538e-06	9.883767e-10	2.358230e+01	6.900690e+01
2.630000e-06	3.427240e-06	9.964528e-10	2.383758e+01	6.954988e+01
2.640000e-06	3.463706e-06	1.001168e-09	2.409121e+01	7.008239e+01
2.650000e-06	3.499995e-06	1.004879e-09	2.434361e+01	7.060440e+01
2.660000e-06	3.536111e-06	1.011641e-09	2.459481e+01	7.111589e+01
2.670000e-06	3.572013e-06	1.018007e-09	2.484452e+01	7.161685e+01
2.680000e-06	3.607737e-06	1.023722e-09	2.509299e+01	7.210723e+01
2.690000e-06	3.643337e-06	1.032265e-09	2.534060e+01	7.258703e+01
2.700000e-06	3.678819e-06	1.042102e-09	2.558739e+01	7.305622e+01
2.710000e-06	3.714067e-06	1.050164e-09	2.583255e+01	7.351480e+01
2.720000e-06	3.749019e-06	1.058636e-09	2.607565e+01	7.396277e+01
2.730000e-06	3.783673e-06	1.066204e-09	2.631668e+01	7.440015e+01
2.740000e-06	3.817901e-06	1.070678e-09	2.655475e+01	7.482697e+01
2.750000e-06	3.851586e-06	1.074020e-09	2.678904e+01	7.524330e+01
2.760000e-06	3.884694e-06	1.078884e-09	2.701931e+01	7.564919e+01
2.770000e-06	3.917321e-06	1.086835e-09	2.724625e+01	7.604475e+01
2.780000e-06	3.949643e-06	1.096239e-09	2.747106e+01	7.643009e+01
2.790000e-06	3.981713e-06	1.105079e-09	2.769411e+01	7.680534e+01
2.800000e-06	4.013529e-06	1.113641e-09	2.791541e+01	7.717067e+01
2.810000e-06	4.045196e-06	1.120596e-09	2.813566e+01	7.752626e+01
2.820000e-06	4.076777e-06	1.124972e-09	2.835532e+01	7.787229e+01
2.830000e-06	4.108169e-06	1.127274e-09	2.857366e+01	7.820900e+01
2.840000e-06	4.139366e-06	1.129170e-09	2.879065e+01	7.853662e+01
2.850000e-06	4.170357e-06	1.134578e-09	2.900619e+01	7.885541e+01
2.860000e-06	4.200965e-06	1.141655e-09	2.921908e+01	7.916563e+01
2.870000e-06	4.231150e-06	1.146384e-09	2.942903e+01	7.946756e+01
2.880000e-06	4.261028e-06	1.151727e-09	2.963684e+01	7.976150e+01
2.890000e-06	4.290598e-06	1.157136e-09	2.984251e+01	8.004774e+01
2.900000e-06	4.319877e-06	1.162839e-09	3.004616e+01	8.032660e+01
