# Temperatura_=_-0.3
# Concentracion g/m^3_=_1620.0
# C_Vs_to_Am_M_A/Vsm_=_65563218390.804596
# pendiente_HvsI_1/m_=_3716.3
# ordenada_HvsI_A/m_=_1297.0
# frecuencia_Hz_=_135110.20982745202

Tiempo_(s)	Campo_(V.s)	Magnetizacion_(V.s)	Campo_(kA/m)	Magnetizacion_(A/m)
0.000000e+00	-5.515180e-06	-1.225888e-09	-3.836325e+01	-8.053158e+01
1.000000e-08	-5.515429e-06	-1.228163e-09	-3.836498e+01	-8.051078e+01
2.000000e-08	-5.515442e-06	-1.230631e-09	-3.836507e+01	-8.048664e+01
3.000000e-08	-5.515040e-06	-1.230056e-09	-3.836227e+01	-8.045925e+01
4.000000e-08	-5.514078e-06	-1.224549e-09	-3.835558e+01	-8.042871e+01
5.000000e-08	-5.512520e-06	-1.218876e-09	-3.834475e+01	-8.039514e+01
6.000000e-08	-5.510372e-06	-1.209756e-09	-3.832980e+01	-8.035862e+01
7.000000e-08	-5.507657e-06	-1.210677e-09	-3.831092e+01	-8.031925e+01
8.000000e-08	-5.504407e-06	-1.241540e-09	-3.828831e+01	-8.027715e+01
9.000000e-08	-5.500671e-06	-1.261495e-09	-3.826232e+01	-8.023241e+01
1.000000e-07	-5.496593e-06	-1.218552e-09	-3.823396e+01	-8.018514e+01
1.100000e-07	-5.492283e-06	-1.187138e-09	-3.820398e+01	-8.013543e+01
1.200000e-07	-5.487736e-06	-1.171901e-09	-3.817235e+01	-8.008338e+01
1.300000e-07	-5.482907e-06	-1.215965e-09	-3.813876e+01	-8.002909e+01
1.400000e-07	-5.477690e-06	-1.231496e-09	-3.810247e+01	-7.997267e+01
1.500000e-07	-5.472060e-06	-1.197477e-09	-3.806331e+01	-7.991420e+01
1.600000e-07	-5.466091e-06	-1.224745e-09	-3.802179e+01	-7.985378e+01
1.700000e-07	-5.459786e-06	-1.242956e-09	-3.797793e+01	-7.979151e+01
1.800000e-07	-5.453025e-06	-1.243558e-09	-3.793091e+01	-7.972746e+01
1.900000e-07	-5.445842e-06	-1.173543e-09	-3.788094e+01	-7.966173e+01
2.000000e-07	-5.438416e-06	-1.172668e-09	-3.782928e+01	-7.959441e+01
2.100000e-07	-5.430714e-06	-1.235557e-09	-3.777571e+01	-7.952557e+01
2.200000e-07	-5.422784e-06	-1.280139e-09	-3.772055e+01	-7.945528e+01
2.300000e-07	-5.414605e-06	-1.263705e-09	-3.766365e+01	-7.938362e+01
2.400000e-07	-5.405924e-06	-1.247237e-09	-3.760327e+01	-7.931066e+01
2.500000e-07	-5.396495e-06	-1.255013e-09	-3.753769e+01	-7.923645e+01
2.600000e-07	-5.386313e-06	-1.251687e-09	-3.746686e+01	-7.916104e+01
2.700000e-07	-5.375590e-06	-1.241209e-09	-3.739227e+01	-7.908449e+01
2.800000e-07	-5.364400e-06	-1.243678e-09	-3.731443e+01	-7.900683e+01
2.900000e-07	-5.352790e-06	-1.266516e-09	-3.723367e+01	-7.892810e+01
3.000000e-07	-5.340823e-06	-1.257960e-09	-3.715043e+01	-7.884832e+01
3.100000e-07	-5.328485e-06	-1.242510e-09	-3.706461e+01	-7.876750e+01
3.200000e-07	-5.315714e-06	-1.238531e-09	-3.697578e+01	-7.868565e+01
3.300000e-07	-5.302522e-06	-1.248866e-09	-3.688401e+01	-7.860276e+01
3.400000e-07	-5.288941e-06	-1.222146e-09	-3.678954e+01	-7.851882e+01
3.500000e-07	-5.274920e-06	-1.208957e-09	-3.669202e+01	-7.843379e+01
3.600000e-07	-5.260514e-06	-1.227708e-09	-3.659181e+01	-7.834765e+01
3.700000e-07	-5.245724e-06	-1.244871e-09	-3.648893e+01	-7.826034e+01
3.800000e-07	-5.230322e-06	-1.232443e-09	-3.638180e+01	-7.817180e+01
3.900000e-07	-5.214359e-06	-1.232814e-09	-3.627076e+01	-7.808197e+01
4.000000e-07	-5.197965e-06	-1.224675e-09	-3.615672e+01	-7.799075e+01
4.100000e-07	-5.181203e-06	-1.207283e-09	-3.604012e+01	-7.789806e+01
4.200000e-07	-5.164190e-06	-1.200737e-09	-3.592178e+01	-7.780378e+01
4.300000e-07	-5.146865e-06	-1.212277e-09	-3.580127e+01	-7.770782e+01
4.400000e-07	-5.129212e-06	-1.207242e-09	-3.567848e+01	-7.761003e+01
4.500000e-07	-5.111187e-06	-1.208631e-09	-3.555310e+01	-7.751029e+01
4.600000e-07	-5.092657e-06	-1.211319e-09	-3.542420e+01	-7.740845e+01
4.700000e-07	-5.073679e-06	-1.196797e-09	-3.529220e+01	-7.730437e+01
4.800000e-07	-5.054392e-06	-1.196905e-09	-3.515804e+01	-7.719789e+01
4.900000e-07	-5.034870e-06	-1.211764e-09	-3.502224e+01	-7.708885e+01
5.000000e-07	-5.015183e-06	-1.190983e-09	-3.488530e+01	-7.697707e+01
5.100000e-07	-4.995287e-06	-1.166081e-09	-3.474691e+01	-7.686241e+01
5.200000e-07	-4.975099e-06	-1.188246e-09	-3.460648e+01	-7.674468e+01
5.300000e-07	-4.954614e-06	-1.194621e-09	-3.446399e+01	-7.662371e+01
5.400000e-07	-4.933726e-06	-1.170774e-09	-3.431869e+01	-7.649934e+01
5.500000e-07	-4.912389e-06	-1.175407e-09	-3.417027e+01	-7.637141e+01
5.600000e-07	-4.890740e-06	-1.189106e-09	-3.401968e+01	-7.623975e+01
5.700000e-07	-4.868791e-06	-1.169724e-09	-3.386701e+01	-7.610422e+01
5.800000e-07	-4.846486e-06	-1.174035e-09	-3.371185e+01	-7.596466e+01
5.900000e-07	-4.823769e-06	-1.185200e-09	-3.355384e+01	-7.582094e+01
6.000000e-07	-4.800678e-06	-1.158623e-09	-3.339322e+01	-7.567293e+01
6.100000e-07	-4.777365e-06	-1.142819e-09	-3.323106e+01	-7.552053e+01
6.200000e-07	-4.753815e-06	-1.162180e-09	-3.306724e+01	-7.536363e+01
6.300000e-07	-4.730030e-06	-1.145959e-09	-3.290180e+01	-7.520215e+01
6.400000e-07	-4.706023e-06	-1.130786e-09	-3.273480e+01	-7.503601e+01
6.500000e-07	-4.681715e-06	-1.151997e-09	-3.256572e+01	-7.486518e+01
6.600000e-07	-4.657009e-06	-1.154327e-09	-3.239386e+01	-7.468961e+01
6.700000e-07	-4.631780e-06	-1.132394e-09	-3.221838e+01	-7.450928e+01
6.800000e-07	-4.605914e-06	-1.143466e-09	-3.203845e+01	-7.432421e+01
6.900000e-07	-4.579444e-06	-1.146395e-09	-3.185433e+01	-7.413441e+01
7.000000e-07	-4.552521e-06	-1.121472e-09	-3.166705e+01	-7.393993e+01
7.100000e-07	-4.525239e-06	-1.117960e-09	-3.147728e+01	-7.374081e+01
7.200000e-07	-4.497725e-06	-1.130529e-09	-3.128589e+01	-7.353715e+01
7.300000e-07	-4.470049e-06	-1.117604e-09	-3.109338e+01	-7.332904e+01
7.400000e-07	-4.442239e-06	-1.112274e-09	-3.089994e+01	-7.311659e+01
7.500000e-07	-4.414267e-06	-1.121289e-09	-3.070536e+01	-7.289992e+01
7.600000e-07	-4.386025e-06	-1.111507e-09	-3.050891e+01	-7.267920e+01
7.700000e-07	-4.357439e-06	-1.101328e-09	-3.031007e+01	-7.245457e+01
7.800000e-07	-4.328460e-06	-1.109635e-09	-3.010850e+01	-7.222620e+01
7.900000e-07	-4.299168e-06	-1.107211e-09	-2.990475e+01	-7.199428e+01
8.000000e-07	-4.269605e-06	-1.092142e-09	-2.969910e+01	-7.175899e+01
8.100000e-07	-4.239773e-06	-1.092691e-09	-2.949160e+01	-7.152052e+01
8.200000e-07	-4.209711e-06	-1.093955e-09	-2.928249e+01	-7.127909e+01
8.300000e-07	-4.179261e-06	-1.083133e-09	-2.907068e+01	-7.103489e+01
8.400000e-07	-4.148406e-06	-1.079227e-09	-2.885606e+01	-7.078811e+01
8.500000e-07	-4.117300e-06	-1.083951e-09	-2.863969e+01	-7.053896e+01
8.600000e-07	-4.085987e-06	-1.078229e-09	-2.842187e+01	-7.028763e+01
8.700000e-07	-4.054500e-06	-1.075064e-09	-2.820285e+01	-7.003430e+01
8.800000e-07	-4.022843e-06	-1.080026e-09	-2.798265e+01	-6.977915e+01
8.900000e-07	-3.990991e-06	-1.076211e-09	-2.776109e+01	-6.952234e+01
9.000000e-07	-3.958932e-06	-1.062957e-09	-2.753809e+01	-6.926402e+01
9.100000e-07	-3.926539e-06	-1.057901e-09	-2.731276e+01	-6.900431e+01
9.200000e-07	-3.893723e-06	-1.052939e-09	-2.708449e+01	-6.874333e+01
9.300000e-07	-3.860515e-06	-1.047078e-09	-2.685350e+01	-6.848117e+01
9.400000e-07	-3.826909e-06	-1.046918e-09	-2.661974e+01	-6.821789e+01
9.500000e-07	-3.792881e-06	-1.049429e-09	-2.638304e+01	-6.795353e+01
9.600000e-07	-3.758447e-06	-1.042231e-09	-2.614352e+01	-6.768812e+01
9.700000e-07	-3.723636e-06	-1.037063e-09	-2.590138e+01	-6.742165e+01
9.800000e-07	-3.688460e-06	-1.036933e-09	-2.565670e+01	-6.715407e+01
9.900000e-07	-3.652997e-06	-1.032266e-09	-2.541002e+01	-6.688532e+01
1.000000e-06	-3.617365e-06	-1.025777e-09	-2.516216e+01	-6.661531e+01
1.010000e-06	-3.581627e-06	-1.023855e-09	-2.491358e+01	-6.634392e+01
1.020000e-06	-3.545812e-06	-1.019564e-09	-2.466445e+01	-6.607099e+01
1.030000e-06	-3.509807e-06	-1.011132e-09	-2.441400e+01	-6.579636e+01
1.040000e-06	-3.473516e-06	-1.005687e-09	-2.416156e+01	-6.551981e+01
1.050000e-06	-3.436959e-06	-1.000914e-09	-2.390727e+01	-6.524112e+01
1.060000e-06	-3.400169e-06	-9.916164e-10	-2.365136e+01	-6.496004e+01
1.070000e-06	-3.363194e-06	-9.860645e-10	-2.339417e+01	-6.467628e+01
1.080000e-06	-3.325901e-06	-9.856879e-10	-2.313476e+01	-6.438956e+01
1.090000e-06	-3.288325e-06	-9.818764e-10	-2.287338e+01	-6.409954e+01
1.100000e-06	-3.250559e-06	-9.744239e-10	-2.261069e+01	-6.380592e+01
1.110000e-06	-3.212538e-06	-9.661554e-10	-2.234622e+01	-6.350833e+01
1.120000e-06	-3.174316e-06	-9.551442e-10	-2.208034e+01	-6.320642e+01
1.130000e-06	-3.135883e-06	-9.445461e-10	-2.181301e+01	-6.289983e+01
1.140000e-06	-3.097240e-06	-9.397698e-10	-2.154421e+01	-6.258817e+01
1.150000e-06	-3.058354e-06	-9.369520e-10	-2.127372e+01	-6.227109e+01
1.160000e-06	-3.019313e-06	-9.345224e-10	-2.100216e+01	-6.194820e+01
1.170000e-06	-2.980149e-06	-9.327922e-10	-2.072973e+01	-6.161913e+01
1.180000e-06	-2.940781e-06	-9.282381e-10	-2.045589e+01	-6.128352e+01
1.190000e-06	-2.901193e-06	-9.181149e-10	-2.018052e+01	-6.094100e+01
1.200000e-06	-2.861449e-06	-9.092305e-10	-1.990406e+01	-6.059122e+01
1.210000e-06	-2.821648e-06	-9.012485e-10	-1.962721e+01	-6.023386e+01
1.220000e-06	-2.781743e-06	-8.914708e-10	-1.934963e+01	-5.986859e+01
1.230000e-06	-2.741712e-06	-8.820817e-10	-1.907118e+01	-5.949511e+01
1.240000e-06	-2.701467e-06	-8.758007e-10	-1.879124e+01	-5.911314e+01
1.250000e-06	-2.660971e-06	-8.687471e-10	-1.850955e+01	-5.872241e+01
1.260000e-06	-2.620279e-06	-8.627470e-10	-1.822650e+01	-5.832268e+01
1.270000e-06	-2.579323e-06	-8.567259e-10	-1.794161e+01	-5.791375e+01
1.280000e-06	-2.538062e-06	-8.492342e-10	-1.765460e+01	-5.749542e+01
1.290000e-06	-2.496503e-06	-8.405262e-10	-1.736552e+01	-5.706751e+01
1.300000e-06	-2.454645e-06	-8.308509e-10	-1.707436e+01	-5.662989e+01
1.310000e-06	-2.412434e-06	-8.204866e-10	-1.678074e+01	-5.618244e+01
1.320000e-06	-2.369897e-06	-8.088215e-10	-1.648486e+01	-5.572506e+01
1.330000e-06	-2.327149e-06	-7.987783e-10	-1.618751e+01	-5.525769e+01
1.340000e-06	-2.284205e-06	-7.915930e-10	-1.588879e+01	-5.478026e+01
1.350000e-06	-2.241061e-06	-7.846542e-10	-1.558868e+01	-5.429275e+01
1.360000e-06	-2.197746e-06	-7.774797e-10	-1.528739e+01	-5.379514e+01
1.370000e-06	-2.154247e-06	-7.718832e-10	-1.498481e+01	-5.328744e+01
1.380000e-06	-2.110604e-06	-7.675446e-10	-1.468123e+01	-5.276965e+01
1.390000e-06	-2.066920e-06	-7.611097e-10	-1.437737e+01	-5.224182e+01
1.400000e-06	-2.023155e-06	-7.519455e-10	-1.407294e+01	-5.170397e+01
1.410000e-06	-1.979315e-06	-7.416063e-10	-1.376799e+01	-5.115615e+01
1.420000e-06	-1.935419e-06	-7.310202e-10	-1.346265e+01	-5.059839e+01
1.430000e-06	-1.891443e-06	-7.219360e-10	-1.315676e+01	-5.003073e+01
1.440000e-06	-1.847375e-06	-7.143203e-10	-1.285023e+01	-4.945322e+01
1.450000e-06	-1.803226e-06	-7.064778e-10	-1.254313e+01	-4.886588e+01
1.460000e-06	-1.758937e-06	-6.979218e-10	-1.223505e+01	-4.826873e+01
1.470000e-06	-1.714474e-06	-6.890483e-10	-1.192577e+01	-4.766177e+01
1.480000e-06	-1.669896e-06	-6.787173e-10	-1.161569e+01	-4.704499e+01
1.490000e-06	-1.625162e-06	-6.679347e-10	-1.130452e+01	-4.641836e+01
1.500000e-06	-1.580273e-06	-6.587767e-10	-1.099228e+01	-4.578183e+01
1.510000e-06	-1.535238e-06	-6.486458e-10	-1.067902e+01	-4.513532e+01
1.520000e-06	-1.490088e-06	-6.354964e-10	-1.036496e+01	-4.447872e+01
1.530000e-06	-1.444834e-06	-6.203140e-10	-1.005017e+01	-4.381190e+01
1.540000e-06	-1.399483e-06	-6.051932e-10	-9.734714e+00	-4.313470e+01
1.550000e-06	-1.354079e-06	-5.918664e-10	-9.418887e+00	-4.244693e+01
1.560000e-06	-1.308604e-06	-5.800817e-10	-9.102571e+00	-4.174836e+01
1.570000e-06	-1.262973e-06	-5.714512e-10	-8.785161e+00	-4.103873e+01
1.580000e-06	-1.217209e-06	-5.641448e-10	-8.466833e+00	-4.031776e+01
1.590000e-06	-1.171389e-06	-5.541794e-10	-8.148112e+00	-3.958514e+01
1.600000e-06	-1.125541e-06	-5.417199e-10	-7.829194e+00	-3.884052e+01
1.610000e-06	-1.079703e-06	-5.288018e-10	-7.510348e+00	-3.808352e+01
1.620000e-06	-1.033743e-06	-5.149119e-10	-7.190649e+00	-3.731375e+01
1.630000e-06	-9.876314e-07	-5.023332e-10	-6.869902e+00	-3.653078e+01
1.640000e-06	-9.415003e-07	-4.898001e-10	-6.549017e+00	-3.573419e+01
1.650000e-06	-8.953381e-07	-4.769534e-10	-6.227916e+00	-3.492350e+01
1.660000e-06	-8.490974e-07	-4.652063e-10	-5.906268e+00	-3.409826e+01
1.670000e-06	-8.027653e-07	-4.533172e-10	-5.583986e+00	-3.325799e+01
1.680000e-06	-7.563380e-07	-4.404234e-10	-5.261040e+00	-3.240220e+01
1.690000e-06	-7.099123e-07	-4.272569e-10	-4.938106e+00	-3.153042e+01
1.700000e-06	-6.634893e-07	-4.141854e-10	-4.615190e+00	-3.064218e+01
1.710000e-06	-6.170127e-07	-3.982408e-10	-4.291902e+00	-2.973702e+01
1.720000e-06	-5.704826e-07	-3.794709e-10	-3.968242e+00	-2.881449e+01
1.730000e-06	-5.239416e-07	-3.599796e-10	-3.644505e+00	-2.787418e+01
1.740000e-06	-4.774584e-07	-3.418618e-10	-3.321171e+00	-2.691569e+01
1.750000e-06	-4.308739e-07	-3.267876e-10	-2.997132e+00	-2.593867e+01
1.760000e-06	-3.841498e-07	-3.130394e-10	-2.672122e+00	-2.494280e+01
1.770000e-06	-3.373607e-07	-2.998475e-10	-2.346660e+00	-2.392782e+01
1.780000e-06	-2.905917e-07	-2.882093e-10	-2.021338e+00	-2.289350e+01
1.790000e-06	-2.438853e-07	-2.752067e-10	-1.696451e+00	-2.183968e+01
1.800000e-06	-1.970759e-07	-2.570224e-10	-1.370847e+00	-2.076626e+01
1.810000e-06	-1.502287e-07	-2.350735e-10	-1.044982e+00	-1.967319e+01
1.820000e-06	-1.034065e-07	-2.136051e-10	-7.192889e-01	-1.856053e+01
1.830000e-06	-5.658026e-08	-1.948381e-10	-3.935688e-01	-1.742836e+01
1.840000e-06	-9.738110e-09	-1.785374e-10	-6.773769e-02	-1.627688e+01
1.850000e-06	3.708896e-08	-1.648158e-10	2.579885e-01	-1.510634e+01
1.860000e-06	8.381938e-08	-1.537489e-10	5.830424e-01	-1.391710e+01
1.870000e-06	1.305618e-07	-1.405316e-10	9.081799e-01	-1.270958e+01
1.880000e-06	1.773692e-07	-1.233716e-10	1.233769e+00	-1.148429e+01
1.890000e-06	2.241374e-07	-1.039879e-10	1.559086e+00	-1.024183e+01
1.900000e-06	2.708765e-07	-8.326335e-11	1.884200e+00	-8.982888e+00
1.910000e-06	3.177097e-07	-6.263876e-11	2.209969e+00	-7.708222e+00
1.920000e-06	3.646247e-07	-4.510535e-11	2.536307e+00	-6.418683e+00
1.930000e-06	4.113945e-07	-2.906502e-11	2.861634e+00	-5.115199e+00
1.940000e-06	4.579447e-07	-1.179936e-11	3.185435e+00	-3.798773e+00
1.950000e-06	5.044869e-07	5.572987e-12	3.509180e+00	-2.470485e+00
1.960000e-06	5.510476e-07	2.218677e-11	3.833053e+00	-1.131481e+00
1.970000e-06	5.975267e-07	3.847283e-11	4.156359e+00	2.170256e-01
1.980000e-06	6.440271e-07	5.626218e-11	4.479812e+00	1.573764e+00
1.990000e-06	6.905093e-07	7.695234e-11	4.803140e+00	2.937409e+00
2.000000e-06	7.367975e-07	9.912099e-11	5.125118e+00	4.306588e+00
2.010000e-06	7.829465e-07	1.205228e-10	5.446127e+00	5.679888e+00
2.020000e-06	8.290624e-07	1.394377e-10	5.766906e+00	7.055863e+00
2.030000e-06	8.752042e-07	1.570182e-10	6.087866e+00	8.433040e+00
2.040000e-06	9.213423e-07	1.754780e-10	6.408800e+00	9.809927e+00
2.050000e-06	9.674212e-07	1.928859e-10	6.729322e+00	1.118502e+01
2.060000e-06	1.013472e-06	2.098309e-10	7.049648e+00	1.255682e+01
2.070000e-06	1.059474e-06	2.291780e-10	7.369633e+00	1.392383e+01
2.080000e-06	1.105388e-06	2.500870e-10	7.689008e+00	1.528455e+01
2.090000e-06	1.151138e-06	2.696336e-10	8.007246e+00	1.663752e+01
2.100000e-06	1.196762e-06	2.884800e-10	8.324599e+00	1.798132e+01
2.110000e-06	1.242352e-06	3.074176e-10	8.641722e+00	1.931453e+01
2.120000e-06	1.287855e-06	3.254448e-10	8.958242e+00	2.063580e+01
2.130000e-06	1.333249e-06	3.423907e-10	9.273994e+00	2.194383e+01
2.140000e-06	1.378578e-06	3.593156e-10	9.589301e+00	2.323738e+01
2.150000e-06	1.423831e-06	3.760684e-10	9.904079e+00	2.451526e+01
2.160000e-06	1.468900e-06	3.926177e-10	1.021758e+01	2.577635e+01
2.170000e-06	1.513822e-06	4.097291e-10	1.053005e+01	2.701963e+01
2.180000e-06	1.558666e-06	4.258126e-10	1.084198e+01	2.824413e+01
2.190000e-06	1.603437e-06	4.402776e-10	1.115341e+01	2.944898e+01
2.200000e-06	1.648155e-06	4.555172e-10	1.146446e+01	3.063340e+01
2.210000e-06	1.692751e-06	4.726590e-10	1.177467e+01	3.179668e+01
2.220000e-06	1.737198e-06	4.904841e-10	1.208384e+01	3.293822e+01
2.230000e-06	1.781534e-06	5.074065e-10	1.239224e+01	3.405752e+01
2.240000e-06	1.825803e-06	5.223323e-10	1.270017e+01	3.515414e+01
2.250000e-06	1.869950e-06	5.339549e-10	1.300726e+01	3.622778e+01
2.260000e-06	1.913908e-06	5.434770e-10	1.331303e+01	3.727819e+01
2.270000e-06	1.957747e-06	5.548877e-10	1.361797e+01	3.830525e+01
2.280000e-06	2.001557e-06	5.678398e-10	1.392271e+01	3.930889e+01
2.290000e-06	2.045279e-06	5.812911e-10	1.422683e+01	4.028916e+01
2.300000e-06	2.088886e-06	5.951551e-10	1.453016e+01	4.124618e+01
2.310000e-06	2.132426e-06	6.084856e-10	1.483303e+01	4.218015e+01
2.320000e-06	2.175885e-06	6.205151e-10	1.513532e+01	4.309135e+01
2.330000e-06	2.219223e-06	6.315661e-10	1.543678e+01	4.398011e+01
2.340000e-06	2.262360e-06	6.433719e-10	1.573684e+01	4.484687e+01
2.350000e-06	2.305367e-06	6.573190e-10	1.603599e+01	4.569207e+01
2.360000e-06	2.348264e-06	6.713562e-10	1.633438e+01	4.651626e+01
2.370000e-06	2.390842e-06	6.825799e-10	1.663055e+01	4.732000e+01
2.380000e-06	2.433137e-06	6.916837e-10	1.692475e+01	4.810390e+01
2.390000e-06	2.475184e-06	6.999933e-10	1.721723e+01	4.886861e+01
2.400000e-06	2.516844e-06	7.094318e-10	1.750701e+01	4.961481e+01
2.410000e-06	2.558157e-06	7.219358e-10	1.779438e+01	5.034318e+01
2.420000e-06	2.599241e-06	7.378447e-10	1.808016e+01	5.105444e+01
2.430000e-06	2.640114e-06	7.534315e-10	1.836447e+01	5.174929e+01
2.440000e-06	2.680801e-06	7.668701e-10	1.864749e+01	5.242847e+01
2.450000e-06	2.721249e-06	7.773927e-10	1.892884e+01	5.309267e+01
2.460000e-06	2.761366e-06	7.849444e-10	1.920789e+01	5.374260e+01
2.470000e-06	2.801306e-06	7.923269e-10	1.948571e+01	5.437893e+01
2.480000e-06	2.841147e-06	7.992837e-10	1.976284e+01	5.500234e+01
2.490000e-06	2.880826e-06	8.076017e-10	2.003885e+01	5.561345e+01
2.500000e-06	2.920394e-06	8.196070e-10	2.031408e+01	5.621287e+01
2.510000e-06	2.959857e-06	8.319405e-10	2.058858e+01	5.680115e+01
2.520000e-06	2.999114e-06	8.412777e-10	2.086165e+01	5.737885e+01
2.530000e-06	3.038157e-06	8.486637e-10	2.113323e+01	5.794643e+01
2.540000e-06	3.076983e-06	8.548815e-10	2.140331e+01	5.850434e+01
2.550000e-06	3.115566e-06	8.597828e-10	2.167168e+01	5.905298e+01
2.560000e-06	3.153931e-06	8.667107e-10	2.193855e+01	5.959270e+01
2.570000e-06	3.192085e-06	8.754553e-10	2.220395e+01	6.012381e+01
2.580000e-06	3.230034e-06	8.855349e-10	2.246792e+01	6.064655e+01
2.590000e-06	3.267861e-06	8.959381e-10	2.273104e+01	6.116115e+01
2.600000e-06	3.305459e-06	9.023177e-10	2.299256e+01	6.166775e+01
2.610000e-06	3.342762e-06	9.097170e-10	2.325205e+01	6.216647e+01
2.620000e-06	3.379830e-06	9.194783e-10	2.350989e+01	6.265740e+01
2.630000e-06	3.416649e-06	9.287450e-10	2.376600e+01	6.314055e+01
2.640000e-06	3.453213e-06	9.349361e-10	2.402033e+01	6.361593e+01
2.650000e-06	3.489548e-06	9.409700e-10	2.427308e+01	6.408350e+01
2.660000e-06	3.525716e-06	9.478199e-10	2.452466e+01	6.454317e+01
2.670000e-06	3.561698e-06	9.530988e-10	2.477495e+01	6.499485e+01
2.680000e-06	3.597526e-06	9.589714e-10	2.502416e+01	6.543841e+01
2.690000e-06	3.633164e-06	9.644887e-10	2.527207e+01	6.587371e+01
2.700000e-06	3.668603e-06	9.695463e-10	2.551858e+01	6.630058e+01
2.710000e-06	3.703847e-06	9.742268e-10	2.576373e+01	6.671884e+01
2.720000e-06	3.738816e-06	9.816398e-10	2.600697e+01	6.712833e+01
2.730000e-06	3.773569e-06	9.917334e-10	2.624871e+01	6.752884e+01
2.740000e-06	3.807930e-06	1.000700e-09	2.648772e+01	6.792020e+01
2.750000e-06	3.841738e-06	1.007529e-09	2.672289e+01	6.830222e+01
2.760000e-06	3.875129e-06	1.012088e-09	2.695516e+01	6.867474e+01
2.770000e-06	3.908136e-06	1.015225e-09	2.718475e+01	6.903759e+01
2.780000e-06	3.940725e-06	1.018571e-09	2.741144e+01	6.939063e+01
2.790000e-06	3.972970e-06	1.022053e-09	2.763573e+01	6.973374e+01
2.800000e-06	4.004962e-06	1.026232e-09	2.785827e+01	7.006682e+01
2.810000e-06	4.036768e-06	1.030671e-09	2.807951e+01	7.038979e+01
2.820000e-06	4.068382e-06	1.037197e-09	2.829941e+01	7.070261e+01
2.830000e-06	4.099787e-06	1.043358e-09	2.851786e+01	7.100526e+01
2.840000e-06	4.130956e-06	1.047802e-09	2.873467e+01	7.129775e+01
2.850000e-06	4.161823e-06	1.051621e-09	2.894938e+01	7.158012e+01
2.860000e-06	4.192414e-06	1.054782e-09	2.916217e+01	7.185245e+01
2.870000e-06	4.222677e-06	1.057475e-09	2.937268e+01	7.211486e+01
2.880000e-06	4.252639e-06	1.059635e-09	2.958109e+01	7.236749e+01
2.890000e-06	4.282341e-06	1.061960e-09	2.978770e+01	7.261052e+01
2.900000e-06	4.311736e-06	1.065940e-09	2.999217e+01	7.284415e+01
