# Temperatura_=_-2.88
# Concentracion g/m^3_=_1620.0
# C_Vs_to_Am_M_A/Vsm_=_65563218390.804596
# pendiente_HvsI_1/m_=_3716.3
# ordenada_HvsI_A/m_=_1297.0
# frecuencia_Hz_=_135095.10248233014

Tiempo_(s)	Campo_(V.s)	Magnetizacion_(V.s)	Campo_(kA/m)	Magnetizacion_(A/m)
0.000000e+00	-5.512337e-06	-1.075182e-09	-3.836846e+01	-7.059048e+01
1.000000e-08	-5.512618e-06	-1.072927e-09	-3.837042e+01	-7.057494e+01
2.000000e-08	-5.512644e-06	-1.071373e-09	-3.837060e+01	-7.055720e+01
3.000000e-08	-5.512341e-06	-1.069434e-09	-3.836849e+01	-7.053708e+01
4.000000e-08	-5.511566e-06	-1.067284e-09	-3.836309e+01	-7.051438e+01
5.000000e-08	-5.510206e-06	-1.067650e-09	-3.835363e+01	-7.048889e+01
6.000000e-08	-5.508300e-06	-1.071766e-09	-3.834036e+01	-7.046042e+01
7.000000e-08	-5.505801e-06	-1.062033e-09	-3.832296e+01	-7.042875e+01
8.000000e-08	-5.502688e-06	-1.049999e-09	-3.830130e+01	-7.039371e+01
9.000000e-08	-5.499136e-06	-1.087085e-09	-3.827657e+01	-7.035508e+01
1.000000e-07	-5.495182e-06	-1.120192e-09	-3.824905e+01	-7.031269e+01
1.100000e-07	-5.490854e-06	-1.045820e-09	-3.821892e+01	-7.026635e+01
1.200000e-07	-5.486328e-06	-1.054621e-09	-3.818742e+01	-7.021590e+01
1.300000e-07	-5.481548e-06	-1.050000e-09	-3.815415e+01	-7.016118e+01
1.400000e-07	-5.476397e-06	-1.108944e-09	-3.811829e+01	-7.010205e+01
1.500000e-07	-5.470835e-06	-1.039092e-09	-3.807958e+01	-7.003838e+01
1.600000e-07	-5.464969e-06	-1.018799e-09	-3.803875e+01	-6.997006e+01
1.700000e-07	-5.458830e-06	-1.095555e-09	-3.799603e+01	-6.989701e+01
1.800000e-07	-5.452239e-06	-1.112638e-09	-3.795015e+01	-6.981915e+01
1.900000e-07	-5.445188e-06	-1.085759e-09	-3.790107e+01	-6.973643e+01
2.000000e-07	-5.437698e-06	-1.011224e-09	-3.784894e+01	-6.964882e+01
2.100000e-07	-5.429894e-06	-1.087233e-09	-3.779462e+01	-6.955631e+01
2.200000e-07	-5.421890e-06	-1.106779e-09	-3.773890e+01	-6.945892e+01
2.300000e-07	-5.413605e-06	-1.111113e-09	-3.768124e+01	-6.935667e+01
2.400000e-07	-5.404981e-06	-1.049330e-09	-3.762121e+01	-6.924964e+01
2.500000e-07	-5.395836e-06	-1.098991e-09	-3.755755e+01	-6.913790e+01
2.600000e-07	-5.385988e-06	-1.084036e-09	-3.748901e+01	-6.902154e+01
2.700000e-07	-5.375573e-06	-1.067513e-09	-3.741651e+01	-6.890070e+01
2.800000e-07	-5.364542e-06	-1.021512e-09	-3.733973e+01	-6.877551e+01
2.900000e-07	-5.352973e-06	-1.059553e-09	-3.725921e+01	-6.864613e+01
3.000000e-07	-5.341143e-06	-1.058216e-09	-3.717687e+01	-6.851274e+01
3.100000e-07	-5.328946e-06	-1.040524e-09	-3.709197e+01	-6.837552e+01
3.200000e-07	-5.316211e-06	-1.018098e-09	-3.700333e+01	-6.823470e+01
3.300000e-07	-5.303099e-06	-1.043114e-09	-3.691206e+01	-6.809047e+01
3.400000e-07	-5.289661e-06	-1.051822e-09	-3.681852e+01	-6.794307e+01
3.500000e-07	-5.275783e-06	-1.011264e-09	-3.672193e+01	-6.779274e+01
3.600000e-07	-5.261281e-06	-1.005958e-09	-3.662099e+01	-6.763971e+01
3.700000e-07	-5.246338e-06	-1.049446e-09	-3.651698e+01	-6.748424e+01
3.800000e-07	-5.231101e-06	-1.053468e-09	-3.641092e+01	-6.732656e+01
3.900000e-07	-5.215287e-06	-9.966435e-10	-3.630085e+01	-6.716693e+01
4.000000e-07	-5.199005e-06	-1.022602e-09	-3.618752e+01	-6.700559e+01
4.100000e-07	-5.182403e-06	-1.039139e-09	-3.607196e+01	-6.684277e+01
4.200000e-07	-5.165445e-06	-9.946793e-10	-3.595393e+01	-6.667872e+01
4.300000e-07	-5.148078e-06	-9.712227e-10	-3.583305e+01	-6.651365e+01
4.400000e-07	-5.130388e-06	-1.060867e-09	-3.570991e+01	-6.634777e+01
4.500000e-07	-5.112360e-06	-1.029335e-09	-3.558443e+01	-6.618128e+01
4.600000e-07	-5.093872e-06	-9.816820e-10	-3.545574e+01	-6.601437e+01
4.700000e-07	-5.074997e-06	-1.011051e-09	-3.532437e+01	-6.584720e+01
4.800000e-07	-5.055813e-06	-1.046489e-09	-3.519083e+01	-6.567994e+01
4.900000e-07	-5.036342e-06	-9.637339e-10	-3.505531e+01	-6.551270e+01
5.000000e-07	-5.016670e-06	-9.904044e-10	-3.491838e+01	-6.534561e+01
5.100000e-07	-4.996804e-06	-1.025782e-09	-3.478011e+01	-6.517876e+01
5.200000e-07	-4.976622e-06	-9.794261e-10	-3.463963e+01	-6.501222e+01
5.300000e-07	-4.956130e-06	-9.494021e-10	-3.449699e+01	-6.484605e+01
5.400000e-07	-4.935392e-06	-1.025905e-09	-3.435265e+01	-6.468028e+01
5.500000e-07	-4.914195e-06	-9.891614e-10	-3.420511e+01	-6.451491e+01
5.600000e-07	-4.892569e-06	-9.403713e-10	-3.405458e+01	-6.434995e+01
5.700000e-07	-4.870685e-06	-9.813709e-10	-3.390225e+01	-6.418535e+01
5.800000e-07	-4.848505e-06	-9.980329e-10	-3.374788e+01	-6.402108e+01
5.900000e-07	-4.825976e-06	-9.369609e-10	-3.359106e+01	-6.385706e+01
6.000000e-07	-4.803085e-06	-9.604345e-10	-3.343173e+01	-6.369321e+01
6.100000e-07	-4.779822e-06	-9.879975e-10	-3.326981e+01	-6.352943e+01
6.200000e-07	-4.756231e-06	-9.439553e-10	-3.310560e+01	-6.336561e+01
6.300000e-07	-4.732485e-06	-9.355338e-10	-3.294032e+01	-6.320161e+01
6.400000e-07	-4.708571e-06	-9.625705e-10	-3.277387e+01	-6.303730e+01
6.500000e-07	-4.684250e-06	-9.411410e-10	-3.260458e+01	-6.287252e+01
6.600000e-07	-4.659533e-06	-9.246760e-10	-3.243254e+01	-6.270713e+01
6.700000e-07	-4.634394e-06	-9.506703e-10	-3.225756e+01	-6.254095e+01
6.800000e-07	-4.608776e-06	-9.352520e-10	-3.207925e+01	-6.237381e+01
6.900000e-07	-4.582697e-06	-9.207229e-10	-3.189773e+01	-6.220554e+01
7.000000e-07	-4.556058e-06	-9.334605e-10	-3.171231e+01	-6.203597e+01
7.100000e-07	-4.528968e-06	-9.373579e-10	-3.152375e+01	-6.186492e+01
7.200000e-07	-4.501566e-06	-9.113338e-10	-3.133301e+01	-6.169223e+01
7.300000e-07	-4.473896e-06	-9.206191e-10	-3.114042e+01	-6.151772e+01
7.400000e-07	-4.446025e-06	-9.196947e-10	-3.094643e+01	-6.134123e+01
7.500000e-07	-4.417918e-06	-9.156017e-10	-3.075079e+01	-6.116262e+01
7.600000e-07	-4.389541e-06	-9.098301e-10	-3.055327e+01	-6.098172e+01
7.700000e-07	-4.360925e-06	-9.179906e-10	-3.035409e+01	-6.079841e+01
7.800000e-07	-4.332006e-06	-9.011884e-10	-3.015280e+01	-6.061255e+01
7.900000e-07	-4.302753e-06	-9.024844e-10	-2.994918e+01	-6.042403e+01
8.000000e-07	-4.273209e-06	-9.018865e-10	-2.974354e+01	-6.023273e+01
8.100000e-07	-4.243332e-06	-8.992807e-10	-2.953559e+01	-6.003856e+01
8.200000e-07	-4.213197e-06	-8.893644e-10	-2.932583e+01	-5.984144e+01
8.300000e-07	-4.182903e-06	-8.977695e-10	-2.911497e+01	-5.964130e+01
8.400000e-07	-4.152304e-06	-8.885087e-10	-2.890199e+01	-5.943807e+01
8.500000e-07	-4.121357e-06	-8.800279e-10	-2.868658e+01	-5.923170e+01
8.600000e-07	-4.090069e-06	-8.805340e-10	-2.846880e+01	-5.902217e+01
8.700000e-07	-4.058563e-06	-8.849539e-10	-2.824950e+01	-5.880943e+01
8.800000e-07	-4.026876e-06	-8.753124e-10	-2.802895e+01	-5.859348e+01
8.900000e-07	-3.994982e-06	-8.766899e-10	-2.780695e+01	-5.837430e+01
9.000000e-07	-3.962989e-06	-8.776802e-10	-2.758426e+01	-5.815190e+01
9.100000e-07	-3.930815e-06	-8.644766e-10	-2.736032e+01	-5.792627e+01
9.200000e-07	-3.898264e-06	-8.533751e-10	-2.713375e+01	-5.769743e+01
9.300000e-07	-3.865358e-06	-8.519532e-10	-2.690471e+01	-5.746539e+01
9.400000e-07	-3.832131e-06	-8.450853e-10	-2.667344e+01	-5.723017e+01
9.500000e-07	-3.798382e-06	-8.370457e-10	-2.643852e+01	-5.699180e+01
9.600000e-07	-3.764072e-06	-8.435467e-10	-2.619971e+01	-5.675029e+01
9.700000e-07	-3.729336e-06	-8.429897e-10	-2.595793e+01	-5.650565e+01
9.800000e-07	-3.694333e-06	-8.367090e-10	-2.571430e+01	-5.625791e+01
9.900000e-07	-3.659131e-06	-8.293524e-10	-2.546927e+01	-5.600708e+01
1.000000e-06	-3.623609e-06	-8.246167e-10	-2.522202e+01	-5.575316e+01
1.010000e-06	-3.587850e-06	-8.067268e-10	-2.497312e+01	-5.549617e+01
1.020000e-06	-3.552020e-06	-7.985879e-10	-2.472373e+01	-5.523608e+01
1.030000e-06	-3.516075e-06	-7.953488e-10	-2.447353e+01	-5.497288e+01
1.040000e-06	-3.479945e-06	-7.949187e-10	-2.422205e+01	-5.470657e+01
1.050000e-06	-3.443524e-06	-7.905518e-10	-2.396854e+01	-5.443709e+01
1.060000e-06	-3.406778e-06	-7.940703e-10	-2.371277e+01	-5.416441e+01
1.070000e-06	-3.369794e-06	-7.871059e-10	-2.345535e+01	-5.388847e+01
1.080000e-06	-3.332629e-06	-7.777066e-10	-2.319666e+01	-5.360921e+01
1.090000e-06	-3.295295e-06	-7.673060e-10	-2.293680e+01	-5.332655e+01
1.100000e-06	-3.257688e-06	-7.608316e-10	-2.267504e+01	-5.304040e+01
1.110000e-06	-3.219785e-06	-7.472476e-10	-2.241122e+01	-5.275067e+01
1.120000e-06	-3.181710e-06	-7.422278e-10	-2.214620e+01	-5.245724e+01
1.130000e-06	-3.143412e-06	-7.400898e-10	-2.187963e+01	-5.215999e+01
1.140000e-06	-3.104834e-06	-7.384033e-10	-2.161110e+01	-5.185880e+01
1.150000e-06	-3.066024e-06	-7.314613e-10	-2.134097e+01	-5.155351e+01
1.160000e-06	-3.027110e-06	-7.253158e-10	-2.107011e+01	-5.124399e+01
1.170000e-06	-2.988078e-06	-7.175890e-10	-2.079843e+01	-5.093007e+01
1.180000e-06	-2.948853e-06	-7.109667e-10	-2.052540e+01	-5.061160e+01
1.190000e-06	-2.909416e-06	-7.049977e-10	-2.025090e+01	-5.028840e+01
1.200000e-06	-2.869752e-06	-6.986883e-10	-1.997483e+01	-4.996029e+01
1.210000e-06	-2.829949e-06	-6.930525e-10	-1.969778e+01	-4.962710e+01
1.220000e-06	-2.790048e-06	-6.899792e-10	-1.942005e+01	-4.928865e+01
1.230000e-06	-2.749989e-06	-6.866623e-10	-1.914122e+01	-4.894476e+01
1.240000e-06	-2.709756e-06	-6.783175e-10	-1.886117e+01	-4.859523e+01
1.250000e-06	-2.669327e-06	-6.718689e-10	-1.857977e+01	-4.823990e+01
1.260000e-06	-2.628690e-06	-6.672191e-10	-1.829692e+01	-4.787857e+01
1.270000e-06	-2.587879e-06	-6.636423e-10	-1.801285e+01	-4.751107e+01
1.280000e-06	-2.546857e-06	-6.581158e-10	-1.772732e+01	-4.713722e+01
1.290000e-06	-2.505644e-06	-6.523283e-10	-1.744046e+01	-4.675685e+01
1.300000e-06	-2.464117e-06	-6.430635e-10	-1.715141e+01	-4.636979e+01
1.310000e-06	-2.422132e-06	-6.350991e-10	-1.685918e+01	-4.597588e+01
1.320000e-06	-2.379838e-06	-6.263862e-10	-1.656479e+01	-4.557495e+01
1.330000e-06	-2.337354e-06	-6.192715e-10	-1.626909e+01	-4.516687e+01
1.340000e-06	-2.294614e-06	-6.139572e-10	-1.597159e+01	-4.475148e+01
1.350000e-06	-2.251536e-06	-6.105663e-10	-1.567175e+01	-4.432864e+01
1.360000e-06	-2.208279e-06	-6.015150e-10	-1.537066e+01	-4.389822e+01
1.370000e-06	-2.164845e-06	-5.930108e-10	-1.506834e+01	-4.346009e+01
1.380000e-06	-2.121268e-06	-5.847095e-10	-1.476502e+01	-4.301412e+01
1.390000e-06	-2.077635e-06	-5.800629e-10	-1.446132e+01	-4.256019e+01
1.400000e-06	-2.033871e-06	-5.735725e-10	-1.415670e+01	-4.209818e+01
1.410000e-06	-1.990033e-06	-5.688878e-10	-1.385156e+01	-4.162799e+01
1.420000e-06	-1.946097e-06	-5.605355e-10	-1.354575e+01	-4.114949e+01
1.430000e-06	-1.902094e-06	-5.513570e-10	-1.323947e+01	-4.066258e+01
1.440000e-06	-1.858055e-06	-5.425035e-10	-1.293294e+01	-4.016715e+01
1.450000e-06	-1.813899e-06	-5.348391e-10	-1.262559e+01	-3.966307e+01
1.460000e-06	-1.769627e-06	-5.258846e-10	-1.231743e+01	-3.915024e+01
1.470000e-06	-1.725191e-06	-5.190105e-10	-1.200814e+01	-3.862854e+01
1.480000e-06	-1.680597e-06	-5.113696e-10	-1.169774e+01	-3.809785e+01
1.490000e-06	-1.635933e-06	-5.010311e-10	-1.138686e+01	-3.755803e+01
1.500000e-06	-1.591087e-06	-4.910410e-10	-1.107471e+01	-3.700896e+01
1.510000e-06	-1.546134e-06	-4.818328e-10	-1.076182e+01	-3.645048e+01
1.520000e-06	-1.501186e-06	-4.692164e-10	-1.044896e+01	-3.588246e+01
1.530000e-06	-1.456135e-06	-4.558232e-10	-1.013538e+01	-3.530472e+01
1.540000e-06	-1.410932e-06	-4.448857e-10	-9.820752e+00	-3.471711e+01
1.550000e-06	-1.365628e-06	-4.348309e-10	-9.505416e+00	-3.411945e+01
1.560000e-06	-1.320258e-06	-4.258223e-10	-9.189614e+00	-3.351154e+01
1.570000e-06	-1.274736e-06	-4.158019e-10	-8.872765e+00	-3.289319e+01
1.580000e-06	-1.229073e-06	-4.079359e-10	-8.554922e+00	-3.226420e+01
1.590000e-06	-1.183346e-06	-4.001706e-10	-8.236642e+00	-3.162433e+01
1.600000e-06	-1.137543e-06	-3.904292e-10	-7.917835e+00	-3.097337e+01
1.610000e-06	-1.091720e-06	-3.792221e-10	-7.598885e+00	-3.031109e+01
1.620000e-06	-1.045789e-06	-3.693342e-10	-7.279180e+00	-2.963723e+01
1.630000e-06	-9.996803e-07	-3.579513e-10	-6.958245e+00	-2.895156e+01
1.640000e-06	-9.535716e-07	-3.455179e-10	-6.637307e+00	-2.825383e+01
1.650000e-06	-9.074287e-07	-3.322966e-10	-6.316130e+00	-2.754377e+01
1.660000e-06	-8.611668e-07	-3.225557e-10	-5.994126e+00	-2.682113e+01
1.670000e-06	-8.148381e-07	-3.139152e-10	-5.671656e+00	-2.608567e+01
1.680000e-06	-7.685036e-07	-3.059062e-10	-5.349146e+00	-2.533713e+01
1.690000e-06	-7.221655e-07	-2.953669e-10	-5.026611e+00	-2.457527e+01
1.700000e-06	-6.758622e-07	-2.841700e-10	-4.704319e+00	-2.379985e+01
1.710000e-06	-6.294982e-07	-2.694129e-10	-4.381604e+00	-2.301066e+01
1.720000e-06	-5.830115e-07	-2.529930e-10	-4.058034e+00	-2.220749e+01
1.730000e-06	-5.365023e-07	-2.361164e-10	-3.734308e+00	-2.139014e+01
1.740000e-06	-4.899833e-07	-2.227990e-10	-3.410514e+00	-2.055845e+01
1.750000e-06	-4.433798e-07	-2.121605e-10	-3.086132e+00	-1.971228e+01
1.760000e-06	-3.966594e-07	-2.020862e-10	-2.760936e+00	-1.885151e+01
1.770000e-06	-3.499349e-07	-1.909334e-10	-2.435711e+00	-1.797604e+01
1.780000e-06	-3.032566e-07	-1.798998e-10	-2.110808e+00	-1.708583e+01
1.790000e-06	-2.565803e-07	-1.679064e-10	-1.785919e+00	-1.618084e+01
1.800000e-06	-2.097266e-07	-1.509334e-10	-1.459796e+00	-1.526111e+01
1.810000e-06	-1.628163e-07	-1.332176e-10	-1.133278e+00	-1.432668e+01
1.820000e-06	-1.160376e-07	-1.175074e-10	-8.076760e-01	-1.337766e+01
1.830000e-06	-6.927200e-08	-1.036635e-10	-4.821657e-01	-1.241419e+01
1.840000e-06	-2.243233e-08	-9.126030e-11	-1.561396e-01	-1.143648e+01
1.850000e-06	2.438220e-08	-7.995242e-11	1.697116e-01	-1.044475e+01
1.860000e-06	7.110519e-08	-6.988678e-11	4.949256e-01	-9.439302e+00
1.870000e-06	1.178691e-07	-5.782998e-11	8.204246e-01	-8.420479e+00
1.880000e-06	1.646412e-07	-4.470911e-11	1.145980e+00	-7.388674e+00
1.890000e-06	2.114200e-07	-3.125073e-11	1.471582e+00	-6.344331e+00
1.900000e-06	2.582452e-07	-1.544100e-11	1.797508e+00	-5.287947e+00
1.910000e-06	3.049808e-07	-2.088019e-13	2.122810e+00	-4.220071e+00
1.920000e-06	3.516665e-07	1.481793e-11	2.447764e+00	-3.141300e+00
1.930000e-06	3.983528e-07	2.678954e-11	2.772722e+00	-2.052282e+00
1.940000e-06	4.449321e-07	3.797235e-11	3.096937e+00	-9.537106e-01
1.950000e-06	4.914733e-07	4.760179e-11	3.420885e+00	1.536734e-01
1.960000e-06	5.379838e-07	5.903182e-11	3.744620e+00	1.269087e+00
1.970000e-06	5.844169e-07	7.283411e-11	4.067816e+00	2.391708e+00
1.980000e-06	6.307906e-07	8.946854e-11	4.390599e+00	3.520673e+00
1.990000e-06	6.771191e-07	1.076571e-10	4.713067e+00	4.655089e+00
2.000000e-06	7.234560e-07	1.251864e-10	5.035594e+00	5.794031e+00
2.010000e-06	7.696658e-07	1.405966e-10	5.357236e+00	6.936545e+00
2.020000e-06	8.157643e-07	1.540431e-10	5.678103e+00	8.081659e+00
2.030000e-06	8.619369e-07	1.670752e-10	5.999486e+00	9.228379e+00
2.040000e-06	9.081304e-07	1.813741e-10	6.321015e+00	1.037570e+01
2.050000e-06	9.542556e-07	1.957805e-10	6.642068e+00	1.152260e+01
2.060000e-06	1.000301e-06	2.108065e-10	6.962562e+00	1.266807e+01
2.070000e-06	1.046227e-06	2.281126e-10	7.282232e+00	1.381109e+01
2.080000e-06	1.092048e-06	2.454902e-10	7.601168e+00	1.495064e+01
2.090000e-06	1.137786e-06	2.595428e-10	7.919523e+00	1.608573e+01
2.100000e-06	1.183423e-06	2.731592e-10	8.237180e+00	1.721535e+01
2.110000e-06	1.228989e-06	2.883063e-10	8.554338e+00	1.833855e+01
2.120000e-06	1.274501e-06	3.030200e-10	8.871125e+00	1.945437e+01
2.130000e-06	1.319983e-06	3.183163e-10	9.187703e+00	2.056190e+01
2.140000e-06	1.365330e-06	3.336710e-10	9.503337e+00	2.166027e+01
2.150000e-06	1.410560e-06	3.475243e-10	9.818161e+00	2.274861e+01
2.160000e-06	1.455737e-06	3.595108e-10	1.013261e+01	2.382612e+01
2.170000e-06	1.500734e-06	3.739434e-10	1.044582e+01	2.489203e+01
2.180000e-06	1.545589e-06	3.893921e-10	1.075802e+01	2.594564e+01
2.190000e-06	1.590397e-06	4.035894e-10	1.106991e+01	2.698626e+01
2.200000e-06	1.635080e-06	4.182307e-10	1.138093e+01	2.801328e+01
2.210000e-06	1.679593e-06	4.327344e-10	1.169076e+01	2.902614e+01
2.220000e-06	1.723988e-06	4.459688e-10	1.199977e+01	3.002432e+01
2.230000e-06	1.768275e-06	4.583908e-10	1.230803e+01	3.100737e+01
2.240000e-06	1.812487e-06	4.694687e-10	1.261576e+01	3.197489e+01
2.250000e-06	1.856628e-06	4.805843e-10	1.292300e+01	3.292654e+01
2.260000e-06	1.900672e-06	4.914380e-10	1.322957e+01	3.386203e+01
2.270000e-06	1.944635e-06	5.031382e-10	1.353558e+01	3.478114e+01
2.280000e-06	1.988524e-06	5.146658e-10	1.384106e+01	3.568368e+01
2.290000e-06	2.032364e-06	5.261556e-10	1.414621e+01	3.656953e+01
2.300000e-06	2.076133e-06	5.373994e-10	1.445086e+01	3.743863e+01
2.310000e-06	2.119811e-06	5.486175e-10	1.475488e+01	3.829096e+01
2.320000e-06	2.163421e-06	5.601176e-10	1.505843e+01	3.912655e+01
2.330000e-06	2.206836e-06	5.716110e-10	1.536062e+01	3.994546e+01
2.340000e-06	2.250048e-06	5.817566e-10	1.566139e+01	4.074782e+01
2.350000e-06	2.293050e-06	5.910894e-10	1.596070e+01	4.153377e+01
2.360000e-06	2.335764e-06	6.013360e-10	1.625802e+01	4.230351e+01
2.370000e-06	2.378214e-06	6.109802e-10	1.655349e+01	4.305726e+01
2.380000e-06	2.420495e-06	6.185538e-10	1.684778e+01	4.379527e+01
2.390000e-06	2.462584e-06	6.268286e-10	1.714075e+01	4.451782e+01
2.400000e-06	2.504245e-06	6.373353e-10	1.743072e+01	4.522519e+01
2.410000e-06	2.545485e-06	6.492037e-10	1.771777e+01	4.591772e+01
2.420000e-06	2.586493e-06	6.614642e-10	1.800321e+01	4.659571e+01
2.430000e-06	2.627357e-06	6.717134e-10	1.828764e+01	4.725952e+01
2.440000e-06	2.667961e-06	6.799576e-10	1.857027e+01	4.790949e+01
2.450000e-06	2.708287e-06	6.894019e-10	1.885095e+01	4.854595e+01
2.460000e-06	2.748465e-06	6.999820e-10	1.913061e+01	4.916927e+01
2.470000e-06	2.788503e-06	7.099819e-10	1.940929e+01	4.977978e+01
2.480000e-06	2.828377e-06	7.173262e-10	1.968683e+01	5.037782e+01
2.490000e-06	2.868125e-06	7.206697e-10	1.996350e+01	5.096372e+01
2.500000e-06	2.907783e-06	7.267036e-10	2.023954e+01	5.153778e+01
2.510000e-06	2.947279e-06	7.350856e-10	2.051445e+01	5.210032e+01
2.520000e-06	2.986552e-06	7.447660e-10	2.078780e+01	5.265162e+01
2.530000e-06	3.025574e-06	7.538259e-10	2.105941e+01	5.319195e+01
2.540000e-06	3.064389e-06	7.626803e-10	2.132959e+01	5.372156e+01
2.550000e-06	3.102989e-06	7.667408e-10	2.159826e+01	5.424068e+01
2.560000e-06	3.141301e-06	7.680635e-10	2.186493e+01	5.474951e+01
2.570000e-06	3.179478e-06	7.721084e-10	2.213066e+01	5.524825e+01
2.580000e-06	3.217564e-06	7.791490e-10	2.239576e+01	5.573706e+01
2.590000e-06	3.255428e-06	7.860814e-10	2.265931e+01	5.621609e+01
2.600000e-06	3.293121e-06	7.929475e-10	2.292167e+01	5.668547e+01
2.610000e-06	3.330579e-06	8.010083e-10	2.318239e+01	5.714531e+01
2.620000e-06	3.367662e-06	8.086197e-10	2.344051e+01	5.759569e+01
2.630000e-06	3.404450e-06	8.148639e-10	2.369657e+01	5.803668e+01
2.640000e-06	3.440979e-06	8.183994e-10	2.395083e+01	5.846833e+01
2.650000e-06	3.477293e-06	8.222885e-10	2.420359e+01	5.889070e+01
2.660000e-06	3.513487e-06	8.285837e-10	2.445552e+01	5.930380e+01
2.670000e-06	3.549532e-06	8.346949e-10	2.470641e+01	5.970765e+01
2.680000e-06	3.585454e-06	8.378074e-10	2.495645e+01	6.010226e+01
2.690000e-06	3.621253e-06	8.411315e-10	2.520562e+01	6.048762e+01
2.700000e-06	3.656810e-06	8.479711e-10	2.545311e+01	6.086374e+01
2.710000e-06	3.692041e-06	8.559632e-10	2.569834e+01	6.123061e+01
2.720000e-06	3.727014e-06	8.630118e-10	2.594177e+01	6.158821e+01
2.730000e-06	3.761661e-06	8.725142e-10	2.618293e+01	6.193654e+01
2.740000e-06	3.795862e-06	8.803108e-10	2.642098e+01	6.227560e+01
2.750000e-06	3.829632e-06	8.836884e-10	2.665604e+01	6.260539e+01
2.760000e-06	3.862931e-06	8.845727e-10	2.688781e+01	6.292591e+01
2.770000e-06	3.895728e-06	8.870522e-10	2.711609e+01	6.323719e+01
2.780000e-06	3.928193e-06	8.915502e-10	2.734207e+01	6.353924e+01
2.790000e-06	3.960472e-06	8.977143e-10	2.756675e+01	6.383212e+01
2.800000e-06	3.992526e-06	9.033935e-10	2.778986e+01	6.411586e+01
2.810000e-06	4.024418e-06	9.091356e-10	2.801184e+01	6.439053e+01
2.820000e-06	4.056134e-06	9.154911e-10	2.823260e+01	6.465621e+01
2.830000e-06	4.087591e-06	9.185823e-10	2.845156e+01	6.491300e+01
2.840000e-06	4.118839e-06	9.204533e-10	2.866906e+01	6.516099e+01
2.850000e-06	4.149947e-06	9.203567e-10	2.888558e+01	6.540032e+01
2.860000e-06	4.180730e-06	9.211181e-10	2.909985e+01	6.563113e+01
2.870000e-06	4.211118e-06	9.229751e-10	2.931136e+01	6.585356e+01
2.880000e-06	4.241198e-06	9.243797e-10	2.952073e+01	6.606778e+01
2.890000e-06	4.270927e-06	9.282177e-10	2.972766e+01	6.627398e+01
2.900000e-06	4.300365e-06	9.340404e-10	2.993256e+01	6.647236e+01
