# Temperatura_=_-0.3
# Concentracion g/m^3_=_1620.0
# C_Vs_to_Am_M_A/Vsm_=_65563218390.804596
# pendiente_HvsI_1/m_=_3716.3
# ordenada_HvsI_A/m_=_1297.0
# frecuencia_Hz_=_135109.69340385537

Tiempo_(s)	Campo_(V.s)	Magnetizacion_(V.s)	Campo_(kA/m)	Magnetizacion_(A/m)
0.000000e+00	-5.504877e-06	-1.319842e-09	-3.836378e+01	-8.596082e+01
1.000000e-08	-5.505253e-06	-1.319345e-09	-3.836640e+01	-8.599669e+01
2.000000e-08	-5.505350e-06	-1.317767e-09	-3.836708e+01	-8.603175e+01
3.000000e-08	-5.505115e-06	-1.315847e-09	-3.836544e+01	-8.606577e+01
4.000000e-08	-5.504438e-06	-1.313333e-09	-3.836072e+01	-8.609848e+01
5.000000e-08	-5.503256e-06	-1.311364e-09	-3.835248e+01	-8.612966e+01
6.000000e-08	-5.501429e-06	-1.314513e-09	-3.833975e+01	-8.615901e+01
7.000000e-08	-5.498990e-06	-1.297686e-09	-3.832276e+01	-8.618628e+01
8.000000e-08	-5.496013e-06	-1.262199e-09	-3.830201e+01	-8.621118e+01
9.000000e-08	-5.492564e-06	-1.282171e-09	-3.827797e+01	-8.623342e+01
1.000000e-07	-5.488706e-06	-1.345122e-09	-3.825108e+01	-8.625273e+01
1.100000e-07	-5.484403e-06	-1.324108e-09	-3.822110e+01	-8.626881e+01
1.200000e-07	-5.479835e-06	-1.267748e-09	-3.818926e+01	-8.628139e+01
1.300000e-07	-5.475140e-06	-1.246663e-09	-3.815654e+01	-8.629018e+01
1.400000e-07	-5.470149e-06	-1.318536e-09	-3.812176e+01	-8.629494e+01
1.500000e-07	-5.464624e-06	-1.301357e-09	-3.808326e+01	-8.629539e+01
1.600000e-07	-5.458638e-06	-1.243926e-09	-3.804154e+01	-8.629130e+01
1.700000e-07	-5.452399e-06	-1.258294e-09	-3.799806e+01	-8.628244e+01
1.800000e-07	-5.445819e-06	-1.321882e-09	-3.795221e+01	-8.626859e+01
1.900000e-07	-5.438842e-06	-1.353918e-09	-3.790358e+01	-8.624957e+01
2.000000e-07	-5.431529e-06	-1.290220e-09	-3.785261e+01	-8.622521e+01
2.100000e-07	-5.423901e-06	-1.283909e-09	-3.779946e+01	-8.619534e+01
2.200000e-07	-5.416020e-06	-1.301567e-09	-3.774453e+01	-8.615985e+01
2.300000e-07	-5.407849e-06	-1.351004e-09	-3.768759e+01	-8.611863e+01
2.400000e-07	-5.399375e-06	-1.333041e-09	-3.762854e+01	-8.607159e+01
2.500000e-07	-5.390399e-06	-1.343936e-09	-3.756598e+01	-8.601867e+01
2.600000e-07	-5.380564e-06	-1.343299e-09	-3.749744e+01	-8.595986e+01
2.700000e-07	-5.370033e-06	-1.352858e-09	-3.742405e+01	-8.589512e+01
2.800000e-07	-5.359012e-06	-1.313855e-09	-3.734724e+01	-8.582449e+01
2.900000e-07	-5.347570e-06	-1.314316e-09	-3.726750e+01	-8.574800e+01
3.000000e-07	-5.335772e-06	-1.328558e-09	-3.718528e+01	-8.566571e+01
3.100000e-07	-5.323654e-06	-1.333749e-09	-3.710083e+01	-8.557771e+01
3.200000e-07	-5.311208e-06	-1.312293e-09	-3.701409e+01	-8.548408e+01
3.300000e-07	-5.298266e-06	-1.305649e-09	-3.692390e+01	-8.538497e+01
3.400000e-07	-5.284875e-06	-1.327722e-09	-3.683058e+01	-8.528050e+01
3.500000e-07	-5.271116e-06	-1.313761e-09	-3.673469e+01	-8.517084e+01
3.600000e-07	-5.256868e-06	-1.288387e-09	-3.663539e+01	-8.505614e+01
3.700000e-07	-5.242212e-06	-1.300086e-09	-3.653326e+01	-8.493658e+01
3.800000e-07	-5.227219e-06	-1.332972e-09	-3.642877e+01	-8.481236e+01
3.900000e-07	-5.211632e-06	-1.294537e-09	-3.632014e+01	-8.468367e+01
4.000000e-07	-5.195426e-06	-1.284254e-09	-3.620720e+01	-8.455071e+01
4.100000e-07	-5.178844e-06	-1.322686e-09	-3.609164e+01	-8.441367e+01
4.200000e-07	-5.162033e-06	-1.313277e-09	-3.597448e+01	-8.427277e+01
4.300000e-07	-5.144883e-06	-1.248846e-09	-3.585496e+01	-8.412820e+01
4.400000e-07	-5.127454e-06	-1.291240e-09	-3.573350e+01	-8.398016e+01
4.500000e-07	-5.109828e-06	-1.324841e-09	-3.561066e+01	-8.382884e+01
4.600000e-07	-5.091688e-06	-1.273126e-09	-3.548424e+01	-8.367441e+01
4.700000e-07	-5.072998e-06	-1.249824e-09	-3.535399e+01	-8.351706e+01
4.800000e-07	-5.053980e-06	-1.314082e-09	-3.522145e+01	-8.335693e+01
4.900000e-07	-5.034667e-06	-1.282031e-09	-3.508686e+01	-8.319419e+01
5.000000e-07	-5.015059e-06	-1.244018e-09	-3.495021e+01	-8.302895e+01
5.100000e-07	-4.995223e-06	-1.285487e-09	-3.481197e+01	-8.286134e+01
5.200000e-07	-4.975123e-06	-1.296926e-09	-3.467190e+01	-8.269145e+01
5.300000e-07	-4.954706e-06	-1.231737e-09	-3.452961e+01	-8.251937e+01
5.400000e-07	-4.933956e-06	-1.261092e-09	-3.438501e+01	-8.234516e+01
5.500000e-07	-4.912857e-06	-1.296790e-09	-3.423797e+01	-8.216887e+01
5.600000e-07	-4.891425e-06	-1.250598e-09	-3.408860e+01	-8.199053e+01
5.700000e-07	-4.869641e-06	-1.232832e-09	-3.393679e+01	-8.181015e+01
5.800000e-07	-4.847553e-06	-1.277583e-09	-3.378286e+01	-8.162772e+01
5.900000e-07	-4.825155e-06	-1.250689e-09	-3.362676e+01	-8.144321e+01
6.000000e-07	-4.802318e-06	-1.218290e-09	-3.346761e+01	-8.125659e+01
6.100000e-07	-4.779122e-06	-1.248545e-09	-3.330596e+01	-8.106779e+01
6.200000e-07	-4.755617e-06	-1.248043e-09	-3.314215e+01	-8.087676e+01
6.300000e-07	-4.731860e-06	-1.211648e-09	-3.297659e+01	-8.068341e+01
6.400000e-07	-4.707964e-06	-1.222901e-09	-3.281005e+01	-8.048764e+01
6.500000e-07	-4.683824e-06	-1.235766e-09	-3.264182e+01	-8.028935e+01
6.600000e-07	-4.659248e-06	-1.206088e-09	-3.247055e+01	-8.008844e+01
6.700000e-07	-4.634232e-06	-1.206039e-09	-3.229621e+01	-7.988477e+01
6.800000e-07	-4.608727e-06	-1.216922e-09	-3.211846e+01	-7.967824e+01
6.900000e-07	-4.582739e-06	-1.199667e-09	-3.193736e+01	-7.946871e+01
7.000000e-07	-4.556240e-06	-1.185768e-09	-3.175268e+01	-7.925606e+01
7.100000e-07	-4.529217e-06	-1.197418e-09	-3.156436e+01	-7.904016e+01
7.200000e-07	-4.501865e-06	-1.182303e-09	-3.137374e+01	-7.882090e+01
7.300000e-07	-4.474280e-06	-1.169287e-09	-3.118150e+01	-7.859815e+01
7.400000e-07	-4.446523e-06	-1.170228e-09	-3.098806e+01	-7.837179e+01
7.500000e-07	-4.418571e-06	-1.173397e-09	-3.079326e+01	-7.814174e+01
7.600000e-07	-4.390389e-06	-1.162606e-09	-3.059686e+01	-7.790788e+01
7.700000e-07	-4.361951e-06	-1.165337e-09	-3.039867e+01	-7.767013e+01
7.800000e-07	-4.333239e-06	-1.157288e-09	-3.019857e+01	-7.742841e+01
7.900000e-07	-4.304142e-06	-1.144316e-09	-2.999580e+01	-7.718267e+01
8.000000e-07	-4.274698e-06	-1.135910e-09	-2.979060e+01	-7.693285e+01
8.100000e-07	-4.244979e-06	-1.136654e-09	-2.958348e+01	-7.667890e+01
8.200000e-07	-4.215010e-06	-1.124291e-09	-2.937463e+01	-7.642081e+01
8.300000e-07	-4.184759e-06	-1.123325e-09	-2.916381e+01	-7.615856e+01
8.400000e-07	-4.154142e-06	-1.126780e-09	-2.895043e+01	-7.589215e+01
8.500000e-07	-4.123230e-06	-1.121924e-09	-2.873501e+01	-7.562159e+01
8.600000e-07	-4.092115e-06	-1.111589e-09	-2.851816e+01	-7.534692e+01
8.700000e-07	-4.060806e-06	-1.110271e-09	-2.829997e+01	-7.506816e+01
8.800000e-07	-4.029294e-06	-1.100964e-09	-2.808036e+01	-7.478538e+01
8.900000e-07	-3.997614e-06	-1.089307e-09	-2.785958e+01	-7.449861e+01
9.000000e-07	-3.965766e-06	-1.088541e-09	-2.763764e+01	-7.420794e+01
9.100000e-07	-3.933652e-06	-1.087925e-09	-2.741383e+01	-7.391344e+01
9.200000e-07	-3.901155e-06	-1.078613e-09	-2.718736e+01	-7.361518e+01
9.300000e-07	-3.868294e-06	-1.075029e-09	-2.695835e+01	-7.331325e+01
9.400000e-07	-3.835039e-06	-1.075730e-09	-2.672659e+01	-7.300774e+01
9.500000e-07	-3.801290e-06	-1.068577e-09	-2.649139e+01	-7.269873e+01
9.600000e-07	-3.767054e-06	-1.062997e-09	-2.625280e+01	-7.238632e+01
9.700000e-07	-3.732389e-06	-1.061271e-09	-2.601122e+01	-7.207059e+01
9.800000e-07	-3.697322e-06	-1.057866e-09	-2.576683e+01	-7.175161e+01
9.900000e-07	-3.661957e-06	-1.049034e-09	-2.552038e+01	-7.142947e+01
1.000000e-06	-3.626417e-06	-1.047494e-09	-2.527269e+01	-7.110422e+01
1.010000e-06	-3.590748e-06	-1.041468e-09	-2.502411e+01	-7.077594e+01
1.020000e-06	-3.554988e-06	-1.033782e-09	-2.477490e+01	-7.044466e+01
1.030000e-06	-3.519105e-06	-1.028190e-09	-2.452483e+01	-7.011042e+01
1.040000e-06	-3.483027e-06	-1.027040e-09	-2.427340e+01	-6.977324e+01
1.050000e-06	-3.446685e-06	-1.018036e-09	-2.402013e+01	-6.943313e+01
1.060000e-06	-3.410071e-06	-1.009537e-09	-2.376496e+01	-6.909007e+01
1.070000e-06	-3.373162e-06	-1.002100e-09	-2.350775e+01	-6.874405e+01
1.080000e-06	-3.336031e-06	-9.968129e-10	-2.324898e+01	-6.839501e+01
1.090000e-06	-3.298749e-06	-9.907545e-10	-2.298916e+01	-6.804290e+01
1.100000e-06	-3.261250e-06	-9.899157e-10	-2.272783e+01	-6.768764e+01
1.110000e-06	-3.223513e-06	-9.840751e-10	-2.246483e+01	-6.732913e+01
1.120000e-06	-3.185531e-06	-9.745599e-10	-2.220013e+01	-6.696725e+01
1.130000e-06	-3.147265e-06	-9.651290e-10	-2.193346e+01	-6.660187e+01
1.140000e-06	-3.108723e-06	-9.607049e-10	-2.166485e+01	-6.623284e+01
1.150000e-06	-3.069971e-06	-9.537934e-10	-2.139479e+01	-6.585998e+01
1.160000e-06	-3.031036e-06	-9.465769e-10	-2.112345e+01	-6.548312e+01
1.170000e-06	-2.991926e-06	-9.411738e-10	-2.085089e+01	-6.510205e+01
1.180000e-06	-2.952657e-06	-9.367133e-10	-2.057722e+01	-6.471655e+01
1.190000e-06	-2.913237e-06	-9.303795e-10	-2.030250e+01	-6.432640e+01
1.200000e-06	-2.873672e-06	-9.246439e-10	-2.002677e+01	-6.393135e+01
1.210000e-06	-2.834008e-06	-9.187274e-10	-1.975035e+01	-6.353115e+01
1.220000e-06	-2.794218e-06	-9.099875e-10	-1.947306e+01	-6.312553e+01
1.230000e-06	-2.754245e-06	-9.011531e-10	-1.919448e+01	-6.271422e+01
1.240000e-06	-2.714121e-06	-8.938939e-10	-1.891485e+01	-6.229695e+01
1.250000e-06	-2.673815e-06	-8.889184e-10	-1.863396e+01	-6.187343e+01
1.260000e-06	-2.633274e-06	-8.833694e-10	-1.835143e+01	-6.144337e+01
1.270000e-06	-2.592501e-06	-8.788959e-10	-1.806728e+01	-6.100648e+01
1.280000e-06	-2.551461e-06	-8.735583e-10	-1.778127e+01	-6.056247e+01
1.290000e-06	-2.510200e-06	-8.666881e-10	-1.749372e+01	-6.011104e+01
1.300000e-06	-2.468723e-06	-8.578068e-10	-1.720466e+01	-5.965191e+01
1.310000e-06	-2.426859e-06	-8.501570e-10	-1.691291e+01	-5.918478e+01
1.320000e-06	-2.384550e-06	-8.410259e-10	-1.661805e+01	-5.870937e+01
1.330000e-06	-2.341987e-06	-8.330224e-10	-1.632143e+01	-5.822539e+01
1.340000e-06	-2.299231e-06	-8.270591e-10	-1.602346e+01	-5.773257e+01
1.350000e-06	-2.256231e-06	-8.218571e-10	-1.572379e+01	-5.723064e+01
1.360000e-06	-2.213067e-06	-8.129138e-10	-1.542299e+01	-5.671932e+01
1.370000e-06	-2.169721e-06	-8.029306e-10	-1.512090e+01	-5.619836e+01
1.380000e-06	-2.126197e-06	-7.936661e-10	-1.481758e+01	-5.566750e+01
1.390000e-06	-2.082602e-06	-7.861011e-10	-1.451377e+01	-5.512649e+01
1.400000e-06	-2.038957e-06	-7.771633e-10	-1.420960e+01	-5.457510e+01
1.410000e-06	-1.995221e-06	-7.697538e-10	-1.390480e+01	-5.401308e+01
1.420000e-06	-1.951392e-06	-7.610272e-10	-1.359936e+01	-5.344021e+01
1.430000e-06	-1.907513e-06	-7.527427e-10	-1.329356e+01	-5.285625e+01
1.440000e-06	-1.863559e-06	-7.451968e-10	-1.298724e+01	-5.226098e+01
1.450000e-06	-1.819496e-06	-7.374190e-10	-1.268016e+01	-5.165419e+01
1.460000e-06	-1.775376e-06	-7.260705e-10	-1.237269e+01	-5.103565e+01
1.470000e-06	-1.731149e-06	-7.125383e-10	-1.206447e+01	-5.040516e+01
1.480000e-06	-1.686741e-06	-6.985320e-10	-1.175499e+01	-4.976250e+01
1.490000e-06	-1.642232e-06	-6.859738e-10	-1.144480e+01	-4.910745e+01
1.500000e-06	-1.597561e-06	-6.747683e-10	-1.113349e+01	-4.843981e+01
1.510000e-06	-1.552660e-06	-6.659852e-10	-1.082057e+01	-4.775936e+01
1.520000e-06	-1.507594e-06	-6.570506e-10	-1.050650e+01	-4.706587e+01
1.530000e-06	-1.462452e-06	-6.428014e-10	-1.019191e+01	-4.635913e+01
1.540000e-06	-1.417265e-06	-6.258563e-10	-9.876992e+00	-4.563892e+01
1.550000e-06	-1.371990e-06	-6.120958e-10	-9.561469e+00	-4.490500e+01
1.560000e-06	-1.326571e-06	-6.015977e-10	-9.244945e+00	-4.415716e+01
1.570000e-06	-1.281022e-06	-5.899554e-10	-8.927510e+00	-4.339514e+01
1.580000e-06	-1.235451e-06	-5.797569e-10	-8.609924e+00	-4.261872e+01
1.590000e-06	-1.189905e-06	-5.705994e-10	-8.292508e+00	-4.182764e+01
1.600000e-06	-1.144305e-06	-5.584878e-10	-7.974723e+00	-4.102167e+01
1.610000e-06	-1.098598e-06	-5.459126e-10	-7.656187e+00	-4.020055e+01
1.620000e-06	-1.052799e-06	-5.329708e-10	-7.337011e+00	-3.936404e+01
1.630000e-06	-1.006851e-06	-5.191453e-10	-7.016797e+00	-3.851187e+01
1.640000e-06	-9.608013e-07	-5.052327e-10	-6.695876e+00	-3.764381e+01
1.650000e-06	-9.147244e-07	-4.891074e-10	-6.374763e+00	-3.675960e+01
1.660000e-06	-8.686148e-07	-4.752462e-10	-6.053423e+00	-3.585901e+01
1.670000e-06	-8.224619e-07	-4.606485e-10	-5.731781e+00	-3.494179e+01
1.680000e-06	-7.762596e-07	-4.472968e-10	-5.409795e+00	-3.400772e+01
1.690000e-06	-7.300937e-07	-4.338061e-10	-5.088062e+00	-3.305658e+01
1.700000e-06	-6.838448e-07	-4.212914e-10	-4.765751e+00	-3.208817e+01
1.710000e-06	-6.374663e-07	-4.068559e-10	-4.442536e+00	-3.110230e+01
1.720000e-06	-5.910625e-07	-3.886092e-10	-4.119146e+00	-3.009880e+01
1.730000e-06	-5.446227e-07	-3.691176e-10	-3.795505e+00	-2.907753e+01
1.740000e-06	-4.981562e-07	-3.524543e-10	-3.471677e+00	-2.803837e+01
1.750000e-06	-4.516085e-07	-3.375381e-10	-3.147284e+00	-2.698124e+01
1.760000e-06	-4.049955e-07	-3.229780e-10	-2.822435e+00	-2.590606e+01
1.770000e-06	-3.583284e-07	-3.082159e-10	-2.497210e+00	-2.481282e+01
1.780000e-06	-3.116248e-07	-2.958011e-10	-2.171730e+00	-2.370154e+01
1.790000e-06	-2.648677e-07	-2.835092e-10	-1.845877e+00	-2.257226e+01
1.800000e-06	-2.180937e-07	-2.672487e-10	-1.519907e+00	-2.142509e+01
1.810000e-06	-1.713803e-07	-2.491188e-10	-1.194358e+00	-2.026017e+01
1.820000e-06	-1.247016e-07	-2.305181e-10	-8.690519e-01	-1.907769e+01
1.830000e-06	-7.807210e-08	-2.130330e-10	-5.440887e-01	-1.787791e+01
1.840000e-06	-3.146041e-08	-1.964574e-10	-2.192493e-01	-1.666112e+01
1.850000e-06	1.515197e-08	-1.807184e-10	1.055949e-01	-1.542768e+01
1.860000e-06	6.176102e-08	-1.666490e-10	4.304159e-01	-1.417799e+01
1.870000e-06	1.084514e-07	-1.499597e-10	7.558039e-01	-1.291253e+01
1.880000e-06	1.551878e-07	-1.318238e-10	1.081512e+00	-1.163182e+01
1.890000e-06	2.018884e-07	-1.144016e-10	1.406971e+00	-1.033645e+01
1.900000e-06	2.485697e-07	-9.580775e-11	1.732296e+00	-9.027068e+00
1.910000e-06	2.952092e-07	-7.858705e-11	2.057328e+00	-7.704375e+00
1.920000e-06	3.418416e-07	-6.104839e-11	2.382313e+00	-6.369134e+00
1.930000e-06	3.884393e-07	-4.534764e-11	2.707054e+00	-5.022162e+00
1.940000e-06	4.349838e-07	-2.838649e-11	3.031425e+00	-3.664332e+00
1.950000e-06	4.815442e-07	-1.210531e-11	3.355907e+00	-2.296569e+00
1.960000e-06	5.280550e-07	4.751055e-12	3.680044e+00	-9.198495e-01
1.970000e-06	5.744961e-07	2.319347e-11	4.003694e+00	4.648050e-01
1.980000e-06	6.209040e-07	4.416124e-11	4.327113e+00	1.856328e+00
1.990000e-06	6.672258e-07	6.653686e-11	4.649932e+00	3.253612e+00
2.000000e-06	7.134504e-07	8.825026e-11	4.972074e+00	4.655516e+00
2.010000e-06	7.596291e-07	1.082451e-10	5.293896e+00	6.060866e+00
2.020000e-06	8.057799e-07	1.270528e-10	5.615523e+00	7.468459e+00
2.030000e-06	8.518904e-07	1.450002e-10	5.936870e+00	8.877074e+00
2.040000e-06	8.979610e-07	1.632395e-10	6.257938e+00	1.028547e+01
2.050000e-06	9.439331e-07	1.816433e-10	6.578320e+00	1.169240e+01
2.060000e-06	9.897986e-07	2.009841e-10	6.897959e+00	1.309660e+01
2.070000e-06	1.035639e-06	2.210290e-10	7.217426e+00	1.449681e+01
2.080000e-06	1.081373e-06	2.420801e-10	7.536144e+00	1.589179e+01
2.090000e-06	1.127069e-06	2.628923e-10	7.854606e+00	1.728029e+01
2.100000e-06	1.172773e-06	2.824730e-10	8.173116e+00	1.866109e+01
2.110000e-06	1.218308e-06	3.016015e-10	8.490454e+00	2.003299e+01
2.120000e-06	1.263778e-06	3.202777e-10	8.807339e+00	2.139481e+01
2.130000e-06	1.309282e-06	3.397786e-10	9.124460e+00	2.274542e+01
2.140000e-06	1.354622e-06	3.580243e-10	9.440432e+00	2.408370e+01
2.150000e-06	1.399758e-06	3.757910e-10	9.754985e+00	2.540861e+01
2.160000e-06	1.444836e-06	3.934612e-10	1.006914e+01	2.671913e+01
2.170000e-06	1.489808e-06	4.125123e-10	1.038255e+01	2.801431e+01
2.180000e-06	1.534601e-06	4.322554e-10	1.069472e+01	2.929324e+01
2.190000e-06	1.579240e-06	4.495294e-10	1.100581e+01	3.055508e+01
2.200000e-06	1.623776e-06	4.644902e-10	1.131618e+01	3.179905e+01
2.210000e-06	1.668166e-06	4.809046e-10	1.162554e+01	3.302444e+01
2.220000e-06	1.712388e-06	4.985552e-10	1.193372e+01	3.423061e+01
2.230000e-06	1.756511e-06	5.169077e-10	1.224122e+01	3.541697e+01
2.240000e-06	1.800564e-06	5.342249e-10	1.254823e+01	3.658303e+01
2.250000e-06	1.844521e-06	5.493022e-10	1.285457e+01	3.772834e+01
2.260000e-06	1.888402e-06	5.626990e-10	1.316037e+01	3.885256e+01
2.270000e-06	1.932259e-06	5.769019e-10	1.346602e+01	3.995539e+01
2.280000e-06	1.976062e-06	5.921556e-10	1.377129e+01	4.103661e+01
2.290000e-06	2.019830e-06	6.074770e-10	1.407630e+01	4.209608e+01
2.300000e-06	2.063566e-06	6.203251e-10	1.438110e+01	4.313373e+01
2.310000e-06	2.107197e-06	6.323016e-10	1.468517e+01	4.414953e+01
2.320000e-06	2.150739e-06	6.444730e-10	1.498861e+01	4.514355e+01
2.330000e-06	2.194179e-06	6.562660e-10	1.529135e+01	4.611589e+01
2.340000e-06	2.237497e-06	6.680559e-10	1.559323e+01	4.706673e+01
2.350000e-06	2.280648e-06	6.812070e-10	1.589396e+01	4.799630e+01
2.360000e-06	2.323553e-06	6.933715e-10	1.619297e+01	4.890487e+01
2.370000e-06	2.366191e-06	7.035014e-10	1.649011e+01	4.979277e+01
2.380000e-06	2.408466e-06	7.140127e-10	1.678473e+01	5.066038e+01
2.390000e-06	2.450463e-06	7.254766e-10	1.707740e+01	5.150808e+01
2.400000e-06	2.492172e-06	7.387037e-10	1.736808e+01	5.233633e+01
2.410000e-06	2.533529e-06	7.516190e-10	1.765630e+01	5.314559e+01
2.420000e-06	2.574613e-06	7.647406e-10	1.794261e+01	5.393635e+01
2.430000e-06	2.615426e-06	7.784517e-10	1.822704e+01	5.470913e+01
2.440000e-06	2.656001e-06	7.906625e-10	1.850982e+01	5.546445e+01
2.450000e-06	2.696314e-06	8.021725e-10	1.879076e+01	5.620285e+01
2.460000e-06	2.736396e-06	8.122032e-10	1.907009e+01	5.692487e+01
2.470000e-06	2.776367e-06	8.197372e-10	1.934865e+01	5.763105e+01
2.480000e-06	2.816236e-06	8.277722e-10	1.962650e+01	5.832193e+01
2.490000e-06	2.855957e-06	8.368581e-10	1.990332e+01	5.899806e+01
2.500000e-06	2.895559e-06	8.474633e-10	2.017931e+01	5.965995e+01
2.510000e-06	2.934981e-06	8.583997e-10	2.045404e+01	6.030811e+01
2.520000e-06	2.974214e-06	8.701837e-10	2.072746e+01	6.094303e+01
2.530000e-06	3.013351e-06	8.815170e-10	2.100020e+01	6.156519e+01
2.540000e-06	3.052332e-06	8.895958e-10	2.127187e+01	6.217504e+01
2.550000e-06	3.091025e-06	8.960980e-10	2.154152e+01	6.277301e+01
2.560000e-06	3.129436e-06	9.031213e-10	2.180920e+01	6.335950e+01
2.570000e-06	3.167610e-06	9.116295e-10	2.207524e+01	6.393488e+01
2.580000e-06	3.205573e-06	9.218271e-10	2.233981e+01	6.449949e+01
2.590000e-06	3.243346e-06	9.318880e-10	2.260305e+01	6.505367e+01
2.600000e-06	3.280890e-06	9.413000e-10	2.286470e+01	6.559768e+01
2.610000e-06	3.318286e-06	9.507050e-10	2.312532e+01	6.613180e+01
2.620000e-06	3.355461e-06	9.602693e-10	2.338439e+01	6.665626e+01
2.630000e-06	3.392320e-06	9.676734e-10	2.364126e+01	6.717125e+01
2.640000e-06	3.428917e-06	9.731089e-10	2.389631e+01	6.767696e+01
2.650000e-06	3.465264e-06	9.781607e-10	2.414961e+01	6.817353e+01
2.660000e-06	3.501428e-06	9.832401e-10	2.440164e+01	6.866109e+01
2.670000e-06	3.537431e-06	9.895108e-10	2.465254e+01	6.913975e+01
2.680000e-06	3.573284e-06	9.967974e-10	2.490241e+01	6.960958e+01
2.690000e-06	3.608995e-06	1.003365e-09	2.515128e+01	7.007066e+01
2.700000e-06	3.644553e-06	1.010369e-09	2.539909e+01	7.052304e+01
2.710000e-06	3.679964e-06	1.019154e-09	2.564586e+01	7.096674e+01
2.720000e-06	3.715146e-06	1.027348e-09	2.589105e+01	7.140179e+01
2.730000e-06	3.749995e-06	1.036846e-09	2.613392e+01	7.182821e+01
2.740000e-06	3.784362e-06	1.046528e-09	2.637342e+01	7.224600e+01
2.750000e-06	3.818305e-06	1.052193e-09	2.660997e+01	7.265517e+01
2.760000e-06	3.851826e-06	1.055732e-09	2.684358e+01	7.305571e+01
2.770000e-06	3.884846e-06	1.061893e-09	2.707370e+01	7.344762e+01
2.780000e-06	3.917457e-06	1.070525e-09	2.730097e+01	7.383092e+01
2.790000e-06	3.949698e-06	1.078900e-09	2.752566e+01	7.420560e+01
2.800000e-06	3.981730e-06	1.086984e-09	2.774889e+01	7.457167e+01
2.810000e-06	4.013628e-06	1.094714e-09	2.797119e+01	7.492916e+01
2.820000e-06	4.045302e-06	1.101941e-09	2.819193e+01	7.527809e+01
2.830000e-06	4.076721e-06	1.108441e-09	2.841088e+01	7.561850e+01
2.840000e-06	4.107957e-06	1.112428e-09	2.862857e+01	7.595043e+01
2.850000e-06	4.138958e-06	1.115526e-09	2.884462e+01	7.627394e+01
2.860000e-06	4.169636e-06	1.120597e-09	2.905842e+01	7.658912e+01
2.870000e-06	4.199992e-06	1.127035e-09	2.926997e+01	7.689603e+01
2.880000e-06	4.230049e-06	1.132031e-09	2.947944e+01	7.719478e+01
2.890000e-06	4.259823e-06	1.137171e-09	2.968693e+01	7.748547e+01
2.900000e-06	4.289343e-06	1.143225e-09	2.989266e+01	7.776823e+01
