# Temperatura_=_-0.4
# Concentracion g/m^3_=_1620.0
# C_Vs_to_Am_M_A/Vsm_=_65563218390.804596
# pendiente_HvsI_1/m_=_3716.3
# ordenada_HvsI_A/m_=_1297.0
# frecuencia_Hz_=_135089.06715088547

Tiempo_(s)	Campo_(V.s)	Magnetizacion_(V.s)	Campo_(kA/m)	Magnetizacion_(A/m)
0.000000e+00	-5.515469e-06	-1.365148e-09	-3.838128e+01	-8.819421e+01
1.000000e-08	-5.515667e-06	-1.364642e-09	-3.838266e+01	-8.821056e+01
2.000000e-08	-5.515635e-06	-1.362534e-09	-3.838244e+01	-8.822646e+01
3.000000e-08	-5.515209e-06	-1.360239e-09	-3.837947e+01	-8.824189e+01
4.000000e-08	-5.514289e-06	-1.355237e-09	-3.837307e+01	-8.825677e+01
5.000000e-08	-5.512752e-06	-1.348920e-09	-3.836237e+01	-8.827104e+01
6.000000e-08	-5.510688e-06	-1.337743e-09	-3.834801e+01	-8.828461e+01
7.000000e-08	-5.508143e-06	-1.326224e-09	-3.833030e+01	-8.829738e+01
8.000000e-08	-5.504980e-06	-1.357404e-09	-3.830829e+01	-8.830922e+01
9.000000e-08	-5.501387e-06	-1.404163e-09	-3.828328e+01	-8.832000e+01
1.000000e-07	-5.497346e-06	-1.389133e-09	-3.825517e+01	-8.832957e+01
1.100000e-07	-5.492935e-06	-1.345203e-09	-3.822447e+01	-8.833778e+01
1.200000e-07	-5.488361e-06	-1.326805e-09	-3.819264e+01	-8.834446e+01
1.300000e-07	-5.483524e-06	-1.342843e-09	-3.815898e+01	-8.834942e+01
1.400000e-07	-5.478284e-06	-1.368727e-09	-3.812252e+01	-8.835249e+01
1.500000e-07	-5.472699e-06	-1.306084e-09	-3.808365e+01	-8.835346e+01
1.600000e-07	-5.466865e-06	-1.324457e-09	-3.804305e+01	-8.835214e+01
1.700000e-07	-5.460546e-06	-1.347127e-09	-3.799908e+01	-8.834833e+01
1.800000e-07	-5.453662e-06	-1.401099e-09	-3.795117e+01	-8.834181e+01
1.900000e-07	-5.446312e-06	-1.342010e-09	-3.790003e+01	-8.833239e+01
2.000000e-07	-5.438718e-06	-1.320953e-09	-3.784718e+01	-8.831986e+01
2.100000e-07	-5.430993e-06	-1.348483e-09	-3.779343e+01	-8.830400e+01
2.200000e-07	-5.423040e-06	-1.404992e-09	-3.773808e+01	-8.828463e+01
2.300000e-07	-5.414852e-06	-1.394710e-09	-3.768110e+01	-8.826154e+01
2.400000e-07	-5.406253e-06	-1.378288e-09	-3.762126e+01	-8.823455e+01
2.500000e-07	-5.396904e-06	-1.399810e-09	-3.755620e+01	-8.820346e+01
2.600000e-07	-5.386756e-06	-1.399414e-09	-3.748559e+01	-8.816811e+01
2.700000e-07	-5.375958e-06	-1.382835e-09	-3.741044e+01	-8.812833e+01
2.800000e-07	-5.364664e-06	-1.367072e-09	-3.733185e+01	-8.808396e+01
2.900000e-07	-5.353071e-06	-1.404590e-09	-3.725117e+01	-8.803486e+01
3.000000e-07	-5.341151e-06	-1.383536e-09	-3.716823e+01	-8.798090e+01
3.100000e-07	-5.328865e-06	-1.366488e-09	-3.708274e+01	-8.792196e+01
3.200000e-07	-5.316226e-06	-1.341961e-09	-3.699478e+01	-8.785793e+01
3.300000e-07	-5.303181e-06	-1.377865e-09	-3.690400e+01	-8.778871e+01
3.400000e-07	-5.289741e-06	-1.342560e-09	-3.681047e+01	-8.771424e+01
3.500000e-07	-5.275860e-06	-1.336589e-09	-3.671388e+01	-8.763443e+01
3.600000e-07	-5.261489e-06	-1.339906e-09	-3.661387e+01	-8.754925e+01
3.700000e-07	-5.246653e-06	-1.374955e-09	-3.651063e+01	-8.745866e+01
3.800000e-07	-5.231320e-06	-1.338399e-09	-3.640393e+01	-8.736262e+01
3.900000e-07	-5.215482e-06	-1.341524e-09	-3.629372e+01	-8.726114e+01
4.000000e-07	-5.199080e-06	-1.340369e-09	-3.617958e+01	-8.715421e+01
4.100000e-07	-5.182322e-06	-1.334916e-09	-3.606297e+01	-8.704185e+01
4.200000e-07	-5.165313e-06	-1.313984e-09	-3.594460e+01	-8.692409e+01
4.300000e-07	-5.147921e-06	-1.337335e-09	-3.582357e+01	-8.680096e+01
4.400000e-07	-5.130298e-06	-1.333231e-09	-3.570094e+01	-8.667253e+01
4.500000e-07	-5.112347e-06	-1.316692e-09	-3.557602e+01	-8.653884e+01
4.600000e-07	-5.093892e-06	-1.322045e-09	-3.544760e+01	-8.639997e+01
4.700000e-07	-5.074977e-06	-1.318591e-09	-3.531596e+01	-8.625600e+01
4.800000e-07	-5.055687e-06	-1.298502e-09	-3.518173e+01	-8.610701e+01
4.900000e-07	-5.036193e-06	-1.316794e-09	-3.504607e+01	-8.595310e+01
5.000000e-07	-5.016515e-06	-1.335270e-09	-3.490914e+01	-8.579437e+01
5.100000e-07	-4.996605e-06	-1.297676e-09	-3.477058e+01	-8.563091e+01
5.200000e-07	-4.976467e-06	-1.292627e-09	-3.463045e+01	-8.546285e+01
5.300000e-07	-4.956028e-06	-1.318320e-09	-3.448822e+01	-8.529028e+01
5.400000e-07	-4.935139e-06	-1.303603e-09	-3.434285e+01	-8.511333e+01
5.500000e-07	-4.913815e-06	-1.268070e-09	-3.419447e+01	-8.493211e+01
5.600000e-07	-4.892200e-06	-1.291809e-09	-3.404405e+01	-8.474673e+01
5.700000e-07	-4.870260e-06	-1.287125e-09	-3.389137e+01	-8.455732e+01
5.800000e-07	-4.847967e-06	-1.268231e-09	-3.373624e+01	-8.436399e+01
5.900000e-07	-4.825218e-06	-1.278736e-09	-3.357793e+01	-8.416685e+01
6.000000e-07	-4.802135e-06	-1.297343e-09	-3.341730e+01	-8.396602e+01
6.100000e-07	-4.778812e-06	-1.265994e-09	-3.325500e+01	-8.376160e+01
6.200000e-07	-4.755178e-06	-1.268074e-09	-3.309053e+01	-8.355370e+01
6.300000e-07	-4.731385e-06	-1.266855e-09	-3.292497e+01	-8.334243e+01
6.400000e-07	-4.707469e-06	-1.243934e-09	-3.275853e+01	-8.312789e+01
6.500000e-07	-4.683247e-06	-1.228706e-09	-3.258998e+01	-8.291016e+01
6.600000e-07	-4.658642e-06	-1.249158e-09	-3.241876e+01	-8.268935e+01
6.700000e-07	-4.633548e-06	-1.238465e-09	-3.224413e+01	-8.246553e+01
6.800000e-07	-4.607762e-06	-1.233337e-09	-3.206469e+01	-8.223878e+01
6.900000e-07	-4.581398e-06	-1.242677e-09	-3.188123e+01	-8.200917e+01
7.000000e-07	-4.554597e-06	-1.246748e-09	-3.169472e+01	-8.177679e+01
7.100000e-07	-4.527430e-06	-1.226806e-09	-3.150567e+01	-8.154167e+01
7.200000e-07	-4.499961e-06	-1.224554e-09	-3.131452e+01	-8.130389e+01
7.300000e-07	-4.472272e-06	-1.219534e-09	-3.112184e+01	-8.106349e+01
7.400000e-07	-4.444413e-06	-1.209475e-09	-3.092797e+01	-8.082051e+01
7.500000e-07	-4.416373e-06	-1.204136e-09	-3.073284e+01	-8.057498e+01
7.600000e-07	-4.388127e-06	-1.208978e-09	-3.053628e+01	-8.032695e+01
7.700000e-07	-4.359540e-06	-1.203489e-09	-3.033735e+01	-8.007643e+01
7.800000e-07	-4.330629e-06	-1.201773e-09	-3.013617e+01	-7.982344e+01
7.900000e-07	-4.301408e-06	-1.209685e-09	-2.993282e+01	-7.956799e+01
8.000000e-07	-4.271889e-06	-1.204004e-09	-2.972740e+01	-7.931009e+01
8.100000e-07	-4.242090e-06	-1.193957e-09	-2.952004e+01	-7.904972e+01
8.200000e-07	-4.211926e-06	-1.186394e-09	-2.931013e+01	-7.878689e+01
8.300000e-07	-4.181457e-06	-1.181141e-09	-2.909810e+01	-7.852157e+01
8.400000e-07	-4.150719e-06	-1.164593e-09	-2.888420e+01	-7.825374e+01
8.500000e-07	-4.119723e-06	-1.162992e-09	-2.866850e+01	-7.798338e+01
8.600000e-07	-4.088432e-06	-1.163992e-09	-2.845076e+01	-7.771045e+01
8.700000e-07	-4.056929e-06	-1.162973e-09	-2.823153e+01	-7.743490e+01
8.800000e-07	-4.025316e-06	-1.159968e-09	-2.801154e+01	-7.715669e+01
8.900000e-07	-3.993552e-06	-1.165764e-09	-2.779050e+01	-7.687576e+01
9.000000e-07	-3.961612e-06	-1.154332e-09	-2.756823e+01	-7.659206e+01
9.100000e-07	-3.929379e-06	-1.144691e-09	-2.734393e+01	-7.630550e+01
9.200000e-07	-3.896792e-06	-1.139818e-09	-2.711716e+01	-7.601603e+01
9.300000e-07	-3.863818e-06	-1.135390e-09	-2.688770e+01	-7.572355e+01
9.400000e-07	-3.830296e-06	-1.124863e-09	-2.665443e+01	-7.542797e+01
9.500000e-07	-3.796229e-06	-1.128358e-09	-2.641736e+01	-7.512922e+01
9.600000e-07	-3.761815e-06	-1.122765e-09	-2.617788e+01	-7.482718e+01
9.700000e-07	-3.727066e-06	-1.113901e-09	-2.593607e+01	-7.452174e+01
9.800000e-07	-3.691987e-06	-1.109007e-09	-2.569196e+01	-7.421281e+01
9.900000e-07	-3.656692e-06	-1.108950e-09	-2.544634e+01	-7.390026e+01
1.000000e-06	-3.621184e-06	-1.097871e-09	-2.519925e+01	-7.358397e+01
1.010000e-06	-3.585441e-06	-1.090618e-09	-2.495052e+01	-7.326381e+01
1.020000e-06	-3.549581e-06	-1.088695e-09	-2.470097e+01	-7.293965e+01
1.030000e-06	-3.513603e-06	-1.082047e-09	-2.445061e+01	-7.261135e+01
1.040000e-06	-3.477390e-06	-1.071905e-09	-2.419861e+01	-7.227877e+01
1.050000e-06	-3.440988e-06	-1.066658e-09	-2.394530e+01	-7.194178e+01
1.060000e-06	-3.404279e-06	-1.059628e-09	-2.368984e+01	-7.160021e+01
1.070000e-06	-3.367245e-06	-1.049095e-09	-2.343213e+01	-7.125392e+01
1.080000e-06	-3.329935e-06	-1.044671e-09	-2.317249e+01	-7.090276e+01
1.090000e-06	-3.292329e-06	-1.041508e-09	-2.291080e+01	-7.054658e+01
1.100000e-06	-3.254606e-06	-1.034033e-09	-2.264829e+01	-7.018520e+01
1.110000e-06	-3.216695e-06	-1.025494e-09	-2.238447e+01	-6.981849e+01
1.120000e-06	-3.178568e-06	-1.022176e-09	-2.211915e+01	-6.944627e+01
1.130000e-06	-3.140241e-06	-1.012797e-09	-2.185244e+01	-6.906840e+01
1.140000e-06	-3.101549e-06	-1.003295e-09	-2.158319e+01	-6.868472e+01
1.150000e-06	-3.062680e-06	-9.944469e-10	-2.131271e+01	-6.829506e+01
1.160000e-06	-3.023658e-06	-9.865895e-10	-2.104116e+01	-6.789927e+01
1.170000e-06	-2.984346e-06	-9.787175e-10	-2.076759e+01	-6.749721e+01
1.180000e-06	-2.944895e-06	-9.788781e-10	-2.049306e+01	-6.708871e+01
1.190000e-06	-2.905286e-06	-9.778488e-10	-2.021743e+01	-6.667364e+01
1.200000e-06	-2.865582e-06	-9.743649e-10	-1.994114e+01	-6.625184e+01
1.210000e-06	-2.825781e-06	-9.663785e-10	-1.966417e+01	-6.582318e+01
1.220000e-06	-2.785839e-06	-9.600484e-10	-1.938622e+01	-6.538751e+01
1.230000e-06	-2.745768e-06	-9.481833e-10	-1.910737e+01	-6.494470e+01
1.240000e-06	-2.705502e-06	-9.396571e-10	-1.882716e+01	-6.449462e+01
1.250000e-06	-2.665099e-06	-9.328662e-10	-1.854600e+01	-6.403713e+01
1.260000e-06	-2.624522e-06	-9.292478e-10	-1.826364e+01	-6.357212e+01
1.270000e-06	-2.583657e-06	-9.258326e-10	-1.797926e+01	-6.309945e+01
1.280000e-06	-2.542478e-06	-9.228587e-10	-1.769271e+01	-6.261902e+01
1.290000e-06	-2.501025e-06	-9.165647e-10	-1.740424e+01	-6.213069e+01
1.300000e-06	-2.459368e-06	-9.068863e-10	-1.711436e+01	-6.163436e+01
1.310000e-06	-2.417309e-06	-8.943283e-10	-1.682167e+01	-6.112992e+01
1.320000e-06	-2.374877e-06	-8.822543e-10	-1.652639e+01	-6.061724e+01
1.330000e-06	-2.332199e-06	-8.730091e-10	-1.622941e+01	-6.009622e+01
1.340000e-06	-2.289193e-06	-8.685181e-10	-1.593013e+01	-5.956674e+01
1.350000e-06	-2.246046e-06	-8.647538e-10	-1.562988e+01	-5.902868e+01
1.360000e-06	-2.202779e-06	-8.560857e-10	-1.532879e+01	-5.848194e+01
1.370000e-06	-2.159301e-06	-8.450031e-10	-1.502624e+01	-5.792638e+01
1.380000e-06	-2.115687e-06	-8.355169e-10	-1.472273e+01	-5.736189e+01
1.390000e-06	-2.072047e-06	-8.258699e-10	-1.441905e+01	-5.678834e+01
1.400000e-06	-2.028326e-06	-8.153030e-10	-1.411480e+01	-5.620558e+01
1.410000e-06	-1.984431e-06	-8.064218e-10	-1.380935e+01	-5.561349e+01
1.420000e-06	-1.940442e-06	-7.960958e-10	-1.350323e+01	-5.501190e+01
1.430000e-06	-1.896432e-06	-7.863067e-10	-1.319697e+01	-5.440066e+01
1.440000e-06	-1.852379e-06	-7.751774e-10	-1.289041e+01	-5.377960e+01
1.450000e-06	-1.808243e-06	-7.651317e-10	-1.258328e+01	-5.314854e+01
1.460000e-06	-1.763950e-06	-7.532430e-10	-1.227505e+01	-5.250730e+01
1.470000e-06	-1.719528e-06	-7.393568e-10	-1.196592e+01	-5.185567e+01
1.480000e-06	-1.674984e-06	-7.250771e-10	-1.165595e+01	-5.119344e+01
1.490000e-06	-1.630237e-06	-7.139299e-10	-1.134456e+01	-5.052038e+01
1.500000e-06	-1.585416e-06	-7.044286e-10	-1.103266e+01	-4.983626e+01
1.510000e-06	-1.540578e-06	-6.958258e-10	-1.072064e+01	-4.914082e+01
1.520000e-06	-1.495591e-06	-6.833991e-10	-1.040758e+01	-4.843381e+01
1.530000e-06	-1.450502e-06	-6.705524e-10	-1.009381e+01	-4.771494e+01
1.540000e-06	-1.405268e-06	-6.567104e-10	-9.779041e+00	-4.698393e+01
1.550000e-06	-1.359803e-06	-6.417957e-10	-9.462653e+00	-4.624048e+01
1.560000e-06	-1.314257e-06	-6.250499e-10	-9.145704e+00	-4.548428e+01
1.570000e-06	-1.268757e-06	-6.099666e-10	-8.829082e+00	-4.471501e+01
1.580000e-06	-1.223106e-06	-5.980750e-10	-8.511405e+00	-4.393234e+01
1.590000e-06	-1.177295e-06	-5.898576e-10	-8.192612e+00	-4.313594e+01
1.600000e-06	-1.131475e-06	-5.818381e-10	-7.873757e+00	-4.232547e+01
1.610000e-06	-1.085518e-06	-5.736020e-10	-7.553950e+00	-4.150059e+01
1.620000e-06	-1.039475e-06	-5.620319e-10	-7.233545e+00	-4.066095e+01
1.630000e-06	-9.934185e-07	-5.469653e-10	-6.913043e+00	-3.980622e+01
1.640000e-06	-9.473551e-07	-5.289514e-10	-6.592495e+00	-3.893604e+01
1.650000e-06	-9.011579e-07	-5.098795e-10	-6.271016e+00	-3.805008e+01
1.660000e-06	-8.548657e-07	-4.931738e-10	-5.948876e+00	-3.714803e+01
1.670000e-06	-8.085821e-07	-4.775936e-10	-5.626795e+00	-3.622956e+01
1.680000e-06	-7.621976e-07	-4.643502e-10	-5.304013e+00	-3.529437e+01
1.690000e-06	-7.156966e-07	-4.539443e-10	-4.980420e+00	-3.434218e+01
1.700000e-06	-6.691487e-07	-4.450536e-10	-4.656500e+00	-3.337273e+01
1.710000e-06	-6.226408e-07	-4.333398e-10	-4.332859e+00	-3.238578e+01
1.720000e-06	-5.761088e-07	-4.165120e-10	-4.009051e+00	-3.138111e+01
1.730000e-06	-5.294736e-07	-3.955521e-10	-3.684524e+00	-3.035854e+01
1.740000e-06	-4.827514e-07	-3.752231e-10	-3.359391e+00	-2.931792e+01
1.750000e-06	-4.360343e-07	-3.574091e-10	-3.034294e+00	-2.825912e+01
1.760000e-06	-3.892927e-07	-3.420840e-10	-2.709027e+00	-2.718209e+01
1.770000e-06	-3.425255e-07	-3.267218e-10	-2.383581e+00	-2.608677e+01
1.780000e-06	-2.957841e-07	-3.141429e-10	-2.058315e+00	-2.497317e+01
1.790000e-06	-2.489922e-07	-3.025740e-10	-1.732698e+00	-2.384136e+01
1.800000e-06	-2.022185e-07	-2.880787e-10	-1.407207e+00	-2.269144e+01
1.810000e-06	-1.555536e-07	-2.697413e-10	-1.082473e+00	-2.152355e+01
1.820000e-06	-1.088348e-07	-2.507951e-10	-7.573645e-01	-2.033791e+01
1.830000e-06	-6.203128e-08	-2.306809e-10	-4.316659e-01	-1.913479e+01
1.840000e-06	-1.526689e-08	-2.112084e-10	-1.062399e-01	-1.791449e+01
1.850000e-06	3.144863e-08	-1.947893e-10	2.188460e-01	-1.667739e+01
1.860000e-06	7.819646e-08	-1.808648e-10	5.441569e-01	-1.542393e+01
1.870000e-06	1.249754e-07	-1.659288e-10	8.696842e-01	-1.415459e+01
1.880000e-06	1.717617e-07	-1.503108e-10	1.195262e+00	-1.286992e+01
1.890000e-06	2.185177e-07	-1.334622e-10	1.520630e+00	-1.157053e+01
1.900000e-06	2.651850e-07	-1.135128e-10	1.845380e+00	-1.025707e+01
1.910000e-06	3.119211e-07	-9.292454e-11	2.170610e+00	-8.930275e+00
1.920000e-06	3.586542e-07	-7.555242e-11	2.495818e+00	-7.590899e+00
1.930000e-06	4.053350e-07	-5.830390e-11	2.820663e+00	-6.239770e+00
1.940000e-06	4.520977e-07	-4.046244e-11	3.146076e+00	-4.877761e+00
1.950000e-06	4.987651e-07	-2.448465e-11	3.470828e+00	-3.505790e+00
1.960000e-06	5.453238e-07	-6.120868e-12	3.794822e+00	-2.124822e+00
1.970000e-06	5.918372e-07	1.388585e-11	4.118502e+00	-7.358619e-01
1.980000e-06	6.382563e-07	3.373978e-11	4.441525e+00	6.600479e-01
1.990000e-06	6.846263e-07	5.201095e-11	4.764207e+00	2.061831e+00
2.000000e-06	7.309026e-07	7.057805e-11	5.086236e+00	3.468380e+00
2.010000e-06	7.771381e-07	9.020334e-11	5.407982e+00	4.878565e+00
2.020000e-06	8.233745e-07	1.098842e-10	5.729733e+00	6.291232e+00
2.030000e-06	8.696194e-07	1.292077e-10	6.051545e+00	7.705213e+00
2.040000e-06	9.157949e-07	1.497920e-10	6.372872e+00	9.119326e+00
2.050000e-06	9.618353e-07	1.694270e-10	6.693261e+00	1.053239e+01
2.060000e-06	1.007826e-06	1.890372e-10	7.013301e+00	1.194320e+01
2.070000e-06	1.053813e-06	2.092876e-10	7.333320e+00	1.335059e+01
2.080000e-06	1.099688e-06	2.296614e-10	7.652552e+00	1.475338e+01
2.090000e-06	1.145434e-06	2.486915e-10	7.970896e+00	1.615040e+01
2.100000e-06	1.191100e-06	2.675319e-10	8.288679e+00	1.754051e+01
2.110000e-06	1.236660e-06	2.862226e-10	8.605721e+00	1.892258e+01
2.120000e-06	1.282135e-06	3.029305e-10	8.922177e+00	2.029553e+01
2.130000e-06	1.327500e-06	3.191517e-10	9.237864e+00	2.165829e+01
2.140000e-06	1.372842e-06	3.362764e-10	9.553390e+00	2.300983e+01
2.150000e-06	1.418172e-06	3.559659e-10	9.868836e+00	2.434918e+01
2.160000e-06	1.463287e-06	3.769948e-10	1.018278e+01	2.567539e+01
2.170000e-06	1.508174e-06	4.010670e-10	1.049515e+01	2.698757e+01
2.180000e-06	1.553029e-06	4.212333e-10	1.080728e+01	2.828488e+01
2.190000e-06	1.597810e-06	4.392105e-10	1.111891e+01	2.956654e+01
2.200000e-06	1.642447e-06	4.544244e-10	1.142953e+01	3.083181e+01
2.210000e-06	1.686998e-06	4.660764e-10	1.173955e+01	3.208001e+01
2.220000e-06	1.731472e-06	4.816989e-10	1.204904e+01	3.331055e+01
2.230000e-06	1.775808e-06	4.997997e-10	1.235757e+01	3.452286e+01
2.240000e-06	1.820010e-06	5.210705e-10	1.266516e+01	3.571646e+01
2.250000e-06	1.864114e-06	5.406509e-10	1.297207e+01	3.689092e+01
2.260000e-06	1.908106e-06	5.577013e-10	1.327821e+01	3.804587e+01
2.270000e-06	1.952009e-06	5.729979e-10	1.358373e+01	3.918103e+01
2.280000e-06	1.995860e-06	5.866714e-10	1.388887e+01	4.029613e+01
2.290000e-06	2.039651e-06	5.976784e-10	1.419361e+01	4.139102e+01
2.300000e-06	2.083399e-06	6.089304e-10	1.449804e+01	4.246556e+01
2.310000e-06	2.127082e-06	6.237643e-10	1.480203e+01	4.351970e+01
2.320000e-06	2.170672e-06	6.391153e-10	1.510537e+01	4.455342e+01
2.330000e-06	2.214206e-06	6.526473e-10	1.540831e+01	4.556677e+01
2.340000e-06	2.257544e-06	6.661787e-10	1.570989e+01	4.655986e+01
2.350000e-06	2.300590e-06	6.804982e-10	1.600944e+01	4.753281e+01
2.360000e-06	2.343319e-06	6.968478e-10	1.630679e+01	4.848581e+01
2.370000e-06	2.385732e-06	7.095470e-10	1.660194e+01	4.941910e+01
2.380000e-06	2.427861e-06	7.226006e-10	1.689510e+01	5.033294e+01
2.390000e-06	2.469771e-06	7.335620e-10	1.718675e+01	5.122761e+01
2.400000e-06	2.511520e-06	7.423312e-10	1.747728e+01	5.210346e+01
2.410000e-06	2.552926e-06	7.542209e-10	1.776541e+01	5.296082e+01
2.420000e-06	2.593991e-06	7.661128e-10	1.805118e+01	5.380008e+01
2.430000e-06	2.634781e-06	7.811954e-10	1.833502e+01	5.462163e+01
2.440000e-06	2.675333e-06	7.961895e-10	1.861722e+01	5.542586e+01
2.450000e-06	2.715631e-06	8.145748e-10	1.889765e+01	5.621321e+01
2.460000e-06	2.755762e-06	8.263070e-10	1.917692e+01	5.698409e+01
2.470000e-06	2.795777e-06	8.320167e-10	1.945537e+01	5.773893e+01
2.480000e-06	2.835586e-06	8.363706e-10	1.973239e+01	5.847816e+01
2.490000e-06	2.875304e-06	8.435700e-10	2.000879e+01	5.920219e+01
2.500000e-06	2.914925e-06	8.549038e-10	2.028451e+01	5.991146e+01
2.510000e-06	2.954417e-06	8.702565e-10	2.055932e+01	6.060636e+01
2.520000e-06	2.993707e-06	8.837729e-10	2.083274e+01	6.128730e+01
2.530000e-06	3.032744e-06	8.937315e-10	2.110439e+01	6.195467e+01
2.540000e-06	3.071482e-06	8.990966e-10	2.137396e+01	6.260882e+01
2.550000e-06	3.109987e-06	8.995997e-10	2.164191e+01	6.325012e+01
2.560000e-06	3.148356e-06	9.057495e-10	2.190891e+01	6.387889e+01
2.570000e-06	3.186556e-06	9.193774e-10	2.217474e+01	6.449546e+01
2.580000e-06	3.224560e-06	9.334735e-10	2.243920e+01	6.510012e+01
2.590000e-06	3.262361e-06	9.442158e-10	2.270226e+01	6.569314e+01
2.600000e-06	3.299997e-06	9.512388e-10	2.296416e+01	6.627478e+01
2.610000e-06	3.337455e-06	9.572702e-10	2.322483e+01	6.684526e+01
2.620000e-06	3.374623e-06	9.635481e-10	2.348347e+01	6.740480e+01
2.630000e-06	3.411466e-06	9.700889e-10	2.373985e+01	6.795360e+01
2.640000e-06	3.447971e-06	9.787424e-10	2.399389e+01	6.849181e+01
2.650000e-06	3.484174e-06	9.873500e-10	2.424582e+01	6.901961e+01
2.660000e-06	3.520210e-06	9.968557e-10	2.449659e+01	6.953712e+01
2.670000e-06	3.556152e-06	1.005466e-09	2.474670e+01	7.004447e+01
2.680000e-06	3.591995e-06	1.013151e-09	2.499612e+01	7.054175e+01
2.690000e-06	3.627708e-06	1.019276e-09	2.524465e+01	7.102908e+01
2.700000e-06	3.663238e-06	1.025723e-09	2.549190e+01	7.150652e+01
2.710000e-06	3.698571e-06	1.030379e-09	2.573777e+01	7.197415e+01
2.720000e-06	3.733780e-06	1.037219e-09	2.598279e+01	7.243205e+01
2.730000e-06	3.768628e-06	1.047774e-09	2.622529e+01	7.288026e+01
2.740000e-06	3.802980e-06	1.055925e-09	2.646434e+01	7.331885e+01
2.750000e-06	3.836957e-06	1.060551e-09	2.670078e+01	7.374787e+01
2.760000e-06	3.870364e-06	1.066681e-09	2.693325e+01	7.416737e+01
2.770000e-06	3.903203e-06	1.073450e-09	2.716177e+01	7.457742e+01
2.780000e-06	3.935708e-06	1.080106e-09	2.738797e+01	7.497807e+01
2.790000e-06	3.967958e-06	1.088939e-09	2.761240e+01	7.536938e+01
2.800000e-06	3.999995e-06	1.098126e-09	2.783534e+01	7.575143e+01
2.810000e-06	4.031830e-06	1.102825e-09	2.805687e+01	7.612429e+01
2.820000e-06	4.063511e-06	1.105581e-09	2.827734e+01	7.648805e+01
2.830000e-06	4.095023e-06	1.109099e-09	2.849662e+01	7.684281e+01
2.840000e-06	4.126305e-06	1.113881e-09	2.871431e+01	7.718866e+01
2.850000e-06	4.157321e-06	1.119404e-09	2.893014e+01	7.752573e+01
2.860000e-06	4.187904e-06	1.126051e-09	2.914297e+01	7.785414e+01
2.870000e-06	4.218233e-06	1.131947e-09	2.935402e+01	7.817403e+01
2.880000e-06	4.248307e-06	1.135597e-09	2.956330e+01	7.848554e+01
2.890000e-06	4.277994e-06	1.140369e-09	2.976988e+01	7.878884e+01
2.900000e-06	4.307431e-06	1.145675e-09	2.997473e+01	7.908410e+01
