# Temperatura_=_-0.3
# Concentracion g/m^3_=_1620.0
# C_Vs_to_Am_M_A/Vsm_=_65563218390.804596
# pendiente_HvsI_1/m_=_3716.3
# ordenada_HvsI_A/m_=_1297.0
# frecuencia_Hz_=_135097.3596378672

Tiempo_(s)	Campo_(V.s)	Magnetizacion_(V.s)	Campo_(kA/m)	Magnetizacion_(A/m)
0.000000e+00	-5.510792e-06	-1.418923e-09	-3.836896e+01	-9.272827e+01
1.000000e-08	-5.511165e-06	-1.415851e-09	-3.837156e+01	-9.275939e+01
2.000000e-08	-5.511283e-06	-1.413810e-09	-3.837238e+01	-9.278934e+01
3.000000e-08	-5.511076e-06	-1.413784e-09	-3.837093e+01	-9.281796e+01
4.000000e-08	-5.510435e-06	-1.410932e-09	-3.836647e+01	-9.284505e+01
5.000000e-08	-5.509259e-06	-1.408031e-09	-3.835829e+01	-9.287039e+01
6.000000e-08	-5.507457e-06	-1.407980e-09	-3.834574e+01	-9.289376e+01
7.000000e-08	-5.505075e-06	-1.404955e-09	-3.832915e+01	-9.291490e+01
8.000000e-08	-5.502171e-06	-1.420880e-09	-3.830894e+01	-9.293356e+01
9.000000e-08	-5.498830e-06	-1.438480e-09	-3.828567e+01	-9.294947e+01
1.000000e-07	-5.495111e-06	-1.413118e-09	-3.825978e+01	-9.296233e+01
1.100000e-07	-5.490996e-06	-1.349775e-09	-3.823113e+01	-9.297188e+01
1.200000e-07	-5.486570e-06	-1.327941e-09	-3.820031e+01	-9.297781e+01
1.300000e-07	-5.481940e-06	-1.400181e-09	-3.816808e+01	-9.297985e+01
1.400000e-07	-5.476968e-06	-1.471844e-09	-3.813346e+01	-9.297770e+01
1.500000e-07	-5.471564e-06	-1.377338e-09	-3.809583e+01	-9.297111e+01
1.600000e-07	-5.465829e-06	-1.326304e-09	-3.805590e+01	-9.295979e+01
1.700000e-07	-5.459719e-06	-1.365203e-09	-3.801336e+01	-9.294350e+01
1.800000e-07	-5.453178e-06	-1.487063e-09	-3.796782e+01	-9.292200e+01
1.900000e-07	-5.446201e-06	-1.436600e-09	-3.791924e+01	-9.289507e+01
2.000000e-07	-5.438920e-06	-1.353778e-09	-3.786855e+01	-9.286252e+01
2.100000e-07	-5.431404e-06	-1.370661e-09	-3.781622e+01	-9.282416e+01
2.200000e-07	-5.423675e-06	-1.462447e-09	-3.776241e+01	-9.277984e+01
2.300000e-07	-5.415735e-06	-1.465329e-09	-3.770712e+01	-9.272944e+01
2.400000e-07	-5.407322e-06	-1.400672e-09	-3.764854e+01	-9.267286e+01
2.500000e-07	-5.398337e-06	-1.408341e-09	-3.758599e+01	-9.261003e+01
2.600000e-07	-5.388715e-06	-1.457488e-09	-3.751899e+01	-9.254089e+01
2.700000e-07	-5.378374e-06	-1.460669e-09	-3.744699e+01	-9.246545e+01
2.800000e-07	-5.367526e-06	-1.395819e-09	-3.737146e+01	-9.238371e+01
2.900000e-07	-5.356200e-06	-1.414684e-09	-3.729261e+01	-9.229572e+01
3.000000e-07	-5.344430e-06	-1.433470e-09	-3.721066e+01	-9.220154e+01
3.100000e-07	-5.332319e-06	-1.430156e-09	-3.712634e+01	-9.210128e+01
3.200000e-07	-5.319760e-06	-1.376376e-09	-3.703890e+01	-9.199505e+01
3.300000e-07	-5.306760e-06	-1.417498e-09	-3.694839e+01	-9.188300e+01
3.400000e-07	-5.293512e-06	-1.432611e-09	-3.685614e+01	-9.176530e+01
3.500000e-07	-5.279920e-06	-1.416478e-09	-3.676151e+01	-9.164212e+01
3.600000e-07	-5.265828e-06	-1.366910e-09	-3.666339e+01	-9.151369e+01
3.700000e-07	-5.251232e-06	-1.391895e-09	-3.656177e+01	-9.138020e+01
3.800000e-07	-5.236107e-06	-1.402735e-09	-3.645646e+01	-9.124190e+01
3.900000e-07	-5.220340e-06	-1.396331e-09	-3.634668e+01	-9.109902e+01
4.000000e-07	-5.204001e-06	-1.386030e-09	-3.623292e+01	-9.095180e+01
4.100000e-07	-5.187400e-06	-1.405873e-09	-3.611734e+01	-9.080049e+01
4.200000e-07	-5.170606e-06	-1.385036e-09	-3.600041e+01	-9.064534e+01
4.300000e-07	-5.153480e-06	-1.358681e-09	-3.588117e+01	-9.048659e+01
4.400000e-07	-5.136033e-06	-1.375314e-09	-3.575969e+01	-9.032448e+01
4.500000e-07	-5.118245e-06	-1.400691e-09	-3.563584e+01	-9.015925e+01
4.600000e-07	-5.099916e-06	-1.367662e-09	-3.550823e+01	-8.999110e+01
4.700000e-07	-5.081101e-06	-1.346210e-09	-3.537723e+01	-8.982025e+01
4.800000e-07	-5.061996e-06	-1.382824e-09	-3.524421e+01	-8.964689e+01
4.900000e-07	-5.042670e-06	-1.386161e-09	-3.510965e+01	-8.947118e+01
5.000000e-07	-5.023122e-06	-1.350175e-09	-3.497355e+01	-8.929328e+01
5.100000e-07	-5.003365e-06	-1.350722e-09	-3.483599e+01	-8.911332e+01
5.200000e-07	-4.983418e-06	-1.367475e-09	-3.469711e+01	-8.893142e+01
5.300000e-07	-4.963135e-06	-1.335580e-09	-3.455589e+01	-8.874764e+01
5.400000e-07	-4.942383e-06	-1.338115e-09	-3.441141e+01	-8.856206e+01
5.500000e-07	-4.921251e-06	-1.364101e-09	-3.426427e+01	-8.837471e+01
5.600000e-07	-4.899827e-06	-1.343037e-09	-3.411511e+01	-8.818559e+01
5.700000e-07	-4.878123e-06	-1.307449e-09	-3.396399e+01	-8.799471e+01
5.800000e-07	-4.855963e-06	-1.343186e-09	-3.380970e+01	-8.780202e+01
5.900000e-07	-4.833427e-06	-1.341817e-09	-3.365280e+01	-8.760747e+01
6.000000e-07	-4.810674e-06	-1.303128e-09	-3.349438e+01	-8.741097e+01
6.100000e-07	-4.787618e-06	-1.307643e-09	-3.333385e+01	-8.721242e+01
6.200000e-07	-4.764311e-06	-1.334951e-09	-3.317158e+01	-8.701171e+01
6.300000e-07	-4.740774e-06	-1.296854e-09	-3.300770e+01	-8.680870e+01
6.400000e-07	-4.716956e-06	-1.286726e-09	-3.284186e+01	-8.660324e+01
6.500000e-07	-4.692817e-06	-1.310179e-09	-3.267380e+01	-8.639517e+01
6.600000e-07	-4.668300e-06	-1.305449e-09	-3.250310e+01	-8.618432e+01
6.700000e-07	-4.643359e-06	-1.283809e-09	-3.232945e+01	-8.597051e+01
6.800000e-07	-4.617945e-06	-1.300890e-09	-3.215250e+01	-8.575356e+01
6.900000e-07	-4.591881e-06	-1.294105e-09	-3.197103e+01	-8.553329e+01
7.000000e-07	-4.565230e-06	-1.275149e-09	-3.178547e+01	-8.530951e+01
7.100000e-07	-4.538238e-06	-1.279862e-09	-3.159754e+01	-8.508205e+01
7.200000e-07	-4.510972e-06	-1.280884e-09	-3.140770e+01	-8.485072e+01
7.300000e-07	-4.483462e-06	-1.260167e-09	-3.121616e+01	-8.461538e+01
7.400000e-07	-4.455766e-06	-1.263584e-09	-3.102333e+01	-8.437586e+01
7.500000e-07	-4.427890e-06	-1.276227e-09	-3.082924e+01	-8.413201e+01
7.600000e-07	-4.399724e-06	-1.265853e-09	-3.063313e+01	-8.388372e+01
7.700000e-07	-4.371274e-06	-1.254411e-09	-3.043505e+01	-8.363088e+01
7.800000e-07	-4.342540e-06	-1.253304e-09	-3.023499e+01	-8.337338e+01
7.900000e-07	-4.313477e-06	-1.241339e-09	-3.003264e+01	-8.311117e+01
8.000000e-07	-4.284165e-06	-1.232082e-09	-2.982855e+01	-8.284417e+01
8.100000e-07	-4.254590e-06	-1.237494e-09	-2.962264e+01	-8.257236e+01
8.200000e-07	-4.224558e-06	-1.235559e-09	-2.941354e+01	-8.229572e+01
8.300000e-07	-4.194228e-06	-1.233131e-09	-2.920236e+01	-8.201426e+01
8.400000e-07	-4.163686e-06	-1.232669e-09	-2.898971e+01	-8.172801e+01
8.500000e-07	-4.132821e-06	-1.227241e-09	-2.877482e+01	-8.143701e+01
8.600000e-07	-4.101724e-06	-1.209681e-09	-2.855831e+01	-8.114132e+01
8.700000e-07	-4.070435e-06	-1.204048e-09	-2.834045e+01	-8.084103e+01
8.800000e-07	-4.038940e-06	-1.199276e-09	-2.812117e+01	-8.053623e+01
8.900000e-07	-4.007256e-06	-1.196477e-09	-2.790057e+01	-8.022703e+01
9.000000e-07	-3.975409e-06	-1.196703e-09	-2.767883e+01	-7.991356e+01
9.100000e-07	-3.943276e-06	-1.200722e-09	-2.745511e+01	-7.959594e+01
9.200000e-07	-3.910782e-06	-1.190257e-09	-2.722887e+01	-7.927431e+01
9.300000e-07	-3.877926e-06	-1.181660e-09	-2.700011e+01	-7.894882e+01
9.400000e-07	-3.844714e-06	-1.174038e-09	-2.676887e+01	-7.861960e+01
9.500000e-07	-3.810990e-06	-1.164986e-09	-2.653406e+01	-7.828680e+01
9.600000e-07	-3.776650e-06	-1.154679e-09	-2.629497e+01	-7.795057e+01
9.700000e-07	-3.741902e-06	-1.155050e-09	-2.605304e+01	-7.761102e+01
9.800000e-07	-3.706865e-06	-1.152151e-09	-2.580909e+01	-7.726828e+01
9.900000e-07	-3.671608e-06	-1.147954e-09	-2.556362e+01	-7.692247e+01
1.000000e-06	-3.636169e-06	-1.145597e-09	-2.531687e+01	-7.657368e+01
1.010000e-06	-3.600596e-06	-1.143512e-09	-2.506920e+01	-7.622199e+01
1.020000e-06	-3.564839e-06	-1.132238e-09	-2.482024e+01	-7.586745e+01
1.030000e-06	-3.528877e-06	-1.122316e-09	-2.456985e+01	-7.551011e+01
1.040000e-06	-3.492774e-06	-1.114563e-09	-2.431848e+01	-7.514997e+01
1.050000e-06	-3.456430e-06	-1.104502e-09	-2.406544e+01	-7.478703e+01
1.060000e-06	-3.419791e-06	-1.092646e-09	-2.381033e+01	-7.442125e+01
1.070000e-06	-3.382873e-06	-1.086877e-09	-2.355329e+01	-7.405257e+01
1.080000e-06	-3.345729e-06	-1.087060e-09	-2.329468e+01	-7.368088e+01
1.090000e-06	-3.308364e-06	-1.087976e-09	-2.303453e+01	-7.330607e+01
1.100000e-06	-3.270733e-06	-1.087918e-09	-2.277252e+01	-7.292799e+01
1.110000e-06	-3.232897e-06	-1.079327e-09	-2.250909e+01	-7.254645e+01
1.120000e-06	-3.194880e-06	-1.066221e-09	-2.224440e+01	-7.216126e+01
1.130000e-06	-3.156651e-06	-1.053636e-09	-2.197822e+01	-7.177218e+01
1.140000e-06	-3.118192e-06	-1.047664e-09	-2.171045e+01	-7.137895e+01
1.150000e-06	-3.079474e-06	-1.040456e-09	-2.144088e+01	-7.098128e+01
1.160000e-06	-3.040637e-06	-1.034639e-09	-2.117047e+01	-7.057888e+01
1.170000e-06	-3.001606e-06	-1.031259e-09	-2.089872e+01	-7.017141e+01
1.180000e-06	-2.962354e-06	-1.028442e-09	-2.062543e+01	-6.975853e+01
1.190000e-06	-2.922998e-06	-1.020236e-09	-2.035141e+01	-6.933988e+01
1.200000e-06	-2.883500e-06	-1.012126e-09	-2.007641e+01	-6.891509e+01
1.210000e-06	-2.843850e-06	-1.000304e-09	-1.980034e+01	-6.848378e+01
1.220000e-06	-2.804043e-06	-9.888959e-10	-1.952318e+01	-6.804556e+01
1.230000e-06	-2.764110e-06	-9.802573e-10	-1.924515e+01	-6.760003e+01
1.240000e-06	-2.724058e-06	-9.763128e-10	-1.896629e+01	-6.714681e+01
1.250000e-06	-2.683783e-06	-9.679674e-10	-1.868587e+01	-6.668549e+01
1.260000e-06	-2.643259e-06	-9.595195e-10	-1.840373e+01	-6.621570e+01
1.270000e-06	-2.602486e-06	-9.550971e-10	-1.811984e+01	-6.573705e+01
1.280000e-06	-2.561407e-06	-9.493691e-10	-1.783383e+01	-6.524917e+01
1.290000e-06	-2.520017e-06	-9.405234e-10	-1.754565e+01	-6.475171e+01
1.300000e-06	-2.478295e-06	-9.322545e-10	-1.725516e+01	-6.424433e+01
1.310000e-06	-2.436374e-06	-9.226258e-10	-1.696328e+01	-6.372670e+01
1.320000e-06	-2.394173e-06	-9.141640e-10	-1.666946e+01	-6.319852e+01
1.330000e-06	-2.351672e-06	-9.055954e-10	-1.637355e+01	-6.265950e+01
1.340000e-06	-2.308971e-06	-8.993643e-10	-1.607624e+01	-6.210940e+01
1.350000e-06	-2.265902e-06	-8.928837e-10	-1.577637e+01	-6.154796e+01
1.360000e-06	-2.222592e-06	-8.828948e-10	-1.547482e+01	-6.097498e+01
1.370000e-06	-2.179182e-06	-8.715695e-10	-1.517258e+01	-6.039027e+01
1.380000e-06	-2.135666e-06	-8.609704e-10	-1.486960e+01	-5.979367e+01
1.390000e-06	-2.092080e-06	-8.531602e-10	-1.456613e+01	-5.918503e+01
1.400000e-06	-2.048426e-06	-8.469206e-10	-1.426219e+01	-5.856424e+01
1.410000e-06	-2.004676e-06	-8.378673e-10	-1.395758e+01	-5.793120e+01
1.420000e-06	-1.960851e-06	-8.273411e-10	-1.365245e+01	-5.728585e+01
1.430000e-06	-1.916941e-06	-8.181467e-10	-1.334672e+01	-5.662811e+01
1.440000e-06	-1.872960e-06	-8.107267e-10	-1.304051e+01	-5.595796e+01
1.450000e-06	-1.828911e-06	-8.031782e-10	-1.273382e+01	-5.527538e+01
1.460000e-06	-1.784748e-06	-7.909197e-10	-1.242633e+01	-5.458035e+01
1.470000e-06	-1.740453e-06	-7.767686e-10	-1.211793e+01	-5.387287e+01
1.480000e-06	-1.696051e-06	-7.620838e-10	-1.180878e+01	-5.315295e+01
1.490000e-06	-1.651463e-06	-7.488361e-10	-1.149833e+01	-5.242060e+01
1.500000e-06	-1.606668e-06	-7.343990e-10	-1.118644e+01	-5.167583e+01
1.510000e-06	-1.561740e-06	-7.243168e-10	-1.087364e+01	-5.091865e+01
1.520000e-06	-1.516669e-06	-7.175746e-10	-1.055983e+01	-5.014908e+01
1.530000e-06	-1.471499e-06	-7.073029e-10	-1.024533e+01	-4.936710e+01
1.540000e-06	-1.426207e-06	-6.885688e-10	-9.929984e+00	-4.857270e+01
1.550000e-06	-1.380795e-06	-6.720923e-10	-9.613804e+00	-4.776587e+01
1.560000e-06	-1.335340e-06	-6.561426e-10	-9.297323e+00	-4.694656e+01
1.570000e-06	-1.289846e-06	-6.395382e-10	-8.980572e+00	-4.611471e+01
1.580000e-06	-1.244317e-06	-6.282046e-10	-8.663575e+00	-4.527026e+01
1.590000e-06	-1.198692e-06	-6.176787e-10	-8.345910e+00	-4.441310e+01
1.600000e-06	-1.152978e-06	-6.046585e-10	-8.027621e+00	-4.354312e+01
1.610000e-06	-1.107226e-06	-5.939784e-10	-7.709074e+00	-4.266018e+01
1.620000e-06	-1.061377e-06	-5.818711e-10	-7.389848e+00	-4.176411e+01
1.630000e-06	-1.015471e-06	-5.658432e-10	-7.070232e+00	-4.085473e+01
1.640000e-06	-9.695010e-07	-5.479841e-10	-6.750163e+00	-3.993183e+01
1.650000e-06	-9.234682e-07	-5.299402e-10	-6.429659e+00	-3.899518e+01
1.660000e-06	-8.773835e-07	-5.141203e-10	-6.108794e+00	-3.804453e+01
1.670000e-06	-8.312422e-07	-5.009472e-10	-5.787534e+00	-3.707962e+01
1.680000e-06	-7.850311e-07	-4.903434e-10	-5.465789e+00	-3.610016e+01
1.690000e-06	-7.387004e-07	-4.780227e-10	-5.143211e+00	-3.510585e+01
1.700000e-06	-6.923874e-07	-4.664831e-10	-4.820756e+00	-3.409639e+01
1.710000e-06	-6.460843e-07	-4.525558e-10	-4.498370e+00	-3.307146e+01
1.720000e-06	-5.996505e-07	-4.335205e-10	-4.175074e+00	-3.203076e+01
1.730000e-06	-5.531168e-07	-4.128805e-10	-3.851083e+00	-3.097396e+01
1.740000e-06	-5.065227e-07	-3.934411e-10	-3.526671e+00	-2.990077e+01
1.750000e-06	-4.598513e-07	-3.758010e-10	-3.201721e+00	-2.881088e+01
1.760000e-06	-4.131187e-07	-3.609617e-10	-2.876344e+00	-2.770401e+01
1.770000e-06	-3.664139e-07	-3.468399e-10	-2.551161e+00	-2.657992e+01
1.780000e-06	-3.196908e-07	-3.320007e-10	-2.225851e+00	-2.543836e+01
1.790000e-06	-2.729831e-07	-3.168380e-10	-1.900648e+00	-2.427915e+01
1.800000e-06	-2.262408e-07	-2.986873e-10	-1.575204e+00	-2.310211e+01
1.810000e-06	-1.793902e-07	-2.777697e-10	-1.249007e+00	-2.190713e+01
1.820000e-06	-1.325319e-07	-2.576113e-10	-9.227551e-01	-2.069414e+01
1.830000e-06	-8.570423e-08	-2.394247e-10	-5.967168e-01	-1.946312e+01
1.840000e-06	-3.884552e-08	-2.219585e-10	-2.704624e-01	-1.821411e+01
1.850000e-06	8.025834e-09	-2.018184e-10	5.587997e-02	-1.694721e+01
1.860000e-06	5.479274e-08	-1.849314e-10	3.814951e-01	-1.566258e+01
1.870000e-06	1.015543e-07	-1.685720e-10	7.070728e-01	-1.436046e+01
1.880000e-06	1.483561e-07	-1.506899e-10	1.032931e+00	-1.304116e+01
1.890000e-06	1.950741e-07	-1.348024e-10	1.358206e+00	-1.170505e+01
1.900000e-06	2.417039e-07	-1.178985e-10	1.682867e+00	-1.035260e+01
1.910000e-06	2.884285e-07	-1.001139e-10	2.008187e+00	-8.984349e+00
1.920000e-06	3.353060e-07	-7.907046e-11	2.334572e+00	-7.600904e+00
1.930000e-06	3.820799e-07	-5.943010e-11	2.660236e+00	-6.202965e+00
1.940000e-06	4.286802e-07	-3.801350e-11	2.984691e+00	-4.791305e+00
1.950000e-06	4.752579e-07	-1.913717e-11	3.308989e+00	-3.366777e+00
1.960000e-06	5.218231e-07	-2.883342e-12	3.633200e+00	-1.930308e+00
1.970000e-06	5.684223e-07	1.574450e-11	3.957647e+00	-4.828997e-01
1.980000e-06	6.149134e-07	3.510113e-11	4.281342e+00	9.743751e-01
1.990000e-06	6.612383e-07	5.525676e-11	4.603880e+00	2.440378e+00
2.000000e-06	7.076020e-07	7.580938e-11	4.926688e+00	3.913908e+00
2.010000e-06	7.539257e-07	9.893324e-11	5.249217e+00	5.393708e+00
2.020000e-06	8.001207e-07	1.229759e-10	5.570851e+00	6.878466e+00
2.030000e-06	8.462964e-07	1.432864e-10	5.892349e+00	8.366828e+00
2.040000e-06	8.923990e-07	1.639459e-10	6.213339e+00	9.857397e+00
2.050000e-06	9.383479e-07	1.833061e-10	6.533259e+00	1.134875e+01
2.060000e-06	9.842230e-07	2.001206e-10	6.852665e+00	1.283942e+01
2.070000e-06	1.030170e-06	2.198242e-10	7.172571e+00	1.432796e+01
2.080000e-06	1.076128e-06	2.430990e-10	7.492553e+00	1.581287e+01
2.090000e-06	1.121911e-06	2.664914e-10	7.811320e+00	1.729268e+01
2.100000e-06	1.167561e-06	2.876014e-10	8.129157e+00	1.876592e+01
2.110000e-06	1.213140e-06	3.102165e-10	8.446502e+00	2.023111e+01
2.120000e-06	1.258654e-06	3.313267e-10	8.763391e+00	2.168682e+01
2.130000e-06	1.304130e-06	3.514252e-10	9.080022e+00	2.313165e+01
2.140000e-06	1.349559e-06	3.711419e-10	9.396324e+00	2.456422e+01
2.150000e-06	1.394865e-06	3.896562e-10	9.711763e+00	2.598321e+01
2.160000e-06	1.440060e-06	4.076888e-10	1.002644e+01	2.738735e+01
2.170000e-06	1.485180e-06	4.280976e-10	1.034059e+01	2.877543e+01
2.180000e-06	1.530158e-06	4.478420e-10	1.065374e+01	3.014629e+01
2.190000e-06	1.574978e-06	4.661568e-10	1.096580e+01	3.149887e+01
2.200000e-06	1.619673e-06	4.867494e-10	1.127700e+01	3.283217e+01
2.210000e-06	1.664263e-06	5.064552e-10	1.158745e+01	3.414528e+01
2.220000e-06	1.708664e-06	5.239471e-10	1.189660e+01	3.543735e+01
2.230000e-06	1.752907e-06	5.406797e-10	1.220464e+01	3.670765e+01
2.240000e-06	1.797060e-06	5.555938e-10	1.251205e+01	3.795554e+01
2.250000e-06	1.841114e-06	5.702490e-10	1.281878e+01	3.918045e+01
2.260000e-06	1.885029e-06	5.845735e-10	1.312454e+01	4.038193e+01
2.270000e-06	1.928814e-06	6.005137e-10	1.342939e+01	4.155960e+01
2.280000e-06	1.972553e-06	6.193584e-10	1.373392e+01	4.271320e+01
2.290000e-06	2.016250e-06	6.374984e-10	1.403816e+01	4.384255e+01
2.300000e-06	2.059911e-06	6.514237e-10	1.434215e+01	4.494757e+01
2.310000e-06	2.103530e-06	6.631104e-10	1.464585e+01	4.602826e+01
2.320000e-06	2.147095e-06	6.762915e-10	1.494918e+01	4.708471e+01
2.330000e-06	2.190537e-06	6.898586e-10	1.525164e+01	4.811711e+01
2.340000e-06	2.233792e-06	7.028850e-10	1.555281e+01	4.912569e+01
2.350000e-06	2.276895e-06	7.176464e-10	1.585291e+01	5.011080e+01
2.360000e-06	2.319832e-06	7.328102e-10	1.615186e+01	5.107283e+01
2.370000e-06	2.362532e-06	7.467071e-10	1.644916e+01	5.201223e+01
2.380000e-06	2.405081e-06	7.591988e-10	1.674541e+01	5.292953e+01
2.390000e-06	2.447359e-06	7.697874e-10	1.703977e+01	5.382529e+01
2.400000e-06	2.489259e-06	7.805050e-10	1.733150e+01	5.470012e+01
2.410000e-06	2.530847e-06	7.913278e-10	1.762105e+01	5.555467e+01
2.420000e-06	2.572132e-06	8.043500e-10	1.790850e+01	5.638962e+01
2.430000e-06	2.613119e-06	8.200073e-10	1.819387e+01	5.720567e+01
2.440000e-06	2.653742e-06	8.360762e-10	1.847671e+01	5.800353e+01
2.450000e-06	2.694053e-06	8.510799e-10	1.875738e+01	5.878392e+01
2.460000e-06	2.734137e-06	8.647469e-10	1.903646e+01	5.954758e+01
2.470000e-06	2.774074e-06	8.753286e-10	1.931452e+01	6.029523e+01
2.480000e-06	2.813965e-06	8.842213e-10	1.959227e+01	6.102758e+01
2.490000e-06	2.853756e-06	8.913587e-10	1.986931e+01	6.174533e+01
2.500000e-06	2.893388e-06	8.990169e-10	2.014525e+01	6.244915e+01
2.510000e-06	2.932894e-06	9.103292e-10	2.042031e+01	6.313968e+01
2.520000e-06	2.972274e-06	9.242462e-10	2.069449e+01	6.381756e+01
2.530000e-06	3.011518e-06	9.380574e-10	2.096773e+01	6.448334e+01
2.540000e-06	3.050470e-06	9.520372e-10	2.123893e+01	6.513759e+01
2.550000e-06	3.089170e-06	9.627683e-10	2.150838e+01	6.578079e+01
2.560000e-06	3.127715e-06	9.706469e-10	2.177676e+01	6.641340e+01
2.570000e-06	3.166024e-06	9.770404e-10	2.204348e+01	6.703584e+01
2.580000e-06	3.204172e-06	9.803740e-10	2.230909e+01	6.764845e+01
2.590000e-06	3.242097e-06	9.851357e-10	2.257314e+01	6.825157e+01
2.600000e-06	3.279761e-06	9.915788e-10	2.283538e+01	6.884544e+01
2.610000e-06	3.317214e-06	1.004037e-09	2.309614e+01	6.943029e+01
2.620000e-06	3.354381e-06	1.018161e-09	2.335492e+01	7.000629e+01
2.630000e-06	3.391253e-06	1.031246e-09	2.361164e+01	7.057357e+01
2.640000e-06	3.427790e-06	1.040379e-09	2.386603e+01	7.113220e+01
2.650000e-06	3.464122e-06	1.043877e-09	2.411899e+01	7.168225e+01
2.660000e-06	3.500298e-06	1.045191e-09	2.437087e+01	7.222370e+01
2.670000e-06	3.536240e-06	1.049701e-09	2.462111e+01	7.275654e+01
2.680000e-06	3.572058e-06	1.056829e-09	2.487050e+01	7.328071e+01
2.690000e-06	3.607802e-06	1.066486e-09	2.511937e+01	7.379612e+01
2.700000e-06	3.643417e-06	1.077878e-09	2.536734e+01	7.430267e+01
2.710000e-06	3.678838e-06	1.087472e-09	2.561396e+01	7.480024e+01
2.720000e-06	3.714069e-06	1.094678e-09	2.585925e+01	7.528869e+01
2.730000e-06	3.749003e-06	1.101333e-09	2.610248e+01	7.576787e+01
2.740000e-06	3.783546e-06	1.109610e-09	2.634299e+01	7.623763e+01
2.750000e-06	3.817716e-06	1.116700e-09	2.658090e+01	7.669782e+01
2.760000e-06	3.851435e-06	1.122615e-09	2.681566e+01	7.714830e+01
2.770000e-06	3.884647e-06	1.127939e-09	2.704690e+01	7.758893e+01
2.780000e-06	3.917468e-06	1.135040e-09	2.727542e+01	7.801958e+01
2.790000e-06	3.949874e-06	1.144753e-09	2.750105e+01	7.844014e+01
2.800000e-06	3.981935e-06	1.154295e-09	2.772428e+01	7.885051e+01
2.810000e-06	4.013818e-06	1.162801e-09	2.794626e+01	7.925063e+01
2.820000e-06	4.045600e-06	1.170130e-09	2.816754e+01	7.964045e+01
2.830000e-06	4.077229e-06	1.175612e-09	2.838775e+01	8.001995e+01
2.840000e-06	4.108624e-06	1.178995e-09	2.860634e+01	8.038914e+01
2.850000e-06	4.139747e-06	1.180336e-09	2.882304e+01	8.074805e+01
2.860000e-06	4.170509e-06	1.185223e-09	2.903722e+01	8.109676e+01
2.870000e-06	4.200917e-06	1.192205e-09	2.924894e+01	8.143536e+01
2.880000e-06	4.230958e-06	1.200178e-09	2.945810e+01	8.176399e+01
2.890000e-06	4.260743e-06	1.207716e-09	2.966548e+01	8.208280e+01
2.900000e-06	4.290422e-06	1.213495e-09	2.987212e+01	8.239199e+01
