# Temperatura_=_-0.7
# Concentracion g/m^3_=_1620.0
# C_Vs_to_Am_M_A/Vsm_=_65563218390.804596
# pendiente_HvsI_1/m_=_3716.3
# ordenada_HvsI_A/m_=_1297.0
# frecuencia_Hz_=_135089.59516592318

Tiempo_(s)	Campo_(V.s)	Magnetizacion_(V.s)	Campo_(kA/m)	Magnetizacion_(A/m)
0.000000e+00	-5.518980e-06	-1.161018e-09	-3.837672e+01	-7.699078e+01
1.000000e-08	-5.519232e-06	-1.161798e-09	-3.837847e+01	-7.697831e+01
2.000000e-08	-5.519308e-06	-1.162692e-09	-3.837900e+01	-7.696568e+01
3.000000e-08	-5.519012e-06	-1.163915e-09	-3.837694e+01	-7.695300e+01
4.000000e-08	-5.518261e-06	-1.159648e-09	-3.837172e+01	-7.694033e+01
5.000000e-08	-5.516938e-06	-1.151789e-09	-3.836252e+01	-7.692773e+01
6.000000e-08	-5.514928e-06	-1.142369e-09	-3.834854e+01	-7.691524e+01
7.000000e-08	-5.512351e-06	-1.120385e-09	-3.833062e+01	-7.690288e+01
8.000000e-08	-5.509291e-06	-1.140635e-09	-3.830935e+01	-7.689063e+01
9.000000e-08	-5.505853e-06	-1.216131e-09	-3.828544e+01	-7.687848e+01
1.000000e-07	-5.501931e-06	-1.209658e-09	-3.825817e+01	-7.686638e+01
1.100000e-07	-5.497588e-06	-1.057097e-09	-3.822797e+01	-7.685425e+01
1.200000e-07	-5.493245e-06	-1.085100e-09	-3.819777e+01	-7.684201e+01
1.300000e-07	-5.488675e-06	-1.167676e-09	-3.816599e+01	-7.682954e+01
1.400000e-07	-5.483520e-06	-1.212258e-09	-3.813014e+01	-7.681672e+01
1.500000e-07	-5.477938e-06	-1.063723e-09	-3.809133e+01	-7.680339e+01
1.600000e-07	-5.472111e-06	-1.046802e-09	-3.805081e+01	-7.678939e+01
1.700000e-07	-5.465922e-06	-1.162853e-09	-3.800777e+01	-7.677451e+01
1.800000e-07	-5.459172e-06	-1.204639e-09	-3.796084e+01	-7.675858e+01
1.900000e-07	-5.452042e-06	-1.124079e-09	-3.791126e+01	-7.674136e+01
2.000000e-07	-5.444657e-06	-1.083966e-09	-3.785991e+01	-7.672262e+01
2.100000e-07	-5.437001e-06	-1.178715e-09	-3.780667e+01	-7.670214e+01
2.200000e-07	-5.429110e-06	-1.216009e-09	-3.775180e+01	-7.667965e+01
2.300000e-07	-5.420944e-06	-1.170357e-09	-3.769502e+01	-7.665491e+01
2.400000e-07	-5.412418e-06	-1.109045e-09	-3.763573e+01	-7.662765e+01
2.500000e-07	-5.403263e-06	-1.194506e-09	-3.757207e+01	-7.659762e+01
2.600000e-07	-5.393359e-06	-1.215866e-09	-3.750321e+01	-7.656454e+01
2.700000e-07	-5.382889e-06	-1.182534e-09	-3.743040e+01	-7.652817e+01
2.800000e-07	-5.371835e-06	-1.134496e-09	-3.735354e+01	-7.648825e+01
2.900000e-07	-5.360287e-06	-1.200375e-09	-3.727323e+01	-7.644452e+01
3.000000e-07	-5.348441e-06	-1.200190e-09	-3.719086e+01	-7.639675e+01
3.100000e-07	-5.336272e-06	-1.175899e-09	-3.710624e+01	-7.634470e+01
3.200000e-07	-5.323581e-06	-1.137963e-09	-3.701799e+01	-7.628817e+01
3.300000e-07	-5.310434e-06	-1.196206e-09	-3.692658e+01	-7.622695e+01
3.400000e-07	-5.296991e-06	-1.194737e-09	-3.683310e+01	-7.616085e+01
3.500000e-07	-5.283217e-06	-1.151801e-09	-3.673732e+01	-7.608970e+01
3.600000e-07	-5.269028e-06	-1.142878e-09	-3.663866e+01	-7.601336e+01
3.700000e-07	-5.254468e-06	-1.210593e-09	-3.653741e+01	-7.593171e+01
3.800000e-07	-5.239353e-06	-1.170879e-09	-3.643231e+01	-7.584462e+01
3.900000e-07	-5.223463e-06	-1.111488e-09	-3.632181e+01	-7.575203e+01
4.000000e-07	-5.207150e-06	-1.181427e-09	-3.620838e+01	-7.565387e+01
4.100000e-07	-5.190495e-06	-1.209829e-09	-3.609257e+01	-7.555010e+01
4.200000e-07	-5.173390e-06	-1.102017e-09	-3.597363e+01	-7.544072e+01
4.300000e-07	-5.156046e-06	-1.105908e-09	-3.585303e+01	-7.532573e+01
4.400000e-07	-5.138531e-06	-1.230814e-09	-3.573123e+01	-7.520517e+01
4.500000e-07	-5.120665e-06	-1.151001e-09	-3.560700e+01	-7.507911e+01
4.600000e-07	-5.102335e-06	-1.059459e-09	-3.547954e+01	-7.494762e+01
4.700000e-07	-5.083503e-06	-1.159279e-09	-3.534859e+01	-7.481081e+01
4.800000e-07	-5.064296e-06	-1.190059e-09	-3.521503e+01	-7.466881e+01
4.900000e-07	-5.044839e-06	-1.062321e-09	-3.507974e+01	-7.452177e+01
5.000000e-07	-5.025177e-06	-1.120591e-09	-3.494301e+01	-7.436984e+01
5.100000e-07	-5.005378e-06	-1.191698e-09	-3.480534e+01	-7.421322e+01
5.200000e-07	-4.985341e-06	-1.089920e-09	-3.466601e+01	-7.405210e+01
5.300000e-07	-4.964940e-06	-1.064582e-09	-3.452416e+01	-7.388670e+01
5.400000e-07	-4.944140e-06	-1.182529e-09	-3.437952e+01	-7.371724e+01
5.500000e-07	-4.922955e-06	-1.114735e-09	-3.423221e+01	-7.354395e+01
5.600000e-07	-4.901427e-06	-1.044267e-09	-3.408251e+01	-7.336708e+01
5.700000e-07	-4.879674e-06	-1.130249e-09	-3.393125e+01	-7.318688e+01
5.800000e-07	-4.857587e-06	-1.140226e-09	-3.377766e+01	-7.300359e+01
5.900000e-07	-4.835026e-06	-1.041607e-09	-3.362078e+01	-7.281748e+01
6.000000e-07	-4.812105e-06	-1.089931e-09	-3.346140e+01	-7.262880e+01
6.100000e-07	-4.788846e-06	-1.126930e-09	-3.329967e+01	-7.243779e+01
6.200000e-07	-4.765313e-06	-1.062152e-09	-3.313603e+01	-7.224470e+01
6.300000e-07	-4.741591e-06	-1.061798e-09	-3.297108e+01	-7.204978e+01
6.400000e-07	-4.717662e-06	-1.107849e-09	-3.280469e+01	-7.185324e+01
6.500000e-07	-4.693404e-06	-1.065628e-09	-3.263600e+01	-7.165531e+01
6.600000e-07	-4.668805e-06	-1.052616e-09	-3.246495e+01	-7.145619e+01
6.700000e-07	-4.643795e-06	-1.085203e-09	-3.229104e+01	-7.125608e+01
6.800000e-07	-4.618040e-06	-1.063565e-09	-3.211196e+01	-7.105514e+01
6.900000e-07	-4.591692e-06	-1.041357e-09	-3.192874e+01	-7.085354e+01
7.000000e-07	-4.564976e-06	-1.065372e-09	-3.174297e+01	-7.065142e+01
7.100000e-07	-4.537781e-06	-1.057691e-09	-3.155387e+01	-7.044888e+01
7.200000e-07	-4.510307e-06	-1.041168e-09	-3.136282e+01	-7.024604e+01
7.300000e-07	-4.482728e-06	-1.057501e-09	-3.117105e+01	-7.004297e+01
7.400000e-07	-4.454971e-06	-1.046047e-09	-3.097804e+01	-6.983971e+01
7.500000e-07	-4.427000e-06	-1.032361e-09	-3.078354e+01	-6.963632e+01
7.600000e-07	-4.398728e-06	-1.038350e-09	-3.058695e+01	-6.943278e+01
7.700000e-07	-4.370156e-06	-1.035738e-09	-3.038827e+01	-6.922910e+01
7.800000e-07	-4.341352e-06	-1.016297e-09	-3.018798e+01	-6.902524e+01
7.900000e-07	-4.312218e-06	-1.028097e-09	-2.998539e+01	-6.882114e+01
8.000000e-07	-4.282726e-06	-1.028762e-09	-2.978032e+01	-6.861672e+01
8.100000e-07	-4.252938e-06	-1.013250e-09	-2.957318e+01	-6.841189e+01
8.200000e-07	-4.222900e-06	-1.011036e-09	-2.936431e+01	-6.820652e+01
8.300000e-07	-4.192680e-06	-1.025861e-09	-2.915417e+01	-6.800049e+01
8.400000e-07	-4.162097e-06	-1.008750e-09	-2.894152e+01	-6.779363e+01
8.500000e-07	-4.131090e-06	-9.991665e-10	-2.872590e+01	-6.758578e+01
8.600000e-07	-4.099820e-06	-1.003159e-09	-2.850847e+01	-6.737675e+01
8.700000e-07	-4.068414e-06	-9.966336e-10	-2.829008e+01	-6.716634e+01
8.800000e-07	-4.036894e-06	-9.796844e-10	-2.807090e+01	-6.695435e+01
8.900000e-07	-4.005206e-06	-9.904968e-10	-2.785055e+01	-6.674055e+01
9.000000e-07	-3.973295e-06	-9.940048e-10	-2.762866e+01	-6.652471e+01
9.100000e-07	-3.941053e-06	-9.803708e-10	-2.740447e+01	-6.630661e+01
9.200000e-07	-3.908411e-06	-9.749636e-10	-2.717748e+01	-6.608599e+01
9.300000e-07	-3.875364e-06	-9.805184e-10	-2.694769e+01	-6.586262e+01
9.400000e-07	-3.841914e-06	-9.646433e-10	-2.671509e+01	-6.563624e+01
9.500000e-07	-3.807997e-06	-9.530907e-10	-2.647925e+01	-6.540663e+01
9.600000e-07	-3.773580e-06	-9.605348e-10	-2.623993e+01	-6.517352e+01
9.700000e-07	-3.738687e-06	-9.638812e-10	-2.599729e+01	-6.493669e+01
9.800000e-07	-3.703448e-06	-9.578975e-10	-2.575225e+01	-6.469590e+01
9.900000e-07	-3.667979e-06	-9.577685e-10	-2.550562e+01	-6.445091e+01
1.000000e-06	-3.632390e-06	-9.536612e-10	-2.525815e+01	-6.420152e+01
1.010000e-06	-3.596716e-06	-9.384673e-10	-2.501008e+01	-6.394750e+01
1.020000e-06	-3.560938e-06	-9.311417e-10	-2.476130e+01	-6.368866e+01
1.030000e-06	-3.525057e-06	-9.290149e-10	-2.451180e+01	-6.342480e+01
1.040000e-06	-3.488995e-06	-9.249274e-10	-2.426104e+01	-6.315574e+01
1.050000e-06	-3.452638e-06	-9.219639e-10	-2.400822e+01	-6.288132e+01
1.060000e-06	-3.415947e-06	-9.237727e-10	-2.375309e+01	-6.260138e+01
1.070000e-06	-3.378994e-06	-9.163076e-10	-2.349614e+01	-6.231578e+01
1.080000e-06	-3.341797e-06	-9.085135e-10	-2.323749e+01	-6.202440e+01
1.090000e-06	-3.304316e-06	-9.011193e-10	-2.297686e+01	-6.172711e+01
1.100000e-06	-3.266594e-06	-8.944465e-10	-2.271456e+01	-6.142383e+01
1.110000e-06	-3.228679e-06	-8.838712e-10	-2.245091e+01	-6.111446e+01
1.120000e-06	-3.190563e-06	-8.814427e-10	-2.218586e+01	-6.079893e+01
1.130000e-06	-3.152173e-06	-8.794282e-10	-2.191891e+01	-6.047718e+01
1.140000e-06	-3.113569e-06	-8.789004e-10	-2.165048e+01	-6.014916e+01
1.150000e-06	-3.074804e-06	-8.739037e-10	-2.138092e+01	-5.981483e+01
1.160000e-06	-3.035792e-06	-8.670451e-10	-2.110965e+01	-5.947417e+01
1.170000e-06	-2.996571e-06	-8.555583e-10	-2.083692e+01	-5.912715e+01
1.180000e-06	-2.957232e-06	-8.476810e-10	-2.056338e+01	-5.877378e+01
1.190000e-06	-2.917746e-06	-8.424160e-10	-2.028880e+01	-5.841403e+01
1.200000e-06	-2.878118e-06	-8.393242e-10	-2.001325e+01	-5.804793e+01
1.210000e-06	-2.838404e-06	-8.383308e-10	-1.973710e+01	-5.767547e+01
1.220000e-06	-2.798527e-06	-8.377568e-10	-1.945981e+01	-5.729667e+01
1.230000e-06	-2.758493e-06	-8.322323e-10	-1.918143e+01	-5.691154e+01
1.240000e-06	-2.718273e-06	-8.243394e-10	-1.890175e+01	-5.652010e+01
1.250000e-06	-2.677823e-06	-8.153383e-10	-1.862048e+01	-5.612235e+01
1.260000e-06	-2.637159e-06	-8.087745e-10	-1.833772e+01	-5.571831e+01
1.270000e-06	-2.596291e-06	-8.044348e-10	-1.805354e+01	-5.530797e+01
1.280000e-06	-2.555239e-06	-8.002749e-10	-1.776809e+01	-5.489135e+01
1.290000e-06	-2.513804e-06	-7.931621e-10	-1.747996e+01	-5.446843e+01
1.300000e-06	-2.471930e-06	-7.858364e-10	-1.718879e+01	-5.403920e+01
1.310000e-06	-2.429761e-06	-7.794990e-10	-1.689556e+01	-5.360362e+01
1.320000e-06	-2.387280e-06	-7.724482e-10	-1.660017e+01	-5.316167e+01
1.330000e-06	-2.344434e-06	-7.653388e-10	-1.630223e+01	-5.271329e+01
1.340000e-06	-2.301331e-06	-7.591919e-10	-1.600251e+01	-5.225842e+01
1.350000e-06	-2.258068e-06	-7.530220e-10	-1.570167e+01	-5.179698e+01
1.360000e-06	-2.214675e-06	-7.407457e-10	-1.539994e+01	-5.132888e+01
1.370000e-06	-2.171217e-06	-7.309165e-10	-1.509775e+01	-5.085401e+01
1.380000e-06	-2.127636e-06	-7.248406e-10	-1.479471e+01	-5.037224e+01
1.390000e-06	-2.083947e-06	-7.185093e-10	-1.449091e+01	-4.988342e+01
1.400000e-06	-2.040207e-06	-7.107622e-10	-1.418676e+01	-4.938741e+01
1.410000e-06	-1.996396e-06	-7.057444e-10	-1.388212e+01	-4.888400e+01
1.420000e-06	-1.952444e-06	-6.962562e-10	-1.357650e+01	-4.837302e+01
1.430000e-06	-1.908391e-06	-6.858111e-10	-1.327017e+01	-4.785423e+01
1.440000e-06	-1.864316e-06	-6.758052e-10	-1.296369e+01	-4.732740e+01
1.450000e-06	-1.820165e-06	-6.662277e-10	-1.265668e+01	-4.679227e+01
1.460000e-06	-1.775810e-06	-6.547077e-10	-1.234825e+01	-4.624858e+01
1.470000e-06	-1.731329e-06	-6.448280e-10	-1.203895e+01	-4.569604e+01
1.480000e-06	-1.686806e-06	-6.361527e-10	-1.172935e+01	-4.513434e+01
1.490000e-06	-1.642118e-06	-6.276314e-10	-1.141861e+01	-4.456316e+01
1.500000e-06	-1.597298e-06	-6.175215e-10	-1.110696e+01	-4.398216e+01
1.510000e-06	-1.552344e-06	-6.081439e-10	-1.079436e+01	-4.339100e+01
1.520000e-06	-1.507160e-06	-5.958241e-10	-1.048017e+01	-4.278932e+01
1.530000e-06	-1.461839e-06	-5.801015e-10	-1.016503e+01	-4.217674e+01
1.540000e-06	-1.416443e-06	-5.669877e-10	-9.849365e+00	-4.155289e+01
1.550000e-06	-1.371037e-06	-5.600679e-10	-9.533626e+00	-4.091738e+01
1.560000e-06	-1.325548e-06	-5.522247e-10	-9.217319e+00	-4.026982e+01
1.570000e-06	-1.279946e-06	-5.442738e-10	-8.900217e+00	-3.960981e+01
1.580000e-06	-1.234271e-06	-5.356098e-10	-8.582617e+00	-3.893697e+01
1.590000e-06	-1.188530e-06	-5.225361e-10	-8.264549e+00	-3.825089e+01
1.600000e-06	-1.142750e-06	-5.068567e-10	-7.946216e+00	-3.755118e+01
1.610000e-06	-1.096902e-06	-4.950844e-10	-7.627404e+00	-3.683746e+01
1.620000e-06	-1.050938e-06	-4.864062e-10	-7.307788e+00	-3.610935e+01
1.630000e-06	-1.004826e-06	-4.794407e-10	-6.987144e+00	-3.536649e+01
1.640000e-06	-9.587041e-07	-4.745064e-10	-6.666434e+00	-3.460851e+01
1.650000e-06	-9.124360e-07	-4.627944e-10	-6.344705e+00	-3.383507e+01
1.660000e-06	-8.660701e-07	-4.478613e-10	-6.022296e+00	-3.304586e+01
1.670000e-06	-8.198138e-07	-4.299129e-10	-5.700648e+00	-3.224057e+01
1.680000e-06	-7.735901e-07	-4.152484e-10	-5.379228e+00	-3.141893e+01
1.690000e-06	-7.272963e-07	-4.024850e-10	-5.057319e+00	-3.058067e+01
1.700000e-06	-6.808025e-07	-3.922769e-10	-4.734021e+00	-2.972557e+01
1.710000e-06	-6.342069e-07	-3.829170e-10	-4.410014e+00	-2.885343e+01
1.720000e-06	-5.876271e-07	-3.719832e-10	-4.086117e+00	-2.796409e+01
1.730000e-06	-5.410111e-07	-3.570262e-10	-3.761969e+00	-2.705741e+01
1.740000e-06	-4.942965e-07	-3.411000e-10	-3.437135e+00	-2.613330e+01
1.750000e-06	-4.475724e-07	-3.248652e-10	-3.112235e+00	-2.519170e+01
1.760000e-06	-4.008211e-07	-3.074288e-10	-2.787145e+00	-2.423258e+01
1.770000e-06	-3.540115e-07	-2.891740e-10	-2.461651e+00	-2.325598e+01
1.780000e-06	-3.071591e-07	-2.747724e-10	-2.135858e+00	-2.226195e+01
1.790000e-06	-2.603112e-07	-2.635434e-10	-1.810097e+00	-2.125061e+01
1.800000e-06	-2.134662e-07	-2.495831e-10	-1.484356e+00	-2.022210e+01
1.810000e-06	-1.665721e-07	-2.348774e-10	-1.158274e+00	-1.917664e+01
1.820000e-06	-1.197158e-07	-2.199355e-10	-8.324548e-01	-1.811447e+01
1.830000e-06	-7.286386e-08	-2.030235e-10	-5.066653e-01	-1.703588e+01
1.840000e-06	-2.605811e-08	-1.854431e-10	-1.811974e-01	-1.594122e+01
1.850000e-06	2.064683e-08	-1.672806e-10	1.435696e-01	-1.483087e+01
1.860000e-06	6.739917e-08	-1.497249e-10	4.686661e-01	-1.370528e+01
1.870000e-06	1.142515e-07	-1.335066e-10	7.944578e-01	-1.256493e+01
1.880000e-06	1.611668e-07	-1.189498e-10	1.120688e+00	-1.141036e+01
1.890000e-06	2.081057e-07	-1.058316e-10	1.447082e+00	-1.024214e+01
1.900000e-06	2.549880e-07	-9.007795e-11	1.773082e+00	-9.060904e+00
1.910000e-06	3.018142e-07	-7.304217e-11	2.098692e+00	-7.867312e+00
1.920000e-06	3.486076e-07	-5.576857e-11	2.424074e+00	-6.662077e+00
1.930000e-06	3.953399e-07	-3.890170e-11	2.749032e+00	-5.445951e+00
1.940000e-06	4.419443e-07	-2.123276e-11	3.073099e+00	-4.219723e+00
1.950000e-06	4.886043e-07	-6.261251e-12	3.397553e+00	-2.984219e+00
1.960000e-06	5.352863e-07	7.766097e-12	3.722161e+00	-1.740299e+00
1.970000e-06	5.817859e-07	2.381748e-11	4.045500e+00	-4.888541e-01
1.980000e-06	6.282214e-07	4.132114e-11	4.368394e+00	7.691954e-01
1.990000e-06	6.746435e-07	5.906437e-11	4.691193e+00	2.032904e+00
2.000000e-06	7.210019e-07	7.709725e-11	5.013551e+00	3.301302e+00
2.010000e-06	7.673111e-07	9.550773e-11	5.335566e+00	4.573402e+00
2.020000e-06	8.136536e-07	1.145720e-10	5.657813e+00	5.848201e+00
2.030000e-06	8.599619e-07	1.317452e-10	5.979822e+00	7.124680e+00
2.040000e-06	9.061520e-07	1.496528e-10	6.301009e+00	8.401815e+00
2.050000e-06	9.522561e-07	1.678499e-10	6.621598e+00	9.678574e+00
2.060000e-06	9.982961e-07	1.854247e-10	6.941741e+00	1.095392e+01
2.070000e-06	1.044280e-06	2.027495e-10	7.261496e+00	1.222684e+01
2.080000e-06	1.090134e-06	2.206644e-10	7.580344e+00	1.349628e+01
2.090000e-06	1.135858e-06	2.377026e-10	7.898292e+00	1.476124e+01
2.100000e-06	1.181558e-06	2.546538e-10	8.216071e+00	1.602072e+01
2.110000e-06	1.227201e-06	2.727717e-10	8.533449e+00	1.727373e+01
2.120000e-06	1.272746e-06	2.914364e-10	8.850152e+00	1.851930e+01
2.130000e-06	1.318212e-06	3.118592e-10	9.166306e+00	1.975649e+01
2.140000e-06	1.363614e-06	3.295255e-10	9.482012e+00	2.098438e+01
2.150000e-06	1.408936e-06	3.449976e-10	9.797163e+00	2.220209e+01
2.160000e-06	1.454172e-06	3.585448e-10	1.011172e+01	2.340876e+01
2.170000e-06	1.499291e-06	3.751279e-10	1.042545e+01	2.460358e+01
2.180000e-06	1.544285e-06	3.931156e-10	1.073832e+01	2.578576e+01
2.190000e-06	1.589184e-06	4.116131e-10	1.105053e+01	2.695457e+01
2.200000e-06	1.633937e-06	4.310390e-10	1.136173e+01	2.810932e+01
2.210000e-06	1.678513e-06	4.498497e-10	1.167169e+01	2.924934e+01
2.220000e-06	1.722971e-06	4.675857e-10	1.198083e+01	3.037404e+01
2.230000e-06	1.767317e-06	4.818049e-10	1.228920e+01	3.148286e+01
2.240000e-06	1.811559e-06	4.937217e-10	1.259684e+01	3.257529e+01
2.250000e-06	1.855667e-06	5.065008e-10	1.290355e+01	3.365087e+01
2.260000e-06	1.899621e-06	5.220714e-10	1.320918e+01	3.470921e+01
2.270000e-06	1.943456e-06	5.380794e-10	1.351399e+01	3.574992e+01
2.280000e-06	1.987184e-06	5.523421e-10	1.381806e+01	3.677273e+01
2.290000e-06	2.030866e-06	5.653743e-10	1.412181e+01	3.777735e+01
2.300000e-06	2.074568e-06	5.776603e-10	1.442569e+01	3.876360e+01
2.310000e-06	2.118259e-06	5.897108e-10	1.472950e+01	3.973131e+01
2.320000e-06	2.161861e-06	6.027381e-10	1.503269e+01	4.068037e+01
2.330000e-06	2.205363e-06	6.161492e-10	1.533519e+01	4.161072e+01
2.340000e-06	2.248701e-06	6.288786e-10	1.563654e+01	4.252235e+01
2.350000e-06	2.291865e-06	6.412041e-10	1.593669e+01	4.341527e+01
2.360000e-06	2.334911e-06	6.519190e-10	1.623601e+01	4.428954e+01
2.370000e-06	2.377698e-06	6.607153e-10	1.653354e+01	4.514529e+01
2.380000e-06	2.420130e-06	6.699841e-10	1.682859e+01	4.598264e+01
2.390000e-06	2.462239e-06	6.825715e-10	1.712140e+01	4.680178e+01
2.400000e-06	2.503962e-06	6.955324e-10	1.741153e+01	4.760290e+01
2.410000e-06	2.545464e-06	7.054354e-10	1.770011e+01	4.838625e+01
2.420000e-06	2.586710e-06	7.167188e-10	1.798692e+01	4.915208e+01
2.430000e-06	2.627589e-06	7.241279e-10	1.827117e+01	4.990067e+01
2.440000e-06	2.668237e-06	7.345886e-10	1.855382e+01	5.063233e+01
2.450000e-06	2.708738e-06	7.477574e-10	1.883545e+01	5.134738e+01
2.460000e-06	2.749058e-06	7.612074e-10	1.911582e+01	5.204615e+01
2.470000e-06	2.789138e-06	7.713687e-10	1.939452e+01	5.272899e+01
2.480000e-06	2.829046e-06	7.770069e-10	1.967202e+01	5.339624e+01
2.490000e-06	2.868827e-06	7.811106e-10	1.994864e+01	5.404826e+01
2.500000e-06	2.908490e-06	7.890643e-10	2.022444e+01	5.468542e+01
2.510000e-06	2.947990e-06	8.008965e-10	2.049911e+01	5.530806e+01
2.520000e-06	2.987351e-06	8.127665e-10	2.077281e+01	5.591656e+01
2.530000e-06	3.026598e-06	8.228914e-10	2.104572e+01	5.651125e+01
2.540000e-06	3.065550e-06	8.298207e-10	2.131657e+01	5.709249e+01
2.550000e-06	3.104264e-06	8.352970e-10	2.158578e+01	5.766060e+01
2.560000e-06	3.142714e-06	8.385844e-10	2.185314e+01	5.821592e+01
2.570000e-06	3.180857e-06	8.461780e-10	2.211837e+01	5.875876e+01
2.580000e-06	3.218897e-06	8.561641e-10	2.238289e+01	5.928942e+01
2.590000e-06	3.256758e-06	8.655400e-10	2.264615e+01	5.980818e+01
2.600000e-06	3.294425e-06	8.732463e-10	2.290808e+01	6.031531e+01
2.610000e-06	3.331829e-06	8.807777e-10	2.316817e+01	6.081106e+01
2.620000e-06	3.369048e-06	8.883089e-10	2.342698e+01	6.129567e+01
2.630000e-06	3.406123e-06	8.938896e-10	2.368478e+01	6.176937e+01
2.640000e-06	3.442859e-06	8.984803e-10	2.394023e+01	6.223235e+01
2.650000e-06	3.479205e-06	9.055167e-10	2.419296e+01	6.268480e+01
2.660000e-06	3.515269e-06	9.127349e-10	2.444374e+01	6.312689e+01
2.670000e-06	3.551213e-06	9.210450e-10	2.469368e+01	6.355879e+01
2.680000e-06	3.587048e-06	9.259259e-10	2.494286e+01	6.398062e+01
2.690000e-06	3.622741e-06	9.299705e-10	2.519105e+01	6.439252e+01
2.700000e-06	3.658291e-06	9.353893e-10	2.543826e+01	6.479460e+01
2.710000e-06	3.693688e-06	9.415143e-10	2.568439e+01	6.518697e+01
2.720000e-06	3.728817e-06	9.475347e-10	2.592866e+01	6.556973e+01
2.730000e-06	3.763680e-06	9.559807e-10	2.617108e+01	6.594295e+01
2.740000e-06	3.798196e-06	9.634324e-10	2.641109e+01	6.630673e+01
2.750000e-06	3.832227e-06	9.664634e-10	2.664773e+01	6.666113e+01
2.760000e-06	3.865772e-06	9.674883e-10	2.688099e+01	6.700622e+01
2.770000e-06	3.898742e-06	9.704177e-10	2.711025e+01	6.734208e+01
2.780000e-06	3.931291e-06	9.763065e-10	2.733658e+01	6.766877e+01
2.790000e-06	3.963607e-06	9.811901e-10	2.756130e+01	6.798637e+01
2.800000e-06	3.995631e-06	9.853322e-10	2.778398e+01	6.829495e+01
2.810000e-06	4.027439e-06	9.910460e-10	2.800516e+01	6.859459e+01
2.820000e-06	4.059125e-06	9.963861e-10	2.822549e+01	6.888537e+01
2.830000e-06	4.090694e-06	1.001401e-09	2.844501e+01	6.916738e+01
2.840000e-06	4.122078e-06	1.004831e-09	2.866324e+01	6.944073e+01
2.850000e-06	4.153184e-06	1.007155e-09	2.887954e+01	6.970553e+01
2.860000e-06	4.184009e-06	1.011799e-09	2.909388e+01	6.996189e+01
2.870000e-06	4.214430e-06	1.016032e-09	2.930541e+01	7.020994e+01
2.880000e-06	4.244481e-06	1.018981e-09	2.951438e+01	7.044984e+01
2.890000e-06	4.274272e-06	1.023575e-09	2.972153e+01	7.068173e+01
2.900000e-06	4.303831e-06	1.029473e-09	2.992708e+01	7.090578e+01
