# Temperatura_=_-0.4
# Concentracion g/m^3_=_1620.0
# C_Vs_to_Am_M_A/Vsm_=_65563218390.804596
# pendiente_HvsI_1/m_=_3716.3
# ordenada_HvsI_A/m_=_1297.0
# frecuencia_Hz_=_135089.4706283888

Tiempo_(s)	Campo_(V.s)	Magnetizacion_(V.s)	Campo_(kA/m)	Magnetizacion_(A/m)
0.000000e+00	-5.514740e-06	-1.376990e-09	-3.837700e+01	-8.786637e+01
1.000000e-08	-5.514804e-06	-1.379114e-09	-3.837744e+01	-8.786285e+01
2.000000e-08	-5.514574e-06	-1.383749e-09	-3.837584e+01	-8.785722e+01
3.000000e-08	-5.514036e-06	-1.384396e-09	-3.837209e+01	-8.784947e+01
4.000000e-08	-5.513030e-06	-1.378526e-09	-3.836509e+01	-8.783959e+01
5.000000e-08	-5.511372e-06	-1.371812e-09	-3.835355e+01	-8.782758e+01
6.000000e-08	-5.509045e-06	-1.364597e-09	-3.833736e+01	-8.781340e+01
7.000000e-08	-5.506158e-06	-1.366802e-09	-3.831727e+01	-8.779705e+01
8.000000e-08	-5.502779e-06	-1.380930e-09	-3.829375e+01	-8.777849e+01
9.000000e-08	-5.498905e-06	-1.362956e-09	-3.826679e+01	-8.775768e+01
1.000000e-07	-5.494651e-06	-1.327247e-09	-3.823719e+01	-8.773459e+01
1.100000e-07	-5.490217e-06	-1.331499e-09	-3.820634e+01	-8.770916e+01
1.200000e-07	-5.485658e-06	-1.358460e-09	-3.817461e+01	-8.768135e+01
1.300000e-07	-5.480715e-06	-1.372165e-09	-3.814021e+01	-8.765110e+01
1.400000e-07	-5.475279e-06	-1.336492e-09	-3.810239e+01	-8.761836e+01
1.500000e-07	-5.469516e-06	-1.301782e-09	-3.806228e+01	-8.758305e+01
1.600000e-07	-5.463496e-06	-1.358067e-09	-3.802039e+01	-8.754511e+01
1.700000e-07	-5.457039e-06	-1.381358e-09	-3.797545e+01	-8.750446e+01
1.800000e-07	-5.450114e-06	-1.370025e-09	-3.792726e+01	-8.746103e+01
1.900000e-07	-5.442705e-06	-1.297838e-09	-3.787570e+01	-8.741475e+01
2.000000e-07	-5.435011e-06	-1.319353e-09	-3.782216e+01	-8.736552e+01
2.100000e-07	-5.427214e-06	-1.353783e-09	-3.776790e+01	-8.731326e+01
2.200000e-07	-5.419183e-06	-1.345456e-09	-3.771202e+01	-8.725789e+01
2.300000e-07	-5.410742e-06	-1.317049e-09	-3.765327e+01	-8.719931e+01
2.400000e-07	-5.401752e-06	-1.334200e-09	-3.759071e+01	-8.713745e+01
2.500000e-07	-5.392025e-06	-1.354474e-09	-3.752302e+01	-8.707220e+01
2.600000e-07	-5.381628e-06	-1.336006e-09	-3.745067e+01	-8.700348e+01
2.700000e-07	-5.370796e-06	-1.318453e-09	-3.737529e+01	-8.693120e+01
2.800000e-07	-5.359523e-06	-1.325812e-09	-3.729684e+01	-8.685527e+01
2.900000e-07	-5.347841e-06	-1.342217e-09	-3.721555e+01	-8.677560e+01
3.000000e-07	-5.335789e-06	-1.318421e-09	-3.713168e+01	-8.669211e+01
3.100000e-07	-5.323359e-06	-1.316684e-09	-3.704518e+01	-8.660472e+01
3.200000e-07	-5.310474e-06	-1.313309e-09	-3.695551e+01	-8.651334e+01
3.300000e-07	-5.297101e-06	-1.323728e-09	-3.686245e+01	-8.641791e+01
3.400000e-07	-5.283294e-06	-1.296536e-09	-3.676636e+01	-8.631834e+01
3.500000e-07	-5.269221e-06	-1.298744e-09	-3.666843e+01	-8.621458e+01
3.600000e-07	-5.254832e-06	-1.298755e-09	-3.656830e+01	-8.610657e+01
3.700000e-07	-5.239888e-06	-1.310030e-09	-3.646431e+01	-8.599424e+01
3.800000e-07	-5.224166e-06	-1.293734e-09	-3.635489e+01	-8.587755e+01
3.900000e-07	-5.207952e-06	-1.300774e-09	-3.624206e+01	-8.575647e+01
4.000000e-07	-5.191471e-06	-1.295135e-09	-3.612737e+01	-8.563094e+01
4.100000e-07	-5.174630e-06	-1.291272e-09	-3.601017e+01	-8.550096e+01
4.200000e-07	-5.157404e-06	-1.285043e-09	-3.589029e+01	-8.536650e+01
4.300000e-07	-5.139847e-06	-1.299596e-09	-3.576812e+01	-8.522754e+01
4.400000e-07	-5.122055e-06	-1.292056e-09	-3.564430e+01	-8.508409e+01
4.500000e-07	-5.103804e-06	-1.277894e-09	-3.551729e+01	-8.493616e+01
4.600000e-07	-5.085120e-06	-1.270404e-09	-3.538727e+01	-8.478377e+01
4.700000e-07	-5.066104e-06	-1.275187e-09	-3.525494e+01	-8.462692e+01
4.800000e-07	-5.046768e-06	-1.277451e-09	-3.512038e+01	-8.446567e+01
4.900000e-07	-5.027160e-06	-1.276501e-09	-3.498393e+01	-8.430006e+01
5.000000e-07	-5.007311e-06	-1.267643e-09	-3.484580e+01	-8.413013e+01
5.100000e-07	-4.987173e-06	-1.259256e-09	-3.470566e+01	-8.395595e+01
5.200000e-07	-4.966749e-06	-1.264519e-09	-3.456353e+01	-8.377758e+01
5.300000e-07	-4.946052e-06	-1.261362e-09	-3.441950e+01	-8.359511e+01
5.400000e-07	-4.924991e-06	-1.249481e-09	-3.427294e+01	-8.340862e+01
5.500000e-07	-4.903542e-06	-1.244085e-09	-3.412368e+01	-8.321820e+01
5.600000e-07	-4.881731e-06	-1.251620e-09	-3.397189e+01	-8.302394e+01
5.700000e-07	-4.859698e-06	-1.247304e-09	-3.381856e+01	-8.282595e+01
5.800000e-07	-4.837348e-06	-1.248246e-09	-3.366303e+01	-8.262435e+01
5.900000e-07	-4.814496e-06	-1.242809e-09	-3.350401e+01	-8.241924e+01
6.000000e-07	-4.791282e-06	-1.234715e-09	-3.334246e+01	-8.221074e+01
6.100000e-07	-4.767864e-06	-1.226275e-09	-3.317950e+01	-8.199896e+01
6.200000e-07	-4.744200e-06	-1.230281e-09	-3.301482e+01	-8.178404e+01
6.300000e-07	-4.720249e-06	-1.219982e-09	-3.284814e+01	-8.156608e+01
6.400000e-07	-4.696072e-06	-1.218771e-09	-3.267989e+01	-8.134522e+01
6.500000e-07	-4.671632e-06	-1.223002e-09	-3.250982e+01	-8.112156e+01
6.600000e-07	-4.646689e-06	-1.221155e-09	-3.233624e+01	-8.089523e+01
6.700000e-07	-4.621263e-06	-1.205782e-09	-3.215930e+01	-8.066633e+01
6.800000e-07	-4.595347e-06	-1.204665e-09	-3.197895e+01	-8.043497e+01
6.900000e-07	-4.568854e-06	-1.199097e-09	-3.179458e+01	-8.020126e+01
7.000000e-07	-4.541887e-06	-1.191812e-09	-3.160693e+01	-7.996528e+01
7.100000e-07	-4.514553e-06	-1.186260e-09	-3.141671e+01	-7.972712e+01
7.200000e-07	-4.486933e-06	-1.187274e-09	-3.122450e+01	-7.948686e+01
7.300000e-07	-4.459112e-06	-1.179991e-09	-3.103089e+01	-7.924456e+01
7.400000e-07	-4.431136e-06	-1.179366e-09	-3.083621e+01	-7.900028e+01
7.500000e-07	-4.403012e-06	-1.176327e-09	-3.064049e+01	-7.875406e+01
7.600000e-07	-4.374607e-06	-1.167044e-09	-3.044283e+01	-7.850592e+01
7.700000e-07	-4.345811e-06	-1.159233e-09	-3.024243e+01	-7.825588e+01
7.800000e-07	-4.316728e-06	-1.157941e-09	-3.004004e+01	-7.800395e+01
7.900000e-07	-4.287371e-06	-1.151517e-09	-2.983575e+01	-7.775011e+01
8.000000e-07	-4.257675e-06	-1.144189e-09	-2.962910e+01	-7.749433e+01
8.100000e-07	-4.227720e-06	-1.145339e-09	-2.942064e+01	-7.723657e+01
8.200000e-07	-4.197494e-06	-1.144206e-09	-2.921029e+01	-7.697676e+01
8.300000e-07	-4.166892e-06	-1.138780e-09	-2.899734e+01	-7.671485e+01
8.400000e-07	-4.135973e-06	-1.135037e-09	-2.878218e+01	-7.645073e+01
8.500000e-07	-4.104759e-06	-1.133402e-09	-2.856496e+01	-7.618429e+01
8.600000e-07	-4.073313e-06	-1.123620e-09	-2.834612e+01	-7.591544e+01
8.700000e-07	-4.041692e-06	-1.117146e-09	-2.812607e+01	-7.564401e+01
8.800000e-07	-4.009881e-06	-1.112358e-09	-2.790470e+01	-7.536989e+01
8.900000e-07	-3.977906e-06	-1.107483e-09	-2.768219e+01	-7.509289e+01
9.000000e-07	-3.945753e-06	-1.100342e-09	-2.745844e+01	-7.481285e+01
9.100000e-07	-3.913345e-06	-1.100314e-09	-2.723291e+01	-7.452960e+01
9.200000e-07	-3.880595e-06	-1.096462e-09	-2.700500e+01	-7.424293e+01
9.300000e-07	-3.847395e-06	-1.091315e-09	-2.677396e+01	-7.395266e+01
9.400000e-07	-3.813739e-06	-1.086004e-09	-2.653975e+01	-7.365857e+01
9.500000e-07	-3.779727e-06	-1.081759e-09	-2.630306e+01	-7.336045e+01
9.600000e-07	-3.745248e-06	-1.070773e-09	-2.606312e+01	-7.305808e+01
9.700000e-07	-3.710361e-06	-1.065217e-09	-2.582035e+01	-7.275126e+01
9.800000e-07	-3.675153e-06	-1.061031e-09	-2.557533e+01	-7.243975e+01
9.900000e-07	-3.639645e-06	-1.057134e-09	-2.532824e+01	-7.212335e+01
1.000000e-06	-3.603996e-06	-1.052513e-09	-2.508015e+01	-7.180183e+01
1.010000e-06	-3.568197e-06	-1.051008e-09	-2.483103e+01	-7.147498e+01
1.020000e-06	-3.532226e-06	-1.045213e-09	-2.458071e+01	-7.114260e+01
1.030000e-06	-3.496126e-06	-1.038305e-09	-2.432949e+01	-7.080449e+01
1.040000e-06	-3.459895e-06	-1.033885e-09	-2.407736e+01	-7.046045e+01
1.050000e-06	-3.423470e-06	-1.027629e-09	-2.382387e+01	-7.011030e+01
1.060000e-06	-3.386722e-06	-1.016080e-09	-2.356815e+01	-6.975388e+01
1.070000e-06	-3.349561e-06	-1.008252e-09	-2.330954e+01	-6.939103e+01
1.080000e-06	-3.312152e-06	-1.001837e-09	-2.304921e+01	-6.902159e+01
1.090000e-06	-3.274530e-06	-9.931064e-10	-2.278741e+01	-6.864545e+01
1.100000e-06	-3.236695e-06	-9.863591e-10	-2.252411e+01	-6.826249e+01
1.110000e-06	-3.198694e-06	-9.811611e-10	-2.225966e+01	-6.787260e+01
1.120000e-06	-3.160469e-06	-9.740882e-10	-2.199366e+01	-6.747571e+01
1.130000e-06	-3.121939e-06	-9.654153e-10	-2.172553e+01	-6.707175e+01
1.140000e-06	-3.083164e-06	-9.582712e-10	-2.145569e+01	-6.666066e+01
1.150000e-06	-3.044228e-06	-9.489348e-10	-2.118473e+01	-6.624243e+01
1.160000e-06	-3.005090e-06	-9.423231e-10	-2.091238e+01	-6.581702e+01
1.170000e-06	-2.965796e-06	-9.373794e-10	-2.063893e+01	-6.538444e+01
1.180000e-06	-2.926327e-06	-9.323363e-10	-2.036427e+01	-6.494470e+01
1.190000e-06	-2.886666e-06	-9.252776e-10	-2.008826e+01	-6.449783e+01
1.200000e-06	-2.846864e-06	-9.202204e-10	-1.981128e+01	-6.404387e+01
1.210000e-06	-2.806937e-06	-9.124215e-10	-1.953343e+01	-6.358287e+01
1.220000e-06	-2.766894e-06	-9.041827e-10	-1.925477e+01	-6.311490e+01
1.230000e-06	-2.726689e-06	-8.974041e-10	-1.897498e+01	-6.264002e+01
1.240000e-06	-2.686346e-06	-8.923188e-10	-1.869424e+01	-6.215831e+01
1.250000e-06	-2.645912e-06	-8.853236e-10	-1.841286e+01	-6.166986e+01
1.260000e-06	-2.605195e-06	-8.795872e-10	-1.812951e+01	-6.117474e+01
1.270000e-06	-2.564191e-06	-8.735673e-10	-1.784417e+01	-6.067305e+01
1.280000e-06	-2.522971e-06	-8.652917e-10	-1.755731e+01	-6.016487e+01
1.290000e-06	-2.481438e-06	-8.539263e-10	-1.726829e+01	-5.965028e+01
1.300000e-06	-2.439765e-06	-8.442297e-10	-1.697829e+01	-5.912935e+01
1.310000e-06	-2.397766e-06	-8.377017e-10	-1.668602e+01	-5.860214e+01
1.320000e-06	-2.355215e-06	-8.337828e-10	-1.638991e+01	-5.806871e+01
1.330000e-06	-2.312458e-06	-8.294389e-10	-1.609236e+01	-5.752910e+01
1.340000e-06	-2.269538e-06	-8.245448e-10	-1.579368e+01	-5.698332e+01
1.350000e-06	-2.226410e-06	-8.163987e-10	-1.549355e+01	-5.643140e+01
1.360000e-06	-2.183115e-06	-8.060670e-10	-1.519226e+01	-5.587330e+01
1.370000e-06	-2.139597e-06	-7.953806e-10	-1.488942e+01	-5.530899e+01
1.380000e-06	-2.095973e-06	-7.856439e-10	-1.458584e+01	-5.473841e+01
1.390000e-06	-2.052292e-06	-7.750308e-10	-1.428187e+01	-5.416147e+01
1.400000e-06	-2.008547e-06	-7.647791e-10	-1.397745e+01	-5.357805e+01
1.410000e-06	-1.964730e-06	-7.530925e-10	-1.367253e+01	-5.298801e+01
1.420000e-06	-1.920783e-06	-7.437095e-10	-1.336670e+01	-5.239117e+01
1.430000e-06	-1.876731e-06	-7.332803e-10	-1.306014e+01	-5.178733e+01
1.440000e-06	-1.832630e-06	-7.245275e-10	-1.275325e+01	-5.117625e+01
1.450000e-06	-1.788412e-06	-7.186354e-10	-1.244553e+01	-5.055766e+01
1.460000e-06	-1.744119e-06	-7.080314e-10	-1.213730e+01	-4.993126e+01
1.470000e-06	-1.699775e-06	-6.949903e-10	-1.182871e+01	-4.929672e+01
1.480000e-06	-1.655226e-06	-6.818082e-10	-1.151870e+01	-4.865367e+01
1.490000e-06	-1.610482e-06	-6.705320e-10	-1.120732e+01	-4.800173e+01
1.500000e-06	-1.565599e-06	-6.570820e-10	-1.089498e+01	-4.734047e+01
1.510000e-06	-1.520557e-06	-6.458763e-10	-1.058154e+01	-4.666945e+01
1.520000e-06	-1.475484e-06	-6.320898e-10	-1.026787e+01	-4.598818e+01
1.530000e-06	-1.430340e-06	-6.207218e-10	-9.953714e+00	-4.529619e+01
1.540000e-06	-1.385104e-06	-6.099663e-10	-9.638921e+00	-4.459295e+01
1.550000e-06	-1.339793e-06	-5.988504e-10	-9.323598e+00	-4.387793e+01
1.560000e-06	-1.294373e-06	-5.850597e-10	-9.007523e+00	-4.315058e+01
1.570000e-06	-1.248853e-06	-5.706181e-10	-8.690752e+00	-4.241034e+01
1.580000e-06	-1.203276e-06	-5.564960e-10	-8.373580e+00	-4.165665e+01
1.590000e-06	-1.157615e-06	-5.417405e-10	-8.055824e+00	-4.088894e+01
1.600000e-06	-1.111773e-06	-5.308504e-10	-7.736814e+00	-4.010663e+01
1.610000e-06	-1.065791e-06	-5.230732e-10	-7.416823e+00	-3.930916e+01
1.620000e-06	-1.019731e-06	-5.111635e-10	-7.096295e+00	-3.849597e+01
1.630000e-06	-9.736285e-07	-4.977775e-10	-6.775466e+00	-3.766651e+01
1.640000e-06	-9.274869e-07	-4.811575e-10	-6.454367e+00	-3.682025e+01
1.650000e-06	-8.813432e-07	-4.646581e-10	-6.133254e+00	-3.595668e+01
1.660000e-06	-8.351264e-07	-4.477914e-10	-5.811632e+00	-3.507532e+01
1.670000e-06	-7.889070e-07	-4.317705e-10	-5.489992e+00	-3.417572e+01
1.680000e-06	-7.425758e-07	-4.183738e-10	-5.167574e+00	-3.325744e+01
1.690000e-06	-6.960550e-07	-4.067380e-10	-4.843836e+00	-3.232010e+01
1.700000e-06	-6.495969e-07	-3.960609e-10	-4.520535e+00	-3.136337e+01
1.710000e-06	-6.031781e-07	-3.820542e-10	-4.197507e+00	-3.038695e+01
1.720000e-06	-5.566874e-07	-3.664947e-10	-3.873979e+00	-2.939057e+01
1.730000e-06	-5.101016e-07	-3.509005e-10	-3.549789e+00	-2.837406e+01
1.740000e-06	-4.634864e-07	-3.362717e-10	-3.225395e+00	-2.733727e+01
1.750000e-06	-4.168831e-07	-3.200531e-10	-2.901083e+00	-2.628011e+01
1.760000e-06	-3.701146e-07	-3.021338e-10	-2.575622e+00	-2.520257e+01
1.770000e-06	-3.231995e-07	-2.863233e-10	-2.249141e+00	-2.410468e+01
1.780000e-06	-2.763970e-07	-2.743491e-10	-1.923443e+00	-2.298654e+01
1.790000e-06	-2.297075e-07	-2.608952e-10	-1.598531e+00	-2.184834e+01
1.800000e-06	-1.829394e-07	-2.450608e-10	-1.273073e+00	-2.069030e+01
1.810000e-06	-1.361682e-07	-2.255480e-10	-9.475922e-01	-1.951273e+01
1.820000e-06	-8.938847e-08	-2.068517e-10	-6.220530e-01	-1.831600e+01
1.830000e-06	-4.262325e-08	-1.875126e-10	-2.966146e-01	-1.710056e+01
1.840000e-06	4.073593e-09	-1.666593e-10	2.834807e-02	-1.586692e+01
1.850000e-06	5.078390e-08	-1.491782e-10	3.534044e-01	-1.461564e+01
1.860000e-06	9.752573e-08	-1.347304e-10	6.786801e-01	-1.334736e+01
1.870000e-06	1.443211e-07	-1.187149e-10	1.004329e+00	-1.206279e+01
1.880000e-06	1.911293e-07	-1.014935e-10	1.330066e+00	-1.076269e+01
1.890000e-06	2.379237e-07	-8.092791e-11	1.655708e+00	-9.447876e+00
1.900000e-06	2.846829e-07	-5.908426e-11	1.981104e+00	-8.119229e+00
1.910000e-06	3.314297e-07	-3.879659e-11	2.306414e+00	-6.777675e+00
1.920000e-06	3.781277e-07	-1.987336e-11	2.631385e+00	-5.424190e+00
1.930000e-06	4.247487e-07	-3.874552e-12	2.955820e+00	-4.059796e+00
1.940000e-06	4.713720e-07	8.564857e-12	3.280271e+00	-2.685554e+00
1.950000e-06	5.179264e-07	2.043356e-11	3.604242e+00	-1.302563e+00
1.960000e-06	5.644119e-07	3.610289e-11	3.927734e+00	8.804811e-02
1.970000e-06	6.108336e-07	5.653139e-11	4.250782e+00	1.485122e+00
1.980000e-06	6.571797e-07	8.018771e-11	4.573303e+00	2.887479e+00
1.990000e-06	7.035515e-07	1.062727e-10	4.896005e+00	4.293922e+00
2.000000e-06	7.499412e-07	1.304510e-10	5.218830e+00	5.703243e+00
2.010000e-06	7.961825e-07	1.493221e-10	5.540622e+00	7.114226e+00
2.020000e-06	8.423454e-07	1.650548e-10	5.861869e+00	8.525651e+00
2.030000e-06	8.885781e-07	1.806359e-10	6.183601e+00	9.936303e+00
2.040000e-06	9.346793e-07	1.972811e-10	6.504419e+00	1.134497e+01
2.050000e-06	9.806386e-07	2.160751e-10	6.824249e+00	1.275047e+01
2.060000e-06	1.026584e-06	2.376005e-10	7.143983e+00	1.415161e+01
2.070000e-06	1.072492e-06	2.605511e-10	7.463453e+00	1.554723e+01
2.080000e-06	1.118320e-06	2.833669e-10	7.782373e+00	1.693622e+01
2.090000e-06	1.164098e-06	3.037987e-10	8.100938e+00	1.831746e+01
2.100000e-06	1.209729e-06	3.196808e-10	8.418485e+00	1.968989e+01
2.110000e-06	1.255236e-06	3.345676e-10	8.735168e+00	2.105248e+01
2.120000e-06	1.300760e-06	3.520082e-10	9.051971e+00	2.240425e+01
2.130000e-06	1.346210e-06	3.700216e-10	9.368257e+00	2.374424e+01
2.140000e-06	1.391471e-06	3.891895e-10	9.683228e+00	2.507157e+01
2.150000e-06	1.436677e-06	4.077849e-10	9.997812e+00	2.638539e+01
2.160000e-06	1.481789e-06	4.293680e-10	1.031175e+01	2.768489e+01
2.170000e-06	1.526706e-06	4.533789e-10	1.062433e+01	2.896934e+01
2.180000e-06	1.571568e-06	4.720458e-10	1.093652e+01	3.023805e+01
2.190000e-06	1.616283e-06	4.897671e-10	1.124769e+01	3.149038e+01
2.200000e-06	1.660862e-06	5.031930e-10	1.155792e+01	3.272575e+01
2.210000e-06	1.705374e-06	5.166192e-10	1.186767e+01	3.394364e+01
2.220000e-06	1.749755e-06	5.319443e-10	1.217652e+01	3.514360e+01
2.230000e-06	1.793980e-06	5.494198e-10	1.248428e+01	3.632520e+01
2.240000e-06	1.838101e-06	5.666905e-10	1.279132e+01	3.748809e+01
2.250000e-06	1.882165e-06	5.816582e-10	1.309796e+01	3.863197e+01
2.260000e-06	1.926158e-06	5.974330e-10	1.340411e+01	3.975660e+01
2.270000e-06	1.970087e-06	6.118031e-10	1.370981e+01	4.086178e+01
2.280000e-06	2.013906e-06	6.254790e-10	1.401474e+01	4.194737e+01
2.290000e-06	2.057635e-06	6.363843e-10	1.431905e+01	4.301325e+01
2.300000e-06	2.101350e-06	6.491954e-10	1.462326e+01	4.405940e+01
2.310000e-06	2.144917e-06	6.643408e-10	1.492644e+01	4.508578e+01
2.320000e-06	2.188379e-06	6.793783e-10	1.522890e+01	4.609244e+01
2.330000e-06	2.231802e-06	6.940656e-10	1.553108e+01	4.707945e+01
2.340000e-06	2.275085e-06	7.073259e-10	1.583228e+01	4.804691e+01
2.350000e-06	2.318100e-06	7.185154e-10	1.613162e+01	4.899496e+01
2.360000e-06	2.360780e-06	7.286980e-10	1.642864e+01	4.992377e+01
2.370000e-06	2.403147e-06	7.401114e-10	1.672346e+01	5.083353e+01
2.380000e-06	2.445197e-06	7.556809e-10	1.701609e+01	5.172447e+01
2.390000e-06	2.487067e-06	7.698659e-10	1.730746e+01	5.259682e+01
2.400000e-06	2.528669e-06	7.843143e-10	1.759697e+01	5.345084e+01
2.410000e-06	2.569867e-06	7.981608e-10	1.788366e+01	5.428682e+01
2.420000e-06	2.610725e-06	8.116064e-10	1.816800e+01	5.510504e+01
2.430000e-06	2.651307e-06	8.233229e-10	1.845040e+01	5.590580e+01
2.440000e-06	2.691661e-06	8.329019e-10	1.873123e+01	5.668941e+01
2.450000e-06	2.731812e-06	8.435428e-10	1.901064e+01	5.745617e+01
2.460000e-06	2.771845e-06	8.553598e-10	1.928923e+01	5.820642e+01
2.470000e-06	2.811738e-06	8.673439e-10	1.956684e+01	5.894047e+01
2.480000e-06	2.851476e-06	8.780424e-10	1.984338e+01	5.965864e+01
2.490000e-06	2.891158e-06	8.881859e-10	2.011953e+01	6.036125e+01
2.500000e-06	2.930692e-06	8.995695e-10	2.039464e+01	6.104861e+01
2.510000e-06	2.969976e-06	9.111328e-10	2.066802e+01	6.172104e+01
2.520000e-06	3.009069e-06	9.213079e-10	2.094007e+01	6.237885e+01
2.530000e-06	3.048052e-06	9.285110e-10	2.121135e+01	6.302232e+01
2.540000e-06	3.086775e-06	9.316150e-10	2.148082e+01	6.365176e+01
2.550000e-06	3.125195e-06	9.327708e-10	2.174819e+01	6.426745e+01
2.560000e-06	3.163414e-06	9.360479e-10	2.201415e+01	6.486967e+01
2.570000e-06	3.201537e-06	9.443268e-10	2.227945e+01	6.545868e+01
2.580000e-06	3.239502e-06	9.561644e-10	2.254365e+01	6.603474e+01
2.590000e-06	3.277222e-06	9.697456e-10	2.280614e+01	6.659812e+01
2.600000e-06	3.314741e-06	9.809891e-10	2.306723e+01	6.714904e+01
2.610000e-06	3.352015e-06	9.898848e-10	2.332662e+01	6.768775e+01
2.620000e-06	3.389013e-06	9.957209e-10	2.358409e+01	6.821447e+01
2.630000e-06	3.425730e-06	9.988950e-10	2.383960e+01	6.872943e+01
2.640000e-06	3.462168e-06	1.001422e-09	2.409318e+01	6.923283e+01
2.650000e-06	3.498375e-06	1.007482e-09	2.434514e+01	6.972489e+01
2.660000e-06	3.534428e-06	1.017139e-09	2.459603e+01	7.020581e+01
2.670000e-06	3.570366e-06	1.027419e-09	2.484613e+01	7.067579e+01
2.680000e-06	3.606188e-06	1.037147e-09	2.509541e+01	7.113502e+01
2.690000e-06	3.641886e-06	1.045795e-09	2.534383e+01	7.158368e+01
2.700000e-06	3.677386e-06	1.051003e-09	2.559087e+01	7.202198e+01
2.710000e-06	3.712639e-06	1.054397e-09	2.583620e+01	7.245009e+01
2.720000e-06	3.747543e-06	1.060008e-09	2.607909e+01	7.286820e+01
2.730000e-06	3.782134e-06	1.066460e-09	2.631981e+01	7.327650e+01
2.740000e-06	3.816322e-06	1.071492e-09	2.655773e+01	7.367516e+01
2.750000e-06	3.849896e-06	1.076826e-09	2.679137e+01	7.406438e+01
2.760000e-06	3.883056e-06	1.082354e-09	2.702213e+01	7.444434e+01
2.770000e-06	3.915890e-06	1.089158e-09	2.725062e+01	7.481522e+01
2.780000e-06	3.948364e-06	1.097809e-09	2.747660e+01	7.517721e+01
2.790000e-06	3.980567e-06	1.105452e-09	2.770070e+01	7.553051e+01
2.800000e-06	4.012603e-06	1.111238e-09	2.792364e+01	7.587531e+01
2.810000e-06	4.044445e-06	1.115987e-09	2.814523e+01	7.621179e+01
2.820000e-06	4.076022e-06	1.121040e-09	2.836497e+01	7.654016e+01
2.830000e-06	4.107336e-06	1.126957e-09	2.858289e+01	7.686062e+01
2.840000e-06	4.138391e-06	1.133110e-09	2.879900e+01	7.717335e+01
2.850000e-06	4.169166e-06	1.137926e-09	2.901316e+01	7.747858e+01
2.860000e-06	4.199605e-06	1.139982e-09	2.922498e+01	7.777649e+01
2.870000e-06	4.229664e-06	1.140565e-09	2.943417e+01	7.806729e+01
2.880000e-06	4.259410e-06	1.143956e-09	2.964117e+01	7.835119e+01
2.890000e-06	4.289004e-06	1.148004e-09	2.984711e+01	7.862839e+01
2.900000e-06	4.318348e-06	1.153343e-09	3.005132e+01	7.889908e+01
