# Temperatura_=_-15.28
# Concentracion g/m^3_=_1620.0
# C_Vs_to_Am_M_A/Vsm_=_65563218390.804596
# pendiente_HvsI_1/m_=_3716.3
# ordenada_HvsI_A/m_=_1297.0
# frecuencia_Hz_=_135095.34953831526

Tiempo_(s)	Campo_(V.s)	Magnetizacion_(V.s)	Campo_(kA/m)	Magnetizacion_(A/m)
0.000000e+00	-5.528384e-06	-8.863282e-10	-3.836991e+01	-5.882838e+01
1.000000e-08	-5.528601e-06	-8.868489e-10	-3.837142e+01	-5.885920e+01
2.000000e-08	-5.528597e-06	-8.870086e-10	-3.837139e+01	-5.888864e+01
3.000000e-08	-5.528409e-06	-8.876018e-10	-3.837008e+01	-5.891646e+01
4.000000e-08	-5.527868e-06	-8.841984e-10	-3.836633e+01	-5.894245e+01
5.000000e-08	-5.526752e-06	-8.808049e-10	-3.835858e+01	-5.896638e+01
6.000000e-08	-5.524964e-06	-8.858432e-10	-3.834617e+01	-5.898803e+01
7.000000e-08	-5.522637e-06	-9.031680e-10	-3.833002e+01	-5.900716e+01
8.000000e-08	-5.519732e-06	-9.234280e-10	-3.830986e+01	-5.902356e+01
9.000000e-08	-5.516221e-06	-9.006045e-10	-3.828549e+01	-5.903701e+01
1.000000e-07	-5.512227e-06	-8.204323e-10	-3.825777e+01	-5.904730e+01
1.100000e-07	-5.507922e-06	-7.907263e-10	-3.822789e+01	-5.905423e+01
1.200000e-07	-5.503497e-06	-9.127307e-10	-3.819718e+01	-5.905762e+01
1.300000e-07	-5.498828e-06	-9.653668e-10	-3.816477e+01	-5.905729e+01
1.400000e-07	-5.493744e-06	-9.129574e-10	-3.812949e+01	-5.905311e+01
1.500000e-07	-5.488358e-06	-8.071643e-10	-3.809211e+01	-5.904493e+01
1.600000e-07	-5.482670e-06	-8.861557e-10	-3.805263e+01	-5.903264e+01
1.700000e-07	-5.476514e-06	-9.653899e-10	-3.800990e+01	-5.901616e+01
1.800000e-07	-5.469870e-06	-9.008610e-10	-3.796379e+01	-5.899542e+01
1.900000e-07	-5.462917e-06	-8.276479e-10	-3.791553e+01	-5.897037e+01
2.000000e-07	-5.455666e-06	-8.781535e-10	-3.786521e+01	-5.894101e+01
2.100000e-07	-5.448028e-06	-1.009907e-09	-3.781219e+01	-5.890735e+01
2.200000e-07	-5.440173e-06	-9.747759e-10	-3.775767e+01	-5.886941e+01
2.300000e-07	-5.432068e-06	-9.079515e-10	-3.770142e+01	-5.882726e+01
2.400000e-07	-5.423420e-06	-8.912815e-10	-3.764140e+01	-5.878099e+01
2.500000e-07	-5.414106e-06	-9.708841e-10	-3.757676e+01	-5.873071e+01
2.600000e-07	-5.404230e-06	-9.489151e-10	-3.750822e+01	-5.867654e+01
2.700000e-07	-5.393913e-06	-9.249489e-10	-3.743661e+01	-5.861865e+01
2.800000e-07	-5.383149e-06	-9.141304e-10	-3.736190e+01	-5.855721e+01
2.900000e-07	-5.371839e-06	-9.440742e-10	-3.728341e+01	-5.849241e+01
3.000000e-07	-5.360066e-06	-9.023415e-10	-3.720169e+01	-5.842446e+01
3.100000e-07	-5.347931e-06	-8.776439e-10	-3.711747e+01	-5.835359e+01
3.200000e-07	-5.335356e-06	-8.954222e-10	-3.703019e+01	-5.828003e+01
3.300000e-07	-5.322347e-06	-9.295224e-10	-3.693990e+01	-5.820402e+01
3.400000e-07	-5.308960e-06	-9.019470e-10	-3.684699e+01	-5.812583e+01
3.500000e-07	-5.295211e-06	-8.746497e-10	-3.675157e+01	-5.804569e+01
3.600000e-07	-5.281007e-06	-8.983157e-10	-3.665298e+01	-5.796387e+01
3.700000e-07	-5.266325e-06	-9.101135e-10	-3.655108e+01	-5.788062e+01
3.800000e-07	-5.251157e-06	-8.723981e-10	-3.644581e+01	-5.779620e+01
3.900000e-07	-5.235391e-06	-8.734142e-10	-3.633638e+01	-5.771085e+01
4.000000e-07	-5.219208e-06	-9.217522e-10	-3.622407e+01	-5.762480e+01
4.100000e-07	-5.202648e-06	-8.936949e-10	-3.610913e+01	-5.753827e+01
4.200000e-07	-5.185652e-06	-8.489394e-10	-3.599117e+01	-5.745148e+01
4.300000e-07	-5.168369e-06	-8.896109e-10	-3.587121e+01	-5.736463e+01
4.400000e-07	-5.150802e-06	-9.302266e-10	-3.574929e+01	-5.727787e+01
4.500000e-07	-5.132915e-06	-8.493040e-10	-3.562515e+01	-5.719139e+01
4.600000e-07	-5.114608e-06	-8.429187e-10	-3.549809e+01	-5.710530e+01
4.700000e-07	-5.095839e-06	-9.059136e-10	-3.536782e+01	-5.701972e+01
4.800000e-07	-5.076730e-06	-8.996900e-10	-3.523519e+01	-5.693475e+01
4.900000e-07	-5.057357e-06	-8.332182e-10	-3.510073e+01	-5.685046e+01
5.000000e-07	-5.037741e-06	-8.805434e-10	-3.496459e+01	-5.676688e+01
5.100000e-07	-5.017874e-06	-8.893593e-10	-3.482670e+01	-5.668405e+01
5.200000e-07	-4.997759e-06	-8.455532e-10	-3.468709e+01	-5.660196e+01
5.300000e-07	-4.977286e-06	-8.566538e-10	-3.454499e+01	-5.652058e+01
5.400000e-07	-4.956462e-06	-9.018527e-10	-3.440047e+01	-5.643988e+01
5.500000e-07	-4.935329e-06	-8.441052e-10	-3.425379e+01	-5.635978e+01
5.600000e-07	-4.913806e-06	-8.369771e-10	-3.410441e+01	-5.628021e+01
5.700000e-07	-4.891975e-06	-8.868990e-10	-3.395289e+01	-5.620106e+01
5.800000e-07	-4.869837e-06	-8.740115e-10	-3.379924e+01	-5.612221e+01
5.900000e-07	-4.847263e-06	-8.246973e-10	-3.364257e+01	-5.604352e+01
6.000000e-07	-4.824345e-06	-8.566422e-10	-3.348350e+01	-5.596487e+01
6.100000e-07	-4.801192e-06	-8.642466e-10	-3.332281e+01	-5.588609e+01
6.200000e-07	-4.777737e-06	-8.353329e-10	-3.316002e+01	-5.580703e+01
6.300000e-07	-4.754018e-06	-8.418003e-10	-3.299540e+01	-5.572752e+01
6.400000e-07	-4.730031e-06	-8.570548e-10	-3.282891e+01	-5.564739e+01
6.500000e-07	-4.705758e-06	-8.359536e-10	-3.266045e+01	-5.556649e+01
6.600000e-07	-4.681129e-06	-8.320761e-10	-3.248951e+01	-5.548463e+01
6.700000e-07	-4.655998e-06	-8.427585e-10	-3.231509e+01	-5.540167e+01
6.800000e-07	-4.630321e-06	-8.269867e-10	-3.213687e+01	-5.531745e+01
6.900000e-07	-4.604187e-06	-8.213767e-10	-3.195549e+01	-5.523182e+01
7.000000e-07	-4.577557e-06	-8.276593e-10	-3.177067e+01	-5.514466e+01
7.100000e-07	-4.550434e-06	-8.275645e-10	-3.158242e+01	-5.505584e+01
7.200000e-07	-4.523008e-06	-8.237124e-10	-3.139207e+01	-5.496526e+01
7.300000e-07	-4.495362e-06	-8.310370e-10	-3.120019e+01	-5.487282e+01
7.400000e-07	-4.467521e-06	-8.215815e-10	-3.100696e+01	-5.477845e+01
7.500000e-07	-4.439529e-06	-8.236111e-10	-3.081268e+01	-5.468208e+01
7.600000e-07	-4.411358e-06	-8.254308e-10	-3.061716e+01	-5.458368e+01
7.700000e-07	-4.382803e-06	-8.258239e-10	-3.041897e+01	-5.448322e+01
7.800000e-07	-4.353836e-06	-8.227483e-10	-3.021793e+01	-5.438068e+01
7.900000e-07	-4.324572e-06	-8.323513e-10	-3.001481e+01	-5.427609e+01
8.000000e-07	-4.295042e-06	-8.223331e-10	-2.980986e+01	-5.416945e+01
8.100000e-07	-4.265296e-06	-8.193116e-10	-2.960341e+01	-5.406082e+01
8.200000e-07	-4.235277e-06	-8.245203e-10	-2.939506e+01	-5.395023e+01
8.300000e-07	-4.204924e-06	-8.301574e-10	-2.918440e+01	-5.383777e+01
8.400000e-07	-4.174312e-06	-8.178072e-10	-2.897193e+01	-5.372349e+01
8.500000e-07	-4.143387e-06	-8.192630e-10	-2.875730e+01	-5.360749e+01
8.600000e-07	-4.112121e-06	-8.219146e-10	-2.854029e+01	-5.348985e+01
8.700000e-07	-4.080681e-06	-8.174967e-10	-2.832208e+01	-5.337067e+01
8.800000e-07	-4.049080e-06	-8.110514e-10	-2.810276e+01	-5.325004e+01
8.900000e-07	-4.017276e-06	-8.163597e-10	-2.788202e+01	-5.312805e+01
9.000000e-07	-3.985304e-06	-8.109555e-10	-2.766012e+01	-5.300480e+01
9.100000e-07	-3.953041e-06	-8.038470e-10	-2.743620e+01	-5.288037e+01
9.200000e-07	-3.920441e-06	-8.049279e-10	-2.720993e+01	-5.275484e+01
9.300000e-07	-3.887444e-06	-8.050497e-10	-2.698092e+01	-5.262827e+01
9.400000e-07	-3.853981e-06	-7.974106e-10	-2.674867e+01	-5.250071e+01
9.500000e-07	-3.820069e-06	-7.969475e-10	-2.651330e+01	-5.237221e+01
9.600000e-07	-3.785718e-06	-8.010579e-10	-2.627489e+01	-5.224278e+01
9.700000e-07	-3.750969e-06	-7.967616e-10	-2.603371e+01	-5.211242e+01
9.800000e-07	-3.715826e-06	-7.925273e-10	-2.578980e+01	-5.198112e+01
9.900000e-07	-3.680408e-06	-7.893073e-10	-2.554398e+01	-5.184882e+01
1.000000e-06	-3.644841e-06	-7.851394e-10	-2.529712e+01	-5.171545e+01
1.010000e-06	-3.609099e-06	-7.783357e-10	-2.504906e+01	-5.158094e+01
1.020000e-06	-3.573171e-06	-7.794177e-10	-2.479970e+01	-5.144515e+01
1.030000e-06	-3.537096e-06	-7.794721e-10	-2.454932e+01	-5.130796e+01
1.040000e-06	-3.500915e-06	-7.795111e-10	-2.429820e+01	-5.116917e+01
1.050000e-06	-3.464613e-06	-7.771522e-10	-2.404625e+01	-5.102862e+01
1.060000e-06	-3.428090e-06	-7.752244e-10	-2.379276e+01	-5.088606e+01
1.070000e-06	-3.391213e-06	-7.686495e-10	-2.353681e+01	-5.074127e+01
1.080000e-06	-3.353976e-06	-7.673043e-10	-2.327837e+01	-5.059398e+01
1.090000e-06	-3.316487e-06	-7.649807e-10	-2.301817e+01	-5.044390e+01
1.100000e-06	-3.278778e-06	-7.630647e-10	-2.275646e+01	-5.029073e+01
1.110000e-06	-3.240845e-06	-7.553184e-10	-2.249318e+01	-5.013414e+01
1.120000e-06	-3.202665e-06	-7.498985e-10	-2.222819e+01	-4.997382e+01
1.130000e-06	-3.164258e-06	-7.415959e-10	-2.196162e+01	-4.980940e+01
1.140000e-06	-3.125615e-06	-7.356011e-10	-2.169342e+01	-4.964054e+01
1.150000e-06	-3.086888e-06	-7.300775e-10	-2.142464e+01	-4.946688e+01
1.160000e-06	-3.048038e-06	-7.281377e-10	-2.115499e+01	-4.928806e+01
1.170000e-06	-3.008858e-06	-7.255693e-10	-2.088306e+01	-4.910370e+01
1.180000e-06	-2.969462e-06	-7.240421e-10	-2.060963e+01	-4.891347e+01
1.190000e-06	-2.929961e-06	-7.201776e-10	-2.033548e+01	-4.871700e+01
1.200000e-06	-2.890278e-06	-7.174064e-10	-2.006006e+01	-4.851396e+01
1.210000e-06	-2.850416e-06	-7.146624e-10	-1.978340e+01	-4.830402e+01
1.220000e-06	-2.810482e-06	-7.106718e-10	-1.950623e+01	-4.808688e+01
1.230000e-06	-2.770401e-06	-7.041307e-10	-1.922805e+01	-4.786224e+01
1.240000e-06	-2.730178e-06	-6.978062e-10	-1.894888e+01	-4.762983e+01
1.250000e-06	-2.689773e-06	-6.948215e-10	-1.866845e+01	-4.738941e+01
1.260000e-06	-2.649123e-06	-6.925715e-10	-1.838631e+01	-4.714077e+01
1.270000e-06	-2.608176e-06	-6.913431e-10	-1.810212e+01	-4.688370e+01
1.280000e-06	-2.566907e-06	-6.882539e-10	-1.781569e+01	-4.661806e+01
1.290000e-06	-2.525385e-06	-6.821406e-10	-1.752751e+01	-4.634371e+01
1.300000e-06	-2.483539e-06	-6.730590e-10	-1.723708e+01	-4.606056e+01
1.310000e-06	-2.441391e-06	-6.656085e-10	-1.694455e+01	-4.576853e+01
1.320000e-06	-2.398979e-06	-6.597547e-10	-1.665018e+01	-4.546760e+01
1.330000e-06	-2.356230e-06	-6.554031e-10	-1.635349e+01	-4.515776e+01
1.340000e-06	-2.313155e-06	-6.542805e-10	-1.605452e+01	-4.483903e+01
1.350000e-06	-2.269877e-06	-6.551918e-10	-1.575415e+01	-4.451148e+01
1.360000e-06	-2.226489e-06	-6.512406e-10	-1.545301e+01	-4.417517e+01
1.370000e-06	-2.182943e-06	-6.466622e-10	-1.515078e+01	-4.383024e+01
1.380000e-06	-2.139293e-06	-6.412857e-10	-1.484783e+01	-4.347679e+01
1.390000e-06	-2.095573e-06	-6.371768e-10	-1.454438e+01	-4.311500e+01
1.400000e-06	-2.051763e-06	-6.308309e-10	-1.424032e+01	-4.274501e+01
1.410000e-06	-2.007890e-06	-6.271354e-10	-1.393582e+01	-4.236703e+01
1.420000e-06	-1.963924e-06	-6.217119e-10	-1.363067e+01	-4.198122e+01
1.430000e-06	-1.919921e-06	-6.139010e-10	-1.332527e+01	-4.158781e+01
1.440000e-06	-1.875818e-06	-6.064072e-10	-1.301917e+01	-4.118699e+01
1.450000e-06	-1.831593e-06	-6.005323e-10	-1.271222e+01	-4.077895e+01
1.460000e-06	-1.787295e-06	-5.926915e-10	-1.240477e+01	-4.036389e+01
1.470000e-06	-1.742902e-06	-5.860548e-10	-1.209666e+01	-3.994200e+01
1.480000e-06	-1.698424e-06	-5.796729e-10	-1.178796e+01	-3.951345e+01
1.490000e-06	-1.653680e-06	-5.728630e-10	-1.147741e+01	-3.907838e+01
1.500000e-06	-1.608808e-06	-5.661971e-10	-1.116598e+01	-3.863694e+01
1.510000e-06	-1.563839e-06	-5.605734e-10	-1.085387e+01	-3.818923e+01
1.520000e-06	-1.518633e-06	-5.531745e-10	-1.054011e+01	-3.773532e+01
1.530000e-06	-1.473310e-06	-5.422428e-10	-1.022555e+01	-3.727526e+01
1.540000e-06	-1.427864e-06	-5.293327e-10	-9.910128e+00	-3.680907e+01
1.550000e-06	-1.382311e-06	-5.191162e-10	-9.593972e+00	-3.633672e+01
1.560000e-06	-1.336802e-06	-5.109237e-10	-9.278112e+00	-3.585815e+01
1.570000e-06	-1.291281e-06	-5.024916e-10	-8.962175e+00	-3.537325e+01
1.580000e-06	-1.245588e-06	-4.958680e-10	-8.645038e+00	-3.488188e+01
1.590000e-06	-1.199830e-06	-4.898458e-10	-8.327452e+00	-3.438385e+01
1.600000e-06	-1.154032e-06	-4.819068e-10	-8.009591e+00	-3.387894e+01
1.610000e-06	-1.108114e-06	-4.732465e-10	-7.690895e+00	-3.336687e+01
1.620000e-06	-1.062061e-06	-4.643698e-10	-7.371268e+00	-3.284734e+01
1.630000e-06	-1.015906e-06	-4.550656e-10	-7.050928e+00	-3.231999e+01
1.640000e-06	-9.696905e-07	-4.455830e-10	-6.730165e+00	-3.178444e+01
1.650000e-06	-9.235145e-07	-4.349845e-10	-6.409679e+00	-3.124027e+01
1.660000e-06	-8.773046e-07	-4.277222e-10	-6.088958e+00	-3.068703e+01
1.670000e-06	-8.309647e-07	-4.201584e-10	-5.767335e+00	-3.012424e+01
1.680000e-06	-7.845515e-07	-4.137499e-10	-5.445203e+00	-2.955140e+01
1.690000e-06	-7.379614e-07	-4.057882e-10	-5.121842e+00	-2.896798e+01
1.700000e-06	-6.912970e-07	-3.969624e-10	-4.797967e+00	-2.837346e+01
1.710000e-06	-6.446611e-07	-3.861232e-10	-4.474289e+00	-2.776729e+01
1.720000e-06	-5.980484e-07	-3.736157e-10	-4.150772e+00	-2.714892e+01
1.730000e-06	-5.514294e-07	-3.599919e-10	-3.827212e+00	-2.651781e+01
1.740000e-06	-5.047659e-07	-3.481798e-10	-3.503342e+00	-2.587342e+01
1.750000e-06	-4.580478e-07	-3.380406e-10	-3.179094e+00	-2.521522e+01
1.760000e-06	-4.112045e-07	-3.302489e-10	-2.853977e+00	-2.454272e+01
1.770000e-06	-3.643050e-07	-3.205722e-10	-2.528470e+00	-2.385544e+01
1.780000e-06	-3.174383e-07	-3.091431e-10	-2.203189e+00	-2.315293e+01
1.790000e-06	-2.705981e-07	-2.994465e-10	-1.878094e+00	-2.243479e+01
1.800000e-06	-2.236532e-07	-2.865306e-10	-1.552271e+00	-2.170066e+01
1.810000e-06	-1.766698e-07	-2.726359e-10	-1.226182e+00	-2.095022e+01
1.820000e-06	-1.297441e-07	-2.604185e-10	-9.004923e-01	-2.018322e+01
1.830000e-06	-8.285376e-08	-2.480912e-10	-5.750489e-01	-1.939946e+01
1.840000e-06	-3.590114e-08	-2.348519e-10	-2.491729e-01	-1.859880e+01
1.850000e-06	1.108178e-08	-2.207138e-10	7.691342e-02	-1.778118e+01
1.860000e-06	5.796914e-08	-2.097965e-10	4.023365e-01	-1.694660e+01
1.870000e-06	1.047996e-07	-2.001448e-10	7.273648e-01	-1.609514e+01
1.880000e-06	1.516037e-07	-1.898606e-10	1.052210e+00	-1.522695e+01
1.890000e-06	1.985098e-07	-1.791502e-10	1.377763e+00	-1.434228e+01
1.900000e-06	2.454250e-07	-1.655290e-10	1.703379e+00	-1.344142e+01
1.910000e-06	2.922030e-07	-1.509632e-10	2.028043e+00	-1.252478e+01
1.920000e-06	3.389703e-07	-1.360446e-10	2.352633e+00	-1.159282e+01
1.930000e-06	3.858365e-07	-1.238000e-10	2.677910e+00	-1.064609e+01
1.940000e-06	4.326978e-07	-1.128476e-10	3.003151e+00	-9.685218e+00
1.950000e-06	4.794391e-07	-1.046280e-10	3.327561e+00	-8.710906e+00
1.960000e-06	5.261332e-07	-9.670654e-11	3.651642e+00	-7.723925e+00
1.970000e-06	5.727840e-07	-8.705070e-11	3.975424e+00	-6.725116e+00
1.980000e-06	6.193691e-07	-7.342804e-11	4.298749e+00	-5.715382e+00
1.990000e-06	6.659671e-07	-5.695802e-11	4.622164e+00	-4.695687e+00
2.000000e-06	7.125128e-07	-3.935351e-11	4.945216e+00	-3.667048e+00
2.010000e-06	7.589071e-07	-2.277748e-11	5.267216e+00	-2.630532e+00
2.020000e-06	8.052717e-07	-9.331028e-12	5.589012e+00	-1.587248e+00
2.030000e-06	8.515723e-07	-3.989212e-13	5.910362e+00	-5.383403e-01
2.040000e-06	8.978507e-07	9.201096e-12	6.231559e+00	5.150176e-01
2.050000e-06	9.441195e-07	2.260479e-11	6.552688e+00	1.571629e+00
2.060000e-06	9.902681e-07	3.919757e-11	6.872984e+00	2.630283e+00
2.070000e-06	1.036304e-06	5.598730e-11	7.192499e+00	3.689760e+00
2.080000e-06	1.082301e-06	7.265995e-11	7.511739e+00	4.748839e+00
2.090000e-06	1.128227e-06	8.967717e-11	7.830493e+00	5.806309e+00
2.100000e-06	1.174083e-06	1.053765e-10	8.148755e+00	6.860970e+00
2.110000e-06	1.219864e-06	1.204806e-10	8.466498e+00	7.911643e+00
2.120000e-06	1.265525e-06	1.336398e-10	8.783414e+00	8.957178e+00
2.130000e-06	1.311172e-06	1.470425e-10	9.100225e+00	9.996460e+00
2.140000e-06	1.356717e-06	1.611493e-10	9.416331e+00	1.102841e+01
2.150000e-06	1.402135e-06	1.754914e-10	9.731557e+00	1.205201e+01
2.160000e-06	1.447342e-06	1.888319e-10	1.004532e+01	1.306627e+01
2.170000e-06	1.492389e-06	2.020602e-10	1.035797e+01	1.407027e+01
2.180000e-06	1.537340e-06	2.164303e-10	1.066995e+01	1.506316e+01
2.190000e-06	1.582194e-06	2.314426e-10	1.098126e+01	1.604414e+01
2.200000e-06	1.627012e-06	2.461810e-10	1.129232e+01	1.701249e+01
2.210000e-06	1.671739e-06	2.613381e-10	1.160275e+01	1.796755e+01
2.220000e-06	1.716339e-06	2.745754e-10	1.191230e+01	1.890873e+01
2.230000e-06	1.760752e-06	2.859420e-10	1.222055e+01	1.983554e+01
2.240000e-06	1.805072e-06	2.964787e-10	1.252816e+01	2.074752e+01
2.250000e-06	1.849279e-06	3.074372e-10	1.283498e+01	2.164433e+01
2.260000e-06	1.893381e-06	3.193516e-10	1.314106e+01	2.252568e+01
2.270000e-06	1.937457e-06	3.310364e-10	1.344697e+01	2.339135e+01
2.280000e-06	1.981411e-06	3.437204e-10	1.375204e+01	2.424120e+01
2.290000e-06	2.025263e-06	3.569291e-10	1.405640e+01	2.507516e+01
2.300000e-06	2.069090e-06	3.684640e-10	1.436058e+01	2.589322e+01
2.310000e-06	2.112866e-06	3.781874e-10	1.466441e+01	2.669543e+01
2.320000e-06	2.156579e-06	3.855139e-10	1.496780e+01	2.748191e+01
2.330000e-06	2.200188e-06	3.923960e-10	1.527047e+01	2.825280e+01
2.340000e-06	2.243592e-06	3.994583e-10	1.557171e+01	2.900834e+01
2.350000e-06	2.286841e-06	4.130396e-10	1.587189e+01	2.974877e+01
2.360000e-06	2.329851e-06	4.269828e-10	1.617040e+01	3.047439e+01
2.370000e-06	2.372591e-06	4.391334e-10	1.646703e+01	3.118554e+01
2.380000e-06	2.415181e-06	4.502586e-10	1.676263e+01	3.188255e+01
2.390000e-06	2.457481e-06	4.592782e-10	1.705622e+01	3.256582e+01
2.400000e-06	2.499441e-06	4.688534e-10	1.734744e+01	3.323573e+01
2.410000e-06	2.540912e-06	4.781444e-10	1.763527e+01	3.389269e+01
2.420000e-06	2.581966e-06	4.881662e-10	1.792021e+01	3.453710e+01
2.430000e-06	2.622902e-06	5.001657e-10	1.820433e+01	3.516939e+01
2.440000e-06	2.663653e-06	5.111550e-10	1.848716e+01	3.578995e+01
2.450000e-06	2.704197e-06	5.225639e-10	1.876856e+01	3.639917e+01
2.460000e-06	2.744602e-06	5.355514e-10	1.904899e+01	3.699743e+01
2.470000e-06	2.784779e-06	5.444101e-10	1.932784e+01	3.758509e+01
2.480000e-06	2.824802e-06	5.499840e-10	1.960562e+01	3.816250e+01
2.490000e-06	2.864729e-06	5.535243e-10	1.988274e+01	3.872996e+01
2.500000e-06	2.904487e-06	5.607693e-10	2.015868e+01	3.928775e+01
2.510000e-06	2.944096e-06	5.717529e-10	2.043358e+01	3.983612e+01
2.520000e-06	2.983475e-06	5.818205e-10	2.070690e+01	4.037530e+01
2.530000e-06	3.022609e-06	5.917582e-10	2.097850e+01	4.090547e+01
2.540000e-06	3.061550e-06	6.029592e-10	2.124878e+01	4.142678e+01
2.550000e-06	3.100335e-06	6.112909e-10	2.151796e+01	4.193934e+01
2.560000e-06	3.138886e-06	6.165717e-10	2.178553e+01	4.244322e+01
2.570000e-06	3.177236e-06	6.210319e-10	2.205170e+01	4.293848e+01
2.580000e-06	3.215455e-06	6.256536e-10	2.231696e+01	4.342513e+01
2.590000e-06	3.253471e-06	6.297657e-10	2.258081e+01	4.390313e+01
2.600000e-06	3.291193e-06	6.370286e-10	2.284262e+01	4.437244e+01
2.610000e-06	3.328669e-06	6.460570e-10	2.310272e+01	4.483298e+01
2.620000e-06	3.365984e-06	6.571758e-10	2.336171e+01	4.528465e+01
2.630000e-06	3.403070e-06	6.664241e-10	2.361910e+01	4.572731e+01
2.640000e-06	3.439831e-06	6.711291e-10	2.387425e+01	4.616082e+01
2.650000e-06	3.476353e-06	6.735835e-10	2.412773e+01	4.658502e+01
2.660000e-06	3.512691e-06	6.766958e-10	2.437994e+01	4.699974e+01
2.670000e-06	3.548788e-06	6.822450e-10	2.463047e+01	4.740480e+01
2.680000e-06	3.584763e-06	6.874818e-10	2.488015e+01	4.780002e+01
2.690000e-06	3.620636e-06	6.925502e-10	2.512913e+01	4.818521e+01
2.700000e-06	3.656315e-06	6.980332e-10	2.537676e+01	4.856019e+01
2.710000e-06	3.691779e-06	7.037828e-10	2.562290e+01	4.892480e+01
2.720000e-06	3.727005e-06	7.083514e-10	2.586739e+01	4.927887e+01
2.730000e-06	3.761927e-06	7.134700e-10	2.610976e+01	4.962225e+01
2.740000e-06	3.796470e-06	7.183975e-10	2.634951e+01	4.995484e+01
2.750000e-06	3.830536e-06	7.222264e-10	2.658595e+01	5.027651e+01
2.760000e-06	3.864153e-06	7.258875e-10	2.681927e+01	5.058719e+01
2.770000e-06	3.897406e-06	7.303267e-10	2.705006e+01	5.088683e+01
2.780000e-06	3.930299e-06	7.354286e-10	2.727835e+01	5.117540e+01
2.790000e-06	3.962807e-06	7.405475e-10	2.750398e+01	5.145291e+01
2.800000e-06	3.995097e-06	7.450837e-10	2.772809e+01	5.171941e+01
2.810000e-06	4.027214e-06	7.506100e-10	2.795100e+01	5.197495e+01
2.820000e-06	4.059018e-06	7.559406e-10	2.817173e+01	5.221965e+01
2.830000e-06	4.090611e-06	7.595193e-10	2.839100e+01	5.245365e+01
2.840000e-06	4.122021e-06	7.611113e-10	2.860901e+01	5.267712e+01
2.850000e-06	4.153124e-06	7.616557e-10	2.882488e+01	5.289028e+01
2.860000e-06	4.183909e-06	7.648497e-10	2.903854e+01	5.309335e+01
2.870000e-06	4.214410e-06	7.697693e-10	2.925024e+01	5.328661e+01
2.880000e-06	4.244632e-06	7.734383e-10	2.945999e+01	5.347037e+01
2.890000e-06	4.274605e-06	7.776504e-10	2.966802e+01	5.364494e+01
2.900000e-06	4.304363e-06	7.812996e-10	2.987456e+01	5.381069e+01
