# Temperatura_=_-7.11
# Concentracion g/m^3_=_1620.0
# C_Vs_to_Am_M_A/Vsm_=_65563218390.804596
# pendiente_HvsI_1/m_=_3716.3
# ordenada_HvsI_A/m_=_1297.0
# frecuencia_Hz_=_135095.78770591095

Tiempo_(s)	Campo_(V.s)	Magnetizacion_(V.s)	Campo_(kA/m)	Magnetizacion_(A/m)
0.000000e+00	-5.525662e-06	-9.377377e-10	-3.837789e+01	-6.246528e+01
1.000000e-08	-5.525916e-06	-9.411459e-10	-3.837965e+01	-6.244346e+01
2.000000e-08	-5.525877e-06	-9.443273e-10	-3.837938e+01	-6.242194e+01
3.000000e-08	-5.525440e-06	-9.444940e-10	-3.837635e+01	-6.240070e+01
4.000000e-08	-5.524621e-06	-9.432252e-10	-3.837066e+01	-6.237970e+01
5.000000e-08	-5.523277e-06	-9.383749e-10	-3.836132e+01	-6.235889e+01
6.000000e-08	-5.521262e-06	-9.404437e-10	-3.834733e+01	-6.233820e+01
7.000000e-08	-5.518658e-06	-9.534892e-10	-3.832925e+01	-6.231756e+01
8.000000e-08	-5.515527e-06	-9.467245e-10	-3.830749e+01	-6.229689e+01
9.000000e-08	-5.511982e-06	-9.149283e-10	-3.828287e+01	-6.227609e+01
1.000000e-07	-5.508017e-06	-9.165498e-10	-3.825534e+01	-6.225506e+01
1.100000e-07	-5.503729e-06	-9.602894e-10	-3.822555e+01	-6.223371e+01
1.200000e-07	-5.499232e-06	-9.575183e-10	-3.819433e+01	-6.221191e+01
1.300000e-07	-5.494473e-06	-9.259790e-10	-3.816127e+01	-6.218957e+01
1.400000e-07	-5.489285e-06	-9.288851e-10	-3.812524e+01	-6.216655e+01
1.500000e-07	-5.483679e-06	-9.548674e-10	-3.808630e+01	-6.214275e+01
1.600000e-07	-5.477713e-06	-9.604897e-10	-3.804486e+01	-6.211804e+01
1.700000e-07	-5.471380e-06	-9.428541e-10	-3.800088e+01	-6.209233e+01
1.800000e-07	-5.464680e-06	-9.487427e-10	-3.795434e+01	-6.206549e+01
1.900000e-07	-5.457554e-06	-9.529505e-10	-3.790485e+01	-6.203741e+01
2.000000e-07	-5.450122e-06	-9.398355e-10	-3.785323e+01	-6.200799e+01
2.100000e-07	-5.442435e-06	-9.613857e-10	-3.779984e+01	-6.197713e+01
2.200000e-07	-5.434489e-06	-9.890377e-10	-3.774466e+01	-6.194474e+01
2.300000e-07	-5.426185e-06	-9.957558e-10	-3.768698e+01	-6.191072e+01
2.400000e-07	-5.417414e-06	-9.797550e-10	-3.762606e+01	-6.187499e+01
2.500000e-07	-5.408096e-06	-9.778094e-10	-3.756134e+01	-6.183748e+01
2.600000e-07	-5.398051e-06	-9.768947e-10	-3.749158e+01	-6.179810e+01
2.700000e-07	-5.387459e-06	-9.766875e-10	-3.741802e+01	-6.175679e+01
2.800000e-07	-5.376481e-06	-9.696759e-10	-3.734177e+01	-6.171350e+01
2.900000e-07	-5.365032e-06	-9.693625e-10	-3.726225e+01	-6.166816e+01
3.000000e-07	-5.353163e-06	-9.606590e-10	-3.717982e+01	-6.162072e+01
3.100000e-07	-5.340924e-06	-9.527462e-10	-3.709481e+01	-6.157113e+01
3.200000e-07	-5.328284e-06	-9.579318e-10	-3.700702e+01	-6.151935e+01
3.300000e-07	-5.315157e-06	-9.506699e-10	-3.691585e+01	-6.146535e+01
3.400000e-07	-5.301605e-06	-9.387007e-10	-3.682172e+01	-6.140907e+01
3.500000e-07	-5.287693e-06	-9.398407e-10	-3.672510e+01	-6.135049e+01
3.600000e-07	-5.273349e-06	-9.364047e-10	-3.662547e+01	-6.128957e+01
3.700000e-07	-5.258542e-06	-9.250964e-10	-3.652264e+01	-6.122628e+01
3.800000e-07	-5.243258e-06	-9.456071e-10	-3.641648e+01	-6.116058e+01
3.900000e-07	-5.227440e-06	-9.513530e-10	-3.630662e+01	-6.109243e+01
4.000000e-07	-5.211190e-06	-9.092892e-10	-3.619375e+01	-6.102180e+01
4.100000e-07	-5.194580e-06	-9.140430e-10	-3.607839e+01	-6.094866e+01
4.200000e-07	-5.177559e-06	-9.607358e-10	-3.596018e+01	-6.087297e+01
4.300000e-07	-5.160078e-06	-9.306297e-10	-3.583877e+01	-6.079468e+01
4.400000e-07	-5.142258e-06	-8.956928e-10	-3.571500e+01	-6.071376e+01
4.500000e-07	-5.124269e-06	-9.429403e-10	-3.559006e+01	-6.063015e+01
4.600000e-07	-5.105873e-06	-9.509811e-10	-3.546229e+01	-6.054382e+01
4.700000e-07	-5.086967e-06	-8.851972e-10	-3.533098e+01	-6.045472e+01
4.800000e-07	-5.067736e-06	-9.172286e-10	-3.519741e+01	-6.036279e+01
4.900000e-07	-5.048272e-06	-9.607827e-10	-3.506223e+01	-6.026799e+01
5.000000e-07	-5.028539e-06	-9.006668e-10	-3.492517e+01	-6.017026e+01
5.100000e-07	-5.008500e-06	-8.801590e-10	-3.478600e+01	-6.006957e+01
5.200000e-07	-4.988235e-06	-9.452751e-10	-3.464525e+01	-5.996585e+01
5.300000e-07	-4.967644e-06	-9.169986e-10	-3.450223e+01	-5.985906e+01
5.400000e-07	-4.946677e-06	-8.712259e-10	-3.435661e+01	-5.974916e+01
5.500000e-07	-4.925398e-06	-9.206137e-10	-3.420882e+01	-5.963610e+01
5.600000e-07	-4.903756e-06	-9.291909e-10	-3.405850e+01	-5.951986e+01
5.700000e-07	-4.881744e-06	-8.705468e-10	-3.390562e+01	-5.940040e+01
5.800000e-07	-4.859423e-06	-8.960051e-10	-3.375060e+01	-5.927770e+01
5.900000e-07	-4.836752e-06	-9.236597e-10	-3.359314e+01	-5.915174e+01
6.000000e-07	-4.813773e-06	-8.744634e-10	-3.343354e+01	-5.902252e+01
6.100000e-07	-4.790487e-06	-8.743594e-10	-3.327181e+01	-5.889004e+01
6.200000e-07	-4.766936e-06	-9.158114e-10	-3.310824e+01	-5.875432e+01
6.300000e-07	-4.743220e-06	-8.858824e-10	-3.294352e+01	-5.861538e+01
6.400000e-07	-4.719202e-06	-8.647937e-10	-3.277671e+01	-5.847325e+01
6.500000e-07	-4.694803e-06	-8.989871e-10	-3.260725e+01	-5.832800e+01
6.600000e-07	-4.670031e-06	-8.884410e-10	-3.243520e+01	-5.817969e+01
6.700000e-07	-4.644797e-06	-8.599526e-10	-3.225993e+01	-5.802839e+01
6.800000e-07	-4.618972e-06	-8.800056e-10	-3.208057e+01	-5.787420e+01
6.900000e-07	-4.592592e-06	-8.888549e-10	-3.189735e+01	-5.771722e+01
7.000000e-07	-4.565768e-06	-8.648974e-10	-3.171105e+01	-5.755757e+01
7.100000e-07	-4.538572e-06	-8.702081e-10	-3.152216e+01	-5.739538e+01
7.200000e-07	-4.511060e-06	-8.789928e-10	-3.133108e+01	-5.723080e+01
7.300000e-07	-4.483352e-06	-8.642293e-10	-3.113864e+01	-5.706399e+01
7.400000e-07	-4.455471e-06	-8.614683e-10	-3.094500e+01	-5.689511e+01
7.500000e-07	-4.427397e-06	-8.738372e-10	-3.075001e+01	-5.672434e+01
7.600000e-07	-4.399076e-06	-8.640158e-10	-3.055331e+01	-5.655186e+01
7.700000e-07	-4.370441e-06	-8.585574e-10	-3.035443e+01	-5.637786e+01
7.800000e-07	-4.341450e-06	-8.672238e-10	-3.015307e+01	-5.620255e+01
7.900000e-07	-4.312122e-06	-8.617520e-10	-2.994938e+01	-5.602612e+01
8.000000e-07	-4.282537e-06	-8.474107e-10	-2.974390e+01	-5.584877e+01
8.100000e-07	-4.252680e-06	-8.518056e-10	-2.953653e+01	-5.567070e+01
8.200000e-07	-4.222541e-06	-8.523280e-10	-2.932720e+01	-5.549211e+01
8.300000e-07	-4.192092e-06	-8.436344e-10	-2.911572e+01	-5.531319e+01
8.400000e-07	-4.161348e-06	-8.452608e-10	-2.890220e+01	-5.513412e+01
8.500000e-07	-4.130363e-06	-8.490689e-10	-2.868699e+01	-5.495506e+01
8.600000e-07	-4.099145e-06	-8.377005e-10	-2.847017e+01	-5.477619e+01
8.700000e-07	-4.067663e-06	-8.317618e-10	-2.825151e+01	-5.459764e+01
8.800000e-07	-4.036009e-06	-8.344583e-10	-2.803167e+01	-5.441955e+01
8.900000e-07	-4.004174e-06	-8.273720e-10	-2.781056e+01	-5.424201e+01
9.000000e-07	-3.972100e-06	-8.188814e-10	-2.758779e+01	-5.406512e+01
9.100000e-07	-3.939833e-06	-8.227497e-10	-2.736369e+01	-5.388893e+01
9.200000e-07	-3.907185e-06	-8.199589e-10	-2.713693e+01	-5.371349e+01
9.300000e-07	-3.874052e-06	-8.104983e-10	-2.690681e+01	-5.353881e+01
9.400000e-07	-3.840486e-06	-8.115133e-10	-2.667368e+01	-5.336486e+01
9.500000e-07	-3.806439e-06	-8.130965e-10	-2.643721e+01	-5.319160e+01
9.600000e-07	-3.772005e-06	-8.049667e-10	-2.619805e+01	-5.301896e+01
9.700000e-07	-3.737263e-06	-7.994668e-10	-2.595676e+01	-5.284682e+01
9.800000e-07	-3.702128e-06	-7.994910e-10	-2.571273e+01	-5.267505e+01
9.900000e-07	-3.666679e-06	-7.901294e-10	-2.546653e+01	-5.250347e+01
1.000000e-06	-3.631013e-06	-7.803539e-10	-2.521881e+01	-5.233189e+01
1.010000e-06	-3.595235e-06	-7.802196e-10	-2.497031e+01	-5.216008e+01
1.020000e-06	-3.559371e-06	-7.823083e-10	-2.472122e+01	-5.198777e+01
1.030000e-06	-3.523317e-06	-7.806272e-10	-2.447082e+01	-5.181469e+01
1.040000e-06	-3.487102e-06	-7.805246e-10	-2.421929e+01	-5.164051e+01
1.050000e-06	-3.450626e-06	-7.759182e-10	-2.396595e+01	-5.146490e+01
1.060000e-06	-3.413838e-06	-7.652007e-10	-2.371044e+01	-5.128751e+01
1.070000e-06	-3.376832e-06	-7.573163e-10	-2.345342e+01	-5.110794e+01
1.080000e-06	-3.339525e-06	-7.554220e-10	-2.319431e+01	-5.092580e+01
1.090000e-06	-3.301934e-06	-7.514820e-10	-2.293323e+01	-5.074069e+01
1.100000e-06	-3.264136e-06	-7.483680e-10	-2.267070e+01	-5.055216e+01
1.110000e-06	-3.226168e-06	-7.466696e-10	-2.240700e+01	-5.035980e+01
1.120000e-06	-3.187937e-06	-7.416966e-10	-2.214147e+01	-5.016317e+01
1.130000e-06	-3.149416e-06	-7.335099e-10	-2.187393e+01	-4.996182e+01
1.140000e-06	-3.110770e-06	-7.284554e-10	-2.160552e+01	-4.975531e+01
1.150000e-06	-3.072035e-06	-7.229926e-10	-2.133649e+01	-4.954322e+01
1.160000e-06	-3.033099e-06	-7.174056e-10	-2.106606e+01	-4.932511e+01
1.170000e-06	-2.993871e-06	-7.156407e-10	-2.079361e+01	-4.910057e+01
1.180000e-06	-2.954437e-06	-7.151046e-10	-2.051972e+01	-4.886920e+01
1.190000e-06	-2.914860e-06	-7.118089e-10	-2.024484e+01	-4.863061e+01
1.200000e-06	-2.875129e-06	-7.075789e-10	-1.996890e+01	-4.838445e+01
1.210000e-06	-2.835232e-06	-7.032781e-10	-1.969179e+01	-4.813036e+01
1.220000e-06	-2.795149e-06	-6.966537e-10	-1.941341e+01	-4.786805e+01
1.230000e-06	-2.754951e-06	-6.902324e-10	-1.913421e+01	-4.759722e+01
1.240000e-06	-2.714607e-06	-6.885132e-10	-1.885401e+01	-4.731762e+01
1.250000e-06	-2.674048e-06	-6.862820e-10	-1.857231e+01	-4.702901e+01
1.260000e-06	-2.633257e-06	-6.829873e-10	-1.828900e+01	-4.673121e+01
1.270000e-06	-2.592239e-06	-6.808247e-10	-1.800412e+01	-4.642406e+01
1.280000e-06	-2.550951e-06	-6.765666e-10	-1.771735e+01	-4.610743e+01
1.290000e-06	-2.509325e-06	-6.691230e-10	-1.742824e+01	-4.578122e+01
1.300000e-06	-2.467441e-06	-6.595735e-10	-1.713734e+01	-4.544538e+01
1.310000e-06	-2.425299e-06	-6.528897e-10	-1.684465e+01	-4.509987e+01
1.320000e-06	-2.382857e-06	-6.479207e-10	-1.654988e+01	-4.474471e+01
1.330000e-06	-2.340148e-06	-6.444241e-10	-1.625325e+01	-4.437993e+01
1.340000e-06	-2.297238e-06	-6.446957e-10	-1.595522e+01	-4.400559e+01
1.350000e-06	-2.254164e-06	-6.431821e-10	-1.565606e+01	-4.362178e+01
1.360000e-06	-2.210915e-06	-6.354153e-10	-1.535567e+01	-4.322861e+01
1.370000e-06	-2.167507e-06	-6.270704e-10	-1.505419e+01	-4.282623e+01
1.380000e-06	-2.123950e-06	-6.190324e-10	-1.475167e+01	-4.241477e+01
1.390000e-06	-2.080270e-06	-6.104380e-10	-1.444829e+01	-4.199441e+01
1.400000e-06	-2.036486e-06	-6.024079e-10	-1.414419e+01	-4.156532e+01
1.410000e-06	-1.992587e-06	-5.965221e-10	-1.383930e+01	-4.112769e+01
1.420000e-06	-1.948590e-06	-5.913095e-10	-1.353372e+01	-4.068170e+01
1.430000e-06	-1.904471e-06	-5.874730e-10	-1.322730e+01	-4.022756e+01
1.440000e-06	-1.860270e-06	-5.823409e-10	-1.292030e+01	-3.976543e+01
1.450000e-06	-1.815966e-06	-5.749620e-10	-1.261259e+01	-3.929549e+01
1.460000e-06	-1.771556e-06	-5.654530e-10	-1.230415e+01	-3.881792e+01
1.470000e-06	-1.727002e-06	-5.550210e-10	-1.199470e+01	-3.833286e+01
1.480000e-06	-1.682235e-06	-5.435102e-10	-1.168378e+01	-3.784043e+01
1.490000e-06	-1.637415e-06	-5.332932e-10	-1.137249e+01	-3.734075e+01
1.500000e-06	-1.592529e-06	-5.282029e-10	-1.106074e+01	-3.683389e+01
1.510000e-06	-1.547503e-06	-5.246738e-10	-1.074801e+01	-3.631992e+01
1.520000e-06	-1.502341e-06	-5.178305e-10	-1.043434e+01	-3.579884e+01
1.530000e-06	-1.457103e-06	-5.073784e-10	-1.012015e+01	-3.527066e+01
1.540000e-06	-1.411816e-06	-4.962176e-10	-9.805618e+00	-3.473533e+01
1.550000e-06	-1.366364e-06	-4.853573e-10	-9.489936e+00	-3.419276e+01
1.560000e-06	-1.320757e-06	-4.748914e-10	-9.173172e+00	-3.364284e+01
1.570000e-06	-1.275120e-06	-4.656321e-10	-8.856208e+00	-3.308541e+01
1.580000e-06	-1.229413e-06	-4.578042e-10	-8.538752e+00	-3.252028e+01
1.590000e-06	-1.183571e-06	-4.506187e-10	-8.220361e+00	-3.194721e+01
1.600000e-06	-1.137620e-06	-4.425716e-10	-7.901220e+00	-3.136595e+01
1.610000e-06	-1.091569e-06	-4.323108e-10	-7.581377e+00	-3.077619e+01
1.620000e-06	-1.045510e-06	-4.201217e-10	-7.261478e+00	-3.017759e+01
1.630000e-06	-9.993996e-07	-4.088350e-10	-6.941222e+00	-2.956981e+01
1.640000e-06	-9.531306e-07	-3.988045e-10	-6.619865e+00	-2.895244e+01
1.650000e-06	-9.067842e-07	-3.884753e-10	-6.297972e+00	-2.832508e+01
1.660000e-06	-8.605339e-07	-3.799957e-10	-5.976745e+00	-2.768730e+01
1.670000e-06	-8.142547e-07	-3.722261e-10	-5.655318e+00	-2.703864e+01
1.680000e-06	-7.678050e-07	-3.631801e-10	-5.332707e+00	-2.637864e+01
1.690000e-06	-7.213516e-07	-3.528046e-10	-5.010069e+00	-2.570685e+01
1.700000e-06	-6.748673e-07	-3.432991e-10	-4.687218e+00	-2.502280e+01
1.710000e-06	-6.283379e-07	-3.322394e-10	-4.364053e+00	-2.432602e+01
1.720000e-06	-5.817296e-07	-3.189874e-10	-4.040340e+00	-2.361606e+01
1.730000e-06	-5.349826e-07	-3.054531e-10	-3.715664e+00	-2.289249e+01
1.740000e-06	-4.882627e-07	-2.919651e-10	-3.391176e+00	-2.215488e+01
1.750000e-06	-4.415555e-07	-2.779240e-10	-3.066776e+00	-2.140284e+01
1.760000e-06	-3.947978e-07	-2.654250e-10	-2.742026e+00	-2.063602e+01
1.770000e-06	-3.480729e-07	-2.541359e-10	-2.417503e+00	-1.985409e+01
1.780000e-06	-3.013270e-07	-2.432415e-10	-2.092834e+00	-1.905677e+01
1.790000e-06	-2.544041e-07	-2.326180e-10	-1.766936e+00	-1.824382e+01
1.800000e-06	-2.074450e-07	-2.201520e-10	-1.440787e+00	-1.741506e+01
1.810000e-06	-1.605845e-07	-2.052080e-10	-1.115322e+00	-1.657036e+01
1.820000e-06	-1.137563e-07	-1.895497e-10	-7.900819e-01	-1.570966e+01
1.830000e-06	-6.697374e-08	-1.770514e-10	-4.651589e-01	-1.483294e+01
1.840000e-06	-2.014862e-08	-1.667803e-10	-1.399401e-01	-1.394027e+01
1.850000e-06	2.681719e-08	-1.564943e-10	1.862559e-01	-1.303178e+01
1.860000e-06	7.372155e-08	-1.466177e-10	5.120251e-01	-1.210766e+01
1.870000e-06	1.205727e-07	-1.348056e-10	8.374247e-01	-1.116819e+01
1.880000e-06	1.674892e-07	-1.201808e-10	1.163278e+00	-1.021371e+01
1.890000e-06	2.143479e-07	-1.044222e-10	1.488730e+00	-9.244631e+00
1.900000e-06	2.611294e-07	-8.872203e-11	1.813646e+00	-8.261451e+00
1.910000e-06	3.079888e-07	-7.554992e-11	2.139103e+00	-7.264727e+00
1.920000e-06	3.548379e-07	-6.425641e-11	2.464488e+00	-6.255088e+00
1.930000e-06	4.015316e-07	-5.398843e-11	2.788795e+00	-5.233233e+00
1.940000e-06	4.482056e-07	-4.289728e-11	3.112963e+00	-4.199923e+00
1.950000e-06	4.948171e-07	-3.202726e-11	3.436699e+00	-3.155982e+00
1.960000e-06	5.414387e-07	-2.083199e-11	3.760504e+00	-2.102292e+00
1.970000e-06	5.880990e-07	-8.060314e-12	4.084578e+00	-1.039787e+00
1.980000e-06	6.346915e-07	7.238949e-12	4.408181e+00	3.054912e-02
1.990000e-06	6.811872e-07	2.287596e-11	4.731112e+00	1.107691e+00
2.000000e-06	7.275713e-07	3.678418e-11	5.053268e+00	2.190576e+00
2.010000e-06	7.739853e-07	5.081952e-11	5.375631e+00	3.278108e+00
2.020000e-06	8.203138e-07	6.492690e-11	5.697401e+00	4.369166e+00
2.030000e-06	8.664972e-07	7.824765e-11	6.018163e+00	5.462612e+00
2.040000e-06	9.127229e-07	9.160130e-11	6.339218e+00	6.557294e+00
2.050000e-06	9.589024e-07	1.055348e-10	6.659953e+00	7.652055e+00
2.060000e-06	1.005002e-06	1.204028e-10	6.980136e+00	8.745737e+00
2.070000e-06	1.051017e-06	1.359864e-10	7.299722e+00	9.837194e+00
2.080000e-06	1.096880e-06	1.537022e-10	7.618262e+00	1.092529e+01
2.090000e-06	1.142677e-06	1.725841e-10	7.936338e+00	1.200891e+01
2.100000e-06	1.188407e-06	1.889279e-10	8.253955e+00	1.308698e+01
2.110000e-06	1.233990e-06	2.027528e-10	8.570544e+00	1.415843e+01
2.120000e-06	1.279513e-06	2.155656e-10	8.886723e+00	1.522225e+01
2.130000e-06	1.324988e-06	2.279400e-10	9.202558e+00	1.627747e+01
2.140000e-06	1.370356e-06	2.407343e-10	9.517659e+00	1.732318e+01
2.150000e-06	1.415680e-06	2.551363e-10	9.832455e+00	1.835849e+01
2.160000e-06	1.460918e-06	2.694776e-10	1.014665e+01	1.938260e+01
2.170000e-06	1.506096e-06	2.850028e-10	1.046043e+01	2.039477e+01
2.180000e-06	1.551226e-06	3.001553e-10	1.077387e+01	2.139429e+01
2.190000e-06	1.596223e-06	3.125905e-10	1.108640e+01	2.238055e+01
2.200000e-06	1.641007e-06	3.259019e-10	1.139744e+01	2.335299e+01
2.210000e-06	1.685614e-06	3.399217e-10	1.170725e+01	2.431113e+01
2.220000e-06	1.730042e-06	3.537000e-10	1.201582e+01	2.525455e+01
2.230000e-06	1.774314e-06	3.686551e-10	1.232331e+01	2.618291e+01
2.240000e-06	1.818551e-06	3.826313e-10	1.263055e+01	2.709592e+01
2.250000e-06	1.862725e-06	3.941800e-10	1.293736e+01	2.799336e+01
2.260000e-06	1.906793e-06	4.042965e-10	1.324343e+01	2.887510e+01
2.270000e-06	1.950829e-06	4.158239e-10	1.354927e+01	2.974105e+01
2.280000e-06	1.994767e-06	4.278427e-10	1.385444e+01	3.059118e+01
2.290000e-06	2.038570e-06	4.385221e-10	1.415867e+01	3.142552e+01
2.300000e-06	2.082325e-06	4.501861e-10	1.446256e+01	3.224417e+01
2.310000e-06	2.125966e-06	4.641145e-10	1.476567e+01	3.304725e+01
2.320000e-06	2.169511e-06	4.756948e-10	1.506810e+01	3.383494e+01
2.330000e-06	2.212973e-06	4.847018e-10	1.536996e+01	3.460746e+01
2.340000e-06	2.256301e-06	4.948465e-10	1.567089e+01	3.536507e+01
2.350000e-06	2.299503e-06	5.043957e-10	1.597095e+01	3.610806e+01
2.360000e-06	2.342549e-06	5.141337e-10	1.626992e+01	3.683672e+01
2.370000e-06	2.385292e-06	5.255744e-10	1.656679e+01	3.755139e+01
2.380000e-06	2.427688e-06	5.361007e-10	1.686124e+01	3.825242e+01
2.390000e-06	2.469764e-06	5.460788e-10	1.715348e+01	3.894015e+01
2.400000e-06	2.511588e-06	5.573492e-10	1.744396e+01	3.961495e+01
2.410000e-06	2.553122e-06	5.682430e-10	1.773243e+01	4.027717e+01
2.420000e-06	2.594317e-06	5.784193e-10	1.801855e+01	4.092716e+01
2.430000e-06	2.635257e-06	5.874755e-10	1.830289e+01	4.156527e+01
2.440000e-06	2.676006e-06	5.962467e-10	1.858591e+01	4.219181e+01
2.450000e-06	2.716576e-06	6.061833e-10	1.886769e+01	4.280712e+01
2.460000e-06	2.756929e-06	6.153673e-10	1.914795e+01	4.341146e+01
2.470000e-06	2.797037e-06	6.232627e-10	1.942652e+01	4.400512e+01
2.480000e-06	2.836873e-06	6.299097e-10	1.970319e+01	4.458832e+01
2.490000e-06	2.876588e-06	6.382385e-10	1.997903e+01	4.516128e+01
2.500000e-06	2.916259e-06	6.473826e-10	2.025456e+01	4.572418e+01
2.510000e-06	2.955787e-06	6.564545e-10	2.052910e+01	4.627717e+01
2.520000e-06	2.995078e-06	6.653002e-10	2.080199e+01	4.682036e+01
2.530000e-06	3.034131e-06	6.720116e-10	2.107323e+01	4.735385e+01
2.540000e-06	3.073076e-06	6.783486e-10	2.134372e+01	4.787767e+01
2.550000e-06	3.111828e-06	6.830653e-10	2.161287e+01	4.839186e+01
2.560000e-06	3.150289e-06	6.901692e-10	2.188000e+01	4.889639e+01
2.570000e-06	3.188515e-06	6.977914e-10	2.214549e+01	4.939124e+01
2.580000e-06	3.226475e-06	7.062404e-10	2.240913e+01	4.987634e+01
2.590000e-06	3.264244e-06	7.116180e-10	2.267146e+01	5.035160e+01
2.600000e-06	3.301850e-06	7.148266e-10	2.293264e+01	5.081690e+01
2.610000e-06	3.339239e-06	7.206282e-10	2.319232e+01	5.127212e+01
2.620000e-06	3.376431e-06	7.277852e-10	2.345064e+01	5.171711e+01
2.630000e-06	3.413442e-06	7.331312e-10	2.370770e+01	5.215172e+01
2.640000e-06	3.450179e-06	7.374529e-10	2.396285e+01	5.257577e+01
2.650000e-06	3.486602e-06	7.415255e-10	2.421582e+01	5.298910e+01
2.660000e-06	3.522805e-06	7.456439e-10	2.446726e+01	5.339153e+01
2.670000e-06	3.558810e-06	7.495371e-10	2.471733e+01	5.378289e+01
2.680000e-06	3.594630e-06	7.538803e-10	2.496612e+01	5.416303e+01
2.690000e-06	3.630341e-06	7.589484e-10	2.521414e+01	5.453178e+01
2.700000e-06	3.665968e-06	7.658020e-10	2.546158e+01	5.488900e+01
2.710000e-06	3.701376e-06	7.739725e-10	2.570751e+01	5.523458e+01
2.720000e-06	3.736595e-06	7.798771e-10	2.595211e+01	5.556842e+01
2.730000e-06	3.771562e-06	7.877034e-10	2.619497e+01	5.589043e+01
2.740000e-06	3.806048e-06	7.925750e-10	2.643450e+01	5.620056e+01
2.750000e-06	3.840153e-06	7.930980e-10	2.667137e+01	5.649879e+01
2.760000e-06	3.873777e-06	7.943781e-10	2.690490e+01	5.678513e+01
2.770000e-06	3.906831e-06	7.992135e-10	2.713447e+01	5.705961e+01
2.780000e-06	3.939459e-06	8.066163e-10	2.736109e+01	5.732231e+01
2.790000e-06	3.971745e-06	8.150711e-10	2.758532e+01	5.757334e+01
2.800000e-06	4.003838e-06	8.232983e-10	2.780822e+01	5.781283e+01
2.810000e-06	4.035759e-06	8.312120e-10	2.802992e+01	5.804097e+01
2.820000e-06	4.067476e-06	8.370732e-10	2.825022e+01	5.825797e+01
2.830000e-06	4.098966e-06	8.403152e-10	2.846893e+01	5.846408e+01
2.840000e-06	4.130240e-06	8.395804e-10	2.868614e+01	5.865958e+01
2.850000e-06	4.161283e-06	8.395623e-10	2.890174e+01	5.884479e+01
2.860000e-06	4.191955e-06	8.407535e-10	2.911477e+01	5.902004e+01
2.870000e-06	4.222311e-06	8.417739e-10	2.932561e+01	5.918571e+01
2.880000e-06	4.252458e-06	8.445233e-10	2.953499e+01	5.934221e+01
2.890000e-06	4.282281e-06	8.508359e-10	2.974212e+01	5.948994e+01
2.900000e-06	4.311796e-06	8.565794e-10	2.994711e+01	5.962935e+01
