# Temperatura_=_7.03
# Concentracion g/m^3_=_1620.0
# C_Vs_to_Am_M_A/Vsm_=_65563218390.804596
# pendiente_HvsI_1/m_=_3716.3
# ordenada_HvsI_A/m_=_1297.0
# frecuencia_Hz_=_135106.63798328207

Tiempo_(s)	Campo_(V.s)	Magnetizacion_(V.s)	Campo_(kA/m)	Magnetizacion_(A/m)
0.000000e+00	-5.520150e-06	-7.494293e-10	-3.835902e+01	-4.792278e+01
1.000000e-08	-5.520398e-06	-7.458715e-10	-3.836075e+01	-4.792105e+01
2.000000e-08	-5.520329e-06	-7.439372e-10	-3.836026e+01	-4.791925e+01
3.000000e-08	-5.519874e-06	-7.449628e-10	-3.835710e+01	-4.791720e+01
4.000000e-08	-5.518882e-06	-7.469631e-10	-3.835021e+01	-4.791474e+01
5.000000e-08	-5.517269e-06	-7.448527e-10	-3.833900e+01	-4.791171e+01
6.000000e-08	-5.515107e-06	-7.316024e-10	-3.832398e+01	-4.790793e+01
7.000000e-08	-5.512446e-06	-7.122887e-10	-3.830549e+01	-4.790323e+01
8.000000e-08	-5.509273e-06	-7.259953e-10	-3.828343e+01	-4.789744e+01
9.000000e-08	-5.505616e-06	-7.946141e-10	-3.825802e+01	-4.789040e+01
1.000000e-07	-5.501506e-06	-8.082829e-10	-3.822946e+01	-4.788195e+01
1.100000e-07	-5.496971e-06	-7.050429e-10	-3.819795e+01	-4.787194e+01
1.200000e-07	-5.492282e-06	-6.312625e-10	-3.816537e+01	-4.786023e+01
1.300000e-07	-5.487438e-06	-7.209222e-10	-3.813171e+01	-4.784670e+01
1.400000e-07	-5.482199e-06	-7.892731e-10	-3.809530e+01	-4.783123e+01
1.500000e-07	-5.476594e-06	-7.190297e-10	-3.805635e+01	-4.781372e+01
1.600000e-07	-5.470675e-06	-6.334915e-10	-3.801523e+01	-4.779409e+01
1.700000e-07	-5.464333e-06	-7.119412e-10	-3.797115e+01	-4.777227e+01
1.800000e-07	-5.457422e-06	-7.919377e-10	-3.792313e+01	-4.774819e+01
1.900000e-07	-5.450094e-06	-7.327094e-10	-3.787221e+01	-4.772184e+01
2.000000e-07	-5.442568e-06	-6.592344e-10	-3.781991e+01	-4.769318e+01
2.100000e-07	-5.434778e-06	-7.043410e-10	-3.776578e+01	-4.766221e+01
2.200000e-07	-5.426660e-06	-7.764444e-10	-3.770937e+01	-4.762894e+01
2.300000e-07	-5.418290e-06	-7.468293e-10	-3.765120e+01	-4.759341e+01
2.400000e-07	-5.409522e-06	-7.032612e-10	-3.759028e+01	-4.755566e+01
2.500000e-07	-5.400073e-06	-7.174937e-10	-3.752462e+01	-4.751573e+01
2.600000e-07	-5.389837e-06	-7.594947e-10	-3.745349e+01	-4.747371e+01
2.700000e-07	-5.378994e-06	-7.434234e-10	-3.737814e+01	-4.742966e+01
2.800000e-07	-5.367763e-06	-7.247979e-10	-3.730009e+01	-4.738368e+01
2.900000e-07	-5.356098e-06	-7.410407e-10	-3.721904e+01	-4.733586e+01
3.000000e-07	-5.344073e-06	-7.723772e-10	-3.713548e+01	-4.728630e+01
3.100000e-07	-5.331784e-06	-7.418488e-10	-3.705008e+01	-4.723511e+01
3.200000e-07	-5.319007e-06	-7.107260e-10	-3.696130e+01	-4.718239e+01
3.300000e-07	-5.305738e-06	-7.196227e-10	-3.686909e+01	-4.712826e+01
3.400000e-07	-5.292210e-06	-7.514539e-10	-3.677508e+01	-4.707282e+01
3.500000e-07	-5.278291e-06	-7.253641e-10	-3.667836e+01	-4.701617e+01
3.600000e-07	-5.263819e-06	-7.075071e-10	-3.657780e+01	-4.695841e+01
3.700000e-07	-5.248951e-06	-7.441863e-10	-3.647449e+01	-4.689963e+01
3.800000e-07	-5.233692e-06	-7.519251e-10	-3.636845e+01	-4.683991e+01
3.900000e-07	-5.217821e-06	-6.983460e-10	-3.625816e+01	-4.677932e+01
4.000000e-07	-5.201403e-06	-7.133988e-10	-3.614408e+01	-4.671793e+01
4.100000e-07	-5.184737e-06	-7.668140e-10	-3.602826e+01	-4.665579e+01
4.200000e-07	-5.167772e-06	-7.153368e-10	-3.591038e+01	-4.659292e+01
4.300000e-07	-5.150410e-06	-6.710205e-10	-3.578973e+01	-4.652936e+01
4.400000e-07	-5.132755e-06	-7.455374e-10	-3.566705e+01	-4.646510e+01
4.500000e-07	-5.114823e-06	-7.595276e-10	-3.554244e+01	-4.640015e+01
4.600000e-07	-5.096393e-06	-6.646791e-10	-3.541437e+01	-4.633448e+01
4.700000e-07	-5.077452e-06	-6.907035e-10	-3.528275e+01	-4.626806e+01
4.800000e-07	-5.058259e-06	-7.633825e-10	-3.514938e+01	-4.620083e+01
4.900000e-07	-5.038860e-06	-7.037073e-10	-3.501458e+01	-4.613274e+01
5.000000e-07	-5.019268e-06	-6.665427e-10	-3.487844e+01	-4.606372e+01
5.100000e-07	-4.999482e-06	-7.392802e-10	-3.474095e+01	-4.599367e+01
5.200000e-07	-4.979321e-06	-7.107185e-10	-3.460085e+01	-4.592251e+01
5.300000e-07	-4.958662e-06	-6.484004e-10	-3.445729e+01	-4.585013e+01
5.400000e-07	-4.937642e-06	-7.129515e-10	-3.431123e+01	-4.577644e+01
5.500000e-07	-4.916320e-06	-7.411852e-10	-3.416306e+01	-4.570130e+01
5.600000e-07	-4.894692e-06	-6.590544e-10	-3.401277e+01	-4.562462e+01
5.700000e-07	-4.872753e-06	-6.798860e-10	-3.386032e+01	-4.554627e+01
5.800000e-07	-4.850440e-06	-7.372654e-10	-3.370527e+01	-4.546615e+01
5.900000e-07	-4.827675e-06	-6.812592e-10	-3.354707e+01	-4.538414e+01
6.000000e-07	-4.804543e-06	-6.540038e-10	-3.338633e+01	-4.530013e+01
6.100000e-07	-4.781195e-06	-7.130612e-10	-3.322409e+01	-4.521404e+01
6.200000e-07	-4.757658e-06	-6.936360e-10	-3.306053e+01	-4.512576e+01
6.300000e-07	-4.733929e-06	-6.526666e-10	-3.289564e+01	-4.503523e+01
6.400000e-07	-4.709862e-06	-6.894104e-10	-3.272840e+01	-4.494238e+01
6.500000e-07	-4.685337e-06	-6.989004e-10	-3.255798e+01	-4.484716e+01
6.600000e-07	-4.660289e-06	-6.627294e-10	-3.238392e+01	-4.474953e+01
6.700000e-07	-4.634703e-06	-6.802745e-10	-3.220613e+01	-4.464948e+01
6.800000e-07	-4.608638e-06	-6.962310e-10	-3.202501e+01	-4.454701e+01
6.900000e-07	-4.582038e-06	-6.665906e-10	-3.184017e+01	-4.444213e+01
7.000000e-07	-4.554987e-06	-6.670054e-10	-3.165219e+01	-4.433488e+01
7.100000e-07	-4.527704e-06	-6.855663e-10	-3.146260e+01	-4.422531e+01
7.200000e-07	-4.500210e-06	-6.702842e-10	-3.127155e+01	-4.411351e+01
7.300000e-07	-4.472550e-06	-6.619353e-10	-3.107934e+01	-4.399955e+01
7.400000e-07	-4.444756e-06	-6.761249e-10	-3.088621e+01	-4.388354e+01
7.500000e-07	-4.416730e-06	-6.688402e-10	-3.069146e+01	-4.376562e+01
7.600000e-07	-4.388383e-06	-6.620499e-10	-3.049448e+01	-4.364592e+01
7.700000e-07	-4.359684e-06	-6.712061e-10	-3.029505e+01	-4.352460e+01
7.800000e-07	-4.330669e-06	-6.668964e-10	-3.009342e+01	-4.340181e+01
7.900000e-07	-4.301314e-06	-6.559808e-10	-2.988944e+01	-4.327774e+01
8.000000e-07	-4.271631e-06	-6.629281e-10	-2.968317e+01	-4.315256e+01
8.100000e-07	-4.241648e-06	-6.582753e-10	-2.947483e+01	-4.302646e+01
8.200000e-07	-4.211453e-06	-6.466460e-10	-2.926500e+01	-4.289964e+01
8.300000e-07	-4.181034e-06	-6.515051e-10	-2.905362e+01	-4.277227e+01
8.400000e-07	-4.150315e-06	-6.570669e-10	-2.884016e+01	-4.264456e+01
8.500000e-07	-4.119302e-06	-6.447257e-10	-2.862465e+01	-4.251668e+01
8.600000e-07	-4.088042e-06	-6.415213e-10	-2.840743e+01	-4.238880e+01
8.700000e-07	-4.056572e-06	-6.459190e-10	-2.818875e+01	-4.226108e+01
8.800000e-07	-4.024892e-06	-6.391431e-10	-2.796861e+01	-4.213369e+01
8.900000e-07	-3.993036e-06	-6.305929e-10	-2.774724e+01	-4.200674e+01
9.000000e-07	-3.960938e-06	-6.345106e-10	-2.752419e+01	-4.188036e+01
9.100000e-07	-3.928541e-06	-6.283968e-10	-2.729907e+01	-4.175463e+01
9.200000e-07	-3.895750e-06	-6.195072e-10	-2.707121e+01	-4.162962e+01
9.300000e-07	-3.862533e-06	-6.278610e-10	-2.684039e+01	-4.150539e+01
9.400000e-07	-3.828825e-06	-6.353926e-10	-2.660616e+01	-4.138195e+01
9.500000e-07	-3.794561e-06	-6.278725e-10	-2.636806e+01	-4.125928e+01
9.600000e-07	-3.759985e-06	-6.263857e-10	-2.612779e+01	-4.113735e+01
9.700000e-07	-3.725162e-06	-6.302355e-10	-2.588581e+01	-4.101610e+01
9.800000e-07	-3.690005e-06	-6.218201e-10	-2.564151e+01	-4.089541e+01
9.900000e-07	-3.654604e-06	-6.135760e-10	-2.539551e+01	-4.077517e+01
1.000000e-06	-3.619076e-06	-6.161767e-10	-2.514863e+01	-4.065520e+01
1.010000e-06	-3.583440e-06	-6.150500e-10	-2.490100e+01	-4.053533e+01
1.020000e-06	-3.547619e-06	-6.090964e-10	-2.465208e+01	-4.041533e+01
1.030000e-06	-3.511523e-06	-6.123007e-10	-2.440125e+01	-4.029496e+01
1.040000e-06	-3.475143e-06	-6.134204e-10	-2.414845e+01	-4.017394e+01
1.050000e-06	-3.438596e-06	-6.035489e-10	-2.389449e+01	-4.005199e+01
1.060000e-06	-3.401771e-06	-5.935254e-10	-2.363860e+01	-3.992879e+01
1.070000e-06	-3.364661e-06	-5.891141e-10	-2.338072e+01	-3.980400e+01
1.080000e-06	-3.327379e-06	-5.821981e-10	-2.312165e+01	-3.967727e+01
1.090000e-06	-3.289866e-06	-5.786662e-10	-2.286098e+01	-3.954824e+01
1.100000e-06	-3.252157e-06	-5.792893e-10	-2.259894e+01	-3.941654e+01
1.110000e-06	-3.214163e-06	-5.759427e-10	-2.233493e+01	-3.928179e+01
1.120000e-06	-3.175916e-06	-5.679846e-10	-2.206915e+01	-3.914361e+01
1.130000e-06	-3.137514e-06	-5.644283e-10	-2.180230e+01	-3.900161e+01
1.140000e-06	-3.098850e-06	-5.612605e-10	-2.153363e+01	-3.885542e+01
1.150000e-06	-3.059902e-06	-5.534510e-10	-2.126298e+01	-3.870466e+01
1.160000e-06	-3.020744e-06	-5.479973e-10	-2.099088e+01	-3.854898e+01
1.170000e-06	-2.981448e-06	-5.491526e-10	-2.071781e+01	-3.838803e+01
1.180000e-06	-2.942035e-06	-5.490104e-10	-2.044393e+01	-3.822149e+01
1.190000e-06	-2.902527e-06	-5.481956e-10	-2.016940e+01	-3.804904e+01
1.200000e-06	-2.862942e-06	-5.471750e-10	-1.989433e+01	-3.787040e+01
1.210000e-06	-2.823189e-06	-5.441497e-10	-1.961808e+01	-3.768532e+01
1.220000e-06	-2.783167e-06	-5.382241e-10	-1.933997e+01	-3.749356e+01
1.230000e-06	-2.742916e-06	-5.331258e-10	-1.906027e+01	-3.729492e+01
1.240000e-06	-2.702491e-06	-5.290186e-10	-1.877937e+01	-3.708923e+01
1.250000e-06	-2.661962e-06	-5.242937e-10	-1.849773e+01	-3.687634e+01
1.260000e-06	-2.621280e-06	-5.221584e-10	-1.821503e+01	-3.665616e+01
1.270000e-06	-2.580290e-06	-5.233822e-10	-1.793020e+01	-3.642860e+01
1.280000e-06	-2.538974e-06	-5.207426e-10	-1.764310e+01	-3.619363e+01
1.290000e-06	-2.497348e-06	-5.125385e-10	-1.735385e+01	-3.595122e+01
1.300000e-06	-2.455425e-06	-5.050032e-10	-1.706253e+01	-3.570140e+01
1.310000e-06	-2.413203e-06	-4.996008e-10	-1.676913e+01	-3.544423e+01
1.320000e-06	-2.370590e-06	-4.933046e-10	-1.647302e+01	-3.517976e+01
1.330000e-06	-2.327690e-06	-4.892765e-10	-1.617490e+01	-3.490810e+01
1.340000e-06	-2.284667e-06	-4.896595e-10	-1.587595e+01	-3.462938e+01
1.350000e-06	-2.241480e-06	-4.882470e-10	-1.557584e+01	-3.434372e+01
1.360000e-06	-2.198077e-06	-4.837378e-10	-1.527423e+01	-3.405128e+01
1.370000e-06	-2.154556e-06	-4.775061e-10	-1.497181e+01	-3.375223e+01
1.380000e-06	-2.111033e-06	-4.720059e-10	-1.466938e+01	-3.344673e+01
1.390000e-06	-2.067397e-06	-4.655399e-10	-1.436616e+01	-3.313497e+01
1.400000e-06	-2.023616e-06	-4.601586e-10	-1.406192e+01	-3.281711e+01
1.410000e-06	-1.979787e-06	-4.552362e-10	-1.375736e+01	-3.249332e+01
1.420000e-06	-1.935912e-06	-4.510515e-10	-1.345248e+01	-3.216377e+01
1.430000e-06	-1.891987e-06	-4.489539e-10	-1.314724e+01	-3.182859e+01
1.440000e-06	-1.847950e-06	-4.475359e-10	-1.284124e+01	-3.148790e+01
1.450000e-06	-1.803761e-06	-4.435634e-10	-1.253417e+01	-3.114182e+01
1.460000e-06	-1.759431e-06	-4.370512e-10	-1.222613e+01	-3.079041e+01
1.470000e-06	-1.714924e-06	-4.280878e-10	-1.191685e+01	-3.043371e+01
1.480000e-06	-1.670261e-06	-4.187714e-10	-1.160649e+01	-3.007174e+01
1.490000e-06	-1.625510e-06	-4.100483e-10	-1.129552e+01	-2.970447e+01
1.500000e-06	-1.580638e-06	-4.031205e-10	-1.098371e+01	-2.933183e+01
1.510000e-06	-1.535636e-06	-3.971004e-10	-1.067099e+01	-2.895371e+01
1.520000e-06	-1.490522e-06	-3.909111e-10	-1.035750e+01	-2.856995e+01
1.530000e-06	-1.445294e-06	-3.840821e-10	-1.004321e+01	-2.818035e+01
1.540000e-06	-1.399963e-06	-3.768377e-10	-9.728218e+00	-2.778468e+01
1.550000e-06	-1.354497e-06	-3.677791e-10	-9.412277e+00	-2.738262e+01
1.560000e-06	-1.308974e-06	-3.569996e-10	-9.095940e+00	-2.697384e+01
1.570000e-06	-1.263397e-06	-3.492809e-10	-8.779233e+00	-2.655797e+01
1.580000e-06	-1.217718e-06	-3.442401e-10	-8.461810e+00	-2.613456e+01
1.590000e-06	-1.171944e-06	-3.389750e-10	-8.143735e+00	-2.570315e+01
1.600000e-06	-1.126111e-06	-3.322733e-10	-7.825243e+00	-2.526323e+01
1.610000e-06	-1.080215e-06	-3.250066e-10	-7.506317e+00	-2.481425e+01
1.620000e-06	-1.034226e-06	-3.162208e-10	-7.186743e+00	-2.435565e+01
1.630000e-06	-9.882247e-07	-3.071036e-10	-6.867084e+00	-2.388681e+01
1.640000e-06	-9.421783e-07	-2.970862e-10	-6.547111e+00	-2.340711e+01
1.650000e-06	-8.960427e-07	-2.875259e-10	-6.226519e+00	-2.291592e+01
1.660000e-06	-8.498348e-07	-2.793047e-10	-5.905425e+00	-2.241257e+01
1.670000e-06	-8.035456e-07	-2.718576e-10	-5.583765e+00	-2.189641e+01
1.680000e-06	-7.571615e-07	-2.653642e-10	-5.261446e+00	-2.136679e+01
1.690000e-06	-7.107433e-07	-2.598619e-10	-4.938890e+00	-2.082305e+01
1.700000e-06	-6.642692e-07	-2.545068e-10	-4.615947e+00	-2.026457e+01
1.710000e-06	-6.177379e-07	-2.451017e-10	-4.292604e+00	-1.969073e+01
1.720000e-06	-5.712081e-07	-2.318309e-10	-3.969273e+00	-1.910096e+01
1.730000e-06	-5.246652e-07	-2.196979e-10	-3.645851e+00	-1.849471e+01
1.740000e-06	-4.780609e-07	-2.086117e-10	-3.322002e+00	-1.787147e+01
1.750000e-06	-4.313334e-07	-1.992043e-10	-2.997297e+00	-1.723080e+01
1.760000e-06	-3.845720e-07	-1.916232e-10	-2.672356e+00	-1.657231e+01
1.770000e-06	-3.378206e-07	-1.847764e-10	-2.347484e+00	-1.589566e+01
1.780000e-06	-2.910542e-07	-1.774381e-10	-2.022509e+00	-1.520058e+01
1.790000e-06	-2.442525e-07	-1.660481e-10	-1.697289e+00	-1.448688e+01
1.800000e-06	-1.973692e-07	-1.522341e-10	-1.371501e+00	-1.375446e+01
1.810000e-06	-1.505176e-07	-1.385622e-10	-1.045933e+00	-1.300329e+01
1.820000e-06	-1.037009e-07	-1.249305e-10	-7.206079e-01	-1.223342e+01
1.830000e-06	-5.682314e-08	-1.127484e-10	-3.948589e-01	-1.144499e+01
1.840000e-06	-9.941462e-09	-1.032756e-10	-6.908231e-02	-1.063826e+01
1.850000e-06	3.699076e-08	-9.637322e-11	2.570454e-01	-9.813543e+00
1.860000e-06	8.391378e-08	-8.960269e-11	5.831092e-01	-8.971277e+00
1.870000e-06	1.307713e-07	-8.073537e-11	9.087178e-01	-8.111981e+00
1.880000e-06	1.776303e-07	-7.012261e-11	1.234337e+00	-7.236270e+00
1.890000e-06	2.245143e-07	-5.566016e-11	1.560130e+00	-6.344851e+00
1.900000e-06	2.713664e-07	-3.957331e-11	1.885701e+00	-5.438523e+00
1.910000e-06	3.181102e-07	-2.546990e-11	2.210519e+00	-4.518169e+00
1.920000e-06	3.648555e-07	-1.331757e-11	2.535348e+00	-3.584758e+00
1.930000e-06	4.116028e-07	-1.912802e-12	2.860190e+00	-2.639335e+00
1.940000e-06	4.582222e-07	7.892439e-12	3.184145e+00	-1.683020e+00
1.950000e-06	5.047970e-07	1.475187e-11	3.507788e+00	-7.170003e-01
1.960000e-06	5.513883e-07	2.213432e-11	3.831547e+00	2.574756e-01
1.970000e-06	5.979329e-07	3.324744e-11	4.154981e+00	1.239106e+00
1.980000e-06	6.443921e-07	4.825892e-11	4.477822e+00	2.226542e+00
1.990000e-06	6.908275e-07	6.597941e-11	4.800497e+00	3.218396e+00
2.000000e-06	7.372650e-07	8.281061e-11	5.123188e+00	4.213250e+00
2.010000e-06	7.835881e-07	9.587790e-11	5.445082e+00	5.209666e+00
2.020000e-06	8.297336e-07	1.069659e-10	5.765744e+00	6.206191e+00
2.030000e-06	8.757775e-07	1.189069e-10	6.085698e+00	7.201368e+00
2.040000e-06	9.218130e-07	1.326618e-10	6.405595e+00	8.193747e+00
2.050000e-06	9.678369e-07	1.466410e-10	6.725411e+00	9.181889e+00
2.060000e-06	1.013770e-06	1.605241e-10	7.044596e+00	1.016438e+01
2.070000e-06	1.059625e-06	1.763324e-10	7.363237e+00	1.113984e+01
2.080000e-06	1.105446e-06	1.923886e-10	7.681644e+00	1.210691e+01
2.090000e-06	1.151206e-06	2.055353e-10	7.999625e+00	1.306431e+01
2.100000e-06	1.196960e-06	2.166475e-10	8.317570e+00	1.401079e+01
2.110000e-06	1.242657e-06	2.270909e-10	8.635113e+00	1.494518e+01
2.120000e-06	1.288202e-06	2.377463e-10	8.951600e+00	1.586636e+01
2.130000e-06	1.333635e-06	2.499120e-10	9.267311e+00	1.677329e+01
2.140000e-06	1.379041e-06	2.626959e-10	9.582827e+00	1.766503e+01
2.150000e-06	1.424337e-06	2.745390e-10	9.897591e+00	1.854069e+01
2.160000e-06	1.469463e-06	2.856152e-10	1.021116e+01	1.939951e+01
2.170000e-06	1.514558e-06	2.976132e-10	1.052452e+01	2.024078e+01
2.180000e-06	1.559655e-06	3.096732e-10	1.083790e+01	2.106391e+01
2.190000e-06	1.604605e-06	3.205942e-10	1.115025e+01	2.186841e+01
2.200000e-06	1.649362e-06	3.312484e-10	1.146127e+01	2.265386e+01
2.210000e-06	1.693855e-06	3.421990e-10	1.177045e+01	2.341996e+01
2.220000e-06	1.738148e-06	3.539920e-10	1.207823e+01	2.416650e+01
2.230000e-06	1.782384e-06	3.646248e-10	1.238562e+01	2.489336e+01
2.240000e-06	1.826443e-06	3.737102e-10	1.269178e+01	2.560051e+01
2.250000e-06	1.870350e-06	3.809422e-10	1.299689e+01	2.628802e+01
2.260000e-06	1.914275e-06	3.869637e-10	1.330213e+01	2.695603e+01
2.270000e-06	1.958247e-06	3.941708e-10	1.360768e+01	2.760477e+01
2.280000e-06	2.002132e-06	4.034762e-10	1.391264e+01	2.823454e+01
2.290000e-06	2.045873e-06	4.139039e-10	1.421658e+01	2.884571e+01
2.300000e-06	2.089554e-06	4.229113e-10	1.452012e+01	2.943873e+01
2.310000e-06	2.133206e-06	4.301379e-10	1.482345e+01	3.001408e+01
2.320000e-06	2.176781e-06	4.367007e-10	1.512625e+01	3.057232e+01
2.330000e-06	2.220211e-06	4.426078e-10	1.542804e+01	3.111402e+01
2.340000e-06	2.263522e-06	4.482827e-10	1.572901e+01	3.163981e+01
2.350000e-06	2.306747e-06	4.548256e-10	1.602937e+01	3.215036e+01
2.360000e-06	2.349749e-06	4.636000e-10	1.632820e+01	3.264632e+01
2.370000e-06	2.392497e-06	4.737608e-10	1.662524e+01	3.312841e+01
2.380000e-06	2.434891e-06	4.834791e-10	1.691984e+01	3.359731e+01
2.390000e-06	2.476884e-06	4.927260e-10	1.721164e+01	3.405372e+01
2.400000e-06	2.518681e-06	5.003285e-10	1.750208e+01	3.449834e+01
2.410000e-06	2.560279e-06	5.063547e-10	1.779114e+01	3.493184e+01
2.420000e-06	2.601529e-06	5.135191e-10	1.807779e+01	3.535488e+01
2.430000e-06	2.642418e-06	5.211976e-10	1.836192e+01	3.576811e+01
2.440000e-06	2.682993e-06	5.275722e-10	1.864388e+01	3.617212e+01
2.450000e-06	2.723326e-06	5.351278e-10	1.892415e+01	3.656748e+01
2.460000e-06	2.763491e-06	5.427069e-10	1.920324e+01	3.695473e+01
2.470000e-06	2.803497e-06	5.487969e-10	1.948124e+01	3.733435e+01
2.480000e-06	2.843361e-06	5.541397e-10	1.975825e+01	3.770679e+01
2.490000e-06	2.883052e-06	5.595361e-10	2.003406e+01	3.807243e+01
2.500000e-06	2.922607e-06	5.663028e-10	2.030893e+01	3.843162e+01
2.510000e-06	2.962076e-06	5.737121e-10	2.058320e+01	3.878466e+01
2.520000e-06	3.001402e-06	5.811741e-10	2.085647e+01	3.913177e+01
2.530000e-06	3.040606e-06	5.877477e-10	2.112889e+01	3.947316e+01
2.540000e-06	3.079606e-06	5.919020e-10	2.139990e+01	3.980895e+01
2.550000e-06	3.118283e-06	5.935846e-10	2.166867e+01	4.013924e+01
2.560000e-06	3.156733e-06	5.961404e-10	2.193585e+01	4.046406e+01
2.570000e-06	3.194944e-06	6.006927e-10	2.220137e+01	4.078341e+01
2.580000e-06	3.232899e-06	6.050854e-10	2.246512e+01	4.109724e+01
2.590000e-06	3.270688e-06	6.098775e-10	2.272771e+01	4.140546e+01
2.600000e-06	3.308300e-06	6.151802e-10	2.298907e+01	4.170795e+01
2.610000e-06	3.345720e-06	6.203188e-10	2.324910e+01	4.200454e+01
2.620000e-06	3.382889e-06	6.254021e-10	2.350739e+01	4.229507e+01
2.630000e-06	3.419805e-06	6.292745e-10	2.376391e+01	4.257932e+01
2.640000e-06	3.456450e-06	6.331292e-10	2.401856e+01	4.285707e+01
2.650000e-06	3.492831e-06	6.362278e-10	2.427136e+01	4.312808e+01
2.660000e-06	3.528979e-06	6.381402e-10	2.452255e+01	4.339211e+01
2.670000e-06	3.564858e-06	6.392392e-10	2.477188e+01	4.364891e+01
2.680000e-06	3.600568e-06	6.399964e-10	2.502002e+01	4.389823e+01
2.690000e-06	3.636168e-06	6.423269e-10	2.526740e+01	4.413983e+01
2.700000e-06	3.671662e-06	6.468919e-10	2.551405e+01	4.437348e+01
2.710000e-06	3.707039e-06	6.534812e-10	2.575987e+01	4.459897e+01
2.720000e-06	3.742258e-06	6.585231e-10	2.600461e+01	4.481609e+01
2.730000e-06	3.777133e-06	6.615977e-10	2.624696e+01	4.502468e+01
2.740000e-06	3.811562e-06	6.629573e-10	2.648620e+01	4.522459e+01
2.750000e-06	3.845571e-06	6.632552e-10	2.672252e+01	4.541569e+01
2.760000e-06	3.878989e-06	6.642468e-10	2.695474e+01	4.559791e+01
2.770000e-06	3.911903e-06	6.666549e-10	2.718346e+01	4.577118e+01
2.780000e-06	3.944495e-06	6.705914e-10	2.740994e+01	4.593549e+01
2.790000e-06	3.976720e-06	6.744661e-10	2.763387e+01	4.609086e+01
2.800000e-06	4.008681e-06	6.779028e-10	2.785596e+01	4.623734e+01
2.810000e-06	4.040510e-06	6.815597e-10	2.807714e+01	4.637503e+01
2.820000e-06	4.072173e-06	6.853195e-10	2.829716e+01	4.650405e+01
2.830000e-06	4.103682e-06	6.873524e-10	2.851612e+01	4.662457e+01
2.840000e-06	4.135048e-06	6.872962e-10	2.873407e+01	4.673680e+01
2.850000e-06	4.166071e-06	6.869446e-10	2.894965e+01	4.684098e+01
2.860000e-06	4.196643e-06	6.874470e-10	2.916209e+01	4.693736e+01
2.870000e-06	4.226876e-06	6.886714e-10	2.937218e+01	4.702625e+01
2.880000e-06	4.256850e-06	6.907029e-10	2.958046e+01	4.710798e+01
2.890000e-06	4.286536e-06	6.941362e-10	2.978675e+01	4.718289e+01
2.900000e-06	4.315929e-06	6.977454e-10	2.999100e+01	4.725135e+01
