# Temperatura_=_15.1
# Concentracion g/m^3_=_1620.0
# C_Vs_to_Am_M_A/Vsm_=_65563218390.804596
# pendiente_HvsI_1/m_=_3716.3
# ordenada_HvsI_A/m_=_1297.0
# frecuencia_Hz_=_135101.4975837361

Tiempo_(s)	Campo_(V.s)	Magnetizacion_(V.s)	Campo_(kA/m)	Magnetizacion_(A/m)
0.000000e+00	-5.529020e-06	-8.308833e-10	-3.837230e+01	-5.475061e+01
1.000000e-08	-5.529370e-06	-8.319883e-10	-3.837474e+01	-5.472619e+01
2.000000e-08	-5.529400e-06	-8.341432e-10	-3.837494e+01	-5.470021e+01
3.000000e-08	-5.529000e-06	-8.341139e-10	-3.837217e+01	-5.467267e+01
4.000000e-08	-5.528120e-06	-8.317532e-10	-3.836606e+01	-5.464357e+01
5.000000e-08	-5.526677e-06	-8.307728e-10	-3.835604e+01	-5.461290e+01
6.000000e-08	-5.524708e-06	-8.339503e-10	-3.834238e+01	-5.458066e+01
7.000000e-08	-5.522170e-06	-8.317916e-10	-3.832476e+01	-5.454688e+01
8.000000e-08	-5.518996e-06	-8.210420e-10	-3.830274e+01	-5.451155e+01
9.000000e-08	-5.515333e-06	-8.147062e-10	-3.827731e+01	-5.447469e+01
1.000000e-07	-5.511275e-06	-8.231947e-10	-3.824916e+01	-5.443635e+01
1.100000e-07	-5.506900e-06	-8.125116e-10	-3.821879e+01	-5.439654e+01
1.200000e-07	-5.502312e-06	-8.018639e-10	-3.818695e+01	-5.435531e+01
1.300000e-07	-5.497486e-06	-8.189147e-10	-3.815345e+01	-5.431271e+01
1.400000e-07	-5.492297e-06	-8.515492e-10	-3.811744e+01	-5.426879e+01
1.500000e-07	-5.486698e-06	-8.173328e-10	-3.807858e+01	-5.422359e+01
1.600000e-07	-5.480724e-06	-7.945746e-10	-3.803712e+01	-5.417720e+01
1.700000e-07	-5.474397e-06	-7.947469e-10	-3.799321e+01	-5.412968e+01
1.800000e-07	-5.467661e-06	-8.208917e-10	-3.794647e+01	-5.408109e+01
1.900000e-07	-5.460450e-06	-7.739014e-10	-3.789642e+01	-5.403152e+01
2.000000e-07	-5.452908e-06	-7.593134e-10	-3.784408e+01	-5.398105e+01
2.100000e-07	-5.445219e-06	-7.952694e-10	-3.779071e+01	-5.392975e+01
2.200000e-07	-5.437286e-06	-8.373795e-10	-3.773565e+01	-5.387770e+01
2.300000e-07	-5.429004e-06	-8.165729e-10	-3.767818e+01	-5.382498e+01
2.400000e-07	-5.420406e-06	-7.881907e-10	-3.761850e+01	-5.377168e+01
2.500000e-07	-5.411191e-06	-7.993276e-10	-3.755455e+01	-5.371786e+01
2.600000e-07	-5.401153e-06	-8.087771e-10	-3.748489e+01	-5.366360e+01
2.700000e-07	-5.390502e-06	-8.119895e-10	-3.741097e+01	-5.360895e+01
2.800000e-07	-5.379447e-06	-8.056088e-10	-3.733424e+01	-5.355398e+01
2.900000e-07	-5.367955e-06	-8.236236e-10	-3.725449e+01	-5.349874e+01
3.000000e-07	-5.356082e-06	-8.226538e-10	-3.717209e+01	-5.344327e+01
3.100000e-07	-5.343853e-06	-8.320765e-10	-3.708722e+01	-5.338759e+01
3.200000e-07	-5.331147e-06	-8.141489e-10	-3.699904e+01	-5.333173e+01
3.300000e-07	-5.317994e-06	-8.107033e-10	-3.690775e+01	-5.327569e+01
3.400000e-07	-5.304417e-06	-7.963592e-10	-3.681353e+01	-5.321947e+01
3.500000e-07	-5.290482e-06	-8.097256e-10	-3.671682e+01	-5.316305e+01
3.600000e-07	-5.276137e-06	-7.856864e-10	-3.661726e+01	-5.310640e+01
3.700000e-07	-5.261357e-06	-7.936786e-10	-3.651468e+01	-5.304948e+01
3.800000e-07	-5.246118e-06	-8.090708e-10	-3.640892e+01	-5.299222e+01
3.900000e-07	-5.230244e-06	-8.102016e-10	-3.629875e+01	-5.293455e+01
4.000000e-07	-5.213836e-06	-7.780610e-10	-3.618487e+01	-5.287638e+01
4.100000e-07	-5.197198e-06	-8.007729e-10	-3.606940e+01	-5.281763e+01
4.200000e-07	-5.180251e-06	-8.063523e-10	-3.595180e+01	-5.275816e+01
4.300000e-07	-5.162829e-06	-7.717477e-10	-3.583088e+01	-5.269786e+01
4.400000e-07	-5.145089e-06	-7.733098e-10	-3.570776e+01	-5.263660e+01
4.500000e-07	-5.127108e-06	-8.084432e-10	-3.558297e+01	-5.257423e+01
4.600000e-07	-5.108641e-06	-7.784923e-10	-3.545481e+01	-5.251059e+01
4.700000e-07	-5.089695e-06	-7.553753e-10	-3.532332e+01	-5.244553e+01
4.800000e-07	-5.070496e-06	-8.049349e-10	-3.519007e+01	-5.237888e+01
4.900000e-07	-5.051057e-06	-8.014888e-10	-3.505517e+01	-5.231048e+01
5.000000e-07	-5.031358e-06	-7.499152e-10	-3.491845e+01	-5.224014e+01
5.100000e-07	-5.011427e-06	-7.700967e-10	-3.478013e+01	-5.216771e+01
5.200000e-07	-4.991241e-06	-7.998203e-10	-3.464003e+01	-5.209300e+01
5.300000e-07	-4.970667e-06	-7.531762e-10	-3.449724e+01	-5.201586e+01
5.400000e-07	-4.949696e-06	-7.593660e-10	-3.435170e+01	-5.193612e+01
5.500000e-07	-4.928335e-06	-7.995618e-10	-3.420345e+01	-5.185363e+01
5.600000e-07	-4.906620e-06	-7.699993e-10	-3.405275e+01	-5.176825e+01
5.700000e-07	-4.884651e-06	-7.420489e-10	-3.390028e+01	-5.167983e+01
5.800000e-07	-4.862382e-06	-7.885148e-10	-3.374573e+01	-5.158826e+01
5.900000e-07	-4.839689e-06	-7.736213e-10	-3.358824e+01	-5.149343e+01
6.000000e-07	-4.816635e-06	-7.306922e-10	-3.342824e+01	-5.139525e+01
6.100000e-07	-4.793347e-06	-7.525572e-10	-3.326661e+01	-5.129364e+01
6.200000e-07	-4.769805e-06	-7.733378e-10	-3.310323e+01	-5.118854e+01
6.300000e-07	-4.746030e-06	-7.338708e-10	-3.293823e+01	-5.107992e+01
6.400000e-07	-4.722029e-06	-7.439895e-10	-3.277165e+01	-5.096776e+01
6.500000e-07	-4.697688e-06	-7.688612e-10	-3.260273e+01	-5.085204e+01
6.600000e-07	-4.672902e-06	-7.446897e-10	-3.243071e+01	-5.073280e+01
6.700000e-07	-4.647594e-06	-7.254755e-10	-3.225507e+01	-5.061008e+01
6.800000e-07	-4.621708e-06	-7.474730e-10	-3.207541e+01	-5.048392e+01
6.900000e-07	-4.595277e-06	-7.356457e-10	-3.189197e+01	-5.035442e+01
7.000000e-07	-4.568372e-06	-7.217293e-10	-3.170525e+01	-5.022167e+01
7.100000e-07	-4.541114e-06	-7.408014e-10	-3.151607e+01	-5.008579e+01
7.200000e-07	-4.513589e-06	-7.479136e-10	-3.132505e+01	-4.994690e+01
7.300000e-07	-4.485879e-06	-7.275406e-10	-3.113273e+01	-4.980516e+01
7.400000e-07	-4.458027e-06	-7.304015e-10	-3.093944e+01	-4.966072e+01
7.500000e-07	-4.429986e-06	-7.377605e-10	-3.074483e+01	-4.951376e+01
7.600000e-07	-4.401686e-06	-7.226022e-10	-3.054842e+01	-4.936446e+01
7.700000e-07	-4.373064e-06	-7.170946e-10	-3.034978e+01	-4.921302e+01
7.800000e-07	-4.344070e-06	-7.281795e-10	-3.014856e+01	-4.905961e+01
7.900000e-07	-4.314698e-06	-7.247061e-10	-2.994471e+01	-4.890445e+01
8.000000e-07	-4.285084e-06	-7.175180e-10	-2.973919e+01	-4.874773e+01
8.100000e-07	-4.255272e-06	-7.271677e-10	-2.953229e+01	-4.858965e+01
8.200000e-07	-4.225162e-06	-7.262598e-10	-2.932332e+01	-4.843041e+01
8.300000e-07	-4.194743e-06	-7.180543e-10	-2.911220e+01	-4.827018e+01
8.400000e-07	-4.164036e-06	-7.189399e-10	-2.889910e+01	-4.810915e+01
8.500000e-07	-4.132934e-06	-7.217050e-10	-2.868324e+01	-4.794747e+01
8.600000e-07	-4.101505e-06	-7.098951e-10	-2.846512e+01	-4.778530e+01
8.700000e-07	-4.069952e-06	-7.073166e-10	-2.824613e+01	-4.762278e+01
8.800000e-07	-4.038294e-06	-7.059061e-10	-2.802642e+01	-4.746002e+01
8.900000e-07	-4.006446e-06	-6.980823e-10	-2.780539e+01	-4.729711e+01
9.000000e-07	-3.974373e-06	-6.920926e-10	-2.758280e+01	-4.713413e+01
9.100000e-07	-3.942037e-06	-6.967812e-10	-2.735838e+01	-4.697113e+01
9.200000e-07	-3.909280e-06	-6.902736e-10	-2.713104e+01	-4.680813e+01
9.300000e-07	-3.876165e-06	-6.854847e-10	-2.690122e+01	-4.664514e+01
9.400000e-07	-3.842673e-06	-6.883885e-10	-2.666878e+01	-4.648213e+01
9.500000e-07	-3.808713e-06	-6.888557e-10	-2.643309e+01	-4.631905e+01
9.600000e-07	-3.774291e-06	-6.793229e-10	-2.619420e+01	-4.615581e+01
9.700000e-07	-3.739433e-06	-6.793194e-10	-2.595228e+01	-4.599232e+01
9.800000e-07	-3.704246e-06	-6.787213e-10	-2.570808e+01	-4.582844e+01
9.900000e-07	-3.668813e-06	-6.703563e-10	-2.546217e+01	-4.566402e+01
1.000000e-06	-3.633216e-06	-6.665926e-10	-2.521511e+01	-4.549887e+01
1.010000e-06	-3.597490e-06	-6.701286e-10	-2.496717e+01	-4.533278e+01
1.020000e-06	-3.561621e-06	-6.657091e-10	-2.471824e+01	-4.516555e+01
1.030000e-06	-3.525576e-06	-6.613965e-10	-2.446808e+01	-4.499692e+01
1.040000e-06	-3.489321e-06	-6.622672e-10	-2.421646e+01	-4.482662e+01
1.050000e-06	-3.452809e-06	-6.570206e-10	-2.396306e+01	-4.465439e+01
1.060000e-06	-3.416001e-06	-6.462546e-10	-2.370761e+01	-4.447993e+01
1.070000e-06	-3.378906e-06	-6.416327e-10	-2.345017e+01	-4.430295e+01
1.080000e-06	-3.341491e-06	-6.401468e-10	-2.319050e+01	-4.412313e+01
1.090000e-06	-3.303768e-06	-6.355642e-10	-2.292869e+01	-4.394018e+01
1.100000e-06	-3.265857e-06	-6.358574e-10	-2.266558e+01	-4.375376e+01
1.110000e-06	-3.227745e-06	-6.362672e-10	-2.240108e+01	-4.356358e+01
1.120000e-06	-3.189497e-06	-6.310884e-10	-2.213563e+01	-4.336932e+01
1.130000e-06	-3.151128e-06	-6.260546e-10	-2.186935e+01	-4.317069e+01
1.140000e-06	-3.112485e-06	-6.266781e-10	-2.160116e+01	-4.296738e+01
1.150000e-06	-3.073522e-06	-6.214077e-10	-2.133075e+01	-4.275913e+01
1.160000e-06	-3.034325e-06	-6.142404e-10	-2.105871e+01	-4.254566e+01
1.170000e-06	-2.994985e-06	-6.116902e-10	-2.078569e+01	-4.232673e+01
1.180000e-06	-2.955517e-06	-6.099839e-10	-2.051177e+01	-4.210210e+01
1.190000e-06	-2.915949e-06	-6.031139e-10	-2.023717e+01	-4.187158e+01
1.200000e-06	-2.876309e-06	-6.018096e-10	-1.996206e+01	-4.163495e+01
1.210000e-06	-2.836546e-06	-6.033609e-10	-1.968610e+01	-4.139207e+01
1.220000e-06	-2.796601e-06	-6.018644e-10	-1.940887e+01	-4.114279e+01
1.230000e-06	-2.756572e-06	-5.957319e-10	-1.913106e+01	-4.088700e+01
1.240000e-06	-2.716422e-06	-5.922888e-10	-1.885242e+01	-4.062458e+01
1.250000e-06	-2.675939e-06	-5.870580e-10	-1.857146e+01	-4.035549e+01
1.260000e-06	-2.635111e-06	-5.827542e-10	-1.828810e+01	-4.007967e+01
1.270000e-06	-2.594019e-06	-5.817977e-10	-1.800292e+01	-3.979711e+01
1.280000e-06	-2.552610e-06	-5.806009e-10	-1.771553e+01	-3.950779e+01
1.290000e-06	-2.510924e-06	-5.756854e-10	-1.742623e+01	-3.921173e+01
1.300000e-06	-2.469005e-06	-5.700611e-10	-1.713530e+01	-3.890898e+01
1.310000e-06	-2.426727e-06	-5.645744e-10	-1.684188e+01	-3.859959e+01
1.320000e-06	-2.384143e-06	-5.585734e-10	-1.654634e+01	-3.828362e+01
1.330000e-06	-2.341356e-06	-5.548758e-10	-1.624939e+01	-3.796114e+01
1.340000e-06	-2.298343e-06	-5.564027e-10	-1.595088e+01	-3.763225e+01
1.350000e-06	-2.255131e-06	-5.564935e-10	-1.565098e+01	-3.729703e+01
1.360000e-06	-2.211734e-06	-5.515765e-10	-1.534980e+01	-3.695556e+01
1.370000e-06	-2.168192e-06	-5.456085e-10	-1.504761e+01	-3.660794e+01
1.380000e-06	-2.124550e-06	-5.381815e-10	-1.474472e+01	-3.625425e+01
1.390000e-06	-2.080821e-06	-5.304132e-10	-1.444124e+01	-3.589456e+01
1.400000e-06	-2.036974e-06	-5.243754e-10	-1.413693e+01	-3.552894e+01
1.410000e-06	-1.993030e-06	-5.213483e-10	-1.383196e+01	-3.515741e+01
1.420000e-06	-1.949090e-06	-5.182473e-10	-1.352701e+01	-3.478002e+01
1.430000e-06	-1.905098e-06	-5.140519e-10	-1.322169e+01	-3.439675e+01
1.440000e-06	-1.860973e-06	-5.079592e-10	-1.291546e+01	-3.400759e+01
1.450000e-06	-1.816755e-06	-5.004548e-10	-1.260858e+01	-3.361248e+01
1.460000e-06	-1.772447e-06	-4.893205e-10	-1.230107e+01	-3.321133e+01
1.470000e-06	-1.727998e-06	-4.768438e-10	-1.199259e+01	-3.280404e+01
1.480000e-06	-1.683372e-06	-4.653174e-10	-1.168288e+01	-3.239044e+01
1.490000e-06	-1.638622e-06	-4.567771e-10	-1.137230e+01	-3.197036e+01
1.500000e-06	-1.593696e-06	-4.512810e-10	-1.106051e+01	-3.154355e+01
1.510000e-06	-1.548586e-06	-4.483556e-10	-1.074744e+01	-3.110976e+01
1.520000e-06	-1.503415e-06	-4.419647e-10	-1.043395e+01	-3.066869e+01
1.530000e-06	-1.458175e-06	-4.311648e-10	-1.011997e+01	-3.021999e+01
1.540000e-06	-1.412791e-06	-4.178845e-10	-9.805003e+00	-2.976328e+01
1.550000e-06	-1.367341e-06	-4.052137e-10	-9.489570e+00	-2.929816e+01
1.560000e-06	-1.321888e-06	-3.932339e-10	-9.174119e+00	-2.882416e+01
1.570000e-06	-1.276248e-06	-3.841271e-10	-8.857371e+00	-2.834082e+01
1.580000e-06	-1.230485e-06	-3.777137e-10	-8.539767e+00	-2.784762e+01
1.590000e-06	-1.184714e-06	-3.701637e-10	-8.222111e+00	-2.734403e+01
1.600000e-06	-1.138838e-06	-3.617909e-10	-7.903722e+00	-2.682949e+01
1.610000e-06	-1.092848e-06	-3.545498e-10	-7.584542e+00	-2.630343e+01
1.620000e-06	-1.046746e-06	-3.442676e-10	-7.264590e+00	-2.576525e+01
1.630000e-06	-1.000605e-06	-3.332570e-10	-6.944360e+00	-2.521436e+01
1.640000e-06	-9.544402e-07	-3.232418e-10	-6.623972e+00	-2.465016e+01
1.650000e-06	-9.082063e-07	-3.106739e-10	-6.303100e+00	-2.407205e+01
1.660000e-06	-8.619154e-07	-2.996983e-10	-5.981835e+00	-2.347944e+01
1.670000e-06	-8.155410e-07	-2.916502e-10	-5.659989e+00	-2.287175e+01
1.680000e-06	-7.689989e-07	-2.834414e-10	-5.336979e+00	-2.224842e+01
1.690000e-06	-7.223167e-07	-2.730637e-10	-5.012996e+00	-2.160891e+01
1.700000e-06	-6.757063e-07	-2.636534e-10	-4.689513e+00	-2.095273e+01
1.710000e-06	-6.291478e-07	-2.524878e-10	-4.366389e+00	-2.027941e+01
1.720000e-06	-5.825769e-07	-2.385200e-10	-4.043179e+00	-1.958853e+01
1.730000e-06	-5.359962e-07	-2.259921e-10	-3.719902e+00	-1.887970e+01
1.740000e-06	-4.893298e-07	-2.147642e-10	-3.396029e+00	-1.815263e+01
1.750000e-06	-4.426197e-07	-2.040942e-10	-3.071854e+00	-1.740703e+01
1.760000e-06	-3.958365e-07	-1.950407e-10	-2.747171e+00	-1.664272e+01
1.770000e-06	-3.489765e-07	-1.842116e-10	-2.421954e+00	-1.585957e+01
1.780000e-06	-3.021870e-07	-1.725178e-10	-2.097228e+00	-1.505752e+01
1.790000e-06	-2.553628e-07	-1.607730e-10	-1.772260e+00	-1.423660e+01
1.800000e-06	-2.084011e-07	-1.474640e-10	-1.446338e+00	-1.339691e+01
1.810000e-06	-1.614578e-07	-1.330520e-10	-1.120544e+00	-1.253863e+01
1.820000e-06	-1.145893e-07	-1.198980e-10	-7.952685e-01	-1.166203e+01
1.830000e-06	-6.773602e-08	-1.088494e-10	-4.700991e-01	-1.076745e+01
1.840000e-06	-2.084003e-08	-9.781676e-11	-1.446333e-01	-9.855335e+00
1.850000e-06	2.604051e-08	-8.758282e-11	1.807254e-01	-8.926208e+00
1.860000e-06	7.285528e-08	-7.954479e-11	5.056276e-01	-7.980674e+00
1.870000e-06	1.196112e-07	-6.738593e-11	8.301211e-01	-7.019425e+00
1.880000e-06	1.664549e-07	-5.180358e-11	1.155224e+00	-6.043232e+00
1.890000e-06	2.133112e-07	-3.490188e-11	1.480415e+00	-5.052947e+00
1.900000e-06	2.600583e-07	-1.793980e-11	1.804847e+00	-4.049497e+00
1.910000e-06	3.068513e-07	-3.015167e-12	2.129598e+00	-3.033881e+00
1.920000e-06	3.536403e-07	9.255691e-12	2.454322e+00	-2.007166e+00
1.930000e-06	4.004516e-07	1.895474e-11	2.779200e+00	-9.704802e-01
1.940000e-06	4.472961e-07	2.855574e-11	3.104308e+00	7.498968e-02
1.950000e-06	4.940222e-07	3.759875e-11	3.428595e+00	1.128007e+00
1.960000e-06	5.406481e-07	4.965195e-11	3.752186e+00	2.187290e+00
1.970000e-06	5.872647e-07	6.576187e-11	4.075713e+00	3.251518e+00
1.980000e-06	6.338868e-07	8.376768e-11	4.399278e+00	4.319342e+00
1.990000e-06	6.804828e-07	1.008964e-10	4.722662e+00	5.389387e+00
2.000000e-06	7.270029e-07	1.159550e-10	5.045519e+00	6.460264e+00
2.010000e-06	7.734017e-07	1.289938e-10	5.367535e+00	7.530572e+00
2.020000e-06	8.197757e-07	1.419312e-10	5.689378e+00	8.598913e+00
2.030000e-06	8.660587e-07	1.556485e-10	6.010589e+00	9.663893e+00
2.040000e-06	9.122536e-07	1.710519e-10	6.331190e+00	1.072414e+01
2.050000e-06	9.584751e-07	1.864820e-10	6.651975e+00	1.177829e+01
2.060000e-06	1.004675e-06	2.015754e-10	6.972612e+00	1.282501e+01
2.070000e-06	1.050796e-06	2.167934e-10	7.292700e+00	1.386303e+01
2.080000e-06	1.096810e-06	2.331520e-10	7.612045e+00	1.489109e+01
2.090000e-06	1.142717e-06	2.493193e-10	7.930646e+00	1.590799e+01
2.100000e-06	1.188496e-06	2.650810e-10	8.248357e+00	1.691260e+01
2.110000e-06	1.234230e-06	2.799962e-10	8.565761e+00	1.790383e+01
2.120000e-06	1.279906e-06	2.927719e-10	8.882759e+00	1.888067e+01
2.130000e-06	1.325409e-06	3.042046e-10	9.198559e+00	1.984217e+01
2.140000e-06	1.370890e-06	3.146390e-10	9.514201e+00	2.078746e+01
2.150000e-06	1.416352e-06	3.258861e-10	9.829719e+00	2.171576e+01
2.160000e-06	1.461675e-06	3.389660e-10	1.014426e+01	2.262636e+01
2.170000e-06	1.506922e-06	3.542613e-10	1.045828e+01	2.351862e+01
2.180000e-06	1.551979e-06	3.696734e-10	1.077099e+01	2.439200e+01
2.190000e-06	1.596903e-06	3.833607e-10	1.108277e+01	2.524605e+01
2.200000e-06	1.641815e-06	3.959935e-10	1.139447e+01	2.608039e+01
2.210000e-06	1.686566e-06	4.062861e-10	1.170504e+01	2.689473e+01
2.220000e-06	1.731064e-06	4.140007e-10	1.201387e+01	2.768887e+01
2.230000e-06	1.775413e-06	4.218833e-10	1.232166e+01	2.846269e+01
2.240000e-06	1.819711e-06	4.289975e-10	1.262910e+01	2.921614e+01
2.250000e-06	1.863905e-06	4.363552e-10	1.293581e+01	2.994925e+01
2.260000e-06	1.907987e-06	4.457263e-10	1.324174e+01	3.066214e+01
2.270000e-06	1.952004e-06	4.558262e-10	1.354723e+01	3.135497e+01
2.280000e-06	1.995902e-06	4.647109e-10	1.385189e+01	3.202800e+01
2.290000e-06	2.039705e-06	4.737882e-10	1.415589e+01	3.268153e+01
2.300000e-06	2.083507e-06	4.824138e-10	1.445988e+01	3.331590e+01
2.310000e-06	2.127258e-06	4.897506e-10	1.476352e+01	3.393154e+01
2.320000e-06	2.170922e-06	4.959522e-10	1.506655e+01	3.452890e+01
2.330000e-06	2.214477e-06	5.014438e-10	1.536883e+01	3.510848e+01
2.340000e-06	2.257801e-06	5.072069e-10	1.566951e+01	3.567079e+01
2.350000e-06	2.300945e-06	5.148253e-10	1.596894e+01	3.621640e+01
2.360000e-06	2.343947e-06	5.253122e-10	1.626738e+01	3.674589e+01
2.370000e-06	2.386748e-06	5.347364e-10	1.656443e+01	3.725985e+01
2.380000e-06	2.429249e-06	5.429771e-10	1.685938e+01	3.775889e+01
2.390000e-06	2.471335e-06	5.519951e-10	1.715147e+01	3.824363e+01
2.400000e-06	2.513157e-06	5.583817e-10	1.744172e+01	3.871466e+01
2.410000e-06	2.554777e-06	5.627555e-10	1.773057e+01	3.917260e+01
2.420000e-06	2.596100e-06	5.676470e-10	1.801736e+01	3.961806e+01
2.430000e-06	2.637133e-06	5.745778e-10	1.830214e+01	4.005160e+01
2.440000e-06	2.677904e-06	5.817091e-10	1.858509e+01	4.047380e+01
2.450000e-06	2.718412e-06	5.909032e-10	1.886623e+01	4.088520e+01
2.460000e-06	2.758720e-06	6.006603e-10	1.914597e+01	4.128632e+01
2.470000e-06	2.798845e-06	6.064336e-10	1.942445e+01	4.167765e+01
2.480000e-06	2.838825e-06	6.087947e-10	1.970191e+01	4.205965e+01
2.490000e-06	2.878710e-06	6.102133e-10	1.997872e+01	4.243274e+01
2.500000e-06	2.918405e-06	6.134924e-10	2.025421e+01	4.279733e+01
2.510000e-06	2.957896e-06	6.212942e-10	2.052828e+01	4.315376e+01
2.520000e-06	2.997224e-06	6.307663e-10	2.080123e+01	4.350236e+01
2.530000e-06	3.036341e-06	6.390314e-10	2.107270e+01	4.384342e+01
2.540000e-06	3.075250e-06	6.448807e-10	2.134274e+01	4.417719e+01
2.550000e-06	3.113925e-06	6.467627e-10	2.161115e+01	4.450389e+01
2.560000e-06	3.152378e-06	6.458815e-10	2.187802e+01	4.482370e+01
2.570000e-06	3.190739e-06	6.463955e-10	2.214425e+01	4.513677e+01
2.580000e-06	3.228957e-06	6.504439e-10	2.240949e+01	4.544322e+01
2.590000e-06	3.266920e-06	6.537907e-10	2.267296e+01	4.574315e+01
2.600000e-06	3.304615e-06	6.577459e-10	2.293457e+01	4.603661e+01
2.610000e-06	3.342087e-06	6.657911e-10	2.319463e+01	4.632365e+01
2.620000e-06	3.379337e-06	6.750242e-10	2.345315e+01	4.660429e+01
2.630000e-06	3.416305e-06	6.798544e-10	2.370972e+01	4.687853e+01
2.640000e-06	3.453000e-06	6.798796e-10	2.396438e+01	4.714636e+01
2.650000e-06	3.489431e-06	6.770579e-10	2.421722e+01	4.740775e+01
2.660000e-06	3.525634e-06	6.755409e-10	2.446848e+01	4.766268e+01
2.670000e-06	3.561697e-06	6.771415e-10	2.471876e+01	4.791109e+01
2.680000e-06	3.597564e-06	6.815053e-10	2.496768e+01	4.815295e+01
2.690000e-06	3.633274e-06	6.875759e-10	2.521552e+01	4.838821e+01
2.700000e-06	3.668871e-06	6.962708e-10	2.546257e+01	4.861684e+01
2.710000e-06	3.704297e-06	7.056735e-10	2.570843e+01	4.883878e+01
2.720000e-06	3.739464e-06	7.117195e-10	2.595249e+01	4.905403e+01
2.730000e-06	3.774335e-06	7.131636e-10	2.619450e+01	4.926256e+01
2.740000e-06	3.808904e-06	7.119117e-10	2.643442e+01	4.946437e+01
2.750000e-06	3.843012e-06	7.089706e-10	2.667113e+01	4.965946e+01
2.760000e-06	3.876584e-06	7.079445e-10	2.690413e+01	4.984786e+01
2.770000e-06	3.909697e-06	7.116592e-10	2.713394e+01	5.002961e+01
2.780000e-06	3.942408e-06	7.194531e-10	2.736096e+01	5.020477e+01
2.790000e-06	3.974754e-06	7.279130e-10	2.758545e+01	5.037341e+01
2.800000e-06	4.006839e-06	7.343421e-10	2.780812e+01	5.053564e+01
2.810000e-06	4.038741e-06	7.385862e-10	2.802952e+01	5.069157e+01
2.820000e-06	4.070486e-06	7.402980e-10	2.824984e+01	5.084133e+01
2.830000e-06	4.102094e-06	7.393463e-10	2.846921e+01	5.098507e+01
2.840000e-06	4.133493e-06	7.365532e-10	2.868712e+01	5.112296e+01
2.850000e-06	4.164546e-06	7.367915e-10	2.890264e+01	5.125520e+01
2.860000e-06	4.195275e-06	7.424292e-10	2.911590e+01	5.138198e+01
2.870000e-06	4.225738e-06	7.494829e-10	2.932731e+01	5.150351e+01
2.880000e-06	4.255906e-06	7.547637e-10	2.953668e+01	5.162004e+01
2.890000e-06	4.285760e-06	7.580977e-10	2.974388e+01	5.173179e+01
2.900000e-06	4.315373e-06	7.595227e-10	2.994940e+01	5.183902e+01
