# Temperatura_=_5.32
# Concentracion g/m^3_=_1620.0
# C_Vs_to_Am_M_A/Vsm_=_65563218390.804596
# pendiente_HvsI_1/m_=_3716.3
# ordenada_HvsI_A/m_=_1297.0
# frecuencia_Hz_=_135105.25148680885

Tiempo_(s)	Campo_(V.s)	Magnetizacion_(V.s)	Campo_(kA/m)	Magnetizacion_(A/m)
0.000000e+00	-5.525367e-06	-7.823045e-10	-3.837670e+01	-5.194248e+01
1.000000e-08	-5.525433e-06	-7.822402e-10	-3.837715e+01	-5.194005e+01
2.000000e-08	-5.525299e-06	-7.844504e-10	-3.837623e+01	-5.193791e+01
3.000000e-08	-5.524806e-06	-7.846903e-10	-3.837280e+01	-5.193592e+01
4.000000e-08	-5.523757e-06	-7.828240e-10	-3.836552e+01	-5.193394e+01
5.000000e-08	-5.522141e-06	-7.781203e-10	-3.835429e+01	-5.193182e+01
6.000000e-08	-5.519943e-06	-7.631199e-10	-3.833902e+01	-5.192937e+01
7.000000e-08	-5.517080e-06	-7.466104e-10	-3.831914e+01	-5.192643e+01
8.000000e-08	-5.513701e-06	-7.686170e-10	-3.829567e+01	-5.192281e+01
9.000000e-08	-5.509987e-06	-8.299841e-10	-3.826987e+01	-5.191834e+01
1.000000e-07	-5.505900e-06	-8.302717e-10	-3.824149e+01	-5.191283e+01
1.100000e-07	-5.501484e-06	-7.571849e-10	-3.821082e+01	-5.190610e+01
1.200000e-07	-5.496883e-06	-7.113054e-10	-3.817886e+01	-5.189795e+01
1.300000e-07	-5.491984e-06	-7.538542e-10	-3.814483e+01	-5.188822e+01
1.400000e-07	-5.486677e-06	-7.909482e-10	-3.810797e+01	-5.187674e+01
1.500000e-07	-5.480980e-06	-7.476607e-10	-3.806841e+01	-5.186334e+01
1.600000e-07	-5.474955e-06	-7.365854e-10	-3.802656e+01	-5.184788e+01
1.700000e-07	-5.468508e-06	-7.988008e-10	-3.798178e+01	-5.183020e+01
1.800000e-07	-5.461618e-06	-8.260584e-10	-3.793393e+01	-5.181020e+01
1.900000e-07	-5.454380e-06	-7.737569e-10	-3.788365e+01	-5.178774e+01
2.000000e-07	-5.446808e-06	-7.285658e-10	-3.783106e+01	-5.176273e+01
2.100000e-07	-5.438980e-06	-7.729378e-10	-3.777669e+01	-5.173509e+01
2.200000e-07	-5.430847e-06	-8.071425e-10	-3.772020e+01	-5.170475e+01
2.300000e-07	-5.422429e-06	-7.993657e-10	-3.766174e+01	-5.167167e+01
2.400000e-07	-5.413622e-06	-7.775088e-10	-3.760057e+01	-5.163579e+01
2.500000e-07	-5.404118e-06	-8.000902e-10	-3.753456e+01	-5.159712e+01
2.600000e-07	-5.393898e-06	-8.113444e-10	-3.746357e+01	-5.155563e+01
2.700000e-07	-5.383052e-06	-7.985818e-10	-3.738824e+01	-5.151135e+01
2.800000e-07	-5.371702e-06	-7.928313e-10	-3.730941e+01	-5.146430e+01
2.900000e-07	-5.360024e-06	-8.084031e-10	-3.722830e+01	-5.141453e+01
3.000000e-07	-5.347984e-06	-8.134838e-10	-3.714468e+01	-5.136208e+01
3.100000e-07	-5.335509e-06	-7.960542e-10	-3.705803e+01	-5.130701e+01
3.200000e-07	-5.322581e-06	-7.906419e-10	-3.696824e+01	-5.124940e+01
3.300000e-07	-5.309250e-06	-7.996109e-10	-3.687565e+01	-5.118933e+01
3.400000e-07	-5.295620e-06	-7.994493e-10	-3.678098e+01	-5.112689e+01
3.500000e-07	-5.281634e-06	-7.710137e-10	-3.668384e+01	-5.106217e+01
3.600000e-07	-5.267161e-06	-7.794938e-10	-3.658332e+01	-5.099527e+01
3.700000e-07	-5.252181e-06	-8.036115e-10	-3.647927e+01	-5.092627e+01
3.800000e-07	-5.236619e-06	-7.948983e-10	-3.637118e+01	-5.085528e+01
3.900000e-07	-5.220504e-06	-7.674793e-10	-3.625926e+01	-5.078239e+01
4.000000e-07	-5.204089e-06	-7.925854e-10	-3.614524e+01	-5.070769e+01
4.100000e-07	-5.187348e-06	-8.058969e-10	-3.602897e+01	-5.063126e+01
4.200000e-07	-5.170186e-06	-7.739023e-10	-3.590977e+01	-5.055319e+01
4.300000e-07	-5.152665e-06	-7.711899e-10	-3.578808e+01	-5.047355e+01
4.400000e-07	-5.134900e-06	-8.130310e-10	-3.566469e+01	-5.039240e+01
4.500000e-07	-5.116793e-06	-7.947743e-10	-3.553893e+01	-5.030979e+01
4.600000e-07	-5.098221e-06	-7.632726e-10	-3.540993e+01	-5.022577e+01
4.700000e-07	-5.079258e-06	-7.814297e-10	-3.527822e+01	-5.014037e+01
4.800000e-07	-5.059932e-06	-7.941945e-10	-3.514399e+01	-5.005360e+01
4.900000e-07	-5.040301e-06	-7.671192e-10	-3.500765e+01	-4.996548e+01
5.000000e-07	-5.020437e-06	-7.754807e-10	-3.486968e+01	-4.987601e+01
5.100000e-07	-5.000359e-06	-7.874363e-10	-3.473023e+01	-4.978516e+01
5.200000e-07	-4.979983e-06	-7.645496e-10	-3.458871e+01	-4.969293e+01
5.300000e-07	-4.959209e-06	-7.638248e-10	-3.444442e+01	-4.959926e+01
5.400000e-07	-4.938080e-06	-7.869914e-10	-3.429767e+01	-4.950413e+01
5.500000e-07	-4.916625e-06	-7.641662e-10	-3.414865e+01	-4.940747e+01
5.600000e-07	-4.894821e-06	-7.408511e-10	-3.399721e+01	-4.930922e+01
5.700000e-07	-4.872748e-06	-7.595927e-10	-3.384390e+01	-4.920933e+01
5.800000e-07	-4.850337e-06	-7.613054e-10	-3.368824e+01	-4.910772e+01
5.900000e-07	-4.827525e-06	-7.419416e-10	-3.352980e+01	-4.900431e+01
6.000000e-07	-4.804410e-06	-7.500261e-10	-3.336926e+01	-4.889904e+01
6.100000e-07	-4.781006e-06	-7.560198e-10	-3.320670e+01	-4.879183e+01
6.200000e-07	-4.757327e-06	-7.348142e-10	-3.304224e+01	-4.868261e+01
6.300000e-07	-4.733415e-06	-7.307065e-10	-3.287616e+01	-4.857130e+01
6.400000e-07	-4.709345e-06	-7.383799e-10	-3.270898e+01	-4.845785e+01
6.500000e-07	-4.684976e-06	-7.330987e-10	-3.253972e+01	-4.834219e+01
6.600000e-07	-4.659980e-06	-7.300469e-10	-3.236611e+01	-4.822428e+01
6.700000e-07	-4.634420e-06	-7.409943e-10	-3.218858e+01	-4.810407e+01
6.800000e-07	-4.608322e-06	-7.361815e-10	-3.200732e+01	-4.798153e+01
6.900000e-07	-4.581656e-06	-7.303993e-10	-3.182211e+01	-4.785664e+01
7.000000e-07	-4.554561e-06	-7.287609e-10	-3.163392e+01	-4.772941e+01
7.100000e-07	-4.527157e-06	-7.242344e-10	-3.144358e+01	-4.759983e+01
7.200000e-07	-4.499552e-06	-7.171822e-10	-3.125185e+01	-4.746792e+01
7.300000e-07	-4.471721e-06	-7.201284e-10	-3.105855e+01	-4.733373e+01
7.400000e-07	-4.443703e-06	-7.213979e-10	-3.086395e+01	-4.719729e+01
7.500000e-07	-4.415487e-06	-7.201915e-10	-3.066797e+01	-4.705867e+01
7.600000e-07	-4.387049e-06	-7.185356e-10	-3.047046e+01	-4.691794e+01
7.700000e-07	-4.358307e-06	-7.180349e-10	-3.027083e+01	-4.677520e+01
7.800000e-07	-4.329176e-06	-7.123420e-10	-3.006850e+01	-4.663054e+01
7.900000e-07	-4.299732e-06	-7.101931e-10	-2.986399e+01	-4.648408e+01
8.000000e-07	-4.270046e-06	-7.082624e-10	-2.965780e+01	-4.633593e+01
8.100000e-07	-4.240076e-06	-7.048245e-10	-2.944965e+01	-4.618622e+01
8.200000e-07	-4.209770e-06	-7.037985e-10	-2.923915e+01	-4.603510e+01
8.300000e-07	-4.179131e-06	-7.079557e-10	-2.902635e+01	-4.588269e+01
8.400000e-07	-4.148186e-06	-7.069700e-10	-2.881142e+01	-4.572914e+01
8.500000e-07	-4.116999e-06	-7.036344e-10	-2.859481e+01	-4.557460e+01
8.600000e-07	-4.085574e-06	-7.026774e-10	-2.837655e+01	-4.541920e+01
8.700000e-07	-4.053985e-06	-6.975656e-10	-2.815714e+01	-4.526309e+01
8.800000e-07	-4.022302e-06	-6.915189e-10	-2.793709e+01	-4.510638e+01
8.900000e-07	-3.990403e-06	-6.885588e-10	-2.771553e+01	-4.494922e+01
9.000000e-07	-3.958177e-06	-6.866213e-10	-2.749171e+01	-4.479170e+01
9.100000e-07	-3.925639e-06	-6.805844e-10	-2.726571e+01	-4.463393e+01
9.200000e-07	-3.892801e-06	-6.787532e-10	-2.703763e+01	-4.447599e+01
9.300000e-07	-3.859595e-06	-6.794645e-10	-2.680700e+01	-4.431794e+01
9.400000e-07	-3.825935e-06	-6.765801e-10	-2.657321e+01	-4.415984e+01
9.500000e-07	-3.791787e-06	-6.724471e-10	-2.633604e+01	-4.400171e+01
9.600000e-07	-3.757240e-06	-6.711126e-10	-2.609608e+01	-4.384356e+01
9.700000e-07	-3.722363e-06	-6.660862e-10	-2.585385e+01	-4.368537e+01
9.800000e-07	-3.687112e-06	-6.614314e-10	-2.560901e+01	-4.352709e+01
9.900000e-07	-3.651562e-06	-6.586137e-10	-2.536209e+01	-4.336866e+01
1.000000e-06	-3.615873e-06	-6.563042e-10	-2.511422e+01	-4.320999e+01
1.010000e-06	-3.580039e-06	-6.523142e-10	-2.486533e+01	-4.305095e+01
1.020000e-06	-3.544088e-06	-6.518372e-10	-2.461563e+01	-4.289140e+01
1.030000e-06	-3.508000e-06	-6.497001e-10	-2.436498e+01	-4.273117e+01
1.040000e-06	-3.471674e-06	-6.448308e-10	-2.411268e+01	-4.257007e+01
1.050000e-06	-3.435032e-06	-6.377904e-10	-2.385818e+01	-4.240788e+01
1.060000e-06	-3.398127e-06	-6.308410e-10	-2.360185e+01	-4.224437e+01
1.070000e-06	-3.361044e-06	-6.239397e-10	-2.334429e+01	-4.207926e+01
1.080000e-06	-3.323664e-06	-6.206104e-10	-2.308467e+01	-4.191228e+01
1.090000e-06	-3.285985e-06	-6.197411e-10	-2.282296e+01	-4.174313e+01
1.100000e-06	-3.248120e-06	-6.172424e-10	-2.255997e+01	-4.157151e+01
1.110000e-06	-3.210023e-06	-6.115269e-10	-2.229537e+01	-4.139709e+01
1.120000e-06	-3.171656e-06	-6.061245e-10	-2.202889e+01	-4.121955e+01
1.130000e-06	-3.133134e-06	-6.015197e-10	-2.176133e+01	-4.103854e+01
1.140000e-06	-3.094468e-06	-5.967969e-10	-2.149278e+01	-4.085372e+01
1.150000e-06	-3.055611e-06	-5.914711e-10	-2.122289e+01	-4.066476e+01
1.160000e-06	-3.016471e-06	-5.860122e-10	-2.095104e+01	-4.047131e+01
1.170000e-06	-2.977064e-06	-5.821996e-10	-2.067734e+01	-4.027304e+01
1.180000e-06	-2.937511e-06	-5.787842e-10	-2.040262e+01	-4.006963e+01
1.190000e-06	-2.897840e-06	-5.750289e-10	-2.012708e+01	-3.986077e+01
1.200000e-06	-2.858039e-06	-5.706812e-10	-1.985065e+01	-3.964615e+01
1.210000e-06	-2.818134e-06	-5.675391e-10	-1.957348e+01	-3.942549e+01
1.220000e-06	-2.778075e-06	-5.641178e-10	-1.929525e+01	-3.919854e+01
1.230000e-06	-2.737822e-06	-5.595927e-10	-1.901567e+01	-3.896505e+01
1.240000e-06	-2.697461e-06	-5.544247e-10	-1.873534e+01	-3.872479e+01
1.250000e-06	-2.656979e-06	-5.500292e-10	-1.845418e+01	-3.847758e+01
1.260000e-06	-2.616269e-06	-5.471653e-10	-1.817142e+01	-3.822325e+01
1.270000e-06	-2.575274e-06	-5.463189e-10	-1.788668e+01	-3.796166e+01
1.280000e-06	-2.533893e-06	-5.431520e-10	-1.759927e+01	-3.769270e+01
1.290000e-06	-2.492136e-06	-5.382722e-10	-1.730925e+01	-3.741626e+01
1.300000e-06	-2.450259e-06	-5.326821e-10	-1.701839e+01	-3.713231e+01
1.310000e-06	-2.408203e-06	-5.289929e-10	-1.672629e+01	-3.684081e+01
1.320000e-06	-2.365741e-06	-5.239395e-10	-1.643137e+01	-3.654175e+01
1.330000e-06	-2.322965e-06	-5.207057e-10	-1.613426e+01	-3.623515e+01
1.340000e-06	-2.280048e-06	-5.176124e-10	-1.583618e+01	-3.592106e+01
1.350000e-06	-2.236890e-06	-5.125160e-10	-1.553642e+01	-3.559953e+01
1.360000e-06	-2.193469e-06	-5.067720e-10	-1.523484e+01	-3.527065e+01
1.370000e-06	-2.149945e-06	-5.024557e-10	-1.493255e+01	-3.493452e+01
1.380000e-06	-2.106317e-06	-4.988476e-10	-1.462952e+01	-3.459124e+01
1.390000e-06	-2.062553e-06	-4.950634e-10	-1.432556e+01	-3.424094e+01
1.400000e-06	-2.018680e-06	-4.910678e-10	-1.402084e+01	-3.388375e+01
1.410000e-06	-1.974778e-06	-4.873211e-10	-1.371591e+01	-3.351978e+01
1.420000e-06	-1.930841e-06	-4.821757e-10	-1.341075e+01	-3.314918e+01
1.430000e-06	-1.886851e-06	-4.759187e-10	-1.310522e+01	-3.277205e+01
1.440000e-06	-1.842742e-06	-4.688034e-10	-1.279885e+01	-3.238852e+01
1.450000e-06	-1.798429e-06	-4.603169e-10	-1.249107e+01	-3.199869e+01
1.460000e-06	-1.753936e-06	-4.528938e-10	-1.218204e+01	-3.160264e+01
1.470000e-06	-1.709310e-06	-4.481727e-10	-1.187209e+01	-3.120043e+01
1.480000e-06	-1.664588e-06	-4.437926e-10	-1.156148e+01	-3.079210e+01
1.490000e-06	-1.619775e-06	-4.384135e-10	-1.125022e+01	-3.037768e+01
1.500000e-06	-1.574878e-06	-4.344480e-10	-1.093839e+01	-2.995714e+01
1.510000e-06	-1.529851e-06	-4.269174e-10	-1.062565e+01	-2.953043e+01
1.520000e-06	-1.484664e-06	-4.167362e-10	-1.031181e+01	-2.909747e+01
1.530000e-06	-1.439360e-06	-4.041590e-10	-9.997140e+00	-2.865814e+01
1.540000e-06	-1.394008e-06	-3.940386e-10	-9.682148e+00	-2.821228e+01
1.550000e-06	-1.348576e-06	-3.875872e-10	-9.366600e+00	-2.775968e+01
1.560000e-06	-1.303028e-06	-3.829747e-10	-9.050242e+00	-2.730011e+01
1.570000e-06	-1.257411e-06	-3.770783e-10	-8.733405e+00	-2.683329e+01
1.580000e-06	-1.211795e-06	-3.703175e-10	-8.416582e+00	-2.635889e+01
1.590000e-06	-1.166092e-06	-3.601754e-10	-8.099150e+00	-2.587656e+01
1.600000e-06	-1.120234e-06	-3.480967e-10	-7.780636e+00	-2.538590e+01
1.610000e-06	-1.074253e-06	-3.389599e-10	-7.461274e+00	-2.488647e+01
1.620000e-06	-1.028191e-06	-3.313666e-10	-7.141346e+00	-2.437781e+01
1.630000e-06	-9.820679e-07	-3.232834e-10	-6.820999e+00	-2.385943e+01
1.640000e-06	-9.358442e-07	-3.138172e-10	-6.499950e+00	-2.333080e+01
1.650000e-06	-8.894894e-07	-3.047820e-10	-6.177990e+00	-2.279138e+01
1.660000e-06	-8.430841e-07	-2.961001e-10	-5.855681e+00	-2.224060e+01
1.670000e-06	-7.967969e-07	-2.883489e-10	-5.534190e+00	-2.167791e+01
1.680000e-06	-7.504611e-07	-2.823997e-10	-5.212363e+00	-2.110271e+01
1.690000e-06	-7.039211e-07	-2.779090e-10	-4.889117e+00	-2.051442e+01
1.700000e-06	-6.573494e-07	-2.714673e-10	-4.565651e+00	-1.991248e+01
1.710000e-06	-6.107558e-07	-2.615298e-10	-4.242033e+00	-1.929631e+01
1.720000e-06	-5.641106e-07	-2.488210e-10	-3.918057e+00	-1.866536e+01
1.730000e-06	-5.174248e-07	-2.363780e-10	-3.593798e+00	-1.801911e+01
1.740000e-06	-4.707394e-07	-2.266076e-10	-3.269543e+00	-1.735707e+01
1.750000e-06	-4.240073e-07	-2.193780e-10	-2.944963e+00	-1.667879e+01
1.760000e-06	-3.770956e-07	-2.101472e-10	-2.619135e+00	-1.598384e+01
1.770000e-06	-3.301516e-07	-2.006002e-10	-2.293083e+00	-1.527186e+01
1.780000e-06	-2.833129e-07	-1.927609e-10	-1.967763e+00	-1.454255e+01
1.790000e-06	-2.365026e-07	-1.831719e-10	-1.642640e+00	-1.379565e+01
1.800000e-06	-1.896051e-07	-1.696596e-10	-1.316911e+00	-1.303100e+01
1.810000e-06	-1.426818e-07	-1.537203e-10	-9.910029e-01	-1.224846e+01
1.820000e-06	-9.581555e-08	-1.391452e-10	-6.654914e-01	-1.144803e+01
1.830000e-06	-4.896779e-08	-1.279185e-10	-3.401081e-01	-1.062973e+01
1.840000e-06	-2.090877e-09	-1.181385e-10	-1.452229e-02	-9.793711e+00
1.850000e-06	4.486729e-08	-1.092852e-10	3.116279e-01	-8.940177e+00
1.860000e-06	9.191502e-08	-9.973176e-11	6.384001e-01	-8.069435e+00
1.870000e-06	1.389086e-07	-8.835600e-11	9.647961e-01	-7.181881e+00
1.880000e-06	1.858277e-07	-7.605428e-11	1.290675e+00	-6.278000e+00
1.890000e-06	2.327429e-07	-6.128986e-11	1.616526e+00	-5.358366e+00
1.900000e-06	2.795464e-07	-4.726101e-11	1.941603e+00	-4.423645e+00
1.910000e-06	3.263058e-07	-3.554773e-11	2.266372e+00	-3.474588e+00
1.920000e-06	3.731230e-07	-2.492239e-11	2.591544e+00	-2.512036e+00
1.930000e-06	4.199009e-07	-1.338341e-11	2.916442e+00	-1.536907e+00
1.940000e-06	4.666267e-07	-3.299186e-12	3.240977e+00	-5.502045e-01
1.950000e-06	5.133249e-07	6.660506e-12	3.565322e+00	4.469987e-01
1.960000e-06	5.599663e-07	1.944951e-11	3.889272e+00	1.453558e+00
1.970000e-06	6.065493e-07	3.429215e-11	4.212817e+00	2.468264e+00
1.980000e-06	6.530566e-07	5.047378e-11	4.535836e+00	3.489854e+00
1.990000e-06	6.995097e-07	6.618808e-11	4.858478e+00	4.517009e+00
2.000000e-06	7.459082e-07	7.989583e-11	5.180740e+00	5.548371e+00
2.010000e-06	7.922404e-07	9.220640e-11	5.502543e+00	6.582545e+00
2.020000e-06	8.385392e-07	1.038674e-10	5.824113e+00	7.618108e+00
2.030000e-06	8.848004e-07	1.171982e-10	6.145423e+00	8.653619e+00
2.040000e-06	9.310474e-07	1.312209e-10	6.466634e+00	9.687625e+00
2.050000e-06	9.772174e-07	1.441007e-10	6.787310e+00	1.071867e+01
2.060000e-06	1.023205e-06	1.570581e-10	7.106715e+00	1.174531e+01
2.070000e-06	1.069110e-06	1.714532e-10	7.425554e+00	1.276612e+01
2.080000e-06	1.114988e-06	1.863305e-10	7.744204e+00	1.377967e+01
2.090000e-06	1.160865e-06	2.006209e-10	8.062842e+00	1.478461e+01
2.100000e-06	1.206707e-06	2.145241e-10	8.381238e+00	1.577959e+01
2.110000e-06	1.252327e-06	2.268662e-10	8.698093e+00	1.676333e+01
2.120000e-06	1.297857e-06	2.395608e-10	9.014327e+00	1.773459e+01
2.130000e-06	1.343375e-06	2.533825e-10	9.330474e+00	1.869222e+01
2.140000e-06	1.388732e-06	2.658582e-10	9.645502e+00	1.963512e+01
2.150000e-06	1.433951e-06	2.773663e-10	9.959574e+00	2.056226e+01
2.160000e-06	1.479103e-06	2.920446e-10	1.027318e+01	2.147270e+01
2.170000e-06	1.524204e-06	3.084733e-10	1.058643e+01	2.236559e+01
2.180000e-06	1.569242e-06	3.227039e-10	1.089925e+01	2.324017e+01
2.190000e-06	1.614168e-06	3.338736e-10	1.121128e+01	2.409575e+01
2.200000e-06	1.658893e-06	3.437371e-10	1.152192e+01	2.493177e+01
2.210000e-06	1.703451e-06	3.541588e-10	1.183140e+01	2.574775e+01
2.220000e-06	1.747912e-06	3.653442e-10	1.214020e+01	2.654329e+01
2.230000e-06	1.792247e-06	3.764069e-10	1.244813e+01	2.731811e+01
2.240000e-06	1.836496e-06	3.869975e-10	1.275547e+01	2.807203e+01
2.250000e-06	1.880651e-06	3.969168e-10	1.306215e+01	2.880496e+01
2.260000e-06	1.924636e-06	4.065808e-10	1.336765e+01	2.951688e+01
2.270000e-06	1.968526e-06	4.157781e-10	1.367249e+01	3.020790e+01
2.280000e-06	2.012378e-06	4.250150e-10	1.397706e+01	3.087818e+01
2.290000e-06	2.056166e-06	4.335116e-10	1.428120e+01	3.152800e+01
2.300000e-06	2.099922e-06	4.421081e-10	1.458511e+01	3.215768e+01
2.310000e-06	2.143645e-06	4.519501e-10	1.488879e+01	3.276763e+01
2.320000e-06	2.187249e-06	4.614164e-10	1.519164e+01	3.335834e+01
2.330000e-06	2.230656e-06	4.688495e-10	1.549312e+01	3.393033e+01
2.340000e-06	2.273887e-06	4.757800e-10	1.579339e+01	3.448420e+01
2.350000e-06	2.316963e-06	4.829414e-10	1.609257e+01	3.502057e+01
2.360000e-06	2.359822e-06	4.891252e-10	1.639026e+01	3.554013e+01
2.370000e-06	2.402389e-06	4.960085e-10	1.668590e+01	3.604358e+01
2.380000e-06	2.444673e-06	5.052927e-10	1.697959e+01	3.653164e+01
2.390000e-06	2.486647e-06	5.158776e-10	1.727112e+01	3.700507e+01
2.400000e-06	2.528246e-06	5.243069e-10	1.756005e+01	3.746463e+01
2.410000e-06	2.569477e-06	5.311861e-10	1.784642e+01	3.791106e+01
2.420000e-06	2.610475e-06	5.383445e-10	1.813118e+01	3.834513e+01
2.430000e-06	2.651305e-06	5.455675e-10	1.841476e+01	3.876758e+01
2.440000e-06	2.691895e-06	5.532680e-10	1.869668e+01	3.917914e+01
2.450000e-06	2.732244e-06	5.616297e-10	1.897693e+01	3.958050e+01
2.460000e-06	2.772427e-06	5.695188e-10	1.925603e+01	3.997233e+01
2.470000e-06	2.812537e-06	5.754997e-10	1.953461e+01	4.035529e+01
2.480000e-06	2.852523e-06	5.797391e-10	1.981233e+01	4.072996e+01
2.490000e-06	2.892268e-06	5.847955e-10	2.008838e+01	4.109690e+01
2.500000e-06	2.931862e-06	5.902878e-10	2.036339e+01	4.145662e+01
2.510000e-06	2.971343e-06	5.962482e-10	2.063760e+01	4.180958e+01
2.520000e-06	3.010615e-06	6.036869e-10	2.091037e+01	4.215620e+01
2.530000e-06	3.049667e-06	6.109064e-10	2.118161e+01	4.249682e+01
2.540000e-06	3.088490e-06	6.161713e-10	2.145125e+01	4.283175e+01
2.550000e-06	3.127071e-06	6.205318e-10	2.171922e+01	4.316125e+01
2.560000e-06	3.165511e-06	6.246178e-10	2.198620e+01	4.348550e+01
2.570000e-06	3.203765e-06	6.279658e-10	2.225190e+01	4.380464e+01
2.580000e-06	3.241747e-06	6.318479e-10	2.251571e+01	4.411878e+01
2.590000e-06	3.279550e-06	6.365360e-10	2.277827e+01	4.442796e+01
2.600000e-06	3.317146e-06	6.412130e-10	2.303939e+01	4.473216e+01
2.610000e-06	3.354458e-06	6.468748e-10	2.329855e+01	4.503134e+01
2.620000e-06	3.391508e-06	6.533980e-10	2.355588e+01	4.532542e+01
2.630000e-06	3.428291e-06	6.583042e-10	2.381136e+01	4.561428e+01
2.640000e-06	3.464781e-06	6.605090e-10	2.406480e+01	4.589775e+01
2.650000e-06	3.501029e-06	6.625147e-10	2.431656e+01	4.617565e+01
2.660000e-06	3.537091e-06	6.652857e-10	2.456704e+01	4.644779e+01
2.670000e-06	3.573032e-06	6.681960e-10	2.481666e+01	4.671393e+01
2.680000e-06	3.608879e-06	6.717214e-10	2.506564e+01	4.697384e+01
2.690000e-06	3.644606e-06	6.768515e-10	2.531378e+01	4.722728e+01
2.700000e-06	3.680221e-06	6.820295e-10	2.556115e+01	4.747399e+01
2.710000e-06	3.715687e-06	6.854144e-10	2.580748e+01	4.771374e+01
2.720000e-06	3.750871e-06	6.894999e-10	2.605185e+01	4.794627e+01
2.730000e-06	3.785695e-06	6.934840e-10	2.629372e+01	4.817137e+01
2.740000e-06	3.820115e-06	6.957607e-10	2.653279e+01	4.838881e+01
2.750000e-06	3.853973e-06	6.981418e-10	2.676795e+01	4.859839e+01
2.760000e-06	3.887252e-06	7.005319e-10	2.699909e+01	4.879996e+01
2.770000e-06	3.920049e-06	7.025848e-10	2.722688e+01	4.899335e+01
2.780000e-06	3.952451e-06	7.063731e-10	2.745194e+01	4.917845e+01
2.790000e-06	3.984633e-06	7.126820e-10	2.767546e+01	4.935517e+01
2.800000e-06	4.016654e-06	7.204520e-10	2.789786e+01	4.952345e+01
2.810000e-06	4.048511e-06	7.265411e-10	2.811912e+01	4.968328e+01
2.820000e-06	4.080207e-06	7.295542e-10	2.833927e+01	4.983468e+01
2.830000e-06	4.111711e-06	7.293746e-10	2.855809e+01	4.997769e+01
2.840000e-06	4.142949e-06	7.278148e-10	2.877505e+01	5.011240e+01
2.850000e-06	4.173878e-06	7.285281e-10	2.898987e+01	5.023895e+01
2.860000e-06	4.204487e-06	7.311518e-10	2.920247e+01	5.035748e+01
2.870000e-06	4.234728e-06	7.339426e-10	2.941250e+01	5.046821e+01
2.880000e-06	4.264683e-06	7.392425e-10	2.962055e+01	5.057136e+01
2.890000e-06	4.294406e-06	7.450933e-10	2.982700e+01	5.066719e+01
2.900000e-06	4.323809e-06	7.490792e-10	3.003122e+01	5.075599e+01
