# Temperatura_=_11.17
# Concentracion g/m^3_=_1620.0
# C_Vs_to_Am_M_A/Vsm_=_65563218390.804596
# pendiente_HvsI_1/m_=_3716.3
# ordenada_HvsI_A/m_=_1297.0
# frecuencia_Hz_=_135104.08283445236

Tiempo_(s)	Campo_(V.s)	Magnetizacion_(V.s)	Campo_(kA/m)	Magnetizacion_(A/m)
0.000000e+00	-5.511386e-06	-7.969308e-10	-3.836940e+01	-5.220770e+01
1.000000e-08	-5.511455e-06	-7.951897e-10	-3.836988e+01	-5.219460e+01
2.000000e-08	-5.511256e-06	-7.959847e-10	-3.836849e+01	-5.217996e+01
3.000000e-08	-5.510603e-06	-7.975081e-10	-3.836395e+01	-5.216366e+01
4.000000e-08	-5.509453e-06	-7.983307e-10	-3.835594e+01	-5.214557e+01
5.000000e-08	-5.507778e-06	-7.977255e-10	-3.834429e+01	-5.212561e+01
6.000000e-08	-5.505485e-06	-7.888957e-10	-3.832832e+01	-5.210367e+01
7.000000e-08	-5.502581e-06	-7.626898e-10	-3.830810e+01	-5.207966e+01
8.000000e-08	-5.499160e-06	-7.605386e-10	-3.828429e+01	-5.205353e+01
9.000000e-08	-5.495324e-06	-8.372441e-10	-3.825758e+01	-5.202522e+01
1.000000e-07	-5.491096e-06	-8.712359e-10	-3.822815e+01	-5.199469e+01
1.100000e-07	-5.486553e-06	-7.646900e-10	-3.819652e+01	-5.196192e+01
1.200000e-07	-5.481889e-06	-6.919439e-10	-3.816405e+01	-5.192689e+01
1.300000e-07	-5.477018e-06	-7.769457e-10	-3.813013e+01	-5.188963e+01
1.400000e-07	-5.471650e-06	-8.393199e-10	-3.809277e+01	-5.185015e+01
1.500000e-07	-5.465800e-06	-7.729173e-10	-3.805204e+01	-5.180850e+01
1.600000e-07	-5.459623e-06	-6.993817e-10	-3.800903e+01	-5.176474e+01
1.700000e-07	-5.453099e-06	-8.027157e-10	-3.796362e+01	-5.171892e+01
1.800000e-07	-5.446102e-06	-8.492235e-10	-3.791491e+01	-5.167114e+01
1.900000e-07	-5.438695e-06	-7.634533e-10	-3.786334e+01	-5.162150e+01
2.000000e-07	-5.431053e-06	-6.919185e-10	-3.781013e+01	-5.157009e+01
2.100000e-07	-5.423193e-06	-7.503180e-10	-3.775541e+01	-5.151702e+01
2.200000e-07	-5.415119e-06	-8.016301e-10	-3.769921e+01	-5.146242e+01
2.300000e-07	-5.406729e-06	-7.720238e-10	-3.764080e+01	-5.140642e+01
2.400000e-07	-5.397828e-06	-7.506834e-10	-3.757883e+01	-5.134913e+01
2.500000e-07	-5.388188e-06	-7.665213e-10	-3.751171e+01	-5.129068e+01
2.600000e-07	-5.377673e-06	-7.789526e-10	-3.743851e+01	-5.123121e+01
2.700000e-07	-5.366706e-06	-7.525779e-10	-3.736216e+01	-5.117084e+01
2.800000e-07	-5.355474e-06	-7.525634e-10	-3.728397e+01	-5.110967e+01
2.900000e-07	-5.343785e-06	-7.662780e-10	-3.720259e+01	-5.104783e+01
3.000000e-07	-5.331723e-06	-7.960209e-10	-3.711862e+01	-5.098541e+01
3.100000e-07	-5.319341e-06	-7.886240e-10	-3.703241e+01	-5.092250e+01
3.200000e-07	-5.306444e-06	-7.700614e-10	-3.694263e+01	-5.085919e+01
3.300000e-07	-5.293051e-06	-7.502964e-10	-3.684939e+01	-5.079552e+01
3.400000e-07	-5.279375e-06	-7.774004e-10	-3.675418e+01	-5.073156e+01
3.500000e-07	-5.265349e-06	-7.538546e-10	-3.665653e+01	-5.066733e+01
3.600000e-07	-5.250782e-06	-7.291148e-10	-3.655512e+01	-5.060284e+01
3.700000e-07	-5.235741e-06	-7.609127e-10	-3.645041e+01	-5.053810e+01
3.800000e-07	-5.220316e-06	-7.951194e-10	-3.634302e+01	-5.047307e+01
3.900000e-07	-5.204332e-06	-7.385578e-10	-3.623174e+01	-5.040773e+01
4.000000e-07	-5.187920e-06	-7.471163e-10	-3.611748e+01	-5.034201e+01
4.100000e-07	-5.171235e-06	-8.021894e-10	-3.600133e+01	-5.027584e+01
4.200000e-07	-5.154121e-06	-7.508421e-10	-3.588218e+01	-5.020912e+01
4.300000e-07	-5.136632e-06	-6.925368e-10	-3.576043e+01	-5.014174e+01
4.400000e-07	-5.118862e-06	-7.770675e-10	-3.563671e+01	-5.007359e+01
4.500000e-07	-5.100727e-06	-7.955739e-10	-3.551046e+01	-5.000452e+01
4.600000e-07	-5.082070e-06	-6.973784e-10	-3.538057e+01	-4.993439e+01
4.700000e-07	-5.062983e-06	-7.301993e-10	-3.524769e+01	-4.986305e+01
4.800000e-07	-5.043748e-06	-8.067960e-10	-3.511378e+01	-4.979032e+01
4.900000e-07	-5.024297e-06	-7.363037e-10	-3.497837e+01	-4.971603e+01
5.000000e-07	-5.004527e-06	-7.016280e-10	-3.484073e+01	-4.964001e+01
5.100000e-07	-4.984521e-06	-7.800686e-10	-3.470145e+01	-4.956209e+01
5.200000e-07	-4.964199e-06	-7.380483e-10	-3.455997e+01	-4.948209e+01
5.300000e-07	-4.943460e-06	-6.807519e-10	-3.441559e+01	-4.939984e+01
5.400000e-07	-4.922425e-06	-7.615368e-10	-3.426915e+01	-4.931517e+01
5.500000e-07	-4.901062e-06	-7.796718e-10	-3.412042e+01	-4.922794e+01
5.600000e-07	-4.879313e-06	-6.850116e-10	-3.396901e+01	-4.913800e+01
5.700000e-07	-4.857227e-06	-7.194659e-10	-3.381525e+01	-4.904521e+01
5.800000e-07	-4.834803e-06	-7.701390e-10	-3.365914e+01	-4.894946e+01
5.900000e-07	-4.811970e-06	-7.044544e-10	-3.350018e+01	-4.885065e+01
6.000000e-07	-4.788849e-06	-6.915612e-10	-3.333921e+01	-4.874871e+01
6.100000e-07	-4.765540e-06	-7.599234e-10	-3.317694e+01	-4.864356e+01
6.200000e-07	-4.741946e-06	-7.249192e-10	-3.301268e+01	-4.853517e+01
6.300000e-07	-4.718174e-06	-6.881173e-10	-3.284718e+01	-4.842352e+01
6.400000e-07	-4.694159e-06	-7.309751e-10	-3.268000e+01	-4.830862e+01
6.500000e-07	-4.669664e-06	-7.326068e-10	-3.250947e+01	-4.819050e+01
6.600000e-07	-4.644600e-06	-6.919081e-10	-3.233497e+01	-4.806921e+01
6.700000e-07	-4.619154e-06	-7.166161e-10	-3.215782e+01	-4.794481e+01
6.800000e-07	-4.593261e-06	-7.296623e-10	-3.197756e+01	-4.781742e+01
6.900000e-07	-4.566793e-06	-7.016063e-10	-3.179329e+01	-4.768715e+01
7.000000e-07	-4.539887e-06	-7.048452e-10	-3.160598e+01	-4.755413e+01
7.100000e-07	-4.512589e-06	-7.230510e-10	-3.141593e+01	-4.741852e+01
7.200000e-07	-4.484974e-06	-7.041262e-10	-3.122368e+01	-4.728049e+01
7.300000e-07	-4.457178e-06	-6.966356e-10	-3.103017e+01	-4.714024e+01
7.400000e-07	-4.429271e-06	-7.126070e-10	-3.083589e+01	-4.699797e+01
7.500000e-07	-4.401189e-06	-7.070422e-10	-3.064039e+01	-4.685387e+01
7.600000e-07	-4.372806e-06	-6.932779e-10	-3.044279e+01	-4.670818e+01
7.700000e-07	-4.344057e-06	-6.959838e-10	-3.024264e+01	-4.656112e+01
7.800000e-07	-4.314986e-06	-6.917973e-10	-3.004025e+01	-4.641290e+01
7.900000e-07	-4.285534e-06	-6.785791e-10	-2.983522e+01	-4.626375e+01
8.000000e-07	-4.255731e-06	-6.853078e-10	-2.962773e+01	-4.611388e+01
8.100000e-07	-4.225607e-06	-6.885360e-10	-2.941801e+01	-4.596351e+01
8.200000e-07	-4.195212e-06	-6.798499e-10	-2.920641e+01	-4.581284e+01
8.300000e-07	-4.164583e-06	-6.795389e-10	-2.899317e+01	-4.566204e+01
8.400000e-07	-4.133674e-06	-6.876055e-10	-2.877799e+01	-4.551128e+01
8.500000e-07	-4.102507e-06	-6.756775e-10	-2.856101e+01	-4.536072e+01
8.600000e-07	-4.071116e-06	-6.677702e-10	-2.834247e+01	-4.521048e+01
8.700000e-07	-4.039555e-06	-6.704413e-10	-2.812274e+01	-4.506066e+01
8.800000e-07	-4.007797e-06	-6.657351e-10	-2.790165e+01	-4.491134e+01
8.900000e-07	-3.975882e-06	-6.545191e-10	-2.767947e+01	-4.476256e+01
9.000000e-07	-3.943780e-06	-6.596052e-10	-2.745597e+01	-4.461433e+01
9.100000e-07	-3.911344e-06	-6.557600e-10	-2.723016e+01	-4.446665e+01
9.200000e-07	-3.878449e-06	-6.447945e-10	-2.700116e+01	-4.431947e+01
9.300000e-07	-3.845104e-06	-6.459514e-10	-2.676901e+01	-4.417272e+01
9.400000e-07	-3.811428e-06	-6.523459e-10	-2.653456e+01	-4.402627e+01
9.500000e-07	-3.777346e-06	-6.428393e-10	-2.629729e+01	-4.387999e+01
9.600000e-07	-3.742876e-06	-6.396474e-10	-2.605731e+01	-4.373371e+01
9.700000e-07	-3.708008e-06	-6.439705e-10	-2.581456e+01	-4.358721e+01
9.800000e-07	-3.672780e-06	-6.370390e-10	-2.556932e+01	-4.344028e+01
9.900000e-07	-3.637369e-06	-6.281543e-10	-2.532279e+01	-4.329264e+01
1.000000e-06	-3.601810e-06	-6.330746e-10	-2.507523e+01	-4.314402e+01
1.010000e-06	-3.566099e-06	-6.314076e-10	-2.482662e+01	-4.299411e+01
1.020000e-06	-3.530225e-06	-6.218083e-10	-2.457687e+01	-4.284258e+01
1.030000e-06	-3.494223e-06	-6.231341e-10	-2.432623e+01	-4.268909e+01
1.040000e-06	-3.457978e-06	-6.267496e-10	-2.407390e+01	-4.253328e+01
1.050000e-06	-3.421412e-06	-6.174348e-10	-2.381933e+01	-4.237478e+01
1.060000e-06	-3.384597e-06	-6.101729e-10	-2.356303e+01	-4.221324e+01
1.070000e-06	-3.347483e-06	-6.119536e-10	-2.330465e+01	-4.204826e+01
1.080000e-06	-3.310102e-06	-6.060444e-10	-2.304441e+01	-4.187948e+01
1.090000e-06	-3.272498e-06	-5.993013e-10	-2.278262e+01	-4.170652e+01
1.100000e-06	-3.234735e-06	-5.989457e-10	-2.251972e+01	-4.152903e+01
1.110000e-06	-3.196808e-06	-5.951895e-10	-2.225567e+01	-4.134666e+01
1.120000e-06	-3.158532e-06	-5.832720e-10	-2.198920e+01	-4.115907e+01
1.130000e-06	-3.119977e-06	-5.801372e-10	-2.172079e+01	-4.096595e+01
1.140000e-06	-3.081230e-06	-5.794490e-10	-2.145104e+01	-4.076701e+01
1.150000e-06	-3.042324e-06	-5.734726e-10	-2.118018e+01	-4.056199e+01
1.160000e-06	-3.003317e-06	-5.686250e-10	-2.090862e+01	-4.035064e+01
1.170000e-06	-2.964076e-06	-5.694518e-10	-2.063543e+01	-4.013276e+01
1.180000e-06	-2.924628e-06	-5.652901e-10	-2.036080e+01	-3.990817e+01
1.190000e-06	-2.885091e-06	-5.617657e-10	-2.008555e+01	-3.967672e+01
1.200000e-06	-2.845402e-06	-5.617664e-10	-1.980924e+01	-3.943831e+01
1.210000e-06	-2.805571e-06	-5.597135e-10	-1.953194e+01	-3.919286e+01
1.220000e-06	-2.765567e-06	-5.517887e-10	-1.925344e+01	-3.894033e+01
1.230000e-06	-2.725438e-06	-5.488618e-10	-1.897407e+01	-3.868071e+01
1.240000e-06	-2.685201e-06	-5.482833e-10	-1.869395e+01	-3.841404e+01
1.250000e-06	-2.644733e-06	-5.438068e-10	-1.841222e+01	-3.814037e+01
1.260000e-06	-2.604038e-06	-5.425977e-10	-1.812890e+01	-3.785980e+01
1.270000e-06	-2.563089e-06	-5.468072e-10	-1.784382e+01	-3.757244e+01
1.280000e-06	-2.521909e-06	-5.439748e-10	-1.755713e+01	-3.727845e+01
1.290000e-06	-2.480492e-06	-5.360535e-10	-1.726879e+01	-3.697798e+01
1.300000e-06	-2.438728e-06	-5.300321e-10	-1.697804e+01	-3.667124e+01
1.310000e-06	-2.396501e-06	-5.250605e-10	-1.668407e+01	-3.635842e+01
1.320000e-06	-2.353924e-06	-5.178625e-10	-1.638765e+01	-3.603974e+01
1.330000e-06	-2.311123e-06	-5.168530e-10	-1.608967e+01	-3.571543e+01
1.340000e-06	-2.267988e-06	-5.179665e-10	-1.578938e+01	-3.538570e+01
1.350000e-06	-2.224621e-06	-5.124502e-10	-1.548746e+01	-3.505079e+01
1.360000e-06	-2.181201e-06	-5.053496e-10	-1.518518e+01	-3.471092e+01
1.370000e-06	-2.137708e-06	-5.001727e-10	-1.488238e+01	-3.436629e+01
1.380000e-06	-2.094100e-06	-4.951143e-10	-1.457879e+01	-3.401709e+01
1.390000e-06	-2.050378e-06	-4.888355e-10	-1.427441e+01	-3.366349e+01
1.400000e-06	-2.006561e-06	-4.836543e-10	-1.396936e+01	-3.330565e+01
1.410000e-06	-1.962673e-06	-4.771692e-10	-1.366382e+01	-3.294367e+01
1.420000e-06	-1.918709e-06	-4.715057e-10	-1.335775e+01	-3.257763e+01
1.430000e-06	-1.874634e-06	-4.668695e-10	-1.305091e+01	-3.220759e+01
1.440000e-06	-1.830507e-06	-4.633013e-10	-1.274370e+01	-3.183354e+01
1.450000e-06	-1.786346e-06	-4.576028e-10	-1.243626e+01	-3.145544e+01
1.460000e-06	-1.742081e-06	-4.511886e-10	-1.212809e+01	-3.107320e+01
1.470000e-06	-1.697756e-06	-4.437360e-10	-1.181951e+01	-3.068669e+01
1.480000e-06	-1.653249e-06	-4.348217e-10	-1.150966e+01	-3.029572e+01
1.490000e-06	-1.608514e-06	-4.256527e-10	-1.119822e+01	-2.990004e+01
1.500000e-06	-1.563716e-06	-4.197274e-10	-1.088634e+01	-2.949937e+01
1.510000e-06	-1.518772e-06	-4.134585e-10	-1.057345e+01	-2.909335e+01
1.520000e-06	-1.473622e-06	-4.066429e-10	-1.025912e+01	-2.868160e+01
1.530000e-06	-1.428374e-06	-3.984609e-10	-9.944113e+00	-2.826367e+01
1.540000e-06	-1.383114e-06	-3.902627e-10	-9.629021e+00	-2.783906e+01
1.550000e-06	-1.337793e-06	-3.801989e-10	-9.313504e+00	-2.740723e+01
1.560000e-06	-1.292334e-06	-3.708856e-10	-8.997027e+00	-2.696760e+01
1.570000e-06	-1.246799e-06	-3.621558e-10	-8.680018e+00	-2.651955e+01
1.580000e-06	-1.201165e-06	-3.542936e-10	-8.362324e+00	-2.606243e+01
1.590000e-06	-1.155389e-06	-3.454388e-10	-8.043635e+00	-2.559556e+01
1.600000e-06	-1.109547e-06	-3.360911e-10	-7.724489e+00	-2.511822e+01
1.610000e-06	-1.063607e-06	-3.265869e-10	-7.404661e+00	-2.462970e+01
1.620000e-06	-1.017524e-06	-3.165358e-10	-7.083842e+00	-2.412925e+01
1.630000e-06	-9.714496e-07	-3.062700e-10	-6.763079e+00	-2.361614e+01
1.640000e-06	-9.253912e-07	-2.931124e-10	-6.442428e+00	-2.308963e+01
1.650000e-06	-8.791973e-07	-2.820692e-10	-6.120833e+00	-2.254899e+01
1.660000e-06	-8.329264e-07	-2.732989e-10	-5.798703e+00	-2.199350e+01
1.670000e-06	-7.866174e-07	-2.667684e-10	-5.476307e+00	-2.142248e+01
1.680000e-06	-7.402799e-07	-2.588293e-10	-5.153712e+00	-2.083527e+01
1.690000e-06	-6.939226e-07	-2.528225e-10	-4.830980e+00	-2.023124e+01
1.700000e-06	-6.474771e-07	-2.456049e-10	-4.507633e+00	-1.960982e+01
1.710000e-06	-6.009267e-07	-2.331126e-10	-4.183557e+00	-1.897049e+01
1.720000e-06	-5.543688e-07	-2.192877e-10	-3.859428e+00	-1.831279e+01
1.730000e-06	-5.078398e-07	-2.078563e-10	-3.535501e+00	-1.763630e+01
1.740000e-06	-4.612373e-07	-1.982691e-10	-3.211062e+00	-1.694071e+01
1.750000e-06	-4.145341e-07	-1.903795e-10	-2.885921e+00	-1.622577e+01
1.760000e-06	-3.678414e-07	-1.827410e-10	-2.560854e+00	-1.549129e+01
1.770000e-06	-3.211857e-07	-1.762896e-10	-2.236044e+00	-1.473719e+01
1.780000e-06	-2.744815e-07	-1.695883e-10	-1.910897e+00	-1.396348e+01
1.790000e-06	-2.277540e-07	-1.575650e-10	-1.585587e+00	-1.317025e+01
1.800000e-06	-1.810622e-07	-1.415212e-10	-1.260526e+00	-1.235768e+01
1.810000e-06	-1.344076e-07	-1.242750e-10	-9.357248e-01	-1.152607e+01
1.820000e-06	-8.763630e-08	-1.100442e-10	-6.101101e-01	-1.067578e+01
1.830000e-06	-4.080260e-08	-1.004281e-10	-2.840613e-01	-9.807291e+00
1.840000e-06	5.931602e-09	-9.157492e-11	4.129488e-02	-8.921178e+00
1.850000e-06	5.267428e-08	-8.265305e-11	3.667100e-01	-8.018101e+00
1.860000e-06	9.948556e-08	-7.138315e-11	6.926028e-01	-7.098815e+00
1.870000e-06	1.462867e-07	-5.714515e-11	1.018425e+00	-6.164162e+00
1.880000e-06	1.929715e-07	-4.152549e-11	1.343437e+00	-5.215068e+00
1.890000e-06	2.396608e-07	-2.758332e-11	1.668481e+00	-4.252538e+00
1.900000e-06	2.863511e-07	-1.609284e-11	1.993532e+00	-3.277653e+00
1.910000e-06	3.330039e-07	-4.653623e-12	2.318320e+00	-2.291559e+00
1.920000e-06	3.797508e-07	6.740223e-12	2.643765e+00	-1.295465e+00
1.930000e-06	4.264780e-07	1.990652e-11	2.969073e+00	-2.906365e-01
1.940000e-06	4.730653e-07	3.168191e-11	3.293406e+00	7.216167e-01
1.950000e-06	5.195576e-07	4.164941e-11	3.617078e+00	1.739944e+00
1.960000e-06	5.659573e-07	5.212386e-11	3.940106e+00	2.762962e+00
1.970000e-06	6.122975e-07	6.543602e-11	4.262719e+00	3.789268e+00
1.980000e-06	6.586136e-07	8.042890e-11	4.585164e+00	4.817442e+00
1.990000e-06	7.048681e-07	9.568688e-11	4.907181e+00	5.846057e+00
2.000000e-06	7.511018e-07	1.104313e-10	5.229052e+00	6.873693e+00
2.010000e-06	7.973448e-07	1.251577e-10	5.550989e+00	7.898937e+00
2.020000e-06	8.434972e-07	1.395165e-10	5.872295e+00	8.920398e+00
2.030000e-06	8.895127e-07	1.534969e-10	6.192648e+00	9.936713e+00
2.040000e-06	9.355098e-07	1.660147e-10	6.512872e+00	1.094655e+01
2.050000e-06	9.815600e-07	1.783572e-10	6.833466e+00	1.194864e+01
2.060000e-06	1.027574e-06	1.912214e-10	7.153811e+00	1.294173e+01
2.070000e-06	1.073459e-06	2.056968e-10	7.473249e+00	1.392465e+01
2.080000e-06	1.119255e-06	2.209575e-10	7.792077e+00	1.489629e+01
2.090000e-06	1.164962e-06	2.346647e-10	8.110286e+00	1.585561e+01
2.100000e-06	1.210548e-06	2.475954e-10	8.427646e+00	1.680163e+01
2.110000e-06	1.256069e-06	2.603997e-10	8.744552e+00	1.773345e+01
2.120000e-06	1.301545e-06	2.738334e-10	9.061150e+00	1.865028e+01
2.130000e-06	1.346945e-06	2.867261e-10	9.377222e+00	1.955138e+01
2.140000e-06	1.392221e-06	2.983333e-10	9.692423e+00	2.043611e+01
2.150000e-06	1.437342e-06	3.092072e-10	1.000655e+01	2.130391e+01
2.160000e-06	1.482367e-06	3.213993e-10	1.032000e+01	2.215433e+01
2.170000e-06	1.527379e-06	3.339916e-10	1.063337e+01	2.298698e+01
2.180000e-06	1.572338e-06	3.445883e-10	1.094637e+01	2.380158e+01
2.190000e-06	1.617147e-06	3.547163e-10	1.125832e+01	2.459792e+01
2.200000e-06	1.661759e-06	3.660503e-10	1.156890e+01	2.537588e+01
2.210000e-06	1.706192e-06	3.788027e-10	1.187824e+01	2.613542e+01
2.220000e-06	1.750522e-06	3.908761e-10	1.218686e+01	2.687657e+01
2.230000e-06	1.794755e-06	3.990801e-10	1.249480e+01	2.759945e+01
2.240000e-06	1.838852e-06	4.062874e-10	1.280180e+01	2.830423e+01
2.250000e-06	1.882818e-06	4.137067e-10	1.310788e+01	2.899115e+01
2.260000e-06	1.926738e-06	4.212469e-10	1.341364e+01	2.966050e+01
2.270000e-06	1.970601e-06	4.301935e-10	1.371901e+01	3.031265e+01
2.280000e-06	2.014381e-06	4.419862e-10	1.402380e+01	3.094798e+01
2.290000e-06	2.058091e-06	4.525678e-10	1.432811e+01	3.156692e+01
2.300000e-06	2.101751e-06	4.600723e-10	1.463206e+01	3.216995e+01
2.310000e-06	2.145369e-06	4.672083e-10	1.493572e+01	3.275757e+01
2.320000e-06	2.188919e-06	4.747890e-10	1.523891e+01	3.333028e+01
2.330000e-06	2.232364e-06	4.813364e-10	1.554137e+01	3.388862e+01
2.340000e-06	2.275623e-06	4.883166e-10	1.584253e+01	3.443312e+01
2.350000e-06	2.318629e-06	4.965094e-10	1.614193e+01	3.496433e+01
2.360000e-06	2.361407e-06	5.054474e-10	1.643974e+01	3.548278e+01
2.370000e-06	2.403877e-06	5.151187e-10	1.673541e+01	3.598900e+01
2.380000e-06	2.446005e-06	5.242767e-10	1.702870e+01	3.648349e+01
2.390000e-06	2.487787e-06	5.333953e-10	1.731958e+01	3.696676e+01
2.400000e-06	2.529223e-06	5.418851e-10	1.760805e+01	3.743927e+01
2.410000e-06	2.570381e-06	5.501525e-10	1.789459e+01	3.790146e+01
2.420000e-06	2.611282e-06	5.588809e-10	1.817933e+01	3.835375e+01
2.430000e-06	2.651894e-06	5.680426e-10	1.846207e+01	3.879650e+01
2.440000e-06	2.692233e-06	5.772402e-10	1.874290e+01	3.923008e+01
2.450000e-06	2.732321e-06	5.851724e-10	1.902199e+01	3.965477e+01
2.460000e-06	2.772238e-06	5.906757e-10	1.929988e+01	4.007085e+01
2.470000e-06	2.812107e-06	5.951828e-10	1.957745e+01	4.047855e+01
2.480000e-06	2.851901e-06	5.990463e-10	1.985449e+01	4.087805e+01
2.490000e-06	2.891618e-06	6.036224e-10	2.013099e+01	4.126951e+01
2.500000e-06	2.931163e-06	6.091447e-10	2.040630e+01	4.165304e+01
2.510000e-06	2.970556e-06	6.138429e-10	2.068054e+01	4.202872e+01
2.520000e-06	3.009813e-06	6.181579e-10	2.095385e+01	4.239660e+01
2.530000e-06	3.048820e-06	6.231774e-10	2.122540e+01	4.275668e+01
2.540000e-06	3.087553e-06	6.268282e-10	2.149506e+01	4.310895e+01
2.550000e-06	3.125953e-06	6.288816e-10	2.176239e+01	4.345336e+01
2.560000e-06	3.164067e-06	6.309472e-10	2.202773e+01	4.378986e+01
2.570000e-06	3.202024e-06	6.320391e-10	2.229199e+01	4.411835e+01
2.580000e-06	3.239864e-06	6.337088e-10	2.255542e+01	4.443875e+01
2.590000e-06	3.277517e-06	6.367615e-10	2.281756e+01	4.475094e+01
2.600000e-06	3.314957e-06	6.406543e-10	2.307821e+01	4.505480e+01
2.610000e-06	3.352199e-06	6.466805e-10	2.333748e+01	4.535021e+01
2.620000e-06	3.389275e-06	6.536740e-10	2.359560e+01	4.563705e+01
2.630000e-06	3.426088e-06	6.597691e-10	2.385188e+01	4.591521e+01
2.640000e-06	3.462564e-06	6.629656e-10	2.410583e+01	4.618458e+01
2.650000e-06	3.498848e-06	6.644409e-10	2.435843e+01	4.644506e+01
2.660000e-06	3.534975e-06	6.648404e-10	2.460994e+01	4.669657e+01
2.670000e-06	3.570859e-06	6.644952e-10	2.485976e+01	4.693906e+01
2.680000e-06	3.606599e-06	6.663141e-10	2.510858e+01	4.717246e+01
2.690000e-06	3.642268e-06	6.703566e-10	2.535690e+01	4.739678e+01
2.700000e-06	3.677755e-06	6.765814e-10	2.560395e+01	4.761202e+01
2.710000e-06	3.712978e-06	6.831520e-10	2.584917e+01	4.781820e+01
2.720000e-06	3.747935e-06	6.900843e-10	2.609253e+01	4.801540e+01
2.730000e-06	3.782515e-06	6.950514e-10	2.633328e+01	4.820370e+01
2.740000e-06	3.816711e-06	6.955696e-10	2.657134e+01	4.838323e+01
2.750000e-06	3.850403e-06	6.943339e-10	2.680590e+01	4.855415e+01
2.760000e-06	3.883425e-06	6.937052e-10	2.703580e+01	4.871662e+01
2.770000e-06	3.916035e-06	6.943823e-10	2.726282e+01	4.887088e+01
2.780000e-06	3.948354e-06	6.982439e-10	2.748782e+01	4.901715e+01
2.790000e-06	3.980400e-06	7.063267e-10	2.771092e+01	4.915570e+01
2.800000e-06	4.012240e-06	7.155921e-10	2.793258e+01	4.928683e+01
2.810000e-06	4.043955e-06	7.220323e-10	2.815338e+01	4.941085e+01
2.820000e-06	4.075572e-06	7.256624e-10	2.837349e+01	4.952809e+01
2.830000e-06	4.107009e-06	7.261426e-10	2.859235e+01	4.963892e+01
2.840000e-06	4.138213e-06	7.232456e-10	2.880958e+01	4.974369e+01
2.850000e-06	4.169085e-06	7.221377e-10	2.902451e+01	4.984280e+01
2.860000e-06	4.199579e-06	7.252660e-10	2.923681e+01	4.993662e+01
2.870000e-06	4.229736e-06	7.291278e-10	2.944675e+01	5.002556e+01
2.880000e-06	4.259631e-06	7.331566e-10	2.965488e+01	5.011001e+01
2.890000e-06	4.289290e-06	7.361510e-10	2.986136e+01	5.019036e+01
2.900000e-06	4.318672e-06	7.400987e-10	3.006591e+01	5.026702e+01
