# Temperatura_=_2.87
# Concentracion g/m^3_=_1620.0
# C_Vs_to_Am_M_A/Vsm_=_65563218390.804596
# pendiente_HvsI_1/m_=_3716.3
# ordenada_HvsI_A/m_=_1297.0
# frecuencia_Hz_=_135104.02579142558

Tiempo_(s)	Campo_(V.s)	Magnetizacion_(V.s)	Campo_(kA/m)	Magnetizacion_(A/m)
0.000000e+00	-5.526296e-06	-8.160932e-10	-3.837171e+01	-5.443545e+01
1.000000e-08	-5.526467e-06	-8.171007e-10	-3.837290e+01	-5.440474e+01
2.000000e-08	-5.526414e-06	-8.159186e-10	-3.837253e+01	-5.437165e+01
3.000000e-08	-5.526004e-06	-8.118597e-10	-3.836968e+01	-5.433622e+01
4.000000e-08	-5.525134e-06	-8.063142e-10	-3.836364e+01	-5.429849e+01
5.000000e-08	-5.523739e-06	-8.011123e-10	-3.835396e+01	-5.425849e+01
6.000000e-08	-5.521747e-06	-7.919580e-10	-3.834012e+01	-5.421627e+01
7.000000e-08	-5.519235e-06	-7.785322e-10	-3.832268e+01	-5.417189e+01
8.000000e-08	-5.516222e-06	-7.715096e-10	-3.830176e+01	-5.412540e+01
9.000000e-08	-5.512655e-06	-7.918532e-10	-3.827699e+01	-5.407685e+01
1.000000e-07	-5.508610e-06	-8.527800e-10	-3.824890e+01	-5.402633e+01
1.100000e-07	-5.504221e-06	-8.745211e-10	-3.821843e+01	-5.397390e+01
1.200000e-07	-5.499589e-06	-7.654105e-10	-3.818627e+01	-5.391963e+01
1.300000e-07	-5.494763e-06	-6.958256e-10	-3.815276e+01	-5.386362e+01
1.400000e-07	-5.489636e-06	-7.782874e-10	-3.811716e+01	-5.380595e+01
1.500000e-07	-5.484032e-06	-8.392666e-10	-3.807825e+01	-5.374671e+01
1.600000e-07	-5.478033e-06	-7.801717e-10	-3.803659e+01	-5.368600e+01
1.700000e-07	-5.471743e-06	-6.905702e-10	-3.799292e+01	-5.362393e+01
1.800000e-07	-5.465053e-06	-7.879903e-10	-3.794647e+01	-5.356060e+01
1.900000e-07	-5.457905e-06	-8.481345e-10	-3.789684e+01	-5.349612e+01
2.000000e-07	-5.450360e-06	-7.891124e-10	-3.784445e+01	-5.343061e+01
2.100000e-07	-5.442562e-06	-7.178993e-10	-3.779030e+01	-5.336418e+01
2.200000e-07	-5.434569e-06	-7.887272e-10	-3.773481e+01	-5.329694e+01
2.300000e-07	-5.426314e-06	-8.561870e-10	-3.767749e+01	-5.322902e+01
2.400000e-07	-5.417766e-06	-8.312652e-10	-3.761813e+01	-5.316052e+01
2.500000e-07	-5.408633e-06	-7.847819e-10	-3.755472e+01	-5.309156e+01
2.600000e-07	-5.398649e-06	-8.042440e-10	-3.748540e+01	-5.302224e+01
2.700000e-07	-5.387880e-06	-8.451908e-10	-3.741062e+01	-5.295268e+01
2.800000e-07	-5.376615e-06	-8.354816e-10	-3.733240e+01	-5.288297e+01
2.900000e-07	-5.365034e-06	-8.247103e-10	-3.725199e+01	-5.281320e+01
3.000000e-07	-5.353107e-06	-8.320452e-10	-3.716918e+01	-5.274346e+01
3.100000e-07	-5.340802e-06	-8.561740e-10	-3.708374e+01	-5.267382e+01
3.200000e-07	-5.328125e-06	-8.289495e-10	-3.699571e+01	-5.260434e+01
3.300000e-07	-5.315042e-06	-8.116894e-10	-3.690487e+01	-5.253508e+01
3.400000e-07	-5.301487e-06	-8.091489e-10	-3.681075e+01	-5.246609e+01
3.500000e-07	-5.287608e-06	-8.436182e-10	-3.671438e+01	-5.239738e+01
3.600000e-07	-5.273398e-06	-8.183137e-10	-3.661572e+01	-5.232897e+01
3.700000e-07	-5.258645e-06	-8.047796e-10	-3.651328e+01	-5.226086e+01
3.800000e-07	-5.243291e-06	-8.284216e-10	-3.640667e+01	-5.219304e+01
3.900000e-07	-5.227457e-06	-8.514912e-10	-3.629672e+01	-5.212546e+01
4.000000e-07	-5.211133e-06	-7.954843e-10	-3.618338e+01	-5.205809e+01
4.100000e-07	-5.194397e-06	-8.113965e-10	-3.606718e+01	-5.199086e+01
4.200000e-07	-5.177380e-06	-8.640420e-10	-3.594902e+01	-5.192369e+01
4.300000e-07	-5.160005e-06	-8.194294e-10	-3.582838e+01	-5.185650e+01
4.400000e-07	-5.142275e-06	-7.591247e-10	-3.570527e+01	-5.178916e+01
4.500000e-07	-5.124227e-06	-8.324644e-10	-3.557995e+01	-5.172156e+01
4.600000e-07	-5.105764e-06	-8.485872e-10	-3.545175e+01	-5.165357e+01
4.700000e-07	-5.086832e-06	-7.536159e-10	-3.532030e+01	-5.158504e+01
4.800000e-07	-5.067553e-06	-7.737745e-10	-3.518644e+01	-5.151580e+01
4.900000e-07	-5.048060e-06	-8.560746e-10	-3.505109e+01	-5.144571e+01
5.000000e-07	-5.028359e-06	-7.949004e-10	-3.491429e+01	-5.137459e+01
5.100000e-07	-5.008450e-06	-7.532733e-10	-3.477606e+01	-5.130225e+01
5.200000e-07	-4.988308e-06	-8.294921e-10	-3.463620e+01	-5.122852e+01
5.300000e-07	-4.967795e-06	-8.037264e-10	-3.449377e+01	-5.115321e+01
5.400000e-07	-4.946816e-06	-7.357145e-10	-3.434810e+01	-5.107615e+01
5.500000e-07	-4.925477e-06	-8.026853e-10	-3.419993e+01	-5.099715e+01
5.600000e-07	-4.903839e-06	-8.297158e-10	-3.404969e+01	-5.091604e+01
5.700000e-07	-4.881905e-06	-7.362721e-10	-3.389740e+01	-5.083265e+01
5.800000e-07	-4.859613e-06	-7.591124e-10	-3.374261e+01	-5.074682e+01
5.900000e-07	-4.836895e-06	-8.206663e-10	-3.358487e+01	-5.065841e+01
6.000000e-07	-4.813806e-06	-7.617569e-10	-3.342455e+01	-5.056728e+01
6.100000e-07	-4.790419e-06	-7.372793e-10	-3.326216e+01	-5.047332e+01
6.200000e-07	-4.766815e-06	-8.047127e-10	-3.309827e+01	-5.037641e+01
6.300000e-07	-4.743030e-06	-7.756012e-10	-3.293312e+01	-5.027649e+01
6.400000e-07	-4.719033e-06	-7.329314e-10	-3.276650e+01	-5.017348e+01
6.500000e-07	-4.694777e-06	-7.743800e-10	-3.259808e+01	-5.006734e+01
6.600000e-07	-4.670112e-06	-7.800790e-10	-3.242682e+01	-4.995806e+01
6.700000e-07	-4.644974e-06	-7.341720e-10	-3.225227e+01	-4.984563e+01
6.800000e-07	-4.619320e-06	-7.605179e-10	-3.207414e+01	-4.973008e+01
6.900000e-07	-4.592992e-06	-7.775257e-10	-3.189133e+01	-4.961147e+01
7.000000e-07	-4.566060e-06	-7.472087e-10	-3.170433e+01	-4.948986e+01
7.100000e-07	-4.538718e-06	-7.531972e-10	-3.151449e+01	-4.936535e+01
7.200000e-07	-4.511129e-06	-7.793241e-10	-3.132292e+01	-4.923807e+01
7.300000e-07	-4.483389e-06	-7.544627e-10	-3.113031e+01	-4.910815e+01
7.400000e-07	-4.455487e-06	-7.467752e-10	-3.093657e+01	-4.897576e+01
7.500000e-07	-4.427429e-06	-7.627329e-10	-3.074175e+01	-4.884107e+01
7.600000e-07	-4.399188e-06	-7.474394e-10	-3.054566e+01	-4.870429e+01
7.700000e-07	-4.370665e-06	-7.315563e-10	-3.034761e+01	-4.856562e+01
7.800000e-07	-4.341752e-06	-7.460998e-10	-3.014686e+01	-4.842530e+01
7.900000e-07	-4.312450e-06	-7.444798e-10	-2.994340e+01	-4.828357e+01
8.000000e-07	-4.282863e-06	-7.353177e-10	-2.973796e+01	-4.814065e+01
8.100000e-07	-4.252981e-06	-7.505842e-10	-2.953047e+01	-4.799681e+01
8.200000e-07	-4.222825e-06	-7.538930e-10	-2.932109e+01	-4.785229e+01
8.300000e-07	-4.192385e-06	-7.371889e-10	-2.910973e+01	-4.770735e+01
8.400000e-07	-4.161588e-06	-7.382299e-10	-2.889589e+01	-4.756223e+01
8.500000e-07	-4.130475e-06	-7.434512e-10	-2.867986e+01	-4.741716e+01
8.600000e-07	-4.099078e-06	-7.243644e-10	-2.846185e+01	-4.727237e+01
8.700000e-07	-4.067497e-06	-7.188067e-10	-2.824257e+01	-4.712808e+01
8.800000e-07	-4.035795e-06	-7.293283e-10	-2.802245e+01	-4.698446e+01
8.900000e-07	-4.003964e-06	-7.268233e-10	-2.780143e+01	-4.684171e+01
9.000000e-07	-3.971951e-06	-7.195722e-10	-2.757915e+01	-4.669997e+01
9.100000e-07	-3.939642e-06	-7.304785e-10	-2.735481e+01	-4.655936e+01
9.200000e-07	-3.906973e-06	-7.263007e-10	-2.712798e+01	-4.641998e+01
9.300000e-07	-3.873836e-06	-7.119725e-10	-2.689789e+01	-4.628188e+01
9.400000e-07	-3.840270e-06	-7.108167e-10	-2.666483e+01	-4.614511e+01
9.500000e-07	-3.806271e-06	-7.135871e-10	-2.642875e+01	-4.600965e+01
9.600000e-07	-3.771745e-06	-7.019702e-10	-2.618902e+01	-4.587547e+01
9.700000e-07	-3.736829e-06	-7.026735e-10	-2.594658e+01	-4.574249e+01
9.800000e-07	-3.701540e-06	-7.100296e-10	-2.570156e+01	-4.561060e+01
9.900000e-07	-3.665990e-06	-7.059142e-10	-2.545472e+01	-4.547963e+01
1.000000e-06	-3.630349e-06	-6.992010e-10	-2.520724e+01	-4.534941e+01
1.010000e-06	-3.594575e-06	-7.033328e-10	-2.495885e+01	-4.521970e+01
1.020000e-06	-3.558661e-06	-6.981343e-10	-2.470948e+01	-4.509024e+01
1.030000e-06	-3.522614e-06	-6.898811e-10	-2.445919e+01	-4.496073e+01
1.040000e-06	-3.486345e-06	-6.897112e-10	-2.420736e+01	-4.483084e+01
1.050000e-06	-3.449766e-06	-6.887006e-10	-2.395337e+01	-4.470020e+01
1.060000e-06	-3.413001e-06	-6.773528e-10	-2.369810e+01	-4.456843e+01
1.070000e-06	-3.376021e-06	-6.721861e-10	-2.344132e+01	-4.443510e+01
1.080000e-06	-3.338690e-06	-6.746885e-10	-2.318212e+01	-4.429977e+01
1.090000e-06	-3.301044e-06	-6.707761e-10	-2.292072e+01	-4.416198e+01
1.100000e-06	-3.263158e-06	-6.672407e-10	-2.265766e+01	-4.402126e+01
1.110000e-06	-3.225182e-06	-6.673757e-10	-2.239398e+01	-4.387712e+01
1.120000e-06	-3.187008e-06	-6.631340e-10	-2.212891e+01	-4.372906e+01
1.130000e-06	-3.148594e-06	-6.544115e-10	-2.186219e+01	-4.357658e+01
1.140000e-06	-3.109981e-06	-6.515285e-10	-2.159408e+01	-4.341919e+01
1.150000e-06	-3.071058e-06	-6.475737e-10	-2.132382e+01	-4.325638e+01
1.160000e-06	-3.031925e-06	-6.407192e-10	-2.105210e+01	-4.308767e+01
1.170000e-06	-2.992715e-06	-6.376498e-10	-2.077985e+01	-4.291260e+01
1.180000e-06	-2.953355e-06	-6.374501e-10	-2.050655e+01	-4.273069e+01
1.190000e-06	-2.913731e-06	-6.335288e-10	-2.023142e+01	-4.254151e+01
1.200000e-06	-2.873940e-06	-6.319377e-10	-1.995513e+01	-4.234466e+01
1.210000e-06	-2.834079e-06	-6.307920e-10	-1.967836e+01	-4.213975e+01
1.220000e-06	-2.794096e-06	-6.274076e-10	-1.940074e+01	-4.192643e+01
1.230000e-06	-2.754022e-06	-6.204033e-10	-1.912249e+01	-4.170438e+01
1.240000e-06	-2.713737e-06	-6.162642e-10	-1.884277e+01	-4.147330e+01
1.250000e-06	-2.673153e-06	-6.100071e-10	-1.856097e+01	-4.123297e+01
1.260000e-06	-2.632409e-06	-6.038302e-10	-1.827807e+01	-4.098318e+01
1.270000e-06	-2.591520e-06	-5.998441e-10	-1.799416e+01	-4.072375e+01
1.280000e-06	-2.550396e-06	-5.978993e-10	-1.770862e+01	-4.045457e+01
1.290000e-06	-2.508924e-06	-5.937539e-10	-1.742066e+01	-4.017556e+01
1.300000e-06	-2.467058e-06	-5.902148e-10	-1.712996e+01	-3.988668e+01
1.310000e-06	-2.424838e-06	-5.871220e-10	-1.683681e+01	-3.958792e+01
1.320000e-06	-2.382371e-06	-5.832325e-10	-1.654194e+01	-3.927934e+01
1.330000e-06	-2.339674e-06	-5.781211e-10	-1.624547e+01	-3.896100e+01
1.340000e-06	-2.296686e-06	-5.739686e-10	-1.594698e+01	-3.863302e+01
1.350000e-06	-2.253401e-06	-5.681119e-10	-1.564644e+01	-3.829555e+01
1.360000e-06	-2.209923e-06	-5.604968e-10	-1.534455e+01	-3.794876e+01
1.370000e-06	-2.166316e-06	-5.526617e-10	-1.504176e+01	-3.759285e+01
1.380000e-06	-2.122631e-06	-5.467696e-10	-1.473844e+01	-3.722805e+01
1.390000e-06	-2.078874e-06	-5.430405e-10	-1.443461e+01	-3.685459e+01
1.400000e-06	-2.035026e-06	-5.391626e-10	-1.413016e+01	-3.647274e+01
1.410000e-06	-1.991131e-06	-5.364083e-10	-1.382537e+01	-3.608275e+01
1.420000e-06	-1.947188e-06	-5.324199e-10	-1.352026e+01	-3.568490e+01
1.430000e-06	-1.903141e-06	-5.253732e-10	-1.321442e+01	-3.527944e+01
1.440000e-06	-1.858969e-06	-5.168182e-10	-1.290771e+01	-3.486664e+01
1.450000e-06	-1.814759e-06	-5.094484e-10	-1.260074e+01	-3.444675e+01
1.460000e-06	-1.770451e-06	-4.998462e-10	-1.229308e+01	-3.402000e+01
1.470000e-06	-1.726029e-06	-4.917458e-10	-1.198464e+01	-3.358661e+01
1.480000e-06	-1.681467e-06	-4.847981e-10	-1.167523e+01	-3.314677e+01
1.490000e-06	-1.636677e-06	-4.788569e-10	-1.136423e+01	-3.270062e+01
1.500000e-06	-1.591787e-06	-4.744663e-10	-1.105253e+01	-3.224829e+01
1.510000e-06	-1.546841e-06	-4.710297e-10	-1.074045e+01	-3.178988e+01
1.520000e-06	-1.501807e-06	-4.646258e-10	-1.042776e+01	-3.132542e+01
1.530000e-06	-1.456588e-06	-4.573280e-10	-1.011378e+01	-3.085492e+01
1.540000e-06	-1.411231e-06	-4.486182e-10	-9.798852e+00	-3.037833e+01
1.550000e-06	-1.365797e-06	-4.372382e-10	-9.483383e+00	-2.989555e+01
1.560000e-06	-1.320196e-06	-4.249262e-10	-9.166753e+00	-2.940645e+01
1.570000e-06	-1.274503e-06	-4.148467e-10	-8.849485e+00	-2.891084e+01
1.580000e-06	-1.228760e-06	-4.074177e-10	-8.531867e+00	-2.840846e+01
1.590000e-06	-1.182946e-06	-4.028144e-10	-8.213762e+00	-2.789902e+01
1.600000e-06	-1.137033e-06	-3.980517e-10	-7.894959e+00	-2.738219e+01
1.610000e-06	-1.090954e-06	-3.922965e-10	-7.575012e+00	-2.685757e+01
1.620000e-06	-1.044805e-06	-3.859812e-10	-7.254580e+00	-2.632473e+01
1.630000e-06	-9.986617e-07	-3.777763e-10	-6.934184e+00	-2.578319e+01
1.640000e-06	-9.524585e-07	-3.668867e-10	-6.613373e+00	-2.523245e+01
1.650000e-06	-9.062138e-07	-3.538051e-10	-6.292275e+00	-2.467195e+01
1.660000e-06	-8.598885e-07	-3.416787e-10	-5.970616e+00	-2.410113e+01
1.670000e-06	-8.134666e-07	-3.320393e-10	-5.648287e+00	-2.351937e+01
1.680000e-06	-7.670498e-07	-3.244300e-10	-5.325993e+00	-2.292607e+01
1.690000e-06	-7.206428e-07	-3.190736e-10	-5.003766e+00	-2.232060e+01
1.700000e-06	-6.741537e-07	-3.154102e-10	-4.680971e+00	-2.170233e+01
1.710000e-06	-6.276024e-07	-3.070183e-10	-4.357743e+00	-2.107061e+01
1.720000e-06	-5.809974e-07	-2.945891e-10	-4.034142e+00	-2.042484e+01
1.730000e-06	-5.343006e-07	-2.826564e-10	-3.709904e+00	-1.976440e+01
1.740000e-06	-4.876165e-07	-2.710059e-10	-3.385754e+00	-1.908871e+01
1.750000e-06	-4.408611e-07	-2.584361e-10	-3.061109e+00	-1.839721e+01
1.760000e-06	-3.939603e-07	-2.453502e-10	-2.735454e+00	-1.768940e+01
1.770000e-06	-3.470822e-07	-2.323750e-10	-2.409957e+00	-1.696479e+01
1.780000e-06	-3.001891e-07	-2.208660e-10	-2.084356e+00	-1.622298e+01
1.790000e-06	-2.532617e-07	-2.088518e-10	-1.758517e+00	-1.546360e+01
1.800000e-06	-2.063420e-07	-1.954126e-10	-1.432731e+00	-1.468636e+01
1.810000e-06	-1.593716e-07	-1.812979e-10	-1.106593e+00	-1.389103e+01
1.820000e-06	-1.123457e-07	-1.682511e-10	-7.800700e-01	-1.307747e+01
1.830000e-06	-6.541661e-08	-1.574317e-10	-4.542187e-01	-1.224560e+01
1.840000e-06	-1.863440e-08	-1.458678e-10	-1.293875e-01	-1.139545e+01
1.850000e-06	2.821713e-08	-1.323458e-10	1.959250e-01	-1.052713e+01
1.860000e-06	7.514962e-08	-1.194026e-10	5.217996e-01	-9.640827e+00
1.870000e-06	1.220176e-07	-1.047227e-10	8.472264e-01	-8.736846e+00
1.880000e-06	1.688838e-07	-8.940202e-11	1.172641e+00	-7.815575e+00
1.890000e-06	2.157996e-07	-7.584719e-11	1.498399e+00	-6.877502e+00
1.900000e-06	2.627003e-07	-6.385840e-11	1.824053e+00	-5.923209e+00
1.910000e-06	3.095522e-07	-5.378082e-11	2.149369e+00	-4.953377e+00
1.920000e-06	3.563641e-07	-4.350984e-11	2.474406e+00	-3.968779e+00
1.930000e-06	4.030654e-07	-3.134157e-11	2.798676e+00	-2.970281e+00
1.940000e-06	4.497142e-07	-1.588245e-11	3.122580e+00	-1.958836e+00
1.950000e-06	4.963956e-07	-1.170529e-12	3.446711e+00	-9.354814e-01
1.960000e-06	5.429959e-07	1.164461e-11	3.770279e+00	9.866598e-02
1.970000e-06	5.895147e-07	2.515403e-11	4.093282e+00	1.142415e+00
1.980000e-06	6.360093e-07	4.083725e-11	4.416116e+00	2.194508e+00
1.990000e-06	6.824474e-07	5.728411e-11	4.738558e+00	3.253625e+00
2.000000e-06	7.288064e-07	7.238763e-11	5.060450e+00	4.318393e+00
2.010000e-06	7.751687e-07	8.595343e-11	5.382366e+00	5.387395e+00
2.020000e-06	8.215254e-07	9.904243e-11	5.704243e+00	6.459174e+00
2.030000e-06	8.678491e-07	1.122508e-10	6.025890e+00	7.532246e+00
2.040000e-06	9.141432e-07	1.267808e-10	6.347332e+00	8.605107e+00
2.050000e-06	9.603418e-07	1.417790e-10	6.668111e+00	9.676242e+00
2.060000e-06	1.006455e-06	1.582036e-10	6.988295e+00	1.074413e+01
2.070000e-06	1.052505e-06	1.765040e-10	7.308044e+00	1.180728e+01
2.080000e-06	1.098499e-06	1.943675e-10	7.627401e+00	1.286418e+01
2.090000e-06	1.144386e-06	2.103511e-10	7.946018e+00	1.391337e+01
2.100000e-06	1.190083e-06	2.232866e-10	8.263312e+00	1.495342e+01
2.110000e-06	1.235679e-06	2.346540e-10	8.579911e+00	1.598296e+01
2.120000e-06	1.281260e-06	2.461710e-10	8.896398e+00	1.700063e+01
2.130000e-06	1.326802e-06	2.574860e-10	9.212621e+00	1.800518e+01
2.140000e-06	1.372283e-06	2.692892e-10	9.528413e+00	1.899539e+01
2.150000e-06	1.417662e-06	2.825341e-10	9.843501e+00	1.997013e+01
2.160000e-06	1.462949e-06	2.963502e-10	1.015795e+01	2.092835e+01
2.170000e-06	1.508069e-06	3.113477e-10	1.047124e+01	2.186909e+01
2.180000e-06	1.552969e-06	3.266033e-10	1.078300e+01	2.279146e+01
2.190000e-06	1.597786e-06	3.406566e-10	1.109419e+01	2.369470e+01
2.200000e-06	1.642560e-06	3.524490e-10	1.140508e+01	2.457811e+01
2.210000e-06	1.687241e-06	3.638429e-10	1.171532e+01	2.544113e+01
2.220000e-06	1.731774e-06	3.739470e-10	1.202453e+01	2.628326e+01
2.230000e-06	1.776217e-06	3.840832e-10	1.233312e+01	2.710414e+01
2.240000e-06	1.820572e-06	3.945092e-10	1.264110e+01	2.790350e+01
2.250000e-06	1.864741e-06	4.014765e-10	1.294779e+01	2.868116e+01
2.260000e-06	1.908796e-06	4.106968e-10	1.325368e+01	2.943705e+01
2.270000e-06	1.952788e-06	4.229401e-10	1.355914e+01	3.017122e+01
2.280000e-06	1.996700e-06	4.366307e-10	1.386404e+01	3.088377e+01
2.290000e-06	2.040565e-06	4.479117e-10	1.416862e+01	3.157494e+01
2.300000e-06	2.084371e-06	4.571185e-10	1.447278e+01	3.224502e+01
2.310000e-06	2.128102e-06	4.641916e-10	1.477643e+01	3.289440e+01
2.320000e-06	2.171742e-06	4.671179e-10	1.507944e+01	3.352353e+01
2.330000e-06	2.215261e-06	4.688179e-10	1.538161e+01	3.413296e+01
2.340000e-06	2.258639e-06	4.724539e-10	1.568281e+01	3.472326e+01
2.350000e-06	2.301861e-06	4.820807e-10	1.598292e+01	3.529510e+01
2.360000e-06	2.344844e-06	4.970380e-10	1.628137e+01	3.584917e+01
2.370000e-06	2.387561e-06	5.113537e-10	1.657797e+01	3.638621e+01
2.380000e-06	2.430037e-06	5.203163e-10	1.687290e+01	3.690698e+01
2.390000e-06	2.472195e-06	5.253246e-10	1.716563e+01	3.741229e+01
2.400000e-06	2.514037e-06	5.278112e-10	1.745616e+01	3.790295e+01
2.410000e-06	2.555543e-06	5.313305e-10	1.774436e+01	3.837977e+01
2.420000e-06	2.596715e-06	5.397136e-10	1.803023e+01	3.884359e+01
2.430000e-06	2.637555e-06	5.505928e-10	1.831380e+01	3.929522e+01
2.440000e-06	2.678107e-06	5.600461e-10	1.859537e+01	3.973547e+01
2.450000e-06	2.718483e-06	5.691008e-10	1.887572e+01	4.016512e+01
2.460000e-06	2.758720e-06	5.781459e-10	1.915511e+01	4.058493e+01
2.470000e-06	2.798827e-06	5.847042e-10	1.943359e+01	4.099562e+01
2.480000e-06	2.838772e-06	5.886605e-10	1.971095e+01	4.139788e+01
2.490000e-06	2.878583e-06	5.935359e-10	1.998737e+01	4.179237e+01
2.500000e-06	2.918249e-06	6.017082e-10	2.026279e+01	4.217967e+01
2.510000e-06	2.957747e-06	6.113323e-10	2.053705e+01	4.256033e+01
2.520000e-06	2.997070e-06	6.178879e-10	2.081009e+01	4.293484e+01
2.530000e-06	3.036247e-06	6.225655e-10	2.108211e+01	4.330365e+01
2.540000e-06	3.075245e-06	6.266470e-10	2.135290e+01	4.366712e+01
2.550000e-06	3.113966e-06	6.305603e-10	2.162175e+01	4.402557e+01
2.560000e-06	3.152458e-06	6.354323e-10	2.188902e+01	4.437925e+01
2.570000e-06	3.190726e-06	6.413057e-10	2.215473e+01	4.472838e+01
2.580000e-06	3.228742e-06	6.478920e-10	2.241869e+01	4.507307e+01
2.590000e-06	3.266613e-06	6.543665e-10	2.268165e+01	4.541341e+01
2.600000e-06	3.304358e-06	6.597232e-10	2.294373e+01	4.574943e+01
2.610000e-06	3.341854e-06	6.642408e-10	2.320409e+01	4.608108e+01
2.620000e-06	3.379057e-06	6.686726e-10	2.346240e+01	4.640830e+01
2.630000e-06	3.416018e-06	6.723775e-10	2.371904e+01	4.673095e+01
2.640000e-06	3.452707e-06	6.738378e-10	2.397379e+01	4.704886e+01
2.650000e-06	3.489144e-06	6.759683e-10	2.422679e+01	4.736182e+01
2.660000e-06	3.525405e-06	6.819231e-10	2.447857e+01	4.766959e+01
2.670000e-06	3.561501e-06	6.888082e-10	2.472920e+01	4.797189e+01
2.680000e-06	3.597442e-06	6.958516e-10	2.497876e+01	4.826844e+01
2.690000e-06	3.633245e-06	7.030892e-10	2.522736e+01	4.855891e+01
2.700000e-06	3.668908e-06	7.090553e-10	2.547497e+01	4.884298e+01
2.710000e-06	3.704393e-06	7.129382e-10	2.572137e+01	4.912030e+01
2.720000e-06	3.739629e-06	7.155486e-10	2.596603e+01	4.939055e+01
2.730000e-06	3.774458e-06	7.183679e-10	2.620786e+01	4.965339e+01
2.740000e-06	3.808877e-06	7.189018e-10	2.644685e+01	4.990847e+01
2.750000e-06	3.842850e-06	7.185836e-10	2.668274e+01	5.015550e+01
2.760000e-06	3.876340e-06	7.215332e-10	2.691528e+01	5.039418e+01
2.770000e-06	3.909386e-06	7.273140e-10	2.714473e+01	5.062421e+01
2.780000e-06	3.941987e-06	7.347751e-10	2.737110e+01	5.084536e+01
2.790000e-06	3.974268e-06	7.426592e-10	2.759524e+01	5.105739e+01
2.800000e-06	4.006309e-06	7.490257e-10	2.781771e+01	5.126013e+01
2.810000e-06	4.038199e-06	7.512609e-10	2.803914e+01	5.145341e+01
2.820000e-06	4.069978e-06	7.489090e-10	2.825980e+01	5.163713e+01
2.830000e-06	4.101548e-06	7.447725e-10	2.847901e+01	5.181119e+01
2.840000e-06	4.132863e-06	7.415421e-10	2.869644e+01	5.197557e+01
2.850000e-06	4.163890e-06	7.427408e-10	2.891187e+01	5.213028e+01
2.860000e-06	4.194580e-06	7.490793e-10	2.912497e+01	5.227536e+01
2.870000e-06	4.224990e-06	7.554702e-10	2.933612e+01	5.241090e+01
2.880000e-06	4.255147e-06	7.614397e-10	2.954551e+01	5.253705e+01
2.890000e-06	4.285006e-06	7.665684e-10	2.975284e+01	5.265398e+01
2.900000e-06	4.314555e-06	7.680448e-10	2.995801e+01	5.276190e+01
