# Temperatura_=_-1.4
# Concentracion g/m^3_=_1620.0
# C_Vs_to_Am_M_A/Vsm_=_65563218390.804596
# pendiente_HvsI_1/m_=_3716.3
# ordenada_HvsI_A/m_=_1297.0
# frecuencia_Hz_=_135093.1398088497

Tiempo_(s)	Campo_(V.s)	Magnetizacion_(V.s)	Campo_(kA/m)	Magnetizacion_(A/m)
0.000000e+00	-5.522193e-06	-1.101300e-09	-3.837048e+01	-7.277269e+01
1.000000e-08	-5.522434e-06	-1.094943e-09	-3.837216e+01	-7.270369e+01
2.000000e-08	-5.522419e-06	-1.092768e-09	-3.837205e+01	-7.263201e+01
3.000000e-08	-5.522147e-06	-1.095238e-09	-3.837016e+01	-7.255778e+01
4.000000e-08	-5.521337e-06	-1.098212e-09	-3.836453e+01	-7.248113e+01
5.000000e-08	-5.519899e-06	-1.099236e-09	-3.835454e+01	-7.240220e+01
6.000000e-08	-5.517977e-06	-1.099060e-09	-3.834119e+01	-7.232114e+01
7.000000e-08	-5.515474e-06	-1.097667e-09	-3.832380e+01	-7.223811e+01
8.000000e-08	-5.512325e-06	-1.068635e-09	-3.830191e+01	-7.215326e+01
9.000000e-08	-5.508715e-06	-1.060004e-09	-3.827683e+01	-7.206675e+01
1.000000e-07	-5.504748e-06	-1.145750e-09	-3.824926e+01	-7.197873e+01
1.100000e-07	-5.500383e-06	-1.185432e-09	-3.821894e+01	-7.188936e+01
1.200000e-07	-5.495748e-06	-1.061169e-09	-3.818673e+01	-7.179880e+01
1.300000e-07	-5.491040e-06	-9.880956e-10	-3.815402e+01	-7.170719e+01
1.400000e-07	-5.486135e-06	-1.078306e-09	-3.811993e+01	-7.161467e+01
1.500000e-07	-5.480670e-06	-1.170160e-09	-3.808196e+01	-7.152138e+01
1.600000e-07	-5.474729e-06	-1.064085e-09	-3.804068e+01	-7.142743e+01
1.700000e-07	-5.468550e-06	-9.881445e-10	-3.799774e+01	-7.133294e+01
1.800000e-07	-5.461882e-06	-1.075862e-09	-3.795141e+01	-7.123802e+01
1.900000e-07	-5.454771e-06	-1.171274e-09	-3.790201e+01	-7.114274e+01
2.000000e-07	-5.447333e-06	-1.097001e-09	-3.785032e+01	-7.104718e+01
2.100000e-07	-5.439598e-06	-1.027695e-09	-3.779658e+01	-7.095140e+01
2.200000e-07	-5.431628e-06	-1.064718e-09	-3.774120e+01	-7.085544e+01
2.300000e-07	-5.423373e-06	-1.120809e-09	-3.768384e+01	-7.075932e+01
2.400000e-07	-5.414853e-06	-1.095363e-09	-3.762463e+01	-7.066305e+01
2.500000e-07	-5.405813e-06	-1.054197e-09	-3.756182e+01	-7.056661e+01
2.600000e-07	-5.395927e-06	-1.068457e-09	-3.749313e+01	-7.046999e+01
2.700000e-07	-5.385296e-06	-1.086636e-09	-3.741926e+01	-7.037313e+01
2.800000e-07	-5.374166e-06	-1.072784e-09	-3.734193e+01	-7.027597e+01
2.900000e-07	-5.362616e-06	-1.047315e-09	-3.726168e+01	-7.017842e+01
3.000000e-07	-5.350674e-06	-1.062506e-09	-3.717870e+01	-7.008039e+01
3.100000e-07	-5.338362e-06	-1.070011e-09	-3.709315e+01	-6.998177e+01
3.200000e-07	-5.325672e-06	-1.076428e-09	-3.700497e+01	-6.988243e+01
3.300000e-07	-5.312579e-06	-1.035675e-09	-3.691400e+01	-6.978221e+01
3.400000e-07	-5.299084e-06	-1.034826e-09	-3.682023e+01	-6.968098e+01
3.500000e-07	-5.285227e-06	-1.057612e-09	-3.672394e+01	-6.957856e+01
3.600000e-07	-5.270944e-06	-1.052980e-09	-3.662470e+01	-6.947476e+01
3.700000e-07	-5.256080e-06	-1.011147e-09	-3.652142e+01	-6.936942e+01
3.800000e-07	-5.240845e-06	-1.051954e-09	-3.641556e+01	-6.926233e+01
3.900000e-07	-5.225143e-06	-1.065842e-09	-3.630645e+01	-6.915330e+01
4.000000e-07	-5.208721e-06	-1.002663e-09	-3.619235e+01	-6.904213e+01
4.100000e-07	-5.191964e-06	-1.011059e-09	-3.607591e+01	-6.892861e+01
4.200000e-07	-5.175028e-06	-1.079619e-09	-3.595823e+01	-6.881255e+01
4.300000e-07	-5.157758e-06	-1.012925e-09	-3.583824e+01	-6.869374e+01
4.400000e-07	-5.140147e-06	-9.598078e-10	-3.571587e+01	-6.857199e+01
4.500000e-07	-5.122151e-06	-1.056250e-09	-3.559083e+01	-6.844712e+01
4.600000e-07	-5.103730e-06	-1.063555e-09	-3.546283e+01	-6.831894e+01
4.700000e-07	-5.084845e-06	-9.517937e-10	-3.533160e+01	-6.818728e+01
4.800000e-07	-5.065610e-06	-9.987352e-10	-3.519795e+01	-6.805199e+01
4.900000e-07	-5.046148e-06	-1.070431e-09	-3.506272e+01	-6.791291e+01
5.000000e-07	-5.026432e-06	-9.783734e-10	-3.492573e+01	-6.776993e+01
5.100000e-07	-5.006497e-06	-9.663215e-10	-3.478721e+01	-6.762292e+01
5.200000e-07	-4.986432e-06	-1.059922e-09	-3.464779e+01	-6.747178e+01
5.300000e-07	-4.966044e-06	-1.001031e-09	-3.450613e+01	-6.731644e+01
5.400000e-07	-4.945230e-06	-9.415699e-10	-3.436150e+01	-6.715684e+01
5.500000e-07	-4.924066e-06	-1.042421e-09	-3.421445e+01	-6.699294e+01
5.600000e-07	-4.902508e-06	-1.035373e-09	-3.406465e+01	-6.682471e+01
5.700000e-07	-4.880609e-06	-9.336485e-10	-3.391249e+01	-6.665216e+01
5.800000e-07	-4.858447e-06	-9.828235e-10	-3.375850e+01	-6.647530e+01
5.900000e-07	-4.835948e-06	-1.030601e-09	-3.360216e+01	-6.629418e+01
6.000000e-07	-4.812899e-06	-9.433620e-10	-3.344201e+01	-6.610886e+01
6.100000e-07	-4.789540e-06	-9.493262e-10	-3.327971e+01	-6.591941e+01
6.200000e-07	-4.766052e-06	-1.013195e-09	-3.311650e+01	-6.572595e+01
6.300000e-07	-4.742325e-06	-9.632369e-10	-3.295164e+01	-6.552858e+01
6.400000e-07	-4.718403e-06	-9.303732e-10	-3.278541e+01	-6.532744e+01
6.500000e-07	-4.694202e-06	-9.864531e-10	-3.261726e+01	-6.512269e+01
6.600000e-07	-4.669487e-06	-9.698487e-10	-3.244552e+01	-6.491447e+01
6.700000e-07	-4.644299e-06	-9.336094e-10	-3.227051e+01	-6.470298e+01
6.800000e-07	-4.618710e-06	-9.673279e-10	-3.209270e+01	-6.448840e+01
6.900000e-07	-4.592419e-06	-9.742093e-10	-3.191003e+01	-6.427092e+01
7.000000e-07	-4.565481e-06	-9.312874e-10	-3.172285e+01	-6.405075e+01
7.100000e-07	-4.538279e-06	-9.425178e-10	-3.153384e+01	-6.382810e+01
7.200000e-07	-4.510866e-06	-9.565175e-10	-3.134336e+01	-6.360318e+01
7.300000e-07	-4.483187e-06	-9.289522e-10	-3.115104e+01	-6.337619e+01
7.400000e-07	-4.455345e-06	-9.243064e-10	-3.095758e+01	-6.314736e+01
7.500000e-07	-4.427442e-06	-9.452277e-10	-3.076370e+01	-6.291689e+01
7.600000e-07	-4.399383e-06	-9.298741e-10	-3.056873e+01	-6.268497e+01
7.700000e-07	-4.370906e-06	-9.139456e-10	-3.037087e+01	-6.245180e+01
7.800000e-07	-4.341995e-06	-9.242434e-10	-3.016998e+01	-6.221757e+01
7.900000e-07	-4.312692e-06	-9.154898e-10	-2.996637e+01	-6.198245e+01
8.000000e-07	-4.283045e-06	-9.030579e-10	-2.976037e+01	-6.174658e+01
8.100000e-07	-4.253163e-06	-9.178271e-10	-2.955273e+01	-6.151012e+01
8.200000e-07	-4.223004e-06	-9.232681e-10	-2.934318e+01	-6.127319e+01
8.300000e-07	-4.192519e-06	-9.049322e-10	-2.913136e+01	-6.103589e+01
8.400000e-07	-4.161821e-06	-9.042125e-10	-2.891805e+01	-6.079830e+01
8.500000e-07	-4.130861e-06	-9.088021e-10	-2.870293e+01	-6.056049e+01
8.600000e-07	-4.099623e-06	-8.919792e-10	-2.848587e+01	-6.032251e+01
8.700000e-07	-4.068182e-06	-8.834779e-10	-2.826741e+01	-6.008437e+01
8.800000e-07	-4.036525e-06	-8.916733e-10	-2.804744e+01	-5.984606e+01
8.900000e-07	-4.004685e-06	-8.822238e-10	-2.782621e+01	-5.960755e+01
9.000000e-07	-3.972638e-06	-8.718641e-10	-2.760353e+01	-5.936880e+01
9.100000e-07	-3.940331e-06	-8.761556e-10	-2.737905e+01	-5.912971e+01
9.200000e-07	-3.907722e-06	-8.710879e-10	-2.715247e+01	-5.889020e+01
9.300000e-07	-3.874670e-06	-8.542539e-10	-2.692281e+01	-5.865014e+01
9.400000e-07	-3.841159e-06	-8.586481e-10	-2.668996e+01	-5.840938e+01
9.500000e-07	-3.807226e-06	-8.621963e-10	-2.645418e+01	-5.816774e+01
9.600000e-07	-3.772820e-06	-8.488028e-10	-2.621511e+01	-5.792505e+01
9.700000e-07	-3.738017e-06	-8.452667e-10	-2.597329e+01	-5.768109e+01
9.800000e-07	-3.702901e-06	-8.491210e-10	-2.572929e+01	-5.743564e+01
9.900000e-07	-3.667488e-06	-8.373079e-10	-2.548322e+01	-5.718845e+01
1.000000e-06	-3.631854e-06	-8.295243e-10	-2.523563e+01	-5.693927e+01
1.010000e-06	-3.596138e-06	-8.360325e-10	-2.498745e+01	-5.668782e+01
1.020000e-06	-3.560272e-06	-8.358326e-10	-2.473824e+01	-5.643384e+01
1.030000e-06	-3.524211e-06	-8.252127e-10	-2.448767e+01	-5.617702e+01
1.040000e-06	-3.487978e-06	-8.231398e-10	-2.423591e+01	-5.591707e+01
1.050000e-06	-3.451585e-06	-8.182242e-10	-2.398304e+01	-5.565369e+01
1.060000e-06	-3.414915e-06	-8.016993e-10	-2.372824e+01	-5.538659e+01
1.070000e-06	-3.377953e-06	-7.927036e-10	-2.347142e+01	-5.511545e+01
1.080000e-06	-3.340677e-06	-7.927590e-10	-2.321240e+01	-5.483997e+01
1.090000e-06	-3.303111e-06	-7.864095e-10	-2.295138e+01	-5.455986e+01
1.100000e-06	-3.265409e-06	-7.802412e-10	-2.268941e+01	-5.427483e+01
1.110000e-06	-3.227492e-06	-7.799244e-10	-2.242595e+01	-5.398459e+01
1.120000e-06	-3.189361e-06	-7.714580e-10	-2.216100e+01	-5.368886e+01
1.130000e-06	-3.150930e-06	-7.585312e-10	-2.189396e+01	-5.338739e+01
1.140000e-06	-3.112202e-06	-7.536333e-10	-2.162486e+01	-5.307992e+01
1.150000e-06	-3.073328e-06	-7.505740e-10	-2.135475e+01	-5.276620e+01
1.160000e-06	-3.034304e-06	-7.404569e-10	-2.108360e+01	-5.244603e+01
1.170000e-06	-2.995107e-06	-7.350247e-10	-2.081124e+01	-5.211919e+01
1.180000e-06	-2.955722e-06	-7.310189e-10	-2.053758e+01	-5.178549e+01
1.190000e-06	-2.916177e-06	-7.215604e-10	-2.026280e+01	-5.144475e+01
1.200000e-06	-2.876525e-06	-7.126808e-10	-1.998729e+01	-5.109683e+01
1.210000e-06	-2.836771e-06	-7.104853e-10	-1.971106e+01	-5.074157e+01
1.220000e-06	-2.796866e-06	-7.061824e-10	-1.943378e+01	-5.037886e+01
1.230000e-06	-2.756790e-06	-6.991431e-10	-1.915532e+01	-5.000859e+01
1.240000e-06	-2.716551e-06	-6.932165e-10	-1.887572e+01	-4.963067e+01
1.250000e-06	-2.676079e-06	-6.856920e-10	-1.859450e+01	-4.924503e+01
1.260000e-06	-2.635316e-06	-6.769245e-10	-1.831126e+01	-4.885162e+01
1.270000e-06	-2.594178e-06	-6.714122e-10	-1.802542e+01	-4.845038e+01
1.280000e-06	-2.552743e-06	-6.687089e-10	-1.773751e+01	-4.804129e+01
1.290000e-06	-2.511188e-06	-6.632309e-10	-1.744877e+01	-4.762432e+01
1.300000e-06	-2.469324e-06	-6.557114e-10	-1.715788e+01	-4.719947e+01
1.310000e-06	-2.427047e-06	-6.484319e-10	-1.686413e+01	-4.676673e+01
1.320000e-06	-2.384524e-06	-6.400987e-10	-1.656866e+01	-4.632611e+01
1.330000e-06	-2.341798e-06	-6.315975e-10	-1.627178e+01	-4.587761e+01
1.340000e-06	-2.298863e-06	-6.274784e-10	-1.597345e+01	-4.542124e+01
1.350000e-06	-2.255678e-06	-6.243538e-10	-1.567339e+01	-4.495701e+01
1.360000e-06	-2.212258e-06	-6.155643e-10	-1.537168e+01	-4.448494e+01
1.370000e-06	-2.168748e-06	-6.038476e-10	-1.506936e+01	-4.400502e+01
1.380000e-06	-2.125225e-06	-5.933788e-10	-1.476694e+01	-4.351726e+01
1.390000e-06	-2.081602e-06	-5.844891e-10	-1.446383e+01	-4.302165e+01
1.400000e-06	-2.037858e-06	-5.766360e-10	-1.415988e+01	-4.251817e+01
1.410000e-06	-1.994060e-06	-5.725474e-10	-1.385555e+01	-4.200679e+01
1.420000e-06	-1.950230e-06	-5.687311e-10	-1.355101e+01	-4.148749e+01
1.430000e-06	-1.906252e-06	-5.602274e-10	-1.324543e+01	-4.096019e+01
1.440000e-06	-1.862181e-06	-5.509522e-10	-1.293920e+01	-4.042485e+01
1.450000e-06	-1.818055e-06	-5.418390e-10	-1.263260e+01	-3.988135e+01
1.460000e-06	-1.773809e-06	-5.303569e-10	-1.232516e+01	-3.932962e+01
1.470000e-06	-1.729446e-06	-5.178836e-10	-1.201690e+01	-3.876952e+01
1.480000e-06	-1.684895e-06	-5.089151e-10	-1.170735e+01	-3.820092e+01
1.490000e-06	-1.640151e-06	-5.029376e-10	-1.139645e+01	-3.762366e+01
1.500000e-06	-1.595292e-06	-4.956684e-10	-1.108475e+01	-3.703757e+01
1.510000e-06	-1.550308e-06	-4.874386e-10	-1.077218e+01	-3.644244e+01
1.520000e-06	-1.505203e-06	-4.784487e-10	-1.045877e+01	-3.583807e+01
1.530000e-06	-1.459997e-06	-4.652707e-10	-1.014466e+01	-3.522422e+01
1.540000e-06	-1.414642e-06	-4.509206e-10	-9.829518e+00	-3.460066e+01
1.550000e-06	-1.369152e-06	-4.383888e-10	-9.513435e+00	-3.396711e+01
1.560000e-06	-1.323639e-06	-4.281277e-10	-9.197192e+00	-3.332330e+01
1.570000e-06	-1.278064e-06	-4.187370e-10	-8.880516e+00	-3.266894e+01
1.580000e-06	-1.232330e-06	-4.113217e-10	-8.562741e+00	-3.200373e+01
1.590000e-06	-1.186519e-06	-4.041023e-10	-8.244426e+00	-3.132736e+01
1.600000e-06	-1.140598e-06	-3.937504e-10	-7.925345e+00	-3.063952e+01
1.610000e-06	-1.094602e-06	-3.826942e-10	-7.605745e+00	-2.993989e+01
1.620000e-06	-1.048613e-06	-3.704107e-10	-7.286200e+00	-2.922816e+01
1.630000e-06	-1.002529e-06	-3.598032e-10	-6.965984e+00	-2.850399e+01
1.640000e-06	-9.563362e-07	-3.484287e-10	-6.645019e+00	-2.776708e+01
1.650000e-06	-9.100838e-07	-3.336812e-10	-6.323638e+00	-2.701712e+01
1.660000e-06	-8.638013e-07	-3.197891e-10	-6.002048e+00	-2.625382e+01
1.670000e-06	-8.175006e-07	-3.071987e-10	-5.680332e+00	-2.547688e+01
1.680000e-06	-7.710786e-07	-2.943739e-10	-5.357773e+00	-2.468604e+01
1.690000e-06	-7.245840e-07	-2.812310e-10	-5.034709e+00	-2.388105e+01
1.700000e-06	-6.781722e-07	-2.706421e-10	-4.712221e+00	-2.306169e+01
1.710000e-06	-6.317239e-07	-2.590523e-10	-4.389479e+00	-2.222774e+01
1.720000e-06	-5.851179e-07	-2.444806e-10	-4.065641e+00	-2.137905e+01
1.730000e-06	-5.384730e-07	-2.291605e-10	-3.741533e+00	-2.051545e+01
1.740000e-06	-4.917853e-07	-2.150801e-10	-3.417128e+00	-1.963684e+01
1.750000e-06	-4.450390e-07	-2.022229e-10	-3.092315e+00	-1.874314e+01
1.760000e-06	-3.982997e-07	-1.902492e-10	-2.767551e+00	-1.783432e+01
1.770000e-06	-3.515525e-07	-1.777501e-10	-2.442732e+00	-1.691037e+01
1.780000e-06	-3.048002e-07	-1.650264e-10	-2.117878e+00	-1.597134e+01
1.790000e-06	-2.578810e-07	-1.515863e-10	-1.791864e+00	-1.501732e+01
1.800000e-06	-2.108590e-07	-1.348306e-10	-1.465136e+00	-1.404842e+01
1.810000e-06	-1.640944e-07	-1.174010e-10	-1.140196e+00	-1.306484e+01
1.820000e-06	-1.173406e-07	-1.027027e-10	-8.153308e-01	-1.206680e+01
1.830000e-06	-7.047851e-08	-9.117058e-11	-4.897138e-01	-1.105456e+01
1.840000e-06	-2.361600e-08	-7.921116e-11	-1.640937e-01	-1.002844e+01
1.850000e-06	2.318008e-08	-6.423113e-11	1.610648e-01	-8.988801e+00
1.860000e-06	6.994343e-08	-4.979219e-11	4.859958e-01	-7.936066e+00
1.870000e-06	1.167476e-07	-3.491846e-11	8.112106e-01	-6.870687e+00
1.880000e-06	1.636562e-07	-1.916743e-11	1.137151e+00	-5.793170e+00
1.890000e-06	2.106787e-07	-4.811194e-12	1.463883e+00	-4.704064e+00
1.900000e-06	2.576456e-07	1.014748e-11	1.790228e+00	-3.603961e+00
1.910000e-06	3.045316e-07	2.588090e-11	2.116011e+00	-2.493494e+00
1.920000e-06	3.513483e-07	4.152780e-11	2.441314e+00	-1.373337e+00
1.930000e-06	3.981995e-07	5.504975e-11	2.766855e+00	-2.442000e-01
1.940000e-06	4.450065e-07	6.689283e-11	3.092089e+00	8.931716e-01
1.950000e-06	4.916156e-07	7.672396e-11	3.415949e+00	2.038000e+00
1.960000e-06	5.381346e-07	8.708893e-11	3.739181e+00	3.189478e+00
1.970000e-06	5.846633e-07	1.007154e-10	4.062482e+00	4.346772e+00
1.980000e-06	6.311265e-07	1.182628e-10	4.385328e+00	5.509025e+00
1.990000e-06	6.775417e-07	1.384183e-10	4.707840e+00	6.675359e+00
2.000000e-06	7.239110e-07	1.590791e-10	5.030033e+00	7.844881e+00
2.010000e-06	7.701998e-07	1.771477e-10	5.351666e+00	9.016683e+00
2.020000e-06	8.164555e-07	1.910211e-10	5.673071e+00	1.018985e+01
2.030000e-06	8.626915e-07	2.025876e-10	5.994337e+00	1.136346e+01
2.040000e-06	9.088830e-07	2.141054e-10	6.315295e+00	1.253658e+01
2.050000e-06	9.549605e-07	2.267292e-10	6.635461e+00	1.370829e+01
2.060000e-06	1.000932e-06	2.429613e-10	6.954892e+00	1.487767e+01
2.070000e-06	1.046833e-06	2.616007e-10	7.273828e+00	1.604381e+01
2.080000e-06	1.092688e-06	2.792965e-10	7.592450e+00	1.720581e+01
2.090000e-06	1.138447e-06	2.948870e-10	7.910404e+00	1.836278e+01
2.100000e-06	1.184146e-06	3.097028e-10	8.227933e+00	1.951385e+01
2.110000e-06	1.229814e-06	3.237939e-10	8.545257e+00	2.065818e+01
2.120000e-06	1.275457e-06	3.359479e-10	8.862402e+00	2.179495e+01
2.130000e-06	1.320991e-06	3.497476e-10	9.178793e+00	2.292335e+01
2.140000e-06	1.366375e-06	3.650287e-10	9.494137e+00	2.404262e+01
2.150000e-06	1.411730e-06	3.796025e-10	9.809284e+00	2.515203e+01
2.160000e-06	1.456990e-06	3.948879e-10	1.012377e+01	2.625087e+01
2.170000e-06	1.502146e-06	4.107274e-10	1.043753e+01	2.733848e+01
2.180000e-06	1.547139e-06	4.248211e-10	1.075016e+01	2.841422e+01
2.190000e-06	1.591970e-06	4.374410e-10	1.106167e+01	2.947752e+01
2.200000e-06	1.636615e-06	4.510019e-10	1.137188e+01	3.052782e+01
2.210000e-06	1.681166e-06	4.648036e-10	1.168143e+01	3.156461e+01
2.220000e-06	1.725605e-06	4.790784e-10	1.199021e+01	3.258742e+01
2.230000e-06	1.769889e-06	4.946707e-10	1.229792e+01	3.359584e+01
2.240000e-06	1.814119e-06	5.075771e-10	1.260525e+01	3.458947e+01
2.250000e-06	1.858211e-06	5.188342e-10	1.291162e+01	3.556799e+01
2.260000e-06	1.902145e-06	5.298069e-10	1.321689e+01	3.653109e+01
2.270000e-06	1.945993e-06	5.423061e-10	1.352157e+01	3.747852e+01
2.280000e-06	1.989767e-06	5.552803e-10	1.382572e+01	3.841007e+01
2.290000e-06	2.033497e-06	5.674326e-10	1.412958e+01	3.932557e+01
2.300000e-06	2.077212e-06	5.793103e-10	1.443333e+01	4.022488e+01
2.310000e-06	2.120878e-06	5.905956e-10	1.473674e+01	4.110792e+01
2.320000e-06	2.164531e-06	6.018709e-10	1.504006e+01	4.197462e+01
2.330000e-06	2.208098e-06	6.123331e-10	1.534278e+01	4.282496e+01
2.340000e-06	2.251490e-06	6.214488e-10	1.564428e+01	4.365896e+01
2.350000e-06	2.294703e-06	6.310310e-10	1.594454e+01	4.447667e+01
2.360000e-06	2.337752e-06	6.412157e-10	1.624366e+01	4.527816e+01
2.370000e-06	2.380577e-06	6.523397e-10	1.654123e+01	4.606353e+01
2.380000e-06	2.422931e-06	6.627996e-10	1.683553e+01	4.683291e+01
2.390000e-06	2.464882e-06	6.738577e-10	1.712702e+01	4.758646e+01
2.400000e-06	2.506647e-06	6.845386e-10	1.741722e+01	4.832436e+01
2.410000e-06	2.548082e-06	6.924235e-10	1.770513e+01	4.904681e+01
2.420000e-06	2.589157e-06	7.014596e-10	1.799053e+01	4.975400e+01
2.430000e-06	2.630091e-06	7.115277e-10	1.827496e+01	5.044619e+01
2.440000e-06	2.670855e-06	7.207791e-10	1.855821e+01	5.112360e+01
2.450000e-06	2.711226e-06	7.313343e-10	1.883872e+01	5.178649e+01
2.460000e-06	2.751329e-06	7.411197e-10	1.911737e+01	5.243513e+01
2.470000e-06	2.791367e-06	7.483247e-10	1.939557e+01	5.306978e+01
2.480000e-06	2.831265e-06	7.555875e-10	1.967280e+01	5.369072e+01
2.490000e-06	2.871023e-06	7.630825e-10	1.994905e+01	5.429822e+01
2.500000e-06	2.910661e-06	7.720738e-10	2.022448e+01	5.489257e+01
2.510000e-06	2.950161e-06	7.813887e-10	2.049894e+01	5.547403e+01
2.520000e-06	2.989540e-06	7.903627e-10	2.077256e+01	5.604289e+01
2.530000e-06	3.028697e-06	7.976331e-10	2.104464e+01	5.659940e+01
2.540000e-06	3.067587e-06	8.040478e-10	2.131486e+01	5.714385e+01
2.550000e-06	3.106284e-06	8.091961e-10	2.158375e+01	5.767648e+01
2.560000e-06	3.144761e-06	8.151988e-10	2.185110e+01	5.819755e+01
2.570000e-06	3.182970e-06	8.221779e-10	2.211659e+01	5.870730e+01
2.580000e-06	3.220938e-06	8.293837e-10	2.238041e+01	5.920596e+01
2.590000e-06	3.258715e-06	8.363576e-10	2.264290e+01	5.969375e+01
2.600000e-06	3.296372e-06	8.421530e-10	2.290456e+01	6.017088e+01
2.610000e-06	3.333953e-06	8.475768e-10	2.316568e+01	6.063756e+01
2.620000e-06	3.371269e-06	8.540903e-10	2.342497e+01	6.109395e+01
2.630000e-06	3.408202e-06	8.618679e-10	2.368160e+01	6.154025e+01
2.640000e-06	3.444885e-06	8.684995e-10	2.393648e+01	6.197661e+01
2.650000e-06	3.481262e-06	8.737332e-10	2.418925e+01	6.240319e+01
2.660000e-06	3.517369e-06	8.774730e-10	2.444013e+01	6.282011e+01
2.670000e-06	3.553321e-06	8.794094e-10	2.468994e+01	6.322750e+01
2.680000e-06	3.589129e-06	8.823315e-10	2.493875e+01	6.362549e+01
2.690000e-06	3.624825e-06	8.878191e-10	2.518678e+01	6.401416e+01
2.700000e-06	3.660431e-06	8.947488e-10	2.543419e+01	6.439361e+01
2.710000e-06	3.695914e-06	9.022735e-10	2.568074e+01	6.476393e+01
2.720000e-06	3.731175e-06	9.087224e-10	2.592575e+01	6.512519e+01
2.730000e-06	3.766098e-06	9.149834e-10	2.616840e+01	6.547745e+01
2.740000e-06	3.800689e-06	9.204062e-10	2.640876e+01	6.582077e+01
2.750000e-06	3.834760e-06	9.239956e-10	2.664550e+01	6.615520e+01
2.760000e-06	3.868251e-06	9.269068e-10	2.687821e+01	6.648079e+01
2.770000e-06	3.901291e-06	9.298156e-10	2.710778e+01	6.679757e+01
2.780000e-06	3.933907e-06	9.335985e-10	2.733441e+01	6.710559e+01
2.790000e-06	3.966204e-06	9.404100e-10	2.755883e+01	6.740488e+01
2.800000e-06	3.998207e-06	9.492102e-10	2.778120e+01	6.769547e+01
2.810000e-06	4.030032e-06	9.580702e-10	2.800233e+01	6.797739e+01
2.820000e-06	4.061730e-06	9.640950e-10	2.822258e+01	6.825069e+01
2.830000e-06	4.093257e-06	9.659444e-10	2.844164e+01	6.851539e+01
2.840000e-06	4.124617e-06	9.636143e-10	2.865954e+01	6.877153e+01
2.850000e-06	4.155788e-06	9.605791e-10	2.887613e+01	6.901916e+01
2.860000e-06	4.186622e-06	9.613111e-10	2.909038e+01	6.925833e+01
2.870000e-06	4.217041e-06	9.656606e-10	2.930174e+01	6.948908e+01
2.880000e-06	4.247132e-06	9.714805e-10	2.951083e+01	6.971147e+01
2.890000e-06	4.276927e-06	9.799645e-10	2.971785e+01	6.992558e+01
2.900000e-06	4.306480e-06	9.878519e-10	2.992321e+01	7.013147e+01
2.910000e-06	4.335803e-06	9.940839e-10	3.012695e+01	7.032924e+01
