# Temperatura_=_13.78
# Concentracion g/m^3_=_1620.0
# C_Vs_to_Am_M_A/Vsm_=_65563218390.804596
# pendiente_HvsI_1/m_=_3716.3
# ordenada_HvsI_A/m_=_1297.0
# frecuencia_Hz_=_135103.55266824708

Tiempo_(s)	Campo_(V.s)	Magnetizacion_(V.s)	Campo_(kA/m)	Magnetizacion_(A/m)
0.000000e+00	-5.534898e-06	-7.870157e-10	-3.836691e+01	-5.155246e+01
1.000000e-08	-5.535084e-06	-7.867939e-10	-3.836820e+01	-5.153913e+01
2.000000e-08	-5.534922e-06	-7.869525e-10	-3.836707e+01	-5.152334e+01
3.000000e-08	-5.534237e-06	-7.848929e-10	-3.836233e+01	-5.150502e+01
4.000000e-08	-5.533061e-06	-7.816214e-10	-3.835418e+01	-5.148411e+01
5.000000e-08	-5.531400e-06	-7.784500e-10	-3.834266e+01	-5.146060e+01
6.000000e-08	-5.529199e-06	-7.761203e-10	-3.832740e+01	-5.143444e+01
7.000000e-08	-5.526406e-06	-7.880708e-10	-3.830805e+01	-5.140564e+01
8.000000e-08	-5.523033e-06	-7.793395e-10	-3.828466e+01	-5.137421e+01
9.000000e-08	-5.519230e-06	-7.417208e-10	-3.825830e+01	-5.134016e+01
1.000000e-07	-5.515080e-06	-7.463597e-10	-3.822953e+01	-5.130354e+01
1.100000e-07	-5.510669e-06	-7.924226e-10	-3.819896e+01	-5.126439e+01
1.200000e-07	-5.505986e-06	-7.660566e-10	-3.816650e+01	-5.122277e+01
1.300000e-07	-5.500965e-06	-7.594508e-10	-3.813170e+01	-5.117878e+01
1.400000e-07	-5.495628e-06	-7.153511e-10	-3.809470e+01	-5.113248e+01
1.500000e-07	-5.489950e-06	-7.768283e-10	-3.805534e+01	-5.108398e+01
1.600000e-07	-5.483837e-06	-7.460571e-10	-3.801296e+01	-5.103339e+01
1.700000e-07	-5.477358e-06	-7.295511e-10	-3.796806e+01	-5.098081e+01
1.800000e-07	-5.470519e-06	-7.196306e-10	-3.792065e+01	-5.092638e+01
1.900000e-07	-5.463287e-06	-7.474893e-10	-3.787052e+01	-5.087022e+01
2.000000e-07	-5.455682e-06	-7.670751e-10	-3.781780e+01	-5.081246e+01
2.100000e-07	-5.447815e-06	-7.445614e-10	-3.776327e+01	-5.075323e+01
2.200000e-07	-5.439748e-06	-7.300875e-10	-3.770735e+01	-5.069267e+01
2.300000e-07	-5.431265e-06	-7.117578e-10	-3.764854e+01	-5.063090e+01
2.400000e-07	-5.422223e-06	-7.393831e-10	-3.758587e+01	-5.056807e+01
2.500000e-07	-5.412538e-06	-7.331279e-10	-3.751873e+01	-5.050430e+01
2.600000e-07	-5.402173e-06	-7.604956e-10	-3.744689e+01	-5.043970e+01
2.700000e-07	-5.391233e-06	-7.423340e-10	-3.737105e+01	-5.037441e+01
2.800000e-07	-5.379860e-06	-7.605991e-10	-3.729221e+01	-5.030852e+01
2.900000e-07	-5.368075e-06	-7.335493e-10	-3.721053e+01	-5.024213e+01
3.000000e-07	-5.355902e-06	-7.469557e-10	-3.712615e+01	-5.017534e+01
3.100000e-07	-5.343345e-06	-7.286860e-10	-3.703910e+01	-5.010822e+01
3.200000e-07	-5.330398e-06	-7.571605e-10	-3.694936e+01	-5.004086e+01
3.300000e-07	-5.317079e-06	-7.312245e-10	-3.685703e+01	-4.997329e+01
3.400000e-07	-5.303374e-06	-7.403623e-10	-3.676203e+01	-4.990558e+01
3.500000e-07	-5.289210e-06	-7.420624e-10	-3.666384e+01	-4.983774e+01
3.600000e-07	-5.274441e-06	-7.479641e-10	-3.656147e+01	-4.976981e+01
3.700000e-07	-5.259130e-06	-7.149057e-10	-3.645533e+01	-4.970179e+01
3.800000e-07	-5.243447e-06	-7.408358e-10	-3.634663e+01	-4.963368e+01
3.900000e-07	-5.227340e-06	-7.542335e-10	-3.623497e+01	-4.956546e+01
4.000000e-07	-5.210865e-06	-7.296908e-10	-3.612077e+01	-4.949710e+01
4.100000e-07	-5.194156e-06	-7.271767e-10	-3.600495e+01	-4.942858e+01
4.200000e-07	-5.177092e-06	-7.608855e-10	-3.588667e+01	-4.935984e+01
4.300000e-07	-5.159569e-06	-7.390903e-10	-3.576520e+01	-4.929082e+01
4.400000e-07	-5.141685e-06	-7.015530e-10	-3.564123e+01	-4.922146e+01
4.500000e-07	-5.123480e-06	-7.443792e-10	-3.551504e+01	-4.915170e+01
4.600000e-07	-5.104878e-06	-7.492296e-10	-3.538609e+01	-4.908146e+01
4.700000e-07	-5.085881e-06	-7.165576e-10	-3.525441e+01	-4.901066e+01
4.800000e-07	-5.066564e-06	-7.310211e-10	-3.512050e+01	-4.893921e+01
4.900000e-07	-5.046978e-06	-7.657392e-10	-3.498474e+01	-4.886704e+01
5.000000e-07	-5.027137e-06	-7.158109e-10	-3.484720e+01	-4.879406e+01
5.100000e-07	-5.006989e-06	-7.218154e-10	-3.470754e+01	-4.872018e+01
5.200000e-07	-4.986496e-06	-7.549056e-10	-3.456549e+01	-4.864533e+01
5.300000e-07	-4.965727e-06	-7.311103e-10	-3.442152e+01	-4.856943e+01
5.400000e-07	-4.944666e-06	-6.949749e-10	-3.427553e+01	-4.849241e+01
5.500000e-07	-4.923253e-06	-7.488035e-10	-3.412710e+01	-4.841420e+01
5.600000e-07	-4.901458e-06	-7.371003e-10	-3.397602e+01	-4.833476e+01
5.700000e-07	-4.879305e-06	-7.032029e-10	-3.382246e+01	-4.825401e+01
5.800000e-07	-4.856819e-06	-7.196008e-10	-3.366659e+01	-4.817193e+01
5.900000e-07	-4.833927e-06	-7.373219e-10	-3.350791e+01	-4.808849e+01
6.000000e-07	-4.810739e-06	-6.940768e-10	-3.334717e+01	-4.800365e+01
6.100000e-07	-4.787408e-06	-7.126978e-10	-3.318544e+01	-4.791742e+01
6.200000e-07	-4.763828e-06	-7.284864e-10	-3.302200e+01	-4.782977e+01
6.300000e-07	-4.739984e-06	-7.001544e-10	-3.285671e+01	-4.774074e+01
6.400000e-07	-4.715837e-06	-6.931350e-10	-3.268933e+01	-4.765032e+01
6.500000e-07	-4.691246e-06	-7.230989e-10	-3.251887e+01	-4.755856e+01
6.600000e-07	-4.666092e-06	-7.016787e-10	-3.234451e+01	-4.746548e+01
6.700000e-07	-4.640407e-06	-6.895266e-10	-3.216646e+01	-4.737114e+01
6.800000e-07	-4.614153e-06	-7.081286e-10	-3.198448e+01	-4.727558e+01
6.900000e-07	-4.587328e-06	-7.045466e-10	-3.179852e+01	-4.717887e+01
7.000000e-07	-4.560210e-06	-6.887004e-10	-3.161055e+01	-4.708108e+01
7.100000e-07	-4.532886e-06	-7.036184e-10	-3.142115e+01	-4.698227e+01
7.200000e-07	-4.505353e-06	-7.062272e-10	-3.123029e+01	-4.688252e+01
7.300000e-07	-4.477598e-06	-6.871724e-10	-3.103790e+01	-4.678189e+01
7.400000e-07	-4.449662e-06	-6.945901e-10	-3.084426e+01	-4.668048e+01
7.500000e-07	-4.421533e-06	-7.002767e-10	-3.064927e+01	-4.657835e+01
7.600000e-07	-4.393040e-06	-6.885890e-10	-3.045176e+01	-4.647557e+01
7.700000e-07	-4.364194e-06	-6.837717e-10	-3.025180e+01	-4.637221e+01
7.800000e-07	-4.335063e-06	-6.943259e-10	-3.004987e+01	-4.626833e+01
7.900000e-07	-4.305652e-06	-6.794823e-10	-2.984600e+01	-4.616399e+01
8.000000e-07	-4.275953e-06	-6.729153e-10	-2.964013e+01	-4.605923e+01
8.100000e-07	-4.245913e-06	-6.793558e-10	-2.943190e+01	-4.595408e+01
8.200000e-07	-4.215549e-06	-6.822535e-10	-2.922142e+01	-4.584856e+01
8.300000e-07	-4.184882e-06	-6.694254e-10	-2.900884e+01	-4.574269e+01
8.400000e-07	-4.153991e-06	-6.781575e-10	-2.879471e+01	-4.563647e+01
8.500000e-07	-4.122895e-06	-6.767774e-10	-2.857916e+01	-4.552987e+01
8.600000e-07	-4.091523e-06	-6.669287e-10	-2.836169e+01	-4.542286e+01
8.700000e-07	-4.059929e-06	-6.612827e-10	-2.814269e+01	-4.531540e+01
8.800000e-07	-4.028196e-06	-6.687454e-10	-2.792272e+01	-4.520740e+01
8.900000e-07	-3.996256e-06	-6.584588e-10	-2.770132e+01	-4.509880e+01
9.000000e-07	-3.964044e-06	-6.575824e-10	-2.747804e+01	-4.498949e+01
9.100000e-07	-3.931446e-06	-6.623003e-10	-2.725207e+01	-4.487936e+01
9.200000e-07	-3.898310e-06	-6.608181e-10	-2.702238e+01	-4.476828e+01
9.300000e-07	-3.864743e-06	-6.511989e-10	-2.678970e+01	-4.465609e+01
9.400000e-07	-3.830803e-06	-6.553778e-10	-2.655443e+01	-4.454263e+01
9.500000e-07	-3.796404e-06	-6.533901e-10	-2.631599e+01	-4.442774e+01
9.600000e-07	-3.761540e-06	-6.456162e-10	-2.607431e+01	-4.431121e+01
9.700000e-07	-3.726385e-06	-6.445758e-10	-2.583063e+01	-4.419286e+01
9.800000e-07	-3.691047e-06	-6.476573e-10	-2.558567e+01	-4.407247e+01
9.900000e-07	-3.655536e-06	-6.422731e-10	-2.533951e+01	-4.394982e+01
1.000000e-06	-3.619886e-06	-6.395837e-10	-2.509240e+01	-4.382470e+01
1.010000e-06	-3.584097e-06	-6.428274e-10	-2.484431e+01	-4.369686e+01
1.020000e-06	-3.548114e-06	-6.382034e-10	-2.459488e+01	-4.356608e+01
1.030000e-06	-3.511938e-06	-6.336269e-10	-2.434412e+01	-4.343213e+01
1.040000e-06	-3.475539e-06	-6.330030e-10	-2.409181e+01	-4.329477e+01
1.050000e-06	-3.438803e-06	-6.295848e-10	-2.383716e+01	-4.315378e+01
1.060000e-06	-3.401780e-06	-6.213392e-10	-2.358052e+01	-4.300893e+01
1.070000e-06	-3.364501e-06	-6.223327e-10	-2.332211e+01	-4.285999e+01
1.080000e-06	-3.326994e-06	-6.227541e-10	-2.306212e+01	-4.270677e+01
1.090000e-06	-3.289295e-06	-6.212727e-10	-2.280080e+01	-4.254907e+01
1.100000e-06	-3.251427e-06	-6.169510e-10	-2.253831e+01	-4.238669e+01
1.110000e-06	-3.213313e-06	-6.152091e-10	-2.227410e+01	-4.221946e+01
1.120000e-06	-3.174954e-06	-6.061704e-10	-2.200821e+01	-4.204722e+01
1.130000e-06	-3.136324e-06	-6.023042e-10	-2.174043e+01	-4.186982e+01
1.140000e-06	-3.097375e-06	-6.001010e-10	-2.147045e+01	-4.168715e+01
1.150000e-06	-3.058324e-06	-5.981967e-10	-2.119975e+01	-4.149907e+01
1.160000e-06	-3.019186e-06	-5.946289e-10	-2.092845e+01	-4.130551e+01
1.170000e-06	-2.979863e-06	-5.967965e-10	-2.065587e+01	-4.110638e+01
1.180000e-06	-2.940409e-06	-5.944222e-10	-2.038238e+01	-4.090162e+01
1.190000e-06	-2.900891e-06	-5.921482e-10	-2.010845e+01	-4.069119e+01
1.200000e-06	-2.861229e-06	-5.907265e-10	-1.983352e+01	-4.047506e+01
1.210000e-06	-2.821371e-06	-5.895825e-10	-1.955723e+01	-4.025322e+01
1.220000e-06	-2.781310e-06	-5.828579e-10	-1.927954e+01	-4.002568e+01
1.230000e-06	-2.741000e-06	-5.788791e-10	-1.900011e+01	-3.979243e+01
1.240000e-06	-2.700453e-06	-5.758720e-10	-1.871905e+01	-3.955353e+01
1.250000e-06	-2.659583e-06	-5.720316e-10	-1.843575e+01	-3.930899e+01
1.260000e-06	-2.618364e-06	-5.688168e-10	-1.815003e+01	-3.905886e+01
1.270000e-06	-2.576859e-06	-5.671462e-10	-1.786232e+01	-3.880320e+01
1.280000e-06	-2.535061e-06	-5.640314e-10	-1.757258e+01	-3.854204e+01
1.290000e-06	-2.493068e-06	-5.592492e-10	-1.728149e+01	-3.827545e+01
1.300000e-06	-2.450824e-06	-5.552766e-10	-1.698867e+01	-3.800347e+01
1.310000e-06	-2.408280e-06	-5.496465e-10	-1.669376e+01	-3.772614e+01
1.320000e-06	-2.365522e-06	-5.424025e-10	-1.639737e+01	-3.744350e+01
1.330000e-06	-2.322520e-06	-5.382507e-10	-1.609929e+01	-3.715558e+01
1.340000e-06	-2.279373e-06	-5.371115e-10	-1.580020e+01	-3.686239e+01
1.350000e-06	-2.236098e-06	-5.325418e-10	-1.550023e+01	-3.656393e+01
1.360000e-06	-2.192637e-06	-5.283992e-10	-1.519896e+01	-3.626016e+01
1.370000e-06	-2.149099e-06	-5.247237e-10	-1.489717e+01	-3.595106e+01
1.380000e-06	-2.105482e-06	-5.204785e-10	-1.459482e+01	-3.563655e+01
1.390000e-06	-2.061748e-06	-5.136364e-10	-1.429166e+01	-3.531653e+01
1.400000e-06	-2.017905e-06	-5.096074e-10	-1.398776e+01	-3.499090e+01
1.410000e-06	-1.973982e-06	-5.037557e-10	-1.368329e+01	-3.465950e+01
1.420000e-06	-1.929970e-06	-4.979136e-10	-1.337820e+01	-3.432215e+01
1.430000e-06	-1.885857e-06	-4.931883e-10	-1.307242e+01	-3.397865e+01
1.440000e-06	-1.841645e-06	-4.896642e-10	-1.276595e+01	-3.362874e+01
1.450000e-06	-1.797318e-06	-4.821040e-10	-1.245868e+01	-3.327216e+01
1.460000e-06	-1.752870e-06	-4.732842e-10	-1.215058e+01	-3.290859e+01
1.470000e-06	-1.708246e-06	-4.644043e-10	-1.184125e+01	-3.253769e+01
1.480000e-06	-1.663417e-06	-4.566552e-10	-1.153051e+01	-3.215910e+01
1.490000e-06	-1.618398e-06	-4.492631e-10	-1.121844e+01	-3.177240e+01
1.500000e-06	-1.573296e-06	-4.445132e-10	-1.090580e+01	-3.137716e+01
1.510000e-06	-1.528103e-06	-4.378496e-10	-1.059254e+01	-3.097293e+01
1.520000e-06	-1.482790e-06	-4.265945e-10	-1.027843e+01	-3.055921e+01
1.530000e-06	-1.437357e-06	-4.127288e-10	-9.963497e+00	-3.013550e+01
1.540000e-06	-1.391847e-06	-4.006801e-10	-9.648030e+00	-2.970127e+01
1.550000e-06	-1.346276e-06	-3.905589e-10	-9.332140e+00	-2.925597e+01
1.560000e-06	-1.300614e-06	-3.819265e-10	-9.015623e+00	-2.879904e+01
1.570000e-06	-1.254868e-06	-3.748033e-10	-8.698518e+00	-2.832992e+01
1.580000e-06	-1.209023e-06	-3.688870e-10	-8.380729e+00	-2.784803e+01
1.590000e-06	-1.163110e-06	-3.606193e-10	-8.062465e+00	-2.735280e+01
1.600000e-06	-1.117073e-06	-3.520464e-10	-7.743349e+00	-2.684366e+01
1.610000e-06	-1.070955e-06	-3.435462e-10	-7.423668e+00	-2.632005e+01
1.620000e-06	-1.024756e-06	-3.339714e-10	-7.103424e+00	-2.578142e+01
1.630000e-06	-9.784674e-07	-3.254742e-10	-6.782559e+00	-2.522723e+01
1.640000e-06	-9.321275e-07	-3.145123e-10	-6.461339e+00	-2.465699e+01
1.650000e-06	-8.857154e-07	-3.016623e-10	-6.139619e+00	-2.407021e+01
1.660000e-06	-8.392428e-07	-2.883763e-10	-5.817479e+00	-2.346644e+01
1.670000e-06	-7.927126e-07	-2.786149e-10	-5.494940e+00	-2.284529e+01
1.680000e-06	-7.461402e-07	-2.703343e-10	-5.172109e+00	-2.220636e+01
1.690000e-06	-6.995195e-07	-2.650059e-10	-4.848942e+00	-2.154936e+01
1.700000e-06	-6.528213e-07	-2.585585e-10	-4.525239e+00	-2.087401e+01
1.710000e-06	-6.060245e-07	-2.485699e-10	-4.200852e+00	-2.018009e+01
1.720000e-06	-5.591690e-07	-2.370743e-10	-3.876058e+00	-1.946744e+01
1.730000e-06	-5.123052e-07	-2.256944e-10	-3.551207e+00	-1.873598e+01
1.740000e-06	-4.654434e-07	-2.143765e-10	-3.226369e+00	-1.798566e+01
1.750000e-06	-4.185981e-07	-2.044393e-10	-2.901646e+00	-1.721654e+01
1.760000e-06	-3.717785e-07	-1.945442e-10	-2.577101e+00	-1.642870e+01
1.770000e-06	-3.249379e-07	-1.865052e-10	-2.252411e+00	-1.562233e+01
1.780000e-06	-2.780387e-07	-1.788845e-10	-1.927314e+00	-1.479767e+01
1.790000e-06	-2.311408e-07	-1.692951e-10	-1.602226e+00	-1.395505e+01
1.800000e-06	-1.841901e-07	-1.569139e-10	-1.276772e+00	-1.309486e+01
1.810000e-06	-1.371455e-07	-1.434016e-10	-9.506678e-01	-1.221757e+01
1.820000e-06	-9.011562e-08	-1.298127e-10	-6.246652e-01	-1.132370e+01
1.830000e-06	-4.313558e-08	-1.182582e-10	-2.990080e-01	-1.041388e+01
1.840000e-06	3.846839e-09	-1.066953e-10	2.666559e-02	-9.488771e+00
1.850000e-06	5.084230e-08	-9.654313e-11	3.524296e-01	-8.549123e+00
1.860000e-06	9.785898e-08	-8.623414e-11	6.783407e-01	-7.595740e+00
1.870000e-06	1.448663e-07	-7.403414e-11	1.004187e+00	-6.629490e+00
1.880000e-06	1.918499e-07	-6.086430e-11	1.329869e+00	-5.651297e+00
1.890000e-06	2.388275e-07	-4.664797e-11	1.655509e+00	-4.662137e+00
1.900000e-06	2.857791e-07	-3.408346e-11	1.980969e+00	-3.663034e+00
1.910000e-06	3.327223e-07	-2.197210e-11	2.306370e+00	-2.655059e+00
1.920000e-06	3.795792e-07	-9.389527e-12	2.631175e+00	-1.639317e+00
1.930000e-06	4.263667e-07	4.444377e-12	2.955497e+00	-6.169512e-01
1.940000e-06	4.731396e-07	1.569621e-11	3.279718e+00	4.108706e-01
1.950000e-06	5.199314e-07	2.628894e-11	3.604070e+00	1.442956e+00
1.960000e-06	5.667280e-07	3.790599e-11	3.928456e+00	2.478098e+00
1.970000e-06	6.134167e-07	5.204163e-11	4.252093e+00	3.515076e+00
1.980000e-06	6.599466e-07	6.770988e-11	4.574630e+00	4.552666e+00
1.990000e-06	7.063836e-07	8.509246e-11	4.896524e+00	5.589646e+00
2.000000e-06	7.527697e-07	1.019141e-10	5.218064e+00	6.624797e+00
2.010000e-06	7.991544e-07	1.171693e-10	5.539594e+00	7.656917e+00
2.020000e-06	8.455797e-07	1.307115e-10	5.861406e+00	8.684819e+00
2.030000e-06	8.919074e-07	1.438355e-10	6.182541e+00	9.707339e+00
2.040000e-06	9.381464e-07	1.565765e-10	6.503061e+00	1.072334e+01
2.050000e-06	9.843643e-07	1.705924e-10	6.823435e+00	1.173173e+01
2.060000e-06	1.030457e-06	1.838362e-10	7.142941e+00	1.273144e+01
2.070000e-06	1.076452e-06	1.986226e-10	7.461771e+00	1.372145e+01
2.080000e-06	1.122388e-06	2.161960e-10	7.780187e+00	1.470078e+01
2.090000e-06	1.168188e-06	2.333410e-10	8.097670e+00	1.566851e+01
2.100000e-06	1.213968e-06	2.475867e-10	8.415003e+00	1.662377e+01
2.110000e-06	1.259692e-06	2.593560e-10	8.731957e+00	1.756575e+01
2.120000e-06	1.305241e-06	2.704309e-10	9.047697e+00	1.849368e+01
2.130000e-06	1.350730e-06	2.809014e-10	9.363019e+00	1.940688e+01
2.140000e-06	1.396148e-06	2.925568e-10	9.677845e+00	2.030469e+01
2.150000e-06	1.441511e-06	3.064365e-10	9.992292e+00	2.118656e+01
2.160000e-06	1.486862e-06	3.227727e-10	1.030666e+01	2.205197e+01
2.170000e-06	1.532021e-06	3.372662e-10	1.061969e+01	2.290048e+01
2.180000e-06	1.577009e-06	3.490690e-10	1.093154e+01	2.373170e+01
2.190000e-06	1.621962e-06	3.596723e-10	1.124315e+01	2.454531e+01
2.200000e-06	1.666860e-06	3.689849e-10	1.155437e+01	2.534107e+01
2.210000e-06	1.711564e-06	3.790702e-10	1.186425e+01	2.611876e+01
2.220000e-06	1.756046e-06	3.904077e-10	1.217260e+01	2.687825e+01
2.230000e-06	1.800428e-06	3.993565e-10	1.248024e+01	2.761946e+01
2.240000e-06	1.844679e-06	4.086423e-10	1.278698e+01	2.834236e+01
2.250000e-06	1.888768e-06	4.187753e-10	1.309259e+01	2.904697e+01
2.260000e-06	1.932761e-06	4.277279e-10	1.339755e+01	2.973337e+01
2.270000e-06	1.976646e-06	4.360713e-10	1.370175e+01	3.040168e+01
2.280000e-06	2.020442e-06	4.452553e-10	1.400534e+01	3.105204e+01
2.290000e-06	2.064170e-06	4.544385e-10	1.430845e+01	3.168468e+01
2.300000e-06	2.107798e-06	4.608967e-10	1.461088e+01	3.229981e+01
2.310000e-06	2.151341e-06	4.674794e-10	1.491271e+01	3.289772e+01
2.320000e-06	2.194811e-06	4.740998e-10	1.521403e+01	3.347869e+01
2.330000e-06	2.238248e-06	4.794029e-10	1.551513e+01	3.404306e+01
2.340000e-06	2.281603e-06	4.861378e-10	1.581566e+01	3.459115e+01
2.350000e-06	2.324791e-06	4.941306e-10	1.611503e+01	3.512335e+01
2.360000e-06	2.367826e-06	5.026948e-10	1.641334e+01	3.564003e+01
2.370000e-06	2.410683e-06	5.098251e-10	1.671042e+01	3.614157e+01
2.380000e-06	2.453219e-06	5.163439e-10	1.700527e+01	3.662838e+01
2.390000e-06	2.495345e-06	5.206636e-10	1.729728e+01	3.710086e+01
2.400000e-06	2.537242e-06	5.243481e-10	1.758770e+01	3.755943e+01
2.410000e-06	2.578933e-06	5.323572e-10	1.787670e+01	3.800448e+01
2.420000e-06	2.620198e-06	5.425295e-10	1.816274e+01	3.843643e+01
2.430000e-06	2.661081e-06	5.498509e-10	1.844613e+01	3.885568e+01
2.440000e-06	2.701689e-06	5.552121e-10	1.872762e+01	3.926262e+01
2.450000e-06	2.742118e-06	5.591392e-10	1.900786e+01	3.965766e+01
2.460000e-06	2.782393e-06	5.613158e-10	1.928704e+01	4.004116e+01
2.470000e-06	2.822439e-06	5.650571e-10	1.956463e+01	4.041349e+01
2.480000e-06	2.862279e-06	5.696866e-10	1.984080e+01	4.077503e+01
2.490000e-06	2.901980e-06	5.753227e-10	2.011600e+01	4.112610e+01
2.500000e-06	2.941581e-06	5.839216e-10	2.039051e+01	4.146705e+01
2.510000e-06	2.981005e-06	5.900216e-10	2.066379e+01	4.179820e+01
2.520000e-06	3.020198e-06	5.921693e-10	2.093547e+01	4.211986e+01
2.530000e-06	3.059217e-06	5.921778e-10	2.120594e+01	4.243231e+01
2.540000e-06	3.098064e-06	5.926553e-10	2.147522e+01	4.273584e+01
2.550000e-06	3.136729e-06	5.949892e-10	2.174324e+01	4.303073e+01
2.560000e-06	3.175226e-06	5.985715e-10	2.201009e+01	4.331721e+01
2.570000e-06	3.213442e-06	6.054392e-10	2.227500e+01	4.359554e+01
2.580000e-06	3.251388e-06	6.126691e-10	2.253803e+01	4.386595e+01
2.590000e-06	3.289135e-06	6.165603e-10	2.279969e+01	4.412866e+01
2.600000e-06	3.326672e-06	6.187774e-10	2.305989e+01	4.438388e+01
2.610000e-06	3.364001e-06	6.218296e-10	2.331865e+01	4.463181e+01
2.620000e-06	3.401084e-06	6.243000e-10	2.357570e+01	4.487264e+01
2.630000e-06	3.437936e-06	6.256288e-10	2.383115e+01	4.510657e+01
2.640000e-06	3.474556e-06	6.269961e-10	2.408499e+01	4.533378e+01
2.650000e-06	3.510920e-06	6.301633e-10	2.433706e+01	4.555442e+01
2.660000e-06	3.547030e-06	6.341878e-10	2.458737e+01	4.576868e+01
2.670000e-06	3.582970e-06	6.381157e-10	2.483650e+01	4.597672e+01
2.680000e-06	3.618756e-06	6.416857e-10	2.508456e+01	4.617870e+01
2.690000e-06	3.654368e-06	6.461187e-10	2.533142e+01	4.637476e+01
2.700000e-06	3.689826e-06	6.500968e-10	2.557721e+01	4.656508e+01
2.710000e-06	3.725073e-06	6.515110e-10	2.582153e+01	4.674979e+01
2.720000e-06	3.760141e-06	6.544806e-10	2.606462e+01	4.692905e+01
2.730000e-06	3.795002e-06	6.606601e-10	2.630626e+01	4.710300e+01
2.740000e-06	3.829535e-06	6.671134e-10	2.654564e+01	4.727179e+01
2.750000e-06	3.863550e-06	6.717256e-10	2.678143e+01	4.743556e+01
2.760000e-06	3.897034e-06	6.760602e-10	2.701354e+01	4.759446e+01
2.770000e-06	3.930144e-06	6.820890e-10	2.724305e+01	4.774862e+01
2.780000e-06	3.962814e-06	6.878021e-10	2.746951e+01	4.789819e+01
2.790000e-06	3.995018e-06	6.920590e-10	2.769274e+01	4.804329e+01
2.800000e-06	4.026900e-06	6.952072e-10	2.791374e+01	4.818406e+01
2.810000e-06	4.058623e-06	6.969705e-10	2.813364e+01	4.832064e+01
2.820000e-06	4.090212e-06	6.979094e-10	2.835261e+01	4.845315e+01
2.830000e-06	4.121613e-06	6.988114e-10	2.857028e+01	4.858171e+01
2.840000e-06	4.152776e-06	7.002953e-10	2.878629e+01	4.870645e+01
2.850000e-06	4.183731e-06	7.026871e-10	2.900086e+01	4.882748e+01
2.860000e-06	4.214433e-06	7.055500e-10	2.921369e+01	4.894490e+01
2.870000e-06	4.244799e-06	7.077921e-10	2.942418e+01	4.905884e+01
2.880000e-06	4.274849e-06	7.108537e-10	2.963248e+01	4.916938e+01
2.890000e-06	4.304519e-06	7.150560e-10	2.983814e+01	4.927662e+01
2.900000e-06	4.333899e-06	7.193459e-10	3.004180e+01	4.938065e+01
