# Temperatura_=_12.4
# Concentracion g/m^3_=_1620.0
# C_Vs_to_Am_M_A/Vsm_=_65563218390.804596
# pendiente_HvsI_1/m_=_3716.3
# ordenada_HvsI_A/m_=_1297.0
# frecuencia_Hz_=_135102.0416378897

Tiempo_(s)	Campo_(V.s)	Magnetizacion_(V.s)	Campo_(kA/m)	Magnetizacion_(A/m)
0.000000e+00	-5.530127e-06	-7.503205e-10	-3.836421e+01	-4.905512e+01
1.000000e-08	-5.530417e-06	-7.524074e-10	-3.836621e+01	-4.905055e+01
2.000000e-08	-5.530347e-06	-7.517447e-10	-3.836573e+01	-4.904717e+01
3.000000e-08	-5.529736e-06	-7.485871e-10	-3.836149e+01	-4.904494e+01
4.000000e-08	-5.528543e-06	-7.446359e-10	-3.835321e+01	-4.904378e+01
5.000000e-08	-5.526806e-06	-7.446861e-10	-3.834116e+01	-4.904360e+01
6.000000e-08	-5.524461e-06	-7.465515e-10	-3.832490e+01	-4.904430e+01
7.000000e-08	-5.521542e-06	-7.386610e-10	-3.830465e+01	-4.904577e+01
8.000000e-08	-5.518204e-06	-7.332470e-10	-3.828149e+01	-4.904785e+01
9.000000e-08	-5.514487e-06	-7.701197e-10	-3.825570e+01	-4.905041e+01
1.000000e-07	-5.510320e-06	-8.035029e-10	-3.822680e+01	-4.905327e+01
1.100000e-07	-5.505807e-06	-7.134754e-10	-3.819549e+01	-4.905628e+01
1.200000e-07	-5.501169e-06	-6.457256e-10	-3.816331e+01	-4.905924e+01
1.300000e-07	-5.496309e-06	-7.125748e-10	-3.812960e+01	-4.906198e+01
1.400000e-07	-5.491002e-06	-8.207914e-10	-3.809278e+01	-4.906431e+01
1.500000e-07	-5.485205e-06	-7.593134e-10	-3.805257e+01	-4.906602e+01
1.600000e-07	-5.479048e-06	-6.507043e-10	-3.800986e+01	-4.906693e+01
1.700000e-07	-5.472577e-06	-7.275808e-10	-3.796496e+01	-4.906686e+01
1.800000e-07	-5.465683e-06	-8.292914e-10	-3.791713e+01	-4.906560e+01
1.900000e-07	-5.458433e-06	-7.839409e-10	-3.786684e+01	-4.906297e+01
2.000000e-07	-5.450906e-06	-6.592370e-10	-3.781462e+01	-4.905879e+01
2.100000e-07	-5.443210e-06	-7.064112e-10	-3.776124e+01	-4.905290e+01
2.200000e-07	-5.435209e-06	-7.999101e-10	-3.770573e+01	-4.904512e+01
2.300000e-07	-5.426688e-06	-8.176574e-10	-3.764662e+01	-4.903530e+01
2.400000e-07	-5.417680e-06	-7.497563e-10	-3.758413e+01	-4.902329e+01
2.500000e-07	-5.408057e-06	-7.657845e-10	-3.751736e+01	-4.900895e+01
2.600000e-07	-5.397660e-06	-8.037492e-10	-3.744524e+01	-4.899216e+01
2.700000e-07	-5.386689e-06	-7.916555e-10	-3.736913e+01	-4.897281e+01
2.800000e-07	-5.375386e-06	-7.405046e-10	-3.729072e+01	-4.895078e+01
2.900000e-07	-5.363748e-06	-7.538022e-10	-3.720998e+01	-4.892600e+01
3.000000e-07	-5.351752e-06	-7.954289e-10	-3.712676e+01	-4.889837e+01
3.100000e-07	-5.339399e-06	-7.863726e-10	-3.704106e+01	-4.886783e+01
3.200000e-07	-5.326586e-06	-7.471008e-10	-3.695217e+01	-4.883431e+01
3.300000e-07	-5.313319e-06	-7.529043e-10	-3.686014e+01	-4.879778e+01
3.400000e-07	-5.299699e-06	-7.957157e-10	-3.676566e+01	-4.875819e+01
3.500000e-07	-5.285693e-06	-7.628775e-10	-3.666849e+01	-4.871552e+01
3.600000e-07	-5.271083e-06	-7.167560e-10	-3.656713e+01	-4.866974e+01
3.700000e-07	-5.256033e-06	-7.453791e-10	-3.646273e+01	-4.862085e+01
3.800000e-07	-5.240625e-06	-7.959263e-10	-3.635584e+01	-4.856884e+01
3.900000e-07	-5.224565e-06	-7.418345e-10	-3.624442e+01	-4.851372e+01
4.000000e-07	-5.207990e-06	-7.330129e-10	-3.612944e+01	-4.845549e+01
4.100000e-07	-5.191276e-06	-7.861898e-10	-3.601349e+01	-4.839418e+01
4.200000e-07	-5.174327e-06	-7.625630e-10	-3.589591e+01	-4.832981e+01
4.300000e-07	-5.156869e-06	-6.860626e-10	-3.577479e+01	-4.826240e+01
4.400000e-07	-5.139023e-06	-7.545793e-10	-3.565100e+01	-4.819199e+01
4.500000e-07	-5.120811e-06	-7.955756e-10	-3.552465e+01	-4.811860e+01
4.600000e-07	-5.102199e-06	-7.116445e-10	-3.539553e+01	-4.804229e+01
4.700000e-07	-5.083245e-06	-6.988736e-10	-3.526405e+01	-4.796309e+01
4.800000e-07	-5.064083e-06	-7.905575e-10	-3.513111e+01	-4.788105e+01
4.900000e-07	-5.044703e-06	-7.481640e-10	-3.499667e+01	-4.779622e+01
5.000000e-07	-5.024971e-06	-6.910197e-10	-3.485978e+01	-4.770865e+01
5.100000e-07	-5.005036e-06	-7.487842e-10	-3.472149e+01	-4.761839e+01
5.200000e-07	-4.984849e-06	-7.508658e-10	-3.458144e+01	-4.752550e+01
5.300000e-07	-4.964183e-06	-6.768784e-10	-3.443807e+01	-4.743005e+01
5.400000e-07	-4.943102e-06	-7.302318e-10	-3.429183e+01	-4.733210e+01
5.500000e-07	-4.921733e-06	-7.782217e-10	-3.414359e+01	-4.723172e+01
5.600000e-07	-4.899986e-06	-6.975420e-10	-3.399272e+01	-4.712898e+01
5.700000e-07	-4.877866e-06	-6.843052e-10	-3.383927e+01	-4.702395e+01
5.800000e-07	-4.855503e-06	-7.536939e-10	-3.368413e+01	-4.691673e+01
5.900000e-07	-4.832829e-06	-7.184383e-10	-3.352683e+01	-4.680740e+01
6.000000e-07	-4.809783e-06	-6.721193e-10	-3.336696e+01	-4.669605e+01
6.100000e-07	-4.786411e-06	-7.241883e-10	-3.320482e+01	-4.658278e+01
6.200000e-07	-4.762850e-06	-7.234593e-10	-3.304136e+01	-4.646770e+01
6.300000e-07	-4.739017e-06	-6.738014e-10	-3.287603e+01	-4.635091e+01
6.400000e-07	-4.714789e-06	-6.969488e-10	-3.270795e+01	-4.623254e+01
6.500000e-07	-4.690179e-06	-7.271697e-10	-3.253722e+01	-4.611270e+01
6.600000e-07	-4.665114e-06	-6.923735e-10	-3.236334e+01	-4.599152e+01
6.700000e-07	-4.639544e-06	-6.951131e-10	-3.218595e+01	-4.586915e+01
6.800000e-07	-4.613365e-06	-7.145696e-10	-3.200434e+01	-4.574571e+01
6.900000e-07	-4.586639e-06	-6.917733e-10	-3.181894e+01	-4.562135e+01
7.000000e-07	-4.559543e-06	-6.758255e-10	-3.163096e+01	-4.549622e+01
7.100000e-07	-4.532233e-06	-6.975119e-10	-3.144150e+01	-4.537048e+01
7.200000e-07	-4.504777e-06	-6.871712e-10	-3.125103e+01	-4.524428e+01
7.300000e-07	-4.477075e-06	-6.775722e-10	-3.105885e+01	-4.511777e+01
7.400000e-07	-4.449113e-06	-6.944080e-10	-3.086487e+01	-4.499112e+01
7.500000e-07	-4.420888e-06	-7.008260e-10	-3.066907e+01	-4.486448e+01
7.600000e-07	-4.392431e-06	-6.821827e-10	-3.047165e+01	-4.473800e+01
7.700000e-07	-4.363712e-06	-6.849720e-10	-3.027242e+01	-4.461183e+01
7.800000e-07	-4.334639e-06	-6.843267e-10	-3.007073e+01	-4.448613e+01
7.900000e-07	-4.305280e-06	-6.751639e-10	-2.986706e+01	-4.436102e+01
8.000000e-07	-4.275657e-06	-6.791810e-10	-2.966156e+01	-4.423664e+01
8.100000e-07	-4.245675e-06	-6.863227e-10	-2.945356e+01	-4.411311e+01
8.200000e-07	-4.215332e-06	-6.723211e-10	-2.924306e+01	-4.399054e+01
8.300000e-07	-4.184712e-06	-6.692599e-10	-2.903064e+01	-4.386901e+01
8.400000e-07	-4.153891e-06	-6.788036e-10	-2.881683e+01	-4.374861e+01
8.500000e-07	-4.122824e-06	-6.729435e-10	-2.860131e+01	-4.362940e+01
8.600000e-07	-4.091504e-06	-6.634029e-10	-2.838403e+01	-4.351142e+01
8.700000e-07	-4.060016e-06	-6.697524e-10	-2.816559e+01	-4.339469e+01
8.800000e-07	-4.028359e-06	-6.673314e-10	-2.794597e+01	-4.327921e+01
8.900000e-07	-3.996486e-06	-6.544059e-10	-2.772486e+01	-4.316496e+01
9.000000e-07	-3.964334e-06	-6.560181e-10	-2.750181e+01	-4.305189e+01
9.100000e-07	-3.931823e-06	-6.539941e-10	-2.727627e+01	-4.293993e+01
9.200000e-07	-3.898813e-06	-6.424148e-10	-2.704727e+01	-4.282897e+01
9.300000e-07	-3.865298e-06	-6.430785e-10	-2.681477e+01	-4.271891e+01
9.400000e-07	-3.831373e-06	-6.535230e-10	-2.657942e+01	-4.260958e+01
9.500000e-07	-3.797009e-06	-6.468349e-10	-2.634103e+01	-4.250081e+01
9.600000e-07	-3.762268e-06	-6.413802e-10	-2.610002e+01	-4.239239e+01
9.700000e-07	-3.727253e-06	-6.428463e-10	-2.585711e+01	-4.228411e+01
9.800000e-07	-3.691953e-06	-6.355726e-10	-2.561222e+01	-4.217571e+01
9.900000e-07	-3.656462e-06	-6.220510e-10	-2.536601e+01	-4.206692e+01
1.000000e-06	-3.620851e-06	-6.260417e-10	-2.511897e+01	-4.195743e+01
1.010000e-06	-3.585047e-06	-6.291668e-10	-2.487058e+01	-4.184693e+01
1.020000e-06	-3.549126e-06	-6.252480e-10	-2.462139e+01	-4.173509e+01
1.030000e-06	-3.513022e-06	-6.234619e-10	-2.437092e+01	-4.162156e+01
1.040000e-06	-3.476662e-06	-6.249519e-10	-2.411868e+01	-4.150596e+01
1.050000e-06	-3.440050e-06	-6.143398e-10	-2.386469e+01	-4.138793e+01
1.060000e-06	-3.403120e-06	-6.042906e-10	-2.360850e+01	-4.126708e+01
1.070000e-06	-3.366003e-06	-6.012881e-10	-2.335101e+01	-4.114302e+01
1.080000e-06	-3.328659e-06	-5.988981e-10	-2.309194e+01	-4.101535e+01
1.090000e-06	-3.290997e-06	-5.955612e-10	-2.283067e+01	-4.088369e+01
1.100000e-06	-3.253085e-06	-5.979494e-10	-2.256766e+01	-4.074765e+01
1.110000e-06	-3.214954e-06	-5.958721e-10	-2.230313e+01	-4.060685e+01
1.120000e-06	-3.176591e-06	-5.882103e-10	-2.203699e+01	-4.046091e+01
1.130000e-06	-3.138034e-06	-5.832098e-10	-2.176951e+01	-4.030949e+01
1.140000e-06	-3.099330e-06	-5.797273e-10	-2.150101e+01	-4.015224e+01
1.150000e-06	-3.060408e-06	-5.736870e-10	-2.123100e+01	-3.998884e+01
1.160000e-06	-3.021255e-06	-5.707526e-10	-2.095938e+01	-3.981899e+01
1.170000e-06	-2.981948e-06	-5.737137e-10	-2.068669e+01	-3.964242e+01
1.180000e-06	-2.942480e-06	-5.734914e-10	-2.041289e+01	-3.945887e+01
1.190000e-06	-2.902876e-06	-5.689184e-10	-2.013815e+01	-3.926815e+01
1.200000e-06	-2.863199e-06	-5.651621e-10	-1.986290e+01	-3.907004e+01
1.210000e-06	-2.823392e-06	-5.599800e-10	-1.958674e+01	-3.886441e+01
1.220000e-06	-2.783431e-06	-5.522930e-10	-1.930953e+01	-3.865113e+01
1.230000e-06	-2.743304e-06	-5.495052e-10	-1.903115e+01	-3.843011e+01
1.240000e-06	-2.702930e-06	-5.472539e-10	-1.875106e+01	-3.820129e+01
1.250000e-06	-2.662256e-06	-5.468273e-10	-1.846890e+01	-3.796466e+01
1.260000e-06	-2.621319e-06	-5.497150e-10	-1.818490e+01	-3.772024e+01
1.270000e-06	-2.580068e-06	-5.548532e-10	-1.789873e+01	-3.746806e+01
1.280000e-06	-2.538497e-06	-5.511780e-10	-1.761034e+01	-3.720821e+01
1.290000e-06	-2.496726e-06	-5.428860e-10	-1.732056e+01	-3.694078e+01
1.300000e-06	-2.454629e-06	-5.330631e-10	-1.702852e+01	-3.666592e+01
1.310000e-06	-2.412137e-06	-5.245323e-10	-1.673374e+01	-3.638379e+01
1.320000e-06	-2.369384e-06	-5.192918e-10	-1.643715e+01	-3.609456e+01
1.330000e-06	-2.326400e-06	-5.235308e-10	-1.613896e+01	-3.579843e+01
1.340000e-06	-2.283222e-06	-5.292838e-10	-1.583942e+01	-3.549561e+01
1.350000e-06	-2.239942e-06	-5.304883e-10	-1.553917e+01	-3.518633e+01
1.360000e-06	-2.196530e-06	-5.248558e-10	-1.523801e+01	-3.487081e+01
1.370000e-06	-2.152960e-06	-5.172025e-10	-1.493575e+01	-3.454929e+01
1.380000e-06	-2.109356e-06	-5.085677e-10	-1.463326e+01	-3.422200e+01
1.390000e-06	-2.065716e-06	-5.005564e-10	-1.433051e+01	-3.388916e+01
1.400000e-06	-2.021992e-06	-4.958314e-10	-1.402718e+01	-3.355098e+01
1.410000e-06	-1.978136e-06	-4.935372e-10	-1.372294e+01	-3.320766e+01
1.420000e-06	-1.934138e-06	-4.943430e-10	-1.341771e+01	-3.285938e+01
1.430000e-06	-1.890090e-06	-4.948011e-10	-1.311214e+01	-3.250627e+01
1.440000e-06	-1.845998e-06	-4.933950e-10	-1.280626e+01	-3.214847e+01
1.450000e-06	-1.801715e-06	-4.866898e-10	-1.249905e+01	-3.178606e+01
1.460000e-06	-1.757229e-06	-4.762676e-10	-1.219044e+01	-3.141909e+01
1.470000e-06	-1.712621e-06	-4.641128e-10	-1.188098e+01	-3.104757e+01
1.480000e-06	-1.667909e-06	-4.514363e-10	-1.157080e+01	-3.067146e+01
1.490000e-06	-1.623097e-06	-4.425765e-10	-1.125993e+01	-3.029069e+01
1.500000e-06	-1.578171e-06	-4.397016e-10	-1.094826e+01	-2.990512e+01
1.510000e-06	-1.533130e-06	-4.380581e-10	-1.063579e+01	-2.951458e+01
1.520000e-06	-1.487930e-06	-4.354052e-10	-1.032223e+01	-2.911883e+01
1.530000e-06	-1.442578e-06	-4.275831e-10	-1.000761e+01	-2.871759e+01
1.540000e-06	-1.397128e-06	-4.171910e-10	-9.692312e+00	-2.831053e+01
1.550000e-06	-1.351552e-06	-4.039312e-10	-9.376135e+00	-2.789726e+01
1.560000e-06	-1.305920e-06	-3.918360e-10	-9.059574e+00	-2.747733e+01
1.570000e-06	-1.260272e-06	-3.846156e-10	-8.742894e+00	-2.705028e+01
1.580000e-06	-1.214501e-06	-3.818593e-10	-8.425371e+00	-2.661556e+01
1.590000e-06	-1.168683e-06	-3.774940e-10	-8.107518e+00	-2.617260e+01
1.600000e-06	-1.122752e-06	-3.711960e-10	-7.788876e+00	-2.572079e+01
1.610000e-06	-1.076671e-06	-3.621837e-10	-7.469198e+00	-2.525948e+01
1.620000e-06	-1.030500e-06	-3.508029e-10	-7.148895e+00	-2.478800e+01
1.630000e-06	-9.842444e-07	-3.373765e-10	-6.828008e+00	-2.430564e+01
1.640000e-06	-9.379389e-07	-3.225174e-10	-6.506773e+00	-2.381169e+01
1.650000e-06	-8.915693e-07	-3.107373e-10	-6.185092e+00	-2.330540e+01
1.660000e-06	-8.451744e-07	-3.038936e-10	-5.863236e+00	-2.278603e+01
1.670000e-06	-7.987712e-07	-3.003635e-10	-5.541323e+00	-2.225286e+01
1.680000e-06	-7.523041e-07	-2.964915e-10	-5.218967e+00	-2.170515e+01
1.690000e-06	-7.057526e-07	-2.904697e-10	-4.896025e+00	-2.114219e+01
1.700000e-06	-6.590821e-07	-2.798312e-10	-4.572257e+00	-2.056328e+01
1.710000e-06	-6.123800e-07	-2.640062e-10	-4.248270e+00	-1.996776e+01
1.720000e-06	-5.656915e-07	-2.476835e-10	-3.924377e+00	-1.935501e+01
1.730000e-06	-5.189337e-07	-2.355403e-10	-3.600003e+00	-1.872446e+01
1.740000e-06	-4.721909e-07	-2.267659e-10	-3.275734e+00	-1.807558e+01
1.750000e-06	-4.254987e-07	-2.219261e-10	-2.951816e+00	-1.740790e+01
1.760000e-06	-3.787612e-07	-2.176471e-10	-2.627584e+00	-1.672103e+01
1.770000e-06	-3.319525e-07	-2.093664e-10	-2.302857e+00	-1.601465e+01
1.780000e-06	-2.851181e-07	-1.984698e-10	-1.977952e+00	-1.528851e+01
1.790000e-06	-2.382319e-07	-1.836090e-10	-1.652689e+00	-1.454245e+01
1.800000e-06	-1.912758e-07	-1.652952e-10	-1.326939e+00	-1.377640e+01
1.810000e-06	-1.443107e-07	-1.499626e-10	-1.001128e+00	-1.299038e+01
1.820000e-06	-9.740972e-08	-1.387786e-10	-6.757614e-01	-1.218451e+01
1.830000e-06	-5.056225e-08	-1.309589e-10	-3.507660e-01	-1.135902e+01
1.840000e-06	-3.730742e-09	-1.243294e-10	-2.588131e-02	-1.051422e+01
1.850000e-06	4.312407e-08	-1.180040e-10	2.991650e-01	-9.650528e+00
1.860000e-06	9.003709e-08	-1.083513e-10	6.246152e-01	-8.768485e+00
1.870000e-06	1.369810e-07	-9.468456e-11	9.502797e-01	-7.868716e+00
1.880000e-06	1.839810e-07	-7.935135e-11	1.276333e+00	-6.951953e+00
1.890000e-06	2.309070e-07	-6.316458e-11	1.601874e+00	-6.019027e+00
1.900000e-06	2.776853e-07	-4.877856e-11	1.926389e+00	-5.070868e+00
1.910000e-06	3.244236e-07	-3.729535e-11	2.250627e+00	-4.108495e+00
1.920000e-06	3.712353e-07	-2.824776e-11	2.575375e+00	-3.133019e+00
1.930000e-06	4.181629e-07	-1.937733e-11	2.900926e+00	-2.145631e+00
1.940000e-06	4.650051e-07	-8.853172e-12	3.225884e+00	-1.147599e+00
1.950000e-06	5.117003e-07	3.080962e-12	3.549823e+00	-1.402636e-01
1.960000e-06	5.582867e-07	1.686273e-11	3.873008e+00	8.749745e-01
1.970000e-06	6.048055e-07	3.192817e-11	4.195723e+00	1.896659e+00
1.980000e-06	6.512963e-07	4.691929e-11	4.518244e+00	2.923287e+00
1.990000e-06	6.977701e-07	6.139848e-11	4.840647e+00	3.953318e+00
2.000000e-06	7.441915e-07	7.433183e-11	5.162687e+00	4.985184e+00
2.010000e-06	7.905672e-07	8.627024e-11	5.484410e+00	6.017298e+00
2.020000e-06	8.369546e-07	9.917247e-11	5.806213e+00	7.048065e+00
2.030000e-06	8.833261e-07	1.134423e-10	6.127906e+00	8.075887e+00
2.040000e-06	9.296124e-07	1.277948e-10	6.449009e+00	9.099181e+00
2.050000e-06	9.758182e-07	1.422152e-10	6.769553e+00	1.011638e+01
2.060000e-06	1.021915e-06	1.564993e-10	7.089338e+00	1.112596e+01
2.070000e-06	1.067849e-06	1.706313e-10	7.408003e+00	1.212641e+01
2.080000e-06	1.113680e-06	1.838763e-10	7.725941e+00	1.311629e+01
2.090000e-06	1.159462e-06	1.964295e-10	8.043549e+00	1.409421e+01
2.100000e-06	1.205247e-06	2.084343e-10	8.361173e+00	1.505884e+01
2.110000e-06	1.250963e-06	2.201873e-10	8.678317e+00	1.600894e+01
2.120000e-06	1.296524e-06	2.328916e-10	8.994390e+00	1.694334e+01
2.130000e-06	1.342007e-06	2.458818e-10	9.309916e+00	1.786094e+01
2.140000e-06	1.387453e-06	2.576791e-10	9.625188e+00	1.876075e+01
2.150000e-06	1.432825e-06	2.679586e-10	9.939950e+00	1.964188e+01
2.160000e-06	1.478117e-06	2.790596e-10	1.025416e+01	2.050353e+01
2.170000e-06	1.523233e-06	2.917694e-10	1.056714e+01	2.134501e+01
2.180000e-06	1.568228e-06	3.043585e-10	1.087929e+01	2.216574e+01
2.190000e-06	1.613207e-06	3.168159e-10	1.119132e+01	2.296524e+01
2.200000e-06	1.658084e-06	3.291369e-10	1.150264e+01	2.374314e+01
2.210000e-06	1.702757e-06	3.402282e-10	1.181255e+01	2.449919e+01
2.220000e-06	1.747269e-06	3.513190e-10	1.212134e+01	2.523324e+01
2.230000e-06	1.791681e-06	3.626981e-10	1.242944e+01	2.594523e+01
2.240000e-06	1.835907e-06	3.722489e-10	1.273625e+01	2.663523e+01
2.250000e-06	1.879958e-06	3.782202e-10	1.304185e+01	2.730340e+01
2.260000e-06	1.923892e-06	3.836114e-10	1.334663e+01	2.794999e+01
2.270000e-06	1.967746e-06	3.912070e-10	1.365087e+01	2.857533e+01
2.280000e-06	2.011537e-06	4.011655e-10	1.395466e+01	2.917986e+01
2.290000e-06	2.055240e-06	4.126909e-10	1.425783e+01	2.976408e+01
2.300000e-06	2.098885e-06	4.234509e-10	1.456062e+01	3.032856e+01
2.310000e-06	2.142494e-06	4.316641e-10	1.486314e+01	3.087394e+01
2.320000e-06	2.186017e-06	4.387685e-10	1.516508e+01	3.140093e+01
2.330000e-06	2.229444e-06	4.451285e-10	1.546634e+01	3.191025e+01
2.340000e-06	2.272794e-06	4.505929e-10	1.576708e+01	3.240269e+01
2.350000e-06	2.316033e-06	4.568119e-10	1.606704e+01	3.287908e+01
2.360000e-06	2.359065e-06	4.640447e-10	1.636557e+01	3.334024e+01
2.370000e-06	2.401835e-06	4.719356e-10	1.666227e+01	3.378702e+01
2.380000e-06	2.444301e-06	4.800544e-10	1.695687e+01	3.422030e+01
2.390000e-06	2.486471e-06	4.886361e-10	1.724942e+01	3.464092e+01
2.400000e-06	2.528379e-06	4.970751e-10	1.754015e+01	3.504974e+01
2.410000e-06	2.570013e-06	5.046343e-10	1.782898e+01	3.544758e+01
2.420000e-06	2.611290e-06	5.125554e-10	1.811533e+01	3.583526e+01
2.430000e-06	2.652177e-06	5.202732e-10	1.839897e+01	3.621355e+01
2.440000e-06	2.692726e-06	5.263009e-10	1.868027e+01	3.658319e+01
2.450000e-06	2.733079e-06	5.321268e-10	1.896021e+01	3.694489e+01
2.460000e-06	2.773293e-06	5.381557e-10	1.923919e+01	3.729928e+01
2.470000e-06	2.813311e-06	5.439499e-10	1.951681e+01	3.764698e+01
2.480000e-06	2.853197e-06	5.491905e-10	1.979351e+01	3.798852e+01
2.490000e-06	2.892942e-06	5.553231e-10	2.006923e+01	3.832439e+01
2.500000e-06	2.932539e-06	5.628108e-10	2.034393e+01	3.865501e+01
2.510000e-06	2.972004e-06	5.691440e-10	2.061771e+01	3.898075e+01
2.520000e-06	3.011322e-06	5.728833e-10	2.089047e+01	3.930191e+01
2.530000e-06	3.050428e-06	5.755024e-10	2.116176e+01	3.961872e+01
2.540000e-06	3.089290e-06	5.785126e-10	2.143136e+01	3.993136e+01
2.550000e-06	3.127900e-06	5.814821e-10	2.169921e+01	4.023994e+01
2.560000e-06	3.166248e-06	5.859703e-10	2.196524e+01	4.054451e+01
2.570000e-06	3.204418e-06	5.902209e-10	2.223004e+01	4.084508e+01
2.580000e-06	3.242449e-06	5.939164e-10	2.249387e+01	4.114159e+01
2.590000e-06	3.280281e-06	5.968619e-10	2.275632e+01	4.143393e+01
2.600000e-06	3.317882e-06	6.000311e-10	2.301717e+01	4.172196e+01
2.610000e-06	3.355294e-06	6.060923e-10	2.327671e+01	4.200547e+01
2.620000e-06	3.392432e-06	6.138115e-10	2.353435e+01	4.228425e+01
2.630000e-06	3.429248e-06	6.196103e-10	2.378976e+01	4.255804e+01
2.640000e-06	3.465829e-06	6.209923e-10	2.404353e+01	4.282655e+01
2.650000e-06	3.502172e-06	6.207483e-10	2.429565e+01	4.308948e+01
2.660000e-06	3.538293e-06	6.200538e-10	2.454624e+01	4.334652e+01
2.670000e-06	3.574190e-06	6.181077e-10	2.479526e+01	4.359733e+01
2.680000e-06	3.609872e-06	6.181333e-10	2.504280e+01	4.384161e+01
2.690000e-06	3.645473e-06	6.227167e-10	2.528978e+01	4.407901e+01
2.700000e-06	3.680991e-06	6.304973e-10	2.553618e+01	4.430924e+01
2.710000e-06	3.716341e-06	6.375993e-10	2.578141e+01	4.453200e+01
2.720000e-06	3.751444e-06	6.423059e-10	2.602493e+01	4.474699e+01
2.730000e-06	3.786271e-06	6.442618e-10	2.626654e+01	4.495398e+01
2.740000e-06	3.820900e-06	6.431715e-10	2.650677e+01	4.515273e+01
2.750000e-06	3.855134e-06	6.409451e-10	2.674426e+01	4.534306e+01
2.760000e-06	3.888769e-06	6.391092e-10	2.697760e+01	4.552480e+01
2.770000e-06	3.921724e-06	6.404694e-10	2.720621e+01	4.569784e+01
2.780000e-06	3.954163e-06	6.459019e-10	2.743125e+01	4.586210e+01
2.790000e-06	3.986423e-06	6.532716e-10	2.765505e+01	4.601754e+01
2.800000e-06	4.018481e-06	6.600580e-10	2.787745e+01	4.616419e+01
2.810000e-06	4.050300e-06	6.657791e-10	2.809818e+01	4.630210e+01
2.820000e-06	4.081951e-06	6.679047e-10	2.831776e+01	4.643137e+01
2.830000e-06	4.113438e-06	6.659516e-10	2.853619e+01	4.655215e+01
2.840000e-06	4.144718e-06	6.631085e-10	2.875319e+01	4.666463e+01
2.850000e-06	4.175660e-06	6.637602e-10	2.896785e+01	4.676906e+01
2.860000e-06	4.206315e-06	6.673209e-10	2.918051e+01	4.686570e+01
2.870000e-06	4.236723e-06	6.712471e-10	2.939146e+01	4.695488e+01
2.880000e-06	4.266758e-06	6.759127e-10	2.959982e+01	4.703694e+01
2.890000e-06	4.296485e-06	6.795107e-10	2.980605e+01	4.711229e+01
2.900000e-06	4.325935e-06	6.826936e-10	3.001035e+01	4.718132e+01
