# Temperatura_=_-0.26
# Concentracion g/m^3_=_1620.0
# C_Vs_to_Am_M_A/Vsm_=_65563218390.804596
# pendiente_HvsI_1/m_=_3716.3
# ordenada_HvsI_A/m_=_1297.0
# frecuencia_Hz_=_135108.1863230407

Tiempo_(s)	Campo_(V.s)	Magnetizacion_(V.s)	Campo_(kA/m)	Magnetizacion_(A/m)
0.000000e+00	-5.520431e-06	-1.008928e-09	-3.837320e+01	-6.595097e+01
1.000000e-08	-5.520696e-06	-1.010809e-09	-3.837505e+01	-6.594885e+01
2.000000e-08	-5.520783e-06	-1.012287e-09	-3.837565e+01	-6.594650e+01
3.000000e-08	-5.520537e-06	-1.014022e-09	-3.837394e+01	-6.594381e+01
4.000000e-08	-5.519797e-06	-1.012832e-09	-3.836879e+01	-6.594064e+01
5.000000e-08	-5.518549e-06	-1.008040e-09	-3.836012e+01	-6.593687e+01
6.000000e-08	-5.516794e-06	-9.989386e-10	-3.834792e+01	-6.593236e+01
7.000000e-08	-5.514442e-06	-9.876318e-10	-3.833157e+01	-6.592694e+01
8.000000e-08	-5.511482e-06	-9.966638e-10	-3.831100e+01	-6.592046e+01
9.000000e-08	-5.507995e-06	-1.020187e-09	-3.828675e+01	-6.591276e+01
1.000000e-07	-5.504003e-06	-1.031241e-09	-3.825901e+01	-6.590367e+01
1.100000e-07	-5.499598e-06	-1.009503e-09	-3.822839e+01	-6.589303e+01
1.200000e-07	-5.494943e-06	-9.591639e-10	-3.819603e+01	-6.588067e+01
1.300000e-07	-5.490143e-06	-9.520730e-10	-3.816267e+01	-6.586643e+01
1.400000e-07	-5.485097e-06	-1.002941e-09	-3.812759e+01	-6.585014e+01
1.500000e-07	-5.479635e-06	-9.836500e-10	-3.808962e+01	-6.583165e+01
1.600000e-07	-5.473775e-06	-9.671637e-10	-3.804889e+01	-6.581082e+01
1.700000e-07	-5.467521e-06	-9.442562e-10	-3.800542e+01	-6.578751e+01
1.800000e-07	-5.460795e-06	-1.024508e-09	-3.795867e+01	-6.576159e+01
1.900000e-07	-5.453644e-06	-1.012334e-09	-3.790896e+01	-6.573293e+01
2.000000e-07	-5.446246e-06	-9.736439e-10	-3.785753e+01	-6.570144e+01
2.100000e-07	-5.438637e-06	-9.481517e-10	-3.780464e+01	-6.566701e+01
2.200000e-07	-5.430701e-06	-9.976509e-10	-3.774948e+01	-6.562958e+01
2.300000e-07	-5.422428e-06	-1.010312e-09	-3.769197e+01	-6.558905e+01
2.400000e-07	-5.413845e-06	-9.873203e-10	-3.763231e+01	-6.554540e+01
2.500000e-07	-5.404725e-06	-9.920677e-10	-3.756892e+01	-6.549856e+01
2.600000e-07	-5.394889e-06	-1.005413e-09	-3.750054e+01	-6.544851e+01
2.700000e-07	-5.384405e-06	-1.010650e-09	-3.742767e+01	-6.539525e+01
2.800000e-07	-5.373432e-06	-9.784176e-10	-3.735139e+01	-6.533875e+01
2.900000e-07	-5.362001e-06	-9.889627e-10	-3.727193e+01	-6.527905e+01
3.000000e-07	-5.350166e-06	-9.979115e-10	-3.718967e+01	-6.521615e+01
3.100000e-07	-5.337953e-06	-1.020323e-09	-3.710477e+01	-6.515008e+01
3.200000e-07	-5.325380e-06	-9.904375e-10	-3.701738e+01	-6.508090e+01
3.300000e-07	-5.312426e-06	-1.001540e-09	-3.692733e+01	-6.500864e+01
3.400000e-07	-5.299014e-06	-9.920668e-10	-3.683411e+01	-6.493336e+01
3.500000e-07	-5.285199e-06	-1.009015e-09	-3.673807e+01	-6.485513e+01
3.600000e-07	-5.270977e-06	-9.825880e-10	-3.663922e+01	-6.477401e+01
3.700000e-07	-5.256235e-06	-1.000112e-09	-3.653674e+01	-6.469008e+01
3.800000e-07	-5.240969e-06	-1.007837e-09	-3.643063e+01	-6.460340e+01
3.900000e-07	-5.225286e-06	-1.021114e-09	-3.632161e+01	-6.451405e+01
4.000000e-07	-5.209062e-06	-9.892532e-10	-3.620884e+01	-6.442210e+01
4.100000e-07	-5.192454e-06	-9.932142e-10	-3.609339e+01	-6.432763e+01
4.200000e-07	-5.175554e-06	-9.938393e-10	-3.597592e+01	-6.423070e+01
4.300000e-07	-5.158270e-06	-9.806873e-10	-3.585577e+01	-6.413138e+01
4.400000e-07	-5.140694e-06	-9.701183e-10	-3.573360e+01	-6.402973e+01
4.500000e-07	-5.122826e-06	-1.002937e-09	-3.560940e+01	-6.392581e+01
4.600000e-07	-5.104551e-06	-9.945983e-10	-3.548237e+01	-6.381966e+01
4.700000e-07	-5.085776e-06	-9.538052e-10	-3.535186e+01	-6.371134e+01
4.800000e-07	-5.066597e-06	-9.624820e-10	-3.521854e+01	-6.360087e+01
4.900000e-07	-5.047135e-06	-9.823765e-10	-3.508326e+01	-6.348828e+01
5.000000e-07	-5.027416e-06	-9.531787e-10	-3.494619e+01	-6.337361e+01
5.100000e-07	-5.007479e-06	-9.427210e-10	-3.480761e+01	-6.325686e+01
5.200000e-07	-4.987320e-06	-9.773380e-10	-3.466748e+01	-6.313804e+01
5.300000e-07	-4.966902e-06	-9.587408e-10	-3.452555e+01	-6.301715e+01
5.400000e-07	-4.946105e-06	-9.398426e-10	-3.438099e+01	-6.289419e+01
5.500000e-07	-4.924938e-06	-9.627239e-10	-3.423386e+01	-6.276916e+01
5.600000e-07	-4.903408e-06	-9.607458e-10	-3.408420e+01	-6.264202e+01
5.700000e-07	-4.881482e-06	-9.170231e-10	-3.393179e+01	-6.251277e+01
5.800000e-07	-4.859244e-06	-9.404890e-10	-3.377721e+01	-6.238138e+01
5.900000e-07	-4.836619e-06	-9.561396e-10	-3.361994e+01	-6.224782e+01
6.000000e-07	-4.813643e-06	-9.301215e-10	-3.346023e+01	-6.211208e+01
6.100000e-07	-4.790418e-06	-9.241517e-10	-3.329879e+01	-6.197412e+01
6.200000e-07	-4.766897e-06	-9.518149e-10	-3.313529e+01	-6.183392e+01
6.300000e-07	-4.743120e-06	-9.218357e-10	-3.297001e+01	-6.169145e+01
6.400000e-07	-4.719111e-06	-9.126535e-10	-3.280312e+01	-6.154670e+01
6.500000e-07	-4.694858e-06	-9.321718e-10	-3.263454e+01	-6.139965e+01
6.600000e-07	-4.670203e-06	-9.290779e-10	-3.246316e+01	-6.125029e+01
6.700000e-07	-4.645078e-06	-9.077762e-10	-3.228851e+01	-6.109860e+01
6.800000e-07	-4.619593e-06	-9.260213e-10	-3.211137e+01	-6.094460e+01
6.900000e-07	-4.593596e-06	-9.201242e-10	-3.193066e+01	-6.078829e+01
7.000000e-07	-4.566959e-06	-9.048486e-10	-3.174550e+01	-6.062969e+01
7.100000e-07	-4.539797e-06	-9.105447e-10	-3.155669e+01	-6.046881e+01
7.200000e-07	-4.512280e-06	-9.161899e-10	-3.136542e+01	-6.030570e+01
7.300000e-07	-4.484533e-06	-8.977465e-10	-3.117254e+01	-6.014039e+01
7.400000e-07	-4.456655e-06	-9.035129e-10	-3.097876e+01	-5.997293e+01
7.500000e-07	-4.428642e-06	-9.115273e-10	-3.078404e+01	-5.980338e+01
7.600000e-07	-4.400388e-06	-9.007436e-10	-3.058764e+01	-5.963181e+01
7.700000e-07	-4.371833e-06	-8.954239e-10	-3.038916e+01	-5.945828e+01
7.800000e-07	-4.343003e-06	-8.998447e-10	-3.018875e+01	-5.928289e+01
7.900000e-07	-4.313782e-06	-8.919365e-10	-2.998564e+01	-5.910571e+01
8.000000e-07	-4.284177e-06	-8.854576e-10	-2.977985e+01	-5.892683e+01
8.100000e-07	-4.254387e-06	-8.931428e-10	-2.957277e+01	-5.874634e+01
8.200000e-07	-4.224348e-06	-8.875995e-10	-2.936397e+01	-5.856435e+01
8.300000e-07	-4.193965e-06	-8.805536e-10	-2.915277e+01	-5.838095e+01
8.400000e-07	-4.163365e-06	-8.821206e-10	-2.894007e+01	-5.819624e+01
8.500000e-07	-4.132484e-06	-8.844533e-10	-2.872541e+01	-5.801030e+01
8.600000e-07	-4.101241e-06	-8.755303e-10	-2.850823e+01	-5.782323e+01
8.700000e-07	-4.069760e-06	-8.781301e-10	-2.828941e+01	-5.763512e+01
8.800000e-07	-4.038086e-06	-8.770871e-10	-2.806924e+01	-5.744603e+01
8.900000e-07	-4.006247e-06	-8.697257e-10	-2.784792e+01	-5.725605e+01
9.000000e-07	-3.974259e-06	-8.584042e-10	-2.762557e+01	-5.706522e+01
9.100000e-07	-3.942046e-06	-8.578461e-10	-2.740165e+01	-5.687359e+01
9.200000e-07	-3.909524e-06	-8.475743e-10	-2.717559e+01	-5.668120e+01
9.300000e-07	-3.876633e-06	-8.430392e-10	-2.694696e+01	-5.648805e+01
9.400000e-07	-3.843376e-06	-8.464490e-10	-2.671578e+01	-5.629416e+01
9.500000e-07	-3.809633e-06	-8.523022e-10	-2.648123e+01	-5.609950e+01
9.600000e-07	-3.775320e-06	-8.458749e-10	-2.624272e+01	-5.590404e+01
9.700000e-07	-3.740590e-06	-8.450826e-10	-2.600130e+01	-5.570773e+01
9.800000e-07	-3.705494e-06	-8.400972e-10	-2.575735e+01	-5.551048e+01
9.900000e-07	-3.670103e-06	-8.304214e-10	-2.551134e+01	-5.531220e+01
1.000000e-06	-3.634510e-06	-8.233921e-10	-2.526393e+01	-5.511278e+01
1.010000e-06	-3.598739e-06	-8.252172e-10	-2.501528e+01	-5.491208e+01
1.020000e-06	-3.562842e-06	-8.234604e-10	-2.476576e+01	-5.470994e+01
1.030000e-06	-3.526884e-06	-8.222683e-10	-2.451581e+01	-5.450619e+01
1.040000e-06	-3.490771e-06	-8.211659e-10	-2.426479e+01	-5.430063e+01
1.050000e-06	-3.454394e-06	-8.149640e-10	-2.401192e+01	-5.409304e+01
1.060000e-06	-3.417742e-06	-8.033302e-10	-2.375715e+01	-5.388319e+01
1.070000e-06	-3.380811e-06	-7.952763e-10	-2.350044e+01	-5.367083e+01
1.080000e-06	-3.343613e-06	-7.914059e-10	-2.324187e+01	-5.345570e+01
1.090000e-06	-3.306137e-06	-7.875813e-10	-2.298137e+01	-5.323752e+01
1.100000e-06	-3.268444e-06	-7.879655e-10	-2.271936e+01	-5.301601e+01
1.110000e-06	-3.230570e-06	-7.867766e-10	-2.245609e+01	-5.279088e+01
1.120000e-06	-3.192491e-06	-7.810469e-10	-2.219140e+01	-5.256180e+01
1.130000e-06	-3.154224e-06	-7.726107e-10	-2.192540e+01	-5.232849e+01
1.140000e-06	-3.115763e-06	-7.684389e-10	-2.165806e+01	-5.209062e+01
1.150000e-06	-3.077044e-06	-7.612055e-10	-2.138892e+01	-5.184789e+01
1.160000e-06	-3.038040e-06	-7.551646e-10	-2.111779e+01	-5.159999e+01
1.170000e-06	-2.998813e-06	-7.517444e-10	-2.084512e+01	-5.134661e+01
1.180000e-06	-2.959432e-06	-7.520615e-10	-2.057138e+01	-5.108745e+01
1.190000e-06	-2.919844e-06	-7.467811e-10	-2.029620e+01	-5.082223e+01
1.200000e-06	-2.880044e-06	-7.445989e-10	-2.001955e+01	-5.055066e+01
1.210000e-06	-2.840163e-06	-7.410482e-10	-1.974233e+01	-5.027247e+01
1.220000e-06	-2.800183e-06	-7.367663e-10	-1.946442e+01	-4.998742e+01
1.230000e-06	-2.760073e-06	-7.293471e-10	-1.918561e+01	-4.969526e+01
1.240000e-06	-2.719860e-06	-7.228441e-10	-1.890609e+01	-4.939578e+01
1.250000e-06	-2.679498e-06	-7.133608e-10	-1.862552e+01	-4.908876e+01
1.260000e-06	-2.638890e-06	-7.075746e-10	-1.834325e+01	-4.877403e+01
1.270000e-06	-2.598076e-06	-7.062677e-10	-1.805955e+01	-4.845142e+01
1.280000e-06	-2.557037e-06	-7.060792e-10	-1.777428e+01	-4.812077e+01
1.290000e-06	-2.515704e-06	-7.009690e-10	-1.748697e+01	-4.778198e+01
1.300000e-06	-2.474088e-06	-6.929942e-10	-1.719769e+01	-4.743492e+01
1.310000e-06	-2.432156e-06	-6.837656e-10	-1.690622e+01	-4.707951e+01
1.320000e-06	-2.389865e-06	-6.774269e-10	-1.661225e+01	-4.671569e+01
1.330000e-06	-2.347231e-06	-6.724946e-10	-1.631589e+01	-4.634338e+01
1.340000e-06	-2.304417e-06	-6.714691e-10	-1.601829e+01	-4.596256e+01
1.350000e-06	-2.261372e-06	-6.711727e-10	-1.571908e+01	-4.557321e+01
1.360000e-06	-2.218012e-06	-6.657720e-10	-1.541767e+01	-4.517529e+01
1.370000e-06	-2.174442e-06	-6.583028e-10	-1.511482e+01	-4.476882e+01
1.380000e-06	-2.130773e-06	-6.490262e-10	-1.481127e+01	-4.435379e+01
1.390000e-06	-2.087039e-06	-6.405634e-10	-1.450726e+01	-4.393022e+01
1.400000e-06	-2.043232e-06	-6.330569e-10	-1.420276e+01	-4.349810e+01
1.410000e-06	-1.999372e-06	-6.290349e-10	-1.389788e+01	-4.305745e+01
1.420000e-06	-1.955477e-06	-6.238721e-10	-1.359276e+01	-4.260827e+01
1.430000e-06	-1.911536e-06	-6.184149e-10	-1.328732e+01	-4.215057e+01
1.440000e-06	-1.867479e-06	-6.118608e-10	-1.298108e+01	-4.168432e+01
1.450000e-06	-1.823270e-06	-6.046975e-10	-1.267378e+01	-4.120951e+01
1.460000e-06	-1.778930e-06	-5.947844e-10	-1.236556e+01	-4.072610e+01
1.470000e-06	-1.734477e-06	-5.867584e-10	-1.205656e+01	-4.023404e+01
1.480000e-06	-1.689931e-06	-5.782522e-10	-1.174692e+01	-3.973325e+01
1.490000e-06	-1.645216e-06	-5.714192e-10	-1.143610e+01	-3.922363e+01
1.500000e-06	-1.600322e-06	-5.640974e-10	-1.112404e+01	-3.870506e+01
1.510000e-06	-1.555322e-06	-5.570257e-10	-1.081123e+01	-3.817740e+01
1.520000e-06	-1.510208e-06	-5.484076e-10	-1.049764e+01	-3.764047e+01
1.530000e-06	-1.464977e-06	-5.377904e-10	-1.018324e+01	-3.709408e+01
1.540000e-06	-1.419674e-06	-5.260434e-10	-9.868333e+00	-3.653799e+01
1.550000e-06	-1.374346e-06	-5.167907e-10	-9.553246e+00	-3.597194e+01
1.560000e-06	-1.328834e-06	-5.080072e-10	-9.236893e+00	-3.539565e+01
1.570000e-06	-1.283155e-06	-4.982085e-10	-8.919367e+00	-3.480880e+01
1.580000e-06	-1.237468e-06	-4.896720e-10	-8.601797e+00	-3.421104e+01
1.590000e-06	-1.191694e-06	-4.816352e-10	-8.283611e+00	-3.360201e+01
1.600000e-06	-1.145852e-06	-4.708650e-10	-7.964957e+00	-3.298130e+01
1.610000e-06	-1.099958e-06	-4.596233e-10	-7.645948e+00	-3.234851e+01
1.620000e-06	-1.054026e-06	-4.484416e-10	-7.326666e+00	-3.170319e+01
1.630000e-06	-1.008084e-06	-4.370567e-10	-7.007315e+00	-3.104489e+01
1.640000e-06	-9.620019e-07	-4.261415e-10	-6.686995e+00	-3.037314e+01
1.650000e-06	-9.157340e-07	-4.133825e-10	-6.365381e+00	-2.968747e+01
1.660000e-06	-8.693621e-07	-3.996602e-10	-6.043044e+00	-2.898740e+01
1.670000e-06	-8.229769e-07	-3.854768e-10	-5.720615e+00	-2.827244e+01
1.680000e-06	-7.765596e-07	-3.737072e-10	-5.397962e+00	-2.754211e+01
1.690000e-06	-7.301072e-07	-3.626025e-10	-5.075066e+00	-2.679596e+01
1.700000e-06	-6.836531e-07	-3.531417e-10	-4.752158e+00	-2.603351e+01
1.710000e-06	-6.371962e-07	-3.439260e-10	-4.429230e+00	-2.525434e+01
1.720000e-06	-5.907728e-07	-3.329303e-10	-4.106535e+00	-2.445804e+01
1.730000e-06	-5.443103e-07	-3.202175e-10	-3.783568e+00	-2.364422e+01
1.740000e-06	-4.977878e-07	-3.068243e-10	-3.460185e+00	-2.281254e+01
1.750000e-06	-4.512562e-07	-2.930454e-10	-3.136738e+00	-2.196269e+01
1.760000e-06	-4.046262e-07	-2.812547e-10	-2.812607e+00	-2.109441e+01
1.770000e-06	-3.578961e-07	-2.690476e-10	-2.487780e+00	-2.020750e+01
1.780000e-06	-3.111397e-07	-2.575989e-10	-2.162771e+00	-1.930181e+01
1.790000e-06	-2.643716e-07	-2.461593e-10	-1.837680e+00	-1.837724e+01
1.800000e-06	-2.175672e-07	-2.332177e-10	-1.512337e+00	-1.743376e+01
1.810000e-06	-1.707266e-07	-2.163476e-10	-1.186742e+00	-1.647142e+01
1.820000e-06	-1.238579e-07	-1.973317e-10	-8.609516e-01	-1.549033e+01
1.830000e-06	-7.696330e-08	-1.814463e-10	-5.349814e-01	-1.449067e+01
1.840000e-06	-3.011807e-08	-1.679758e-10	-2.093544e-01	-1.347271e+01
1.850000e-06	1.663121e-08	-1.542527e-10	1.156056e-01	-1.243680e+01
1.860000e-06	6.343101e-08	-1.440648e-10	4.409168e-01	-1.138335e+01
1.870000e-06	1.102618e-07	-1.322180e-10	7.664435e-01	-1.031287e+01
1.880000e-06	1.570979e-07	-1.164927e-10	1.092007e+00	-9.225937e+00
1.890000e-06	2.039847e-07	-9.934269e-11	1.417923e+00	-8.123224e+00
1.900000e-06	2.508227e-07	-8.072088e-11	1.743500e+00	-7.005471e+00
1.910000e-06	2.976252e-07	-6.298631e-11	2.068830e+00	-5.873499e+00
1.920000e-06	3.444189e-07	-4.713882e-11	2.394099e+00	-4.728203e+00
1.930000e-06	3.911030e-07	-3.451357e-11	2.718606e+00	-3.570552e+00
1.940000e-06	4.378373e-07	-2.004682e-11	3.043461e+00	-2.401580e+00
1.950000e-06	4.846556e-07	-5.772731e-12	3.368901e+00	-1.222388e+00
1.960000e-06	5.312974e-07	8.073654e-12	3.693114e+00	-3.413504e-02
1.970000e-06	5.778215e-07	2.407363e-11	4.016509e+00	1.161966e+00
1.980000e-06	6.243236e-07	4.407069e-11	4.339751e+00	2.364654e+00
1.990000e-06	6.707270e-07	6.269188e-11	4.662307e+00	3.572626e+00
2.000000e-06	7.170453e-07	7.892063e-11	4.984271e+00	4.784541e+00
2.010000e-06	7.633154e-07	9.579706e-11	5.305900e+00	5.999033e+00
2.020000e-06	8.095436e-07	1.122767e-10	5.627238e+00	7.214712e+00
2.030000e-06	8.557252e-07	1.275523e-10	5.948252e+00	8.430173e+00
2.040000e-06	9.018170e-07	1.441119e-10	6.268642e+00	9.644006e+00
2.050000e-06	9.478489e-07	1.597003e-10	6.588616e+00	1.085480e+01
2.060000e-06	9.938198e-07	1.751397e-10	6.908165e+00	1.206116e+01
2.070000e-06	1.039772e-06	1.919101e-10	7.227583e+00	1.326169e+01
2.080000e-06	1.085715e-06	2.093917e-10	7.546940e+00	1.445503e+01
2.090000e-06	1.131628e-06	2.253048e-10	7.866089e+00	1.563985e+01
2.100000e-06	1.177479e-06	2.410544e-10	8.184803e+00	1.681487e+01
2.110000e-06	1.223148e-06	2.584250e-10	8.502253e+00	1.797881e+01
2.120000e-06	1.268711e-06	2.755637e-10	8.818965e+00	1.913050e+01
2.130000e-06	1.314222e-06	2.923443e-10	9.135323e+00	2.026878e+01
2.140000e-06	1.359666e-06	3.079024e-10	9.451205e+00	2.139258e+01
2.150000e-06	1.405017e-06	3.225839e-10	9.766446e+00	2.250089e+01
2.160000e-06	1.450267e-06	3.366577e-10	1.008099e+01	2.359276e+01
2.170000e-06	1.495377e-06	3.527774e-10	1.039455e+01	2.466734e+01
2.180000e-06	1.540301e-06	3.696180e-10	1.070682e+01	2.572384e+01
2.190000e-06	1.585150e-06	3.841354e-10	1.101857e+01	2.676156e+01
2.200000e-06	1.629956e-06	3.980295e-10	1.133002e+01	2.777988e+01
2.210000e-06	1.674585e-06	4.127308e-10	1.164025e+01	2.877827e+01
2.220000e-06	1.719040e-06	4.279004e-10	1.194926e+01	2.975629e+01
2.230000e-06	1.763362e-06	4.434748e-10	1.225735e+01	3.071358e+01
2.240000e-06	1.807548e-06	4.561592e-10	1.256449e+01	3.164988e+01
2.250000e-06	1.851667e-06	4.662910e-10	1.287117e+01	3.256498e+01
2.260000e-06	1.895730e-06	4.762194e-10	1.317745e+01	3.345880e+01
2.270000e-06	1.939750e-06	4.872701e-10	1.348345e+01	3.433131e+01
2.280000e-06	1.983735e-06	4.990303e-10	1.378919e+01	3.518257e+01
2.290000e-06	2.027646e-06	5.120838e-10	1.409442e+01	3.601271e+01
2.300000e-06	2.071490e-06	5.246609e-10	1.439919e+01	3.682194e+01
2.310000e-06	2.115244e-06	5.377904e-10	1.470332e+01	3.761051e+01
2.320000e-06	2.158895e-06	5.514454e-10	1.500675e+01	3.837877e+01
2.330000e-06	2.202470e-06	5.631672e-10	1.530964e+01	3.912709e+01
2.340000e-06	2.245851e-06	5.719841e-10	1.561119e+01	3.985592e+01
2.350000e-06	2.289026e-06	5.789704e-10	1.591131e+01	4.056573e+01
2.360000e-06	2.331941e-06	5.859578e-10	1.620961e+01	4.125704e+01
2.370000e-06	2.374524e-06	5.955212e-10	1.650561e+01	4.193042e+01
2.380000e-06	2.416783e-06	6.073413e-10	1.679936e+01	4.258642e+01
2.390000e-06	2.458666e-06	6.208375e-10	1.709049e+01	4.322567e+01
2.400000e-06	2.500301e-06	6.342523e-10	1.737990e+01	4.384876e+01
2.410000e-06	2.541656e-06	6.445384e-10	1.766737e+01	4.445633e+01
2.420000e-06	2.582732e-06	6.535585e-10	1.795289e+01	4.504900e+01
2.430000e-06	2.623613e-06	6.630355e-10	1.823706e+01	4.562738e+01
2.440000e-06	2.664285e-06	6.717592e-10	1.851978e+01	4.619210e+01
2.450000e-06	2.704817e-06	6.797555e-10	1.880152e+01	4.674375e+01
2.460000e-06	2.745139e-06	6.880307e-10	1.908180e+01	4.728292e+01
2.470000e-06	2.785220e-06	6.952285e-10	1.936041e+01	4.781015e+01
2.480000e-06	2.825166e-06	7.014759e-10	1.963808e+01	4.832599e+01
2.490000e-06	2.865020e-06	7.066965e-10	1.991511e+01	4.883094e+01
2.500000e-06	2.904787e-06	7.125846e-10	2.019153e+01	4.932546e+01
2.510000e-06	2.944430e-06	7.191842e-10	2.046710e+01	4.980999e+01
2.520000e-06	2.983847e-06	7.264017e-10	2.074109e+01	5.028493e+01
2.530000e-06	3.023031e-06	7.347652e-10	2.101346e+01	5.075062e+01
2.540000e-06	3.062033e-06	7.427986e-10	2.128457e+01	5.120740e+01
2.550000e-06	3.100855e-06	7.493254e-10	2.155443e+01	5.165553e+01
2.560000e-06	3.139444e-06	7.546409e-10	2.182267e+01	5.209525e+01
2.570000e-06	3.177765e-06	7.599984e-10	2.208904e+01	5.252675e+01
2.580000e-06	3.215780e-06	7.658707e-10	2.235329e+01	5.295020e+01
2.590000e-06	3.253534e-06	7.712929e-10	2.261572e+01	5.336572e+01
2.600000e-06	3.291146e-06	7.764271e-10	2.287716e+01	5.377338e+01
2.610000e-06	3.328646e-06	7.825128e-10	2.313783e+01	5.417325e+01
2.620000e-06	3.365958e-06	7.910458e-10	2.339719e+01	5.456533e+01
2.630000e-06	3.402986e-06	7.996414e-10	2.365458e+01	5.494962e+01
2.640000e-06	3.439695e-06	8.049840e-10	2.390974e+01	5.532608e+01
2.650000e-06	3.476164e-06	8.076139e-10	2.416325e+01	5.569467e+01
2.660000e-06	3.512418e-06	8.098214e-10	2.441526e+01	5.605531e+01
2.670000e-06	3.548456e-06	8.127694e-10	2.466576e+01	5.640790e+01
2.680000e-06	3.584383e-06	8.162574e-10	2.491549e+01	5.675235e+01
2.690000e-06	3.620197e-06	8.207023e-10	2.516444e+01	5.708856e+01
2.700000e-06	3.655805e-06	8.275197e-10	2.541196e+01	5.741642e+01
2.710000e-06	3.691315e-06	8.353978e-10	2.565879e+01	5.773581e+01
2.720000e-06	3.726692e-06	8.418670e-10	2.590470e+01	5.804663e+01
2.730000e-06	3.761625e-06	8.474681e-10	2.614753e+01	5.834878e+01
2.740000e-06	3.796031e-06	8.508439e-10	2.638668e+01	5.864218e+01
2.750000e-06	3.829972e-06	8.520426e-10	2.662261e+01	5.892674e+01
2.760000e-06	3.863468e-06	8.524910e-10	2.685545e+01	5.920242e+01
2.770000e-06	3.896495e-06	8.531016e-10	2.708502e+01	5.946917e+01
2.780000e-06	3.929111e-06	8.571656e-10	2.731174e+01	5.972697e+01
2.790000e-06	3.961429e-06	8.649714e-10	2.753639e+01	5.997582e+01
2.800000e-06	3.993569e-06	8.728860e-10	2.775979e+01	6.021577e+01
2.810000e-06	4.025600e-06	8.790909e-10	2.798245e+01	6.044685e+01
2.820000e-06	4.057479e-06	8.836386e-10	2.820404e+01	6.066915e+01
2.830000e-06	4.089160e-06	8.867944e-10	2.842426e+01	6.088277e+01
2.840000e-06	4.120567e-06	8.875031e-10	2.864257e+01	6.108785e+01
2.850000e-06	4.151685e-06	8.883953e-10	2.885888e+01	6.128454e+01
2.860000e-06	4.182547e-06	8.929259e-10	2.907340e+01	6.147304e+01
2.870000e-06	4.213062e-06	8.977605e-10	2.928551e+01	6.165354e+01
2.880000e-06	4.243248e-06	9.009089e-10	2.949535e+01	6.182630e+01
2.890000e-06	4.273151e-06	9.043485e-10	2.970320e+01	6.199155e+01
2.900000e-06	4.302730e-06	9.083920e-10	2.990881e+01	6.214957e+01
