# Temperatura_=_-0.4
# Concentracion g/m^3_=_1620.0
# C_Vs_to_Am_M_A/Vsm_=_65563218390.804596
# pendiente_HvsI_1/m_=_3716.3
# ordenada_HvsI_A/m_=_1297.0
# frecuencia_Hz_=_135088.84766258238

Tiempo_(s)	Campo_(V.s)	Magnetizacion_(V.s)	Campo_(kA/m)	Magnetizacion_(A/m)
0.000000e+00	-5.520697e-06	-1.326388e-09	-3.837659e+01	-8.578736e+01
1.000000e-08	-5.520939e-06	-1.325365e-09	-3.837827e+01	-8.577862e+01
2.000000e-08	-5.520894e-06	-1.322220e-09	-3.837795e+01	-8.576874e+01
3.000000e-08	-5.520457e-06	-1.319514e-09	-3.837492e+01	-8.575770e+01
4.000000e-08	-5.519604e-06	-1.314705e-09	-3.836899e+01	-8.574547e+01
5.000000e-08	-5.518244e-06	-1.310935e-09	-3.835953e+01	-8.573203e+01
6.000000e-08	-5.516381e-06	-1.311845e-09	-3.834659e+01	-8.571733e+01
7.000000e-08	-5.513927e-06	-1.317826e-09	-3.832952e+01	-8.570130e+01
8.000000e-08	-5.510901e-06	-1.335904e-09	-3.830849e+01	-8.568389e+01
9.000000e-08	-5.507404e-06	-1.326831e-09	-3.828418e+01	-8.566500e+01
1.000000e-07	-5.503422e-06	-1.273789e-09	-3.825650e+01	-8.564457e+01
1.100000e-07	-5.499208e-06	-1.252247e-09	-3.822721e+01	-8.562249e+01
1.200000e-07	-5.494670e-06	-1.343112e-09	-3.819566e+01	-8.559867e+01
1.300000e-07	-5.489755e-06	-1.299969e-09	-3.816150e+01	-8.557299e+01
1.400000e-07	-5.484517e-06	-1.268349e-09	-3.812509e+01	-8.554536e+01
1.500000e-07	-5.478949e-06	-1.223509e-09	-3.808638e+01	-8.551564e+01
1.600000e-07	-5.473095e-06	-1.322345e-09	-3.804568e+01	-8.548373e+01
1.700000e-07	-5.466805e-06	-1.333558e-09	-3.800196e+01	-8.544950e+01
1.800000e-07	-5.460059e-06	-1.292748e-09	-3.795507e+01	-8.541282e+01
1.900000e-07	-5.452968e-06	-1.281281e-09	-3.790577e+01	-8.537358e+01
2.000000e-07	-5.445604e-06	-1.311393e-09	-3.785459e+01	-8.533165e+01
2.100000e-07	-5.437956e-06	-1.353577e-09	-3.780142e+01	-8.528691e+01
2.200000e-07	-5.430102e-06	-1.313635e-09	-3.774683e+01	-8.523924e+01
2.300000e-07	-5.421966e-06	-1.305077e-09	-3.769027e+01	-8.518852e+01
2.400000e-07	-5.413307e-06	-1.307127e-09	-3.763008e+01	-8.513464e+01
2.500000e-07	-5.403972e-06	-1.367296e-09	-3.756519e+01	-8.507750e+01
2.600000e-07	-5.393992e-06	-1.329622e-09	-3.749581e+01	-8.501699e+01
2.700000e-07	-5.383456e-06	-1.316199e-09	-3.742257e+01	-8.495301e+01
2.800000e-07	-5.372331e-06	-1.296111e-09	-3.734524e+01	-8.488547e+01
2.900000e-07	-5.360790e-06	-1.340611e-09	-3.726501e+01	-8.481430e+01
3.000000e-07	-5.348941e-06	-1.308420e-09	-3.718264e+01	-8.473941e+01
3.100000e-07	-5.336631e-06	-1.307078e-09	-3.709707e+01	-8.466075e+01
3.200000e-07	-5.323917e-06	-1.302932e-09	-3.700869e+01	-8.457824e+01
3.300000e-07	-5.310898e-06	-1.342787e-09	-3.691819e+01	-8.449183e+01
3.400000e-07	-5.297493e-06	-1.299073e-09	-3.682501e+01	-8.440149e+01
3.500000e-07	-5.283689e-06	-1.286013e-09	-3.672905e+01	-8.430718e+01
3.600000e-07	-5.269505e-06	-1.298343e-09	-3.663045e+01	-8.420888e+01
3.700000e-07	-5.254861e-06	-1.318582e-09	-3.652866e+01	-8.410655e+01
3.800000e-07	-5.239492e-06	-1.279718e-09	-3.642182e+01	-8.400021e+01
3.900000e-07	-5.223570e-06	-1.302720e-09	-3.631114e+01	-8.388983e+01
4.000000e-07	-5.207291e-06	-1.322261e-09	-3.619797e+01	-8.377544e+01
4.100000e-07	-5.190539e-06	-1.267419e-09	-3.608152e+01	-8.365704e+01
4.200000e-07	-5.173475e-06	-1.249134e-09	-3.596291e+01	-8.353465e+01
4.300000e-07	-5.156169e-06	-1.302221e-09	-3.584261e+01	-8.340830e+01
4.400000e-07	-5.138551e-06	-1.290516e-09	-3.572013e+01	-8.327803e+01
4.500000e-07	-5.120532e-06	-1.215846e-09	-3.559488e+01	-8.314388e+01
4.600000e-07	-5.102082e-06	-1.268862e-09	-3.546662e+01	-8.300589e+01
4.700000e-07	-5.083199e-06	-1.296898e-09	-3.533536e+01	-8.286411e+01
4.800000e-07	-5.063975e-06	-1.234915e-09	-3.520173e+01	-8.271860e+01
4.900000e-07	-5.044483e-06	-1.225458e-09	-3.506623e+01	-8.256942e+01
5.000000e-07	-5.024767e-06	-1.299464e-09	-3.492918e+01	-8.241664e+01
5.100000e-07	-5.004871e-06	-1.234889e-09	-3.479087e+01	-8.226031e+01
5.200000e-07	-4.984733e-06	-1.201837e-09	-3.465089e+01	-8.210051e+01
5.300000e-07	-4.964257e-06	-1.264553e-09	-3.450855e+01	-8.193730e+01
5.400000e-07	-4.943425e-06	-1.265829e-09	-3.436374e+01	-8.177077e+01
5.500000e-07	-4.922176e-06	-1.183184e-09	-3.421603e+01	-8.160099e+01
5.600000e-07	-4.900551e-06	-1.238323e-09	-3.406570e+01	-8.142803e+01
5.700000e-07	-4.878685e-06	-1.263206e-09	-3.391370e+01	-8.125197e+01
5.800000e-07	-4.856542e-06	-1.201713e-09	-3.375978e+01	-8.107288e+01
5.900000e-07	-4.834041e-06	-1.196593e-09	-3.360336e+01	-8.089083e+01
6.000000e-07	-4.811192e-06	-1.249708e-09	-3.344454e+01	-8.070590e+01
6.100000e-07	-4.787959e-06	-1.197184e-09	-3.328303e+01	-8.051816e+01
6.200000e-07	-4.764410e-06	-1.180979e-09	-3.311933e+01	-8.032769e+01
6.300000e-07	-4.740737e-06	-1.220925e-09	-3.295477e+01	-8.013453e+01
6.400000e-07	-4.716825e-06	-1.203055e-09	-3.278855e+01	-7.993877e+01
6.500000e-07	-4.692431e-06	-1.171005e-09	-3.261898e+01	-7.974045e+01
6.600000e-07	-4.667631e-06	-1.211851e-09	-3.244658e+01	-7.953965e+01
6.700000e-07	-4.642395e-06	-1.206280e-09	-3.227116e+01	-7.933640e+01
6.800000e-07	-4.616601e-06	-1.170090e-09	-3.209185e+01	-7.913076e+01
6.900000e-07	-4.590259e-06	-1.191286e-09	-3.190874e+01	-7.892277e+01
7.000000e-07	-4.563428e-06	-1.201595e-09	-3.172223e+01	-7.871247e+01
7.100000e-07	-4.536201e-06	-1.167371e-09	-3.153296e+01	-7.849989e+01
7.200000e-07	-4.508694e-06	-1.171176e-09	-3.134174e+01	-7.828506e+01
7.300000e-07	-4.481045e-06	-1.187482e-09	-3.114955e+01	-7.806801e+01
7.400000e-07	-4.453192e-06	-1.159060e-09	-3.095593e+01	-7.784873e+01
7.500000e-07	-4.425152e-06	-1.160902e-09	-3.076102e+01	-7.762725e+01
7.600000e-07	-4.396927e-06	-1.173257e-09	-3.056481e+01	-7.740356e+01
7.700000e-07	-4.368334e-06	-1.155135e-09	-3.036605e+01	-7.717765e+01
7.800000e-07	-4.339352e-06	-1.139522e-09	-3.016458e+01	-7.694952e+01
7.900000e-07	-4.310098e-06	-1.158448e-09	-2.996122e+01	-7.671913e+01
8.000000e-07	-4.280536e-06	-1.141534e-09	-2.975573e+01	-7.648646e+01
8.100000e-07	-4.250654e-06	-1.126568e-09	-2.954800e+01	-7.625147e+01
8.200000e-07	-4.220500e-06	-1.137341e-09	-2.933839e+01	-7.601410e+01
8.300000e-07	-4.190043e-06	-1.141631e-09	-2.912667e+01	-7.577432e+01
8.400000e-07	-4.159349e-06	-1.116000e-09	-2.891331e+01	-7.553204e+01
8.500000e-07	-4.128419e-06	-1.121538e-09	-2.869830e+01	-7.528719e+01
8.600000e-07	-4.097184e-06	-1.123796e-09	-2.848117e+01	-7.503971e+01
8.700000e-07	-4.065721e-06	-1.107129e-09	-2.826246e+01	-7.478948e+01
8.800000e-07	-4.034052e-06	-1.097822e-09	-2.804232e+01	-7.453642e+01
8.900000e-07	-4.002198e-06	-1.111565e-09	-2.782089e+01	-7.428042e+01
9.000000e-07	-3.970166e-06	-1.096382e-09	-2.759822e+01	-7.402136e+01
9.100000e-07	-3.937873e-06	-1.084792e-09	-2.737374e+01	-7.375912e+01
9.200000e-07	-3.905185e-06	-1.088124e-09	-2.714651e+01	-7.349357e+01
9.300000e-07	-3.872071e-06	-1.081824e-09	-2.691632e+01	-7.322457e+01
9.400000e-07	-3.838444e-06	-1.061964e-09	-2.668257e+01	-7.295197e+01
9.500000e-07	-3.804330e-06	-1.068085e-09	-2.644543e+01	-7.267562e+01
9.600000e-07	-3.769883e-06	-1.076668e-09	-2.620598e+01	-7.239537e+01
9.700000e-07	-3.735027e-06	-1.068145e-09	-2.596368e+01	-7.211105e+01
9.800000e-07	-3.699804e-06	-1.065481e-09	-2.571883e+01	-7.182250e+01
9.900000e-07	-3.664358e-06	-1.071152e-09	-2.547242e+01	-7.152955e+01
1.000000e-06	-3.628779e-06	-1.061321e-09	-2.522510e+01	-7.123202e+01
1.010000e-06	-3.593128e-06	-1.047296e-09	-2.497728e+01	-7.092974e+01
1.020000e-06	-3.557354e-06	-1.047795e-09	-2.472860e+01	-7.062253e+01
1.030000e-06	-3.521372e-06	-1.040082e-09	-2.447847e+01	-7.031022e+01
1.040000e-06	-3.485182e-06	-1.030035e-09	-2.422690e+01	-6.999263e+01
1.050000e-06	-3.448772e-06	-1.027120e-09	-2.397380e+01	-6.966958e+01
1.060000e-06	-3.412055e-06	-1.024039e-09	-2.371857e+01	-6.934090e+01
1.070000e-06	-3.375072e-06	-1.010105e-09	-2.346149e+01	-6.900642e+01
1.080000e-06	-3.337860e-06	-1.002431e-09	-2.320281e+01	-6.866597e+01
1.090000e-06	-3.300295e-06	-9.987086e-10	-2.294168e+01	-6.831940e+01
1.100000e-06	-3.262458e-06	-9.908928e-10	-2.267866e+01	-6.796655e+01
1.110000e-06	-3.224582e-06	-9.783056e-10	-2.241537e+01	-6.760726e+01
1.120000e-06	-3.186573e-06	-9.740184e-10	-2.215115e+01	-6.724140e+01
1.130000e-06	-3.148219e-06	-9.646831e-10	-2.188453e+01	-6.686883e+01
1.140000e-06	-3.109573e-06	-9.565328e-10	-2.161589e+01	-6.648943e+01
1.150000e-06	-3.070688e-06	-9.502210e-10	-2.134559e+01	-6.610308e+01
1.160000e-06	-3.031616e-06	-9.481494e-10	-2.107398e+01	-6.570966e+01
1.170000e-06	-2.992373e-06	-9.401941e-10	-2.080119e+01	-6.530909e+01
1.180000e-06	-2.952937e-06	-9.376538e-10	-2.052705e+01	-6.490128e+01
1.190000e-06	-2.913343e-06	-9.310282e-10	-2.025182e+01	-6.448614e+01
1.200000e-06	-2.873589e-06	-9.220247e-10	-1.997548e+01	-6.406360e+01
1.210000e-06	-2.833734e-06	-9.144825e-10	-1.969843e+01	-6.363361e+01
1.220000e-06	-2.793855e-06	-9.106725e-10	-1.942121e+01	-6.319612e+01
1.230000e-06	-2.753800e-06	-9.033828e-10	-1.914277e+01	-6.275107e+01
1.240000e-06	-2.713539e-06	-8.964348e-10	-1.886290e+01	-6.229844e+01
1.250000e-06	-2.673083e-06	-8.886230e-10	-1.858167e+01	-6.183821e+01
1.260000e-06	-2.632407e-06	-8.802121e-10	-1.829892e+01	-6.137034e+01
1.270000e-06	-2.591527e-06	-8.741660e-10	-1.801475e+01	-6.089483e+01
1.280000e-06	-2.550384e-06	-8.724343e-10	-1.772875e+01	-6.041166e+01
1.290000e-06	-2.508898e-06	-8.674511e-10	-1.744036e+01	-5.992084e+01
1.300000e-06	-2.467075e-06	-8.600420e-10	-1.714963e+01	-5.942234e+01
1.310000e-06	-2.425009e-06	-8.507669e-10	-1.685721e+01	-5.891616e+01
1.320000e-06	-2.382650e-06	-8.393159e-10	-1.656276e+01	-5.840231e+01
1.330000e-06	-2.339974e-06	-8.277583e-10	-1.626610e+01	-5.788076e+01
1.340000e-06	-2.297024e-06	-8.208009e-10	-1.596754e+01	-5.735151e+01
1.350000e-06	-2.253850e-06	-8.164043e-10	-1.566742e+01	-5.681454e+01
1.360000e-06	-2.210542e-06	-8.091281e-10	-1.536637e+01	-5.626981e+01
1.370000e-06	-2.167083e-06	-8.033425e-10	-1.506427e+01	-5.571729e+01
1.380000e-06	-2.123452e-06	-7.979764e-10	-1.476097e+01	-5.515694e+01
1.390000e-06	-2.079769e-06	-7.915704e-10	-1.445731e+01	-5.458869e+01
1.400000e-06	-2.036039e-06	-7.785471e-10	-1.415333e+01	-5.401247e+01
1.410000e-06	-1.992207e-06	-7.672581e-10	-1.384863e+01	-5.342818e+01
1.420000e-06	-1.948301e-06	-7.551282e-10	-1.354342e+01	-5.283572e+01
1.430000e-06	-1.904361e-06	-7.455664e-10	-1.323798e+01	-5.223497e+01
1.440000e-06	-1.860320e-06	-7.364589e-10	-1.293184e+01	-5.162577e+01
1.450000e-06	-1.816144e-06	-7.283773e-10	-1.262475e+01	-5.100795e+01
1.460000e-06	-1.771921e-06	-7.160233e-10	-1.231733e+01	-5.038134e+01
1.470000e-06	-1.727619e-06	-7.045424e-10	-1.200937e+01	-4.974572e+01
1.480000e-06	-1.683179e-06	-6.934207e-10	-1.170045e+01	-4.910085e+01
1.490000e-06	-1.638543e-06	-6.829275e-10	-1.139017e+01	-4.844649e+01
1.500000e-06	-1.593725e-06	-6.718928e-10	-1.107862e+01	-4.778234e+01
1.510000e-06	-1.548766e-06	-6.622190e-10	-1.076609e+01	-4.710812e+01
1.520000e-06	-1.503637e-06	-6.486321e-10	-1.045239e+01	-4.642349e+01
1.530000e-06	-1.458442e-06	-6.318035e-10	-1.013822e+01	-4.572812e+01
1.540000e-06	-1.413202e-06	-6.168620e-10	-9.823733e+00	-4.502164e+01
1.550000e-06	-1.367824e-06	-6.056530e-10	-9.508297e+00	-4.430366e+01
1.560000e-06	-1.322353e-06	-5.922490e-10	-9.192207e+00	-4.357380e+01
1.570000e-06	-1.276821e-06	-5.837604e-10	-8.875695e+00	-4.283162e+01
1.580000e-06	-1.231194e-06	-5.768828e-10	-8.558527e+00	-4.207671e+01
1.590000e-06	-1.185441e-06	-5.693088e-10	-8.240477e+00	-4.130862e+01
1.600000e-06	-1.139587e-06	-5.591730e-10	-7.921730e+00	-4.052691e+01
1.610000e-06	-1.093627e-06	-5.478330e-10	-7.602239e+00	-3.973113e+01
1.620000e-06	-1.047528e-06	-5.320368e-10	-7.281788e+00	-3.892082e+01
1.630000e-06	-1.001378e-06	-5.136221e-10	-6.960985e+00	-3.809552e+01
1.640000e-06	-9.552421e-07	-5.011823e-10	-6.640273e+00	-3.725480e+01
1.650000e-06	-9.090552e-07	-4.888409e-10	-6.319208e+00	-3.639820e+01
1.660000e-06	-8.628351e-07	-4.778104e-10	-5.997914e+00	-3.552530e+01
1.670000e-06	-8.165597e-07	-4.661216e-10	-5.676235e+00	-3.463569e+01
1.680000e-06	-7.702247e-07	-4.553527e-10	-5.354142e+00	-3.372897e+01
1.690000e-06	-7.239319e-07	-4.408769e-10	-5.032342e+00	-3.280476e+01
1.700000e-06	-6.774967e-07	-4.271745e-10	-4.709552e+00	-3.186274e+01
1.710000e-06	-6.309254e-07	-4.114004e-10	-4.385817e+00	-3.090257e+01
1.720000e-06	-5.843538e-07	-3.930052e-10	-4.062078e+00	-2.992399e+01
1.730000e-06	-5.377272e-07	-3.738086e-10	-3.737958e+00	-2.892676e+01
1.740000e-06	-4.910686e-07	-3.584204e-10	-3.413616e+00	-2.791067e+01
1.750000e-06	-4.443921e-07	-3.449329e-10	-3.089149e+00	-2.687558e+01
1.760000e-06	-3.976460e-07	-3.325373e-10	-2.764198e+00	-2.582138e+01
1.770000e-06	-3.508346e-07	-3.156972e-10	-2.438792e+00	-2.474803e+01
1.780000e-06	-3.040460e-07	-2.999089e-10	-2.113546e+00	-2.365552e+01
1.790000e-06	-2.572694e-07	-2.838306e-10	-1.788383e+00	-2.254393e+01
1.800000e-06	-2.104002e-07	-2.641275e-10	-1.462576e+00	-2.141336e+01
1.810000e-06	-1.634557e-07	-2.440627e-10	-1.136246e+00	-2.026400e+01
1.820000e-06	-1.165395e-07	-2.246050e-10	-8.101130e-01	-1.909610e+01
1.830000e-06	-6.973445e-08	-2.075978e-10	-4.847522e-01	-1.790996e+01
1.840000e-06	-2.293015e-08	-1.921849e-10	-1.593967e-01	-1.670595e+01
1.850000e-06	2.387104e-08	-1.769362e-10	1.659372e-01	-1.548453e+01
1.860000e-06	7.058174e-08	-1.614200e-10	4.906421e-01	-1.424618e+01
1.870000e-06	1.174243e-07	-1.428520e-10	8.162635e-01	-1.299148e+01
1.880000e-06	1.643801e-07	-1.245843e-10	1.142672e+00	-1.172107e+01
1.890000e-06	2.112166e-07	-1.069480e-10	1.468252e+00	-1.043563e+01
1.900000e-06	2.579141e-07	-8.857505e-11	1.792865e+00	-9.135920e+00
1.910000e-06	3.046241e-07	-7.162701e-11	2.117565e+00	-7.822757e+00
1.920000e-06	3.513988e-07	-5.378760e-11	2.442715e+00	-6.497011e+00
1.930000e-06	3.981857e-07	-3.573054e-11	2.767949e+00	-5.159607e+00
1.940000e-06	4.448788e-07	-1.681250e-11	3.092531e+00	-3.811517e+00
1.950000e-06	4.914785e-07	-2.444530e-13	3.416465e+00	-2.453763e+00
1.960000e-06	5.380603e-07	1.451143e-11	3.740274e+00	-1.087407e+00
1.970000e-06	5.845182e-07	2.914032e-11	4.063222e+00	2.864489e-01
1.980000e-06	6.308399e-07	4.643483e-11	4.385222e+00	1.666670e+00
1.990000e-06	6.771354e-07	6.660399e-11	4.707041e+00	3.052092e+00
2.000000e-06	7.234459e-07	8.748566e-11	5.028964e+00	4.441527e+00
2.010000e-06	7.697773e-07	1.080036e-10	5.351032e+00	5.833768e+00
2.020000e-06	8.162091e-07	1.282061e-10	5.673798e+00	7.227595e+00
2.030000e-06	8.625215e-07	1.449270e-10	5.995734e+00	8.621778e+00
2.040000e-06	9.086701e-07	1.615290e-10	6.316531e+00	1.001509e+01
2.050000e-06	9.547778e-07	1.767359e-10	6.637045e+00	1.140629e+01
2.060000e-06	1.000760e-06	1.926487e-10	6.956682e+00	1.279417e+01
2.070000e-06	1.046665e-06	2.122035e-10	7.275789e+00	1.417751e+01
2.080000e-06	1.092499e-06	2.359205e-10	7.594401e+00	1.555514e+01
2.090000e-06	1.138284e-06	2.587365e-10	7.912667e+00	1.692587e+01
2.100000e-06	1.184033e-06	2.783256e-10	8.230687e+00	1.828858e+01
2.110000e-06	1.229646e-06	2.966327e-10	8.547762e+00	1.964217e+01
2.120000e-06	1.275133e-06	3.141599e-10	8.863965e+00	2.098555e+01
2.130000e-06	1.320556e-06	3.327679e-10	9.179719e+00	2.231772e+01
2.140000e-06	1.365927e-06	3.518140e-10	9.495111e+00	2.363770e+01
2.150000e-06	1.411300e-06	3.690518e-10	9.810511e+00	2.494455e+01
2.160000e-06	1.456546e-06	3.860426e-10	1.012504e+01	2.623740e+01
2.170000e-06	1.501619e-06	4.069544e-10	1.043836e+01	2.751544e+01
2.180000e-06	1.546604e-06	4.299309e-10	1.075107e+01	2.877789e+01
2.190000e-06	1.591432e-06	4.487053e-10	1.106269e+01	3.002406e+01
2.200000e-06	1.636089e-06	4.634046e-10	1.137312e+01	3.125330e+01
2.210000e-06	1.680659e-06	4.788038e-10	1.168294e+01	3.246504e+01
2.220000e-06	1.725215e-06	4.963120e-10	1.199266e+01	3.365877e+01
2.230000e-06	1.769698e-06	5.143259e-10	1.230188e+01	3.483404e+01
2.240000e-06	1.813959e-06	5.331716e-10	1.260956e+01	3.599045e+01
2.250000e-06	1.858077e-06	5.522530e-10	1.291624e+01	3.712769e+01
2.260000e-06	1.902104e-06	5.673749e-10	1.322229e+01	3.824549e+01
2.270000e-06	1.945962e-06	5.824109e-10	1.352717e+01	3.934366e+01
2.280000e-06	1.989696e-06	5.950674e-10	1.383118e+01	4.042206e+01
2.290000e-06	2.033373e-06	6.068048e-10	1.413480e+01	4.148060e+01
2.300000e-06	2.077049e-06	6.184103e-10	1.443841e+01	4.251925e+01
2.310000e-06	2.120688e-06	6.317479e-10	1.474176e+01	4.353805e+01
2.320000e-06	2.164188e-06	6.486387e-10	1.504414e+01	4.453707e+01
2.330000e-06	2.207611e-06	6.643805e-10	1.534599e+01	4.551643e+01
2.340000e-06	2.250962e-06	6.776897e-10	1.564734e+01	4.647629e+01
2.350000e-06	2.294120e-06	6.895752e-10	1.594735e+01	4.741686e+01
2.360000e-06	2.337114e-06	7.008921e-10	1.624622e+01	4.833837e+01
2.370000e-06	2.379813e-06	7.121640e-10	1.654304e+01	4.924111e+01
2.380000e-06	2.422207e-06	7.222865e-10	1.683774e+01	5.012537e+01
2.390000e-06	2.464358e-06	7.346615e-10	1.713074e+01	5.099148e+01
2.400000e-06	2.506161e-06	7.490970e-10	1.742133e+01	5.183978e+01
2.410000e-06	2.547598e-06	7.628807e-10	1.770938e+01	5.267064e+01
2.420000e-06	2.588774e-06	7.764496e-10	1.799561e+01	5.348443e+01
2.430000e-06	2.629722e-06	7.888874e-10	1.828026e+01	5.428153e+01
2.440000e-06	2.670324e-06	8.010219e-10	1.856250e+01	5.506234e+01
2.450000e-06	2.710581e-06	8.128870e-10	1.884234e+01	5.582725e+01
2.460000e-06	2.750625e-06	8.257483e-10	1.912070e+01	5.657665e+01
2.470000e-06	2.790572e-06	8.366263e-10	1.939839e+01	5.731092e+01
2.480000e-06	2.830475e-06	8.452631e-10	1.967577e+01	5.803046e+01
2.490000e-06	2.870279e-06	8.528119e-10	1.995246e+01	5.873563e+01
2.500000e-06	2.909849e-06	8.604059e-10	2.022754e+01	5.942678e+01
2.510000e-06	2.949309e-06	8.697243e-10	2.050184e+01	6.010427e+01
2.520000e-06	2.988654e-06	8.800854e-10	2.077534e+01	6.076843e+01
2.530000e-06	3.027734e-06	8.916244e-10	2.104700e+01	6.141956e+01
2.540000e-06	3.066572e-06	9.024817e-10	2.131697e+01	6.205797e+01
2.550000e-06	3.105195e-06	9.103022e-10	2.158546e+01	6.268393e+01
2.560000e-06	3.143587e-06	9.175501e-10	2.185234e+01	6.329770e+01
2.570000e-06	3.181743e-06	9.271066e-10	2.211758e+01	6.389952e+01
2.580000e-06	3.219721e-06	9.373336e-10	2.238158e+01	6.448959e+01
2.590000e-06	3.257483e-06	9.449738e-10	2.264407e+01	6.506813e+01
2.600000e-06	3.295054e-06	9.515483e-10	2.290525e+01	6.563530e+01
2.610000e-06	3.332429e-06	9.583430e-10	2.316505e+01	6.619128e+01
2.620000e-06	3.369552e-06	9.673391e-10	2.342311e+01	6.673619e+01
2.630000e-06	3.406474e-06	9.775200e-10	2.367977e+01	6.727017e+01
2.640000e-06	3.443140e-06	9.866231e-10	2.393466e+01	6.779333e+01
2.650000e-06	3.479530e-06	9.952189e-10	2.418762e+01	6.830577e+01
2.660000e-06	3.515721e-06	1.001061e-09	2.443919e+01	6.880756e+01
2.670000e-06	3.551723e-06	1.003857e-09	2.468946e+01	6.929880e+01
2.680000e-06	3.587593e-06	1.006082e-09	2.493881e+01	6.977954e+01
2.690000e-06	3.623336e-06	1.009580e-09	2.518727e+01	7.024984e+01
2.700000e-06	3.658899e-06	1.015661e-09	2.543448e+01	7.070977e+01
2.710000e-06	3.694238e-06	1.023997e-09	2.568013e+01	7.115938e+01
2.720000e-06	3.729298e-06	1.034135e-09	2.592385e+01	7.159871e+01
2.730000e-06	3.764075e-06	1.047001e-09	2.616560e+01	7.202782e+01
2.740000e-06	3.798480e-06	1.057400e-09	2.640476e+01	7.244677e+01
2.750000e-06	3.832445e-06	1.062425e-09	2.664086e+01	7.285561e+01
2.760000e-06	3.865988e-06	1.062803e-09	2.687404e+01	7.325442e+01
2.770000e-06	3.899017e-06	1.061903e-09	2.710364e+01	7.364326e+01
2.780000e-06	3.931656e-06	1.064092e-09	2.733053e+01	7.402222e+01
2.790000e-06	3.963923e-06	1.070905e-09	2.755483e+01	7.439140e+01
2.800000e-06	3.995897e-06	1.080617e-09	2.777709e+01	7.475088e+01
2.810000e-06	4.027762e-06	1.092050e-09	2.799860e+01	7.510079e+01
2.820000e-06	4.059470e-06	1.100972e-09	2.821901e+01	7.544126e+01
2.830000e-06	4.090982e-06	1.105233e-09	2.843807e+01	7.577241e+01
2.840000e-06	4.122276e-06	1.107142e-09	2.865560e+01	7.609440e+01
2.850000e-06	4.153277e-06	1.107753e-09	2.887110e+01	7.640740e+01
2.860000e-06	4.183943e-06	1.111515e-09	2.908427e+01	7.671158e+01
2.870000e-06	4.214391e-06	1.117321e-09	2.929592e+01	7.700713e+01
2.880000e-06	4.244595e-06	1.123110e-09	2.950589e+01	7.729426e+01
2.890000e-06	4.274474e-06	1.130019e-09	2.971359e+01	7.757316e+01
2.900000e-06	4.304001e-06	1.135926e-09	2.991885e+01	7.784406e+01
