# Temperatura_=_2.0
# Concentracion g/m^3_=_1620.0
# C_Vs_to_Am_M_A/Vsm_=_65563218390.804596
# pendiente_HvsI_1/m_=_3716.3
# ordenada_HvsI_A/m_=_1297.0
# frecuencia_Hz_=_135108.62027790668

Tiempo_(s)	Campo_(V.s)	Magnetizacion_(V.s)	Campo_(kA/m)	Magnetizacion_(A/m)
0.000000e+00	-5.534365e-06	-8.456341e-10	-3.836313e+01	-5.744116e+01
1.000000e-08	-5.534522e-06	-8.447855e-10	-3.836421e+01	-5.745023e+01
2.000000e-08	-5.534464e-06	-8.415532e-10	-3.836382e+01	-5.745747e+01
3.000000e-08	-5.534130e-06	-8.364180e-10	-3.836150e+01	-5.746280e+01
4.000000e-08	-5.533319e-06	-8.317857e-10	-3.835588e+01	-5.746614e+01
5.000000e-08	-5.531961e-06	-8.298879e-10	-3.834646e+01	-5.746741e+01
6.000000e-08	-5.530055e-06	-8.245196e-10	-3.833325e+01	-5.746652e+01
7.000000e-08	-5.527556e-06	-8.122895e-10	-3.831593e+01	-5.746337e+01
8.000000e-08	-5.524525e-06	-8.334158e-10	-3.829492e+01	-5.745788e+01
9.000000e-08	-5.521036e-06	-8.824649e-10	-3.827073e+01	-5.744994e+01
1.000000e-07	-5.517055e-06	-8.714487e-10	-3.824314e+01	-5.743947e+01
1.100000e-07	-5.512758e-06	-8.143955e-10	-3.821335e+01	-5.742636e+01
1.200000e-07	-5.508247e-06	-8.116422e-10	-3.818208e+01	-5.741053e+01
1.300000e-07	-5.503413e-06	-8.120070e-10	-3.814858e+01	-5.739189e+01
1.400000e-07	-5.498208e-06	-8.288093e-10	-3.811249e+01	-5.737034e+01
1.500000e-07	-5.492630e-06	-7.825853e-10	-3.807383e+01	-5.734582e+01
1.600000e-07	-5.486755e-06	-8.035233e-10	-3.803311e+01	-5.731825e+01
1.700000e-07	-5.480509e-06	-8.297256e-10	-3.798981e+01	-5.728756e+01
1.800000e-07	-5.473778e-06	-8.329262e-10	-3.794315e+01	-5.725370e+01
1.900000e-07	-5.466694e-06	-8.280628e-10	-3.789405e+01	-5.721663e+01
2.000000e-07	-5.459273e-06	-8.153199e-10	-3.784260e+01	-5.717630e+01
2.100000e-07	-5.451546e-06	-8.502884e-10	-3.778904e+01	-5.713268e+01
2.200000e-07	-5.443673e-06	-8.615917e-10	-3.773447e+01	-5.708578e+01
2.300000e-07	-5.435555e-06	-8.805582e-10	-3.767820e+01	-5.703558e+01
2.400000e-07	-5.427024e-06	-8.558770e-10	-3.761906e+01	-5.698210e+01
2.500000e-07	-5.417877e-06	-8.712261e-10	-3.755566e+01	-5.692537e+01
2.600000e-07	-5.407928e-06	-8.634197e-10	-3.748669e+01	-5.686541e+01
2.700000e-07	-5.397374e-06	-8.752915e-10	-3.741353e+01	-5.680228e+01
2.800000e-07	-5.386330e-06	-8.657787e-10	-3.733698e+01	-5.673605e+01
2.900000e-07	-5.374833e-06	-8.839458e-10	-3.725728e+01	-5.666679e+01
3.000000e-07	-5.362997e-06	-8.727240e-10	-3.717524e+01	-5.659457e+01
3.100000e-07	-5.350789e-06	-8.659458e-10	-3.709061e+01	-5.651952e+01
3.200000e-07	-5.338151e-06	-8.486431e-10	-3.700301e+01	-5.644172e+01
3.300000e-07	-5.325098e-06	-8.607509e-10	-3.691253e+01	-5.636129e+01
3.400000e-07	-5.311683e-06	-8.585623e-10	-3.681954e+01	-5.627837e+01
3.500000e-07	-5.297873e-06	-8.430675e-10	-3.672381e+01	-5.619309e+01
3.600000e-07	-5.283622e-06	-8.542972e-10	-3.662502e+01	-5.610557e+01
3.700000e-07	-5.268988e-06	-8.719741e-10	-3.652359e+01	-5.601596e+01
3.800000e-07	-5.253835e-06	-8.502631e-10	-3.641855e+01	-5.592442e+01
3.900000e-07	-5.238041e-06	-8.367845e-10	-3.630907e+01	-5.583107e+01
4.000000e-07	-5.221764e-06	-8.779655e-10	-3.619624e+01	-5.573608e+01
4.100000e-07	-5.205003e-06	-8.643886e-10	-3.608006e+01	-5.563959e+01
4.200000e-07	-5.187866e-06	-8.241018e-10	-3.596126e+01	-5.554174e+01
4.300000e-07	-5.170566e-06	-8.471997e-10	-3.584134e+01	-5.544266e+01
4.400000e-07	-5.153070e-06	-8.796172e-10	-3.572006e+01	-5.534250e+01
4.500000e-07	-5.135161e-06	-8.226623e-10	-3.559592e+01	-5.524138e+01
4.600000e-07	-5.116727e-06	-8.241805e-10	-3.546814e+01	-5.513942e+01
4.700000e-07	-5.097865e-06	-8.675757e-10	-3.533740e+01	-5.503673e+01
4.800000e-07	-5.078618e-06	-8.444546e-10	-3.520398e+01	-5.493341e+01
4.900000e-07	-5.059057e-06	-8.079441e-10	-3.506839e+01	-5.482955e+01
5.000000e-07	-5.039352e-06	-8.640495e-10	-3.493180e+01	-5.472522e+01
5.100000e-07	-5.019489e-06	-8.505416e-10	-3.479411e+01	-5.462051e+01
5.200000e-07	-4.999302e-06	-8.000258e-10	-3.465418e+01	-5.451544e+01
5.300000e-07	-4.978720e-06	-8.286378e-10	-3.451151e+01	-5.441008e+01
5.400000e-07	-4.957798e-06	-8.600948e-10	-3.436648e+01	-5.430445e+01
5.500000e-07	-4.936563e-06	-8.029799e-10	-3.421928e+01	-5.419855e+01
5.600000e-07	-4.915027e-06	-8.147104e-10	-3.407000e+01	-5.409241e+01
5.700000e-07	-4.893166e-06	-8.509145e-10	-3.391846e+01	-5.398599e+01
5.800000e-07	-4.870910e-06	-8.141351e-10	-3.376419e+01	-5.387929e+01
5.900000e-07	-4.848226e-06	-7.939990e-10	-3.360695e+01	-5.377226e+01
6.000000e-07	-4.825242e-06	-8.377376e-10	-3.344763e+01	-5.366487e+01
6.100000e-07	-4.801988e-06	-8.173116e-10	-3.328643e+01	-5.355707e+01
6.200000e-07	-4.778406e-06	-7.873453e-10	-3.312297e+01	-5.344878e+01
6.300000e-07	-4.754617e-06	-8.125642e-10	-3.295807e+01	-5.333994e+01
6.400000e-07	-4.730603e-06	-8.089308e-10	-3.279160e+01	-5.323048e+01
6.500000e-07	-4.706201e-06	-7.782883e-10	-3.262246e+01	-5.312031e+01
6.600000e-07	-4.681430e-06	-7.980237e-10	-3.245075e+01	-5.300934e+01
6.700000e-07	-4.656244e-06	-8.122201e-10	-3.227617e+01	-5.289749e+01
6.800000e-07	-4.630490e-06	-7.888174e-10	-3.209764e+01	-5.278468e+01
6.900000e-07	-4.604188e-06	-7.969136e-10	-3.191532e+01	-5.267080e+01
7.000000e-07	-4.577409e-06	-8.089632e-10	-3.172970e+01	-5.255577e+01
7.100000e-07	-4.550216e-06	-7.916793e-10	-3.154120e+01	-5.243950e+01
7.200000e-07	-4.522670e-06	-7.848612e-10	-3.135026e+01	-5.232191e+01
7.300000e-07	-4.494917e-06	-7.966690e-10	-3.115788e+01	-5.220293e+01
7.400000e-07	-4.467018e-06	-7.814562e-10	-3.096449e+01	-5.208247e+01
7.500000e-07	-4.438912e-06	-7.789075e-10	-3.076966e+01	-5.196047e+01
7.600000e-07	-4.410545e-06	-7.889345e-10	-3.057303e+01	-5.183687e+01
7.700000e-07	-4.381808e-06	-7.853010e-10	-3.037383e+01	-5.171162e+01
7.800000e-07	-4.352724e-06	-7.732544e-10	-3.017223e+01	-5.158466e+01
7.900000e-07	-4.323374e-06	-7.831152e-10	-2.996878e+01	-5.145597e+01
8.000000e-07	-4.293773e-06	-7.777331e-10	-2.976359e+01	-5.132551e+01
8.100000e-07	-4.263946e-06	-7.657286e-10	-2.955683e+01	-5.119327e+01
8.200000e-07	-4.233854e-06	-7.669577e-10	-2.934824e+01	-5.105923e+01
8.300000e-07	-4.203418e-06	-7.724694e-10	-2.913727e+01	-5.092338e+01
8.400000e-07	-4.172581e-06	-7.611656e-10	-2.892351e+01	-5.078574e+01
8.500000e-07	-4.141443e-06	-7.652407e-10	-2.870767e+01	-5.064630e+01
8.600000e-07	-4.110082e-06	-7.720424e-10	-2.849028e+01	-5.050508e+01
8.700000e-07	-4.078498e-06	-7.665073e-10	-2.827135e+01	-5.036211e+01
8.800000e-07	-4.046730e-06	-7.585528e-10	-2.805113e+01	-5.021740e+01
8.900000e-07	-4.014847e-06	-7.641190e-10	-2.783013e+01	-5.007098e+01
9.000000e-07	-3.982782e-06	-7.575631e-10	-2.760786e+01	-4.992289e+01
9.100000e-07	-3.950412e-06	-7.466500e-10	-2.738348e+01	-4.977315e+01
9.200000e-07	-3.917713e-06	-7.470067e-10	-2.715682e+01	-4.962178e+01
9.300000e-07	-3.884580e-06	-7.495649e-10	-2.692714e+01	-4.946881e+01
9.400000e-07	-3.850915e-06	-7.457986e-10	-2.669379e+01	-4.931426e+01
9.500000e-07	-3.816749e-06	-7.499011e-10	-2.645695e+01	-4.915815e+01
9.600000e-07	-3.782120e-06	-7.566309e-10	-2.621691e+01	-4.900048e+01
9.700000e-07	-3.747099e-06	-7.514841e-10	-2.597415e+01	-4.884126e+01
9.800000e-07	-3.711783e-06	-7.473862e-10	-2.572935e+01	-4.868048e+01
9.900000e-07	-3.676270e-06	-7.478804e-10	-2.548318e+01	-4.851812e+01
1.000000e-06	-3.640616e-06	-7.453360e-10	-2.523603e+01	-4.835415e+01
1.010000e-06	-3.604829e-06	-7.390849e-10	-2.498796e+01	-4.818853e+01
1.020000e-06	-3.568937e-06	-7.415803e-10	-2.473917e+01	-4.802119e+01
1.030000e-06	-3.532920e-06	-7.423392e-10	-2.448951e+01	-4.785208e+01
1.040000e-06	-3.496716e-06	-7.384047e-10	-2.423855e+01	-4.768110e+01
1.050000e-06	-3.460232e-06	-7.340811e-10	-2.398564e+01	-4.750816e+01
1.060000e-06	-3.423366e-06	-7.310575e-10	-2.373010e+01	-4.733315e+01
1.070000e-06	-3.386215e-06	-7.214919e-10	-2.347257e+01	-4.715592e+01
1.080000e-06	-3.348916e-06	-7.185843e-10	-2.321403e+01	-4.697635e+01
1.090000e-06	-3.311417e-06	-7.181770e-10	-2.295409e+01	-4.679426e+01
1.100000e-06	-3.273620e-06	-7.177624e-10	-2.269209e+01	-4.660949e+01
1.110000e-06	-3.235557e-06	-7.131969e-10	-2.242825e+01	-4.642185e+01
1.120000e-06	-3.197247e-06	-7.101036e-10	-2.216269e+01	-4.623113e+01
1.130000e-06	-3.158642e-06	-7.023947e-10	-2.189508e+01	-4.603713e+01
1.140000e-06	-3.119912e-06	-6.948936e-10	-2.162661e+01	-4.583963e+01
1.150000e-06	-3.081052e-06	-6.888898e-10	-2.135725e+01	-4.563840e+01
1.160000e-06	-3.041950e-06	-6.861220e-10	-2.108620e+01	-4.543318e+01
1.170000e-06	-3.002676e-06	-6.830452e-10	-2.081396e+01	-4.522375e+01
1.180000e-06	-2.963234e-06	-6.801800e-10	-2.054056e+01	-4.500985e+01
1.190000e-06	-2.923620e-06	-6.780650e-10	-2.026596e+01	-4.479123e+01
1.200000e-06	-2.883899e-06	-6.758298e-10	-1.999062e+01	-4.456762e+01
1.210000e-06	-2.844030e-06	-6.741491e-10	-1.971426e+01	-4.433878e+01
1.220000e-06	-2.804043e-06	-6.725545e-10	-1.943707e+01	-4.410446e+01
1.230000e-06	-2.763903e-06	-6.667806e-10	-1.915883e+01	-4.386440e+01
1.240000e-06	-2.723535e-06	-6.592577e-10	-1.887901e+01	-4.361836e+01
1.250000e-06	-2.682934e-06	-6.511234e-10	-1.859757e+01	-4.336610e+01
1.260000e-06	-2.642150e-06	-6.450379e-10	-1.831486e+01	-4.310739e+01
1.270000e-06	-2.601235e-06	-6.438807e-10	-1.803125e+01	-4.284200e+01
1.280000e-06	-2.560028e-06	-6.454027e-10	-1.774561e+01	-4.256974e+01
1.290000e-06	-2.518417e-06	-6.443822e-10	-1.745717e+01	-4.229039e+01
1.300000e-06	-2.476499e-06	-6.375279e-10	-1.716661e+01	-4.200377e+01
1.310000e-06	-2.434256e-06	-6.270696e-10	-1.687378e+01	-4.170970e+01
1.320000e-06	-2.391640e-06	-6.163611e-10	-1.657837e+01	-4.140802e+01
1.330000e-06	-2.348788e-06	-6.104362e-10	-1.628133e+01	-4.109858e+01
1.340000e-06	-2.305734e-06	-6.074203e-10	-1.598289e+01	-4.078125e+01
1.350000e-06	-2.262479e-06	-6.049694e-10	-1.568306e+01	-4.045590e+01
1.360000e-06	-2.219017e-06	-5.989837e-10	-1.538179e+01	-4.012241e+01
1.370000e-06	-2.175405e-06	-5.925880e-10	-1.507948e+01	-3.978070e+01
1.380000e-06	-2.131735e-06	-5.879137e-10	-1.477677e+01	-3.943067e+01
1.390000e-06	-2.088013e-06	-5.834527e-10	-1.447370e+01	-3.907225e+01
1.400000e-06	-2.044212e-06	-5.766288e-10	-1.417007e+01	-3.870536e+01
1.410000e-06	-2.000288e-06	-5.705642e-10	-1.386560e+01	-3.832995e+01
1.420000e-06	-1.956279e-06	-5.637833e-10	-1.356054e+01	-3.794595e+01
1.430000e-06	-1.912230e-06	-5.572469e-10	-1.325520e+01	-3.755332e+01
1.440000e-06	-1.868057e-06	-5.492079e-10	-1.294900e+01	-3.715200e+01
1.450000e-06	-1.823761e-06	-5.420360e-10	-1.264195e+01	-3.674195e+01
1.460000e-06	-1.779346e-06	-5.333079e-10	-1.233407e+01	-3.632312e+01
1.470000e-06	-1.734773e-06	-5.254054e-10	-1.202510e+01	-3.589544e+01
1.480000e-06	-1.690069e-06	-5.208506e-10	-1.171523e+01	-3.545887e+01
1.490000e-06	-1.645196e-06	-5.180647e-10	-1.140418e+01	-3.501333e+01
1.500000e-06	-1.600239e-06	-5.128201e-10	-1.109254e+01	-3.455875e+01
1.510000e-06	-1.555195e-06	-5.053359e-10	-1.078030e+01	-3.409503e+01
1.520000e-06	-1.509991e-06	-4.957329e-10	-1.046696e+01	-3.362208e+01
1.530000e-06	-1.464712e-06	-4.853711e-10	-1.015309e+01	-3.313978e+01
1.540000e-06	-1.419358e-06	-4.754016e-10	-9.838710e+00	-3.264801e+01
1.550000e-06	-1.373917e-06	-4.676687e-10	-9.523720e+00	-3.214661e+01
1.560000e-06	-1.328360e-06	-4.623805e-10	-9.207928e+00	-3.163542e+01
1.570000e-06	-1.282704e-06	-4.563702e-10	-8.891453e+00	-3.111425e+01
1.580000e-06	-1.237010e-06	-4.493113e-10	-8.574709e+00	-3.058291e+01
1.590000e-06	-1.191243e-06	-4.417776e-10	-8.257464e+00	-3.004117e+01
1.600000e-06	-1.145318e-06	-4.323886e-10	-7.939121e+00	-2.948880e+01
1.610000e-06	-1.099241e-06	-4.216371e-10	-7.619723e+00	-2.892553e+01
1.620000e-06	-1.053128e-06	-4.095603e-10	-7.300077e+00	-2.835110e+01
1.630000e-06	-1.006935e-06	-3.967470e-10	-6.979878e+00	-2.776521e+01
1.640000e-06	-9.606197e-07	-3.853369e-10	-6.658826e+00	-2.716756e+01
1.650000e-06	-9.143207e-07	-3.737945e-10	-6.337891e+00	-2.655784e+01
1.660000e-06	-8.680365e-07	-3.640899e-10	-6.017058e+00	-2.593572e+01
1.670000e-06	-8.217081e-07	-3.557479e-10	-5.695918e+00	-2.530087e+01
1.680000e-06	-7.752373e-07	-3.498296e-10	-5.373792e+00	-2.465295e+01
1.690000e-06	-7.286089e-07	-3.429431e-10	-5.050573e+00	-2.399163e+01
1.700000e-06	-6.819353e-07	-3.363452e-10	-4.727041e+00	-2.331657e+01
1.710000e-06	-6.352647e-07	-3.274059e-10	-4.403530e+00	-2.262743e+01
1.720000e-06	-5.885881e-07	-3.133821e-10	-4.079977e+00	-2.192391e+01
1.730000e-06	-5.418625e-07	-2.970008e-10	-3.756084e+00	-2.120570e+01
1.740000e-06	-4.950961e-07	-2.834499e-10	-3.431909e+00	-2.047250e+01
1.750000e-06	-4.483314e-07	-2.723735e-10	-3.107745e+00	-1.972407e+01
1.760000e-06	-4.015007e-07	-2.628976e-10	-2.783124e+00	-1.896014e+01
1.770000e-06	-3.545965e-07	-2.530687e-10	-2.457993e+00	-1.818053e+01
1.780000e-06	-3.077350e-07	-2.425304e-10	-2.133159e+00	-1.738507e+01
1.790000e-06	-2.608733e-07	-2.306599e-10	-1.808322e+00	-1.657361e+01
1.800000e-06	-2.139497e-07	-2.163055e-10	-1.483057e+00	-1.574607e+01
1.810000e-06	-1.669679e-07	-2.021043e-10	-1.157388e+00	-1.490242e+01
1.820000e-06	-1.199534e-07	-1.878079e-10	-8.314932e-01	-1.404266e+01
1.830000e-06	-7.296619e-08	-1.734594e-10	-5.057873e-01	-1.316686e+01
1.840000e-06	-2.603531e-08	-1.601788e-10	-1.804716e-01	-1.227516e+01
1.850000e-06	2.093704e-08	-1.471634e-10	1.451314e-01	-1.136772e+01
1.860000e-06	6.792439e-08	-1.357777e-10	4.708385e-01	-1.044482e+01
1.870000e-06	1.148767e-07	-1.231888e-10	7.963026e-01	-9.506751e+00
1.880000e-06	1.618771e-07	-1.090573e-10	1.122100e+00	-8.553907e+00
1.890000e-06	2.089098e-07	-9.558749e-11	1.448122e+00	-7.586738e+00
1.900000e-06	2.558977e-07	-8.174501e-11	1.773832e+00	-6.605762e+00
1.910000e-06	3.027377e-07	-6.685612e-11	2.098518e+00	-5.611570e+00
1.920000e-06	3.495624e-07	-5.099110e-11	2.423097e+00	-4.604818e+00
1.930000e-06	3.964273e-07	-3.658963e-11	2.747956e+00	-3.586231e+00
1.940000e-06	4.432447e-07	-2.188815e-11	3.072485e+00	-2.556602e+00
1.950000e-06	4.899886e-07	-1.012680e-11	3.396505e+00	-1.516784e+00
1.960000e-06	5.366235e-07	1.047727e-12	3.719769e+00	-4.676952e-01
1.970000e-06	5.832646e-07	1.452617e-11	4.043075e+00	5.896893e-01
1.980000e-06	6.298850e-07	3.108912e-11	4.366239e+00	1.654340e+00
1.990000e-06	6.764546e-07	4.671566e-11	4.689050e+00	2.725175e+00
2.000000e-06	7.229846e-07	6.144724e-11	5.011587e+00	3.801070e+00
2.010000e-06	7.693839e-07	7.712265e-11	5.333217e+00	4.880855e+00
2.020000e-06	8.156585e-07	9.444323e-11	5.653984e+00	5.963327e+00
2.030000e-06	8.619600e-07	1.112419e-10	5.974937e+00	7.047255e+00
2.040000e-06	9.083301e-07	1.278442e-10	6.296365e+00	8.131379e+00
2.050000e-06	9.546460e-07	1.420472e-10	6.617418e+00	9.214427e+00
2.060000e-06	1.000816e-06	1.529434e-10	6.937458e+00	1.029511e+01
2.070000e-06	1.046883e-06	1.648005e-10	7.256784e+00	1.137215e+01
2.080000e-06	1.092920e-06	1.811280e-10	7.575903e+00	1.244424e+01
2.090000e-06	1.138896e-06	1.997121e-10	7.894601e+00	1.351012e+01
2.100000e-06	1.184837e-06	2.181896e-10	8.213054e+00	1.456853e+01
2.110000e-06	1.230676e-06	2.347163e-10	8.530804e+00	1.561822e+01
2.120000e-06	1.276364e-06	2.469829e-10	8.847505e+00	1.665799e+01
2.130000e-06	1.322002e-06	2.582130e-10	9.163858e+00	1.768668e+01
2.140000e-06	1.367639e-06	2.689742e-10	9.480203e+00	1.870314e+01
2.150000e-06	1.413183e-06	2.816582e-10	9.795904e+00	1.970631e+01
2.160000e-06	1.458592e-06	2.973372e-10	1.011067e+01	2.069516e+01
2.170000e-06	1.503855e-06	3.160804e-10	1.042443e+01	2.166872e+01
2.180000e-06	1.548933e-06	3.316997e-10	1.073690e+01	2.262611e+01
2.190000e-06	1.593856e-06	3.416211e-10	1.104830e+01	2.356648e+01
2.200000e-06	1.638651e-06	3.500864e-10	1.135880e+01	2.448908e+01
2.210000e-06	1.683308e-06	3.592929e-10	1.166836e+01	2.539323e+01
2.220000e-06	1.727891e-06	3.704616e-10	1.197740e+01	2.627833e+01
2.230000e-06	1.772423e-06	3.852433e-10	1.228608e+01	2.714386e+01
2.240000e-06	1.816836e-06	4.000194e-10	1.259395e+01	2.798938e+01
2.250000e-06	1.861145e-06	4.126281e-10	1.290109e+01	2.881455e+01
2.260000e-06	1.905346e-06	4.213275e-10	1.320748e+01	2.961909e+01
2.270000e-06	1.949401e-06	4.273267e-10	1.351286e+01	3.040282e+01
2.280000e-06	1.993314e-06	4.339345e-10	1.381726e+01	3.116564e+01
2.290000e-06	2.037157e-06	4.420097e-10	1.412117e+01	3.190754e+01
2.300000e-06	2.080972e-06	4.509593e-10	1.442489e+01	3.262856e+01
2.310000e-06	2.124721e-06	4.617016e-10	1.472815e+01	3.332886e+01
2.320000e-06	2.168394e-06	4.721758e-10	1.503088e+01	3.400863e+01
2.330000e-06	2.211991e-06	4.808215e-10	1.533309e+01	3.466817e+01
2.340000e-06	2.255462e-06	4.884555e-10	1.563442e+01	3.530783e+01
2.350000e-06	2.298783e-06	4.957676e-10	1.593471e+01	3.592800e+01
2.360000e-06	2.341983e-06	5.040329e-10	1.623416e+01	3.652916e+01
2.370000e-06	2.385004e-06	5.128198e-10	1.653237e+01	3.711182e+01
2.380000e-06	2.427679e-06	5.209104e-10	1.682819e+01	3.767655e+01
2.390000e-06	2.469968e-06	5.289331e-10	1.712133e+01	3.822394e+01
2.400000e-06	2.511968e-06	5.369390e-10	1.741247e+01	3.875463e+01
2.410000e-06	2.553647e-06	5.445103e-10	1.770138e+01	3.926928e+01
2.420000e-06	2.595022e-06	5.531201e-10	1.798818e+01	3.976858e+01
2.430000e-06	2.636065e-06	5.641301e-10	1.827269e+01	4.025322e+01
2.440000e-06	2.676734e-06	5.761555e-10	1.855459e+01	4.072391e+01
2.450000e-06	2.717218e-06	5.872148e-10	1.883522e+01	4.118136e+01
2.460000e-06	2.757593e-06	5.964344e-10	1.911509e+01	4.162627e+01
2.470000e-06	2.797778e-06	6.005885e-10	1.939365e+01	4.205935e+01
2.480000e-06	2.837756e-06	6.015892e-10	1.967077e+01	4.248126e+01
2.490000e-06	2.877586e-06	6.033322e-10	1.994686e+01	4.289269e+01
2.500000e-06	2.917314e-06	6.088110e-10	2.022225e+01	4.329425e+01
2.510000e-06	2.956928e-06	6.183433e-10	2.049684e+01	4.368658e+01
2.520000e-06	2.996357e-06	6.296182e-10	2.077016e+01	4.407023e+01
2.530000e-06	3.035565e-06	6.404707e-10	2.104194e+01	4.444575e+01
2.540000e-06	3.074612e-06	6.479993e-10	2.131260e+01	4.481364e+01
2.550000e-06	3.113413e-06	6.501544e-10	2.158157e+01	4.517437e+01
2.560000e-06	3.151916e-06	6.516269e-10	2.184846e+01	4.552833e+01
2.570000e-06	3.190270e-06	6.562146e-10	2.211432e+01	4.587592e+01
2.580000e-06	3.228479e-06	6.622172e-10	2.237918e+01	4.621743e+01
2.590000e-06	3.266489e-06	6.689170e-10	2.264266e+01	4.655316e+01
2.600000e-06	3.304267e-06	6.763565e-10	2.290453e+01	4.688332e+01
2.610000e-06	3.341824e-06	6.832890e-10	2.316486e+01	4.720810e+01
2.620000e-06	3.379087e-06	6.884934e-10	2.342316e+01	4.752763e+01
2.630000e-06	3.416091e-06	6.926165e-10	2.367967e+01	4.784200e+01
2.640000e-06	3.452877e-06	6.962237e-10	2.393467e+01	4.815126e+01
2.650000e-06	3.489350e-06	6.994828e-10	2.418748e+01	4.845542e+01
2.660000e-06	3.525576e-06	7.045751e-10	2.443860e+01	4.875445e+01
2.670000e-06	3.561606e-06	7.097527e-10	2.468835e+01	4.904827e+01
2.680000e-06	3.597484e-06	7.126377e-10	2.493705e+01	4.933680e+01
2.690000e-06	3.633278e-06	7.151788e-10	2.518517e+01	4.961992e+01
2.700000e-06	3.668940e-06	7.183578e-10	2.543237e+01	4.989746e+01
2.710000e-06	3.704382e-06	7.221047e-10	2.567805e+01	5.016927e+01
2.720000e-06	3.739633e-06	7.275893e-10	2.592240e+01	5.043515e+01
2.730000e-06	3.774651e-06	7.358957e-10	2.616514e+01	5.069492e+01
2.740000e-06	3.809268e-06	7.437500e-10	2.640509e+01	5.094837e+01
2.750000e-06	3.843371e-06	7.482728e-10	2.664149e+01	5.119528e+01
2.760000e-06	3.876932e-06	7.502356e-10	2.687413e+01	5.143546e+01
2.770000e-06	3.909970e-06	7.509014e-10	2.710314e+01	5.166870e+01
2.780000e-06	3.942663e-06	7.520087e-10	2.732976e+01	5.189480e+01
2.790000e-06	3.975113e-06	7.551430e-10	2.755470e+01	5.211358e+01
2.800000e-06	4.007308e-06	7.608445e-10	2.777787e+01	5.232487e+01
2.810000e-06	4.039325e-06	7.681335e-10	2.799981e+01	5.252853e+01
2.820000e-06	4.071166e-06	7.733179e-10	2.822052e+01	5.272442e+01
2.830000e-06	4.102807e-06	7.754803e-10	2.843985e+01	5.291244e+01
2.840000e-06	4.134247e-06	7.749812e-10	2.865779e+01	5.309251e+01
2.850000e-06	4.165455e-06	7.740656e-10	2.887411e+01	5.326458e+01
2.860000e-06	4.196349e-06	7.761730e-10	2.908826e+01	5.342863e+01
2.870000e-06	4.226844e-06	7.810857e-10	2.929965e+01	5.358467e+01
2.880000e-06	4.256990e-06	7.857997e-10	2.950862e+01	5.373275e+01
2.890000e-06	4.286883e-06	7.897244e-10	2.971583e+01	5.387293e+01
2.900000e-06	4.316548e-06	7.929754e-10	2.992146e+01	5.400532e+01
