# Temperatura_=_4.71
# Concentracion g/m^3_=_1620.0
# C_Vs_to_Am_M_A/Vsm_=_65563218390.804596
# pendiente_HvsI_1/m_=_3716.3
# ordenada_HvsI_A/m_=_1297.0
# frecuencia_Hz_=_135107.13550749535

Tiempo_(s)	Campo_(V.s)	Magnetizacion_(V.s)	Campo_(kA/m)	Magnetizacion_(A/m)
0.000000e+00	-5.521057e-06	-7.483613e-10	-3.837340e+01	-4.964473e+01
1.000000e-08	-5.521267e-06	-7.481827e-10	-3.837486e+01	-4.963689e+01
2.000000e-08	-5.521209e-06	-7.513222e-10	-3.837446e+01	-4.963057e+01
3.000000e-08	-5.520714e-06	-7.544750e-10	-3.837102e+01	-4.962580e+01
4.000000e-08	-5.519683e-06	-7.544568e-10	-3.836385e+01	-4.962262e+01
5.000000e-08	-5.518111e-06	-7.520200e-10	-3.835293e+01	-4.962104e+01
6.000000e-08	-5.515976e-06	-7.438092e-10	-3.833808e+01	-4.962106e+01
7.000000e-08	-5.513275e-06	-7.335709e-10	-3.831931e+01	-4.962266e+01
8.000000e-08	-5.510003e-06	-7.397259e-10	-3.829657e+01	-4.962582e+01
9.000000e-08	-5.506237e-06	-7.730385e-10	-3.827040e+01	-4.963049e+01
1.000000e-07	-5.502095e-06	-7.824336e-10	-3.824161e+01	-4.963659e+01
1.100000e-07	-5.497626e-06	-7.465536e-10	-3.821055e+01	-4.964407e+01
1.200000e-07	-5.492904e-06	-6.956426e-10	-3.817773e+01	-4.965282e+01
1.300000e-07	-5.487932e-06	-7.289975e-10	-3.814317e+01	-4.966274e+01
1.400000e-07	-5.482626e-06	-7.563389e-10	-3.810629e+01	-4.967371e+01
1.500000e-07	-5.476916e-06	-7.333836e-10	-3.806660e+01	-4.968559e+01
1.600000e-07	-5.470815e-06	-7.076048e-10	-3.802420e+01	-4.969825e+01
1.700000e-07	-5.464315e-06	-7.411607e-10	-3.797902e+01	-4.971152e+01
1.800000e-07	-5.457448e-06	-7.878663e-10	-3.793129e+01	-4.972524e+01
1.900000e-07	-5.450276e-06	-7.537286e-10	-3.788145e+01	-4.973923e+01
2.000000e-07	-5.442825e-06	-7.182190e-10	-3.782966e+01	-4.975331e+01
2.100000e-07	-5.435124e-06	-7.279834e-10	-3.777614e+01	-4.976728e+01
2.200000e-07	-5.427121e-06	-7.738737e-10	-3.772051e+01	-4.978094e+01
2.300000e-07	-5.418801e-06	-7.773844e-10	-3.766268e+01	-4.979408e+01
2.400000e-07	-5.410036e-06	-7.746849e-10	-3.760176e+01	-4.980650e+01
2.500000e-07	-5.400577e-06	-7.780659e-10	-3.753602e+01	-4.981796e+01
2.600000e-07	-5.390382e-06	-7.973604e-10	-3.746516e+01	-4.982826e+01
2.700000e-07	-5.379573e-06	-7.824832e-10	-3.739003e+01	-4.983717e+01
2.800000e-07	-5.368302e-06	-7.720863e-10	-3.731170e+01	-4.984447e+01
2.900000e-07	-5.356648e-06	-7.833685e-10	-3.723069e+01	-4.984994e+01
3.000000e-07	-5.344642e-06	-8.037936e-10	-3.714725e+01	-4.985335e+01
3.100000e-07	-5.332305e-06	-7.916137e-10	-3.706150e+01	-4.985450e+01
3.200000e-07	-5.319550e-06	-7.784796e-10	-3.697285e+01	-4.985315e+01
3.300000e-07	-5.306357e-06	-7.850068e-10	-3.688115e+01	-4.984911e+01
3.400000e-07	-5.292784e-06	-7.937939e-10	-3.678682e+01	-4.984218e+01
3.500000e-07	-5.278742e-06	-7.790425e-10	-3.668923e+01	-4.983214e+01
3.600000e-07	-5.264245e-06	-7.689690e-10	-3.658846e+01	-4.981883e+01
3.700000e-07	-5.249385e-06	-7.903894e-10	-3.648518e+01	-4.980205e+01
3.800000e-07	-5.234074e-06	-8.010524e-10	-3.637877e+01	-4.978164e+01
3.900000e-07	-5.218199e-06	-7.801325e-10	-3.626842e+01	-4.975745e+01
4.000000e-07	-5.201820e-06	-7.660992e-10	-3.615459e+01	-4.972933e+01
4.100000e-07	-5.185067e-06	-7.835944e-10	-3.603815e+01	-4.969714e+01
4.200000e-07	-5.167993e-06	-7.706215e-10	-3.591947e+01	-4.966078e+01
4.300000e-07	-5.150598e-06	-7.584052e-10	-3.579858e+01	-4.962014e+01
4.400000e-07	-5.132861e-06	-7.821355e-10	-3.567529e+01	-4.957514e+01
4.500000e-07	-5.114687e-06	-7.987020e-10	-3.554898e+01	-4.952572e+01
4.600000e-07	-5.095993e-06	-7.593892e-10	-3.541905e+01	-4.947181e+01
4.700000e-07	-5.076967e-06	-7.534699e-10	-3.528681e+01	-4.941339e+01
4.800000e-07	-5.057723e-06	-7.785162e-10	-3.515306e+01	-4.935045e+01
4.900000e-07	-5.038218e-06	-7.676039e-10	-3.501749e+01	-4.928298e+01
5.000000e-07	-5.018489e-06	-7.454880e-10	-3.488036e+01	-4.921103e+01
5.100000e-07	-4.998521e-06	-7.707083e-10	-3.474158e+01	-4.913463e+01
5.200000e-07	-4.978243e-06	-7.682264e-10	-3.460064e+01	-4.905384e+01
5.300000e-07	-4.957598e-06	-7.432764e-10	-3.445715e+01	-4.896876e+01
5.400000e-07	-4.936595e-06	-7.606958e-10	-3.431117e+01	-4.887948e+01
5.500000e-07	-4.915221e-06	-7.767994e-10	-3.416261e+01	-4.878612e+01
5.600000e-07	-4.893520e-06	-7.386655e-10	-3.401179e+01	-4.868884e+01
5.700000e-07	-4.871575e-06	-7.368062e-10	-3.385926e+01	-4.858777e+01
5.800000e-07	-4.849313e-06	-7.668246e-10	-3.370453e+01	-4.848311e+01
5.900000e-07	-4.826620e-06	-7.494397e-10	-3.354680e+01	-4.837505e+01
6.000000e-07	-4.803520e-06	-7.294325e-10	-3.338625e+01	-4.826378e+01
6.100000e-07	-4.780131e-06	-7.552704e-10	-3.322369e+01	-4.814954e+01
6.200000e-07	-4.756530e-06	-7.478219e-10	-3.305965e+01	-4.803255e+01
6.300000e-07	-4.732683e-06	-7.178296e-10	-3.289391e+01	-4.791306e+01
6.400000e-07	-4.708546e-06	-7.347754e-10	-3.272615e+01	-4.779133e+01
6.500000e-07	-4.684064e-06	-7.463147e-10	-3.255599e+01	-4.766761e+01
6.600000e-07	-4.659105e-06	-7.254583e-10	-3.238251e+01	-4.754217e+01
6.700000e-07	-4.633631e-06	-7.291132e-10	-3.220546e+01	-4.741529e+01
6.800000e-07	-4.607654e-06	-7.449685e-10	-3.202491e+01	-4.728723e+01
6.900000e-07	-4.581197e-06	-7.281913e-10	-3.184103e+01	-4.715827e+01
7.000000e-07	-4.554319e-06	-7.233979e-10	-3.165421e+01	-4.702868e+01
7.100000e-07	-4.527034e-06	-7.352694e-10	-3.146457e+01	-4.689873e+01
7.200000e-07	-4.499440e-06	-7.261455e-10	-3.127278e+01	-4.676867e+01
7.300000e-07	-4.471697e-06	-7.155624e-10	-3.107996e+01	-4.663874e+01
7.400000e-07	-4.443828e-06	-7.313819e-10	-3.088626e+01	-4.650920e+01
7.500000e-07	-4.415643e-06	-7.325383e-10	-3.069036e+01	-4.638026e+01
7.600000e-07	-4.387158e-06	-7.230392e-10	-3.049238e+01	-4.625212e+01
7.700000e-07	-4.358482e-06	-7.274192e-10	-3.029307e+01	-4.612498e+01
7.800000e-07	-4.329464e-06	-7.285073e-10	-3.009139e+01	-4.599900e+01
7.900000e-07	-4.300059e-06	-7.141665e-10	-2.988701e+01	-4.587434e+01
8.000000e-07	-4.270381e-06	-7.134265e-10	-2.968074e+01	-4.575110e+01
8.100000e-07	-4.240432e-06	-7.144364e-10	-2.947258e+01	-4.562939e+01
8.200000e-07	-4.210226e-06	-7.053674e-10	-2.926264e+01	-4.550929e+01
8.300000e-07	-4.179785e-06	-7.041034e-10	-2.905106e+01	-4.539081e+01
8.400000e-07	-4.148993e-06	-7.156073e-10	-2.883705e+01	-4.527399e+01
8.500000e-07	-4.117892e-06	-7.140681e-10	-2.862088e+01	-4.515881e+01
8.600000e-07	-4.086603e-06	-7.107549e-10	-2.840341e+01	-4.504520e+01
8.700000e-07	-4.055116e-06	-7.135466e-10	-2.818457e+01	-4.493309e+01
8.800000e-07	-4.023439e-06	-7.088741e-10	-2.796440e+01	-4.482238e+01
8.900000e-07	-3.991577e-06	-6.978946e-10	-2.774295e+01	-4.471290e+01
9.000000e-07	-3.959447e-06	-6.957478e-10	-2.751963e+01	-4.460451e+01
9.100000e-07	-3.926938e-06	-6.935780e-10	-2.729368e+01	-4.449698e+01
9.200000e-07	-3.894088e-06	-6.876618e-10	-2.706536e+01	-4.439008e+01
9.300000e-07	-3.860832e-06	-6.913699e-10	-2.683422e+01	-4.428356e+01
9.400000e-07	-3.827111e-06	-6.977495e-10	-2.659985e+01	-4.417713e+01
9.500000e-07	-3.792979e-06	-6.962340e-10	-2.636262e+01	-4.407049e+01
9.600000e-07	-3.758430e-06	-6.906990e-10	-2.612249e+01	-4.396328e+01
9.700000e-07	-3.723496e-06	-6.888588e-10	-2.587969e+01	-4.385518e+01
9.800000e-07	-3.688207e-06	-6.832273e-10	-2.563441e+01	-4.374579e+01
9.900000e-07	-3.652700e-06	-6.760805e-10	-2.538763e+01	-4.363475e+01
1.000000e-06	-3.617090e-06	-6.743603e-10	-2.514012e+01	-4.352165e+01
1.010000e-06	-3.581360e-06	-6.723315e-10	-2.489178e+01	-4.340608e+01
1.020000e-06	-3.545470e-06	-6.673807e-10	-2.464234e+01	-4.328765e+01
1.030000e-06	-3.509373e-06	-6.671065e-10	-2.439145e+01	-4.316592e+01
1.040000e-06	-3.473071e-06	-6.669134e-10	-2.413913e+01	-4.304050e+01
1.050000e-06	-3.436523e-06	-6.606784e-10	-2.388511e+01	-4.291096e+01
1.060000e-06	-3.399728e-06	-6.531273e-10	-2.362938e+01	-4.277692e+01
1.070000e-06	-3.362659e-06	-6.505219e-10	-2.337173e+01	-4.263797e+01
1.080000e-06	-3.325276e-06	-6.465276e-10	-2.311190e+01	-4.249375e+01
1.090000e-06	-3.287687e-06	-6.447098e-10	-2.285065e+01	-4.234388e+01
1.100000e-06	-3.249864e-06	-6.441642e-10	-2.258776e+01	-4.218804e+01
1.110000e-06	-3.211798e-06	-6.387144e-10	-2.232319e+01	-4.202590e+01
1.120000e-06	-3.173598e-06	-6.286913e-10	-2.205769e+01	-4.185717e+01
1.130000e-06	-3.135156e-06	-6.241115e-10	-2.179050e+01	-4.168159e+01
1.140000e-06	-3.096405e-06	-6.222507e-10	-2.152117e+01	-4.149893e+01
1.150000e-06	-3.057474e-06	-6.186726e-10	-2.125058e+01	-4.130897e+01
1.160000e-06	-3.018425e-06	-6.161098e-10	-2.097918e+01	-4.111156e+01
1.170000e-06	-2.979216e-06	-6.164363e-10	-2.070666e+01	-4.090655e+01
1.180000e-06	-2.939806e-06	-6.157334e-10	-2.043275e+01	-4.069385e+01
1.190000e-06	-2.900216e-06	-6.135393e-10	-2.015758e+01	-4.047339e+01
1.200000e-06	-2.860490e-06	-6.101924e-10	-1.988147e+01	-4.024514e+01
1.210000e-06	-2.820575e-06	-6.051300e-10	-1.960405e+01	-4.000911e+01
1.220000e-06	-2.780544e-06	-6.004629e-10	-1.932581e+01	-3.976534e+01
1.230000e-06	-2.740515e-06	-5.981948e-10	-1.904760e+01	-3.951391e+01
1.240000e-06	-2.700286e-06	-5.956069e-10	-1.876799e+01	-3.925493e+01
1.250000e-06	-2.659707e-06	-5.921392e-10	-1.848596e+01	-3.898852e+01
1.260000e-06	-2.618866e-06	-5.909629e-10	-1.820209e+01	-3.871486e+01
1.270000e-06	-2.577728e-06	-5.904655e-10	-1.791617e+01	-3.843414e+01
1.280000e-06	-2.536242e-06	-5.856580e-10	-1.762782e+01	-3.814657e+01
1.290000e-06	-2.494443e-06	-5.779742e-10	-1.733731e+01	-3.785238e+01
1.300000e-06	-2.452447e-06	-5.719625e-10	-1.704542e+01	-3.755182e+01
1.310000e-06	-2.410195e-06	-5.667972e-10	-1.675175e+01	-3.724515e+01
1.320000e-06	-2.367525e-06	-5.621554e-10	-1.645518e+01	-3.693265e+01
1.330000e-06	-2.324585e-06	-5.606632e-10	-1.615673e+01	-3.661458e+01
1.340000e-06	-2.281483e-06	-5.607692e-10	-1.585716e+01	-3.629121e+01
1.350000e-06	-2.238236e-06	-5.579715e-10	-1.555657e+01	-3.596282e+01
1.360000e-06	-2.194866e-06	-5.528937e-10	-1.525513e+01	-3.562966e+01
1.370000e-06	-2.151354e-06	-5.467254e-10	-1.495271e+01	-3.529198e+01
1.380000e-06	-2.107781e-06	-5.413705e-10	-1.464986e+01	-3.494999e+01
1.390000e-06	-2.064154e-06	-5.361238e-10	-1.434664e+01	-3.460392e+01
1.400000e-06	-2.020413e-06	-5.316251e-10	-1.404262e+01	-3.425393e+01
1.410000e-06	-1.976554e-06	-5.252511e-10	-1.373779e+01	-3.390018e+01
1.420000e-06	-1.932615e-06	-5.184606e-10	-1.343239e+01	-3.354277e+01
1.430000e-06	-1.888591e-06	-5.144851e-10	-1.312641e+01	-3.318178e+01
1.440000e-06	-1.844420e-06	-5.116057e-10	-1.281941e+01	-3.281725e+01
1.450000e-06	-1.800098e-06	-5.062952e-10	-1.251135e+01	-3.244917e+01
1.460000e-06	-1.755724e-06	-4.997411e-10	-1.220294e+01	-3.207749e+01
1.470000e-06	-1.711255e-06	-4.917722e-10	-1.189386e+01	-3.170209e+01
1.480000e-06	-1.666633e-06	-4.831028e-10	-1.158372e+01	-3.132284e+01
1.490000e-06	-1.621863e-06	-4.758776e-10	-1.127255e+01	-3.093952e+01
1.500000e-06	-1.576921e-06	-4.703956e-10	-1.096019e+01	-3.055188e+01
1.510000e-06	-1.531793e-06	-4.649529e-10	-1.064653e+01	-3.015962e+01
1.520000e-06	-1.486599e-06	-4.569863e-10	-1.033242e+01	-2.976238e+01
1.530000e-06	-1.441386e-06	-4.467247e-10	-1.001817e+01	-2.935976e+01
1.540000e-06	-1.396028e-06	-4.373115e-10	-9.702913e+00	-2.895129e+01
1.550000e-06	-1.350562e-06	-4.298713e-10	-9.386907e+00	-2.853649e+01
1.560000e-06	-1.305030e-06	-4.220493e-10	-9.070442e+00	-2.811481e+01
1.570000e-06	-1.259441e-06	-4.140866e-10	-8.753585e+00	-2.768567e+01
1.580000e-06	-1.213755e-06	-4.069726e-10	-8.436052e+00	-2.724845e+01
1.590000e-06	-1.167938e-06	-3.990923e-10	-8.117602e+00	-2.680250e+01
1.600000e-06	-1.122052e-06	-3.911238e-10	-7.798678e+00	-2.634714e+01
1.610000e-06	-1.076132e-06	-3.825370e-10	-7.479521e+00	-2.588167e+01
1.620000e-06	-1.030130e-06	-3.723788e-10	-7.159787e+00	-2.540538e+01
1.630000e-06	-9.840282e-07	-3.621099e-10	-6.839362e+00	-2.491753e+01
1.640000e-06	-9.378994e-07	-3.504613e-10	-6.518750e+00	-2.441740e+01
1.650000e-06	-8.916559e-07	-3.392207e-10	-6.197341e+00	-2.390426e+01
1.660000e-06	-8.452851e-07	-3.296688e-10	-5.875046e+00	-2.337738e+01
1.670000e-06	-7.989103e-07	-3.224948e-10	-5.552724e+00	-2.283606e+01
1.680000e-06	-7.525496e-07	-3.155679e-10	-5.230500e+00	-2.227960e+01
1.690000e-06	-7.061631e-07	-3.067881e-10	-4.908096e+00	-2.170735e+01
1.700000e-06	-6.596871e-07	-2.958429e-10	-4.585071e+00	-2.111868e+01
1.710000e-06	-6.130696e-07	-2.825429e-10	-4.261062e+00	-2.051301e+01
1.720000e-06	-5.664064e-07	-2.682502e-10	-3.936735e+00	-1.988981e+01
1.730000e-06	-5.197345e-07	-2.556904e-10	-3.612348e+00	-1.924860e+01
1.740000e-06	-4.729647e-07	-2.456946e-10	-3.287280e+00	-1.858894e+01
1.750000e-06	-4.261805e-07	-2.377133e-10	-2.962113e+00	-1.791049e+01
1.760000e-06	-3.794033e-07	-2.290930e-10	-2.636994e+00	-1.721296e+01
1.770000e-06	-3.325646e-07	-2.195102e-10	-2.311448e+00	-1.649614e+01
1.780000e-06	-2.856944e-07	-2.093305e-10	-1.985683e+00	-1.575989e+01
1.790000e-06	-2.388541e-07	-1.961979e-10	-1.660125e+00	-1.500417e+01
1.800000e-06	-1.920332e-07	-1.803532e-10	-1.334702e+00	-1.422901e+01
1.810000e-06	-1.451626e-07	-1.647727e-10	-1.008934e+00	-1.343453e+01
1.820000e-06	-9.829620e-08	-1.509477e-10	-6.831952e-01	-1.262096e+01
1.830000e-06	-5.146135e-08	-1.401051e-10	-3.576756e-01	-1.178860e+01
1.840000e-06	-4.565335e-09	-1.306536e-10	-3.173077e-02	-1.093785e+01
1.850000e-06	4.235791e-08	-1.211456e-10	2.944033e-01	-1.006919e+01
1.860000e-06	8.923476e-08	-1.103906e-10	6.202148e-01	-9.183213e+00
1.870000e-06	1.361126e-07	-9.727845e-11	9.460329e-01	-8.280586e+00
1.880000e-06	1.830404e-07	-8.326955e-11	1.272199e+00	-7.362065e+00
1.890000e-06	2.299303e-07	-6.887697e-11	1.598101e+00	-6.428493e+00
1.900000e-06	2.767700e-07	-5.609692e-11	1.923655e+00	-5.480791e+00
1.910000e-06	3.235315e-07	-4.473601e-11	2.248665e+00	-4.519955e+00
1.920000e-06	3.702757e-07	-3.400043e-11	2.573554e+00	-3.547057e+00
1.930000e-06	4.170690e-07	-2.224582e-11	2.898785e+00	-2.563231e+00
1.940000e-06	4.638855e-07	-1.055942e-11	3.224177e+00	-1.569671e+00
1.950000e-06	5.106360e-07	6.373537e-13	3.549110e+00	-5.676278e-01
1.960000e-06	5.572994e-07	1.222939e-11	3.873439e+00	4.416038e-01
1.970000e-06	6.039638e-07	2.358373e-11	4.197773e+00	1.456688e+00
1.980000e-06	6.504516e-07	3.448542e-11	4.520881e+00	2.476257e+00
1.990000e-06	6.968142e-07	4.782756e-11	4.843118e+00	3.498918e+00
2.000000e-06	7.431863e-07	6.324149e-11	5.165421e+00	4.523262e+00
2.010000e-06	7.895096e-07	7.856917e-11	5.487386e+00	5.547872e+00
2.020000e-06	8.358102e-07	9.382046e-11	5.809192e+00	6.571328e+00
2.030000e-06	8.820918e-07	1.079473e-10	6.130866e+00	7.592220e+00
2.040000e-06	9.282646e-07	1.202578e-10	6.451785e+00	8.609151e+00
2.050000e-06	9.742783e-07	1.286419e-10	6.771597e+00	9.620749e+00
2.060000e-06	1.020273e-06	1.361836e-10	7.091280e+00	1.062567e+01
2.070000e-06	1.066238e-06	1.468432e-10	7.410751e+00	1.162262e+01
2.080000e-06	1.112035e-06	1.623460e-10	7.729059e+00	1.261033e+01
2.090000e-06	1.157738e-06	1.797771e-10	8.046710e+00	1.358759e+01
2.100000e-06	1.203386e-06	1.953058e-10	8.363982e+00	1.455326e+01
2.110000e-06	1.248993e-06	2.091018e-10	8.680966e+00	1.550625e+01
2.120000e-06	1.294511e-06	2.201724e-10	8.997332e+00	1.644555e+01
2.130000e-06	1.339910e-06	2.291570e-10	9.312873e+00	1.737021e+01
2.140000e-06	1.385247e-06	2.385725e-10	9.627980e+00	1.827937e+01
2.150000e-06	1.430541e-06	2.494040e-10	9.942794e+00	1.917224e+01
2.160000e-06	1.475806e-06	2.638596e-10	1.025740e+01	2.004812e+01
2.170000e-06	1.520937e-06	2.794010e-10	1.057108e+01	2.090640e+01
2.180000e-06	1.565949e-06	2.935741e-10	1.088393e+01	2.174655e+01
2.190000e-06	1.610864e-06	3.072402e-10	1.119610e+01	2.256812e+01
2.200000e-06	1.655545e-06	3.198237e-10	1.150665e+01	2.337076e+01
2.210000e-06	1.700058e-06	3.310601e-10	1.181604e+01	2.415421e+01
2.220000e-06	1.744483e-06	3.398163e-10	1.212481e+01	2.491829e+01
2.230000e-06	1.788772e-06	3.485396e-10	1.243263e+01	2.566291e+01
2.240000e-06	1.832964e-06	3.580150e-10	1.273978e+01	2.638804e+01
2.250000e-06	1.877093e-06	3.680833e-10	1.304649e+01	2.709375e+01
2.260000e-06	1.921097e-06	3.803039e-10	1.335234e+01	2.778018e+01
2.270000e-06	1.964976e-06	3.901339e-10	1.365731e+01	2.844755e+01
2.280000e-06	2.008753e-06	3.996849e-10	1.396158e+01	2.909612e+01
2.290000e-06	2.052408e-06	4.083928e-10	1.426500e+01	2.972624e+01
2.300000e-06	2.096016e-06	4.155816e-10	1.456809e+01	3.033829e+01
2.310000e-06	2.139592e-06	4.219502e-10	1.487096e+01	3.093273e+01
2.320000e-06	2.183114e-06	4.292778e-10	1.517346e+01	3.151004e+01
2.330000e-06	2.226572e-06	4.387548e-10	1.547551e+01	3.207074e+01
2.340000e-06	2.269906e-06	4.480105e-10	1.577669e+01	3.261540e+01
2.350000e-06	2.313016e-06	4.591117e-10	1.607632e+01	3.314460e+01
2.360000e-06	2.355825e-06	4.690563e-10	1.637386e+01	3.365894e+01
2.370000e-06	2.398399e-06	4.766561e-10	1.666977e+01	3.415905e+01
2.380000e-06	2.440815e-06	4.826639e-10	1.696458e+01	3.464555e+01
2.390000e-06	2.482941e-06	4.900234e-10	1.725736e+01	3.511906e+01
2.400000e-06	2.524623e-06	4.969217e-10	1.754707e+01	3.558022e+01
2.410000e-06	2.565895e-06	5.043033e-10	1.783393e+01	3.602963e+01
2.420000e-06	2.606941e-06	5.133066e-10	1.811921e+01	3.646790e+01
2.430000e-06	2.647732e-06	5.223667e-10	1.840272e+01	3.689560e+01
2.440000e-06	2.688228e-06	5.318072e-10	1.868419e+01	3.731330e+01
2.450000e-06	2.728529e-06	5.407513e-10	1.896429e+01	3.772151e+01
2.460000e-06	2.768637e-06	5.482279e-10	1.924306e+01	3.812074e+01
2.470000e-06	2.808565e-06	5.543442e-10	1.952057e+01	3.851145e+01
2.480000e-06	2.848300e-06	5.569398e-10	1.979674e+01	3.889407e+01
2.490000e-06	2.887902e-06	5.591573e-10	2.007199e+01	3.926897e+01
2.500000e-06	2.927449e-06	5.636656e-10	2.034686e+01	3.963650e+01
2.510000e-06	2.966971e-06	5.712940e-10	2.062155e+01	3.999698e+01
2.520000e-06	3.006322e-06	5.801630e-10	2.089506e+01	4.035065e+01
2.530000e-06	3.045406e-06	5.877593e-10	2.116670e+01	4.069773e+01
2.540000e-06	3.084282e-06	5.934997e-10	2.143691e+01	4.103840e+01
2.550000e-06	3.122924e-06	5.955859e-10	2.170548e+01	4.137279e+01
2.560000e-06	3.161289e-06	5.954545e-10	2.197214e+01	4.170100e+01
2.570000e-06	3.199381e-06	5.943032e-10	2.223689e+01	4.202307e+01
2.580000e-06	3.237252e-06	5.948453e-10	2.250011e+01	4.233903e+01
2.590000e-06	3.274944e-06	5.987499e-10	2.276208e+01	4.264886e+01
2.600000e-06	3.312433e-06	6.047578e-10	2.302264e+01	4.295250e+01
2.610000e-06	3.349737e-06	6.116094e-10	2.328192e+01	4.324990e+01
2.620000e-06	3.386832e-06	6.178715e-10	2.353974e+01	4.354093e+01
2.630000e-06	3.423706e-06	6.204185e-10	2.379603e+01	4.382549e+01
2.640000e-06	3.460357e-06	6.197696e-10	2.405077e+01	4.410343e+01
2.650000e-06	3.496676e-06	6.196143e-10	2.430320e+01	4.437460e+01
2.660000e-06	3.532731e-06	6.205484e-10	2.455379e+01	4.463883e+01
2.670000e-06	3.568617e-06	6.219681e-10	2.480322e+01	4.489596e+01
2.680000e-06	3.604363e-06	6.257113e-10	2.505166e+01	4.514580e+01
2.690000e-06	3.639974e-06	6.299671e-10	2.529917e+01	4.538820e+01
2.700000e-06	3.675439e-06	6.349010e-10	2.554567e+01	4.562297e+01
2.710000e-06	3.710736e-06	6.399611e-10	2.579100e+01	4.584997e+01
2.720000e-06	3.745814e-06	6.451340e-10	2.603480e+01	4.606905e+01
2.730000e-06	3.780588e-06	6.508671e-10	2.627649e+01	4.628008e+01
2.740000e-06	3.814945e-06	6.553801e-10	2.651529e+01	4.648294e+01
2.750000e-06	3.848801e-06	6.585388e-10	2.675060e+01	4.667755e+01
2.760000e-06	3.882186e-06	6.600634e-10	2.698264e+01	4.686383e+01
2.770000e-06	3.915067e-06	6.615149e-10	2.721118e+01	4.704174e+01
2.780000e-06	3.947537e-06	6.653691e-10	2.743685e+01	4.721126e+01
2.790000e-06	3.979765e-06	6.708794e-10	2.766085e+01	4.737242e+01
2.800000e-06	4.011778e-06	6.783562e-10	2.788335e+01	4.752523e+01
2.810000e-06	4.043623e-06	6.850070e-10	2.810469e+01	4.766978e+01
2.820000e-06	4.075266e-06	6.889374e-10	2.832462e+01	4.780616e+01
2.830000e-06	4.106741e-06	6.889463e-10	2.854338e+01	4.793451e+01
2.840000e-06	4.137977e-06	6.859450e-10	2.876048e+01	4.805498e+01
2.850000e-06	4.168908e-06	6.856151e-10	2.897547e+01	4.816776e+01
2.860000e-06	4.199566e-06	6.883474e-10	2.918855e+01	4.827307e+01
2.870000e-06	4.229847e-06	6.923277e-10	2.939901e+01	4.837115e+01
2.880000e-06	4.259815e-06	6.976981e-10	2.960730e+01	4.846226e+01
2.890000e-06	4.289541e-06	7.015482e-10	2.981391e+01	4.854669e+01
2.900000e-06	4.319001e-06	7.044884e-10	3.001866e+01	4.862476e+01
