# Temperatura_=_-0.3
# Concentracion g/m^3_=_1620.0
# C_Vs_to_Am_M_A/Vsm_=_65563218390.804596
# pendiente_HvsI_1/m_=_3716.3
# ordenada_HvsI_A/m_=_1297.0
# frecuencia_Hz_=_135108.71806110215

Tiempo_(s)	Campo_(V.s)	Magnetizacion_(V.s)	Campo_(kA/m)	Magnetizacion_(A/m)
0.000000e+00	-5.515103e-06	-1.330210e-09	-3.836746e+01	-8.649552e+01
1.000000e-08	-5.515387e-06	-1.327593e-09	-3.836943e+01	-8.653699e+01
2.000000e-08	-5.515470e-06	-1.327813e-09	-3.837001e+01	-8.657601e+01
3.000000e-08	-5.515226e-06	-1.330363e-09	-3.836831e+01	-8.661229e+01
4.000000e-08	-5.514585e-06	-1.332925e-09	-3.836385e+01	-8.664555e+01
5.000000e-08	-5.513378e-06	-1.331012e-09	-3.835546e+01	-8.667551e+01
6.000000e-08	-5.511443e-06	-1.320473e-09	-3.834199e+01	-8.670186e+01
7.000000e-08	-5.508927e-06	-1.295546e-09	-3.832449e+01	-8.672434e+01
8.000000e-08	-5.505937e-06	-1.286307e-09	-3.830369e+01	-8.674267e+01
9.000000e-08	-5.502410e-06	-1.349459e-09	-3.827915e+01	-8.675657e+01
1.000000e-07	-5.498442e-06	-1.416403e-09	-3.825155e+01	-8.676578e+01
1.100000e-07	-5.494044e-06	-1.346704e-09	-3.822095e+01	-8.677006e+01
1.200000e-07	-5.489455e-06	-1.239552e-09	-3.818903e+01	-8.676917e+01
1.300000e-07	-5.484780e-06	-1.254085e-09	-3.815651e+01	-8.676292e+01
1.400000e-07	-5.479687e-06	-1.354097e-09	-3.812107e+01	-8.675109e+01
1.500000e-07	-5.474172e-06	-1.338574e-09	-3.808271e+01	-8.673352e+01
1.600000e-07	-5.468336e-06	-1.225507e-09	-3.804211e+01	-8.671005e+01
1.700000e-07	-5.462206e-06	-1.258311e-09	-3.799946e+01	-8.668056e+01
1.800000e-07	-5.455646e-06	-1.364096e-09	-3.795383e+01	-8.664495e+01
1.900000e-07	-5.448584e-06	-1.376378e-09	-3.790470e+01	-8.660314e+01
2.000000e-07	-5.441166e-06	-1.270263e-09	-3.785309e+01	-8.655508e+01
2.100000e-07	-5.433548e-06	-1.271903e-09	-3.780010e+01	-8.650074e+01
2.200000e-07	-5.425640e-06	-1.351783e-09	-3.774508e+01	-8.644013e+01
2.300000e-07	-5.417421e-06	-1.379526e-09	-3.768790e+01	-8.637327e+01
2.400000e-07	-5.409005e-06	-1.315548e-09	-3.762935e+01	-8.630023e+01
2.500000e-07	-5.399994e-06	-1.313469e-09	-3.756667e+01	-8.622108e+01
2.600000e-07	-5.390175e-06	-1.346294e-09	-3.749835e+01	-8.613592e+01
2.700000e-07	-5.379681e-06	-1.342040e-09	-3.742535e+01	-8.604487e+01
2.800000e-07	-5.368615e-06	-1.306846e-09	-3.734837e+01	-8.594809e+01
2.900000e-07	-5.357092e-06	-1.309604e-09	-3.726820e+01	-8.584574e+01
3.000000e-07	-5.345244e-06	-1.339228e-09	-3.718578e+01	-8.573801e+01
3.100000e-07	-5.333074e-06	-1.315070e-09	-3.710112e+01	-8.562509e+01
3.200000e-07	-5.320486e-06	-1.279257e-09	-3.701354e+01	-8.550719e+01
3.300000e-07	-5.307467e-06	-1.274134e-09	-3.692298e+01	-8.538454e+01
3.400000e-07	-5.294127e-06	-1.312181e-09	-3.683017e+01	-8.525737e+01
3.500000e-07	-5.280474e-06	-1.293643e-09	-3.673519e+01	-8.512593e+01
3.600000e-07	-5.266268e-06	-1.272600e-09	-3.663636e+01	-8.499044e+01
3.700000e-07	-5.251561e-06	-1.293390e-09	-3.653405e+01	-8.485115e+01
3.800000e-07	-5.236460e-06	-1.322632e-09	-3.642899e+01	-8.470831e+01
3.900000e-07	-5.220658e-06	-1.267560e-09	-3.631906e+01	-8.456215e+01
4.000000e-07	-5.204282e-06	-1.257863e-09	-3.620513e+01	-8.441291e+01
4.100000e-07	-5.187690e-06	-1.305671e-09	-3.608971e+01	-8.426080e+01
4.200000e-07	-5.170759e-06	-1.289081e-09	-3.597192e+01	-8.410605e+01
4.300000e-07	-5.153447e-06	-1.223915e-09	-3.585149e+01	-8.394885e+01
4.400000e-07	-5.135922e-06	-1.279673e-09	-3.572957e+01	-8.378939e+01
4.500000e-07	-5.118109e-06	-1.325202e-09	-3.560565e+01	-8.362784e+01
4.600000e-07	-5.099836e-06	-1.250929e-09	-3.547853e+01	-8.346435e+01
4.700000e-07	-5.081117e-06	-1.226798e-09	-3.534830e+01	-8.329906e+01
4.800000e-07	-5.061996e-06	-1.296949e-09	-3.521528e+01	-8.313209e+01
4.900000e-07	-5.042550e-06	-1.268366e-09	-3.508000e+01	-8.296354e+01
5.000000e-07	-5.022916e-06	-1.219697e-09	-3.494341e+01	-8.279347e+01
5.100000e-07	-5.003140e-06	-1.268551e-09	-3.480584e+01	-8.262194e+01
5.200000e-07	-4.983119e-06	-1.272758e-09	-3.466655e+01	-8.244899e+01
5.300000e-07	-4.962709e-06	-1.208354e-09	-3.452456e+01	-8.227463e+01
5.400000e-07	-4.941969e-06	-1.240371e-09	-3.438028e+01	-8.209886e+01
5.500000e-07	-4.920939e-06	-1.282242e-09	-3.423398e+01	-8.192165e+01
5.600000e-07	-4.899514e-06	-1.220565e-09	-3.408493e+01	-8.174296e+01
5.700000e-07	-4.877721e-06	-1.204063e-09	-3.393332e+01	-8.156273e+01
5.800000e-07	-4.855614e-06	-1.254850e-09	-3.377952e+01	-8.138088e+01
5.900000e-07	-4.833071e-06	-1.229589e-09	-3.362269e+01	-8.119732e+01
6.000000e-07	-4.810099e-06	-1.187395e-09	-3.346289e+01	-8.101195e+01
6.100000e-07	-4.786855e-06	-1.223242e-09	-3.330118e+01	-8.082465e+01
6.200000e-07	-4.763371e-06	-1.225371e-09	-3.313781e+01	-8.063531e+01
6.300000e-07	-4.739660e-06	-1.186753e-09	-3.297285e+01	-8.044378e+01
6.400000e-07	-4.715831e-06	-1.196145e-09	-3.280708e+01	-8.024995e+01
6.500000e-07	-4.691764e-06	-1.216825e-09	-3.263965e+01	-8.005366e+01
6.600000e-07	-4.667114e-06	-1.191541e-09	-3.246816e+01	-7.985478e+01
6.700000e-07	-4.641957e-06	-1.189776e-09	-3.229315e+01	-7.965318e+01
6.800000e-07	-4.616357e-06	-1.201425e-09	-3.211506e+01	-7.944870e+01
6.900000e-07	-4.590219e-06	-1.186713e-09	-3.193323e+01	-7.924123e+01
7.000000e-07	-4.563574e-06	-1.172085e-09	-3.174786e+01	-7.903064e+01
7.100000e-07	-4.536470e-06	-1.183256e-09	-3.155931e+01	-7.881680e+01
7.200000e-07	-4.509081e-06	-1.178197e-09	-3.136876e+01	-7.859962e+01
7.300000e-07	-4.481529e-06	-1.167879e-09	-3.117709e+01	-7.837899e+01
7.400000e-07	-4.453825e-06	-1.166928e-09	-3.098436e+01	-7.815482e+01
7.500000e-07	-4.425951e-06	-1.169497e-09	-3.079044e+01	-7.792705e+01
7.600000e-07	-4.397738e-06	-1.163411e-09	-3.059417e+01	-7.769561e+01
7.700000e-07	-4.369112e-06	-1.162859e-09	-3.039503e+01	-7.746044e+01
7.800000e-07	-4.340244e-06	-1.159592e-09	-3.019420e+01	-7.722153e+01
7.900000e-07	-4.311101e-06	-1.151618e-09	-2.999146e+01	-7.697885e+01
8.000000e-07	-4.281536e-06	-1.145119e-09	-2.978578e+01	-7.673238e+01
8.100000e-07	-4.251737e-06	-1.144144e-09	-2.957848e+01	-7.648215e+01
8.200000e-07	-4.221769e-06	-1.139069e-09	-2.936999e+01	-7.622817e+01
8.300000e-07	-4.191527e-06	-1.136833e-09	-2.915961e+01	-7.597046e+01
8.400000e-07	-4.161044e-06	-1.139049e-09	-2.894754e+01	-7.570908e+01
8.500000e-07	-4.130203e-06	-1.134852e-09	-2.873298e+01	-7.544407e+01
8.600000e-07	-4.098956e-06	-1.126369e-09	-2.851561e+01	-7.517549e+01
8.700000e-07	-4.067530e-06	-1.120063e-09	-2.829698e+01	-7.490342e+01
8.800000e-07	-4.035969e-06	-1.113330e-09	-2.807742e+01	-7.462792e+01
8.900000e-07	-4.004200e-06	-1.103980e-09	-2.785641e+01	-7.434907e+01
9.000000e-07	-3.972259e-06	-1.100062e-09	-2.763420e+01	-7.406695e+01
9.100000e-07	-3.940039e-06	-1.093490e-09	-2.741005e+01	-7.378163e+01
9.200000e-07	-3.907486e-06	-1.084482e-09	-2.718359e+01	-7.349319e+01
9.300000e-07	-3.874590e-06	-1.080861e-09	-2.695474e+01	-7.320171e+01
9.400000e-07	-3.841244e-06	-1.083019e-09	-2.672276e+01	-7.290726e+01
9.500000e-07	-3.807400e-06	-1.076263e-09	-2.648731e+01	-7.260988e+01
9.600000e-07	-3.773091e-06	-1.069550e-09	-2.624863e+01	-7.230963e+01
9.700000e-07	-3.738353e-06	-1.067350e-09	-2.600696e+01	-7.200656e+01
9.800000e-07	-3.703245e-06	-1.062317e-09	-2.576272e+01	-7.170069e+01
9.900000e-07	-3.667887e-06	-1.050272e-09	-2.551674e+01	-7.139203e+01
1.000000e-06	-3.632386e-06	-1.045569e-09	-2.526977e+01	-7.108059e+01
1.010000e-06	-3.596757e-06	-1.041345e-09	-2.502191e+01	-7.076634e+01
1.020000e-06	-3.560964e-06	-1.034703e-09	-2.477291e+01	-7.044927e+01
1.030000e-06	-3.525017e-06	-1.028854e-09	-2.452283e+01	-7.012931e+01
1.040000e-06	-3.488859e-06	-1.026753e-09	-2.427129e+01	-6.980641e+01
1.050000e-06	-3.452477e-06	-1.020122e-09	-2.401818e+01	-6.948047e+01
1.060000e-06	-3.415856e-06	-1.011477e-09	-2.376342e+01	-6.915139e+01
1.070000e-06	-3.378931e-06	-1.005796e-09	-2.350654e+01	-6.881905e+01
1.080000e-06	-3.341700e-06	-1.002076e-09	-2.324753e+01	-6.848332e+01
1.090000e-06	-3.304254e-06	-9.969193e-10	-2.298703e+01	-6.814403e+01
1.100000e-06	-3.266616e-06	-9.934767e-10	-2.272519e+01	-6.780102e+01
1.110000e-06	-3.228752e-06	-9.869528e-10	-2.246177e+01	-6.745409e+01
1.120000e-06	-3.190714e-06	-9.746079e-10	-2.219715e+01	-6.710306e+01
1.130000e-06	-3.152454e-06	-9.654788e-10	-2.193098e+01	-6.674770e+01
1.140000e-06	-3.113888e-06	-9.624250e-10	-2.166269e+01	-6.638778e+01
1.150000e-06	-3.075039e-06	-9.571793e-10	-2.139242e+01	-6.602308e+01
1.160000e-06	-3.036079e-06	-9.508718e-10	-2.112139e+01	-6.565335e+01
1.170000e-06	-2.997034e-06	-9.476187e-10	-2.084976e+01	-6.527834e+01
1.180000e-06	-2.957731e-06	-9.428710e-10	-2.057634e+01	-6.489779e+01
1.190000e-06	-2.918238e-06	-9.343306e-10	-2.030159e+01	-6.451146e+01
1.200000e-06	-2.878661e-06	-9.265074e-10	-2.002626e+01	-6.411906e+01
1.210000e-06	-2.838988e-06	-9.194848e-10	-1.975027e+01	-6.372036e+01
1.220000e-06	-2.799215e-06	-9.099846e-10	-1.947357e+01	-6.331509e+01
1.230000e-06	-2.759255e-06	-9.038141e-10	-1.919558e+01	-6.290300e+01
1.240000e-06	-2.719043e-06	-9.002037e-10	-1.891583e+01	-6.248384e+01
1.250000e-06	-2.678657e-06	-8.963757e-10	-1.863487e+01	-6.205737e+01
1.260000e-06	-2.638056e-06	-8.915953e-10	-1.835242e+01	-6.162336e+01
1.270000e-06	-2.597261e-06	-8.893097e-10	-1.806862e+01	-6.118157e+01
1.280000e-06	-2.556271e-06	-8.857856e-10	-1.778346e+01	-6.073181e+01
1.290000e-06	-2.514872e-06	-8.778152e-10	-1.749545e+01	-6.027386e+01
1.300000e-06	-2.473148e-06	-8.649857e-10	-1.720519e+01	-5.980752e+01
1.310000e-06	-2.431168e-06	-8.529755e-10	-1.691315e+01	-5.933263e+01
1.320000e-06	-2.388852e-06	-8.419986e-10	-1.661876e+01	-5.884900e+01
1.330000e-06	-2.346228e-06	-8.335618e-10	-1.632223e+01	-5.835647e+01
1.340000e-06	-2.303270e-06	-8.290528e-10	-1.602338e+01	-5.785490e+01
1.350000e-06	-2.260032e-06	-8.275927e-10	-1.572258e+01	-5.734415e+01
1.360000e-06	-2.216648e-06	-8.219336e-10	-1.542077e+01	-5.682409e+01
1.370000e-06	-2.173168e-06	-8.144236e-10	-1.511829e+01	-5.629459e+01
1.380000e-06	-2.129621e-06	-8.050982e-10	-1.481534e+01	-5.575555e+01
1.390000e-06	-2.086016e-06	-7.930387e-10	-1.451199e+01	-5.520685e+01
1.400000e-06	-2.042330e-06	-7.794469e-10	-1.420808e+01	-5.464838e+01
1.410000e-06	-1.998514e-06	-7.687160e-10	-1.390326e+01	-5.408006e+01
1.420000e-06	-1.954589e-06	-7.603373e-10	-1.359768e+01	-5.350176e+01
1.430000e-06	-1.910649e-06	-7.527650e-10	-1.329200e+01	-5.291340e+01
1.440000e-06	-1.866622e-06	-7.458120e-10	-1.298571e+01	-5.231487e+01
1.450000e-06	-1.822420e-06	-7.376529e-10	-1.267821e+01	-5.170605e+01
1.460000e-06	-1.778114e-06	-7.260921e-10	-1.236998e+01	-5.108682e+01
1.470000e-06	-1.733722e-06	-7.130375e-10	-1.206115e+01	-5.045707e+01
1.480000e-06	-1.689186e-06	-7.005325e-10	-1.175133e+01	-4.981665e+01
1.490000e-06	-1.644509e-06	-6.862340e-10	-1.144052e+01	-4.916541e+01
1.500000e-06	-1.599732e-06	-6.721958e-10	-1.112901e+01	-4.850319e+01
1.510000e-06	-1.554797e-06	-6.596228e-10	-1.081641e+01	-4.782981e+01
1.520000e-06	-1.509669e-06	-6.484114e-10	-1.050246e+01	-4.714508e+01
1.530000e-06	-1.464442e-06	-6.356300e-10	-1.018783e+01	-4.644877e+01
1.540000e-06	-1.419170e-06	-6.220307e-10	-9.872882e+00	-4.574067e+01
1.550000e-06	-1.373826e-06	-6.098600e-10	-9.557427e+00	-4.502051e+01
1.560000e-06	-1.328427e-06	-6.001890e-10	-9.241594e+00	-4.428803e+01
1.570000e-06	-1.283015e-06	-5.906176e-10	-8.925673e+00	-4.354294e+01
1.580000e-06	-1.237537e-06	-5.799780e-10	-8.609298e+00	-4.278493e+01
1.590000e-06	-1.191918e-06	-5.658343e-10	-8.291931e+00	-4.201368e+01
1.600000e-06	-1.146160e-06	-5.501883e-10	-7.973602e+00	-4.122884e+01
1.610000e-06	-1.100310e-06	-5.347408e-10	-7.654633e+00	-4.043006e+01
1.620000e-06	-1.054416e-06	-5.196227e-10	-7.335359e+00	-3.961697e+01
1.630000e-06	-1.008427e-06	-5.055454e-10	-7.015425e+00	-3.878918e+01
1.640000e-06	-9.622996e-07	-4.933221e-10	-6.694524e+00	-3.794630e+01
1.650000e-06	-9.160394e-07	-4.783847e-10	-6.372700e+00	-3.708795e+01
1.660000e-06	-8.697790e-07	-4.623875e-10	-6.050877e+00	-3.621371e+01
1.670000e-06	-8.235551e-07	-4.492947e-10	-5.729306e+00	-3.532319e+01
1.680000e-06	-7.771982e-07	-4.391897e-10	-5.406810e+00	-3.441599e+01
1.690000e-06	-7.307138e-07	-4.269759e-10	-5.083428e+00	-3.349172e+01
1.700000e-06	-6.842239e-07	-4.130063e-10	-4.760007e+00	-3.255002e+01
1.710000e-06	-6.377635e-07	-3.974596e-10	-4.436792e+00	-3.159051e+01
1.720000e-06	-5.912065e-07	-3.790296e-10	-4.112904e+00	-3.061286e+01
1.730000e-06	-5.445603e-07	-3.607974e-10	-3.788396e+00	-2.961676e+01
1.740000e-06	-4.979760e-07	-3.458230e-10	-3.464318e+00	-2.860192e+01
1.750000e-06	-4.512983e-07	-3.342887e-10	-3.139591e+00	-2.756809e+01
1.760000e-06	-4.045686e-07	-3.224246e-10	-2.814502e+00	-2.651506e+01
1.770000e-06	-3.579604e-07	-3.078125e-10	-2.490258e+00	-2.544265e+01
1.780000e-06	-3.113116e-07	-2.917812e-10	-2.165732e+00	-2.435074e+01
1.790000e-06	-2.644962e-07	-2.733093e-10	-1.840047e+00	-2.323926e+01
1.800000e-06	-2.177103e-07	-2.505165e-10	-1.514566e+00	-2.210819e+01
1.810000e-06	-1.709942e-07	-2.276778e-10	-1.189572e+00	-2.095757e+01
1.820000e-06	-1.242137e-07	-2.077827e-10	-8.641298e-01	-1.978750e+01
1.830000e-06	-7.738934e-08	-1.927576e-10	-5.383819e-01	-1.859814e+01
1.840000e-06	-3.054814e-08	-1.797219e-10	-2.125172e-01	-1.738973e+01
1.850000e-06	1.630345e-08	-1.648643e-10	1.134198e-01	-1.616258e+01
1.860000e-06	6.313543e-08	-1.508137e-10	4.392204e-01	-1.491704e+01
1.870000e-06	1.098758e-07	-1.341777e-10	7.643836e-01	-1.365357e+01
1.880000e-06	1.566271e-07	-1.147139e-10	1.089623e+00	-1.237267e+01
1.890000e-06	2.034345e-07	-9.445166e-11	1.415253e+00	-1.107495e+01
1.900000e-06	2.502580e-07	-7.369606e-11	1.740994e+00	-9.761063e+00
1.910000e-06	2.970497e-07	-5.572828e-11	2.066515e+00	-8.431738e+00
1.920000e-06	3.438180e-07	-3.804683e-11	2.391872e+00	-7.087781e+00
1.930000e-06	3.906081e-07	-2.390432e-11	2.717382e+00	-5.730067e+00
1.940000e-06	4.373262e-07	-1.021909e-11	3.042390e+00	-4.359532e+00
1.950000e-06	4.839255e-07	5.379659e-12	3.366572e+00	-2.977179e+00
1.960000e-06	5.304472e-07	2.388302e-11	3.690214e+00	-1.584070e+00
1.970000e-06	5.768767e-07	4.459568e-11	4.013214e+00	-1.813230e-01
1.980000e-06	6.232147e-07	6.707304e-11	4.335578e+00	1.229893e+00
1.990000e-06	6.695454e-07	8.885600e-11	4.657892e+00	2.648361e+00
2.000000e-06	7.158107e-07	1.088818e-10	4.979750e+00	4.072822e+00
2.010000e-06	7.619653e-07	1.284380e-10	5.300838e+00	5.501982e+00
2.020000e-06	8.081292e-07	1.469407e-10	5.621991e+00	6.934515e+00
2.030000e-06	8.542986e-07	1.642424e-10	5.943182e+00	8.369069e+00
2.040000e-06	9.004241e-07	1.818588e-10	6.264068e+00	9.804276e+00
2.050000e-06	9.464932e-07	1.999109e-10	6.584562e+00	1.123875e+01
2.060000e-06	9.925403e-07	2.187148e-10	6.904902e+00	1.267112e+01
2.070000e-06	1.038544e-06	2.377662e-10	7.224941e+00	1.409998e+01
2.080000e-06	1.084449e-06	2.588243e-10	7.544290e+00	1.552396e+01
2.090000e-06	1.130206e-06	2.803868e-10	7.862615e+00	1.694170e+01
2.100000e-06	1.175861e-06	3.006576e-10	8.180228e+00	1.835186e+01
2.110000e-06	1.221466e-06	3.209867e-10	8.497491e+00	1.975310e+01
2.120000e-06	1.267021e-06	3.400497e-10	8.814410e+00	2.114416e+01
2.130000e-06	1.312512e-06	3.583767e-10	9.130880e+00	2.252379e+01
2.140000e-06	1.357888e-06	3.759464e-10	9.446550e+00	2.389077e+01
2.150000e-06	1.403097e-06	3.942561e-10	9.761060e+00	2.524398e+01
2.160000e-06	1.448209e-06	4.123979e-10	1.007489e+01	2.658230e+01
2.170000e-06	1.493335e-06	4.314189e-10	1.038883e+01	2.790469e+01
2.180000e-06	1.538408e-06	4.511229e-10	1.070239e+01	2.921020e+01
2.190000e-06	1.583369e-06	4.700981e-10	1.101518e+01	3.049789e+01
2.200000e-06	1.628143e-06	4.867600e-10	1.132666e+01	3.176694e+01
2.210000e-06	1.672685e-06	5.036443e-10	1.163653e+01	3.301659e+01
2.220000e-06	1.717045e-06	5.238033e-10	1.194514e+01	3.424613e+01
2.230000e-06	1.761272e-06	5.438286e-10	1.225281e+01	3.545495e+01
2.240000e-06	1.805376e-06	5.598856e-10	1.255964e+01	3.664251e+01
2.250000e-06	1.849421e-06	5.733865e-10	1.286605e+01	3.780835e+01
2.260000e-06	1.893418e-06	5.858252e-10	1.317212e+01	3.895208e+01
2.270000e-06	1.937292e-06	5.995845e-10	1.347735e+01	4.007340e+01
2.280000e-06	1.981062e-06	6.141494e-10	1.378185e+01	4.117207e+01
2.290000e-06	2.024793e-06	6.300155e-10	1.408607e+01	4.224793e+01
2.300000e-06	2.068489e-06	6.466996e-10	1.439006e+01	4.330089e+01
2.310000e-06	2.112125e-06	6.631766e-10	1.469363e+01	4.433094e+01
2.320000e-06	2.155666e-06	6.790288e-10	1.499653e+01	4.533812e+01
2.330000e-06	2.199170e-06	6.913423e-10	1.529918e+01	4.632255e+01
2.340000e-06	2.242563e-06	7.010609e-10	1.560106e+01	4.728440e+01
2.350000e-06	2.285789e-06	7.115771e-10	1.590177e+01	4.822388e+01
2.360000e-06	2.328882e-06	7.209185e-10	1.620156e+01	4.914129e+01
2.370000e-06	2.371728e-06	7.293884e-10	1.649963e+01	5.003694e+01
2.380000e-06	2.414292e-06	7.397841e-10	1.679574e+01	5.091121e+01
2.390000e-06	2.456487e-06	7.519109e-10	1.708928e+01	5.176450e+01
2.400000e-06	2.498301e-06	7.645901e-10	1.738017e+01	5.259724e+01
2.410000e-06	2.539800e-06	7.774719e-10	1.766887e+01	5.340991e+01
2.420000e-06	2.580968e-06	7.915950e-10	1.795527e+01	5.420300e+01
2.430000e-06	2.621849e-06	8.055197e-10	1.823968e+01	5.497702e+01
2.440000e-06	2.662457e-06	8.177575e-10	1.852218e+01	5.573249e+01
2.450000e-06	2.702813e-06	8.292125e-10	1.880292e+01	5.646995e+01
2.460000e-06	2.742951e-06	8.383143e-10	1.908215e+01	5.718994e+01
2.470000e-06	2.782920e-06	8.447592e-10	1.936021e+01	5.789300e+01
2.480000e-06	2.822759e-06	8.522715e-10	1.963736e+01	5.857967e+01
2.490000e-06	2.862457e-06	8.605079e-10	1.991353e+01	5.925048e+01
2.500000e-06	2.902034e-06	8.710400e-10	2.018886e+01	5.990597e+01
2.510000e-06	2.941495e-06	8.848755e-10	2.046338e+01	6.054664e+01
2.520000e-06	2.980857e-06	8.982903e-10	2.073722e+01	6.117299e+01
2.530000e-06	3.020105e-06	9.079928e-10	2.101026e+01	6.178550e+01
2.540000e-06	3.059082e-06	9.145988e-10	2.128141e+01	6.238463e+01
2.550000e-06	3.097804e-06	9.182408e-10	2.155079e+01	6.297083e+01
2.560000e-06	3.136339e-06	9.212501e-10	2.181888e+01	6.354450e+01
2.570000e-06	3.174591e-06	9.265881e-10	2.208499e+01	6.410605e+01
2.580000e-06	3.212609e-06	9.344728e-10	2.234947e+01	6.465585e+01
2.590000e-06	3.250412e-06	9.434293e-10	2.261246e+01	6.519424e+01
2.600000e-06	3.288009e-06	9.535983e-10	2.287402e+01	6.572155e+01
2.610000e-06	3.325370e-06	9.649337e-10	2.313392e+01	6.623806e+01
2.620000e-06	3.362503e-06	9.758858e-10	2.339225e+01	6.674407e+01
2.630000e-06	3.399484e-06	9.842749e-10	2.364952e+01	6.723981e+01
2.640000e-06	3.436188e-06	9.890470e-10	2.390486e+01	6.772552e+01
2.650000e-06	3.472594e-06	9.915102e-10	2.415813e+01	6.820142e+01
2.660000e-06	3.508728e-06	9.947290e-10	2.440951e+01	6.866768e+01
2.670000e-06	3.544638e-06	1.000377e-09	2.465933e+01	6.912449e+01
2.680000e-06	3.580417e-06	1.007769e-09	2.490823e+01	6.957201e+01
2.690000e-06	3.616063e-06	1.016060e-09	2.515622e+01	7.001037e+01
2.700000e-06	3.651591e-06	1.024976e-09	2.540338e+01	7.043971e+01
2.710000e-06	3.687050e-06	1.033747e-09	2.565006e+01	7.086015e+01
2.720000e-06	3.722388e-06	1.041171e-09	2.589590e+01	7.127181e+01
2.730000e-06	3.757405e-06	1.049576e-09	2.613951e+01	7.167479e+01
2.740000e-06	3.792002e-06	1.057536e-09	2.638019e+01	7.206920e+01
2.750000e-06	3.826142e-06	1.062686e-09	2.661769e+01	7.245514e+01
2.760000e-06	3.859833e-06	1.065997e-09	2.685207e+01	7.283269e+01
2.770000e-06	3.893030e-06	1.070187e-09	2.708302e+01	7.320197e+01
2.780000e-06	3.925725e-06	1.076646e-09	2.731048e+01	7.356307e+01
2.790000e-06	3.957982e-06	1.084199e-09	2.753488e+01	7.391610e+01
2.800000e-06	3.989906e-06	1.092220e-09	2.775697e+01	7.426115e+01
2.810000e-06	4.021690e-06	1.100110e-09	2.797808e+01	7.459835e+01
2.820000e-06	4.053364e-06	1.105747e-09	2.819843e+01	7.492780e+01
2.830000e-06	4.084916e-06	1.110049e-09	2.841793e+01	7.524963e+01
2.840000e-06	4.116301e-06	1.113579e-09	2.863627e+01	7.556396e+01
2.850000e-06	4.147398e-06	1.115690e-09	2.885261e+01	7.587093e+01
2.860000e-06	4.178205e-06	1.118141e-09	2.906693e+01	7.617068e+01
2.870000e-06	4.208695e-06	1.120746e-09	2.927904e+01	7.646335e+01
2.880000e-06	4.238801e-06	1.122826e-09	2.948848e+01	7.674910e+01
2.890000e-06	4.268598e-06	1.127039e-09	2.969577e+01	7.702807e+01
2.900000e-06	4.298166e-06	1.133170e-09	2.990147e+01	7.730044e+01
