# Temperatura_=_-0.24
# Concentracion g/m^3_=_1620.0
# C_Vs_to_Am_M_A/Vsm_=_65563218390.804596
# pendiente_HvsI_1/m_=_3716.3
# ordenada_HvsI_A/m_=_1297.0
# frecuencia_Hz_=_135110.16764308885

Tiempo_(s)	Campo_(V.s)	Magnetizacion_(V.s)	Campo_(kA/m)	Magnetizacion_(A/m)
0.000000e+00	-5.516793e-06	-1.172324e-09	-3.836356e+01	-7.660635e+01
1.000000e-08	-5.516961e-06	-1.174321e-09	-3.836473e+01	-7.663755e+01
2.000000e-08	-5.516777e-06	-1.178143e-09	-3.836345e+01	-7.666832e+01
3.000000e-08	-5.516099e-06	-1.180788e-09	-3.835874e+01	-7.669842e+01
4.000000e-08	-5.514933e-06	-1.178738e-09	-3.835063e+01	-7.672762e+01
5.000000e-08	-5.513237e-06	-1.172813e-09	-3.833883e+01	-7.675566e+01
6.000000e-08	-5.510907e-06	-1.152836e-09	-3.832263e+01	-7.678229e+01
7.000000e-08	-5.507987e-06	-1.133650e-09	-3.830232e+01	-7.680724e+01
8.000000e-08	-5.504610e-06	-1.173427e-09	-3.827884e+01	-7.683023e+01
9.000000e-08	-5.500828e-06	-1.251719e-09	-3.825254e+01	-7.685101e+01
1.000000e-07	-5.496628e-06	-1.231394e-09	-3.822333e+01	-7.686930e+01
1.100000e-07	-5.492101e-06	-1.131927e-09	-3.819186e+01	-7.688483e+01
1.200000e-07	-5.487490e-06	-1.069132e-09	-3.815979e+01	-7.689735e+01
1.300000e-07	-5.482686e-06	-1.175494e-09	-3.812638e+01	-7.690659e+01
1.400000e-07	-5.477429e-06	-1.210933e-09	-3.808982e+01	-7.691232e+01
1.500000e-07	-5.471807e-06	-1.136874e-09	-3.805073e+01	-7.691432e+01
1.600000e-07	-5.465819e-06	-1.095573e-09	-3.800909e+01	-7.691236e+01
1.700000e-07	-5.459274e-06	-1.171972e-09	-3.796358e+01	-7.690624e+01
1.800000e-07	-5.452269e-06	-1.238938e-09	-3.791486e+01	-7.689580e+01
1.900000e-07	-5.444966e-06	-1.148084e-09	-3.786408e+01	-7.688086e+01
2.000000e-07	-5.437390e-06	-1.104456e-09	-3.781140e+01	-7.686128e+01
2.100000e-07	-5.429544e-06	-1.133190e-09	-3.775684e+01	-7.683696e+01
2.200000e-07	-5.421437e-06	-1.210429e-09	-3.770046e+01	-7.680778e+01
2.300000e-07	-5.413086e-06	-1.171263e-09	-3.764239e+01	-7.677368e+01
2.400000e-07	-5.404247e-06	-1.163164e-09	-3.758092e+01	-7.673461e+01
2.500000e-07	-5.394543e-06	-1.177631e-09	-3.751344e+01	-7.669054e+01
2.600000e-07	-5.384093e-06	-1.202061e-09	-3.744077e+01	-7.664145e+01
2.700000e-07	-5.373194e-06	-1.159038e-09	-3.736498e+01	-7.658738e+01
2.800000e-07	-5.361828e-06	-1.158204e-09	-3.728594e+01	-7.652834e+01
2.900000e-07	-5.350035e-06	-1.191016e-09	-3.720393e+01	-7.646442e+01
3.000000e-07	-5.337941e-06	-1.212574e-09	-3.711983e+01	-7.639567e+01
3.100000e-07	-5.325454e-06	-1.183778e-09	-3.703300e+01	-7.632219e+01
3.200000e-07	-5.312463e-06	-1.166588e-09	-3.694266e+01	-7.624410e+01
3.300000e-07	-5.299093e-06	-1.191222e-09	-3.684968e+01	-7.616152e+01
3.400000e-07	-5.285470e-06	-1.189710e-09	-3.675495e+01	-7.607459e+01
3.500000e-07	-5.271344e-06	-1.162123e-09	-3.665672e+01	-7.598346e+01
3.600000e-07	-5.256660e-06	-1.160776e-09	-3.655461e+01	-7.588829e+01
3.700000e-07	-5.241600e-06	-1.199812e-09	-3.644988e+01	-7.578923e+01
3.800000e-07	-5.226025e-06	-1.181859e-09	-3.634157e+01	-7.568646e+01
3.900000e-07	-5.209865e-06	-1.155158e-09	-3.622920e+01	-7.558016e+01
4.000000e-07	-5.193219e-06	-1.171790e-09	-3.611344e+01	-7.547049e+01
4.100000e-07	-5.176294e-06	-1.192171e-09	-3.599575e+01	-7.535763e+01
4.200000e-07	-5.159100e-06	-1.137278e-09	-3.587618e+01	-7.524174e+01
4.300000e-07	-5.141651e-06	-1.139197e-09	-3.575484e+01	-7.512298e+01
4.400000e-07	-5.124006e-06	-1.185103e-09	-3.563213e+01	-7.500152e+01
4.500000e-07	-5.105969e-06	-1.180352e-09	-3.550671e+01	-7.487749e+01
4.600000e-07	-5.087368e-06	-1.119484e-09	-3.537736e+01	-7.475104e+01
4.700000e-07	-5.068281e-06	-1.147775e-09	-3.524462e+01	-7.462228e+01
4.800000e-07	-5.048938e-06	-1.166563e-09	-3.511011e+01	-7.449134e+01
4.900000e-07	-5.029399e-06	-1.139430e-09	-3.497424e+01	-7.435831e+01
5.000000e-07	-5.009629e-06	-1.125622e-09	-3.483676e+01	-7.422328e+01
5.100000e-07	-4.989596e-06	-1.154749e-09	-3.469745e+01	-7.408631e+01
5.200000e-07	-4.969242e-06	-1.125753e-09	-3.455591e+01	-7.394746e+01
5.300000e-07	-4.948491e-06	-1.118402e-09	-3.441161e+01	-7.380678e+01
5.400000e-07	-4.927352e-06	-1.150445e-09	-3.426461e+01	-7.366428e+01
5.500000e-07	-4.905873e-06	-1.144201e-09	-3.411525e+01	-7.351998e+01
5.600000e-07	-4.884091e-06	-1.094080e-09	-3.396378e+01	-7.337388e+01
5.700000e-07	-4.862085e-06	-1.110954e-09	-3.381075e+01	-7.322595e+01
5.800000e-07	-4.839678e-06	-1.131090e-09	-3.365493e+01	-7.307616e+01
5.900000e-07	-4.816795e-06	-1.102274e-09	-3.349580e+01	-7.292448e+01
6.000000e-07	-4.793683e-06	-1.091847e-09	-3.333508e+01	-7.277085e+01
6.100000e-07	-4.770330e-06	-1.118576e-09	-3.317269e+01	-7.261521e+01
6.200000e-07	-4.746711e-06	-1.106399e-09	-3.300844e+01	-7.245749e+01
6.300000e-07	-4.722893e-06	-1.080622e-09	-3.284281e+01	-7.229761e+01
6.400000e-07	-4.698811e-06	-1.097480e-09	-3.267534e+01	-7.213549e+01
6.500000e-07	-4.674360e-06	-1.102919e-09	-3.250531e+01	-7.197104e+01
6.600000e-07	-4.649468e-06	-1.082143e-09	-3.233221e+01	-7.180418e+01
6.700000e-07	-4.624023e-06	-1.079900e-09	-3.215528e+01	-7.163482e+01
6.800000e-07	-4.597838e-06	-1.092735e-09	-3.197319e+01	-7.146287e+01
6.900000e-07	-4.571065e-06	-1.077481e-09	-3.178700e+01	-7.128825e+01
7.000000e-07	-4.543924e-06	-1.071794e-09	-3.159827e+01	-7.111087e+01
7.100000e-07	-4.516484e-06	-1.076265e-09	-3.140745e+01	-7.093065e+01
7.200000e-07	-4.488878e-06	-1.073931e-09	-3.121548e+01	-7.074754e+01
7.300000e-07	-4.461148e-06	-1.057797e-09	-3.102265e+01	-7.056146e+01
7.400000e-07	-4.433241e-06	-1.065019e-09	-3.082858e+01	-7.037236e+01
7.500000e-07	-4.405084e-06	-1.060068e-09	-3.063278e+01	-7.018019e+01
7.600000e-07	-4.376694e-06	-1.048563e-09	-3.043536e+01	-6.998491e+01
7.700000e-07	-4.348054e-06	-1.042981e-09	-3.023619e+01	-6.978650e+01
7.800000e-07	-4.319108e-06	-1.049457e-09	-3.003490e+01	-6.958494e+01
7.900000e-07	-4.289780e-06	-1.040084e-09	-2.983096e+01	-6.938022e+01
8.000000e-07	-4.260135e-06	-1.037746e-09	-2.962481e+01	-6.917233e+01
8.100000e-07	-4.230239e-06	-1.035345e-09	-2.941692e+01	-6.896130e+01
8.200000e-07	-4.199996e-06	-1.031084e-09	-2.920660e+01	-6.874714e+01
8.300000e-07	-4.169437e-06	-1.024297e-09	-2.899410e+01	-6.852987e+01
8.400000e-07	-4.138534e-06	-1.027473e-09	-2.877920e+01	-6.830953e+01
8.500000e-07	-4.107303e-06	-1.022697e-09	-2.856202e+01	-6.808616e+01
8.600000e-07	-4.075901e-06	-1.017378e-09	-2.834365e+01	-6.785981e+01
8.700000e-07	-4.044355e-06	-1.013044e-09	-2.812428e+01	-6.763052e+01
8.800000e-07	-4.012645e-06	-1.008660e-09	-2.790378e+01	-6.739834e+01
8.900000e-07	-3.980812e-06	-1.000640e-09	-2.768241e+01	-6.716333e+01
9.000000e-07	-3.948815e-06	-9.954887e-10	-2.745990e+01	-6.692554e+01
9.100000e-07	-3.916432e-06	-9.899204e-10	-2.723471e+01	-6.668501e+01
9.200000e-07	-3.883578e-06	-9.851375e-10	-2.700625e+01	-6.644179e+01
9.300000e-07	-3.850289e-06	-9.871403e-10	-2.677476e+01	-6.619593e+01
9.400000e-07	-3.816551e-06	-9.878467e-10	-2.654014e+01	-6.594745e+01
9.500000e-07	-3.782352e-06	-9.859419e-10	-2.630232e+01	-6.569639e+01
9.600000e-07	-3.747699e-06	-9.814676e-10	-2.606135e+01	-6.544275e+01
9.700000e-07	-3.712702e-06	-9.797679e-10	-2.581798e+01	-6.518655e+01
9.800000e-07	-3.677443e-06	-9.718239e-10	-2.557279e+01	-6.492777e+01
9.900000e-07	-3.641922e-06	-9.644308e-10	-2.532578e+01	-6.466640e+01
1.000000e-06	-3.606232e-06	-9.572712e-10	-2.507759e+01	-6.440240e+01
1.010000e-06	-3.570493e-06	-9.532268e-10	-2.482907e+01	-6.413572e+01
1.020000e-06	-3.534663e-06	-9.472732e-10	-2.457991e+01	-6.386631e+01
1.030000e-06	-3.498615e-06	-9.483763e-10	-2.432923e+01	-6.359408e+01
1.040000e-06	-3.462307e-06	-9.461884e-10	-2.407675e+01	-6.331893e+01
1.050000e-06	-3.425739e-06	-9.388375e-10	-2.382245e+01	-6.304076e+01
1.060000e-06	-3.388857e-06	-9.262755e-10	-2.356598e+01	-6.275944e+01
1.070000e-06	-3.351667e-06	-9.194821e-10	-2.330736e+01	-6.247483e+01
1.080000e-06	-3.314287e-06	-9.125024e-10	-2.304742e+01	-6.218677e+01
1.090000e-06	-3.276693e-06	-9.089812e-10	-2.278599e+01	-6.189508e+01
1.100000e-06	-3.238824e-06	-9.058361e-10	-2.252265e+01	-6.159960e+01
1.110000e-06	-3.200682e-06	-9.027464e-10	-2.225742e+01	-6.130011e+01
1.120000e-06	-3.162285e-06	-8.933435e-10	-2.199041e+01	-6.099641e+01
1.130000e-06	-3.123680e-06	-8.862492e-10	-2.172195e+01	-6.068829e+01
1.140000e-06	-3.084940e-06	-8.795054e-10	-2.145255e+01	-6.037552e+01
1.150000e-06	-3.046077e-06	-8.726283e-10	-2.118230e+01	-6.005787e+01
1.160000e-06	-3.007042e-06	-8.677121e-10	-2.091085e+01	-5.973511e+01
1.170000e-06	-2.967831e-06	-8.660874e-10	-2.063818e+01	-5.940698e+01
1.180000e-06	-2.928444e-06	-8.612312e-10	-2.036429e+01	-5.907326e+01
1.190000e-06	-2.888870e-06	-8.540340e-10	-2.008909e+01	-5.873370e+01
1.200000e-06	-2.849149e-06	-8.471504e-10	-1.981287e+01	-5.838806e+01
1.210000e-06	-2.809334e-06	-8.397339e-10	-1.953600e+01	-5.803611e+01
1.220000e-06	-2.769374e-06	-8.321627e-10	-1.925812e+01	-5.767760e+01
1.230000e-06	-2.729270e-06	-8.267508e-10	-1.897923e+01	-5.731232e+01
1.240000e-06	-2.688981e-06	-8.241844e-10	-1.869907e+01	-5.694005e+01
1.250000e-06	-2.648398e-06	-8.178642e-10	-1.841686e+01	-5.656058e+01
1.260000e-06	-2.607595e-06	-8.135693e-10	-1.813311e+01	-5.617370e+01
1.270000e-06	-2.566607e-06	-8.098595e-10	-1.784809e+01	-5.577923e+01
1.280000e-06	-2.525273e-06	-8.025184e-10	-1.756065e+01	-5.537699e+01
1.290000e-06	-2.483581e-06	-7.915202e-10	-1.727073e+01	-5.496681e+01
1.300000e-06	-2.441540e-06	-7.828736e-10	-1.697837e+01	-5.454854e+01
1.310000e-06	-2.399194e-06	-7.747116e-10	-1.668390e+01	-5.412202e+01
1.320000e-06	-2.356552e-06	-7.681348e-10	-1.638737e+01	-5.368714e+01
1.330000e-06	-2.313646e-06	-7.641270e-10	-1.608900e+01	-5.324376e+01
1.340000e-06	-2.270533e-06	-7.618688e-10	-1.578920e+01	-5.279178e+01
1.350000e-06	-2.227189e-06	-7.549999e-10	-1.548779e+01	-5.233109e+01
1.360000e-06	-2.183773e-06	-7.481226e-10	-1.518587e+01	-5.186161e+01
1.370000e-06	-2.140317e-06	-7.401981e-10	-1.488368e+01	-5.138323e+01
1.380000e-06	-2.096747e-06	-7.322173e-10	-1.458069e+01	-5.089589e+01
1.390000e-06	-2.053074e-06	-7.243989e-10	-1.427700e+01	-5.039951e+01
1.400000e-06	-2.009347e-06	-7.185001e-10	-1.397292e+01	-4.989401e+01
1.410000e-06	-1.965571e-06	-7.102901e-10	-1.366850e+01	-4.937931e+01
1.420000e-06	-1.921766e-06	-7.008256e-10	-1.336389e+01	-4.885535e+01
1.430000e-06	-1.877868e-06	-6.915978e-10	-1.305862e+01	-4.832204e+01
1.440000e-06	-1.833767e-06	-6.836885e-10	-1.275194e+01	-4.777929e+01
1.450000e-06	-1.789452e-06	-6.733821e-10	-1.244378e+01	-4.722702e+01
1.460000e-06	-1.745019e-06	-6.623768e-10	-1.213479e+01	-4.666511e+01
1.470000e-06	-1.700556e-06	-6.517162e-10	-1.182560e+01	-4.609347e+01
1.480000e-06	-1.655986e-06	-6.400299e-10	-1.151566e+01	-4.551195e+01
1.490000e-06	-1.611237e-06	-6.287362e-10	-1.120448e+01	-4.492042e+01
1.500000e-06	-1.566286e-06	-6.195075e-10	-1.089189e+01	-4.431872e+01
1.510000e-06	-1.521168e-06	-6.114034e-10	-1.057814e+01	-4.370666e+01
1.520000e-06	-1.475929e-06	-6.019814e-10	-1.026355e+01	-4.308405e+01
1.530000e-06	-1.430616e-06	-5.910802e-10	-9.948449e+00	-4.245067e+01
1.540000e-06	-1.385265e-06	-5.794530e-10	-9.633081e+00	-4.180629e+01
1.550000e-06	-1.339897e-06	-5.675144e-10	-9.317593e+00	-4.115064e+01
1.560000e-06	-1.294443e-06	-5.552259e-10	-9.001504e+00	-4.048345e+01
1.570000e-06	-1.248787e-06	-5.450574e-10	-8.684015e+00	-3.980440e+01
1.580000e-06	-1.202993e-06	-5.359420e-10	-8.365565e+00	-3.911319e+01
1.590000e-06	-1.157141e-06	-5.252928e-10	-8.046713e+00	-3.840946e+01
1.600000e-06	-1.111293e-06	-5.134483e-10	-7.727885e+00	-3.769286e+01
1.610000e-06	-1.065407e-06	-5.017383e-10	-7.408797e+00	-3.696302e+01
1.620000e-06	-1.019402e-06	-4.880715e-10	-7.088878e+00	-3.621953e+01
1.630000e-06	-9.734099e-07	-4.745061e-10	-6.769054e+00	-3.546202e+01
1.640000e-06	-9.273681e-07	-4.605046e-10	-6.448881e+00	-3.469005e+01
1.650000e-06	-8.811910e-07	-4.488181e-10	-6.127767e+00	-3.390322e+01
1.660000e-06	-8.349623e-07	-4.367409e-10	-5.806295e+00	-3.310112e+01
1.670000e-06	-7.886371e-07	-4.254950e-10	-5.484152e+00	-3.228331e+01
1.680000e-06	-7.422998e-07	-4.146964e-10	-5.161923e+00	-3.144940e+01
1.690000e-06	-6.960010e-07	-4.044760e-10	-4.839964e+00	-3.059899e+01
1.700000e-06	-6.496428e-07	-3.911736e-10	-4.517591e+00	-2.973167e+01
1.710000e-06	-6.031640e-07	-3.755644e-10	-4.194379e+00	-2.884709e+01
1.720000e-06	-5.565717e-07	-3.593462e-10	-3.870377e+00	-2.794490e+01
1.730000e-06	-5.099886e-07	-3.444860e-10	-3.546441e+00	-2.702477e+01
1.740000e-06	-4.634329e-07	-3.318314e-10	-3.222694e+00	-2.608642e+01
1.750000e-06	-4.168291e-07	-3.205699e-10	-2.898613e+00	-2.512961e+01
1.760000e-06	-3.701825e-07	-3.092328e-10	-2.574234e+00	-2.415412e+01
1.770000e-06	-3.234527e-07	-2.981963e-10	-2.249277e+00	-2.315978e+01
1.780000e-06	-2.766375e-07	-2.859085e-10	-1.923727e+00	-2.214649e+01
1.790000e-06	-2.298698e-07	-2.694948e-10	-1.598505e+00	-2.111418e+01
1.800000e-06	-1.830716e-07	-2.513476e-10	-1.273073e+00	-2.006286e+01
1.810000e-06	-1.362214e-07	-2.334189e-10	-9.472780e-01	-1.899258e+01
1.820000e-06	-8.940139e-08	-2.180470e-10	-6.216937e-01	-1.790347e+01
1.830000e-06	-4.247714e-08	-2.048145e-10	-2.953843e-01	-1.679572e+01
1.840000e-06	4.421470e-09	-1.929853e-10	3.074672e-02	-1.566959e+01
1.850000e-06	5.123061e-08	-1.814256e-10	3.562556e-01	-1.452542e+01
1.860000e-06	9.804987e-08	-1.658643e-10	6.818349e-01	-1.336361e+01
1.870000e-06	1.448146e-07	-1.458214e-10	1.007035e+00	-1.218464e+01
1.880000e-06	1.915069e-07	-1.244599e-10	1.331731e+00	-1.098907e+01
1.890000e-06	2.382346e-07	-1.049161e-10	1.656674e+00	-9.777533e+00
1.900000e-06	2.849419e-07	-8.808703e-11	1.981475e+00	-8.550720e+00
1.910000e-06	3.316537e-07	-7.226182e-11	2.306307e+00	-7.309411e+00
1.920000e-06	3.784400e-07	-5.799917e-11	2.631657e+00	-6.054452e+00
1.930000e-06	4.251439e-07	-4.218791e-11	2.956434e+00	-4.786755e+00
1.940000e-06	4.717541e-07	-2.622186e-11	3.280560e+00	-3.507301e+00
1.950000e-06	5.183033e-07	-8.600943e-12	3.604260e+00	-2.217128e+00
1.960000e-06	5.647610e-07	1.042109e-11	3.927326e+00	-9.173374e-01
1.970000e-06	6.112582e-07	3.121963e-11	4.250666e+00	3.909202e-01
1.980000e-06	6.578057e-07	5.145858e-11	4.574355e+00	1.706444e+00
1.990000e-06	7.042072e-07	6.900096e-11	4.897029e+00	3.027988e+00
2.000000e-06	7.505266e-07	8.350972e-11	5.219132e+00	4.354272e+00
2.010000e-06	7.967486e-07	9.868463e-11	5.540558e+00	5.683982e+00
2.020000e-06	8.428788e-07	1.158886e-10	5.861346e+00	7.015776e+00
2.030000e-06	8.890360e-07	1.340329e-10	6.182321e+00	8.348297e+00
2.040000e-06	9.351999e-07	1.521711e-10	6.503343e+00	9.680173e+00
2.050000e-06	9.813076e-07	1.724783e-10	6.823974e+00	1.101003e+01
2.060000e-06	1.027270e-06	1.941941e-10	7.143597e+00	1.233648e+01
2.070000e-06	1.073171e-06	2.150453e-10	7.462791e+00	1.365818e+01
2.080000e-06	1.119028e-06	2.337054e-10	7.781679e+00	1.497375e+01
2.090000e-06	1.164826e-06	2.507345e-10	8.100154e+00	1.628187e+01
2.100000e-06	1.210558e-06	2.672371e-10	8.418173e+00	1.758124e+01
2.110000e-06	1.256183e-06	2.849215e-10	8.735446e+00	1.887059e+01
2.120000e-06	1.301708e-06	3.046753e-10	9.052027e+00	2.014869e+01
2.130000e-06	1.347074e-06	3.239951e-10	9.367498e+00	2.141437e+01
2.140000e-06	1.392281e-06	3.421573e-10	9.681866e+00	2.266648e+01
2.150000e-06	1.437393e-06	3.568598e-10	9.995573e+00	2.390397e+01
2.160000e-06	1.482467e-06	3.709448e-10	1.030901e+01	2.512582e+01
2.170000e-06	1.527534e-06	3.866692e-10	1.062241e+01	2.633108e+01
2.180000e-06	1.572521e-06	4.040508e-10	1.093525e+01	2.751890e+01
2.190000e-06	1.617292e-06	4.229313e-10	1.124659e+01	2.868845e+01
2.200000e-06	1.661886e-06	4.419473e-10	1.155669e+01	2.983903e+01
2.210000e-06	1.706351e-06	4.599985e-10	1.186589e+01	3.096999e+01
2.220000e-06	1.750640e-06	4.765698e-10	1.217388e+01	3.208074e+01
2.230000e-06	1.794791e-06	4.888228e-10	1.248091e+01	3.317082e+01
2.240000e-06	1.838852e-06	4.995608e-10	1.278731e+01	3.423981e+01
2.250000e-06	1.882822e-06	5.107168e-10	1.309307e+01	3.528738e+01
2.260000e-06	1.926717e-06	5.241850e-10	1.339832e+01	3.631328e+01
2.270000e-06	1.970531e-06	5.367988e-10	1.370299e+01	3.731735e+01
2.280000e-06	2.014286e-06	5.498131e-10	1.400727e+01	3.829949e+01
2.290000e-06	2.058001e-06	5.626956e-10	1.431126e+01	3.925968e+01
2.300000e-06	2.101653e-06	5.783128e-10	1.461481e+01	4.019797e+01
2.310000e-06	2.145269e-06	5.944410e-10	1.491811e+01	4.111448e+01
2.320000e-06	2.188787e-06	6.055877e-10	1.522074e+01	4.200938e+01
2.330000e-06	2.232169e-06	6.134424e-10	1.552241e+01	4.288292e+01
2.340000e-06	2.275411e-06	6.207982e-10	1.582312e+01	4.373538e+01
2.350000e-06	2.318524e-06	6.298826e-10	1.612293e+01	4.456712e+01
2.360000e-06	2.361388e-06	6.402463e-10	1.642100e+01	4.537853e+01
2.370000e-06	2.403888e-06	6.536381e-10	1.671654e+01	4.617003e+01
2.380000e-06	2.446128e-06	6.678759e-10	1.701028e+01	4.694208e+01
2.390000e-06	2.488052e-06	6.809059e-10	1.730182e+01	4.769519e+01
2.400000e-06	2.529622e-06	6.930482e-10	1.759089e+01	4.842987e+01
2.410000e-06	2.570912e-06	7.039219e-10	1.787802e+01	4.914666e+01
2.420000e-06	2.611884e-06	7.130246e-10	1.816293e+01	4.984611e+01
2.430000e-06	2.652518e-06	7.209336e-10	1.844550e+01	5.052879e+01
2.440000e-06	2.692915e-06	7.301455e-10	1.872643e+01	5.119524e+01
2.450000e-06	2.733048e-06	7.434715e-10	1.900551e+01	5.184604e+01
2.460000e-06	2.772956e-06	7.556916e-10	1.928303e+01	5.248174e+01
2.470000e-06	2.812769e-06	7.658530e-10	1.955988e+01	5.310290e+01
2.480000e-06	2.852533e-06	7.732083e-10	1.983640e+01	5.371004e+01
2.490000e-06	2.892246e-06	7.799108e-10	2.011256e+01	5.430367e+01
2.500000e-06	2.931806e-06	7.881286e-10	2.038766e+01	5.488431e+01
2.510000e-06	2.971191e-06	7.976535e-10	2.066155e+01	5.545242e+01
2.520000e-06	3.010453e-06	8.076460e-10	2.093457e+01	5.600844e+01
2.530000e-06	3.049531e-06	8.185183e-10	2.120632e+01	5.655280e+01
2.540000e-06	3.088321e-06	8.280033e-10	2.147606e+01	5.708590e+01
2.550000e-06	3.126864e-06	8.348062e-10	2.174409e+01	5.760809e+01
2.560000e-06	3.165157e-06	8.409459e-10	2.201038e+01	5.811970e+01
2.570000e-06	3.203235e-06	8.474354e-10	2.227517e+01	5.862104e+01
2.580000e-06	3.241138e-06	8.530510e-10	2.253874e+01	5.911237e+01
2.590000e-06	3.278835e-06	8.578264e-10	2.280089e+01	5.959394e+01
2.600000e-06	3.316419e-06	8.636616e-10	2.306225e+01	6.006595e+01
2.610000e-06	3.353798e-06	8.723698e-10	2.332218e+01	6.052859e+01
2.620000e-06	3.390786e-06	8.823249e-10	2.357939e+01	6.098201e+01
2.630000e-06	3.427404e-06	8.915429e-10	2.383403e+01	6.142634e+01
2.640000e-06	3.463801e-06	8.989852e-10	2.408713e+01	6.186168e+01
2.650000e-06	3.500017e-06	9.036603e-10	2.433898e+01	6.228813e+01
2.660000e-06	3.536048e-06	9.069714e-10	2.458954e+01	6.270575e+01
2.670000e-06	3.571911e-06	9.091092e-10	2.483893e+01	6.311459e+01
2.680000e-06	3.607643e-06	9.119817e-10	2.508741e+01	6.351468e+01
2.690000e-06	3.643265e-06	9.167119e-10	2.533512e+01	6.390607e+01
2.700000e-06	3.678761e-06	9.244771e-10	2.558196e+01	6.428876e+01
2.710000e-06	3.714087e-06	9.337641e-10	2.582761e+01	6.466278e+01
2.720000e-06	3.749128e-06	9.449375e-10	2.607129e+01	6.502813e+01
2.730000e-06	3.783817e-06	9.543834e-10	2.631251e+01	6.538482e+01
2.740000e-06	3.818029e-06	9.589146e-10	2.655042e+01	6.573287e+01
2.750000e-06	3.851679e-06	9.604862e-10	2.678442e+01	6.607231e+01
2.760000e-06	3.884802e-06	9.604823e-10	2.701476e+01	6.640314e+01
2.770000e-06	3.917439e-06	9.613854e-10	2.724171e+01	6.672542e+01
2.780000e-06	3.949733e-06	9.674001e-10	2.746629e+01	6.703918e+01
2.790000e-06	3.981816e-06	9.772878e-10	2.768939e+01	6.734448e+01
2.800000e-06	4.013733e-06	9.882036e-10	2.791134e+01	6.764140e+01
2.810000e-06	4.045497e-06	9.968817e-10	2.813223e+01	6.793001e+01
2.820000e-06	4.077078e-06	1.001329e-09	2.835184e+01	6.821042e+01
2.830000e-06	4.108488e-06	1.001982e-09	2.857027e+01	6.848275e+01
2.840000e-06	4.139630e-06	1.001200e-09	2.878683e+01	6.874711e+01
2.850000e-06	4.170445e-06	1.001674e-09	2.900111e+01	6.900366e+01
2.860000e-06	4.200971e-06	1.004918e-09	2.921338e+01	6.925256e+01
2.870000e-06	4.231116e-06	1.009888e-09	2.942301e+01	6.949398e+01
2.880000e-06	4.260949e-06	1.016320e-09	2.963047e+01	6.972811e+01
2.890000e-06	4.290573e-06	1.023793e-09	2.983648e+01	6.995515e+01
2.900000e-06	4.319914e-06	1.029465e-09	3.004051e+01	7.017531e+01
