# Temperatura_=_4.08
# Concentracion g/m^3_=_1620.0
# C_Vs_to_Am_M_A/Vsm_=_65563218390.804596
# pendiente_HvsI_1/m_=_3716.3
# ordenada_HvsI_A/m_=_1297.0
# frecuencia_Hz_=_135106.3966031474

Tiempo_(s)	Campo_(V.s)	Magnetizacion_(V.s)	Campo_(kA/m)	Magnetizacion_(A/m)
0.000000e+00	-5.514512e-06	-8.456388e-10	-3.835873e+01	-5.538320e+01
1.000000e-08	-5.514716e-06	-8.411628e-10	-3.836015e+01	-5.536765e+01
2.000000e-08	-5.514731e-06	-8.371389e-10	-3.836026e+01	-5.534916e+01
3.000000e-08	-5.514479e-06	-8.363650e-10	-3.835851e+01	-5.532760e+01
4.000000e-08	-5.513765e-06	-8.345069e-10	-3.835354e+01	-5.530289e+01
5.000000e-08	-5.512488e-06	-8.303485e-10	-3.834465e+01	-5.527493e+01
6.000000e-08	-5.510637e-06	-8.211538e-10	-3.833178e+01	-5.524366e+01
7.000000e-08	-5.508164e-06	-7.957787e-10	-3.831458e+01	-5.520902e+01
8.000000e-08	-5.505123e-06	-7.916944e-10	-3.829343e+01	-5.517095e+01
9.000000e-08	-5.501647e-06	-8.498892e-10	-3.826925e+01	-5.512942e+01
1.000000e-07	-5.497729e-06	-9.101735e-10	-3.824199e+01	-5.508442e+01
1.100000e-07	-5.493386e-06	-8.594182e-10	-3.821178e+01	-5.503594e+01
1.200000e-07	-5.488842e-06	-7.673853e-10	-3.818017e+01	-5.498401e+01
1.300000e-07	-5.484192e-06	-7.312841e-10	-3.814783e+01	-5.492865e+01
1.400000e-07	-5.479211e-06	-8.480372e-10	-3.811318e+01	-5.486991e+01
1.500000e-07	-5.473709e-06	-8.292937e-10	-3.807491e+01	-5.480787e+01
1.600000e-07	-5.467781e-06	-7.700904e-10	-3.803367e+01	-5.474261e+01
1.700000e-07	-5.461543e-06	-7.426628e-10	-3.799028e+01	-5.467424e+01
1.800000e-07	-5.454944e-06	-8.493336e-10	-3.794438e+01	-5.460287e+01
1.900000e-07	-5.447839e-06	-8.837120e-10	-3.789496e+01	-5.452864e+01
2.000000e-07	-5.440336e-06	-8.049172e-10	-3.784277e+01	-5.445170e+01
2.100000e-07	-5.432657e-06	-7.763207e-10	-3.778936e+01	-5.437222e+01
2.200000e-07	-5.424721e-06	-8.326032e-10	-3.773415e+01	-5.429036e+01
2.300000e-07	-5.416510e-06	-8.847170e-10	-3.767703e+01	-5.420631e+01
2.400000e-07	-5.408063e-06	-8.338287e-10	-3.761828e+01	-5.412028e+01
2.500000e-07	-5.399103e-06	-8.314817e-10	-3.755595e+01	-5.403246e+01
2.600000e-07	-5.389374e-06	-8.378217e-10	-3.748828e+01	-5.394307e+01
2.700000e-07	-5.378854e-06	-8.605007e-10	-3.741510e+01	-5.385230e+01
2.800000e-07	-5.367796e-06	-8.123387e-10	-3.733818e+01	-5.376038e+01
2.900000e-07	-5.356363e-06	-8.314202e-10	-3.725865e+01	-5.366752e+01
3.000000e-07	-5.344583e-06	-8.428409e-10	-3.717671e+01	-5.357392e+01
3.100000e-07	-5.332465e-06	-8.583985e-10	-3.709242e+01	-5.347979e+01
3.200000e-07	-5.319906e-06	-8.076826e-10	-3.700506e+01	-5.338532e+01
3.300000e-07	-5.306896e-06	-8.183744e-10	-3.691456e+01	-5.329070e+01
3.400000e-07	-5.293465e-06	-8.255192e-10	-3.682114e+01	-5.319610e+01
3.500000e-07	-5.279659e-06	-8.320712e-10	-3.672511e+01	-5.310169e+01
3.600000e-07	-5.265474e-06	-8.005950e-10	-3.662643e+01	-5.300760e+01
3.700000e-07	-5.250950e-06	-8.229683e-10	-3.652541e+01	-5.291397e+01
3.800000e-07	-5.235846e-06	-8.350642e-10	-3.642034e+01	-5.282091e+01
3.900000e-07	-5.220113e-06	-8.236014e-10	-3.631090e+01	-5.272850e+01
4.000000e-07	-5.203985e-06	-8.017863e-10	-3.619872e+01	-5.263682e+01
4.100000e-07	-5.187467e-06	-8.232063e-10	-3.608382e+01	-5.254590e+01
4.200000e-07	-5.170602e-06	-8.296407e-10	-3.596651e+01	-5.245578e+01
4.300000e-07	-5.153355e-06	-8.003128e-10	-3.584654e+01	-5.236645e+01
4.400000e-07	-5.135747e-06	-8.107268e-10	-3.572406e+01	-5.227789e+01
4.500000e-07	-5.117924e-06	-8.378138e-10	-3.560008e+01	-5.219006e+01
4.600000e-07	-5.099746e-06	-8.250634e-10	-3.547364e+01	-5.210289e+01
4.700000e-07	-5.081007e-06	-7.737247e-10	-3.534329e+01	-5.201629e+01
4.800000e-07	-5.061817e-06	-7.909223e-10	-3.520980e+01	-5.193014e+01
4.900000e-07	-5.042342e-06	-8.055079e-10	-3.507433e+01	-5.184432e+01
5.000000e-07	-5.022668e-06	-7.944804e-10	-3.493748e+01	-5.175868e+01
5.100000e-07	-5.002840e-06	-7.781350e-10	-3.479956e+01	-5.167305e+01
5.200000e-07	-4.982795e-06	-8.041918e-10	-3.466013e+01	-5.158725e+01
5.300000e-07	-4.962384e-06	-7.862138e-10	-3.451815e+01	-5.150108e+01
5.400000e-07	-4.941530e-06	-7.847603e-10	-3.437309e+01	-5.141434e+01
5.500000e-07	-4.920285e-06	-7.972070e-10	-3.422531e+01	-5.132682e+01
5.600000e-07	-4.898756e-06	-7.970728e-10	-3.407556e+01	-5.123830e+01
5.700000e-07	-4.876949e-06	-7.553918e-10	-3.392387e+01	-5.114855e+01
5.800000e-07	-4.854785e-06	-7.741493e-10	-3.376970e+01	-5.105735e+01
5.900000e-07	-4.832234e-06	-7.910295e-10	-3.361284e+01	-5.096448e+01
6.000000e-07	-4.809382e-06	-7.780603e-10	-3.345388e+01	-5.086973e+01
6.100000e-07	-4.786213e-06	-7.659763e-10	-3.329271e+01	-5.077287e+01
6.200000e-07	-4.762761e-06	-7.897945e-10	-3.312958e+01	-5.067372e+01
6.300000e-07	-4.739148e-06	-7.690307e-10	-3.296533e+01	-5.057209e+01
6.400000e-07	-4.715317e-06	-7.460974e-10	-3.279956e+01	-5.046779e+01
6.500000e-07	-4.691128e-06	-7.534522e-10	-3.263131e+01	-5.036069e+01
6.600000e-07	-4.666483e-06	-7.602216e-10	-3.245988e+01	-5.025063e+01
6.700000e-07	-4.641386e-06	-7.455681e-10	-3.228530e+01	-5.013751e+01
6.800000e-07	-4.615761e-06	-7.563817e-10	-3.210706e+01	-5.002122e+01
6.900000e-07	-4.589546e-06	-7.671223e-10	-3.192470e+01	-4.990171e+01
7.000000e-07	-4.562859e-06	-7.571090e-10	-3.173907e+01	-4.977891e+01
7.100000e-07	-4.535804e-06	-7.536776e-10	-3.155088e+01	-4.965282e+01
7.200000e-07	-4.508408e-06	-7.560064e-10	-3.136031e+01	-4.952343e+01
7.300000e-07	-4.480773e-06	-7.465894e-10	-3.116808e+01	-4.939078e+01
7.400000e-07	-4.453016e-06	-7.382833e-10	-3.097501e+01	-4.925492e+01
7.500000e-07	-4.425075e-06	-7.470077e-10	-3.078065e+01	-4.911594e+01
7.600000e-07	-4.396836e-06	-7.434770e-10	-3.058422e+01	-4.897394e+01
7.700000e-07	-4.368292e-06	-7.400744e-10	-3.038567e+01	-4.882905e+01
7.800000e-07	-4.339387e-06	-7.388880e-10	-3.018461e+01	-4.868142e+01
7.900000e-07	-4.310112e-06	-7.407366e-10	-2.998097e+01	-4.853123e+01
8.000000e-07	-4.280524e-06	-7.304322e-10	-2.977516e+01	-4.837865e+01
8.100000e-07	-4.250592e-06	-7.317309e-10	-2.956695e+01	-4.822391e+01
8.200000e-07	-4.220409e-06	-7.257570e-10	-2.935700e+01	-4.806722e+01
8.300000e-07	-4.189986e-06	-7.244273e-10	-2.914538e+01	-4.790880e+01
8.400000e-07	-4.159297e-06	-7.233687e-10	-2.893191e+01	-4.774889e+01
8.500000e-07	-4.128408e-06	-7.302594e-10	-2.871705e+01	-4.758774e+01
8.600000e-07	-4.097257e-06	-7.239974e-10	-2.850036e+01	-4.742559e+01
8.700000e-07	-4.065826e-06	-7.230312e-10	-2.828173e+01	-4.726269e+01
8.800000e-07	-4.034180e-06	-7.188406e-10	-2.806160e+01	-4.709927e+01
8.900000e-07	-4.002366e-06	-7.173882e-10	-2.784030e+01	-4.693556e+01
9.000000e-07	-3.970383e-06	-7.115342e-10	-2.761783e+01	-4.677178e+01
9.100000e-07	-3.938109e-06	-7.130994e-10	-2.739333e+01	-4.660814e+01
9.200000e-07	-3.905508e-06	-7.091689e-10	-2.716656e+01	-4.644482e+01
9.300000e-07	-3.872562e-06	-7.088761e-10	-2.693739e+01	-4.628199e+01
9.400000e-07	-3.839150e-06	-7.101246e-10	-2.670498e+01	-4.611981e+01
9.500000e-07	-3.805274e-06	-7.108948e-10	-2.646934e+01	-4.595838e+01
9.600000e-07	-3.770926e-06	-7.043180e-10	-2.623042e+01	-4.579781e+01
9.700000e-07	-3.736173e-06	-7.013701e-10	-2.598867e+01	-4.563816e+01
9.800000e-07	-3.701089e-06	-6.991211e-10	-2.574463e+01	-4.547946e+01
9.900000e-07	-3.665707e-06	-6.936348e-10	-2.549851e+01	-4.532171e+01
1.000000e-06	-3.630124e-06	-6.922139e-10	-2.525100e+01	-4.516489e+01
1.010000e-06	-3.594394e-06	-6.947875e-10	-2.500247e+01	-4.500892e+01
1.020000e-06	-3.558532e-06	-6.968588e-10	-2.475301e+01	-4.485370e+01
1.030000e-06	-3.522529e-06	-6.941730e-10	-2.450257e+01	-4.469911e+01
1.040000e-06	-3.486394e-06	-6.912375e-10	-2.425122e+01	-4.454497e+01
1.050000e-06	-3.450037e-06	-6.839991e-10	-2.399832e+01	-4.439109e+01
1.060000e-06	-3.413393e-06	-6.767508e-10	-2.374343e+01	-4.423722e+01
1.070000e-06	-3.376490e-06	-6.691332e-10	-2.348674e+01	-4.408312e+01
1.080000e-06	-3.339327e-06	-6.687729e-10	-2.322823e+01	-4.392849e+01
1.090000e-06	-3.301905e-06	-6.669720e-10	-2.296793e+01	-4.377300e+01
1.100000e-06	-3.264251e-06	-6.672975e-10	-2.270601e+01	-4.361633e+01
1.110000e-06	-3.226382e-06	-6.637635e-10	-2.244259e+01	-4.345811e+01
1.120000e-06	-3.188276e-06	-6.598040e-10	-2.217753e+01	-4.329795e+01
1.130000e-06	-3.149861e-06	-6.511871e-10	-2.191031e+01	-4.313545e+01
1.140000e-06	-3.111210e-06	-6.473000e-10	-2.164146e+01	-4.297022e+01
1.150000e-06	-3.072399e-06	-6.420434e-10	-2.137149e+01	-4.280183e+01
1.160000e-06	-3.033348e-06	-6.385776e-10	-2.109985e+01	-4.262987e+01
1.170000e-06	-2.994147e-06	-6.351734e-10	-2.082717e+01	-4.245389e+01
1.180000e-06	-2.954782e-06	-6.370875e-10	-2.055335e+01	-4.227349e+01
1.190000e-06	-2.915268e-06	-6.353971e-10	-2.027849e+01	-4.208824e+01
1.200000e-06	-2.875600e-06	-6.333757e-10	-2.000256e+01	-4.189773e+01
1.210000e-06	-2.835733e-06	-6.308291e-10	-1.972525e+01	-4.170156e+01
1.220000e-06	-2.795801e-06	-6.270703e-10	-1.944748e+01	-4.149935e+01
1.230000e-06	-2.755823e-06	-6.202597e-10	-1.916940e+01	-4.129073e+01
1.240000e-06	-2.715655e-06	-6.160023e-10	-1.888999e+01	-4.107536e+01
1.250000e-06	-2.675270e-06	-6.101500e-10	-1.860907e+01	-4.085291e+01
1.260000e-06	-2.634654e-06	-6.041064e-10	-1.832655e+01	-4.062308e+01
1.270000e-06	-2.593727e-06	-5.995136e-10	-1.804187e+01	-4.038559e+01
1.280000e-06	-2.552491e-06	-5.940768e-10	-1.775503e+01	-4.014021e+01
1.290000e-06	-2.510944e-06	-5.873111e-10	-1.746603e+01	-3.988671e+01
1.300000e-06	-2.469247e-06	-5.804517e-10	-1.717599e+01	-3.962490e+01
1.310000e-06	-2.427408e-06	-5.751182e-10	-1.688496e+01	-3.935463e+01
1.320000e-06	-2.385145e-06	-5.699897e-10	-1.659098e+01	-3.907576e+01
1.330000e-06	-2.342451e-06	-5.672122e-10	-1.629400e+01	-3.878820e+01
1.340000e-06	-2.299538e-06	-5.655545e-10	-1.599550e+01	-3.849187e+01
1.350000e-06	-2.256448e-06	-5.637780e-10	-1.569576e+01	-3.818673e+01
1.360000e-06	-2.213125e-06	-5.572739e-10	-1.539441e+01	-3.787275e+01
1.370000e-06	-2.169618e-06	-5.511745e-10	-1.509178e+01	-3.754993e+01
1.380000e-06	-2.125977e-06	-5.458839e-10	-1.478822e+01	-3.721831e+01
1.390000e-06	-2.082281e-06	-5.420784e-10	-1.448426e+01	-3.687791e+01
1.400000e-06	-2.038555e-06	-5.375368e-10	-1.418011e+01	-3.652880e+01
1.410000e-06	-1.994767e-06	-5.355272e-10	-1.387552e+01	-3.617104e+01
1.420000e-06	-1.950916e-06	-5.320456e-10	-1.357050e+01	-3.580470e+01
1.430000e-06	-1.906979e-06	-5.295560e-10	-1.326487e+01	-3.542987e+01
1.440000e-06	-1.862959e-06	-5.257960e-10	-1.295867e+01	-3.504663e+01
1.450000e-06	-1.818773e-06	-5.204914e-10	-1.265132e+01	-3.465506e+01
1.460000e-06	-1.774514e-06	-5.103482e-10	-1.234345e+01	-3.425523e+01
1.470000e-06	-1.730192e-06	-5.005241e-10	-1.203515e+01	-3.384721e+01
1.480000e-06	-1.685644e-06	-4.917643e-10	-1.172528e+01	-3.343105e+01
1.490000e-06	-1.640930e-06	-4.851969e-10	-1.141425e+01	-3.300678e+01
1.500000e-06	-1.596100e-06	-4.793273e-10	-1.110241e+01	-3.257443e+01
1.510000e-06	-1.551216e-06	-4.749164e-10	-1.079020e+01	-3.213399e+01
1.520000e-06	-1.506233e-06	-4.699324e-10	-1.047730e+01	-3.168542e+01
1.530000e-06	-1.461110e-06	-4.632660e-10	-1.016342e+01	-3.122867e+01
1.540000e-06	-1.415934e-06	-4.545084e-10	-9.849182e+00	-3.076366e+01
1.550000e-06	-1.370653e-06	-4.454245e-10	-9.534212e+00	-3.029025e+01
1.560000e-06	-1.325183e-06	-4.377951e-10	-9.217925e+00	-2.980831e+01
1.570000e-06	-1.279607e-06	-4.297713e-10	-8.900899e+00	-2.931764e+01
1.580000e-06	-1.233968e-06	-4.223598e-10	-8.583435e+00	-2.881802e+01
1.590000e-06	-1.188255e-06	-4.150081e-10	-8.265458e+00	-2.830921e+01
1.600000e-06	-1.142456e-06	-4.069128e-10	-7.946880e+00	-2.779093e+01
1.610000e-06	-1.096512e-06	-3.998672e-10	-7.627296e+00	-2.726285e+01
1.620000e-06	-1.050439e-06	-3.928790e-10	-7.306814e+00	-2.672463e+01
1.630000e-06	-1.004293e-06	-3.837630e-10	-6.985822e+00	-2.617589e+01
1.640000e-06	-9.581358e-07	-3.726582e-10	-6.664755e+00	-2.561624e+01
1.650000e-06	-9.119661e-07	-3.593489e-10	-6.343601e+00	-2.504526e+01
1.660000e-06	-8.657200e-07	-3.483741e-10	-6.021915e+00	-2.446251e+01
1.670000e-06	-8.192841e-07	-3.390137e-10	-5.698909e+00	-2.386752e+01
1.680000e-06	-7.727659e-07	-3.314354e-10	-5.375329e+00	-2.325985e+01
1.690000e-06	-7.263402e-07	-3.236271e-10	-5.052394e+00	-2.263901e+01
1.700000e-06	-6.798951e-07	-3.163602e-10	-4.729324e+00	-2.200455e+01
1.710000e-06	-6.333693e-07	-3.060605e-10	-4.405692e+00	-2.135598e+01
1.720000e-06	-5.868424e-07	-2.921814e-10	-4.082053e+00	-2.069286e+01
1.730000e-06	-5.402225e-07	-2.780707e-10	-3.757767e+00	-2.001475e+01
1.740000e-06	-4.934630e-07	-2.656360e-10	-3.432510e+00	-1.932123e+01
1.750000e-06	-4.466981e-07	-2.528116e-10	-3.107215e+00	-1.861192e+01
1.760000e-06	-3.999709e-07	-2.420497e-10	-2.782182e+00	-1.788644e+01
1.770000e-06	-3.532295e-07	-2.316269e-10	-2.457051e+00	-1.714449e+01
1.780000e-06	-3.064354e-07	-2.216953e-10	-2.131553e+00	-1.638578e+01
1.790000e-06	-2.596755e-07	-2.119986e-10	-1.806292e+00	-1.561011e+01
1.800000e-06	-2.129286e-07	-1.998072e-10	-1.481123e+00	-1.481729e+01
1.810000e-06	-1.660855e-07	-1.841041e-10	-1.155284e+00	-1.400722e+01
1.820000e-06	-1.192341e-07	-1.674946e-10	-8.293878e-01	-1.317986e+01
1.830000e-06	-7.245634e-08	-1.533702e-10	-5.040035e-01	-1.233523e+01
1.840000e-06	-2.565768e-08	-1.411033e-10	-1.784738e-01	-1.147342e+01
1.850000e-06	2.114476e-08	-1.288468e-10	1.470821e-01	-1.059460e+01
1.860000e-06	6.789934e-08	-1.188205e-10	4.723052e-01	-9.699028e+00
1.870000e-06	1.147386e-07	-1.079830e-10	7.981175e-01	-8.787028e+00
1.880000e-06	1.616110e-07	-9.485544e-11	1.124160e+00	-7.859010e+00
1.890000e-06	2.083642e-07	-8.029256e-11	1.449374e+00	-6.915466e+00
1.900000e-06	2.550848e-07	-6.467458e-11	1.774360e+00	-5.956968e+00
1.910000e-06	3.018581e-07	-4.913505e-11	2.099713e+00	-4.984170e+00
1.920000e-06	3.485441e-07	-3.401629e-11	2.424460e+00	-3.997808e+00
1.930000e-06	3.951593e-07	-2.224315e-11	2.748713e+00	-2.998695e+00
1.940000e-06	4.417835e-07	-9.523504e-12	3.073029e+00	-1.987718e+00
1.950000e-06	4.883443e-07	3.014060e-12	3.396904e+00	-9.658388e-01
1.960000e-06	5.348416e-07	1.599664e-11	3.720338e+00	6.591306e-02
1.970000e-06	5.812835e-07	2.894558e-11	4.043386e+00	1.106444e+00
1.980000e-06	6.277409e-07	4.399996e-11	4.366541e+00	2.154600e+00
1.990000e-06	6.741867e-07	6.059060e-11	4.689617e+00	3.209176e+00
2.000000e-06	7.205251e-07	7.714742e-11	5.011945e+00	4.268917e+00
2.010000e-06	7.668230e-07	9.310745e-11	5.333991e+00	5.332526e+00
2.020000e-06	8.131476e-07	1.080307e-10	5.656223e+00	6.398674e+00
2.030000e-06	8.594538e-07	1.214348e-10	5.978327e+00	7.466003e+00
2.040000e-06	9.056787e-07	1.343597e-10	6.299866e+00	8.533136e+00
2.050000e-06	9.518125e-07	1.471612e-10	6.620771e+00	9.598683e+00
2.060000e-06	9.979105e-07	1.609758e-10	6.941427e+00	1.066125e+01
2.070000e-06	1.043919e-06	1.759929e-10	7.261458e+00	1.171945e+01
2.080000e-06	1.089741e-06	1.930442e-10	7.580197e+00	1.277189e+01
2.090000e-06	1.135507e-06	2.102669e-10	7.898546e+00	1.381722e+01
2.100000e-06	1.181253e-06	2.264706e-10	8.216751e+00	1.485411e+01
2.110000e-06	1.226916e-06	2.416791e-10	8.534377e+00	1.588124e+01
2.120000e-06	1.272448e-06	2.547123e-10	8.851102e+00	1.689738e+01
2.130000e-06	1.317867e-06	2.668881e-10	9.167033e+00	1.790129e+01
2.140000e-06	1.363214e-06	2.789868e-10	9.482462e+00	1.889184e+01
2.150000e-06	1.408498e-06	2.918209e-10	9.797458e+00	1.986791e+01
2.160000e-06	1.453672e-06	3.051917e-10	1.011168e+01	2.082849e+01
2.170000e-06	1.498759e-06	3.189709e-10	1.042531e+01	2.177262e+01
2.180000e-06	1.543787e-06	3.321879e-10	1.073852e+01	2.269941e+01
2.190000e-06	1.588647e-06	3.444322e-10	1.105056e+01	2.360807e+01
2.200000e-06	1.633325e-06	3.566539e-10	1.136134e+01	2.449788e+01
2.210000e-06	1.677803e-06	3.689472e-10	1.167073e+01	2.536821e+01
2.220000e-06	1.722159e-06	3.821576e-10	1.197927e+01	2.621852e+01
2.230000e-06	1.766439e-06	3.956212e-10	1.228728e+01	2.704835e+01
2.240000e-06	1.810614e-06	4.063365e-10	1.259456e+01	2.785735e+01
2.250000e-06	1.854669e-06	4.149766e-10	1.290101e+01	2.864523e+01
2.260000e-06	1.898585e-06	4.226972e-10	1.320649e+01	2.941183e+01
2.270000e-06	1.942478e-06	4.317819e-10	1.351180e+01	3.015704e+01
2.280000e-06	1.986361e-06	4.407168e-10	1.381705e+01	3.088085e+01
2.290000e-06	2.030174e-06	4.511848e-10	1.412181e+01	3.158336e+01
2.300000e-06	2.073935e-06	4.609886e-10	1.442621e+01	3.226470e+01
2.310000e-06	2.117636e-06	4.707674e-10	1.473019e+01	3.292512e+01
2.320000e-06	2.161226e-06	4.806388e-10	1.503341e+01	3.356493e+01
2.330000e-06	2.204694e-06	4.883624e-10	1.533577e+01	3.418449e+01
2.340000e-06	2.248062e-06	4.941948e-10	1.563744e+01	3.478425e+01
2.350000e-06	2.291263e-06	5.007671e-10	1.593793e+01	3.536470e+01
2.360000e-06	2.334228e-06	5.085509e-10	1.623680e+01	3.592639e+01
2.370000e-06	2.376901e-06	5.178744e-10	1.653363e+01	3.646991e+01
2.380000e-06	2.419249e-06	5.268874e-10	1.682820e+01	3.699590e+01
2.390000e-06	2.461320e-06	5.346879e-10	1.712085e+01	3.750502e+01
2.400000e-06	2.503022e-06	5.415225e-10	1.741093e+01	3.799797e+01
2.410000e-06	2.544344e-06	5.477620e-10	1.769836e+01	3.847546e+01
2.420000e-06	2.585333e-06	5.549736e-10	1.798348e+01	3.893821e+01
2.430000e-06	2.626023e-06	5.624478e-10	1.826651e+01	3.938697e+01
2.440000e-06	2.666469e-06	5.709387e-10	1.854786e+01	3.982247e+01
2.450000e-06	2.706712e-06	5.779661e-10	1.882779e+01	4.024544e+01
2.460000e-06	2.746902e-06	5.842688e-10	1.910734e+01	4.065662e+01
2.470000e-06	2.787036e-06	5.914152e-10	1.938651e+01	4.105670e+01
2.480000e-06	2.826994e-06	5.982850e-10	1.966446e+01	4.144638e+01
2.490000e-06	2.866765e-06	6.044872e-10	1.994110e+01	4.182633e+01
2.500000e-06	2.906413e-06	6.119383e-10	2.021689e+01	4.219718e+01
2.510000e-06	2.945954e-06	6.186501e-10	2.049194e+01	4.255953e+01
2.520000e-06	2.985279e-06	6.238935e-10	2.076549e+01	4.291396e+01
2.530000e-06	3.024430e-06	6.292874e-10	2.103782e+01	4.326098e+01
2.540000e-06	3.063394e-06	6.357220e-10	2.130885e+01	4.360110e+01
2.550000e-06	3.102109e-06	6.398540e-10	2.157815e+01	4.393476e+01
2.560000e-06	3.140533e-06	6.438962e-10	2.184543e+01	4.426235e+01
2.570000e-06	3.178675e-06	6.506111e-10	2.211074e+01	4.458424e+01
2.580000e-06	3.216705e-06	6.568956e-10	2.237528e+01	4.490073e+01
2.590000e-06	3.254660e-06	6.612963e-10	2.263929e+01	4.521210e+01
2.600000e-06	3.292418e-06	6.655210e-10	2.290193e+01	4.551856e+01
2.610000e-06	3.329877e-06	6.707268e-10	2.316250e+01	4.582030e+01
2.620000e-06	3.367068e-06	6.764579e-10	2.342119e+01	4.611746e+01
2.630000e-06	3.403981e-06	6.837374e-10	2.367796e+01	4.641011e+01
2.640000e-06	3.440563e-06	6.901682e-10	2.393243e+01	4.669834e+01
2.650000e-06	3.476884e-06	6.918363e-10	2.418507e+01	4.698215e+01
2.660000e-06	3.513038e-06	6.915217e-10	2.443656e+01	4.726155e+01
2.670000e-06	3.549063e-06	6.920839e-10	2.468714e+01	4.753648e+01
2.680000e-06	3.584948e-06	6.944608e-10	2.493676e+01	4.780689e+01
2.690000e-06	3.620677e-06	6.997443e-10	2.518529e+01	4.807268e+01
2.700000e-06	3.656243e-06	7.062643e-10	2.543269e+01	4.833375e+01
2.710000e-06	3.691653e-06	7.109695e-10	2.567899e+01	4.858996e+01
2.720000e-06	3.726854e-06	7.150075e-10	2.592385e+01	4.884119e+01
2.730000e-06	3.761678e-06	7.206550e-10	2.616609e+01	4.908728e+01
2.740000e-06	3.796101e-06	7.238476e-10	2.640553e+01	4.932808e+01
2.750000e-06	3.830081e-06	7.238730e-10	2.664190e+01	4.956343e+01
2.760000e-06	3.863495e-06	7.240910e-10	2.687432e+01	4.979318e+01
2.770000e-06	3.896341e-06	7.252656e-10	2.710280e+01	5.001718e+01
2.780000e-06	3.928765e-06	7.279963e-10	2.732834e+01	5.023529e+01
2.790000e-06	3.960928e-06	7.344424e-10	2.755206e+01	5.044736e+01
2.800000e-06	3.992938e-06	7.417954e-10	2.777473e+01	5.065329e+01
2.810000e-06	4.024842e-06	7.469274e-10	2.799665e+01	5.085296e+01
2.820000e-06	4.056588e-06	7.504349e-10	2.821747e+01	5.104627e+01
2.830000e-06	4.088080e-06	7.520866e-10	2.843653e+01	5.123316e+01
2.840000e-06	4.119352e-06	7.506532e-10	2.865405e+01	5.141358e+01
2.850000e-06	4.150449e-06	7.499119e-10	2.887036e+01	5.158749e+01
2.860000e-06	4.181258e-06	7.524856e-10	2.908467e+01	5.175487e+01
2.870000e-06	4.211662e-06	7.550510e-10	2.929616e+01	5.191574e+01
2.880000e-06	4.241702e-06	7.565260e-10	2.950511e+01	5.207013e+01
2.890000e-06	4.271516e-06	7.604561e-10	2.971250e+01	5.221810e+01
2.900000e-06	4.301135e-06	7.649266e-10	2.991853e+01	5.235971e+01
