# Temperatura_=_-0.38
# Concentracion g/m^3_=_1620.0
# C_Vs_to_Am_M_A/Vsm_=_65563218390.804596
# pendiente_HvsI_1/m_=_3716.3
# ordenada_HvsI_A/m_=_1297.0
# frecuencia_Hz_=_135091.93607670025

Tiempo_(s)	Campo_(V.s)	Magnetizacion_(V.s)	Campo_(kA/m)	Magnetizacion_(A/m)
0.000000e+00	-5.515484e-06	-1.404224e-09	-3.837305e+01	-9.027326e+01
1.000000e-08	-5.515691e-06	-1.405403e-09	-3.837449e+01	-9.027381e+01
2.000000e-08	-5.515675e-06	-1.406378e-09	-3.837438e+01	-9.027269e+01
3.000000e-08	-5.515321e-06	-1.405377e-09	-3.837191e+01	-9.026992e+01
4.000000e-08	-5.514416e-06	-1.399563e-09	-3.836561e+01	-9.026552e+01
5.000000e-08	-5.513042e-06	-1.393097e-09	-3.835606e+01	-9.025949e+01
6.000000e-08	-5.511082e-06	-1.391184e-09	-3.834242e+01	-9.025181e+01
7.000000e-08	-5.508442e-06	-1.371624e-09	-3.832405e+01	-9.024246e+01
8.000000e-08	-5.505361e-06	-1.364397e-09	-3.830262e+01	-9.023140e+01
9.000000e-08	-5.501838e-06	-1.409963e-09	-3.827811e+01	-9.021857e+01
1.000000e-07	-5.497811e-06	-1.440503e-09	-3.825009e+01	-9.020391e+01
1.100000e-07	-5.493355e-06	-1.349069e-09	-3.821909e+01	-9.018733e+01
1.200000e-07	-5.488859e-06	-1.343585e-09	-3.818781e+01	-9.016876e+01
1.300000e-07	-5.484182e-06	-1.372793e-09	-3.815527e+01	-9.014810e+01
1.400000e-07	-5.479042e-06	-1.424821e-09	-3.811951e+01	-9.012526e+01
1.500000e-07	-5.473572e-06	-1.333204e-09	-3.808145e+01	-9.010012e+01
1.600000e-07	-5.467752e-06	-1.303267e-09	-3.804096e+01	-9.007258e+01
1.700000e-07	-5.461532e-06	-1.386650e-09	-3.799769e+01	-9.004253e+01
1.800000e-07	-5.454845e-06	-1.434036e-09	-3.795116e+01	-9.000987e+01
1.900000e-07	-5.447751e-06	-1.399271e-09	-3.790181e+01	-8.997447e+01
2.000000e-07	-5.440399e-06	-1.349283e-09	-3.785066e+01	-8.993623e+01
2.100000e-07	-5.432714e-06	-1.411027e-09	-3.779719e+01	-8.989506e+01
2.200000e-07	-5.424664e-06	-1.437899e-09	-3.774118e+01	-8.985085e+01
2.300000e-07	-5.416395e-06	-1.422507e-09	-3.768365e+01	-8.980350e+01
2.400000e-07	-5.407831e-06	-1.373626e-09	-3.762407e+01	-8.975293e+01
2.500000e-07	-5.398683e-06	-1.418198e-09	-3.756042e+01	-8.969905e+01
2.600000e-07	-5.388858e-06	-1.425893e-09	-3.749207e+01	-8.964180e+01
2.700000e-07	-5.378468e-06	-1.413062e-09	-3.741978e+01	-8.958111e+01
2.800000e-07	-5.367497e-06	-1.369476e-09	-3.734345e+01	-8.951693e+01
2.900000e-07	-5.355980e-06	-1.402896e-09	-3.726333e+01	-8.944919e+01
3.000000e-07	-5.344041e-06	-1.413289e-09	-3.718027e+01	-8.937787e+01
3.100000e-07	-5.331776e-06	-1.403911e-09	-3.709493e+01	-8.930294e+01
3.200000e-07	-5.319088e-06	-1.364651e-09	-3.700666e+01	-8.922436e+01
3.300000e-07	-5.305949e-06	-1.389756e-09	-3.691524e+01	-8.914213e+01
3.400000e-07	-5.292503e-06	-1.402068e-09	-3.682170e+01	-8.905623e+01
3.500000e-07	-5.278721e-06	-1.372236e-09	-3.672581e+01	-8.896665e+01
3.600000e-07	-5.264493e-06	-1.348248e-09	-3.662682e+01	-8.887341e+01
3.700000e-07	-5.249914e-06	-1.399430e-09	-3.652539e+01	-8.877651e+01
3.800000e-07	-5.234818e-06	-1.399550e-09	-3.642036e+01	-8.867595e+01
3.900000e-07	-5.218976e-06	-1.342692e-09	-3.631014e+01	-8.857176e+01
4.000000e-07	-5.202634e-06	-1.369681e-09	-3.619645e+01	-8.846393e+01
4.100000e-07	-5.185960e-06	-1.406808e-09	-3.608044e+01	-8.835249e+01
4.200000e-07	-5.168889e-06	-1.346587e-09	-3.596167e+01	-8.823746e+01
4.300000e-07	-5.151464e-06	-1.320929e-09	-3.584044e+01	-8.811883e+01
4.400000e-07	-5.133811e-06	-1.411394e-09	-3.571762e+01	-8.799663e+01
4.500000e-07	-5.115826e-06	-1.379578e-09	-3.559250e+01	-8.787085e+01
4.600000e-07	-5.097355e-06	-1.300640e-09	-3.546399e+01	-8.774150e+01
4.700000e-07	-5.078547e-06	-1.349407e-09	-3.533313e+01	-8.760857e+01
4.800000e-07	-5.059419e-06	-1.394157e-09	-3.520005e+01	-8.747206e+01
4.900000e-07	-5.039944e-06	-1.302239e-09	-3.506456e+01	-8.733195e+01
5.000000e-07	-5.020244e-06	-1.325230e-09	-3.492750e+01	-8.718822e+01
5.100000e-07	-5.000300e-06	-1.389852e-09	-3.478874e+01	-8.704083e+01
5.200000e-07	-4.980038e-06	-1.326513e-09	-3.464777e+01	-8.688976e+01
5.300000e-07	-4.959406e-06	-1.281449e-09	-3.450423e+01	-8.673496e+01
5.400000e-07	-4.938482e-06	-1.369646e-09	-3.435866e+01	-8.657638e+01
5.500000e-07	-4.917215e-06	-1.335388e-09	-3.421069e+01	-8.641397e+01
5.600000e-07	-4.895499e-06	-1.262179e-09	-3.405961e+01	-8.624767e+01
5.700000e-07	-4.873426e-06	-1.319692e-09	-3.390604e+01	-8.607741e+01
5.800000e-07	-4.851213e-06	-1.355084e-09	-3.375149e+01	-8.590312e+01
5.900000e-07	-4.828643e-06	-1.278263e-09	-3.359447e+01	-8.572473e+01
6.000000e-07	-4.805687e-06	-1.298901e-09	-3.343476e+01	-8.554217e+01
6.100000e-07	-4.782561e-06	-1.336986e-09	-3.327386e+01	-8.535535e+01
6.200000e-07	-4.759077e-06	-1.276841e-09	-3.311047e+01	-8.516421e+01
6.300000e-07	-4.735296e-06	-1.252414e-09	-3.294502e+01	-8.496866e+01
6.400000e-07	-4.711330e-06	-1.301160e-09	-3.277828e+01	-8.476864e+01
6.500000e-07	-4.687038e-06	-1.281841e-09	-3.260927e+01	-8.456408e+01
6.600000e-07	-4.662377e-06	-1.258429e-09	-3.243770e+01	-8.435490e+01
6.700000e-07	-4.637263e-06	-1.295753e-09	-3.226297e+01	-8.414107e+01
6.800000e-07	-4.611475e-06	-1.286869e-09	-3.208356e+01	-8.392252e+01
6.900000e-07	-4.585123e-06	-1.247576e-09	-3.190022e+01	-8.369922e+01
7.000000e-07	-4.558428e-06	-1.258451e-09	-3.171449e+01	-8.347114e+01
7.100000e-07	-4.531419e-06	-1.265770e-09	-3.152658e+01	-8.323826e+01
7.200000e-07	-4.504008e-06	-1.238650e-09	-3.133587e+01	-8.300057e+01
7.300000e-07	-4.476290e-06	-1.248789e-09	-3.114303e+01	-8.275807e+01
7.400000e-07	-4.448459e-06	-1.262924e-09	-3.094940e+01	-8.251080e+01
7.500000e-07	-4.420396e-06	-1.249657e-09	-3.075416e+01	-8.225877e+01
7.600000e-07	-4.392084e-06	-1.240231e-09	-3.055718e+01	-8.200204e+01
7.700000e-07	-4.363519e-06	-1.247250e-09	-3.035845e+01	-8.174068e+01
7.800000e-07	-4.334574e-06	-1.226932e-09	-3.015707e+01	-8.147474e+01
7.900000e-07	-4.305308e-06	-1.218284e-09	-2.995345e+01	-8.120432e+01
8.000000e-07	-4.275779e-06	-1.225668e-09	-2.974801e+01	-8.092953e+01
8.100000e-07	-4.245943e-06	-1.225829e-09	-2.954043e+01	-8.065048e+01
8.200000e-07	-4.215836e-06	-1.213182e-09	-2.933097e+01	-8.036728e+01
8.300000e-07	-4.185421e-06	-1.224371e-09	-2.911936e+01	-8.008009e+01
8.400000e-07	-4.154726e-06	-1.220414e-09	-2.890580e+01	-7.978904e+01
8.500000e-07	-4.123863e-06	-1.202747e-09	-2.869108e+01	-7.949428e+01
8.600000e-07	-4.092741e-06	-1.196393e-09	-2.847456e+01	-7.919596e+01
8.700000e-07	-4.061270e-06	-1.196629e-09	-2.825560e+01	-7.889427e+01
8.800000e-07	-4.029532e-06	-1.180746e-09	-2.803479e+01	-7.858934e+01
8.900000e-07	-3.997652e-06	-1.178833e-09	-2.781299e+01	-7.828135e+01
9.000000e-07	-3.965588e-06	-1.184482e-09	-2.758991e+01	-7.797045e+01
9.100000e-07	-3.933266e-06	-1.176203e-09	-2.736503e+01	-7.765681e+01
9.200000e-07	-3.900639e-06	-1.165729e-09	-2.713804e+01	-7.734057e+01
9.300000e-07	-3.867588e-06	-1.170937e-09	-2.690809e+01	-7.702187e+01
9.400000e-07	-3.834109e-06	-1.164392e-09	-2.667517e+01	-7.670084e+01
9.500000e-07	-3.800226e-06	-1.148874e-09	-2.643943e+01	-7.637760e+01
9.600000e-07	-3.765939e-06	-1.148051e-09	-2.620089e+01	-7.605224e+01
9.700000e-07	-3.731253e-06	-1.148030e-09	-2.595956e+01	-7.572485e+01
9.800000e-07	-3.696186e-06	-1.135574e-09	-2.571559e+01	-7.539549e+01
9.900000e-07	-3.660803e-06	-1.130169e-09	-2.546942e+01	-7.506421e+01
1.000000e-06	-3.625221e-06	-1.136055e-09	-2.522186e+01	-7.473102e+01
1.010000e-06	-3.589530e-06	-1.127257e-09	-2.497355e+01	-7.439592e+01
1.020000e-06	-3.553661e-06	-1.118722e-09	-2.472399e+01	-7.405888e+01
1.030000e-06	-3.517612e-06	-1.116599e-09	-2.447319e+01	-7.371985e+01
1.040000e-06	-3.481411e-06	-1.108357e-09	-2.422133e+01	-7.337874e+01
1.050000e-06	-3.445064e-06	-1.094564e-09	-2.396845e+01	-7.303544e+01
1.060000e-06	-3.408411e-06	-1.089018e-09	-2.371344e+01	-7.268983e+01
1.070000e-06	-3.371412e-06	-1.084168e-09	-2.345603e+01	-7.234173e+01
1.080000e-06	-3.334137e-06	-1.078633e-09	-2.319670e+01	-7.199095e+01
1.090000e-06	-3.296657e-06	-1.075829e-09	-2.293593e+01	-7.163729e+01
1.100000e-06	-3.259008e-06	-1.073914e-09	-2.267400e+01	-7.128050e+01
1.110000e-06	-3.221106e-06	-1.060006e-09	-2.241030e+01	-7.092031e+01
1.120000e-06	-3.182914e-06	-1.047663e-09	-2.214458e+01	-7.055644e+01
1.130000e-06	-3.144525e-06	-1.039930e-09	-2.187750e+01	-7.018858e+01
1.140000e-06	-3.106024e-06	-1.034715e-09	-2.160964e+01	-6.981640e+01
1.150000e-06	-3.067384e-06	-1.026832e-09	-2.134081e+01	-6.943957e+01
1.160000e-06	-3.028512e-06	-1.024844e-09	-2.107036e+01	-6.905771e+01
1.170000e-06	-2.989358e-06	-1.019378e-09	-2.079795e+01	-6.867047e+01
1.180000e-06	-2.950019e-06	-1.010679e-09	-2.052426e+01	-6.827747e+01
1.190000e-06	-2.910516e-06	-1.001591e-09	-2.024942e+01	-6.787831e+01
1.200000e-06	-2.870868e-06	-9.931193e-10	-1.997358e+01	-6.747260e+01
1.210000e-06	-2.831052e-06	-9.827909e-10	-1.969657e+01	-6.705996e+01
1.220000e-06	-2.791028e-06	-9.744088e-10	-1.941811e+01	-6.663999e+01
1.230000e-06	-2.750907e-06	-9.688019e-10	-1.913897e+01	-6.621231e+01
1.240000e-06	-2.710705e-06	-9.644339e-10	-1.885927e+01	-6.577653e+01
1.250000e-06	-2.670329e-06	-9.571269e-10	-1.857836e+01	-6.533228e+01
1.260000e-06	-2.629697e-06	-9.497833e-10	-1.829567e+01	-6.487921e+01
1.270000e-06	-2.588792e-06	-9.412924e-10	-1.801108e+01	-6.441696e+01
1.280000e-06	-2.547675e-06	-9.302530e-10	-1.772502e+01	-6.394521e+01
1.290000e-06	-2.506285e-06	-9.186641e-10	-1.743706e+01	-6.346364e+01
1.300000e-06	-2.464655e-06	-9.078255e-10	-1.714742e+01	-6.297195e+01
1.310000e-06	-2.422852e-06	-8.997892e-10	-1.685658e+01	-6.246988e+01
1.320000e-06	-2.380707e-06	-8.932112e-10	-1.656337e+01	-6.195716e+01
1.330000e-06	-2.338103e-06	-8.870597e-10	-1.626695e+01	-6.143358e+01
1.340000e-06	-2.295197e-06	-8.806514e-10	-1.596845e+01	-6.089891e+01
1.350000e-06	-2.252050e-06	-8.724400e-10	-1.566826e+01	-6.035298e+01
1.360000e-06	-2.208654e-06	-8.593616e-10	-1.536634e+01	-5.979562e+01
1.370000e-06	-2.165166e-06	-8.462596e-10	-1.506377e+01	-5.922670e+01
1.380000e-06	-2.121623e-06	-8.346102e-10	-1.476083e+01	-5.864609e+01
1.390000e-06	-2.077942e-06	-8.267920e-10	-1.445693e+01	-5.805370e+01
1.400000e-06	-2.034138e-06	-8.206016e-10	-1.415217e+01	-5.744944e+01
1.410000e-06	-1.990271e-06	-8.171928e-10	-1.384697e+01	-5.683326e+01
1.420000e-06	-1.946340e-06	-8.107682e-10	-1.354133e+01	-5.620512e+01
1.430000e-06	-1.902328e-06	-8.012930e-10	-1.323513e+01	-5.556497e+01
1.440000e-06	-1.858279e-06	-7.887246e-10	-1.292866e+01	-5.491280e+01
1.450000e-06	-1.814204e-06	-7.757552e-10	-1.262202e+01	-5.424860e+01
1.460000e-06	-1.769955e-06	-7.609714e-10	-1.231416e+01	-5.357237e+01
1.470000e-06	-1.725517e-06	-7.499647e-10	-1.200499e+01	-5.288410e+01
1.480000e-06	-1.680931e-06	-7.410424e-10	-1.169480e+01	-5.218379e+01
1.490000e-06	-1.636204e-06	-7.314921e-10	-1.138361e+01	-5.147145e+01
1.500000e-06	-1.591446e-06	-7.212527e-10	-1.107222e+01	-5.074707e+01
1.510000e-06	-1.546582e-06	-7.111761e-10	-1.076008e+01	-5.001064e+01
1.520000e-06	-1.501548e-06	-6.985772e-10	-1.044676e+01	-4.926213e+01
1.530000e-06	-1.456334e-06	-6.820656e-10	-1.013220e+01	-4.850152e+01
1.540000e-06	-1.411015e-06	-6.654427e-10	-9.816900e+00	-4.772877e+01
1.550000e-06	-1.365648e-06	-6.526473e-10	-9.501267e+00	-4.694380e+01
1.560000e-06	-1.320107e-06	-6.412490e-10	-9.184422e+00	-4.614654e+01
1.570000e-06	-1.274472e-06	-6.303888e-10	-8.866924e+00	-4.533690e+01
1.580000e-06	-1.228786e-06	-6.185641e-10	-8.549072e+00	-4.451475e+01
1.590000e-06	-1.183016e-06	-6.050022e-10	-8.230633e+00	-4.367995e+01
1.600000e-06	-1.137252e-06	-5.895758e-10	-7.912240e+00	-4.283236e+01
1.610000e-06	-1.091457e-06	-5.751330e-10	-7.593631e+00	-4.197177e+01
1.620000e-06	-1.045535e-06	-5.627233e-10	-7.274136e+00	-4.109800e+01
1.630000e-06	-9.995071e-07	-5.501023e-10	-6.953902e+00	-4.021082e+01
1.640000e-06	-9.533554e-07	-5.365265e-10	-6.632809e+00	-3.930999e+01
1.650000e-06	-9.071557e-07	-5.208323e-10	-6.311383e+00	-3.839524e+01
1.660000e-06	-8.608588e-07	-5.058949e-10	-5.989280e+00	-3.746631e+01
1.670000e-06	-8.144953e-07	-4.893940e-10	-5.666713e+00	-3.652290e+01
1.680000e-06	-7.682116e-07	-4.737109e-10	-5.344703e+00	-3.556472e+01
1.690000e-06	-7.219155e-07	-4.583787e-10	-5.022605e+00	-3.459145e+01
1.700000e-06	-6.755650e-07	-4.442259e-10	-4.700129e+00	-3.360280e+01
1.710000e-06	-6.290709e-07	-4.290643e-10	-4.376654e+00	-3.259844e+01
1.720000e-06	-5.824675e-07	-4.145182e-10	-4.052419e+00	-3.157807e+01
1.730000e-06	-5.358559e-07	-4.001942e-10	-3.728127e+00	-3.054139e+01
1.740000e-06	-4.892840e-07	-3.845641e-10	-3.404111e+00	-2.948812e+01
1.750000e-06	-4.426161e-07	-3.657817e-10	-3.079427e+00	-2.841799e+01
1.760000e-06	-3.958851e-07	-3.469050e-10	-2.754303e+00	-2.733076e+01
1.770000e-06	-3.491752e-07	-3.290033e-10	-2.429327e+00	-2.622619e+01
1.780000e-06	-3.023716e-07	-3.122557e-10	-2.103700e+00	-2.510411e+01
1.790000e-06	-2.556084e-07	-2.962771e-10	-1.778353e+00	-2.396437e+01
1.800000e-06	-2.088055e-07	-2.784926e-10	-1.452729e+00	-2.280685e+01
1.810000e-06	-1.620474e-07	-2.588010e-10	-1.127417e+00	-2.163150e+01
1.820000e-06	-1.154076e-07	-2.398186e-10	-8.029286e-01	-2.043829e+01
1.830000e-06	-6.864989e-08	-2.231036e-10	-4.776200e-01	-1.922728e+01
1.840000e-06	-2.187214e-08	-2.051023e-10	-1.521717e-01	-1.799857e+01
1.850000e-06	2.473816e-08	-1.859707e-10	1.721116e-01	-1.675231e+01
1.860000e-06	7.135946e-08	-1.695840e-10	4.964714e-01	-1.548874e+01
1.870000e-06	1.181734e-07	-1.514247e-10	8.221717e-01	-1.420815e+01
1.880000e-06	1.649866e-07	-1.317492e-10	1.147867e+00	-1.291091e+01
1.890000e-06	2.117257e-07	-1.131902e-10	1.473046e+00	-1.159746e+01
1.900000e-06	2.584177e-07	-9.557496e-11	1.797898e+00	-1.026831e+01
1.910000e-06	3.051069e-07	-7.880496e-11	2.122730e+00	-8.924048e+00
1.920000e-06	3.517556e-07	-6.074277e-11	2.447280e+00	-7.565334e+00
1.930000e-06	3.982478e-07	-4.297533e-11	2.770742e+00	-6.192903e+00
1.940000e-06	4.448183e-07	-2.443680e-11	3.094748e+00	-4.807559e+00
1.950000e-06	4.914602e-07	-8.903335e-12	3.419251e+00	-3.410181e+00
1.960000e-06	5.379232e-07	7.231910e-12	3.742510e+00	-2.001714e+00
1.970000e-06	5.843357e-07	2.650577e-11	4.065417e+00	-5.831691e-01
1.980000e-06	6.307432e-07	4.639885e-11	4.388289e+00	8.443799e-01
1.990000e-06	6.770835e-07	6.746497e-11	4.710694e+00	2.279802e+00
2.000000e-06	7.234413e-07	9.060427e-11	5.033221e+00	3.721912e+00
2.010000e-06	7.698394e-07	1.129003e-10	5.356028e+00	5.169477e+00
2.020000e-06	8.160615e-07	1.324279e-10	5.677610e+00	6.621220e+00
2.030000e-06	8.621009e-07	1.497324e-10	5.997921e+00	8.075829e+00
2.040000e-06	9.081836e-07	1.684583e-10	6.318534e+00	9.531959e+00
2.050000e-06	9.542087e-07	1.873125e-10	6.638746e+00	1.098824e+01
2.060000e-06	1.000117e-06	2.066286e-10	6.958145e+00	1.244329e+01
2.070000e-06	1.045989e-06	2.282111e-10	7.277290e+00	1.389572e+01
2.080000e-06	1.091835e-06	2.514030e-10	7.596261e+00	1.534412e+01
2.090000e-06	1.137666e-06	2.735874e-10	7.915116e+00	1.678710e+01
2.100000e-06	1.183491e-06	2.932504e-10	8.233940e+00	1.822328e+01
2.110000e-06	1.229186e-06	3.109487e-10	8.551853e+00	1.965130e+01
2.120000e-06	1.274699e-06	3.274355e-10	8.868501e+00	2.106982e+01
2.130000e-06	1.320117e-06	3.453002e-10	9.184489e+00	2.247753e+01
2.140000e-06	1.365421e-06	3.642379e-10	9.499689e+00	2.387319e+01
2.150000e-06	1.410699e-06	3.819863e-10	9.814702e+00	2.525556e+01
2.160000e-06	1.455923e-06	4.010157e-10	1.012934e+01	2.662349e+01
2.170000e-06	1.500920e-06	4.219541e-10	1.044240e+01	2.797587e+01
2.180000e-06	1.545786e-06	4.417041e-10	1.075454e+01	2.931166e+01
2.190000e-06	1.590587e-06	4.604541e-10	1.106624e+01	3.062990e+01
2.200000e-06	1.635261e-06	4.775951e-10	1.137705e+01	3.192969e+01
2.210000e-06	1.679862e-06	4.936882e-10	1.168735e+01	3.321020e+01
2.220000e-06	1.724311e-06	5.101202e-10	1.199660e+01	3.447069e+01
2.230000e-06	1.768557e-06	5.260718e-10	1.230443e+01	3.571051e+01
2.240000e-06	1.812717e-06	5.404761e-10	1.261167e+01	3.692909e+01
2.250000e-06	1.856834e-06	5.564512e-10	1.291861e+01	3.812594e+01
2.260000e-06	1.900833e-06	5.721719e-10	1.322473e+01	3.930065e+01
2.270000e-06	1.944718e-06	5.878715e-10	1.353005e+01	4.045292e+01
2.280000e-06	1.988563e-06	6.059697e-10	1.383509e+01	4.158252e+01
2.290000e-06	2.032371e-06	6.212112e-10	1.413988e+01	4.268930e+01
2.300000e-06	2.076165e-06	6.361225e-10	1.444457e+01	4.377321e+01
2.310000e-06	2.119916e-06	6.490663e-10	1.474895e+01	4.483425e+01
2.320000e-06	2.163593e-06	6.584017e-10	1.505283e+01	4.587253e+01
2.330000e-06	2.207140e-06	6.705603e-10	1.535580e+01	4.688822e+01
2.340000e-06	2.250459e-06	6.833873e-10	1.565719e+01	4.788155e+01
2.350000e-06	2.293602e-06	6.975219e-10	1.595735e+01	4.885281e+01
2.360000e-06	2.336539e-06	7.121843e-10	1.625608e+01	4.980238e+01
2.370000e-06	2.379214e-06	7.284514e-10	1.655298e+01	5.073066e+01
2.380000e-06	2.421575e-06	7.417704e-10	1.684770e+01	5.163811e+01
2.390000e-06	2.463587e-06	7.528739e-10	1.713999e+01	5.252524e+01
2.400000e-06	2.505212e-06	7.635309e-10	1.742959e+01	5.339259e+01
2.410000e-06	2.546470e-06	7.759780e-10	1.771664e+01	5.424071e+01
2.420000e-06	2.587567e-06	7.913107e-10	1.800256e+01	5.507021e+01
2.430000e-06	2.628366e-06	8.070355e-10	1.828641e+01	5.588170e+01
2.440000e-06	2.668804e-06	8.213106e-10	1.856775e+01	5.667578e+01
2.450000e-06	2.709010e-06	8.335937e-10	1.884748e+01	5.745309e+01
2.460000e-06	2.749092e-06	8.456528e-10	1.912634e+01	5.821425e+01
2.470000e-06	2.789148e-06	8.553435e-10	1.940503e+01	5.895987e+01
2.480000e-06	2.829100e-06	8.642756e-10	1.968298e+01	5.969056e+01
2.490000e-06	2.868898e-06	8.746933e-10	1.995987e+01	6.040691e+01
2.500000e-06	2.908588e-06	8.873018e-10	2.023601e+01	6.110948e+01
2.510000e-06	2.948096e-06	9.010833e-10	2.051088e+01	6.179882e+01
2.520000e-06	2.987376e-06	9.119438e-10	2.078416e+01	6.247542e+01
2.530000e-06	3.026476e-06	9.226780e-10	2.105619e+01	6.313978e+01
2.540000e-06	3.065355e-06	9.324892e-10	2.132669e+01	6.379232e+01
2.550000e-06	3.103967e-06	9.383603e-10	2.159533e+01	6.443346e+01
2.560000e-06	3.142329e-06	9.440290e-10	2.186223e+01	6.506356e+01
2.570000e-06	3.180465e-06	9.524010e-10	2.212755e+01	6.568293e+01
2.580000e-06	3.218479e-06	9.630911e-10	2.239202e+01	6.629187e+01
2.590000e-06	3.256347e-06	9.726952e-10	2.265548e+01	6.689060e+01
2.600000e-06	3.293983e-06	9.824273e-10	2.291733e+01	6.747934e+01
2.610000e-06	3.331427e-06	9.922383e-10	2.317784e+01	6.805822e+01
2.620000e-06	3.368586e-06	1.000934e-09	2.343637e+01	6.862738e+01
2.630000e-06	3.405378e-06	1.007842e-09	2.369234e+01	6.918689e+01
2.640000e-06	3.441846e-06	1.016319e-09	2.394606e+01	6.973680e+01
2.650000e-06	3.478092e-06	1.023716e-09	2.419824e+01	7.027711e+01
2.660000e-06	3.514183e-06	1.034256e-09	2.444933e+01	7.080783e+01
2.670000e-06	3.550156e-06	1.042964e-09	2.469961e+01	7.132889e+01
2.680000e-06	3.585956e-06	1.048556e-09	2.494868e+01	7.184024e+01
2.690000e-06	3.621616e-06	1.054909e-09	2.519678e+01	7.234178e+01
2.700000e-06	3.657171e-06	1.061022e-09	2.544415e+01	7.283343e+01
2.710000e-06	3.692553e-06	1.068285e-09	2.569031e+01	7.331507e+01
2.720000e-06	3.727716e-06	1.077652e-09	2.593496e+01	7.378658e+01
2.730000e-06	3.762526e-06	1.090117e-09	2.617714e+01	7.424784e+01
2.740000e-06	3.796894e-06	1.098312e-09	2.641625e+01	7.469874e+01
2.750000e-06	3.830734e-06	1.103371e-09	2.665169e+01	7.513915e+01
2.760000e-06	3.864131e-06	1.107188e-09	2.688404e+01	7.556897e+01
2.770000e-06	3.897176e-06	1.111960e-09	2.711394e+01	7.598811e+01
2.780000e-06	3.929823e-06	1.117553e-09	2.734108e+01	7.639649e+01
2.790000e-06	3.962150e-06	1.124372e-09	2.756599e+01	7.679406e+01
2.800000e-06	3.994204e-06	1.134403e-09	2.778900e+01	7.718077e+01
2.810000e-06	4.026053e-06	1.144236e-09	2.801058e+01	7.755662e+01
2.820000e-06	4.057773e-06	1.151668e-09	2.823127e+01	7.792163e+01
2.830000e-06	4.089350e-06	1.154998e-09	2.845096e+01	7.827583e+01
2.840000e-06	4.120659e-06	1.152776e-09	2.866879e+01	7.861930e+01
2.850000e-06	4.151663e-06	1.151136e-09	2.888450e+01	7.895216e+01
2.860000e-06	4.182326e-06	1.153329e-09	2.909783e+01	7.927452e+01
2.870000e-06	4.212686e-06	1.158377e-09	2.930905e+01	7.958657e+01
2.880000e-06	4.242771e-06	1.164795e-09	2.951836e+01	7.988851e+01
2.890000e-06	4.272574e-06	1.177014e-09	2.972571e+01	8.018056e+01
2.900000e-06	4.302122e-06	1.187704e-09	2.993129e+01	8.046300e+01
