# Temperatura_=_-5.34
# Concentracion g/m^3_=_1620.0
# C_Vs_to_Am_M_A/Vsm_=_65563218390.804596
# pendiente_HvsI_1/m_=_3716.3
# ordenada_HvsI_A/m_=_1297.0
# frecuencia_Hz_=_135095.99649952314

Tiempo_(s)	Campo_(V.s)	Magnetizacion_(V.s)	Campo_(kA/m)	Magnetizacion_(A/m)
0.000000e+00	-5.534599e-06	-9.711683e-10	-3.837620e+01	-6.409834e+01
1.000000e-08	-5.534740e-06	-9.697609e-10	-3.837717e+01	-6.409458e+01
2.000000e-08	-5.534583e-06	-9.696609e-10	-3.837609e+01	-6.409137e+01
3.000000e-08	-5.533992e-06	-9.685483e-10	-3.837199e+01	-6.408860e+01
4.000000e-08	-5.532906e-06	-9.639678e-10	-3.836446e+01	-6.408614e+01
5.000000e-08	-5.531183e-06	-9.617936e-10	-3.835251e+01	-6.408384e+01
6.000000e-08	-5.528906e-06	-9.714152e-10	-3.833672e+01	-6.408156e+01
7.000000e-08	-5.526158e-06	-9.803158e-10	-3.831766e+01	-6.407914e+01
8.000000e-08	-5.522908e-06	-9.557975e-10	-3.829513e+01	-6.407641e+01
9.000000e-08	-5.519257e-06	-9.283446e-10	-3.826982e+01	-6.407319e+01
1.000000e-07	-5.515231e-06	-9.488257e-10	-3.824190e+01	-6.406932e+01
1.100000e-07	-5.510870e-06	-9.597477e-10	-3.821166e+01	-6.406461e+01
1.200000e-07	-5.506246e-06	-9.604255e-10	-3.817960e+01	-6.405887e+01
1.300000e-07	-5.501285e-06	-9.604951e-10	-3.814520e+01	-6.405193e+01
1.400000e-07	-5.495923e-06	-9.512683e-10	-3.810802e+01	-6.404360e+01
1.500000e-07	-5.490148e-06	-9.482380e-10	-3.806797e+01	-6.403371e+01
1.600000e-07	-5.483989e-06	-9.139073e-10	-3.802527e+01	-6.402207e+01
1.700000e-07	-5.477514e-06	-9.398830e-10	-3.798037e+01	-6.400852e+01
1.800000e-07	-5.470558e-06	-9.611993e-10	-3.793214e+01	-6.399290e+01
1.900000e-07	-5.463174e-06	-9.707162e-10	-3.788094e+01	-6.397505e+01
2.000000e-07	-5.455578e-06	-9.701308e-10	-3.782827e+01	-6.395481e+01
2.100000e-07	-5.447675e-06	-9.734143e-10	-3.777348e+01	-6.393205e+01
2.200000e-07	-5.439516e-06	-9.702250e-10	-3.771690e+01	-6.390663e+01
2.300000e-07	-5.431051e-06	-9.500715e-10	-3.765821e+01	-6.387844e+01
2.400000e-07	-5.422000e-06	-9.504859e-10	-3.759545e+01	-6.384736e+01
2.500000e-07	-5.412239e-06	-9.657809e-10	-3.752777e+01	-6.381330e+01
2.600000e-07	-5.401798e-06	-9.862618e-10	-3.745537e+01	-6.377616e+01
2.700000e-07	-5.390822e-06	-9.639092e-10	-3.737927e+01	-6.373587e+01
2.800000e-07	-5.379449e-06	-9.448890e-10	-3.730041e+01	-6.369236e+01
2.900000e-07	-5.367760e-06	-9.430022e-10	-3.721935e+01	-6.364558e+01
3.000000e-07	-5.355734e-06	-9.647859e-10	-3.713597e+01	-6.359547e+01
3.100000e-07	-5.343308e-06	-9.504264e-10	-3.704981e+01	-6.354201e+01
3.200000e-07	-5.330420e-06	-9.385488e-10	-3.696045e+01	-6.348517e+01
3.300000e-07	-5.317166e-06	-9.432103e-10	-3.686854e+01	-6.342495e+01
3.400000e-07	-5.303540e-06	-9.614447e-10	-3.677406e+01	-6.336132e+01
3.500000e-07	-5.289337e-06	-9.416222e-10	-3.667558e+01	-6.329430e+01
3.600000e-07	-5.274600e-06	-9.179643e-10	-3.657339e+01	-6.322390e+01
3.700000e-07	-5.259461e-06	-9.324728e-10	-3.646843e+01	-6.315014e+01
3.800000e-07	-5.243959e-06	-9.584507e-10	-3.636094e+01	-6.307305e+01
3.900000e-07	-5.227871e-06	-9.398673e-10	-3.624938e+01	-6.299266e+01
4.000000e-07	-5.211276e-06	-9.303191e-10	-3.613431e+01	-6.290900e+01
4.100000e-07	-5.194396e-06	-9.502369e-10	-3.601727e+01	-6.282214e+01
4.200000e-07	-5.177206e-06	-9.379645e-10	-3.589807e+01	-6.273211e+01
4.300000e-07	-5.159675e-06	-9.137723e-10	-3.577652e+01	-6.263897e+01
4.400000e-07	-5.141809e-06	-9.382124e-10	-3.565264e+01	-6.254278e+01
4.500000e-07	-5.123651e-06	-9.458036e-10	-3.552674e+01	-6.244359e+01
4.600000e-07	-5.105066e-06	-9.057845e-10	-3.539787e+01	-6.234148e+01
4.700000e-07	-5.086009e-06	-9.185999e-10	-3.526573e+01	-6.223651e+01
4.800000e-07	-5.066683e-06	-9.456489e-10	-3.513172e+01	-6.212875e+01
4.900000e-07	-5.047171e-06	-9.127172e-10	-3.499643e+01	-6.201826e+01
5.000000e-07	-5.027392e-06	-8.979922e-10	-3.485928e+01	-6.190513e+01
5.100000e-07	-5.007330e-06	-9.431149e-10	-3.472018e+01	-6.178941e+01
5.200000e-07	-4.986946e-06	-9.257725e-10	-3.457884e+01	-6.167119e+01
5.300000e-07	-4.966213e-06	-8.884801e-10	-3.443508e+01	-6.155055e+01
5.400000e-07	-4.945152e-06	-9.197243e-10	-3.428904e+01	-6.142755e+01
5.500000e-07	-4.923776e-06	-9.342257e-10	-3.414083e+01	-6.130228e+01
5.600000e-07	-4.902039e-06	-8.839387e-10	-3.399011e+01	-6.117480e+01
5.700000e-07	-4.879887e-06	-8.954284e-10	-3.383650e+01	-6.104521e+01
5.800000e-07	-4.857490e-06	-9.278646e-10	-3.368121e+01	-6.091357e+01
5.900000e-07	-4.834815e-06	-8.981850e-10	-3.352398e+01	-6.077997e+01
6.000000e-07	-4.811827e-06	-8.851855e-10	-3.336458e+01	-6.064448e+01
6.100000e-07	-4.788581e-06	-9.207993e-10	-3.320340e+01	-6.050719e+01
6.200000e-07	-4.765045e-06	-9.027714e-10	-3.304020e+01	-6.036818e+01
6.300000e-07	-4.741226e-06	-8.754502e-10	-3.287504e+01	-6.022751e+01
6.400000e-07	-4.717064e-06	-8.944881e-10	-3.270751e+01	-6.008529e+01
6.500000e-07	-4.692455e-06	-8.973144e-10	-3.253687e+01	-5.994158e+01
6.600000e-07	-4.667322e-06	-8.731888e-10	-3.236261e+01	-5.979646e+01
6.700000e-07	-4.641763e-06	-8.813007e-10	-3.218539e+01	-5.965002e+01
6.800000e-07	-4.615734e-06	-8.880520e-10	-3.200490e+01	-5.950234e+01
6.900000e-07	-4.589142e-06	-8.729612e-10	-3.182052e+01	-5.935347e+01
7.000000e-07	-4.562127e-06	-8.776469e-10	-3.163320e+01	-5.920352e+01
7.100000e-07	-4.534861e-06	-8.895507e-10	-3.144414e+01	-5.905253e+01
7.200000e-07	-4.507353e-06	-8.781584e-10	-3.125341e+01	-5.890059e+01
7.300000e-07	-4.479603e-06	-8.701565e-10	-3.106099e+01	-5.874776e+01
7.400000e-07	-4.451622e-06	-8.767930e-10	-3.086697e+01	-5.859409e+01
7.500000e-07	-4.423411e-06	-8.722457e-10	-3.067136e+01	-5.843966e+01
7.600000e-07	-4.394888e-06	-8.651785e-10	-3.047358e+01	-5.828449e+01
7.700000e-07	-4.366034e-06	-8.667146e-10	-3.027351e+01	-5.812865e+01
7.800000e-07	-4.336900e-06	-8.644268e-10	-3.007150e+01	-5.797216e+01
7.900000e-07	-4.307401e-06	-8.553847e-10	-2.986696e+01	-5.781505e+01
8.000000e-07	-4.277638e-06	-8.585475e-10	-2.966059e+01	-5.765734e+01
8.100000e-07	-4.247602e-06	-8.615653e-10	-2.945232e+01	-5.749904e+01
8.200000e-07	-4.217160e-06	-8.597508e-10	-2.924124e+01	-5.734015e+01
8.300000e-07	-4.186422e-06	-8.589438e-10	-2.902811e+01	-5.718065e+01
8.400000e-07	-4.155470e-06	-8.593714e-10	-2.881349e+01	-5.702052e+01
8.500000e-07	-4.124264e-06	-8.501914e-10	-2.859712e+01	-5.685972e+01
8.600000e-07	-4.092865e-06	-8.450459e-10	-2.837940e+01	-5.669820e+01
8.700000e-07	-4.061298e-06	-8.428909e-10	-2.816052e+01	-5.653588e+01
8.800000e-07	-4.029590e-06	-8.359090e-10	-2.794066e+01	-5.637270e+01
8.900000e-07	-3.997695e-06	-8.284618e-10	-2.771950e+01	-5.620855e+01
9.000000e-07	-3.965460e-06	-8.312317e-10	-2.749598e+01	-5.604332e+01
9.100000e-07	-3.932819e-06	-8.303712e-10	-2.726966e+01	-5.587689e+01
9.200000e-07	-3.899763e-06	-8.255568e-10	-2.704045e+01	-5.570912e+01
9.300000e-07	-3.866319e-06	-8.242590e-10	-2.680856e+01	-5.553985e+01
9.400000e-07	-3.832514e-06	-8.227964e-10	-2.657416e+01	-5.536890e+01
9.500000e-07	-3.798286e-06	-8.138280e-10	-2.633683e+01	-5.519610e+01
9.600000e-07	-3.763573e-06	-8.103792e-10	-2.609613e+01	-5.502125e+01
9.700000e-07	-3.728568e-06	-8.121817e-10	-2.585341e+01	-5.484414e+01
9.800000e-07	-3.693338e-06	-8.075767e-10	-2.560913e+01	-5.466453e+01
9.900000e-07	-3.657879e-06	-8.035556e-10	-2.536326e+01	-5.448220e+01
1.000000e-06	-3.622263e-06	-8.067507e-10	-2.511631e+01	-5.429690e+01
1.010000e-06	-3.586474e-06	-8.044801e-10	-2.486815e+01	-5.410839e+01
1.020000e-06	-3.550495e-06	-7.965692e-10	-2.461868e+01	-5.391639e+01
1.030000e-06	-3.514366e-06	-7.925616e-10	-2.436816e+01	-5.372064e+01
1.040000e-06	-3.478091e-06	-7.874437e-10	-2.411664e+01	-5.352088e+01
1.050000e-06	-3.441503e-06	-7.784126e-10	-2.386293e+01	-5.331683e+01
1.060000e-06	-3.404591e-06	-7.727523e-10	-2.360699e+01	-5.310823e+01
1.070000e-06	-3.367364e-06	-7.700593e-10	-2.334887e+01	-5.289478e+01
1.080000e-06	-3.329900e-06	-7.640287e-10	-2.308909e+01	-5.267624e+01
1.090000e-06	-3.292252e-06	-7.612997e-10	-2.282805e+01	-5.245233e+01
1.100000e-06	-3.254337e-06	-7.603972e-10	-2.256515e+01	-5.222281e+01
1.110000e-06	-3.216253e-06	-7.556996e-10	-2.230108e+01	-5.198741e+01
1.120000e-06	-3.177971e-06	-7.471595e-10	-2.203564e+01	-5.174590e+01
1.130000e-06	-3.139305e-06	-7.426074e-10	-2.176754e+01	-5.149806e+01
1.140000e-06	-3.100410e-06	-7.386547e-10	-2.149784e+01	-5.124367e+01
1.150000e-06	-3.061441e-06	-7.347761e-10	-2.122764e+01	-5.098254e+01
1.160000e-06	-3.022316e-06	-7.312019e-10	-2.095635e+01	-5.071447e+01
1.170000e-06	-2.983060e-06	-7.282393e-10	-2.068415e+01	-5.043932e+01
1.180000e-06	-2.943625e-06	-7.231507e-10	-2.041072e+01	-5.015693e+01
1.190000e-06	-2.903970e-06	-7.193180e-10	-2.013575e+01	-4.986718e+01
1.200000e-06	-2.864165e-06	-7.185129e-10	-1.985975e+01	-4.956996e+01
1.210000e-06	-2.824230e-06	-7.148458e-10	-1.958284e+01	-4.926518e+01
1.220000e-06	-2.784112e-06	-7.065842e-10	-1.930467e+01	-4.895278e+01
1.230000e-06	-2.743833e-06	-7.002117e-10	-1.902538e+01	-4.863271e+01
1.240000e-06	-2.703394e-06	-6.933905e-10	-1.874498e+01	-4.830495e+01
1.250000e-06	-2.662729e-06	-6.885132e-10	-1.846302e+01	-4.796949e+01
1.260000e-06	-2.621775e-06	-6.874711e-10	-1.817905e+01	-4.762634e+01
1.270000e-06	-2.580510e-06	-6.873102e-10	-1.789292e+01	-4.727554e+01
1.280000e-06	-2.539028e-06	-6.812211e-10	-1.760529e+01	-4.691714e+01
1.290000e-06	-2.497207e-06	-6.719925e-10	-1.731531e+01	-4.655119e+01
1.300000e-06	-2.455034e-06	-6.628729e-10	-1.702289e+01	-4.617777e+01
1.310000e-06	-2.412690e-06	-6.543136e-10	-1.672928e+01	-4.579698e+01
1.320000e-06	-2.370047e-06	-6.478245e-10	-1.643360e+01	-4.540890e+01
1.330000e-06	-2.327063e-06	-6.446033e-10	-1.613555e+01	-4.501365e+01
1.340000e-06	-2.283897e-06	-6.429579e-10	-1.583624e+01	-4.461132e+01
1.350000e-06	-2.240642e-06	-6.361432e-10	-1.553632e+01	-4.420205e+01
1.360000e-06	-2.197231e-06	-6.243881e-10	-1.523532e+01	-4.378593e+01
1.370000e-06	-2.153698e-06	-6.135164e-10	-1.493346e+01	-4.336308e+01
1.380000e-06	-2.110078e-06	-6.049915e-10	-1.463101e+01	-4.293360e+01
1.390000e-06	-2.066388e-06	-5.979790e-10	-1.432807e+01	-4.249759e+01
1.400000e-06	-2.022642e-06	-5.951114e-10	-1.402474e+01	-4.205513e+01
1.410000e-06	-1.978755e-06	-5.919194e-10	-1.372043e+01	-4.160630e+01
1.420000e-06	-1.934743e-06	-5.869525e-10	-1.341526e+01	-4.115115e+01
1.430000e-06	-1.890606e-06	-5.789547e-10	-1.310922e+01	-4.068972e+01
1.440000e-06	-1.846337e-06	-5.708845e-10	-1.280226e+01	-4.022203e+01
1.450000e-06	-1.801935e-06	-5.606536e-10	-1.249438e+01	-3.974807e+01
1.460000e-06	-1.757463e-06	-5.490872e-10	-1.218602e+01	-3.926780e+01
1.470000e-06	-1.712866e-06	-5.388961e-10	-1.187679e+01	-3.878119e+01
1.480000e-06	-1.668024e-06	-5.325441e-10	-1.156586e+01	-3.828813e+01
1.490000e-06	-1.623047e-06	-5.285313e-10	-1.125400e+01	-3.778852e+01
1.500000e-06	-1.577959e-06	-5.231333e-10	-1.094136e+01	-3.728221e+01
1.510000e-06	-1.532758e-06	-5.139514e-10	-1.062795e+01	-3.676904e+01
1.520000e-06	-1.487471e-06	-5.028627e-10	-1.031393e+01	-3.624879e+01
1.530000e-06	-1.442003e-06	-4.899669e-10	-9.998664e+00	-3.572123e+01
1.540000e-06	-1.396416e-06	-4.784584e-10	-9.682565e+00	-3.518611e+01
1.550000e-06	-1.350805e-06	-4.705305e-10	-9.366310e+00	-3.464312e+01
1.560000e-06	-1.305135e-06	-4.645196e-10	-9.049636e+00	-3.409194e+01
1.570000e-06	-1.259412e-06	-4.589118e-10	-8.732597e+00	-3.353223e+01
1.580000e-06	-1.213608e-06	-4.521864e-10	-8.415000e+00	-3.296363e+01
1.590000e-06	-1.167697e-06	-4.445113e-10	-8.096663e+00	-3.238572e+01
1.600000e-06	-1.121759e-06	-4.337092e-10	-7.778134e+00	-3.179811e+01
1.610000e-06	-1.075736e-06	-4.228049e-10	-7.459017e+00	-3.120037e+01
1.620000e-06	-1.029519e-06	-4.124192e-10	-7.138555e+00	-3.059204e+01
1.630000e-06	-9.832876e-07	-4.023800e-10	-6.817989e+00	-2.997269e+01
1.640000e-06	-9.370539e-07	-3.928003e-10	-6.497411e+00	-2.934185e+01
1.650000e-06	-8.907347e-07	-3.817226e-10	-6.176239e+00	-2.869906e+01
1.660000e-06	-8.443551e-07	-3.682539e-10	-5.854649e+00	-2.804387e+01
1.670000e-06	-7.978885e-07	-3.550649e-10	-5.532455e+00	-2.737582e+01
1.680000e-06	-7.513889e-07	-3.426136e-10	-5.210033e+00	-2.669447e+01
1.690000e-06	-7.048663e-07	-3.333965e-10	-4.887452e+00	-2.599940e+01
1.700000e-06	-6.582658e-07	-3.246734e-10	-4.564330e+00	-2.529019e+01
1.710000e-06	-6.115433e-07	-3.138744e-10	-4.240362e+00	-2.456648e+01
1.720000e-06	-5.647547e-07	-3.018605e-10	-3.915936e+00	-2.382789e+01
1.730000e-06	-5.180619e-07	-2.883657e-10	-3.592174e+00	-2.307412e+01
1.740000e-06	-4.713608e-07	-2.746299e-10	-3.268355e+00	-2.230487e+01
1.750000e-06	-4.246053e-07	-2.608524e-10	-2.944158e+00	-2.151990e+01
1.760000e-06	-3.778147e-07	-2.493002e-10	-2.619718e+00	-2.071901e+01
1.770000e-06	-3.309531e-07	-2.393340e-10	-2.294786e+00	-1.990205e+01
1.780000e-06	-2.840436e-07	-2.297955e-10	-1.969522e+00	-1.906893e+01
1.790000e-06	-2.370531e-07	-2.188880e-10	-1.643695e+00	-1.821958e+01
1.800000e-06	-1.900230e-07	-2.040770e-10	-1.317595e+00	-1.735403e+01
1.810000e-06	-1.429900e-07	-1.866794e-10	-9.914739e-01	-1.647234e+01
1.820000e-06	-9.603157e-08	-1.706088e-10	-6.658705e-01	-1.557465e+01
1.830000e-06	-4.908654e-08	-1.569331e-10	-3.403597e-01	-1.466115e+01
1.840000e-06	-2.079386e-09	-1.443072e-10	-1.441819e-02	-1.373208e+01
1.850000e-06	4.481499e-08	-1.337316e-10	3.107413e-01	-1.278778e+01
1.860000e-06	9.164190e-08	-1.237711e-10	6.354331e-01	-1.182862e+01
1.870000e-06	1.385017e-07	-1.102298e-10	9.603529e-01	-1.085505e+01
1.880000e-06	1.854281e-07	-9.513818e-11	1.285735e+00	-9.867568e+00
1.890000e-06	2.324038e-07	-8.109247e-11	1.611458e+00	-8.866754e+00
1.900000e-06	2.793441e-07	-6.732044e-11	1.936936e+00	-7.853229e+00
1.910000e-06	3.262451e-07	-5.267986e-11	2.262141e+00	-6.827676e+00
1.920000e-06	3.730443e-07	-3.784684e-11	2.586641e+00	-5.790832e+00
1.930000e-06	4.197619e-07	-2.463951e-11	2.910575e+00	-4.743482e+00
1.940000e-06	4.664734e-07	-1.207172e-11	3.234466e+00	-3.686460e+00
1.950000e-06	5.131180e-07	-2.060653e-12	3.557894e+00	-2.620644e+00
1.960000e-06	5.596429e-07	8.530722e-12	3.880492e+00	-1.546948e+00
1.970000e-06	6.061515e-07	2.235121e-11	4.202976e+00	-4.663221e-01
1.980000e-06	6.526881e-07	3.767988e-11	4.525655e+00	6.202548e-01
1.990000e-06	6.992494e-07	5.592903e-11	4.848505e+00	1.711779e+00
2.000000e-06	7.458832e-07	7.392099e-11	5.171857e+00	2.807227e+00
2.010000e-06	7.924197e-07	9.005155e-11	5.494536e+00	3.905562e+00
2.020000e-06	8.387826e-07	1.016900e-10	5.816010e+00	5.005737e+00
2.030000e-06	8.851390e-07	1.133608e-10	6.137440e+00	6.106704e+00
2.040000e-06	9.314808e-07	1.258038e-10	6.458768e+00	7.207414e+00
2.050000e-06	9.777595e-07	1.399267e-10	6.779658e+00	8.306827e+00
2.060000e-06	1.023921e-06	1.566503e-10	7.099736e+00	9.403916e+00
2.070000e-06	1.069935e-06	1.767865e-10	7.418793e+00	1.049767e+01
2.080000e-06	1.115878e-06	1.960473e-10	7.737355e+00	1.158710e+01
2.090000e-06	1.161819e-06	2.091489e-10	8.055902e+00	1.267124e+01
2.100000e-06	1.207732e-06	2.209471e-10	8.374257e+00	1.374917e+01
2.110000e-06	1.253537e-06	2.334658e-10	8.691862e+00	1.482000e+01
2.120000e-06	1.299188e-06	2.461587e-10	9.008405e+00	1.588286e+01
2.130000e-06	1.344756e-06	2.615819e-10	9.324364e+00	1.693694e+01
2.140000e-06	1.390251e-06	2.761634e-10	9.639819e+00	1.798149e+01
2.150000e-06	1.435622e-06	2.897805e-10	9.954417e+00	1.901577e+01
2.160000e-06	1.480873e-06	3.042415e-10	1.026818e+01	2.003914e+01
2.170000e-06	1.526063e-06	3.182487e-10	1.058152e+01	2.105096e+01
2.180000e-06	1.571194e-06	3.308980e-10	1.089446e+01	2.205068e+01
2.190000e-06	1.616206e-06	3.430361e-10	1.120657e+01	2.303779e+01
2.200000e-06	1.661030e-06	3.562056e-10	1.151737e+01	2.401185e+01
2.210000e-06	1.705668e-06	3.683962e-10	1.182688e+01	2.497246e+01
2.220000e-06	1.750177e-06	3.818272e-10	1.213550e+01	2.591927e+01
2.230000e-06	1.794569e-06	3.949620e-10	1.244331e+01	2.685200e+01
2.240000e-06	1.838846e-06	4.074295e-10	1.275032e+01	2.777042e+01
2.250000e-06	1.882964e-06	4.173228e-10	1.305623e+01	2.867434e+01
2.260000e-06	1.926978e-06	4.275788e-10	1.336142e+01	2.956364e+01
2.270000e-06	1.970937e-06	4.396913e-10	1.366622e+01	3.043821e+01
2.280000e-06	2.014844e-06	4.522175e-10	1.397067e+01	3.129803e+01
2.290000e-06	2.058670e-06	4.654115e-10	1.427455e+01	3.214309e+01
2.300000e-06	2.102376e-06	4.776241e-10	1.457761e+01	3.297342e+01
2.310000e-06	2.146008e-06	4.869554e-10	1.488014e+01	3.378911e+01
2.320000e-06	2.189571e-06	4.951944e-10	1.518220e+01	3.459025e+01
2.330000e-06	2.233024e-06	5.014630e-10	1.548350e+01	3.537698e+01
2.340000e-06	2.276325e-06	5.078086e-10	1.578374e+01	3.614946e+01
2.350000e-06	2.319467e-06	5.160265e-10	1.608288e+01	3.690786e+01
2.360000e-06	2.362446e-06	5.272340e-10	1.638090e+01	3.765237e+01
2.370000e-06	2.405156e-06	5.396038e-10	1.667704e+01	3.838320e+01
2.380000e-06	2.447532e-06	5.522755e-10	1.697087e+01	3.910058e+01
2.390000e-06	2.489638e-06	5.647779e-10	1.726283e+01	3.980472e+01
2.400000e-06	2.531465e-06	5.738118e-10	1.755285e+01	4.049586e+01
2.410000e-06	2.573019e-06	5.806400e-10	1.784098e+01	4.117421e+01
2.420000e-06	2.614267e-06	5.873499e-10	1.812699e+01	4.184000e+01
2.430000e-06	2.655169e-06	5.953597e-10	1.841060e+01	4.249345e+01
2.440000e-06	2.695807e-06	6.049586e-10	1.869238e+01	4.313477e+01
2.450000e-06	2.736260e-06	6.165108e-10	1.897287e+01	4.376416e+01
2.460000e-06	2.776536e-06	6.283196e-10	1.925214e+01	4.438179e+01
2.470000e-06	2.816618e-06	6.385080e-10	1.953006e+01	4.498784e+01
2.480000e-06	2.856534e-06	6.461821e-10	1.980684e+01	4.558247e+01
2.490000e-06	2.896294e-06	6.527771e-10	2.008253e+01	4.616581e+01
2.500000e-06	2.935872e-06	6.589614e-10	2.035696e+01	4.673800e+01
2.510000e-06	2.975331e-06	6.640257e-10	2.063056e+01	4.729912e+01
2.520000e-06	3.014753e-06	6.705771e-10	2.090391e+01	4.784927e+01
2.530000e-06	3.054020e-06	6.794199e-10	2.117618e+01	4.838852e+01
2.540000e-06	3.092933e-06	6.886991e-10	2.144600e+01	4.891692e+01
2.550000e-06	3.131618e-06	6.971595e-10	2.171423e+01	4.943450e+01
2.560000e-06	3.170158e-06	7.045879e-10	2.198147e+01	4.994130e+01
2.570000e-06	3.208412e-06	7.107905e-10	2.224671e+01	5.043731e+01
2.580000e-06	3.246443e-06	7.132131e-10	2.251042e+01	5.092253e+01
2.590000e-06	3.284247e-06	7.149666e-10	2.277254e+01	5.139695e+01
2.600000e-06	3.321791e-06	7.194099e-10	2.303287e+01	5.186056e+01
2.610000e-06	3.359165e-06	7.265958e-10	2.329202e+01	5.231331e+01
2.620000e-06	3.396335e-06	7.350155e-10	2.354975e+01	5.275518e+01
2.630000e-06	3.433272e-06	7.435467e-10	2.380587e+01	5.318613e+01
2.640000e-06	3.469925e-06	7.498698e-10	2.406001e+01	5.360614e+01
2.650000e-06	3.506289e-06	7.538189e-10	2.431216e+01	5.401516e+01
2.660000e-06	3.542450e-06	7.562244e-10	2.456289e+01	5.441317e+01
2.670000e-06	3.578395e-06	7.583849e-10	2.481213e+01	5.480017e+01
2.680000e-06	3.614199e-06	7.618825e-10	2.506039e+01	5.517612e+01
2.690000e-06	3.649851e-06	7.676404e-10	2.530760e+01	5.554104e+01
2.700000e-06	3.685293e-06	7.753774e-10	2.555334e+01	5.589494e+01
2.710000e-06	3.720545e-06	7.838657e-10	2.579778e+01	5.623785e+01
2.720000e-06	3.755633e-06	7.933417e-10	2.604107e+01	5.656982e+01
2.730000e-06	3.790456e-06	8.016551e-10	2.628253e+01	5.689090e+01
2.740000e-06	3.824969e-06	8.060094e-10	2.652184e+01	5.720119e+01
2.750000e-06	3.859003e-06	8.059829e-10	2.675783e+01	5.750077e+01
2.760000e-06	3.892470e-06	8.056314e-10	2.698988e+01	5.778978e+01
2.770000e-06	3.925491e-06	8.070667e-10	2.721884e+01	5.806836e+01
2.780000e-06	3.958030e-06	8.112693e-10	2.744447e+01	5.833666e+01
2.790000e-06	3.990273e-06	8.204810e-10	2.766804e+01	5.859488e+01
2.800000e-06	4.022341e-06	8.321226e-10	2.789039e+01	5.884322e+01
2.810000e-06	4.054193e-06	8.392560e-10	2.811125e+01	5.908190e+01
2.820000e-06	4.085826e-06	8.419447e-10	2.833059e+01	5.931116e+01
2.830000e-06	4.117277e-06	8.419463e-10	2.854867e+01	5.953127e+01
2.840000e-06	4.148506e-06	8.375856e-10	2.876520e+01	5.974250e+01
2.850000e-06	4.179482e-06	8.346130e-10	2.897998e+01	5.994515e+01
2.860000e-06	4.210221e-06	8.386625e-10	2.919313e+01	6.013952e+01
2.870000e-06	4.240657e-06	8.457318e-10	2.940417e+01	6.032592e+01
2.880000e-06	4.270733e-06	8.545805e-10	2.961271e+01	6.050469e+01
2.890000e-06	4.300470e-06	8.638092e-10	2.981891e+01	6.067616e+01
2.900000e-06	4.329872e-06	8.701922e-10	3.002278e+01	6.084066e+01
