# Temperatura_=_-0.3
# Concentracion g/m^3_=_1620.0
# C_Vs_to_Am_M_A/Vsm_=_65563218390.804596
# pendiente_HvsI_1/m_=_3716.3
# ordenada_HvsI_A/m_=_1297.0
# frecuencia_Hz_=_135110.02597306462

Tiempo_(s)	Campo_(V.s)	Magnetizacion_(V.s)	Campo_(kA/m)	Magnetizacion_(A/m)
0.000000e+00	-5.512157e-06	-1.329456e-09	-3.837068e+01	-8.785398e+01
1.000000e-08	-5.512385e-06	-1.330003e-09	-3.837227e+01	-8.787988e+01
2.000000e-08	-5.512324e-06	-1.329389e-09	-3.837185e+01	-8.790452e+01
3.000000e-08	-5.511865e-06	-1.327492e-09	-3.836865e+01	-8.792770e+01
4.000000e-08	-5.510939e-06	-1.323694e-09	-3.836221e+01	-8.794918e+01
5.000000e-08	-5.509397e-06	-1.317437e-09	-3.835147e+01	-8.796876e+01
6.000000e-08	-5.507138e-06	-1.300735e-09	-3.833574e+01	-8.798620e+01
7.000000e-08	-5.504340e-06	-1.280633e-09	-3.831627e+01	-8.800126e+01
8.000000e-08	-5.501099e-06	-1.313500e-09	-3.829371e+01	-8.801371e+01
9.000000e-08	-5.497414e-06	-1.403366e-09	-3.826806e+01	-8.802333e+01
1.000000e-07	-5.493295e-06	-1.391976e-09	-3.823938e+01	-8.802989e+01
1.100000e-07	-5.488804e-06	-1.257778e-09	-3.820812e+01	-8.803316e+01
1.200000e-07	-5.484167e-06	-1.219574e-09	-3.817584e+01	-8.803295e+01
1.300000e-07	-5.479313e-06	-1.322182e-09	-3.814205e+01	-8.802905e+01
1.400000e-07	-5.473969e-06	-1.364694e-09	-3.810485e+01	-8.802128e+01
1.500000e-07	-5.468251e-06	-1.245752e-09	-3.806505e+01	-8.800949e+01
1.600000e-07	-5.462271e-06	-1.208102e-09	-3.802342e+01	-8.799351e+01
1.700000e-07	-5.455885e-06	-1.345628e-09	-3.797897e+01	-8.797323e+01
1.800000e-07	-5.448979e-06	-1.411913e-09	-3.793089e+01	-8.794852e+01
1.900000e-07	-5.441656e-06	-1.306706e-09	-3.787991e+01	-8.791929e+01
2.000000e-07	-5.434130e-06	-1.235767e-09	-3.782753e+01	-8.788549e+01
2.100000e-07	-5.426359e-06	-1.313066e-09	-3.777344e+01	-8.784705e+01
2.200000e-07	-5.418281e-06	-1.374400e-09	-3.771720e+01	-8.780395e+01
2.300000e-07	-5.410020e-06	-1.324781e-09	-3.765970e+01	-8.775618e+01
2.400000e-07	-5.401361e-06	-1.287973e-09	-3.759942e+01	-8.770375e+01
2.500000e-07	-5.391869e-06	-1.339118e-09	-3.753335e+01	-8.764671e+01
2.600000e-07	-5.381682e-06	-1.368600e-09	-3.746243e+01	-8.758508e+01
2.700000e-07	-5.371038e-06	-1.321104e-09	-3.738834e+01	-8.751895e+01
2.800000e-07	-5.359797e-06	-1.291537e-09	-3.731009e+01	-8.744840e+01
2.900000e-07	-5.348094e-06	-1.327449e-09	-3.722862e+01	-8.737351e+01
3.000000e-07	-5.336140e-06	-1.350531e-09	-3.714541e+01	-8.729440e+01
3.100000e-07	-5.323812e-06	-1.310112e-09	-3.705959e+01	-8.721118e+01
3.200000e-07	-5.310954e-06	-1.283533e-09	-3.697009e+01	-8.712397e+01
3.300000e-07	-5.297699e-06	-1.318748e-09	-3.687782e+01	-8.703290e+01
3.400000e-07	-5.284234e-06	-1.330882e-09	-3.678408e+01	-8.693810e+01
3.500000e-07	-5.270344e-06	-1.284149e-09	-3.668740e+01	-8.683969e+01
3.600000e-07	-5.255851e-06	-1.278650e-09	-3.658651e+01	-8.673781e+01
3.700000e-07	-5.240903e-06	-1.334682e-09	-3.648245e+01	-8.663258e+01
3.800000e-07	-5.225504e-06	-1.318062e-09	-3.637526e+01	-8.652412e+01
3.900000e-07	-5.209562e-06	-1.266971e-09	-3.626429e+01	-8.641252e+01
4.000000e-07	-5.193203e-06	-1.309133e-09	-3.615041e+01	-8.629788e+01
4.100000e-07	-5.176495e-06	-1.340434e-09	-3.603411e+01	-8.618029e+01
4.200000e-07	-5.159397e-06	-1.257719e-09	-3.591509e+01	-8.605982e+01
4.300000e-07	-5.141993e-06	-1.251084e-09	-3.579393e+01	-8.593652e+01
4.400000e-07	-5.124402e-06	-1.345505e-09	-3.567148e+01	-8.581042e+01
4.500000e-07	-5.106410e-06	-1.312377e-09	-3.554624e+01	-8.568154e+01
4.600000e-07	-5.087820e-06	-1.224915e-09	-3.541683e+01	-8.554988e+01
4.700000e-07	-5.068818e-06	-1.284671e-09	-3.528456e+01	-8.541543e+01
4.800000e-07	-5.049564e-06	-1.323369e-09	-3.515053e+01	-8.527813e+01
4.900000e-07	-5.030078e-06	-1.239856e-09	-3.501488e+01	-8.513794e+01
5.000000e-07	-5.010367e-06	-1.248779e-09	-3.487767e+01	-8.499478e+01
5.100000e-07	-4.990434e-06	-1.310756e-09	-3.473891e+01	-8.484856e+01
5.200000e-07	-4.970178e-06	-1.245605e-09	-3.459791e+01	-8.469916e+01
5.300000e-07	-4.949531e-06	-1.216892e-09	-3.445419e+01	-8.454647e+01
5.400000e-07	-4.928589e-06	-1.300721e-09	-3.430840e+01	-8.439034e+01
5.500000e-07	-4.907256e-06	-1.273647e-09	-3.415991e+01	-8.423063e+01
5.600000e-07	-4.885517e-06	-1.194415e-09	-3.400858e+01	-8.406718e+01
5.700000e-07	-4.863523e-06	-1.249536e-09	-3.385547e+01	-8.389982e+01
5.800000e-07	-4.841212e-06	-1.279527e-09	-3.370017e+01	-8.372838e+01
5.900000e-07	-4.818467e-06	-1.205312e-09	-3.354183e+01	-8.355268e+01
6.000000e-07	-4.795335e-06	-1.216034e-09	-3.338081e+01	-8.337256e+01
6.100000e-07	-4.771931e-06	-1.264265e-09	-3.321789e+01	-8.318784e+01
6.200000e-07	-4.748272e-06	-1.212022e-09	-3.305320e+01	-8.299835e+01
6.300000e-07	-4.724460e-06	-1.186118e-09	-3.288744e+01	-8.280394e+01
6.400000e-07	-4.700475e-06	-1.229315e-09	-3.272048e+01	-8.260446e+01
6.500000e-07	-4.676157e-06	-1.209257e-09	-3.255120e+01	-8.239976e+01
6.600000e-07	-4.651351e-06	-1.175616e-09	-3.237852e+01	-8.218974e+01
6.700000e-07	-4.625974e-06	-1.207706e-09	-3.220187e+01	-8.197428e+01
6.800000e-07	-4.600088e-06	-1.211984e-09	-3.202168e+01	-8.175330e+01
6.900000e-07	-4.573662e-06	-1.178137e-09	-3.183772e+01	-8.152674e+01
7.000000e-07	-4.546746e-06	-1.190092e-09	-3.165036e+01	-8.129456e+01
7.100000e-07	-4.519517e-06	-1.198721e-09	-3.146082e+01	-8.105673e+01
7.200000e-07	-4.492062e-06	-1.170464e-09	-3.126970e+01	-8.081326e+01
7.300000e-07	-4.464393e-06	-1.169785e-09	-3.107709e+01	-8.056419e+01
7.400000e-07	-4.436495e-06	-1.187509e-09	-3.088289e+01	-8.030956e+01
7.500000e-07	-4.408285e-06	-1.173498e-09	-3.068652e+01	-8.004947e+01
7.600000e-07	-4.379781e-06	-1.164712e-09	-3.048810e+01	-7.978402e+01
7.700000e-07	-4.351078e-06	-1.173655e-09	-3.028829e+01	-7.951334e+01
7.800000e-07	-4.322066e-06	-1.161666e-09	-3.008634e+01	-7.923758e+01
7.900000e-07	-4.292659e-06	-1.149903e-09	-2.988163e+01	-7.895692e+01
8.000000e-07	-4.262939e-06	-1.158922e-09	-2.967475e+01	-7.867156e+01
8.100000e-07	-4.232970e-06	-1.152923e-09	-2.946613e+01	-7.838171e+01
8.200000e-07	-4.202795e-06	-1.138265e-09	-2.925608e+01	-7.808760e+01
8.300000e-07	-4.172417e-06	-1.145760e-09	-2.904461e+01	-7.778947e+01
8.400000e-07	-4.141783e-06	-1.148015e-09	-2.883137e+01	-7.748758e+01
8.500000e-07	-4.110781e-06	-1.133561e-09	-2.861556e+01	-7.718220e+01
8.600000e-07	-4.079389e-06	-1.133006e-09	-2.839704e+01	-7.687359e+01
8.700000e-07	-4.047781e-06	-1.135714e-09	-2.817701e+01	-7.656201e+01
8.800000e-07	-4.016039e-06	-1.120262e-09	-2.795606e+01	-7.624774e+01
8.900000e-07	-3.984171e-06	-1.111241e-09	-2.773422e+01	-7.593103e+01
9.000000e-07	-3.952111e-06	-1.112448e-09	-2.751104e+01	-7.561214e+01
9.100000e-07	-3.919742e-06	-1.100221e-09	-2.728572e+01	-7.529131e+01
9.200000e-07	-3.887030e-06	-1.088566e-09	-2.705801e+01	-7.496876e+01
9.300000e-07	-3.853892e-06	-1.095792e-09	-2.682733e+01	-7.464470e+01
9.400000e-07	-3.820288e-06	-1.094847e-09	-2.659341e+01	-7.431931e+01
9.500000e-07	-3.786369e-06	-1.083267e-09	-2.635730e+01	-7.399275e+01
9.600000e-07	-3.752093e-06	-1.082982e-09	-2.611870e+01	-7.366517e+01
9.700000e-07	-3.717303e-06	-1.081661e-09	-2.587652e+01	-7.333665e+01
9.800000e-07	-3.682082e-06	-1.067528e-09	-2.563135e+01	-7.300728e+01
9.900000e-07	-3.646642e-06	-1.060737e-09	-2.538464e+01	-7.267708e+01
1.000000e-06	-3.611060e-06	-1.062361e-09	-2.513696e+01	-7.234608e+01
1.010000e-06	-3.575301e-06	-1.056584e-09	-2.488803e+01	-7.201422e+01
1.020000e-06	-3.539437e-06	-1.052306e-09	-2.463838e+01	-7.168145e+01
1.030000e-06	-3.503461e-06	-1.056689e-09	-2.438794e+01	-7.134766e+01
1.040000e-06	-3.467266e-06	-1.051381e-09	-2.413599e+01	-7.101270e+01
1.050000e-06	-3.430787e-06	-1.037531e-09	-2.388206e+01	-7.067640e+01
1.060000e-06	-3.393972e-06	-1.030563e-09	-2.362578e+01	-7.033855e+01
1.070000e-06	-3.356840e-06	-1.026024e-09	-2.336730e+01	-6.999888e+01
1.080000e-06	-3.319457e-06	-1.016797e-09	-2.310708e+01	-6.965713e+01
1.090000e-06	-3.281899e-06	-1.012343e-09	-2.284563e+01	-6.931298e+01
1.100000e-06	-3.244121e-06	-1.010162e-09	-2.258265e+01	-6.896609e+01
1.110000e-06	-3.206134e-06	-1.000161e-09	-2.231822e+01	-6.861609e+01
1.120000e-06	-3.167975e-06	-9.899309e-10	-2.205259e+01	-6.826259e+01
1.130000e-06	-3.129559e-06	-9.851532e-10	-2.178517e+01	-6.790518e+01
1.140000e-06	-3.090941e-06	-9.771793e-10	-2.151635e+01	-6.754344e+01
1.150000e-06	-3.052117e-06	-9.652133e-10	-2.124609e+01	-6.717693e+01
1.160000e-06	-3.013047e-06	-9.594182e-10	-2.097413e+01	-6.680520e+01
1.170000e-06	-2.973797e-06	-9.562396e-10	-2.070090e+01	-6.642779e+01
1.180000e-06	-2.934387e-06	-9.500833e-10	-2.042657e+01	-6.604425e+01
1.190000e-06	-2.894857e-06	-9.450388e-10	-2.015139e+01	-6.565412e+01
1.200000e-06	-2.855198e-06	-9.395904e-10	-1.987532e+01	-6.525696e+01
1.210000e-06	-2.815440e-06	-9.298517e-10	-1.959856e+01	-6.485232e+01
1.220000e-06	-2.775545e-06	-9.208030e-10	-1.932085e+01	-6.443977e+01
1.230000e-06	-2.735406e-06	-9.149842e-10	-1.904144e+01	-6.401891e+01
1.240000e-06	-2.695080e-06	-9.072052e-10	-1.876072e+01	-6.358934e+01
1.250000e-06	-2.654527e-06	-8.980521e-10	-1.847843e+01	-6.315069e+01
1.260000e-06	-2.613802e-06	-8.929266e-10	-1.819494e+01	-6.270262e+01
1.270000e-06	-2.572865e-06	-8.881838e-10	-1.790997e+01	-6.224479e+01
1.280000e-06	-2.531529e-06	-8.806331e-10	-1.762223e+01	-6.177692e+01
1.290000e-06	-2.489883e-06	-8.716230e-10	-1.733233e+01	-6.129874e+01
1.300000e-06	-2.448020e-06	-8.620934e-10	-1.704091e+01	-6.081002e+01
1.310000e-06	-2.405846e-06	-8.520574e-10	-1.674734e+01	-6.031055e+01
1.320000e-06	-2.363336e-06	-8.431734e-10	-1.645142e+01	-5.980016e+01
1.330000e-06	-2.320555e-06	-8.358798e-10	-1.615362e+01	-5.927872e+01
1.340000e-06	-2.277510e-06	-8.273260e-10	-1.585398e+01	-5.874610e+01
1.350000e-06	-2.234263e-06	-8.188214e-10	-1.555293e+01	-5.820223e+01
1.360000e-06	-2.190894e-06	-8.105620e-10	-1.525104e+01	-5.764705e+01
1.370000e-06	-2.147362e-06	-8.026455e-10	-1.494800e+01	-5.708053e+01
1.380000e-06	-2.103686e-06	-7.959563e-10	-1.464397e+01	-5.650266e+01
1.390000e-06	-2.060002e-06	-7.882819e-10	-1.433988e+01	-5.591345e+01
1.400000e-06	-2.016283e-06	-7.796228e-10	-1.403555e+01	-5.531294e+01
1.410000e-06	-1.972474e-06	-7.694972e-10	-1.373059e+01	-5.470117e+01
1.420000e-06	-1.928624e-06	-7.579450e-10	-1.342535e+01	-5.407820e+01
1.430000e-06	-1.884699e-06	-7.469702e-10	-1.311958e+01	-5.344409e+01
1.440000e-06	-1.840647e-06	-7.386188e-10	-1.281293e+01	-5.279890e+01
1.450000e-06	-1.796475e-06	-7.287207e-10	-1.250544e+01	-5.214270e+01
1.460000e-06	-1.752140e-06	-7.174277e-10	-1.219682e+01	-5.147556e+01
1.470000e-06	-1.707669e-06	-7.077173e-10	-1.188726e+01	-5.079752e+01
1.480000e-06	-1.663080e-06	-6.981468e-10	-1.157687e+01	-5.010863e+01
1.490000e-06	-1.618378e-06	-6.889911e-10	-1.126570e+01	-4.940892e+01
1.500000e-06	-1.573570e-06	-6.807616e-10	-1.095378e+01	-4.869839e+01
1.510000e-06	-1.528595e-06	-6.724677e-10	-1.064070e+01	-4.797703e+01
1.520000e-06	-1.483439e-06	-6.604833e-10	-1.032637e+01	-4.724480e+01
1.530000e-06	-1.438168e-06	-6.451181e-10	-1.001123e+01	-4.650163e+01
1.540000e-06	-1.392835e-06	-6.294355e-10	-9.695664e+00	-4.574742e+01
1.550000e-06	-1.347463e-06	-6.160362e-10	-9.379827e+00	-4.498204e+01
1.560000e-06	-1.302023e-06	-6.056835e-10	-9.063510e+00	-4.420534e+01
1.570000e-06	-1.256515e-06	-5.972706e-10	-8.746731e+00	-4.341711e+01
1.580000e-06	-1.210981e-06	-5.874396e-10	-8.429758e+00	-4.261713e+01
1.590000e-06	-1.165250e-06	-5.736894e-10	-8.111425e+00	-4.180512e+01
1.600000e-06	-1.119348e-06	-5.591186e-10	-7.791897e+00	-4.098079e+01
1.610000e-06	-1.073466e-06	-5.455084e-10	-7.472504e+00	-4.014382e+01
1.620000e-06	-1.027500e-06	-5.341310e-10	-7.152532e+00	-3.929382e+01
1.630000e-06	-9.813887e-07	-5.253641e-10	-6.831546e+00	-3.843042e+01
1.640000e-06	-9.352863e-07	-5.129674e-10	-6.510623e+00	-3.755320e+01
1.650000e-06	-8.892370e-07	-4.988794e-10	-6.190069e+00	-3.666172e+01
1.660000e-06	-8.430722e-07	-4.829805e-10	-5.868711e+00	-3.575552e+01
1.670000e-06	-7.967977e-07	-4.649766e-10	-5.546589e+00	-3.483413e+01
1.680000e-06	-7.505166e-07	-4.501549e-10	-5.224422e+00	-3.389707e+01
1.690000e-06	-7.041652e-07	-4.391754e-10	-4.901765e+00	-3.294386e+01
1.700000e-06	-6.577357e-07	-4.297685e-10	-4.578564e+00	-3.197401e+01
1.710000e-06	-6.112334e-07	-4.170766e-10	-4.254858e+00	-3.098704e+01
1.720000e-06	-5.647251e-07	-4.015909e-10	-3.931109e+00	-2.998249e+01
1.730000e-06	-5.182606e-07	-3.826358e-10	-3.607664e+00	-2.895992e+01
1.740000e-06	-4.718219e-07	-3.626153e-10	-3.284400e+00	-2.791891e+01
1.750000e-06	-4.253575e-07	-3.432290e-10	-2.960957e+00	-2.685906e+01
1.760000e-06	-3.788236e-07	-3.255849e-10	-2.637030e+00	-2.578004e+01
1.770000e-06	-3.321630e-07	-3.105070e-10	-2.312220e+00	-2.468153e+01
1.780000e-06	-2.853920e-07	-2.976211e-10	-1.986642e+00	-2.356327e+01
1.790000e-06	-2.386280e-07	-2.830505e-10	-1.661113e+00	-2.242508e+01
1.800000e-06	-1.918516e-07	-2.652945e-10	-1.335498e+00	-2.126681e+01
1.810000e-06	-1.450448e-07	-2.447487e-10	-1.009671e+00	-2.008840e+01
1.820000e-06	-9.829393e-08	-2.230701e-10	-6.842340e-01	-1.888984e+01
1.830000e-06	-5.151937e-08	-2.025970e-10	-3.586315e-01	-1.767121e+01
1.840000e-06	-4.661317e-09	-1.847657e-10	-3.244790e-02	-1.643268e+01
1.850000e-06	4.212737e-08	-1.705989e-10	2.932529e-01	-1.517448e+01
1.860000e-06	8.889090e-08	-1.566870e-10	6.187785e-01	-1.389694e+01
1.870000e-06	1.356678e-07	-1.407924e-10	9.443972e-01	-1.260048e+01
1.880000e-06	1.824128e-07	-1.228726e-10	1.269794e+00	-1.128561e+01
1.890000e-06	2.290894e-07	-1.027859e-10	1.594715e+00	-9.952919e+00
1.900000e-06	2.756948e-07	-8.049335e-11	1.919139e+00	-8.603094e+00
1.910000e-06	3.223378e-07	-5.889607e-11	2.243826e+00	-7.236912e+00
1.920000e-06	3.690059e-07	-3.924369e-11	2.568687e+00	-5.855238e+00
1.930000e-06	4.157218e-07	-2.094331e-11	2.893881e+00	-4.459020e+00
1.940000e-06	4.624968e-07	-4.631868e-12	3.219487e+00	-3.049291e+00
1.950000e-06	5.091485e-07	1.033638e-11	3.544234e+00	-1.627162e+00
1.960000e-06	5.556483e-07	2.687401e-11	3.867924e+00	-1.938191e-01
1.970000e-06	6.020835e-07	4.598052e-11	4.191164e+00	1.249482e+00
1.980000e-06	6.484924e-07	6.792397e-11	4.514221e+00	2.701423e+00
1.990000e-06	6.948931e-07	9.078681e-11	4.837221e+00	4.160626e+00
2.000000e-06	7.412439e-07	1.136554e-10	5.159874e+00	5.625663e+00
2.010000e-06	7.874971e-07	1.349356e-10	5.481847e+00	7.095062e+00
2.020000e-06	8.336882e-07	1.540539e-10	5.803388e+00	8.567314e+00
2.030000e-06	8.798723e-07	1.721906e-10	6.124880e+00	1.004088e+01
2.040000e-06	9.259927e-07	1.891327e-10	6.445929e+00	1.151422e+01
2.050000e-06	9.719600e-07	2.061929e-10	6.765912e+00	1.298574e+01
2.060000e-06	1.017831e-06	2.266008e-10	7.085227e+00	1.445388e+01
2.070000e-06	1.063690e-06	2.503630e-10	7.404453e+00	1.591708e+01
2.080000e-06	1.109478e-06	2.747291e-10	7.723187e+00	1.737379e+01
2.090000e-06	1.155196e-06	2.975734e-10	8.041435e+00	1.882247e+01
2.100000e-06	1.200829e-06	3.175149e-10	8.359091e+00	2.026162e+01
2.110000e-06	1.246364e-06	3.331233e-10	8.676064e+00	2.168979e+01
2.120000e-06	1.291808e-06	3.477708e-10	8.992406e+00	2.310557e+01
2.130000e-06	1.337191e-06	3.641941e-10	9.308321e+00	2.450759e+01
2.140000e-06	1.382567e-06	3.816016e-10	9.624189e+00	2.589456e+01
2.150000e-06	1.427908e-06	3.989919e-10	9.939809e+00	2.726526e+01
2.160000e-06	1.473138e-06	4.175060e-10	1.025466e+01	2.861851e+01
2.170000e-06	1.518146e-06	4.376960e-10	1.056796e+01	2.995325e+01
2.180000e-06	1.562960e-06	4.566953e-10	1.087992e+01	3.126848e+01
2.190000e-06	1.607734e-06	4.736398e-10	1.119160e+01	3.256330e+01
2.200000e-06	1.652470e-06	4.884216e-10	1.150301e+01	3.383689e+01
2.210000e-06	1.697049e-06	5.039048e-10	1.181333e+01	3.508852e+01
2.220000e-06	1.741465e-06	5.217459e-10	1.212251e+01	3.631757e+01
2.230000e-06	1.785693e-06	5.388309e-10	1.243039e+01	3.752351e+01
2.240000e-06	1.829801e-06	5.549636e-10	1.273743e+01	3.870590e+01
2.250000e-06	1.873835e-06	5.707531e-10	1.304395e+01	3.986441e+01
2.260000e-06	1.917729e-06	5.849044e-10	1.334951e+01	4.099879e+01
2.270000e-06	1.961534e-06	5.978496e-10	1.365444e+01	4.210888e+01
2.280000e-06	2.005282e-06	6.106712e-10	1.395897e+01	4.319463e+01
2.290000e-06	2.048978e-06	6.231108e-10	1.426315e+01	4.425607e+01
2.300000e-06	2.092652e-06	6.358367e-10	1.456716e+01	4.529330e+01
2.310000e-06	2.136254e-06	6.506909e-10	1.487068e+01	4.630652e+01
2.320000e-06	2.179741e-06	6.646116e-10	1.517340e+01	4.729599e+01
2.330000e-06	2.223071e-06	6.770976e-10	1.547502e+01	4.826204e+01
2.340000e-06	2.266200e-06	6.906018e-10	1.577524e+01	4.920507e+01
2.350000e-06	2.309220e-06	7.023206e-10	1.607472e+01	5.012553e+01
2.360000e-06	2.352118e-06	7.126224e-10	1.637333e+01	5.102392e+01
2.370000e-06	2.394725e-06	7.231091e-10	1.666992e+01	5.190080e+01
2.380000e-06	2.436983e-06	7.358775e-10	1.696409e+01	5.275675e+01
2.390000e-06	2.478890e-06	7.501683e-10	1.725580e+01	5.359239e+01
2.400000e-06	2.520427e-06	7.655348e-10	1.754495e+01	5.440836e+01
2.410000e-06	2.561584e-06	7.802797e-10	1.783145e+01	5.520531e+01
2.420000e-06	2.602413e-06	7.924511e-10	1.811566e+01	5.598393e+01
2.430000e-06	2.643033e-06	8.048318e-10	1.839842e+01	5.674489e+01
2.440000e-06	2.683501e-06	8.160552e-10	1.868012e+01	5.748886e+01
2.450000e-06	2.723801e-06	8.262099e-10	1.896065e+01	5.821650e+01
2.460000e-06	2.763871e-06	8.361918e-10	1.923958e+01	5.892847e+01
2.470000e-06	2.803720e-06	8.457188e-10	1.951698e+01	5.962542e+01
2.480000e-06	2.843441e-06	8.530462e-10	1.979348e+01	6.030794e+01
2.490000e-06	2.883063e-06	8.596541e-10	2.006929e+01	6.097663e+01
2.500000e-06	2.922639e-06	8.697867e-10	2.034478e+01	6.163205e+01
2.510000e-06	2.962090e-06	8.814211e-10	2.061941e+01	6.227472e+01
2.520000e-06	3.001283e-06	8.931936e-10	2.089223e+01	6.290513e+01
2.530000e-06	3.040294e-06	9.038436e-10	2.116379e+01	6.352372e+01
2.540000e-06	3.079093e-06	9.112753e-10	2.143388e+01	6.413091e+01
2.550000e-06	3.117662e-06	9.177806e-10	2.170236e+01	6.472707e+01
2.560000e-06	3.156030e-06	9.243015e-10	2.196944e+01	6.531253e+01
2.570000e-06	3.194111e-06	9.331810e-10	2.223453e+01	6.588757e+01
2.580000e-06	3.231977e-06	9.430609e-10	2.249812e+01	6.645243e+01
2.590000e-06	3.269722e-06	9.534771e-10	2.276087e+01	6.700734e+01
2.600000e-06	3.307336e-06	9.644952e-10	2.302270e+01	6.755245e+01
2.610000e-06	3.344639e-06	9.741722e-10	2.328237e+01	6.808791e+01
2.620000e-06	3.381624e-06	9.821005e-10	2.353983e+01	6.861380e+01
2.630000e-06	3.418372e-06	9.880221e-10	2.379563e+01	6.913021e+01
2.640000e-06	3.454822e-06	9.923056e-10	2.404936e+01	6.963718e+01
2.650000e-06	3.491002e-06	9.963349e-10	2.430122e+01	7.013472e+01
2.660000e-06	3.526984e-06	1.002376e-09	2.455169e+01	7.062282e+01
2.670000e-06	3.562853e-06	1.009724e-09	2.480138e+01	7.110147e+01
2.680000e-06	3.598614e-06	1.016962e-09	2.505031e+01	7.157064e+01
2.690000e-06	3.634291e-06	1.024981e-09	2.529866e+01	7.203027e+01
2.700000e-06	3.669849e-06	1.033071e-09	2.554619e+01	7.248032e+01
2.710000e-06	3.705202e-06	1.039302e-09	2.579228e+01	7.292073e+01
2.720000e-06	3.740248e-06	1.044892e-09	2.603624e+01	7.335145e+01
2.730000e-06	3.774951e-06	1.050955e-09	2.627782e+01	7.377243e+01
2.740000e-06	3.809149e-06	1.055352e-09	2.651587e+01	7.418362e+01
2.750000e-06	3.842719e-06	1.060301e-09	2.674955e+01	7.458500e+01
2.760000e-06	3.875764e-06	1.067272e-09	2.697959e+01	7.497655e+01
2.770000e-06	3.908357e-06	1.073527e-09	2.720647e+01	7.535825e+01
2.780000e-06	3.940605e-06	1.080083e-09	2.743095e+01	7.573014e+01
2.790000e-06	3.972608e-06	1.087346e-09	2.765373e+01	7.609225e+01
2.800000e-06	4.004477e-06	1.093277e-09	2.787557e+01	7.644462e+01
2.810000e-06	4.036276e-06	1.096466e-09	2.809693e+01	7.678734e+01
2.820000e-06	4.067921e-06	1.099130e-09	2.831721e+01	7.712051e+01
2.830000e-06	4.099370e-06	1.101450e-09	2.853613e+01	7.744426e+01
2.840000e-06	4.130639e-06	1.103399e-09	2.875379e+01	7.775874e+01
2.850000e-06	4.161554e-06	1.106922e-09	2.896900e+01	7.806411e+01
2.860000e-06	4.192078e-06	1.112344e-09	2.918148e+01	7.836056e+01
2.870000e-06	4.222278e-06	1.117610e-09	2.939171e+01	7.864832e+01
2.880000e-06	4.252161e-06	1.123521e-09	2.959972e+01	7.892763e+01
2.890000e-06	4.281746e-06	1.128708e-09	2.980567e+01	7.919872e+01
2.900000e-06	4.311108e-06	1.132976e-09	3.001006e+01	7.946187e+01
