# Temperatura_=_-1.15
# Concentracion g/m^3_=_1620.0
# C_Vs_to_Am_M_A/Vsm_=_65563218390.804596
# pendiente_HvsI_1/m_=_3716.3
# ordenada_HvsI_A/m_=_1297.0
# frecuencia_Hz_=_135092.107593384

Tiempo_(s)	Campo_(V.s)	Magnetizacion_(V.s)	Campo_(kA/m)	Magnetizacion_(A/m)
0.000000e+00	-5.518939e-06	-1.064644e-09	-3.837691e+01	-6.901110e+01
1.000000e-08	-5.519177e-06	-1.063876e-09	-3.837856e+01	-6.895963e+01
2.000000e-08	-5.519014e-06	-1.064134e-09	-3.837742e+01	-6.890838e+01
3.000000e-08	-5.518365e-06	-1.062900e-09	-3.837291e+01	-6.885734e+01
4.000000e-08	-5.517211e-06	-1.061342e-09	-3.836488e+01	-6.880652e+01
5.000000e-08	-5.515464e-06	-1.063103e-09	-3.835274e+01	-6.875590e+01
6.000000e-08	-5.513194e-06	-1.061045e-09	-3.833695e+01	-6.870545e+01
7.000000e-08	-5.510431e-06	-1.044682e-09	-3.831774e+01	-6.865512e+01
8.000000e-08	-5.507138e-06	-1.048377e-09	-3.829484e+01	-6.860485e+01
9.000000e-08	-5.503434e-06	-1.112189e-09	-3.826909e+01	-6.855457e+01
1.000000e-07	-5.499249e-06	-1.088497e-09	-3.823999e+01	-6.850420e+01
1.100000e-07	-5.494759e-06	-9.964436e-10	-3.820876e+01	-6.845362e+01
1.200000e-07	-5.490135e-06	-9.922885e-10	-3.817661e+01	-6.840275e+01
1.300000e-07	-5.485185e-06	-1.107416e-09	-3.814219e+01	-6.835144e+01
1.400000e-07	-5.479820e-06	-1.093424e-09	-3.810488e+01	-6.829958e+01
1.500000e-07	-5.474069e-06	-9.838745e-10	-3.806489e+01	-6.824703e+01
1.600000e-07	-5.468042e-06	-9.735651e-10	-3.802298e+01	-6.819364e+01
1.700000e-07	-5.461663e-06	-1.121260e-09	-3.797862e+01	-6.813926e+01
1.800000e-07	-5.454714e-06	-1.136816e-09	-3.793030e+01	-6.808375e+01
1.900000e-07	-5.447375e-06	-1.008373e-09	-3.787927e+01	-6.802694e+01
2.000000e-07	-5.439876e-06	-9.844492e-10	-3.782712e+01	-6.796868e+01
2.100000e-07	-5.432108e-06	-1.075458e-09	-3.777311e+01	-6.790881e+01
2.200000e-07	-5.424004e-06	-1.127948e-09	-3.771675e+01	-6.784717e+01
2.300000e-07	-5.415648e-06	-1.045128e-09	-3.765865e+01	-6.778360e+01
2.400000e-07	-5.406743e-06	-1.038299e-09	-3.759673e+01	-6.771796e+01
2.500000e-07	-5.396935e-06	-1.096697e-09	-3.752853e+01	-6.765010e+01
2.600000e-07	-5.386550e-06	-1.117696e-09	-3.745631e+01	-6.757986e+01
2.700000e-07	-5.375749e-06	-1.035016e-09	-3.738121e+01	-6.750712e+01
2.800000e-07	-5.364409e-06	-1.027729e-09	-3.730235e+01	-6.743174e+01
2.900000e-07	-5.352610e-06	-1.073871e-09	-3.722031e+01	-6.735360e+01
3.000000e-07	-5.340591e-06	-1.093494e-09	-3.713673e+01	-6.727258e+01
3.100000e-07	-5.328284e-06	-1.036095e-09	-3.705115e+01	-6.718858e+01
3.200000e-07	-5.315409e-06	-1.038094e-09	-3.696162e+01	-6.710150e+01
3.300000e-07	-5.302097e-06	-1.076895e-09	-3.686906e+01	-6.701126e+01
3.400000e-07	-5.288475e-06	-1.078190e-09	-3.677433e+01	-6.691776e+01
3.500000e-07	-5.274409e-06	-1.006655e-09	-3.667652e+01	-6.682095e+01
3.600000e-07	-5.259825e-06	-1.010570e-09	-3.657511e+01	-6.672076e+01
3.700000e-07	-5.244776e-06	-1.076237e-09	-3.647047e+01	-6.661714e+01
3.800000e-07	-5.229248e-06	-1.058119e-09	-3.636249e+01	-6.651005e+01
3.900000e-07	-5.213114e-06	-9.971308e-10	-3.625030e+01	-6.639946e+01
4.000000e-07	-5.196670e-06	-1.046633e-09	-3.613595e+01	-6.628535e+01
4.100000e-07	-5.179926e-06	-1.079341e-09	-3.601952e+01	-6.616769e+01
4.200000e-07	-5.162687e-06	-9.844657e-10	-3.589964e+01	-6.604648e+01
4.300000e-07	-5.145096e-06	-9.909225e-10	-3.577732e+01	-6.592172e+01
4.400000e-07	-5.127292e-06	-1.089342e-09	-3.565352e+01	-6.579341e+01
4.500000e-07	-5.109156e-06	-1.034161e-09	-3.552741e+01	-6.566157e+01
4.600000e-07	-5.090519e-06	-9.385570e-10	-3.539781e+01	-6.552622e+01
4.700000e-07	-5.071580e-06	-1.039229e-09	-3.526612e+01	-6.538737e+01
4.800000e-07	-5.052346e-06	-1.063760e-09	-3.513237e+01	-6.524505e+01
4.900000e-07	-5.032760e-06	-9.590764e-10	-3.499617e+01	-6.509930e+01
5.000000e-07	-5.013007e-06	-9.887444e-10	-3.485882e+01	-6.495015e+01
5.100000e-07	-4.993050e-06	-1.071320e-09	-3.472004e+01	-6.479764e+01
5.200000e-07	-4.972699e-06	-9.685395e-10	-3.457853e+01	-6.464181e+01
5.300000e-07	-4.951993e-06	-9.549896e-10	-3.443455e+01	-6.448269e+01
5.400000e-07	-4.930934e-06	-1.062743e-09	-3.428811e+01	-6.432033e+01
5.500000e-07	-4.909545e-06	-1.011041e-09	-3.413938e+01	-6.415478e+01
5.600000e-07	-4.887825e-06	-9.191733e-10	-3.398834e+01	-6.398609e+01
5.700000e-07	-4.865749e-06	-1.022491e-09	-3.383483e+01	-6.381429e+01
5.800000e-07	-4.843335e-06	-1.038784e-09	-3.367897e+01	-6.363943e+01
5.900000e-07	-4.820569e-06	-9.333729e-10	-3.352066e+01	-6.346157e+01
6.000000e-07	-4.797385e-06	-9.645903e-10	-3.335945e+01	-6.328074e+01
6.100000e-07	-4.773871e-06	-1.024649e-09	-3.319594e+01	-6.309700e+01
6.200000e-07	-4.750223e-06	-9.399299e-10	-3.303150e+01	-6.291039e+01
6.300000e-07	-4.726450e-06	-9.312992e-10	-3.286619e+01	-6.272097e+01
6.400000e-07	-4.702453e-06	-9.990384e-10	-3.269932e+01	-6.252877e+01
6.500000e-07	-4.677971e-06	-9.626209e-10	-3.252908e+01	-6.233385e+01
6.600000e-07	-4.652885e-06	-9.300630e-10	-3.235464e+01	-6.213625e+01
6.700000e-07	-4.627271e-06	-9.813650e-10	-3.217653e+01	-6.193603e+01
6.800000e-07	-4.601125e-06	-9.655771e-10	-3.199472e+01	-6.173324e+01
6.900000e-07	-4.574529e-06	-9.196303e-10	-3.180979e+01	-6.152791e+01
7.000000e-07	-4.547609e-06	-9.510811e-10	-3.162259e+01	-6.132011e+01
7.100000e-07	-4.520388e-06	-9.546310e-10	-3.143330e+01	-6.110989e+01
7.200000e-07	-4.492900e-06	-9.169561e-10	-3.124216e+01	-6.089730e+01
7.300000e-07	-4.465231e-06	-9.305273e-10	-3.104976e+01	-6.068239e+01
7.400000e-07	-4.437354e-06	-9.511769e-10	-3.085592e+01	-6.046521e+01
7.500000e-07	-4.409131e-06	-9.195356e-10	-3.065966e+01	-6.024583e+01
7.600000e-07	-4.380615e-06	-9.163771e-10	-3.046137e+01	-6.002429e+01
7.700000e-07	-4.351822e-06	-9.274404e-10	-3.026115e+01	-5.980066e+01
7.800000e-07	-4.322712e-06	-9.069915e-10	-3.005873e+01	-5.957498e+01
7.900000e-07	-4.293354e-06	-8.938100e-10	-2.985459e+01	-5.934731e+01
8.000000e-07	-4.263744e-06	-9.104172e-10	-2.964869e+01	-5.911772e+01
8.100000e-07	-4.233791e-06	-8.961854e-10	-2.944040e+01	-5.888625e+01
8.200000e-07	-4.203512e-06	-8.837700e-10	-2.922985e+01	-5.865295e+01
8.300000e-07	-4.172911e-06	-8.973459e-10	-2.901706e+01	-5.841788e+01
8.400000e-07	-4.142056e-06	-8.962405e-10	-2.880251e+01	-5.818109e+01
8.500000e-07	-4.111040e-06	-8.727361e-10	-2.858683e+01	-5.794262e+01
8.600000e-07	-4.079737e-06	-8.785151e-10	-2.836916e+01	-5.770251e+01
8.700000e-07	-4.048205e-06	-8.811978e-10	-2.814990e+01	-5.746080e+01
8.800000e-07	-4.016569e-06	-8.633108e-10	-2.792991e+01	-5.721752e+01
8.900000e-07	-3.984730e-06	-8.611238e-10	-2.770852e+01	-5.697269e+01
9.000000e-07	-3.952523e-06	-8.712771e-10	-2.748455e+01	-5.672635e+01
9.100000e-07	-3.919839e-06	-8.525987e-10	-2.725728e+01	-5.647849e+01
9.200000e-07	-3.886762e-06	-8.415862e-10	-2.702728e+01	-5.622912e+01
9.300000e-07	-3.853443e-06	-8.515735e-10	-2.679558e+01	-5.597824e+01
9.400000e-07	-3.819751e-06	-8.459291e-10	-2.656130e+01	-5.572583e+01
9.500000e-07	-3.785565e-06	-8.318984e-10	-2.632358e+01	-5.547186e+01
9.600000e-07	-3.750975e-06	-8.384597e-10	-2.608305e+01	-5.521631e+01
9.700000e-07	-3.716050e-06	-8.367179e-10	-2.584020e+01	-5.495911e+01
9.800000e-07	-3.680811e-06	-8.171087e-10	-2.559516e+01	-5.470021e+01
9.900000e-07	-3.645351e-06	-8.149685e-10	-2.534859e+01	-5.443955e+01
1.000000e-06	-3.609749e-06	-8.192913e-10	-2.510102e+01	-5.417703e+01
1.010000e-06	-3.574004e-06	-8.086399e-10	-2.485246e+01	-5.391255e+01
1.020000e-06	-3.538081e-06	-8.020568e-10	-2.460266e+01	-5.364602e+01
1.030000e-06	-3.501959e-06	-8.068640e-10	-2.435148e+01	-5.337730e+01
1.040000e-06	-3.465622e-06	-7.965961e-10	-2.409880e+01	-5.310626e+01
1.050000e-06	-3.429016e-06	-7.822990e-10	-2.384426e+01	-5.283275e+01
1.060000e-06	-3.392200e-06	-7.782342e-10	-2.358826e+01	-5.255661e+01
1.070000e-06	-3.355090e-06	-7.732861e-10	-2.333020e+01	-5.227768e+01
1.080000e-06	-3.317655e-06	-7.620386e-10	-2.306989e+01	-5.199576e+01
1.090000e-06	-3.280009e-06	-7.618027e-10	-2.280811e+01	-5.171067e+01
1.100000e-06	-3.242203e-06	-7.598666e-10	-2.254522e+01	-5.142221e+01
1.110000e-06	-3.204173e-06	-7.487895e-10	-2.228077e+01	-5.113015e+01
1.120000e-06	-3.165983e-06	-7.387644e-10	-2.201522e+01	-5.083429e+01
1.130000e-06	-3.127674e-06	-7.349827e-10	-2.174883e+01	-5.053440e+01
1.140000e-06	-3.089001e-06	-7.237108e-10	-2.147991e+01	-5.023025e+01
1.150000e-06	-3.050061e-06	-7.146229e-10	-2.120913e+01	-4.992161e+01
1.160000e-06	-3.010923e-06	-7.127005e-10	-2.093698e+01	-4.960823e+01
1.170000e-06	-2.971548e-06	-7.101428e-10	-2.066317e+01	-4.928988e+01
1.180000e-06	-2.932023e-06	-7.034536e-10	-2.038833e+01	-4.896631e+01
1.190000e-06	-2.892426e-06	-6.997353e-10	-2.011299e+01	-4.863730e+01
1.200000e-06	-2.852743e-06	-6.941838e-10	-1.983705e+01	-4.830259e+01
1.210000e-06	-2.812910e-06	-6.855155e-10	-1.956006e+01	-4.796197e+01
1.220000e-06	-2.772947e-06	-6.799657e-10	-1.928217e+01	-4.761519e+01
1.230000e-06	-2.732829e-06	-6.762858e-10	-1.900320e+01	-4.726204e+01
1.240000e-06	-2.692509e-06	-6.666691e-10	-1.872283e+01	-4.690230e+01
1.250000e-06	-2.651912e-06	-6.587270e-10	-1.844053e+01	-4.653576e+01
1.260000e-06	-2.611087e-06	-6.567729e-10	-1.815664e+01	-4.616223e+01
1.270000e-06	-2.570040e-06	-6.531473e-10	-1.787122e+01	-4.578150e+01
1.280000e-06	-2.528742e-06	-6.467682e-10	-1.758405e+01	-4.539340e+01
1.290000e-06	-2.487150e-06	-6.402648e-10	-1.729483e+01	-4.499776e+01
1.300000e-06	-2.445191e-06	-6.325286e-10	-1.700306e+01	-4.459443e+01
1.310000e-06	-2.402860e-06	-6.240017e-10	-1.670870e+01	-4.418324e+01
1.320000e-06	-2.360211e-06	-6.169690e-10	-1.641214e+01	-4.376407e+01
1.330000e-06	-2.317457e-06	-6.120190e-10	-1.611484e+01	-4.333678e+01
1.340000e-06	-2.274565e-06	-6.087037e-10	-1.581658e+01	-4.290127e+01
1.350000e-06	-2.231440e-06	-6.051212e-10	-1.551670e+01	-4.245743e+01
1.360000e-06	-2.188114e-06	-6.004759e-10	-1.521543e+01	-4.200516e+01
1.370000e-06	-2.144594e-06	-5.930579e-10	-1.491281e+01	-4.154437e+01
1.380000e-06	-2.100962e-06	-5.867358e-10	-1.460941e+01	-4.107499e+01
1.390000e-06	-2.057236e-06	-5.794804e-10	-1.430535e+01	-4.059695e+01
1.400000e-06	-2.013431e-06	-5.709136e-10	-1.400074e+01	-4.011018e+01
1.410000e-06	-1.969557e-06	-5.625115e-10	-1.369566e+01	-3.961462e+01
1.420000e-06	-1.925588e-06	-5.550949e-10	-1.338991e+01	-3.911021e+01
1.430000e-06	-1.881524e-06	-5.486761e-10	-1.308350e+01	-3.859690e+01
1.440000e-06	-1.837393e-06	-5.445726e-10	-1.277663e+01	-3.807464e+01
1.450000e-06	-1.793159e-06	-5.386802e-10	-1.246904e+01	-3.754337e+01
1.460000e-06	-1.748733e-06	-5.290225e-10	-1.216012e+01	-3.700304e+01
1.470000e-06	-1.704233e-06	-5.151496e-10	-1.185068e+01	-3.645358e+01
1.480000e-06	-1.659684e-06	-5.030575e-10	-1.154090e+01	-3.589492e+01
1.490000e-06	-1.614938e-06	-4.913399e-10	-1.122975e+01	-3.532701e+01
1.500000e-06	-1.569971e-06	-4.810471e-10	-1.091706e+01	-3.474976e+01
1.510000e-06	-1.524799e-06	-4.724282e-10	-1.060296e+01	-3.416308e+01
1.520000e-06	-1.479569e-06	-4.651939e-10	-1.028844e+01	-3.356687e+01
1.530000e-06	-1.434499e-06	-4.558635e-10	-9.975037e+00	-3.296103e+01
1.540000e-06	-1.389307e-06	-4.450631e-10	-9.660788e+00	-3.234543e+01
1.550000e-06	-1.343870e-06	-4.332947e-10	-9.344836e+00	-3.171994e+01
1.560000e-06	-1.298343e-06	-4.191114e-10	-9.028253e+00	-3.108442e+01
1.570000e-06	-1.252757e-06	-4.080306e-10	-8.711264e+00	-3.043871e+01
1.580000e-06	-1.207160e-06	-3.993616e-10	-8.394195e+00	-2.978264e+01
1.590000e-06	-1.161400e-06	-3.888195e-10	-8.075995e+00	-2.911602e+01
1.600000e-06	-1.115499e-06	-3.801013e-10	-7.756820e+00	-2.843867e+01
1.610000e-06	-1.069479e-06	-3.739444e-10	-7.436810e+00	-2.775037e+01
1.620000e-06	-1.023363e-06	-3.651920e-10	-7.116132e+00	-2.705091e+01
1.630000e-06	-9.772551e-07	-3.534861e-10	-6.795513e+00	-2.634007e+01
1.640000e-06	-9.310733e-07	-3.375979e-10	-6.474380e+00	-2.561761e+01
1.650000e-06	-8.848815e-07	-3.214279e-10	-6.153177e+00	-2.488330e+01
1.660000e-06	-8.386430e-07	-3.057215e-10	-5.831650e+00	-2.413689e+01
1.670000e-06	-7.922846e-07	-2.940394e-10	-5.509289e+00	-2.337814e+01
1.680000e-06	-7.459383e-07	-2.858779e-10	-5.187012e+00	-2.260681e+01
1.690000e-06	-6.996016e-07	-2.794507e-10	-4.864801e+00	-2.182267e+01
1.700000e-06	-6.531326e-07	-2.707729e-10	-4.541671e+00	-2.102548e+01
1.710000e-06	-6.065545e-07	-2.562124e-10	-4.217782e+00	-2.021502e+01
1.720000e-06	-5.600638e-07	-2.375248e-10	-3.894501e+00	-1.939109e+01
1.730000e-06	-5.134460e-07	-2.204597e-10	-3.570336e+00	-1.855349e+01
1.740000e-06	-4.667420e-07	-2.055334e-10	-3.245572e+00	-1.770204e+01
1.750000e-06	-4.201609e-07	-1.934666e-10	-2.921662e+00	-1.683661e+01
1.760000e-06	-3.734869e-07	-1.829106e-10	-2.597106e+00	-1.595705e+01
1.770000e-06	-3.266663e-07	-1.747148e-10	-2.271531e+00	-1.506328e+01
1.780000e-06	-2.798066e-07	-1.659163e-10	-1.945684e+00	-1.415522e+01
1.790000e-06	-2.329907e-07	-1.499797e-10	-1.620142e+00	-1.323286e+01
1.800000e-06	-1.861834e-07	-1.296240e-10	-1.294658e+00	-1.229618e+01
1.810000e-06	-1.393777e-07	-1.091798e-10	-9.691872e-01	-1.134526e+01
1.820000e-06	-9.255650e-08	-9.177474e-11	-6.436077e-01	-1.038017e+01
1.830000e-06	-4.573610e-08	-7.904111e-11	-3.180339e-01	-9.401056e+00
1.840000e-06	1.060595e-09	-6.934561e-11	7.375034e-03	-8.408103e+00
1.850000e-06	4.780033e-08	-6.061105e-11	3.323879e-01	-7.401546e+00
1.860000e-06	9.456432e-08	-5.017099e-11	6.575694e-01	-6.381671e+00
1.870000e-06	1.414189e-07	-3.487854e-11	9.833808e-01	-5.348818e+00
1.880000e-06	1.882602e-07	-1.757435e-11	1.309100e+00	-4.303380e+00
1.890000e-06	2.350724e-07	1.808109e-12	1.634617e+00	-3.245802e+00
1.900000e-06	2.818943e-07	1.982835e-11	1.960201e+00	-2.176584e+00
1.910000e-06	3.287155e-07	3.329916e-11	2.285780e+00	-1.096279e+00
1.920000e-06	3.754416e-07	4.361029e-11	2.610699e+00	-5.494638e-03
1.930000e-06	4.220696e-07	5.545764e-11	2.934934e+00	1.095112e+00
1.940000e-06	4.685888e-07	6.756109e-11	3.258414e+00	2.204833e+00
1.950000e-06	5.151085e-07	7.952954e-11	3.581897e+00	3.322912e+00
1.960000e-06	5.616063e-07	9.220881e-11	3.905227e+00	4.448547e+00
1.970000e-06	6.079730e-07	1.062721e-10	4.227646e+00	5.580892e+00
1.980000e-06	6.543282e-07	1.220415e-10	4.549985e+00	6.719062e+00
1.990000e-06	7.007292e-07	1.414992e-10	4.872642e+00	7.862135e+00
2.000000e-06	7.471448e-07	1.613849e-10	5.195402e+00	9.009156e+00
2.010000e-06	7.935041e-07	1.771037e-10	5.517769e+00	1.015914e+01
2.020000e-06	8.397695e-07	1.904676e-10	5.839483e+00	1.131108e+01
2.030000e-06	8.860388e-07	2.034991e-10	6.161225e+00	1.246395e+01
2.040000e-06	9.322950e-07	2.160877e-10	6.482876e+00	1.361670e+01
2.050000e-06	9.783756e-07	2.318225e-10	6.803305e+00	1.476828e+01
2.060000e-06	1.024310e-06	2.499936e-10	7.122715e+00	1.591764e+01
2.070000e-06	1.070198e-06	2.665869e-10	7.441812e+00	1.706370e+01
2.080000e-06	1.116025e-06	2.831004e-10	7.760477e+00	1.820542e+01
2.090000e-06	1.161751e-06	2.999896e-10	8.078438e+00	1.934175e+01
2.100000e-06	1.207476e-06	3.154455e-10	8.396392e+00	2.047167e+01
2.110000e-06	1.253151e-06	3.284773e-10	8.714004e+00	2.159416e+01
2.120000e-06	1.298679e-06	3.421819e-10	9.030587e+00	2.270825e+01
2.130000e-06	1.344083e-06	3.572852e-10	9.346316e+00	2.381298e+01
2.140000e-06	1.389346e-06	3.733116e-10	9.661058e+00	2.490743e+01
2.150000e-06	1.434512e-06	3.894080e-10	9.975131e+00	2.599074e+01
2.160000e-06	1.479600e-06	4.036084e-10	1.028866e+01	2.706205e+01
2.170000e-06	1.524656e-06	4.173428e-10	1.060196e+01	2.812059e+01
2.180000e-06	1.569626e-06	4.326486e-10	1.091467e+01	2.916561e+01
2.190000e-06	1.614385e-06	4.478783e-10	1.122590e+01	3.019644e+01
2.200000e-06	1.658929e-06	4.619420e-10	1.153565e+01	3.121244e+01
2.210000e-06	1.703354e-06	4.762204e-10	1.184457e+01	3.221304e+01
2.220000e-06	1.747649e-06	4.903779e-10	1.215258e+01	3.319774e+01
2.230000e-06	1.791884e-06	5.016981e-10	1.246017e+01	3.416609e+01
2.240000e-06	1.836080e-06	5.111309e-10	1.276750e+01	3.511770e+01
2.250000e-06	1.880132e-06	5.201777e-10	1.307382e+01	3.605224e+01
2.260000e-06	1.924073e-06	5.314922e-10	1.337937e+01	3.696947e+01
2.270000e-06	1.967863e-06	5.442220e-10	1.368388e+01	3.786917e+01
2.280000e-06	2.011548e-06	5.573956e-10	1.398765e+01	3.875121e+01
2.290000e-06	2.055213e-06	5.712434e-10	1.429128e+01	3.961552e+01
2.300000e-06	2.098846e-06	5.848817e-10	1.459469e+01	4.046208e+01
2.310000e-06	2.142391e-06	5.968814e-10	1.489749e+01	4.129092e+01
2.320000e-06	2.185814e-06	6.061722e-10	1.519943e+01	4.210213e+01
2.330000e-06	2.229214e-06	6.141907e-10	1.550123e+01	4.289585e+01
2.340000e-06	2.272502e-06	6.250253e-10	1.580224e+01	4.367227e+01
2.350000e-06	2.315508e-06	6.374360e-10	1.610129e+01	4.443162e+01
2.360000e-06	2.358250e-06	6.485768e-10	1.639850e+01	4.517417e+01
2.370000e-06	2.400711e-06	6.586615e-10	1.669376e+01	4.590023e+01
2.380000e-06	2.442892e-06	6.693103e-10	1.698708e+01	4.661012e+01
2.390000e-06	2.484813e-06	6.806708e-10	1.727858e+01	4.730423e+01
2.400000e-06	2.526443e-06	6.910477e-10	1.756806e+01	4.798292e+01
2.410000e-06	2.567745e-06	7.009850e-10	1.785526e+01	4.864662e+01
2.420000e-06	2.608735e-06	7.127669e-10	1.814029e+01	4.929573e+01
2.430000e-06	2.649516e-06	7.238195e-10	1.842387e+01	4.993068e+01
2.440000e-06	2.690111e-06	7.339866e-10	1.870616e+01	5.055191e+01
2.450000e-06	2.730508e-06	7.459713e-10	1.898706e+01	5.115986e+01
2.460000e-06	2.770709e-06	7.542196e-10	1.926661e+01	5.175494e+01
2.470000e-06	2.810669e-06	7.610835e-10	1.954448e+01	5.233759e+01
2.480000e-06	2.850428e-06	7.643062e-10	1.982094e+01	5.290821e+01
2.490000e-06	2.890046e-06	7.684480e-10	2.009644e+01	5.346720e+01
2.500000e-06	2.929590e-06	7.769477e-10	2.037142e+01	5.401494e+01
2.510000e-06	2.968994e-06	7.897973e-10	2.064542e+01	5.455179e+01
2.520000e-06	3.008165e-06	8.011307e-10	2.091780e+01	5.507809e+01
2.530000e-06	3.047137e-06	8.092093e-10	2.118880e+01	5.559413e+01
2.540000e-06	3.086002e-06	8.141191e-10	2.145905e+01	5.610021e+01
2.550000e-06	3.124665e-06	8.149766e-10	2.172790e+01	5.659658e+01
2.560000e-06	3.163002e-06	8.172986e-10	2.199449e+01	5.708347e+01
2.570000e-06	3.201119e-06	8.228565e-10	2.225954e+01	5.756106e+01
2.580000e-06	3.238990e-06	8.335305e-10	2.252288e+01	5.802953e+01
2.590000e-06	3.276664e-06	8.457909e-10	2.278485e+01	5.848899e+01
2.600000e-06	3.314192e-06	8.544146e-10	2.304581e+01	5.893957e+01
2.610000e-06	3.351464e-06	8.609087e-10	2.330499e+01	5.938133e+01
2.620000e-06	3.388519e-06	8.656439e-10	2.356265e+01	5.981431e+01
2.630000e-06	3.425331e-06	8.676162e-10	2.381864e+01	6.023853e+01
2.640000e-06	3.461860e-06	8.713694e-10	2.407265e+01	6.065400e+01
2.650000e-06	3.498117e-06	8.771337e-10	2.432476e+01	6.106067e+01
2.660000e-06	3.534125e-06	8.851990e-10	2.457516e+01	6.145850e+01
2.670000e-06	3.569955e-06	8.893062e-10	2.482431e+01	6.184742e+01
2.680000e-06	3.605719e-06	8.919796e-10	2.507300e+01	6.222735e+01
2.690000e-06	3.641388e-06	8.952733e-10	2.532102e+01	6.259818e+01
2.700000e-06	3.676889e-06	8.994496e-10	2.556789e+01	6.295982e+01
2.710000e-06	3.712172e-06	9.055429e-10	2.581323e+01	6.331215e+01
2.720000e-06	3.747191e-06	9.158238e-10	2.605675e+01	6.365505e+01
2.730000e-06	3.781909e-06	9.257020e-10	2.629816e+01	6.398840e+01
2.740000e-06	3.816129e-06	9.297637e-10	2.653612e+01	6.431209e+01
2.750000e-06	3.849788e-06	9.299600e-10	2.677017e+01	6.462601e+01
2.760000e-06	3.882941e-06	9.299831e-10	2.700071e+01	6.493005e+01
2.770000e-06	3.915692e-06	9.318116e-10	2.722845e+01	6.522412e+01
2.780000e-06	3.948100e-06	9.371431e-10	2.745380e+01	6.550815e+01
2.790000e-06	3.980199e-06	9.447881e-10	2.767701e+01	6.578206e+01
2.800000e-06	4.012068e-06	9.547262e-10	2.789861e+01	6.604583e+01
2.810000e-06	4.043809e-06	9.615065e-10	2.811933e+01	6.629941e+01
2.820000e-06	4.075404e-06	9.630205e-10	2.833903e+01	6.654280e+01
2.830000e-06	4.106778e-06	9.618155e-10	2.855719e+01	6.677603e+01
2.840000e-06	4.137941e-06	9.593761e-10	2.877389e+01	6.699914e+01
2.850000e-06	4.168807e-06	9.615451e-10	2.898852e+01	6.721219e+01
2.860000e-06	4.199351e-06	9.651611e-10	2.920092e+01	6.741528e+01
2.870000e-06	4.229598e-06	9.714158e-10	2.941124e+01	6.760852e+01
2.880000e-06	4.259569e-06	9.774136e-10	2.961966e+01	6.779207e+01
2.890000e-06	4.289235e-06	9.823543e-10	2.982594e+01	6.796609e+01
2.900000e-06	4.318564e-06	9.842486e-10	3.002989e+01	6.813077e+01
2.910000e-06	4.347686e-06	9.859386e-10	3.023239e+01	6.828633e+01
