# Temperatura_=_-0.2
# Concentracion g/m^3_=_1620.0
# C_Vs_to_Am_M_A/Vsm_=_65563218390.804596
# pendiente_HvsI_1/m_=_3716.3
# ordenada_HvsI_A/m_=_1297.0
# frecuencia_Hz_=_135110.6940216594

Tiempo_(s)	Campo_(V.s)	Magnetizacion_(V.s)	Campo_(kA/m)	Magnetizacion_(A/m)
0.000000e+00	-5.525966e-06	-1.032964e-09	-3.836681e+01	-6.809177e+01
1.000000e-08	-5.526228e-06	-1.034535e-09	-3.836862e+01	-6.810062e+01
2.000000e-08	-5.526195e-06	-1.033084e-09	-3.836840e+01	-6.811055e+01
3.000000e-08	-5.525770e-06	-1.031807e-09	-3.836544e+01	-6.812145e+01
4.000000e-08	-5.524836e-06	-1.026252e-09	-3.835896e+01	-6.813321e+01
5.000000e-08	-5.523331e-06	-1.019698e-09	-3.834851e+01	-6.814568e+01
6.000000e-08	-5.521273e-06	-1.007680e-09	-3.833422e+01	-6.815869e+01
7.000000e-08	-5.518650e-06	-9.861269e-10	-3.831601e+01	-6.817204e+01
8.000000e-08	-5.515443e-06	-1.014933e-09	-3.829374e+01	-6.818552e+01
9.000000e-08	-5.511757e-06	-1.109838e-09	-3.826815e+01	-6.819888e+01
1.000000e-07	-5.507643e-06	-1.100743e-09	-3.823959e+01	-6.821187e+01
1.100000e-07	-5.503173e-06	-9.427100e-10	-3.820855e+01	-6.822423e+01
1.200000e-07	-5.498635e-06	-9.227554e-10	-3.817705e+01	-6.823569e+01
1.300000e-07	-5.493944e-06	-1.043579e-09	-3.814448e+01	-6.824594e+01
1.400000e-07	-5.488725e-06	-1.093964e-09	-3.810824e+01	-6.825469e+01
1.500000e-07	-5.483055e-06	-9.401550e-10	-3.806888e+01	-6.826165e+01
1.600000e-07	-5.477142e-06	-8.945071e-10	-3.802782e+01	-6.826652e+01
1.700000e-07	-5.470865e-06	-1.073383e-09	-3.798424e+01	-6.826900e+01
1.800000e-07	-5.464027e-06	-1.119379e-09	-3.793676e+01	-6.826880e+01
1.900000e-07	-5.456791e-06	-1.002595e-09	-3.788652e+01	-6.826563e+01
2.000000e-07	-5.449343e-06	-9.316388e-10	-3.783481e+01	-6.825921e+01
2.100000e-07	-5.441596e-06	-1.063527e-09	-3.778102e+01	-6.824929e+01
2.200000e-07	-5.433515e-06	-1.103407e-09	-3.772492e+01	-6.823560e+01
2.300000e-07	-5.425255e-06	-1.031423e-09	-3.766757e+01	-6.821792e+01
2.400000e-07	-5.416741e-06	-9.765370e-10	-3.760846e+01	-6.819604e+01
2.500000e-07	-5.407496e-06	-1.060566e-09	-3.754427e+01	-6.816974e+01
2.600000e-07	-5.397430e-06	-1.085122e-09	-3.747438e+01	-6.813887e+01
2.700000e-07	-5.386891e-06	-1.033603e-09	-3.740121e+01	-6.810325e+01
2.800000e-07	-5.375851e-06	-9.984090e-10	-3.732456e+01	-6.806277e+01
2.900000e-07	-5.364286e-06	-1.053833e-09	-3.724426e+01	-6.801731e+01
3.000000e-07	-5.352384e-06	-1.073019e-09	-3.716163e+01	-6.796679e+01
3.100000e-07	-5.340120e-06	-1.015233e-09	-3.707648e+01	-6.791114e+01
3.200000e-07	-5.327295e-06	-9.901149e-10	-3.698743e+01	-6.785034e+01
3.300000e-07	-5.314013e-06	-1.038675e-09	-3.689522e+01	-6.778437e+01
3.400000e-07	-5.300449e-06	-1.069185e-09	-3.680104e+01	-6.771324e+01
3.500000e-07	-5.286500e-06	-9.940368e-10	-3.670419e+01	-6.763698e+01
3.600000e-07	-5.272030e-06	-9.866139e-10	-3.660372e+01	-6.755564e+01
3.700000e-07	-5.257215e-06	-1.056478e-09	-3.650086e+01	-6.746930e+01
3.800000e-07	-5.242106e-06	-1.048638e-09	-3.639597e+01	-6.737806e+01
3.900000e-07	-5.226235e-06	-9.649885e-10	-3.628577e+01	-6.728201e+01
4.000000e-07	-5.209857e-06	-1.033982e-09	-3.617206e+01	-6.718130e+01
4.100000e-07	-5.193344e-06	-1.080324e-09	-3.605741e+01	-6.707606e+01
4.200000e-07	-5.176431e-06	-9.751691e-10	-3.593998e+01	-6.696643e+01
4.300000e-07	-5.159149e-06	-9.549896e-10	-3.582000e+01	-6.685260e+01
4.400000e-07	-5.141671e-06	-1.096328e-09	-3.569864e+01	-6.673473e+01
4.500000e-07	-5.123735e-06	-1.036696e-09	-3.557411e+01	-6.661299e+01
4.600000e-07	-5.105208e-06	-9.224200e-10	-3.544548e+01	-6.648759e+01
4.700000e-07	-5.086274e-06	-1.018581e-09	-3.531402e+01	-6.635870e+01
4.800000e-07	-5.067051e-06	-1.078420e-09	-3.518056e+01	-6.622653e+01
4.900000e-07	-5.047583e-06	-9.423087e-10	-3.504539e+01	-6.609126e+01
5.000000e-07	-5.027878e-06	-9.767829e-10	-3.490858e+01	-6.595308e+01
5.100000e-07	-5.008001e-06	-1.070967e-09	-3.477057e+01	-6.581218e+01
5.200000e-07	-4.987864e-06	-9.693513e-10	-3.463076e+01	-6.566874e+01
5.300000e-07	-4.967262e-06	-9.339923e-10	-3.448772e+01	-6.552296e+01
5.400000e-07	-4.946307e-06	-1.073424e-09	-3.434223e+01	-6.537499e+01
5.500000e-07	-4.925069e-06	-1.015397e-09	-3.419478e+01	-6.522500e+01
5.600000e-07	-4.903415e-06	-9.016708e-10	-3.404443e+01	-6.507315e+01
5.700000e-07	-4.881436e-06	-1.001459e-09	-3.389183e+01	-6.491958e+01
5.800000e-07	-4.859132e-06	-1.043169e-09	-3.373697e+01	-6.476444e+01
5.900000e-07	-4.836340e-06	-9.321103e-10	-3.357873e+01	-6.460785e+01
6.000000e-07	-4.813175e-06	-9.675171e-10	-3.341789e+01	-6.444993e+01
6.100000e-07	-4.789851e-06	-1.042038e-09	-3.325596e+01	-6.429078e+01
6.200000e-07	-4.766313e-06	-9.556118e-10	-3.309253e+01	-6.413049e+01
6.300000e-07	-4.742509e-06	-9.292403e-10	-3.292726e+01	-6.396917e+01
6.400000e-07	-4.718496e-06	-9.928996e-10	-3.276054e+01	-6.380686e+01
6.500000e-07	-4.694151e-06	-9.614193e-10	-3.259151e+01	-6.364365e+01
6.600000e-07	-4.669399e-06	-9.238431e-10	-3.241966e+01	-6.347959e+01
6.700000e-07	-4.644125e-06	-9.806983e-10	-3.224418e+01	-6.331471e+01
6.800000e-07	-4.618315e-06	-9.747271e-10	-3.206498e+01	-6.314906e+01
6.900000e-07	-4.592003e-06	-9.343624e-10	-3.188230e+01	-6.298265e+01
7.000000e-07	-4.565133e-06	-9.544393e-10	-3.169573e+01	-6.281552e+01
7.100000e-07	-4.537881e-06	-9.666141e-10	-3.150653e+01	-6.264766e+01
7.200000e-07	-4.510410e-06	-9.269986e-10	-3.131579e+01	-6.247909e+01
7.300000e-07	-4.482766e-06	-9.385540e-10	-3.112386e+01	-6.230979e+01
7.400000e-07	-4.454899e-06	-9.542483e-10	-3.093038e+01	-6.213976e+01
7.500000e-07	-4.426727e-06	-9.383242e-10	-3.073478e+01	-6.196899e+01
7.600000e-07	-4.398286e-06	-9.308097e-10	-3.053731e+01	-6.179745e+01
7.700000e-07	-4.369641e-06	-9.412694e-10	-3.033844e+01	-6.162512e+01
7.800000e-07	-4.340654e-06	-9.231756e-10	-3.013718e+01	-6.145196e+01
7.900000e-07	-4.311277e-06	-9.209171e-10	-2.993321e+01	-6.127795e+01
8.000000e-07	-4.281652e-06	-9.326729e-10	-2.972753e+01	-6.110305e+01
8.100000e-07	-4.251736e-06	-9.255768e-10	-2.951982e+01	-6.092720e+01
8.200000e-07	-4.221532e-06	-9.119098e-10	-2.931012e+01	-6.075038e+01
8.300000e-07	-4.191060e-06	-9.247784e-10	-2.909854e+01	-6.057253e+01
8.400000e-07	-4.160238e-06	-9.182648e-10	-2.888455e+01	-6.039359e+01
8.500000e-07	-4.129140e-06	-8.990364e-10	-2.866864e+01	-6.021351e+01
8.600000e-07	-4.097930e-06	-9.065063e-10	-2.845194e+01	-6.003222e+01
8.700000e-07	-4.066526e-06	-9.146491e-10	-2.823391e+01	-5.984966e+01
8.800000e-07	-4.034845e-06	-8.978753e-10	-2.801394e+01	-5.966576e+01
8.900000e-07	-4.002979e-06	-8.941273e-10	-2.779270e+01	-5.948044e+01
9.000000e-07	-3.970914e-06	-9.042628e-10	-2.757007e+01	-5.929363e+01
9.100000e-07	-3.938543e-06	-8.888630e-10	-2.734532e+01	-5.910523e+01
9.200000e-07	-3.905773e-06	-8.797722e-10	-2.711780e+01	-5.891515e+01
9.300000e-07	-3.872610e-06	-8.930136e-10	-2.688755e+01	-5.872330e+01
9.400000e-07	-3.839028e-06	-8.909601e-10	-2.665439e+01	-5.852956e+01
9.500000e-07	-3.805003e-06	-8.733201e-10	-2.641816e+01	-5.833384e+01
9.600000e-07	-3.770558e-06	-8.782371e-10	-2.617900e+01	-5.813601e+01
9.700000e-07	-3.735691e-06	-8.777271e-10	-2.593692e+01	-5.793595e+01
9.800000e-07	-3.700489e-06	-8.619037e-10	-2.569251e+01	-5.773353e+01
9.900000e-07	-3.665065e-06	-8.589967e-10	-2.544656e+01	-5.752861e+01
1.000000e-06	-3.629466e-06	-8.686230e-10	-2.519940e+01	-5.732104e+01
1.010000e-06	-3.593684e-06	-8.601946e-10	-2.495096e+01	-5.711068e+01
1.020000e-06	-3.557743e-06	-8.572176e-10	-2.470143e+01	-5.689738e+01
1.030000e-06	-3.521693e-06	-8.622396e-10	-2.445113e+01	-5.668095e+01
1.040000e-06	-3.485412e-06	-8.563641e-10	-2.419923e+01	-5.646126e+01
1.050000e-06	-3.448829e-06	-8.400842e-10	-2.394524e+01	-5.623811e+01
1.060000e-06	-3.412044e-06	-8.363357e-10	-2.368984e+01	-5.601133e+01
1.070000e-06	-3.375043e-06	-8.282388e-10	-2.343294e+01	-5.578076e+01
1.080000e-06	-3.337740e-06	-8.181626e-10	-2.317394e+01	-5.554619e+01
1.090000e-06	-3.300165e-06	-8.195100e-10	-2.291306e+01	-5.530747e+01
1.100000e-06	-3.262343e-06	-8.244446e-10	-2.265046e+01	-5.506439e+01
1.110000e-06	-3.224240e-06	-8.166106e-10	-2.238591e+01	-5.481679e+01
1.120000e-06	-3.185926e-06	-8.091584e-10	-2.211990e+01	-5.456447e+01
1.130000e-06	-3.147501e-06	-8.051959e-10	-2.185311e+01	-5.430728e+01
1.140000e-06	-3.108855e-06	-7.961812e-10	-2.158479e+01	-5.404502e+01
1.150000e-06	-3.069895e-06	-7.847740e-10	-2.131429e+01	-5.377753e+01
1.160000e-06	-3.030738e-06	-7.785689e-10	-2.104243e+01	-5.350466e+01
1.170000e-06	-2.991472e-06	-7.746355e-10	-2.076980e+01	-5.322624e+01
1.180000e-06	-2.952015e-06	-7.721001e-10	-2.049585e+01	-5.294213e+01
1.190000e-06	-2.912341e-06	-7.729092e-10	-2.022040e+01	-5.265218e+01
1.200000e-06	-2.872557e-06	-7.712487e-10	-1.994418e+01	-5.235628e+01
1.210000e-06	-2.832660e-06	-7.645478e-10	-1.966717e+01	-5.205430e+01
1.220000e-06	-2.792682e-06	-7.552008e-10	-1.938960e+01	-5.174613e+01
1.230000e-06	-2.752558e-06	-7.467869e-10	-1.911102e+01	-5.143168e+01
1.240000e-06	-2.712267e-06	-7.382240e-10	-1.883128e+01	-5.111085e+01
1.250000e-06	-2.671898e-06	-7.358499e-10	-1.855100e+01	-5.078357e+01
1.260000e-06	-2.631230e-06	-7.375410e-10	-1.826864e+01	-5.044978e+01
1.270000e-06	-2.590116e-06	-7.413554e-10	-1.798319e+01	-5.010942e+01
1.280000e-06	-2.548616e-06	-7.361569e-10	-1.769505e+01	-4.976245e+01
1.290000e-06	-2.506819e-06	-7.277276e-10	-1.740486e+01	-4.940882e+01
1.300000e-06	-2.464812e-06	-7.186548e-10	-1.711320e+01	-4.904852e+01
1.310000e-06	-2.422677e-06	-7.105821e-10	-1.682065e+01	-4.868152e+01
1.320000e-06	-2.380351e-06	-7.041432e-10	-1.652679e+01	-4.830781e+01
1.330000e-06	-2.337641e-06	-7.021000e-10	-1.623025e+01	-4.792737e+01
1.340000e-06	-2.294658e-06	-7.007060e-10	-1.593182e+01	-4.754020e+01
1.350000e-06	-2.251506e-06	-6.977016e-10	-1.563222e+01	-4.714629e+01
1.360000e-06	-2.208126e-06	-6.910617e-10	-1.533103e+01	-4.674562e+01
1.370000e-06	-2.164597e-06	-6.842897e-10	-1.502881e+01	-4.633818e+01
1.380000e-06	-2.120999e-06	-6.758004e-10	-1.472610e+01	-4.592397e+01
1.390000e-06	-2.077307e-06	-6.680987e-10	-1.442275e+01	-4.550294e+01
1.400000e-06	-2.033490e-06	-6.624801e-10	-1.411853e+01	-4.507505e+01
1.410000e-06	-1.989596e-06	-6.566687e-10	-1.381377e+01	-4.464027e+01
1.420000e-06	-1.945648e-06	-6.511668e-10	-1.350864e+01	-4.419852e+01
1.430000e-06	-1.901592e-06	-6.452071e-10	-1.320276e+01	-4.374973e+01
1.440000e-06	-1.857355e-06	-6.376919e-10	-1.289562e+01	-4.329378e+01
1.450000e-06	-1.813015e-06	-6.288544e-10	-1.258777e+01	-4.283055e+01
1.460000e-06	-1.768646e-06	-6.199559e-10	-1.227972e+01	-4.235991e+01
1.470000e-06	-1.724151e-06	-6.093478e-10	-1.197079e+01	-4.188167e+01
1.480000e-06	-1.679537e-06	-5.999387e-10	-1.166103e+01	-4.139564e+01
1.490000e-06	-1.634746e-06	-5.899327e-10	-1.135005e+01	-4.090158e+01
1.500000e-06	-1.589774e-06	-5.836430e-10	-1.103781e+01	-4.039925e+01
1.510000e-06	-1.544753e-06	-5.799590e-10	-1.072522e+01	-3.988835e+01
1.520000e-06	-1.499595e-06	-5.729615e-10	-1.041169e+01	-3.936858e+01
1.530000e-06	-1.454266e-06	-5.612499e-10	-1.009697e+01	-3.883958e+01
1.540000e-06	-1.408869e-06	-5.482291e-10	-9.781781e+00	-3.830097e+01
1.550000e-06	-1.363467e-06	-5.354621e-10	-9.466555e+00	-3.775235e+01
1.560000e-06	-1.318024e-06	-5.232987e-10	-9.151049e+00	-3.719329e+01
1.570000e-06	-1.272451e-06	-5.139172e-10	-8.834636e+00	-3.662331e+01
1.580000e-06	-1.226676e-06	-5.061140e-10	-8.516819e+00	-3.604194e+01
1.590000e-06	-1.180758e-06	-4.985406e-10	-8.198010e+00	-3.544866e+01
1.600000e-06	-1.134850e-06	-4.904847e-10	-7.879269e+00	-3.484295e+01
1.610000e-06	-1.088904e-06	-4.815584e-10	-7.560265e+00	-3.422424e+01
1.620000e-06	-1.042869e-06	-4.705758e-10	-7.240646e+00	-3.359199e+01
1.630000e-06	-9.967017e-07	-4.551916e-10	-6.920104e+00	-3.294561e+01
1.640000e-06	-9.504387e-07	-4.377139e-10	-6.598900e+00	-3.228453e+01
1.650000e-06	-9.041007e-07	-4.205012e-10	-6.277175e+00	-3.160817e+01
1.660000e-06	-8.576740e-07	-4.071384e-10	-5.954834e+00	-3.091594e+01
1.670000e-06	-8.112092e-07	-3.979883e-10	-5.632229e+00	-3.020728e+01
1.680000e-06	-7.646982e-07	-3.911070e-10	-5.309303e+00	-2.948163e+01
1.690000e-06	-7.182046e-07	-3.849608e-10	-4.986498e+00	-2.873845e+01
1.700000e-06	-6.717054e-07	-3.776335e-10	-4.663653e+00	-2.797721e+01
1.710000e-06	-6.251541e-07	-3.638776e-10	-4.340447e+00	-2.719744e+01
1.720000e-06	-5.785701e-07	-3.454120e-10	-4.017015e+00	-2.639868e+01
1.730000e-06	-5.318781e-07	-3.288248e-10	-3.692832e+00	-2.558051e+01
1.740000e-06	-4.850126e-07	-3.155223e-10	-3.367445e+00	-2.474257e+01
1.750000e-06	-4.381204e-07	-3.054827e-10	-3.041872e+00	-2.388454e+01
1.760000e-06	-3.913043e-07	-2.975104e-10	-2.716827e+00	-2.300615e+01
1.770000e-06	-3.444706e-07	-2.880622e-10	-2.391660e+00	-2.210720e+01
1.780000e-06	-2.976008e-07	-2.779596e-10	-2.066244e+00	-2.118756e+01
1.790000e-06	-2.507151e-07	-2.657127e-10	-1.740716e+00	-2.024715e+01
1.800000e-06	-2.038738e-07	-2.496878e-10	-1.415497e+00	-1.928597e+01
1.810000e-06	-1.570463e-07	-2.328982e-10	-1.090373e+00	-1.830412e+01
1.820000e-06	-1.101023e-07	-2.165768e-10	-7.644408e-01	-1.730175e+01
1.830000e-06	-6.315457e-08	-2.023914e-10	-4.384824e-01	-1.627909e+01
1.840000e-06	-1.628651e-08	-1.891832e-10	-1.130773e-01	-1.523648e+01
1.850000e-06	3.056250e-08	-1.763525e-10	2.121955e-01	-1.417432e+01
1.860000e-06	7.740478e-08	-1.628486e-10	5.374217e-01	-1.309312e+01
1.870000e-06	1.243261e-07	-1.464363e-10	8.631963e-01	-1.199345e+01
1.880000e-06	1.712613e-07	-1.298496e-10	1.189068e+00	-1.087597e+01
1.890000e-06	2.181165e-07	-1.140616e-10	1.514384e+00	-9.741451e+00
1.900000e-06	2.650071e-07	-9.829248e-11	1.839945e+00	-8.590711e+00
1.910000e-06	3.118331e-07	-8.430051e-11	2.165058e+00	-7.424669e+00
1.920000e-06	3.585646e-07	-7.216577e-11	2.489516e+00	-6.244315e+00
1.930000e-06	4.053656e-07	-5.872294e-11	2.814455e+00	-5.050711e+00
1.940000e-06	4.521693e-07	-4.362565e-11	3.139413e+00	-3.844993e+00
1.950000e-06	4.989198e-07	-3.007407e-11	3.464002e+00	-2.628355e+00
1.960000e-06	5.456067e-07	-1.497345e-11	3.788150e+00	-1.402055e+00
1.970000e-06	5.921302e-07	2.878979e-12	4.111163e+00	-1.674017e-01
1.980000e-06	6.385681e-07	2.147140e-11	4.433581e+00	1.074250e+00
1.990000e-06	6.850474e-07	3.993809e-11	4.756287e+00	2.321503e+00
2.000000e-06	7.315567e-07	5.909009e-11	5.079201e+00	3.572929e+00
2.010000e-06	7.780377e-07	7.696038e-11	5.401919e+00	4.827075e+00
2.020000e-06	8.243962e-07	9.275328e-11	5.723786e+00	6.082466e+00
2.030000e-06	8.706636e-07	1.088312e-10	6.045021e+00	7.337622e+00
2.040000e-06	9.168841e-07	1.252272e-10	6.365930e+00	8.591056e+00
2.050000e-06	9.629758e-07	1.421917e-10	6.685945e+00	9.841289e+00
2.060000e-06	1.008991e-06	1.609297e-10	7.005428e+00	1.108686e+01
2.070000e-06	1.054998e-06	1.802332e-10	7.324854e+00	1.232631e+01
2.080000e-06	1.100925e-06	1.992981e-10	7.643729e+00	1.355824e+01
2.090000e-06	1.146789e-06	2.162587e-10	7.962159e+00	1.478127e+01
2.100000e-06	1.192585e-06	2.302021e-10	8.280124e+00	1.599406e+01
2.110000e-06	1.238278e-06	2.437692e-10	8.597368e+00	1.719532e+01
2.120000e-06	1.283875e-06	2.588926e-10	8.913953e+00	1.838384e+01
2.130000e-06	1.329395e-06	2.752015e-10	9.229994e+00	1.955844e+01
2.140000e-06	1.374864e-06	2.916928e-10	9.545686e+00	2.071803e+01
2.150000e-06	1.420217e-06	3.080321e-10	9.860574e+00	2.186160e+01
2.160000e-06	1.465465e-06	3.239350e-10	1.017473e+01	2.298820e+01
2.170000e-06	1.510563e-06	3.412309e-10	1.048784e+01	2.409697e+01
2.180000e-06	1.555507e-06	3.587719e-10	1.079989e+01	2.518714e+01
2.190000e-06	1.600367e-06	3.739421e-10	1.111135e+01	2.625802e+01
2.200000e-06	1.645059e-06	3.876019e-10	1.142165e+01	2.730902e+01
2.210000e-06	1.689583e-06	4.000393e-10	1.173078e+01	2.833963e+01
2.220000e-06	1.734044e-06	4.127681e-10	1.203947e+01	2.934943e+01
2.230000e-06	1.778430e-06	4.264481e-10	1.234765e+01	3.033810e+01
2.240000e-06	1.822673e-06	4.395566e-10	1.265483e+01	3.130542e+01
2.250000e-06	1.866801e-06	4.523080e-10	1.296121e+01	3.225123e+01
2.260000e-06	1.910841e-06	4.652469e-10	1.326698e+01	3.317548e+01
2.270000e-06	1.954803e-06	4.797567e-10	1.357220e+01	3.407819e+01
2.280000e-06	1.998682e-06	4.936604e-10	1.387686e+01	3.495947e+01
2.290000e-06	2.042464e-06	5.054452e-10	1.418083e+01	3.581950e+01
2.300000e-06	2.086175e-06	5.154867e-10	1.448432e+01	3.665852e+01
2.310000e-06	2.129879e-06	5.253910e-10	1.478776e+01	3.747686e+01
2.320000e-06	2.173579e-06	5.355568e-10	1.509117e+01	3.827490e+01
2.330000e-06	2.217178e-06	5.452804e-10	1.539387e+01	3.905306e+01
2.340000e-06	2.260564e-06	5.552936e-10	1.569510e+01	3.981183e+01
2.350000e-06	2.303829e-06	5.666720e-10	1.599549e+01	4.055172e+01
2.360000e-06	2.346930e-06	5.804179e-10	1.629474e+01	4.127331e+01
2.370000e-06	2.389722e-06	5.938202e-10	1.659185e+01	4.197718e+01
2.380000e-06	2.432235e-06	6.042751e-10	1.688702e+01	4.266393e+01
2.390000e-06	2.474424e-06	6.123625e-10	1.717994e+01	4.333419e+01
2.400000e-06	2.516220e-06	6.184981e-10	1.747013e+01	4.398861e+01
2.410000e-06	2.557605e-06	6.243878e-10	1.775746e+01	4.462781e+01
2.420000e-06	2.598536e-06	6.330489e-10	1.804165e+01	4.525243e+01
2.430000e-06	2.639194e-06	6.445020e-10	1.832394e+01	4.586310e+01
2.440000e-06	2.679698e-06	6.574379e-10	1.860516e+01	4.646042e+01
2.450000e-06	2.719988e-06	6.705926e-10	1.888489e+01	4.704500e+01
2.460000e-06	2.760146e-06	6.819815e-10	1.916371e+01	4.761738e+01
2.470000e-06	2.800168e-06	6.894304e-10	1.944158e+01	4.817811e+01
2.480000e-06	2.840063e-06	6.926907e-10	1.971857e+01	4.872768e+01
2.490000e-06	2.879915e-06	6.951539e-10	1.999526e+01	4.926657e+01
2.500000e-06	2.919615e-06	7.005721e-10	2.027090e+01	4.979520e+01
2.510000e-06	2.959215e-06	7.091266e-10	2.054584e+01	5.031395e+01
2.520000e-06	2.998715e-06	7.178389e-10	2.082009e+01	5.082317e+01
2.530000e-06	3.037956e-06	7.266924e-10	2.109254e+01	5.132313e+01
2.540000e-06	3.076946e-06	7.347379e-10	2.136325e+01	5.181411e+01
2.550000e-06	3.115643e-06	7.390527e-10	2.163192e+01	5.229629e+01
2.560000e-06	3.154022e-06	7.407550e-10	2.189839e+01	5.276985e+01
2.570000e-06	3.192209e-06	7.424119e-10	2.216352e+01	5.323489e+01
2.580000e-06	3.230271e-06	7.451074e-10	2.242778e+01	5.369149e+01
2.590000e-06	3.268171e-06	7.492056e-10	2.269093e+01	5.413969e+01
2.600000e-06	3.305837e-06	7.559957e-10	2.295244e+01	5.457947e+01
2.610000e-06	3.343270e-06	7.650511e-10	2.321234e+01	5.501081e+01
2.620000e-06	3.380515e-06	7.744398e-10	2.347093e+01	5.543363e+01
2.630000e-06	3.417470e-06	7.816345e-10	2.372751e+01	5.584784e+01
2.640000e-06	3.454095e-06	7.852446e-10	2.398179e+01	5.625331e+01
2.650000e-06	3.490443e-06	7.875684e-10	2.423416e+01	5.664992e+01
2.660000e-06	3.526583e-06	7.911138e-10	2.448508e+01	5.703749e+01
2.670000e-06	3.562555e-06	7.952753e-10	2.473483e+01	5.741588e+01
2.680000e-06	3.598409e-06	8.005175e-10	2.498377e+01	5.778491e+01
2.690000e-06	3.634188e-06	8.064332e-10	2.523218e+01	5.814441e+01
2.700000e-06	3.669877e-06	8.114816e-10	2.547997e+01	5.849421e+01
2.710000e-06	3.705432e-06	8.153735e-10	2.572683e+01	5.883415e+01
2.720000e-06	3.740767e-06	8.180637e-10	2.597216e+01	5.916408e+01
2.730000e-06	3.775719e-06	8.212601e-10	2.621484e+01	5.948386e+01
2.740000e-06	3.810208e-06	8.243031e-10	2.645429e+01	5.979339e+01
2.750000e-06	3.844161e-06	8.275620e-10	2.669003e+01	6.009257e+01
2.760000e-06	3.877545e-06	8.316579e-10	2.692181e+01	6.038134e+01
2.770000e-06	3.910424e-06	8.377292e-10	2.715009e+01	6.065965e+01
2.780000e-06	3.942939e-06	8.451455e-10	2.737584e+01	6.092751e+01
2.790000e-06	3.975198e-06	8.520738e-10	2.759982e+01	6.118495e+01
2.800000e-06	4.007183e-06	8.582118e-10	2.782189e+01	6.143202e+01
2.810000e-06	4.039027e-06	8.628583e-10	2.804298e+01	6.166883e+01
2.820000e-06	4.070779e-06	8.657646e-10	2.826343e+01	6.189552e+01
2.830000e-06	4.102391e-06	8.669198e-10	2.848292e+01	6.211225e+01
2.840000e-06	4.133843e-06	8.665193e-10	2.870129e+01	6.231924e+01
2.850000e-06	4.165016e-06	8.679785e-10	2.891772e+01	6.251673e+01
2.860000e-06	4.195840e-06	8.737792e-10	2.913174e+01	6.270501e+01
2.870000e-06	4.226345e-06	8.797928e-10	2.934353e+01	6.288438e+01
2.880000e-06	4.256494e-06	8.846893e-10	2.955286e+01	6.305519e+01
2.890000e-06	4.286251e-06	8.880525e-10	2.975946e+01	6.321782e+01
2.900000e-06	4.315780e-06	8.914318e-10	2.996448e+01	6.337266e+01
