# Temperatura_=_-0.3
# Concentracion g/m^3_=_1620.0
# C_Vs_to_Am_M_A/Vsm_=_65563218390.804596
# pendiente_HvsI_1/m_=_3716.3
# ordenada_HvsI_A/m_=_1297.0
# frecuencia_Hz_=_135108.68973149703

Tiempo_(s)	Campo_(V.s)	Magnetizacion_(V.s)	Campo_(kA/m)	Magnetizacion_(A/m)
0.000000e+00	-5.513461e-06	-1.349150e-09	-3.835548e+01	-8.783802e+01
1.000000e-08	-5.513708e-06	-1.347489e-09	-3.835720e+01	-8.787184e+01
2.000000e-08	-5.513812e-06	-1.346374e-09	-3.835792e+01	-8.790346e+01
3.000000e-08	-5.513668e-06	-1.345840e-09	-3.835692e+01	-8.793260e+01
4.000000e-08	-5.513037e-06	-1.343994e-09	-3.835253e+01	-8.795900e+01
5.000000e-08	-5.511760e-06	-1.338883e-09	-3.834364e+01	-8.798239e+01
6.000000e-08	-5.509798e-06	-1.327890e-09	-3.833000e+01	-8.800248e+01
7.000000e-08	-5.507293e-06	-1.302217e-09	-3.831257e+01	-8.801901e+01
8.000000e-08	-5.504304e-06	-1.279562e-09	-3.829178e+01	-8.803172e+01
9.000000e-08	-5.500846e-06	-1.344697e-09	-3.826772e+01	-8.804035e+01
1.000000e-07	-5.496997e-06	-1.462460e-09	-3.824095e+01	-8.804464e+01
1.100000e-07	-5.492660e-06	-1.408858e-09	-3.821078e+01	-8.804437e+01
1.200000e-07	-5.488032e-06	-1.216432e-09	-3.817858e+01	-8.803932e+01
1.300000e-07	-5.483392e-06	-1.211584e-09	-3.814630e+01	-8.802929e+01
1.400000e-07	-5.478398e-06	-1.370093e-09	-3.811155e+01	-8.801409e+01
1.500000e-07	-5.472888e-06	-1.410377e-09	-3.807323e+01	-8.799358e+01
1.600000e-07	-5.467027e-06	-1.224380e-09	-3.803245e+01	-8.796760e+01
1.700000e-07	-5.460817e-06	-1.205123e-09	-3.798925e+01	-8.793606e+01
1.800000e-07	-5.454102e-06	-1.387542e-09	-3.794254e+01	-8.789885e+01
1.900000e-07	-5.446876e-06	-1.461824e-09	-3.789227e+01	-8.785593e+01
2.000000e-07	-5.439408e-06	-1.311452e-09	-3.784032e+01	-8.780726e+01
2.100000e-07	-5.431784e-06	-1.235261e-09	-3.778727e+01	-8.775284e+01
2.200000e-07	-5.423897e-06	-1.344425e-09	-3.773241e+01	-8.769268e+01
2.300000e-07	-5.415730e-06	-1.421746e-09	-3.767560e+01	-8.762683e+01
2.400000e-07	-5.407323e-06	-1.357857e-09	-3.761711e+01	-8.755536e+01
2.500000e-07	-5.398485e-06	-1.306511e-09	-3.755563e+01	-8.747837e+01
2.600000e-07	-5.388735e-06	-1.365936e-09	-3.748780e+01	-8.739599e+01
2.700000e-07	-5.378159e-06	-1.395756e-09	-3.741423e+01	-8.730835e+01
2.800000e-07	-5.367204e-06	-1.339564e-09	-3.733801e+01	-8.721562e+01
2.900000e-07	-5.355844e-06	-1.295347e-09	-3.725898e+01	-8.711797e+01
3.000000e-07	-5.344103e-06	-1.352657e-09	-3.717731e+01	-8.701562e+01
3.100000e-07	-5.332085e-06	-1.362002e-09	-3.709370e+01	-8.690876e+01
3.200000e-07	-5.319680e-06	-1.307420e-09	-3.700740e+01	-8.679762e+01
3.300000e-07	-5.306734e-06	-1.272412e-09	-3.691734e+01	-8.668242e+01
3.400000e-07	-5.293383e-06	-1.343452e-09	-3.682446e+01	-8.656341e+01
3.500000e-07	-5.279712e-06	-1.351511e-09	-3.672936e+01	-8.644083e+01
3.600000e-07	-5.265614e-06	-1.290115e-09	-3.663128e+01	-8.631490e+01
3.700000e-07	-5.251036e-06	-1.286645e-09	-3.652987e+01	-8.618587e+01
3.800000e-07	-5.236043e-06	-1.355346e-09	-3.642557e+01	-8.605396e+01
3.900000e-07	-5.220512e-06	-1.305453e-09	-3.631752e+01	-8.591940e+01
4.000000e-07	-5.204352e-06	-1.256063e-09	-3.620510e+01	-8.578240e+01
4.100000e-07	-5.187789e-06	-1.339368e-09	-3.608988e+01	-8.564314e+01
4.200000e-07	-5.170979e-06	-1.356255e-09	-3.597293e+01	-8.550183e+01
4.300000e-07	-5.153829e-06	-1.232081e-09	-3.585363e+01	-8.535860e+01
4.400000e-07	-5.136289e-06	-1.263430e-09	-3.573161e+01	-8.521362e+01
4.500000e-07	-5.118464e-06	-1.382746e-09	-3.560760e+01	-8.506701e+01
4.600000e-07	-5.100274e-06	-1.289387e-09	-3.548106e+01	-8.491885e+01
4.700000e-07	-5.081642e-06	-1.200815e-09	-3.535144e+01	-8.476923e+01
4.800000e-07	-5.062679e-06	-1.318762e-09	-3.521953e+01	-8.461821e+01
4.900000e-07	-5.043400e-06	-1.332809e-09	-3.508541e+01	-8.446580e+01
5.000000e-07	-5.023754e-06	-1.218374e-09	-3.494874e+01	-8.431201e+01
5.100000e-07	-5.003907e-06	-1.285192e-09	-3.481066e+01	-8.415681e+01
5.200000e-07	-4.983953e-06	-1.345196e-09	-3.467185e+01	-8.400017e+01
5.300000e-07	-4.963642e-06	-1.223903e-09	-3.453055e+01	-8.384200e+01
5.400000e-07	-4.942906e-06	-1.226180e-09	-3.438630e+01	-8.368222e+01
5.500000e-07	-4.921788e-06	-1.350351e-09	-3.423939e+01	-8.352070e+01
5.600000e-07	-4.900254e-06	-1.271023e-09	-3.408958e+01	-8.335733e+01
5.700000e-07	-4.878456e-06	-1.189475e-09	-3.393794e+01	-8.319193e+01
5.800000e-07	-4.856404e-06	-1.289222e-09	-3.378454e+01	-8.302435e+01
5.900000e-07	-4.834012e-06	-1.296336e-09	-3.362876e+01	-8.285441e+01
6.000000e-07	-4.811235e-06	-1.200481e-09	-3.347031e+01	-8.268191e+01
6.100000e-07	-4.788085e-06	-1.252379e-09	-3.330926e+01	-8.250664e+01
6.200000e-07	-4.764595e-06	-1.292887e-09	-3.314585e+01	-8.232842e+01
6.300000e-07	-4.740875e-06	-1.212982e-09	-3.298083e+01	-8.214701e+01
6.400000e-07	-4.717025e-06	-1.209943e-09	-3.281492e+01	-8.196222e+01
6.500000e-07	-4.692986e-06	-1.263486e-09	-3.264769e+01	-8.177384e+01
6.600000e-07	-4.668522e-06	-1.217676e-09	-3.247750e+01	-8.158166e+01
6.700000e-07	-4.643529e-06	-1.200320e-09	-3.230363e+01	-8.138549e+01
6.800000e-07	-4.617927e-06	-1.244399e-09	-3.212552e+01	-8.118515e+01
6.900000e-07	-4.591665e-06	-1.223296e-09	-3.194282e+01	-8.098046e+01
7.000000e-07	-4.564839e-06	-1.188944e-09	-3.175620e+01	-8.077126e+01
7.100000e-07	-4.537574e-06	-1.218901e-09	-3.156653e+01	-8.055743e+01
7.200000e-07	-4.510084e-06	-1.213788e-09	-3.137529e+01	-8.033882e+01
7.300000e-07	-4.482503e-06	-1.181530e-09	-3.118342e+01	-8.011536e+01
7.400000e-07	-4.454816e-06	-1.196784e-09	-3.099081e+01	-7.988695e+01
7.500000e-07	-4.426916e-06	-1.209981e-09	-3.079671e+01	-7.965354e+01
7.600000e-07	-4.398731e-06	-1.189838e-09	-3.060064e+01	-7.941510e+01
7.700000e-07	-4.370309e-06	-1.191504e-09	-3.040292e+01	-7.917162e+01
7.800000e-07	-4.341455e-06	-1.196254e-09	-3.020219e+01	-7.892311e+01
7.900000e-07	-4.312207e-06	-1.171383e-09	-2.999872e+01	-7.866962e+01
8.000000e-07	-4.282767e-06	-1.167525e-09	-2.979392e+01	-7.841120e+01
8.100000e-07	-4.253086e-06	-1.180416e-09	-2.958743e+01	-7.814795e+01
8.200000e-07	-4.223132e-06	-1.164484e-09	-2.937905e+01	-7.787997e+01
8.300000e-07	-4.192810e-06	-1.152205e-09	-2.916811e+01	-7.760738e+01
8.400000e-07	-4.162170e-06	-1.167467e-09	-2.895496e+01	-7.733032e+01
8.500000e-07	-4.131259e-06	-1.158969e-09	-2.873992e+01	-7.704897e+01
8.600000e-07	-4.100030e-06	-1.137391e-09	-2.852267e+01	-7.676349e+01
8.700000e-07	-4.068577e-06	-1.140739e-09	-2.830386e+01	-7.647407e+01
8.800000e-07	-4.036996e-06	-1.141268e-09	-2.808416e+01	-7.618090e+01
8.900000e-07	-4.005291e-06	-1.120133e-09	-2.786360e+01	-7.588418e+01
9.000000e-07	-3.973441e-06	-1.123413e-09	-2.764203e+01	-7.558412e+01
9.100000e-07	-3.941326e-06	-1.131096e-09	-2.741861e+01	-7.528092e+01
9.200000e-07	-3.908830e-06	-1.112412e-09	-2.719255e+01	-7.497479e+01
9.300000e-07	-3.875904e-06	-1.102077e-09	-2.696349e+01	-7.466591e+01
9.400000e-07	-3.842548e-06	-1.113905e-09	-2.673144e+01	-7.435447e+01
9.500000e-07	-3.808794e-06	-1.103316e-09	-2.649663e+01	-7.404066e+01
9.600000e-07	-3.774630e-06	-1.086652e-09	-2.625896e+01	-7.372463e+01
9.700000e-07	-3.739998e-06	-1.093026e-09	-2.601804e+01	-7.340653e+01
9.800000e-07	-3.704981e-06	-1.093423e-09	-2.577443e+01	-7.308649e+01
9.900000e-07	-3.669641e-06	-1.074944e-09	-2.552859e+01	-7.276459e+01
1.000000e-06	-3.634087e-06	-1.073889e-09	-2.528124e+01	-7.244094e+01
1.010000e-06	-3.598465e-06	-1.078331e-09	-2.503343e+01	-7.211557e+01
1.020000e-06	-3.562757e-06	-1.064518e-09	-2.478502e+01	-7.178852e+01
1.030000e-06	-3.526897e-06	-1.055321e-09	-2.453555e+01	-7.145978e+01
1.040000e-06	-3.490823e-06	-1.058553e-09	-2.428460e+01	-7.112933e+01
1.050000e-06	-3.454441e-06	-1.050275e-09	-2.403150e+01	-7.079709e+01
1.060000e-06	-3.417803e-06	-1.036802e-09	-2.377662e+01	-7.046298e+01
1.070000e-06	-3.380906e-06	-1.035101e-09	-2.351994e+01	-7.012688e+01
1.080000e-06	-3.343689e-06	-1.030449e-09	-2.326103e+01	-6.978863e+01
1.090000e-06	-3.306250e-06	-1.020945e-09	-2.300058e+01	-6.944805e+01
1.100000e-06	-3.268584e-06	-1.022023e-09	-2.273855e+01	-6.910493e+01
1.110000e-06	-3.230671e-06	-1.022306e-09	-2.247480e+01	-6.875903e+01
1.120000e-06	-3.192528e-06	-1.009887e-09	-2.220945e+01	-6.841008e+01
1.130000e-06	-3.154188e-06	-1.000767e-09	-2.194273e+01	-6.805781e+01
1.140000e-06	-3.115604e-06	-9.968597e-10	-2.167431e+01	-6.770189e+01
1.150000e-06	-3.076829e-06	-9.877622e-10	-2.140457e+01	-6.734200e+01
1.160000e-06	-3.037895e-06	-9.778069e-10	-2.113372e+01	-6.697779e+01
1.170000e-06	-2.998809e-06	-9.749279e-10	-2.086181e+01	-6.660891e+01
1.180000e-06	-2.959580e-06	-9.709015e-10	-2.058890e+01	-6.623497e+01
1.190000e-06	-2.920155e-06	-9.663588e-10	-2.031463e+01	-6.585561e+01
1.200000e-06	-2.880588e-06	-9.668884e-10	-2.003938e+01	-6.547042e+01
1.210000e-06	-2.840875e-06	-9.647509e-10	-1.976311e+01	-6.507903e+01
1.220000e-06	-2.801038e-06	-9.528524e-10	-1.948597e+01	-6.468104e+01
1.230000e-06	-2.761104e-06	-9.431405e-10	-1.920816e+01	-6.427606e+01
1.240000e-06	-2.720954e-06	-9.354106e-10	-1.892885e+01	-6.386372e+01
1.250000e-06	-2.680478e-06	-9.261547e-10	-1.864727e+01	-6.344363e+01
1.260000e-06	-2.639798e-06	-9.195407e-10	-1.836428e+01	-6.301544e+01
1.270000e-06	-2.598982e-06	-9.184676e-10	-1.808033e+01	-6.257881e+01
1.280000e-06	-2.557887e-06	-9.161050e-10	-1.779445e+01	-6.213338e+01
1.290000e-06	-2.516487e-06	-9.105935e-10	-1.750644e+01	-6.167885e+01
1.300000e-06	-2.474795e-06	-9.022045e-10	-1.721640e+01	-6.121492e+01
1.310000e-06	-2.432864e-06	-8.897242e-10	-1.692470e+01	-6.074131e+01
1.320000e-06	-2.390623e-06	-8.753131e-10	-1.663084e+01	-6.025775e+01
1.330000e-06	-2.348052e-06	-8.634064e-10	-1.633469e+01	-5.976402e+01
1.340000e-06	-2.305291e-06	-8.563847e-10	-1.603721e+01	-5.925989e+01
1.350000e-06	-2.262247e-06	-8.526924e-10	-1.573776e+01	-5.874518e+01
1.360000e-06	-2.218955e-06	-8.490174e-10	-1.543660e+01	-5.821971e+01
1.370000e-06	-2.175537e-06	-8.421912e-10	-1.513455e+01	-5.768332e+01
1.380000e-06	-2.132028e-06	-8.317469e-10	-1.483187e+01	-5.713589e+01
1.390000e-06	-2.088448e-06	-8.204796e-10	-1.452870e+01	-5.657730e+01
1.400000e-06	-2.044776e-06	-8.092034e-10	-1.422489e+01	-5.600746e+01
1.410000e-06	-2.001046e-06	-7.978147e-10	-1.392067e+01	-5.542627e+01
1.420000e-06	-1.957231e-06	-7.876927e-10	-1.361587e+01	-5.483369e+01
1.430000e-06	-1.913320e-06	-7.797803e-10	-1.331039e+01	-5.422963e+01
1.440000e-06	-1.869326e-06	-7.742817e-10	-1.300433e+01	-5.361406e+01
1.450000e-06	-1.825274e-06	-7.673884e-10	-1.269788e+01	-5.298693e+01
1.460000e-06	-1.781174e-06	-7.569950e-10	-1.239109e+01	-5.234821e+01
1.470000e-06	-1.736950e-06	-7.423733e-10	-1.208344e+01	-5.169784e+01
1.480000e-06	-1.692518e-06	-7.262281e-10	-1.177434e+01	-5.103579e+01
1.490000e-06	-1.647921e-06	-7.117901e-10	-1.146409e+01	-5.036202e+01
1.500000e-06	-1.603193e-06	-6.998845e-10	-1.115293e+01	-4.967646e+01
1.510000e-06	-1.558286e-06	-6.909003e-10	-1.084052e+01	-4.897906e+01
1.520000e-06	-1.513267e-06	-6.809335e-10	-1.052734e+01	-4.826973e+01
1.530000e-06	-1.468167e-06	-6.681373e-10	-1.021359e+01	-4.754839e+01
1.540000e-06	-1.422872e-06	-6.540057e-10	-9.898490e+00	-4.681492e+01
1.550000e-06	-1.377452e-06	-6.399992e-10	-9.582517e+00	-4.606922e+01
1.560000e-06	-1.332028e-06	-6.272705e-10	-9.266517e+00	-4.531111e+01
1.570000e-06	-1.286545e-06	-6.123541e-10	-8.950107e+00	-4.454046e+01
1.580000e-06	-1.240895e-06	-5.996239e-10	-8.632532e+00	-4.375706e+01
1.590000e-06	-1.195121e-06	-5.900192e-10	-8.314093e+00	-4.296071e+01
1.600000e-06	-1.149254e-06	-5.787016e-10	-7.995013e+00	-4.215118e+01
1.610000e-06	-1.103314e-06	-5.662586e-10	-7.675421e+00	-4.132823e+01
1.620000e-06	-1.057346e-06	-5.544359e-10	-7.355634e+00	-4.049157e+01
1.630000e-06	-1.011277e-06	-5.427601e-10	-7.035149e+00	-3.964092e+01
1.640000e-06	-9.652169e-07	-5.281416e-10	-6.714722e+00	-3.877598e+01
1.650000e-06	-9.191864e-07	-5.099296e-10	-6.394501e+00	-3.789643e+01
1.660000e-06	-8.730169e-07	-4.925267e-10	-6.073315e+00	-3.700192e+01
1.670000e-06	-8.267140e-07	-4.765615e-10	-5.751199e+00	-3.609212e+01
1.680000e-06	-7.804112e-07	-4.641962e-10	-5.429085e+00	-3.516667e+01
1.690000e-06	-7.340769e-07	-4.539450e-10	-5.106751e+00	-3.422524e+01
1.700000e-06	-6.876533e-07	-4.438558e-10	-4.783796e+00	-3.326745e+01
1.710000e-06	-6.412175e-07	-4.319524e-10	-4.460756e+00	-3.229298e+01
1.720000e-06	-5.947679e-07	-4.156668e-10	-4.137620e+00	-3.130147e+01
1.730000e-06	-5.482544e-07	-3.955136e-10	-3.814040e+00	-3.029262e+01
1.740000e-06	-5.016955e-07	-3.748905e-10	-3.490144e+00	-2.926612e+01
1.750000e-06	-4.550618e-07	-3.570541e-10	-3.165727e+00	-2.822169e+01
1.760000e-06	-4.082955e-07	-3.425232e-10	-2.840388e+00	-2.715909e+01
1.770000e-06	-3.615209e-07	-3.285756e-10	-2.514992e+00	-2.607809e+01
1.780000e-06	-3.148230e-07	-3.170216e-10	-2.190128e+00	-2.497852e+01
1.790000e-06	-2.681876e-07	-3.054448e-10	-1.865700e+00	-2.386025e+01
1.800000e-06	-2.215029e-07	-2.877991e-10	-1.540929e+00	-2.272319e+01
1.810000e-06	-1.746718e-07	-2.666025e-10	-1.215139e+00	-2.156731e+01
1.820000e-06	-1.278629e-07	-2.438072e-10	-8.895039e-01	-2.039263e+01
1.830000e-06	-8.109014e-08	-2.227474e-10	-5.641196e-01	-1.919925e+01
1.840000e-06	-3.426515e-08	-2.058489e-10	-2.383723e-01	-1.798730e+01
1.850000e-06	1.255874e-08	-1.909456e-10	8.736738e-02	-1.675700e+01
1.860000e-06	5.937593e-08	-1.775674e-10	4.130604e-01	-1.550864e+01
1.870000e-06	1.061651e-07	-1.619967e-10	7.385584e-01	-1.424257e+01
1.880000e-06	1.528792e-07	-1.439585e-10	1.063535e+00	-1.295922e+01
1.890000e-06	1.995966e-07	-1.236154e-10	1.388533e+00	-1.165910e+01
1.900000e-06	2.463001e-07	-1.013271e-10	1.713435e+00	-1.034278e+01
1.910000e-06	2.929268e-07	-8.109131e-11	2.037803e+00	-9.010907e+00
1.920000e-06	3.396183e-07	-6.236924e-11	2.362622e+00	-7.664218e+00
1.930000e-06	3.863275e-07	-4.706685e-11	2.687564e+00	-6.303510e+00
1.940000e-06	4.329018e-07	-3.256752e-11	3.011567e+00	-4.929652e+00
1.950000e-06	4.793948e-07	-1.966664e-11	3.335005e+00	-3.543583e+00
1.960000e-06	5.258472e-07	-4.086691e-12	3.658160e+00	-2.146308e+00
1.970000e-06	5.723337e-07	1.499118e-11	3.981552e+00	-7.388933e-01
1.980000e-06	6.188329e-07	3.648807e-11	4.305033e+00	6.775375e-01
1.990000e-06	6.652183e-07	6.020491e-11	4.627723e+00	2.101806e+00
2.000000e-06	7.115534e-07	8.462819e-11	4.950062e+00	3.532687e+00
2.010000e-06	7.579150e-07	1.076778e-10	5.272585e+00	4.968911e+00
2.020000e-06	8.042506e-07	1.278854e-10	5.594928e+00	6.409173e+00
2.030000e-06	8.504283e-07	1.447493e-10	5.916173e+00	7.852135e+00
2.040000e-06	8.965077e-07	1.607363e-10	6.236733e+00	9.296438e+00
2.050000e-06	9.425701e-07	1.776459e-10	6.557175e+00	1.074070e+01
2.060000e-06	9.885789e-07	1.970665e-10	6.877244e+00	1.218354e+01
2.070000e-06	1.034582e-06	2.186352e-10	7.197276e+00	1.362355e+01
2.080000e-06	1.080454e-06	2.420928e-10	7.516390e+00	1.505936e+01
2.090000e-06	1.126146e-06	2.647474e-10	7.834256e+00	1.648958e+01
2.100000e-06	1.171774e-06	2.854293e-10	8.151679e+00	1.791285e+01
2.110000e-06	1.217329e-06	3.048952e-10	8.468593e+00	1.932784e+01
2.120000e-06	1.262829e-06	3.224205e-10	8.785122e+00	2.073323e+01
2.130000e-06	1.308254e-06	3.397728e-10	9.101127e+00	2.212777e+01
2.140000e-06	1.353616e-06	3.566316e-10	9.416698e+00	2.351022e+01
2.150000e-06	1.398913e-06	3.745359e-10	9.731815e+00	2.487942e+01
2.160000e-06	1.444108e-06	3.943850e-10	1.004622e+01	2.623424e+01
2.170000e-06	1.489236e-06	4.167254e-10	1.036016e+01	2.757363e+01
2.180000e-06	1.534287e-06	4.387214e-10	1.067357e+01	2.889659e+01
2.190000e-06	1.579195e-06	4.580982e-10	1.098598e+01	3.020221e+01
2.200000e-06	1.623883e-06	4.749273e-10	1.129686e+01	3.148962e+01
2.210000e-06	1.668409e-06	4.899304e-10	1.160662e+01	3.275805e+01
2.220000e-06	1.712841e-06	5.037389e-10	1.191572e+01	3.400680e+01
2.230000e-06	1.757205e-06	5.190805e-10	1.222434e+01	3.523525e+01
2.240000e-06	1.801440e-06	5.352338e-10	1.253208e+01	3.644287e+01
2.250000e-06	1.845496e-06	5.524804e-10	1.283856e+01	3.762920e+01
2.260000e-06	1.889441e-06	5.696150e-10	1.314427e+01	3.879385e+01
2.270000e-06	1.933275e-06	5.853638e-10	1.344921e+01	3.993654e+01
2.280000e-06	1.977039e-06	6.000073e-10	1.375366e+01	4.105705e+01
2.290000e-06	2.020821e-06	6.138403e-10	1.405824e+01	4.215524e+01
2.300000e-06	2.064565e-06	6.258552e-10	1.436255e+01	4.323105e+01
2.310000e-06	2.108186e-06	6.373430e-10	1.466601e+01	4.428449e+01
2.320000e-06	2.151726e-06	6.504361e-10	1.496890e+01	4.531563e+01
2.330000e-06	2.195226e-06	6.655274e-10	1.527152e+01	4.632462e+01
2.340000e-06	2.238652e-06	6.816585e-10	1.557362e+01	4.731166e+01
2.350000e-06	2.281917e-06	6.981278e-10	1.587460e+01	4.827702e+01
2.360000e-06	2.324915e-06	7.130768e-10	1.617373e+01	4.922101e+01
2.370000e-06	2.367656e-06	7.263661e-10	1.647107e+01	5.014398e+01
2.380000e-06	2.410172e-06	7.382828e-10	1.676684e+01	5.104635e+01
2.390000e-06	2.452372e-06	7.492146e-10	1.706041e+01	5.192855e+01
2.400000e-06	2.494227e-06	7.607413e-10	1.735158e+01	5.279105e+01
2.410000e-06	2.535838e-06	7.728863e-10	1.764106e+01	5.363435e+01
2.420000e-06	2.577059e-06	7.859331e-10	1.792782e+01	5.445896e+01
2.430000e-06	2.617924e-06	7.988517e-10	1.821211e+01	5.526541e+01
2.440000e-06	2.658606e-06	8.106033e-10	1.849512e+01	5.605425e+01
2.450000e-06	2.699003e-06	8.223139e-10	1.877615e+01	5.682602e+01
2.460000e-06	2.739204e-06	8.354208e-10	1.905581e+01	5.758126e+01
2.470000e-06	2.779270e-06	8.477799e-10	1.933454e+01	5.832051e+01
2.480000e-06	2.819139e-06	8.575892e-10	1.961190e+01	5.904430e+01
2.490000e-06	2.858880e-06	8.666288e-10	1.988836e+01	5.975316e+01
2.500000e-06	2.898524e-06	8.776293e-10	2.016416e+01	6.044758e+01
2.510000e-06	2.938035e-06	8.890408e-10	2.043902e+01	6.112804e+01
2.520000e-06	2.977339e-06	8.993540e-10	2.071245e+01	6.179500e+01
2.530000e-06	3.016477e-06	9.088329e-10	2.098472e+01	6.244889e+01
2.540000e-06	3.055502e-06	9.181179e-10	2.125620e+01	6.309011e+01
2.550000e-06	3.094283e-06	9.256291e-10	2.152599e+01	6.371906e+01
2.560000e-06	3.132747e-06	9.329047e-10	2.179358e+01	6.433606e+01
2.570000e-06	3.170935e-06	9.424901e-10	2.205924e+01	6.494143e+01
2.580000e-06	3.208864e-06	9.534402e-10	2.232310e+01	6.553547e+01
2.590000e-06	3.246597e-06	9.634125e-10	2.258560e+01	6.611841e+01
2.600000e-06	3.284245e-06	9.716579e-10	2.284750e+01	6.669050e+01
2.610000e-06	3.321826e-06	9.791491e-10	2.310894e+01	6.725192e+01
2.620000e-06	3.359213e-06	9.872746e-10	2.336903e+01	6.780283e+01
2.630000e-06	3.396292e-06	9.952368e-10	2.362698e+01	6.834338e+01
2.640000e-06	3.433102e-06	1.002286e-09	2.388305e+01	6.887368e+01
2.650000e-06	3.469615e-06	1.009901e-09	2.413706e+01	6.939383e+01
2.660000e-06	3.505830e-06	1.018543e-09	2.438900e+01	6.990388e+01
2.670000e-06	3.541815e-06	1.025666e-09	2.463933e+01	7.040391e+01
2.680000e-06	3.577616e-06	1.031198e-09	2.488839e+01	7.089394e+01
2.690000e-06	3.613277e-06	1.036761e-09	2.513647e+01	7.137401e+01
2.700000e-06	3.648814e-06	1.044273e-09	2.538369e+01	7.184412e+01
2.710000e-06	3.684263e-06	1.052761e-09	2.563031e+01	7.230428e+01
2.720000e-06	3.719527e-06	1.058709e-09	2.587562e+01	7.275451e+01
2.730000e-06	3.754571e-06	1.065556e-09	2.611941e+01	7.319479e+01
2.740000e-06	3.789266e-06	1.072201e-09	2.636078e+01	7.362514e+01
2.750000e-06	3.823426e-06	1.076488e-09	2.659842e+01	7.404556e+01
2.760000e-06	3.857044e-06	1.080733e-09	2.683229e+01	7.445606e+01
2.770000e-06	3.890084e-06	1.086454e-09	2.706214e+01	7.485667e+01
2.780000e-06	3.922619e-06	1.094992e-09	2.728847e+01	7.524740e+01
2.790000e-06	3.954836e-06	1.105610e-09	2.751260e+01	7.562831e+01
2.800000e-06	3.986830e-06	1.114688e-09	2.773517e+01	7.599945e+01
2.810000e-06	4.018668e-06	1.121311e-09	2.795665e+01	7.636089e+01
2.820000e-06	4.050373e-06	1.125004e-09	2.817722e+01	7.671270e+01
2.830000e-06	4.081948e-06	1.127102e-09	2.839688e+01	7.705500e+01
2.840000e-06	4.113325e-06	1.129619e-09	2.861516e+01	7.738789e+01
2.850000e-06	4.144356e-06	1.133903e-09	2.883103e+01	7.771151e+01
2.860000e-06	4.175063e-06	1.142135e-09	2.904465e+01	7.802600e+01
2.870000e-06	4.205467e-06	1.151393e-09	2.925616e+01	7.833154e+01
2.880000e-06	4.235531e-06	1.158094e-09	2.946531e+01	7.862830e+01
2.890000e-06	4.265339e-06	1.163512e-09	2.967267e+01	7.891647e+01
2.900000e-06	4.294924e-06	1.166905e-09	2.987849e+01	7.919627e+01
