# Temperatura_=_-0.3
# Concentracion g/m^3_=_1620.0
# C_Vs_to_Am_M_A/Vsm_=_65563218390.804596
# pendiente_HvsI_1/m_=_3716.3
# ordenada_HvsI_A/m_=_1297.0
# frecuencia_Hz_=_135102.3126103703

Tiempo_(s)	Campo_(V.s)	Magnetizacion_(V.s)	Campo_(kA/m)	Magnetizacion_(A/m)
0.000000e+00	-5.520484e-06	-1.440406e-09	-3.837069e+01	-9.300785e+01
1.000000e-08	-5.520649e-06	-1.437025e-09	-3.837183e+01	-9.304838e+01
2.000000e-08	-5.520498e-06	-1.432657e-09	-3.837078e+01	-9.308842e+01
3.000000e-08	-5.519901e-06	-1.427644e-09	-3.836663e+01	-9.312774e+01
4.000000e-08	-5.518718e-06	-1.424538e-09	-3.835841e+01	-9.316611e+01
5.000000e-08	-5.516904e-06	-1.426010e-09	-3.834580e+01	-9.320325e+01
6.000000e-08	-5.514555e-06	-1.421527e-09	-3.832948e+01	-9.323887e+01
7.000000e-08	-5.511710e-06	-1.441296e-09	-3.830970e+01	-9.327266e+01
8.000000e-08	-5.508421e-06	-1.474701e-09	-3.828684e+01	-9.330431e+01
9.000000e-08	-5.504623e-06	-1.418335e-09	-3.826044e+01	-9.333349e+01
1.000000e-07	-5.500505e-06	-1.335951e-09	-3.823182e+01	-9.335985e+01
1.100000e-07	-5.496227e-06	-1.452549e-09	-3.820208e+01	-9.338305e+01
1.200000e-07	-5.491580e-06	-1.472562e-09	-3.816979e+01	-9.340274e+01
1.300000e-07	-5.486549e-06	-1.434685e-09	-3.813482e+01	-9.341859e+01
1.400000e-07	-5.481221e-06	-1.312468e-09	-3.809778e+01	-9.343025e+01
1.500000e-07	-5.475545e-06	-1.405649e-09	-3.805833e+01	-9.343739e+01
1.600000e-07	-5.469375e-06	-1.501399e-09	-3.801545e+01	-9.343969e+01
1.700000e-07	-5.462711e-06	-1.415108e-09	-3.796913e+01	-9.343686e+01
1.800000e-07	-5.455790e-06	-1.363130e-09	-3.792102e+01	-9.342858e+01
1.900000e-07	-5.448516e-06	-1.395046e-09	-3.787046e+01	-9.341462e+01
2.000000e-07	-5.440834e-06	-1.514802e-09	-3.781707e+01	-9.339470e+01
2.100000e-07	-5.433007e-06	-1.456729e-09	-3.776267e+01	-9.336862e+01
2.200000e-07	-5.425026e-06	-1.427003e-09	-3.770719e+01	-9.333618e+01
2.300000e-07	-5.416631e-06	-1.415559e-09	-3.764885e+01	-9.329721e+01
2.400000e-07	-5.407652e-06	-1.504893e-09	-3.758644e+01	-9.325157e+01
2.500000e-07	-5.398091e-06	-1.465118e-09	-3.751998e+01	-9.319916e+01
2.600000e-07	-5.387951e-06	-1.448988e-09	-3.744950e+01	-9.313990e+01
2.700000e-07	-5.377104e-06	-1.425967e-09	-3.737411e+01	-9.307375e+01
2.800000e-07	-5.365731e-06	-1.476834e-09	-3.729506e+01	-9.300068e+01
2.900000e-07	-5.354039e-06	-1.445823e-09	-3.721379e+01	-9.292072e+01
3.000000e-07	-5.341878e-06	-1.421011e-09	-3.712927e+01	-9.283392e+01
3.100000e-07	-5.329201e-06	-1.416738e-09	-3.704116e+01	-9.274035e+01
3.200000e-07	-5.316236e-06	-1.463348e-09	-3.695104e+01	-9.264011e+01
3.300000e-07	-5.303011e-06	-1.447471e-09	-3.685911e+01	-9.253335e+01
3.400000e-07	-5.289369e-06	-1.392811e-09	-3.676430e+01	-9.242021e+01
3.500000e-07	-5.275275e-06	-1.417830e-09	-3.666633e+01	-9.230087e+01
3.600000e-07	-5.260894e-06	-1.458618e-09	-3.656638e+01	-9.217554e+01
3.700000e-07	-5.245949e-06	-1.407541e-09	-3.646250e+01	-9.204443e+01
3.800000e-07	-5.230170e-06	-1.381696e-09	-3.635283e+01	-9.190777e+01
3.900000e-07	-5.214004e-06	-1.471002e-09	-3.624046e+01	-9.176581e+01
4.000000e-07	-5.197546e-06	-1.427580e-09	-3.612607e+01	-9.161880e+01
4.100000e-07	-5.180645e-06	-1.337444e-09	-3.600860e+01	-9.146699e+01
4.200000e-07	-5.163394e-06	-1.402870e-09	-3.588869e+01	-9.131066e+01
4.300000e-07	-5.145970e-06	-1.482644e-09	-3.576759e+01	-9.115007e+01
4.400000e-07	-5.128174e-06	-1.335673e-09	-3.564390e+01	-9.098548e+01
4.500000e-07	-5.109944e-06	-1.340745e-09	-3.551719e+01	-9.081714e+01
4.600000e-07	-5.091369e-06	-1.461735e-09	-3.538807e+01	-9.064530e+01
4.700000e-07	-5.072297e-06	-1.406352e-09	-3.525552e+01	-9.047020e+01
4.800000e-07	-5.052858e-06	-1.292309e-09	-3.512040e+01	-9.029207e+01
4.900000e-07	-5.033284e-06	-1.426537e-09	-3.498435e+01	-9.011111e+01
5.000000e-07	-5.013578e-06	-1.419271e-09	-3.484738e+01	-8.992751e+01
5.100000e-07	-4.993525e-06	-1.291543e-09	-3.470801e+01	-8.974144e+01
5.200000e-07	-4.973038e-06	-1.351337e-09	-3.456561e+01	-8.955306e+01
5.300000e-07	-4.952281e-06	-1.449521e-09	-3.442133e+01	-8.936250e+01
5.400000e-07	-4.931200e-06	-1.311761e-09	-3.427480e+01	-8.916986e+01
5.500000e-07	-4.909770e-06	-1.316937e-09	-3.412585e+01	-8.897521e+01
5.600000e-07	-4.888079e-06	-1.430366e-09	-3.397509e+01	-8.877863e+01
5.700000e-07	-4.866086e-06	-1.359336e-09	-3.382222e+01	-8.858014e+01
5.800000e-07	-4.843727e-06	-1.277815e-09	-3.366682e+01	-8.837976e+01
5.900000e-07	-4.821035e-06	-1.381733e-09	-3.350910e+01	-8.817747e+01
6.000000e-07	-4.797988e-06	-1.366255e-09	-3.334890e+01	-8.797323e+01
6.100000e-07	-4.774570e-06	-1.281864e-09	-3.318613e+01	-8.776698e+01
6.200000e-07	-4.750903e-06	-1.340552e-09	-3.302163e+01	-8.755866e+01
6.300000e-07	-4.727028e-06	-1.367027e-09	-3.285569e+01	-8.734816e+01
6.400000e-07	-4.702831e-06	-1.293101e-09	-3.268751e+01	-8.713537e+01
6.500000e-07	-4.678259e-06	-1.313915e-09	-3.251672e+01	-8.692015e+01
6.600000e-07	-4.653243e-06	-1.355544e-09	-3.234284e+01	-8.670237e+01
6.700000e-07	-4.627754e-06	-1.295288e-09	-3.216568e+01	-8.648188e+01
6.800000e-07	-4.601779e-06	-1.290198e-09	-3.198513e+01	-8.625851e+01
6.900000e-07	-4.575277e-06	-1.323818e-09	-3.180093e+01	-8.603209e+01
7.000000e-07	-4.548300e-06	-1.297022e-09	-3.161342e+01	-8.580246e+01
7.100000e-07	-4.520954e-06	-1.272940e-09	-3.142335e+01	-8.556943e+01
7.200000e-07	-4.493394e-06	-1.306311e-09	-3.123179e+01	-8.533284e+01
7.300000e-07	-4.465642e-06	-1.284330e-09	-3.103890e+01	-8.509252e+01
7.400000e-07	-4.437687e-06	-1.270076e-09	-3.084460e+01	-8.484829e+01
7.500000e-07	-4.409554e-06	-1.284391e-09	-3.064905e+01	-8.460002e+01
7.600000e-07	-4.381136e-06	-1.282357e-09	-3.045153e+01	-8.434754e+01
7.700000e-07	-4.352320e-06	-1.255262e-09	-3.025124e+01	-8.409072e+01
7.800000e-07	-4.323131e-06	-1.274486e-09	-3.004836e+01	-8.382943e+01
7.900000e-07	-4.293603e-06	-1.266015e-09	-2.984312e+01	-8.356357e+01
8.000000e-07	-4.263757e-06	-1.241950e-09	-2.963567e+01	-8.329304e+01
8.100000e-07	-4.233706e-06	-1.240426e-09	-2.942681e+01	-8.301776e+01
8.200000e-07	-4.203462e-06	-1.255722e-09	-2.921659e+01	-8.273766e+01
8.300000e-07	-4.172846e-06	-1.229330e-09	-2.900379e+01	-8.245270e+01
8.400000e-07	-4.141855e-06	-1.225482e-09	-2.878838e+01	-8.216285e+01
8.500000e-07	-4.110616e-06	-1.237647e-09	-2.857125e+01	-8.186809e+01
8.600000e-07	-4.079205e-06	-1.227885e-09	-2.835293e+01	-8.156842e+01
8.700000e-07	-4.047624e-06	-1.206224e-09	-2.813342e+01	-8.126387e+01
8.800000e-07	-4.015929e-06	-1.215678e-09	-2.791312e+01	-8.095446e+01
8.900000e-07	-3.984040e-06	-1.208489e-09	-2.769147e+01	-8.064025e+01
9.000000e-07	-3.951825e-06	-1.186433e-09	-2.746756e+01	-8.032129e+01
9.100000e-07	-3.919359e-06	-1.189400e-09	-2.724190e+01	-7.999764e+01
9.200000e-07	-3.886640e-06	-1.196490e-09	-2.701449e+01	-7.966939e+01
9.300000e-07	-3.853432e-06	-1.177781e-09	-2.678367e+01	-7.933661e+01
9.400000e-07	-3.819739e-06	-1.169910e-09	-2.654948e+01	-7.899941e+01
9.500000e-07	-3.785606e-06	-1.180715e-09	-2.631224e+01	-7.865786e+01
9.600000e-07	-3.750926e-06	-1.169612e-09	-2.607119e+01	-7.831207e+01
9.700000e-07	-3.715819e-06	-1.159124e-09	-2.582718e+01	-7.796212e+01
9.800000e-07	-3.680442e-06	-1.163466e-09	-2.558129e+01	-7.760810e+01
9.900000e-07	-3.644879e-06	-1.160763e-09	-2.533410e+01	-7.725008e+01
1.000000e-06	-3.609207e-06	-1.139198e-09	-2.508616e+01	-7.688816e+01
1.010000e-06	-3.573477e-06	-1.135537e-09	-2.483781e+01	-7.652237e+01
1.020000e-06	-3.537641e-06	-1.131985e-09	-2.458874e+01	-7.615279e+01
1.030000e-06	-3.501607e-06	-1.121825e-09	-2.433828e+01	-7.577944e+01
1.040000e-06	-3.465325e-06	-1.114526e-09	-2.408610e+01	-7.540235e+01
1.050000e-06	-3.428795e-06	-1.119891e-09	-2.383219e+01	-7.502152e+01
1.060000e-06	-3.391928e-06	-1.107850e-09	-2.357594e+01	-7.463694e+01
1.070000e-06	-3.354724e-06	-1.097479e-09	-2.331735e+01	-7.424858e+01
1.080000e-06	-3.317331e-06	-1.092407e-09	-2.305744e+01	-7.385639e+01
1.090000e-06	-3.279735e-06	-1.087561e-09	-2.279613e+01	-7.346028e+01
1.100000e-06	-3.241902e-06	-1.072468e-09	-2.253317e+01	-7.306018e+01
1.110000e-06	-3.203883e-06	-1.068226e-09	-2.226891e+01	-7.265596e+01
1.120000e-06	-3.165639e-06	-1.062602e-09	-2.200310e+01	-7.224749e+01
1.130000e-06	-3.127094e-06	-1.055790e-09	-2.173518e+01	-7.183462e+01
1.140000e-06	-3.088248e-06	-1.048052e-09	-2.146518e+01	-7.141716e+01
1.150000e-06	-3.049250e-06	-1.043366e-09	-2.119412e+01	-7.099492e+01
1.160000e-06	-3.010133e-06	-1.032649e-09	-2.092223e+01	-7.056770e+01
1.170000e-06	-2.970811e-06	-1.024642e-09	-2.064892e+01	-7.013526e+01
1.180000e-06	-2.931337e-06	-1.018760e-09	-2.037456e+01	-6.969735e+01
1.190000e-06	-2.891741e-06	-1.012554e-09	-2.009934e+01	-6.925372e+01
1.200000e-06	-2.852004e-06	-1.004977e-09	-1.982315e+01	-6.880410e+01
1.210000e-06	-2.812170e-06	-9.993469e-10	-1.954627e+01	-6.834821e+01
1.220000e-06	-2.772167e-06	-9.928478e-10	-1.926823e+01	-6.788575e+01
1.230000e-06	-2.731945e-06	-9.828107e-10	-1.898866e+01	-6.741645e+01
1.240000e-06	-2.691578e-06	-9.756259e-10	-1.870808e+01	-6.693999e+01
1.250000e-06	-2.651091e-06	-9.675796e-10	-1.842668e+01	-6.645607e+01
1.260000e-06	-2.610338e-06	-9.613326e-10	-1.814342e+01	-6.596441e+01
1.270000e-06	-2.569253e-06	-9.561669e-10	-1.785786e+01	-6.546469e+01
1.280000e-06	-2.527908e-06	-9.504148e-10	-1.757048e+01	-6.495662e+01
1.290000e-06	-2.486181e-06	-9.399703e-10	-1.728045e+01	-6.443992e+01
1.300000e-06	-2.444150e-06	-9.284832e-10	-1.698831e+01	-6.391431e+01
1.310000e-06	-2.401936e-06	-9.143535e-10	-1.669490e+01	-6.337950e+01
1.320000e-06	-2.359428e-06	-9.043607e-10	-1.639944e+01	-6.283523e+01
1.330000e-06	-2.316540e-06	-8.977481e-10	-1.610135e+01	-6.228126e+01
1.340000e-06	-2.273333e-06	-8.938750e-10	-1.580103e+01	-6.171734e+01
1.350000e-06	-2.229954e-06	-8.869982e-10	-1.549952e+01	-6.114324e+01
1.360000e-06	-2.186460e-06	-8.805605e-10	-1.519721e+01	-6.055875e+01
1.370000e-06	-2.142808e-06	-8.710529e-10	-1.489380e+01	-5.996366e+01
1.380000e-06	-2.099054e-06	-8.619245e-10	-1.458969e+01	-5.935779e+01
1.390000e-06	-2.055294e-06	-8.505071e-10	-1.428553e+01	-5.874096e+01
1.400000e-06	-2.011513e-06	-8.402419e-10	-1.398123e+01	-5.811300e+01
1.410000e-06	-1.967659e-06	-8.271259e-10	-1.367642e+01	-5.747377e+01
1.420000e-06	-1.923723e-06	-8.164622e-10	-1.337103e+01	-5.682311e+01
1.430000e-06	-1.879699e-06	-8.041547e-10	-1.306504e+01	-5.616090e+01
1.440000e-06	-1.835579e-06	-7.934817e-10	-1.275838e+01	-5.548701e+01
1.450000e-06	-1.791332e-06	-7.837945e-10	-1.245084e+01	-5.480132e+01
1.460000e-06	-1.746927e-06	-7.743984e-10	-1.214219e+01	-5.410371e+01
1.470000e-06	-1.702380e-06	-7.645977e-10	-1.183256e+01	-5.339408e+01
1.480000e-06	-1.657751e-06	-7.510900e-10	-1.152237e+01	-5.267232e+01
1.490000e-06	-1.612955e-06	-7.379272e-10	-1.121101e+01	-5.193832e+01
1.500000e-06	-1.568046e-06	-7.256845e-10	-1.089886e+01	-5.119196e+01
1.510000e-06	-1.523118e-06	-7.093857e-10	-1.058659e+01	-5.043313e+01
1.520000e-06	-1.478003e-06	-6.938269e-10	-1.027301e+01	-4.966170e+01
1.530000e-06	-1.432676e-06	-6.785300e-10	-9.957961e+00	-4.887755e+01
1.540000e-06	-1.387227e-06	-6.656506e-10	-9.642059e+00	-4.808055e+01
1.550000e-06	-1.341713e-06	-6.547175e-10	-9.325715e+00	-4.727053e+01
1.560000e-06	-1.296105e-06	-6.435249e-10	-9.008707e+00	-4.644734e+01
1.570000e-06	-1.250439e-06	-6.324735e-10	-8.691300e+00	-4.561082e+01
1.580000e-06	-1.204748e-06	-6.182037e-10	-8.373720e+00	-4.476076e+01
1.590000e-06	-1.159006e-06	-6.015376e-10	-8.055789e+00	-4.389698e+01
1.600000e-06	-1.113192e-06	-5.851638e-10	-7.737356e+00	-4.301926e+01
1.610000e-06	-1.067259e-06	-5.736702e-10	-7.418092e+00	-4.212737e+01
1.620000e-06	-1.021271e-06	-5.639043e-10	-7.098451e+00	-4.122108e+01
1.630000e-06	-9.752492e-07	-5.541195e-10	-6.778568e+00	-4.030013e+01
1.640000e-06	-9.291465e-07	-5.386275e-10	-6.458127e+00	-3.936426e+01
1.650000e-06	-8.829350e-07	-5.193971e-10	-6.136930e+00	-3.841320e+01
1.660000e-06	-8.366265e-07	-4.975453e-10	-5.815058e+00	-3.744668e+01
1.670000e-06	-7.902542e-07	-4.799207e-10	-5.492742e+00	-3.646439e+01
1.680000e-06	-7.438317e-07	-4.643317e-10	-5.170078e+00	-3.546607e+01
1.690000e-06	-6.973862e-07	-4.525342e-10	-4.847254e+00	-3.445142e+01
1.700000e-06	-6.509228e-07	-4.405365e-10	-4.524305e+00	-3.342015e+01
1.710000e-06	-6.044065e-07	-4.270281e-10	-4.200989e+00	-3.237199e+01
1.720000e-06	-5.577626e-07	-4.076596e-10	-3.876785e+00	-3.130668e+01
1.730000e-06	-5.111897e-07	-3.863359e-10	-3.553076e+00	-3.022396e+01
1.740000e-06	-4.647153e-07	-3.662078e-10	-3.230051e+00	-2.912360e+01
1.750000e-06	-4.181093e-07	-3.488880e-10	-2.906111e+00	-2.800538e+01
1.760000e-06	-3.714198e-07	-3.362220e-10	-2.581591e+00	-2.686913e+01
1.770000e-06	-3.247065e-07	-3.257381e-10	-2.256905e+00	-2.571469e+01
1.780000e-06	-2.779757e-07	-3.166622e-10	-1.932098e+00	-2.454194e+01
1.790000e-06	-2.311785e-07	-3.028089e-10	-1.606830e+00	-2.335081e+01
1.800000e-06	-1.843456e-07	-2.820997e-10	-1.281313e+00	-2.214126e+01
1.810000e-06	-1.375951e-07	-2.586294e-10	-9.563690e-01	-2.091331e+01
1.820000e-06	-9.084627e-08	-2.362729e-10	-6.314363e-01	-1.966703e+01
1.830000e-06	-4.403359e-08	-2.177231e-10	-3.060599e-01	-1.840254e+01
1.840000e-06	2.818804e-09	-2.021191e-10	1.959238e-02	-1.712002e+01
1.850000e-06	4.967811e-08	-1.896075e-10	3.452927e-01	-1.581972e+01
1.860000e-06	9.647910e-08	-1.771205e-10	6.705878e-01	-1.450195e+01
1.870000e-06	1.432679e-07	-1.607222e-10	9.957983e-01	-1.316709e+01
1.880000e-06	1.900735e-07	-1.410806e-10	1.321125e+00	-1.181558e+01
1.890000e-06	2.368943e-07	-1.185899e-10	1.646558e+00	-1.044793e+01
1.900000e-06	2.837113e-07	-9.627579e-11	1.971964e+00	-9.064754e+00
1.910000e-06	3.304734e-07	-7.397989e-11	2.296989e+00	-7.666694e+00
1.920000e-06	3.771833e-07	-5.532105e-11	2.621651e+00	-6.254488e+00
1.930000e-06	4.238091e-07	-3.781683e-11	2.945728e+00	-4.828938e+00
1.940000e-06	4.704545e-07	-2.326007e-11	3.269942e+00	-3.390917e+00
1.950000e-06	5.171897e-07	-8.479722e-12	3.594780e+00	-1.941366e+00
1.960000e-06	5.637922e-07	7.576509e-12	3.918695e+00	-4.812919e-01
1.970000e-06	6.101955e-07	2.786895e-11	4.241226e+00	9.882383e-01
1.980000e-06	6.565924e-07	5.304782e-11	4.563712e+00	2.466097e+00
1.990000e-06	7.030124e-07	7.900398e-11	4.886359e+00	3.951103e+00
2.000000e-06	7.493874e-07	1.024893e-10	5.208694e+00	5.442025e+00
2.010000e-06	7.957644e-07	1.224623e-10	5.531041e+00	6.937585e+00
2.020000e-06	8.421452e-07	1.409706e-10	5.853416e+00	8.436467e+00
2.030000e-06	8.883883e-07	1.599542e-10	6.174833e+00	9.937322e+00
2.040000e-06	9.344895e-07	1.794998e-10	6.495264e+00	1.143877e+01
2.050000e-06	9.806109e-07	2.014384e-10	6.815836e+00	1.293942e+01
2.060000e-06	1.026702e-06	2.248176e-10	7.136198e+00	1.443784e+01
2.070000e-06	1.072598e-06	2.488649e-10	7.455203e+00	1.593264e+01
2.080000e-06	1.118330e-06	2.718225e-10	7.773067e+00	1.742237e+01
2.090000e-06	1.164015e-06	2.943459e-10	8.090607e+00	1.890563e+01
2.100000e-06	1.209681e-06	3.171913e-10	8.408009e+00	2.038102e+01
2.110000e-06	1.255307e-06	3.368641e-10	8.725137e+00	2.184715e+01
2.120000e-06	1.300879e-06	3.556635e-10	9.041889e+00	2.330269e+01
2.130000e-06	1.346315e-06	3.753928e-10	9.357701e+00	2.474631e+01
2.140000e-06	1.391593e-06	3.961482e-10	9.672412e+00	2.617674e+01
2.150000e-06	1.436794e-06	4.163105e-10	9.986582e+00	2.759275e+01
2.160000e-06	1.481938e-06	4.365932e-10	1.030036e+01	2.899317e+01
2.170000e-06	1.527007e-06	4.581656e-10	1.061362e+01	3.037689e+01
2.180000e-06	1.571904e-06	4.797028e-10	1.092568e+01	3.174287e+01
2.190000e-06	1.616677e-06	4.989752e-10	1.123688e+01	3.309011e+01
2.200000e-06	1.661433e-06	5.164544e-10	1.154796e+01	3.441773e+01
2.210000e-06	1.706019e-06	5.344540e-10	1.185786e+01	3.572489e+01
2.220000e-06	1.750409e-06	5.545384e-10	1.216640e+01	3.701085e+01
2.230000e-06	1.794688e-06	5.726934e-10	1.247416e+01	3.827494e+01
2.240000e-06	1.838860e-06	5.891547e-10	1.278118e+01	3.951659e+01
2.250000e-06	1.882920e-06	6.052748e-10	1.308743e+01	4.073530e+01
2.260000e-06	1.926854e-06	6.206251e-10	1.339279e+01	4.193067e+01
2.270000e-06	1.970708e-06	6.355477e-10	1.369761e+01	4.310237e+01
2.280000e-06	2.014509e-06	6.516378e-10	1.400205e+01	4.425019e+01
2.290000e-06	2.058261e-06	6.673611e-10	1.430615e+01	4.537396e+01
2.300000e-06	2.101961e-06	6.830306e-10	1.460989e+01	4.647363e+01
2.310000e-06	2.145605e-06	7.001159e-10	1.491325e+01	4.754921e+01
2.320000e-06	2.189192e-06	7.165127e-10	1.521620e+01	4.860078e+01
2.330000e-06	2.232583e-06	7.310320e-10	1.551780e+01	4.962853e+01
2.340000e-06	2.275782e-06	7.449469e-10	1.581805e+01	5.063267e+01
2.350000e-06	2.318846e-06	7.576990e-10	1.611737e+01	5.161352e+01
2.360000e-06	2.361732e-06	7.686596e-10	1.641546e+01	5.257144e+01
2.370000e-06	2.404381e-06	7.796139e-10	1.671190e+01	5.350684e+01
2.380000e-06	2.446573e-06	7.924488e-10	1.700515e+01	5.442018e+01
2.390000e-06	2.488453e-06	8.062734e-10	1.729624e+01	5.531199e+01
2.400000e-06	2.530155e-06	8.209991e-10	1.758610e+01	5.618280e+01
2.410000e-06	2.571492e-06	8.364701e-10	1.787342e+01	5.703320e+01
2.420000e-06	2.612485e-06	8.506789e-10	1.815834e+01	5.786380e+01
2.430000e-06	2.653143e-06	8.625908e-10	1.844094e+01	5.867522e+01
2.440000e-06	2.693536e-06	8.736879e-10	1.872170e+01	5.946811e+01
2.450000e-06	2.733799e-06	8.846617e-10	1.900155e+01	6.024312e+01
2.460000e-06	2.773897e-06	8.935124e-10	1.928025e+01	6.100090e+01
2.470000e-06	2.813823e-06	9.015916e-10	1.955776e+01	6.174210e+01
2.480000e-06	2.853667e-06	9.095722e-10	1.983470e+01	6.246737e+01
2.490000e-06	2.893417e-06	9.197608e-10	2.011099e+01	6.317733e+01
2.500000e-06	2.933018e-06	9.313174e-10	2.038624e+01	6.387259e+01
2.510000e-06	2.972454e-06	9.424153e-10	2.066034e+01	6.455375e+01
2.520000e-06	3.011668e-06	9.542192e-10	2.093290e+01	6.522138e+01
2.530000e-06	3.050713e-06	9.658586e-10	2.120429e+01	6.587601e+01
2.540000e-06	3.089527e-06	9.741154e-10	2.147407e+01	6.651814e+01
2.550000e-06	3.128100e-06	9.796677e-10	2.174218e+01	6.714825e+01
2.560000e-06	3.166552e-06	9.864200e-10	2.200944e+01	6.776678e+01
2.570000e-06	3.204749e-06	9.931093e-10	2.227493e+01	6.837412e+01
2.580000e-06	3.242681e-06	9.989256e-10	2.253858e+01	6.897064e+01
2.590000e-06	3.280415e-06	1.008240e-09	2.280086e+01	6.955665e+01
2.600000e-06	3.317972e-06	1.019699e-09	2.306190e+01	7.013246e+01
2.610000e-06	3.355287e-06	1.031778e-09	2.332126e+01	7.069829e+01
2.620000e-06	3.392341e-06	1.044677e-09	2.357881e+01	7.125437e+01
2.630000e-06	3.429216e-06	1.055441e-09	2.383511e+01	7.180087e+01
2.640000e-06	3.465799e-06	1.061942e-09	2.408939e+01	7.233793e+01
2.650000e-06	3.502031e-06	1.065713e-09	2.434122e+01	7.286566e+01
2.660000e-06	3.538017e-06	1.070141e-09	2.459135e+01	7.338415e+01
2.670000e-06	3.573917e-06	1.075251e-09	2.484088e+01	7.389345e+01
2.680000e-06	3.609739e-06	1.082314e-09	2.508986e+01	7.439359e+01
2.690000e-06	3.645411e-06	1.092008e-09	2.533780e+01	7.488458e+01
2.700000e-06	3.680919e-06	1.102681e-09	2.558460e+01	7.536643e+01
2.710000e-06	3.716171e-06	1.112151e-09	2.582963e+01	7.583911e+01
2.720000e-06	3.751109e-06	1.121154e-09	2.607246e+01	7.630259e+01
2.730000e-06	3.785676e-06	1.129160e-09	2.631273e+01	7.675684e+01
2.740000e-06	3.819832e-06	1.134143e-09	2.655013e+01	7.720182e+01
2.750000e-06	3.853546e-06	1.138435e-09	2.678446e+01	7.763749e+01
2.760000e-06	3.886821e-06	1.144111e-09	2.701574e+01	7.806382e+01
2.770000e-06	3.919685e-06	1.151826e-09	2.724417e+01	7.848077e+01
2.780000e-06	3.952151e-06	1.162194e-09	2.746982e+01	7.888834e+01
2.790000e-06	3.984287e-06	1.173412e-09	2.769319e+01	7.928650e+01
2.800000e-06	4.016220e-06	1.183361e-09	2.791514e+01	7.967526e+01
2.810000e-06	4.047991e-06	1.190706e-09	2.813598e+01	8.005465e+01
2.820000e-06	4.079602e-06	1.195252e-09	2.835569e+01	8.042470e+01
2.830000e-06	4.110995e-06	1.198738e-09	2.857389e+01	8.078547e+01
2.840000e-06	4.142166e-06	1.201886e-09	2.879055e+01	8.113704e+01
2.850000e-06	4.173090e-06	1.207499e-09	2.900548e+01	8.147951e+01
2.860000e-06	4.203612e-06	1.214464e-09	2.921763e+01	8.181299e+01
2.870000e-06	4.233782e-06	1.219075e-09	2.942733e+01	8.213763e+01
2.880000e-06	4.263721e-06	1.224364e-09	2.963543e+01	8.245358e+01
2.890000e-06	4.293363e-06	1.230001e-09	2.984146e+01	8.276104e+01
2.900000e-06	4.322682e-06	1.234965e-09	3.004524e+01	8.306019e+01
