# Temperatura_=_4.66
# Concentracion g/m^3_=_1620.0
# C_Vs_to_Am_M_A/Vsm_=_65563218390.804596
# pendiente_HvsI_1/m_=_3716.3
# ordenada_HvsI_A/m_=_1297.0
# frecuencia_Hz_=_135107.7007558

Tiempo_(s)	Campo_(V.s)	Magnetizacion_(V.s)	Campo_(kA/m)	Magnetizacion_(A/m)
0.000000e+00	-5.522511e-06	-7.826452e-10	-3.837102e+01	-5.195180e+01
1.000000e-08	-5.522754e-06	-7.829021e-10	-3.837271e+01	-5.195127e+01
2.000000e-08	-5.522780e-06	-7.834588e-10	-3.837289e+01	-5.194981e+01
3.000000e-08	-5.522434e-06	-7.853574e-10	-3.837049e+01	-5.194735e+01
4.000000e-08	-5.521571e-06	-7.859150e-10	-3.836449e+01	-5.194381e+01
5.000000e-08	-5.520201e-06	-7.835119e-10	-3.835497e+01	-5.193908e+01
6.000000e-08	-5.518351e-06	-7.747202e-10	-3.834211e+01	-5.193310e+01
7.000000e-08	-5.515877e-06	-7.596661e-10	-3.832493e+01	-5.192577e+01
8.000000e-08	-5.512756e-06	-7.630967e-10	-3.830324e+01	-5.191700e+01
9.000000e-08	-5.509162e-06	-7.983971e-10	-3.827827e+01	-5.190670e+01
1.000000e-07	-5.505218e-06	-8.176991e-10	-3.825086e+01	-5.189481e+01
1.100000e-07	-5.500918e-06	-7.938059e-10	-3.822099e+01	-5.188124e+01
1.200000e-07	-5.496389e-06	-7.402529e-10	-3.818952e+01	-5.186591e+01
1.300000e-07	-5.491631e-06	-7.410581e-10	-3.815646e+01	-5.184877e+01
1.400000e-07	-5.486485e-06	-7.648268e-10	-3.812071e+01	-5.182975e+01
1.500000e-07	-5.480980e-06	-7.757300e-10	-3.808246e+01	-5.180879e+01
1.600000e-07	-5.475148e-06	-7.526497e-10	-3.804194e+01	-5.178586e+01
1.700000e-07	-5.468965e-06	-7.639217e-10	-3.799897e+01	-5.176091e+01
1.800000e-07	-5.462345e-06	-7.985119e-10	-3.795298e+01	-5.173392e+01
1.900000e-07	-5.455259e-06	-7.952009e-10	-3.790375e+01	-5.170486e+01
2.000000e-07	-5.447835e-06	-7.548149e-10	-3.785216e+01	-5.167372e+01
2.100000e-07	-5.440188e-06	-7.516376e-10	-3.779903e+01	-5.164051e+01
2.200000e-07	-5.432348e-06	-8.045329e-10	-3.774456e+01	-5.160522e+01
2.300000e-07	-5.424187e-06	-8.232307e-10	-3.768785e+01	-5.156787e+01
2.400000e-07	-5.415557e-06	-8.048419e-10	-3.762789e+01	-5.152848e+01
2.500000e-07	-5.406388e-06	-7.942668e-10	-3.756419e+01	-5.148707e+01
2.600000e-07	-5.396523e-06	-8.138022e-10	-3.749564e+01	-5.144369e+01
2.700000e-07	-5.385933e-06	-8.088203e-10	-3.742206e+01	-5.139838e+01
2.800000e-07	-5.374752e-06	-8.012926e-10	-3.734437e+01	-5.135117e+01
2.900000e-07	-5.363142e-06	-8.061266e-10	-3.726370e+01	-5.130213e+01
3.000000e-07	-5.351228e-06	-8.262857e-10	-3.718092e+01	-5.125130e+01
3.100000e-07	-5.339029e-06	-8.117107e-10	-3.709617e+01	-5.119874e+01
3.200000e-07	-5.326435e-06	-7.991480e-10	-3.700866e+01	-5.114451e+01
3.300000e-07	-5.313333e-06	-8.025409e-10	-3.691763e+01	-5.108867e+01
3.400000e-07	-5.299844e-06	-8.155669e-10	-3.682391e+01	-5.103128e+01
3.500000e-07	-5.286004e-06	-7.995489e-10	-3.672774e+01	-5.097239e+01
3.600000e-07	-5.271796e-06	-7.962918e-10	-3.662902e+01	-5.091206e+01
3.700000e-07	-5.257218e-06	-8.056808e-10	-3.652774e+01	-5.085033e+01
3.800000e-07	-5.242243e-06	-8.116492e-10	-3.642369e+01	-5.078726e+01
3.900000e-07	-5.226692e-06	-7.961443e-10	-3.631564e+01	-5.072289e+01
4.000000e-07	-5.210467e-06	-7.922542e-10	-3.620290e+01	-5.065725e+01
4.100000e-07	-5.193842e-06	-7.958459e-10	-3.608739e+01	-5.059038e+01
4.200000e-07	-5.177021e-06	-7.911894e-10	-3.597052e+01	-5.052229e+01
4.300000e-07	-5.159905e-06	-7.876190e-10	-3.585159e+01	-5.045300e+01
4.400000e-07	-5.142365e-06	-7.915211e-10	-3.572972e+01	-5.038252e+01
4.500000e-07	-5.124422e-06	-7.990478e-10	-3.560505e+01	-5.031086e+01
4.600000e-07	-5.106075e-06	-7.885535e-10	-3.547758e+01	-5.023801e+01
4.700000e-07	-5.087276e-06	-7.797916e-10	-3.534696e+01	-5.016394e+01
4.800000e-07	-5.068091e-06	-7.756377e-10	-3.521366e+01	-5.008865e+01
4.900000e-07	-5.048642e-06	-7.848889e-10	-3.507853e+01	-5.001211e+01
5.000000e-07	-5.028958e-06	-7.815019e-10	-3.494176e+01	-4.993428e+01
5.100000e-07	-5.009095e-06	-7.734152e-10	-3.480375e+01	-4.985512e+01
5.200000e-07	-4.988972e-06	-7.649865e-10	-3.466393e+01	-4.977459e+01
5.300000e-07	-4.968539e-06	-7.708631e-10	-3.452196e+01	-4.969264e+01
5.400000e-07	-4.947733e-06	-7.705560e-10	-3.437740e+01	-4.960922e+01
5.500000e-07	-4.926563e-06	-7.730547e-10	-3.423031e+01	-4.952427e+01
5.600000e-07	-4.905046e-06	-7.734083e-10	-3.408081e+01	-4.943774e+01
5.700000e-07	-4.883116e-06	-7.709173e-10	-3.392843e+01	-4.934958e+01
5.800000e-07	-4.860803e-06	-7.622146e-10	-3.377340e+01	-4.925971e+01
5.900000e-07	-4.838060e-06	-7.622756e-10	-3.361538e+01	-4.916811e+01
6.000000e-07	-4.815014e-06	-7.556758e-10	-3.345525e+01	-4.907470e+01
6.100000e-07	-4.791759e-06	-7.491189e-10	-3.329367e+01	-4.897945e+01
6.200000e-07	-4.768291e-06	-7.503120e-10	-3.313062e+01	-4.888231e+01
6.300000e-07	-4.744589e-06	-7.546859e-10	-3.296593e+01	-4.878325e+01
6.400000e-07	-4.720627e-06	-7.488498e-10	-3.279944e+01	-4.868224e+01
6.500000e-07	-4.696365e-06	-7.448057e-10	-3.263087e+01	-4.857925e+01
6.600000e-07	-4.671695e-06	-7.484022e-10	-3.245945e+01	-4.847428e+01
6.700000e-07	-4.646617e-06	-7.475512e-10	-3.228521e+01	-4.836731e+01
6.800000e-07	-4.620980e-06	-7.403598e-10	-3.210708e+01	-4.825835e+01
6.900000e-07	-4.594677e-06	-7.402669e-10	-3.192433e+01	-4.814742e+01
7.000000e-07	-4.567873e-06	-7.447996e-10	-3.173809e+01	-4.803453e+01
7.100000e-07	-4.540688e-06	-7.400526e-10	-3.154920e+01	-4.791971e+01
7.200000e-07	-4.513233e-06	-7.360517e-10	-3.135844e+01	-4.780302e+01
7.300000e-07	-4.485595e-06	-7.387055e-10	-3.116641e+01	-4.768450e+01
7.400000e-07	-4.457790e-06	-7.388637e-10	-3.097322e+01	-4.756420e+01
7.500000e-07	-4.429821e-06	-7.330363e-10	-3.077889e+01	-4.744220e+01
7.600000e-07	-4.401541e-06	-7.366530e-10	-3.058239e+01	-4.731857e+01
7.700000e-07	-4.372885e-06	-7.380202e-10	-3.038329e+01	-4.719340e+01
7.800000e-07	-4.343913e-06	-7.327327e-10	-3.018199e+01	-4.706675e+01
7.900000e-07	-4.314619e-06	-7.284413e-10	-2.997845e+01	-4.693874e+01
8.000000e-07	-4.285044e-06	-7.294282e-10	-2.977296e+01	-4.680944e+01
8.100000e-07	-4.255218e-06	-7.219666e-10	-2.956573e+01	-4.667895e+01
8.200000e-07	-4.225128e-06	-7.182803e-10	-2.935666e+01	-4.654737e+01
8.300000e-07	-4.194656e-06	-7.197996e-10	-2.914494e+01	-4.641478e+01
8.400000e-07	-4.163871e-06	-7.193566e-10	-2.893104e+01	-4.628128e+01
8.500000e-07	-4.132889e-06	-7.169365e-10	-2.871577e+01	-4.614695e+01
8.600000e-07	-4.101702e-06	-7.188390e-10	-2.849908e+01	-4.601186e+01
8.700000e-07	-4.070278e-06	-7.161425e-10	-2.828074e+01	-4.587609e+01
8.800000e-07	-4.038607e-06	-7.064233e-10	-2.806069e+01	-4.573969e+01
8.900000e-07	-4.006783e-06	-7.007611e-10	-2.783957e+01	-4.560271e+01
9.000000e-07	-3.974780e-06	-6.977616e-10	-2.761721e+01	-4.546520e+01
9.100000e-07	-3.942545e-06	-6.911553e-10	-2.739324e+01	-4.532716e+01
9.200000e-07	-3.909948e-06	-6.897146e-10	-2.716675e+01	-4.518861e+01
9.300000e-07	-3.876873e-06	-6.935684e-10	-2.693694e+01	-4.504953e+01
9.400000e-07	-3.843404e-06	-6.959153e-10	-2.670440e+01	-4.490992e+01
9.500000e-07	-3.809550e-06	-6.949080e-10	-2.646917e+01	-4.476971e+01
9.600000e-07	-3.775140e-06	-6.945339e-10	-2.623009e+01	-4.462884e+01
9.700000e-07	-3.740281e-06	-6.899576e-10	-2.598789e+01	-4.448725e+01
9.800000e-07	-3.705146e-06	-6.823183e-10	-2.574376e+01	-4.434483e+01
9.900000e-07	-3.669760e-06	-6.774324e-10	-2.549790e+01	-4.420146e+01
1.000000e-06	-3.634181e-06	-6.751079e-10	-2.525070e+01	-4.405700e+01
1.010000e-06	-3.598442e-06	-6.704494e-10	-2.500238e+01	-4.391132e+01
1.020000e-06	-3.562564e-06	-6.691726e-10	-2.475309e+01	-4.376422e+01
1.030000e-06	-3.526593e-06	-6.717487e-10	-2.450316e+01	-4.361554e+01
1.040000e-06	-3.490503e-06	-6.698089e-10	-2.425240e+01	-4.346506e+01
1.050000e-06	-3.454112e-06	-6.676514e-10	-2.399956e+01	-4.331258e+01
1.060000e-06	-3.417368e-06	-6.633080e-10	-2.374425e+01	-4.315785e+01
1.070000e-06	-3.380373e-06	-6.553010e-10	-2.348721e+01	-4.300066e+01
1.080000e-06	-3.343113e-06	-6.477613e-10	-2.322832e+01	-4.284075e+01
1.090000e-06	-3.305600e-06	-6.465325e-10	-2.296768e+01	-4.267786e+01
1.100000e-06	-3.267806e-06	-6.452447e-10	-2.270508e+01	-4.251174e+01
1.110000e-06	-3.229712e-06	-6.421108e-10	-2.244039e+01	-4.234213e+01
1.120000e-06	-3.191491e-06	-6.388765e-10	-2.217483e+01	-4.216875e+01
1.130000e-06	-3.153153e-06	-6.361826e-10	-2.190846e+01	-4.199136e+01
1.140000e-06	-3.114570e-06	-6.298475e-10	-2.164038e+01	-4.180970e+01
1.150000e-06	-3.075744e-06	-6.230844e-10	-2.137061e+01	-4.162350e+01
1.160000e-06	-3.036708e-06	-6.187344e-10	-2.109939e+01	-4.143253e+01
1.170000e-06	-2.997478e-06	-6.164892e-10	-2.082681e+01	-4.123655e+01
1.180000e-06	-2.958130e-06	-6.153638e-10	-2.055342e+01	-4.103533e+01
1.190000e-06	-2.918655e-06	-6.145459e-10	-2.027914e+01	-4.082867e+01
1.200000e-06	-2.879021e-06	-6.108192e-10	-2.000376e+01	-4.061637e+01
1.210000e-06	-2.839248e-06	-6.047558e-10	-1.972741e+01	-4.039825e+01
1.220000e-06	-2.799295e-06	-5.978147e-10	-1.944981e+01	-4.017414e+01
1.230000e-06	-2.759115e-06	-5.907954e-10	-1.917064e+01	-3.994390e+01
1.240000e-06	-2.718742e-06	-5.834514e-10	-1.889012e+01	-3.970741e+01
1.250000e-06	-2.678202e-06	-5.798979e-10	-1.860844e+01	-3.946456e+01
1.260000e-06	-2.637451e-06	-5.794710e-10	-1.832531e+01	-3.921525e+01
1.270000e-06	-2.596484e-06	-5.787205e-10	-1.804066e+01	-3.895943e+01
1.280000e-06	-2.555313e-06	-5.762556e-10	-1.775460e+01	-3.869704e+01
1.290000e-06	-2.513849e-06	-5.715128e-10	-1.746651e+01	-3.842805e+01
1.300000e-06	-2.471919e-06	-5.637656e-10	-1.717517e+01	-3.815245e+01
1.310000e-06	-2.429675e-06	-5.536964e-10	-1.688165e+01	-3.787024e+01
1.320000e-06	-2.387242e-06	-5.470866e-10	-1.658682e+01	-3.758143e+01
1.330000e-06	-2.344578e-06	-5.447167e-10	-1.629039e+01	-3.728607e+01
1.340000e-06	-2.301638e-06	-5.452431e-10	-1.599204e+01	-3.698418e+01
1.350000e-06	-2.258363e-06	-5.440411e-10	-1.569136e+01	-3.667582e+01
1.360000e-06	-2.214969e-06	-5.397590e-10	-1.538985e+01	-3.636104e+01
1.370000e-06	-2.171543e-06	-5.327816e-10	-1.508812e+01	-3.603990e+01
1.380000e-06	-2.127988e-06	-5.259967e-10	-1.478549e+01	-3.571247e+01
1.390000e-06	-2.084315e-06	-5.186444e-10	-1.448205e+01	-3.537880e+01
1.400000e-06	-2.040508e-06	-5.120909e-10	-1.417767e+01	-3.503894e+01
1.410000e-06	-1.996634e-06	-5.074925e-10	-1.387283e+01	-3.469294e+01
1.420000e-06	-1.952738e-06	-5.048326e-10	-1.356784e+01	-3.434084e+01
1.430000e-06	-1.908739e-06	-5.013223e-10	-1.326213e+01	-3.398266e+01
1.440000e-06	-1.864613e-06	-4.973476e-10	-1.295554e+01	-3.361840e+01
1.450000e-06	-1.820393e-06	-4.932892e-10	-1.264829e+01	-3.324806e+01
1.460000e-06	-1.776119e-06	-4.868674e-10	-1.234067e+01	-3.287160e+01
1.470000e-06	-1.731678e-06	-4.773328e-10	-1.203189e+01	-3.248895e+01
1.480000e-06	-1.687007e-06	-4.688389e-10	-1.172151e+01	-3.210005e+01
1.490000e-06	-1.642261e-06	-4.611282e-10	-1.141061e+01	-3.170476e+01
1.500000e-06	-1.597412e-06	-4.535998e-10	-1.109900e+01	-3.130296e+01
1.510000e-06	-1.552465e-06	-4.479772e-10	-1.078670e+01	-3.089447e+01
1.520000e-06	-1.507441e-06	-4.415308e-10	-1.047387e+01	-3.047909e+01
1.530000e-06	-1.462268e-06	-4.337775e-10	-1.016000e+01	-3.005657e+01
1.540000e-06	-1.416907e-06	-4.272040e-10	-9.844824e+00	-2.962665e+01
1.550000e-06	-1.371412e-06	-4.226154e-10	-9.528721e+00	-2.918903e+01
1.560000e-06	-1.325909e-06	-4.155058e-10	-9.212562e+00	-2.874336e+01
1.570000e-06	-1.280328e-06	-4.059192e-10	-8.895858e+00	-2.828930e+01
1.580000e-06	-1.234616e-06	-3.960090e-10	-8.578248e+00	-2.782644e+01
1.590000e-06	-1.188763e-06	-3.874265e-10	-8.259659e+00	-2.735436e+01
1.600000e-06	-1.142795e-06	-3.782812e-10	-7.940264e+00	-2.687261e+01
1.610000e-06	-1.096743e-06	-3.704445e-10	-7.620293e+00	-2.638072e+01
1.620000e-06	-1.050674e-06	-3.621285e-10	-7.300203e+00	-2.587821e+01
1.630000e-06	-1.004504e-06	-3.535738e-10	-6.979408e+00	-2.536456e+01
1.640000e-06	-9.582193e-07	-3.433534e-10	-6.657814e+00	-2.483926e+01
1.650000e-06	-9.119974e-07	-3.308963e-10	-6.336659e+00	-2.430179e+01
1.660000e-06	-8.658308e-07	-3.197556e-10	-6.015888e+00	-2.375161e+01
1.670000e-06	-8.196045e-07	-3.081491e-10	-5.694703e+00	-2.318820e+01
1.680000e-06	-7.732781e-07	-2.986986e-10	-5.372822e+00	-2.261104e+01
1.690000e-06	-7.268596e-07	-2.913839e-10	-5.050301e+00	-2.201961e+01
1.700000e-06	-6.803465e-07	-2.859252e-10	-4.727123e+00	-2.141342e+01
1.710000e-06	-6.338090e-07	-2.775041e-10	-4.403775e+00	-2.079199e+01
1.720000e-06	-5.872208e-07	-2.647242e-10	-4.080075e+00	-2.015489e+01
1.730000e-06	-5.405865e-07	-2.525649e-10	-3.756055e+00	-1.950169e+01
1.740000e-06	-4.939615e-07	-2.422206e-10	-3.432099e+00	-1.883203e+01
1.750000e-06	-4.472619e-07	-2.330357e-10	-3.107625e+00	-1.814556e+01
1.760000e-06	-4.003653e-07	-2.225769e-10	-2.781783e+00	-1.744202e+01
1.770000e-06	-3.534400e-07	-2.112610e-10	-2.455740e+00	-1.672115e+01
1.780000e-06	-3.066254e-07	-2.019620e-10	-2.130467e+00	-1.598279e+01
1.790000e-06	-2.597734e-07	-1.929006e-10	-1.804935e+00	-1.522683e+01
1.800000e-06	-2.128790e-07	-1.797201e-10	-1.479107e+00	-1.445322e+01
1.810000e-06	-1.660024e-07	-1.647796e-10	-1.153403e+00	-1.366197e+01
1.820000e-06	-1.191396e-07	-1.512095e-10	-8.277950e-01	-1.285318e+01
1.830000e-06	-7.228347e-08	-1.391386e-10	-5.022336e-01	-1.202701e+01
1.840000e-06	-2.543800e-08	-1.288202e-10	-1.767460e-01	-1.118370e+01
1.850000e-06	2.135813e-08	-1.195780e-10	1.483987e-01	-1.032358e+01
1.860000e-06	6.810866e-08	-1.094423e-10	4.732265e-01	-9.447041e+00
1.870000e-06	1.148366e-07	-9.689085e-11	7.978971e-01	-8.554556e+00
1.880000e-06	1.615972e-07	-8.407389e-11	1.122796e+00	-7.646679e+00
1.890000e-06	2.084493e-07	-6.974662e-11	1.448329e+00	-6.724043e+00
1.900000e-06	2.552705e-07	-5.408738e-11	1.773648e+00	-5.787355e+00
1.910000e-06	3.020379e-07	-4.056918e-11	2.098593e+00	-4.837394e+00
1.920000e-06	3.487267e-07	-2.897234e-11	2.422992e+00	-3.875013e+00
1.930000e-06	3.953400e-07	-1.835590e-11	2.746866e+00	-2.901132e+00
1.940000e-06	4.420108e-07	-8.014218e-12	3.071140e+00	-1.916733e+00
1.950000e-06	4.886864e-07	2.006856e-12	3.395447e+00	-9.228613e-01
1.960000e-06	5.352685e-07	1.272520e-11	3.719105e+00	7.938600e-02
1.970000e-06	5.817507e-07	2.412418e-11	4.042068e+00	1.088861e+00
1.980000e-06	6.281861e-07	3.907481e-11	4.364707e+00	2.104371e+00
1.990000e-06	6.746295e-07	5.643605e-11	4.687401e+00	3.124686e+00
2.000000e-06	7.210607e-07	7.381355e-11	5.010010e+00	4.148545e+00
2.010000e-06	7.674894e-07	9.180859e-11	5.332602e+00	5.174662e+00
2.020000e-06	8.138760e-07	1.084733e-10	5.654901e+00	6.201732e+00
2.030000e-06	8.601664e-07	1.218865e-10	5.976532e+00	7.228439e+00
2.040000e-06	9.063861e-07	1.331183e-10	6.297671e+00	8.253464e+00
2.050000e-06	9.525023e-07	1.435509e-10	6.618091e+00	9.275491e+00
2.060000e-06	9.985059e-07	1.556504e-10	6.937730e+00	1.029321e+01
2.070000e-06	1.044412e-06	1.688130e-10	7.256692e+00	1.130534e+01
2.080000e-06	1.090322e-06	1.832869e-10	7.575677e+00	1.231062e+01
2.090000e-06	1.136199e-06	1.985362e-10	7.894435e+00	1.330780e+01
2.100000e-06	1.181926e-06	2.130185e-10	8.212156e+00	1.429570e+01
2.110000e-06	1.227600e-06	2.271991e-10	8.529504e+00	1.527317e+01
2.120000e-06	1.273164e-06	2.397697e-10	8.846088e+00	1.623910e+01
2.130000e-06	1.318638e-06	2.507085e-10	9.162044e+00	1.719245e+01
2.140000e-06	1.364082e-06	2.609432e-10	9.477793e+00	1.813223e+01
2.150000e-06	1.409419e-06	2.719981e-10	9.792800e+00	1.905752e+01
2.160000e-06	1.454628e-06	2.830719e-10	1.010692e+01	1.996747e+01
2.170000e-06	1.499775e-06	2.953320e-10	1.042060e+01	2.086130e+01
2.180000e-06	1.544897e-06	3.093273e-10	1.073412e+01	2.173830e+01
2.190000e-06	1.589889e-06	3.223775e-10	1.104673e+01	2.259786e+01
2.200000e-06	1.634685e-06	3.336709e-10	1.135797e+01	2.343942e+01
2.210000e-06	1.679315e-06	3.439936e-10	1.166807e+01	2.426252e+01
2.220000e-06	1.723848e-06	3.550348e-10	1.197749e+01	2.506678e+01
2.230000e-06	1.768250e-06	3.672750e-10	1.228600e+01	2.585189e+01
2.240000e-06	1.812482e-06	3.775232e-10	1.259332e+01	2.661762e+01
2.250000e-06	1.856522e-06	3.870426e-10	1.289932e+01	2.736384e+01
2.260000e-06	1.900417e-06	3.967735e-10	1.320431e+01	2.809048e+01
2.270000e-06	1.944304e-06	4.065329e-10	1.350924e+01	2.879755e+01
2.280000e-06	1.988170e-06	4.159606e-10	1.381403e+01	2.948512e+01
2.290000e-06	2.031963e-06	4.248142e-10	1.411830e+01	3.015336e+01
2.300000e-06	2.075679e-06	4.341939e-10	1.442205e+01	3.080247e+01
2.310000e-06	2.119293e-06	4.431327e-10	1.472508e+01	3.143273e+01
2.320000e-06	2.162891e-06	4.505692e-10	1.502800e+01	3.204448e+01
2.330000e-06	2.206456e-06	4.560507e-10	1.533070e+01	3.263810e+01
2.340000e-06	2.249843e-06	4.621456e-10	1.563216e+01	3.321401e+01
2.350000e-06	2.293045e-06	4.709528e-10	1.593233e+01	3.377269e+01
2.360000e-06	2.336101e-06	4.797713e-10	1.623149e+01	3.431466e+01
2.370000e-06	2.378917e-06	4.874451e-10	1.652898e+01	3.484043e+01
2.380000e-06	2.421492e-06	4.930216e-10	1.682480e+01	3.535058e+01
2.390000e-06	2.463735e-06	4.981760e-10	1.711831e+01	3.584569e+01
2.400000e-06	2.505590e-06	5.047272e-10	1.740911e+01	3.632635e+01
2.410000e-06	2.547120e-06	5.138737e-10	1.769767e+01	3.679315e+01
2.420000e-06	2.588281e-06	5.258187e-10	1.798366e+01	3.724671e+01
2.430000e-06	2.629229e-06	5.378546e-10	1.826818e+01	3.768762e+01
2.440000e-06	2.669968e-06	5.466915e-10	1.855123e+01	3.811647e+01
2.450000e-06	2.710366e-06	5.517752e-10	1.883192e+01	3.853385e+01
2.460000e-06	2.750581e-06	5.553097e-10	1.911134e+01	3.894031e+01
2.470000e-06	2.790715e-06	5.587880e-10	1.939019e+01	3.933641e+01
2.480000e-06	2.830664e-06	5.638349e-10	1.966777e+01	3.972265e+01
2.490000e-06	2.870446e-06	5.692342e-10	1.994418e+01	4.009954e+01
2.500000e-06	2.910128e-06	5.764475e-10	2.021990e+01	4.046753e+01
2.510000e-06	2.949671e-06	5.868547e-10	2.049464e+01	4.082704e+01
2.520000e-06	2.989019e-06	5.955789e-10	2.076804e+01	4.117849e+01
2.530000e-06	3.028144e-06	6.006308e-10	2.103988e+01	4.152221e+01
2.540000e-06	3.067038e-06	6.027417e-10	2.131012e+01	4.185855e+01
2.550000e-06	3.105724e-06	6.037655e-10	2.157891e+01	4.218777e+01
2.560000e-06	3.144174e-06	6.074509e-10	2.184607e+01	4.251014e+01
2.570000e-06	3.182392e-06	6.135092e-10	2.211161e+01	4.282586e+01
2.580000e-06	3.220366e-06	6.194162e-10	2.237546e+01	4.313511e+01
2.590000e-06	3.258086e-06	6.235767e-10	2.263754e+01	4.343803e+01
2.600000e-06	3.295627e-06	6.283383e-10	2.289839e+01	4.373472e+01
2.610000e-06	3.333084e-06	6.350808e-10	2.315864e+01	4.402527e+01
2.620000e-06	3.370351e-06	6.417814e-10	2.341757e+01	4.430972e+01
2.630000e-06	3.407310e-06	6.474218e-10	2.367437e+01	4.458808e+01
2.640000e-06	3.443954e-06	6.517531e-10	2.392897e+01	4.486036e+01
2.650000e-06	3.480349e-06	6.540487e-10	2.418185e+01	4.512653e+01
2.660000e-06	3.516558e-06	6.546694e-10	2.443344e+01	4.538654e+01
2.670000e-06	3.552517e-06	6.549779e-10	2.468328e+01	4.564033e+01
2.680000e-06	3.588334e-06	6.571001e-10	2.493214e+01	4.588784e+01
2.690000e-06	3.624050e-06	6.609098e-10	2.518030e+01	4.612898e+01
2.700000e-06	3.659632e-06	6.661904e-10	2.542753e+01	4.636366e+01
2.710000e-06	3.695091e-06	6.713017e-10	2.567390e+01	4.659179e+01
2.720000e-06	3.730328e-06	6.758323e-10	2.591874e+01	4.681329e+01
2.730000e-06	3.765266e-06	6.803228e-10	2.616149e+01	4.702807e+01
2.740000e-06	3.799829e-06	6.827183e-10	2.640163e+01	4.723605e+01
2.750000e-06	3.833939e-06	6.833811e-10	2.663863e+01	4.743715e+01
2.760000e-06	3.867624e-06	6.840093e-10	2.687268e+01	4.763133e+01
2.770000e-06	3.900831e-06	6.848228e-10	2.710340e+01	4.781854e+01
2.780000e-06	3.933511e-06	6.876939e-10	2.733047e+01	4.799874e+01
2.790000e-06	3.965850e-06	6.931014e-10	2.755517e+01	4.817192e+01
2.800000e-06	3.997993e-06	6.984217e-10	2.777850e+01	4.833810e+01
2.810000e-06	4.029933e-06	7.034155e-10	2.800042e+01	4.849729e+01
2.820000e-06	4.061643e-06	7.080887e-10	2.822075e+01	4.864955e+01
2.830000e-06	4.093207e-06	7.129252e-10	2.844005e+01	4.879495e+01
2.840000e-06	4.124612e-06	7.157608e-10	2.865826e+01	4.893357e+01
2.850000e-06	4.155704e-06	7.158967e-10	2.887429e+01	4.906553e+01
2.860000e-06	4.186487e-06	7.163926e-10	2.908817e+01	4.919096e+01
2.870000e-06	4.216912e-06	7.182874e-10	2.929957e+01	4.931002e+01
2.880000e-06	4.246998e-06	7.205439e-10	2.950862e+01	4.942288e+01
2.890000e-06	4.276860e-06	7.256412e-10	2.971610e+01	4.952973e+01
2.900000e-06	4.306467e-06	7.328167e-10	2.992181e+01	4.963080e+01
