# Temperatura_=_-0.7
# Concentracion g/m^3_=_1620.0
# C_Vs_to_Am_M_A/Vsm_=_65563218390.804596
# pendiente_HvsI_1/m_=_3716.3
# ordenada_HvsI_A/m_=_1297.0
# frecuencia_Hz_=_135092.12178191528

Tiempo_(s)	Campo_(V.s)	Magnetizacion_(V.s)	Campo_(kA/m)	Magnetizacion_(A/m)
0.000000e+00	-5.521922e-06	-1.194414e-09	-3.836081e+01	-7.837105e+01
1.000000e-08	-5.522257e-06	-1.199635e-09	-3.836314e+01	-7.838528e+01
2.000000e-08	-5.522354e-06	-1.204448e-09	-3.836381e+01	-7.839569e+01
3.000000e-08	-5.522142e-06	-1.207611e-09	-3.836234e+01	-7.840214e+01
4.000000e-08	-5.521483e-06	-1.204798e-09	-3.835777e+01	-7.840453e+01
5.000000e-08	-5.520318e-06	-1.200684e-09	-3.834967e+01	-7.840272e+01
6.000000e-08	-5.518653e-06	-1.197299e-09	-3.833810e+01	-7.839663e+01
7.000000e-08	-5.516319e-06	-1.196252e-09	-3.832189e+01	-7.838618e+01
8.000000e-08	-5.513378e-06	-1.195071e-09	-3.830146e+01	-7.837129e+01
9.000000e-08	-5.510019e-06	-1.173952e-09	-3.827812e+01	-7.835191e+01
1.000000e-07	-5.506204e-06	-1.176578e-09	-3.825162e+01	-7.832800e+01
1.100000e-07	-5.502046e-06	-1.247081e-09	-3.822273e+01	-7.829953e+01
1.200000e-07	-5.497609e-06	-1.220370e-09	-3.819191e+01	-7.826651e+01
1.300000e-07	-5.492910e-06	-1.132343e-09	-3.815927e+01	-7.822894e+01
1.400000e-07	-5.487943e-06	-1.131203e-09	-3.812476e+01	-7.818684e+01
1.500000e-07	-5.482627e-06	-1.197763e-09	-3.808783e+01	-7.814025e+01
1.600000e-07	-5.476846e-06	-1.221654e-09	-3.804767e+01	-7.808922e+01
1.700000e-07	-5.470622e-06	-1.135550e-09	-3.800443e+01	-7.803382e+01
1.800000e-07	-5.464061e-06	-1.172581e-09	-3.795885e+01	-7.797413e+01
1.900000e-07	-5.457111e-06	-1.244377e-09	-3.791057e+01	-7.791024e+01
2.000000e-07	-5.449793e-06	-1.238807e-09	-3.785973e+01	-7.784225e+01
2.100000e-07	-5.442201e-06	-1.147335e-09	-3.780699e+01	-7.777028e+01
2.200000e-07	-5.434380e-06	-1.155915e-09	-3.775266e+01	-7.769445e+01
2.300000e-07	-5.426310e-06	-1.224295e-09	-3.769660e+01	-7.761489e+01
2.400000e-07	-5.417845e-06	-1.251659e-09	-3.763779e+01	-7.753174e+01
2.500000e-07	-5.408847e-06	-1.206462e-09	-3.757528e+01	-7.744512e+01
2.600000e-07	-5.399257e-06	-1.196960e-09	-3.750866e+01	-7.735520e+01
2.700000e-07	-5.388899e-06	-1.224860e-09	-3.743670e+01	-7.726210e+01
2.800000e-07	-5.377900e-06	-1.201719e-09	-3.736029e+01	-7.716599e+01
2.900000e-07	-5.366456e-06	-1.171631e-09	-3.728079e+01	-7.706699e+01
3.000000e-07	-5.354675e-06	-1.173627e-09	-3.719895e+01	-7.696526e+01
3.100000e-07	-5.342565e-06	-1.209614e-09	-3.711482e+01	-7.686093e+01
3.200000e-07	-5.330121e-06	-1.196175e-09	-3.702837e+01	-7.675413e+01
3.300000e-07	-5.317279e-06	-1.180937e-09	-3.693915e+01	-7.664499e+01
3.400000e-07	-5.303910e-06	-1.170816e-09	-3.684628e+01	-7.653363e+01
3.500000e-07	-5.290156e-06	-1.197625e-09	-3.675073e+01	-7.642014e+01
3.600000e-07	-5.276036e-06	-1.181497e-09	-3.665264e+01	-7.630465e+01
3.700000e-07	-5.261309e-06	-1.148046e-09	-3.655034e+01	-7.618722e+01
3.800000e-07	-5.246055e-06	-1.159057e-09	-3.644436e+01	-7.606794e+01
3.900000e-07	-5.230454e-06	-1.214355e-09	-3.633598e+01	-7.594687e+01
4.000000e-07	-5.214334e-06	-1.172195e-09	-3.622400e+01	-7.582407e+01
4.100000e-07	-5.197776e-06	-1.128234e-09	-3.610897e+01	-7.569958e+01
4.200000e-07	-5.180937e-06	-1.178127e-09	-3.599199e+01	-7.557342e+01
4.300000e-07	-5.163741e-06	-1.200604e-09	-3.587253e+01	-7.544562e+01
4.400000e-07	-5.146191e-06	-1.119398e-09	-3.575061e+01	-7.531617e+01
4.500000e-07	-5.128269e-06	-1.139580e-09	-3.562611e+01	-7.518506e+01
4.600000e-07	-5.109993e-06	-1.211523e-09	-3.549914e+01	-7.505229e+01
4.700000e-07	-5.091324e-06	-1.151654e-09	-3.536945e+01	-7.491781e+01
4.800000e-07	-5.072226e-06	-1.097249e-09	-3.523677e+01	-7.478158e+01
4.900000e-07	-5.052881e-06	-1.179548e-09	-3.510238e+01	-7.464357e+01
5.000000e-07	-5.033367e-06	-1.179852e-09	-3.496682e+01	-7.450371e+01
5.100000e-07	-5.013590e-06	-1.101251e-09	-3.482943e+01	-7.436194e+01
5.200000e-07	-4.993510e-06	-1.141253e-09	-3.468993e+01	-7.421819e+01
5.300000e-07	-4.973109e-06	-1.176400e-09	-3.454821e+01	-7.407239e+01
5.400000e-07	-4.952349e-06	-1.102463e-09	-3.440399e+01	-7.392445e+01
5.500000e-07	-4.931272e-06	-1.117216e-09	-3.425757e+01	-7.377432e+01
5.600000e-07	-4.909853e-06	-1.183812e-09	-3.410876e+01	-7.362190e+01
5.700000e-07	-4.888004e-06	-1.121276e-09	-3.395698e+01	-7.346712e+01
5.800000e-07	-4.865799e-06	-1.084625e-09	-3.380273e+01	-7.330990e+01
5.900000e-07	-4.843323e-06	-1.147007e-09	-3.364658e+01	-7.315018e+01
6.000000e-07	-4.820510e-06	-1.130263e-09	-3.348810e+01	-7.298789e+01
6.100000e-07	-4.797381e-06	-1.070980e-09	-3.332742e+01	-7.282296e+01
6.200000e-07	-4.774029e-06	-1.114173e-09	-3.316520e+01	-7.265535e+01
6.300000e-07	-4.750455e-06	-1.122530e-09	-3.300143e+01	-7.248501e+01
6.400000e-07	-4.726568e-06	-1.071835e-09	-3.283548e+01	-7.231190e+01
6.500000e-07	-4.702391e-06	-1.087713e-09	-3.266753e+01	-7.213599e+01
6.600000e-07	-4.677784e-06	-1.113855e-09	-3.249659e+01	-7.195728e+01
6.700000e-07	-4.652669e-06	-1.071237e-09	-3.232211e+01	-7.177574e+01
6.800000e-07	-4.627104e-06	-1.070382e-09	-3.214451e+01	-7.159139e+01
6.900000e-07	-4.600950e-06	-1.090068e-09	-3.196282e+01	-7.140424e+01
7.000000e-07	-4.574238e-06	-1.067628e-09	-3.177725e+01	-7.121431e+01
7.100000e-07	-4.547201e-06	-1.056265e-09	-3.158942e+01	-7.102163e+01
7.200000e-07	-4.519934e-06	-1.079203e-09	-3.140000e+01	-7.082626e+01
7.300000e-07	-4.492403e-06	-1.063492e-09	-3.120874e+01	-7.062825e+01
7.400000e-07	-4.464619e-06	-1.051519e-09	-3.101573e+01	-7.042765e+01
7.500000e-07	-4.436665e-06	-1.070677e-09	-3.082153e+01	-7.022454e+01
7.600000e-07	-4.408418e-06	-1.065847e-09	-3.062530e+01	-7.001899e+01
7.700000e-07	-4.379827e-06	-1.043086e-09	-3.042668e+01	-6.981109e+01
7.800000e-07	-4.350994e-06	-1.052330e-09	-3.022637e+01	-6.960092e+01
7.900000e-07	-4.321877e-06	-1.051714e-09	-3.002410e+01	-6.938856e+01
8.000000e-07	-4.292407e-06	-1.033858e-09	-2.981936e+01	-6.917412e+01
8.100000e-07	-4.262606e-06	-1.040355e-09	-2.961234e+01	-6.895767e+01
8.200000e-07	-4.232503e-06	-1.049198e-09	-2.940321e+01	-6.873931e+01
8.300000e-07	-4.202144e-06	-1.032959e-09	-2.919231e+01	-6.851912e+01
8.400000e-07	-4.171562e-06	-1.029164e-09	-2.897986e+01	-6.829717e+01
8.500000e-07	-4.140695e-06	-1.039453e-09	-2.876542e+01	-6.807354e+01
8.600000e-07	-4.109533e-06	-1.027991e-09	-2.854894e+01	-6.784830e+01
8.700000e-07	-4.078102e-06	-1.015537e-09	-2.833059e+01	-6.762150e+01
8.800000e-07	-4.046559e-06	-1.023694e-09	-2.811146e+01	-6.739317e+01
8.900000e-07	-4.014855e-06	-1.022007e-09	-2.789121e+01	-6.716336e+01
9.000000e-07	-3.982906e-06	-1.004017e-09	-2.766926e+01	-6.693208e+01
9.100000e-07	-3.950613e-06	-1.005434e-09	-2.744492e+01	-6.669933e+01
9.200000e-07	-3.917979e-06	-1.005824e-09	-2.721822e+01	-6.646510e+01
9.300000e-07	-3.885041e-06	-9.978432e-10	-2.698940e+01	-6.622935e+01
9.400000e-07	-3.851569e-06	-9.994679e-10	-2.675687e+01	-6.599204e+01
9.500000e-07	-3.817569e-06	-1.010896e-09	-2.652067e+01	-6.575310e+01
9.600000e-07	-3.783145e-06	-9.996694e-10	-2.628152e+01	-6.551245e+01
9.700000e-07	-3.748345e-06	-9.870346e-10	-2.603977e+01	-6.526999e+01
9.800000e-07	-3.713226e-06	-9.845961e-10	-2.579580e+01	-6.502559e+01
9.900000e-07	-3.677865e-06	-9.789400e-10	-2.555014e+01	-6.477911e+01
1.000000e-06	-3.642282e-06	-9.702332e-10	-2.530295e+01	-6.453041e+01
1.010000e-06	-3.606577e-06	-9.740247e-10	-2.505490e+01	-6.427930e+01
1.020000e-06	-3.570833e-06	-9.743046e-10	-2.480659e+01	-6.402560e+01
1.030000e-06	-3.534938e-06	-9.651111e-10	-2.455723e+01	-6.376910e+01
1.040000e-06	-3.498794e-06	-9.592295e-10	-2.430614e+01	-6.350958e+01
1.050000e-06	-3.462423e-06	-9.579194e-10	-2.405347e+01	-6.324682e+01
1.060000e-06	-3.425791e-06	-9.452637e-10	-2.379899e+01	-6.298057e+01
1.070000e-06	-3.388875e-06	-9.346365e-10	-2.354253e+01	-6.271058e+01
1.080000e-06	-3.351659e-06	-9.355542e-10	-2.328399e+01	-6.243659e+01
1.090000e-06	-3.314186e-06	-9.350783e-10	-2.302366e+01	-6.215834e+01
1.100000e-06	-3.276500e-06	-9.321248e-10	-2.276186e+01	-6.187555e+01
1.110000e-06	-3.238557e-06	-9.285345e-10	-2.249827e+01	-6.158796e+01
1.120000e-06	-3.200392e-06	-9.203574e-10	-2.223313e+01	-6.129529e+01
1.130000e-06	-3.161965e-06	-9.075447e-10	-2.196618e+01	-6.099727e+01
1.140000e-06	-3.123302e-06	-8.982010e-10	-2.169759e+01	-6.069364e+01
1.150000e-06	-3.084478e-06	-8.920165e-10	-2.142788e+01	-6.038414e+01
1.160000e-06	-3.045506e-06	-8.855029e-10	-2.115714e+01	-6.006850e+01
1.170000e-06	-3.006312e-06	-8.822568e-10	-2.088486e+01	-5.974648e+01
1.180000e-06	-2.967029e-06	-8.827664e-10	-2.061196e+01	-5.941785e+01
1.190000e-06	-2.927616e-06	-8.775377e-10	-2.033816e+01	-5.908238e+01
1.200000e-06	-2.888017e-06	-8.711179e-10	-2.006306e+01	-5.873986e+01
1.210000e-06	-2.848244e-06	-8.645724e-10	-1.978676e+01	-5.839010e+01
1.220000e-06	-2.808279e-06	-8.581169e-10	-1.950912e+01	-5.803291e+01
1.230000e-06	-2.768255e-06	-8.513463e-10	-1.923108e+01	-5.766811e+01
1.240000e-06	-2.728135e-06	-8.489061e-10	-1.895237e+01	-5.729557e+01
1.250000e-06	-2.687802e-06	-8.435974e-10	-1.867217e+01	-5.691515e+01
1.260000e-06	-2.647163e-06	-8.364020e-10	-1.838985e+01	-5.652672e+01
1.270000e-06	-2.606250e-06	-8.326925e-10	-1.810563e+01	-5.613019e+01
1.280000e-06	-2.565120e-06	-8.293453e-10	-1.781990e+01	-5.572547e+01
1.290000e-06	-2.523681e-06	-8.210416e-10	-1.753202e+01	-5.531249e+01
1.300000e-06	-2.481891e-06	-8.103542e-10	-1.724171e+01	-5.489118e+01
1.310000e-06	-2.439747e-06	-7.991415e-10	-1.694893e+01	-5.446151e+01
1.320000e-06	-2.397326e-06	-7.898519e-10	-1.665424e+01	-5.402343e+01
1.330000e-06	-2.354717e-06	-7.821243e-10	-1.635823e+01	-5.357694e+01
1.340000e-06	-2.311859e-06	-7.788173e-10	-1.606049e+01	-5.312201e+01
1.350000e-06	-2.268812e-06	-7.742390e-10	-1.576144e+01	-5.265864e+01
1.360000e-06	-2.225569e-06	-7.649647e-10	-1.546103e+01	-5.218682e+01
1.370000e-06	-2.182144e-06	-7.545020e-10	-1.515936e+01	-5.170656e+01
1.380000e-06	-2.138595e-06	-7.468159e-10	-1.485683e+01	-5.121785e+01
1.390000e-06	-2.095003e-06	-7.393331e-10	-1.455400e+01	-5.072069e+01
1.400000e-06	-2.051393e-06	-7.301432e-10	-1.425103e+01	-5.021509e+01
1.410000e-06	-2.007661e-06	-7.214453e-10	-1.394723e+01	-4.970102e+01
1.420000e-06	-1.963822e-06	-7.135604e-10	-1.364268e+01	-4.917848e+01
1.430000e-06	-1.919868e-06	-7.066816e-10	-1.333733e+01	-4.864742e+01
1.440000e-06	-1.875773e-06	-6.981432e-10	-1.303100e+01	-4.810781e+01
1.450000e-06	-1.831533e-06	-6.884964e-10	-1.272367e+01	-4.755959e+01
1.460000e-06	-1.787207e-06	-6.783665e-10	-1.241573e+01	-4.700268e+01
1.470000e-06	-1.742813e-06	-6.675653e-10	-1.210733e+01	-4.643701e+01
1.480000e-06	-1.698259e-06	-6.571255e-10	-1.179781e+01	-4.586244e+01
1.490000e-06	-1.653561e-06	-6.481703e-10	-1.148729e+01	-4.527886e+01
1.500000e-06	-1.608786e-06	-6.395686e-10	-1.117624e+01	-4.468610e+01
1.510000e-06	-1.563884e-06	-6.300683e-10	-1.086431e+01	-4.408399e+01
1.520000e-06	-1.518837e-06	-6.193125e-10	-1.055136e+01	-4.347233e+01
1.530000e-06	-1.473659e-06	-6.085242e-10	-1.023751e+01	-4.285089e+01
1.540000e-06	-1.428425e-06	-5.962014e-10	-9.923276e+00	-4.221943e+01
1.550000e-06	-1.383084e-06	-5.853264e-10	-9.608291e+00	-4.157768e+01
1.560000e-06	-1.337558e-06	-5.735073e-10	-9.292018e+00	-4.092535e+01
1.570000e-06	-1.292042e-06	-5.636142e-10	-8.975818e+00	-4.026211e+01
1.580000e-06	-1.246408e-06	-5.555565e-10	-8.658799e+00	-3.958765e+01
1.590000e-06	-1.200589e-06	-5.481926e-10	-8.340494e+00	-3.890160e+01
1.600000e-06	-1.154746e-06	-5.389756e-10	-8.022025e+00	-3.820359e+01
1.610000e-06	-1.108812e-06	-5.280790e-10	-7.702922e+00	-3.749326e+01
1.620000e-06	-1.062848e-06	-5.151969e-10	-7.383607e+00	-3.677020e+01
1.630000e-06	-1.016889e-06	-5.028912e-10	-7.064335e+00	-3.603401e+01
1.640000e-06	-9.707262e-07	-4.900685e-10	-6.743638e+00	-3.528429e+01
1.650000e-06	-9.244775e-07	-4.753279e-10	-6.422348e+00	-3.452063e+01
1.660000e-06	-8.781857e-07	-4.625859e-10	-6.100759e+00	-3.374262e+01
1.670000e-06	-8.318052e-07	-4.500728e-10	-5.778554e+00	-3.294986e+01
1.680000e-06	-7.853892e-07	-4.396121e-10	-5.456102e+00	-3.214197e+01
1.690000e-06	-7.388952e-07	-4.293010e-10	-5.133107e+00	-3.131856e+01
1.700000e-06	-6.924924e-07	-4.189677e-10	-4.810747e+00	-3.047927e+01
1.710000e-06	-6.460773e-07	-4.041485e-10	-4.488301e+00	-2.962376e+01
1.720000e-06	-5.995586e-07	-3.859965e-10	-4.165136e+00	-2.875172e+01
1.730000e-06	-5.530020e-07	-3.667311e-10	-3.841707e+00	-2.786287e+01
1.740000e-06	-5.063442e-07	-3.488136e-10	-3.517575e+00	-2.695694e+01
1.750000e-06	-4.596869e-07	-3.347010e-10	-3.193447e+00	-2.603374e+01
1.760000e-06	-4.130249e-07	-3.231747e-10	-2.869285e+00	-2.509308e+01
1.770000e-06	-3.662774e-07	-3.109307e-10	-2.544530e+00	-2.413484e+01
1.780000e-06	-3.194321e-07	-2.991130e-10	-2.219096e+00	-2.315893e+01
1.790000e-06	-2.725459e-07	-2.877074e-10	-1.893377e+00	-2.216533e+01
1.800000e-06	-2.257131e-07	-2.704527e-10	-1.568030e+00	-2.115406e+01
1.810000e-06	-1.788556e-07	-2.497841e-10	-1.242511e+00	-2.012520e+01
1.820000e-06	-1.319408e-07	-2.297674e-10	-9.165930e-01	-1.907888e+01
1.830000e-06	-8.500502e-08	-2.123392e-10	-5.905302e-01	-1.801531e+01
1.840000e-06	-3.810740e-08	-1.993551e-10	-2.647323e-01	-1.693474e+01
1.850000e-06	8.702247e-09	-1.880397e-10	6.045454e-02	-1.583749e+01
1.860000e-06	5.559572e-08	-1.791759e-10	3.862237e-01	-1.472395e+01
1.870000e-06	1.025071e-07	-1.658980e-10	7.121170e-01	-1.359456e+01
1.880000e-06	1.493030e-07	-1.472907e-10	1.037208e+00	-1.244983e+01
1.890000e-06	1.961116e-07	-1.283696e-10	1.362388e+00	-1.129033e+01
1.900000e-06	2.429271e-07	-1.087684e-10	1.687615e+00	-1.011669e+01
1.910000e-06	2.897003e-07	-8.935476e-11	2.012549e+00	-8.929605e+00
1.920000e-06	3.364129e-07	-7.189455e-11	2.337062e+00	-7.729811e+00
1.930000e-06	3.832193e-07	-5.755526e-11	2.662226e+00	-6.518114e+00
1.940000e-06	4.300338e-07	-4.298373e-11	2.987446e+00	-5.295364e+00
1.950000e-06	4.767177e-07	-3.056736e-11	3.311760e+00	-4.062462e+00
1.960000e-06	5.233270e-07	-1.713558e-11	3.635554e+00	-2.820352e+00
1.970000e-06	5.699086e-07	-6.038163e-13	3.959157e+00	-1.570021e+00
1.980000e-06	6.165473e-07	1.814540e-11	4.283156e+00	-3.124914e-01
1.990000e-06	6.630286e-07	3.742192e-11	4.606062e+00	9.511830e-01
2.000000e-06	7.093394e-07	5.695604e-11	4.927783e+00	2.219919e+00
2.010000e-06	7.557624e-07	7.563268e-11	5.250284e+00	3.492612e+00
2.020000e-06	8.020971e-07	9.251789e-11	5.572172e+00	4.768139e+00
2.030000e-06	8.482795e-07	1.082238e-10	5.893001e+00	6.045363e+00
2.040000e-06	8.944846e-07	1.242452e-10	6.213988e+00	7.323141e+00
2.050000e-06	9.406860e-07	1.396832e-10	6.534949e+00	8.600328e+00
2.060000e-06	9.868311e-07	1.563171e-10	6.855519e+00	9.875780e+00
2.070000e-06	1.032834e-06	1.756375e-10	7.175100e+00	1.114836e+01
2.080000e-06	1.078811e-06	1.967708e-10	7.494505e+00	1.241696e+01
2.090000e-06	1.124728e-06	2.151115e-10	7.813487e+00	1.368045e+01
2.100000e-06	1.170510e-06	2.321213e-10	8.131539e+00	1.493778e+01
2.110000e-06	1.216272e-06	2.493219e-10	8.449447e+00	1.618787e+01
2.120000e-06	1.261941e-06	2.639828e-10	8.766705e+00	1.742971e+01
2.130000e-06	1.307451e-06	2.787770e-10	9.082867e+00	1.866232e+01
2.140000e-06	1.352901e-06	2.955604e-10	9.398610e+00	1.988474e+01
2.150000e-06	1.398238e-06	3.126249e-10	9.713566e+00	2.109608e+01
2.160000e-06	1.443438e-06	3.279620e-10	1.002757e+01	2.229548e+01
2.170000e-06	1.488675e-06	3.439676e-10	1.034183e+01	2.348213e+01
2.180000e-06	1.533892e-06	3.615878e-10	1.065595e+01	2.465528e+01
2.190000e-06	1.578860e-06	3.781020e-10	1.096835e+01	2.581423e+01
2.200000e-06	1.623649e-06	3.942976e-10	1.127950e+01	2.695833e+01
2.210000e-06	1.668295e-06	4.112210e-10	1.158965e+01	2.808700e+01
2.220000e-06	1.712802e-06	4.275057e-10	1.189884e+01	2.919970e+01
2.230000e-06	1.757176e-06	4.440054e-10	1.220711e+01	3.029597e+01
2.240000e-06	1.801427e-06	4.580391e-10	1.251452e+01	3.137538e+01
2.250000e-06	1.845607e-06	4.703733e-10	1.282144e+01	3.243759e+01
2.260000e-06	1.889624e-06	4.829984e-10	1.312722e+01	3.348230e+01
2.270000e-06	1.933514e-06	4.954511e-10	1.343213e+01	3.450926e+01
2.280000e-06	1.977343e-06	5.078995e-10	1.373661e+01	3.551830e+01
2.290000e-06	2.021131e-06	5.217473e-10	1.404080e+01	3.650927e+01
2.300000e-06	2.064878e-06	5.346384e-10	1.434471e+01	3.748211e+01
2.310000e-06	2.108551e-06	5.480732e-10	1.464811e+01	3.843677e+01
2.320000e-06	2.152153e-06	5.621304e-10	1.495101e+01	3.937328e+01
2.330000e-06	2.195681e-06	5.748815e-10	1.525340e+01	4.029170e+01
2.340000e-06	2.239106e-06	5.859624e-10	1.555508e+01	4.119213e+01
2.350000e-06	2.282359e-06	5.967612e-10	1.585555e+01	4.207471e+01
2.360000e-06	2.325452e-06	6.084011e-10	1.615492e+01	4.293961e+01
2.370000e-06	2.368314e-06	6.204083e-10	1.645269e+01	4.378706e+01
2.380000e-06	2.410874e-06	6.325461e-10	1.674835e+01	4.461727e+01
2.390000e-06	2.453025e-06	6.453545e-10	1.704117e+01	4.543052e+01
2.400000e-06	2.494915e-06	6.585056e-10	1.733219e+01	4.622709e+01
2.410000e-06	2.536631e-06	6.715790e-10	1.762198e+01	4.700728e+01
2.420000e-06	2.577960e-06	6.847643e-10	1.790910e+01	4.777141e+01
2.430000e-06	2.618864e-06	6.970184e-10	1.819326e+01	4.851981e+01
2.440000e-06	2.659469e-06	7.082656e-10	1.847534e+01	4.925282e+01
2.450000e-06	2.699877e-06	7.195410e-10	1.875606e+01	4.997078e+01
2.460000e-06	2.740095e-06	7.302326e-10	1.903545e+01	5.067405e+01
2.470000e-06	2.780145e-06	7.393412e-10	1.931368e+01	5.136296e+01
2.480000e-06	2.820026e-06	7.475727e-10	1.959073e+01	5.203787e+01
2.490000e-06	2.859745e-06	7.540768e-10	1.986666e+01	5.269911e+01
2.500000e-06	2.899365e-06	7.632404e-10	2.014190e+01	5.334703e+01
2.510000e-06	2.938912e-06	7.754644e-10	2.041663e+01	5.398194e+01
2.520000e-06	2.978318e-06	7.867106e-10	2.069039e+01	5.460416e+01
2.530000e-06	3.017552e-06	7.975973e-10	2.096295e+01	5.521401e+01
2.540000e-06	3.056642e-06	8.071023e-10	2.123450e+01	5.581176e+01
2.550000e-06	3.095531e-06	8.118906e-10	2.150467e+01	5.639769e+01
2.560000e-06	3.134173e-06	8.162713e-10	2.177311e+01	5.697207e+01
2.570000e-06	3.172548e-06	8.240196e-10	2.203970e+01	5.753515e+01
2.580000e-06	3.210644e-06	8.326859e-10	2.230435e+01	5.808716e+01
2.590000e-06	3.248510e-06	8.402503e-10	2.256741e+01	5.862830e+01
2.600000e-06	3.286171e-06	8.475173e-10	2.282904e+01	5.915880e+01
2.610000e-06	3.323685e-06	8.540443e-10	2.308965e+01	5.967882e+01
2.620000e-06	3.361044e-06	8.611866e-10	2.334919e+01	6.018854e+01
2.630000e-06	3.398180e-06	8.703215e-10	2.360717e+01	6.068811e+01
2.640000e-06	3.434996e-06	8.778420e-10	2.386293e+01	6.117768e+01
2.650000e-06	3.471518e-06	8.819417e-10	2.411665e+01	6.165738e+01
2.660000e-06	3.507791e-06	8.861104e-10	2.436863e+01	6.212733e+01
2.670000e-06	3.543811e-06	8.915754e-10	2.461887e+01	6.258762e+01
2.680000e-06	3.579648e-06	8.963393e-10	2.486783e+01	6.303837e+01
2.690000e-06	3.615361e-06	9.016432e-10	2.511593e+01	6.347965e+01
2.700000e-06	3.650980e-06	9.092136e-10	2.536337e+01	6.391155e+01
2.710000e-06	3.686516e-06	9.169990e-10	2.561024e+01	6.433414e+01
2.720000e-06	3.721833e-06	9.247370e-10	2.585559e+01	6.474750e+01
2.730000e-06	3.756903e-06	9.350459e-10	2.609922e+01	6.515168e+01
2.740000e-06	3.791616e-06	9.430568e-10	2.634037e+01	6.554676e+01
2.750000e-06	3.825810e-06	9.461059e-10	2.657792e+01	6.593279e+01
2.760000e-06	3.859486e-06	9.488771e-10	2.681187e+01	6.630983e+01
2.770000e-06	3.892666e-06	9.526419e-10	2.704237e+01	6.667795e+01
2.780000e-06	3.925400e-06	9.558788e-10	2.726976e+01	6.703720e+01
2.790000e-06	3.957789e-06	9.614071e-10	2.749478e+01	6.738766e+01
2.800000e-06	3.989877e-06	9.703664e-10	2.771769e+01	6.772939e+01
2.810000e-06	4.021703e-06	9.790293e-10	2.793879e+01	6.806246e+01
2.820000e-06	4.053366e-06	9.845167e-10	2.815875e+01	6.838696e+01
2.830000e-06	4.084949e-06	9.892226e-10	2.837815e+01	6.870294e+01
2.840000e-06	4.116443e-06	9.929150e-10	2.859694e+01	6.901052e+01
2.850000e-06	4.147684e-06	9.943600e-10	2.881397e+01	6.930976e+01
2.860000e-06	4.178519e-06	9.982002e-10	2.902819e+01	6.960078e+01
2.870000e-06	4.209087e-06	1.004394e-09	2.924054e+01	6.988367e+01
2.880000e-06	4.239427e-06	1.009849e-09	2.945132e+01	7.015854e+01
2.890000e-06	4.269390e-06	1.015425e-09	2.965947e+01	7.042550e+01
2.900000e-06	4.298997e-06	1.019757e-09	2.986515e+01	7.068468e+01
