# Temperatura_=_13.6
# Concentracion g/m^3_=_1620.0
# C_Vs_to_Am_M_A/Vsm_=_65563218390.804596
# pendiente_HvsI_1/m_=_3716.3
# ordenada_HvsI_A/m_=_1297.0
# frecuencia_Hz_=_135102.65130245726

Tiempo_(s)	Campo_(V.s)	Magnetizacion_(V.s)	Campo_(kA/m)	Magnetizacion_(A/m)
0.000000e+00	-5.523258e-06	-8.609005e-10	-3.837784e+01	-5.664423e+01
1.000000e-08	-5.523486e-06	-8.601796e-10	-3.837943e+01	-5.664271e+01
2.000000e-08	-5.523489e-06	-8.602436e-10	-3.837945e+01	-5.663934e+01
3.000000e-08	-5.523025e-06	-8.598217e-10	-3.837622e+01	-5.663404e+01
4.000000e-08	-5.521919e-06	-8.587339e-10	-3.836854e+01	-5.662675e+01
5.000000e-08	-5.520260e-06	-8.559957e-10	-3.835701e+01	-5.661740e+01
6.000000e-08	-5.518127e-06	-8.441699e-10	-3.834219e+01	-5.660595e+01
7.000000e-08	-5.515458e-06	-8.421740e-10	-3.832365e+01	-5.659234e+01
8.000000e-08	-5.512269e-06	-8.590263e-10	-3.830149e+01	-5.657655e+01
9.000000e-08	-5.508576e-06	-8.675254e-10	-3.827583e+01	-5.655853e+01
1.000000e-07	-5.504408e-06	-8.481691e-10	-3.824687e+01	-5.653827e+01
1.100000e-07	-5.499944e-06	-8.498807e-10	-3.821585e+01	-5.651576e+01
1.200000e-07	-5.495213e-06	-8.449028e-10	-3.818298e+01	-5.649099e+01
1.300000e-07	-5.490217e-06	-8.289250e-10	-3.814826e+01	-5.646399e+01
1.400000e-07	-5.484987e-06	-8.048394e-10	-3.811192e+01	-5.643477e+01
1.500000e-07	-5.479414e-06	-8.111193e-10	-3.807320e+01	-5.640335e+01
1.600000e-07	-5.473404e-06	-8.332213e-10	-3.803143e+01	-5.636977e+01
1.700000e-07	-5.466981e-06	-8.453771e-10	-3.798681e+01	-5.633409e+01
1.800000e-07	-5.460174e-06	-8.425355e-10	-3.793951e+01	-5.629636e+01
1.900000e-07	-5.452953e-06	-8.495286e-10	-3.788934e+01	-5.625663e+01
2.000000e-07	-5.445347e-06	-8.314745e-10	-3.783648e+01	-5.621499e+01
2.100000e-07	-5.437470e-06	-8.198585e-10	-3.778175e+01	-5.617149e+01
2.200000e-07	-5.429364e-06	-8.157629e-10	-3.772543e+01	-5.612624e+01
2.300000e-07	-5.420915e-06	-8.327899e-10	-3.766672e+01	-5.607930e+01
2.400000e-07	-5.411898e-06	-8.427404e-10	-3.760407e+01	-5.603077e+01
2.500000e-07	-5.402231e-06	-8.473941e-10	-3.753690e+01	-5.598074e+01
2.600000e-07	-5.392063e-06	-8.431165e-10	-3.746625e+01	-5.592929e+01
2.700000e-07	-5.381295e-06	-8.329658e-10	-3.739142e+01	-5.587651e+01
2.800000e-07	-5.369921e-06	-8.257534e-10	-3.731240e+01	-5.582249e+01
2.900000e-07	-5.358195e-06	-8.291963e-10	-3.723092e+01	-5.576731e+01
3.000000e-07	-5.346170e-06	-8.479255e-10	-3.714736e+01	-5.571104e+01
3.100000e-07	-5.333760e-06	-8.442598e-10	-3.706114e+01	-5.565377e+01
3.200000e-07	-5.320894e-06	-8.503214e-10	-3.697174e+01	-5.559554e+01
3.300000e-07	-5.307646e-06	-8.494399e-10	-3.687968e+01	-5.553642e+01
3.400000e-07	-5.294070e-06	-8.436142e-10	-3.678535e+01	-5.547646e+01
3.500000e-07	-5.279946e-06	-8.207190e-10	-3.668721e+01	-5.541569e+01
3.600000e-07	-5.265235e-06	-8.322082e-10	-3.658499e+01	-5.535413e+01
3.700000e-07	-5.250082e-06	-8.299811e-10	-3.647971e+01	-5.529180e+01
3.800000e-07	-5.234496e-06	-8.310616e-10	-3.637141e+01	-5.522869e+01
3.900000e-07	-5.218584e-06	-8.488572e-10	-3.626084e+01	-5.516481e+01
4.000000e-07	-5.202273e-06	-8.542137e-10	-3.614751e+01	-5.510011e+01
4.100000e-07	-5.185553e-06	-8.158598e-10	-3.603133e+01	-5.503457e+01
4.200000e-07	-5.168515e-06	-8.206060e-10	-3.591294e+01	-5.496813e+01
4.300000e-07	-5.151145e-06	-8.471492e-10	-3.579225e+01	-5.490072e+01
4.400000e-07	-5.133396e-06	-8.261940e-10	-3.566892e+01	-5.483228e+01
4.500000e-07	-5.115199e-06	-8.048962e-10	-3.554248e+01	-5.476270e+01
4.600000e-07	-5.096635e-06	-8.435012e-10	-3.541349e+01	-5.469189e+01
4.700000e-07	-5.077749e-06	-8.365816e-10	-3.528226e+01	-5.461973e+01
4.800000e-07	-5.058530e-06	-7.986862e-10	-3.514872e+01	-5.454612e+01
4.900000e-07	-5.039034e-06	-8.220627e-10	-3.501325e+01	-5.447090e+01
5.000000e-07	-5.019327e-06	-8.453662e-10	-3.487633e+01	-5.439396e+01
5.100000e-07	-4.999405e-06	-8.031383e-10	-3.473790e+01	-5.431514e+01
5.200000e-07	-4.979173e-06	-8.021973e-10	-3.459732e+01	-5.423430e+01
5.300000e-07	-4.958527e-06	-8.392606e-10	-3.445386e+01	-5.415129e+01
5.400000e-07	-4.937457e-06	-8.195404e-10	-3.430746e+01	-5.406595e+01
5.500000e-07	-4.916015e-06	-7.992504e-10	-3.415847e+01	-5.397814e+01
5.600000e-07	-4.894249e-06	-8.236910e-10	-3.400723e+01	-5.388771e+01
5.700000e-07	-4.872148e-06	-8.127738e-10	-3.385366e+01	-5.379451e+01
5.800000e-07	-4.849711e-06	-7.828507e-10	-3.369776e+01	-5.369839e+01
5.900000e-07	-4.826957e-06	-8.023714e-10	-3.353966e+01	-5.359924e+01
6.000000e-07	-4.803895e-06	-8.075027e-10	-3.337942e+01	-5.349692e+01
6.100000e-07	-4.780597e-06	-7.853052e-10	-3.321753e+01	-5.339132e+01
6.200000e-07	-4.757065e-06	-7.875284e-10	-3.305402e+01	-5.328234e+01
6.300000e-07	-4.733265e-06	-7.935945e-10	-3.288865e+01	-5.316988e+01
6.400000e-07	-4.709111e-06	-7.742899e-10	-3.272082e+01	-5.305387e+01
6.500000e-07	-4.684493e-06	-7.789216e-10	-3.254977e+01	-5.293426e+01
6.600000e-07	-4.659498e-06	-7.874318e-10	-3.237608e+01	-5.281099e+01
6.700000e-07	-4.634036e-06	-7.777722e-10	-3.219916e+01	-5.268403e+01
6.800000e-07	-4.608068e-06	-7.702154e-10	-3.201873e+01	-5.255339e+01
6.900000e-07	-4.581651e-06	-7.768077e-10	-3.183517e+01	-5.241905e+01
7.000000e-07	-4.554726e-06	-7.665808e-10	-3.164809e+01	-5.228106e+01
7.100000e-07	-4.527440e-06	-7.634690e-10	-3.145850e+01	-5.213944e+01
7.200000e-07	-4.499912e-06	-7.651811e-10	-3.126722e+01	-5.199427e+01
7.300000e-07	-4.472191e-06	-7.584415e-10	-3.107460e+01	-5.184560e+01
7.400000e-07	-4.444265e-06	-7.563694e-10	-3.088056e+01	-5.169355e+01
7.500000e-07	-4.416097e-06	-7.640231e-10	-3.068484e+01	-5.153821e+01
7.600000e-07	-4.387672e-06	-7.552883e-10	-3.048733e+01	-5.137970e+01
7.700000e-07	-4.358915e-06	-7.473074e-10	-3.028752e+01	-5.121817e+01
7.800000e-07	-4.329829e-06	-7.503444e-10	-3.008542e+01	-5.105375e+01
7.900000e-07	-4.300413e-06	-7.478030e-10	-2.988102e+01	-5.088661e+01
8.000000e-07	-4.270665e-06	-7.400633e-10	-2.967432e+01	-5.071691e+01
8.100000e-07	-4.240712e-06	-7.445981e-10	-2.946619e+01	-5.054481e+01
8.200000e-07	-4.210543e-06	-7.461673e-10	-2.925657e+01	-5.037050e+01
8.300000e-07	-4.180085e-06	-7.390448e-10	-2.904493e+01	-5.019415e+01
8.400000e-07	-4.149366e-06	-7.372146e-10	-2.883148e+01	-5.001594e+01
8.500000e-07	-4.118341e-06	-7.376332e-10	-2.861591e+01	-4.983605e+01
8.600000e-07	-4.087104e-06	-7.324843e-10	-2.839886e+01	-4.965464e+01
8.700000e-07	-4.055688e-06	-7.265173e-10	-2.818057e+01	-4.947189e+01
8.800000e-07	-4.024031e-06	-7.278876e-10	-2.796060e+01	-4.928796e+01
8.900000e-07	-3.992128e-06	-7.227000e-10	-2.773893e+01	-4.910298e+01
9.000000e-07	-3.959939e-06	-7.143866e-10	-2.751527e+01	-4.891710e+01
9.100000e-07	-3.927470e-06	-7.093457e-10	-2.728966e+01	-4.873044e+01
9.200000e-07	-3.894611e-06	-7.078372e-10	-2.706134e+01	-4.854310e+01
9.300000e-07	-3.861325e-06	-7.036253e-10	-2.683006e+01	-4.835518e+01
9.400000e-07	-3.827604e-06	-7.047151e-10	-2.659575e+01	-4.816674e+01
9.500000e-07	-3.793394e-06	-7.082992e-10	-2.635804e+01	-4.797784e+01
9.600000e-07	-3.758791e-06	-7.075240e-10	-2.611761e+01	-4.778850e+01
9.700000e-07	-3.723846e-06	-7.007255e-10	-2.587480e+01	-4.759873e+01
9.800000e-07	-3.688597e-06	-6.983240e-10	-2.562987e+01	-4.740852e+01
9.900000e-07	-3.653161e-06	-6.933718e-10	-2.538365e+01	-4.721783e+01
1.000000e-06	-3.617556e-06	-6.883382e-10	-2.513625e+01	-4.702660e+01
1.010000e-06	-3.581809e-06	-6.843133e-10	-2.488787e+01	-4.683474e+01
1.020000e-06	-3.545937e-06	-6.843493e-10	-2.463861e+01	-4.664215e+01
1.030000e-06	-3.509839e-06	-6.853160e-10	-2.438779e+01	-4.644870e+01
1.040000e-06	-3.473536e-06	-6.852125e-10	-2.413554e+01	-4.625424e+01
1.050000e-06	-3.436993e-06	-6.802825e-10	-2.388163e+01	-4.605860e+01
1.060000e-06	-3.400144e-06	-6.723513e-10	-2.362559e+01	-4.586160e+01
1.070000e-06	-3.363021e-06	-6.662666e-10	-2.336764e+01	-4.566302e+01
1.080000e-06	-3.325635e-06	-6.645295e-10	-2.310787e+01	-4.546264e+01
1.090000e-06	-3.288010e-06	-6.647723e-10	-2.284643e+01	-4.526023e+01
1.100000e-06	-3.250184e-06	-6.640200e-10	-2.258360e+01	-4.505553e+01
1.110000e-06	-3.212187e-06	-6.605823e-10	-2.231958e+01	-4.484829e+01
1.120000e-06	-3.173965e-06	-6.563210e-10	-2.205400e+01	-4.463823e+01
1.130000e-06	-3.135480e-06	-6.515099e-10	-2.178659e+01	-4.442508e+01
1.140000e-06	-3.096781e-06	-6.475679e-10	-2.151769e+01	-4.420855e+01
1.150000e-06	-3.057874e-06	-6.444648e-10	-2.124735e+01	-4.398836e+01
1.160000e-06	-3.018765e-06	-6.409533e-10	-2.097561e+01	-4.376424e+01
1.170000e-06	-2.979473e-06	-6.378533e-10	-2.070259e+01	-4.353588e+01
1.180000e-06	-2.940086e-06	-6.335487e-10	-2.042892e+01	-4.330303e+01
1.190000e-06	-2.900500e-06	-6.306410e-10	-2.015385e+01	-4.306540e+01
1.200000e-06	-2.860736e-06	-6.283097e-10	-1.987756e+01	-4.282273e+01
1.210000e-06	-2.820873e-06	-6.254342e-10	-1.960057e+01	-4.257476e+01
1.220000e-06	-2.780792e-06	-6.199090e-10	-1.932208e+01	-4.232126e+01
1.230000e-06	-2.740507e-06	-6.169641e-10	-1.904216e+01	-4.206198e+01
1.240000e-06	-2.700065e-06	-6.126795e-10	-1.876115e+01	-4.179671e+01
1.250000e-06	-2.659407e-06	-6.059746e-10	-1.847864e+01	-4.152523e+01
1.260000e-06	-2.618548e-06	-6.016808e-10	-1.819474e+01	-4.124737e+01
1.270000e-06	-2.577509e-06	-6.012546e-10	-1.790958e+01	-4.096295e+01
1.280000e-06	-2.536151e-06	-5.974924e-10	-1.762221e+01	-4.067180e+01
1.290000e-06	-2.494439e-06	-5.919576e-10	-1.733238e+01	-4.037377e+01
1.300000e-06	-2.452449e-06	-5.850437e-10	-1.704061e+01	-4.006875e+01
1.310000e-06	-2.410248e-06	-5.779524e-10	-1.674738e+01	-3.975662e+01
1.320000e-06	-2.367829e-06	-5.706171e-10	-1.645264e+01	-3.943727e+01
1.330000e-06	-2.325174e-06	-5.676735e-10	-1.615625e+01	-3.911062e+01
1.340000e-06	-2.282193e-06	-5.661685e-10	-1.585760e+01	-3.877659e+01
1.350000e-06	-2.238989e-06	-5.624646e-10	-1.555741e+01	-3.843512e+01
1.360000e-06	-2.195628e-06	-5.560519e-10	-1.525612e+01	-3.808614e+01
1.370000e-06	-2.152134e-06	-5.485150e-10	-1.495390e+01	-3.772961e+01
1.380000e-06	-2.108599e-06	-5.411602e-10	-1.465140e+01	-3.736548e+01
1.390000e-06	-2.064975e-06	-5.352706e-10	-1.434829e+01	-3.699371e+01
1.400000e-06	-2.021275e-06	-5.310020e-10	-1.404464e+01	-3.661426e+01
1.410000e-06	-1.977469e-06	-5.248083e-10	-1.374026e+01	-3.622708e+01
1.420000e-06	-1.933565e-06	-5.183138e-10	-1.343519e+01	-3.583212e+01
1.430000e-06	-1.889605e-06	-5.132500e-10	-1.312975e+01	-3.542934e+01
1.440000e-06	-1.845534e-06	-5.081664e-10	-1.282352e+01	-3.501867e+01
1.450000e-06	-1.801321e-06	-5.005145e-10	-1.251631e+01	-3.460004e+01
1.460000e-06	-1.756942e-06	-4.913439e-10	-1.220795e+01	-3.417337e+01
1.470000e-06	-1.712365e-06	-4.814390e-10	-1.189821e+01	-3.373856e+01
1.480000e-06	-1.667545e-06	-4.717154e-10	-1.158678e+01	-3.329549e+01
1.490000e-06	-1.622606e-06	-4.617521e-10	-1.127453e+01	-3.284404e+01
1.500000e-06	-1.577619e-06	-4.527260e-10	-1.096194e+01	-3.238406e+01
1.510000e-06	-1.532532e-06	-4.439542e-10	-1.064865e+01	-3.191537e+01
1.520000e-06	-1.487287e-06	-4.326853e-10	-1.033428e+01	-3.143780e+01
1.530000e-06	-1.441886e-06	-4.191603e-10	-1.001881e+01	-3.095112e+01
1.540000e-06	-1.396437e-06	-4.089455e-10	-9.703009e+00	-3.045511e+01
1.550000e-06	-1.350977e-06	-4.035492e-10	-9.387140e+00	-2.994952e+01
1.560000e-06	-1.305475e-06	-3.982037e-10	-9.070969e+00	-2.943406e+01
1.570000e-06	-1.259875e-06	-3.893414e-10	-8.754121e+00	-2.890845e+01
1.580000e-06	-1.214208e-06	-3.796020e-10	-8.436814e+00	-2.837238e+01
1.590000e-06	-1.168470e-06	-3.664371e-10	-8.119004e+00	-2.782551e+01
1.600000e-06	-1.122619e-06	-3.531645e-10	-7.800416e+00	-2.726750e+01
1.610000e-06	-1.076668e-06	-3.430808e-10	-7.481126e+00	-2.669798e+01
1.620000e-06	-1.030609e-06	-3.386517e-10	-7.161090e+00	-2.611660e+01
1.630000e-06	-9.844562e-07	-3.364489e-10	-6.840402e+00	-2.552297e+01
1.640000e-06	-9.381718e-07	-3.311872e-10	-6.518799e+00	-2.491671e+01
1.650000e-06	-8.918393e-07	-3.205637e-10	-6.196862e+00	-2.429744e+01
1.660000e-06	-8.454647e-07	-3.052674e-10	-5.874632e+00	-2.366476e+01
1.670000e-06	-7.990458e-07	-2.896898e-10	-5.552095e+00	-2.301831e+01
1.680000e-06	-7.526573e-07	-2.757354e-10	-5.229769e+00	-2.235772e+01
1.690000e-06	-7.062313e-07	-2.675308e-10	-4.907182e+00	-2.168263e+01
1.700000e-06	-6.598168e-07	-2.635408e-10	-4.584675e+00	-2.099271e+01
1.710000e-06	-6.133302e-07	-2.576866e-10	-4.261668e+00	-2.028764e+01
1.720000e-06	-5.667323e-07	-2.488312e-10	-3.937886e+00	-1.956715e+01
1.730000e-06	-5.201700e-07	-2.365607e-10	-3.614352e+00	-1.883096e+01
1.740000e-06	-4.736055e-07	-2.233602e-10	-3.290804e+00	-1.807887e+01
1.750000e-06	-4.268840e-07	-2.111057e-10	-2.966163e+00	-1.731068e+01
1.760000e-06	-3.800438e-07	-1.984341e-10	-2.640699e+00	-1.652627e+01
1.770000e-06	-3.332502e-07	-1.888638e-10	-2.315558e+00	-1.572555e+01
1.780000e-06	-2.864940e-07	-1.811996e-10	-1.990677e+00	-1.490847e+01
1.790000e-06	-2.396944e-07	-1.704842e-10	-1.665494e+00	-1.407506e+01
1.800000e-06	-1.928381e-07	-1.559808e-10	-1.339918e+00	-1.322537e+01
1.810000e-06	-1.459233e-07	-1.400935e-10	-1.013934e+00	-1.235956e+01
1.820000e-06	-9.899086e-08	-1.265057e-10	-6.878288e-01	-1.147781e+01
1.830000e-06	-5.206166e-08	-1.161721e-10	-3.617456e-01	-1.058038e+01
1.840000e-06	-5.212160e-09	-1.063201e-10	-3.621621e-02	-9.667610e+00
1.850000e-06	4.157169e-08	-9.520652e-11	2.888570e-01	-8.739880e+00
1.860000e-06	8.840778e-08	-8.251823e-11	6.142932e-01	-7.797656e+00
1.870000e-06	1.352602e-07	-6.870524e-11	9.398427e-01	-6.841467e+00
1.880000e-06	1.820541e-07	-5.312823e-11	1.264986e+00	-5.871911e+00
1.890000e-06	2.288239e-07	-3.693724e-11	1.589961e+00	-4.889651e+00
1.900000e-06	2.756013e-07	-2.284803e-11	1.914990e+00	-3.895416e+00
1.910000e-06	3.223868e-07	-1.119182e-11	2.240075e+00	-2.889997e+00
1.920000e-06	3.691891e-07	9.055600e-13	2.565276e+00	-1.874248e+00
1.930000e-06	4.159919e-07	1.297680e-11	2.890481e+00	-8.490801e-01
1.940000e-06	4.626524e-07	2.394401e-11	3.214697e+00	1.845407e-01
1.950000e-06	5.091691e-07	3.506776e-11	3.537914e+00	1.225597e+00
1.960000e-06	5.556864e-07	4.838450e-11	3.861135e+00	2.273026e+00
1.970000e-06	6.021412e-07	6.456604e-11	4.183922e+00	3.325721e+00
1.980000e-06	6.485240e-07	8.252074e-11	4.506208e+00	4.382539e+00
1.990000e-06	6.948634e-07	1.015073e-10	4.828194e+00	5.442304e+00
2.000000e-06	7.412112e-07	1.207747e-10	5.150237e+00	6.503814e+00
2.010000e-06	7.875268e-07	1.368935e-10	5.472056e+00	7.565848e+00
2.020000e-06	8.337774e-07	1.494801e-10	5.793424e+00	8.627168e+00
2.030000e-06	8.799984e-07	1.595921e-10	6.114587e+00	9.686529e+00
2.040000e-06	9.261874e-07	1.695868e-10	6.435526e+00	1.074268e+01
2.050000e-06	9.722753e-07	1.824401e-10	6.755764e+00	1.179438e+01
2.060000e-06	1.018252e-06	1.996908e-10	7.075231e+00	1.284040e+01
2.070000e-06	1.064161e-06	2.205557e-10	7.394222e+00	1.387951e+01
2.080000e-06	1.110018e-06	2.404261e-10	7.712856e+00	1.491053e+01
2.090000e-06	1.155892e-06	2.557841e-10	8.031606e+00	1.593229e+01
2.100000e-06	1.201636e-06	2.668095e-10	8.349456e+00	1.694365e+01
2.110000e-06	1.247282e-06	2.764802e-10	8.666625e+00	1.794353e+01
2.120000e-06	1.292881e-06	2.880253e-10	8.983460e+00	1.893087e+01
2.130000e-06	1.338384e-06	3.018190e-10	9.299634e+00	1.990470e+01
2.140000e-06	1.383763e-06	3.154617e-10	9.614946e+00	2.086405e+01
2.150000e-06	1.429016e-06	3.299889e-10	9.929384e+00	2.180806e+01
2.160000e-06	1.474181e-06	3.461105e-10	1.024321e+01	2.273591e+01
2.170000e-06	1.519249e-06	3.606211e-10	1.055636e+01	2.364684e+01
2.180000e-06	1.564222e-06	3.717496e-10	1.086885e+01	2.454017e+01
2.190000e-06	1.609127e-06	3.822071e-10	1.118087e+01	2.541530e+01
2.200000e-06	1.653918e-06	3.922525e-10	1.149209e+01	2.627167e+01
2.210000e-06	1.698494e-06	4.023917e-10	1.180183e+01	2.710884e+01
2.220000e-06	1.742914e-06	4.136496e-10	1.211048e+01	2.792642e+01
2.230000e-06	1.787221e-06	4.253085e-10	1.241834e+01	2.872409e+01
2.240000e-06	1.831360e-06	4.349359e-10	1.272503e+01	2.950163e+01
2.250000e-06	1.875365e-06	4.426149e-10	1.303080e+01	3.025887e+01
2.260000e-06	1.919308e-06	4.502954e-10	1.333613e+01	3.099572e+01
2.270000e-06	1.963162e-06	4.584468e-10	1.364085e+01	3.171218e+01
2.280000e-06	2.006929e-06	4.675059e-10	1.394496e+01	3.240831e+01
2.290000e-06	2.050621e-06	4.774438e-10	1.424855e+01	3.308422e+01
2.300000e-06	2.094272e-06	4.871263e-10	1.455186e+01	3.374011e+01
2.310000e-06	2.137886e-06	4.969037e-10	1.485490e+01	3.437622e+01
2.320000e-06	2.181443e-06	5.057045e-10	1.515755e+01	3.499287e+01
2.330000e-06	2.224898e-06	5.114627e-10	1.545950e+01	3.559042e+01
2.340000e-06	2.268212e-06	5.169486e-10	1.576046e+01	3.616928e+01
2.350000e-06	2.311325e-06	5.235450e-10	1.606003e+01	3.672991e+01
2.360000e-06	2.354184e-06	5.305381e-10	1.635783e+01	3.727279e+01
2.370000e-06	2.396805e-06	5.381485e-10	1.665398e+01	3.779847e+01
2.380000e-06	2.439213e-06	5.462851e-10	1.694864e+01	3.830750e+01
2.390000e-06	2.481323e-06	5.547241e-10	1.724124e+01	3.880047e+01
2.400000e-06	2.523041e-06	5.619864e-10	1.753112e+01	3.927799e+01
2.410000e-06	2.564461e-06	5.672866e-10	1.781892e+01	3.974068e+01
2.420000e-06	2.605565e-06	5.719395e-10	1.810452e+01	4.018917e+01
2.430000e-06	2.646263e-06	5.768666e-10	1.838731e+01	4.062411e+01
2.440000e-06	2.686778e-06	5.844303e-10	1.866882e+01	4.104614e+01
2.450000e-06	2.727206e-06	5.937625e-10	1.894974e+01	4.145588e+01
2.460000e-06	2.767467e-06	6.011945e-10	1.922949e+01	4.185398e+01
2.470000e-06	2.807530e-06	6.075305e-10	1.950786e+01	4.224105e+01
2.480000e-06	2.847349e-06	6.125443e-10	1.978454e+01	4.261769e+01
2.490000e-06	2.887011e-06	6.152757e-10	2.006013e+01	4.298449e+01
2.500000e-06	2.926622e-06	6.184667e-10	2.033536e+01	4.334201e+01
2.510000e-06	2.966145e-06	6.234712e-10	2.060998e+01	4.369079e+01
2.520000e-06	3.005527e-06	6.300944e-10	2.088363e+01	4.403134e+01
2.530000e-06	3.044735e-06	6.369503e-10	2.115606e+01	4.436415e+01
2.540000e-06	3.083623e-06	6.428889e-10	2.142627e+01	4.468966e+01
2.550000e-06	3.122210e-06	6.469398e-10	2.169438e+01	4.500830e+01
2.560000e-06	3.160568e-06	6.505339e-10	2.196091e+01	4.532046e+01
2.570000e-06	3.198676e-06	6.545594e-10	2.222570e+01	4.562648e+01
2.580000e-06	3.236585e-06	6.583954e-10	2.248911e+01	4.592669e+01
2.590000e-06	3.274375e-06	6.633416e-10	2.275169e+01	4.622138e+01
2.600000e-06	3.312008e-06	6.688591e-10	2.301318e+01	4.651079e+01
2.610000e-06	3.349380e-06	6.750759e-10	2.327286e+01	4.679515e+01
2.620000e-06	3.386454e-06	6.811779e-10	2.353046e+01	4.707464e+01
2.630000e-06	3.423308e-06	6.843240e-10	2.378654e+01	4.734943e+01
2.640000e-06	3.459951e-06	6.848728e-10	2.404114e+01	4.761963e+01
2.650000e-06	3.496273e-06	6.859418e-10	2.429353e+01	4.788535e+01
2.660000e-06	3.532334e-06	6.886405e-10	2.454409e+01	4.814666e+01
2.670000e-06	3.568203e-06	6.925415e-10	2.479332e+01	4.840362e+01
2.680000e-06	3.603920e-06	6.980782e-10	2.504150e+01	4.865624e+01
2.690000e-06	3.639535e-06	7.042055e-10	2.528897e+01	4.890454e+01
2.700000e-06	3.675086e-06	7.085307e-10	2.553599e+01	4.914851e+01
2.710000e-06	3.710499e-06	7.110432e-10	2.578205e+01	4.938813e+01
2.720000e-06	3.745676e-06	7.143773e-10	2.602648e+01	4.962336e+01
2.730000e-06	3.780583e-06	7.187574e-10	2.626903e+01	4.985416e+01
2.740000e-06	3.814996e-06	7.219100e-10	2.650814e+01	5.008047e+01
2.750000e-06	3.848858e-06	7.246725e-10	2.674343e+01	5.030222e+01
2.760000e-06	3.882199e-06	7.284867e-10	2.697510e+01	5.051936e+01
2.770000e-06	3.915068e-06	7.338815e-10	2.720349e+01	5.073183e+01
2.780000e-06	3.947635e-06	7.396321e-10	2.742977e+01	5.093955e+01
2.790000e-06	3.979865e-06	7.442844e-10	2.765372e+01	5.114247e+01
2.800000e-06	4.011763e-06	7.497082e-10	2.787536e+01	5.134053e+01
2.810000e-06	4.043461e-06	7.544665e-10	2.809561e+01	5.153368e+01
2.820000e-06	4.075019e-06	7.561841e-10	2.831489e+01	5.172186e+01
2.830000e-06	4.106438e-06	7.563120e-10	2.853320e+01	5.190505e+01
2.840000e-06	4.137662e-06	7.560908e-10	2.875016e+01	5.208321e+01
2.850000e-06	4.168599e-06	7.578301e-10	2.896512e+01	5.225634e+01
2.860000e-06	4.199228e-06	7.621535e-10	2.917794e+01	5.242441e+01
2.870000e-06	4.229543e-06	7.668926e-10	2.938859e+01	5.258743e+01
2.880000e-06	4.259480e-06	7.712855e-10	2.959660e+01	5.274542e+01
2.890000e-06	4.289115e-06	7.742366e-10	2.980252e+01	5.289840e+01
2.900000e-06	4.318583e-06	7.772614e-10	3.000727e+01	5.304641e+01
