# Temperatura_=_-0.65
# Concentracion g/m^3_=_1620.0
# C_Vs_to_Am_M_A/Vsm_=_65563218390.804596
# pendiente_HvsI_1/m_=_3716.3
# ordenada_HvsI_A/m_=_1297.0
# frecuencia_Hz_=_135091.58517035478

Tiempo_(s)	Campo_(V.s)	Magnetizacion_(V.s)	Campo_(kA/m)	Magnetizacion_(A/m)
0.000000e+00	-5.517171e-06	-1.213503e-09	-3.837089e+01	-7.922075e+01
1.000000e-08	-5.517412e-06	-1.213297e-09	-3.837257e+01	-7.925687e+01
2.000000e-08	-5.517495e-06	-1.214315e-09	-3.837314e+01	-7.929247e+01
3.000000e-08	-5.517268e-06	-1.215435e-09	-3.837157e+01	-7.932735e+01
4.000000e-08	-5.516583e-06	-1.214944e-09	-3.836680e+01	-7.936127e+01
5.000000e-08	-5.515353e-06	-1.212080e-09	-3.835825e+01	-7.939400e+01
6.000000e-08	-5.513535e-06	-1.203991e-09	-3.834560e+01	-7.942528e+01
7.000000e-08	-5.511162e-06	-1.175634e-09	-3.832910e+01	-7.945485e+01
8.000000e-08	-5.508309e-06	-1.156672e-09	-3.830925e+01	-7.948246e+01
9.000000e-08	-5.504967e-06	-1.240360e-09	-3.828601e+01	-7.950785e+01
1.000000e-07	-5.501112e-06	-1.364309e-09	-3.825920e+01	-7.953075e+01
1.100000e-07	-5.496843e-06	-1.254775e-09	-3.822951e+01	-7.955090e+01
1.200000e-07	-5.492397e-06	-1.083356e-09	-3.819859e+01	-7.956806e+01
1.300000e-07	-5.487869e-06	-1.119384e-09	-3.816710e+01	-7.958197e+01
1.400000e-07	-5.482961e-06	-1.296602e-09	-3.813296e+01	-7.959240e+01
1.500000e-07	-5.477525e-06	-1.268577e-09	-3.809516e+01	-7.959914e+01
1.600000e-07	-5.471772e-06	-1.074913e-09	-3.805515e+01	-7.960196e+01
1.700000e-07	-5.465817e-06	-1.122305e-09	-3.801373e+01	-7.960069e+01
1.800000e-07	-5.459342e-06	-1.326671e-09	-3.796870e+01	-7.959514e+01
1.900000e-07	-5.452282e-06	-1.312604e-09	-3.791960e+01	-7.958516e+01
2.000000e-07	-5.444904e-06	-1.137881e-09	-3.786829e+01	-7.957061e+01
2.100000e-07	-5.437287e-06	-1.120491e-09	-3.781531e+01	-7.955137e+01
2.200000e-07	-5.429459e-06	-1.288467e-09	-3.776087e+01	-7.952735e+01
2.300000e-07	-5.421391e-06	-1.325623e-09	-3.770476e+01	-7.949846e+01
2.400000e-07	-5.412957e-06	-1.222686e-09	-3.764610e+01	-7.946465e+01
2.500000e-07	-5.404167e-06	-1.199905e-09	-3.758497e+01	-7.942588e+01
2.600000e-07	-5.394564e-06	-1.278335e-09	-3.751818e+01	-7.938213e+01
2.700000e-07	-5.384113e-06	-1.275132e-09	-3.744550e+01	-7.933341e+01
2.800000e-07	-5.373212e-06	-1.195573e-09	-3.736968e+01	-7.927974e+01
2.900000e-07	-5.361791e-06	-1.198888e-09	-3.729025e+01	-7.922115e+01
3.000000e-07	-5.350049e-06	-1.265091e-09	-3.720859e+01	-7.915770e+01
3.100000e-07	-5.338070e-06	-1.257785e-09	-3.712528e+01	-7.908945e+01
3.200000e-07	-5.325582e-06	-1.177556e-09	-3.703842e+01	-7.901648e+01
3.300000e-07	-5.312505e-06	-1.180365e-09	-3.694747e+01	-7.893888e+01
3.400000e-07	-5.299105e-06	-1.236708e-09	-3.685428e+01	-7.885675e+01
3.500000e-07	-5.285407e-06	-1.225145e-09	-3.675902e+01	-7.877019e+01
3.600000e-07	-5.271268e-06	-1.142783e-09	-3.666068e+01	-7.867932e+01
3.700000e-07	-5.256732e-06	-1.191877e-09	-3.655959e+01	-7.858426e+01
3.800000e-07	-5.241849e-06	-1.248712e-09	-3.645607e+01	-7.848512e+01
3.900000e-07	-5.226242e-06	-1.172912e-09	-3.634753e+01	-7.838202e+01
4.000000e-07	-5.209981e-06	-1.130665e-09	-3.623444e+01	-7.827507e+01
4.100000e-07	-5.193445e-06	-1.247680e-09	-3.611944e+01	-7.816440e+01
4.200000e-07	-5.176663e-06	-1.226961e-09	-3.600272e+01	-7.805010e+01
4.300000e-07	-5.159525e-06	-1.092631e-09	-3.588352e+01	-7.793229e+01
4.400000e-07	-5.142142e-06	-1.170450e-09	-3.576263e+01	-7.781105e+01
4.500000e-07	-5.124525e-06	-1.283536e-09	-3.564011e+01	-7.768648e+01
4.600000e-07	-5.106350e-06	-1.144325e-09	-3.551370e+01	-7.755865e+01
4.700000e-07	-5.087723e-06	-1.090546e-09	-3.538416e+01	-7.742764e+01
4.800000e-07	-5.068760e-06	-1.238488e-09	-3.525228e+01	-7.729350e+01
4.900000e-07	-5.049417e-06	-1.208863e-09	-3.511775e+01	-7.715629e+01
5.000000e-07	-5.029761e-06	-1.094366e-09	-3.498104e+01	-7.701604e+01
5.100000e-07	-5.009937e-06	-1.195090e-09	-3.484317e+01	-7.687278e+01
5.200000e-07	-4.989915e-06	-1.223474e-09	-3.470392e+01	-7.672652e+01
5.300000e-07	-4.969565e-06	-1.088142e-09	-3.456239e+01	-7.657728e+01
5.400000e-07	-4.948862e-06	-1.148878e-09	-3.441841e+01	-7.642507e+01
5.500000e-07	-4.927759e-06	-1.256371e-09	-3.427164e+01	-7.626986e+01
5.600000e-07	-4.906192e-06	-1.130577e-09	-3.412164e+01	-7.611164e+01
5.700000e-07	-4.884210e-06	-1.085035e-09	-3.396876e+01	-7.595040e+01
5.800000e-07	-4.862035e-06	-1.213174e-09	-3.381454e+01	-7.578610e+01
5.900000e-07	-4.839597e-06	-1.173846e-09	-3.365849e+01	-7.561872e+01
6.000000e-07	-4.816650e-06	-1.088312e-09	-3.349890e+01	-7.544823e+01
6.100000e-07	-4.793403e-06	-1.168482e-09	-3.333722e+01	-7.527459e+01
6.200000e-07	-4.769958e-06	-1.179696e-09	-3.317416e+01	-7.509777e+01
6.300000e-07	-4.746262e-06	-1.083553e-09	-3.300936e+01	-7.491774e+01
6.400000e-07	-4.722406e-06	-1.115139e-09	-3.284345e+01	-7.473448e+01
6.500000e-07	-4.698324e-06	-1.155125e-09	-3.267596e+01	-7.454796e+01
6.600000e-07	-4.673819e-06	-1.097656e-09	-3.250553e+01	-7.435816e+01
6.700000e-07	-4.648842e-06	-1.104294e-09	-3.233182e+01	-7.416509e+01
6.800000e-07	-4.623340e-06	-1.153058e-09	-3.215446e+01	-7.396872e+01
6.900000e-07	-4.597249e-06	-1.109718e-09	-3.197301e+01	-7.376908e+01
7.000000e-07	-4.570591e-06	-1.091945e-09	-3.178761e+01	-7.356619e+01
7.100000e-07	-4.543465e-06	-1.123634e-09	-3.159894e+01	-7.336006e+01
7.200000e-07	-4.516004e-06	-1.101070e-09	-3.140796e+01	-7.315073e+01
7.300000e-07	-4.488330e-06	-1.074065e-09	-3.121549e+01	-7.293827e+01
7.400000e-07	-4.460559e-06	-1.103804e-09	-3.102235e+01	-7.272272e+01
7.500000e-07	-4.432624e-06	-1.102471e-09	-3.082807e+01	-7.250417e+01
7.600000e-07	-4.404430e-06	-1.078517e-09	-3.063198e+01	-7.228268e+01
7.700000e-07	-4.375955e-06	-1.087205e-09	-3.043395e+01	-7.205835e+01
7.800000e-07	-4.347109e-06	-1.082395e-09	-3.023333e+01	-7.183129e+01
7.900000e-07	-4.317892e-06	-1.055866e-09	-3.003013e+01	-7.160160e+01
8.000000e-07	-4.288383e-06	-1.067991e-09	-2.982490e+01	-7.136940e+01
8.100000e-07	-4.258566e-06	-1.078324e-09	-2.961752e+01	-7.113480e+01
8.200000e-07	-4.228473e-06	-1.054533e-09	-2.940823e+01	-7.089793e+01
8.300000e-07	-4.198162e-06	-1.056022e-09	-2.919743e+01	-7.065893e+01
8.400000e-07	-4.167593e-06	-1.072977e-09	-2.898482e+01	-7.041791e+01
8.500000e-07	-4.136710e-06	-1.053497e-09	-2.877004e+01	-7.017501e+01
8.600000e-07	-4.105501e-06	-1.037472e-09	-2.855299e+01	-6.993035e+01
8.700000e-07	-4.074072e-06	-1.050273e-09	-2.833441e+01	-6.968405e+01
8.800000e-07	-4.042532e-06	-1.043954e-09	-2.811505e+01	-6.943622e+01
8.900000e-07	-4.010807e-06	-1.029210e-09	-2.789441e+01	-6.918696e+01
9.000000e-07	-3.978903e-06	-1.038921e-09	-2.767252e+01	-6.893638e+01
9.100000e-07	-3.946766e-06	-1.038224e-09	-2.744902e+01	-6.868454e+01
9.200000e-07	-3.914258e-06	-1.011239e-09	-2.722293e+01	-6.843152e+01
9.300000e-07	-3.881421e-06	-1.010362e-09	-2.699455e+01	-6.817736e+01
9.400000e-07	-3.848151e-06	-1.019288e-09	-2.676317e+01	-6.792209e+01
9.500000e-07	-3.814286e-06	-1.006108e-09	-2.652764e+01	-6.766573e+01
9.600000e-07	-3.780005e-06	-9.977060e-10	-2.628923e+01	-6.740827e+01
9.700000e-07	-3.745378e-06	-1.008548e-09	-2.604840e+01	-6.714968e+01
9.800000e-07	-3.710378e-06	-1.000764e-09	-2.580498e+01	-6.688991e+01
9.900000e-07	-3.675098e-06	-9.841110e-10	-2.555962e+01	-6.662887e+01
1.000000e-06	-3.639591e-06	-9.858212e-10	-2.531267e+01	-6.636648e+01
1.010000e-06	-3.603959e-06	-9.848937e-10	-2.506486e+01	-6.610260e+01
1.020000e-06	-3.568218e-06	-9.697724e-10	-2.481629e+01	-6.583709e+01
1.030000e-06	-3.532304e-06	-9.700782e-10	-2.456651e+01	-6.556979e+01
1.040000e-06	-3.496155e-06	-9.729820e-10	-2.431510e+01	-6.530049e+01
1.050000e-06	-3.459782e-06	-9.604168e-10	-2.406213e+01	-6.502899e+01
1.060000e-06	-3.423211e-06	-9.476249e-10	-2.380779e+01	-6.475504e+01
1.070000e-06	-3.386363e-06	-9.450456e-10	-2.355152e+01	-6.447838e+01
1.080000e-06	-3.349270e-06	-9.366829e-10	-2.329354e+01	-6.419876e+01
1.090000e-06	-3.311905e-06	-9.299543e-10	-2.303367e+01	-6.391587e+01
1.100000e-06	-3.274297e-06	-9.342106e-10	-2.277212e+01	-6.362940e+01
1.110000e-06	-3.236404e-06	-9.318351e-10	-2.250859e+01	-6.333905e+01
1.120000e-06	-3.198212e-06	-9.205845e-10	-2.224296e+01	-6.304448e+01
1.130000e-06	-3.159851e-06	-9.151157e-10	-2.197617e+01	-6.274535e+01
1.140000e-06	-3.121344e-06	-9.107785e-10	-2.170836e+01	-6.244131e+01
1.150000e-06	-3.082619e-06	-8.991480e-10	-2.143904e+01	-6.213203e+01
1.160000e-06	-3.043646e-06	-8.914974e-10	-2.116799e+01	-6.181715e+01
1.170000e-06	-3.004486e-06	-8.887461e-10	-2.089563e+01	-6.149633e+01
1.180000e-06	-2.965152e-06	-8.847538e-10	-2.062208e+01	-6.116922e+01
1.190000e-06	-2.925690e-06	-8.812048e-10	-2.034762e+01	-6.083548e+01
1.200000e-06	-2.886063e-06	-8.796307e-10	-2.007202e+01	-6.049478e+01
1.210000e-06	-2.846287e-06	-8.740272e-10	-1.979540e+01	-6.014681e+01
1.220000e-06	-2.806418e-06	-8.663320e-10	-1.951811e+01	-5.979125e+01
1.230000e-06	-2.766390e-06	-8.623776e-10	-1.923973e+01	-5.942781e+01
1.240000e-06	-2.726200e-06	-8.582935e-10	-1.896021e+01	-5.905622e+01
1.250000e-06	-2.685794e-06	-8.484755e-10	-1.867919e+01	-5.867621e+01
1.260000e-06	-2.645210e-06	-8.424041e-10	-1.839694e+01	-5.828754e+01
1.270000e-06	-2.604417e-06	-8.379159e-10	-1.811323e+01	-5.788998e+01
1.280000e-06	-2.563284e-06	-8.337417e-10	-1.782716e+01	-5.748333e+01
1.290000e-06	-2.521826e-06	-8.282593e-10	-1.753883e+01	-5.706741e+01
1.300000e-06	-2.480106e-06	-8.209878e-10	-1.724867e+01	-5.664204e+01
1.310000e-06	-2.438123e-06	-8.124276e-10	-1.695669e+01	-5.620709e+01
1.320000e-06	-2.395876e-06	-8.026074e-10	-1.666287e+01	-5.576242e+01
1.330000e-06	-2.353323e-06	-7.939803e-10	-1.636692e+01	-5.530793e+01
1.340000e-06	-2.310535e-06	-7.899659e-10	-1.606934e+01	-5.484353e+01
1.350000e-06	-2.267570e-06	-7.872870e-10	-1.577052e+01	-5.436914e+01
1.360000e-06	-2.224300e-06	-7.798195e-10	-1.546959e+01	-5.388470e+01
1.370000e-06	-2.180848e-06	-7.692765e-10	-1.516739e+01	-5.339017e+01
1.380000e-06	-2.137340e-06	-7.623011e-10	-1.486480e+01	-5.288550e+01
1.390000e-06	-2.093720e-06	-7.550322e-10	-1.456143e+01	-5.237067e+01
1.400000e-06	-2.049954e-06	-7.456314e-10	-1.425704e+01	-5.184567e+01
1.410000e-06	-2.006078e-06	-7.377793e-10	-1.395189e+01	-5.131046e+01
1.420000e-06	-1.962159e-06	-7.301996e-10	-1.364645e+01	-5.076504e+01
1.430000e-06	-1.918232e-06	-7.220824e-10	-1.334094e+01	-5.020939e+01
1.440000e-06	-1.874252e-06	-7.138944e-10	-1.303507e+01	-4.964348e+01
1.450000e-06	-1.830167e-06	-7.058460e-10	-1.272847e+01	-4.906731e+01
1.460000e-06	-1.785947e-06	-6.950971e-10	-1.242092e+01	-4.848082e+01
1.470000e-06	-1.741558e-06	-6.825918e-10	-1.211221e+01	-4.788398e+01
1.480000e-06	-1.696981e-06	-6.711531e-10	-1.180218e+01	-4.727674e+01
1.490000e-06	-1.652337e-06	-6.629478e-10	-1.149169e+01	-4.665901e+01
1.500000e-06	-1.607545e-06	-6.553577e-10	-1.118018e+01	-4.603072e+01
1.510000e-06	-1.562501e-06	-6.445639e-10	-1.086690e+01	-4.539175e+01
1.520000e-06	-1.517371e-06	-6.344900e-10	-1.055303e+01	-4.474200e+01
1.530000e-06	-1.472227e-06	-6.238251e-10	-1.023906e+01	-4.408130e+01
1.540000e-06	-1.427002e-06	-6.103984e-10	-9.924528e+00	-4.340950e+01
1.550000e-06	-1.381605e-06	-5.987054e-10	-9.608801e+00	-4.272641e+01
1.560000e-06	-1.336045e-06	-5.863003e-10	-9.291945e+00	-4.203182e+01
1.570000e-06	-1.290500e-06	-5.723057e-10	-8.975186e+00	-4.132551e+01
1.580000e-06	-1.245014e-06	-5.606358e-10	-8.658836e+00	-4.060723e+01
1.590000e-06	-1.199370e-06	-5.517531e-10	-8.341392e+00	-3.987671e+01
1.600000e-06	-1.153535e-06	-5.401846e-10	-8.022616e+00	-3.913366e+01
1.610000e-06	-1.107621e-06	-5.271334e-10	-7.703295e+00	-3.837779e+01
1.620000e-06	-1.061705e-06	-5.149050e-10	-7.383962e+00	-3.760879e+01
1.630000e-06	-1.015750e-06	-5.046428e-10	-7.064347e+00	-3.682632e+01
1.640000e-06	-9.697554e-07	-4.936085e-10	-6.744467e+00	-3.603005e+01
1.650000e-06	-9.236776e-07	-4.777553e-10	-6.424005e+00	-3.521966e+01
1.660000e-06	-8.773674e-07	-4.629808e-10	-6.101926e+00	-3.439479e+01
1.670000e-06	-8.309561e-07	-4.477289e-10	-5.779144e+00	-3.355511e+01
1.680000e-06	-7.845990e-07	-4.327258e-10	-5.456738e+00	-3.270029e+01
1.690000e-06	-7.382532e-07	-4.195368e-10	-5.134412e+00	-3.183000e+01
1.700000e-06	-6.918488e-07	-4.087081e-10	-4.811678e+00	-3.094395e+01
1.710000e-06	-6.454040e-07	-3.964108e-10	-4.488664e+00	-3.004185e+01
1.720000e-06	-5.989657e-07	-3.796408e-10	-4.165694e+00	-2.912342e+01
1.730000e-06	-5.524579e-07	-3.619651e-10	-3.842241e+00	-2.818843e+01
1.740000e-06	-5.057878e-07	-3.447008e-10	-3.517659e+00	-2.723667e+01
1.750000e-06	-4.591426e-07	-3.291701e-10	-3.193251e+00	-2.626798e+01
1.760000e-06	-4.124969e-07	-3.159120e-10	-2.868838e+00	-2.528222e+01
1.770000e-06	-3.657264e-07	-3.010921e-10	-2.543558e+00	-2.427931e+01
1.780000e-06	-3.189141e-07	-2.859880e-10	-2.217988e+00	-2.325920e+01
1.790000e-06	-2.720460e-07	-2.724311e-10	-1.892029e+00	-2.222192e+01
1.800000e-06	-2.251950e-07	-2.569233e-10	-1.566189e+00	-2.116752e+01
1.810000e-06	-1.783640e-07	-2.362225e-10	-1.240488e+00	-2.009613e+01
1.820000e-06	-1.315164e-07	-2.152642e-10	-9.146716e-01	-1.900793e+01
1.830000e-06	-8.471327e-08	-1.990966e-10	-5.891649e-01	-1.790318e+01
1.840000e-06	-3.793309e-08	-1.847180e-10	-2.638175e-01	-1.678216e+01
1.850000e-06	8.877102e-09	-1.696374e-10	6.173858e-02	-1.564526e+01
1.860000e-06	5.569666e-08	-1.567248e-10	3.873598e-01	-1.449292e+01
1.870000e-06	1.025065e-07	-1.418655e-10	7.129134e-01	-1.332563e+01
1.880000e-06	1.492199e-07	-1.239375e-10	1.037796e+00	-1.214396e+01
1.890000e-06	1.959216e-07	-1.068824e-10	1.362598e+00	-1.094854e+01
1.900000e-06	2.427485e-07	-8.932029e-11	1.688270e+00	-9.740057e+00
1.910000e-06	2.895970e-07	-7.242092e-11	2.014093e+00	-8.519270e+00
1.920000e-06	3.364296e-07	-5.555263e-11	2.339805e+00	-7.286986e+00
1.930000e-06	3.832291e-07	-3.992305e-11	2.665287e+00	-6.044069e+00
1.940000e-06	4.299521e-07	-2.373117e-11	2.990236e+00	-4.791437e+00
1.950000e-06	4.765587e-07	-9.762947e-12	3.314377e+00	-3.530054e+00
1.960000e-06	5.231069e-07	4.109065e-12	3.638111e+00	-2.260928e+00
1.970000e-06	5.696644e-07	2.069725e-11	3.961909e+00	-9.851068e-01
1.980000e-06	6.161872e-07	3.907774e-11	4.285466e+00	2.963284e-01
1.990000e-06	6.626066e-07	5.769565e-11	4.608305e+00	1.582267e+00
2.000000e-06	7.089469e-07	7.604915e-11	4.930592e+00	2.871574e+00
2.010000e-06	7.552529e-07	9.341045e-11	5.252642e+00	4.163099e+00
2.020000e-06	8.015120e-07	1.097439e-10	5.574365e+00	5.455676e+00
2.030000e-06	8.477717e-07	1.247770e-10	5.896093e+00	6.748135e+00
2.040000e-06	8.939486e-07	1.406235e-10	6.217245e+00	8.039306e+00
2.050000e-06	9.400222e-07	1.558974e-10	6.537678e+00	9.328023e+00
2.060000e-06	9.860444e-07	1.723654e-10	6.857754e+00	1.061313e+01
2.070000e-06	1.031989e-06	1.905745e-10	7.177293e+00	1.189350e+01
2.080000e-06	1.077881e-06	2.101346e-10	7.496458e+00	1.316801e+01
2.090000e-06	1.123712e-06	2.285773e-10	7.815209e+00	1.443558e+01
2.100000e-06	1.169476e-06	2.447365e-10	8.133484e+00	1.569516e+01
2.110000e-06	1.215146e-06	2.607081e-10	8.451110e+00	1.694574e+01
2.120000e-06	1.260750e-06	2.753087e-10	8.768282e+00	1.818634e+01
2.130000e-06	1.306278e-06	2.911791e-10	9.084920e+00	1.941605e+01
2.140000e-06	1.351566e-06	3.088585e-10	9.399889e+00	2.063399e+01
2.150000e-06	1.396760e-06	3.264101e-10	9.714204e+00	2.183935e+01
2.160000e-06	1.442004e-06	3.434941e-10	1.002887e+01	2.303137e+01
2.170000e-06	1.487127e-06	3.628285e-10	1.034269e+01	2.420936e+01
2.180000e-06	1.532186e-06	3.826280e-10	1.065606e+01	2.537266e+01
2.190000e-06	1.577104e-06	4.004718e-10	1.096847e+01	2.652071e+01
2.200000e-06	1.621777e-06	4.154769e-10	1.127915e+01	2.765299e+01
2.210000e-06	1.666339e-06	4.286355e-10	1.158908e+01	2.876907e+01
2.220000e-06	1.710857e-06	4.416495e-10	1.189869e+01	2.986855e+01
2.230000e-06	1.755315e-06	4.564469e-10	1.220788e+01	3.095111e+01
2.240000e-06	1.799585e-06	4.724873e-10	1.251577e+01	3.201650e+01
2.250000e-06	1.843701e-06	4.885505e-10	1.282260e+01	3.306452e+01
2.260000e-06	1.887773e-06	5.024662e-10	1.312911e+01	3.409504e+01
2.270000e-06	1.931764e-06	5.159324e-10	1.343506e+01	3.510795e+01
2.280000e-06	1.975679e-06	5.297336e-10	1.374048e+01	3.610324e+01
2.290000e-06	2.019583e-06	5.430167e-10	1.404582e+01	3.708093e+01
2.300000e-06	2.063437e-06	5.550976e-10	1.435081e+01	3.804108e+01
2.310000e-06	2.107203e-06	5.671883e-10	1.465520e+01	3.898380e+01
2.320000e-06	2.150921e-06	5.789314e-10	1.495925e+01	3.990923e+01
2.330000e-06	2.194499e-06	5.893867e-10	1.526233e+01	4.081756e+01
2.340000e-06	2.237831e-06	5.992118e-10	1.556370e+01	4.170900e+01
2.350000e-06	2.281041e-06	6.095519e-10	1.586421e+01	4.258378e+01
2.360000e-06	2.323987e-06	6.204606e-10	1.616289e+01	4.344216e+01
2.370000e-06	2.366517e-06	6.331047e-10	1.645868e+01	4.428442e+01
2.380000e-06	2.408855e-06	6.473613e-10	1.675313e+01	4.511084e+01
2.390000e-06	2.450945e-06	6.624447e-10	1.704587e+01	4.592173e+01
2.400000e-06	2.492680e-06	6.770592e-10	1.733612e+01	4.671738e+01
2.410000e-06	2.534203e-06	6.879228e-10	1.762491e+01	4.749809e+01
2.420000e-06	2.575462e-06	6.973975e-10	1.791185e+01	4.826416e+01
2.430000e-06	2.616271e-06	7.079244e-10	1.819567e+01	4.901588e+01
2.440000e-06	2.656722e-06	7.179738e-10	1.847700e+01	4.975354e+01
2.450000e-06	2.697071e-06	7.287766e-10	1.875762e+01	5.047740e+01
2.460000e-06	2.737323e-06	7.421379e-10	1.903757e+01	5.118773e+01
2.470000e-06	2.777377e-06	7.529471e-10	1.931614e+01	5.188476e+01
2.480000e-06	2.817284e-06	7.610855e-10	1.959368e+01	5.256871e+01
2.490000e-06	2.857089e-06	7.684790e-10	1.987052e+01	5.323978e+01
2.500000e-06	2.896786e-06	7.768876e-10	2.014660e+01	5.389816e+01
2.510000e-06	2.936357e-06	7.867195e-10	2.042181e+01	5.454400e+01
2.520000e-06	2.975812e-06	7.966914e-10	2.069621e+01	5.517744e+01
2.530000e-06	3.014994e-06	8.049951e-10	2.096872e+01	5.579861e+01
2.540000e-06	3.053903e-06	8.127716e-10	2.123932e+01	5.640761e+01
2.550000e-06	3.092648e-06	8.206054e-10	2.150879e+01	5.700450e+01
2.560000e-06	3.131192e-06	8.269259e-10	2.177685e+01	5.758937e+01
2.570000e-06	3.169509e-06	8.357972e-10	2.204334e+01	5.816224e+01
2.580000e-06	3.207603e-06	8.452696e-10	2.230828e+01	5.872316e+01
2.590000e-06	3.245466e-06	8.529765e-10	2.257161e+01	5.927215e+01
2.600000e-06	3.283110e-06	8.610658e-10	2.283342e+01	5.980921e+01
2.610000e-06	3.320556e-06	8.685594e-10	2.309384e+01	6.033436e+01
2.620000e-06	3.357794e-06	8.764310e-10	2.335283e+01	6.084758e+01
2.630000e-06	3.394785e-06	8.856959e-10	2.361009e+01	6.134889e+01
2.640000e-06	3.431456e-06	8.940872e-10	2.386513e+01	6.183826e+01
2.650000e-06	3.467878e-06	9.000475e-10	2.411844e+01	6.231572e+01
2.660000e-06	3.504138e-06	9.047218e-10	2.437062e+01	6.278126e+01
2.670000e-06	3.540207e-06	9.101167e-10	2.462147e+01	6.323490e+01
2.680000e-06	3.576085e-06	9.168884e-10	2.487100e+01	6.367668e+01
2.690000e-06	3.611803e-06	9.235438e-10	2.511941e+01	6.410662e+01
2.700000e-06	3.647425e-06	9.309469e-10	2.536715e+01	6.452480e+01
2.710000e-06	3.682961e-06	9.388478e-10	2.561430e+01	6.493129e+01
2.720000e-06	3.718265e-06	9.463049e-10	2.585984e+01	6.532618e+01
2.730000e-06	3.753202e-06	9.542738e-10	2.610282e+01	6.570959e+01
2.740000e-06	3.787779e-06	9.604365e-10	2.634329e+01	6.608167e+01
2.750000e-06	3.821951e-06	9.633560e-10	2.658095e+01	6.644257e+01
2.760000e-06	3.855565e-06	9.658839e-10	2.681473e+01	6.679249e+01
2.770000e-06	3.888645e-06	9.697486e-10	2.704480e+01	6.713163e+01
2.780000e-06	3.921272e-06	9.762119e-10	2.727171e+01	6.746023e+01
2.790000e-06	3.953594e-06	9.859440e-10	2.749651e+01	6.777856e+01
2.800000e-06	3.985721e-06	9.952787e-10	2.771994e+01	6.808690e+01
2.810000e-06	4.017621e-06	1.002327e-09	2.794180e+01	6.838555e+01
2.820000e-06	4.049387e-06	1.006448e-09	2.816273e+01	6.867484e+01
2.830000e-06	4.080987e-06	1.009511e-09	2.838250e+01	6.895512e+01
2.840000e-06	4.112388e-06	1.010451e-09	2.860089e+01	6.922675e+01
2.850000e-06	4.143544e-06	1.009708e-09	2.881757e+01	6.949011e+01
2.860000e-06	4.174331e-06	1.013200e-09	2.903169e+01	6.974558e+01
2.870000e-06	4.204791e-06	1.019577e-09	2.924353e+01	6.999358e+01
2.880000e-06	4.234901e-06	1.025972e-09	2.945294e+01	7.023452e+01
2.890000e-06	4.264708e-06	1.034259e-09	2.966024e+01	7.046879e+01
2.900000e-06	4.294309e-06	1.040616e-09	2.986611e+01	7.069684e+01
