# Temperatura_=_-0.2
# Concentracion g/m^3_=_1620.0
# C_Vs_to_Am_M_A/Vsm_=_65563218390.804596
# pendiente_HvsI_1/m_=_3716.3
# ordenada_HvsI_A/m_=_1297.0
# frecuencia_Hz_=_135110.44397552253

Tiempo_(s)	Campo_(V.s)	Magnetizacion_(V.s)	Campo_(kA/m)	Magnetizacion_(A/m)
0.000000e+00	-5.490787e-06	-1.213336e-09	-3.838074e+01	-7.892067e+01
1.000000e-08	-5.490982e-06	-1.212693e-09	-3.838210e+01	-7.893834e+01
2.000000e-08	-5.490887e-06	-1.213780e-09	-3.838144e+01	-7.895399e+01
3.000000e-08	-5.490294e-06	-1.215189e-09	-3.837730e+01	-7.896743e+01
4.000000e-08	-5.489212e-06	-1.214097e-09	-3.836973e+01	-7.897843e+01
5.000000e-08	-5.487575e-06	-1.208378e-09	-3.835829e+01	-7.898674e+01
6.000000e-08	-5.485231e-06	-1.187506e-09	-3.834191e+01	-7.899212e+01
7.000000e-08	-5.482315e-06	-1.159560e-09	-3.832152e+01	-7.899433e+01
8.000000e-08	-5.478989e-06	-1.201276e-09	-3.829827e+01	-7.899313e+01
9.000000e-08	-5.475264e-06	-1.296707e-09	-3.827223e+01	-7.898824e+01
1.000000e-07	-5.471128e-06	-1.271386e-09	-3.824332e+01	-7.897944e+01
1.100000e-07	-5.466697e-06	-1.134440e-09	-3.821235e+01	-7.896648e+01
1.200000e-07	-5.462061e-06	-1.081588e-09	-3.817994e+01	-7.894913e+01
1.300000e-07	-5.457095e-06	-1.177522e-09	-3.814523e+01	-7.892717e+01
1.400000e-07	-5.451701e-06	-1.241631e-09	-3.810753e+01	-7.890041e+01
1.500000e-07	-5.445899e-06	-1.134579e-09	-3.806697e+01	-7.886864e+01
1.600000e-07	-5.439768e-06	-1.125303e-09	-3.802411e+01	-7.883171e+01
1.700000e-07	-5.433252e-06	-1.215923e-09	-3.797857e+01	-7.878947e+01
1.800000e-07	-5.426296e-06	-1.298859e-09	-3.792995e+01	-7.874179e+01
1.900000e-07	-5.419071e-06	-1.182992e-09	-3.787945e+01	-7.868859e+01
2.000000e-07	-5.411625e-06	-1.113484e-09	-3.782739e+01	-7.862979e+01
2.100000e-07	-5.403846e-06	-1.146452e-09	-3.777302e+01	-7.856535e+01
2.200000e-07	-5.395835e-06	-1.228900e-09	-3.771703e+01	-7.849526e+01
2.300000e-07	-5.387612e-06	-1.199943e-09	-3.765955e+01	-7.841952e+01
2.400000e-07	-5.378920e-06	-1.176799e-09	-3.759879e+01	-7.833818e+01
2.500000e-07	-5.369373e-06	-1.200424e-09	-3.753205e+01	-7.825132e+01
2.600000e-07	-5.359086e-06	-1.210961e-09	-3.746014e+01	-7.815902e+01
2.700000e-07	-5.348263e-06	-1.175211e-09	-3.738449e+01	-7.806142e+01
2.800000e-07	-5.336937e-06	-1.152925e-09	-3.730533e+01	-7.795867e+01
2.900000e-07	-5.325289e-06	-1.204173e-09	-3.722391e+01	-7.785093e+01
3.000000e-07	-5.313327e-06	-1.208257e-09	-3.714029e+01	-7.773840e+01
3.100000e-07	-5.301021e-06	-1.184534e-09	-3.705427e+01	-7.762131e+01
3.200000e-07	-5.288320e-06	-1.146529e-09	-3.696549e+01	-7.749987e+01
3.300000e-07	-5.275219e-06	-1.195544e-09	-3.687391e+01	-7.737435e+01
3.400000e-07	-5.261708e-06	-1.183342e-09	-3.677947e+01	-7.724499e+01
3.500000e-07	-5.247762e-06	-1.159918e-09	-3.668199e+01	-7.711206e+01
3.600000e-07	-5.233308e-06	-1.149206e-09	-3.658096e+01	-7.697585e+01
3.700000e-07	-5.218302e-06	-1.212538e-09	-3.647607e+01	-7.683662e+01
3.800000e-07	-5.202804e-06	-1.181524e-09	-3.636773e+01	-7.669465e+01
3.900000e-07	-5.186814e-06	-1.151430e-09	-3.625596e+01	-7.655021e+01
4.000000e-07	-5.170372e-06	-1.171392e-09	-3.614103e+01	-7.640358e+01
4.100000e-07	-5.153673e-06	-1.196754e-09	-3.602431e+01	-7.625501e+01
4.200000e-07	-5.136711e-06	-1.128579e-09	-3.590574e+01	-7.610475e+01
4.300000e-07	-5.119437e-06	-1.137268e-09	-3.578499e+01	-7.595302e+01
4.400000e-07	-5.101847e-06	-1.197857e-09	-3.566204e+01	-7.580005e+01
4.500000e-07	-5.083841e-06	-1.173646e-09	-3.553618e+01	-7.564602e+01
4.600000e-07	-5.065399e-06	-1.106637e-09	-3.540727e+01	-7.549111e+01
4.700000e-07	-5.046531e-06	-1.143658e-09	-3.527538e+01	-7.533546e+01
4.800000e-07	-5.027264e-06	-1.160767e-09	-3.514070e+01	-7.517921e+01
4.900000e-07	-5.007769e-06	-1.115856e-09	-3.500443e+01	-7.502245e+01
5.000000e-07	-4.988113e-06	-1.125119e-09	-3.486703e+01	-7.486526e+01
5.100000e-07	-4.968268e-06	-1.151018e-09	-3.472832e+01	-7.470767e+01
5.200000e-07	-4.948191e-06	-1.109407e-09	-3.458798e+01	-7.454971e+01
5.300000e-07	-4.927698e-06	-1.106409e-09	-3.444474e+01	-7.439136e+01
5.400000e-07	-4.906750e-06	-1.156766e-09	-3.429831e+01	-7.423260e+01
5.500000e-07	-4.885402e-06	-1.122516e-09	-3.414908e+01	-7.407336e+01
5.600000e-07	-4.863727e-06	-1.079289e-09	-3.399758e+01	-7.391355e+01
5.700000e-07	-4.841869e-06	-1.112968e-09	-3.384479e+01	-7.375307e+01
5.800000e-07	-4.819694e-06	-1.130161e-09	-3.368978e+01	-7.359178e+01
5.900000e-07	-4.797033e-06	-1.086699e-09	-3.353138e+01	-7.342955e+01
6.000000e-07	-4.774017e-06	-1.100178e-09	-3.337050e+01	-7.326619e+01
6.100000e-07	-4.750766e-06	-1.115787e-09	-3.320797e+01	-7.310153e+01
6.200000e-07	-4.727299e-06	-1.085569e-09	-3.304394e+01	-7.293538e+01
6.300000e-07	-4.703642e-06	-1.065586e-09	-3.287858e+01	-7.276754e+01
6.400000e-07	-4.679732e-06	-1.089133e-09	-3.271145e+01	-7.259780e+01
6.500000e-07	-4.655372e-06	-1.074068e-09	-3.254117e+01	-7.242595e+01
6.600000e-07	-4.630567e-06	-1.068085e-09	-3.236778e+01	-7.225177e+01
6.700000e-07	-4.605320e-06	-1.080706e-09	-3.219130e+01	-7.207507e+01
6.800000e-07	-4.579393e-06	-1.082648e-09	-3.201007e+01	-7.189564e+01
6.900000e-07	-4.552932e-06	-1.061310e-09	-3.182511e+01	-7.171329e+01
7.000000e-07	-4.526052e-06	-1.067370e-09	-3.163722e+01	-7.152783e+01
7.100000e-07	-4.498751e-06	-1.061254e-09	-3.144638e+01	-7.133909e+01
7.200000e-07	-4.471260e-06	-1.049474e-09	-3.125422e+01	-7.114692e+01
7.300000e-07	-4.443661e-06	-1.047018e-09	-3.106130e+01	-7.095118e+01
7.400000e-07	-4.415876e-06	-1.056247e-09	-3.086708e+01	-7.075176e+01
7.500000e-07	-4.387854e-06	-1.048118e-09	-3.067121e+01	-7.054856e+01
7.600000e-07	-4.359597e-06	-1.045149e-09	-3.047369e+01	-7.034151e+01
7.700000e-07	-4.331021e-06	-1.045298e-09	-3.027394e+01	-7.013055e+01
7.800000e-07	-4.302105e-06	-1.039118e-09	-3.007182e+01	-6.991567e+01
7.900000e-07	-4.272857e-06	-1.033288e-09	-2.986738e+01	-6.969686e+01
8.000000e-07	-4.243317e-06	-1.035302e-09	-2.966090e+01	-6.947413e+01
8.100000e-07	-4.213541e-06	-1.028452e-09	-2.945275e+01	-6.924754e+01
8.200000e-07	-4.183457e-06	-1.019933e-09	-2.924247e+01	-6.901715e+01
8.300000e-07	-4.153074e-06	-1.023246e-09	-2.903009e+01	-6.878304e+01
8.400000e-07	-4.122379e-06	-1.021899e-09	-2.881553e+01	-6.854533e+01
8.500000e-07	-4.091302e-06	-1.016507e-09	-2.859830e+01	-6.830413e+01
8.600000e-07	-4.059952e-06	-1.014560e-09	-2.837916e+01	-6.805959e+01
8.700000e-07	-4.028501e-06	-1.014742e-09	-2.815932e+01	-6.781186e+01
8.800000e-07	-3.996985e-06	-1.004409e-09	-2.793902e+01	-6.756110e+01
8.900000e-07	-3.965281e-06	-1.003076e-09	-2.771741e+01	-6.730749e+01
9.000000e-07	-3.933357e-06	-9.996694e-10	-2.749427e+01	-6.705121e+01
9.100000e-07	-3.901161e-06	-9.911267e-10	-2.726921e+01	-6.679242e+01
9.200000e-07	-3.868609e-06	-9.840199e-10	-2.704167e+01	-6.653131e+01
9.300000e-07	-3.835596e-06	-9.908336e-10	-2.681091e+01	-6.626806e+01
9.400000e-07	-3.802049e-06	-9.862944e-10	-2.657642e+01	-6.600282e+01
9.500000e-07	-3.768013e-06	-9.819444e-10	-2.633851e+01	-6.573576e+01
9.600000e-07	-3.733550e-06	-9.818099e-10	-2.609761e+01	-6.546702e+01
9.700000e-07	-3.698718e-06	-9.833618e-10	-2.585413e+01	-6.519671e+01
9.800000e-07	-3.663578e-06	-9.735244e-10	-2.560850e+01	-6.492494e+01
9.900000e-07	-3.628244e-06	-9.688569e-10	-2.536152e+01	-6.465181e+01
1.000000e-06	-3.592738e-06	-9.644262e-10	-2.511333e+01	-6.437736e+01
1.010000e-06	-3.557093e-06	-9.583586e-10	-2.486417e+01	-6.410163e+01
1.020000e-06	-3.521357e-06	-9.524843e-10	-2.461437e+01	-6.382463e+01
1.030000e-06	-3.485509e-06	-9.539696e-10	-2.436380e+01	-6.354632e+01
1.040000e-06	-3.449466e-06	-9.500269e-10	-2.411186e+01	-6.326666e+01
1.050000e-06	-3.413137e-06	-9.435883e-10	-2.385791e+01	-6.298555e+01
1.060000e-06	-3.376548e-06	-9.368372e-10	-2.360216e+01	-6.270288e+01
1.070000e-06	-3.339707e-06	-9.298917e-10	-2.334464e+01	-6.241849e+01
1.080000e-06	-3.302584e-06	-9.221729e-10	-2.308514e+01	-6.213220e+01
1.090000e-06	-3.265224e-06	-9.178158e-10	-2.282400e+01	-6.184379e+01
1.100000e-06	-3.227638e-06	-9.144989e-10	-2.256127e+01	-6.155301e+01
1.110000e-06	-3.189841e-06	-9.083421e-10	-2.229707e+01	-6.125960e+01
1.120000e-06	-3.151797e-06	-9.044273e-10	-2.203114e+01	-6.096326e+01
1.130000e-06	-3.113513e-06	-9.026992e-10	-2.176353e+01	-6.066364e+01
1.140000e-06	-3.074970e-06	-8.988691e-10	-2.149412e+01	-6.036042e+01
1.150000e-06	-3.036273e-06	-8.899799e-10	-2.122363e+01	-6.005321e+01
1.160000e-06	-2.997499e-06	-8.831637e-10	-2.095260e+01	-5.974163e+01
1.170000e-06	-2.958441e-06	-8.767714e-10	-2.067958e+01	-5.942529e+01
1.180000e-06	-2.919060e-06	-8.731567e-10	-2.040431e+01	-5.910376e+01
1.190000e-06	-2.879514e-06	-8.718951e-10	-2.012788e+01	-5.877664e+01
1.200000e-06	-2.839899e-06	-8.718308e-10	-1.985097e+01	-5.844349e+01
1.210000e-06	-2.800163e-06	-8.655349e-10	-1.957321e+01	-5.810389e+01
1.220000e-06	-2.760340e-06	-8.598630e-10	-1.929485e+01	-5.775743e+01
1.230000e-06	-2.720421e-06	-8.524810e-10	-1.901581e+01	-5.740368e+01
1.240000e-06	-2.680342e-06	-8.443962e-10	-1.873565e+01	-5.704225e+01
1.250000e-06	-2.640112e-06	-8.348944e-10	-1.845445e+01	-5.667273e+01
1.260000e-06	-2.599682e-06	-8.329162e-10	-1.817184e+01	-5.629474e+01
1.270000e-06	-2.559017e-06	-8.312375e-10	-1.788759e+01	-5.590794e+01
1.280000e-06	-2.518119e-06	-8.259858e-10	-1.760172e+01	-5.551196e+01
1.290000e-06	-2.476943e-06	-8.180613e-10	-1.731389e+01	-5.510651e+01
1.300000e-06	-2.435371e-06	-8.109247e-10	-1.702331e+01	-5.469127e+01
1.310000e-06	-2.393537e-06	-8.032625e-10	-1.673088e+01	-5.426600e+01
1.320000e-06	-2.351401e-06	-7.949140e-10	-1.643635e+01	-5.383043e+01
1.330000e-06	-2.308834e-06	-7.884422e-10	-1.613881e+01	-5.338437e+01
1.340000e-06	-2.265986e-06	-7.840198e-10	-1.583930e+01	-5.292763e+01
1.350000e-06	-2.222950e-06	-7.764338e-10	-1.553848e+01	-5.246005e+01
1.360000e-06	-2.179744e-06	-7.683279e-10	-1.523646e+01	-5.198149e+01
1.370000e-06	-2.136382e-06	-7.609608e-10	-1.493336e+01	-5.149187e+01
1.380000e-06	-2.092902e-06	-7.519504e-10	-1.462943e+01	-5.099109e+01
1.390000e-06	-2.049354e-06	-7.431082e-10	-1.432504e+01	-5.047912e+01
1.400000e-06	-2.005742e-06	-7.336124e-10	-1.402018e+01	-4.995591e+01
1.410000e-06	-1.962083e-06	-7.247233e-10	-1.371501e+01	-4.942146e+01
1.420000e-06	-1.918354e-06	-7.172009e-10	-1.340934e+01	-4.887577e+01
1.430000e-06	-1.874534e-06	-7.105949e-10	-1.310304e+01	-4.831887e+01
1.440000e-06	-1.830678e-06	-7.030722e-10	-1.279648e+01	-4.775077e+01
1.450000e-06	-1.786695e-06	-6.932484e-10	-1.248904e+01	-4.717153e+01
1.460000e-06	-1.742548e-06	-6.818845e-10	-1.218046e+01	-4.658119e+01
1.470000e-06	-1.698326e-06	-6.707276e-10	-1.187135e+01	-4.597979e+01
1.480000e-06	-1.654019e-06	-6.594843e-10	-1.156164e+01	-4.536737e+01
1.490000e-06	-1.609566e-06	-6.492195e-10	-1.125091e+01	-4.474397e+01
1.500000e-06	-1.564933e-06	-6.401253e-10	-1.093892e+01	-4.410962e+01
1.510000e-06	-1.520106e-06	-6.308830e-10	-1.062558e+01	-4.346433e+01
1.520000e-06	-1.475175e-06	-6.195518e-10	-1.031151e+01	-4.280810e+01
1.530000e-06	-1.430177e-06	-6.083741e-10	-9.996970e+00	-4.214091e+01
1.540000e-06	-1.385044e-06	-5.968617e-10	-9.681490e+00	-4.146271e+01
1.550000e-06	-1.339791e-06	-5.860810e-10	-9.365169e+00	-4.077344e+01
1.560000e-06	-1.294465e-06	-5.743231e-10	-9.048343e+00	-4.007301e+01
1.570000e-06	-1.249105e-06	-5.614060e-10	-8.731275e+00	-3.936129e+01
1.580000e-06	-1.203703e-06	-5.488404e-10	-8.413912e+00	-3.863813e+01
1.590000e-06	-1.158196e-06	-5.354955e-10	-8.095817e+00	-3.790336e+01
1.600000e-06	-1.112568e-06	-5.208929e-10	-7.776882e+00	-3.715676e+01
1.610000e-06	-1.066839e-06	-5.067505e-10	-7.457232e+00	-3.639810e+01
1.620000e-06	-1.021010e-06	-4.938682e-10	-7.136886e+00	-3.562710e+01
1.630000e-06	-9.750966e-07	-4.822910e-10	-6.815950e+00	-3.484346e+01
1.640000e-06	-9.291454e-07	-4.675022e-10	-6.494750e+00	-3.404687e+01
1.650000e-06	-8.831373e-07	-4.523332e-10	-6.173152e+00	-3.323698e+01
1.660000e-06	-8.370744e-07	-4.376859e-10	-5.851171e+00	-3.241340e+01
1.670000e-06	-7.910578e-07	-4.236149e-10	-5.529514e+00	-3.157577e+01
1.680000e-06	-7.450099e-07	-4.110083e-10	-5.207638e+00	-3.072367e+01
1.690000e-06	-6.989039e-07	-4.014590e-10	-4.885356e+00	-2.985670e+01
1.700000e-06	-6.527971e-07	-3.917727e-10	-4.563068e+00	-2.897444e+01
1.710000e-06	-6.066050e-07	-3.790196e-10	-4.240184e+00	-2.807646e+01
1.720000e-06	-5.603907e-07	-3.642204e-10	-3.917145e+00	-2.716237e+01
1.730000e-06	-5.141356e-07	-3.478254e-10	-3.593820e+00	-2.623174e+01
1.740000e-06	-4.677268e-07	-3.309220e-10	-3.269422e+00	-2.528421e+01
1.750000e-06	-4.212675e-07	-3.161821e-10	-2.944670e+00	-2.431940e+01
1.760000e-06	-3.748064e-07	-3.043728e-10	-2.619906e+00	-2.333697e+01
1.770000e-06	-3.283194e-07	-2.934312e-10	-2.294961e+00	-2.233663e+01
1.780000e-06	-2.818199e-07	-2.823331e-10	-1.969928e+00	-2.131812e+01
1.790000e-06	-2.352982e-07	-2.677668e-10	-1.644740e+00	-2.028121e+01
1.800000e-06	-1.887583e-07	-2.492425e-10	-1.319425e+00	-1.922575e+01
1.810000e-06	-1.421337e-07	-2.286152e-10	-9.935183e-01	-1.815162e+01
1.820000e-06	-9.545134e-08	-2.099699e-10	-6.672073e-01	-1.705878e+01
1.830000e-06	-4.885822e-08	-1.939836e-10	-3.415202e-01	-1.594726e+01
1.840000e-06	-2.260660e-09	-1.802858e-10	-1.580207e-02	-1.481715e+01
1.850000e-06	4.432277e-08	-1.678502e-10	3.098173e-01	-1.366861e+01
1.860000e-06	9.079735e-08	-1.541051e-10	6.346758e-01	-1.250191e+01
1.870000e-06	1.373290e-07	-1.374407e-10	9.599333e-01	-1.131737e+01
1.880000e-06	1.839161e-07	-1.193446e-10	1.285578e+00	-1.011541e+01
1.890000e-06	2.304694e-07	-9.932303e-11	1.610987e+00	-8.896530e+00
1.900000e-06	2.769942e-07	-8.022711e-11	1.936197e+00	-7.661320e+00
1.910000e-06	3.234499e-07	-6.182828e-11	2.260923e+00	-6.410457e+00
1.920000e-06	3.698526e-07	-4.348728e-11	2.585279e+00	-5.144703e+00
1.930000e-06	4.162722e-07	-2.593921e-11	2.909753e+00	-3.864906e+00
1.940000e-06	4.627023e-07	-1.040406e-11	3.234301e+00	-2.571999e+00
1.950000e-06	5.090378e-07	5.110184e-12	3.558187e+00	-1.266992e+00
1.960000e-06	5.552798e-07	2.163032e-11	3.881419e+00	4.902553e-02
1.970000e-06	6.015795e-07	3.909014e-11	4.205056e+00	1.374892e+00
1.980000e-06	6.478358e-07	5.992578e-11	4.528389e+00	2.709377e+00
1.990000e-06	6.939785e-07	8.315315e-11	4.850928e+00	4.051190e+00
2.000000e-06	7.400752e-07	1.043848e-10	5.173144e+00	5.398981e+00
2.010000e-06	7.860782e-07	1.231997e-10	5.494707e+00	6.751351e+00
2.020000e-06	8.320821e-07	1.403656e-10	5.816275e+00	8.106860e+00
2.030000e-06	8.780828e-07	1.570726e-10	6.137821e+00	9.464031e+00
2.040000e-06	9.239723e-07	1.738146e-10	6.458590e+00	1.082136e+01
2.050000e-06	9.698701e-07	1.915534e-10	6.779417e+00	1.217732e+01
2.060000e-06	1.015759e-06	2.114688e-10	7.100183e+00	1.353039e+01
2.070000e-06	1.061539e-06	2.328598e-10	7.420182e+00	1.487903e+01
2.080000e-06	1.107198e-06	2.550779e-10	7.739343e+00	1.622170e+01
2.090000e-06	1.152773e-06	2.751863e-10	8.057914e+00	1.755690e+01
2.100000e-06	1.198361e-06	2.928312e-10	8.376574e+00	1.888314e+01
2.110000e-06	1.243848e-06	3.086986e-10	8.694530e+00	2.019895e+01
2.120000e-06	1.289129e-06	3.251590e-10	9.011046e+00	2.150294e+01
2.130000e-06	1.334356e-06	3.428033e-10	9.327181e+00	2.279373e+01
2.140000e-06	1.379524e-06	3.615345e-10	9.642905e+00	2.407001e+01
2.150000e-06	1.424562e-06	3.792857e-10	9.957723e+00	2.533053e+01
2.160000e-06	1.469558e-06	3.964064e-10	1.027225e+01	2.657413e+01
2.170000e-06	1.514426e-06	4.137716e-10	1.058587e+01	2.779969e+01
2.180000e-06	1.559048e-06	4.295111e-10	1.089779e+01	2.900622e+01
2.190000e-06	1.603504e-06	4.437387e-10	1.120853e+01	3.019277e+01
2.200000e-06	1.647878e-06	4.593309e-10	1.151871e+01	3.135850e+01
2.210000e-06	1.692132e-06	4.763342e-10	1.182804e+01	3.250268e+01
2.220000e-06	1.736271e-06	4.930502e-10	1.213658e+01	3.362465e+01
2.230000e-06	1.780272e-06	5.085168e-10	1.244415e+01	3.472387e+01
2.240000e-06	1.824151e-06	5.227782e-10	1.275086e+01	3.579989e+01
2.250000e-06	1.867962e-06	5.358923e-10	1.305710e+01	3.685236e+01
2.260000e-06	1.911715e-06	5.480160e-10	1.336293e+01	3.788103e+01
2.270000e-06	1.955424e-06	5.598380e-10	1.366847e+01	3.888574e+01
2.280000e-06	1.999057e-06	5.742112e-10	1.397346e+01	3.986646e+01
2.290000e-06	2.042620e-06	5.901580e-10	1.427797e+01	4.082321e+01
2.300000e-06	2.086099e-06	6.046983e-10	1.458188e+01	4.175613e+01
2.310000e-06	2.129472e-06	6.176148e-10	1.488506e+01	4.266543e+01
2.320000e-06	2.172764e-06	6.289526e-10	1.518767e+01	4.355141e+01
2.330000e-06	2.215992e-06	6.393453e-10	1.548984e+01	4.441444e+01
2.340000e-06	2.259190e-06	6.492529e-10	1.579179e+01	4.525496e+01
2.350000e-06	2.302262e-06	6.600975e-10	1.609287e+01	4.607348e+01
2.360000e-06	2.345025e-06	6.718608e-10	1.639178e+01	4.687057e+01
2.370000e-06	2.387402e-06	6.829293e-10	1.668800e+01	4.764683e+01
2.380000e-06	2.429425e-06	6.934618e-10	1.698174e+01	4.840292e+01
2.390000e-06	2.471106e-06	7.038138e-10	1.727309e+01	4.913954e+01
2.400000e-06	2.512407e-06	7.142123e-10	1.756179e+01	4.985740e+01
2.410000e-06	2.553351e-06	7.265190e-10	1.784798e+01	5.055725e+01
2.420000e-06	2.594006e-06	7.400966e-10	1.813217e+01	5.123984e+01
2.430000e-06	2.634481e-06	7.524704e-10	1.841509e+01	5.190593e+01
2.440000e-06	2.674796e-06	7.633325e-10	1.869689e+01	5.255628e+01
2.450000e-06	2.714939e-06	7.742782e-10	1.897749e+01	5.319163e+01
2.460000e-06	2.754875e-06	7.835663e-10	1.925664e+01	5.381274e+01
2.470000e-06	2.794614e-06	7.918164e-10	1.953442e+01	5.442031e+01
2.480000e-06	2.834273e-06	8.009155e-10	1.981164e+01	5.501503e+01
2.490000e-06	2.873857e-06	8.106771e-10	2.008833e+01	5.559758e+01
2.500000e-06	2.913273e-06	8.211319e-10	2.036385e+01	5.616856e+01
2.510000e-06	2.952473e-06	8.306385e-10	2.063786e+01	5.672856e+01
2.520000e-06	2.991488e-06	8.387073e-10	2.091058e+01	5.727813e+01
2.530000e-06	3.030302e-06	8.452880e-10	2.118189e+01	5.781776e+01
2.540000e-06	3.068848e-06	8.506465e-10	2.145133e+01	5.834790e+01
2.550000e-06	3.107177e-06	8.550317e-10	2.171925e+01	5.886894e+01
2.560000e-06	3.145362e-06	8.605995e-10	2.198616e+01	5.938123e+01
2.570000e-06	3.183350e-06	8.687256e-10	2.225169e+01	5.988506e+01
2.580000e-06	3.221066e-06	8.763897e-10	2.251533e+01	6.038068e+01
2.590000e-06	3.258599e-06	8.829014e-10	2.277769e+01	6.086827e+01
2.600000e-06	3.296005e-06	8.894388e-10	2.303916e+01	6.134799e+01
2.610000e-06	3.333227e-06	8.973611e-10	2.329934e+01	6.181993e+01
2.620000e-06	3.370130e-06	9.053902e-10	2.355729e+01	6.228414e+01
2.630000e-06	3.406660e-06	9.109540e-10	2.381264e+01	6.274064e+01
2.640000e-06	3.442902e-06	9.151697e-10	2.406597e+01	6.318940e+01
2.650000e-06	3.478928e-06	9.202611e-10	2.431780e+01	6.363035e+01
2.660000e-06	3.514835e-06	9.265040e-10	2.456878e+01	6.406342e+01
2.670000e-06	3.550639e-06	9.319075e-10	2.481906e+01	6.448849e+01
2.680000e-06	3.586311e-06	9.370837e-10	2.506840e+01	6.490541e+01
2.690000e-06	3.621862e-06	9.431397e-10	2.531691e+01	6.531403e+01
2.700000e-06	3.657316e-06	9.496843e-10	2.556473e+01	6.571420e+01
2.710000e-06	3.692619e-06	9.566213e-10	2.581150e+01	6.610574e+01
2.720000e-06	3.727536e-06	9.635272e-10	2.605557e+01	6.648846e+01
2.730000e-06	3.762037e-06	9.702371e-10	2.629673e+01	6.686221e+01
2.740000e-06	3.796092e-06	9.753836e-10	2.653478e+01	6.722682e+01
2.750000e-06	3.829542e-06	9.790994e-10	2.676860e+01	6.758213e+01
2.760000e-06	3.862533e-06	9.828986e-10	2.699920e+01	6.792800e+01
2.770000e-06	3.895122e-06	9.880753e-10	2.722700e+01	6.826431e+01
2.780000e-06	3.927339e-06	9.939270e-10	2.745220e+01	6.859097e+01
2.790000e-06	3.959350e-06	9.995141e-10	2.767596e+01	6.890790e+01
2.800000e-06	3.991232e-06	1.006066e-09	2.789881e+01	6.921506e+01
2.810000e-06	4.022940e-06	1.013297e-09	2.812045e+01	6.951244e+01
2.820000e-06	4.054482e-06	1.018988e-09	2.834093e+01	6.980004e+01
2.830000e-06	4.085873e-06	1.021753e-09	2.856035e+01	7.007793e+01
2.840000e-06	4.117009e-06	1.021994e-09	2.877799e+01	7.034618e+01
2.850000e-06	4.147764e-06	1.023357e-09	2.899298e+01	7.060491e+01
2.860000e-06	4.178119e-06	1.027183e-09	2.920516e+01	7.085429e+01
2.870000e-06	4.208172e-06	1.030540e-09	2.941523e+01	7.109449e+01
2.880000e-06	4.237965e-06	1.034105e-09	2.962348e+01	7.132573e+01
2.890000e-06	4.267490e-06	1.037755e-09	2.982986e+01	7.154827e+01
2.900000e-06	4.296753e-06	1.043072e-09	3.003441e+01	7.176238e+01
