# Temperatura_=_-0.4
# Concentracion g/m^3_=_1620.0
# C_Vs_to_Am_M_A/Vsm_=_65563218390.804596
# pendiente_HvsI_1/m_=_3716.3
# ordenada_HvsI_A/m_=_1297.0
# frecuencia_Hz_=_135093.10113026723

Tiempo_(s)	Campo_(V.s)	Magnetizacion_(V.s)	Campo_(kA/m)	Magnetizacion_(A/m)
0.000000e+00	-5.507284e-06	-1.381900e-09	-3.837103e+01	-8.817517e+01
1.000000e-08	-5.507552e-06	-1.383320e-09	-3.837290e+01	-8.818454e+01
2.000000e-08	-5.507572e-06	-1.382594e-09	-3.837304e+01	-8.819201e+01
3.000000e-08	-5.507351e-06	-1.378869e-09	-3.837150e+01	-8.819757e+01
4.000000e-08	-5.506776e-06	-1.370901e-09	-3.836749e+01	-8.820125e+01
5.000000e-08	-5.505616e-06	-1.363405e-09	-3.835941e+01	-8.820304e+01
6.000000e-08	-5.503877e-06	-1.369310e-09	-3.834730e+01	-8.820293e+01
7.000000e-08	-5.501525e-06	-1.378417e-09	-3.833091e+01	-8.820090e+01
8.000000e-08	-5.498585e-06	-1.373214e-09	-3.831043e+01	-8.819694e+01
9.000000e-08	-5.495175e-06	-1.339689e-09	-3.828666e+01	-8.819101e+01
1.000000e-07	-5.491272e-06	-1.321107e-09	-3.825947e+01	-8.818308e+01
1.100000e-07	-5.487066e-06	-1.296973e-09	-3.823016e+01	-8.817310e+01
1.200000e-07	-5.482723e-06	-1.385324e-09	-3.819991e+01	-8.816104e+01
1.300000e-07	-5.478010e-06	-1.375287e-09	-3.816707e+01	-8.814684e+01
1.400000e-07	-5.472863e-06	-1.343934e-09	-3.813121e+01	-8.813043e+01
1.500000e-07	-5.467442e-06	-1.286086e-09	-3.809344e+01	-8.811176e+01
1.600000e-07	-5.461708e-06	-1.344694e-09	-3.805349e+01	-8.809075e+01
1.700000e-07	-5.455595e-06	-1.377351e-09	-3.801089e+01	-8.806733e+01
1.800000e-07	-5.449046e-06	-1.325414e-09	-3.796527e+01	-8.804143e+01
1.900000e-07	-5.442093e-06	-1.308955e-09	-3.791682e+01	-8.801297e+01
2.000000e-07	-5.434811e-06	-1.331546e-09	-3.786609e+01	-8.798186e+01
2.100000e-07	-5.427197e-06	-1.396984e-09	-3.781304e+01	-8.794802e+01
2.200000e-07	-5.419354e-06	-1.357870e-09	-3.775839e+01	-8.791137e+01
2.300000e-07	-5.411297e-06	-1.353659e-09	-3.770226e+01	-8.787180e+01
2.400000e-07	-5.402814e-06	-1.333653e-09	-3.764315e+01	-8.782925e+01
2.500000e-07	-5.393715e-06	-1.389849e-09	-3.757976e+01	-8.778362e+01
2.600000e-07	-5.383917e-06	-1.369943e-09	-3.751149e+01	-8.773481e+01
2.700000e-07	-5.373503e-06	-1.365260e-09	-3.743894e+01	-8.768274e+01
2.800000e-07	-5.362569e-06	-1.337680e-09	-3.736276e+01	-8.762733e+01
2.900000e-07	-5.351206e-06	-1.368858e-09	-3.728359e+01	-8.756849e+01
3.000000e-07	-5.339480e-06	-1.344949e-09	-3.720188e+01	-8.750613e+01
3.100000e-07	-5.327350e-06	-1.344835e-09	-3.711737e+01	-8.744017e+01
3.200000e-07	-5.314823e-06	-1.336792e-09	-3.703010e+01	-8.737053e+01
3.300000e-07	-5.301981e-06	-1.360660e-09	-3.694062e+01	-8.729714e+01
3.400000e-07	-5.288753e-06	-1.344806e-09	-3.684846e+01	-8.721992e+01
3.500000e-07	-5.275119e-06	-1.325055e-09	-3.675346e+01	-8.713880e+01
3.600000e-07	-5.261085e-06	-1.318499e-09	-3.665568e+01	-8.705371e+01
3.700000e-07	-5.246714e-06	-1.336416e-09	-3.655555e+01	-8.696459e+01
3.800000e-07	-5.231650e-06	-1.332079e-09	-3.645060e+01	-8.687139e+01
3.900000e-07	-5.215840e-06	-1.316804e-09	-3.634044e+01	-8.677403e+01
4.000000e-07	-5.199731e-06	-1.339541e-09	-3.622821e+01	-8.667248e+01
4.100000e-07	-5.183296e-06	-1.330175e-09	-3.611370e+01	-8.656669e+01
4.200000e-07	-5.166528e-06	-1.308408e-09	-3.599687e+01	-8.645661e+01
4.300000e-07	-5.149413e-06	-1.313244e-09	-3.587763e+01	-8.634222e+01
4.400000e-07	-5.131999e-06	-1.346998e-09	-3.575630e+01	-8.622346e+01
4.500000e-07	-5.114188e-06	-1.294544e-09	-3.563220e+01	-8.610033e+01
4.600000e-07	-5.095866e-06	-1.286248e-09	-3.550455e+01	-8.597279e+01
4.700000e-07	-5.077140e-06	-1.321796e-09	-3.537408e+01	-8.584083e+01
4.800000e-07	-5.058101e-06	-1.327120e-09	-3.524143e+01	-8.570444e+01
4.900000e-07	-5.038740e-06	-1.270136e-09	-3.510653e+01	-8.556361e+01
5.000000e-07	-5.019177e-06	-1.307892e-09	-3.497023e+01	-8.541834e+01
5.100000e-07	-4.999455e-06	-1.318060e-09	-3.483282e+01	-8.526863e+01
5.200000e-07	-4.979359e-06	-1.284437e-09	-3.469281e+01	-8.511450e+01
5.300000e-07	-4.958962e-06	-1.278805e-09	-3.455070e+01	-8.495595e+01
5.400000e-07	-4.938314e-06	-1.321876e-09	-3.440683e+01	-8.479302e+01
5.500000e-07	-4.917254e-06	-1.274393e-09	-3.426010e+01	-8.462572e+01
5.600000e-07	-4.895827e-06	-1.261569e-09	-3.411081e+01	-8.445410e+01
5.700000e-07	-4.874086e-06	-1.295088e-09	-3.395934e+01	-8.427818e+01
5.800000e-07	-4.851920e-06	-1.287589e-09	-3.380490e+01	-8.409801e+01
5.900000e-07	-4.829394e-06	-1.243782e-09	-3.364795e+01	-8.391363e+01
6.000000e-07	-4.806483e-06	-1.272893e-09	-3.348832e+01	-8.372511e+01
6.100000e-07	-4.783331e-06	-1.279063e-09	-3.332702e+01	-8.353250e+01
6.200000e-07	-4.759975e-06	-1.248552e-09	-3.316429e+01	-8.333586e+01
6.300000e-07	-4.736292e-06	-1.252445e-09	-3.299928e+01	-8.313526e+01
6.400000e-07	-4.712477e-06	-1.270115e-09	-3.283335e+01	-8.293078e+01
6.500000e-07	-4.688350e-06	-1.246350e-09	-3.266526e+01	-8.272248e+01
6.600000e-07	-4.663775e-06	-1.238147e-09	-3.249403e+01	-8.251045e+01
6.700000e-07	-4.638812e-06	-1.250279e-09	-3.232011e+01	-8.229478e+01
6.800000e-07	-4.613337e-06	-1.233357e-09	-3.214262e+01	-8.207554e+01
6.900000e-07	-4.587279e-06	-1.226144e-09	-3.196106e+01	-8.185283e+01
7.000000e-07	-4.560754e-06	-1.239310e-09	-3.177625e+01	-8.162673e+01
7.100000e-07	-4.533785e-06	-1.238997e-09	-3.158835e+01	-8.139734e+01
7.200000e-07	-4.506426e-06	-1.221793e-09	-3.139773e+01	-8.116475e+01
7.300000e-07	-4.478890e-06	-1.227968e-09	-3.120588e+01	-8.092904e+01
7.400000e-07	-4.451170e-06	-1.219283e-09	-3.101274e+01	-8.069032e+01
7.500000e-07	-4.423189e-06	-1.214350e-09	-3.081779e+01	-8.044866e+01
7.600000e-07	-4.394893e-06	-1.212378e-09	-3.062064e+01	-8.020415e+01
7.700000e-07	-4.366341e-06	-1.215984e-09	-3.042171e+01	-7.995688e+01
7.800000e-07	-4.337614e-06	-1.202919e-09	-3.022156e+01	-7.970693e+01
7.900000e-07	-4.308514e-06	-1.201065e-09	-3.001881e+01	-7.945436e+01
8.000000e-07	-4.279035e-06	-1.191363e-09	-2.981342e+01	-7.919925e+01
8.100000e-07	-4.249297e-06	-1.186096e-09	-2.960623e+01	-7.894166e+01
8.200000e-07	-4.219328e-06	-1.181368e-09	-2.939742e+01	-7.868165e+01
8.300000e-07	-4.189148e-06	-1.192157e-09	-2.918715e+01	-7.841925e+01
8.400000e-07	-4.158650e-06	-1.182759e-09	-2.897466e+01	-7.815451e+01
8.500000e-07	-4.127759e-06	-1.177465e-09	-2.875944e+01	-7.788746e+01
8.600000e-07	-4.096546e-06	-1.171744e-09	-2.854196e+01	-7.761811e+01
8.700000e-07	-4.065137e-06	-1.162959e-09	-2.832313e+01	-7.734647e+01
8.800000e-07	-4.033584e-06	-1.145803e-09	-2.810328e+01	-7.707254e+01
8.900000e-07	-4.001845e-06	-1.145133e-09	-2.788215e+01	-7.679629e+01
9.000000e-07	-3.969875e-06	-1.141628e-09	-2.765940e+01	-7.651770e+01
9.100000e-07	-3.937662e-06	-1.134308e-09	-2.743496e+01	-7.623673e+01
9.200000e-07	-3.905175e-06	-1.132112e-09	-2.720862e+01	-7.595332e+01
9.300000e-07	-3.872299e-06	-1.131733e-09	-2.697956e+01	-7.566740e+01
9.400000e-07	-3.839104e-06	-1.121392e-09	-2.674828e+01	-7.537889e+01
9.500000e-07	-3.805565e-06	-1.112576e-09	-2.651460e+01	-7.508769e+01
9.600000e-07	-3.771497e-06	-1.112240e-09	-2.627724e+01	-7.479370e+01
9.700000e-07	-3.736879e-06	-1.105504e-09	-2.603604e+01	-7.449680e+01
9.800000e-07	-3.701818e-06	-1.097398e-09	-2.579176e+01	-7.419685e+01
9.900000e-07	-3.666558e-06	-1.094728e-09	-2.554610e+01	-7.389371e+01
1.000000e-06	-3.631178e-06	-1.094294e-09	-2.529960e+01	-7.358721e+01
1.010000e-06	-3.595636e-06	-1.086060e-09	-2.505196e+01	-7.327720e+01
1.020000e-06	-3.559914e-06	-1.080767e-09	-2.480308e+01	-7.296348e+01
1.030000e-06	-3.524016e-06	-1.075956e-09	-2.455296e+01	-7.264589e+01
1.040000e-06	-3.488007e-06	-1.072734e-09	-2.430207e+01	-7.232421e+01
1.050000e-06	-3.451835e-06	-1.063208e-09	-2.405005e+01	-7.199825e+01
1.060000e-06	-3.415310e-06	-1.058087e-09	-2.379557e+01	-7.166780e+01
1.070000e-06	-3.378485e-06	-1.046911e-09	-2.353900e+01	-7.133264e+01
1.080000e-06	-3.341410e-06	-1.041778e-09	-2.328069e+01	-7.099256e+01
1.090000e-06	-3.304061e-06	-1.036975e-09	-2.302046e+01	-7.064734e+01
1.100000e-06	-3.266521e-06	-1.034308e-09	-2.275891e+01	-7.029676e+01
1.110000e-06	-3.228690e-06	-1.022863e-09	-2.249533e+01	-6.994060e+01
1.120000e-06	-3.190618e-06	-1.016546e-09	-2.223007e+01	-6.957863e+01
1.130000e-06	-3.152451e-06	-1.010331e-09	-2.196415e+01	-6.921065e+01
1.140000e-06	-3.114049e-06	-1.004681e-09	-2.169659e+01	-6.883644e+01
1.150000e-06	-3.075326e-06	-9.970687e-10	-2.142679e+01	-6.845579e+01
1.160000e-06	-3.036378e-06	-9.911840e-10	-2.115543e+01	-6.806850e+01
1.170000e-06	-2.997364e-06	-9.817911e-10	-2.088360e+01	-6.767438e+01
1.180000e-06	-2.958166e-06	-9.743337e-10	-2.061050e+01	-6.727325e+01
1.190000e-06	-2.918723e-06	-9.688121e-10	-2.033569e+01	-6.686492e+01
1.200000e-06	-2.879176e-06	-9.654693e-10	-2.006015e+01	-6.644923e+01
1.210000e-06	-2.839428e-06	-9.595393e-10	-1.978321e+01	-6.602602e+01
1.220000e-06	-2.799488e-06	-9.530858e-10	-1.950494e+01	-6.559515e+01
1.230000e-06	-2.759499e-06	-9.446599e-10	-1.922632e+01	-6.515648e+01
1.240000e-06	-2.719416e-06	-9.384245e-10	-1.894705e+01	-6.470988e+01
1.250000e-06	-2.679142e-06	-9.332232e-10	-1.866645e+01	-6.425526e+01
1.260000e-06	-2.638630e-06	-9.239167e-10	-1.838419e+01	-6.379250e+01
1.270000e-06	-2.597875e-06	-9.170514e-10	-1.810023e+01	-6.332151e+01
1.280000e-06	-2.556812e-06	-9.106223e-10	-1.781414e+01	-6.284222e+01
1.290000e-06	-2.515473e-06	-9.039876e-10	-1.752612e+01	-6.235455e+01
1.300000e-06	-2.473857e-06	-8.942113e-10	-1.723617e+01	-6.185844e+01
1.310000e-06	-2.431942e-06	-8.843757e-10	-1.694412e+01	-6.135383e+01
1.320000e-06	-2.389732e-06	-8.736606e-10	-1.665004e+01	-6.084068e+01
1.330000e-06	-2.347214e-06	-8.627422e-10	-1.635380e+01	-6.031895e+01
1.340000e-06	-2.304461e-06	-8.547734e-10	-1.605592e+01	-5.978859e+01
1.350000e-06	-2.261472e-06	-8.490388e-10	-1.575640e+01	-5.924956e+01
1.360000e-06	-2.218249e-06	-8.379170e-10	-1.545526e+01	-5.870184e+01
1.370000e-06	-2.174856e-06	-8.278783e-10	-1.515293e+01	-5.814538e+01
1.380000e-06	-2.131323e-06	-8.170572e-10	-1.484962e+01	-5.758015e+01
1.390000e-06	-2.087738e-06	-8.074962e-10	-1.454594e+01	-5.700609e+01
1.400000e-06	-2.044110e-06	-7.965569e-10	-1.424197e+01	-5.642316e+01
1.410000e-06	-2.000384e-06	-7.900409e-10	-1.393732e+01	-5.583130e+01
1.420000e-06	-1.956606e-06	-7.811427e-10	-1.363231e+01	-5.523044e+01
1.430000e-06	-1.912742e-06	-7.710344e-10	-1.332669e+01	-5.462049e+01
1.440000e-06	-1.868771e-06	-7.615059e-10	-1.302033e+01	-5.400137e+01
1.450000e-06	-1.824756e-06	-7.535623e-10	-1.271367e+01	-5.337296e+01
1.460000e-06	-1.780639e-06	-7.415421e-10	-1.240629e+01	-5.273513e+01
1.470000e-06	-1.736317e-06	-7.283031e-10	-1.209748e+01	-5.208775e+01
1.480000e-06	-1.691773e-06	-7.153336e-10	-1.178713e+01	-5.143065e+01
1.490000e-06	-1.647146e-06	-7.024722e-10	-1.147620e+01	-5.076364e+01
1.500000e-06	-1.602478e-06	-6.908968e-10	-1.116498e+01	-5.008653e+01
1.510000e-06	-1.557709e-06	-6.836121e-10	-1.085306e+01	-4.939909e+01
1.520000e-06	-1.512787e-06	-6.755047e-10	-1.054007e+01	-4.870107e+01
1.530000e-06	-1.467696e-06	-6.633843e-10	-1.022592e+01	-4.799220e+01
1.540000e-06	-1.422513e-06	-6.497636e-10	-9.911107e+00	-4.727220e+01
1.550000e-06	-1.377210e-06	-6.368104e-10	-9.595472e+00	-4.654075e+01
1.560000e-06	-1.331866e-06	-6.222164e-10	-9.279541e+00	-4.579753e+01
1.570000e-06	-1.286471e-06	-6.092753e-10	-8.963261e+00	-4.504218e+01
1.580000e-06	-1.240945e-06	-5.992025e-10	-8.646062e+00	-4.427434e+01
1.590000e-06	-1.195295e-06	-5.891219e-10	-8.328006e+00	-4.349362e+01
1.600000e-06	-1.149538e-06	-5.781207e-10	-8.009206e+00	-4.269964e+01
1.610000e-06	-1.103662e-06	-5.658091e-10	-7.689574e+00	-4.189197e+01
1.620000e-06	-1.057720e-06	-5.529301e-10	-7.369481e+00	-4.107021e+01
1.630000e-06	-1.011756e-06	-5.387365e-10	-7.049233e+00	-4.023392e+01
1.640000e-06	-9.658027e-07	-5.261522e-10	-6.729060e+00	-3.938268e+01
1.650000e-06	-9.197602e-07	-5.101641e-10	-6.408267e+00	-3.851606e+01
1.660000e-06	-8.736046e-07	-4.947979e-10	-6.086686e+00	-3.763363e+01
1.670000e-06	-8.273964e-07	-4.791665e-10	-5.764739e+00	-3.673497e+01
1.680000e-06	-7.810741e-07	-4.657998e-10	-5.441996e+00	-3.581969e+01
1.690000e-06	-7.347007e-07	-4.519924e-10	-5.118897e+00	-3.488737e+01
1.700000e-06	-6.882821e-07	-4.403514e-10	-4.795484e+00	-3.393765e+01
1.710000e-06	-6.417983e-07	-4.273375e-10	-4.471617e+00	-3.297016e+01
1.720000e-06	-5.952936e-07	-4.118612e-10	-4.147603e+00	-3.198459e+01
1.730000e-06	-5.488015e-07	-3.948597e-10	-3.823678e+00	-3.098064e+01
1.740000e-06	-5.022428e-07	-3.782448e-10	-3.499288e+00	-2.995804e+01
1.750000e-06	-4.556234e-07	-3.615768e-10	-3.174476e+00	-2.891656e+01
1.760000e-06	-4.090072e-07	-3.461678e-10	-2.849685e+00	-2.785603e+01
1.770000e-06	-3.623114e-07	-3.304281e-10	-2.524341e+00	-2.677630e+01
1.780000e-06	-3.156062e-07	-3.159699e-10	-2.198931e+00	-2.567729e+01
1.790000e-06	-2.689420e-07	-3.021215e-10	-1.873806e+00	-2.455897e+01
1.800000e-06	-2.222489e-07	-2.841019e-10	-1.548480e+00	-2.342136e+01
1.810000e-06	-1.754608e-07	-2.635866e-10	-1.222492e+00	-2.226453e+01
1.820000e-06	-1.286073e-07	-2.437196e-10	-8.960485e-01	-2.108862e+01
1.830000e-06	-8.179574e-08	-2.267406e-10	-5.698974e-01	-1.989384e+01
1.840000e-06	-3.504737e-08	-2.119899e-10	-2.441864e-01	-1.868046e+01
1.850000e-06	1.163802e-08	-1.971907e-10	8.108586e-02	-1.744881e+01
1.860000e-06	5.836445e-08	-1.824926e-10	4.066440e-01	-1.619929e+01
1.870000e-06	1.050923e-07	-1.664306e-10	7.322118e-01	-1.493237e+01
1.880000e-06	1.517468e-07	-1.499326e-10	1.057269e+00	-1.364859e+01
1.890000e-06	1.984051e-07	-1.327472e-10	1.382353e+00	-1.234854e+01
1.900000e-06	2.451100e-07	-1.129650e-10	1.707761e+00	-1.103290e+01
1.910000e-06	2.918510e-07	-9.527999e-11	2.033421e+00	-9.702414e+00
1.920000e-06	3.385400e-07	-7.771340e-11	2.358718e+00	-8.357867e+00
1.930000e-06	3.851657e-07	-6.251177e-11	2.683574e+00	-7.000124e+00
1.940000e-06	4.317375e-07	-4.663763e-11	3.008055e+00	-5.630105e+00
1.950000e-06	4.783181e-07	-2.970160e-11	3.332597e+00	-4.248785e+00
1.960000e-06	5.248554e-07	-1.079634e-11	3.656837e+00	-2.857192e+00
1.970000e-06	5.712365e-07	9.623797e-12	3.979990e+00	-1.456403e+00
1.980000e-06	6.175625e-07	3.237227e-11	4.302758e+00	-4.753807e-02
1.990000e-06	6.638648e-07	5.479349e-11	4.625361e+00	1.368241e+00
2.000000e-06	7.101061e-07	7.598833e-11	4.947539e+00	2.789737e+00
2.010000e-06	7.563642e-07	9.472758e-11	5.269835e+00	4.215724e+00
2.020000e-06	8.026254e-07	1.112049e-10	5.592151e+00	5.644950e+00
2.030000e-06	8.488492e-07	1.272523e-10	5.914208e+00	7.076142e+00
2.040000e-06	8.949744e-07	1.455265e-10	6.235576e+00	8.508017e+00
2.050000e-06	9.410027e-07	1.644473e-10	6.556271e+00	9.939278e+00
2.060000e-06	9.869679e-07	1.843656e-10	6.876525e+00	1.136863e+01
2.070000e-06	1.032859e-06	2.057361e-10	7.196266e+00	1.279478e+01
2.080000e-06	1.078759e-06	2.279593e-10	7.516060e+00	1.421645e+01
2.090000e-06	1.124527e-06	2.493630e-10	7.834944e+00	1.563237e+01
2.100000e-06	1.170169e-06	2.677134e-10	8.152949e+00	1.704128e+01
2.110000e-06	1.215758e-06	2.860711e-10	8.470581e+00	1.844197e+01
2.120000e-06	1.261172e-06	3.056075e-10	8.786997e+00	1.983325e+01
2.130000e-06	1.306504e-06	3.251200e-10	9.102837e+00	2.121397e+01
2.140000e-06	1.351773e-06	3.437966e-10	9.418243e+00	2.258301e+01
2.150000e-06	1.396908e-06	3.607304e-10	9.732713e+00	2.393930e+01
2.160000e-06	1.441998e-06	3.755866e-10	1.004687e+01	2.528185e+01
2.170000e-06	1.487039e-06	3.937165e-10	1.036068e+01	2.660967e+01
2.180000e-06	1.531917e-06	4.136117e-10	1.067336e+01	2.792187e+01
2.190000e-06	1.576682e-06	4.327729e-10	1.098525e+01	2.921762e+01
2.200000e-06	1.621354e-06	4.518860e-10	1.129650e+01	3.049612e+01
2.210000e-06	1.665825e-06	4.698090e-10	1.160634e+01	3.175667e+01
2.220000e-06	1.710157e-06	4.872640e-10	1.191522e+01	3.299863e+01
2.230000e-06	1.754384e-06	5.053777e-10	1.222336e+01	3.422142e+01
2.240000e-06	1.798559e-06	5.208933e-10	1.253114e+01	3.542453e+01
2.250000e-06	1.842716e-06	5.357231e-10	1.283880e+01	3.660753e+01
2.260000e-06	1.886772e-06	5.505506e-10	1.314575e+01	3.777006e+01
2.270000e-06	1.930665e-06	5.666545e-10	1.345157e+01	3.891182e+01
2.280000e-06	1.974452e-06	5.841100e-10	1.375665e+01	4.003258e+01
2.290000e-06	2.018229e-06	6.013000e-10	1.406166e+01	4.113219e+01
2.300000e-06	2.061948e-06	6.156064e-10	1.436626e+01	4.221055e+01
2.310000e-06	2.105579e-06	6.290316e-10	1.467025e+01	4.326764e+01
2.320000e-06	2.149119e-06	6.418574e-10	1.497361e+01	4.430348e+01
2.330000e-06	2.192540e-06	6.535459e-10	1.527614e+01	4.531816e+01
2.340000e-06	2.235743e-06	6.638710e-10	1.557714e+01	4.631183e+01
2.350000e-06	2.278743e-06	6.752133e-10	1.587674e+01	4.728468e+01
2.360000e-06	2.321571e-06	6.865617e-10	1.617514e+01	4.823696e+01
2.370000e-06	2.364194e-06	6.973137e-10	1.647210e+01	4.916894e+01
2.380000e-06	2.406525e-06	7.102205e-10	1.676704e+01	5.008096e+01
2.390000e-06	2.448558e-06	7.249812e-10	1.705989e+01	5.097338e+01
2.400000e-06	2.490320e-06	7.395954e-10	1.735087e+01	5.184658e+01
2.410000e-06	2.531699e-06	7.525032e-10	1.763917e+01	5.270099e+01
2.420000e-06	2.572754e-06	7.650778e-10	1.792521e+01	5.353704e+01
2.430000e-06	2.613540e-06	7.763690e-10	1.820938e+01	5.435519e+01
2.440000e-06	2.654046e-06	7.879652e-10	1.849160e+01	5.515591e+01
2.450000e-06	2.694341e-06	8.004811e-10	1.877235e+01	5.593968e+01
2.460000e-06	2.734499e-06	8.125816e-10	1.905214e+01	5.670698e+01
2.470000e-06	2.774479e-06	8.227633e-10	1.933069e+01	5.745830e+01
2.480000e-06	2.814321e-06	8.326384e-10	1.960828e+01	5.819412e+01
2.490000e-06	2.854067e-06	8.412813e-10	1.988521e+01	5.891492e+01
2.500000e-06	2.893704e-06	8.515065e-10	2.016137e+01	5.962116e+01
2.510000e-06	2.933223e-06	8.637402e-10	2.043671e+01	6.031330e+01
2.520000e-06	2.972521e-06	8.742510e-10	2.071052e+01	6.099177e+01
2.530000e-06	3.011621e-06	8.854517e-10	2.098294e+01	6.165699e+01
2.540000e-06	3.050555e-06	8.956677e-10	2.125421e+01	6.230937e+01
2.550000e-06	3.089262e-06	9.021469e-10	2.152389e+01	6.294927e+01
2.560000e-06	3.127760e-06	9.080655e-10	2.179211e+01	6.357706e+01
2.570000e-06	3.166034e-06	9.150609e-10	2.205878e+01	6.419306e+01
2.580000e-06	3.204033e-06	9.245834e-10	2.232354e+01	6.479759e+01
2.590000e-06	3.241818e-06	9.354712e-10	2.258680e+01	6.539090e+01
2.600000e-06	3.279384e-06	9.462000e-10	2.284853e+01	6.597326e+01
2.610000e-06	3.316665e-06	9.562857e-10	2.310828e+01	6.654490e+01
2.620000e-06	3.353708e-06	9.653331e-10	2.336637e+01	6.710601e+01
2.630000e-06	3.390582e-06	9.719557e-10	2.362329e+01	6.765677e+01
2.640000e-06	3.427261e-06	9.758059e-10	2.387884e+01	6.819732e+01
2.650000e-06	3.463640e-06	9.787503e-10	2.413230e+01	6.872781e+01
2.660000e-06	3.499789e-06	9.823696e-10	2.438416e+01	6.924833e+01
2.670000e-06	3.535831e-06	9.883710e-10	2.463528e+01	6.975897e+01
2.680000e-06	3.571684e-06	9.961399e-10	2.488508e+01	7.025980e+01
2.690000e-06	3.607411e-06	1.004519e-09	2.513400e+01	7.075088e+01
2.700000e-06	3.643063e-06	1.013959e-09	2.538240e+01	7.123224e+01
2.710000e-06	3.678463e-06	1.023284e-09	2.562904e+01	7.170391e+01
2.720000e-06	3.713522e-06	1.030318e-09	2.587331e+01	7.216591e+01
2.730000e-06	3.748313e-06	1.036807e-09	2.611571e+01	7.261825e+01
2.740000e-06	3.782831e-06	1.043142e-09	2.635621e+01	7.306093e+01
2.750000e-06	3.816898e-06	1.047966e-09	2.659356e+01	7.349396e+01
2.760000e-06	3.850417e-06	1.052245e-09	2.682710e+01	7.391735e+01
2.770000e-06	3.883436e-06	1.058278e-09	2.705715e+01	7.433109e+01
2.780000e-06	3.916046e-06	1.065219e-09	2.728436e+01	7.473519e+01
2.790000e-06	3.948328e-06	1.073332e-09	2.750928e+01	7.512966e+01
2.800000e-06	3.980359e-06	1.081806e-09	2.773245e+01	7.551454e+01
2.810000e-06	4.012240e-06	1.090360e-09	2.795458e+01	7.588983e+01
2.820000e-06	4.043930e-06	1.097292e-09	2.817537e+01	7.625560e+01
2.830000e-06	4.075372e-06	1.101230e-09	2.839443e+01	7.661188e+01
2.840000e-06	4.106668e-06	1.103337e-09	2.861249e+01	7.695874e+01
2.850000e-06	4.137734e-06	1.103189e-09	2.882894e+01	7.729627e+01
2.860000e-06	4.168469e-06	1.105459e-09	2.904308e+01	7.762455e+01
2.870000e-06	4.198876e-06	1.111186e-09	2.925493e+01	7.794369e+01
2.880000e-06	4.228933e-06	1.116315e-09	2.946434e+01	7.825382e+01
2.890000e-06	4.258733e-06	1.123286e-09	2.967197e+01	7.855508e+01
2.900000e-06	4.288279e-06	1.131980e-09	2.987783e+01	7.884761e+01
