# Temperatura_=_12.7
# Concentracion g/m^3_=_1620.0
# C_Vs_to_Am_M_A/Vsm_=_65563218390.804596
# pendiente_HvsI_1/m_=_3716.3
# ordenada_HvsI_A/m_=_1297.0
# frecuencia_Hz_=_135103.6776011616

Tiempo_(s)	Campo_(V.s)	Magnetizacion_(V.s)	Campo_(kA/m)	Magnetizacion_(A/m)
0.000000e+00	-5.534257e-06	-7.737356e-10	-3.837173e+01	-5.223277e+01
1.000000e-08	-5.534465e-06	-7.740809e-10	-3.837318e+01	-5.222826e+01
2.000000e-08	-5.534357e-06	-7.769120e-10	-3.837243e+01	-5.222704e+01
3.000000e-08	-5.533804e-06	-7.772681e-10	-3.836859e+01	-5.222921e+01
4.000000e-08	-5.532793e-06	-7.757723e-10	-3.836158e+01	-5.223485e+01
5.000000e-08	-5.531301e-06	-7.754388e-10	-3.835124e+01	-5.224401e+01
6.000000e-08	-5.529252e-06	-7.797102e-10	-3.833703e+01	-5.225668e+01
7.000000e-08	-5.526633e-06	-7.958397e-10	-3.831887e+01	-5.227285e+01
8.000000e-08	-5.523474e-06	-7.871240e-10	-3.829696e+01	-5.229243e+01
9.000000e-08	-5.519801e-06	-7.308411e-10	-3.827150e+01	-5.231535e+01
1.000000e-07	-5.515751e-06	-7.161199e-10	-3.824342e+01	-5.234145e+01
1.100000e-07	-5.511392e-06	-7.910934e-10	-3.821320e+01	-5.237058e+01
1.200000e-07	-5.506679e-06	-8.130691e-10	-3.818052e+01	-5.240253e+01
1.300000e-07	-5.501715e-06	-7.684967e-10	-3.814610e+01	-5.243708e+01
1.400000e-07	-5.496443e-06	-7.157823e-10	-3.810955e+01	-5.247396e+01
1.500000e-07	-5.490800e-06	-7.682242e-10	-3.807042e+01	-5.251289e+01
1.600000e-07	-5.484791e-06	-7.864231e-10	-3.802876e+01	-5.255357e+01
1.700000e-07	-5.478381e-06	-7.459813e-10	-3.798432e+01	-5.259565e+01
1.800000e-07	-5.471643e-06	-7.364706e-10	-3.793759e+01	-5.263878e+01
1.900000e-07	-5.464521e-06	-7.993876e-10	-3.788822e+01	-5.268261e+01
2.000000e-07	-5.457037e-06	-8.437862e-10	-3.783633e+01	-5.272674e+01
2.100000e-07	-5.449312e-06	-8.127731e-10	-3.778276e+01	-5.277079e+01
2.200000e-07	-5.441314e-06	-7.901405e-10	-3.772731e+01	-5.281434e+01
2.300000e-07	-5.432984e-06	-8.022251e-10	-3.766956e+01	-5.285700e+01
2.400000e-07	-5.424172e-06	-8.323934e-10	-3.760846e+01	-5.289836e+01
2.500000e-07	-5.414667e-06	-8.246850e-10	-3.754256e+01	-5.293800e+01
2.600000e-07	-5.404476e-06	-8.302215e-10	-3.747190e+01	-5.297552e+01
2.700000e-07	-5.393671e-06	-8.358534e-10	-3.739698e+01	-5.301052e+01
2.800000e-07	-5.382379e-06	-8.436789e-10	-3.731868e+01	-5.304262e+01
2.900000e-07	-5.370722e-06	-8.215916e-10	-3.723786e+01	-5.307143e+01
3.000000e-07	-5.358659e-06	-8.262015e-10	-3.715423e+01	-5.309659e+01
3.100000e-07	-5.346221e-06	-8.326527e-10	-3.706799e+01	-5.311774e+01
3.200000e-07	-5.333475e-06	-8.482812e-10	-3.697961e+01	-5.313457e+01
3.300000e-07	-5.320343e-06	-8.318926e-10	-3.688856e+01	-5.314676e+01
3.400000e-07	-5.306781e-06	-8.273636e-10	-3.679453e+01	-5.315403e+01
3.500000e-07	-5.292854e-06	-8.368766e-10	-3.669797e+01	-5.315610e+01
3.600000e-07	-5.278458e-06	-8.377658e-10	-3.659815e+01	-5.315275e+01
3.700000e-07	-5.263431e-06	-8.041175e-10	-3.649396e+01	-5.314375e+01
3.800000e-07	-5.247928e-06	-8.141718e-10	-3.638647e+01	-5.312893e+01
3.900000e-07	-5.232006e-06	-8.506741e-10	-3.627608e+01	-5.310812e+01
4.000000e-07	-5.215614e-06	-8.251071e-10	-3.616242e+01	-5.308120e+01
4.100000e-07	-5.198828e-06	-7.919103e-10	-3.604604e+01	-5.304807e+01
4.200000e-07	-5.181756e-06	-8.315578e-10	-3.592767e+01	-5.300865e+01
4.300000e-07	-5.164364e-06	-8.474463e-10	-3.580708e+01	-5.296290e+01
4.400000e-07	-5.146583e-06	-7.896288e-10	-3.568379e+01	-5.291080e+01
4.500000e-07	-5.128443e-06	-7.991660e-10	-3.555803e+01	-5.285237e+01
4.600000e-07	-5.109937e-06	-8.458462e-10	-3.542971e+01	-5.278765e+01
4.700000e-07	-5.091057e-06	-8.135743e-10	-3.529881e+01	-5.271669e+01
4.800000e-07	-5.071811e-06	-7.815247e-10	-3.516536e+01	-5.263960e+01
4.900000e-07	-5.052283e-06	-8.257804e-10	-3.502997e+01	-5.255647e+01
5.000000e-07	-5.032554e-06	-8.163515e-10	-3.489318e+01	-5.246747e+01
5.100000e-07	-5.012577e-06	-7.807297e-10	-3.475466e+01	-5.237273e+01
5.200000e-07	-4.992348e-06	-8.077362e-10	-3.461441e+01	-5.227244e+01
5.300000e-07	-4.971744e-06	-8.189953e-10	-3.447155e+01	-5.216680e+01
5.400000e-07	-4.950732e-06	-7.709879e-10	-3.432587e+01	-5.205602e+01
5.500000e-07	-4.929418e-06	-7.914714e-10	-3.417808e+01	-5.194032e+01
5.600000e-07	-4.907749e-06	-8.235336e-10	-3.402784e+01	-5.181996e+01
5.700000e-07	-4.885786e-06	-7.846366e-10	-3.387556e+01	-5.169519e+01
5.800000e-07	-4.863505e-06	-7.654756e-10	-3.372108e+01	-5.156627e+01
5.900000e-07	-4.840809e-06	-7.990543e-10	-3.356371e+01	-5.143347e+01
6.000000e-07	-4.817730e-06	-7.776683e-10	-3.340369e+01	-5.129708e+01
6.100000e-07	-4.794306e-06	-7.545811e-10	-3.324129e+01	-5.115738e+01
6.200000e-07	-4.770682e-06	-7.799385e-10	-3.307749e+01	-5.101466e+01
6.300000e-07	-4.746946e-06	-7.790036e-10	-3.291292e+01	-5.086920e+01
6.400000e-07	-4.722945e-06	-7.520835e-10	-3.274651e+01	-5.072130e+01
6.500000e-07	-4.698587e-06	-7.706276e-10	-3.257762e+01	-5.057125e+01
6.600000e-07	-4.673769e-06	-7.777722e-10	-3.240554e+01	-5.041932e+01
6.700000e-07	-4.648355e-06	-7.521484e-10	-3.222934e+01	-5.026580e+01
6.800000e-07	-4.622272e-06	-7.546215e-10	-3.204849e+01	-5.011096e+01
6.900000e-07	-4.595630e-06	-7.671547e-10	-3.186377e+01	-4.995507e+01
7.000000e-07	-4.568600e-06	-7.513883e-10	-3.167636e+01	-4.979838e+01
7.100000e-07	-4.541243e-06	-7.532639e-10	-3.148668e+01	-4.964114e+01
7.200000e-07	-4.513685e-06	-7.707219e-10	-3.129560e+01	-4.948359e+01
7.300000e-07	-4.485938e-06	-7.569314e-10	-3.110322e+01	-4.932595e+01
7.400000e-07	-4.457973e-06	-7.499426e-10	-3.090932e+01	-4.916843e+01
7.500000e-07	-4.429775e-06	-7.636137e-10	-3.071382e+01	-4.901122e+01
7.600000e-07	-4.401284e-06	-7.575889e-10	-3.051627e+01	-4.885450e+01
7.700000e-07	-4.372490e-06	-7.422331e-10	-3.031663e+01	-4.869843e+01
7.800000e-07	-4.343382e-06	-7.518021e-10	-3.011481e+01	-4.854317e+01
7.900000e-07	-4.313958e-06	-7.490706e-10	-2.991080e+01	-4.838884e+01
8.000000e-07	-4.284254e-06	-7.353853e-10	-2.970485e+01	-4.823555e+01
8.100000e-07	-4.254325e-06	-7.416344e-10	-2.949733e+01	-4.808339e+01
8.200000e-07	-4.224150e-06	-7.517099e-10	-2.928812e+01	-4.793243e+01
8.300000e-07	-4.193650e-06	-7.380572e-10	-2.907664e+01	-4.778272e+01
8.400000e-07	-4.162804e-06	-7.346213e-10	-2.886277e+01	-4.763430e+01
8.500000e-07	-4.131622e-06	-7.400422e-10	-2.864657e+01	-4.748718e+01
8.600000e-07	-4.100182e-06	-7.308186e-10	-2.842858e+01	-4.734134e+01
8.700000e-07	-4.068598e-06	-7.227905e-10	-2.820959e+01	-4.719676e+01
8.800000e-07	-4.036883e-06	-7.326211e-10	-2.798970e+01	-4.705339e+01
8.900000e-07	-4.004986e-06	-7.294467e-10	-2.776854e+01	-4.691116e+01
9.000000e-07	-3.972844e-06	-7.196179e-10	-2.754569e+01	-4.676998e+01
9.100000e-07	-3.940374e-06	-7.219822e-10	-2.732055e+01	-4.662973e+01
9.200000e-07	-3.907519e-06	-7.229891e-10	-2.709275e+01	-4.649028e+01
9.300000e-07	-3.874236e-06	-7.105938e-10	-2.686198e+01	-4.635149e+01
9.400000e-07	-3.840565e-06	-7.090647e-10	-2.662853e+01	-4.621319e+01
9.500000e-07	-3.806538e-06	-7.146980e-10	-2.639261e+01	-4.607518e+01
9.600000e-07	-3.772039e-06	-7.113647e-10	-2.615340e+01	-4.593728e+01
9.700000e-07	-3.737081e-06	-7.094000e-10	-2.591103e+01	-4.579926e+01
9.800000e-07	-3.701772e-06	-7.120956e-10	-2.566621e+01	-4.566088e+01
9.900000e-07	-3.666232e-06	-7.056094e-10	-2.541979e+01	-4.552189e+01
1.000000e-06	-3.630570e-06	-6.947410e-10	-2.517253e+01	-4.538205e+01
1.010000e-06	-3.594855e-06	-6.929828e-10	-2.492490e+01	-4.524106e+01
1.020000e-06	-3.559011e-06	-6.899207e-10	-2.467637e+01	-4.509865e+01
1.030000e-06	-3.522987e-06	-6.831177e-10	-2.442660e+01	-4.495453e+01
1.040000e-06	-3.486716e-06	-6.818391e-10	-2.417512e+01	-4.480840e+01
1.050000e-06	-3.450090e-06	-6.825977e-10	-2.392117e+01	-4.465995e+01
1.060000e-06	-3.413176e-06	-6.759513e-10	-2.366523e+01	-4.450886e+01
1.070000e-06	-3.375997e-06	-6.724535e-10	-2.340745e+01	-4.435484e+01
1.080000e-06	-3.338608e-06	-6.715597e-10	-2.314821e+01	-4.419756e+01
1.090000e-06	-3.300991e-06	-6.654075e-10	-2.288740e+01	-4.403671e+01
1.100000e-06	-3.263143e-06	-6.576379e-10	-2.262498e+01	-4.387197e+01
1.110000e-06	-3.225136e-06	-6.552211e-10	-2.236146e+01	-4.370305e+01
1.120000e-06	-3.186893e-06	-6.508875e-10	-2.209630e+01	-4.352965e+01
1.130000e-06	-3.148374e-06	-6.475964e-10	-2.182923e+01	-4.335145e+01
1.140000e-06	-3.109654e-06	-6.469474e-10	-2.156077e+01	-4.316820e+01
1.150000e-06	-3.070766e-06	-6.461017e-10	-2.129113e+01	-4.297960e+01
1.160000e-06	-3.031636e-06	-6.421405e-10	-2.101983e+01	-4.278539e+01
1.170000e-06	-2.992300e-06	-6.401073e-10	-2.074709e+01	-4.258534e+01
1.180000e-06	-2.952803e-06	-6.357663e-10	-2.047324e+01	-4.237919e+01
1.190000e-06	-2.913156e-06	-6.294553e-10	-2.019835e+01	-4.216674e+01
1.200000e-06	-2.873427e-06	-6.264007e-10	-1.992289e+01	-4.194778e+01
1.210000e-06	-2.833599e-06	-6.254320e-10	-1.964674e+01	-4.172212e+01
1.220000e-06	-2.793587e-06	-6.206553e-10	-1.936931e+01	-4.148961e+01
1.230000e-06	-2.753390e-06	-6.161116e-10	-1.909061e+01	-4.125008e+01
1.240000e-06	-2.712996e-06	-6.115630e-10	-1.881054e+01	-4.100342e+01
1.250000e-06	-2.672294e-06	-6.059939e-10	-1.852833e+01	-4.074951e+01
1.260000e-06	-2.631322e-06	-6.018239e-10	-1.824425e+01	-4.048825e+01
1.270000e-06	-2.590088e-06	-6.000457e-10	-1.795836e+01	-4.021958e+01
1.280000e-06	-2.548509e-06	-5.975105e-10	-1.767007e+01	-3.994343e+01
1.290000e-06	-2.506621e-06	-5.911704e-10	-1.737964e+01	-3.965978e+01
1.300000e-06	-2.464461e-06	-5.844737e-10	-1.708732e+01	-3.936859e+01
1.310000e-06	-2.422001e-06	-5.781232e-10	-1.679293e+01	-3.906986e+01
1.320000e-06	-2.379291e-06	-5.737866e-10	-1.649680e+01	-3.876359e+01
1.330000e-06	-2.336414e-06	-5.725116e-10	-1.619951e+01	-3.844981e+01
1.340000e-06	-2.293263e-06	-5.732875e-10	-1.590032e+01	-3.812854e+01
1.350000e-06	-2.249877e-06	-5.711719e-10	-1.559951e+01	-3.779981e+01
1.360000e-06	-2.206389e-06	-5.659744e-10	-1.529798e+01	-3.746368e+01
1.370000e-06	-2.162804e-06	-5.591296e-10	-1.499579e+01	-3.712018e+01
1.380000e-06	-2.119121e-06	-5.521680e-10	-1.469291e+01	-3.676938e+01
1.390000e-06	-2.075360e-06	-5.442144e-10	-1.438949e+01	-3.641130e+01
1.400000e-06	-2.031548e-06	-5.391423e-10	-1.408572e+01	-3.604601e+01
1.410000e-06	-1.987664e-06	-5.357575e-10	-1.378146e+01	-3.567355e+01
1.420000e-06	-1.943696e-06	-5.338926e-10	-1.347660e+01	-3.529394e+01
1.430000e-06	-1.899617e-06	-5.331997e-10	-1.317098e+01	-3.490721e+01
1.440000e-06	-1.855425e-06	-5.316701e-10	-1.286458e+01	-3.451337e+01
1.450000e-06	-1.811161e-06	-5.250686e-10	-1.255767e+01	-3.411242e+01
1.460000e-06	-1.766788e-06	-5.152472e-10	-1.225001e+01	-3.370433e+01
1.470000e-06	-1.722292e-06	-5.047938e-10	-1.194150e+01	-3.328906e+01
1.480000e-06	-1.677671e-06	-4.959207e-10	-1.163212e+01	-3.286656e+01
1.490000e-06	-1.632845e-06	-4.892751e-10	-1.132132e+01	-3.243673e+01
1.500000e-06	-1.587822e-06	-4.840965e-10	-1.100915e+01	-3.199948e+01
1.510000e-06	-1.542622e-06	-4.779935e-10	-1.069576e+01	-3.155466e+01
1.520000e-06	-1.497361e-06	-4.691003e-10	-1.038194e+01	-3.110212e+01
1.530000e-06	-1.452072e-06	-4.581144e-10	-1.006793e+01	-3.064167e+01
1.540000e-06	-1.406651e-06	-4.470290e-10	-9.753007e+00	-3.017309e+01
1.550000e-06	-1.361098e-06	-4.368766e-10	-9.437162e+00	-2.969615e+01
1.560000e-06	-1.315436e-06	-4.272627e-10	-9.120569e+00	-2.921057e+01
1.570000e-06	-1.269719e-06	-4.193863e-10	-8.803586e+00	-2.871606e+01
1.580000e-06	-1.223939e-06	-4.124302e-10	-8.486169e+00	-2.821230e+01
1.590000e-06	-1.178053e-06	-4.056617e-10	-8.168022e+00	-2.769895e+01
1.600000e-06	-1.132055e-06	-3.973176e-10	-7.849097e+00	-2.717564e+01
1.610000e-06	-1.085974e-06	-3.881701e-10	-7.529596e+00	-2.664197e+01
1.620000e-06	-1.039827e-06	-3.765954e-10	-7.209631e+00	-2.609756e+01
1.630000e-06	-9.935631e-07	-3.653517e-10	-6.888862e+00	-2.554198e+01
1.640000e-06	-9.472238e-07	-3.548392e-10	-6.567570e+00	-2.497480e+01
1.650000e-06	-9.008673e-07	-3.439845e-10	-6.246157e+00	-2.439559e+01
1.660000e-06	-8.544957e-07	-3.345670e-10	-5.924639e+00	-2.380390e+01
1.670000e-06	-8.081507e-07	-3.247069e-10	-5.603307e+00	-2.319930e+01
1.680000e-06	-7.616723e-07	-3.153103e-10	-5.281050e+00	-2.258134e+01
1.690000e-06	-7.150146e-07	-3.088382e-10	-4.957549e+00	-2.194960e+01
1.700000e-06	-6.682896e-07	-3.024628e-10	-4.633581e+00	-2.130366e+01
1.710000e-06	-6.215349e-07	-2.915970e-10	-4.309408e+00	-2.064312e+01
1.720000e-06	-5.748478e-07	-2.776563e-10	-3.985703e+00	-1.996762e+01
1.730000e-06	-5.281325e-07	-2.649016e-10	-3.661803e+00	-1.927680e+01
1.740000e-06	-4.813062e-07	-2.552462e-10	-3.337133e+00	-1.857036e+01
1.750000e-06	-4.345318e-07	-2.481060e-10	-3.012823e+00	-1.784801e+01
1.760000e-06	-3.877735e-07	-2.397810e-10	-2.688625e+00	-1.710952e+01
1.770000e-06	-3.410172e-07	-2.295439e-10	-2.364440e+00	-1.635470e+01
1.780000e-06	-2.942829e-07	-2.174798e-10	-2.040408e+00	-1.558343e+01
1.790000e-06	-2.474040e-07	-2.027168e-10	-1.715374e+00	-1.479561e+01
1.800000e-06	-2.003627e-07	-1.858287e-10	-1.389213e+00	-1.399123e+01
1.810000e-06	-1.533134e-07	-1.711059e-10	-1.062997e+00	-1.317033e+01
1.820000e-06	-1.062634e-07	-1.596958e-10	-7.367763e-01	-1.233301e+01
1.830000e-06	-5.924672e-08	-1.505284e-10	-4.107867e-01	-1.147944e+01
1.840000e-06	-1.228072e-08	-1.407536e-10	-8.514831e-02	-1.060988e+01
1.850000e-06	3.465399e-08	-1.295491e-10	2.402732e-01	-9.724645e+00
1.860000e-06	8.155871e-08	-1.170753e-10	5.654867e-01	-8.824121e+00
1.870000e-06	1.285043e-07	-1.023575e-10	8.909840e-01	-7.908778e+00
1.880000e-06	1.754538e-07	-8.715138e-11	1.216508e+00	-6.979159e+00
1.890000e-06	2.223783e-07	-7.200122e-11	1.541858e+00	-6.035878e+00
1.900000e-06	2.692719e-07	-6.026513e-11	1.866995e+00	-5.079626e+00
1.910000e-06	3.161631e-07	-5.128774e-11	2.192115e+00	-4.111166e+00
1.920000e-06	3.630679e-07	-4.108750e-11	2.517328e+00	-3.131329e+00
1.930000e-06	4.099669e-07	-2.898395e-11	2.842503e+00	-2.141017e+00
1.940000e-06	4.568766e-07	-1.627379e-11	3.167750e+00	-1.141192e+00
1.950000e-06	5.037207e-07	-3.923217e-12	3.492544e+00	-1.328815e-01
1.960000e-06	5.505029e-07	9.581777e-12	3.816908e+00	8.828346e-01
1.970000e-06	5.972501e-07	2.494366e-11	4.141029e+00	1.904823e+00
1.980000e-06	6.438591e-07	4.119573e-11	4.464192e+00	2.931904e+00
1.990000e-06	6.903274e-07	5.561021e-11	4.786380e+00	3.962857e+00
2.000000e-06	7.367699e-07	6.762537e-11	5.108388e+00	4.996427e+00
2.010000e-06	7.832032e-07	8.106724e-11	5.430334e+00	6.031332e+00
2.020000e-06	8.295859e-07	9.537920e-11	5.751928e+00	7.066265e+00
2.030000e-06	8.759075e-07	1.112550e-10	6.073098e+00	8.099908e+00
2.040000e-06	9.221447e-07	1.270168e-10	6.393684e+00	9.130933e+00
2.050000e-06	9.683213e-07	1.404056e-10	6.713849e+00	1.015801e+01
2.060000e-06	1.014435e-06	1.513801e-10	7.033578e+00	1.117982e+01
2.070000e-06	1.060468e-06	1.626009e-10	7.352749e+00	1.219506e+01
2.080000e-06	1.106453e-06	1.761056e-10	7.671585e+00	1.320244e+01
2.090000e-06	1.152399e-06	1.911991e-10	7.990150e+00	1.420071e+01
2.100000e-06	1.198222e-06	2.085421e-10	8.307864e+00	1.518864e+01
2.110000e-06	1.243868e-06	2.256746e-10	8.624353e+00	1.616506e+01
2.120000e-06	1.289480e-06	2.401719e-10	8.940602e+00	1.712884e+01
2.130000e-06	1.335046e-06	2.515068e-10	9.256531e+00	1.807891e+01
2.140000e-06	1.380479e-06	2.603506e-10	9.571544e+00	1.901424e+01
2.150000e-06	1.425854e-06	2.677858e-10	9.886148e+00	1.993391e+01
2.160000e-06	1.471149e-06	2.772611e-10	1.020020e+01	2.083703e+01
2.170000e-06	1.516325e-06	2.915631e-10	1.051343e+01	2.172281e+01
2.180000e-06	1.561344e-06	3.080670e-10	1.082557e+01	2.259052e+01
2.190000e-06	1.606209e-06	3.241376e-10	1.113664e+01	2.343953e+01
2.200000e-06	1.651013e-06	3.388717e-10	1.144729e+01	2.426929e+01
2.210000e-06	1.695748e-06	3.487943e-10	1.175746e+01	2.507934e+01
2.220000e-06	1.740367e-06	3.568978e-10	1.206682e+01	2.586929e+01
2.230000e-06	1.784838e-06	3.637445e-10	1.237516e+01	2.663886e+01
2.240000e-06	1.829204e-06	3.713314e-10	1.268277e+01	2.738786e+01
2.250000e-06	1.873490e-06	3.800306e-10	1.298983e+01	2.811618e+01
2.260000e-06	1.917669e-06	3.910540e-10	1.329614e+01	2.882378e+01
2.270000e-06	1.961719e-06	4.038835e-10	1.360156e+01	2.951074e+01
2.280000e-06	2.005622e-06	4.150139e-10	1.390597e+01	3.017720e+01
2.290000e-06	2.049424e-06	4.255350e-10	1.420967e+01	3.082338e+01
2.300000e-06	2.093101e-06	4.344718e-10	1.451250e+01	3.144958e+01
2.310000e-06	2.136714e-06	4.423336e-10	1.481489e+01	3.205618e+01
2.320000e-06	2.180276e-06	4.491710e-10	1.511693e+01	3.264359e+01
2.330000e-06	2.223721e-06	4.553300e-10	1.541815e+01	3.321232e+01
2.340000e-06	2.267015e-06	4.620015e-10	1.571834e+01	3.376293e+01
2.350000e-06	2.310110e-06	4.696271e-10	1.601713e+01	3.429600e+01
2.360000e-06	2.353095e-06	4.785392e-10	1.631517e+01	3.481219e+01
2.370000e-06	2.395954e-06	4.885324e-10	1.661233e+01	3.531216e+01
2.380000e-06	2.438557e-06	4.968834e-10	1.690772e+01	3.579663e+01
2.390000e-06	2.480883e-06	5.046445e-10	1.720118e+01	3.626634e+01
2.400000e-06	2.522791e-06	5.130063e-10	1.749176e+01	3.672201e+01
2.410000e-06	2.564272e-06	5.210357e-10	1.777936e+01	3.716442e+01
2.420000e-06	2.605491e-06	5.291113e-10	1.806515e+01	3.759432e+01
2.430000e-06	2.646489e-06	5.388359e-10	1.834941e+01	3.801247e+01
2.440000e-06	2.687172e-06	5.486797e-10	1.863149e+01	3.841961e+01
2.450000e-06	2.727610e-06	5.575082e-10	1.891186e+01	3.881646e+01
2.460000e-06	2.767937e-06	5.653730e-10	1.919147e+01	3.920374e+01
2.470000e-06	2.808084e-06	5.723290e-10	1.946983e+01	3.958212e+01
2.480000e-06	2.848004e-06	5.760801e-10	1.974662e+01	3.995226e+01
2.490000e-06	2.887778e-06	5.795389e-10	2.002239e+01	4.031475e+01
2.500000e-06	2.927444e-06	5.859134e-10	2.029741e+01	4.067017e+01
2.510000e-06	2.966934e-06	5.923826e-10	2.057121e+01	4.101904e+01
2.520000e-06	3.006342e-06	5.983439e-10	2.084445e+01	4.136184e+01
2.530000e-06	3.045605e-06	6.046092e-10	2.111668e+01	4.169900e+01
2.540000e-06	3.084551e-06	6.094848e-10	2.138671e+01	4.203088e+01
2.550000e-06	3.123234e-06	6.123096e-10	2.165492e+01	4.235782e+01
2.560000e-06	3.161707e-06	6.163040e-10	2.192167e+01	4.268008e+01
2.570000e-06	3.199998e-06	6.217824e-10	2.218716e+01	4.299787e+01
2.580000e-06	3.238120e-06	6.264874e-10	2.245148e+01	4.331135e+01
2.590000e-06	3.275972e-06	6.309030e-10	2.271393e+01	4.362064e+01
2.600000e-06	3.313611e-06	6.352222e-10	2.297490e+01	4.392579e+01
2.610000e-06	3.351115e-06	6.392204e-10	2.323493e+01	4.422681e+01
2.620000e-06	3.388349e-06	6.434853e-10	2.349310e+01	4.452366e+01
2.630000e-06	3.425253e-06	6.475005e-10	2.374897e+01	4.481627e+01
2.640000e-06	3.461986e-06	6.520026e-10	2.400366e+01	4.510451e+01
2.650000e-06	3.498584e-06	6.568945e-10	2.425741e+01	4.538823e+01
2.660000e-06	3.534940e-06	6.613613e-10	2.450948e+01	4.566724e+01
2.670000e-06	3.571042e-06	6.632219e-10	2.475979e+01	4.594132e+01
2.680000e-06	3.606912e-06	6.633471e-10	2.500850e+01	4.621025e+01
2.690000e-06	3.642563e-06	6.637981e-10	2.525569e+01	4.647375e+01
2.700000e-06	3.678087e-06	6.647442e-10	2.550199e+01	4.673157e+01
2.710000e-06	3.713500e-06	6.681836e-10	2.574753e+01	4.698343e+01
2.720000e-06	3.748651e-06	6.765273e-10	2.599124e+01	4.722904e+01
2.730000e-06	3.783497e-06	6.873961e-10	2.623285e+01	4.746814e+01
2.740000e-06	3.817988e-06	6.960499e-10	2.647199e+01	4.770043e+01
2.750000e-06	3.851985e-06	6.994729e-10	2.670771e+01	4.792567e+01
2.760000e-06	3.885469e-06	6.999049e-10	2.693987e+01	4.814361e+01
2.770000e-06	3.918500e-06	6.986954e-10	2.716889e+01	4.835401e+01
2.780000e-06	3.951206e-06	6.987291e-10	2.739566e+01	4.855669e+01
2.790000e-06	3.983698e-06	7.034816e-10	2.762094e+01	4.875145e+01
2.800000e-06	4.015894e-06	7.117291e-10	2.784417e+01	4.893815e+01
2.810000e-06	4.047749e-06	7.207486e-10	2.806504e+01	4.911668e+01
2.820000e-06	4.079398e-06	7.273631e-10	2.828448e+01	4.928695e+01
2.830000e-06	4.110939e-06	7.297039e-10	2.850317e+01	4.944893e+01
2.840000e-06	4.142276e-06	7.269485e-10	2.872044e+01	4.960262e+01
2.850000e-06	4.173295e-06	7.221756e-10	2.893551e+01	4.974804e+01
2.860000e-06	4.203986e-06	7.189127e-10	2.914831e+01	4.988527e+01
2.870000e-06	4.234419e-06	7.180068e-10	2.935932e+01	5.001442e+01
2.880000e-06	4.264544e-06	7.217932e-10	2.956818e+01	5.013566e+01
2.890000e-06	4.294344e-06	7.293090e-10	2.977480e+01	5.024917e+01
2.900000e-06	4.323893e-06	7.375188e-10	2.997968e+01	5.035519e+01
