# Temperatura_=_-0.34
# Concentracion g/m^3_=_1620.0
# C_Vs_to_Am_M_A/Vsm_=_65563218390.804596
# pendiente_HvsI_1/m_=_3716.3
# ordenada_HvsI_A/m_=_1297.0
# frecuencia_Hz_=_135094.8836131877

Tiempo_(s)	Campo_(V.s)	Magnetizacion_(V.s)	Campo_(kA/m)	Magnetizacion_(A/m)
0.000000e+00	-5.507425e-06	-1.366951e-09	-3.838196e+01	-8.803597e+01
1.000000e-08	-5.507485e-06	-1.368540e-09	-3.838238e+01	-8.804231e+01
2.000000e-08	-5.507398e-06	-1.371728e-09	-3.838177e+01	-8.804852e+01
3.000000e-08	-5.507005e-06	-1.371116e-09	-3.837903e+01	-8.805453e+01
4.000000e-08	-5.506077e-06	-1.368517e-09	-3.837256e+01	-8.806023e+01
5.000000e-08	-5.504622e-06	-1.368387e-09	-3.836243e+01	-8.806550e+01
6.000000e-08	-5.502663e-06	-1.370121e-09	-3.834877e+01	-8.807022e+01
7.000000e-08	-5.500103e-06	-1.369542e-09	-3.833093e+01	-8.807423e+01
8.000000e-08	-5.496976e-06	-1.332427e-09	-3.830914e+01	-8.807735e+01
9.000000e-08	-5.493336e-06	-1.313421e-09	-3.828377e+01	-8.807942e+01
1.000000e-07	-5.489296e-06	-1.402866e-09	-3.825562e+01	-8.808024e+01
1.100000e-07	-5.484959e-06	-1.474477e-09	-3.822539e+01	-8.807960e+01
1.200000e-07	-5.480262e-06	-1.293476e-09	-3.819265e+01	-8.807730e+01
1.300000e-07	-5.475394e-06	-1.251722e-09	-3.815873e+01	-8.807312e+01
1.400000e-07	-5.470355e-06	-1.329588e-09	-3.812361e+01	-8.806683e+01
1.500000e-07	-5.464848e-06	-1.463753e-09	-3.808524e+01	-8.805822e+01
1.600000e-07	-5.458831e-06	-1.316630e-09	-3.804330e+01	-8.804706e+01
1.700000e-07	-5.452490e-06	-1.242924e-09	-3.799911e+01	-8.803311e+01
1.800000e-07	-5.445743e-06	-1.366723e-09	-3.795209e+01	-8.801617e+01
1.900000e-07	-5.438457e-06	-1.447641e-09	-3.790131e+01	-8.799600e+01
2.000000e-07	-5.430830e-06	-1.364555e-09	-3.784816e+01	-8.797240e+01
2.100000e-07	-5.423014e-06	-1.268560e-09	-3.779369e+01	-8.794516e+01
2.200000e-07	-5.414983e-06	-1.357226e-09	-3.773772e+01	-8.791409e+01
2.300000e-07	-5.406632e-06	-1.413462e-09	-3.767952e+01	-8.787898e+01
2.400000e-07	-5.397936e-06	-1.406097e-09	-3.761892e+01	-8.783967e+01
2.500000e-07	-5.388724e-06	-1.324022e-09	-3.755472e+01	-8.779599e+01
2.600000e-07	-5.378685e-06	-1.387393e-09	-3.748476e+01	-8.774778e+01
2.700000e-07	-5.367940e-06	-1.390833e-09	-3.740987e+01	-8.769491e+01
2.800000e-07	-5.356872e-06	-1.372398e-09	-3.733273e+01	-8.763725e+01
2.900000e-07	-5.345367e-06	-1.304284e-09	-3.725256e+01	-8.757468e+01
3.000000e-07	-5.333339e-06	-1.369173e-09	-3.716873e+01	-8.750710e+01
3.100000e-07	-5.320952e-06	-1.381964e-09	-3.708240e+01	-8.743444e+01
3.200000e-07	-5.308260e-06	-1.367570e-09	-3.699395e+01	-8.735662e+01
3.300000e-07	-5.295061e-06	-1.301168e-09	-3.690197e+01	-8.727358e+01
3.400000e-07	-5.281436e-06	-1.348700e-09	-3.680701e+01	-8.718530e+01
3.500000e-07	-5.267511e-06	-1.375337e-09	-3.670997e+01	-8.709173e+01
3.600000e-07	-5.253106e-06	-1.333155e-09	-3.660957e+01	-8.699287e+01
3.700000e-07	-5.238192e-06	-1.286882e-09	-3.650564e+01	-8.688872e+01
3.800000e-07	-5.222957e-06	-1.374220e-09	-3.639947e+01	-8.677929e+01
3.900000e-07	-5.207261e-06	-1.373285e-09	-3.629008e+01	-8.666460e+01
4.000000e-07	-5.190741e-06	-1.268722e-09	-3.617495e+01	-8.654468e+01
4.100000e-07	-5.173794e-06	-1.316123e-09	-3.605684e+01	-8.641959e+01
4.200000e-07	-5.156768e-06	-1.404104e-09	-3.593819e+01	-8.628938e+01
4.300000e-07	-5.139385e-06	-1.298735e-09	-3.581704e+01	-8.615410e+01
4.400000e-07	-5.121607e-06	-1.230817e-09	-3.569314e+01	-8.601383e+01
4.500000e-07	-5.103572e-06	-1.393106e-09	-3.556745e+01	-8.586864e+01
4.600000e-07	-5.085180e-06	-1.362901e-09	-3.543928e+01	-8.571862e+01
4.700000e-07	-5.066295e-06	-1.219275e-09	-3.530767e+01	-8.556385e+01
4.800000e-07	-5.047004e-06	-1.299426e-09	-3.517323e+01	-8.540443e+01
4.900000e-07	-5.027478e-06	-1.401103e-09	-3.503715e+01	-8.524046e+01
5.000000e-07	-5.007669e-06	-1.238476e-09	-3.489909e+01	-8.507202e+01
5.100000e-07	-4.987605e-06	-1.252110e-09	-3.475927e+01	-8.489923e+01
5.200000e-07	-4.967343e-06	-1.375723e-09	-3.461806e+01	-8.472217e+01
5.300000e-07	-4.946703e-06	-1.280718e-09	-3.447421e+01	-8.454097e+01
5.400000e-07	-4.925694e-06	-1.192437e-09	-3.432780e+01	-8.435571e+01
5.500000e-07	-4.904460e-06	-1.357866e-09	-3.417982e+01	-8.416650e+01
5.600000e-07	-4.882823e-06	-1.323887e-09	-3.402903e+01	-8.397345e+01
5.700000e-07	-4.860735e-06	-1.190334e-09	-3.387509e+01	-8.377664e+01
5.800000e-07	-4.838437e-06	-1.278068e-09	-3.371970e+01	-8.357620e+01
5.900000e-07	-4.815857e-06	-1.347202e-09	-3.356233e+01	-8.337220e+01
6.000000e-07	-4.792790e-06	-1.206433e-09	-3.340158e+01	-8.316475e+01
6.100000e-07	-4.769426e-06	-1.231994e-09	-3.323875e+01	-8.295395e+01
6.200000e-07	-4.745818e-06	-1.316936e-09	-3.307422e+01	-8.273988e+01
6.300000e-07	-4.721921e-06	-1.233742e-09	-3.290768e+01	-8.252263e+01
6.400000e-07	-4.697827e-06	-1.201057e-09	-3.273977e+01	-8.230229e+01
6.500000e-07	-4.673536e-06	-1.290975e-09	-3.257048e+01	-8.207894e+01
6.600000e-07	-4.648831e-06	-1.247677e-09	-3.239830e+01	-8.185267e+01
6.700000e-07	-4.623688e-06	-1.193982e-09	-3.222308e+01	-8.162354e+01
6.800000e-07	-4.598082e-06	-1.256066e-09	-3.204463e+01	-8.139165e+01
6.900000e-07	-4.571756e-06	-1.247861e-09	-3.186116e+01	-8.115705e+01
7.000000e-07	-4.544817e-06	-1.189624e-09	-3.167342e+01	-8.091981e+01
7.100000e-07	-4.517548e-06	-1.223800e-09	-3.148338e+01	-8.068001e+01
7.200000e-07	-4.490076e-06	-1.239964e-09	-3.129192e+01	-8.043769e+01
7.300000e-07	-4.462318e-06	-1.185995e-09	-3.109847e+01	-8.019292e+01
7.400000e-07	-4.434313e-06	-1.204647e-09	-3.090330e+01	-7.994574e+01
7.500000e-07	-4.406234e-06	-1.227760e-09	-3.070762e+01	-7.969621e+01
7.600000e-07	-4.377966e-06	-1.196441e-09	-3.051061e+01	-7.944437e+01
7.700000e-07	-4.349289e-06	-1.190143e-09	-3.031076e+01	-7.919025e+01
7.800000e-07	-4.320191e-06	-1.218387e-09	-3.010797e+01	-7.893388e+01
7.900000e-07	-4.290817e-06	-1.181711e-09	-2.990326e+01	-7.867530e+01
8.000000e-07	-4.261195e-06	-1.166703e-09	-2.969682e+01	-7.841451e+01
8.100000e-07	-4.231244e-06	-1.185083e-09	-2.948809e+01	-7.815154e+01
8.200000e-07	-4.200985e-06	-1.176059e-09	-2.927721e+01	-7.788638e+01
8.300000e-07	-4.170465e-06	-1.147117e-09	-2.906451e+01	-7.761904e+01
8.400000e-07	-4.139702e-06	-1.172651e-09	-2.885012e+01	-7.734949e+01
8.500000e-07	-4.108697e-06	-1.170603e-09	-2.863404e+01	-7.707773e+01
8.600000e-07	-4.077517e-06	-1.141382e-09	-2.841674e+01	-7.680373e+01
8.700000e-07	-4.046112e-06	-1.139394e-09	-2.819788e+01	-7.652744e+01
8.800000e-07	-4.014421e-06	-1.153629e-09	-2.797702e+01	-7.624881e+01
8.900000e-07	-3.982517e-06	-1.123639e-09	-2.775468e+01	-7.596780e+01
9.000000e-07	-3.950393e-06	-1.116747e-09	-2.753080e+01	-7.568432e+01
9.100000e-07	-3.918010e-06	-1.128493e-09	-2.730512e+01	-7.539831e+01
9.200000e-07	-3.885337e-06	-1.112703e-09	-2.707742e+01	-7.510967e+01
9.300000e-07	-3.852341e-06	-1.092529e-09	-2.684746e+01	-7.481830e+01
9.400000e-07	-3.818925e-06	-1.108437e-09	-2.661458e+01	-7.452410e+01
9.500000e-07	-3.784956e-06	-1.106512e-09	-2.637785e+01	-7.422693e+01
9.600000e-07	-3.750528e-06	-1.085308e-09	-2.613791e+01	-7.392667e+01
9.700000e-07	-3.715755e-06	-1.090003e-09	-2.589558e+01	-7.362317e+01
9.800000e-07	-3.680647e-06	-1.092984e-09	-2.565091e+01	-7.331629e+01
9.900000e-07	-3.645242e-06	-1.070888e-09	-2.540417e+01	-7.300586e+01
1.000000e-06	-3.609597e-06	-1.061746e-09	-2.515575e+01	-7.269171e+01
1.010000e-06	-3.573847e-06	-1.068136e-09	-2.490661e+01	-7.237366e+01
1.020000e-06	-3.537971e-06	-1.053698e-09	-2.465658e+01	-7.205152e+01
1.030000e-06	-3.501906e-06	-1.044659e-09	-2.440524e+01	-7.172511e+01
1.040000e-06	-3.465727e-06	-1.050665e-09	-2.415310e+01	-7.139422e+01
1.050000e-06	-3.429325e-06	-1.047490e-09	-2.389941e+01	-7.105866e+01
1.060000e-06	-3.392614e-06	-1.029346e-09	-2.364357e+01	-7.071821e+01
1.070000e-06	-3.355614e-06	-1.029948e-09	-2.338571e+01	-7.037267e+01
1.080000e-06	-3.318284e-06	-1.025791e-09	-2.312555e+01	-7.002182e+01
1.090000e-06	-3.280701e-06	-1.013119e-09	-2.286363e+01	-6.966545e+01
1.100000e-06	-3.242967e-06	-1.003720e-09	-2.260066e+01	-6.930336e+01
1.110000e-06	-3.205034e-06	-1.002107e-09	-2.233630e+01	-6.893533e+01
1.120000e-06	-3.166844e-06	-9.854016e-10	-2.207014e+01	-6.856117e+01
1.130000e-06	-3.128442e-06	-9.777489e-10	-2.180252e+01	-6.818066e+01
1.140000e-06	-3.089852e-06	-9.763118e-10	-2.153358e+01	-6.779362e+01
1.150000e-06	-3.050991e-06	-9.710539e-10	-2.126275e+01	-6.739985e+01
1.160000e-06	-3.011901e-06	-9.615470e-10	-2.099033e+01	-6.699918e+01
1.170000e-06	-2.972672e-06	-9.618936e-10	-2.071694e+01	-6.659143e+01
1.180000e-06	-2.933309e-06	-9.548959e-10	-2.044261e+01	-6.617644e+01
1.190000e-06	-2.893755e-06	-9.433564e-10	-2.016695e+01	-6.575406e+01
1.200000e-06	-2.854017e-06	-9.360823e-10	-1.989002e+01	-6.532414e+01
1.210000e-06	-2.814123e-06	-9.316434e-10	-1.961199e+01	-6.488654e+01
1.220000e-06	-2.774086e-06	-9.211628e-10	-1.933296e+01	-6.444116e+01
1.230000e-06	-2.733944e-06	-9.175462e-10	-1.905321e+01	-6.398787e+01
1.240000e-06	-2.693713e-06	-9.179502e-10	-1.877284e+01	-6.352658e+01
1.250000e-06	-2.653360e-06	-9.120191e-10	-1.849161e+01	-6.305720e+01
1.260000e-06	-2.612792e-06	-9.065551e-10	-1.820889e+01	-6.257965e+01
1.270000e-06	-2.572065e-06	-9.032298e-10	-1.792505e+01	-6.209386e+01
1.280000e-06	-2.531020e-06	-8.957635e-10	-1.763901e+01	-6.159978e+01
1.290000e-06	-2.489611e-06	-8.847624e-10	-1.735042e+01	-6.109735e+01
1.300000e-06	-2.448084e-06	-8.747189e-10	-1.706102e+01	-6.058652e+01
1.310000e-06	-2.406325e-06	-8.649943e-10	-1.676999e+01	-6.006727e+01
1.320000e-06	-2.364155e-06	-8.564194e-10	-1.647611e+01	-5.953956e+01
1.330000e-06	-2.321704e-06	-8.506555e-10	-1.618025e+01	-5.900335e+01
1.340000e-06	-2.278991e-06	-8.477188e-10	-1.588258e+01	-5.845862e+01
1.350000e-06	-2.235937e-06	-8.421675e-10	-1.558253e+01	-5.790533e+01
1.360000e-06	-2.192642e-06	-8.347780e-10	-1.528081e+01	-5.734346e+01
1.370000e-06	-2.149184e-06	-8.226544e-10	-1.497794e+01	-5.677296e+01
1.380000e-06	-2.105627e-06	-8.123740e-10	-1.467439e+01	-5.619381e+01
1.390000e-06	-2.062021e-06	-8.020893e-10	-1.437049e+01	-5.560593e+01
1.400000e-06	-2.018304e-06	-7.923988e-10	-1.406582e+01	-5.500929e+01
1.410000e-06	-1.974397e-06	-7.797004e-10	-1.375983e+01	-5.440380e+01
1.420000e-06	-1.930343e-06	-7.704707e-10	-1.345281e+01	-5.378937e+01
1.430000e-06	-1.886280e-06	-7.615433e-10	-1.314573e+01	-5.316592e+01
1.440000e-06	-1.842256e-06	-7.520129e-10	-1.283892e+01	-5.253332e+01
1.450000e-06	-1.798148e-06	-7.415648e-10	-1.253152e+01	-5.189143e+01
1.460000e-06	-1.753906e-06	-7.295318e-10	-1.222320e+01	-5.124010e+01
1.470000e-06	-1.709556e-06	-7.155761e-10	-1.191412e+01	-5.057916e+01
1.480000e-06	-1.665101e-06	-7.048732e-10	-1.160430e+01	-4.990840e+01
1.490000e-06	-1.620538e-06	-6.953061e-10	-1.129374e+01	-4.922760e+01
1.500000e-06	-1.575793e-06	-6.858652e-10	-1.098190e+01	-4.853653e+01
1.510000e-06	-1.530904e-06	-6.712243e-10	-1.066907e+01	-4.783491e+01
1.520000e-06	-1.485903e-06	-6.570683e-10	-1.035545e+01	-4.712245e+01
1.530000e-06	-1.440740e-06	-6.426671e-10	-1.004070e+01	-4.639884e+01
1.540000e-06	-1.395462e-06	-6.314752e-10	-9.725154e+00	-4.566375e+01
1.550000e-06	-1.350126e-06	-6.215614e-10	-9.409206e+00	-4.491682e+01
1.560000e-06	-1.304699e-06	-6.141051e-10	-9.092617e+00	-4.415767e+01
1.570000e-06	-1.259226e-06	-6.048959e-10	-8.775713e+00	-4.338592e+01
1.580000e-06	-1.213721e-06	-5.921785e-10	-8.458579e+00	-4.260115e+01
1.590000e-06	-1.168060e-06	-5.767634e-10	-8.140362e+00	-4.180293e+01
1.600000e-06	-1.122234e-06	-5.584102e-10	-7.820998e+00	-4.099084e+01
1.610000e-06	-1.076376e-06	-5.411293e-10	-7.501404e+00	-4.016443e+01
1.620000e-06	-1.030486e-06	-5.253020e-10	-7.181590e+00	-3.932326e+01
1.630000e-06	-9.844472e-07	-5.146338e-10	-6.860740e+00	-3.846686e+01
1.640000e-06	-9.383592e-07	-5.053088e-10	-6.539547e+00	-3.759480e+01
1.650000e-06	-8.922106e-07	-4.926084e-10	-6.217931e+00	-3.670663e+01
1.660000e-06	-8.459904e-07	-4.786006e-10	-5.895817e+00	-3.580191e+01
1.670000e-06	-7.997979e-07	-4.644444e-10	-5.573895e+00	-3.488023e+01
1.680000e-06	-7.535469e-07	-4.480244e-10	-5.251566e+00	-3.394117e+01
1.690000e-06	-7.072403e-07	-4.330540e-10	-4.928849e+00	-3.298437e+01
1.700000e-06	-6.609324e-07	-4.165175e-10	-4.606123e+00	-3.200946e+01
1.710000e-06	-6.146049e-07	-4.000204e-10	-4.283261e+00	-3.101612e+01
1.720000e-06	-5.681818e-07	-3.822715e-10	-3.959733e+00	-3.000407e+01
1.730000e-06	-5.216532e-07	-3.668988e-10	-3.635469e+00	-2.897304e+01
1.740000e-06	-4.751451e-07	-3.525600e-10	-3.311348e+00	-2.792283e+01
1.750000e-06	-4.286129e-07	-3.392566e-10	-2.987059e+00	-2.685328e+01
1.760000e-06	-3.819843e-07	-3.240275e-10	-2.662098e+00	-2.576428e+01
1.770000e-06	-3.353410e-07	-3.075093e-10	-2.337035e+00	-2.465578e+01
1.780000e-06	-2.886621e-07	-2.930273e-10	-2.011724e+00	-2.352777e+01
1.790000e-06	-2.419099e-07	-2.773243e-10	-1.685901e+00	-2.238032e+01
1.800000e-06	-1.951585e-07	-2.569486e-10	-1.360085e+00	-2.121356e+01
1.810000e-06	-1.484547e-07	-2.355843e-10	-1.034600e+00	-2.002766e+01
1.820000e-06	-1.017273e-07	-2.166173e-10	-7.089511e-01	-1.882289e+01
1.830000e-06	-5.490727e-08	-2.014768e-10	-3.826559e-01	-1.759958e+01
1.840000e-06	-8.115568e-09	-1.865986e-10	-5.655845e-02	-1.635811e+01
1.850000e-06	3.861787e-08	-1.724733e-10	2.691330e-01	-1.509895e+01
1.860000e-06	8.536662e-08	-1.584750e-10	5.949310e-01	-1.382264e+01
1.870000e-06	1.320750e-07	-1.418497e-10	9.204475e-01	-1.252977e+01
1.880000e-06	1.787171e-07	-1.233741e-10	1.245503e+00	-1.122102e+01
1.890000e-06	2.253446e-07	-1.036427e-10	1.570456e+00	-9.897125e+00
1.900000e-06	2.720294e-07	-8.364815e-11	1.895808e+00	-8.558887e+00
1.910000e-06	3.186738e-07	-6.431368e-11	2.220879e+00	-7.207172e+00
1.920000e-06	3.653184e-07	-4.682814e-11	2.545951e+00	-5.842903e+00
1.930000e-06	4.119821e-07	-3.165113e-11	2.871157e+00	-4.467064e+00
1.940000e-06	4.585125e-07	-1.532529e-11	3.195433e+00	-3.080686e+00
1.950000e-06	5.049422e-07	2.595344e-12	3.519007e+00	-1.684853e+00
1.960000e-06	5.513297e-07	1.924363e-11	3.842288e+00	-2.806914e-01
1.970000e-06	5.976987e-07	3.771924e-11	4.165440e+00	1.130633e+00
1.980000e-06	6.440200e-07	5.509949e-11	4.488259e+00	2.547920e+00
1.990000e-06	6.902724e-07	7.543179e-11	4.810598e+00	3.969941e+00
2.000000e-06	7.365058e-07	9.796537e-11	5.132805e+00	5.395444e+00
2.010000e-06	7.827369e-07	1.227946e-10	5.454995e+00	6.823159e+00
2.020000e-06	8.288932e-07	1.459478e-10	5.776664e+00	8.251805e+00
2.030000e-06	8.749273e-07	1.678923e-10	6.097482e+00	9.680095e+00
2.040000e-06	9.209487e-07	1.871506e-10	6.418211e+00	1.110674e+01
2.050000e-06	9.669712e-07	2.007780e-10	6.738948e+00	1.253047e+01
2.060000e-06	1.012949e-06	2.137364e-10	7.059370e+00	1.395001e+01
2.070000e-06	1.058803e-06	2.311839e-10	7.378933e+00	1.536411e+01
2.080000e-06	1.104605e-06	2.523675e-10	7.698136e+00	1.677154e+01
2.090000e-06	1.150357e-06	2.750230e-10	8.016985e+00	1.817112e+01
2.100000e-06	1.195953e-06	2.973258e-10	8.334753e+00	1.956168e+01
2.110000e-06	1.241504e-06	3.188760e-10	8.652201e+00	2.094210e+01
2.120000e-06	1.286928e-06	3.382272e-10	8.968765e+00	2.231131e+01
2.130000e-06	1.332223e-06	3.534874e-10	9.284432e+00	2.366827e+01
2.140000e-06	1.377448e-06	3.681618e-10	9.599612e+00	2.501201e+01
2.150000e-06	1.422581e-06	3.837892e-10	9.914154e+00	2.634162e+01
2.160000e-06	1.467663e-06	4.032189e-10	1.022834e+01	2.765624e+01
2.170000e-06	1.512606e-06	4.236436e-10	1.054155e+01	2.895507e+01
2.180000e-06	1.557441e-06	4.436119e-10	1.085401e+01	3.023737e+01
2.190000e-06	1.602241e-06	4.626393e-10	1.116623e+01	3.150249e+01
2.200000e-06	1.646874e-06	4.814253e-10	1.147728e+01	3.274983e+01
2.210000e-06	1.691323e-06	4.991625e-10	1.178705e+01	3.397884e+01
2.220000e-06	1.735604e-06	5.165335e-10	1.209565e+01	3.518908e+01
2.230000e-06	1.779755e-06	5.347835e-10	1.240334e+01	3.638015e+01
2.240000e-06	1.823846e-06	5.512185e-10	1.271062e+01	3.755172e+01
2.250000e-06	1.867901e-06	5.651625e-10	1.301764e+01	3.870353e+01
2.260000e-06	1.911895e-06	5.805611e-10	1.332424e+01	3.983538e+01
2.270000e-06	1.955802e-06	5.958017e-10	1.363024e+01	4.094715e+01
2.280000e-06	1.999658e-06	6.103415e-10	1.393587e+01	4.203875e+01
2.290000e-06	2.043430e-06	6.232477e-10	1.424093e+01	4.311017e+01
2.300000e-06	2.087167e-06	6.377672e-10	1.454574e+01	4.416145e+01
2.310000e-06	2.130906e-06	6.539692e-10	1.485056e+01	4.519267e+01
2.320000e-06	2.174407e-06	6.699130e-10	1.515372e+01	4.620397e+01
2.330000e-06	2.217639e-06	6.841726e-10	1.545502e+01	4.719553e+01
2.340000e-06	2.260806e-06	6.966184e-10	1.575585e+01	4.816756e+01
2.350000e-06	2.303702e-06	7.083343e-10	1.605480e+01	4.912031e+01
2.360000e-06	2.346257e-06	7.205863e-10	1.635137e+01	5.005408e+01
2.370000e-06	2.388495e-06	7.336451e-10	1.664573e+01	5.096915e+01
2.380000e-06	2.430402e-06	7.475443e-10	1.693778e+01	5.186587e+01
2.390000e-06	2.472027e-06	7.628958e-10	1.722788e+01	5.274457e+01
2.400000e-06	2.513433e-06	7.775835e-10	1.751644e+01	5.360563e+01
2.410000e-06	2.554702e-06	7.912020e-10	1.780405e+01	5.444940e+01
2.420000e-06	2.595639e-06	8.041046e-10	1.808935e+01	5.527627e+01
2.430000e-06	2.636222e-06	8.158893e-10	1.837218e+01	5.608660e+01
2.440000e-06	2.676618e-06	8.290841e-10	1.865370e+01	5.688077e+01
2.450000e-06	2.716824e-06	8.430688e-10	1.893390e+01	5.765915e+01
2.460000e-06	2.756845e-06	8.538801e-10	1.921281e+01	5.842210e+01
2.470000e-06	2.796799e-06	8.621518e-10	1.949125e+01	5.916996e+01
2.480000e-06	2.836660e-06	8.702337e-10	1.976905e+01	5.990307e+01
2.490000e-06	2.876438e-06	8.802471e-10	2.004627e+01	6.062174e+01
2.500000e-06	2.916049e-06	8.923715e-10	2.032232e+01	6.132629e+01
2.510000e-06	2.955414e-06	9.053528e-10	2.059666e+01	6.201698e+01
2.520000e-06	2.994675e-06	9.161534e-10	2.087028e+01	6.269408e+01
2.530000e-06	3.033773e-06	9.258959e-10	2.114276e+01	6.335784e+01
2.540000e-06	3.072544e-06	9.346567e-10	2.141296e+01	6.400847e+01
2.550000e-06	3.110997e-06	9.416753e-10	2.168094e+01	6.464617e+01
2.560000e-06	3.149267e-06	9.474006e-10	2.194765e+01	6.527113e+01
2.570000e-06	3.187373e-06	9.541497e-10	2.221321e+01	6.588350e+01
2.580000e-06	3.225287e-06	9.613685e-10	2.247744e+01	6.648342e+01
2.590000e-06	3.262978e-06	9.691984e-10	2.274011e+01	6.707102e+01
2.600000e-06	3.300461e-06	9.783512e-10	2.300134e+01	6.764641e+01
2.610000e-06	3.337682e-06	9.897368e-10	2.326074e+01	6.820967e+01
2.620000e-06	3.374573e-06	1.001441e-09	2.351784e+01	6.876089e+01
2.630000e-06	3.411347e-06	1.010986e-09	2.377412e+01	6.930014e+01
2.640000e-06	3.447915e-06	1.018153e-09	2.402897e+01	6.982748e+01
2.650000e-06	3.484137e-06	1.023833e-09	2.428140e+01	7.034296e+01
2.660000e-06	3.520174e-06	1.027099e-09	2.453255e+01	7.084664e+01
2.670000e-06	3.556085e-06	1.030505e-09	2.478282e+01	7.133857e+01
2.680000e-06	3.591898e-06	1.034662e-09	2.503240e+01	7.181879e+01
2.690000e-06	3.627602e-06	1.039754e-09	2.528123e+01	7.228737e+01
2.700000e-06	3.663117e-06	1.047820e-09	2.552874e+01	7.274437e+01
2.710000e-06	3.698422e-06	1.056228e-09	2.577478e+01	7.318984e+01
2.720000e-06	3.733441e-06	1.065815e-09	2.601883e+01	7.362388e+01
2.730000e-06	3.768002e-06	1.076577e-09	2.625970e+01	7.404657e+01
2.740000e-06	3.802028e-06	1.085018e-09	2.649683e+01	7.445801e+01
2.750000e-06	3.835472e-06	1.087491e-09	2.672990e+01	7.485832e+01
2.760000e-06	3.868464e-06	1.087086e-09	2.695983e+01	7.524763e+01
2.770000e-06	3.901112e-06	1.088951e-09	2.718736e+01	7.562610e+01
2.780000e-06	3.933459e-06	1.094595e-09	2.741279e+01	7.599390e+01
2.790000e-06	3.965617e-06	1.102594e-09	2.763690e+01	7.635120e+01
2.800000e-06	3.997582e-06	1.113684e-09	2.785967e+01	7.669821e+01
2.810000e-06	4.029366e-06	1.125422e-09	2.808117e+01	7.703516e+01
2.820000e-06	4.061001e-06	1.133139e-09	2.830164e+01	7.736229e+01
2.830000e-06	4.092484e-06	1.138230e-09	2.852105e+01	7.767986e+01
2.840000e-06	4.123736e-06	1.140012e-09	2.873885e+01	7.798814e+01
2.850000e-06	4.154609e-06	1.139290e-09	2.895401e+01	7.828743e+01
2.860000e-06	4.185049e-06	1.141574e-09	2.916615e+01	7.857802e+01
2.870000e-06	4.215233e-06	1.144088e-09	2.937651e+01	7.886024e+01
2.880000e-06	4.245221e-06	1.148137e-09	2.958550e+01	7.913442e+01
2.890000e-06	4.274964e-06	1.155511e-09	2.979278e+01	7.940090e+01
2.900000e-06	4.304424e-06	1.163445e-09	2.999809e+01	7.966001e+01
