# Temperatura_=_14.9
# Concentracion g/m^3_=_1620.0
# C_Vs_to_Am_M_A/Vsm_=_65563218390.804596
# pendiente_HvsI_1/m_=_3716.3
# ordenada_HvsI_A/m_=_1297.0
# frecuencia_Hz_=_135102.49703735128

Tiempo_(s)	Campo_(V.s)	Magnetizacion_(V.s)	Campo_(kA/m)	Magnetizacion_(A/m)
0.000000e+00	-5.513209e-06	-8.543969e-10	-3.837232e+01	-5.568809e+01
1.000000e-08	-5.513310e-06	-8.529478e-10	-3.837302e+01	-5.569836e+01
2.000000e-08	-5.513227e-06	-8.534200e-10	-3.837244e+01	-5.570633e+01
3.000000e-08	-5.512753e-06	-8.552150e-10	-3.836914e+01	-5.571177e+01
4.000000e-08	-5.511770e-06	-8.556961e-10	-3.836230e+01	-5.571444e+01
5.000000e-08	-5.510176e-06	-8.535859e-10	-3.835120e+01	-5.571413e+01
6.000000e-08	-5.507974e-06	-8.405630e-10	-3.833588e+01	-5.571064e+01
7.000000e-08	-5.505257e-06	-8.268760e-10	-3.831697e+01	-5.570377e+01
8.000000e-08	-5.501976e-06	-8.501266e-10	-3.829413e+01	-5.569335e+01
9.000000e-08	-5.498189e-06	-8.962451e-10	-3.826778e+01	-5.567920e+01
1.000000e-07	-5.493967e-06	-8.979582e-10	-3.823839e+01	-5.566119e+01
1.100000e-07	-5.489478e-06	-8.460212e-10	-3.820715e+01	-5.563920e+01
1.200000e-07	-5.484892e-06	-7.713669e-10	-3.817523e+01	-5.561312e+01
1.300000e-07	-5.480082e-06	-8.075290e-10	-3.814175e+01	-5.558289e+01
1.400000e-07	-5.474848e-06	-8.512371e-10	-3.810532e+01	-5.554847e+01
1.500000e-07	-5.469223e-06	-8.399530e-10	-3.806617e+01	-5.550981e+01
1.600000e-07	-5.463254e-06	-8.191212e-10	-3.802463e+01	-5.546694e+01
1.700000e-07	-5.456874e-06	-8.425354e-10	-3.798022e+01	-5.541988e+01
1.800000e-07	-5.450022e-06	-9.071247e-10	-3.793253e+01	-5.536869e+01
1.900000e-07	-5.442696e-06	-8.540800e-10	-3.788154e+01	-5.531346e+01
2.000000e-07	-5.435062e-06	-8.061909e-10	-3.782841e+01	-5.525428e+01
2.100000e-07	-5.427223e-06	-8.092249e-10	-3.777385e+01	-5.519131e+01
2.200000e-07	-5.419141e-06	-8.883017e-10	-3.771760e+01	-5.512468e+01
2.300000e-07	-5.410811e-06	-8.867807e-10	-3.765962e+01	-5.505459e+01
2.400000e-07	-5.402010e-06	-8.697443e-10	-3.759837e+01	-5.498121e+01
2.500000e-07	-5.392548e-06	-8.560787e-10	-3.753251e+01	-5.490477e+01
2.600000e-07	-5.382446e-06	-8.684252e-10	-3.746220e+01	-5.482549e+01
2.700000e-07	-5.371755e-06	-8.450152e-10	-3.738779e+01	-5.474359e+01
2.800000e-07	-5.360613e-06	-8.417323e-10	-3.731024e+01	-5.465934e+01
2.900000e-07	-5.349026e-06	-8.593558e-10	-3.722959e+01	-5.457298e+01
3.000000e-07	-5.336999e-06	-8.666770e-10	-3.714588e+01	-5.448475e+01
3.100000e-07	-5.324599e-06	-8.532636e-10	-3.705958e+01	-5.439492e+01
3.200000e-07	-5.311809e-06	-8.397796e-10	-3.697056e+01	-5.430372e+01
3.300000e-07	-5.298609e-06	-8.474295e-10	-3.687868e+01	-5.421141e+01
3.400000e-07	-5.284997e-06	-8.323630e-10	-3.678395e+01	-5.411821e+01
3.500000e-07	-5.271078e-06	-8.301823e-10	-3.668707e+01	-5.402433e+01
3.600000e-07	-5.256844e-06	-8.264277e-10	-3.658800e+01	-5.392999e+01
3.700000e-07	-5.242179e-06	-8.476883e-10	-3.648593e+01	-5.383537e+01
3.800000e-07	-5.226958e-06	-8.493285e-10	-3.637999e+01	-5.374064e+01
3.900000e-07	-5.211044e-06	-8.445692e-10	-3.626923e+01	-5.364594e+01
4.000000e-07	-5.194515e-06	-8.213835e-10	-3.615419e+01	-5.355139e+01
4.100000e-07	-5.177693e-06	-8.361038e-10	-3.603710e+01	-5.345709e+01
4.200000e-07	-5.160632e-06	-8.345245e-10	-3.591836e+01	-5.336311e+01
4.300000e-07	-5.143278e-06	-8.215020e-10	-3.579757e+01	-5.326948e+01
4.400000e-07	-5.125631e-06	-8.179494e-10	-3.567474e+01	-5.317624e+01
4.500000e-07	-5.107517e-06	-8.519794e-10	-3.554867e+01	-5.308335e+01
4.600000e-07	-5.088849e-06	-8.250988e-10	-3.541874e+01	-5.299079e+01
4.700000e-07	-5.069709e-06	-7.968087e-10	-3.528552e+01	-5.289849e+01
4.800000e-07	-5.050333e-06	-8.196508e-10	-3.515067e+01	-5.280635e+01
4.900000e-07	-5.030805e-06	-8.458109e-10	-3.501475e+01	-5.271427e+01
5.000000e-07	-5.011037e-06	-8.032343e-10	-3.487717e+01	-5.262209e+01
5.100000e-07	-4.991040e-06	-7.981356e-10	-3.473798e+01	-5.252967e+01
5.200000e-07	-4.970838e-06	-8.225369e-10	-3.459738e+01	-5.243683e+01
5.300000e-07	-4.950325e-06	-8.094573e-10	-3.445460e+01	-5.234337e+01
5.400000e-07	-4.929378e-06	-7.924726e-10	-3.430881e+01	-5.224909e+01
5.500000e-07	-4.908070e-06	-8.164369e-10	-3.416051e+01	-5.215377e+01
5.600000e-07	-4.886416e-06	-8.018131e-10	-3.400979e+01	-5.205718e+01
5.700000e-07	-4.864421e-06	-7.741273e-10	-3.385671e+01	-5.195910e+01
5.800000e-07	-4.842169e-06	-7.981767e-10	-3.370183e+01	-5.185930e+01
5.900000e-07	-4.819573e-06	-8.098433e-10	-3.354456e+01	-5.175754e+01
6.000000e-07	-4.796505e-06	-7.801238e-10	-3.338401e+01	-5.165362e+01
6.100000e-07	-4.773147e-06	-7.835952e-10	-3.322144e+01	-5.154730e+01
6.200000e-07	-4.749611e-06	-7.992998e-10	-3.305762e+01	-5.143839e+01
6.300000e-07	-4.725854e-06	-7.714851e-10	-3.289227e+01	-5.132671e+01
6.400000e-07	-4.701838e-06	-7.668837e-10	-3.272512e+01	-5.121207e+01
6.500000e-07	-4.677567e-06	-7.835802e-10	-3.255619e+01	-5.109433e+01
6.600000e-07	-4.652931e-06	-7.750068e-10	-3.238472e+01	-5.097336e+01
6.700000e-07	-4.627741e-06	-7.603565e-10	-3.220940e+01	-5.084906e+01
6.800000e-07	-4.601890e-06	-7.772597e-10	-3.202947e+01	-5.072133e+01
6.900000e-07	-4.575392e-06	-7.701774e-10	-3.184505e+01	-5.059013e+01
7.000000e-07	-4.548464e-06	-7.568416e-10	-3.165763e+01	-5.045544e+01
7.100000e-07	-4.521180e-06	-7.562751e-10	-3.146772e+01	-5.031724e+01
7.200000e-07	-4.493611e-06	-7.569489e-10	-3.127584e+01	-5.017558e+01
7.300000e-07	-4.465843e-06	-7.455875e-10	-3.108258e+01	-5.003051e+01
7.400000e-07	-4.437927e-06	-7.559091e-10	-3.088828e+01	-4.988211e+01
7.500000e-07	-4.409833e-06	-7.576326e-10	-3.069275e+01	-4.973051e+01
7.600000e-07	-4.381519e-06	-7.492864e-10	-3.049567e+01	-4.957583e+01
7.700000e-07	-4.352914e-06	-7.446089e-10	-3.029658e+01	-4.941824e+01
7.800000e-07	-4.323928e-06	-7.471251e-10	-3.009484e+01	-4.925793e+01
7.900000e-07	-4.294579e-06	-7.359228e-10	-2.989057e+01	-4.909509e+01
8.000000e-07	-4.264910e-06	-7.336240e-10	-2.968407e+01	-4.892994e+01
8.100000e-07	-4.234978e-06	-7.356453e-10	-2.947574e+01	-4.876272e+01
8.200000e-07	-4.204787e-06	-7.334064e-10	-2.926561e+01	-4.859366e+01
8.300000e-07	-4.174316e-06	-7.282870e-10	-2.905353e+01	-4.842302e+01
8.400000e-07	-4.143554e-06	-7.325751e-10	-2.883942e+01	-4.825106e+01
8.500000e-07	-4.112410e-06	-7.310052e-10	-2.862266e+01	-4.807801e+01
8.600000e-07	-4.081040e-06	-7.218106e-10	-2.840432e+01	-4.790414e+01
8.700000e-07	-4.049581e-06	-7.181990e-10	-2.818536e+01	-4.772968e+01
8.800000e-07	-4.017939e-06	-7.168117e-10	-2.796513e+01	-4.755486e+01
8.900000e-07	-3.986101e-06	-7.102064e-10	-2.774354e+01	-4.737990e+01
9.000000e-07	-3.954029e-06	-7.040214e-10	-2.752031e+01	-4.720499e+01
9.100000e-07	-3.921680e-06	-7.031339e-10	-2.729517e+01	-4.703032e+01
9.200000e-07	-3.889072e-06	-6.985344e-10	-2.706821e+01	-4.685603e+01
9.300000e-07	-3.856048e-06	-6.969942e-10	-2.683836e+01	-4.668224e+01
9.400000e-07	-3.822400e-06	-6.977283e-10	-2.660417e+01	-4.650905e+01
9.500000e-07	-3.788271e-06	-6.976592e-10	-2.636663e+01	-4.633653e+01
9.600000e-07	-3.753810e-06	-6.907127e-10	-2.612678e+01	-4.616469e+01
9.700000e-07	-3.718917e-06	-6.901110e-10	-2.588392e+01	-4.599353e+01
9.800000e-07	-3.683685e-06	-6.879049e-10	-2.563870e+01	-4.582301e+01
9.900000e-07	-3.648259e-06	-6.826262e-10	-2.539214e+01	-4.565305e+01
1.000000e-06	-3.612600e-06	-6.769370e-10	-2.514394e+01	-4.548352e+01
1.010000e-06	-3.576789e-06	-6.787659e-10	-2.489470e+01	-4.531427e+01
1.020000e-06	-3.540899e-06	-6.772464e-10	-2.464490e+01	-4.514512e+01
1.030000e-06	-3.504911e-06	-6.753681e-10	-2.439442e+01	-4.497582e+01
1.040000e-06	-3.468723e-06	-6.720842e-10	-2.414255e+01	-4.480613e+01
1.050000e-06	-3.432244e-06	-6.686777e-10	-2.388866e+01	-4.463575e+01
1.060000e-06	-3.395546e-06	-6.594955e-10	-2.363324e+01	-4.446436e+01
1.070000e-06	-3.358575e-06	-6.543063e-10	-2.337591e+01	-4.429162e+01
1.080000e-06	-3.321225e-06	-6.515702e-10	-2.311596e+01	-4.411714e+01
1.090000e-06	-3.283634e-06	-6.494331e-10	-2.285432e+01	-4.394055e+01
1.100000e-06	-3.245857e-06	-6.467126e-10	-2.259139e+01	-4.376142e+01
1.110000e-06	-3.207863e-06	-6.441801e-10	-2.232695e+01	-4.357936e+01
1.120000e-06	-3.169610e-06	-6.372643e-10	-2.206070e+01	-4.339391e+01
1.130000e-06	-3.131106e-06	-6.307021e-10	-2.179271e+01	-4.320466e+01
1.140000e-06	-3.092353e-06	-6.244025e-10	-2.152299e+01	-4.301117e+01
1.150000e-06	-3.053415e-06	-6.187545e-10	-2.125198e+01	-4.281300e+01
1.160000e-06	-3.014343e-06	-6.166569e-10	-2.098004e+01	-4.260974e+01
1.170000e-06	-2.974984e-06	-6.175342e-10	-2.070609e+01	-4.240099e+01
1.180000e-06	-2.935467e-06	-6.202098e-10	-2.043105e+01	-4.218633e+01
1.190000e-06	-2.895887e-06	-6.185878e-10	-2.015557e+01	-4.196541e+01
1.200000e-06	-2.856137e-06	-6.140919e-10	-1.987891e+01	-4.173787e+01
1.210000e-06	-2.816233e-06	-6.057533e-10	-1.960118e+01	-4.150338e+01
1.220000e-06	-2.776261e-06	-5.986838e-10	-1.932297e+01	-4.126165e+01
1.230000e-06	-2.736206e-06	-5.937748e-10	-1.904418e+01	-4.101243e+01
1.240000e-06	-2.695990e-06	-5.901517e-10	-1.876428e+01	-4.075547e+01
1.250000e-06	-2.655565e-06	-5.847273e-10	-1.848292e+01	-4.049058e+01
1.260000e-06	-2.614868e-06	-5.829955e-10	-1.819966e+01	-4.021760e+01
1.270000e-06	-2.573901e-06	-5.826075e-10	-1.791453e+01	-3.993642e+01
1.280000e-06	-2.532665e-06	-5.801692e-10	-1.762752e+01	-3.964694e+01
1.290000e-06	-2.491153e-06	-5.715858e-10	-1.733860e+01	-3.934913e+01
1.300000e-06	-2.449473e-06	-5.621390e-10	-1.704850e+01	-3.904295e+01
1.310000e-06	-2.407645e-06	-5.536004e-10	-1.675738e+01	-3.872845e+01
1.320000e-06	-2.365436e-06	-5.482103e-10	-1.646360e+01	-3.840566e+01
1.330000e-06	-2.322736e-06	-5.463067e-10	-1.616640e+01	-3.807468e+01
1.340000e-06	-2.279755e-06	-5.472935e-10	-1.586725e+01	-3.773562e+01
1.350000e-06	-2.236542e-06	-5.458839e-10	-1.556649e+01	-3.738860e+01
1.360000e-06	-2.193111e-06	-5.406142e-10	-1.526420e+01	-3.703379e+01
1.370000e-06	-2.149557e-06	-5.349641e-10	-1.496106e+01	-3.667135e+01
1.380000e-06	-2.105885e-06	-5.300250e-10	-1.465711e+01	-3.630146e+01
1.390000e-06	-2.062118e-06	-5.224861e-10	-1.435249e+01	-3.592432e+01
1.400000e-06	-2.018306e-06	-5.138751e-10	-1.404755e+01	-3.554012e+01
1.410000e-06	-1.974463e-06	-5.077333e-10	-1.374240e+01	-3.514904e+01
1.420000e-06	-1.930539e-06	-5.036531e-10	-1.343668e+01	-3.475127e+01
1.430000e-06	-1.886552e-06	-5.000894e-10	-1.313053e+01	-3.434698e+01
1.440000e-06	-1.842462e-06	-4.970843e-10	-1.282366e+01	-3.393632e+01
1.450000e-06	-1.798246e-06	-4.917318e-10	-1.251592e+01	-3.351941e+01
1.460000e-06	-1.753934e-06	-4.835509e-10	-1.220750e+01	-3.309636e+01
1.470000e-06	-1.709478e-06	-4.747049e-10	-1.189808e+01	-3.266725e+01
1.480000e-06	-1.664907e-06	-4.651976e-10	-1.158787e+01	-3.223211e+01
1.490000e-06	-1.620171e-06	-4.574944e-10	-1.127651e+01	-3.179093e+01
1.500000e-06	-1.575271e-06	-4.516279e-10	-1.096400e+01	-3.134368e+01
1.510000e-06	-1.530273e-06	-4.463196e-10	-1.065080e+01	-3.089026e+01
1.520000e-06	-1.485160e-06	-4.397734e-10	-1.033681e+01	-3.043054e+01
1.530000e-06	-1.439949e-06	-4.317151e-10	-1.002214e+01	-2.996434e+01
1.540000e-06	-1.394692e-06	-4.221289e-10	-9.707154e+00	-2.949141e+01
1.550000e-06	-1.349331e-06	-4.118046e-10	-9.391439e+00	-2.901148e+01
1.560000e-06	-1.303792e-06	-4.016309e-10	-9.074484e+00	-2.852420e+01
1.570000e-06	-1.258182e-06	-3.941717e-10	-8.757037e+00	-2.802919e+01
1.580000e-06	-1.212565e-06	-3.883346e-10	-8.439538e+00	-2.752603e+01
1.590000e-06	-1.166852e-06	-3.797485e-10	-8.121371e+00	-2.701423e+01
1.600000e-06	-1.121034e-06	-3.689014e-10	-7.802471e+00	-2.649327e+01
1.610000e-06	-1.075145e-06	-3.586419e-10	-7.483083e+00	-2.596260e+01
1.620000e-06	-1.029155e-06	-3.489520e-10	-7.162991e+00	-2.542161e+01
1.630000e-06	-9.831347e-07	-3.406798e-10	-6.842685e+00	-2.486969e+01
1.640000e-06	-9.371184e-07	-3.300328e-10	-6.522409e+00	-2.430619e+01
1.650000e-06	-8.910220e-07	-3.183592e-10	-6.201575e+00	-2.373043e+01
1.660000e-06	-8.447957e-07	-3.060116e-10	-5.879836e+00	-2.314174e+01
1.670000e-06	-7.984682e-07	-2.946813e-10	-5.557394e+00	-2.253944e+01
1.680000e-06	-7.520946e-07	-2.850438e-10	-5.234631e+00	-2.192283e+01
1.690000e-06	-7.057315e-07	-2.786618e-10	-4.911940e+00	-2.129125e+01
1.700000e-06	-6.593358e-07	-2.723232e-10	-4.589023e+00	-2.064403e+01
1.710000e-06	-6.128568e-07	-2.624959e-10	-4.265526e+00	-1.998055e+01
1.720000e-06	-5.663204e-07	-2.495542e-10	-3.941630e+00	-1.930019e+01
1.730000e-06	-5.197909e-07	-2.350163e-10	-3.617781e+00	-1.860240e+01
1.740000e-06	-4.731738e-07	-2.213107e-10	-3.293323e+00	-1.788667e+01
1.750000e-06	-4.264785e-07	-2.102585e-10	-2.968320e+00	-1.715253e+01
1.760000e-06	-3.797524e-07	-2.011667e-10	-2.643103e+00	-1.639958e+01
1.770000e-06	-3.329158e-07	-1.935780e-10	-2.317117e+00	-1.562751e+01
1.780000e-06	-2.860602e-07	-1.865610e-10	-1.990999e+00	-1.483605e+01
1.790000e-06	-2.392790e-07	-1.753042e-10	-1.665399e+00	-1.402505e+01
1.800000e-06	-1.925518e-07	-1.607676e-10	-1.340174e+00	-1.319440e+01
1.810000e-06	-1.457838e-07	-1.443233e-10	-1.014665e+00	-1.234413e+01
1.820000e-06	-9.903844e-08	-1.288657e-10	-6.893144e-01	-1.147434e+01
1.830000e-06	-5.231538e-08	-1.164500e-10	-3.641187e-01	-1.058523e+01
1.840000e-06	-5.547639e-09	-1.058584e-10	-3.861195e-02	-9.677117e+00
1.850000e-06	4.123727e-08	-9.630685e-11	2.870143e-01	-8.750398e+00
1.860000e-06	8.794292e-08	-8.593249e-11	6.120889e-01	-7.805593e+00
1.870000e-06	1.346135e-07	-7.217191e-11	9.369195e-01	-6.843322e+00
1.880000e-06	1.813873e-07	-5.661345e-11	1.262468e+00	-5.864307e+00
1.890000e-06	2.281509e-07	-4.084483e-11	1.587946e+00	-4.869373e+00
1.900000e-06	2.748006e-07	-2.645429e-11	1.912631e+00	-3.859445e+00
1.910000e-06	3.214467e-07	-1.307997e-11	2.237291e+00	-2.835543e+00
1.920000e-06	3.681557e-07	-5.468282e-13	2.562389e+00	-1.798778e+00
1.930000e-06	4.148089e-07	1.217438e-11	2.887099e+00	-7.503478e-01
1.940000e-06	4.613477e-07	2.394307e-11	3.211012e+00	3.084693e-01
1.950000e-06	5.078487e-07	3.349932e-11	3.534662e+00	1.376322e+00
1.960000e-06	5.544362e-07	4.233677e-11	3.858915e+00	2.451792e+00
1.970000e-06	6.009999e-07	5.379798e-11	4.183001e+00	3.533404e+00
1.980000e-06	6.474100e-07	6.942858e-11	4.506019e+00	4.619633e+00
1.990000e-06	6.938077e-07	8.840909e-11	4.828950e+00	5.708912e+00
2.000000e-06	7.401675e-07	1.079501e-10	5.151617e+00	6.799645e+00
2.010000e-06	7.864370e-07	1.256354e-10	5.473656e+00	7.890214e+00
2.020000e-06	8.326271e-07	1.402883e-10	5.795143e+00	8.978988e+00
2.030000e-06	8.787405e-07	1.519247e-10	6.116095e+00	1.006434e+01
2.040000e-06	9.248076e-07	1.624071e-10	6.436725e+00	1.114464e+01
2.050000e-06	9.708165e-07	1.749950e-10	6.756950e+00	1.221829e+01
2.060000e-06	1.016791e-06	1.921329e-10	7.076936e+00	1.328372e+01
2.070000e-06	1.062675e-06	2.112883e-10	7.396294e+00	1.433940e+01
2.080000e-06	1.108436e-06	2.286248e-10	7.714793e+00	1.538383e+01
2.090000e-06	1.154160e-06	2.438930e-10	8.033031e+00	1.641558e+01
2.100000e-06	1.199841e-06	2.568034e-10	8.350974e+00	1.743330e+01
2.110000e-06	1.245436e-06	2.665569e-10	8.668324e+00	1.843570e+01
2.120000e-06	1.290890e-06	2.766204e-10	8.984684e+00	1.942156e+01
2.130000e-06	1.336225e-06	2.887302e-10	9.300215e+00	2.038978e+01
2.140000e-06	1.381598e-06	3.017847e-10	9.616017e+00	2.133931e+01
2.150000e-06	1.426934e-06	3.153248e-10	9.931557e+00	2.226925e+01
2.160000e-06	1.472118e-06	3.305673e-10	1.024605e+01	2.317876e+01
2.170000e-06	1.517137e-06	3.473019e-10	1.055938e+01	2.406714e+01
2.180000e-06	1.562028e-06	3.615881e-10	1.087182e+01	2.493378e+01
2.190000e-06	1.606791e-06	3.715383e-10	1.118338e+01	2.577818e+01
2.200000e-06	1.651369e-06	3.788596e-10	1.149364e+01	2.659996e+01
2.210000e-06	1.695781e-06	3.854921e-10	1.180275e+01	2.739887e+01
2.220000e-06	1.740016e-06	3.947280e-10	1.211063e+01	2.817473e+01
2.230000e-06	1.784187e-06	4.069516e-10	1.241806e+01	2.892751e+01
2.240000e-06	1.828359e-06	4.199207e-10	1.272550e+01	2.965726e+01
2.250000e-06	1.872430e-06	4.301870e-10	1.303225e+01	3.036415e+01
2.260000e-06	1.916395e-06	4.379241e-10	1.333824e+01	3.104842e+01
2.270000e-06	1.960302e-06	4.439529e-10	1.364384e+01	3.171045e+01
2.280000e-06	2.004119e-06	4.492990e-10	1.394881e+01	3.235066e+01
2.290000e-06	2.047839e-06	4.563620e-10	1.425310e+01	3.296959e+01
2.300000e-06	2.091470e-06	4.650756e-10	1.455677e+01	3.356781e+01
2.310000e-06	2.135051e-06	4.752962e-10	1.486010e+01	3.414601e+01
2.320000e-06	2.178599e-06	4.861096e-10	1.516320e+01	3.470490e+01
2.330000e-06	2.222065e-06	4.950347e-10	1.546573e+01	3.524526e+01
2.340000e-06	2.265382e-06	5.019804e-10	1.576722e+01	3.576790e+01
2.350000e-06	2.308380e-06	5.074879e-10	1.606649e+01	3.627366e+01
2.360000e-06	2.351011e-06	5.123284e-10	1.636320e+01	3.676343e+01
2.370000e-06	2.393349e-06	5.174217e-10	1.665788e+01	3.723809e+01
2.380000e-06	2.435436e-06	5.234675e-10	1.695081e+01	3.769856e+01
2.390000e-06	2.477311e-06	5.317173e-10	1.724226e+01	3.814572e+01
2.400000e-06	2.518926e-06	5.405903e-10	1.753190e+01	3.858046e+01
2.410000e-06	2.560244e-06	5.503878e-10	1.781948e+01	3.900368e+01
2.420000e-06	2.601189e-06	5.597312e-10	1.810445e+01	3.941622e+01
2.430000e-06	2.641784e-06	5.658840e-10	1.838700e+01	3.981891e+01
2.440000e-06	2.682187e-06	5.710907e-10	1.866821e+01	4.021254e+01
2.450000e-06	2.722453e-06	5.775728e-10	1.894846e+01	4.059786e+01
2.460000e-06	2.762629e-06	5.829270e-10	1.922809e+01	4.097558e+01
2.470000e-06	2.802648e-06	5.870815e-10	1.950662e+01	4.134633e+01
2.480000e-06	2.842492e-06	5.927962e-10	1.978394e+01	4.171073e+01
2.490000e-06	2.882240e-06	6.000891e-10	2.006059e+01	4.206932e+01
2.500000e-06	2.921890e-06	6.086215e-10	2.033656e+01	4.242256e+01
2.510000e-06	2.961356e-06	6.173208e-10	2.061125e+01	4.277089e+01
2.520000e-06	3.000619e-06	6.247397e-10	2.088452e+01	4.311466e+01
2.530000e-06	3.039710e-06	6.304674e-10	2.115659e+01	4.345416e+01
2.540000e-06	3.078559e-06	6.331371e-10	2.142699e+01	4.378963e+01
2.550000e-06	3.117105e-06	6.345477e-10	2.169526e+01	4.412124e+01
2.560000e-06	3.155386e-06	6.371784e-10	2.196170e+01	4.444911e+01
2.570000e-06	3.193485e-06	6.415523e-10	2.222687e+01	4.477327e+01
2.580000e-06	3.231488e-06	6.461407e-10	2.249138e+01	4.509375e+01
2.590000e-06	3.269355e-06	6.505363e-10	2.275494e+01	4.541050e+01
2.600000e-06	3.306936e-06	6.568944e-10	2.301650e+01	4.572341e+01
2.610000e-06	3.344192e-06	6.646831e-10	2.327581e+01	4.603236e+01
2.620000e-06	3.381158e-06	6.723190e-10	2.353310e+01	4.633717e+01
2.630000e-06	3.417912e-06	6.769731e-10	2.378890e+01	4.663764e+01
2.640000e-06	3.454494e-06	6.777535e-10	2.404352e+01	4.693354e+01
2.650000e-06	3.490818e-06	6.779328e-10	2.429634e+01	4.722461e+01
2.660000e-06	3.526943e-06	6.778750e-10	2.454777e+01	4.751058e+01
2.670000e-06	3.562943e-06	6.794995e-10	2.479833e+01	4.779117e+01
2.680000e-06	3.598767e-06	6.822326e-10	2.504767e+01	4.806610e+01
2.690000e-06	3.634390e-06	6.882510e-10	2.529561e+01	4.833508e+01
2.700000e-06	3.669867e-06	6.955926e-10	2.554253e+01	4.859782e+01
2.710000e-06	3.705176e-06	7.016790e-10	2.578828e+01	4.885406e+01
2.720000e-06	3.740199e-06	7.084846e-10	2.603205e+01	4.910353e+01
2.730000e-06	3.774828e-06	7.141740e-10	2.627307e+01	4.934600e+01
2.740000e-06	3.809004e-06	7.163557e-10	2.651093e+01	4.958124e+01
2.750000e-06	3.842654e-06	7.155302e-10	2.674514e+01	4.980907e+01
2.760000e-06	3.875801e-06	7.145862e-10	2.697584e+01	5.002931e+01
2.770000e-06	3.908575e-06	7.171095e-10	2.720395e+01	5.024184e+01
2.780000e-06	3.941021e-06	7.233453e-10	2.742978e+01	5.044656e+01
2.790000e-06	3.973220e-06	7.315763e-10	2.765389e+01	5.064341e+01
2.800000e-06	4.005245e-06	7.389783e-10	2.787678e+01	5.083235e+01
2.810000e-06	4.037126e-06	7.423647e-10	2.809868e+01	5.101339e+01
2.820000e-06	4.068805e-06	7.429086e-10	2.831917e+01	5.118659e+01
2.830000e-06	4.100230e-06	7.422424e-10	2.853788e+01	5.135202e+01
2.840000e-06	4.131401e-06	7.420821e-10	2.875484e+01	5.150980e+01
2.850000e-06	4.162265e-06	7.427590e-10	2.896965e+01	5.166009e+01
2.860000e-06	4.192866e-06	7.463567e-10	2.918264e+01	5.180307e+01
2.870000e-06	4.223209e-06	7.499222e-10	2.939383e+01	5.193896e+01
2.880000e-06	4.253228e-06	7.534783e-10	2.960276e+01	5.206801e+01
2.890000e-06	4.282945e-06	7.577565e-10	2.980959e+01	5.219048e+01
2.900000e-06	4.312389e-06	7.609761e-10	3.001453e+01	5.230667e+01
