# Temperatura_=_-1.1
# Concentracion g/m^3_=_1620.0
# C_Vs_to_Am_M_A/Vsm_=_65563218390.804596
# pendiente_HvsI_1/m_=_3716.3
# ordenada_HvsI_A/m_=_1297.0
# frecuencia_Hz_=_135090.87528567045

Tiempo_(s)	Campo_(V.s)	Magnetizacion_(V.s)	Campo_(kA/m)	Magnetizacion_(A/m)
0.000000e+00	-5.552658e-06	-1.078960e-09	-3.837957e+01	-7.132844e+01
1.000000e-08	-5.552827e-06	-1.074887e-09	-3.838074e+01	-7.128294e+01
2.000000e-08	-5.552699e-06	-1.072177e-09	-3.837986e+01	-7.123703e+01
3.000000e-08	-5.552108e-06	-1.068307e-09	-3.837577e+01	-7.119065e+01
4.000000e-08	-5.551009e-06	-1.066242e-09	-3.836817e+01	-7.114374e+01
5.000000e-08	-5.549308e-06	-1.066358e-09	-3.835641e+01	-7.109620e+01
6.000000e-08	-5.547000e-06	-1.063053e-09	-3.834046e+01	-7.104794e+01
7.000000e-08	-5.544076e-06	-1.069900e-09	-3.832025e+01	-7.099885e+01
8.000000e-08	-5.540584e-06	-1.085702e-09	-3.829612e+01	-7.094881e+01
9.000000e-08	-5.536665e-06	-1.067385e-09	-3.826903e+01	-7.089768e+01
1.000000e-07	-5.532372e-06	-1.020700e-09	-3.823936e+01	-7.084534e+01
1.100000e-07	-5.527863e-06	-1.084704e-09	-3.820819e+01	-7.079162e+01
1.200000e-07	-5.523168e-06	-1.058791e-09	-3.817574e+01	-7.073638e+01
1.300000e-07	-5.518098e-06	-1.044100e-09	-3.814069e+01	-7.067947e+01
1.400000e-07	-5.512634e-06	-9.965609e-10	-3.810293e+01	-7.062073e+01
1.500000e-07	-5.506817e-06	-1.049725e-09	-3.806272e+01	-7.055999e+01
1.600000e-07	-5.500607e-06	-1.097797e-09	-3.801980e+01	-7.049710e+01
1.700000e-07	-5.494030e-06	-1.058867e-09	-3.797434e+01	-7.043189e+01
1.800000e-07	-5.487119e-06	-1.055470e-09	-3.792657e+01	-7.036422e+01
1.900000e-07	-5.479753e-06	-1.048371e-09	-3.787566e+01	-7.029393e+01
2.000000e-07	-5.471991e-06	-1.079721e-09	-3.782201e+01	-7.022087e+01
2.100000e-07	-5.464014e-06	-1.051629e-09	-3.776687e+01	-7.014492e+01
2.200000e-07	-5.455879e-06	-1.072741e-09	-3.771064e+01	-7.006594e+01
2.300000e-07	-5.447352e-06	-1.068753e-09	-3.765170e+01	-6.998380e+01
2.400000e-07	-5.438217e-06	-1.110777e-09	-3.758857e+01	-6.989841e+01
2.500000e-07	-5.428461e-06	-1.079833e-09	-3.752113e+01	-6.980967e+01
2.600000e-07	-5.418092e-06	-1.077696e-09	-3.744946e+01	-6.971748e+01
2.700000e-07	-5.407060e-06	-1.056189e-09	-3.737321e+01	-6.962178e+01
2.800000e-07	-5.395555e-06	-1.087940e-09	-3.729369e+01	-6.952251e+01
2.900000e-07	-5.383773e-06	-1.077218e-09	-3.721225e+01	-6.941962e+01
3.000000e-07	-5.371565e-06	-1.064541e-09	-3.712787e+01	-6.931308e+01
3.100000e-07	-5.358855e-06	-1.058110e-09	-3.704002e+01	-6.920288e+01
3.200000e-07	-5.345861e-06	-1.088002e-09	-3.695020e+01	-6.908900e+01
3.300000e-07	-5.332561e-06	-1.077985e-09	-3.685828e+01	-6.897145e+01
3.400000e-07	-5.318780e-06	-1.037754e-09	-3.676302e+01	-6.885027e+01
3.500000e-07	-5.304525e-06	-1.041002e-09	-3.666449e+01	-6.872548e+01
3.600000e-07	-5.289971e-06	-1.074299e-09	-3.656390e+01	-6.859712e+01
3.700000e-07	-5.274851e-06	-1.056750e-09	-3.645939e+01	-6.846527e+01
3.800000e-07	-5.259057e-06	-1.048568e-09	-3.635022e+01	-6.832998e+01
3.900000e-07	-5.242908e-06	-1.091908e-09	-3.623860e+01	-6.819134e+01
4.000000e-07	-5.226334e-06	-1.056503e-09	-3.612405e+01	-6.804942e+01
4.100000e-07	-5.209417e-06	-1.007879e-09	-3.600711e+01	-6.790433e+01
4.200000e-07	-5.192221e-06	-1.045325e-09	-3.588825e+01	-6.775616e+01
4.300000e-07	-5.174717e-06	-1.083242e-09	-3.576727e+01	-6.760502e+01
4.400000e-07	-5.156793e-06	-9.932032e-10	-3.564338e+01	-6.745102e+01
4.500000e-07	-5.138409e-06	-1.011730e-09	-3.551631e+01	-6.729427e+01
4.600000e-07	-5.119679e-06	-1.077691e-09	-3.538685e+01	-6.713488e+01
4.700000e-07	-5.100583e-06	-1.028533e-09	-3.525486e+01	-6.697297e+01
4.800000e-07	-5.081092e-06	-9.747052e-10	-3.512014e+01	-6.680865e+01
4.900000e-07	-5.061426e-06	-1.073768e-09	-3.498421e+01	-6.664202e+01
5.000000e-07	-5.041566e-06	-1.049530e-09	-3.484694e+01	-6.647321e+01
5.100000e-07	-5.021363e-06	-9.646704e-10	-3.470730e+01	-6.630230e+01
5.200000e-07	-5.000845e-06	-1.013167e-09	-3.456548e+01	-6.612941e+01
5.300000e-07	-4.979964e-06	-1.066106e-09	-3.442115e+01	-6.595463e+01
5.400000e-07	-4.958719e-06	-9.664570e-10	-3.427431e+01	-6.577803e+01
5.500000e-07	-4.937217e-06	-9.833008e-10	-3.412569e+01	-6.559972e+01
5.600000e-07	-4.915317e-06	-1.056510e-09	-3.397432e+01	-6.541975e+01
5.700000e-07	-4.893010e-06	-1.001487e-09	-3.382013e+01	-6.523819e+01
5.800000e-07	-4.870439e-06	-9.621150e-10	-3.366412e+01	-6.505510e+01
5.900000e-07	-4.847545e-06	-1.035518e-09	-3.350588e+01	-6.487053e+01
6.000000e-07	-4.824293e-06	-1.003863e-09	-3.334516e+01	-6.468452e+01
6.100000e-07	-4.800832e-06	-9.457992e-10	-3.318301e+01	-6.449710e+01
6.200000e-07	-4.777141e-06	-9.882224e-10	-3.301925e+01	-6.430829e+01
6.300000e-07	-4.753157e-06	-9.935436e-10	-3.285348e+01	-6.411810e+01
6.400000e-07	-4.728806e-06	-9.418592e-10	-3.268517e+01	-6.392655e+01
6.500000e-07	-4.704047e-06	-9.732285e-10	-3.251403e+01	-6.373363e+01
6.600000e-07	-4.678805e-06	-9.997847e-10	-3.233956e+01	-6.353934e+01
6.700000e-07	-4.652911e-06	-9.498549e-10	-3.216058e+01	-6.334365e+01
6.800000e-07	-4.626449e-06	-9.574566e-10	-3.197768e+01	-6.314654e+01
6.900000e-07	-4.599608e-06	-9.837206e-10	-3.179216e+01	-6.294800e+01
7.000000e-07	-4.572401e-06	-9.521024e-10	-3.160411e+01	-6.274798e+01
7.100000e-07	-4.544844e-06	-9.323475e-10	-3.141363e+01	-6.254645e+01
7.200000e-07	-4.517149e-06	-9.612399e-10	-3.122221e+01	-6.234336e+01
7.300000e-07	-4.489306e-06	-9.455011e-10	-3.102976e+01	-6.213868e+01
7.400000e-07	-4.461226e-06	-9.382520e-10	-3.083567e+01	-6.193235e+01
7.500000e-07	-4.432837e-06	-9.570344e-10	-3.063945e+01	-6.172433e+01
7.600000e-07	-4.404180e-06	-9.522088e-10	-3.044137e+01	-6.151457e+01
7.700000e-07	-4.375205e-06	-9.251346e-10	-3.024110e+01	-6.130301e+01
7.800000e-07	-4.345925e-06	-9.375310e-10	-3.003872e+01	-6.108960e+01
7.900000e-07	-4.316346e-06	-9.278608e-10	-2.983427e+01	-6.087430e+01
8.000000e-07	-4.286399e-06	-9.057617e-10	-2.962728e+01	-6.065704e+01
8.100000e-07	-4.256190e-06	-9.082887e-10	-2.941848e+01	-6.043779e+01
8.200000e-07	-4.225612e-06	-9.226601e-10	-2.920712e+01	-6.021648e+01
8.300000e-07	-4.194709e-06	-9.066426e-10	-2.899353e+01	-5.999308e+01
8.400000e-07	-4.163620e-06	-9.065529e-10	-2.877864e+01	-5.976753e+01
8.500000e-07	-4.132383e-06	-9.189005e-10	-2.856273e+01	-5.953979e+01
8.600000e-07	-4.100961e-06	-9.046709e-10	-2.834555e+01	-5.930982e+01
8.700000e-07	-4.069227e-06	-8.801660e-10	-2.812620e+01	-5.907757e+01
8.800000e-07	-4.037313e-06	-8.856796e-10	-2.790561e+01	-5.884300e+01
8.900000e-07	-4.005149e-06	-8.790791e-10	-2.768330e+01	-5.860607e+01
9.000000e-07	-3.972705e-06	-8.650755e-10	-2.745905e+01	-5.836674e+01
9.100000e-07	-3.939979e-06	-8.698189e-10	-2.723285e+01	-5.812497e+01
9.200000e-07	-3.906808e-06	-8.772518e-10	-2.700358e+01	-5.788071e+01
9.300000e-07	-3.873129e-06	-8.648629e-10	-2.677079e+01	-5.763394e+01
9.400000e-07	-3.838888e-06	-8.587313e-10	-2.653412e+01	-5.738459e+01
9.500000e-07	-3.804340e-06	-8.628794e-10	-2.629532e+01	-5.713264e+01
9.600000e-07	-3.769558e-06	-8.467892e-10	-2.605491e+01	-5.687804e+01
9.700000e-07	-3.734473e-06	-8.334757e-10	-2.581241e+01	-5.662073e+01
9.800000e-07	-3.699130e-06	-8.389258e-10	-2.556812e+01	-5.636066e+01
9.900000e-07	-3.663499e-06	-8.404613e-10	-2.532184e+01	-5.609779e+01
1.000000e-06	-3.627729e-06	-8.315162e-10	-2.507460e+01	-5.583204e+01
1.010000e-06	-3.591839e-06	-8.326130e-10	-2.482653e+01	-5.556337e+01
1.020000e-06	-3.555707e-06	-8.300058e-10	-2.457679e+01	-5.529169e+01
1.030000e-06	-3.519347e-06	-8.179963e-10	-2.432548e+01	-5.501695e+01
1.040000e-06	-3.482688e-06	-8.066816e-10	-2.407209e+01	-5.473905e+01
1.050000e-06	-3.445778e-06	-8.021214e-10	-2.381697e+01	-5.445791e+01
1.060000e-06	-3.408671e-06	-7.891739e-10	-2.356049e+01	-5.417345e+01
1.070000e-06	-3.371296e-06	-7.881984e-10	-2.330215e+01	-5.388556e+01
1.080000e-06	-3.333727e-06	-7.950306e-10	-2.304248e+01	-5.359415e+01
1.090000e-06	-3.295999e-06	-7.966384e-10	-2.278170e+01	-5.329911e+01
1.100000e-06	-3.257983e-06	-7.867268e-10	-2.251894e+01	-5.300032e+01
1.110000e-06	-3.219653e-06	-7.811601e-10	-2.225401e+01	-5.269767e+01
1.120000e-06	-3.181175e-06	-7.691307e-10	-2.198805e+01	-5.239102e+01
1.130000e-06	-3.142451e-06	-7.546103e-10	-2.172040e+01	-5.208025e+01
1.140000e-06	-3.103378e-06	-7.462768e-10	-2.145033e+01	-5.176523e+01
1.150000e-06	-3.064166e-06	-7.458014e-10	-2.117929e+01	-5.144580e+01
1.160000e-06	-3.024868e-06	-7.432936e-10	-2.090767e+01	-5.112184e+01
1.170000e-06	-2.985372e-06	-7.437964e-10	-2.063467e+01	-5.079319e+01
1.180000e-06	-2.945788e-06	-7.450067e-10	-2.036107e+01	-5.045970e+01
1.190000e-06	-2.906125e-06	-7.404034e-10	-2.008692e+01	-5.012122e+01
1.200000e-06	-2.866247e-06	-7.301708e-10	-1.981129e+01	-4.977759e+01
1.210000e-06	-2.826250e-06	-7.190839e-10	-1.953484e+01	-4.942866e+01
1.220000e-06	-2.786014e-06	-7.058568e-10	-1.925673e+01	-4.907427e+01
1.230000e-06	-2.745486e-06	-6.950572e-10	-1.897660e+01	-4.871426e+01
1.240000e-06	-2.704782e-06	-6.915515e-10	-1.869526e+01	-4.834847e+01
1.250000e-06	-2.663795e-06	-6.908413e-10	-1.841196e+01	-4.797675e+01
1.260000e-06	-2.622564e-06	-6.910225e-10	-1.812697e+01	-4.759895e+01
1.270000e-06	-2.581094e-06	-6.903391e-10	-1.784033e+01	-4.721490e+01
1.280000e-06	-2.539355e-06	-6.835097e-10	-1.755184e+01	-4.682445e+01
1.290000e-06	-2.497341e-06	-6.713213e-10	-1.726144e+01	-4.642746e+01
1.300000e-06	-2.454846e-06	-6.587139e-10	-1.696772e+01	-4.602378e+01
1.310000e-06	-2.412038e-06	-6.487291e-10	-1.667183e+01	-4.561325e+01
1.320000e-06	-2.369142e-06	-6.423445e-10	-1.637534e+01	-4.519573e+01
1.330000e-06	-2.326018e-06	-6.391883e-10	-1.607727e+01	-4.477109e+01
1.340000e-06	-2.282678e-06	-6.372829e-10	-1.577771e+01	-4.433917e+01
1.350000e-06	-2.239231e-06	-6.312407e-10	-1.547740e+01	-4.389985e+01
1.360000e-06	-2.195675e-06	-6.233064e-10	-1.517634e+01	-4.345298e+01
1.370000e-06	-2.152021e-06	-6.135703e-10	-1.487461e+01	-4.299843e+01
1.380000e-06	-2.108207e-06	-6.086091e-10	-1.457178e+01	-4.253606e+01
1.390000e-06	-2.064302e-06	-6.025889e-10	-1.426831e+01	-4.206573e+01
1.400000e-06	-2.020376e-06	-5.953586e-10	-1.396470e+01	-4.158731e+01
1.410000e-06	-1.976337e-06	-5.843695e-10	-1.366030e+01	-4.110066e+01
1.420000e-06	-1.932153e-06	-5.737606e-10	-1.335490e+01	-4.060564e+01
1.430000e-06	-1.887852e-06	-5.622444e-10	-1.304869e+01	-4.010211e+01
1.440000e-06	-1.843498e-06	-5.530897e-10	-1.274212e+01	-3.958991e+01
1.450000e-06	-1.799015e-06	-5.443346e-10	-1.243466e+01	-3.906891e+01
1.460000e-06	-1.754348e-06	-5.362242e-10	-1.212593e+01	-3.853893e+01
1.470000e-06	-1.709505e-06	-5.283531e-10	-1.181597e+01	-3.799983e+01
1.480000e-06	-1.664551e-06	-5.185372e-10	-1.150525e+01	-3.745143e+01
1.490000e-06	-1.619479e-06	-5.061895e-10	-1.119372e+01	-3.689356e+01
1.500000e-06	-1.574291e-06	-4.961505e-10	-1.088139e+01	-3.632603e+01
1.510000e-06	-1.529034e-06	-4.867788e-10	-1.056857e+01	-3.574866e+01
1.520000e-06	-1.483635e-06	-4.758574e-10	-1.025478e+01	-3.516124e+01
1.530000e-06	-1.438136e-06	-4.626255e-10	-9.940290e+00	-3.456357e+01
1.540000e-06	-1.392567e-06	-4.522733e-10	-9.625321e+00	-3.395544e+01
1.550000e-06	-1.346901e-06	-4.424514e-10	-9.309683e+00	-3.333661e+01
1.560000e-06	-1.301097e-06	-4.322150e-10	-8.993085e+00	-3.270686e+01
1.570000e-06	-1.255173e-06	-4.244321e-10	-8.675662e+00	-3.206595e+01
1.580000e-06	-1.209211e-06	-4.166987e-10	-8.357979e+00	-3.141362e+01
1.590000e-06	-1.163182e-06	-4.070271e-10	-8.039831e+00	-3.074963e+01
1.600000e-06	-1.117003e-06	-3.960093e-10	-7.720647e+00	-3.007371e+01
1.610000e-06	-1.070705e-06	-3.845676e-10	-7.400634e+00	-2.938560e+01
1.620000e-06	-1.024386e-06	-3.708613e-10	-7.080485e+00	-2.868503e+01
1.630000e-06	-9.779787e-07	-3.582542e-10	-6.759718e+00	-2.797174e+01
1.640000e-06	-9.314668e-07	-3.454162e-10	-6.438231e+00	-2.724544e+01
1.650000e-06	-8.849294e-07	-3.327945e-10	-6.116568e+00	-2.650589e+01
1.660000e-06	-8.383325e-07	-3.196191e-10	-5.794493e+00	-2.575280e+01
1.670000e-06	-7.916575e-07	-3.099115e-10	-5.471879e+00	-2.498593e+01
1.680000e-06	-7.449327e-07	-3.007343e-10	-5.148921e+00	-2.420503e+01
1.690000e-06	-6.981599e-07	-2.908286e-10	-4.825631e+00	-2.340984e+01
1.700000e-06	-6.513088e-07	-2.780273e-10	-4.501800e+00	-2.260016e+01
1.710000e-06	-6.043937e-07	-2.643849e-10	-4.177525e+00	-2.177578e+01
1.720000e-06	-5.574464e-07	-2.486817e-10	-3.853029e+00	-2.093649e+01
1.730000e-06	-5.104810e-07	-2.318177e-10	-3.528408e+00	-2.008213e+01
1.740000e-06	-4.635272e-07	-2.161612e-10	-3.203866e+00	-1.921256e+01
1.750000e-06	-4.165064e-07	-2.035579e-10	-2.878862e+00	-1.832766e+01
1.760000e-06	-3.694210e-07	-1.915093e-10	-2.553411e+00	-1.742734e+01
1.770000e-06	-3.223335e-07	-1.817308e-10	-2.227946e+00	-1.651155e+01
1.780000e-06	-2.752075e-07	-1.728127e-10	-1.902215e+00	-1.558026e+01
1.790000e-06	-2.280717e-07	-1.592165e-10	-1.576415e+00	-1.463349e+01
1.800000e-06	-1.809432e-07	-1.418477e-10	-1.250666e+00	-1.367130e+01
1.810000e-06	-1.338356e-07	-1.231577e-10	-9.250623e-01	-1.269379e+01
1.820000e-06	-8.671906e-08	-1.051485e-10	-5.993959e-01	-1.170111e+01
1.830000e-06	-3.958947e-08	-8.947838e-11	-2.736396e-01	-1.069344e+01
1.840000e-06	7.529859e-09	-7.598607e-11	5.204584e-02	-9.671013e+00
1.850000e-06	5.462347e-08	-6.650797e-11	3.775535e-01	-8.634129e+00
1.860000e-06	1.016867e-07	-5.658999e-11	7.028510e-01	-7.583118e+00
1.870000e-06	1.487601e-07	-4.339641e-11	1.028219e+00	-6.518368e+00
1.880000e-06	1.958249e-07	-2.772371e-11	1.353527e+00	-5.440319e+00
1.890000e-06	2.429105e-07	-8.454907e-12	1.678980e+00	-4.349458e+00
1.900000e-06	2.899979e-07	8.715597e-12	2.004444e+00	-3.246328e+00
1.910000e-06	3.371333e-07	2.470496e-11	2.330241e+00	-2.131520e+00
1.920000e-06	3.842719e-07	3.869646e-11	2.656060e+00	-1.005674e+00
1.930000e-06	4.313310e-07	5.145475e-11	2.981329e+00	1.305194e-01
1.940000e-06	4.783263e-07	6.207483e-11	3.306157e+00	1.276325e+00
1.950000e-06	5.252298e-07	7.386257e-11	3.630350e+00	2.430963e+00
1.960000e-06	5.720530e-07	8.823026e-11	3.953989e+00	3.593610e+00
1.970000e-06	6.188620e-07	1.039068e-10	4.277529e+00	4.763403e+00
1.980000e-06	6.656436e-07	1.205242e-10	4.600881e+00	5.939443e+00
1.990000e-06	7.122832e-07	1.384904e-10	4.923250e+00	7.120797e+00
2.000000e-06	7.587959e-07	1.567175e-10	5.244742e+00	8.306502e+00
2.010000e-06	8.052646e-07	1.740847e-10	5.565931e+00	9.495568e+00
2.020000e-06	8.518419e-07	1.892898e-10	5.887870e+00	1.068698e+01
2.030000e-06	8.984177e-07	2.055016e-10	6.209798e+00	1.187972e+01
2.040000e-06	9.448441e-07	2.219607e-10	6.530694e+00	1.307273e+01
2.050000e-06	9.911365e-07	2.382517e-10	6.850664e+00	1.426497e+01
2.060000e-06	1.037311e-06	2.552413e-10	7.169817e+00	1.545537e+01
2.070000e-06	1.083454e-06	2.722690e-10	7.488753e+00	1.664288e+01
2.080000e-06	1.129559e-06	2.874408e-10	7.807427e+00	1.782645e+01
2.090000e-06	1.175560e-06	3.022786e-10	8.125386e+00	1.900503e+01
2.100000e-06	1.221399e-06	3.195001e-10	8.442224e+00	2.017758e+01
2.110000e-06	1.267187e-06	3.360100e-10	8.758702e+00	2.134311e+01
2.120000e-06	1.312903e-06	3.526918e-10	9.074690e+00	2.250062e+01
2.130000e-06	1.358462e-06	3.694296e-10	9.389591e+00	2.364915e+01
2.140000e-06	1.403996e-06	3.847970e-10	9.704321e+00	2.478778e+01
2.150000e-06	1.449477e-06	3.991957e-10	1.001868e+01	2.591559e+01
2.160000e-06	1.494820e-06	4.149549e-10	1.033209e+01	2.703175e+01
2.170000e-06	1.540006e-06	4.300632e-10	1.064441e+01	2.813544e+01
2.180000e-06	1.585049e-06	4.434963e-10	1.095574e+01	2.922589e+01
2.190000e-06	1.630058e-06	4.569460e-10	1.126684e+01	3.030238e+01
2.200000e-06	1.675008e-06	4.724842e-10	1.157753e+01	3.136424e+01
2.210000e-06	1.719818e-06	4.897799e-10	1.188726e+01	3.241085e+01
2.220000e-06	1.764461e-06	5.054441e-10	1.219582e+01	3.344167e+01
2.230000e-06	1.809014e-06	5.195246e-10	1.250377e+01	3.445617e+01
2.240000e-06	1.853508e-06	5.322556e-10	1.281131e+01	3.545392e+01
2.250000e-06	1.897835e-06	5.428711e-10	1.311770e+01	3.643452e+01
2.260000e-06	1.941941e-06	5.559176e-10	1.342256e+01	3.739764e+01
2.270000e-06	1.985922e-06	5.699622e-10	1.372655e+01	3.834300e+01
2.280000e-06	2.029863e-06	5.818950e-10	1.403026e+01	3.927038e+01
2.290000e-06	2.073767e-06	5.927369e-10	1.433373e+01	4.017963e+01
2.300000e-06	2.117635e-06	6.047647e-10	1.463694e+01	4.107063e+01
2.310000e-06	2.161402e-06	6.172720e-10	1.493946e+01	4.194332e+01
2.320000e-06	2.205077e-06	6.293156e-10	1.524133e+01	4.279771e+01
2.330000e-06	2.248590e-06	6.396505e-10	1.554209e+01	4.363383e+01
2.340000e-06	2.291993e-06	6.508279e-10	1.584209e+01	4.445178e+01
2.350000e-06	2.335289e-06	6.617511e-10	1.614135e+01	4.525168e+01
2.360000e-06	2.378333e-06	6.714280e-10	1.643887e+01	4.603371e+01
2.370000e-06	2.421157e-06	6.797708e-10	1.673486e+01	4.679807e+01
2.380000e-06	2.463764e-06	6.878746e-10	1.702936e+01	4.754502e+01
2.390000e-06	2.506081e-06	6.972877e-10	1.732185e+01	4.827481e+01
2.400000e-06	2.548023e-06	7.067190e-10	1.761175e+01	4.898775e+01
2.410000e-06	2.589655e-06	7.191345e-10	1.789951e+01	4.968416e+01
2.420000e-06	2.631074e-06	7.328321e-10	1.818579e+01	5.036438e+01
2.430000e-06	2.672200e-06	7.440583e-10	1.847006e+01	5.102876e+01
2.440000e-06	2.713048e-06	7.533797e-10	1.875239e+01	5.167766e+01
2.450000e-06	2.753698e-06	7.621359e-10	1.903336e+01	5.231147e+01
2.460000e-06	2.794131e-06	7.695192e-10	1.931283e+01	5.293055e+01
2.470000e-06	2.834284e-06	7.774543e-10	1.959036e+01	5.353528e+01
2.480000e-06	2.874198e-06	7.848785e-10	1.986625e+01	5.412604e+01
2.490000e-06	2.913971e-06	7.927405e-10	2.014116e+01	5.470321e+01
2.500000e-06	2.953651e-06	8.013622e-10	2.041542e+01	5.526714e+01
2.510000e-06	2.993278e-06	8.111020e-10	2.068932e+01	5.581819e+01
2.520000e-06	3.032738e-06	8.219287e-10	2.096206e+01	5.635669e+01
2.530000e-06	3.071966e-06	8.320796e-10	2.123321e+01	5.688297e+01
2.540000e-06	3.111049e-06	8.382359e-10	2.150334e+01	5.739735e+01
2.550000e-06	3.149875e-06	8.411195e-10	2.177171e+01	5.790010e+01
2.560000e-06	3.188529e-06	8.445028e-10	2.203888e+01	5.839151e+01
2.570000e-06	3.227001e-06	8.486108e-10	2.230479e+01	5.887182e+01
2.580000e-06	3.265182e-06	8.538586e-10	2.256870e+01	5.934127e+01
2.590000e-06	3.303133e-06	8.608691e-10	2.283102e+01	5.980007e+01
2.600000e-06	3.340835e-06	8.691634e-10	2.309161e+01	6.024840e+01
2.610000e-06	3.378435e-06	8.783443e-10	2.335150e+01	6.068644e+01
2.620000e-06	3.415834e-06	8.867680e-10	2.360999e+01	6.111435e+01
2.630000e-06	3.452843e-06	8.923904e-10	2.386580e+01	6.153224e+01
2.640000e-06	3.489496e-06	8.951059e-10	2.411914e+01	6.194024e+01
2.650000e-06	3.525923e-06	8.979350e-10	2.437093e+01	6.233844e+01
2.660000e-06	3.562097e-06	9.018660e-10	2.462096e+01	6.272693e+01
2.670000e-06	3.598025e-06	9.048920e-10	2.486929e+01	6.310576e+01
2.680000e-06	3.633823e-06	9.091045e-10	2.511672e+01	6.347502e+01
2.690000e-06	3.669514e-06	9.139734e-10	2.536342e+01	6.383472e+01
2.700000e-06	3.705087e-06	9.193116e-10	2.560929e+01	6.418493e+01
2.710000e-06	3.740492e-06	9.256997e-10	2.585401e+01	6.452566e+01
2.720000e-06	3.775694e-06	9.332028e-10	2.609733e+01	6.485696e+01
2.730000e-06	3.810626e-06	9.400838e-10	2.633877e+01	6.517884e+01
2.740000e-06	3.845186e-06	9.446033e-10	2.657765e+01	6.549133e+01
2.750000e-06	3.879229e-06	9.473085e-10	2.681295e+01	6.579447e+01
2.760000e-06	3.912719e-06	9.507559e-10	2.704443e+01	6.608829e+01
2.770000e-06	3.945742e-06	9.539537e-10	2.727268e+01	6.637282e+01
2.780000e-06	3.978331e-06	9.570886e-10	2.749793e+01	6.664811e+01
2.790000e-06	4.010558e-06	9.629914e-10	2.772069e+01	6.691422e+01
2.800000e-06	4.042539e-06	9.703455e-10	2.794174e+01	6.717122e+01
2.810000e-06	4.074395e-06	9.769639e-10	2.816192e+01	6.741918e+01
2.820000e-06	4.106150e-06	9.824689e-10	2.838141e+01	6.765818e+01
2.830000e-06	4.137715e-06	9.866276e-10	2.859959e+01	6.788834e+01
2.840000e-06	4.169137e-06	9.888922e-10	2.881677e+01	6.810978e+01
2.850000e-06	4.200303e-06	9.914670e-10	2.903219e+01	6.832261e+01
2.860000e-06	4.231072e-06	9.952876e-10	2.924486e+01	6.852699e+01
2.870000e-06	4.261496e-06	9.967457e-10	2.945515e+01	6.872309e+01
2.880000e-06	4.291566e-06	9.979862e-10	2.966299e+01	6.891107e+01
2.890000e-06	4.321329e-06	9.998916e-10	2.986871e+01	6.909112e+01
2.900000e-06	4.350800e-06	1.004745e-09	3.007241e+01	6.926345e+01
2.910000e-06	4.380035e-06	1.012247e-09	3.027448e+01	6.942827e+01
