# Temperatura_=_-0.3
# Concentracion g/m^3_=_1620.0
# C_Vs_to_Am_M_A/Vsm_=_65563218390.804596
# pendiente_HvsI_1/m_=_3716.3
# ordenada_HvsI_A/m_=_1297.0
# frecuencia_Hz_=_135111.70686757803

Tiempo_(s)	Campo_(V.s)	Magnetizacion_(V.s)	Campo_(kA/m)	Magnetizacion_(A/m)
0.000000e+00	-5.505514e-06	-1.170480e-09	-3.835877e+01	-7.744257e+01
1.000000e-08	-5.505760e-06	-1.168878e-09	-3.836048e+01	-7.745648e+01
2.000000e-08	-5.505728e-06	-1.170147e-09	-3.836026e+01	-7.746928e+01
3.000000e-08	-5.505359e-06	-1.172503e-09	-3.835769e+01	-7.748088e+01
4.000000e-08	-5.504577e-06	-1.171964e-09	-3.835224e+01	-7.749115e+01
5.000000e-08	-5.503157e-06	-1.168222e-09	-3.834235e+01	-7.749998e+01
6.000000e-08	-5.500983e-06	-1.152030e-09	-3.832720e+01	-7.750723e+01
7.000000e-08	-5.498205e-06	-1.123425e-09	-3.830784e+01	-7.751275e+01
8.000000e-08	-5.494981e-06	-1.136546e-09	-3.828538e+01	-7.751641e+01
9.000000e-08	-5.491381e-06	-1.223851e-09	-3.826030e+01	-7.751806e+01
1.000000e-07	-5.487292e-06	-1.267890e-09	-3.823181e+01	-7.751754e+01
1.100000e-07	-5.482772e-06	-1.165778e-09	-3.820031e+01	-7.751469e+01
1.200000e-07	-5.478110e-06	-1.058361e-09	-3.816783e+01	-7.750936e+01
1.300000e-07	-5.473374e-06	-1.106972e-09	-3.813484e+01	-7.750140e+01
1.400000e-07	-5.468293e-06	-1.228502e-09	-3.809943e+01	-7.749065e+01
1.500000e-07	-5.462696e-06	-1.175374e-09	-3.806044e+01	-7.747695e+01
1.600000e-07	-5.456748e-06	-1.078922e-09	-3.801899e+01	-7.746017e+01
1.700000e-07	-5.450472e-06	-1.127315e-09	-3.797527e+01	-7.744015e+01
1.800000e-07	-5.443738e-06	-1.256091e-09	-3.792835e+01	-7.741676e+01
1.900000e-07	-5.436539e-06	-1.208319e-09	-3.787819e+01	-7.738988e+01
2.000000e-07	-5.429023e-06	-1.086525e-09	-3.782583e+01	-7.735937e+01
2.100000e-07	-5.421276e-06	-1.112190e-09	-3.777185e+01	-7.732514e+01
2.200000e-07	-5.413273e-06	-1.240668e-09	-3.771610e+01	-7.728706e+01
2.300000e-07	-5.405040e-06	-1.268631e-09	-3.765873e+01	-7.724506e+01
2.400000e-07	-5.396472e-06	-1.202863e-09	-3.759904e+01	-7.719903e+01
2.500000e-07	-5.387209e-06	-1.194122e-09	-3.753450e+01	-7.714891e+01
2.600000e-07	-5.377112e-06	-1.235931e-09	-3.746415e+01	-7.709464e+01
2.700000e-07	-5.366394e-06	-1.235867e-09	-3.738947e+01	-7.703615e+01
2.800000e-07	-5.355246e-06	-1.193480e-09	-3.731180e+01	-7.697341e+01
2.900000e-07	-5.343712e-06	-1.206507e-09	-3.723144e+01	-7.690637e+01
3.000000e-07	-5.331850e-06	-1.232309e-09	-3.714879e+01	-7.683502e+01
3.100000e-07	-5.319598e-06	-1.221711e-09	-3.706343e+01	-7.675934e+01
3.200000e-07	-5.306868e-06	-1.175705e-09	-3.697474e+01	-7.667933e+01
3.300000e-07	-5.293728e-06	-1.194395e-09	-3.688318e+01	-7.659498e+01
3.400000e-07	-5.280285e-06	-1.218512e-09	-3.678952e+01	-7.650632e+01
3.500000e-07	-5.266479e-06	-1.198631e-09	-3.669333e+01	-7.641335e+01
3.600000e-07	-5.252197e-06	-1.157976e-09	-3.659382e+01	-7.631611e+01
3.700000e-07	-5.237590e-06	-1.193954e-09	-3.649205e+01	-7.621462e+01
3.800000e-07	-5.222556e-06	-1.202546e-09	-3.638730e+01	-7.610893e+01
3.900000e-07	-5.206822e-06	-1.160291e-09	-3.627768e+01	-7.599908e+01
4.000000e-07	-5.190487e-06	-1.159386e-09	-3.616387e+01	-7.588512e+01
4.100000e-07	-5.173788e-06	-1.214893e-09	-3.604752e+01	-7.576710e+01
4.200000e-07	-5.156811e-06	-1.177744e-09	-3.592924e+01	-7.564507e+01
4.300000e-07	-5.139483e-06	-1.124475e-09	-3.580850e+01	-7.551909e+01
4.400000e-07	-5.121829e-06	-1.180193e-09	-3.568550e+01	-7.538923e+01
4.500000e-07	-5.103865e-06	-1.208924e-09	-3.556034e+01	-7.525555e+01
4.600000e-07	-5.085480e-06	-1.130623e-09	-3.543225e+01	-7.511811e+01
4.700000e-07	-5.066666e-06	-1.123492e-09	-3.530117e+01	-7.497698e+01
4.800000e-07	-5.047462e-06	-1.188510e-09	-3.516736e+01	-7.483222e+01
4.900000e-07	-5.027931e-06	-1.157931e-09	-3.503129e+01	-7.468391e+01
5.000000e-07	-5.008212e-06	-1.118883e-09	-3.489389e+01	-7.453210e+01
5.100000e-07	-4.988348e-06	-1.161368e-09	-3.475549e+01	-7.437687e+01
5.200000e-07	-4.968166e-06	-1.154153e-09	-3.461488e+01	-7.421829e+01
5.300000e-07	-4.947597e-06	-1.100028e-09	-3.447157e+01	-7.405643e+01
5.400000e-07	-4.926679e-06	-1.143907e-09	-3.432583e+01	-7.389135e+01
5.500000e-07	-4.905392e-06	-1.173668e-09	-3.417751e+01	-7.372313e+01
5.600000e-07	-4.883798e-06	-1.112802e-09	-3.402706e+01	-7.355183e+01
5.700000e-07	-4.861887e-06	-1.099207e-09	-3.387440e+01	-7.337754e+01
5.800000e-07	-4.839700e-06	-1.147604e-09	-3.371982e+01	-7.320031e+01
5.900000e-07	-4.817142e-06	-1.117890e-09	-3.356265e+01	-7.302023e+01
6.000000e-07	-4.794117e-06	-1.087464e-09	-3.340223e+01	-7.283736e+01
6.100000e-07	-4.770776e-06	-1.119917e-09	-3.323960e+01	-7.265179e+01
6.200000e-07	-4.747179e-06	-1.123973e-09	-3.307519e+01	-7.246360e+01
6.300000e-07	-4.723418e-06	-1.088708e-09	-3.290964e+01	-7.227285e+01
6.400000e-07	-4.699513e-06	-1.103167e-09	-3.274308e+01	-7.207963e+01
6.500000e-07	-4.675281e-06	-1.115092e-09	-3.257425e+01	-7.188403e+01
6.600000e-07	-4.650601e-06	-1.093653e-09	-3.240230e+01	-7.168613e+01
6.700000e-07	-4.625406e-06	-1.089819e-09	-3.222676e+01	-7.148600e+01
6.800000e-07	-4.599635e-06	-1.101534e-09	-3.204720e+01	-7.128375e+01
6.900000e-07	-4.573175e-06	-1.085289e-09	-3.186285e+01	-7.107944e+01
7.000000e-07	-4.546188e-06	-1.077512e-09	-3.167482e+01	-7.087319e+01
7.100000e-07	-4.518895e-06	-1.084554e-09	-3.148466e+01	-7.066506e+01
7.200000e-07	-4.491351e-06	-1.080313e-09	-3.129275e+01	-7.045515e+01
7.300000e-07	-4.463664e-06	-1.070200e-09	-3.109985e+01	-7.024355e+01
7.400000e-07	-4.435822e-06	-1.073987e-09	-3.090586e+01	-7.003034e+01
7.500000e-07	-4.407814e-06	-1.073921e-09	-3.071072e+01	-6.981560e+01
7.600000e-07	-4.379611e-06	-1.066283e-09	-3.051422e+01	-6.959942e+01
7.700000e-07	-4.351010e-06	-1.062341e-09	-3.031495e+01	-6.938187e+01
7.800000e-07	-4.322024e-06	-1.057081e-09	-3.011299e+01	-6.916303e+01
7.900000e-07	-4.292794e-06	-1.051869e-09	-2.990934e+01	-6.894296e+01
8.000000e-07	-4.263299e-06	-1.051374e-09	-2.970384e+01	-6.872172e+01
8.100000e-07	-4.233516e-06	-1.049241e-09	-2.949633e+01	-6.849936e+01
8.200000e-07	-4.203371e-06	-1.042133e-09	-2.928630e+01	-6.827594e+01
8.300000e-07	-4.172841e-06	-1.043253e-09	-2.907358e+01	-6.805147e+01
8.400000e-07	-4.142047e-06	-1.043911e-09	-2.885903e+01	-6.782600e+01
8.500000e-07	-4.110977e-06	-1.036580e-09	-2.864256e+01	-6.759952e+01
8.600000e-07	-4.079642e-06	-1.026584e-09	-2.842424e+01	-6.737204e+01
8.700000e-07	-4.048168e-06	-1.023045e-09	-2.820495e+01	-6.714355e+01
8.800000e-07	-4.016578e-06	-1.013864e-09	-2.798485e+01	-6.691402e+01
8.900000e-07	-3.984850e-06	-1.006015e-09	-2.776379e+01	-6.668341e+01
9.000000e-07	-3.952908e-06	-1.004304e-09	-2.754124e+01	-6.645166e+01
9.100000e-07	-3.920679e-06	-1.001874e-09	-2.731669e+01	-6.621870e+01
9.200000e-07	-3.888117e-06	-9.926679e-10	-2.708981e+01	-6.598444e+01
9.300000e-07	-3.855105e-06	-9.935666e-10	-2.685981e+01	-6.574878e+01
9.400000e-07	-3.821547e-06	-9.945155e-10	-2.662600e+01	-6.551158e+01
9.500000e-07	-3.787472e-06	-9.857730e-10	-2.638859e+01	-6.527273e+01
9.600000e-07	-3.752997e-06	-9.761833e-10	-2.614839e+01	-6.503205e+01
9.700000e-07	-3.718128e-06	-9.756068e-10	-2.590544e+01	-6.478939e+01
9.800000e-07	-3.682904e-06	-9.692762e-10	-2.566003e+01	-6.454455e+01
9.900000e-07	-3.647503e-06	-9.629744e-10	-2.541338e+01	-6.429734e+01
1.000000e-06	-3.611952e-06	-9.633420e-10	-2.516568e+01	-6.404754e+01
1.010000e-06	-3.576270e-06	-9.608738e-10	-2.491707e+01	-6.379494e+01
1.020000e-06	-3.540468e-06	-9.502108e-10	-2.466763e+01	-6.353928e+01
1.030000e-06	-3.504554e-06	-9.438626e-10	-2.441741e+01	-6.328032e+01
1.040000e-06	-3.468466e-06	-9.422345e-10	-2.416597e+01	-6.301781e+01
1.050000e-06	-3.432117e-06	-9.360627e-10	-2.391271e+01	-6.275147e+01
1.060000e-06	-3.395483e-06	-9.290078e-10	-2.365747e+01	-6.248106e+01
1.070000e-06	-3.358535e-06	-9.260982e-10	-2.340004e+01	-6.220627e+01
1.080000e-06	-3.321293e-06	-9.234379e-10	-2.314056e+01	-6.192686e+01
1.090000e-06	-3.283786e-06	-9.184877e-10	-2.287924e+01	-6.164252e+01
1.100000e-06	-3.246090e-06	-9.117531e-10	-2.261660e+01	-6.135301e+01
1.110000e-06	-3.208242e-06	-9.003736e-10	-2.235290e+01	-6.105803e+01
1.120000e-06	-3.170191e-06	-8.882935e-10	-2.208779e+01	-6.075732e+01
1.130000e-06	-3.131901e-06	-8.813694e-10	-2.182101e+01	-6.045064e+01
1.140000e-06	-3.093359e-06	-8.804885e-10	-2.155247e+01	-6.013772e+01
1.150000e-06	-3.054523e-06	-8.775709e-10	-2.128189e+01	-5.981833e+01
1.160000e-06	-3.015413e-06	-8.744608e-10	-2.100940e+01	-5.949223e+01
1.170000e-06	-2.976181e-06	-8.707805e-10	-2.073606e+01	-5.915923e+01
1.180000e-06	-2.936801e-06	-8.642975e-10	-2.046168e+01	-5.881910e+01
1.190000e-06	-2.897216e-06	-8.546119e-10	-2.018587e+01	-5.847168e+01
1.200000e-06	-2.857548e-06	-8.474854e-10	-1.990950e+01	-5.811680e+01
1.210000e-06	-2.817817e-06	-8.410755e-10	-1.963268e+01	-5.775430e+01
1.220000e-06	-2.777966e-06	-8.357853e-10	-1.935502e+01	-5.738405e+01
1.230000e-06	-2.737945e-06	-8.312110e-10	-1.907619e+01	-5.700594e+01
1.240000e-06	-2.697677e-06	-8.287970e-10	-1.879562e+01	-5.661988e+01
1.250000e-06	-2.657291e-06	-8.258405e-10	-1.851424e+01	-5.622578e+01
1.260000e-06	-2.616750e-06	-8.232287e-10	-1.823178e+01	-5.582359e+01
1.270000e-06	-2.575896e-06	-8.200090e-10	-1.794713e+01	-5.541327e+01
1.280000e-06	-2.534817e-06	-8.133605e-10	-1.766092e+01	-5.499478e+01
1.290000e-06	-2.493450e-06	-8.014105e-10	-1.737270e+01	-5.456811e+01
1.300000e-06	-2.451730e-06	-7.888750e-10	-1.708203e+01	-5.413326e+01
1.310000e-06	-2.409682e-06	-7.804869e-10	-1.678907e+01	-5.369025e+01
1.320000e-06	-2.367315e-06	-7.771882e-10	-1.649388e+01	-5.323909e+01
1.330000e-06	-2.324641e-06	-7.779328e-10	-1.619656e+01	-5.277981e+01
1.340000e-06	-2.281716e-06	-7.813135e-10	-1.589748e+01	-5.231245e+01
1.350000e-06	-2.238585e-06	-7.802942e-10	-1.559697e+01	-5.183705e+01
1.360000e-06	-2.195259e-06	-7.708793e-10	-1.529511e+01	-5.135363e+01
1.370000e-06	-2.151806e-06	-7.584638e-10	-1.499235e+01	-5.086223e+01
1.380000e-06	-2.108235e-06	-7.464100e-10	-1.468878e+01	-5.036288e+01
1.390000e-06	-2.064549e-06	-7.353698e-10	-1.438441e+01	-4.985561e+01
1.400000e-06	-2.020794e-06	-7.271761e-10	-1.407955e+01	-4.934042e+01
1.410000e-06	-1.976957e-06	-7.221939e-10	-1.377413e+01	-4.881730e+01
1.420000e-06	-1.933067e-06	-7.174767e-10	-1.346833e+01	-4.828625e+01
1.430000e-06	-1.889147e-06	-7.134336e-10	-1.316232e+01	-4.774722e+01
1.440000e-06	-1.845118e-06	-7.069073e-10	-1.285556e+01	-4.720015e+01
1.450000e-06	-1.800958e-06	-6.947763e-10	-1.254788e+01	-4.664496e+01
1.460000e-06	-1.756717e-06	-6.786824e-10	-1.223964e+01	-4.608155e+01
1.470000e-06	-1.712360e-06	-6.641864e-10	-1.193059e+01	-4.550978e+01
1.480000e-06	-1.667792e-06	-6.522918e-10	-1.162006e+01	-4.492948e+01
1.490000e-06	-1.623123e-06	-6.423704e-10	-1.130884e+01	-4.434046e+01
1.500000e-06	-1.578421e-06	-6.353539e-10	-1.099739e+01	-4.374251e+01
1.510000e-06	-1.533551e-06	-6.286109e-10	-1.068477e+01	-4.313536e+01
1.520000e-06	-1.488498e-06	-6.164819e-10	-1.037087e+01	-4.251872e+01
1.530000e-06	-1.443381e-06	-6.011210e-10	-1.005652e+01	-4.189228e+01
1.540000e-06	-1.398198e-06	-5.856959e-10	-9.741713e+00	-4.125569e+01
1.550000e-06	-1.352933e-06	-5.718795e-10	-9.426336e+00	-4.060856e+01
1.560000e-06	-1.307563e-06	-5.583268e-10	-9.110232e+00	-3.995048e+01
1.570000e-06	-1.262016e-06	-5.471183e-10	-8.792892e+00	-3.928102e+01
1.580000e-06	-1.216400e-06	-5.384891e-10	-8.475068e+00	-3.859971e+01
1.590000e-06	-1.170790e-06	-5.273750e-10	-8.157286e+00	-3.790608e+01
1.600000e-06	-1.125133e-06	-5.127152e-10	-7.839179e+00	-3.719960e+01
1.610000e-06	-1.079378e-06	-4.990838e-10	-7.520388e+00	-3.647977e+01
1.620000e-06	-1.033509e-06	-4.875176e-10	-7.200805e+00	-3.574605e+01
1.630000e-06	-9.874754e-07	-4.766288e-10	-6.880073e+00	-3.499789e+01
1.640000e-06	-9.413969e-07	-4.650064e-10	-6.559029e+00	-3.423474e+01
1.650000e-06	-8.953162e-07	-4.514824e-10	-6.237969e+00	-3.345607e+01
1.660000e-06	-8.491009e-07	-4.371489e-10	-5.915971e+00	-3.266131e+01
1.670000e-06	-8.028433e-07	-4.235182e-10	-5.593679e+00	-3.184994e+01
1.680000e-06	-7.566356e-07	-4.100759e-10	-5.271735e+00	-3.102145e+01
1.690000e-06	-7.104301e-07	-3.961656e-10	-4.949805e+00	-3.017532e+01
1.700000e-06	-6.641388e-07	-3.840293e-10	-4.627278e+00	-2.931108e+01
1.710000e-06	-6.177776e-07	-3.715197e-10	-4.304264e+00	-2.842830e+01
1.720000e-06	-5.712850e-07	-3.573427e-10	-3.980335e+00	-2.752656e+01
1.730000e-06	-5.246354e-07	-3.438540e-10	-3.655311e+00	-2.660549e+01
1.740000e-06	-4.779328e-07	-3.308484e-10	-3.329918e+00	-2.566477e+01
1.750000e-06	-4.312310e-07	-3.163652e-10	-3.004532e+00	-2.470413e+01
1.760000e-06	-3.845613e-07	-3.006838e-10	-2.679368e+00	-2.372336e+01
1.770000e-06	-3.379169e-07	-2.850773e-10	-2.354381e+00	-2.272230e+01
1.780000e-06	-2.912521e-07	-2.727587e-10	-2.029251e+00	-2.170086e+01
1.790000e-06	-2.445477e-07	-2.601049e-10	-1.703846e+00	-2.065901e+01
1.800000e-06	-1.977944e-07	-2.431185e-10	-1.378100e+00	-1.959681e+01
1.810000e-06	-1.510537e-07	-2.246809e-10	-1.052442e+00	-1.851437e+01
1.820000e-06	-1.043520e-07	-2.075190e-10	-7.270554e-01	-1.741189e+01
1.830000e-06	-5.761786e-08	-1.916584e-10	-4.014430e-01	-1.628966e+01
1.840000e-06	-1.086477e-08	-1.768776e-10	-7.569851e-02	-1.514801e+01
1.850000e-06	3.587451e-08	-1.625994e-10	2.499497e-01	-1.398740e+01
1.860000e-06	8.257300e-08	-1.492552e-10	5.753139e-01	-1.280833e+01
1.870000e-06	1.292668e-07	-1.352995e-10	9.006451e-01	-1.161141e+01
1.880000e-06	1.759779e-07	-1.182184e-10	1.226097e+00	-1.039731e+01
1.890000e-06	2.226466e-07	-9.865354e-11	1.551254e+00	-9.166796e+00
1.900000e-06	2.692801e-07	-7.935923e-11	1.876165e+00	-7.920689e+00
1.910000e-06	3.159490e-07	-6.274364e-11	2.201323e+00	-6.659897e+00
1.920000e-06	3.626815e-07	-4.759439e-11	2.526924e+00	-5.385398e+00
1.930000e-06	4.093364e-07	-3.165067e-11	2.851985e+00	-4.098233e+00
1.940000e-06	4.558862e-07	-1.632289e-11	3.176312e+00	-2.799508e+00
1.950000e-06	5.023915e-07	-2.333634e-12	3.500331e+00	-1.490386e+00
1.960000e-06	5.488327e-07	1.316130e-11	3.823902e+00	-1.720818e-01
1.970000e-06	5.951730e-07	3.071047e-11	4.146771e+00	1.154142e+00
1.980000e-06	6.414292e-07	4.957516e-11	4.469053e+00	2.486981e+00
1.990000e-06	6.876789e-07	7.016906e-11	4.791290e+00	3.825096e+00
2.000000e-06	7.339011e-07	9.166594e-11	5.113335e+00	5.167121e+00
2.010000e-06	7.801144e-07	1.111321e-10	5.435319e+00	6.511666e+00
2.020000e-06	8.262170e-07	1.286635e-10	5.756531e+00	7.857327e+00
2.030000e-06	8.723093e-07	1.455026e-10	6.077672e+00	9.202693e+00
2.040000e-06	9.184036e-07	1.625426e-10	6.398826e+00	1.054635e+01
2.050000e-06	9.643510e-07	1.796041e-10	6.718958e+00	1.188690e+01
2.060000e-06	1.010255e-06	1.968522e-10	7.038784e+00	1.322294e+01
2.070000e-06	1.056111e-06	2.164667e-10	7.358282e+00	1.455310e+01
2.080000e-06	1.101902e-06	2.377114e-10	7.677320e+00	1.587604e+01
2.090000e-06	1.147650e-06	2.577333e-10	7.996066e+00	1.719044e+01
2.100000e-06	1.193285e-06	2.771058e-10	8.314018e+00	1.849504e+01
2.110000e-06	1.238829e-06	2.945042e-10	8.631338e+00	1.978860e+01
2.120000e-06	1.284290e-06	3.102719e-10	8.948079e+00	2.106996e+01
2.130000e-06	1.329565e-06	3.260618e-10	9.263526e+00	2.233800e+01
2.140000e-06	1.374730e-06	3.421251e-10	9.578208e+00	2.359165e+01
2.150000e-06	1.419810e-06	3.595524e-10	9.892296e+00	2.482993e+01
2.160000e-06	1.464747e-06	3.772032e-10	1.020538e+01	2.605192e+01
2.170000e-06	1.509560e-06	3.956767e-10	1.051762e+01	2.725676e+01
2.180000e-06	1.554376e-06	4.148550e-10	1.082986e+01	2.844368e+01
2.190000e-06	1.599153e-06	4.332826e-10	1.114184e+01	2.961199e+01
2.200000e-06	1.643750e-06	4.495669e-10	1.145256e+01	3.076107e+01
2.210000e-06	1.688193e-06	4.633744e-10	1.176221e+01	3.189037e+01
2.220000e-06	1.732517e-06	4.777131e-10	1.207103e+01	3.299944e+01
2.230000e-06	1.776740e-06	4.923917e-10	1.237915e+01	3.408790e+01
2.240000e-06	1.820851e-06	5.057623e-10	1.268648e+01	3.515544e+01
2.250000e-06	1.864839e-06	5.190090e-10	1.299296e+01	3.620184e+01
2.260000e-06	1.908730e-06	5.332270e-10	1.329876e+01	3.722696e+01
2.270000e-06	1.952566e-06	5.479320e-10	1.360419e+01	3.823072e+01
2.280000e-06	1.996355e-06	5.630889e-10	1.390928e+01	3.921311e+01
2.290000e-06	2.040075e-06	5.781499e-10	1.421389e+01	4.017419e+01
2.300000e-06	2.083741e-06	5.916204e-10	1.451812e+01	4.111409e+01
2.310000e-06	2.127318e-06	6.047877e-10	1.482174e+01	4.203300e+01
2.320000e-06	2.170766e-06	6.179547e-10	1.512446e+01	4.293114e+01
2.330000e-06	2.214132e-06	6.295744e-10	1.542660e+01	4.380881e+01
2.340000e-06	2.257443e-06	6.400151e-10	1.572836e+01	4.466635e+01
2.350000e-06	2.300596e-06	6.516776e-10	1.602902e+01	4.550411e+01
2.360000e-06	2.343461e-06	6.647221e-10	1.632768e+01	4.632252e+01
2.370000e-06	2.386032e-06	6.770651e-10	1.662429e+01	4.712201e+01
2.380000e-06	2.428313e-06	6.890886e-10	1.691888e+01	4.790303e+01
2.390000e-06	2.470284e-06	7.024940e-10	1.721130e+01	4.866607e+01
2.400000e-06	2.511896e-06	7.150610e-10	1.750122e+01	4.941163e+01
2.410000e-06	2.553203e-06	7.266223e-10	1.778903e+01	5.014021e+01
2.420000e-06	2.594230e-06	7.388700e-10	1.807487e+01	5.085230e+01
2.430000e-06	2.634903e-06	7.492421e-10	1.835825e+01	5.154843e+01
2.440000e-06	2.675322e-06	7.579491e-10	1.863987e+01	5.222909e+01
2.450000e-06	2.715587e-06	7.675954e-10	1.892041e+01	5.289477e+01
2.460000e-06	2.755673e-06	7.776825e-10	1.919970e+01	5.354595e+01
2.470000e-06	2.795582e-06	7.862126e-10	1.947776e+01	5.418309e+01
2.480000e-06	2.835378e-06	7.941678e-10	1.975503e+01	5.480664e+01
2.490000e-06	2.875041e-06	8.023962e-10	2.003138e+01	5.541701e+01
2.500000e-06	2.914572e-06	8.111865e-10	2.030680e+01	5.601460e+01
2.510000e-06	2.953994e-06	8.204071e-10	2.058147e+01	5.659977e+01
2.520000e-06	2.993226e-06	8.291792e-10	2.085481e+01	5.717288e+01
2.530000e-06	3.032292e-06	8.368556e-10	2.112700e+01	5.773422e+01
2.540000e-06	3.071121e-06	8.421465e-10	2.139753e+01	5.828409e+01
2.550000e-06	3.109587e-06	8.448561e-10	2.166554e+01	5.882272e+01
2.560000e-06	3.147867e-06	8.492860e-10	2.193224e+01	5.935035e+01
2.570000e-06	3.186043e-06	8.562815e-10	2.219823e+01	5.986717e+01
2.580000e-06	3.224027e-06	8.632673e-10	2.246288e+01	6.037333e+01
2.590000e-06	3.261788e-06	8.722094e-10	2.272597e+01	6.086898e+01
2.600000e-06	3.299336e-06	8.808115e-10	2.298759e+01	6.135423e+01
2.610000e-06	3.336656e-06	8.898816e-10	2.324760e+01	6.182916e+01
2.620000e-06	3.373775e-06	8.963883e-10	2.350623e+01	6.229384e+01
2.630000e-06	3.410651e-06	9.003503e-10	2.376315e+01	6.274832e+01
2.640000e-06	3.447183e-06	9.039850e-10	2.401768e+01	6.319262e+01
2.650000e-06	3.483444e-06	9.081747e-10	2.427032e+01	6.362677e+01
2.660000e-06	3.519513e-06	9.156249e-10	2.452163e+01	6.405077e+01
2.670000e-06	3.555385e-06	9.230350e-10	2.477156e+01	6.446461e+01
2.680000e-06	3.591110e-06	9.291365e-10	2.502047e+01	6.486828e+01
2.690000e-06	3.626760e-06	9.347540e-10	2.526885e+01	6.526178e+01
2.700000e-06	3.662325e-06	9.405375e-10	2.551665e+01	6.564509e+01
2.710000e-06	3.697733e-06	9.456712e-10	2.576335e+01	6.601820e+01
2.720000e-06	3.732832e-06	9.541191e-10	2.600790e+01	6.638111e+01
2.730000e-06	3.767578e-06	9.643531e-10	2.624998e+01	6.673383e+01
2.740000e-06	3.801892e-06	9.720632e-10	2.648906e+01	6.707637e+01
2.750000e-06	3.835671e-06	9.763468e-10	2.672441e+01	6.740876e+01
2.760000e-06	3.868935e-06	9.775054e-10	2.695617e+01	6.773104e+01
2.770000e-06	3.901735e-06	9.799915e-10	2.718470e+01	6.804328e+01
2.780000e-06	3.934201e-06	9.853352e-10	2.741090e+01	6.834555e+01
2.790000e-06	3.966402e-06	9.927345e-10	2.763526e+01	6.863794e+01
2.800000e-06	3.998337e-06	1.002890e-09	2.785776e+01	6.892058e+01
2.810000e-06	4.030109e-06	1.011950e-09	2.807913e+01	6.919361e+01
2.820000e-06	4.061770e-06	1.018233e-09	2.829971e+01	6.945717e+01
2.830000e-06	4.093252e-06	1.021270e-09	2.851906e+01	6.971146e+01
2.840000e-06	4.124472e-06	1.022679e-09	2.873659e+01	6.995666e+01
2.850000e-06	4.155331e-06	1.024365e-09	2.895159e+01	7.019301e+01
2.860000e-06	4.185921e-06	1.027846e-09	2.916472e+01	7.042073e+01
2.870000e-06	4.216226e-06	1.031706e-09	2.937586e+01	7.064010e+01
2.880000e-06	4.246186e-06	1.035728e-09	2.958460e+01	7.085137e+01
2.890000e-06	4.275849e-06	1.041670e-09	2.979128e+01	7.105485e+01
2.900000e-06	4.305213e-06	1.048472e-09	2.999587e+01	7.125084e+01
