# Temperatura_=_-0.2
# Concentracion g/m^3_=_1620.0
# C_Vs_to_Am_M_A/Vsm_=_65563218390.804596
# pendiente_HvsI_1/m_=_3716.3
# ordenada_HvsI_A/m_=_1297.0
# frecuencia_Hz_=_135107.7689593625

Tiempo_(s)	Campo_(V.s)	Magnetizacion_(V.s)	Campo_(kA/m)	Magnetizacion_(A/m)
0.000000e+00	-5.525412e-06	-1.278002e-09	-3.837229e+01	-8.342307e+01
1.000000e-08	-5.525607e-06	-1.276332e-09	-3.837365e+01	-8.341349e+01
2.000000e-08	-5.525468e-06	-1.273932e-09	-3.837268e+01	-8.340293e+01
3.000000e-08	-5.524937e-06	-1.267884e-09	-3.836899e+01	-8.339139e+01
4.000000e-08	-5.523773e-06	-1.261346e-09	-3.836091e+01	-8.337886e+01
5.000000e-08	-5.521932e-06	-1.257914e-09	-3.834813e+01	-8.336535e+01
6.000000e-08	-5.519592e-06	-1.248523e-09	-3.833188e+01	-8.335080e+01
7.000000e-08	-5.516781e-06	-1.243760e-09	-3.831236e+01	-8.333519e+01
8.000000e-08	-5.513498e-06	-1.279426e-09	-3.828956e+01	-8.331844e+01
9.000000e-08	-5.509803e-06	-1.313019e-09	-3.826389e+01	-8.330049e+01
1.000000e-07	-5.505668e-06	-1.259586e-09	-3.823518e+01	-8.328127e+01
1.100000e-07	-5.501218e-06	-1.209137e-09	-3.820427e+01	-8.326067e+01
1.200000e-07	-5.496569e-06	-1.204602e-09	-3.817199e+01	-8.323860e+01
1.300000e-07	-5.491618e-06	-1.251968e-09	-3.813760e+01	-8.321495e+01
1.400000e-07	-5.486277e-06	-1.240907e-09	-3.810051e+01	-8.318961e+01
1.500000e-07	-5.480566e-06	-1.206234e-09	-3.806085e+01	-8.316245e+01
1.600000e-07	-5.474458e-06	-1.248019e-09	-3.801843e+01	-8.313335e+01
1.700000e-07	-5.467897e-06	-1.289071e-09	-3.797287e+01	-8.310219e+01
1.800000e-07	-5.460948e-06	-1.290287e-09	-3.792461e+01	-8.306882e+01
1.900000e-07	-5.453694e-06	-1.233341e-09	-3.787424e+01	-8.303313e+01
2.000000e-07	-5.446185e-06	-1.235019e-09	-3.782209e+01	-8.299498e+01
2.100000e-07	-5.438371e-06	-1.254754e-09	-3.776782e+01	-8.295424e+01
2.200000e-07	-5.430329e-06	-1.275962e-09	-3.771197e+01	-8.291077e+01
2.300000e-07	-5.421969e-06	-1.261223e-09	-3.765391e+01	-8.286447e+01
2.400000e-07	-5.412996e-06	-1.281295e-09	-3.759160e+01	-8.281519e+01
2.500000e-07	-5.403244e-06	-1.301060e-09	-3.752387e+01	-8.276282e+01
2.600000e-07	-5.392792e-06	-1.294084e-09	-3.745129e+01	-8.270725e+01
2.700000e-07	-5.381818e-06	-1.259003e-09	-3.737508e+01	-8.264836e+01
2.800000e-07	-5.370371e-06	-1.257885e-09	-3.729558e+01	-8.258606e+01
2.900000e-07	-5.358629e-06	-1.285619e-09	-3.721404e+01	-8.252024e+01
3.000000e-07	-5.346607e-06	-1.289064e-09	-3.713054e+01	-8.245082e+01
3.100000e-07	-5.334135e-06	-1.273738e-09	-3.704393e+01	-8.237770e+01
3.200000e-07	-5.321193e-06	-1.278156e-09	-3.695406e+01	-8.230080e+01
3.300000e-07	-5.307867e-06	-1.302120e-09	-3.686151e+01	-8.222005e+01
3.400000e-07	-5.294175e-06	-1.280190e-09	-3.676642e+01	-8.213538e+01
3.500000e-07	-5.280035e-06	-1.259714e-09	-3.666823e+01	-8.204673e+01
3.600000e-07	-5.265471e-06	-1.278245e-09	-3.656708e+01	-8.195404e+01
3.700000e-07	-5.250542e-06	-1.291584e-09	-3.646340e+01	-8.185725e+01
3.800000e-07	-5.235066e-06	-1.258279e-09	-3.635593e+01	-8.175633e+01
3.900000e-07	-5.218976e-06	-1.264376e-09	-3.624419e+01	-8.165123e+01
4.000000e-07	-5.202441e-06	-1.286055e-09	-3.612936e+01	-8.154192e+01
4.100000e-07	-5.185567e-06	-1.261638e-09	-3.601217e+01	-8.142836e+01
4.200000e-07	-5.168393e-06	-1.234089e-09	-3.589291e+01	-8.131052e+01
4.300000e-07	-5.150987e-06	-1.273968e-09	-3.577203e+01	-8.118839e+01
4.400000e-07	-5.133302e-06	-1.269671e-09	-3.564921e+01	-8.106194e+01
4.500000e-07	-5.115172e-06	-1.226706e-09	-3.552331e+01	-8.093116e+01
4.600000e-07	-5.096534e-06	-1.233534e-09	-3.539387e+01	-8.079604e+01
4.700000e-07	-5.077489e-06	-1.260499e-09	-3.526160e+01	-8.065657e+01
4.800000e-07	-5.058161e-06	-1.226198e-09	-3.512738e+01	-8.051275e+01
4.900000e-07	-5.038645e-06	-1.227883e-09	-3.499184e+01	-8.036457e+01
5.000000e-07	-5.018986e-06	-1.257500e-09	-3.485532e+01	-8.021204e+01
5.100000e-07	-4.999072e-06	-1.231423e-09	-3.471702e+01	-8.005518e+01
5.200000e-07	-4.978791e-06	-1.202226e-09	-3.457618e+01	-7.989399e+01
5.300000e-07	-4.958128e-06	-1.237337e-09	-3.443268e+01	-7.972849e+01
5.400000e-07	-4.937033e-06	-1.230480e-09	-3.428618e+01	-7.955870e+01
5.500000e-07	-4.915539e-06	-1.190673e-09	-3.413691e+01	-7.938464e+01
5.600000e-07	-4.893770e-06	-1.205339e-09	-3.398573e+01	-7.920636e+01
5.700000e-07	-4.871671e-06	-1.224868e-09	-3.383226e+01	-7.902389e+01
5.800000e-07	-4.849154e-06	-1.198178e-09	-3.367589e+01	-7.883727e+01
5.900000e-07	-4.826338e-06	-1.195630e-09	-3.351744e+01	-7.864655e+01
6.000000e-07	-4.803235e-06	-1.211348e-09	-3.335700e+01	-7.845179e+01
6.100000e-07	-4.779823e-06	-1.192438e-09	-3.319440e+01	-7.825305e+01
6.200000e-07	-4.756168e-06	-1.178237e-09	-3.303013e+01	-7.805040e+01
6.300000e-07	-4.732298e-06	-1.184577e-09	-3.286436e+01	-7.784392e+01
6.400000e-07	-4.708219e-06	-1.180095e-09	-3.269714e+01	-7.763369e+01
6.500000e-07	-4.683804e-06	-1.172598e-09	-3.252758e+01	-7.741980e+01
6.600000e-07	-4.658819e-06	-1.179985e-09	-3.235407e+01	-7.720236e+01
6.700000e-07	-4.633187e-06	-1.172170e-09	-3.217606e+01	-7.698146e+01
6.800000e-07	-4.606951e-06	-1.162290e-09	-3.199386e+01	-7.675723e+01
6.900000e-07	-4.580147e-06	-1.159976e-09	-3.180772e+01	-7.652977e+01
7.000000e-07	-4.552981e-06	-1.156711e-09	-3.161906e+01	-7.629921e+01
7.100000e-07	-4.525646e-06	-1.150847e-09	-3.142923e+01	-7.606569e+01
7.200000e-07	-4.498160e-06	-1.154264e-09	-3.123834e+01	-7.582933e+01
7.300000e-07	-4.470478e-06	-1.151370e-09	-3.104610e+01	-7.559028e+01
7.400000e-07	-4.442580e-06	-1.150225e-09	-3.085236e+01	-7.534868e+01
7.500000e-07	-4.414443e-06	-1.146849e-09	-3.065696e+01	-7.510467e+01
7.600000e-07	-4.386046e-06	-1.138546e-09	-3.045974e+01	-7.485840e+01
7.700000e-07	-4.357351e-06	-1.125937e-09	-3.026047e+01	-7.461001e+01
7.800000e-07	-4.328356e-06	-1.126830e-09	-3.005910e+01	-7.435965e+01
7.900000e-07	-4.299062e-06	-1.125274e-09	-2.985567e+01	-7.410745e+01
8.000000e-07	-4.269408e-06	-1.121194e-09	-2.964973e+01	-7.385356e+01
8.100000e-07	-4.239429e-06	-1.119489e-09	-2.944154e+01	-7.359809e+01
8.200000e-07	-4.209184e-06	-1.121887e-09	-2.923149e+01	-7.334118e+01
8.300000e-07	-4.178621e-06	-1.115374e-09	-2.901924e+01	-7.308294e+01
8.400000e-07	-4.147726e-06	-1.108796e-09	-2.880469e+01	-7.282348e+01
8.500000e-07	-4.116551e-06	-1.105771e-09	-2.858819e+01	-7.256287e+01
8.600000e-07	-4.085209e-06	-1.100807e-09	-2.837052e+01	-7.230122e+01
8.700000e-07	-4.053717e-06	-1.093088e-09	-2.815183e+01	-7.203857e+01
8.800000e-07	-4.022026e-06	-1.090937e-09	-2.793174e+01	-7.177498e+01
8.900000e-07	-3.990116e-06	-1.090349e-09	-2.771013e+01	-7.151047e+01
9.000000e-07	-3.957939e-06	-1.081648e-09	-2.748667e+01	-7.124507e+01
9.100000e-07	-3.925354e-06	-1.073107e-09	-2.726038e+01	-7.097875e+01
9.200000e-07	-3.892330e-06	-1.070447e-09	-2.703104e+01	-7.071149e+01
9.300000e-07	-3.858892e-06	-1.066663e-09	-2.679882e+01	-7.044325e+01
9.400000e-07	-3.824985e-06	-1.061870e-09	-2.656335e+01	-7.017394e+01
9.500000e-07	-3.790674e-06	-1.062807e-09	-2.632507e+01	-6.990348e+01
9.600000e-07	-3.755940e-06	-1.059585e-09	-2.608385e+01	-6.963175e+01
9.700000e-07	-3.720824e-06	-1.051353e-09	-2.583998e+01	-6.935860e+01
9.800000e-07	-3.685504e-06	-1.043639e-09	-2.559470e+01	-6.908388e+01
9.900000e-07	-3.650033e-06	-1.041559e-09	-2.534836e+01	-6.880740e+01
1.000000e-06	-3.614405e-06	-1.035845e-09	-2.510093e+01	-6.852896e+01
1.010000e-06	-3.578645e-06	-1.030223e-09	-2.485260e+01	-6.824832e+01
1.020000e-06	-3.542767e-06	-1.025117e-09	-2.460343e+01	-6.796525e+01
1.030000e-06	-3.506689e-06	-1.020513e-09	-2.435288e+01	-6.767947e+01
1.040000e-06	-3.470335e-06	-1.012886e-09	-2.410041e+01	-6.739071e+01
1.050000e-06	-3.433655e-06	-1.005485e-09	-2.384568e+01	-6.709867e+01
1.060000e-06	-3.396659e-06	-9.962834e-10	-2.358876e+01	-6.680304e+01
1.070000e-06	-3.359359e-06	-9.918328e-10	-2.332972e+01	-6.650350e+01
1.080000e-06	-3.321823e-06	-9.904880e-10	-2.306904e+01	-6.619971e+01
1.090000e-06	-3.284058e-06	-9.889734e-10	-2.280677e+01	-6.589133e+01
1.100000e-06	-3.246084e-06	-9.818311e-10	-2.254306e+01	-6.557803e+01
1.110000e-06	-3.207950e-06	-9.717276e-10	-2.227823e+01	-6.525946e+01
1.120000e-06	-3.169586e-06	-9.613270e-10	-2.201180e+01	-6.493526e+01
1.130000e-06	-3.130998e-06	-9.536807e-10	-2.174382e+01	-6.460510e+01
1.140000e-06	-3.092225e-06	-9.489536e-10	-2.147456e+01	-6.426863e+01
1.150000e-06	-3.053292e-06	-9.473582e-10	-2.120418e+01	-6.392551e+01
1.160000e-06	-3.014186e-06	-9.440980e-10	-2.093260e+01	-6.357544e+01
1.170000e-06	-2.974899e-06	-9.385102e-10	-2.065976e+01	-6.321808e+01
1.180000e-06	-2.935402e-06	-9.318072e-10	-2.038547e+01	-6.285315e+01
1.190000e-06	-2.895776e-06	-9.240376e-10	-2.011028e+01	-6.248035e+01
1.200000e-06	-2.856086e-06	-9.169345e-10	-1.983464e+01	-6.209942e+01
1.210000e-06	-2.816274e-06	-9.095085e-10	-1.955816e+01	-6.171011e+01
1.220000e-06	-2.776287e-06	-9.016832e-10	-1.928046e+01	-6.131219e+01
1.230000e-06	-2.736099e-06	-8.944297e-10	-1.900137e+01	-6.090546e+01
1.240000e-06	-2.695669e-06	-8.882785e-10	-1.872059e+01	-6.048972e+01
1.250000e-06	-2.655039e-06	-8.816117e-10	-1.843843e+01	-6.006481e+01
1.260000e-06	-2.614239e-06	-8.768411e-10	-1.815509e+01	-5.963060e+01
1.270000e-06	-2.573103e-06	-8.709497e-10	-1.786941e+01	-5.918695e+01
1.280000e-06	-2.531599e-06	-8.644416e-10	-1.758118e+01	-5.873378e+01
1.290000e-06	-2.489796e-06	-8.583730e-10	-1.729087e+01	-5.827102e+01
1.300000e-06	-2.447717e-06	-8.523318e-10	-1.699865e+01	-5.779859e+01
1.310000e-06	-2.405379e-06	-8.438795e-10	-1.670462e+01	-5.731648e+01
1.320000e-06	-2.362746e-06	-8.352084e-10	-1.640855e+01	-5.682467e+01
1.330000e-06	-2.319835e-06	-8.302333e-10	-1.611054e+01	-5.632315e+01
1.340000e-06	-2.276706e-06	-8.260293e-10	-1.581103e+01	-5.581193e+01
1.350000e-06	-2.233425e-06	-8.186317e-10	-1.551045e+01	-5.529105e+01
1.360000e-06	-2.189983e-06	-8.089181e-10	-1.520876e+01	-5.476053e+01
1.370000e-06	-2.146374e-06	-7.994906e-10	-1.490591e+01	-5.422042e+01
1.380000e-06	-2.102731e-06	-7.911667e-10	-1.460282e+01	-5.367077e+01
1.390000e-06	-2.059090e-06	-7.809804e-10	-1.429975e+01	-5.311161e+01
1.400000e-06	-2.015283e-06	-7.725008e-10	-1.399553e+01	-5.254300e+01
1.410000e-06	-1.971330e-06	-7.635877e-10	-1.369028e+01	-5.196496e+01
1.420000e-06	-1.927361e-06	-7.537410e-10	-1.338494e+01	-5.137754e+01
1.430000e-06	-1.883350e-06	-7.439602e-10	-1.307929e+01	-5.078075e+01
1.440000e-06	-1.839203e-06	-7.342618e-10	-1.277270e+01	-5.017460e+01
1.450000e-06	-1.794903e-06	-7.234048e-10	-1.246505e+01	-4.955906e+01
1.460000e-06	-1.750484e-06	-7.116827e-10	-1.215658e+01	-4.893412e+01
1.470000e-06	-1.705960e-06	-7.007585e-10	-1.184737e+01	-4.829970e+01
1.480000e-06	-1.661269e-06	-6.905620e-10	-1.153700e+01	-4.765574e+01
1.490000e-06	-1.616400e-06	-6.788747e-10	-1.122540e+01	-4.700213e+01
1.500000e-06	-1.571465e-06	-6.660590e-10	-1.091335e+01	-4.633872e+01
1.510000e-06	-1.526395e-06	-6.516217e-10	-1.060034e+01	-4.566535e+01
1.520000e-06	-1.481189e-06	-6.382347e-10	-1.028641e+01	-4.498182e+01
1.530000e-06	-1.435877e-06	-6.268396e-10	-9.971723e+00	-4.428790e+01
1.540000e-06	-1.390441e-06	-6.174840e-10	-9.656186e+00	-4.358333e+01
1.550000e-06	-1.344934e-06	-6.071505e-10	-9.340154e+00	-4.286781e+01
1.560000e-06	-1.299329e-06	-5.929001e-10	-9.023441e+00	-4.214101e+01
1.570000e-06	-1.253625e-06	-5.779487e-10	-8.706045e+00	-4.140257e+01
1.580000e-06	-1.207935e-06	-5.638907e-10	-8.388740e+00	-4.065210e+01
1.590000e-06	-1.162189e-06	-5.492404e-10	-8.071046e+00	-3.988919e+01
1.600000e-06	-1.116253e-06	-5.363746e-10	-7.752035e+00	-3.911339e+01
1.610000e-06	-1.070239e-06	-5.254928e-10	-7.432485e+00	-3.832423e+01
1.620000e-06	-1.024221e-06	-5.134067e-10	-7.112898e+00	-3.752125e+01
1.630000e-06	-9.781244e-07	-4.995780e-10	-6.792774e+00	-3.670392e+01
1.640000e-06	-9.319171e-07	-4.833595e-10	-6.471879e+00	-3.587175e+01
1.650000e-06	-8.855665e-07	-4.664461e-10	-6.149988e+00	-3.502421e+01
1.660000e-06	-8.391470e-07	-4.478886e-10	-5.827619e+00	-3.416078e+01
1.670000e-06	-7.926898e-07	-4.322662e-10	-5.504988e+00	-3.328095e+01
1.680000e-06	-7.462012e-07	-4.195307e-10	-5.182139e+00	-3.238419e+01
1.690000e-06	-6.997546e-07	-4.089560e-10	-4.859581e+00	-3.147001e+01
1.700000e-06	-6.532593e-07	-3.975857e-10	-4.536686e+00	-3.053794e+01
1.710000e-06	-6.067052e-07	-3.830385e-10	-4.213382e+00	-2.958750e+01
1.720000e-06	-5.600526e-07	-3.658316e-10	-3.889394e+00	-2.861829e+01
1.730000e-06	-5.133319e-07	-3.474345e-10	-3.564933e+00	-2.762990e+01
1.740000e-06	-4.665796e-07	-3.283312e-10	-3.240252e+00	-2.662198e+01
1.750000e-06	-4.198148e-07	-3.111533e-10	-2.915485e+00	-2.559424e+01
1.760000e-06	-3.730465e-07	-2.966530e-10	-2.590693e+00	-2.454643e+01
1.770000e-06	-3.261933e-07	-2.836371e-10	-2.265313e+00	-2.347835e+01
1.780000e-06	-2.792970e-07	-2.707002e-10	-1.939632e+00	-2.238987e+01
1.790000e-06	-2.323456e-07	-2.548130e-10	-1.613569e+00	-2.128094e+01
1.800000e-06	-1.854248e-07	-2.351981e-10	-1.287719e+00	-2.015155e+01
1.810000e-06	-1.385500e-07	-2.139633e-10	-9.621875e-01	-1.900179e+01
1.820000e-06	-9.166064e-08	-1.945947e-10	-6.365551e-01	-1.783183e+01
1.830000e-06	-4.477953e-08	-1.763753e-10	-3.109801e-01	-1.664191e+01
1.840000e-06	2.083303e-09	-1.579916e-10	1.446790e-02	-1.543234e+01
1.850000e-06	4.901737e-08	-1.423384e-10	3.404106e-01	-1.420355e+01
1.860000e-06	9.608304e-08	-1.280108e-10	6.672673e-01	-1.295603e+01
1.870000e-06	1.430783e-07	-1.119461e-10	9.936349e-01	-1.169037e+01
1.880000e-06	1.900071e-07	-9.357234e-11	1.319541e+00	-1.040722e+01
1.890000e-06	2.369933e-07	-7.377475e-11	1.645846e+00	-9.107356e+00
1.900000e-06	2.838878e-07	-5.472440e-11	1.971514e+00	-7.791602e+00
1.910000e-06	3.306731e-07	-3.502064e-11	2.296424e+00	-6.460882e+00
1.920000e-06	3.775340e-07	-1.681471e-11	2.621858e+00	-5.116194e+00
1.930000e-06	4.243821e-07	6.528278e-13	2.947204e+00	-3.758611e+00
1.940000e-06	4.711200e-07	1.654467e-11	3.271784e+00	-2.389276e+00
1.950000e-06	5.177253e-07	3.137767e-11	3.595443e+00	-1.009399e+00
1.960000e-06	5.642039e-07	4.723485e-11	3.918223e+00	3.797477e-01
1.970000e-06	6.106601e-07	6.580404e-11	4.240848e+00	1.776838e+00
1.980000e-06	6.570911e-07	8.640927e-11	4.563296e+00	3.180497e+00
1.990000e-06	7.035199e-07	1.080151e-10	4.885730e+00	4.589306e+00
2.000000e-06	7.499635e-07	1.300707e-10	5.208267e+00	6.001812e+00
2.010000e-06	7.963262e-07	1.497478e-10	5.530241e+00	7.416534e+00
2.020000e-06	8.426480e-07	1.668080e-10	5.851932e+00	8.831970e+00
2.030000e-06	8.889151e-07	1.849470e-10	6.173243e+00	1.024661e+01
2.040000e-06	9.350951e-07	2.030560e-10	6.493949e+00	1.165892e+01
2.050000e-06	9.812621e-07	2.202699e-10	6.814565e+00	1.306740e+01
2.060000e-06	1.027297e-06	2.383336e-10	7.134260e+00	1.447054e+01
2.070000e-06	1.073212e-06	2.581193e-10	7.453127e+00	1.586686e+01
2.080000e-06	1.119127e-06	2.787991e-10	7.771996e+00	1.725489e+01
2.090000e-06	1.164994e-06	2.990733e-10	8.090529e+00	1.863322e+01
2.100000e-06	1.210775e-06	3.186045e-10	8.408465e+00	2.000046e+01
2.110000e-06	1.256415e-06	3.365820e-10	8.725417e+00	2.135528e+01
2.120000e-06	1.301922e-06	3.553005e-10	9.041449e+00	2.269640e+01
2.130000e-06	1.347417e-06	3.752456e-10	9.357396e+00	2.402261e+01
2.140000e-06	1.392863e-06	3.936534e-10	9.673005e+00	2.533276e+01
2.150000e-06	1.438141e-06	4.099634e-10	9.987446e+00	2.662579e+01
2.160000e-06	1.483283e-06	4.279601e-10	1.030094e+01	2.790069e+01
2.170000e-06	1.528375e-06	4.466608e-10	1.061410e+01	2.915654e+01
2.180000e-06	1.573292e-06	4.638546e-10	1.092603e+01	3.039253e+01
2.190000e-06	1.618023e-06	4.804690e-10	1.123667e+01	3.160791e+01
2.200000e-06	1.662733e-06	4.969544e-10	1.154717e+01	3.280203e+01
2.210000e-06	1.707330e-06	5.125188e-10	1.185688e+01	3.397433e+01
2.220000e-06	1.751730e-06	5.282783e-10	1.216523e+01	3.512434e+01
2.230000e-06	1.796030e-06	5.435549e-10	1.247288e+01	3.625170e+01
2.240000e-06	1.840189e-06	5.580748e-10	1.277955e+01	3.735611e+01
2.250000e-06	1.884178e-06	5.722069e-10	1.308504e+01	3.843740e+01
2.260000e-06	1.928094e-06	5.859659e-10	1.339002e+01	3.949545e+01
2.270000e-06	1.972002e-06	5.995386e-10	1.369495e+01	4.053024e+01
2.280000e-06	2.015867e-06	6.130843e-10	1.399958e+01	4.154185e+01
2.290000e-06	2.059665e-06	6.261042e-10	1.430374e+01	4.253041e+01
2.300000e-06	2.103363e-06	6.387497e-10	1.460721e+01	4.349615e+01
2.310000e-06	2.146951e-06	6.516482e-10	1.490991e+01	4.443936e+01
2.320000e-06	2.190443e-06	6.641349e-10	1.521196e+01	4.536038e+01
2.330000e-06	2.233795e-06	6.747357e-10	1.551302e+01	4.625964e+01
2.340000e-06	2.277011e-06	6.852060e-10	1.581315e+01	4.713760e+01
2.350000e-06	2.320085e-06	6.974945e-10	1.611228e+01	4.799476e+01
2.360000e-06	2.362950e-06	7.110660e-10	1.640997e+01	4.883170e+01
2.370000e-06	2.405499e-06	7.242582e-10	1.670545e+01	4.964900e+01
2.380000e-06	2.447791e-06	7.359853e-10	1.699916e+01	5.044727e+01
2.390000e-06	2.489852e-06	7.473946e-10	1.729126e+01	5.122716e+01
2.400000e-06	2.531598e-06	7.582666e-10	1.758117e+01	5.198933e+01
2.410000e-06	2.573039e-06	7.696673e-10	1.786897e+01	5.273442e+01
2.420000e-06	2.614154e-06	7.818271e-10	1.815450e+01	5.346312e+01
2.430000e-06	2.654952e-06	7.935021e-10	1.843783e+01	5.417608e+01
2.440000e-06	2.695534e-06	8.045453e-10	1.871966e+01	5.487397e+01
2.450000e-06	2.735933e-06	8.158465e-10	1.900022e+01	5.555741e+01
2.460000e-06	2.776096e-06	8.270517e-10	1.927914e+01	5.622703e+01
2.470000e-06	2.816037e-06	8.374171e-10	1.955651e+01	5.688342e+01
2.480000e-06	2.855802e-06	8.457573e-10	1.983267e+01	5.752716e+01
2.490000e-06	2.895426e-06	8.546395e-10	2.010785e+01	5.815878e+01
2.500000e-06	2.934948e-06	8.664201e-10	2.038232e+01	5.877879e+01
2.510000e-06	2.974351e-06	8.778076e-10	2.065596e+01	5.938763e+01
2.520000e-06	3.013583e-06	8.884472e-10	2.092841e+01	5.998575e+01
2.530000e-06	3.052659e-06	8.974061e-10	2.119978e+01	6.057351e+01
2.540000e-06	3.091518e-06	9.029918e-10	2.146964e+01	6.115127e+01
2.550000e-06	3.130063e-06	9.074034e-10	2.173733e+01	6.171931e+01
2.560000e-06	3.168345e-06	9.133972e-10	2.200319e+01	6.227789e+01
2.570000e-06	3.206479e-06	9.211285e-10	2.226801e+01	6.282721e+01
2.580000e-06	3.244464e-06	9.299931e-10	2.253181e+01	6.336746e+01
2.590000e-06	3.282230e-06	9.395385e-10	2.279408e+01	6.389874e+01
2.600000e-06	3.319760e-06	9.482833e-10	2.305471e+01	6.442116e+01
2.610000e-06	3.357081e-06	9.568822e-10	2.331390e+01	6.493477e+01
2.620000e-06	3.394221e-06	9.631462e-10	2.357183e+01	6.543957e+01
2.630000e-06	3.431078e-06	9.668270e-10	2.382779e+01	6.593558e+01
2.640000e-06	3.467562e-06	9.697046e-10	2.408116e+01	6.642273e+01
2.650000e-06	3.503811e-06	9.746252e-10	2.433289e+01	6.690098e+01
2.660000e-06	3.539911e-06	9.813691e-10	2.458360e+01	6.737024e+01
2.670000e-06	3.575838e-06	9.870692e-10	2.483310e+01	6.783040e+01
2.680000e-06	3.611636e-06	9.927497e-10	2.508170e+01	6.828137e+01
2.690000e-06	3.647317e-06	9.982418e-10	2.532950e+01	6.872301e+01
2.700000e-06	3.682790e-06	1.004608e-09	2.557585e+01	6.915520e+01
2.710000e-06	3.718079e-06	1.013703e-09	2.582092e+01	6.957782e+01
2.720000e-06	3.753177e-06	1.025742e-09	2.606466e+01	6.999075e+01
2.730000e-06	3.787925e-06	1.036532e-09	2.630598e+01	7.039388e+01
2.740000e-06	3.822211e-06	1.041284e-09	2.654408e+01	7.078709e+01
2.750000e-06	3.855966e-06	1.041467e-09	2.677851e+01	7.117030e+01
2.760000e-06	3.889215e-06	1.040579e-09	2.700940e+01	7.154345e+01
2.770000e-06	3.922047e-06	1.042471e-09	2.723742e+01	7.190647e+01
2.780000e-06	3.954571e-06	1.049637e-09	2.746328e+01	7.225934e+01
2.790000e-06	3.986754e-06	1.060060e-09	2.768679e+01	7.260205e+01
2.800000e-06	4.018667e-06	1.071457e-09	2.790841e+01	7.293463e+01
2.810000e-06	4.050445e-06	1.079517e-09	2.812910e+01	7.325713e+01
2.820000e-06	4.082064e-06	1.081918e-09	2.834869e+01	7.356962e+01
2.830000e-06	4.113460e-06	1.080397e-09	2.856672e+01	7.387221e+01
2.840000e-06	4.144650e-06	1.077693e-09	2.878332e+01	7.416505e+01
2.850000e-06	4.175563e-06	1.078988e-09	2.899800e+01	7.444829e+01
2.860000e-06	4.206084e-06	1.085302e-09	2.920996e+01	7.472215e+01
2.870000e-06	4.236331e-06	1.092476e-09	2.942002e+01	7.498683e+01
2.880000e-06	4.266344e-06	1.100640e-09	2.962845e+01	7.524260e+01
2.890000e-06	4.296104e-06	1.108044e-09	2.983513e+01	7.548974e+01
2.900000e-06	4.325616e-06	1.115337e-09	3.004008e+01	7.572855e+01
