# Temperatura_=_-0.4
# Concentracion g/m^3_=_1620.0
# C_Vs_to_Am_M_A/Vsm_=_65563218390.804596
# pendiente_HvsI_1/m_=_3716.3
# ordenada_HvsI_A/m_=_1297.0
# frecuencia_Hz_=_135086.3802894415

Tiempo_(s)	Campo_(V.s)	Magnetizacion_(V.s)	Campo_(kA/m)	Magnetizacion_(A/m)
0.000000e+00	-5.560417e-06	-1.318897e-09	-3.838568e+01	-8.537226e+01
1.000000e-08	-5.560745e-06	-1.322637e-09	-3.838794e+01	-8.538306e+01
2.000000e-08	-5.560856e-06	-1.322275e-09	-3.838871e+01	-8.539182e+01
3.000000e-08	-5.560705e-06	-1.322381e-09	-3.838766e+01	-8.539851e+01
4.000000e-08	-5.560109e-06	-1.321785e-09	-3.838355e+01	-8.540311e+01
5.000000e-08	-5.558904e-06	-1.317897e-09	-3.837523e+01	-8.540559e+01
6.000000e-08	-5.556951e-06	-1.312498e-09	-3.836175e+01	-8.540592e+01
7.000000e-08	-5.554351e-06	-1.298628e-09	-3.834380e+01	-8.540405e+01
8.000000e-08	-5.551304e-06	-1.273977e-09	-3.832276e+01	-8.539993e+01
9.000000e-08	-5.547819e-06	-1.291771e-09	-3.829870e+01	-8.539352e+01
1.000000e-07	-5.543959e-06	-1.370279e-09	-3.827206e+01	-8.538477e+01
1.100000e-07	-5.539766e-06	-1.383362e-09	-3.824311e+01	-8.537361e+01
1.200000e-07	-5.535248e-06	-1.280371e-09	-3.821193e+01	-8.535998e+01
1.300000e-07	-5.530518e-06	-1.209095e-09	-3.817927e+01	-8.534382e+01
1.400000e-07	-5.525462e-06	-1.302359e-09	-3.814437e+01	-8.532506e+01
1.500000e-07	-5.519996e-06	-1.362799e-09	-3.810664e+01	-8.530362e+01
1.600000e-07	-5.514154e-06	-1.288787e-09	-3.806630e+01	-8.527945e+01
1.700000e-07	-5.507951e-06	-1.224516e-09	-3.802348e+01	-8.525246e+01
1.800000e-07	-5.501357e-06	-1.284615e-09	-3.797796e+01	-8.522257e+01
1.900000e-07	-5.494231e-06	-1.365922e-09	-3.792877e+01	-8.518973e+01
2.000000e-07	-5.486713e-06	-1.301590e-09	-3.787687e+01	-8.515384e+01
2.100000e-07	-5.479027e-06	-1.256880e-09	-3.782381e+01	-8.511483e+01
2.200000e-07	-5.471046e-06	-1.283948e-09	-3.776871e+01	-8.507262e+01
2.300000e-07	-5.462786e-06	-1.357859e-09	-3.771169e+01	-8.502714e+01
2.400000e-07	-5.454204e-06	-1.319009e-09	-3.765245e+01	-8.497832e+01
2.500000e-07	-5.445072e-06	-1.290872e-09	-3.758941e+01	-8.492608e+01
2.600000e-07	-5.435271e-06	-1.299556e-09	-3.752175e+01	-8.487034e+01
2.700000e-07	-5.424823e-06	-1.340964e-09	-3.744962e+01	-8.481104e+01
2.800000e-07	-5.413783e-06	-1.315207e-09	-3.737340e+01	-8.474810e+01
2.900000e-07	-5.402279e-06	-1.292973e-09	-3.729399e+01	-8.468145e+01
3.000000e-07	-5.390361e-06	-1.305240e-09	-3.721171e+01	-8.461104e+01
3.100000e-07	-5.378137e-06	-1.320755e-09	-3.712733e+01	-8.453679e+01
3.200000e-07	-5.365589e-06	-1.306021e-09	-3.704071e+01	-8.445864e+01
3.300000e-07	-5.352535e-06	-1.272069e-09	-3.695059e+01	-8.437653e+01
3.400000e-07	-5.339077e-06	-1.290328e-09	-3.685768e+01	-8.429041e+01
3.500000e-07	-5.325307e-06	-1.302376e-09	-3.676263e+01	-8.420023e+01
3.600000e-07	-5.311050e-06	-1.288394e-09	-3.666420e+01	-8.410592e+01
3.700000e-07	-5.296118e-06	-1.263605e-09	-3.656112e+01	-8.400745e+01
3.800000e-07	-5.280786e-06	-1.298303e-09	-3.645527e+01	-8.390477e+01
3.900000e-07	-5.265017e-06	-1.282552e-09	-3.634641e+01	-8.379785e+01
4.000000e-07	-5.248636e-06	-1.243973e-09	-3.623333e+01	-8.368664e+01
4.100000e-07	-5.231886e-06	-1.266980e-09	-3.611770e+01	-8.357112e+01
4.200000e-07	-5.214918e-06	-1.317186e-09	-3.600057e+01	-8.345126e+01
4.300000e-07	-5.197603e-06	-1.251659e-09	-3.588103e+01	-8.332703e+01
4.400000e-07	-5.179959e-06	-1.229013e-09	-3.575923e+01	-8.319843e+01
4.500000e-07	-5.161989e-06	-1.291196e-09	-3.563518e+01	-8.306545e+01
4.600000e-07	-5.143550e-06	-1.288888e-09	-3.550788e+01	-8.292807e+01
4.700000e-07	-5.124683e-06	-1.203443e-09	-3.537764e+01	-8.278631e+01
4.800000e-07	-5.105450e-06	-1.244242e-09	-3.524487e+01	-8.264016e+01
4.900000e-07	-5.085973e-06	-1.285902e-09	-3.511041e+01	-8.248966e+01
5.000000e-07	-5.066287e-06	-1.229873e-09	-3.497451e+01	-8.233481e+01
5.100000e-07	-5.046421e-06	-1.214405e-09	-3.483736e+01	-8.217566e+01
5.200000e-07	-5.026406e-06	-1.273000e-09	-3.469919e+01	-8.201224e+01
5.300000e-07	-5.006044e-06	-1.227368e-09	-3.455863e+01	-8.184459e+01
5.400000e-07	-4.985165e-06	-1.187676e-09	-3.441449e+01	-8.167278e+01
5.500000e-07	-4.963850e-06	-1.248652e-09	-3.426734e+01	-8.149686e+01
5.600000e-07	-4.942276e-06	-1.254534e-09	-3.411841e+01	-8.131690e+01
5.700000e-07	-4.920359e-06	-1.186462e-09	-3.396711e+01	-8.113298e+01
5.800000e-07	-4.898052e-06	-1.210342e-09	-3.381312e+01	-8.094519e+01
5.900000e-07	-4.875366e-06	-1.240588e-09	-3.365651e+01	-8.075362e+01
6.000000e-07	-4.852266e-06	-1.186243e-09	-3.349704e+01	-8.055838e+01
6.100000e-07	-4.828924e-06	-1.180362e-09	-3.333590e+01	-8.035957e+01
6.200000e-07	-4.805351e-06	-1.221411e-09	-3.317317e+01	-8.015730e+01
6.300000e-07	-4.781496e-06	-1.196755e-09	-3.300848e+01	-7.995171e+01
6.400000e-07	-4.757431e-06	-1.169542e-09	-3.284235e+01	-7.974291e+01
6.500000e-07	-4.733142e-06	-1.203423e-09	-3.267468e+01	-7.953104e+01
6.600000e-07	-4.708358e-06	-1.193293e-09	-3.250359e+01	-7.931623e+01
6.700000e-07	-4.682915e-06	-1.164874e-09	-3.232795e+01	-7.909863e+01
6.800000e-07	-4.657052e-06	-1.178789e-09	-3.214941e+01	-7.887837e+01
6.900000e-07	-4.630646e-06	-1.187551e-09	-3.196711e+01	-7.865560e+01
7.000000e-07	-4.603662e-06	-1.157668e-09	-3.178083e+01	-7.843045e+01
7.100000e-07	-4.576310e-06	-1.165893e-09	-3.159201e+01	-7.820307e+01
7.200000e-07	-4.548716e-06	-1.174874e-09	-3.140152e+01	-7.797361e+01
7.300000e-07	-4.521028e-06	-1.158271e-09	-3.121038e+01	-7.774218e+01
7.400000e-07	-4.493192e-06	-1.147890e-09	-3.101821e+01	-7.750893e+01
7.500000e-07	-4.465088e-06	-1.161381e-09	-3.082421e+01	-7.727397e+01
7.600000e-07	-4.436669e-06	-1.147403e-09	-3.062802e+01	-7.703742e+01
7.700000e-07	-4.407858e-06	-1.139229e-09	-3.042912e+01	-7.679938e+01
7.800000e-07	-4.378674e-06	-1.143330e-09	-3.022766e+01	-7.655996e+01
7.900000e-07	-4.349281e-06	-1.136171e-09	-3.002475e+01	-7.631923e+01
8.000000e-07	-4.319641e-06	-1.122080e-09	-2.982013e+01	-7.607727e+01
8.100000e-07	-4.289732e-06	-1.130835e-09	-2.961366e+01	-7.583412e+01
8.200000e-07	-4.259576e-06	-1.128453e-09	-2.940548e+01	-7.558984e+01
8.300000e-07	-4.229087e-06	-1.117123e-09	-2.919500e+01	-7.534444e+01
8.400000e-07	-4.198242e-06	-1.120356e-09	-2.898206e+01	-7.509793e+01
8.500000e-07	-4.167165e-06	-1.125115e-09	-2.876752e+01	-7.485029e+01
8.600000e-07	-4.135840e-06	-1.111876e-09	-2.855128e+01	-7.460149e+01
8.700000e-07	-4.104268e-06	-1.107292e-09	-2.833332e+01	-7.435149e+01
8.800000e-07	-4.072574e-06	-1.107776e-09	-2.811453e+01	-7.410020e+01
8.900000e-07	-4.040743e-06	-1.093629e-09	-2.789479e+01	-7.384754e+01
9.000000e-07	-4.008638e-06	-1.084924e-09	-2.767316e+01	-7.359338e+01
9.100000e-07	-3.976213e-06	-1.088134e-09	-2.744931e+01	-7.333761e+01
9.200000e-07	-3.943403e-06	-1.084518e-09	-2.722281e+01	-7.308006e+01
9.300000e-07	-3.910091e-06	-1.075928e-09	-2.699285e+01	-7.282055e+01
9.400000e-07	-3.876330e-06	-1.081483e-09	-2.675978e+01	-7.255890e+01
9.500000e-07	-3.842128e-06	-1.078729e-09	-2.652367e+01	-7.229489e+01
9.600000e-07	-3.807439e-06	-1.064715e-09	-2.628420e+01	-7.202830e+01
9.700000e-07	-3.772356e-06	-1.055956e-09	-2.604201e+01	-7.175887e+01
9.800000e-07	-3.737053e-06	-1.055844e-09	-2.579830e+01	-7.148636e+01
9.900000e-07	-3.701596e-06	-1.043925e-09	-2.555352e+01	-7.121048e+01
1.000000e-06	-3.665964e-06	-1.039672e-09	-2.530755e+01	-7.093095e+01
1.010000e-06	-3.630187e-06	-1.042304e-09	-2.506057e+01	-7.064748e+01
1.020000e-06	-3.594289e-06	-1.040641e-09	-2.481274e+01	-7.035976e+01
1.030000e-06	-3.558152e-06	-1.030805e-09	-2.456328e+01	-7.006749e+01
1.040000e-06	-3.521820e-06	-1.029418e-09	-2.431247e+01	-6.977036e+01
1.050000e-06	-3.485288e-06	-1.022290e-09	-2.406027e+01	-6.946806e+01
1.060000e-06	-3.448446e-06	-1.008065e-09	-2.380594e+01	-6.916027e+01
1.070000e-06	-3.411208e-06	-9.976479e-10	-2.354887e+01	-6.884669e+01
1.080000e-06	-3.373649e-06	-9.929919e-10	-2.328958e+01	-6.852701e+01
1.090000e-06	-3.335948e-06	-9.872080e-10	-2.302932e+01	-6.820094e+01
1.100000e-06	-3.298036e-06	-9.824551e-10	-2.276760e+01	-6.786820e+01
1.110000e-06	-3.259882e-06	-9.822646e-10	-2.250420e+01	-6.752851e+01
1.120000e-06	-3.221542e-06	-9.791620e-10	-2.223953e+01	-6.718162e+01
1.130000e-06	-3.182979e-06	-9.718086e-10	-2.197331e+01	-6.682728e+01
1.140000e-06	-3.144119e-06	-9.677504e-10	-2.170505e+01	-6.646527e+01
1.150000e-06	-3.105018e-06	-9.584130e-10	-2.143512e+01	-6.609539e+01
1.160000e-06	-3.065695e-06	-9.450320e-10	-2.116366e+01	-6.571744e+01
1.170000e-06	-3.026228e-06	-9.349779e-10	-2.089121e+01	-6.533127e+01
1.180000e-06	-2.986625e-06	-9.309932e-10	-2.061781e+01	-6.493674e+01
1.190000e-06	-2.946905e-06	-9.266506e-10	-2.034361e+01	-6.453373e+01
1.200000e-06	-2.907173e-06	-9.252008e-10	-2.006932e+01	-6.412215e+01
1.210000e-06	-2.867345e-06	-9.263121e-10	-1.979438e+01	-6.370193e+01
1.220000e-06	-2.827323e-06	-9.190685e-10	-1.951809e+01	-6.327302e+01
1.230000e-06	-2.787004e-06	-9.069318e-10	-1.923975e+01	-6.283541e+01
1.240000e-06	-2.746455e-06	-8.959695e-10	-1.895983e+01	-6.238911e+01
1.250000e-06	-2.705760e-06	-8.860487e-10	-1.867889e+01	-6.193412e+01
1.260000e-06	-2.664876e-06	-8.748210e-10	-1.839665e+01	-6.147050e+01
1.270000e-06	-2.623620e-06	-8.724418e-10	-1.811185e+01	-6.099831e+01
1.280000e-06	-2.581851e-06	-8.729472e-10	-1.782350e+01	-6.051762e+01
1.290000e-06	-2.539769e-06	-8.665855e-10	-1.753299e+01	-6.002855e+01
1.300000e-06	-2.497452e-06	-8.562052e-10	-1.724086e+01	-5.953119e+01
1.310000e-06	-2.454873e-06	-8.446819e-10	-1.694692e+01	-5.902566e+01
1.320000e-06	-2.412014e-06	-8.324853e-10	-1.665105e+01	-5.851210e+01
1.330000e-06	-2.368895e-06	-8.232855e-10	-1.635339e+01	-5.799062e+01
1.340000e-06	-2.325615e-06	-8.177876e-10	-1.605461e+01	-5.746137e+01
1.350000e-06	-2.282162e-06	-8.144968e-10	-1.575463e+01	-5.692447e+01
1.360000e-06	-2.238594e-06	-8.077406e-10	-1.545386e+01	-5.638006e+01
1.370000e-06	-2.194990e-06	-8.009711e-10	-1.515285e+01	-5.582824e+01
1.380000e-06	-2.151325e-06	-7.943178e-10	-1.485142e+01	-5.526913e+01
1.390000e-06	-2.107553e-06	-7.854783e-10	-1.454924e+01	-5.470282e+01
1.400000e-06	-2.063666e-06	-7.720653e-10	-1.424627e+01	-5.412938e+01
1.410000e-06	-2.019696e-06	-7.609342e-10	-1.394273e+01	-5.354888e+01
1.420000e-06	-1.975659e-06	-7.505140e-10	-1.363872e+01	-5.296132e+01
1.430000e-06	-1.931540e-06	-7.432758e-10	-1.333416e+01	-5.236674e+01
1.440000e-06	-1.887313e-06	-7.383692e-10	-1.302884e+01	-5.176508e+01
1.450000e-06	-1.842897e-06	-7.338442e-10	-1.272222e+01	-5.115631e+01
1.460000e-06	-1.798288e-06	-7.262232e-10	-1.241426e+01	-5.054032e+01
1.470000e-06	-1.753539e-06	-7.141790e-10	-1.210535e+01	-4.991699e+01
1.480000e-06	-1.708613e-06	-6.996878e-10	-1.179521e+01	-4.928615e+01
1.490000e-06	-1.663493e-06	-6.843173e-10	-1.148373e+01	-4.864761e+01
1.500000e-06	-1.618279e-06	-6.704655e-10	-1.117160e+01	-4.800113e+01
1.510000e-06	-1.573046e-06	-6.591523e-10	-1.085934e+01	-4.734642e+01
1.520000e-06	-1.527627e-06	-6.512806e-10	-1.054579e+01	-4.668317e+01
1.530000e-06	-1.482025e-06	-6.449539e-10	-1.023098e+01	-4.601101e+01
1.540000e-06	-1.436424e-06	-6.361743e-10	-9.916185e+00	-4.532956e+01
1.550000e-06	-1.390762e-06	-6.243620e-10	-9.600961e+00	-4.463837e+01
1.560000e-06	-1.345032e-06	-6.102606e-10	-9.285265e+00	-4.393700e+01
1.570000e-06	-1.299240e-06	-5.947284e-10	-8.969149e+00	-4.322494e+01
1.580000e-06	-1.253293e-06	-5.814925e-10	-8.651956e+00	-4.250165e+01
1.590000e-06	-1.207270e-06	-5.702213e-10	-8.334242e+00	-4.176660e+01
1.600000e-06	-1.161147e-06	-5.578037e-10	-8.015839e+00	-4.101920e+01
1.610000e-06	-1.114923e-06	-5.451363e-10	-7.696740e+00	-4.025886e+01
1.620000e-06	-1.068600e-06	-5.346925e-10	-7.376956e+00	-3.948496e+01
1.630000e-06	-1.022250e-06	-5.262129e-10	-7.056981e+00	-3.869689e+01
1.640000e-06	-9.758811e-07	-5.159860e-10	-6.736879e+00	-3.789402e+01
1.650000e-06	-9.293651e-07	-5.001043e-10	-6.415761e+00	-3.707573e+01
1.660000e-06	-8.828306e-07	-4.844916e-10	-6.094516e+00	-3.624139e+01
1.670000e-06	-8.362578e-07	-4.693825e-10	-5.773006e+00	-3.539040e+01
1.680000e-06	-7.895445e-07	-4.550183e-10	-5.450526e+00	-3.452215e+01
1.690000e-06	-7.427446e-07	-4.417816e-10	-5.127449e+00	-3.363607e+01
1.700000e-06	-6.959155e-07	-4.298640e-10	-4.804170e+00	-3.273162e+01
1.710000e-06	-6.490331e-07	-4.165499e-10	-4.480523e+00	-3.180828e+01
1.720000e-06	-6.021197e-07	-4.028647e-10	-4.156661e+00	-3.086558e+01
1.730000e-06	-5.551775e-07	-3.881103e-10	-3.832602e+00	-2.990308e+01
1.740000e-06	-5.081554e-07	-3.741571e-10	-3.507990e+00	-2.892040e+01
1.750000e-06	-4.611317e-07	-3.563216e-10	-3.183367e+00	-2.791722e+01
1.760000e-06	-4.140988e-07	-3.374994e-10	-2.858682e+00	-2.689326e+01
1.770000e-06	-3.669140e-07	-3.202992e-10	-2.532947e+00	-2.584831e+01
1.780000e-06	-3.196648e-07	-3.033568e-10	-2.206768e+00	-2.478223e+01
1.790000e-06	-2.724600e-07	-2.892721e-10	-1.880895e+00	-2.369497e+01
1.800000e-06	-2.252312e-07	-2.756698e-10	-1.554857e+00	-2.258652e+01
1.810000e-06	-1.780392e-07	-2.585963e-10	-1.229073e+00	-2.145696e+01
1.820000e-06	-1.308341e-07	-2.392247e-10	-9.031973e-01	-2.030647e+01
1.830000e-06	-8.353618e-08	-2.220561e-10	-5.766820e-01	-1.913528e+01
1.840000e-06	-3.631564e-08	-2.072296e-10	-2.507007e-01	-1.794372e+01
1.850000e-06	1.088211e-08	-1.909903e-10	7.512335e-02	-1.673221e+01
1.860000e-06	5.815335e-08	-1.762842e-10	4.014547e-01	-1.550124e+01
1.870000e-06	1.054192e-07	-1.627427e-10	7.277488e-01	-1.425139e+01
1.880000e-06	1.526528e-07	-1.473412e-10	1.053820e+00	-1.298331e+01
1.890000e-06	1.998628e-07	-1.300943e-10	1.379729e+00	-1.169776e+01
1.900000e-06	2.470627e-07	-1.091032e-10	1.705568e+00	-1.039554e+01
1.910000e-06	2.942416e-07	-8.770527e-11	2.031262e+00	-9.077548e+00
1.920000e-06	3.414145e-07	-6.817307e-11	2.356914e+00	-7.744758e+00
1.930000e-06	3.885708e-07	-5.188974e-11	2.682452e+00	-6.398202e+00
1.940000e-06	4.357096e-07	-3.427070e-11	3.007869e+00	-5.038980e+00
1.950000e-06	4.827241e-07	-1.919377e-11	3.332428e+00	-3.668251e+00
1.960000e-06	5.296766e-07	-5.839231e-12	3.656559e+00	-2.287228e+00
1.970000e-06	5.766548e-07	8.213213e-12	3.980868e+00	-8.971713e-01
1.980000e-06	6.235859e-07	2.656719e-11	4.304851e+00	5.006136e-01
1.990000e-06	6.704307e-07	4.841944e-11	4.628238e+00	1.904787e+00
2.000000e-06	7.171352e-07	7.195225e-11	4.950658e+00	3.313977e+00
2.010000e-06	7.637680e-07	9.516024e-11	5.272581e+00	4.726793e+00
2.020000e-06	8.103236e-07	1.150815e-10	5.593972e+00	6.141822e+00
2.030000e-06	8.568924e-07	1.307018e-10	5.915455e+00	7.557648e+00
2.040000e-06	9.034296e-07	1.447623e-10	6.236718e+00	8.972849e+00
2.050000e-06	9.498409e-07	1.590056e-10	6.557113e+00	1.038601e+01
2.060000e-06	9.963403e-07	1.774203e-10	6.878116e+00	1.179572e+01
2.070000e-06	1.042732e-06	2.008616e-10	7.198373e+00	1.320060e+01
2.080000e-06	1.088853e-06	2.269111e-10	7.516765e+00	1.459929e+01
2.090000e-06	1.134892e-06	2.518528e-10	7.834591e+00	1.599045e+01
2.100000e-06	1.180909e-06	2.735165e-10	8.152262e+00	1.737280e+01
2.110000e-06	1.226919e-06	2.922126e-10	8.469886e+00	1.874508e+01
2.120000e-06	1.272869e-06	3.063429e-10	8.787102e+00	2.010611e+01
2.130000e-06	1.318711e-06	3.187097e-10	9.103564e+00	2.145472e+01
2.140000e-06	1.364366e-06	3.340767e-10	9.418735e+00	2.278985e+01
2.150000e-06	1.409910e-06	3.520083e-10	9.733144e+00	2.411045e+01
2.160000e-06	1.455430e-06	3.712629e-10	1.004739e+01	2.541559e+01
2.170000e-06	1.500824e-06	3.931535e-10	1.036076e+01	2.670436e+01
2.180000e-06	1.546172e-06	4.147482e-10	1.067381e+01	2.797596e+01
2.190000e-06	1.591439e-06	4.335234e-10	1.098631e+01	2.922965e+01
2.200000e-06	1.636515e-06	4.494383e-10	1.129749e+01	3.046476e+01
2.210000e-06	1.681488e-06	4.651443e-10	1.160795e+01	3.168071e+01
2.220000e-06	1.726304e-06	4.820420e-10	1.191733e+01	3.287698e+01
2.230000e-06	1.771033e-06	4.981637e-10	1.222611e+01	3.405315e+01
2.240000e-06	1.815684e-06	5.133706e-10	1.253436e+01	3.520887e+01
2.250000e-06	1.860095e-06	5.286609e-10	1.284095e+01	3.634385e+01
2.260000e-06	1.904292e-06	5.430195e-10	1.314605e+01	3.745789e+01
2.270000e-06	1.948393e-06	5.590059e-10	1.345050e+01	3.855086e+01
2.280000e-06	1.992408e-06	5.753826e-10	1.375435e+01	3.962269e+01
2.290000e-06	2.036310e-06	5.916353e-10	1.405742e+01	4.067339e+01
2.300000e-06	2.080136e-06	6.052433e-10	1.435997e+01	4.170302e+01
2.310000e-06	2.123883e-06	6.171517e-10	1.466197e+01	4.271170e+01
2.320000e-06	2.167606e-06	6.284356e-10	1.496381e+01	4.369962e+01
2.330000e-06	2.211298e-06	6.389850e-10	1.526543e+01	4.466701e+01
2.340000e-06	2.254922e-06	6.498466e-10	1.556659e+01	4.561415e+01
2.350000e-06	2.298369e-06	6.631004e-10	1.586652e+01	4.654134e+01
2.360000e-06	2.341663e-06	6.780479e-10	1.616539e+01	4.744895e+01
2.370000e-06	2.384897e-06	6.932501e-10	1.646385e+01	4.833737e+01
2.380000e-06	2.427945e-06	7.075416e-10	1.676103e+01	4.920700e+01
2.390000e-06	2.470647e-06	7.206131e-10	1.705582e+01	5.005828e+01
2.400000e-06	2.513057e-06	7.336774e-10	1.734859e+01	5.089167e+01
2.410000e-06	2.555191e-06	7.471990e-10	1.763946e+01	5.170762e+01
2.420000e-06	2.596911e-06	7.604384e-10	1.792746e+01	5.250662e+01
2.430000e-06	2.638351e-06	7.728810e-10	1.821354e+01	5.328913e+01
2.440000e-06	2.679512e-06	7.854545e-10	1.849769e+01	5.405563e+01
2.450000e-06	2.720343e-06	7.978669e-10	1.877956e+01	5.480660e+01
2.460000e-06	2.760952e-06	8.099251e-10	1.905990e+01	5.554248e+01
2.470000e-06	2.801301e-06	8.222142e-10	1.933845e+01	5.626373e+01
2.480000e-06	2.841442e-06	8.337292e-10	1.961556e+01	5.697078e+01
2.490000e-06	2.881453e-06	8.431750e-10	1.989177e+01	5.766405e+01
2.500000e-06	2.921315e-06	8.538326e-10	2.016695e+01	5.834392e+01
2.510000e-06	2.961008e-06	8.657411e-10	2.044097e+01	5.901078e+01
2.520000e-06	3.000549e-06	8.757554e-10	2.071394e+01	5.966496e+01
2.530000e-06	3.039922e-06	8.834136e-10	2.098574e+01	6.030679e+01
2.540000e-06	3.079111e-06	8.913355e-10	2.125628e+01	6.093656e+01
2.550000e-06	3.118159e-06	8.976553e-10	2.152584e+01	6.155454e+01
2.560000e-06	3.157001e-06	9.038012e-10	2.179398e+01	6.216098e+01
2.570000e-06	3.195628e-06	9.130885e-10	2.206064e+01	6.275607e+01
2.580000e-06	3.233968e-06	9.224334e-10	2.232531e+01	6.334002e+01
2.590000e-06	3.271987e-06	9.300663e-10	2.258777e+01	6.391298e+01
2.600000e-06	3.309879e-06	9.363875e-10	2.284936e+01	6.447509e+01
2.610000e-06	3.347640e-06	9.434574e-10	2.311003e+01	6.502647e+01
2.620000e-06	3.385204e-06	9.516060e-10	2.336935e+01	6.556720e+01
2.630000e-06	3.422555e-06	9.594790e-10	2.362720e+01	6.609735e+01
2.640000e-06	3.459597e-06	9.665233e-10	2.388292e+01	6.661699e+01
2.650000e-06	3.496382e-06	9.705922e-10	2.413685e+01	6.712615e+01
2.660000e-06	3.532856e-06	9.738177e-10	2.438865e+01	6.762486e+01
2.670000e-06	3.569038e-06	9.779650e-10	2.463843e+01	6.811313e+01
2.680000e-06	3.605016e-06	9.830854e-10	2.488679e+01	6.859098e+01
2.690000e-06	3.640817e-06	9.901737e-10	2.513395e+01	6.905839e+01
2.700000e-06	3.676535e-06	1.000044e-09	2.538052e+01	6.951539e+01
2.710000e-06	3.712104e-06	1.010700e-09	2.562607e+01	6.996195e+01
2.720000e-06	3.747480e-06	1.020391e-09	2.587028e+01	7.039808e+01
2.730000e-06	3.782652e-06	1.028839e-09	2.611309e+01	7.082380e+01
2.740000e-06	3.817660e-06	1.032894e-09	2.635476e+01	7.123910e+01
2.750000e-06	3.852378e-06	1.032581e-09	2.659443e+01	7.164400e+01
2.760000e-06	3.886583e-06	1.032702e-09	2.683056e+01	7.203855e+01
2.770000e-06	3.920237e-06	1.035213e-09	2.706289e+01	7.242277e+01
2.780000e-06	3.953327e-06	1.041600e-09	2.729132e+01	7.279673e+01
2.790000e-06	3.985904e-06	1.053216e-09	2.751622e+01	7.316050e+01
2.800000e-06	4.018134e-06	1.067565e-09	2.773871e+01	7.351416e+01
2.810000e-06	4.050106e-06	1.079444e-09	2.795942e+01	7.385782e+01
2.820000e-06	4.081921e-06	1.084473e-09	2.817905e+01	7.419159e+01
2.830000e-06	4.113661e-06	1.083653e-09	2.839817e+01	7.451562e+01
2.840000e-06	4.145267e-06	1.080797e-09	2.861636e+01	7.483006e+01
2.850000e-06	4.176658e-06	1.079801e-09	2.883306e+01	7.513510e+01
2.860000e-06	4.207693e-06	1.084539e-09	2.904730e+01	7.543091e+01
2.870000e-06	4.238388e-06	1.094822e-09	2.925920e+01	7.571772e+01
2.880000e-06	4.268703e-06	1.105184e-09	2.946848e+01	7.599575e+01
2.890000e-06	4.298642e-06	1.114519e-09	2.967516e+01	7.626523e+01
2.900000e-06	4.328345e-06	1.121091e-09	2.988021e+01	7.652643e+01
