# Temperatura_=_-0.3
# Concentracion g/m^3_=_1620.0
# C_Vs_to_Am_M_A/Vsm_=_65563218390.804596
# pendiente_HvsI_1/m_=_3716.3
# ordenada_HvsI_A/m_=_1297.0
# frecuencia_Hz_=_135095.62615378128

Tiempo_(s)	Campo_(V.s)	Magnetizacion_(V.s)	Campo_(kA/m)	Magnetizacion_(A/m)
0.000000e+00	-5.498945e-06	-1.458007e-09	-3.837437e+01	-9.391372e+01
1.000000e-08	-5.499046e-06	-1.460896e-09	-3.837507e+01	-9.391436e+01
2.000000e-08	-5.498971e-06	-1.462270e-09	-3.837455e+01	-9.391339e+01
3.000000e-08	-5.498522e-06	-1.462286e-09	-3.837142e+01	-9.391076e+01
4.000000e-08	-5.497591e-06	-1.457872e-09	-3.836492e+01	-9.390641e+01
5.000000e-08	-5.496145e-06	-1.451080e-09	-3.835483e+01	-9.390026e+01
6.000000e-08	-5.494108e-06	-1.435269e-09	-3.834061e+01	-9.389225e+01
7.000000e-08	-5.491540e-06	-1.428247e-09	-3.832270e+01	-9.388227e+01
8.000000e-08	-5.488437e-06	-1.449627e-09	-3.830104e+01	-9.387022e+01
9.000000e-08	-5.484791e-06	-1.477619e-09	-3.827560e+01	-9.385600e+01
1.000000e-07	-5.480753e-06	-1.482248e-09	-3.824742e+01	-9.383949e+01
1.100000e-07	-5.476409e-06	-1.480387e-09	-3.821710e+01	-9.382057e+01
1.200000e-07	-5.471759e-06	-1.378378e-09	-3.818466e+01	-9.379911e+01
1.300000e-07	-5.466889e-06	-1.404911e-09	-3.815067e+01	-9.377498e+01
1.400000e-07	-5.461677e-06	-1.424656e-09	-3.811430e+01	-9.374807e+01
1.500000e-07	-5.456014e-06	-1.460981e-09	-3.807478e+01	-9.371823e+01
1.600000e-07	-5.449973e-06	-1.422189e-09	-3.803262e+01	-9.368534e+01
1.700000e-07	-5.443564e-06	-1.413154e-09	-3.798789e+01	-9.364928e+01
1.800000e-07	-5.436727e-06	-1.490654e-09	-3.794018e+01	-9.360993e+01
1.900000e-07	-5.429475e-06	-1.455058e-09	-3.788957e+01	-9.356717e+01
2.000000e-07	-5.421942e-06	-1.416484e-09	-3.783701e+01	-9.352088e+01
2.100000e-07	-5.414191e-06	-1.379464e-09	-3.778291e+01	-9.347098e+01
2.200000e-07	-5.406248e-06	-1.482809e-09	-3.772749e+01	-9.341735e+01
2.300000e-07	-5.398033e-06	-1.484224e-09	-3.767016e+01	-9.335991e+01
2.400000e-07	-5.389254e-06	-1.478845e-09	-3.760889e+01	-9.329859e+01
2.500000e-07	-5.379819e-06	-1.440257e-09	-3.754305e+01	-9.323331e+01
2.600000e-07	-5.369813e-06	-1.472052e-09	-3.747323e+01	-9.316401e+01
2.700000e-07	-5.359166e-06	-1.438444e-09	-3.739892e+01	-9.309064e+01
2.800000e-07	-5.347974e-06	-1.436786e-09	-3.732082e+01	-9.301315e+01
2.900000e-07	-5.336358e-06	-1.434213e-09	-3.723976e+01	-9.293152e+01
3.000000e-07	-5.324411e-06	-1.461245e-09	-3.715639e+01	-9.284572e+01
3.100000e-07	-5.312075e-06	-1.447220e-09	-3.707030e+01	-9.275573e+01
3.200000e-07	-5.299303e-06	-1.436075e-09	-3.698117e+01	-9.266155e+01
3.300000e-07	-5.286139e-06	-1.425986e-09	-3.688930e+01	-9.256317e+01
3.400000e-07	-5.272596e-06	-1.414920e-09	-3.679480e+01	-9.246061e+01
3.500000e-07	-5.258681e-06	-1.424385e-09	-3.669769e+01	-9.235386e+01
3.600000e-07	-5.244382e-06	-1.423207e-09	-3.659790e+01	-9.224295e+01
3.700000e-07	-5.229563e-06	-1.421974e-09	-3.649449e+01	-9.212790e+01
3.800000e-07	-5.214217e-06	-1.432372e-09	-3.638740e+01	-9.200873e+01
3.900000e-07	-5.198308e-06	-1.443275e-09	-3.627637e+01	-9.188547e+01
4.000000e-07	-5.181888e-06	-1.387703e-09	-3.616179e+01	-9.175814e+01
4.100000e-07	-5.165035e-06	-1.388104e-09	-3.604418e+01	-9.162676e+01
4.200000e-07	-5.147881e-06	-1.416026e-09	-3.592447e+01	-9.149137e+01
4.300000e-07	-5.130542e-06	-1.402360e-09	-3.580347e+01	-9.135198e+01
4.400000e-07	-5.112832e-06	-1.355441e-09	-3.567988e+01	-9.120861e+01
4.500000e-07	-5.094829e-06	-1.426462e-09	-3.555425e+01	-9.106129e+01
4.600000e-07	-5.076431e-06	-1.420004e-09	-3.542586e+01	-9.091002e+01
4.700000e-07	-5.057572e-06	-1.349858e-09	-3.529425e+01	-9.075481e+01
4.800000e-07	-5.038412e-06	-1.359406e-09	-3.516055e+01	-9.059567e+01
4.900000e-07	-5.018953e-06	-1.440386e-09	-3.502475e+01	-9.043258e+01
5.000000e-07	-4.999183e-06	-1.365788e-09	-3.488679e+01	-9.026555e+01
5.100000e-07	-4.979195e-06	-1.337364e-09	-3.474730e+01	-9.009455e+01
5.200000e-07	-4.958963e-06	-1.395273e-09	-3.460611e+01	-8.991957e+01
5.300000e-07	-4.938529e-06	-1.383495e-09	-3.446351e+01	-8.974058e+01
5.400000e-07	-4.917780e-06	-1.312675e-09	-3.431871e+01	-8.955753e+01
5.500000e-07	-4.896604e-06	-1.373968e-09	-3.417094e+01	-8.937041e+01
5.600000e-07	-4.875038e-06	-1.379231e-09	-3.402044e+01	-8.917915e+01
5.700000e-07	-4.853167e-06	-1.309236e-09	-3.386781e+01	-8.898373e+01
5.800000e-07	-4.830870e-06	-1.332331e-09	-3.371221e+01	-8.878407e+01
5.900000e-07	-4.808140e-06	-1.382259e-09	-3.355359e+01	-8.858013e+01
6.000000e-07	-4.785180e-06	-1.311325e-09	-3.339337e+01	-8.837186e+01
6.100000e-07	-4.761981e-06	-1.295770e-09	-3.323147e+01	-8.815920e+01
6.200000e-07	-4.738417e-06	-1.344848e-09	-3.306703e+01	-8.794208e+01
6.300000e-07	-4.714530e-06	-1.307825e-09	-3.290033e+01	-8.772046e+01
6.400000e-07	-4.690514e-06	-1.279228e-09	-3.273274e+01	-8.749428e+01
6.500000e-07	-4.666318e-06	-1.328642e-09	-3.256388e+01	-8.726349e+01
6.600000e-07	-4.641737e-06	-1.323343e-09	-3.239235e+01	-8.702804e+01
6.700000e-07	-4.616675e-06	-1.276118e-09	-3.221745e+01	-8.678790e+01
6.800000e-07	-4.591107e-06	-1.303738e-09	-3.203903e+01	-8.654302e+01
6.900000e-07	-4.564921e-06	-1.305073e-09	-3.185628e+01	-8.629338e+01
7.000000e-07	-4.538228e-06	-1.267154e-09	-3.167001e+01	-8.603895e+01
7.100000e-07	-4.511192e-06	-1.268429e-09	-3.148134e+01	-8.577974e+01
7.200000e-07	-4.483761e-06	-1.291516e-09	-3.128992e+01	-8.551572e+01
7.300000e-07	-4.456031e-06	-1.262550e-09	-3.109640e+01	-8.524691e+01
7.400000e-07	-4.428152e-06	-1.267714e-09	-3.090185e+01	-8.497332e+01
7.500000e-07	-4.400102e-06	-1.281562e-09	-3.070610e+01	-8.469499e+01
7.600000e-07	-4.371832e-06	-1.265311e-09	-3.050881e+01	-8.441194e+01
7.700000e-07	-4.343305e-06	-1.243224e-09	-3.030974e+01	-8.412423e+01
7.800000e-07	-4.314429e-06	-1.259759e-09	-3.010823e+01	-8.383191e+01
7.900000e-07	-4.285133e-06	-1.244539e-09	-2.990379e+01	-8.353505e+01
8.000000e-07	-4.255533e-06	-1.232492e-09	-2.969723e+01	-8.323372e+01
8.100000e-07	-4.225728e-06	-1.237638e-09	-2.948923e+01	-8.292800e+01
8.200000e-07	-4.195639e-06	-1.238351e-09	-2.927925e+01	-8.261800e+01
8.300000e-07	-4.165194e-06	-1.214724e-09	-2.906679e+01	-8.230380e+01
8.400000e-07	-4.134453e-06	-1.220623e-09	-2.885227e+01	-8.198551e+01
8.500000e-07	-4.103436e-06	-1.224986e-09	-2.863581e+01	-8.166324e+01
8.600000e-07	-4.072122e-06	-1.209939e-09	-2.841729e+01	-8.133709e+01
8.700000e-07	-4.040604e-06	-1.200473e-09	-2.819734e+01	-8.100719e+01
8.800000e-07	-4.008967e-06	-1.207558e-09	-2.797657e+01	-8.067363e+01
8.900000e-07	-3.977142e-06	-1.192466e-09	-2.775447e+01	-8.033653e+01
9.000000e-07	-3.945111e-06	-1.177424e-09	-2.753095e+01	-7.999600e+01
9.100000e-07	-3.912885e-06	-1.179177e-09	-2.730606e+01	-7.965214e+01
9.200000e-07	-3.880343e-06	-1.173385e-09	-2.707896e+01	-7.930504e+01
9.300000e-07	-3.847397e-06	-1.160734e-09	-2.684905e+01	-7.895480e+01
9.400000e-07	-3.814030e-06	-1.163574e-09	-2.661620e+01	-7.860148e+01
9.500000e-07	-3.780158e-06	-1.166250e-09	-2.637982e+01	-7.824516e+01
9.600000e-07	-3.745673e-06	-1.149974e-09	-2.613916e+01	-7.788590e+01
9.700000e-07	-3.710742e-06	-1.144612e-09	-2.589540e+01	-7.752372e+01
9.800000e-07	-3.675591e-06	-1.143664e-09	-2.565010e+01	-7.715866e+01
9.900000e-07	-3.640202e-06	-1.133700e-09	-2.540314e+01	-7.679072e+01
1.000000e-06	-3.604618e-06	-1.120852e-09	-2.515482e+01	-7.641990e+01
1.010000e-06	-3.568889e-06	-1.123113e-09	-2.490548e+01	-7.604617e+01
1.020000e-06	-3.533051e-06	-1.114946e-09	-2.465538e+01	-7.566948e+01
1.030000e-06	-3.497047e-06	-1.104529e-09	-2.440413e+01	-7.528978e+01
1.040000e-06	-3.460815e-06	-1.096739e-09	-2.415128e+01	-7.490698e+01
1.050000e-06	-3.424436e-06	-1.092118e-09	-2.389741e+01	-7.452097e+01
1.060000e-06	-3.387779e-06	-1.077799e-09	-2.364160e+01	-7.413164e+01
1.070000e-06	-3.350819e-06	-1.075541e-09	-2.338368e+01	-7.373885e+01
1.080000e-06	-3.313570e-06	-1.073777e-09	-2.312374e+01	-7.334243e+01
1.090000e-06	-3.276010e-06	-1.067732e-09	-2.286163e+01	-7.294222e+01
1.100000e-06	-3.238298e-06	-1.055165e-09	-2.259845e+01	-7.253801e+01
1.110000e-06	-3.200390e-06	-1.048995e-09	-2.233391e+01	-7.212960e+01
1.120000e-06	-3.162242e-06	-1.035552e-09	-2.206769e+01	-7.171678e+01
1.130000e-06	-3.123830e-06	-1.023945e-09	-2.179964e+01	-7.129929e+01
1.140000e-06	-3.085174e-06	-1.017364e-09	-2.152988e+01	-7.087690e+01
1.150000e-06	-3.046421e-06	-1.012237e-09	-2.125944e+01	-7.044934e+01
1.160000e-06	-3.007548e-06	-1.003862e-09	-2.098816e+01	-7.001635e+01
1.170000e-06	-2.968422e-06	-1.001731e-09	-2.071512e+01	-6.957766e+01
1.180000e-06	-2.928989e-06	-1.000508e-09	-2.043994e+01	-6.913299e+01
1.190000e-06	-2.889381e-06	-9.932227e-10	-2.016354e+01	-6.868205e+01
1.200000e-06	-2.849675e-06	-9.826679e-10	-1.988645e+01	-6.822457e+01
1.210000e-06	-2.809869e-06	-9.737428e-10	-1.960866e+01	-6.776026e+01
1.220000e-06	-2.769990e-06	-9.646658e-10	-1.933037e+01	-6.728884e+01
1.230000e-06	-2.729949e-06	-9.571668e-10	-1.905094e+01	-6.681004e+01
1.240000e-06	-2.689702e-06	-9.546972e-10	-1.877008e+01	-6.632358e+01
1.250000e-06	-2.649301e-06	-9.490767e-10	-1.848814e+01	-6.582920e+01
1.260000e-06	-2.608777e-06	-9.439848e-10	-1.820534e+01	-6.532664e+01
1.270000e-06	-2.568097e-06	-9.393319e-10	-1.792146e+01	-6.481565e+01
1.280000e-06	-2.527196e-06	-9.337676e-10	-1.763603e+01	-6.429600e+01
1.290000e-06	-2.485994e-06	-9.237242e-10	-1.734850e+01	-6.376746e+01
1.300000e-06	-2.444475e-06	-9.124501e-10	-1.705876e+01	-6.322982e+01
1.310000e-06	-2.402560e-06	-8.984129e-10	-1.676626e+01	-6.268286e+01
1.320000e-06	-2.360284e-06	-8.870190e-10	-1.647123e+01	-6.212641e+01
1.330000e-06	-2.317743e-06	-8.780598e-10	-1.617436e+01	-6.156028e+01
1.340000e-06	-2.274995e-06	-8.717958e-10	-1.587605e+01	-6.098430e+01
1.350000e-06	-2.232059e-06	-8.619516e-10	-1.557641e+01	-6.039833e+01
1.360000e-06	-2.188917e-06	-8.519342e-10	-1.527535e+01	-5.980220e+01
1.370000e-06	-2.145588e-06	-8.409299e-10	-1.497298e+01	-5.919580e+01
1.380000e-06	-2.102073e-06	-8.320363e-10	-1.466931e+01	-5.857898e+01
1.390000e-06	-2.058439e-06	-8.214514e-10	-1.436481e+01	-5.795164e+01
1.400000e-06	-2.014717e-06	-8.114605e-10	-1.405970e+01	-5.731366e+01
1.410000e-06	-1.970911e-06	-7.993620e-10	-1.375399e+01	-5.666493e+01
1.420000e-06	-1.927011e-06	-7.875919e-10	-1.344764e+01	-5.600535e+01
1.430000e-06	-1.883052e-06	-7.754800e-10	-1.314087e+01	-5.533482e+01
1.440000e-06	-1.839050e-06	-7.645065e-10	-1.283381e+01	-5.465323e+01
1.450000e-06	-1.794937e-06	-7.512830e-10	-1.252596e+01	-5.396047e+01
1.460000e-06	-1.750668e-06	-7.380367e-10	-1.221703e+01	-5.325644e+01
1.470000e-06	-1.706340e-06	-7.251593e-10	-1.190769e+01	-5.254103e+01
1.480000e-06	-1.661968e-06	-7.143146e-10	-1.159804e+01	-5.181410e+01
1.490000e-06	-1.617465e-06	-7.041793e-10	-1.128748e+01	-5.107553e+01
1.500000e-06	-1.572827e-06	-6.932573e-10	-1.097597e+01	-5.032518e+01
1.510000e-06	-1.527982e-06	-6.802861e-10	-1.066302e+01	-4.956288e+01
1.520000e-06	-1.482964e-06	-6.652483e-10	-1.034886e+01	-4.878848e+01
1.530000e-06	-1.437883e-06	-6.493997e-10	-1.003426e+01	-4.800180e+01
1.540000e-06	-1.392714e-06	-6.358698e-10	-9.719052e+00	-4.720262e+01
1.550000e-06	-1.347484e-06	-6.258096e-10	-9.403414e+00	-4.639075e+01
1.560000e-06	-1.302145e-06	-6.164011e-10	-9.087014e+00	-4.556595e+01
1.570000e-06	-1.256677e-06	-6.066480e-10	-8.769717e+00	-4.472798e+01
1.580000e-06	-1.211127e-06	-5.953227e-10	-8.451843e+00	-4.387658e+01
1.590000e-06	-1.165506e-06	-5.823328e-10	-8.133479e+00	-4.301147e+01
1.600000e-06	-1.119779e-06	-5.670225e-10	-7.814372e+00	-4.213236e+01
1.610000e-06	-1.073956e-06	-5.533430e-10	-7.494598e+00	-4.123896e+01
1.620000e-06	-1.028050e-06	-5.399267e-10	-7.174242e+00	-4.033094e+01
1.630000e-06	-9.819869e-07	-5.269740e-10	-6.852793e+00	-3.940798e+01
1.640000e-06	-9.359088e-07	-5.117709e-10	-6.531237e+00	-3.846975e+01
1.650000e-06	-8.899195e-07	-4.963810e-10	-6.210301e+00	-3.751593e+01
1.660000e-06	-8.438441e-07	-4.803722e-10	-5.888763e+00	-3.654616e+01
1.670000e-06	-7.976318e-07	-4.661123e-10	-5.566271e+00	-3.556013e+01
1.680000e-06	-7.514122e-07	-4.538035e-10	-5.243728e+00	-3.455749e+01
1.690000e-06	-7.051823e-07	-4.443095e-10	-4.921113e+00	-3.353792e+01
1.700000e-06	-6.587972e-07	-4.330061e-10	-4.597414e+00	-3.250111e+01
1.710000e-06	-6.123152e-07	-4.185379e-10	-4.273040e+00	-3.144678e+01
1.720000e-06	-5.659055e-07	-3.993829e-10	-3.949170e+00	-3.037465e+01
1.730000e-06	-5.194535e-07	-3.776910e-10	-3.625005e+00	-2.928446e+01
1.740000e-06	-4.729394e-07	-3.575224e-10	-3.300406e+00	-2.817600e+01
1.750000e-06	-4.264101e-07	-3.423904e-10	-2.975701e+00	-2.704908e+01
1.760000e-06	-3.798708e-07	-3.296474e-10	-2.650927e+00	-2.590355e+01
1.770000e-06	-3.333964e-07	-3.164768e-10	-2.326606e+00	-2.473931e+01
1.780000e-06	-2.869129e-07	-3.033040e-10	-2.002220e+00	-2.355628e+01
1.790000e-06	-2.403867e-07	-2.865384e-10	-1.677538e+00	-2.235446e+01
1.800000e-06	-1.938122e-07	-2.643731e-10	-1.352518e+00	-2.113388e+01
1.810000e-06	-1.472190e-07	-2.418311e-10	-1.027367e+00	-1.989465e+01
1.820000e-06	-1.006068e-07	-2.216526e-10	-7.020840e-01	-1.863691e+01
1.830000e-06	-5.399720e-08	-2.034471e-10	-3.768193e-01	-1.736088e+01
1.840000e-06	-7.436373e-09	-1.870121e-10	-5.189470e-02	-1.606685e+01
1.850000e-06	3.925924e-08	-1.720842e-10	2.739705e-01	-1.475516e+01
1.860000e-06	8.598202e-08	-1.576664e-10	6.000253e-01	-1.342624e+01
1.870000e-06	1.325396e-07	-1.415452e-10	9.249269e-01	-1.208057e+01
1.880000e-06	1.790326e-07	-1.237447e-10	1.249378e+00	-1.071872e+01
1.890000e-06	2.255990e-07	-1.037908e-10	1.574342e+00	-9.341301e+00
1.900000e-06	2.722623e-07	-8.341203e-11	1.899981e+00	-7.949024e+00
1.910000e-06	3.189266e-07	-6.193772e-11	2.225628e+00	-6.542656e+00
1.920000e-06	3.654512e-07	-4.111850e-11	2.550300e+00	-5.123034e+00
1.930000e-06	4.118583e-07	-2.199474e-11	2.874152e+00	-3.691060e+00
1.940000e-06	4.582603e-07	-5.335543e-12	3.197968e+00	-2.247703e+00
1.950000e-06	5.046764e-07	1.061094e-11	3.521883e+00	-7.939879e-01
1.960000e-06	5.511304e-07	2.691347e-11	3.846062e+00	6.689987e-01
1.970000e-06	5.974807e-07	4.542110e-11	4.169518e+00	2.140119e+00
1.980000e-06	6.437505e-07	6.706707e-11	4.492411e+00	3.618187e+00
1.990000e-06	6.900072e-07	9.056819e-11	4.815213e+00	5.101969e+00
2.000000e-06	7.361376e-07	1.139761e-10	5.137134e+00	6.590198e+00
2.010000e-06	7.822212e-07	1.360838e-10	5.458728e+00	8.081569e+00
2.020000e-06	8.283307e-07	1.552949e-10	5.780504e+00	9.574752e+00
2.030000e-06	8.743925e-07	1.752697e-10	6.101946e+00	1.106840e+01
2.040000e-06	9.203536e-07	1.963317e-10	6.422685e+00	1.256113e+01
2.050000e-06	9.662266e-07	2.168332e-10	6.742810e+00	1.405159e+01
2.060000e-06	1.012066e-06	2.385713e-10	7.062699e+00	1.553839e+01
2.070000e-06	1.057912e-06	2.616163e-10	7.382637e+00	1.702016e+01
2.080000e-06	1.103691e-06	2.835259e-10	7.702105e+00	1.849554e+01
2.090000e-06	1.149305e-06	3.051679e-10	8.020421e+00	1.996319e+01
2.100000e-06	1.194818e-06	3.267279e-10	8.338036e+00	2.142181e+01
2.110000e-06	1.240266e-06	3.471759e-10	8.655193e+00	2.287009e+01
2.120000e-06	1.285645e-06	3.673684e-10	8.971871e+00	2.430681e+01
2.130000e-06	1.330942e-06	3.872026e-10	9.287978e+00	2.573076e+01
2.140000e-06	1.376143e-06	4.057837e-10	9.603412e+00	2.714079e+01
2.150000e-06	1.421244e-06	4.218232e-10	9.918147e+00	2.853580e+01
2.160000e-06	1.466199e-06	4.394633e-10	1.023186e+01	2.991476e+01
2.170000e-06	1.511066e-06	4.599394e-10	1.054497e+01	3.127670e+01
2.180000e-06	1.555795e-06	4.792414e-10	1.085711e+01	3.262071e+01
2.190000e-06	1.600329e-06	4.975673e-10	1.116789e+01	3.394598e+01
2.200000e-06	1.644821e-06	5.158805e-10	1.147838e+01	3.525173e+01
2.210000e-06	1.689215e-06	5.342503e-10	1.178819e+01	3.653731e+01
2.220000e-06	1.733445e-06	5.515608e-10	1.209684e+01	3.780211e+01
2.230000e-06	1.777586e-06	5.680841e-10	1.240488e+01	3.904561e+01
2.240000e-06	1.821619e-06	5.844071e-10	1.271216e+01	4.026739e+01
2.250000e-06	1.865592e-06	5.985968e-10	1.301903e+01	4.146709e+01
2.260000e-06	1.909525e-06	6.135143e-10	1.332561e+01	4.264444e+01
2.270000e-06	1.953373e-06	6.292337e-10	1.363161e+01	4.379926e+01
2.280000e-06	1.997220e-06	6.449960e-10	1.393759e+01	4.493142e+01
2.290000e-06	2.041052e-06	6.593380e-10	1.424347e+01	4.604090e+01
2.300000e-06	2.084758e-06	6.734314e-10	1.454848e+01	4.712774e+01
2.310000e-06	2.128418e-06	6.870028e-10	1.485316e+01	4.819204e+01
2.320000e-06	2.171942e-06	7.011950e-10	1.515689e+01	4.923399e+01
2.330000e-06	2.215288e-06	7.159485e-10	1.545938e+01	5.025381e+01
2.340000e-06	2.258522e-06	7.310578e-10	1.576109e+01	5.125183e+01
2.350000e-06	2.301488e-06	7.452782e-10	1.606093e+01	5.222837e+01
2.360000e-06	2.344077e-06	7.583665e-10	1.635813e+01	5.318386e+01
2.370000e-06	2.386195e-06	7.708607e-10	1.665205e+01	5.411873e+01
2.380000e-06	2.427827e-06	7.817513e-10	1.694258e+01	5.503346e+01
2.390000e-06	2.469232e-06	7.940191e-10	1.723153e+01	5.592858e+01
2.400000e-06	2.510452e-06	8.074205e-10	1.751918e+01	5.680462e+01
2.410000e-06	2.551357e-06	8.204788e-10	1.780464e+01	5.766216e+01
2.420000e-06	2.592030e-06	8.359351e-10	1.808847e+01	5.850177e+01
2.430000e-06	2.632486e-06	8.522412e-10	1.837080e+01	5.932403e+01
2.440000e-06	2.672729e-06	8.666401e-10	1.865163e+01	6.012956e+01
2.450000e-06	2.712818e-06	8.789899e-10	1.893139e+01	6.091894e+01
2.460000e-06	2.752799e-06	8.888166e-10	1.921040e+01	6.169275e+01
2.470000e-06	2.792746e-06	8.978622e-10	1.948917e+01	6.245159e+01
2.480000e-06	2.832682e-06	9.064602e-10	1.976787e+01	6.319600e+01
2.490000e-06	2.872485e-06	9.153166e-10	2.004563e+01	6.392654e+01
2.500000e-06	2.912101e-06	9.260207e-10	2.032209e+01	6.464372e+01
2.510000e-06	2.951552e-06	9.384356e-10	2.059739e+01	6.534805e+01
2.520000e-06	2.990778e-06	9.506431e-10	2.087113e+01	6.603998e+01
2.530000e-06	3.029710e-06	9.629144e-10	2.114282e+01	6.671995e+01
2.540000e-06	3.068328e-06	9.730081e-10	2.141232e+01	6.738835e+01
2.550000e-06	3.106689e-06	9.803528e-10	2.168002e+01	6.804556e+01
2.560000e-06	3.144968e-06	9.883355e-10	2.194715e+01	6.869190e+01
2.570000e-06	3.183111e-06	9.973663e-10	2.221333e+01	6.932766e+01
2.580000e-06	3.220991e-06	1.004474e-09	2.247767e+01	6.995309e+01
2.590000e-06	3.258704e-06	1.012143e-09	2.274086e+01	7.056840e+01
2.600000e-06	3.296226e-06	1.022599e-09	2.300270e+01	7.117379e+01
2.610000e-06	3.333437e-06	1.034210e-09	2.326238e+01	7.176938e+01
2.620000e-06	3.370349e-06	1.045703e-09	2.351997e+01	7.235528e+01
2.630000e-06	3.407048e-06	1.054973e-09	2.377607e+01	7.293158e+01
2.640000e-06	3.443485e-06	1.060202e-09	2.403035e+01	7.349831e+01
2.650000e-06	3.479664e-06	1.064170e-09	2.428283e+01	7.405550e+01
2.660000e-06	3.515695e-06	1.069057e-09	2.453427e+01	7.460313e+01
2.670000e-06	3.551637e-06	1.074383e-09	2.478509e+01	7.514118e+01
2.680000e-06	3.587491e-06	1.082330e-09	2.503529e+01	7.566959e+01
2.690000e-06	3.623230e-06	1.094058e-09	2.528470e+01	7.618831e+01
2.700000e-06	3.658780e-06	1.107146e-09	2.553279e+01	7.669725e+01
2.710000e-06	3.694068e-06	1.118202e-09	2.577904e+01	7.719633e+01
2.720000e-06	3.729042e-06	1.128003e-09	2.602311e+01	7.768545e+01
2.730000e-06	3.763587e-06	1.135775e-09	2.626418e+01	7.816451e+01
2.740000e-06	3.797659e-06	1.140110e-09	2.650195e+01	7.863343e+01
2.750000e-06	3.831209e-06	1.143909e-09	2.673608e+01	7.909212e+01
2.760000e-06	3.864145e-06	1.149791e-09	2.696592e+01	7.954048e+01
2.770000e-06	3.896591e-06	1.158922e-09	2.719235e+01	7.997845e+01
2.780000e-06	3.928795e-06	1.168472e-09	2.741709e+01	8.040596e+01
2.790000e-06	3.960888e-06	1.177631e-09	2.764104e+01	8.082297e+01
2.800000e-06	3.992847e-06	1.187145e-09	2.786407e+01	8.122946e+01
2.810000e-06	4.024647e-06	1.194031e-09	2.808598e+01	8.162541e+01
2.820000e-06	4.056306e-06	1.198431e-09	2.830692e+01	8.201084e+01
2.830000e-06	4.087775e-06	1.201193e-09	2.852652e+01	8.238579e+01
2.840000e-06	4.118902e-06	1.202725e-09	2.874374e+01	8.275031e+01
2.850000e-06	4.149643e-06	1.207391e-09	2.895827e+01	8.310448e+01
2.860000e-06	4.180042e-06	1.215816e-09	2.917041e+01	8.344843e+01
2.870000e-06	4.210118e-06	1.223142e-09	2.938029e+01	8.378227e+01
2.880000e-06	4.239987e-06	1.229331e-09	2.958874e+01	8.410616e+01
2.890000e-06	4.269654e-06	1.234927e-09	2.979576e+01	8.442029e+01
2.900000e-06	4.299031e-06	1.238418e-09	3.000077e+01	8.472487e+01
