# Temperatura_=_-0.2
# Concentracion g/m^3_=_1620.0
# C_Vs_to_Am_M_A/Vsm_=_65563218390.804596
# pendiente_HvsI_1/m_=_3716.3
# ordenada_HvsI_A/m_=_1297.0
# frecuencia_Hz_=_135110.93609557374

Tiempo_(s)	Campo_(V.s)	Magnetizacion_(V.s)	Campo_(kA/m)	Magnetizacion_(A/m)
0.000000e+00	-5.517109e-06	-1.126813e-09	-3.836068e+01	-7.240597e+01
1.000000e-08	-5.517376e-06	-1.130479e-09	-3.836253e+01	-7.241725e+01
2.000000e-08	-5.517461e-06	-1.133801e-09	-3.836312e+01	-7.242859e+01
3.000000e-08	-5.517271e-06	-1.135574e-09	-3.836180e+01	-7.243985e+01
4.000000e-08	-5.516643e-06	-1.133172e-09	-3.835743e+01	-7.245089e+01
5.000000e-08	-5.515440e-06	-1.127491e-09	-3.834907e+01	-7.246154e+01
6.000000e-08	-5.513682e-06	-1.118708e-09	-3.833684e+01	-7.247164e+01
7.000000e-08	-5.511329e-06	-1.099518e-09	-3.832048e+01	-7.248099e+01
8.000000e-08	-5.508342e-06	-1.105600e-09	-3.829971e+01	-7.248941e+01
9.000000e-08	-5.504907e-06	-1.166592e-09	-3.827583e+01	-7.249668e+01
1.000000e-07	-5.501033e-06	-1.193074e-09	-3.824890e+01	-7.250260e+01
1.100000e-07	-5.496719e-06	-1.099887e-09	-3.821890e+01	-7.250697e+01
1.200000e-07	-5.492244e-06	-1.049063e-09	-3.818779e+01	-7.250957e+01
1.300000e-07	-5.487636e-06	-1.083118e-09	-3.815574e+01	-7.251019e+01
1.400000e-07	-5.482613e-06	-1.177050e-09	-3.812082e+01	-7.250863e+01
1.500000e-07	-5.477062e-06	-1.104679e-09	-3.808223e+01	-7.250468e+01
1.600000e-07	-5.471202e-06	-1.055105e-09	-3.804148e+01	-7.249816e+01
1.700000e-07	-5.465088e-06	-1.109984e-09	-3.799897e+01	-7.248888e+01
1.800000e-07	-5.458496e-06	-1.169339e-09	-3.795314e+01	-7.247666e+01
1.900000e-07	-5.451458e-06	-1.126371e-09	-3.790420e+01	-7.246133e+01
2.000000e-07	-5.444134e-06	-1.029692e-09	-3.785328e+01	-7.244276e+01
2.100000e-07	-5.436552e-06	-1.087113e-09	-3.780055e+01	-7.242080e+01
2.200000e-07	-5.428660e-06	-1.147217e-09	-3.774568e+01	-7.239532e+01
2.300000e-07	-5.420439e-06	-1.160351e-09	-3.768852e+01	-7.236623e+01
2.400000e-07	-5.411922e-06	-1.089111e-09	-3.762930e+01	-7.233341e+01
2.500000e-07	-5.402907e-06	-1.118282e-09	-3.756662e+01	-7.229680e+01
2.600000e-07	-5.393145e-06	-1.129953e-09	-3.749875e+01	-7.225633e+01
2.700000e-07	-5.382778e-06	-1.135207e-09	-3.742666e+01	-7.221195e+01
2.800000e-07	-5.371902e-06	-1.093793e-09	-3.735104e+01	-7.216362e+01
2.900000e-07	-5.360465e-06	-1.129580e-09	-3.727152e+01	-7.211133e+01
3.000000e-07	-5.348647e-06	-1.139809e-09	-3.718935e+01	-7.205505e+01
3.100000e-07	-5.336554e-06	-1.124546e-09	-3.710527e+01	-7.199480e+01
3.200000e-07	-5.323991e-06	-1.088931e-09	-3.701792e+01	-7.193058e+01
3.300000e-07	-5.310928e-06	-1.107595e-09	-3.692709e+01	-7.186241e+01
3.400000e-07	-5.297563e-06	-1.127888e-09	-3.683416e+01	-7.179033e+01
3.500000e-07	-5.283899e-06	-1.101345e-09	-3.673915e+01	-7.171438e+01
3.600000e-07	-5.269778e-06	-1.083907e-09	-3.664097e+01	-7.163459e+01
3.700000e-07	-5.255301e-06	-1.116829e-09	-3.654031e+01	-7.155101e+01
3.800000e-07	-5.240378e-06	-1.128514e-09	-3.643655e+01	-7.146369e+01
3.900000e-07	-5.224791e-06	-1.076390e-09	-3.632817e+01	-7.137269e+01
4.000000e-07	-5.208605e-06	-1.087048e-09	-3.621563e+01	-7.127805e+01
4.100000e-07	-5.192007e-06	-1.125585e-09	-3.610023e+01	-7.117982e+01
4.200000e-07	-5.175120e-06	-1.099587e-09	-3.598281e+01	-7.107806e+01
4.300000e-07	-5.157955e-06	-1.054035e-09	-3.586346e+01	-7.097280e+01
4.400000e-07	-5.140499e-06	-1.116526e-09	-3.574209e+01	-7.086410e+01
4.500000e-07	-5.122587e-06	-1.117327e-09	-3.561755e+01	-7.075199e+01
4.600000e-07	-5.104207e-06	-1.054872e-09	-3.548975e+01	-7.063650e+01
4.700000e-07	-5.085461e-06	-1.051178e-09	-3.535941e+01	-7.051766e+01
4.800000e-07	-5.066430e-06	-1.116928e-09	-3.522708e+01	-7.039549e+01
4.900000e-07	-5.047127e-06	-1.074133e-09	-3.509287e+01	-7.027001e+01
5.000000e-07	-5.027569e-06	-1.057854e-09	-3.495688e+01	-7.014123e+01
5.100000e-07	-5.007787e-06	-1.087736e-09	-3.481934e+01	-7.000916e+01
5.200000e-07	-4.987739e-06	-1.079203e-09	-3.467995e+01	-6.987379e+01
5.300000e-07	-4.967326e-06	-1.028627e-09	-3.453801e+01	-6.973513e+01
5.400000e-07	-4.946620e-06	-1.075056e-09	-3.439404e+01	-6.959316e+01
5.500000e-07	-4.925603e-06	-1.083440e-09	-3.424790e+01	-6.944787e+01
5.600000e-07	-4.904146e-06	-1.039464e-09	-3.409872e+01	-6.929925e+01
5.700000e-07	-4.882301e-06	-1.043753e-09	-3.394683e+01	-6.914730e+01
5.800000e-07	-4.860084e-06	-1.086502e-09	-3.379235e+01	-6.899198e+01
5.900000e-07	-4.837524e-06	-1.046667e-09	-3.363549e+01	-6.883330e+01
6.000000e-07	-4.814684e-06	-1.024986e-09	-3.347668e+01	-6.867123e+01
6.100000e-07	-4.791546e-06	-1.049905e-09	-3.331581e+01	-6.850578e+01
6.200000e-07	-4.768131e-06	-1.041870e-09	-3.315300e+01	-6.833694e+01
6.300000e-07	-4.744511e-06	-1.014136e-09	-3.298877e+01	-6.816472e+01
6.400000e-07	-4.720661e-06	-1.032632e-09	-3.282294e+01	-6.798913e+01
6.500000e-07	-4.696489e-06	-1.040313e-09	-3.265487e+01	-6.781017e+01
6.600000e-07	-4.671898e-06	-1.018501e-09	-3.248389e+01	-6.762790e+01
6.700000e-07	-4.646846e-06	-1.024234e-09	-3.230970e+01	-6.744232e+01
6.800000e-07	-4.621295e-06	-1.027913e-09	-3.213205e+01	-6.725351e+01
6.900000e-07	-4.595137e-06	-1.012302e-09	-3.195017e+01	-6.706151e+01
7.000000e-07	-4.568420e-06	-1.005599e-09	-3.176440e+01	-6.686638e+01
7.100000e-07	-4.541328e-06	-1.014223e-09	-3.157603e+01	-6.666822e+01
7.200000e-07	-4.513930e-06	-9.996440e-10	-3.138553e+01	-6.646712e+01
7.300000e-07	-4.486287e-06	-9.994851e-10	-3.119333e+01	-6.626316e+01
7.400000e-07	-4.458486e-06	-9.990348e-10	-3.100002e+01	-6.605647e+01
7.500000e-07	-4.430531e-06	-9.942344e-10	-3.080566e+01	-6.584717e+01
7.600000e-07	-4.402264e-06	-9.826127e-10	-3.060911e+01	-6.563539e+01
7.700000e-07	-4.373686e-06	-9.878268e-10	-3.041041e+01	-6.542126e+01
7.800000e-07	-4.344870e-06	-9.789980e-10	-3.021005e+01	-6.520494e+01
7.900000e-07	-4.315671e-06	-9.793877e-10	-3.000703e+01	-6.498657e+01
8.000000e-07	-4.286103e-06	-9.794814e-10	-2.980144e+01	-6.476631e+01
8.100000e-07	-4.256285e-06	-9.781987e-10	-2.959411e+01	-6.454431e+01
8.200000e-07	-4.226211e-06	-9.662983e-10	-2.938501e+01	-6.432074e+01
8.300000e-07	-4.195774e-06	-9.710889e-10	-2.917338e+01	-6.409575e+01
8.400000e-07	-4.165072e-06	-9.668785e-10	-2.895991e+01	-6.386949e+01
8.500000e-07	-4.134126e-06	-9.600036e-10	-2.874474e+01	-6.364211e+01
8.600000e-07	-4.102882e-06	-9.551611e-10	-2.852750e+01	-6.341374e+01
8.700000e-07	-4.071455e-06	-9.571499e-10	-2.830898e+01	-6.318452e+01
8.800000e-07	-4.039848e-06	-9.444478e-10	-2.808922e+01	-6.295456e+01
8.900000e-07	-4.008070e-06	-9.399317e-10	-2.786826e+01	-6.272396e+01
9.000000e-07	-3.976119e-06	-9.393223e-10	-2.764611e+01	-6.249282e+01
9.100000e-07	-3.943968e-06	-9.338611e-10	-2.742256e+01	-6.226119e+01
9.200000e-07	-3.911503e-06	-9.266713e-10	-2.719683e+01	-6.202914e+01
9.300000e-07	-3.878560e-06	-9.280506e-10	-2.696778e+01	-6.179668e+01
9.400000e-07	-3.845179e-06	-9.274689e-10	-2.673568e+01	-6.156383e+01
9.500000e-07	-3.811301e-06	-9.168289e-10	-2.650012e+01	-6.133056e+01
9.600000e-07	-3.776904e-06	-9.139194e-10	-2.626096e+01	-6.109683e+01
9.700000e-07	-3.742168e-06	-9.150069e-10	-2.601944e+01	-6.086258e+01
9.800000e-07	-3.707140e-06	-9.140768e-10	-2.577589e+01	-6.062771e+01
9.900000e-07	-3.671811e-06	-9.100555e-10	-2.553024e+01	-6.039210e+01
1.000000e-06	-3.636219e-06	-9.105534e-10	-2.528277e+01	-6.015560e+01
1.010000e-06	-3.600473e-06	-9.013102e-10	-2.503423e+01	-5.991804e+01
1.020000e-06	-3.564635e-06	-8.923198e-10	-2.478504e+01	-5.967923e+01
1.030000e-06	-3.528704e-06	-8.850975e-10	-2.453522e+01	-5.943894e+01
1.040000e-06	-3.492567e-06	-8.822639e-10	-2.428395e+01	-5.919693e+01
1.050000e-06	-3.456216e-06	-8.751455e-10	-2.403120e+01	-5.895294e+01
1.060000e-06	-3.419627e-06	-8.748269e-10	-2.377680e+01	-5.870667e+01
1.070000e-06	-3.382666e-06	-8.705218e-10	-2.351981e+01	-5.845783e+01
1.080000e-06	-3.345403e-06	-8.626161e-10	-2.326071e+01	-5.820610e+01
1.090000e-06	-3.307976e-06	-8.504300e-10	-2.300049e+01	-5.795115e+01
1.100000e-06	-3.270337e-06	-8.445520e-10	-2.273878e+01	-5.769262e+01
1.110000e-06	-3.232411e-06	-8.348538e-10	-2.247508e+01	-5.743018e+01
1.120000e-06	-3.194215e-06	-8.296657e-10	-2.220950e+01	-5.716346e+01
1.130000e-06	-3.155828e-06	-8.263452e-10	-2.194260e+01	-5.689211e+01
1.140000e-06	-3.117273e-06	-8.264506e-10	-2.167452e+01	-5.661577e+01
1.150000e-06	-3.078457e-06	-8.211960e-10	-2.140463e+01	-5.633409e+01
1.160000e-06	-3.039413e-06	-8.140303e-10	-2.113316e+01	-5.604671e+01
1.170000e-06	-3.000216e-06	-8.072146e-10	-2.086062e+01	-5.575330e+01
1.180000e-06	-2.960902e-06	-8.026974e-10	-2.058726e+01	-5.545352e+01
1.190000e-06	-2.921442e-06	-7.963744e-10	-2.031290e+01	-5.514707e+01
1.200000e-06	-2.881766e-06	-7.906184e-10	-2.003703e+01	-5.483364e+01
1.210000e-06	-2.841994e-06	-7.850242e-10	-1.976049e+01	-5.451296e+01
1.220000e-06	-2.802142e-06	-7.808917e-10	-1.948340e+01	-5.418477e+01
1.230000e-06	-2.762151e-06	-7.764149e-10	-1.920534e+01	-5.384884e+01
1.240000e-06	-2.721963e-06	-7.707418e-10	-1.892591e+01	-5.350495e+01
1.250000e-06	-2.681550e-06	-7.663813e-10	-1.864492e+01	-5.315291e+01
1.260000e-06	-2.641030e-06	-7.604072e-10	-1.836318e+01	-5.279257e+01
1.270000e-06	-2.600245e-06	-7.574045e-10	-1.807960e+01	-5.242378e+01
1.280000e-06	-2.559098e-06	-7.537861e-10	-1.779350e+01	-5.204645e+01
1.290000e-06	-2.517670e-06	-7.493922e-10	-1.750546e+01	-5.166047e+01
1.300000e-06	-2.475889e-06	-7.418404e-10	-1.721495e+01	-5.126580e+01
1.310000e-06	-2.433897e-06	-7.348381e-10	-1.692298e+01	-5.086240e+01
1.320000e-06	-2.391686e-06	-7.259665e-10	-1.662949e+01	-5.045025e+01
1.330000e-06	-2.349199e-06	-7.195302e-10	-1.633407e+01	-5.002937e+01
1.340000e-06	-2.306482e-06	-7.158284e-10	-1.603706e+01	-4.959977e+01
1.350000e-06	-2.263398e-06	-7.142133e-10	-1.573750e+01	-4.916149e+01
1.360000e-06	-2.220058e-06	-7.061691e-10	-1.543615e+01	-4.871461e+01
1.370000e-06	-2.176541e-06	-6.976438e-10	-1.513357e+01	-4.825917e+01
1.380000e-06	-2.132871e-06	-6.901606e-10	-1.482994e+01	-4.779525e+01
1.390000e-06	-2.089147e-06	-6.836987e-10	-1.452592e+01	-4.732293e+01
1.400000e-06	-2.045382e-06	-6.763251e-10	-1.422162e+01	-4.684228e+01
1.410000e-06	-2.001580e-06	-6.718361e-10	-1.391707e+01	-4.635338e+01
1.420000e-06	-1.957729e-06	-6.650517e-10	-1.361217e+01	-4.585629e+01
1.430000e-06	-1.913780e-06	-6.574550e-10	-1.330659e+01	-4.535107e+01
1.440000e-06	-1.869736e-06	-6.504596e-10	-1.300035e+01	-4.483777e+01
1.450000e-06	-1.825583e-06	-6.451692e-10	-1.269335e+01	-4.431640e+01
1.460000e-06	-1.781286e-06	-6.365094e-10	-1.238535e+01	-4.378696e+01
1.470000e-06	-1.736894e-06	-6.255275e-10	-1.207669e+01	-4.324945e+01
1.480000e-06	-1.692328e-06	-6.145227e-10	-1.176682e+01	-4.270380e+01
1.490000e-06	-1.647589e-06	-6.028807e-10	-1.145575e+01	-4.214994e+01
1.500000e-06	-1.602789e-06	-5.913682e-10	-1.114426e+01	-4.158777e+01
1.510000e-06	-1.557874e-06	-5.818164e-10	-1.083196e+01	-4.101712e+01
1.520000e-06	-1.512805e-06	-5.731516e-10	-1.051859e+01	-4.043783e+01
1.530000e-06	-1.467588e-06	-5.641244e-10	-1.020420e+01	-3.984968e+01
1.540000e-06	-1.422255e-06	-5.529959e-10	-9.888991e+00	-3.925240e+01
1.550000e-06	-1.376952e-06	-5.405926e-10	-9.573999e+00	-3.864571e+01
1.560000e-06	-1.331602e-06	-5.290009e-10	-9.258678e+00	-3.802926e+01
1.570000e-06	-1.285990e-06	-5.159005e-10	-8.941536e+00	-3.740270e+01
1.580000e-06	-1.240268e-06	-5.038327e-10	-8.623630e+00	-3.676562e+01
1.590000e-06	-1.194584e-06	-4.919825e-10	-8.305988e+00	-3.611757e+01
1.600000e-06	-1.148839e-06	-4.789500e-10	-7.987921e+00	-3.545808e+01
1.610000e-06	-1.102971e-06	-4.682132e-10	-7.669001e+00	-3.478666e+01
1.620000e-06	-1.057026e-06	-4.593176e-10	-7.349543e+00	-3.410278e+01
1.630000e-06	-1.011059e-06	-4.499583e-10	-7.029930e+00	-3.340589e+01
1.640000e-06	-9.649599e-07	-4.401543e-10	-6.709404e+00	-3.269543e+01
1.650000e-06	-9.187477e-07	-4.249819e-10	-6.388088e+00	-3.197082e+01
1.660000e-06	-8.725439e-07	-4.094805e-10	-6.066832e+00	-3.123147e+01
1.670000e-06	-8.262671e-07	-3.930358e-10	-5.745067e+00	-3.047680e+01
1.680000e-06	-7.798684e-07	-3.798400e-10	-5.422455e+00	-2.970622e+01
1.690000e-06	-7.334516e-07	-3.672803e-10	-5.099717e+00	-2.891916e+01
1.700000e-06	-6.870737e-07	-3.589476e-10	-4.777250e+00	-2.811507e+01
1.710000e-06	-6.406540e-07	-3.505681e-10	-4.454492e+00	-2.729340e+01
1.720000e-06	-5.941100e-07	-3.389586e-10	-4.130870e+00	-2.645366e+01
1.730000e-06	-5.475337e-07	-3.240514e-10	-3.807023e+00	-2.559536e+01
1.740000e-06	-5.009884e-07	-3.074839e-10	-3.483392e+00	-2.471808e+01
1.750000e-06	-4.543389e-07	-2.911763e-10	-3.159036e+00	-2.382142e+01
1.760000e-06	-4.076028e-07	-2.771986e-10	-2.834078e+00	-2.290508e+01
1.770000e-06	-3.607827e-07	-2.639356e-10	-2.508536e+00	-2.196876e+01
1.780000e-06	-3.139524e-07	-2.528069e-10	-2.182923e+00	-2.101227e+01
1.790000e-06	-2.671323e-07	-2.441549e-10	-1.857381e+00	-2.003547e+01
1.800000e-06	-2.202586e-07	-2.311067e-10	-1.531467e+00	-1.903829e+01
1.810000e-06	-1.735027e-07	-2.116084e-10	-1.206371e+00	-1.802076e+01
1.820000e-06	-1.267912e-07	-1.892870e-10	-8.815844e-01	-1.698297e+01
1.830000e-06	-7.999397e-08	-1.700396e-10	-5.562011e-01	-1.592511e+01
1.840000e-06	-3.318347e-08	-1.556330e-10	-2.307260e-01	-1.484745e+01
1.850000e-06	1.365146e-08	-1.424708e-10	9.491912e-02	-1.375035e+01
1.860000e-06	6.042059e-08	-1.319483e-10	4.201067e-01	-1.263426e+01
1.870000e-06	1.071367e-07	-1.209433e-10	7.449257e-01	-1.149973e+01
1.880000e-06	1.539093e-07	-1.061046e-10	1.070137e+00	-1.034739e+01
1.890000e-06	2.006424e-07	-8.931545e-11	1.395074e+00	-9.177966e+00
1.900000e-06	2.473148e-07	-7.060428e-11	1.719589e+00	-7.992271e+00
1.910000e-06	2.939453e-07	-5.374695e-11	2.043813e+00	-6.791202e+00
1.920000e-06	3.406160e-07	-3.584404e-11	2.368316e+00	-5.575740e+00
1.930000e-06	3.872791e-07	-2.109878e-11	2.692767e+00	-4.346943e+00
1.940000e-06	4.338835e-07	-6.709333e-12	3.016808e+00	-3.105945e+00
1.950000e-06	4.805123e-07	5.814274e-12	3.341021e+00	-1.853948e+00
1.960000e-06	5.271836e-07	1.905639e-11	3.665528e+00	-5.922151e-01
1.970000e-06	5.737347e-07	3.407066e-11	3.989199e+00	6.779316e-01
1.980000e-06	6.201251e-07	5.200973e-11	4.311753e+00	1.955121e+00
1.990000e-06	6.664875e-07	7.209023e-11	4.634113e+00	3.237940e+00
2.000000e-06	7.128791e-07	9.323649e-11	4.956676e+00	4.524940e+00
2.010000e-06	7.592823e-07	1.140732e-10	5.279319e+00	5.814645e+00
2.020000e-06	8.056521e-07	1.317446e-10	5.601730e+00	7.105561e+00
2.030000e-06	8.519601e-07	1.457855e-10	5.923712e+00	8.396184e+00
2.040000e-06	8.981474e-07	1.604014e-10	6.244853e+00	9.685008e+00
2.050000e-06	9.442274e-07	1.750908e-10	6.565250e+00	1.097053e+01
2.060000e-06	9.902373e-07	1.920452e-10	6.885158e+00	1.225127e+01
2.070000e-06	1.036228e-06	2.116994e-10	7.204936e+00	1.352577e+01
2.080000e-06	1.082201e-06	2.326671e-10	7.524587e+00	1.479259e+01
2.090000e-06	1.127997e-06	2.519408e-10	7.843006e+00	1.605034e+01
2.100000e-06	1.173676e-06	2.682468e-10	8.160613e+00	1.729770e+01
2.110000e-06	1.219352e-06	2.838154e-10	8.478204e+00	1.853335e+01
2.120000e-06	1.264969e-06	2.976112e-10	8.795381e+00	1.975608e+01
2.130000e-06	1.310486e-06	3.115540e-10	9.111858e+00	2.096474e+01
2.140000e-06	1.355841e-06	3.262687e-10	9.427213e+00	2.215822e+01
2.150000e-06	1.401139e-06	3.431568e-10	9.742172e+00	2.333552e+01
2.160000e-06	1.446370e-06	3.603293e-10	1.005667e+01	2.449572e+01
2.170000e-06	1.491418e-06	3.775609e-10	1.036989e+01	2.563798e+01
2.180000e-06	1.536382e-06	3.943457e-10	1.068252e+01	2.676154e+01
2.190000e-06	1.581280e-06	4.100492e-10	1.099470e+01	2.786573e+01
2.200000e-06	1.626031e-06	4.242898e-10	1.130585e+01	2.895001e+01
2.210000e-06	1.670635e-06	4.390032e-10	1.161599e+01	3.001388e+01
2.220000e-06	1.715108e-06	4.535833e-10	1.192521e+01	3.105698e+01
2.230000e-06	1.759460e-06	4.684775e-10	1.223359e+01	3.207900e+01
2.240000e-06	1.803623e-06	4.826577e-10	1.254066e+01	3.307975e+01
2.250000e-06	1.847655e-06	4.971149e-10	1.284682e+01	3.405913e+01
2.260000e-06	1.891630e-06	5.111805e-10	1.315258e+01	3.501711e+01
2.270000e-06	1.935521e-06	5.243812e-10	1.345775e+01	3.595376e+01
2.280000e-06	1.979357e-06	5.364627e-10	1.376255e+01	3.686920e+01
2.290000e-06	2.023147e-06	5.472410e-10	1.406702e+01	3.776365e+01
2.300000e-06	2.066876e-06	5.570445e-10	1.437107e+01	3.863740e+01
2.310000e-06	2.110547e-06	5.691474e-10	1.467471e+01	3.949078e+01
2.320000e-06	2.154144e-06	5.825996e-10	1.497784e+01	4.032420e+01
2.330000e-06	2.197635e-06	5.946685e-10	1.528024e+01	4.113811e+01
2.340000e-06	2.240979e-06	6.053027e-10	1.558162e+01	4.193300e+01
2.350000e-06	2.284137e-06	6.154504e-10	1.588169e+01	4.270941e+01
2.360000e-06	2.327152e-06	6.258066e-10	1.618078e+01	4.346790e+01
2.370000e-06	2.369976e-06	6.375931e-10	1.647854e+01	4.420905e+01
2.380000e-06	2.412475e-06	6.500148e-10	1.677403e+01	4.493347e+01
2.390000e-06	2.454569e-06	6.619272e-10	1.706671e+01	4.564178e+01
2.400000e-06	2.496283e-06	6.746450e-10	1.735675e+01	4.633458e+01
2.410000e-06	2.537819e-06	6.856501e-10	1.764555e+01	4.701250e+01
2.420000e-06	2.579172e-06	6.960734e-10	1.793308e+01	4.767615e+01
2.430000e-06	2.620122e-06	7.059816e-10	1.821781e+01	4.832610e+01
2.440000e-06	2.660739e-06	7.147959e-10	1.850022e+01	4.896293e+01
2.450000e-06	2.701135e-06	7.254291e-10	1.878110e+01	4.958718e+01
2.460000e-06	2.741233e-06	7.370694e-10	1.905990e+01	5.019938e+01
2.470000e-06	2.781132e-06	7.473688e-10	1.933732e+01	5.079999e+01
2.480000e-06	2.820988e-06	7.566791e-10	1.961444e+01	5.138948e+01
2.490000e-06	2.860774e-06	7.634963e-10	1.989108e+01	5.196823e+01
2.500000e-06	2.900424e-06	7.693129e-10	2.016676e+01	5.253662e+01
2.510000e-06	2.939984e-06	7.765833e-10	2.044182e+01	5.309496e+01
2.520000e-06	2.979432e-06	7.856305e-10	2.071610e+01	5.364354e+01
2.530000e-06	3.018646e-06	7.961928e-10	2.098876e+01	5.418256e+01
2.540000e-06	3.057603e-06	8.061597e-10	2.125963e+01	5.471223e+01
2.550000e-06	3.096431e-06	8.132653e-10	2.152960e+01	5.523269e+01
2.560000e-06	3.135042e-06	8.169629e-10	2.179807e+01	5.574402e+01
2.570000e-06	3.173317e-06	8.198994e-10	2.206419e+01	5.624628e+01
2.580000e-06	3.211368e-06	8.256681e-10	2.232877e+01	5.673949e+01
2.590000e-06	3.249221e-06	8.314970e-10	2.259196e+01	5.722364e+01
2.600000e-06	3.286894e-06	8.394857e-10	2.285390e+01	5.769866e+01
2.610000e-06	3.324357e-06	8.472834e-10	2.311439e+01	5.816448e+01
2.620000e-06	3.361570e-06	8.557878e-10	2.337313e+01	5.862098e+01
2.630000e-06	3.398627e-06	8.638692e-10	2.363078e+01	5.906803e+01
2.640000e-06	3.435450e-06	8.680452e-10	2.388682e+01	5.950549e+01
2.650000e-06	3.471879e-06	8.699197e-10	2.414011e+01	5.993319e+01
2.660000e-06	3.508005e-06	8.739858e-10	2.439130e+01	6.035097e+01
2.670000e-06	3.543994e-06	8.798665e-10	2.464153e+01	6.075865e+01
2.680000e-06	3.579880e-06	8.856128e-10	2.489104e+01	6.115605e+01
2.690000e-06	3.615620e-06	8.918517e-10	2.513955e+01	6.154301e+01
2.700000e-06	3.651219e-06	8.991198e-10	2.538707e+01	6.191937e+01
2.710000e-06	3.686713e-06	9.053787e-10	2.563386e+01	6.228497e+01
2.720000e-06	3.722015e-06	9.097539e-10	2.587931e+01	6.263970e+01
2.730000e-06	3.756935e-06	9.159232e-10	2.612211e+01	6.298344e+01
2.740000e-06	3.791485e-06	9.199518e-10	2.636234e+01	6.331612e+01
2.750000e-06	3.825577e-06	9.234801e-10	2.659939e+01	6.363767e+01
2.760000e-06	3.859136e-06	9.272525e-10	2.683272e+01	6.394806e+01
2.770000e-06	3.892247e-06	9.299460e-10	2.706295e+01	6.424732e+01
2.780000e-06	3.924955e-06	9.329519e-10	2.729036e+01	6.453546e+01
2.790000e-06	3.957305e-06	9.378674e-10	2.751530e+01	6.481258e+01
2.800000e-06	3.989374e-06	9.428269e-10	2.773827e+01	6.507878e+01
2.810000e-06	4.021239e-06	9.493235e-10	2.795983e+01	6.533422e+01
2.820000e-06	4.052915e-06	9.554592e-10	2.818007e+01	6.557907e+01
2.830000e-06	4.084404e-06	9.605523e-10	2.839902e+01	6.581355e+01
2.840000e-06	4.115763e-06	9.629811e-10	2.861706e+01	6.603794e+01
2.850000e-06	4.146901e-06	9.620635e-10	2.883356e+01	6.625250e+01
2.860000e-06	4.177664e-06	9.619226e-10	2.904746e+01	6.645757e+01
2.870000e-06	4.208064e-06	9.641645e-10	2.925883e+01	6.665351e+01
2.880000e-06	4.238157e-06	9.689857e-10	2.946807e+01	6.684067e+01
2.890000e-06	4.267978e-06	9.766758e-10	2.967542e+01	6.701948e+01
2.900000e-06	4.297553e-06	9.836662e-10	2.988105e+01	6.719036e+01
