# Temperatura_=_-0.31
# Concentracion g/m^3_=_1620.0
# C_Vs_to_Am_M_A/Vsm_=_65563218390.804596
# pendiente_HvsI_1/m_=_3716.3
# ordenada_HvsI_A/m_=_1297.0
# frecuencia_Hz_=_135096.40841159932

Tiempo_(s)	Campo_(V.s)	Magnetizacion_(V.s)	Campo_(kA/m)	Magnetizacion_(A/m)
0.000000e+00	-5.521918e-06	-1.463451e-09	-3.837092e+01	-9.444142e+01
1.000000e-08	-5.522158e-06	-1.459991e-09	-3.837260e+01	-9.442577e+01
2.000000e-08	-5.522162e-06	-1.456779e-09	-3.837262e+01	-9.440778e+01
3.000000e-08	-5.521886e-06	-1.457627e-09	-3.837070e+01	-9.438768e+01
4.000000e-08	-5.521143e-06	-1.459335e-09	-3.836554e+01	-9.436570e+01
5.000000e-08	-5.519745e-06	-1.459469e-09	-3.835582e+01	-9.434204e+01
6.000000e-08	-5.517808e-06	-1.455100e-09	-3.834236e+01	-9.431689e+01
7.000000e-08	-5.515299e-06	-1.441185e-09	-3.832493e+01	-9.429045e+01
8.000000e-08	-5.512238e-06	-1.455848e-09	-3.830366e+01	-9.426288e+01
9.000000e-08	-5.508753e-06	-1.488430e-09	-3.827944e+01	-9.423434e+01
1.000000e-07	-5.504731e-06	-1.488708e-09	-3.825149e+01	-9.420495e+01
1.100000e-07	-5.500344e-06	-1.431406e-09	-3.822101e+01	-9.417485e+01
1.200000e-07	-5.495816e-06	-1.405379e-09	-3.818955e+01	-9.414413e+01
1.300000e-07	-5.491070e-06	-1.411608e-09	-3.815657e+01	-9.411286e+01
1.400000e-07	-5.486006e-06	-1.466627e-09	-3.812138e+01	-9.408111e+01
1.500000e-07	-5.480507e-06	-1.422658e-09	-3.808317e+01	-9.404891e+01
1.600000e-07	-5.474658e-06	-1.430871e-09	-3.804252e+01	-9.401627e+01
1.700000e-07	-5.468384e-06	-1.426720e-09	-3.799892e+01	-9.398318e+01
1.800000e-07	-5.461582e-06	-1.491175e-09	-3.795166e+01	-9.394963e+01
1.900000e-07	-5.454354e-06	-1.441344e-09	-3.790143e+01	-9.391555e+01
2.000000e-07	-5.446820e-06	-1.419053e-09	-3.784908e+01	-9.388086e+01
2.100000e-07	-5.439117e-06	-1.412900e-09	-3.779555e+01	-9.384549e+01
2.200000e-07	-5.431186e-06	-1.482317e-09	-3.774044e+01	-9.380930e+01
2.300000e-07	-5.423002e-06	-1.486041e-09	-3.768357e+01	-9.377216e+01
2.400000e-07	-5.414432e-06	-1.460412e-09	-3.762402e+01	-9.373391e+01
2.500000e-07	-5.405187e-06	-1.466081e-09	-3.755978e+01	-9.369439e+01
2.600000e-07	-5.395194e-06	-1.473002e-09	-3.749034e+01	-9.365340e+01
2.700000e-07	-5.384653e-06	-1.472642e-09	-3.741709e+01	-9.361073e+01
2.800000e-07	-5.373639e-06	-1.447593e-09	-3.734056e+01	-9.356616e+01
2.900000e-07	-5.362113e-06	-1.487476e-09	-3.726047e+01	-9.351945e+01
3.000000e-07	-5.350162e-06	-1.475393e-09	-3.717742e+01	-9.347035e+01
3.100000e-07	-5.337878e-06	-1.479332e-09	-3.709206e+01	-9.341860e+01
3.200000e-07	-5.325241e-06	-1.433665e-09	-3.700425e+01	-9.336395e+01
3.300000e-07	-5.312176e-06	-1.474728e-09	-3.691346e+01	-9.330610e+01
3.400000e-07	-5.298685e-06	-1.439952e-09	-3.681971e+01	-9.324479e+01
3.500000e-07	-5.284769e-06	-1.447868e-09	-3.672301e+01	-9.317972e+01
3.600000e-07	-5.270416e-06	-1.428770e-09	-3.662328e+01	-9.311062e+01
3.700000e-07	-5.255557e-06	-1.474531e-09	-3.652003e+01	-9.303720e+01
3.800000e-07	-5.240221e-06	-1.442602e-09	-3.641346e+01	-9.295918e+01
3.900000e-07	-5.224487e-06	-1.446645e-09	-3.630412e+01	-9.287628e+01
4.000000e-07	-5.208265e-06	-1.434441e-09	-3.619140e+01	-9.278824e+01
4.100000e-07	-5.191591e-06	-1.436945e-09	-3.607553e+01	-9.269478e+01
4.200000e-07	-5.174561e-06	-1.413400e-09	-3.595719e+01	-9.259565e+01
4.300000e-07	-5.157208e-06	-1.429389e-09	-3.583662e+01	-9.249062e+01
4.400000e-07	-5.139518e-06	-1.431292e-09	-3.571369e+01	-9.237945e+01
4.500000e-07	-5.121535e-06	-1.428920e-09	-3.558873e+01	-9.226193e+01
4.600000e-07	-5.103143e-06	-1.422396e-09	-3.546093e+01	-9.213788e+01
4.700000e-07	-5.084259e-06	-1.415206e-09	-3.532970e+01	-9.200710e+01
4.800000e-07	-5.065006e-06	-1.400588e-09	-3.519591e+01	-9.186945e+01
4.900000e-07	-5.045506e-06	-1.409839e-09	-3.506041e+01	-9.172478e+01
5.000000e-07	-5.025856e-06	-1.412042e-09	-3.492387e+01	-9.157299e+01
5.100000e-07	-5.006051e-06	-1.381124e-09	-3.478625e+01	-9.141397e+01
5.200000e-07	-4.985985e-06	-1.382639e-09	-3.464681e+01	-9.124767e+01
5.300000e-07	-4.965569e-06	-1.397712e-09	-3.450494e+01	-9.107404e+01
5.400000e-07	-4.944791e-06	-1.388206e-09	-3.436056e+01	-9.089306e+01
5.500000e-07	-4.923593e-06	-1.368383e-09	-3.421326e+01	-9.070474e+01
5.600000e-07	-4.901958e-06	-1.387206e-09	-3.406292e+01	-9.050912e+01
5.700000e-07	-4.880054e-06	-1.367765e-09	-3.391071e+01	-9.030625e+01
5.800000e-07	-4.857902e-06	-1.357465e-09	-3.375678e+01	-9.009622e+01
5.900000e-07	-4.835394e-06	-1.365673e-09	-3.360038e+01	-8.987914e+01
6.000000e-07	-4.812531e-06	-1.365471e-09	-3.344151e+01	-8.965515e+01
6.100000e-07	-4.789281e-06	-1.329972e-09	-3.327994e+01	-8.942440e+01
6.200000e-07	-4.765703e-06	-1.347407e-09	-3.311610e+01	-8.918708e+01
6.300000e-07	-4.741969e-06	-1.343915e-09	-3.295118e+01	-8.894339e+01
6.400000e-07	-4.718009e-06	-1.325930e-09	-3.278469e+01	-8.869355e+01
6.500000e-07	-4.693681e-06	-1.322666e-09	-3.261564e+01	-8.843781e+01
6.600000e-07	-4.669007e-06	-1.348578e-09	-3.244418e+01	-8.817643e+01
6.700000e-07	-4.643883e-06	-1.323572e-09	-3.226960e+01	-8.790968e+01
6.800000e-07	-4.618231e-06	-1.321372e-09	-3.209135e+01	-8.763785e+01
6.900000e-07	-4.592012e-06	-1.328572e-09	-3.190915e+01	-8.736125e+01
7.000000e-07	-4.565246e-06	-1.316723e-09	-3.172316e+01	-8.708018e+01
7.100000e-07	-4.538078e-06	-1.289087e-09	-3.153438e+01	-8.679497e+01
7.200000e-07	-4.510623e-06	-1.302827e-09	-3.134360e+01	-8.650592e+01
7.300000e-07	-4.482974e-06	-1.300378e-09	-3.115147e+01	-8.621337e+01
7.400000e-07	-4.455146e-06	-1.288759e-09	-3.095810e+01	-8.591763e+01
7.500000e-07	-4.427077e-06	-1.296145e-09	-3.076305e+01	-8.561903e+01
7.600000e-07	-4.398765e-06	-1.301694e-09	-3.056631e+01	-8.531788e+01
7.700000e-07	-4.370172e-06	-1.279158e-09	-3.036763e+01	-8.501448e+01
7.800000e-07	-4.341244e-06	-1.272281e-09	-3.016661e+01	-8.470913e+01
7.900000e-07	-4.311983e-06	-1.276633e-09	-2.996328e+01	-8.440210e+01
8.000000e-07	-4.282425e-06	-1.262633e-09	-2.975789e+01	-8.409366e+01
8.100000e-07	-4.252514e-06	-1.254977e-09	-2.955004e+01	-8.378405e+01
8.200000e-07	-4.222341e-06	-1.261192e-09	-2.934037e+01	-8.347350e+01
8.300000e-07	-4.191909e-06	-1.260562e-09	-2.912891e+01	-8.316220e+01
8.400000e-07	-4.161096e-06	-1.247373e-09	-2.891479e+01	-8.285033e+01
8.500000e-07	-4.130062e-06	-1.253009e-09	-2.869914e+01	-8.253803e+01
8.600000e-07	-4.098782e-06	-1.247376e-09	-2.848178e+01	-8.222544e+01
8.700000e-07	-4.067277e-06	-1.234484e-09	-2.826286e+01	-8.191263e+01
8.800000e-07	-4.035662e-06	-1.224927e-09	-2.804317e+01	-8.159966e+01
8.900000e-07	-4.003847e-06	-1.228102e-09	-2.782209e+01	-8.128656e+01
9.000000e-07	-3.971828e-06	-1.213020e-09	-2.759960e+01	-8.097333e+01
9.100000e-07	-3.939591e-06	-1.206210e-09	-2.737559e+01	-8.065991e+01
9.200000e-07	-3.907013e-06	-1.201495e-09	-2.714920e+01	-8.034623e+01
9.300000e-07	-3.873979e-06	-1.198897e-09	-2.691966e+01	-8.003219e+01
9.400000e-07	-3.840461e-06	-1.188909e-09	-2.668675e+01	-7.971763e+01
9.500000e-07	-3.806599e-06	-1.195019e-09	-2.645144e+01	-7.940239e+01
9.600000e-07	-3.772328e-06	-1.191158e-09	-2.621330e+01	-7.908626e+01
9.700000e-07	-3.737637e-06	-1.184051e-09	-2.597224e+01	-7.876899e+01
9.800000e-07	-3.702666e-06	-1.177299e-09	-2.572923e+01	-7.845032e+01
9.900000e-07	-3.667400e-06	-1.173536e-09	-2.548417e+01	-7.812995e+01
1.000000e-06	-3.631870e-06	-1.159835e-09	-2.523728e+01	-7.780756e+01
1.010000e-06	-3.596127e-06	-1.152987e-09	-2.498891e+01	-7.748280e+01
1.020000e-06	-3.560281e-06	-1.149742e-09	-2.473982e+01	-7.715531e+01
1.030000e-06	-3.524324e-06	-1.145241e-09	-2.448997e+01	-7.682469e+01
1.040000e-06	-3.488137e-06	-1.137702e-09	-2.423850e+01	-7.649054e+01
1.050000e-06	-3.451679e-06	-1.136421e-09	-2.398516e+01	-7.615245e+01
1.060000e-06	-3.414977e-06	-1.128725e-09	-2.373013e+01	-7.580998e+01
1.070000e-06	-3.378034e-06	-1.116501e-09	-2.347342e+01	-7.546271e+01
1.080000e-06	-3.340868e-06	-1.110430e-09	-2.321515e+01	-7.511018e+01
1.090000e-06	-3.303525e-06	-1.105351e-09	-2.295566e+01	-7.475196e+01
1.100000e-06	-3.265871e-06	-1.096166e-09	-2.269401e+01	-7.438761e+01
1.110000e-06	-3.227855e-06	-1.086358e-09	-2.242985e+01	-7.401670e+01
1.120000e-06	-3.189635e-06	-1.081218e-09	-2.216427e+01	-7.363879e+01
1.130000e-06	-3.151200e-06	-1.071271e-09	-2.189718e+01	-7.325347e+01
1.140000e-06	-3.112636e-06	-1.063893e-09	-2.162921e+01	-7.286034e+01
1.150000e-06	-3.073867e-06	-1.057126e-09	-2.135981e+01	-7.245901e+01
1.160000e-06	-3.034812e-06	-1.051008e-09	-2.108842e+01	-7.204911e+01
1.170000e-06	-2.995624e-06	-1.041760e-09	-2.081611e+01	-7.163031e+01
1.180000e-06	-2.956188e-06	-1.038093e-09	-2.054208e+01	-7.120228e+01
1.190000e-06	-2.916617e-06	-1.029989e-09	-2.026710e+01	-7.076472e+01
1.200000e-06	-2.876977e-06	-1.020173e-09	-1.999165e+01	-7.031736e+01
1.210000e-06	-2.837148e-06	-1.008351e-09	-1.971489e+01	-6.985997e+01
1.220000e-06	-2.797208e-06	-9.998563e-10	-1.943735e+01	-6.939234e+01
1.230000e-06	-2.757170e-06	-9.873706e-10	-1.915913e+01	-6.891427e+01
1.240000e-06	-2.717002e-06	-9.805348e-10	-1.888001e+01	-6.842563e+01
1.250000e-06	-2.676723e-06	-9.732144e-10	-1.860012e+01	-6.792629e+01
1.260000e-06	-2.636151e-06	-9.662101e-10	-1.831819e+01	-6.741616e+01
1.270000e-06	-2.595271e-06	-9.595835e-10	-1.803412e+01	-6.689518e+01
1.280000e-06	-2.554139e-06	-9.557701e-10	-1.774830e+01	-6.636333e+01
1.290000e-06	-2.512709e-06	-9.468001e-10	-1.746041e+01	-6.582059e+01
1.300000e-06	-2.471027e-06	-9.328994e-10	-1.717077e+01	-6.526698e+01
1.310000e-06	-2.429075e-06	-9.181230e-10	-1.687925e+01	-6.470256e+01
1.320000e-06	-2.386792e-06	-9.074460e-10	-1.658544e+01	-6.412738e+01
1.330000e-06	-2.344108e-06	-8.982472e-10	-1.628883e+01	-6.354154e+01
1.340000e-06	-2.301094e-06	-8.941856e-10	-1.598994e+01	-6.294512e+01
1.350000e-06	-2.257853e-06	-8.902939e-10	-1.568946e+01	-6.233825e+01
1.360000e-06	-2.214439e-06	-8.813561e-10	-1.538778e+01	-6.172105e+01
1.370000e-06	-2.170889e-06	-8.697023e-10	-1.508516e+01	-6.109364e+01
1.380000e-06	-2.127188e-06	-8.607713e-10	-1.478149e+01	-6.045617e+01
1.390000e-06	-2.083438e-06	-8.511907e-10	-1.447748e+01	-5.980875e+01
1.400000e-06	-2.039695e-06	-8.388218e-10	-1.417352e+01	-5.915152e+01
1.410000e-06	-1.995942e-06	-8.288352e-10	-1.386948e+01	-5.848459e+01
1.420000e-06	-1.952118e-06	-8.200377e-10	-1.356496e+01	-5.780808e+01
1.430000e-06	-1.908125e-06	-8.118418e-10	-1.325926e+01	-5.712208e+01
1.440000e-06	-1.863961e-06	-8.025219e-10	-1.295237e+01	-5.642667e+01
1.450000e-06	-1.819715e-06	-7.924335e-10	-1.264491e+01	-5.572189e+01
1.460000e-06	-1.775424e-06	-7.794840e-10	-1.233713e+01	-5.500778e+01
1.470000e-06	-1.731004e-06	-7.674029e-10	-1.202847e+01	-5.428434e+01
1.480000e-06	-1.686449e-06	-7.549058e-10	-1.171886e+01	-5.355153e+01
1.490000e-06	-1.641731e-06	-7.434998e-10	-1.140813e+01	-5.280931e+01
1.500000e-06	-1.596829e-06	-7.310915e-10	-1.109611e+01	-5.205758e+01
1.510000e-06	-1.551841e-06	-7.196944e-10	-1.078350e+01	-5.129620e+01
1.520000e-06	-1.506718e-06	-7.077870e-10	-1.046994e+01	-5.052502e+01
1.530000e-06	-1.461497e-06	-6.961731e-10	-1.015571e+01	-4.974382e+01
1.540000e-06	-1.416221e-06	-6.847818e-10	-9.841091e+00	-4.895237e+01
1.550000e-06	-1.370812e-06	-6.756932e-10	-9.525556e+00	-4.815040e+01
1.560000e-06	-1.325337e-06	-6.620716e-10	-9.209553e+00	-4.733757e+01
1.570000e-06	-1.279766e-06	-6.485467e-10	-8.892890e+00	-4.651355e+01
1.580000e-06	-1.234035e-06	-6.356022e-10	-8.575112e+00	-4.567794e+01
1.590000e-06	-1.188115e-06	-6.230075e-10	-8.256022e+00	-4.483034e+01
1.600000e-06	-1.142133e-06	-6.079642e-10	-7.936501e+00	-4.397029e+01
1.610000e-06	-1.096230e-06	-5.959358e-10	-7.617526e+00	-4.309733e+01
1.620000e-06	-1.050241e-06	-5.832409e-10	-7.297955e+00	-4.221095e+01
1.630000e-06	-1.004141e-06	-5.681242e-10	-6.977613e+00	-4.131063e+01
1.640000e-06	-9.580301e-07	-5.510566e-10	-6.657198e+00	-4.039585e+01
1.650000e-06	-9.118909e-07	-5.314874e-10	-6.336584e+00	-3.946607e+01
1.660000e-06	-8.656440e-07	-5.154065e-10	-6.015222e+00	-3.852073e+01
1.670000e-06	-8.192553e-07	-5.025459e-10	-5.692874e+00	-3.755928e+01
1.680000e-06	-7.728072e-07	-4.919287e-10	-5.370114e+00	-3.658118e+01
1.690000e-06	-7.263505e-07	-4.776083e-10	-5.047294e+00	-3.558589e+01
1.700000e-06	-6.799052e-07	-4.611249e-10	-4.724553e+00	-3.457290e+01
1.710000e-06	-6.333398e-07	-4.411245e-10	-4.400977e+00	-3.354170e+01
1.720000e-06	-5.866884e-07	-4.188880e-10	-4.076804e+00	-3.249181e+01
1.730000e-06	-5.400511e-07	-3.965090e-10	-3.752729e+00	-3.142281e+01
1.740000e-06	-4.933336e-07	-3.794085e-10	-3.428096e+00	-3.033429e+01
1.750000e-06	-4.465840e-07	-3.667908e-10	-3.103241e+00	-2.922589e+01
1.760000e-06	-3.997972e-07	-3.543082e-10	-2.778127e+00	-2.809731e+01
1.770000e-06	-3.530923e-07	-3.388593e-10	-2.453582e+00	-2.694830e+01
1.780000e-06	-3.063363e-07	-3.216437e-10	-2.128682e+00	-2.577866e+01
1.790000e-06	-2.594324e-07	-3.017785e-10	-1.802754e+00	-2.458827e+01
1.800000e-06	-2.126069e-07	-2.781037e-10	-1.477371e+00	-2.337707e+01
1.810000e-06	-1.658065e-07	-2.539910e-10	-1.152163e+00	-2.214507e+01
1.820000e-06	-1.190141e-07	-2.333697e-10	-8.270100e-01	-2.089238e+01
1.830000e-06	-7.225186e-08	-2.179543e-10	-5.020666e-01	-1.961915e+01
1.840000e-06	-2.545692e-08	-2.061939e-10	-1.768961e-01	-1.832565e+01
1.850000e-06	2.133444e-08	-1.919334e-10	1.482496e-01	-1.701221e+01
1.860000e-06	6.810683e-08	-1.751902e-10	4.732634e-01	-1.567925e+01
1.870000e-06	1.149523e-07	-1.535421e-10	7.987852e-01	-1.432729e+01
1.880000e-06	1.617686e-07	-1.302373e-10	1.124104e+00	-1.295691e+01
1.890000e-06	2.085985e-07	-1.074306e-10	1.449518e+00	-1.156880e+01
1.900000e-06	2.554338e-07	-8.631142e-11	1.774968e+00	-1.016372e+01
1.910000e-06	3.021850e-07	-6.836290e-11	2.099835e+00	-8.742510e+00
1.920000e-06	3.488669e-07	-5.118078e-11	2.424220e+00	-7.306109e+00
1.930000e-06	3.955485e-07	-3.434804e-11	2.748603e+00	-5.855516e+00
1.940000e-06	4.421968e-07	-1.522849e-11	3.072755e+00	-4.391808e+00
1.950000e-06	4.887879e-07	3.729013e-12	3.396509e+00	-2.916132e+00
1.960000e-06	5.353853e-07	2.253608e-11	3.720307e+00	-1.429700e+00
1.970000e-06	5.818640e-07	4.246318e-11	4.043280e+00	6.621724e-02
1.980000e-06	6.282373e-07	6.352032e-11	4.365520e+00	1.570296e+00
1.990000e-06	6.746261e-07	8.299926e-11	4.687869e+00	3.081163e+00
2.000000e-06	7.209928e-07	1.026042e-10	5.010063e+00	4.597406e+00
2.010000e-06	7.672639e-07	1.222461e-10	5.331594e+00	6.117578e+00
2.020000e-06	8.135784e-07	1.414281e-10	5.653426e+00	7.640204e+00
2.030000e-06	8.598012e-07	1.608714e-10	5.974621e+00	9.163790e+00
2.040000e-06	9.059033e-07	1.819334e-10	6.294977e+00	1.068683e+01
2.050000e-06	9.520146e-07	2.024940e-10	6.615397e+00	1.220781e+01
2.060000e-06	9.980546e-07	2.225453e-10	6.935322e+00	1.372523e+01
2.070000e-06	1.043986e-06	2.418607e-10	7.254491e+00	1.523759e+01
2.080000e-06	1.089913e-06	2.616165e-10	7.573631e+00	1.674342e+01
2.090000e-06	1.135806e-06	2.807302e-10	7.892535e+00	1.824125e+01
2.100000e-06	1.181539e-06	3.005127e-10	8.210327e+00	1.972967e+01
2.110000e-06	1.227178e-06	3.225427e-10	8.527467e+00	2.120730e+01
2.120000e-06	1.272766e-06	3.433062e-10	8.844248e+00	2.267282e+01
2.130000e-06	1.318273e-06	3.627336e-10	9.160467e+00	2.412494e+01
2.140000e-06	1.363630e-06	3.814293e-10	9.475646e+00	2.556245e+01
2.150000e-06	1.408833e-06	3.985871e-10	9.789755e+00	2.698418e+01
2.160000e-06	1.453992e-06	4.147355e-10	1.010356e+01	2.838907e+01
2.170000e-06	1.499141e-06	4.328035e-10	1.041729e+01	2.977610e+01
2.180000e-06	1.544163e-06	4.527427e-10	1.073014e+01	3.114433e+01
2.190000e-06	1.589046e-06	4.708537e-10	1.104203e+01	3.249293e+01
2.200000e-06	1.633768e-06	4.892915e-10	1.135279e+01	3.382113e+01
2.210000e-06	1.678348e-06	5.099869e-10	1.166257e+01	3.512825e+01
2.220000e-06	1.722762e-06	5.303315e-10	1.197120e+01	3.641370e+01
2.230000e-06	1.767014e-06	5.500207e-10	1.227870e+01	3.767698e+01
2.240000e-06	1.811173e-06	5.678495e-10	1.258555e+01	3.891769e+01
2.250000e-06	1.855256e-06	5.832981e-10	1.289188e+01	4.013550e+01
2.260000e-06	1.899266e-06	5.965377e-10	1.319769e+01	4.133017e+01
2.270000e-06	1.943197e-06	6.103607e-10	1.350297e+01	4.250157e+01
2.280000e-06	1.987071e-06	6.263684e-10	1.380784e+01	4.364962e+01
2.290000e-06	2.030882e-06	6.425191e-10	1.411227e+01	4.477434e+01
2.300000e-06	2.074625e-06	6.578454e-10	1.441624e+01	4.587584e+01
2.310000e-06	2.118318e-06	6.747460e-10	1.471985e+01	4.695427e+01
2.320000e-06	2.161979e-06	6.926074e-10	1.502325e+01	4.800987e+01
2.330000e-06	2.205565e-06	7.086805e-10	1.532612e+01	4.904295e+01
2.340000e-06	2.249030e-06	7.210686e-10	1.562815e+01	5.005387e+01
2.350000e-06	2.292362e-06	7.320236e-10	1.592926e+01	5.104304e+01
2.360000e-06	2.335435e-06	7.434147e-10	1.622856e+01	5.201093e+01
2.370000e-06	2.378195e-06	7.562617e-10	1.652570e+01	5.295804e+01
2.380000e-06	2.420638e-06	7.703337e-10	1.682063e+01	5.388493e+01
2.390000e-06	2.462801e-06	7.853799e-10	1.711361e+01	5.479215e+01
2.400000e-06	2.504639e-06	8.011339e-10	1.740433e+01	5.568032e+01
2.410000e-06	2.546049e-06	8.164534e-10	1.769209e+01	5.655004e+01
2.420000e-06	2.587147e-06	8.302557e-10	1.797767e+01	5.740194e+01
2.430000e-06	2.627954e-06	8.429513e-10	1.826123e+01	5.823666e+01
2.440000e-06	2.668484e-06	8.546527e-10	1.854287e+01	5.905484e+01
2.450000e-06	2.708789e-06	8.670545e-10	1.882294e+01	5.985709e+01
2.460000e-06	2.748954e-06	8.807147e-10	1.910204e+01	6.064404e+01
2.470000e-06	2.788991e-06	8.921723e-10	1.938025e+01	6.141628e+01
2.480000e-06	2.828924e-06	9.021006e-10	1.965774e+01	6.217440e+01
2.490000e-06	2.868757e-06	9.119226e-10	1.993454e+01	6.291896e+01
2.500000e-06	2.908464e-06	9.229853e-10	2.021045e+01	6.365047e+01
2.510000e-06	2.948091e-06	9.349275e-10	2.048581e+01	6.436944e+01
2.520000e-06	2.987533e-06	9.470414e-10	2.075989e+01	6.507633e+01
2.530000e-06	3.026749e-06	9.595622e-10	2.103240e+01	6.577155e+01
2.540000e-06	3.065752e-06	9.701621e-10	2.130342e+01	6.645549e+01
2.550000e-06	3.104528e-06	9.770395e-10	2.157287e+01	6.712849e+01
2.560000e-06	3.143077e-06	9.837434e-10	2.184074e+01	6.779086e+01
2.570000e-06	3.181352e-06	9.918822e-10	2.210670e+01	6.844283e+01
2.580000e-06	3.219364e-06	1.000024e-09	2.237084e+01	6.908464e+01
2.590000e-06	3.257170e-06	1.007715e-09	2.263356e+01	6.971645e+01
2.600000e-06	3.294792e-06	1.017127e-09	2.289499e+01	7.033839e+01
2.610000e-06	3.332228e-06	1.028254e-09	2.315512e+01	7.095056e+01
2.620000e-06	3.369422e-06	1.040204e-09	2.341358e+01	7.155300e+01
2.630000e-06	3.406389e-06	1.051103e-09	2.367045e+01	7.214573e+01
2.640000e-06	3.443177e-06	1.057669e-09	2.392608e+01	7.272874e+01
2.650000e-06	3.479593e-06	1.062532e-09	2.417914e+01	7.330198e+01
2.660000e-06	3.515720e-06	1.068640e-09	2.443018e+01	7.386537e+01
2.670000e-06	3.551750e-06	1.075949e-09	2.468054e+01	7.441881e+01
2.680000e-06	3.587647e-06	1.082777e-09	2.492998e+01	7.496220e+01
2.690000e-06	3.623423e-06	1.088304e-09	2.517859e+01	7.549539e+01
2.700000e-06	3.659103e-06	1.094868e-09	2.542652e+01	7.601824e+01
2.710000e-06	3.694658e-06	1.101921e-09	2.567359e+01	7.653058e+01
2.720000e-06	3.729938e-06	1.110860e-09	2.591874e+01	7.703227e+01
2.730000e-06	3.764963e-06	1.122586e-09	2.616213e+01	7.752314e+01
2.740000e-06	3.799555e-06	1.132835e-09	2.640250e+01	7.800303e+01
2.750000e-06	3.833622e-06	1.139365e-09	2.663923e+01	7.847179e+01
2.760000e-06	3.867227e-06	1.142462e-09	2.687274e+01	7.892929e+01
2.770000e-06	3.900265e-06	1.145331e-09	2.710232e+01	7.937540e+01
2.780000e-06	3.932879e-06	1.149702e-09	2.732895e+01	7.981000e+01
2.790000e-06	3.965182e-06	1.155682e-09	2.755341e+01	8.023302e+01
2.800000e-06	3.997223e-06	1.164635e-09	2.777606e+01	8.064439e+01
2.810000e-06	4.029070e-06	1.174433e-09	2.799736e+01	8.104408e+01
2.820000e-06	4.060781e-06	1.182906e-09	2.821772e+01	8.143207e+01
2.830000e-06	4.092380e-06	1.189431e-09	2.843730e+01	8.180838e+01
2.840000e-06	4.123889e-06	1.192041e-09	2.865624e+01	8.217308e+01
2.850000e-06	4.155127e-06	1.193701e-09	2.887332e+01	8.252624e+01
2.860000e-06	4.185907e-06	1.197333e-09	2.908719e+01	8.286798e+01
2.870000e-06	4.216380e-06	1.200792e-09	2.929895e+01	8.319845e+01
2.880000e-06	4.246539e-06	1.202993e-09	2.950852e+01	8.351785e+01
2.890000e-06	4.276346e-06	1.207148e-09	2.971564e+01	8.382638e+01
2.900000e-06	4.305913e-06	1.212861e-09	2.992110e+01	8.412431e+01
