# Temperatura_=_11.1
# Concentracion g/m^3_=_1620.0
# C_Vs_to_Am_M_A/Vsm_=_65563218390.804596
# pendiente_HvsI_1/m_=_3716.3
# ordenada_HvsI_A/m_=_1297.0
# frecuencia_Hz_=_135102.20696427886

Tiempo_(s)	Campo_(V.s)	Magnetizacion_(V.s)	Campo_(kA/m)	Magnetizacion_(A/m)
0.000000e+00	-5.532908e-06	-7.691615e-10	-3.836625e+01	-5.042654e+01
1.000000e-08	-5.533157e-06	-7.688386e-10	-3.836797e+01	-5.041036e+01
2.000000e-08	-5.533209e-06	-7.705662e-10	-3.836834e+01	-5.039341e+01
3.000000e-08	-5.532940e-06	-7.732388e-10	-3.836647e+01	-5.037563e+01
4.000000e-08	-5.532239e-06	-7.708171e-10	-3.836161e+01	-5.035698e+01
5.000000e-08	-5.530972e-06	-7.640100e-10	-3.835282e+01	-5.033739e+01
6.000000e-08	-5.529039e-06	-7.534612e-10	-3.833942e+01	-5.031681e+01
7.000000e-08	-5.526493e-06	-7.431380e-10	-3.832177e+01	-5.029519e+01
8.000000e-08	-5.523412e-06	-7.483755e-10	-3.830040e+01	-5.027248e+01
9.000000e-08	-5.519859e-06	-7.682527e-10	-3.827576e+01	-5.024864e+01
1.000000e-07	-5.515948e-06	-7.789312e-10	-3.824864e+01	-5.022363e+01
1.100000e-07	-5.511693e-06	-7.972800e-10	-3.821914e+01	-5.019740e+01
1.200000e-07	-5.507115e-06	-7.587401e-10	-3.818739e+01	-5.016995e+01
1.300000e-07	-5.502332e-06	-7.171196e-10	-3.815423e+01	-5.014124e+01
1.400000e-07	-5.497301e-06	-7.310590e-10	-3.811934e+01	-5.011127e+01
1.500000e-07	-5.491848e-06	-7.411661e-10	-3.808153e+01	-5.008003e+01
1.600000e-07	-5.485912e-06	-7.392126e-10	-3.804037e+01	-5.004753e+01
1.700000e-07	-5.479646e-06	-7.042406e-10	-3.799692e+01	-5.001378e+01
1.800000e-07	-5.473012e-06	-7.406628e-10	-3.795091e+01	-4.997880e+01
1.900000e-07	-5.465864e-06	-7.694617e-10	-3.790135e+01	-4.994262e+01
2.000000e-07	-5.458311e-06	-7.386785e-10	-3.784898e+01	-4.990527e+01
2.100000e-07	-5.450552e-06	-6.952138e-10	-3.779517e+01	-4.986681e+01
2.200000e-07	-5.442567e-06	-7.080808e-10	-3.773981e+01	-4.982729e+01
2.300000e-07	-5.434293e-06	-7.427851e-10	-3.768243e+01	-4.978675e+01
2.400000e-07	-5.425654e-06	-7.423520e-10	-3.762253e+01	-4.974526e+01
2.500000e-07	-5.416444e-06	-7.291965e-10	-3.755867e+01	-4.970289e+01
2.600000e-07	-5.406595e-06	-7.256062e-10	-3.749037e+01	-4.965970e+01
2.700000e-07	-5.396060e-06	-7.385101e-10	-3.741731e+01	-4.961577e+01
2.800000e-07	-5.384917e-06	-7.349522e-10	-3.734005e+01	-4.957116e+01
2.900000e-07	-5.373305e-06	-7.459309e-10	-3.725953e+01	-4.952594e+01
3.000000e-07	-5.361326e-06	-7.505530e-10	-3.717647e+01	-4.948018e+01
3.100000e-07	-5.349056e-06	-7.521047e-10	-3.709138e+01	-4.943395e+01
3.200000e-07	-5.336442e-06	-7.454814e-10	-3.700391e+01	-4.938729e+01
3.300000e-07	-5.323444e-06	-7.419463e-10	-3.691378e+01	-4.934026e+01
3.400000e-07	-5.310012e-06	-7.241284e-10	-3.682064e+01	-4.929291e+01
3.500000e-07	-5.296154e-06	-7.259423e-10	-3.672455e+01	-4.924526e+01
3.600000e-07	-5.281902e-06	-7.407479e-10	-3.662572e+01	-4.919735e+01
3.700000e-07	-5.267087e-06	-7.343275e-10	-3.652300e+01	-4.914919e+01
3.800000e-07	-5.251749e-06	-7.285669e-10	-3.641664e+01	-4.910077e+01
3.900000e-07	-5.235979e-06	-7.547833e-10	-3.630729e+01	-4.905209e+01
4.000000e-07	-5.219663e-06	-7.461878e-10	-3.619415e+01	-4.900312e+01
4.100000e-07	-5.202908e-06	-7.149061e-10	-3.607796e+01	-4.895383e+01
4.200000e-07	-5.185891e-06	-7.328862e-10	-3.595996e+01	-4.890416e+01
4.300000e-07	-5.168596e-06	-7.522249e-10	-3.584004e+01	-4.885405e+01
4.400000e-07	-5.150957e-06	-7.130578e-10	-3.571773e+01	-4.880342e+01
4.500000e-07	-5.132960e-06	-7.139360e-10	-3.559293e+01	-4.875217e+01
4.600000e-07	-5.114573e-06	-7.601149e-10	-3.546544e+01	-4.870020e+01
4.700000e-07	-5.095797e-06	-7.266424e-10	-3.533524e+01	-4.864739e+01
4.800000e-07	-5.076625e-06	-6.875406e-10	-3.520230e+01	-4.859360e+01
4.900000e-07	-5.057152e-06	-7.351252e-10	-3.506727e+01	-4.853870e+01
5.000000e-07	-5.037448e-06	-7.441934e-10	-3.493063e+01	-4.848253e+01
5.100000e-07	-5.017547e-06	-6.877930e-10	-3.479263e+01	-4.842494e+01
5.200000e-07	-4.997360e-06	-7.128255e-10	-3.465266e+01	-4.836575e+01
5.300000e-07	-4.976797e-06	-7.456868e-10	-3.451007e+01	-4.830481e+01
5.400000e-07	-4.955852e-06	-6.997107e-10	-3.436483e+01	-4.824193e+01
5.500000e-07	-4.934604e-06	-6.971219e-10	-3.421749e+01	-4.817694e+01
5.600000e-07	-4.913083e-06	-7.402831e-10	-3.406826e+01	-4.810967e+01
5.700000e-07	-4.891159e-06	-7.015150e-10	-3.391624e+01	-4.803993e+01
5.800000e-07	-4.868901e-06	-6.716672e-10	-3.376189e+01	-4.796757e+01
5.900000e-07	-4.846325e-06	-7.125475e-10	-3.360535e+01	-4.789242e+01
6.000000e-07	-4.823386e-06	-7.087510e-10	-3.344628e+01	-4.781433e+01
6.100000e-07	-4.800097e-06	-6.737606e-10	-3.328480e+01	-4.773314e+01
6.200000e-07	-4.776574e-06	-7.054434e-10	-3.312168e+01	-4.764873e+01
6.300000e-07	-4.752863e-06	-7.113004e-10	-3.295726e+01	-4.756098e+01
6.400000e-07	-4.728853e-06	-6.700385e-10	-3.279078e+01	-4.746978e+01
6.500000e-07	-4.704485e-06	-6.785578e-10	-3.262180e+01	-4.737504e+01
6.600000e-07	-4.679652e-06	-6.982800e-10	-3.244961e+01	-4.727670e+01
6.700000e-07	-4.654286e-06	-6.711977e-10	-3.227371e+01	-4.717468e+01
6.800000e-07	-4.628409e-06	-6.746318e-10	-3.209428e+01	-4.706897e+01
6.900000e-07	-4.602066e-06	-6.996820e-10	-3.191161e+01	-4.695954e+01
7.000000e-07	-4.575239e-06	-6.843648e-10	-3.172559e+01	-4.684641e+01
7.100000e-07	-4.547997e-06	-6.750848e-10	-3.153669e+01	-4.672959e+01
7.200000e-07	-4.520491e-06	-6.911845e-10	-3.134596e+01	-4.660912e+01
7.300000e-07	-4.492809e-06	-6.789766e-10	-3.115400e+01	-4.648509e+01
7.400000e-07	-4.464972e-06	-6.647695e-10	-3.096097e+01	-4.635756e+01
7.500000e-07	-4.436942e-06	-6.812873e-10	-3.076661e+01	-4.622664e+01
7.600000e-07	-4.408638e-06	-6.828344e-10	-3.057035e+01	-4.609245e+01
7.700000e-07	-4.379992e-06	-6.695586e-10	-3.037171e+01	-4.595512e+01
7.800000e-07	-4.351039e-06	-6.764047e-10	-3.017094e+01	-4.581481e+01
7.900000e-07	-4.321759e-06	-6.772282e-10	-2.996791e+01	-4.567167e+01
8.000000e-07	-4.292151e-06	-6.583976e-10	-2.976260e+01	-4.552588e+01
8.100000e-07	-4.262269e-06	-6.589587e-10	-2.955539e+01	-4.537762e+01
8.200000e-07	-4.232059e-06	-6.673483e-10	-2.934591e+01	-4.522708e+01
8.300000e-07	-4.201545e-06	-6.594962e-10	-2.913432e+01	-4.507446e+01
8.400000e-07	-4.170772e-06	-6.554018e-10	-2.892093e+01	-4.491994e+01
8.500000e-07	-4.139678e-06	-6.642904e-10	-2.870532e+01	-4.476373e+01
8.600000e-07	-4.108346e-06	-6.562317e-10	-2.848806e+01	-4.460601e+01
8.700000e-07	-4.076851e-06	-6.418828e-10	-2.826967e+01	-4.444697e+01
8.800000e-07	-4.045190e-06	-6.420755e-10	-2.805013e+01	-4.428680e+01
8.900000e-07	-4.013359e-06	-6.423358e-10	-2.782940e+01	-4.412566e+01
9.000000e-07	-3.981311e-06	-6.329906e-10	-2.760718e+01	-4.396370e+01
9.100000e-07	-3.949008e-06	-6.360194e-10	-2.738318e+01	-4.380108e+01
9.200000e-07	-3.916326e-06	-6.426680e-10	-2.715656e+01	-4.363792e+01
9.300000e-07	-3.883215e-06	-6.361859e-10	-2.692696e+01	-4.347432e+01
9.400000e-07	-3.849622e-06	-6.322405e-10	-2.669402e+01	-4.331038e+01
9.500000e-07	-3.815459e-06	-6.382029e-10	-2.645712e+01	-4.314617e+01
9.600000e-07	-3.780826e-06	-6.321389e-10	-2.621697e+01	-4.298172e+01
9.700000e-07	-3.745940e-06	-6.223183e-10	-2.597507e+01	-4.281707e+01
9.800000e-07	-3.710878e-06	-6.236324e-10	-2.573194e+01	-4.265220e+01
9.900000e-07	-3.675523e-06	-6.239517e-10	-2.548678e+01	-4.248709e+01
1.000000e-06	-3.639892e-06	-6.197747e-10	-2.523971e+01	-4.232169e+01
1.010000e-06	-3.604139e-06	-6.216223e-10	-2.499179e+01	-4.215592e+01
1.020000e-06	-3.568277e-06	-6.232354e-10	-2.474312e+01	-4.198968e+01
1.030000e-06	-3.532254e-06	-6.179913e-10	-2.449333e+01	-4.182285e+01
1.040000e-06	-3.495958e-06	-6.136746e-10	-2.424164e+01	-4.165527e+01
1.050000e-06	-3.459383e-06	-6.115255e-10	-2.398803e+01	-4.148679e+01
1.060000e-06	-3.422552e-06	-6.043354e-10	-2.373264e+01	-4.131722e+01
1.070000e-06	-3.385463e-06	-5.982082e-10	-2.347545e+01	-4.114633e+01
1.080000e-06	-3.348148e-06	-6.004355e-10	-2.321670e+01	-4.097392e+01
1.090000e-06	-3.310591e-06	-6.012404e-10	-2.295628e+01	-4.079975e+01
1.100000e-06	-3.272778e-06	-5.975306e-10	-2.269407e+01	-4.062356e+01
1.110000e-06	-3.234714e-06	-5.950425e-10	-2.243013e+01	-4.044510e+01
1.120000e-06	-3.196497e-06	-5.915110e-10	-2.216513e+01	-4.026410e+01
1.130000e-06	-3.158069e-06	-5.825073e-10	-2.189865e+01	-4.008028e+01
1.140000e-06	-3.119403e-06	-5.762955e-10	-2.163054e+01	-3.989338e+01
1.150000e-06	-3.080503e-06	-5.739604e-10	-2.136080e+01	-3.970312e+01
1.160000e-06	-3.041365e-06	-5.712476e-10	-2.108941e+01	-3.950922e+01
1.170000e-06	-3.002074e-06	-5.693437e-10	-2.081696e+01	-3.931143e+01
1.180000e-06	-2.962586e-06	-5.698580e-10	-2.054314e+01	-3.910948e+01
1.190000e-06	-2.922984e-06	-5.666727e-10	-2.026853e+01	-3.890312e+01
1.200000e-06	-2.883260e-06	-5.619062e-10	-1.999308e+01	-3.869212e+01
1.210000e-06	-2.843310e-06	-5.584764e-10	-1.971606e+01	-3.847625e+01
1.220000e-06	-2.803248e-06	-5.542863e-10	-1.943826e+01	-3.825530e+01
1.230000e-06	-2.763061e-06	-5.502769e-10	-1.915959e+01	-3.802909e+01
1.240000e-06	-2.722691e-06	-5.499911e-10	-1.887966e+01	-3.779744e+01
1.250000e-06	-2.682154e-06	-5.487139e-10	-1.859857e+01	-3.756019e+01
1.260000e-06	-2.641366e-06	-5.442720e-10	-1.831574e+01	-3.731722e+01
1.270000e-06	-2.600336e-06	-5.395005e-10	-1.803123e+01	-3.706839e+01
1.280000e-06	-2.559026e-06	-5.346714e-10	-1.774478e+01	-3.681362e+01
1.290000e-06	-2.517222e-06	-5.283439e-10	-1.745490e+01	-3.655282e+01
1.300000e-06	-2.475043e-06	-5.220617e-10	-1.716242e+01	-3.628594e+01
1.310000e-06	-2.432720e-06	-5.183320e-10	-1.686895e+01	-3.601293e+01
1.320000e-06	-2.390184e-06	-5.167540e-10	-1.657399e+01	-3.573378e+01
1.330000e-06	-2.347359e-06	-5.160646e-10	-1.627704e+01	-3.544846e+01
1.340000e-06	-2.304215e-06	-5.163760e-10	-1.597787e+01	-3.515697e+01
1.350000e-06	-2.260911e-06	-5.132165e-10	-1.567759e+01	-3.485933e+01
1.360000e-06	-2.217497e-06	-5.053738e-10	-1.537655e+01	-3.455555e+01
1.370000e-06	-2.173913e-06	-4.976556e-10	-1.507433e+01	-3.424566e+01
1.380000e-06	-2.130240e-06	-4.931745e-10	-1.477149e+01	-3.392968e+01
1.390000e-06	-2.086491e-06	-4.904947e-10	-1.446813e+01	-3.360764e+01
1.400000e-06	-2.042742e-06	-4.880115e-10	-1.416476e+01	-3.327955e+01
1.410000e-06	-1.998967e-06	-4.861782e-10	-1.386122e+01	-3.294544e+01
1.420000e-06	-1.955029e-06	-4.820661e-10	-1.355654e+01	-3.260531e+01
1.430000e-06	-1.910949e-06	-4.763605e-10	-1.325089e+01	-3.225915e+01
1.440000e-06	-1.866766e-06	-4.706862e-10	-1.294452e+01	-3.190693e+01
1.450000e-06	-1.822409e-06	-4.638792e-10	-1.263694e+01	-3.154862e+01
1.460000e-06	-1.777913e-06	-4.557246e-10	-1.232839e+01	-3.118416e+01
1.470000e-06	-1.733327e-06	-4.494208e-10	-1.201922e+01	-3.081344e+01
1.480000e-06	-1.688655e-06	-4.454800e-10	-1.170946e+01	-3.043637e+01
1.490000e-06	-1.643939e-06	-4.410652e-10	-1.139939e+01	-3.005280e+01
1.500000e-06	-1.599132e-06	-4.380243e-10	-1.108869e+01	-2.966255e+01
1.510000e-06	-1.554172e-06	-4.352685e-10	-1.077693e+01	-2.926543e+01
1.520000e-06	-1.508994e-06	-4.273854e-10	-1.046366e+01	-2.886119e+01
1.530000e-06	-1.463622e-06	-4.158441e-10	-1.014904e+01	-2.844956e+01
1.540000e-06	-1.418192e-06	-4.040413e-10	-9.834019e+00	-2.803025e+01
1.550000e-06	-1.372666e-06	-3.956689e-10	-9.518331e+00	-2.760292e+01
1.560000e-06	-1.327033e-06	-3.891500e-10	-9.201901e+00	-2.716719e+01
1.570000e-06	-1.281355e-06	-3.836909e-10	-8.885161e+00	-2.672268e+01
1.580000e-06	-1.235572e-06	-3.783911e-10	-8.567694e+00	-2.626894e+01
1.590000e-06	-1.189718e-06	-3.708017e-10	-8.249734e+00	-2.580552e+01
1.600000e-06	-1.143820e-06	-3.613744e-10	-7.931466e+00	-2.533194e+01
1.610000e-06	-1.097785e-06	-3.526955e-10	-7.612251e+00	-2.484770e+01
1.620000e-06	-1.051661e-06	-3.443663e-10	-7.292423e+00	-2.435227e+01
1.630000e-06	-1.005482e-06	-3.373174e-10	-6.972206e+00	-2.384510e+01
1.640000e-06	-9.591734e-07	-3.304258e-10	-6.651092e+00	-2.332567e+01
1.650000e-06	-9.127866e-07	-3.193500e-10	-6.329438e+00	-2.279340e+01
1.660000e-06	-8.663743e-07	-3.083081e-10	-6.007606e+00	-2.224774e+01
1.670000e-06	-8.199730e-07	-2.989011e-10	-5.685850e+00	-2.168814e+01
1.680000e-06	-7.735382e-07	-2.904723e-10	-5.363862e+00	-2.111406e+01
1.690000e-06	-7.269459e-07	-2.821100e-10	-5.040782e+00	-2.052496e+01
1.700000e-06	-6.802975e-07	-2.753626e-10	-4.717314e+00	-1.992035e+01
1.710000e-06	-6.337056e-07	-2.683765e-10	-4.394236e+00	-1.929973e+01
1.720000e-06	-5.870880e-07	-2.585076e-10	-4.070981e+00	-1.866267e+01
1.730000e-06	-5.404446e-07	-2.472452e-10	-3.747547e+00	-1.800873e+01
1.740000e-06	-4.936973e-07	-2.373524e-10	-3.423392e+00	-1.733757e+01
1.750000e-06	-4.467593e-07	-2.296874e-10	-3.097915e+00	-1.664885e+01
1.760000e-06	-3.998163e-07	-2.217881e-10	-2.772403e+00	-1.594232e+01
1.770000e-06	-3.528522e-07	-2.110619e-10	-2.446745e+00	-1.521775e+01
1.780000e-06	-3.058523e-07	-1.998949e-10	-2.120838e+00	-1.447502e+01
1.790000e-06	-2.589103e-07	-1.888993e-10	-1.795334e+00	-1.371404e+01
1.800000e-06	-2.119244e-07	-1.754483e-10	-1.469525e+00	-1.293482e+01
1.810000e-06	-1.649021e-07	-1.613101e-10	-1.143463e+00	-1.213742e+01
1.820000e-06	-1.179697e-07	-1.483906e-10	-8.180244e-01	-1.132199e+01
1.830000e-06	-7.105240e-08	-1.375480e-10	-4.926910e-01	-1.048877e+01
1.840000e-06	-2.405076e-08	-1.280144e-10	-1.667726e-01	-9.638065e+00
1.850000e-06	2.290714e-08	-1.185917e-10	1.588425e-01	-8.770276e+00
1.860000e-06	6.978995e-08	-1.087005e-10	4.839370e-01	-7.885881e+00
1.870000e-06	1.167185e-07	-9.455612e-11	8.093488e-01	-6.985446e+00
1.880000e-06	1.636985e-07	-7.866314e-11	1.135117e+00	-6.069618e+00
1.890000e-06	2.106637e-07	-6.350759e-11	1.460782e+00	-5.139127e+00
1.900000e-06	2.575814e-07	-4.908658e-11	1.786119e+00	-4.194782e+00
1.910000e-06	3.045293e-07	-3.757036e-11	2.111665e+00	-3.237469e+00
1.920000e-06	3.515368e-07	-2.685400e-11	2.437624e+00	-2.268147e+00
1.930000e-06	3.984586e-07	-1.607712e-11	2.762989e+00	-1.287846e+00
1.940000e-06	4.453133e-07	-3.610157e-12	3.087888e+00	-2.976602e-01
1.950000e-06	4.920577e-07	7.478081e-12	3.412023e+00	7.012574e-01
1.960000e-06	5.387320e-07	1.829517e-11	3.735671e+00	1.707698e+00
1.970000e-06	5.854572e-07	3.160407e-11	4.059673e+00	2.720407e+00
1.980000e-06	6.321494e-07	4.762776e-11	4.383445e+00	3.738085e+00
1.990000e-06	6.787513e-07	6.516110e-11	4.706592e+00	4.759400e+00
2.000000e-06	7.252402e-07	8.241119e-11	5.028955e+00	5.782994e+00
2.010000e-06	7.716596e-07	9.699146e-11	5.350836e+00	6.807486e+00
2.020000e-06	8.179921e-07	1.092240e-10	5.672114e+00	7.831485e+00
2.030000e-06	8.642836e-07	1.207695e-10	5.993109e+00	8.853596e+00
2.040000e-06	9.106324e-07	1.328798e-10	6.314500e+00	9.872425e+00
2.050000e-06	9.569519e-07	1.444334e-10	6.635688e+00	1.088659e+01
2.060000e-06	1.003135e-06	1.580317e-10	6.955932e+00	1.189474e+01
2.070000e-06	1.049177e-06	1.747431e-10	7.275195e+00	1.289552e+01
2.080000e-06	1.095136e-06	1.924383e-10	7.593882e+00	1.388765e+01
2.090000e-06	1.141020e-06	2.091766e-10	7.912055e+00	1.486985e+01
2.100000e-06	1.186783e-06	2.229878e-10	8.229381e+00	1.584093e+01
2.110000e-06	1.232465e-06	2.362806e-10	8.546151e+00	1.679973e+01
2.120000e-06	1.278135e-06	2.472403e-10	8.862836e+00	1.774514e+01
2.130000e-06	1.323806e-06	2.585297e-10	9.179523e+00	1.867615e+01
2.140000e-06	1.369385e-06	2.689238e-10	9.495579e+00	1.959180e+01
2.150000e-06	1.414829e-06	2.787434e-10	9.810695e+00	2.049120e+01
2.160000e-06	1.460127e-06	2.896445e-10	1.012480e+01	2.137356e+01
2.170000e-06	1.505260e-06	3.013574e-10	1.043776e+01	2.223816e+01
2.180000e-06	1.550334e-06	3.149292e-10	1.075031e+01	2.308436e+01
2.190000e-06	1.595309e-06	3.282782e-10	1.106218e+01	2.391163e+01
2.200000e-06	1.640156e-06	3.423006e-10	1.137316e+01	2.471951e+01
2.210000e-06	1.684875e-06	3.536907e-10	1.168325e+01	2.550764e+01
2.220000e-06	1.729434e-06	3.625454e-10	1.199223e+01	2.627573e+01
2.230000e-06	1.773803e-06	3.708685e-10	1.229989e+01	2.702360e+01
2.240000e-06	1.818051e-06	3.790592e-10	1.260671e+01	2.775115e+01
2.250000e-06	1.862247e-06	3.877388e-10	1.291318e+01	2.845837e+01
2.260000e-06	1.906302e-06	3.970099e-10	1.321866e+01	2.914531e+01
2.270000e-06	1.950251e-06	4.090039e-10	1.352341e+01	2.981212e+01
2.280000e-06	1.994104e-06	4.212742e-10	1.382750e+01	3.045902e+01
2.290000e-06	2.037865e-06	4.314799e-10	1.413094e+01	3.108631e+01
2.300000e-06	2.081594e-06	4.388853e-10	1.443418e+01	3.169433e+01
2.310000e-06	2.125295e-06	4.450175e-10	1.473720e+01	3.228350e+01
2.320000e-06	2.168944e-06	4.505203e-10	1.503987e+01	3.285429e+01
2.330000e-06	2.212555e-06	4.542330e-10	1.534228e+01	3.340721e+01
2.340000e-06	2.256092e-06	4.589500e-10	1.564418e+01	3.394284e+01
2.350000e-06	2.299433e-06	4.642435e-10	1.594471e+01	3.446176e+01
2.360000e-06	2.342540e-06	4.715457e-10	1.624362e+01	3.496460e+01
2.370000e-06	2.385408e-06	4.819254e-10	1.654088e+01	3.545201e+01
2.380000e-06	2.427978e-06	4.919284e-10	1.683606e+01	3.592467e+01
2.390000e-06	2.470308e-06	5.005762e-10	1.712959e+01	3.638324e+01
2.400000e-06	2.512353e-06	5.077205e-10	1.742114e+01	3.682841e+01
2.410000e-06	2.554048e-06	5.135600e-10	1.771026e+01	3.726087e+01
2.420000e-06	2.595385e-06	5.185805e-10	1.799690e+01	3.768128e+01
2.430000e-06	2.636423e-06	5.243541e-10	1.828146e+01	3.809030e+01
2.440000e-06	2.677192e-06	5.318194e-10	1.856417e+01	3.848858e+01
2.450000e-06	2.717638e-06	5.406444e-10	1.884463e+01	3.887674e+01
2.460000e-06	2.757821e-06	5.487377e-10	1.912326e+01	3.925536e+01
2.470000e-06	2.797818e-06	5.544533e-10	1.940061e+01	3.962501e+01
2.480000e-06	2.837709e-06	5.592077e-10	1.967722e+01	3.998622e+01
2.490000e-06	2.877506e-06	5.635018e-10	1.995318e+01	4.033946e+01
2.500000e-06	2.917189e-06	5.676141e-10	2.022835e+01	4.068519e+01
2.510000e-06	2.956751e-06	5.727301e-10	2.050268e+01	4.102381e+01
2.520000e-06	2.996188e-06	5.778197e-10	2.077614e+01	4.135568e+01
2.530000e-06	3.035491e-06	5.833704e-10	2.104868e+01	4.168111e+01
2.540000e-06	3.074556e-06	5.896386e-10	2.131956e+01	4.200039e+01
2.550000e-06	3.113298e-06	5.936991e-10	2.158821e+01	4.231373e+01
2.560000e-06	3.151810e-06	5.961918e-10	2.185526e+01	4.262131e+01
2.570000e-06	3.190084e-06	5.997497e-10	2.212065e+01	4.292327e+01
2.580000e-06	3.228118e-06	6.038525e-10	2.238439e+01	4.321972e+01
2.590000e-06	3.265954e-06	6.082406e-10	2.264675e+01	4.351070e+01
2.600000e-06	3.303591e-06	6.138885e-10	2.290773e+01	4.379624e+01
2.610000e-06	3.341046e-06	6.210640e-10	2.316745e+01	4.407632e+01
2.620000e-06	3.378318e-06	6.281161e-10	2.342591e+01	4.435090e+01
2.630000e-06	3.415332e-06	6.328493e-10	2.368257e+01	4.461990e+01
2.640000e-06	3.452027e-06	6.343661e-10	2.393702e+01	4.488323e+01
2.650000e-06	3.488492e-06	6.348029e-10	2.418988e+01	4.514075e+01
2.660000e-06	3.524766e-06	6.362437e-10	2.444141e+01	4.539235e+01
2.670000e-06	3.560869e-06	6.384121e-10	2.469175e+01	4.563786e+01
2.680000e-06	3.596814e-06	6.419185e-10	2.494100e+01	4.587712e+01
2.690000e-06	3.632588e-06	6.476908e-10	2.518906e+01	4.610998e+01
2.700000e-06	3.668224e-06	6.535608e-10	2.543617e+01	4.633626e+01
2.710000e-06	3.703731e-06	6.571001e-10	2.568238e+01	4.655580e+01
2.720000e-06	3.739065e-06	6.595253e-10	2.592739e+01	4.676844e+01
2.730000e-06	3.774176e-06	6.647275e-10	2.617086e+01	4.697404e+01
2.740000e-06	3.808946e-06	6.692186e-10	2.641196e+01	4.717246e+01
2.750000e-06	3.843262e-06	6.700637e-10	2.664992e+01	4.736357e+01
2.760000e-06	3.877081e-06	6.704255e-10	2.688443e+01	4.754727e+01
2.770000e-06	3.910298e-06	6.719767e-10	2.711476e+01	4.772350e+01
2.780000e-06	3.943044e-06	6.759732e-10	2.734182e+01	4.789217e+01
2.790000e-06	3.975487e-06	6.812231e-10	2.756679e+01	4.805327e+01
2.800000e-06	4.007627e-06	6.872398e-10	2.778965e+01	4.820678e+01
2.810000e-06	4.039526e-06	6.926945e-10	2.801085e+01	4.835273e+01
2.820000e-06	4.071215e-06	6.960569e-10	2.823059e+01	4.849115e+01
2.830000e-06	4.102738e-06	6.983002e-10	2.844917e+01	4.862214e+01
2.840000e-06	4.134132e-06	6.975901e-10	2.866686e+01	4.874578e+01
2.850000e-06	4.165310e-06	6.952444e-10	2.888306e+01	4.886221e+01
2.860000e-06	4.196119e-06	6.963170e-10	2.909669e+01	4.897158e+01
2.870000e-06	4.226515e-06	6.998237e-10	2.930746e+01	4.907409e+01
2.880000e-06	4.256626e-06	7.029130e-10	2.951626e+01	4.916994e+01
2.890000e-06	4.286539e-06	7.058812e-10	2.972369e+01	4.925936e+01
2.900000e-06	4.316202e-06	7.089371e-10	2.992937e+01	4.934260e+01
