# Temperatura_=_-0.4
# Concentracion g/m^3_=_1620.0
# C_Vs_to_Am_M_A/Vsm_=_65563218390.804596
# pendiente_HvsI_1/m_=_3716.3
# ordenada_HvsI_A/m_=_1297.0
# frecuencia_Hz_=_135090.0320746919

Tiempo_(s)	Campo_(V.s)	Magnetizacion_(V.s)	Campo_(kA/m)	Magnetizacion_(A/m)
0.000000e+00	-5.508312e-06	-1.377496e-09	-3.838116e+01	-8.867045e+01
1.000000e-08	-5.508451e-06	-1.377406e-09	-3.838214e+01	-8.867062e+01
2.000000e-08	-5.508249e-06	-1.378636e-09	-3.838073e+01	-8.866994e+01
3.000000e-08	-5.507662e-06	-1.377589e-09	-3.837664e+01	-8.866848e+01
4.000000e-08	-5.506489e-06	-1.373220e-09	-3.836847e+01	-8.866626e+01
5.000000e-08	-5.504759e-06	-1.365765e-09	-3.835641e+01	-8.866332e+01
6.000000e-08	-5.502575e-06	-1.353806e-09	-3.834119e+01	-8.865966e+01
7.000000e-08	-5.499819e-06	-1.380043e-09	-3.832199e+01	-8.865526e+01
8.000000e-08	-5.496490e-06	-1.409151e-09	-3.829879e+01	-8.865011e+01
9.000000e-08	-5.492635e-06	-1.369635e-09	-3.827193e+01	-8.864415e+01
1.000000e-07	-5.488462e-06	-1.285418e-09	-3.824285e+01	-8.863733e+01
1.100000e-07	-5.484034e-06	-1.343212e-09	-3.821200e+01	-8.862957e+01
1.200000e-07	-5.479364e-06	-1.397695e-09	-3.817946e+01	-8.862078e+01
1.300000e-07	-5.474427e-06	-1.411653e-09	-3.814506e+01	-8.861085e+01
1.400000e-07	-5.469116e-06	-1.280448e-09	-3.810805e+01	-8.859965e+01
1.500000e-07	-5.463481e-06	-1.341140e-09	-3.806879e+01	-8.858704e+01
1.600000e-07	-5.457396e-06	-1.389422e-09	-3.802639e+01	-8.857288e+01
1.700000e-07	-5.450817e-06	-1.410404e-09	-3.798055e+01	-8.855699e+01
1.800000e-07	-5.443836e-06	-1.318200e-09	-3.793191e+01	-8.853920e+01
1.900000e-07	-5.436581e-06	-1.329631e-09	-3.788135e+01	-8.851932e+01
2.000000e-07	-5.429083e-06	-1.388481e-09	-3.782911e+01	-8.849714e+01
2.100000e-07	-5.421277e-06	-1.423675e-09	-3.777472e+01	-8.847247e+01
2.200000e-07	-5.413202e-06	-1.388948e-09	-3.771845e+01	-8.844509e+01
2.300000e-07	-5.404746e-06	-1.362800e-09	-3.765953e+01	-8.841479e+01
2.400000e-07	-5.395611e-06	-1.419025e-09	-3.759588e+01	-8.838133e+01
2.500000e-07	-5.385734e-06	-1.410371e-09	-3.752706e+01	-8.834449e+01
2.600000e-07	-5.375380e-06	-1.397286e-09	-3.745491e+01	-8.830404e+01
2.700000e-07	-5.364550e-06	-1.350812e-09	-3.737945e+01	-8.825977e+01
2.800000e-07	-5.353274e-06	-1.408709e-09	-3.730088e+01	-8.821143e+01
2.900000e-07	-5.341597e-06	-1.374237e-09	-3.721952e+01	-8.815882e+01
3.000000e-07	-5.329558e-06	-1.377517e-09	-3.713563e+01	-8.810172e+01
3.100000e-07	-5.317086e-06	-1.345697e-09	-3.704873e+01	-8.803991e+01
3.200000e-07	-5.304149e-06	-1.418718e-09	-3.695858e+01	-8.797319e+01
3.300000e-07	-5.290891e-06	-1.379763e-09	-3.686620e+01	-8.790137e+01
3.400000e-07	-5.277265e-06	-1.374199e-09	-3.677126e+01	-8.782427e+01
3.500000e-07	-5.263234e-06	-1.351914e-09	-3.667350e+01	-8.774171e+01
3.600000e-07	-5.248796e-06	-1.399927e-09	-3.657289e+01	-8.765353e+01
3.700000e-07	-5.233692e-06	-1.348184e-09	-3.646765e+01	-8.755959e+01
3.800000e-07	-5.217960e-06	-1.351198e-09	-3.635803e+01	-8.745976e+01
3.900000e-07	-5.201844e-06	-1.384113e-09	-3.624574e+01	-8.735392e+01
4.000000e-07	-5.185365e-06	-1.393738e-09	-3.613092e+01	-8.724197e+01
4.100000e-07	-5.168464e-06	-1.332286e-09	-3.601315e+01	-8.712383e+01
4.200000e-07	-5.151311e-06	-1.353682e-09	-3.589363e+01	-8.699944e+01
4.300000e-07	-5.133922e-06	-1.393836e-09	-3.577247e+01	-8.686873e+01
4.400000e-07	-5.116029e-06	-1.343324e-09	-3.564779e+01	-8.673169e+01
4.500000e-07	-5.097650e-06	-1.313349e-09	-3.551973e+01	-8.658831e+01
4.600000e-07	-5.078949e-06	-1.356791e-09	-3.538942e+01	-8.643858e+01
4.700000e-07	-5.059983e-06	-1.358895e-09	-3.525727e+01	-8.628253e+01
4.800000e-07	-5.040675e-06	-1.304580e-09	-3.512273e+01	-8.612020e+01
4.900000e-07	-5.021094e-06	-1.336589e-09	-3.498630e+01	-8.595166e+01
5.000000e-07	-5.001320e-06	-1.342284e-09	-3.484851e+01	-8.577697e+01
5.100000e-07	-4.981274e-06	-1.306873e-09	-3.470884e+01	-8.559623e+01
5.200000e-07	-4.960945e-06	-1.305319e-09	-3.456719e+01	-8.540956e+01
5.300000e-07	-4.940241e-06	-1.350475e-09	-3.442292e+01	-8.521707e+01
5.400000e-07	-4.919124e-06	-1.300453e-09	-3.427579e+01	-8.501889e+01
5.500000e-07	-4.897697e-06	-1.292238e-09	-3.412649e+01	-8.481519e+01
5.600000e-07	-4.876001e-06	-1.321091e-09	-3.397531e+01	-8.460613e+01
5.700000e-07	-4.853958e-06	-1.316548e-09	-3.382171e+01	-8.439188e+01
5.800000e-07	-4.831430e-06	-1.262266e-09	-3.366474e+01	-8.417262e+01
5.900000e-07	-4.808641e-06	-1.293198e-09	-3.350596e+01	-8.394855e+01
6.000000e-07	-4.785658e-06	-1.294267e-09	-3.334581e+01	-8.371987e+01
6.100000e-07	-4.762289e-06	-1.272573e-09	-3.318298e+01	-8.348678e+01
6.200000e-07	-4.738675e-06	-1.266598e-09	-3.301844e+01	-8.324950e+01
6.300000e-07	-4.714926e-06	-1.290612e-09	-3.285296e+01	-8.300824e+01
6.400000e-07	-4.690738e-06	-1.262774e-09	-3.268443e+01	-8.276322e+01
6.500000e-07	-4.666075e-06	-1.261968e-09	-3.251257e+01	-8.251465e+01
6.600000e-07	-4.641166e-06	-1.268614e-09	-3.233901e+01	-8.226274e+01
6.700000e-07	-4.615758e-06	-1.261448e-09	-3.216197e+01	-8.200771e+01
6.800000e-07	-4.589684e-06	-1.241630e-09	-3.198029e+01	-8.174976e+01
6.900000e-07	-4.563157e-06	-1.253180e-09	-3.179546e+01	-8.148910e+01
7.000000e-07	-4.536227e-06	-1.246222e-09	-3.160781e+01	-8.122592e+01
7.100000e-07	-4.508911e-06	-1.235037e-09	-3.141748e+01	-8.096039e+01
7.200000e-07	-4.481374e-06	-1.234491e-09	-3.122560e+01	-8.069270e+01
7.300000e-07	-4.453698e-06	-1.231469e-09	-3.103276e+01	-8.042301e+01
7.400000e-07	-4.425838e-06	-1.221986e-09	-3.083864e+01	-8.015147e+01
7.500000e-07	-4.397663e-06	-1.221689e-09	-3.064232e+01	-7.987821e+01
7.600000e-07	-4.369184e-06	-1.222512e-09	-3.044388e+01	-7.960334e+01
7.700000e-07	-4.340342e-06	-1.209949e-09	-3.024291e+01	-7.932699e+01
7.800000e-07	-4.311173e-06	-1.208442e-09	-3.003966e+01	-7.904922e+01
7.900000e-07	-4.281821e-06	-1.200328e-09	-2.983514e+01	-7.877012e+01
8.000000e-07	-4.252214e-06	-1.192194e-09	-2.962884e+01	-7.848973e+01
8.100000e-07	-4.222288e-06	-1.186307e-09	-2.942033e+01	-7.820807e+01
8.200000e-07	-4.192106e-06	-1.196403e-09	-2.921002e+01	-7.792518e+01
8.300000e-07	-4.161736e-06	-1.185131e-09	-2.899841e+01	-7.764102e+01
8.400000e-07	-4.131011e-06	-1.181188e-09	-2.878432e+01	-7.735558e+01
8.500000e-07	-4.099871e-06	-1.178154e-09	-2.856734e+01	-7.706880e+01
8.600000e-07	-4.068534e-06	-1.175657e-09	-2.834899e+01	-7.678063e+01
8.700000e-07	-4.037054e-06	-1.157988e-09	-2.812964e+01	-7.649096e+01
8.800000e-07	-4.005350e-06	-1.161390e-09	-2.790873e+01	-7.619969e+01
8.900000e-07	-3.973538e-06	-1.153954e-09	-2.768707e+01	-7.590669e+01
9.000000e-07	-3.941483e-06	-1.145142e-09	-2.746371e+01	-7.561181e+01
9.100000e-07	-3.909014e-06	-1.136848e-09	-2.723748e+01	-7.531491e+01
9.200000e-07	-3.876245e-06	-1.141273e-09	-2.700914e+01	-7.501578e+01
9.300000e-07	-3.843063e-06	-1.128442e-09	-2.677794e+01	-7.471425e+01
9.400000e-07	-3.809414e-06	-1.124196e-09	-2.654348e+01	-7.441009e+01
9.500000e-07	-3.775378e-06	-1.123144e-09	-2.630632e+01	-7.410309e+01
9.600000e-07	-3.740891e-06	-1.118026e-09	-2.606602e+01	-7.379301e+01
9.700000e-07	-3.705973e-06	-1.104126e-09	-2.582271e+01	-7.347962e+01
9.800000e-07	-3.670797e-06	-1.101440e-09	-2.557761e+01	-7.316265e+01
9.900000e-07	-3.635464e-06	-1.094327e-09	-2.533142e+01	-7.284185e+01
1.000000e-06	-3.599947e-06	-1.082135e-09	-2.508394e+01	-7.251695e+01
1.010000e-06	-3.564218e-06	-1.075943e-09	-2.483499e+01	-7.218769e+01
1.020000e-06	-3.528377e-06	-1.074072e-09	-2.458525e+01	-7.185379e+01
1.030000e-06	-3.492429e-06	-1.066818e-09	-2.433477e+01	-7.151499e+01
1.040000e-06	-3.456247e-06	-1.058999e-09	-2.408265e+01	-7.117102e+01
1.050000e-06	-3.419712e-06	-1.055129e-09	-2.382809e+01	-7.082161e+01
1.060000e-06	-3.382904e-06	-1.043685e-09	-2.357162e+01	-7.046651e+01
1.070000e-06	-3.345911e-06	-1.033217e-09	-2.331385e+01	-7.010547e+01
1.080000e-06	-3.308599e-06	-1.026228e-09	-2.305387e+01	-6.973824e+01
1.090000e-06	-3.271018e-06	-1.022181e-09	-2.279201e+01	-6.936459e+01
1.100000e-06	-3.233199e-06	-1.011756e-09	-2.252849e+01	-6.898430e+01
1.110000e-06	-3.195183e-06	-1.008194e-09	-2.226360e+01	-6.859718e+01
1.120000e-06	-3.156944e-06	-1.001419e-09	-2.199715e+01	-6.820301e+01
1.130000e-06	-3.118529e-06	-9.946916e-10	-2.172948e+01	-6.780163e+01
1.140000e-06	-3.079915e-06	-9.833725e-10	-2.146043e+01	-6.739289e+01
1.150000e-06	-3.040947e-06	-9.760895e-10	-2.118890e+01	-6.697662e+01
1.160000e-06	-3.001790e-06	-9.657472e-10	-2.091606e+01	-6.655272e+01
1.170000e-06	-2.962429e-06	-9.614469e-10	-2.064180e+01	-6.612107e+01
1.180000e-06	-2.922871e-06	-9.544247e-10	-2.036617e+01	-6.568159e+01
1.190000e-06	-2.883309e-06	-9.503194e-10	-2.009050e+01	-6.523421e+01
1.200000e-06	-2.843673e-06	-9.430015e-10	-1.981432e+01	-6.477887e+01
1.210000e-06	-2.803853e-06	-9.363112e-10	-1.953687e+01	-6.431554e+01
1.220000e-06	-2.763877e-06	-9.250543e-10	-1.925832e+01	-6.384422e+01
1.230000e-06	-2.723762e-06	-9.175450e-10	-1.897880e+01	-6.336489e+01
1.240000e-06	-2.683477e-06	-9.112502e-10	-1.869810e+01	-6.287757e+01
1.250000e-06	-2.643013e-06	-9.056561e-10	-1.841615e+01	-6.238230e+01
1.260000e-06	-2.602267e-06	-8.992241e-10	-1.813224e+01	-6.187913e+01
1.270000e-06	-2.561277e-06	-8.938183e-10	-1.784663e+01	-6.136809e+01
1.280000e-06	-2.520147e-06	-8.858675e-10	-1.756004e+01	-6.084926e+01
1.290000e-06	-2.478666e-06	-8.753749e-10	-1.727100e+01	-6.032271e+01
1.300000e-06	-2.436794e-06	-8.619270e-10	-1.697925e+01	-5.978852e+01
1.310000e-06	-2.394604e-06	-8.499815e-10	-1.668527e+01	-5.924677e+01
1.320000e-06	-2.352112e-06	-8.396444e-10	-1.638920e+01	-5.869753e+01
1.330000e-06	-2.309343e-06	-8.329651e-10	-1.609119e+01	-5.814090e+01
1.340000e-06	-2.266350e-06	-8.277872e-10	-1.579162e+01	-5.757694e+01
1.350000e-06	-2.223242e-06	-8.185500e-10	-1.549124e+01	-5.700572e+01
1.360000e-06	-2.179984e-06	-8.079366e-10	-1.518983e+01	-5.642731e+01
1.370000e-06	-2.136532e-06	-7.984523e-10	-1.488706e+01	-5.584175e+01
1.380000e-06	-2.092909e-06	-7.909575e-10	-1.458310e+01	-5.524909e+01
1.390000e-06	-2.049207e-06	-7.811757e-10	-1.427860e+01	-5.464933e+01
1.400000e-06	-2.005496e-06	-7.724015e-10	-1.397402e+01	-5.404248e+01
1.410000e-06	-1.961749e-06	-7.620260e-10	-1.366920e+01	-5.342851e+01
1.420000e-06	-1.917884e-06	-7.528602e-10	-1.336355e+01	-5.280739e+01
1.430000e-06	-1.873895e-06	-7.444076e-10	-1.305705e+01	-5.217905e+01
1.440000e-06	-1.829870e-06	-7.381316e-10	-1.275028e+01	-5.154338e+01
1.450000e-06	-1.785768e-06	-7.296055e-10	-1.244299e+01	-5.090027e+01
1.460000e-06	-1.741530e-06	-7.206385e-10	-1.213474e+01	-5.024956e+01
1.470000e-06	-1.697138e-06	-7.077755e-10	-1.182543e+01	-4.959106e+01
1.480000e-06	-1.652639e-06	-6.940866e-10	-1.151536e+01	-4.892457e+01
1.490000e-06	-1.608000e-06	-6.787344e-10	-1.120433e+01	-4.824982e+01
1.500000e-06	-1.563114e-06	-6.667090e-10	-1.089157e+01	-4.756656e+01
1.510000e-06	-1.518089e-06	-6.541646e-10	-1.057784e+01	-4.687445e+01
1.520000e-06	-1.472947e-06	-6.401185e-10	-1.026329e+01	-4.617317e+01
1.530000e-06	-1.427684e-06	-6.269040e-10	-9.947906e+00	-4.546233e+01
1.540000e-06	-1.382433e-06	-6.192350e-10	-9.632606e+00	-4.474153e+01
1.550000e-06	-1.337123e-06	-6.097319e-10	-9.316893e+00	-4.401035e+01
1.560000e-06	-1.291674e-06	-6.007510e-10	-9.000211e+00	-4.326833e+01
1.570000e-06	-1.246117e-06	-5.903610e-10	-8.682772e+00	-4.251498e+01
1.580000e-06	-1.200498e-06	-5.777851e-10	-8.364905e+00	-4.174982e+01
1.590000e-06	-1.154858e-06	-5.602746e-10	-8.046893e+00	-4.097231e+01
1.600000e-06	-1.109095e-06	-5.450590e-10	-7.728023e+00	-4.018192e+01
1.610000e-06	-1.063220e-06	-5.328905e-10	-7.408371e+00	-3.937811e+01
1.620000e-06	-1.017314e-06	-5.227295e-10	-7.088508e+00	-3.856032e+01
1.630000e-06	-9.713302e-07	-5.143038e-10	-6.768096e+00	-3.772800e+01
1.640000e-06	-9.253078e-07	-5.040780e-10	-6.447419e+00	-3.688058e+01
1.650000e-06	-8.792161e-07	-4.901602e-10	-6.126257e+00	-3.601752e+01
1.660000e-06	-8.330449e-07	-4.720341e-10	-5.804543e+00	-3.513826e+01
1.670000e-06	-7.868789e-07	-4.552135e-10	-5.482864e+00	-3.424228e+01
1.680000e-06	-7.406580e-07	-4.371682e-10	-5.160804e+00	-3.332906e+01
1.690000e-06	-6.943112e-07	-4.252853e-10	-4.837866e+00	-3.239811e+01
1.700000e-06	-6.479574e-07	-4.135816e-10	-4.514879e+00	-3.144898e+01
1.710000e-06	-6.015649e-07	-4.024392e-10	-4.191622e+00	-3.048122e+01
1.720000e-06	-5.550742e-07	-3.879334e-10	-3.867681e+00	-2.949446e+01
1.730000e-06	-5.085875e-07	-3.711972e-10	-3.543768e+00	-2.848833e+01
1.740000e-06	-4.620050e-07	-3.551080e-10	-3.219188e+00	-2.746254e+01
1.750000e-06	-4.154347e-07	-3.385272e-10	-2.894692e+00	-2.641683e+01
1.760000e-06	-3.689788e-07	-3.234973e-10	-2.570994e+00	-2.535100e+01
1.770000e-06	-3.224237e-07	-3.067672e-10	-2.246604e+00	-2.426492e+01
1.780000e-06	-2.756611e-07	-2.908404e-10	-1.920769e+00	-2.315849e+01
1.790000e-06	-2.289510e-07	-2.736440e-10	-1.595299e+00	-2.203172e+01
1.800000e-06	-1.822624e-07	-2.538290e-10	-1.269979e+00	-2.088466e+01
1.810000e-06	-1.354473e-07	-2.353196e-10	-9.437783e-01	-1.971743e+01
1.820000e-06	-8.872161e-08	-2.185798e-10	-6.182001e-01	-1.853022e+01
1.830000e-06	-4.200110e-08	-2.018390e-10	-2.926579e-01	-1.732331e+01
1.840000e-06	4.762414e-09	-1.841591e-10	3.318385e-02	-1.609705e+01
1.850000e-06	5.146599e-08	-1.683372e-10	3.586080e-01	-1.485186e+01
1.860000e-06	9.822935e-08	-1.515797e-10	6.844487e-01	-1.358823e+01
1.870000e-06	1.450277e-07	-1.335147e-10	1.010533e+00	-1.230673e+01
1.880000e-06	1.917409e-07	-1.154464e-10	1.336024e+00	-1.100803e+01
1.890000e-06	2.383673e-07	-9.775702e-11	1.660911e+00	-9.692828e+00
1.900000e-06	2.849574e-07	-7.692668e-11	1.985544e+00	-8.361929e+00
1.910000e-06	3.316335e-07	-5.602344e-11	2.310777e+00	-7.016190e+00
1.920000e-06	3.782475e-07	-3.621033e-11	2.635577e+00	-5.656541e+00
1.930000e-06	4.247201e-07	-1.716325e-11	2.959392e+00	-4.283973e+00
1.940000e-06	4.711957e-07	-1.923056e-12	3.283228e+00	-2.899535e+00
1.950000e-06	5.176514e-07	1.157149e-11	3.606924e+00	-1.504334e+00
1.960000e-06	5.640753e-07	2.590893e-11	3.930400e+00	-9.952582e-02
1.970000e-06	6.104042e-07	4.396047e-11	4.253213e+00	1.313688e+00
1.980000e-06	6.567175e-07	6.545268e-11	4.575918e+00	2.734063e+00
1.990000e-06	7.029846e-07	8.903152e-11	4.898301e+00	4.160324e+00
2.000000e-06	7.492051e-07	1.115493e-10	5.220359e+00	5.591162e+00
2.010000e-06	7.954866e-07	1.310271e-10	5.542842e+00	7.025248e+00
2.020000e-06	8.416351e-07	1.485372e-10	5.864398e+00	8.461233e+00
2.030000e-06	8.877177e-07	1.635046e-10	6.185496e+00	9.897761e+00
2.040000e-06	9.338221e-07	1.765574e-10	6.506745e+00	1.133347e+01
2.050000e-06	9.798187e-07	1.908028e-10	6.827243e+00	1.276699e+01
2.060000e-06	1.025679e-06	2.094356e-10	7.146794e+00	1.419698e+01
2.070000e-06	1.071512e-06	2.333614e-10	7.466150e+00	1.562210e+01
2.080000e-06	1.117326e-06	2.590696e-10	7.785373e+00	1.704103e+01
2.090000e-06	1.163025e-06	2.814292e-10	8.103801e+00	1.845249e+01
2.100000e-06	1.208608e-06	3.004439e-10	8.421414e+00	1.985520e+01
2.110000e-06	1.254102e-06	3.182604e-10	8.738413e+00	2.124796e+01
2.120000e-06	1.299582e-06	3.354201e-10	9.055307e+00	2.262959e+01
2.130000e-06	1.344992e-06	3.528082e-10	9.371719e+00	2.399896e+01
2.140000e-06	1.390279e-06	3.710019e-10	9.687276e+00	2.535501e+01
2.150000e-06	1.435492e-06	3.906002e-10	1.000232e+01	2.669671e+01
2.160000e-06	1.480498e-06	4.115744e-10	1.031591e+01	2.802311e+01
2.170000e-06	1.525312e-06	4.319326e-10	1.062816e+01	2.933332e+01
2.180000e-06	1.570124e-06	4.507905e-10	1.094041e+01	3.062653e+01
2.190000e-06	1.614820e-06	4.686667e-10	1.125185e+01	3.190198e+01
2.200000e-06	1.659237e-06	4.855860e-10	1.156134e+01	3.315899e+01
2.210000e-06	1.703564e-06	5.023176e-10	1.187020e+01	3.439696e+01
2.220000e-06	1.747854e-06	5.192725e-10	1.217881e+01	3.561537e+01
2.230000e-06	1.791963e-06	5.353031e-10	1.248615e+01	3.681376e+01
2.240000e-06	1.835974e-06	5.503001e-10	1.279281e+01	3.799174e+01
2.250000e-06	1.879950e-06	5.648764e-10	1.309923e+01	3.914902e+01
2.260000e-06	1.923857e-06	5.799495e-10	1.340518e+01	4.028536e+01
2.270000e-06	1.967701e-06	5.960449e-10	1.371067e+01	4.140062e+01
2.280000e-06	2.011432e-06	6.119801e-10	1.401538e+01	4.249469e+01
2.290000e-06	2.055072e-06	6.272183e-10	1.431946e+01	4.356756e+01
2.300000e-06	2.098715e-06	6.431083e-10	1.462356e+01	4.461927e+01
2.310000e-06	2.142309e-06	6.597022e-10	1.492732e+01	4.564992e+01
2.320000e-06	2.185742e-06	6.729366e-10	1.522995e+01	4.665969e+01
2.330000e-06	2.229072e-06	6.829307e-10	1.553187e+01	4.764878e+01
2.340000e-06	2.272306e-06	6.950779e-10	1.583312e+01	4.861747e+01
2.350000e-06	2.315293e-06	7.090201e-10	1.613265e+01	4.956607e+01
2.360000e-06	2.357933e-06	7.233981e-10	1.642975e+01	5.049492e+01
2.370000e-06	2.400273e-06	7.386928e-10	1.672477e+01	5.140443e+01
2.380000e-06	2.442358e-06	7.528817e-10	1.701802e+01	5.229500e+01
2.390000e-06	2.484145e-06	7.657242e-10	1.730918e+01	5.316709e+01
2.400000e-06	2.525575e-06	7.760097e-10	1.759786e+01	5.402117e+01
2.410000e-06	2.566658e-06	7.852490e-10	1.788412e+01	5.485772e+01
2.420000e-06	2.607479e-06	7.975534e-10	1.816856e+01	5.567723e+01
2.430000e-06	2.648052e-06	8.126771e-10	1.845127e+01	5.648021e+01
2.440000e-06	2.688333e-06	8.281817e-10	1.873193e+01	5.726716e+01
2.450000e-06	2.728366e-06	8.419504e-10	1.901088e+01	5.803860e+01
2.460000e-06	2.768346e-06	8.526017e-10	1.928945e+01	5.879501e+01
2.470000e-06	2.808233e-06	8.590971e-10	1.956738e+01	5.953688e+01
2.480000e-06	2.848023e-06	8.641547e-10	1.984464e+01	6.026468e+01
2.490000e-06	2.887748e-06	8.731499e-10	2.012143e+01	6.097888e+01
2.500000e-06	2.927283e-06	8.862274e-10	2.039691e+01	6.167990e+01
2.510000e-06	2.966664e-06	9.022056e-10	2.067131e+01	6.236815e+01
2.520000e-06	3.005855e-06	9.177601e-10	2.094439e+01	6.304403e+01
2.530000e-06	3.044727e-06	9.296670e-10	2.121524e+01	6.370788e+01
2.540000e-06	3.083334e-06	9.362868e-10	2.148425e+01	6.436005e+01
2.550000e-06	3.121727e-06	9.381501e-10	2.175177e+01	6.500082e+01
2.560000e-06	3.159946e-06	9.404273e-10	2.201807e+01	6.563047e+01
2.570000e-06	3.197960e-06	9.467918e-10	2.228295e+01	6.624922e+01
2.580000e-06	3.235738e-06	9.580509e-10	2.254618e+01	6.685729e+01
2.590000e-06	3.273363e-06	9.730724e-10	2.280835e+01	6.745485e+01
2.600000e-06	3.310730e-06	9.894011e-10	2.306872e+01	6.804203e+01
2.610000e-06	3.347824e-06	1.002871e-09	2.332718e+01	6.861895e+01
2.620000e-06	3.384686e-06	1.010856e-09	2.358403e+01	6.918570e+01
2.630000e-06	3.421285e-06	1.014150e-09	2.383904e+01	6.974232e+01
2.640000e-06	3.457717e-06	1.014739e-09	2.409290e+01	7.028885e+01
2.650000e-06	3.493940e-06	1.016170e-09	2.434530e+01	7.082530e+01
2.660000e-06	3.529945e-06	1.022073e-09	2.459617e+01	7.135165e+01
2.670000e-06	3.565830e-06	1.032181e-09	2.484622e+01	7.186788e+01
2.680000e-06	3.601596e-06	1.043649e-09	2.509543e+01	7.237393e+01
2.690000e-06	3.637196e-06	1.055955e-09	2.534349e+01	7.286975e+01
2.700000e-06	3.672596e-06	1.066904e-09	2.559015e+01	7.335527e+01
2.710000e-06	3.707843e-06	1.073887e-09	2.583574e+01	7.383041e+01
2.720000e-06	3.742792e-06	1.078663e-09	2.607926e+01	7.429509e+01
2.730000e-06	3.777271e-06	1.082505e-09	2.631951e+01	7.474924e+01
2.740000e-06	3.811288e-06	1.085748e-09	2.655654e+01	7.519276e+01
2.750000e-06	3.844830e-06	1.089148e-09	2.679025e+01	7.562560e+01
2.760000e-06	3.877819e-06	1.097052e-09	2.702012e+01	7.604768e+01
2.770000e-06	3.910364e-06	1.106870e-09	2.724688e+01	7.645894e+01
2.780000e-06	3.942744e-06	1.116532e-09	2.747250e+01	7.685934e+01
2.790000e-06	3.974976e-06	1.127873e-09	2.769709e+01	7.724885e+01
2.800000e-06	4.006896e-06	1.134865e-09	2.791950e+01	7.762746e+01
2.810000e-06	4.038602e-06	1.140871e-09	2.814043e+01	7.799517e+01
2.820000e-06	4.070143e-06	1.142182e-09	2.836020e+01	7.835200e+01
2.830000e-06	4.101425e-06	1.138767e-09	2.857817e+01	7.869801e+01
2.840000e-06	4.132483e-06	1.137299e-09	2.879458e+01	7.903326e+01
2.850000e-06	4.163289e-06	1.143513e-09	2.900923e+01	7.935784e+01
2.860000e-06	4.193819e-06	1.155341e-09	2.922196e+01	7.967186e+01
2.870000e-06	4.224077e-06	1.162313e-09	2.943279e+01	7.997547e+01
2.880000e-06	4.253951e-06	1.169772e-09	2.964095e+01	8.026884e+01
2.890000e-06	4.283529e-06	1.174868e-09	2.984704e+01	8.055213e+01
2.900000e-06	4.312816e-06	1.178428e-09	3.005111e+01	8.082558e+01
