# Temperatura_=_-2.2
# Concentracion g/m^3_=_1620.0
# C_Vs_to_Am_M_A/Vsm_=_65563218390.804596
# pendiente_HvsI_1/m_=_3716.3
# ordenada_HvsI_A/m_=_1297.0
# frecuencia_Hz_=_135092.49787521496

Tiempo_(s)	Campo_(V.s)	Magnetizacion_(V.s)	Campo_(kA/m)	Magnetizacion_(A/m)
0.000000e+00	-5.536303e-06	-1.050515e-09	-3.837188e+01	-7.052342e+01
1.000000e-08	-5.536477e-06	-1.047380e-09	-3.837309e+01	-7.050553e+01
2.000000e-08	-5.536376e-06	-1.043773e-09	-3.837239e+01	-7.048960e+01
3.000000e-08	-5.535891e-06	-1.039667e-09	-3.836903e+01	-7.047558e+01
4.000000e-08	-5.535020e-06	-1.035183e-09	-3.836299e+01	-7.046343e+01
5.000000e-08	-5.533681e-06	-1.032209e-09	-3.835371e+01	-7.045303e+01
6.000000e-08	-5.531771e-06	-1.034331e-09	-3.834048e+01	-7.044429e+01
7.000000e-08	-5.529246e-06	-1.050182e-09	-3.832297e+01	-7.043706e+01
8.000000e-08	-5.526100e-06	-1.060334e-09	-3.830117e+01	-7.043117e+01
9.000000e-08	-5.522476e-06	-1.015936e-09	-3.827605e+01	-7.042643e+01
1.000000e-07	-5.518531e-06	-9.709615e-10	-3.824871e+01	-7.042263e+01
1.100000e-07	-5.514302e-06	-9.997913e-10	-3.821940e+01	-7.041953e+01
1.200000e-07	-5.509825e-06	-1.065015e-09	-3.818837e+01	-7.041687e+01
1.300000e-07	-5.505022e-06	-1.058792e-09	-3.815508e+01	-7.041438e+01
1.400000e-07	-5.499818e-06	-9.810551e-10	-3.811901e+01	-7.041177e+01
1.500000e-07	-5.494278e-06	-9.833736e-10	-3.808062e+01	-7.040874e+01
1.600000e-07	-5.488357e-06	-1.041800e-09	-3.803957e+01	-7.040495e+01
1.700000e-07	-5.482008e-06	-1.036029e-09	-3.799557e+01	-7.040008e+01
1.800000e-07	-5.475218e-06	-9.978189e-10	-3.794851e+01	-7.039380e+01
1.900000e-07	-5.468104e-06	-9.990893e-10	-3.789920e+01	-7.038575e+01
2.000000e-07	-5.460755e-06	-1.075151e-09	-3.784826e+01	-7.037560e+01
2.100000e-07	-5.453074e-06	-1.076053e-09	-3.779503e+01	-7.036299e+01
2.200000e-07	-5.445002e-06	-1.044764e-09	-3.773909e+01	-7.034757e+01
2.300000e-07	-5.436675e-06	-1.019110e-09	-3.768137e+01	-7.032902e+01
2.400000e-07	-5.428002e-06	-1.065060e-09	-3.762125e+01	-7.030698e+01
2.500000e-07	-5.418737e-06	-1.084484e-09	-3.755704e+01	-7.028113e+01
2.600000e-07	-5.408748e-06	-1.082258e-09	-3.748781e+01	-7.025117e+01
2.700000e-07	-5.398114e-06	-1.071536e-09	-3.741411e+01	-7.021678e+01
2.800000e-07	-5.386997e-06	-1.089173e-09	-3.733705e+01	-7.017769e+01
2.900000e-07	-5.375394e-06	-1.084917e-09	-3.725663e+01	-7.013363e+01
3.000000e-07	-5.363431e-06	-1.052341e-09	-3.717371e+01	-7.008435e+01
3.100000e-07	-5.351156e-06	-1.048977e-09	-3.708864e+01	-7.002961e+01
3.200000e-07	-5.338477e-06	-1.073008e-09	-3.700076e+01	-6.996923e+01
3.300000e-07	-5.325384e-06	-1.088160e-09	-3.691002e+01	-6.990303e+01
3.400000e-07	-5.311920e-06	-1.054546e-09	-3.681670e+01	-6.983084e+01
3.500000e-07	-5.298015e-06	-1.059278e-09	-3.672032e+01	-6.975254e+01
3.600000e-07	-5.283753e-06	-1.065023e-09	-3.662147e+01	-6.966803e+01
3.700000e-07	-5.269031e-06	-1.054092e-09	-3.651944e+01	-6.957724e+01
3.800000e-07	-5.253653e-06	-1.027331e-09	-3.641285e+01	-6.948012e+01
3.900000e-07	-5.237650e-06	-1.063059e-09	-3.630193e+01	-6.937665e+01
4.000000e-07	-5.221274e-06	-1.068510e-09	-3.618843e+01	-6.926685e+01
4.100000e-07	-5.204544e-06	-1.039346e-09	-3.607247e+01	-6.915074e+01
4.200000e-07	-5.187431e-06	-1.037897e-09	-3.595387e+01	-6.902840e+01
4.300000e-07	-5.170047e-06	-1.074747e-09	-3.583338e+01	-6.889991e+01
4.400000e-07	-5.152278e-06	-1.039686e-09	-3.571023e+01	-6.876538e+01
4.500000e-07	-5.134040e-06	-1.010067e-09	-3.558382e+01	-6.862494e+01
4.600000e-07	-5.115490e-06	-1.039001e-09	-3.545525e+01	-6.847877e+01
4.700000e-07	-5.096698e-06	-1.058093e-09	-3.532500e+01	-6.832703e+01
4.800000e-07	-5.077497e-06	-1.019354e-09	-3.519192e+01	-6.816991e+01
4.900000e-07	-5.057972e-06	-1.030403e-09	-3.505660e+01	-6.800765e+01
5.000000e-07	-5.038216e-06	-1.044802e-09	-3.491967e+01	-6.784045e+01
5.100000e-07	-5.018253e-06	-1.015283e-09	-3.478131e+01	-6.766857e+01
5.200000e-07	-4.998037e-06	-1.007520e-09	-3.464119e+01	-6.749225e+01
5.300000e-07	-4.977524e-06	-1.038227e-09	-3.449901e+01	-6.731176e+01
5.400000e-07	-4.956591e-06	-1.013730e-09	-3.435392e+01	-6.712737e+01
5.500000e-07	-4.935223e-06	-9.922389e-10	-3.420583e+01	-6.693934e+01
5.600000e-07	-4.913558e-06	-1.025886e-09	-3.405566e+01	-6.674795e+01
5.700000e-07	-4.891579e-06	-1.027295e-09	-3.390333e+01	-6.655347e+01
5.800000e-07	-4.869181e-06	-9.871604e-10	-3.374809e+01	-6.635618e+01
5.900000e-07	-4.846456e-06	-9.905152e-10	-3.359058e+01	-6.615634e+01
6.000000e-07	-4.823427e-06	-1.006033e-09	-3.343097e+01	-6.595422e+01
6.100000e-07	-4.800081e-06	-9.838261e-10	-3.326916e+01	-6.575006e+01
6.200000e-07	-4.776465e-06	-9.819881e-10	-3.310548e+01	-6.554412e+01
6.300000e-07	-4.752577e-06	-9.911086e-10	-3.293991e+01	-6.533662e+01
6.400000e-07	-4.728493e-06	-9.754700e-10	-3.277299e+01	-6.512778e+01
6.500000e-07	-4.704123e-06	-9.630365e-10	-3.260408e+01	-6.491781e+01
6.600000e-07	-4.679297e-06	-9.777688e-10	-3.243202e+01	-6.470689e+01
6.700000e-07	-4.653929e-06	-9.675656e-10	-3.225619e+01	-6.449521e+01
6.800000e-07	-4.628067e-06	-9.574499e-10	-3.207694e+01	-6.428290e+01
6.900000e-07	-4.601701e-06	-9.633762e-10	-3.189420e+01	-6.407011e+01
7.000000e-07	-4.574834e-06	-9.668934e-10	-3.170799e+01	-6.385695e+01
7.100000e-07	-4.547625e-06	-9.501525e-10	-3.151940e+01	-6.364352e+01
7.200000e-07	-4.520161e-06	-9.538046e-10	-3.132905e+01	-6.342989e+01
7.300000e-07	-4.492469e-06	-9.488297e-10	-3.113712e+01	-6.321611e+01
7.400000e-07	-4.464572e-06	-9.348229e-10	-3.094376e+01	-6.300223e+01
7.500000e-07	-4.436417e-06	-9.328409e-10	-3.074862e+01	-6.278826e+01
7.600000e-07	-4.408044e-06	-9.400399e-10	-3.055197e+01	-6.257418e+01
7.700000e-07	-4.379359e-06	-9.314951e-10	-3.035315e+01	-6.235998e+01
7.800000e-07	-4.350300e-06	-9.318787e-10	-3.015175e+01	-6.214561e+01
7.900000e-07	-4.320941e-06	-9.319096e-10	-2.994826e+01	-6.193101e+01
8.000000e-07	-4.291249e-06	-9.186207e-10	-2.974247e+01	-6.171610e+01
8.100000e-07	-4.261313e-06	-9.061883e-10	-2.953498e+01	-6.150079e+01
8.200000e-07	-4.231082e-06	-9.108351e-10	-2.932545e+01	-6.128495e+01
8.300000e-07	-4.200576e-06	-9.055151e-10	-2.911402e+01	-6.106847e+01
8.400000e-07	-4.169857e-06	-8.954460e-10	-2.890110e+01	-6.085120e+01
8.500000e-07	-4.138805e-06	-8.988648e-10	-2.868588e+01	-6.063299e+01
8.600000e-07	-4.107451e-06	-9.004207e-10	-2.846857e+01	-6.041369e+01
8.700000e-07	-4.075887e-06	-8.889888e-10	-2.824980e+01	-6.019311e+01
8.800000e-07	-4.044153e-06	-8.840262e-10	-2.802986e+01	-5.997108e+01
8.900000e-07	-4.012242e-06	-8.829281e-10	-2.780869e+01	-5.974742e+01
9.000000e-07	-3.980040e-06	-8.702172e-10	-2.758549e+01	-5.952192e+01
9.100000e-07	-3.947558e-06	-8.653328e-10	-2.736036e+01	-5.929439e+01
9.200000e-07	-3.914809e-06	-8.680726e-10	-2.713338e+01	-5.906464e+01
9.300000e-07	-3.881636e-06	-8.640251e-10	-2.690346e+01	-5.883245e+01
9.400000e-07	-3.848052e-06	-8.539948e-10	-2.667069e+01	-5.859764e+01
9.500000e-07	-3.813977e-06	-8.563992e-10	-2.643452e+01	-5.835999e+01
9.600000e-07	-3.779399e-06	-8.545457e-10	-2.619486e+01	-5.811930e+01
9.700000e-07	-3.744399e-06	-8.464563e-10	-2.595227e+01	-5.787539e+01
9.800000e-07	-3.709023e-06	-8.406885e-10	-2.570708e+01	-5.762805e+01
9.900000e-07	-3.673507e-06	-8.413979e-10	-2.546092e+01	-5.737710e+01
1.000000e-06	-3.637879e-06	-8.338071e-10	-2.521399e+01	-5.712235e+01
1.010000e-06	-3.602080e-06	-8.285409e-10	-2.496587e+01	-5.686363e+01
1.020000e-06	-3.566135e-06	-8.267202e-10	-2.471673e+01	-5.660076e+01
1.030000e-06	-3.530037e-06	-8.235138e-10	-2.446654e+01	-5.633358e+01
1.040000e-06	-3.493722e-06	-8.166375e-10	-2.421485e+01	-5.606193e+01
1.050000e-06	-3.457065e-06	-8.147762e-10	-2.396077e+01	-5.578568e+01
1.060000e-06	-3.420110e-06	-8.064436e-10	-2.370464e+01	-5.550466e+01
1.070000e-06	-3.382981e-06	-7.962171e-10	-2.344730e+01	-5.521877e+01
1.080000e-06	-3.345633e-06	-7.913464e-10	-2.318844e+01	-5.492786e+01
1.090000e-06	-3.307995e-06	-7.902772e-10	-2.292758e+01	-5.463183e+01
1.100000e-06	-3.270175e-06	-7.844556e-10	-2.266545e+01	-5.433056e+01
1.110000e-06	-3.232268e-06	-7.800942e-10	-2.240271e+01	-5.402397e+01
1.120000e-06	-3.194100e-06	-7.764810e-10	-2.213818e+01	-5.371196e+01
1.130000e-06	-3.155520e-06	-7.683172e-10	-2.187078e+01	-5.339445e+01
1.140000e-06	-3.116706e-06	-7.585810e-10	-2.160176e+01	-5.307136e+01
1.150000e-06	-3.077708e-06	-7.521367e-10	-2.133147e+01	-5.274262e+01
1.160000e-06	-3.038485e-06	-7.451678e-10	-2.105961e+01	-5.240817e+01
1.170000e-06	-2.999155e-06	-7.392612e-10	-2.078702e+01	-5.206795e+01
1.180000e-06	-2.959683e-06	-7.378269e-10	-2.051344e+01	-5.172191e+01
1.190000e-06	-2.920026e-06	-7.348654e-10	-2.023858e+01	-5.137001e+01
1.200000e-06	-2.880214e-06	-7.295929e-10	-1.996264e+01	-5.101219e+01
1.210000e-06	-2.840231e-06	-7.238185e-10	-1.968552e+01	-5.064842e+01
1.220000e-06	-2.800151e-06	-7.169025e-10	-1.940773e+01	-5.027866e+01
1.230000e-06	-2.759933e-06	-7.062805e-10	-1.912898e+01	-4.990287e+01
1.240000e-06	-2.719541e-06	-7.001441e-10	-1.884903e+01	-4.952102e+01
1.250000e-06	-2.678989e-06	-6.951935e-10	-1.856796e+01	-4.913306e+01
1.260000e-06	-2.638127e-06	-6.897379e-10	-1.828475e+01	-4.873897e+01
1.270000e-06	-2.597057e-06	-6.862060e-10	-1.800010e+01	-4.833869e+01
1.280000e-06	-2.555777e-06	-6.861388e-10	-1.771398e+01	-4.793220e+01
1.290000e-06	-2.514118e-06	-6.803834e-10	-1.742525e+01	-4.751945e+01
1.300000e-06	-2.472199e-06	-6.709337e-10	-1.713471e+01	-4.710038e+01
1.310000e-06	-2.430015e-06	-6.617333e-10	-1.684233e+01	-4.667494e+01
1.320000e-06	-2.387376e-06	-6.542086e-10	-1.654680e+01	-4.624308e+01
1.330000e-06	-2.344422e-06	-6.462085e-10	-1.624909e+01	-4.580473e+01
1.340000e-06	-2.301381e-06	-6.433813e-10	-1.595077e+01	-4.535982e+01
1.350000e-06	-2.258137e-06	-6.390174e-10	-1.565106e+01	-4.490827e+01
1.360000e-06	-2.214674e-06	-6.303108e-10	-1.534981e+01	-4.444999e+01
1.370000e-06	-2.171077e-06	-6.200027e-10	-1.504764e+01	-4.398489e+01
1.380000e-06	-2.127344e-06	-6.106753e-10	-1.474453e+01	-4.351286e+01
1.390000e-06	-2.083556e-06	-6.012155e-10	-1.444104e+01	-4.303378e+01
1.400000e-06	-2.039736e-06	-5.928578e-10	-1.413732e+01	-4.254755e+01
1.410000e-06	-1.995829e-06	-5.856604e-10	-1.383301e+01	-4.205401e+01
1.420000e-06	-1.951867e-06	-5.779515e-10	-1.352831e+01	-4.155303e+01
1.430000e-06	-1.907834e-06	-5.690208e-10	-1.322312e+01	-4.104446e+01
1.440000e-06	-1.863667e-06	-5.616085e-10	-1.291700e+01	-4.052812e+01
1.450000e-06	-1.819405e-06	-5.540075e-10	-1.261022e+01	-4.000384e+01
1.460000e-06	-1.774994e-06	-5.429152e-10	-1.230241e+01	-3.947144e+01
1.470000e-06	-1.730449e-06	-5.302146e-10	-1.199367e+01	-3.893072e+01
1.480000e-06	-1.685782e-06	-5.195591e-10	-1.168409e+01	-3.838147e+01
1.490000e-06	-1.640943e-06	-5.118233e-10	-1.137331e+01	-3.782348e+01
1.500000e-06	-1.596008e-06	-5.050073e-10	-1.106187e+01	-3.725651e+01
1.510000e-06	-1.550942e-06	-4.977931e-10	-1.074952e+01	-3.668034e+01
1.520000e-06	-1.505735e-06	-4.879302e-10	-1.043619e+01	-3.609472e+01
1.530000e-06	-1.460422e-06	-4.740737e-10	-1.012212e+01	-3.549940e+01
1.540000e-06	-1.414947e-06	-4.593988e-10	-9.806938e+00	-3.489413e+01
1.550000e-06	-1.369404e-06	-4.460623e-10	-9.491284e+00	-3.427863e+01
1.560000e-06	-1.323739e-06	-4.341084e-10	-9.174781e+00	-3.365265e+01
1.570000e-06	-1.277976e-06	-4.267189e-10	-8.857598e+00	-3.301591e+01
1.580000e-06	-1.232219e-06	-4.210510e-10	-8.540461e+00	-3.236814e+01
1.590000e-06	-1.186312e-06	-4.146665e-10	-8.222281e+00	-3.170907e+01
1.600000e-06	-1.140254e-06	-4.036787e-10	-7.903056e+00	-3.103841e+01
1.610000e-06	-1.094157e-06	-3.934773e-10	-7.583558e+00	-3.035589e+01
1.620000e-06	-1.048038e-06	-3.822253e-10	-7.263908e+00	-2.966126e+01
1.630000e-06	-1.001858e-06	-3.696709e-10	-6.943835e+00	-2.895424e+01
1.640000e-06	-9.555657e-07	-3.588520e-10	-6.622986e+00	-2.823457e+01
1.650000e-06	-9.091910e-07	-3.495162e-10	-6.301565e+00	-2.750202e+01
1.660000e-06	-8.628120e-07	-3.391467e-10	-5.980114e+00	-2.675633e+01
1.670000e-06	-8.164095e-07	-3.272170e-10	-5.658500e+00	-2.599728e+01
1.680000e-06	-7.698970e-07	-3.140566e-10	-5.336124e+00	-2.522467e+01
1.690000e-06	-7.233647e-07	-3.005294e-10	-5.013610e+00	-2.443830e+01
1.700000e-06	-6.768951e-07	-2.897377e-10	-4.691531e+00	-2.363798e+01
1.710000e-06	-6.303854e-07	-2.785293e-10	-4.369175e+00	-2.282358e+01
1.720000e-06	-5.837514e-07	-2.653816e-10	-4.045957e+00	-2.199494e+01
1.730000e-06	-5.370284e-07	-2.514810e-10	-3.722121e+00	-2.115196e+01
1.740000e-06	-4.902374e-07	-2.360278e-10	-3.397815e+00	-2.029455e+01
1.750000e-06	-4.433701e-07	-2.227802e-10	-3.072980e+00	-1.942267e+01
1.760000e-06	-3.965894e-07	-2.117360e-10	-2.748744e+00	-1.853627e+01
1.770000e-06	-3.497876e-07	-1.992496e-10	-2.424363e+00	-1.763538e+01
1.780000e-06	-3.028664e-07	-1.868372e-10	-2.099155e+00	-1.672002e+01
1.790000e-06	-2.559233e-07	-1.751638e-10	-1.773794e+00	-1.579027e+01
1.800000e-06	-2.089748e-07	-1.609474e-10	-1.448396e+00	-1.484623e+01
1.810000e-06	-1.620182e-07	-1.444563e-10	-1.122942e+00	-1.388806e+01
1.820000e-06	-1.149819e-07	-1.297605e-10	-7.969347e-01	-1.291593e+01
1.830000e-06	-6.792266e-08	-1.162897e-10	-4.707691e-01	-1.193007e+01
1.840000e-06	-2.086314e-08	-1.024063e-10	-1.446015e-01	-1.093074e+01
1.850000e-06	2.613976e-08	-8.852617e-11	1.811736e-01	-9.918246e+00
1.860000e-06	7.304089e-08	-7.837761e-11	5.062433e-01	-8.892928e+00
1.870000e-06	1.199499e-07	-6.651403e-11	8.313677e-01	-7.855173e+00
1.880000e-06	1.669434e-07	-5.152989e-11	1.157078e+00	-6.805406e+00
1.890000e-06	2.139774e-07	-3.580121e-11	1.483069e+00	-5.744094e+00
1.900000e-06	2.610127e-07	-1.889253e-11	1.809068e+00	-4.671743e+00
1.910000e-06	3.079980e-07	-3.058503e-12	2.134721e+00	-3.588898e+00
1.920000e-06	3.548009e-07	1.215718e-11	2.459110e+00	-2.496145e+00
1.930000e-06	4.015672e-07	2.676775e-11	2.783245e+00	-1.394103e+00
1.940000e-06	4.484266e-07	3.896834e-11	3.108026e+00	-2.834312e-01
1.950000e-06	4.952026e-07	4.872429e-11	3.432228e+00	8.351801e-01
1.960000e-06	5.418604e-07	6.068204e-11	3.755612e+00	1.961007e+00
1.970000e-06	5.885102e-07	7.584866e-11	4.078940e+00	3.093296e+00
1.980000e-06	6.352058e-07	9.231273e-11	4.402585e+00	4.231264e+00
1.990000e-06	6.819274e-07	1.105038e-10	4.726410e+00	5.374106e+00
2.000000e-06	7.284983e-07	1.277058e-10	5.049191e+00	6.520990e+00
2.010000e-06	7.749129e-07	1.436683e-10	5.370889e+00	7.671066e+00
2.020000e-06	8.212793e-07	1.594527e-10	5.692252e+00	8.823468e+00
2.030000e-06	8.675591e-07	1.737892e-10	6.013016e+00	9.977313e+00
2.040000e-06	9.137844e-07	1.892217e-10	6.333401e+00	1.113171e+01
2.050000e-06	9.598830e-07	2.054293e-10	6.652909e+00	1.228576e+01
2.060000e-06	1.005939e-06	2.214440e-10	6.972123e+00	1.343855e+01
2.070000e-06	1.052021e-06	2.376509e-10	7.291514e+00	1.458919e+01
2.080000e-06	1.098068e-06	2.557097e-10	7.610661e+00	1.573677e+01
2.090000e-06	1.144009e-06	2.728559e-10	7.929081e+00	1.688039e+01
2.100000e-06	1.189801e-06	2.885317e-10	8.246461e+00	1.801918e+01
2.110000e-06	1.235531e-06	3.049929e-10	8.563411e+00	1.915224e+01
2.120000e-06	1.281217e-06	3.208209e-10	8.880060e+00	2.027874e+01
2.130000e-06	1.326817e-06	3.360789e-10	9.196114e+00	2.139782e+01
2.140000e-06	1.372358e-06	3.512492e-10	9.511754e+00	2.250867e+01
2.150000e-06	1.417812e-06	3.662120e-10	9.826793e+00	2.361051e+01
2.160000e-06	1.463048e-06	3.806664e-10	1.014033e+01	2.470257e+01
2.170000e-06	1.508104e-06	3.967143e-10	1.045261e+01	2.578412e+01
2.180000e-06	1.553117e-06	4.137837e-10	1.076459e+01	2.685447e+01
2.190000e-06	1.598054e-06	4.285659e-10	1.107605e+01	2.791294e+01
2.200000e-06	1.642848e-06	4.431492e-10	1.138651e+01	2.895893e+01
2.210000e-06	1.687512e-06	4.592953e-10	1.169608e+01	2.999184e+01
2.220000e-06	1.732073e-06	4.738997e-10	1.200493e+01	3.101114e+01
2.230000e-06	1.776569e-06	4.871931e-10	1.231332e+01	3.201631e+01
2.240000e-06	1.820936e-06	4.993625e-10	1.262083e+01	3.300692e+01
2.250000e-06	1.865242e-06	5.100106e-10	1.292791e+01	3.398254e+01
2.260000e-06	1.909469e-06	5.197398e-10	1.323445e+01	3.494280e+01
2.270000e-06	1.953522e-06	5.319753e-10	1.353978e+01	3.588739e+01
2.280000e-06	1.997467e-06	5.461040e-10	1.384436e+01	3.681603e+01
2.290000e-06	2.041371e-06	5.605105e-10	1.414866e+01	3.772848e+01
2.300000e-06	2.085247e-06	5.737595e-10	1.445276e+01	3.862456e+01
2.310000e-06	2.129035e-06	5.845065e-10	1.475625e+01	3.950413e+01
2.320000e-06	2.172690e-06	5.944736e-10	1.505882e+01	4.036707e+01
2.330000e-06	2.216300e-06	6.029716e-10	1.536109e+01	4.121333e+01
2.340000e-06	2.259744e-06	6.127149e-10	1.566219e+01	4.204289e+01
2.350000e-06	2.302864e-06	6.254042e-10	1.596106e+01	4.285577e+01
2.360000e-06	2.345758e-06	6.380452e-10	1.625835e+01	4.365200e+01
2.370000e-06	2.388531e-06	6.497567e-10	1.655481e+01	4.443168e+01
2.380000e-06	2.430976e-06	6.604007e-10	1.684899e+01	4.519493e+01
2.390000e-06	2.473089e-06	6.712396e-10	1.714088e+01	4.594189e+01
2.400000e-06	2.515005e-06	6.813941e-10	1.743140e+01	4.667272e+01
2.410000e-06	2.556589e-06	6.893293e-10	1.771961e+01	4.738764e+01
2.420000e-06	2.597886e-06	6.970132e-10	1.800584e+01	4.808685e+01
2.430000e-06	2.639008e-06	7.043020e-10	1.829086e+01	4.877058e+01
2.440000e-06	2.679850e-06	7.134740e-10	1.857393e+01	4.943910e+01
2.450000e-06	2.720346e-06	7.261976e-10	1.885460e+01	5.009267e+01
2.460000e-06	2.760670e-06	7.396935e-10	1.913409e+01	5.073155e+01
2.470000e-06	2.800911e-06	7.503983e-10	1.941300e+01	5.135604e+01
2.480000e-06	2.841039e-06	7.579290e-10	1.969112e+01	5.196643e+01
2.490000e-06	2.881004e-06	7.634895e-10	1.996812e+01	5.256300e+01
2.500000e-06	2.920774e-06	7.711474e-10	2.024376e+01	5.314605e+01
2.510000e-06	2.960392e-06	7.786245e-10	2.051836e+01	5.371588e+01
2.520000e-06	2.999796e-06	7.848538e-10	2.079146e+01	5.427277e+01
2.530000e-06	3.038924e-06	7.933939e-10	2.106266e+01	5.481701e+01
2.540000e-06	3.077934e-06	8.036265e-10	2.133303e+01	5.534886e+01
2.550000e-06	3.116846e-06	8.105138e-10	2.160273e+01	5.586861e+01
2.560000e-06	3.155482e-06	8.148405e-10	2.187051e+01	5.637652e+01
2.570000e-06	3.193812e-06	8.193540e-10	2.213618e+01	5.687282e+01
2.580000e-06	3.232015e-06	8.220797e-10	2.240096e+01	5.735776e+01
2.590000e-06	3.270011e-06	8.258271e-10	2.266431e+01	5.783156e+01
2.600000e-06	3.307702e-06	8.319566e-10	2.292555e+01	5.829444e+01
2.610000e-06	3.345235e-06	8.394044e-10	2.318569e+01	5.874659e+01
2.620000e-06	3.382571e-06	8.487297e-10	2.344446e+01	5.918820e+01
2.630000e-06	3.419633e-06	8.576086e-10	2.370133e+01	5.961945e+01
2.640000e-06	3.456388e-06	8.634336e-10	2.395608e+01	6.004049e+01
2.650000e-06	3.492839e-06	8.676350e-10	2.420872e+01	6.045147e+01
2.660000e-06	3.529106e-06	8.710514e-10	2.446008e+01	6.085254e+01
2.670000e-06	3.565232e-06	8.741161e-10	2.471048e+01	6.124381e+01
2.680000e-06	3.601209e-06	8.768575e-10	2.495983e+01	6.162540e+01
2.690000e-06	3.637049e-06	8.829903e-10	2.520823e+01	6.199742e+01
2.700000e-06	3.672739e-06	8.921886e-10	2.545560e+01	6.235997e+01
2.710000e-06	3.708175e-06	9.000191e-10	2.570121e+01	6.271314e+01
2.720000e-06	3.743410e-06	9.052676e-10	2.594542e+01	6.305702e+01
2.730000e-06	3.778357e-06	9.115255e-10	2.618763e+01	6.339169e+01
2.740000e-06	3.812866e-06	9.182404e-10	2.642682e+01	6.371723e+01
2.750000e-06	3.846904e-06	9.237488e-10	2.666273e+01	6.403373e+01
2.760000e-06	3.880462e-06	9.283713e-10	2.689532e+01	6.434125e+01
2.770000e-06	3.913654e-06	9.324124e-10	2.712537e+01	6.463988e+01
2.780000e-06	3.946501e-06	9.369296e-10	2.735303e+01	6.492971e+01
2.790000e-06	3.978989e-06	9.423002e-10	2.757821e+01	6.521081e+01
2.800000e-06	4.011236e-06	9.475913e-10	2.780171e+01	6.548328e+01
2.810000e-06	4.043271e-06	9.514943e-10	2.802374e+01	6.574721e+01
2.820000e-06	4.075054e-06	9.554025e-10	2.824403e+01	6.600271e+01
2.830000e-06	4.106598e-06	9.595363e-10	2.846266e+01	6.624988e+01
2.840000e-06	4.137869e-06	9.610458e-10	2.867939e+01	6.648884e+01
2.850000e-06	4.168906e-06	9.611814e-10	2.889452e+01	6.671971e+01
2.860000e-06	4.199685e-06	9.649672e-10	2.910784e+01	6.694263e+01
2.870000e-06	4.230219e-06	9.696885e-10	2.931947e+01	6.715774e+01
2.880000e-06	4.260453e-06	9.737827e-10	2.952902e+01	6.736519e+01
2.890000e-06	4.290277e-06	9.789830e-10	2.973573e+01	6.756514e+01
2.900000e-06	4.319811e-06	9.828183e-10	2.994043e+01	6.775775e+01
