# Temperatura_=_-0.2
# Concentracion g/m^3_=_1620.0
# C_Vs_to_Am_M_A/Vsm_=_65563218390.804596
# pendiente_HvsI_1/m_=_3716.3
# ordenada_HvsI_A/m_=_1297.0
# frecuencia_Hz_=_135108.42124556488

Tiempo_(s)	Campo_(V.s)	Magnetizacion_(V.s)	Campo_(kA/m)	Magnetizacion_(A/m)
0.000000e+00	-5.521101e-06	-9.738536e-10	-3.837162e+01	-6.512508e+01
1.000000e-08	-5.521384e-06	-9.713769e-10	-3.837359e+01	-6.510677e+01
2.000000e-08	-5.521379e-06	-9.700165e-10	-3.837355e+01	-6.508649e+01
3.000000e-08	-5.521000e-06	-9.701364e-10	-3.837092e+01	-6.506421e+01
4.000000e-08	-5.520246e-06	-9.707877e-10	-3.836568e+01	-6.503989e+01
5.000000e-08	-5.518964e-06	-9.695175e-10	-3.835677e+01	-6.501353e+01
6.000000e-08	-5.517051e-06	-9.593624e-10	-3.834348e+01	-6.498508e+01
7.000000e-08	-5.514561e-06	-9.441636e-10	-3.832617e+01	-6.495451e+01
8.000000e-08	-5.511498e-06	-9.480116e-10	-3.830488e+01	-6.492181e+01
9.000000e-08	-5.507947e-06	-9.712693e-10	-3.828020e+01	-6.488692e+01
1.000000e-07	-5.503969e-06	-9.820470e-10	-3.825256e+01	-6.484983e+01
1.100000e-07	-5.499681e-06	-9.675140e-10	-3.822275e+01	-6.481051e+01
1.200000e-07	-5.495177e-06	-9.453872e-10	-3.819145e+01	-6.476892e+01
1.300000e-07	-5.490308e-06	-9.345452e-10	-3.815761e+01	-6.472505e+01
1.400000e-07	-5.484995e-06	-9.543331e-10	-3.812068e+01	-6.467888e+01
1.500000e-07	-5.479324e-06	-9.423055e-10	-3.808127e+01	-6.463040e+01
1.600000e-07	-5.473383e-06	-9.339341e-10	-3.803998e+01	-6.457960e+01
1.700000e-07	-5.467036e-06	-9.425768e-10	-3.799587e+01	-6.452648e+01
1.800000e-07	-5.460155e-06	-9.814008e-10	-3.794805e+01	-6.447104e+01
1.900000e-07	-5.452848e-06	-9.736377e-10	-3.789727e+01	-6.441331e+01
2.000000e-07	-5.445288e-06	-9.357057e-10	-3.784472e+01	-6.435330e+01
2.100000e-07	-5.437581e-06	-9.286710e-10	-3.779116e+01	-6.429105e+01
2.200000e-07	-5.429666e-06	-9.642472e-10	-3.773615e+01	-6.422658e+01
2.300000e-07	-5.421440e-06	-9.911946e-10	-3.767898e+01	-6.415995e+01
2.400000e-07	-5.412794e-06	-9.880929e-10	-3.761889e+01	-6.409121e+01
2.500000e-07	-5.403482e-06	-9.954740e-10	-3.755417e+01	-6.402041e+01
2.600000e-07	-5.393481e-06	-1.003072e-09	-3.748466e+01	-6.394763e+01
2.700000e-07	-5.382914e-06	-9.964120e-10	-3.741122e+01	-6.387292e+01
2.800000e-07	-5.371815e-06	-9.840123e-10	-3.733409e+01	-6.379638e+01
2.900000e-07	-5.360264e-06	-9.942714e-10	-3.725381e+01	-6.371807e+01
3.000000e-07	-5.348332e-06	-1.009041e-09	-3.717088e+01	-6.363808e+01
3.100000e-07	-5.336041e-06	-1.008280e-09	-3.708546e+01	-6.355650e+01
3.200000e-07	-5.323370e-06	-9.905180e-10	-3.699739e+01	-6.347340e+01
3.300000e-07	-5.310371e-06	-9.982981e-10	-3.690705e+01	-6.338888e+01
3.400000e-07	-5.296950e-06	-9.956631e-10	-3.681377e+01	-6.330301e+01
3.500000e-07	-5.283027e-06	-9.828812e-10	-3.671701e+01	-6.321588e+01
3.600000e-07	-5.268656e-06	-9.665097e-10	-3.661713e+01	-6.312755e+01
3.700000e-07	-5.253866e-06	-9.832908e-10	-3.651434e+01	-6.303811e+01
3.800000e-07	-5.238593e-06	-9.863340e-10	-3.640820e+01	-6.294760e+01
3.900000e-07	-5.222737e-06	-9.854092e-10	-3.629799e+01	-6.285608e+01
4.000000e-07	-5.206434e-06	-9.788576e-10	-3.618469e+01	-6.276360e+01
4.100000e-07	-5.189775e-06	-9.743474e-10	-3.606891e+01	-6.267019e+01
4.200000e-07	-5.172783e-06	-9.599097e-10	-3.595081e+01	-6.257587e+01
4.300000e-07	-5.155519e-06	-9.616333e-10	-3.583083e+01	-6.248065e+01
4.400000e-07	-5.137936e-06	-9.683900e-10	-3.570863e+01	-6.238453e+01
4.500000e-07	-5.120028e-06	-9.661184e-10	-3.558417e+01	-6.228749e+01
4.600000e-07	-5.101657e-06	-9.610793e-10	-3.545649e+01	-6.218951e+01
4.700000e-07	-5.082700e-06	-9.599934e-10	-3.532474e+01	-6.209053e+01
4.800000e-07	-5.063356e-06	-9.523553e-10	-3.519030e+01	-6.199050e+01
4.900000e-07	-5.043810e-06	-9.498263e-10	-3.505445e+01	-6.188936e+01
5.000000e-07	-5.024080e-06	-9.579167e-10	-3.491733e+01	-6.178701e+01
5.100000e-07	-5.004201e-06	-9.487292e-10	-3.477917e+01	-6.168336e+01
5.200000e-07	-4.984076e-06	-9.331292e-10	-3.463930e+01	-6.157830e+01
5.300000e-07	-4.963555e-06	-9.386126e-10	-3.449668e+01	-6.147172e+01
5.400000e-07	-4.942598e-06	-9.518111e-10	-3.435103e+01	-6.136349e+01
5.500000e-07	-4.921238e-06	-9.439148e-10	-3.420257e+01	-6.125346e+01
5.600000e-07	-4.899541e-06	-9.396539e-10	-3.405178e+01	-6.114151e+01
5.700000e-07	-4.877540e-06	-9.359552e-10	-3.389888e+01	-6.102747e+01
5.800000e-07	-4.855233e-06	-9.304103e-10	-3.374385e+01	-6.091120e+01
5.900000e-07	-4.832589e-06	-9.254532e-10	-3.358647e+01	-6.079255e+01
6.000000e-07	-4.809593e-06	-9.282071e-10	-3.342665e+01	-6.067136e+01
6.100000e-07	-4.786280e-06	-9.213488e-10	-3.326462e+01	-6.054749e+01
6.200000e-07	-4.762705e-06	-9.188888e-10	-3.310077e+01	-6.042078e+01
6.300000e-07	-4.738912e-06	-9.161704e-10	-3.293541e+01	-6.029110e+01
6.400000e-07	-4.714952e-06	-9.091094e-10	-3.276889e+01	-6.015831e+01
6.500000e-07	-4.690746e-06	-9.019571e-10	-3.260066e+01	-6.002229e+01
6.600000e-07	-4.666118e-06	-9.069081e-10	-3.242949e+01	-5.988294e+01
6.700000e-07	-4.641004e-06	-9.030371e-10	-3.225495e+01	-5.974015e+01
6.800000e-07	-4.615289e-06	-8.988995e-10	-3.207624e+01	-5.959384e+01
6.900000e-07	-4.588965e-06	-8.999836e-10	-3.189328e+01	-5.944395e+01
7.000000e-07	-4.562139e-06	-9.001391e-10	-3.170684e+01	-5.929042e+01
7.100000e-07	-4.534879e-06	-8.908075e-10	-3.151739e+01	-5.913323e+01
7.200000e-07	-4.507283e-06	-8.886290e-10	-3.132559e+01	-5.897236e+01
7.300000e-07	-4.479515e-06	-8.884604e-10	-3.113261e+01	-5.880783e+01
7.400000e-07	-4.451669e-06	-8.875310e-10	-3.093908e+01	-5.863965e+01
7.500000e-07	-4.423605e-06	-8.914946e-10	-3.074403e+01	-5.846789e+01
7.600000e-07	-4.395237e-06	-8.934021e-10	-3.054687e+01	-5.829261e+01
7.700000e-07	-4.366564e-06	-8.844686e-10	-3.034760e+01	-5.811390e+01
7.800000e-07	-4.337548e-06	-8.781426e-10	-3.014593e+01	-5.793187e+01
7.900000e-07	-4.308216e-06	-8.774714e-10	-2.994208e+01	-5.774664e+01
8.000000e-07	-4.278658e-06	-8.712445e-10	-2.973665e+01	-5.755836e+01
8.100000e-07	-4.248801e-06	-8.666877e-10	-2.952915e+01	-5.736718e+01
8.200000e-07	-4.218584e-06	-8.682983e-10	-2.931914e+01	-5.717329e+01
8.300000e-07	-4.188107e-06	-8.674054e-10	-2.910732e+01	-5.697686e+01
8.400000e-07	-4.157364e-06	-8.606484e-10	-2.889366e+01	-5.677808e+01
8.500000e-07	-4.126290e-06	-8.605322e-10	-2.867769e+01	-5.657716e+01
8.600000e-07	-4.094973e-06	-8.581114e-10	-2.846004e+01	-5.637431e+01
8.700000e-07	-4.063472e-06	-8.532727e-10	-2.824111e+01	-5.616974e+01
8.800000e-07	-4.031815e-06	-8.509085e-10	-2.802109e+01	-5.596365e+01
8.900000e-07	-4.000038e-06	-8.508429e-10	-2.780025e+01	-5.575624e+01
9.000000e-07	-3.968055e-06	-8.442448e-10	-2.757796e+01	-5.554773e+01
9.100000e-07	-3.935748e-06	-8.388075e-10	-2.735343e+01	-5.533830e+01
9.200000e-07	-3.903095e-06	-8.350904e-10	-2.712649e+01	-5.512813e+01
9.300000e-07	-3.870152e-06	-8.337602e-10	-2.689754e+01	-5.491740e+01
9.400000e-07	-3.836832e-06	-8.323794e-10	-2.666596e+01	-5.470624e+01
9.500000e-07	-3.803030e-06	-8.350061e-10	-2.643104e+01	-5.449479e+01
9.600000e-07	-3.768699e-06	-8.350825e-10	-2.619244e+01	-5.428317e+01
9.700000e-07	-3.733856e-06	-8.322374e-10	-2.595028e+01	-5.407145e+01
9.800000e-07	-3.698634e-06	-8.275151e-10	-2.570548e+01	-5.385969e+01
9.900000e-07	-3.663184e-06	-8.240427e-10	-2.545911e+01	-5.364794e+01
1.000000e-06	-3.627606e-06	-8.183659e-10	-2.521184e+01	-5.343619e+01
1.010000e-06	-3.591895e-06	-8.134371e-10	-2.496365e+01	-5.322443e+01
1.020000e-06	-3.556056e-06	-8.117256e-10	-2.471457e+01	-5.301259e+01
1.030000e-06	-3.520088e-06	-8.121340e-10	-2.446460e+01	-5.280058e+01
1.040000e-06	-3.483883e-06	-8.112275e-10	-2.421297e+01	-5.258829e+01
1.050000e-06	-3.447416e-06	-8.093306e-10	-2.395952e+01	-5.237557e+01
1.060000e-06	-3.410698e-06	-8.037291e-10	-2.370433e+01	-5.216224e+01
1.070000e-06	-3.373636e-06	-7.965667e-10	-2.344675e+01	-5.194808e+01
1.080000e-06	-3.336256e-06	-7.920049e-10	-2.318696e+01	-5.173286e+01
1.090000e-06	-3.298680e-06	-7.877449e-10	-2.292581e+01	-5.151630e+01
1.100000e-06	-3.260859e-06	-7.830437e-10	-2.266295e+01	-5.129811e+01
1.110000e-06	-3.222788e-06	-7.774771e-10	-2.239836e+01	-5.107797e+01
1.120000e-06	-3.184608e-06	-7.723836e-10	-2.213301e+01	-5.085555e+01
1.130000e-06	-3.146279e-06	-7.665304e-10	-2.186662e+01	-5.063047e+01
1.140000e-06	-3.107715e-06	-7.621296e-10	-2.159860e+01	-5.040236e+01
1.150000e-06	-3.068912e-06	-7.572914e-10	-2.132892e+01	-5.017083e+01
1.160000e-06	-3.029869e-06	-7.535410e-10	-2.105757e+01	-4.993548e+01
1.170000e-06	-2.990593e-06	-7.490643e-10	-2.078461e+01	-4.969590e+01
1.180000e-06	-2.951146e-06	-7.451825e-10	-2.051045e+01	-4.945167e+01
1.190000e-06	-2.911518e-06	-7.413135e-10	-2.023504e+01	-4.920239e+01
1.200000e-06	-2.871750e-06	-7.379289e-10	-1.995864e+01	-4.894762e+01
1.210000e-06	-2.831927e-06	-7.327732e-10	-1.968187e+01	-4.868697e+01
1.220000e-06	-2.792022e-06	-7.260463e-10	-1.940454e+01	-4.842004e+01
1.230000e-06	-2.751989e-06	-7.179418e-10	-1.912631e+01	-4.814644e+01
1.240000e-06	-2.711794e-06	-7.121278e-10	-1.884696e+01	-4.786579e+01
1.250000e-06	-2.671398e-06	-7.060997e-10	-1.856620e+01	-4.757774e+01
1.260000e-06	-2.630708e-06	-7.007821e-10	-1.828341e+01	-4.728195e+01
1.270000e-06	-2.589846e-06	-6.979756e-10	-1.799942e+01	-4.697810e+01
1.280000e-06	-2.548838e-06	-6.935265e-10	-1.771441e+01	-4.666591e+01
1.290000e-06	-2.507419e-06	-6.864589e-10	-1.742655e+01	-4.634510e+01
1.300000e-06	-2.465637e-06	-6.806063e-10	-1.713617e+01	-4.601544e+01
1.310000e-06	-2.423617e-06	-6.749433e-10	-1.684412e+01	-4.567673e+01
1.320000e-06	-2.381262e-06	-6.686661e-10	-1.654976e+01	-4.532876e+01
1.330000e-06	-2.338585e-06	-6.620574e-10	-1.625316e+01	-4.497139e+01
1.340000e-06	-2.295683e-06	-6.569280e-10	-1.595499e+01	-4.460450e+01
1.350000e-06	-2.252567e-06	-6.516665e-10	-1.565533e+01	-4.422798e+01
1.360000e-06	-2.209296e-06	-6.469884e-10	-1.535459e+01	-4.384176e+01
1.370000e-06	-2.165865e-06	-6.419817e-10	-1.505275e+01	-4.344579e+01
1.380000e-06	-2.122249e-06	-6.366577e-10	-1.474962e+01	-4.304006e+01
1.390000e-06	-2.078495e-06	-6.309341e-10	-1.444553e+01	-4.262457e+01
1.400000e-06	-2.034660e-06	-6.222886e-10	-1.414088e+01	-4.219932e+01
1.410000e-06	-1.990788e-06	-6.127377e-10	-1.383597e+01	-4.176436e+01
1.420000e-06	-1.946848e-06	-6.035656e-10	-1.353059e+01	-4.131975e+01
1.430000e-06	-1.902815e-06	-5.965782e-10	-1.322455e+01	-4.086553e+01
1.440000e-06	-1.858675e-06	-5.912663e-10	-1.291778e+01	-4.040178e+01
1.450000e-06	-1.814401e-06	-5.881786e-10	-1.261008e+01	-3.992857e+01
1.460000e-06	-1.770046e-06	-5.834313e-10	-1.230181e+01	-3.944597e+01
1.470000e-06	-1.725632e-06	-5.758756e-10	-1.199314e+01	-3.895406e+01
1.480000e-06	-1.681110e-06	-5.663909e-10	-1.168370e+01	-3.845290e+01
1.490000e-06	-1.636421e-06	-5.555032e-10	-1.137312e+01	-3.794255e+01
1.500000e-06	-1.591538e-06	-5.446922e-10	-1.106118e+01	-3.742304e+01
1.510000e-06	-1.546529e-06	-5.357932e-10	-1.074837e+01	-3.689441e+01
1.520000e-06	-1.501408e-06	-5.281208e-10	-1.043478e+01	-3.635664e+01
1.530000e-06	-1.456132e-06	-5.204224e-10	-1.012011e+01	-3.580974e+01
1.540000e-06	-1.410772e-06	-5.119829e-10	-9.804857e+00	-3.525365e+01
1.550000e-06	-1.365336e-06	-5.030914e-10	-9.489076e+00	-3.468830e+01
1.560000e-06	-1.319780e-06	-4.934765e-10	-9.172465e+00	-3.411359e+01
1.570000e-06	-1.274169e-06	-4.831407e-10	-8.855466e+00	-3.352939e+01
1.580000e-06	-1.228555e-06	-4.729233e-10	-8.538449e+00	-3.293553e+01
1.590000e-06	-1.182833e-06	-4.638943e-10	-8.220680e+00	-3.233181e+01
1.600000e-06	-1.136964e-06	-4.533942e-10	-7.901893e+00	-3.171800e+01
1.610000e-06	-1.091068e-06	-4.423078e-10	-7.582915e+00	-3.109385e+01
1.620000e-06	-1.045114e-06	-4.316141e-10	-7.263533e+00	-3.045904e+01
1.630000e-06	-9.989982e-07	-4.217932e-10	-6.943032e+00	-2.981326e+01
1.640000e-06	-9.528161e-07	-4.117348e-10	-6.622067e+00	-2.915614e+01
1.650000e-06	-9.066322e-07	-4.001197e-10	-6.301089e+00	-2.848731e+01
1.660000e-06	-8.603482e-07	-3.891136e-10	-5.979415e+00	-2.780634e+01
1.670000e-06	-8.140306e-07	-3.795438e-10	-5.657508e+00	-2.711283e+01
1.680000e-06	-7.677035e-07	-3.704215e-10	-5.335535e+00	-2.640631e+01
1.690000e-06	-7.213210e-07	-3.617452e-10	-5.013177e+00	-2.568633e+01
1.700000e-06	-6.748724e-07	-3.498881e-10	-4.690360e+00	-2.495243e+01
1.710000e-06	-6.283486e-07	-3.355356e-10	-4.367019e+00	-2.420413e+01
1.720000e-06	-5.817340e-07	-3.203308e-10	-4.043048e+00	-2.344097e+01
1.730000e-06	-5.350284e-07	-3.061066e-10	-3.718444e+00	-2.266249e+01
1.740000e-06	-4.883784e-07	-2.939170e-10	-3.394227e+00	-2.186823e+01
1.750000e-06	-4.417237e-07	-2.806304e-10	-3.069977e+00	-2.105778e+01
1.760000e-06	-3.950241e-07	-2.673079e-10	-2.745416e+00	-2.023074e+01
1.770000e-06	-3.483239e-07	-2.554366e-10	-2.420849e+00	-1.938672e+01
1.780000e-06	-3.015120e-07	-2.446870e-10	-2.095507e+00	-1.852540e+01
1.790000e-06	-2.546207e-07	-2.317691e-10	-1.769613e+00	-1.764649e+01
1.800000e-06	-2.077680e-07	-2.147373e-10	-1.443987e+00	-1.674975e+01
1.810000e-06	-1.609981e-07	-1.954045e-10	-1.118936e+00	-1.583499e+01
1.820000e-06	-1.142354e-07	-1.770487e-10	-7.939356e-01	-1.490209e+01
1.830000e-06	-6.745264e-08	-1.609676e-10	-4.687955e-01	-1.395099e+01
1.840000e-06	-2.067735e-08	-1.463899e-10	-1.437075e-01	-1.298170e+01
1.850000e-06	2.615751e-08	-1.320778e-10	1.817945e-01	-1.199431e+01
1.860000e-06	7.290156e-08	-1.209243e-10	5.066654e-01	-1.098897e+01
1.870000e-06	1.196133e-07	-1.100138e-10	8.313120e-01	-9.965936e+00
1.880000e-06	1.665217e-07	-9.661124e-11	1.157325e+00	-8.925530e+00
1.890000e-06	2.133785e-07	-8.024325e-11	1.482979e+00	-7.868166e+00
1.900000e-06	2.601854e-07	-6.217834e-11	1.808287e+00	-6.794343e+00
1.910000e-06	3.070539e-07	-4.407995e-11	2.134023e+00	-5.704650e+00
1.920000e-06	3.538602e-07	-2.682377e-11	2.459326e+00	-4.599761e+00
1.930000e-06	4.006334e-07	-1.318421e-11	2.784400e+00	-3.480437e+00
1.940000e-06	4.473531e-07	-2.338440e-12	3.109102e+00	-2.347526e+00
1.950000e-06	4.938901e-07	7.198530e-12	3.432534e+00	-1.201955e+00
1.960000e-06	5.403665e-07	1.794172e-11	3.755544e+00	-4.473578e-02
1.970000e-06	5.869225e-07	3.214319e-11	4.079109e+00	1.123047e+00
1.980000e-06	6.333494e-07	4.829724e-11	4.401775e+00	2.300236e+00
1.990000e-06	6.796547e-07	6.595783e-11	4.723597e+00	3.485607e+00
2.000000e-06	7.259748e-07	8.619420e-11	5.045521e+00	4.677872e+00
2.010000e-06	7.722571e-07	1.064777e-10	5.367182e+00	5.875692e+00
2.020000e-06	8.184356e-07	1.242919e-10	5.688123e+00	7.077676e+00
2.030000e-06	8.645518e-07	1.413622e-10	6.008630e+00	8.282392e+00
2.040000e-06	9.106870e-07	1.581116e-10	6.329270e+00	9.488376e+00
2.050000e-06	9.567876e-07	1.746022e-10	6.649668e+00	1.069414e+01
2.060000e-06	1.002773e-06	1.917769e-10	6.969266e+00	1.189816e+01
2.070000e-06	1.048670e-06	2.082947e-10	7.288248e+00	1.309894e+01
2.080000e-06	1.094576e-06	2.255369e-10	7.607296e+00	1.429494e+01
2.090000e-06	1.140421e-06	2.431759e-10	7.925920e+00	1.548467e+01
2.100000e-06	1.186160e-06	2.600658e-10	8.243803e+00	1.666661e+01
2.110000e-06	1.231849e-06	2.770188e-10	8.561346e+00	1.783931e+01
2.120000e-06	1.277426e-06	2.931222e-10	8.878100e+00	1.900133e+01
2.130000e-06	1.322964e-06	3.090756e-10	9.194593e+00	2.015126e+01
2.140000e-06	1.368456e-06	3.228241e-10	9.510762e+00	2.128778e+01
2.150000e-06	1.413820e-06	3.326955e-10	9.826041e+00	2.240958e+01
2.160000e-06	1.459090e-06	3.439970e-10	1.014067e+01	2.351544e+01
2.170000e-06	1.504211e-06	3.591673e-10	1.045426e+01	2.460422e+01
2.180000e-06	1.549228e-06	3.779019e-10	1.076713e+01	2.567483e+01
2.190000e-06	1.594162e-06	3.944139e-10	1.107942e+01	2.672628e+01
2.200000e-06	1.638981e-06	4.094978e-10	1.139091e+01	2.775767e+01
2.210000e-06	1.683655e-06	4.241480e-10	1.170139e+01	2.876817e+01
2.220000e-06	1.728104e-06	4.383745e-10	1.201031e+01	2.975708e+01
2.230000e-06	1.772353e-06	4.509187e-10	1.231784e+01	3.072377e+01
2.240000e-06	1.816508e-06	4.603707e-10	1.262472e+01	3.166771e+01
2.250000e-06	1.860579e-06	4.687795e-10	1.293102e+01	3.258849e+01
2.260000e-06	1.904616e-06	4.789156e-10	1.323707e+01	3.348579e+01
2.270000e-06	1.948661e-06	4.913253e-10	1.354318e+01	3.435939e+01
2.280000e-06	1.992637e-06	5.054422e-10	1.384881e+01	3.520917e+01
2.290000e-06	2.036533e-06	5.192918e-10	1.415389e+01	3.603511e+01
2.300000e-06	2.080363e-06	5.296590e-10	1.445851e+01	3.683729e+01
2.310000e-06	2.124113e-06	5.384787e-10	1.476257e+01	3.761588e+01
2.320000e-06	2.167792e-06	5.461954e-10	1.506615e+01	3.837113e+01
2.330000e-06	2.211404e-06	5.551555e-10	1.536924e+01	3.910339e+01
2.340000e-06	2.254877e-06	5.646753e-10	1.567138e+01	3.981307e+01
2.350000e-06	2.298111e-06	5.741023e-10	1.597186e+01	4.050067e+01
2.360000e-06	2.341036e-06	5.854852e-10	1.627018e+01	4.116676e+01
2.370000e-06	2.383626e-06	5.977273e-10	1.656619e+01	4.181194e+01
2.380000e-06	2.425915e-06	6.079903e-10	1.686009e+01	4.243691e+01
2.390000e-06	2.467920e-06	6.162009e-10	1.715203e+01	4.304238e+01
2.400000e-06	2.509653e-06	6.224759e-10	1.744207e+01	4.362911e+01
2.410000e-06	2.551140e-06	6.309516e-10	1.773041e+01	4.419789e+01
2.420000e-06	2.592350e-06	6.411123e-10	1.801682e+01	4.474956e+01
2.430000e-06	2.633272e-06	6.535579e-10	1.830123e+01	4.528493e+01
2.440000e-06	2.673904e-06	6.643942e-10	1.858362e+01	4.580487e+01
2.450000e-06	2.714291e-06	6.740603e-10	1.886430e+01	4.631021e+01
2.460000e-06	2.754463e-06	6.827145e-10	1.914350e+01	4.680180e+01
2.470000e-06	2.794442e-06	6.880117e-10	1.942135e+01	4.728048e+01
2.480000e-06	2.834333e-06	6.926007e-10	1.969860e+01	4.774705e+01
2.490000e-06	2.874134e-06	6.987271e-10	1.997522e+01	4.820232e+01
2.500000e-06	2.913793e-06	7.075244e-10	2.025084e+01	4.864703e+01
2.510000e-06	2.953306e-06	7.174056e-10	2.052546e+01	4.908193e+01
2.520000e-06	2.992631e-06	7.261962e-10	2.079877e+01	4.950768e+01
2.530000e-06	3.031751e-06	7.333410e-10	2.107065e+01	4.992494e+01
2.540000e-06	3.070681e-06	7.387065e-10	2.134121e+01	5.033431e+01
2.550000e-06	3.109420e-06	7.413970e-10	2.161045e+01	5.073633e+01
2.560000e-06	3.147904e-06	7.428629e-10	2.187792e+01	5.113148e+01
2.570000e-06	3.186043e-06	7.463089e-10	2.214298e+01	5.152022e+01
2.580000e-06	3.223941e-06	7.532351e-10	2.240637e+01	5.190293e+01
2.590000e-06	3.261726e-06	7.609255e-10	2.266898e+01	5.227992e+01
2.600000e-06	3.299381e-06	7.694948e-10	2.293068e+01	5.265148e+01
2.610000e-06	3.336876e-06	7.776829e-10	2.319127e+01	5.301782e+01
2.620000e-06	3.374142e-06	7.860960e-10	2.345027e+01	5.337910e+01
2.630000e-06	3.411097e-06	7.937059e-10	2.370710e+01	5.373543e+01
2.640000e-06	3.447726e-06	7.980158e-10	2.396167e+01	5.408688e+01
2.650000e-06	3.484119e-06	8.007192e-10	2.421461e+01	5.443345e+01
2.660000e-06	3.520324e-06	8.044056e-10	2.446623e+01	5.477511e+01
2.670000e-06	3.556348e-06	8.086549e-10	2.471660e+01	5.511179e+01
2.680000e-06	3.592201e-06	8.138375e-10	2.496578e+01	5.544338e+01
2.690000e-06	3.627883e-06	8.193315e-10	2.521377e+01	5.576973e+01
2.700000e-06	3.663461e-06	8.243259e-10	2.546104e+01	5.609069e+01
2.710000e-06	3.698871e-06	8.280346e-10	2.570714e+01	5.640605e+01
2.720000e-06	3.734043e-06	8.325910e-10	2.595158e+01	5.671560e+01
2.730000e-06	3.768942e-06	8.388143e-10	2.619413e+01	5.701912e+01
2.740000e-06	3.803412e-06	8.446200e-10	2.643369e+01	5.731636e+01
2.750000e-06	3.837339e-06	8.475418e-10	2.666949e+01	5.760709e+01
2.760000e-06	3.870745e-06	8.491502e-10	2.690165e+01	5.789106e+01
2.770000e-06	3.903690e-06	8.512119e-10	2.713062e+01	5.816803e+01
2.780000e-06	3.936252e-06	8.539264e-10	2.735693e+01	5.843778e+01
2.790000e-06	3.968485e-06	8.588362e-10	2.758095e+01	5.870008e+01
2.800000e-06	4.000470e-06	8.666627e-10	2.780324e+01	5.895474e+01
2.810000e-06	4.032325e-06	8.769842e-10	2.802464e+01	5.920158e+01
2.820000e-06	4.064034e-06	8.855178e-10	2.824501e+01	5.944044e+01
2.830000e-06	4.095551e-06	8.904811e-10	2.846406e+01	5.967118e+01
2.840000e-06	4.126865e-06	8.923203e-10	2.868169e+01	5.989371e+01
2.850000e-06	4.157959e-06	8.914890e-10	2.889779e+01	6.010794e+01
2.860000e-06	4.188719e-06	8.926745e-10	2.911157e+01	6.031385e+01
2.870000e-06	4.219102e-06	8.966443e-10	2.932274e+01	6.051141e+01
2.880000e-06	4.249259e-06	9.001242e-10	2.953232e+01	6.070065e+01
2.890000e-06	4.279207e-06	9.031674e-10	2.974047e+01	6.088164e+01
2.900000e-06	4.308810e-06	9.055526e-10	2.994621e+01	6.105446e+01
