# Temperatura_=_-9.87
# Concentracion g/m^3_=_1620.0
# C_Vs_to_Am_M_A/Vsm_=_65563218390.804596
# pendiente_HvsI_1/m_=_3716.3
# ordenada_HvsI_A/m_=_1297.0
# frecuencia_Hz_=_135096.02648184056

Tiempo_(s)	Campo_(V.s)	Magnetizacion_(V.s)	Campo_(kA/m)	Magnetizacion_(A/m)
0.000000e+00	-5.541813e-06	-8.941289e-10	-3.837751e+01	-5.860013e+01
1.000000e-08	-5.542019e-06	-8.951103e-10	-3.837894e+01	-5.861707e+01
2.000000e-08	-5.542000e-06	-8.966076e-10	-3.837881e+01	-5.863368e+01
3.000000e-08	-5.541695e-06	-8.985135e-10	-3.837670e+01	-5.864977e+01
4.000000e-08	-5.540969e-06	-8.988678e-10	-3.837166e+01	-5.866515e+01
5.000000e-08	-5.539603e-06	-8.978951e-10	-3.836221e+01	-5.867966e+01
6.000000e-08	-5.537524e-06	-8.916065e-10	-3.834781e+01	-5.869309e+01
7.000000e-08	-5.534904e-06	-8.862914e-10	-3.832967e+01	-5.870528e+01
8.000000e-08	-5.531703e-06	-8.918731e-10	-3.830750e+01	-5.871605e+01
9.000000e-08	-5.527973e-06	-9.081656e-10	-3.828167e+01	-5.872521e+01
1.000000e-07	-5.523876e-06	-9.269045e-10	-3.825330e+01	-5.873261e+01
1.100000e-07	-5.519496e-06	-9.250392e-10	-3.822296e+01	-5.873809e+01
1.200000e-07	-5.514883e-06	-8.758972e-10	-3.819102e+01	-5.874149e+01
1.300000e-07	-5.510081e-06	-8.735389e-10	-3.815776e+01	-5.874268e+01
1.400000e-07	-5.504939e-06	-8.819767e-10	-3.812216e+01	-5.874154e+01
1.500000e-07	-5.499292e-06	-8.904158e-10	-3.808305e+01	-5.873796e+01
1.600000e-07	-5.493317e-06	-8.581665e-10	-3.804168e+01	-5.873184e+01
1.700000e-07	-5.486967e-06	-8.625626e-10	-3.799770e+01	-5.872309e+01
1.800000e-07	-5.480242e-06	-9.135238e-10	-3.795112e+01	-5.871165e+01
1.900000e-07	-5.473218e-06	-9.260253e-10	-3.790249e+01	-5.869748e+01
2.000000e-07	-5.465798e-06	-8.883451e-10	-3.785110e+01	-5.868053e+01
2.100000e-07	-5.458047e-06	-8.638511e-10	-3.779742e+01	-5.866079e+01
2.200000e-07	-5.450052e-06	-9.003258e-10	-3.774206e+01	-5.863826e+01
2.300000e-07	-5.441808e-06	-9.181781e-10	-3.768497e+01	-5.861295e+01
2.400000e-07	-5.433091e-06	-9.113387e-10	-3.762460e+01	-5.858489e+01
2.500000e-07	-5.423700e-06	-8.957136e-10	-3.755957e+01	-5.855411e+01
2.600000e-07	-5.413636e-06	-9.185279e-10	-3.748988e+01	-5.852069e+01
2.700000e-07	-5.402967e-06	-9.108854e-10	-3.741599e+01	-5.848467e+01
2.800000e-07	-5.391774e-06	-8.936142e-10	-3.733848e+01	-5.844615e+01
2.900000e-07	-5.380139e-06	-8.809426e-10	-3.725791e+01	-5.840520e+01
3.000000e-07	-5.368271e-06	-8.929647e-10	-3.717572e+01	-5.836192e+01
3.100000e-07	-5.356116e-06	-8.830603e-10	-3.709154e+01	-5.831642e+01
3.200000e-07	-5.343499e-06	-8.737697e-10	-3.700417e+01	-5.826880e+01
3.300000e-07	-5.330408e-06	-8.693387e-10	-3.691352e+01	-5.821916e+01
3.400000e-07	-5.316921e-06	-8.812780e-10	-3.682011e+01	-5.816762e+01
3.500000e-07	-5.303038e-06	-8.762075e-10	-3.672398e+01	-5.811429e+01
3.600000e-07	-5.288638e-06	-8.643495e-10	-3.662425e+01	-5.805928e+01
3.700000e-07	-5.273638e-06	-8.609138e-10	-3.652038e+01	-5.800268e+01
3.800000e-07	-5.258098e-06	-8.812031e-10	-3.641276e+01	-5.794461e+01
3.900000e-07	-5.242146e-06	-8.807705e-10	-3.630229e+01	-5.788515e+01
4.000000e-07	-5.225743e-06	-8.577578e-10	-3.618870e+01	-5.782439e+01
4.100000e-07	-5.208989e-06	-8.631018e-10	-3.607268e+01	-5.776240e+01
4.200000e-07	-5.191943e-06	-8.776457e-10	-3.595463e+01	-5.769926e+01
4.300000e-07	-5.174558e-06	-8.642537e-10	-3.583424e+01	-5.763501e+01
4.400000e-07	-5.156836e-06	-8.510048e-10	-3.571151e+01	-5.756971e+01
4.500000e-07	-5.138717e-06	-8.798186e-10	-3.558604e+01	-5.750338e+01
4.600000e-07	-5.120177e-06	-8.722610e-10	-3.545765e+01	-5.743605e+01
4.700000e-07	-5.101227e-06	-8.429244e-10	-3.532641e+01	-5.736771e+01
4.800000e-07	-5.081944e-06	-8.556921e-10	-3.519288e+01	-5.729837e+01
4.900000e-07	-5.062426e-06	-8.807458e-10	-3.505772e+01	-5.722800e+01
5.000000e-07	-5.042741e-06	-8.498122e-10	-3.492140e+01	-5.715658e+01
5.100000e-07	-5.022851e-06	-8.436438e-10	-3.478365e+01	-5.708406e+01
5.200000e-07	-5.002599e-06	-8.627810e-10	-3.464341e+01	-5.701038e+01
5.300000e-07	-4.981943e-06	-8.502037e-10	-3.450036e+01	-5.693550e+01
5.400000e-07	-4.960959e-06	-8.341385e-10	-3.435505e+01	-5.685933e+01
5.500000e-07	-4.939652e-06	-8.647742e-10	-3.420750e+01	-5.678180e+01
5.600000e-07	-4.918026e-06	-8.596958e-10	-3.405774e+01	-5.670282e+01
5.700000e-07	-4.896085e-06	-8.299635e-10	-3.390579e+01	-5.662230e+01
5.800000e-07	-4.873727e-06	-8.397879e-10	-3.375096e+01	-5.654015e+01
5.900000e-07	-4.850925e-06	-8.527952e-10	-3.359306e+01	-5.645627e+01
6.000000e-07	-4.827773e-06	-8.242571e-10	-3.343272e+01	-5.637057e+01
6.100000e-07	-4.804411e-06	-8.238919e-10	-3.327094e+01	-5.628296e+01
6.200000e-07	-4.780863e-06	-8.400024e-10	-3.310787e+01	-5.619335e+01
6.300000e-07	-4.757082e-06	-8.225320e-10	-3.294318e+01	-5.610166e+01
6.400000e-07	-4.732991e-06	-8.131944e-10	-3.277635e+01	-5.600780e+01
6.500000e-07	-4.708570e-06	-8.315214e-10	-3.260724e+01	-5.591170e+01
6.600000e-07	-4.683713e-06	-8.284598e-10	-3.243509e+01	-5.581332e+01
6.700000e-07	-4.658335e-06	-8.168669e-10	-3.225935e+01	-5.571259e+01
6.800000e-07	-4.632326e-06	-8.257773e-10	-3.207924e+01	-5.560948e+01
6.900000e-07	-4.605735e-06	-8.233674e-10	-3.189509e+01	-5.550396e+01
7.000000e-07	-4.578748e-06	-8.105891e-10	-3.170821e+01	-5.539603e+01
7.100000e-07	-4.551402e-06	-8.126777e-10	-3.151883e+01	-5.528569e+01
7.200000e-07	-4.523835e-06	-8.148092e-10	-3.132793e+01	-5.517294e+01
7.300000e-07	-4.496094e-06	-8.036096e-10	-3.113582e+01	-5.505784e+01
7.400000e-07	-4.468164e-06	-8.063480e-10	-3.094241e+01	-5.494042e+01
7.500000e-07	-4.440003e-06	-8.136587e-10	-3.074738e+01	-5.482074e+01
7.600000e-07	-4.411621e-06	-8.105876e-10	-3.055084e+01	-5.469888e+01
7.700000e-07	-4.382950e-06	-8.036648e-10	-3.035229e+01	-5.457494e+01
7.800000e-07	-4.353860e-06	-8.062132e-10	-3.015084e+01	-5.444900e+01
7.900000e-07	-4.324439e-06	-7.993673e-10	-2.994709e+01	-5.432119e+01
8.000000e-07	-4.294800e-06	-7.933679e-10	-2.974184e+01	-5.419162e+01
8.100000e-07	-4.264936e-06	-7.959462e-10	-2.953503e+01	-5.406043e+01
8.200000e-07	-4.234799e-06	-7.999981e-10	-2.932633e+01	-5.392776e+01
8.300000e-07	-4.204245e-06	-7.956720e-10	-2.911474e+01	-5.379374e+01
8.400000e-07	-4.173320e-06	-7.967686e-10	-2.890059e+01	-5.365853e+01
8.500000e-07	-4.142107e-06	-7.959879e-10	-2.868443e+01	-5.352226e+01
8.600000e-07	-4.110655e-06	-7.898124e-10	-2.846663e+01	-5.338510e+01
8.700000e-07	-4.079078e-06	-7.875296e-10	-2.824795e+01	-5.324717e+01
8.800000e-07	-4.047388e-06	-7.912522e-10	-2.802849e+01	-5.310862e+01
8.900000e-07	-4.015487e-06	-7.891261e-10	-2.780758e+01	-5.296957e+01
9.000000e-07	-3.983345e-06	-7.862540e-10	-2.758500e+01	-5.283014e+01
9.100000e-07	-3.950903e-06	-7.856191e-10	-2.736033e+01	-5.269044e+01
9.200000e-07	-3.918036e-06	-7.815211e-10	-2.713272e+01	-5.255057e+01
9.300000e-07	-3.884702e-06	-7.739916e-10	-2.690188e+01	-5.241058e+01
9.400000e-07	-3.850903e-06	-7.720821e-10	-2.666782e+01	-5.227056e+01
9.500000e-07	-3.816692e-06	-7.722465e-10	-2.643091e+01	-5.213052e+01
9.600000e-07	-3.782111e-06	-7.702453e-10	-2.619143e+01	-5.199048e+01
9.700000e-07	-3.747142e-06	-7.725376e-10	-2.594927e+01	-5.185044e+01
9.800000e-07	-3.711811e-06	-7.742712e-10	-2.570459e+01	-5.171037e+01
9.900000e-07	-3.676260e-06	-7.681503e-10	-2.545840e+01	-5.157020e+01
1.000000e-06	-3.640598e-06	-7.592915e-10	-2.521144e+01	-5.142987e+01
1.010000e-06	-3.604810e-06	-7.559388e-10	-2.496361e+01	-5.128924e+01
1.020000e-06	-3.568876e-06	-7.509575e-10	-2.471476e+01	-5.114821e+01
1.030000e-06	-3.532781e-06	-7.471448e-10	-2.446480e+01	-5.100659e+01
1.040000e-06	-3.496432e-06	-7.477940e-10	-2.421308e+01	-5.086421e+01
1.050000e-06	-3.459791e-06	-7.482178e-10	-2.395934e+01	-5.072085e+01
1.060000e-06	-3.422868e-06	-7.430894e-10	-2.370364e+01	-5.057629e+01
1.070000e-06	-3.385644e-06	-7.408900e-10	-2.344586e+01	-5.043026e+01
1.080000e-06	-3.348165e-06	-7.391669e-10	-2.318632e+01	-5.028248e+01
1.090000e-06	-3.310468e-06	-7.334941e-10	-2.292526e+01	-5.013265e+01
1.100000e-06	-3.272563e-06	-7.258813e-10	-2.266277e+01	-4.998047e+01
1.110000e-06	-3.234434e-06	-7.229004e-10	-2.239872e+01	-4.982559e+01
1.120000e-06	-3.195989e-06	-7.186335e-10	-2.213248e+01	-4.966767e+01
1.130000e-06	-3.157368e-06	-7.149411e-10	-2.186504e+01	-4.950637e+01
1.140000e-06	-3.118649e-06	-7.137797e-10	-2.159690e+01	-4.934131e+01
1.150000e-06	-3.079673e-06	-7.130733e-10	-2.132699e+01	-4.917212e+01
1.160000e-06	-3.040509e-06	-7.099976e-10	-2.105577e+01	-4.899845e+01
1.170000e-06	-3.001130e-06	-7.081352e-10	-2.078307e+01	-4.881990e+01
1.180000e-06	-2.961524e-06	-7.055662e-10	-2.050880e+01	-4.863613e+01
1.190000e-06	-2.921879e-06	-6.990014e-10	-2.023425e+01	-4.844675e+01
1.200000e-06	-2.882163e-06	-6.929180e-10	-1.995922e+01	-4.825143e+01
1.210000e-06	-2.842238e-06	-6.907263e-10	-1.968273e+01	-4.804982e+01
1.220000e-06	-2.802138e-06	-6.897114e-10	-1.940504e+01	-4.784158e+01
1.230000e-06	-2.761915e-06	-6.890481e-10	-1.912649e+01	-4.762641e+01
1.240000e-06	-2.721461e-06	-6.888422e-10	-1.884634e+01	-4.740400e+01
1.250000e-06	-2.680749e-06	-6.825323e-10	-1.856441e+01	-4.717408e+01
1.260000e-06	-2.639799e-06	-6.751776e-10	-1.828082e+01	-4.693639e+01
1.270000e-06	-2.598634e-06	-6.726038e-10	-1.799575e+01	-4.669071e+01
1.280000e-06	-2.557162e-06	-6.685110e-10	-1.770856e+01	-4.643682e+01
1.290000e-06	-2.515309e-06	-6.615477e-10	-1.741872e+01	-4.617453e+01
1.300000e-06	-2.473119e-06	-6.544531e-10	-1.712655e+01	-4.590369e+01
1.310000e-06	-2.430605e-06	-6.517690e-10	-1.683214e+01	-4.562417e+01
1.320000e-06	-2.387819e-06	-6.509698e-10	-1.653584e+01	-4.533585e+01
1.330000e-06	-2.344816e-06	-6.501062e-10	-1.623804e+01	-4.503865e+01
1.340000e-06	-2.301662e-06	-6.479854e-10	-1.593920e+01	-4.473251e+01
1.350000e-06	-2.258334e-06	-6.403237e-10	-1.563915e+01	-4.441739e+01
1.360000e-06	-2.214824e-06	-6.294665e-10	-1.533784e+01	-4.409328e+01
1.370000e-06	-2.171213e-06	-6.209837e-10	-1.503583e+01	-4.376018e+01
1.380000e-06	-2.127544e-06	-6.187159e-10	-1.473342e+01	-4.341812e+01
1.390000e-06	-2.083801e-06	-6.163574e-10	-1.443050e+01	-4.306713e+01
1.400000e-06	-2.039918e-06	-6.111458e-10	-1.412660e+01	-4.270726e+01
1.410000e-06	-1.995886e-06	-6.032022e-10	-1.382168e+01	-4.233858e+01
1.420000e-06	-1.951769e-06	-5.946486e-10	-1.351616e+01	-4.196115e+01
1.430000e-06	-1.907626e-06	-5.871785e-10	-1.321046e+01	-4.157507e+01
1.440000e-06	-1.863413e-06	-5.800171e-10	-1.290429e+01	-4.118039e+01
1.450000e-06	-1.819070e-06	-5.727656e-10	-1.259721e+01	-4.077721e+01
1.460000e-06	-1.774671e-06	-5.676216e-10	-1.228974e+01	-4.036560e+01
1.470000e-06	-1.730229e-06	-5.623732e-10	-1.198198e+01	-3.994563e+01
1.480000e-06	-1.685557e-06	-5.579073e-10	-1.167262e+01	-3.951735e+01
1.490000e-06	-1.640617e-06	-5.508520e-10	-1.136141e+01	-3.908081e+01
1.500000e-06	-1.595535e-06	-5.439818e-10	-1.104921e+01	-3.863605e+01
1.510000e-06	-1.550352e-06	-5.353592e-10	-1.073632e+01	-3.818308e+01
1.520000e-06	-1.505058e-06	-5.248704e-10	-1.042265e+01	-3.772189e+01
1.530000e-06	-1.459653e-06	-5.145089e-10	-1.010822e+01	-3.725246e+01
1.540000e-06	-1.414133e-06	-5.050287e-10	-9.792986e+00	-3.677473e+01
1.550000e-06	-1.368564e-06	-4.982000e-10	-9.477420e+00	-3.628862e+01
1.560000e-06	-1.322898e-06	-4.913804e-10	-9.161174e+00	-3.579404e+01
1.570000e-06	-1.277084e-06	-4.851645e-10	-8.843913e+00	-3.529085e+01
1.580000e-06	-1.231220e-06	-4.811070e-10	-8.526298e+00	-3.477889e+01
1.590000e-06	-1.185347e-06	-4.764370e-10	-8.208622e+00	-3.425798e+01
1.600000e-06	-1.139452e-06	-4.687145e-10	-7.890801e+00	-3.372789e+01
1.610000e-06	-1.093466e-06	-4.586635e-10	-7.572344e+00	-3.318839e+01
1.620000e-06	-1.047353e-06	-4.483102e-10	-7.253002e+00	-3.263922e+01
1.630000e-06	-1.001069e-06	-4.407420e-10	-6.932483e+00	-3.208007e+01
1.640000e-06	-9.546663e-07	-4.332217e-10	-6.611143e+00	-3.151062e+01
1.650000e-06	-9.082140e-07	-4.221179e-10	-6.289457e+00	-3.093056e+01
1.660000e-06	-8.617076e-07	-4.120137e-10	-5.967396e+00	-3.033952e+01
1.670000e-06	-8.151539e-07	-4.038776e-10	-5.645007e+00	-2.973713e+01
1.680000e-06	-7.685394e-07	-3.942057e-10	-5.322199e+00	-2.912301e+01
1.690000e-06	-7.218711e-07	-3.835672e-10	-4.999017e+00	-2.849678e+01
1.700000e-06	-6.752265e-07	-3.726913e-10	-4.675999e+00	-2.785804e+01
1.710000e-06	-6.285873e-07	-3.602734e-10	-4.353019e+00	-2.720640e+01
1.720000e-06	-5.818191e-07	-3.455255e-10	-4.029145e+00	-2.654148e+01
1.730000e-06	-5.349733e-07	-3.331373e-10	-3.704734e+00	-2.586290e+01
1.740000e-06	-4.880994e-07	-3.243391e-10	-3.380128e+00	-2.517029e+01
1.750000e-06	-4.411693e-07	-3.167691e-10	-3.055133e+00	-2.446330e+01
1.760000e-06	-3.941927e-07	-3.082310e-10	-2.729817e+00	-2.374161e+01
1.770000e-06	-3.472587e-07	-2.973384e-10	-2.404795e+00	-2.300491e+01
1.780000e-06	-3.003605e-07	-2.860690e-10	-2.080021e+00	-2.225296e+01
1.790000e-06	-2.533224e-07	-2.750392e-10	-1.754278e+00	-2.148551e+01
1.800000e-06	-2.061818e-07	-2.607680e-10	-1.427826e+00	-2.070237e+01
1.810000e-06	-1.590701e-07	-2.450227e-10	-1.101573e+00	-1.990340e+01
1.820000e-06	-1.120601e-07	-2.310137e-10	-7.760253e-01	-1.908850e+01
1.830000e-06	-6.501433e-08	-2.203828e-10	-4.502296e-01	-1.825763e+01
1.840000e-06	-1.790391e-08	-2.097610e-10	-1.239861e-01	-1.741080e+01
1.850000e-06	2.907231e-08	-1.995351e-10	2.013281e-01	-1.654806e+01
1.860000e-06	7.597185e-08	-1.896674e-10	5.261113e-01	-1.566955e+01
1.870000e-06	1.229138e-07	-1.769579e-10	8.511881e-01	-1.477545e+01
1.880000e-06	1.698639e-07	-1.622350e-10	1.176322e+00	-1.386601e+01
1.890000e-06	2.168792e-07	-1.472994e-10	1.501907e+00	-1.294155e+01
1.900000e-06	2.638889e-07	-1.338520e-10	1.827452e+00	-1.200245e+01
1.910000e-06	3.108620e-07	-1.225107e-10	2.152745e+00	-1.104916e+01
1.920000e-06	3.578182e-07	-1.133254e-10	2.477921e+00	-1.008217e+01
1.930000e-06	4.046780e-07	-1.043485e-10	2.802428e+00	-9.102064e+00
1.940000e-06	4.515232e-07	-9.253169e-11	3.126835e+00	-8.109474e+00
1.950000e-06	4.983777e-07	-8.060203e-11	3.451307e+00	-7.105092e+00
1.960000e-06	5.452021e-07	-6.805697e-11	3.775569e+00	-6.089668e+00
1.970000e-06	5.919757e-07	-5.440831e-11	4.099480e+00	-5.064007e+00
1.980000e-06	6.387263e-07	-4.120455e-11	4.423232e+00	-4.028965e+00
1.990000e-06	6.854358e-07	-2.833316e-11	4.746699e+00	-2.985443e+00
2.000000e-06	7.320279e-07	-1.478204e-11	5.069353e+00	-1.934386e+00
2.010000e-06	7.785404e-07	-9.556844e-14	5.391456e+00	-8.767795e-01
2.020000e-06	8.250451e-07	1.311272e-11	5.713505e+00	1.863607e-01
2.030000e-06	8.714572e-07	2.588905e-11	6.034913e+00	1.253989e+00
2.040000e-06	9.177872e-07	3.874117e-11	6.355752e+00	2.325036e+00
2.050000e-06	9.640615e-07	5.112496e-11	6.676205e+00	3.398415e+00
2.060000e-06	1.010242e-06	6.493007e-11	6.996006e+00	4.473030e+00
2.070000e-06	1.056261e-06	7.952269e-11	7.314692e+00	5.547775e+00
2.080000e-06	1.102162e-06	9.700366e-11	7.632560e+00	6.621545e+00
2.090000e-06	1.148084e-06	1.143206e-10	7.950573e+00	7.693241e+00
2.100000e-06	1.193895e-06	1.293602e-10	8.267824e+00	8.761774e+00
2.110000e-06	1.239620e-06	1.438533e-10	8.584473e+00	9.826073e+00
2.120000e-06	1.285345e-06	1.558803e-10	8.901120e+00	1.088509e+01
2.130000e-06	1.330957e-06	1.694207e-10	9.216990e+00	1.193779e+01
2.140000e-06	1.376515e-06	1.824868e-10	9.532482e+00	1.298320e+01
2.150000e-06	1.422033e-06	1.963288e-10	9.847694e+00	1.402036e+01
2.160000e-06	1.467422e-06	2.109953e-10	1.016202e+01	1.504835e+01
2.170000e-06	1.512723e-06	2.284025e-10	1.047573e+01	1.606630e+01
2.180000e-06	1.557942e-06	2.458371e-10	1.078887e+01	1.707340e+01
2.190000e-06	1.602955e-06	2.595070e-10	1.110059e+01	1.806889e+01
2.200000e-06	1.647903e-06	2.691339e-10	1.141186e+01	1.905203e+01
2.210000e-06	1.692726e-06	2.782911e-10	1.172227e+01	2.002219e+01
2.220000e-06	1.737340e-06	2.911225e-10	1.203122e+01	2.097877e+01
2.230000e-06	1.781918e-06	3.064518e-10	1.233993e+01	2.192121e+01
2.240000e-06	1.826331e-06	3.210540e-10	1.264749e+01	2.284906e+01
2.250000e-06	1.870572e-06	3.336993e-10	1.295386e+01	2.376189e+01
2.260000e-06	1.914666e-06	3.448776e-10	1.325922e+01	2.465934e+01
2.270000e-06	1.958601e-06	3.562766e-10	1.356347e+01	2.554113e+01
2.280000e-06	2.002491e-06	3.676457e-10	1.386742e+01	2.640702e+01
2.290000e-06	2.046327e-06	3.779185e-10	1.417098e+01	2.725684e+01
2.300000e-06	2.090085e-06	3.896964e-10	1.447401e+01	2.809046e+01
2.310000e-06	2.133803e-06	4.030084e-10	1.477676e+01	2.890781e+01
2.320000e-06	2.177444e-06	4.165311e-10	1.507898e+01	2.970889e+01
2.330000e-06	2.220999e-06	4.296188e-10	1.538060e+01	3.049373e+01
2.340000e-06	2.264437e-06	4.413493e-10	1.568141e+01	3.126240e+01
2.350000e-06	2.307732e-06	4.502605e-10	1.598123e+01	3.201503e+01
2.360000e-06	2.350791e-06	4.592511e-10	1.627942e+01	3.275178e+01
2.370000e-06	2.393590e-06	4.668750e-10	1.657581e+01	3.347284e+01
2.380000e-06	2.436151e-06	4.746799e-10	1.687055e+01	3.417844e+01
2.390000e-06	2.478497e-06	4.850046e-10	1.716380e+01	3.486883e+01
2.400000e-06	2.520606e-06	4.976149e-10	1.745540e+01	3.554429e+01
2.410000e-06	2.562386e-06	5.102535e-10	1.774473e+01	3.620511e+01
2.420000e-06	2.603859e-06	5.238024e-10	1.803194e+01	3.685159e+01
2.430000e-06	2.645044e-06	5.340594e-10	1.831715e+01	3.748406e+01
2.440000e-06	2.685804e-06	5.416391e-10	1.859941e+01	3.810284e+01
2.450000e-06	2.726288e-06	5.495560e-10	1.887977e+01	3.870827e+01
2.460000e-06	2.766624e-06	5.570368e-10	1.915910e+01	3.930067e+01
2.470000e-06	2.806810e-06	5.642225e-10	1.943739e+01	3.988036e+01
2.480000e-06	2.846814e-06	5.725300e-10	1.971442e+01	4.044768e+01
2.490000e-06	2.886588e-06	5.824832e-10	1.998986e+01	4.100293e+01
2.500000e-06	2.926268e-06	5.916083e-10	2.026465e+01	4.154640e+01
2.510000e-06	2.965814e-06	5.993305e-10	2.053850e+01	4.207839e+01
2.520000e-06	3.005206e-06	6.060824e-10	2.081130e+01	4.259917e+01
2.530000e-06	3.044452e-06	6.134107e-10	2.108308e+01	4.310899e+01
2.540000e-06	3.083502e-06	6.193896e-10	2.135350e+01	4.360808e+01
2.550000e-06	3.122300e-06	6.232862e-10	2.162218e+01	4.409667e+01
2.560000e-06	3.160899e-06	6.285337e-10	2.188948e+01	4.457494e+01
2.570000e-06	3.199294e-06	6.346413e-10	2.215537e+01	4.504308e+01
2.580000e-06	3.237424e-06	6.418317e-10	2.241943e+01	4.550123e+01
2.590000e-06	3.275329e-06	6.492860e-10	2.268192e+01	4.594955e+01
2.600000e-06	3.313003e-06	6.550618e-10	2.294281e+01	4.638815e+01
2.610000e-06	3.350462e-06	6.612367e-10	2.320222e+01	4.681712e+01
2.620000e-06	3.387741e-06	6.687269e-10	2.346039e+01	4.723655e+01
2.630000e-06	3.424717e-06	6.751867e-10	2.371645e+01	4.764652e+01
2.640000e-06	3.461465e-06	6.791179e-10	2.397093e+01	4.804707e+01
2.650000e-06	3.498093e-06	6.832234e-10	2.422458e+01	4.843824e+01
2.660000e-06	3.534461e-06	6.882293e-10	2.447643e+01	4.882008e+01
2.670000e-06	3.570543e-06	6.921563e-10	2.472630e+01	4.919259e+01
2.680000e-06	3.606434e-06	6.941020e-10	2.497485e+01	4.955581e+01
2.690000e-06	3.642175e-06	6.984007e-10	2.522236e+01	4.990973e+01
2.700000e-06	3.677769e-06	7.047150e-10	2.546885e+01	5.025437e+01
2.710000e-06	3.713154e-06	7.106982e-10	2.571390e+01	5.058974e+01
2.720000e-06	3.748241e-06	7.179792e-10	2.595687e+01	5.091584e+01
2.730000e-06	3.782994e-06	7.261767e-10	2.619754e+01	5.123270e+01
2.740000e-06	3.817474e-06	7.321869e-10	2.643632e+01	5.154032e+01
2.750000e-06	3.851640e-06	7.364565e-10	2.667292e+01	5.183875e+01
2.760000e-06	3.885453e-06	7.394687e-10	2.690708e+01	5.212800e+01
2.770000e-06	3.918835e-06	7.424027e-10	2.713826e+01	5.240813e+01
2.780000e-06	3.951737e-06	7.474074e-10	2.736611e+01	5.267918e+01
2.790000e-06	3.984263e-06	7.546108e-10	2.759135e+01	5.294123e+01
2.800000e-06	4.016427e-06	7.619646e-10	2.781409e+01	5.319436e+01
2.810000e-06	4.048332e-06	7.681923e-10	2.803503e+01	5.343865e+01
2.820000e-06	4.080042e-06	7.719821e-10	2.825463e+01	5.367422e+01
2.830000e-06	4.111586e-06	7.726448e-10	2.847307e+01	5.390119e+01
2.840000e-06	4.142979e-06	7.704306e-10	2.869047e+01	5.411969e+01
2.850000e-06	4.174094e-06	7.683763e-10	2.890595e+01	5.432987e+01
2.860000e-06	4.204773e-06	7.709863e-10	2.911840e+01	5.453190e+01
2.870000e-06	4.235124e-06	7.754506e-10	2.932858e+01	5.472595e+01
2.880000e-06	4.265351e-06	7.785183e-10	2.953791e+01	5.491220e+01
2.890000e-06	4.295394e-06	7.826095e-10	2.974595e+01	5.509087e+01
2.900000e-06	4.325111e-06	7.873447e-10	2.995175e+01	5.526215e+01
