# Temperatura_=_-0.3
# Concentracion g/m^3_=_1620.0
# C_Vs_to_Am_M_A/Vsm_=_65563218390.804596
# pendiente_HvsI_1/m_=_3716.3
# ordenada_HvsI_A/m_=_1297.0
# frecuencia_Hz_=_135096.38876331053

Tiempo_(s)	Campo_(V.s)	Magnetizacion_(V.s)	Campo_(kA/m)	Magnetizacion_(A/m)
0.000000e+00	-5.503048e-06	-1.384894e-09	-3.838090e+01	-8.988154e+01
1.000000e-08	-5.503243e-06	-1.381345e-09	-3.838225e+01	-8.987447e+01
2.000000e-08	-5.503245e-06	-1.380147e-09	-3.838227e+01	-8.986865e+01
3.000000e-08	-5.502903e-06	-1.383212e-09	-3.837988e+01	-8.986413e+01
4.000000e-08	-5.502034e-06	-1.385410e-09	-3.837383e+01	-8.986093e+01
5.000000e-08	-5.500656e-06	-1.383859e-09	-3.836421e+01	-8.985903e+01
6.000000e-08	-5.498660e-06	-1.374034e-09	-3.835029e+01	-8.985839e+01
7.000000e-08	-5.495991e-06	-1.364439e-09	-3.833168e+01	-8.985893e+01
8.000000e-08	-5.492877e-06	-1.401373e-09	-3.830996e+01	-8.986054e+01
9.000000e-08	-5.489397e-06	-1.433860e-09	-3.828569e+01	-8.986309e+01
1.000000e-07	-5.485436e-06	-1.373418e-09	-3.825806e+01	-8.986642e+01
1.100000e-07	-5.481091e-06	-1.300799e-09	-3.822776e+01	-8.987034e+01
1.200000e-07	-5.476553e-06	-1.347669e-09	-3.819611e+01	-8.987465e+01
1.300000e-07	-5.471745e-06	-1.397971e-09	-3.816257e+01	-8.987912e+01
1.400000e-07	-5.466475e-06	-1.394990e-09	-3.812582e+01	-8.988350e+01
1.500000e-07	-5.460771e-06	-1.290553e-09	-3.808604e+01	-8.988753e+01
1.600000e-07	-5.454837e-06	-1.347685e-09	-3.804465e+01	-8.989094e+01
1.700000e-07	-5.448556e-06	-1.400441e-09	-3.800084e+01	-8.989344e+01
1.800000e-07	-5.441772e-06	-1.420697e-09	-3.795353e+01	-8.989474e+01
1.900000e-07	-5.434591e-06	-1.330168e-09	-3.790345e+01	-8.989454e+01
2.000000e-07	-5.427141e-06	-1.336071e-09	-3.785148e+01	-8.989253e+01
2.100000e-07	-5.419409e-06	-1.392871e-09	-3.779756e+01	-8.988840e+01
2.200000e-07	-5.411451e-06	-1.436601e-09	-3.774206e+01	-8.988187e+01
2.300000e-07	-5.403242e-06	-1.400705e-09	-3.768480e+01	-8.987261e+01
2.400000e-07	-5.394503e-06	-1.385465e-09	-3.762385e+01	-8.986035e+01
2.500000e-07	-5.385019e-06	-1.434686e-09	-3.755770e+01	-8.984479e+01
2.600000e-07	-5.374974e-06	-1.428504e-09	-3.748764e+01	-8.982564e+01
2.700000e-07	-5.364405e-06	-1.394955e-09	-3.741393e+01	-8.980265e+01
2.800000e-07	-5.353207e-06	-1.359047e-09	-3.733583e+01	-8.977555e+01
2.900000e-07	-5.341607e-06	-1.407929e-09	-3.725493e+01	-8.974410e+01
3.000000e-07	-5.329754e-06	-1.391634e-09	-3.717226e+01	-8.970807e+01
3.100000e-07	-5.317525e-06	-1.380643e-09	-3.708697e+01	-8.966725e+01
3.200000e-07	-5.304794e-06	-1.354954e-09	-3.699817e+01	-8.962144e+01
3.300000e-07	-5.291658e-06	-1.417483e-09	-3.690656e+01	-8.957044e+01
3.400000e-07	-5.278200e-06	-1.382039e-09	-3.681270e+01	-8.951411e+01
3.500000e-07	-5.264316e-06	-1.363371e-09	-3.671587e+01	-8.945230e+01
3.600000e-07	-5.249996e-06	-1.354209e-09	-3.661599e+01	-8.938486e+01
3.700000e-07	-5.235416e-06	-1.399804e-09	-3.651430e+01	-8.931170e+01
3.800000e-07	-5.220279e-06	-1.346374e-09	-3.640873e+01	-8.923271e+01
3.900000e-07	-5.204447e-06	-1.355079e-09	-3.629831e+01	-8.914781e+01
4.000000e-07	-5.188172e-06	-1.386823e-09	-3.618480e+01	-8.905694e+01
4.100000e-07	-5.171532e-06	-1.369174e-09	-3.606874e+01	-8.896006e+01
4.200000e-07	-5.154513e-06	-1.313335e-09	-3.595005e+01	-8.885713e+01
4.300000e-07	-5.137152e-06	-1.366396e-09	-3.582896e+01	-8.874814e+01
4.400000e-07	-5.119477e-06	-1.390954e-09	-3.570568e+01	-8.863308e+01
4.500000e-07	-5.101485e-06	-1.325616e-09	-3.558020e+01	-8.851197e+01
4.600000e-07	-5.083064e-06	-1.324779e-09	-3.545173e+01	-8.838482e+01
4.700000e-07	-5.064261e-06	-1.376259e-09	-3.532058e+01	-8.825167e+01
4.800000e-07	-5.045175e-06	-1.340779e-09	-3.518747e+01	-8.811256e+01
4.900000e-07	-5.025742e-06	-1.310483e-09	-3.505193e+01	-8.796755e+01
5.000000e-07	-5.006137e-06	-1.368661e-09	-3.491520e+01	-8.781671e+01
5.100000e-07	-4.986382e-06	-1.346037e-09	-3.477742e+01	-8.766010e+01
5.200000e-07	-4.966292e-06	-1.295991e-09	-3.463730e+01	-8.749780e+01
5.300000e-07	-4.945775e-06	-1.332844e-09	-3.449421e+01	-8.732990e+01
5.400000e-07	-4.924851e-06	-1.360109e-09	-3.434828e+01	-8.715650e+01
5.500000e-07	-4.903588e-06	-1.291679e-09	-3.419998e+01	-8.697769e+01
5.600000e-07	-4.881999e-06	-1.306586e-09	-3.404940e+01	-8.679357e+01
5.700000e-07	-4.860179e-06	-1.345373e-09	-3.389722e+01	-8.660425e+01
5.800000e-07	-4.837947e-06	-1.317402e-09	-3.374216e+01	-8.640985e+01
5.900000e-07	-4.815315e-06	-1.289915e-09	-3.358432e+01	-8.621048e+01
6.000000e-07	-4.792458e-06	-1.327381e-09	-3.342490e+01	-8.600626e+01
6.100000e-07	-4.769257e-06	-1.298610e-09	-3.326309e+01	-8.579731e+01
6.200000e-07	-4.745769e-06	-1.273992e-09	-3.309927e+01	-8.558376e+01
6.300000e-07	-4.722083e-06	-1.287323e-09	-3.293407e+01	-8.536572e+01
6.400000e-07	-4.698164e-06	-1.294419e-09	-3.276725e+01	-8.514334e+01
6.500000e-07	-4.673919e-06	-1.271677e-09	-3.259815e+01	-8.491673e+01
6.600000e-07	-4.649265e-06	-1.294882e-09	-3.242620e+01	-8.468603e+01
6.700000e-07	-4.624192e-06	-1.293764e-09	-3.225133e+01	-8.445138e+01
6.800000e-07	-4.598570e-06	-1.274532e-09	-3.207263e+01	-8.421291e+01
6.900000e-07	-4.572337e-06	-1.270862e-09	-3.188967e+01	-8.397074e+01
7.000000e-07	-4.545657e-06	-1.276474e-09	-3.170359e+01	-8.372501e+01
7.100000e-07	-4.518518e-06	-1.253066e-09	-3.151431e+01	-8.347587e+01
7.200000e-07	-4.491019e-06	-1.251747e-09	-3.132252e+01	-8.322343e+01
7.300000e-07	-4.463307e-06	-1.254898e-09	-3.112925e+01	-8.296782e+01
7.400000e-07	-4.435414e-06	-1.247010e-09	-3.093470e+01	-8.270919e+01
7.500000e-07	-4.407373e-06	-1.248488e-09	-3.073913e+01	-8.244765e+01
7.600000e-07	-4.379146e-06	-1.257862e-09	-3.054227e+01	-8.218333e+01
7.700000e-07	-4.350606e-06	-1.247247e-09	-3.034321e+01	-8.191635e+01
7.800000e-07	-4.321744e-06	-1.234538e-09	-3.014192e+01	-8.164681e+01
7.900000e-07	-4.292545e-06	-1.236640e-09	-2.993827e+01	-8.137485e+01
8.000000e-07	-4.263027e-06	-1.223111e-09	-2.973239e+01	-8.110054e+01
8.100000e-07	-4.233216e-06	-1.209976e-09	-2.952448e+01	-8.082400e+01
8.200000e-07	-4.203086e-06	-1.212925e-09	-2.931434e+01	-8.054532e+01
8.300000e-07	-4.172654e-06	-1.221011e-09	-2.910209e+01	-8.026456e+01
8.400000e-07	-4.141990e-06	-1.209960e-09	-2.888822e+01	-7.998180e+01
8.500000e-07	-4.111128e-06	-1.212703e-09	-2.867298e+01	-7.969710e+01
8.600000e-07	-4.079958e-06	-1.212581e-09	-2.845558e+01	-7.941051e+01
8.700000e-07	-4.048517e-06	-1.202230e-09	-2.823630e+01	-7.912206e+01
8.800000e-07	-4.016920e-06	-1.186876e-09	-2.801592e+01	-7.883177e+01
8.900000e-07	-3.985181e-06	-1.189754e-09	-2.779456e+01	-7.853965e+01
9.000000e-07	-3.953312e-06	-1.180473e-09	-2.757229e+01	-7.824569e+01
9.100000e-07	-3.921055e-06	-1.171814e-09	-2.734732e+01	-7.794986e+01
9.200000e-07	-3.888352e-06	-1.168924e-09	-2.711923e+01	-7.765212e+01
9.300000e-07	-3.855455e-06	-1.169736e-09	-2.688979e+01	-7.735242e+01
9.400000e-07	-3.822120e-06	-1.154060e-09	-2.665730e+01	-7.705067e+01
9.500000e-07	-3.788221e-06	-1.151486e-09	-2.642087e+01	-7.674679e+01
9.600000e-07	-3.753949e-06	-1.150216e-09	-2.618184e+01	-7.644065e+01
9.700000e-07	-3.719259e-06	-1.142359e-09	-2.593989e+01	-7.613214e+01
9.800000e-07	-3.684145e-06	-1.131101e-09	-2.569499e+01	-7.582109e+01
9.900000e-07	-3.648770e-06	-1.131113e-09	-2.544827e+01	-7.550735e+01
1.000000e-06	-3.613216e-06	-1.124472e-09	-2.520030e+01	-7.519073e+01
1.010000e-06	-3.577544e-06	-1.114154e-09	-2.495150e+01	-7.487104e+01
1.020000e-06	-3.541753e-06	-1.109031e-09	-2.470188e+01	-7.454805e+01
1.030000e-06	-3.505818e-06	-1.105792e-09	-2.445125e+01	-7.422154e+01
1.040000e-06	-3.469710e-06	-1.097228e-09	-2.419942e+01	-7.389125e+01
1.050000e-06	-3.433329e-06	-1.092260e-09	-2.394568e+01	-7.355694e+01
1.060000e-06	-3.396617e-06	-1.089615e-09	-2.368964e+01	-7.321834e+01
1.070000e-06	-3.359673e-06	-1.080990e-09	-2.343197e+01	-7.287516e+01
1.080000e-06	-3.322507e-06	-1.076243e-09	-2.317276e+01	-7.252712e+01
1.090000e-06	-3.285090e-06	-1.074263e-09	-2.291179e+01	-7.217393e+01
1.100000e-06	-3.247442e-06	-1.069293e-09	-2.264922e+01	-7.181529e+01
1.110000e-06	-3.209582e-06	-1.057433e-09	-2.238517e+01	-7.145090e+01
1.120000e-06	-3.171577e-06	-1.048177e-09	-2.212010e+01	-7.108045e+01
1.130000e-06	-3.133379e-06	-1.036588e-09	-2.185369e+01	-7.070366e+01
1.140000e-06	-3.094845e-06	-1.027568e-09	-2.158493e+01	-7.032021e+01
1.150000e-06	-3.056064e-06	-1.021312e-09	-2.131446e+01	-6.992982e+01
1.160000e-06	-3.017181e-06	-1.020804e-09	-2.104327e+01	-6.953220e+01
1.170000e-06	-2.978108e-06	-1.016914e-09	-2.077075e+01	-6.912707e+01
1.180000e-06	-2.938797e-06	-1.014082e-09	-2.049658e+01	-6.871417e+01
1.190000e-06	-2.899365e-06	-1.007006e-09	-2.022156e+01	-6.829325e+01
1.200000e-06	-2.859797e-06	-9.987654e-10	-1.994559e+01	-6.786406e+01
1.210000e-06	-2.820030e-06	-9.867687e-10	-1.966824e+01	-6.742638e+01
1.220000e-06	-2.780165e-06	-9.785042e-10	-1.939020e+01	-6.697999e+01
1.230000e-06	-2.740244e-06	-9.687144e-10	-1.911177e+01	-6.652471e+01
1.240000e-06	-2.700118e-06	-9.615886e-10	-1.883192e+01	-6.606036e+01
1.250000e-06	-2.659690e-06	-9.554316e-10	-1.854995e+01	-6.558678e+01
1.260000e-06	-2.619082e-06	-9.514629e-10	-1.826673e+01	-6.510384e+01
1.270000e-06	-2.578330e-06	-9.487563e-10	-1.798251e+01	-6.461141e+01
1.280000e-06	-2.537399e-06	-9.453168e-10	-1.769704e+01	-6.410940e+01
1.290000e-06	-2.496143e-06	-9.363781e-10	-1.740930e+01	-6.359772e+01
1.300000e-06	-2.454537e-06	-9.248417e-10	-1.711912e+01	-6.307632e+01
1.310000e-06	-2.412629e-06	-9.120071e-10	-1.682683e+01	-6.254513e+01
1.320000e-06	-2.370371e-06	-9.015174e-10	-1.653211e+01	-6.200414e+01
1.330000e-06	-2.327809e-06	-8.942795e-10	-1.623526e+01	-6.145332e+01
1.340000e-06	-2.284976e-06	-8.921200e-10	-1.593652e+01	-6.089266e+01
1.350000e-06	-2.241886e-06	-8.897263e-10	-1.563599e+01	-6.032217e+01
1.360000e-06	-2.198663e-06	-8.844481e-10	-1.533453e+01	-5.974186e+01
1.370000e-06	-2.155344e-06	-8.768114e-10	-1.503240e+01	-5.915176e+01
1.380000e-06	-2.111855e-06	-8.678776e-10	-1.472909e+01	-5.855187e+01
1.390000e-06	-2.068216e-06	-8.584414e-10	-1.442473e+01	-5.794224e+01
1.400000e-06	-2.024444e-06	-8.455943e-10	-1.411944e+01	-5.732287e+01
1.410000e-06	-1.980573e-06	-8.321556e-10	-1.381346e+01	-5.669379e+01
1.420000e-06	-1.936662e-06	-8.187770e-10	-1.350721e+01	-5.605502e+01
1.430000e-06	-1.892688e-06	-8.081562e-10	-1.320052e+01	-5.540654e+01
1.440000e-06	-1.848632e-06	-7.984565e-10	-1.289325e+01	-5.474836e+01
1.450000e-06	-1.804507e-06	-7.904968e-10	-1.258550e+01	-5.408044e+01
1.460000e-06	-1.760291e-06	-7.799448e-10	-1.227711e+01	-5.340275e+01
1.470000e-06	-1.715965e-06	-7.681549e-10	-1.196796e+01	-5.271522e+01
1.480000e-06	-1.671487e-06	-7.525524e-10	-1.165775e+01	-5.201778e+01
1.490000e-06	-1.626870e-06	-7.335444e-10	-1.134657e+01	-5.131031e+01
1.500000e-06	-1.582133e-06	-7.153302e-10	-1.103456e+01	-5.059269e+01
1.510000e-06	-1.537255e-06	-7.028794e-10	-1.072156e+01	-4.986475e+01
1.520000e-06	-1.492211e-06	-6.902130e-10	-1.040740e+01	-4.912631e+01
1.530000e-06	-1.447109e-06	-6.772986e-10	-1.009283e+01	-4.837716e+01
1.540000e-06	-1.401899e-06	-6.657785e-10	-9.777514e+00	-4.761706e+01
1.550000e-06	-1.356520e-06	-6.561782e-10	-9.461018e+00	-4.684572e+01
1.560000e-06	-1.311140e-06	-6.425010e-10	-9.144518e+00	-4.606286e+01
1.570000e-06	-1.265703e-06	-6.296392e-10	-8.827623e+00	-4.526814e+01
1.580000e-06	-1.220127e-06	-6.148663e-10	-8.509752e+00	-4.446120e+01
1.590000e-06	-1.174430e-06	-5.988448e-10	-8.191039e+00	-4.364168e+01
1.600000e-06	-1.128770e-06	-5.841233e-10	-7.872583e+00	-4.280916e+01
1.610000e-06	-1.083095e-06	-5.734610e-10	-7.554022e+00	-4.196322e+01
1.620000e-06	-1.037298e-06	-5.623634e-10	-7.234611e+00	-4.110341e+01
1.630000e-06	-9.913814e-07	-5.480875e-10	-6.914369e+00	-4.022930e+01
1.640000e-06	-9.454108e-07	-5.320342e-10	-6.593748e+00	-3.934040e+01
1.650000e-06	-8.994738e-07	-5.129392e-10	-6.273362e+00	-3.843624e+01
1.660000e-06	-8.534160e-07	-4.937513e-10	-5.952132e+00	-3.751634e+01
1.670000e-06	-8.072385e-07	-4.772233e-10	-5.630068e+00	-3.658024e+01
1.680000e-06	-7.610414e-07	-4.668640e-10	-5.307868e+00	-3.562746e+01
1.690000e-06	-7.147997e-07	-4.577373e-10	-4.985356e+00	-3.465753e+01
1.700000e-06	-6.685332e-07	-4.478834e-10	-4.662671e+00	-3.367003e+01
1.710000e-06	-6.222812e-07	-4.322174e-10	-4.340088e+00	-3.266453e+01
1.720000e-06	-5.759011e-07	-4.130399e-10	-4.016610e+00	-3.164063e+01
1.730000e-06	-5.294289e-07	-3.919038e-10	-3.692491e+00	-3.059798e+01
1.740000e-06	-4.829855e-07	-3.717974e-10	-3.368572e+00	-2.953624e+01
1.750000e-06	-4.365149e-07	-3.545198e-10	-3.044464e+00	-2.845515e+01
1.760000e-06	-3.899980e-07	-3.405999e-10	-2.720033e+00	-2.735445e+01
1.770000e-06	-3.434066e-07	-3.287575e-10	-2.395082e+00	-2.623398e+01
1.780000e-06	-2.967368e-07	-3.177798e-10	-2.069585e+00	-2.509361e+01
1.790000e-06	-2.500479e-07	-3.029819e-10	-1.743954e+00	-2.393327e+01
1.800000e-06	-2.033040e-07	-2.820925e-10	-1.417940e+00	-2.275297e+01
1.810000e-06	-1.565567e-07	-2.587833e-10	-1.091902e+00	-2.155277e+01
1.820000e-06	-1.098788e-07	-2.366371e-10	-7.663475e-01	-2.033282e+01
1.830000e-06	-6.322652e-08	-2.168920e-10	-4.409721e-01	-1.909335e+01
1.840000e-06	-1.662201e-08	-2.006241e-10	-1.159299e-01	-1.783464e+01
1.850000e-06	2.997652e-08	-1.867881e-10	2.090706e-01	-1.655707e+01
1.860000e-06	7.665647e-08	-1.751514e-10	5.346390e-01	-1.526109e+01
1.870000e-06	1.233653e-07	-1.611573e-10	8.604089e-01	-1.394725e+01
1.880000e-06	1.700489e-07	-1.432455e-10	1.186002e+00	-1.261615e+01
1.890000e-06	2.166606e-07	-1.222562e-10	1.511095e+00	-1.126850e+01
1.900000e-06	2.631899e-07	-9.939705e-11	1.835613e+00	-9.905061e+00
1.910000e-06	3.097570e-07	-7.812086e-11	2.160394e+00	-8.526695e+00
1.920000e-06	3.563429e-07	-5.923435e-11	2.485306e+00	-7.134326e+00
1.930000e-06	4.029231e-07	-4.238454e-11	2.810179e+00	-5.728953e+00
1.940000e-06	4.495118e-07	-2.726048e-11	3.135111e+00	-4.311640e+00
1.950000e-06	4.960213e-07	-1.264049e-11	3.459490e+00	-2.883518e+00
1.960000e-06	5.424255e-07	3.214285e-12	3.783135e+00	-1.445775e+00
1.970000e-06	5.888240e-07	2.074781e-11	4.106741e+00	3.473873e-04
1.980000e-06	6.351951e-07	4.175824e-11	4.430155e+00	1.453558e+00
1.990000e-06	6.815264e-07	6.383123e-11	4.753292e+00	2.912525e+00
2.000000e-06	7.277846e-07	8.626196e-11	5.075919e+00	4.375882e+00
2.010000e-06	7.739438e-07	1.079759e-10	5.397855e+00	5.842231e+00
2.020000e-06	8.200412e-07	1.286474e-10	5.719361e+00	7.310154e+00
2.030000e-06	8.661313e-07	1.481253e-10	6.040815e+00	8.778219e+00
2.040000e-06	9.122444e-07	1.678626e-10	6.362430e+00	1.024499e+01
2.050000e-06	9.582602e-07	1.866354e-10	6.683366e+00	1.170902e+01
2.060000e-06	1.004228e-06	2.054381e-10	7.003965e+00	1.316888e+01
2.070000e-06	1.050138e-06	2.259449e-10	7.324169e+00	1.462315e+01
2.080000e-06	1.095883e-06	2.479591e-10	7.643215e+00	1.607045e+01
2.090000e-06	1.141510e-06	2.695549e-10	7.961439e+00	1.750941e+01
2.100000e-06	1.187062e-06	2.911855e-10	8.279136e+00	1.893869e+01
2.110000e-06	1.232483e-06	3.137795e-10	8.595930e+00	2.035701e+01
2.120000e-06	1.277863e-06	3.352183e-10	8.912432e+00	2.176315e+01
2.130000e-06	1.323258e-06	3.544107e-10	9.229038e+00	2.315592e+01
2.140000e-06	1.368601e-06	3.711765e-10	9.545282e+00	2.453419e+01
2.150000e-06	1.413855e-06	3.862110e-10	9.860904e+00	2.589693e+01
2.160000e-06	1.458922e-06	4.027972e-10	1.017522e+01	2.724315e+01
2.170000e-06	1.503746e-06	4.217629e-10	1.048784e+01	2.857193e+01
2.180000e-06	1.548524e-06	4.412732e-10	1.080015e+01	2.988245e+01
2.190000e-06	1.593320e-06	4.598267e-10	1.111257e+01	3.117396e+01
2.200000e-06	1.637962e-06	4.781787e-10	1.142393e+01	3.244579e+01
2.210000e-06	1.682423e-06	4.974546e-10	1.173402e+01	3.369735e+01
2.220000e-06	1.726785e-06	5.159550e-10	1.204342e+01	3.492815e+01
2.230000e-06	1.771027e-06	5.322851e-10	1.235199e+01	3.613778e+01
2.240000e-06	1.815156e-06	5.462110e-10	1.265977e+01	3.732589e+01
2.250000e-06	1.859232e-06	5.597135e-10	1.296718e+01	3.849225e+01
2.260000e-06	1.903195e-06	5.737127e-10	1.327379e+01	3.963669e+01
2.270000e-06	1.947021e-06	5.879081e-10	1.357946e+01	4.075911e+01
2.280000e-06	1.990758e-06	6.031541e-10	1.388450e+01	4.185951e+01
2.290000e-06	2.034464e-06	6.195686e-10	1.418932e+01	4.293794e+01
2.300000e-06	2.078091e-06	6.353491e-10	1.449360e+01	4.399455e+01
2.310000e-06	2.121679e-06	6.505965e-10	1.479760e+01	4.502951e+01
2.320000e-06	2.165192e-06	6.653915e-10	1.510109e+01	4.604308e+01
2.330000e-06	2.208480e-06	6.784659e-10	1.540300e+01	4.703557e+01
2.340000e-06	2.251544e-06	6.897414e-10	1.570335e+01	4.800734e+01
2.350000e-06	2.294430e-06	7.015495e-10	1.600246e+01	4.895878e+01
2.360000e-06	2.337052e-06	7.139256e-10	1.629972e+01	4.989034e+01
2.370000e-06	2.379314e-06	7.261946e-10	1.659448e+01	5.080247e+01
2.380000e-06	2.421218e-06	7.370405e-10	1.688674e+01	5.169568e+01
2.390000e-06	2.462875e-06	7.490148e-10	1.717727e+01	5.257047e+01
2.400000e-06	2.504364e-06	7.616054e-10	1.746663e+01	5.342738e+01
2.410000e-06	2.545605e-06	7.748948e-10	1.775427e+01	5.426694e+01
2.420000e-06	2.586557e-06	7.902029e-10	1.803989e+01	5.508970e+01
2.430000e-06	2.627268e-06	8.053553e-10	1.832382e+01	5.589617e+01
2.440000e-06	2.667769e-06	8.189915e-10	1.860630e+01	5.668691e+01
2.450000e-06	2.708020e-06	8.314862e-10	1.888703e+01	5.746241e+01
2.460000e-06	2.748042e-06	8.432259e-10	1.916616e+01	5.822317e+01
2.470000e-06	2.787968e-06	8.530109e-10	1.944463e+01	5.896968e+01
2.480000e-06	2.827852e-06	8.611606e-10	1.972280e+01	5.970239e+01
2.490000e-06	2.867620e-06	8.686795e-10	2.000015e+01	6.042172e+01
2.500000e-06	2.907166e-06	8.779124e-10	2.027597e+01	6.112806e+01
2.510000e-06	2.946467e-06	8.891248e-10	2.055007e+01	6.182177e+01
2.520000e-06	2.985624e-06	9.017045e-10	2.082317e+01	6.250319e+01
2.530000e-06	3.024666e-06	9.140790e-10	2.109547e+01	6.317261e+01
2.540000e-06	3.063516e-06	9.240468e-10	2.136643e+01	6.383027e+01
2.550000e-06	3.102040e-06	9.322064e-10	2.163511e+01	6.447641e+01
2.560000e-06	3.140298e-06	9.395937e-10	2.190195e+01	6.511121e+01
2.570000e-06	3.178403e-06	9.465776e-10	2.216770e+01	6.573481e+01
2.580000e-06	3.216375e-06	9.532730e-10	2.243254e+01	6.634734e+01
2.590000e-06	3.254188e-06	9.584322e-10	2.269626e+01	6.694888e+01
2.600000e-06	3.291693e-06	9.645970e-10	2.295785e+01	6.753948e+01
2.610000e-06	3.328946e-06	9.743176e-10	2.321766e+01	6.811918e+01
2.620000e-06	3.365916e-06	9.871425e-10	2.347551e+01	6.868799e+01
2.630000e-06	3.402624e-06	1.000196e-09	2.373153e+01	6.924588e+01
2.640000e-06	3.439134e-06	1.010129e-09	2.398617e+01	6.979284e+01
2.650000e-06	3.475358e-06	1.016245e-09	2.423881e+01	7.032880e+01
2.660000e-06	3.511438e-06	1.020775e-09	2.449045e+01	7.085372e+01
2.670000e-06	3.547432e-06	1.024688e-09	2.474149e+01	7.136753e+01
2.680000e-06	3.583291e-06	1.026601e-09	2.499159e+01	7.187017e+01
2.690000e-06	3.619024e-06	1.030258e-09	2.524081e+01	7.236158e+01
2.700000e-06	3.654572e-06	1.038812e-09	2.548874e+01	7.284170e+01
2.710000e-06	3.689884e-06	1.049671e-09	2.573502e+01	7.331048e+01
2.720000e-06	3.724895e-06	1.061805e-09	2.597920e+01	7.376789e+01
2.730000e-06	3.759443e-06	1.073930e-09	2.622016e+01	7.421390e+01
2.740000e-06	3.793483e-06	1.081808e-09	2.645757e+01	7.464852e+01
2.750000e-06	3.827121e-06	1.084965e-09	2.669218e+01	7.507176e+01
2.760000e-06	3.860400e-06	1.087420e-09	2.692428e+01	7.548367e+01
2.770000e-06	3.893216e-06	1.090420e-09	2.715315e+01	7.588432e+01
2.780000e-06	3.925663e-06	1.094093e-09	2.737946e+01	7.627380e+01
2.790000e-06	3.957889e-06	1.099866e-09	2.760421e+01	7.665225e+01
2.800000e-06	3.989910e-06	1.108323e-09	2.782755e+01	7.701982e+01
2.810000e-06	4.021741e-06	1.117214e-09	2.804955e+01	7.737670e+01
2.820000e-06	4.053425e-06	1.125717e-09	2.827053e+01	7.772312e+01
2.830000e-06	4.084901e-06	1.134302e-09	2.849006e+01	7.805932e+01
2.840000e-06	4.116060e-06	1.138924e-09	2.870738e+01	7.838558e+01
2.850000e-06	4.146932e-06	1.140501e-09	2.892269e+01	7.870222e+01
2.860000e-06	4.177556e-06	1.143835e-09	2.913628e+01	7.900958e+01
2.870000e-06	4.207931e-06	1.148098e-09	2.934813e+01	7.930801e+01
2.880000e-06	4.237951e-06	1.151797e-09	2.955750e+01	7.959790e+01
2.890000e-06	4.267662e-06	1.157663e-09	2.976472e+01	7.987966e+01
2.900000e-06	4.297131e-06	1.164248e-09	2.997025e+01	8.015371e+01
