# Temperatura_=_12.8
# Concentracion g/m^3_=_1620.0
# C_Vs_to_Am_M_A/Vsm_=_65563218390.804596
# pendiente_HvsI_1/m_=_3716.3
# ordenada_HvsI_A/m_=_1297.0
# frecuencia_Hz_=_135102.38160012013

Tiempo_(s)	Campo_(V.s)	Magnetizacion_(V.s)	Campo_(kA/m)	Magnetizacion_(A/m)
0.000000e+00	-5.524313e-06	-7.941201e-10	-3.836767e+01	-5.266142e+01
1.000000e-08	-5.524643e-06	-7.949115e-10	-3.836996e+01	-5.263198e+01
2.000000e-08	-5.524719e-06	-7.960114e-10	-3.837049e+01	-5.260018e+01
3.000000e-08	-5.524471e-06	-7.976767e-10	-3.836876e+01	-5.256604e+01
4.000000e-08	-5.523687e-06	-7.964807e-10	-3.836332e+01	-5.252960e+01
5.000000e-08	-5.522311e-06	-7.914636e-10	-3.835376e+01	-5.249089e+01
6.000000e-08	-5.520480e-06	-7.813539e-10	-3.834105e+01	-5.244998e+01
7.000000e-08	-5.518068e-06	-7.611504e-10	-3.832429e+01	-5.240694e+01
8.000000e-08	-5.515040e-06	-7.771668e-10	-3.830327e+01	-5.236185e+01
9.000000e-08	-5.511532e-06	-8.464056e-10	-3.827890e+01	-5.231481e+01
1.000000e-07	-5.507550e-06	-8.466621e-10	-3.825125e+01	-5.226593e+01
1.100000e-07	-5.503223e-06	-7.345398e-10	-3.822119e+01	-5.221532e+01
1.200000e-07	-5.498778e-06	-7.425337e-10	-3.819032e+01	-5.216312e+01
1.300000e-07	-5.494134e-06	-8.017655e-10	-3.815807e+01	-5.210947e+01
1.400000e-07	-5.489057e-06	-8.330395e-10	-3.812281e+01	-5.205453e+01
1.500000e-07	-5.483580e-06	-7.268036e-10	-3.808477e+01	-5.199846e+01
1.600000e-07	-5.477758e-06	-7.161376e-10	-3.804434e+01	-5.194143e+01
1.700000e-07	-5.471549e-06	-8.276534e-10	-3.800121e+01	-5.188363e+01
1.800000e-07	-5.464893e-06	-8.370024e-10	-3.795498e+01	-5.182523e+01
1.900000e-07	-5.457803e-06	-7.775155e-10	-3.790574e+01	-5.176644e+01
2.000000e-07	-5.450422e-06	-7.245969e-10	-3.785448e+01	-5.170744e+01
2.100000e-07	-5.442771e-06	-7.937150e-10	-3.780134e+01	-5.164844e+01
2.200000e-07	-5.434803e-06	-7.978128e-10	-3.774600e+01	-5.158962e+01
2.300000e-07	-5.426670e-06	-7.875362e-10	-3.768952e+01	-5.153118e+01
2.400000e-07	-5.418271e-06	-7.561228e-10	-3.763118e+01	-5.147332e+01
2.500000e-07	-5.409107e-06	-7.953453e-10	-3.756754e+01	-5.141621e+01
2.600000e-07	-5.399058e-06	-7.934651e-10	-3.749774e+01	-5.136003e+01
2.700000e-07	-5.388543e-06	-7.940087e-10	-3.742472e+01	-5.130494e+01
2.800000e-07	-5.377602e-06	-7.738590e-10	-3.734873e+01	-5.125110e+01
2.900000e-07	-5.366154e-06	-7.934810e-10	-3.726921e+01	-5.119865e+01
3.000000e-07	-5.354398e-06	-8.052749e-10	-3.718757e+01	-5.114770e+01
3.100000e-07	-5.342303e-06	-8.125563e-10	-3.710356e+01	-5.109836e+01
3.200000e-07	-5.329659e-06	-7.896059e-10	-3.701575e+01	-5.105071e+01
3.300000e-07	-5.316557e-06	-7.921351e-10	-3.692475e+01	-5.100482e+01
3.400000e-07	-5.303178e-06	-8.210116e-10	-3.683183e+01	-5.096072e+01
3.500000e-07	-5.289411e-06	-7.922090e-10	-3.673622e+01	-5.091843e+01
3.600000e-07	-5.275140e-06	-7.696562e-10	-3.663710e+01	-5.087794e+01
3.700000e-07	-5.260569e-06	-7.994487e-10	-3.653590e+01	-5.083921e+01
3.800000e-07	-5.245517e-06	-8.102701e-10	-3.643136e+01	-5.080219e+01
3.900000e-07	-5.229552e-06	-7.651840e-10	-3.632048e+01	-5.076678e+01
4.000000e-07	-5.213135e-06	-8.099286e-10	-3.620646e+01	-5.073286e+01
4.100000e-07	-5.196621e-06	-8.319912e-10	-3.609177e+01	-5.070030e+01
4.200000e-07	-5.179790e-06	-7.655081e-10	-3.597488e+01	-5.066893e+01
4.300000e-07	-5.162560e-06	-7.507516e-10	-3.585521e+01	-5.063855e+01
4.400000e-07	-5.145075e-06	-8.457866e-10	-3.573377e+01	-5.060895e+01
4.500000e-07	-5.127267e-06	-7.974803e-10	-3.561009e+01	-5.057988e+01
4.600000e-07	-5.108946e-06	-7.378884e-10	-3.548284e+01	-5.055108e+01
4.700000e-07	-5.090145e-06	-8.065492e-10	-3.535227e+01	-5.052228e+01
4.800000e-07	-5.070982e-06	-8.346007e-10	-3.521918e+01	-5.049317e+01
4.900000e-07	-5.051508e-06	-7.341996e-10	-3.508393e+01	-5.046345e+01
5.000000e-07	-5.031842e-06	-7.738414e-10	-3.494734e+01	-5.043278e+01
5.100000e-07	-5.012050e-06	-8.263361e-10	-3.480988e+01	-5.040083e+01
5.200000e-07	-4.991998e-06	-7.462073e-10	-3.467061e+01	-5.036727e+01
5.300000e-07	-4.971526e-06	-7.284317e-10	-3.452843e+01	-5.033175e+01
5.400000e-07	-4.950637e-06	-8.258272e-10	-3.438335e+01	-5.029392e+01
5.500000e-07	-4.929415e-06	-7.787681e-10	-3.423596e+01	-5.025344e+01
5.600000e-07	-4.907877e-06	-7.198980e-10	-3.408637e+01	-5.020998e+01
5.700000e-07	-4.886054e-06	-7.876775e-10	-3.393481e+01	-5.016322e+01
5.800000e-07	-4.863906e-06	-7.925136e-10	-3.378099e+01	-5.011282e+01
5.900000e-07	-4.841406e-06	-7.159467e-10	-3.362472e+01	-5.005851e+01
6.000000e-07	-4.818580e-06	-7.524397e-10	-3.346618e+01	-5.000001e+01
6.100000e-07	-4.795390e-06	-7.903415e-10	-3.330512e+01	-4.993704e+01
6.200000e-07	-4.771907e-06	-7.345940e-10	-3.314203e+01	-4.986939e+01
6.300000e-07	-4.748249e-06	-7.329818e-10	-3.297772e+01	-4.979684e+01
6.400000e-07	-4.724402e-06	-7.658450e-10	-3.281210e+01	-4.971921e+01
6.500000e-07	-4.700240e-06	-7.324954e-10	-3.264428e+01	-4.963637e+01
6.600000e-07	-4.675607e-06	-7.162606e-10	-3.247320e+01	-4.954820e+01
6.700000e-07	-4.650438e-06	-7.525143e-10	-3.229840e+01	-4.945462e+01
6.800000e-07	-4.624722e-06	-7.377539e-10	-3.211979e+01	-4.935558e+01
6.900000e-07	-4.598488e-06	-7.185053e-10	-3.193760e+01	-4.925108e+01
7.000000e-07	-4.571756e-06	-7.359612e-10	-3.175194e+01	-4.914114e+01
7.100000e-07	-4.544574e-06	-7.393351e-10	-3.156315e+01	-4.902583e+01
7.200000e-07	-4.517065e-06	-7.139507e-10	-3.137209e+01	-4.890525e+01
7.300000e-07	-4.489378e-06	-7.205548e-10	-3.117980e+01	-4.877952e+01
7.400000e-07	-4.461583e-06	-7.199774e-10	-3.098676e+01	-4.864882e+01
7.500000e-07	-4.433563e-06	-7.152688e-10	-3.079215e+01	-4.851335e+01
7.600000e-07	-4.405286e-06	-7.140564e-10	-3.059576e+01	-4.837333e+01
7.700000e-07	-4.376750e-06	-7.184683e-10	-3.039757e+01	-4.822902e+01
7.800000e-07	-4.347826e-06	-7.058292e-10	-3.019668e+01	-4.808070e+01
7.900000e-07	-4.318578e-06	-7.055447e-10	-2.999355e+01	-4.792867e+01
8.000000e-07	-4.289078e-06	-7.064234e-10	-2.978867e+01	-4.777325e+01
8.100000e-07	-4.259297e-06	-7.023470e-10	-2.958183e+01	-4.761478e+01
8.200000e-07	-4.229220e-06	-6.957838e-10	-2.937294e+01	-4.745360e+01
8.300000e-07	-4.198821e-06	-7.032248e-10	-2.916181e+01	-4.729008e+01
8.400000e-07	-4.168121e-06	-7.000857e-10	-2.894859e+01	-4.712455e+01
8.500000e-07	-4.137126e-06	-6.949233e-10	-2.873333e+01	-4.695740e+01
8.600000e-07	-4.105899e-06	-6.973347e-10	-2.851644e+01	-4.678896e+01
8.700000e-07	-4.074509e-06	-6.998948e-10	-2.829843e+01	-4.661958e+01
8.800000e-07	-4.042945e-06	-6.907743e-10	-2.807922e+01	-4.644959e+01
8.900000e-07	-4.011211e-06	-6.897515e-10	-2.785882e+01	-4.627932e+01
9.000000e-07	-3.979235e-06	-6.920270e-10	-2.763674e+01	-4.610904e+01
9.100000e-07	-3.946948e-06	-6.824436e-10	-2.741249e+01	-4.593904e+01
9.200000e-07	-3.914364e-06	-6.768212e-10	-2.718619e+01	-4.576956e+01
9.300000e-07	-3.881396e-06	-6.829731e-10	-2.695722e+01	-4.560080e+01
9.400000e-07	-3.847984e-06	-6.830602e-10	-2.672517e+01	-4.543295e+01
9.500000e-07	-3.814043e-06	-6.756366e-10	-2.648944e+01	-4.526615e+01
9.600000e-07	-3.779561e-06	-6.808935e-10	-2.624995e+01	-4.510050e+01
9.700000e-07	-3.744675e-06	-6.810981e-10	-2.600766e+01	-4.493606e+01
9.800000e-07	-3.709539e-06	-6.711327e-10	-2.576363e+01	-4.477287e+01
9.900000e-07	-3.674176e-06	-6.654011e-10	-2.551803e+01	-4.461089e+01
1.000000e-06	-3.638606e-06	-6.700315e-10	-2.527098e+01	-4.445007e+01
1.010000e-06	-3.602914e-06	-6.638097e-10	-2.502309e+01	-4.429030e+01
1.020000e-06	-3.567073e-06	-6.609960e-10	-2.477417e+01	-4.413143e+01
1.030000e-06	-3.531131e-06	-6.660749e-10	-2.452454e+01	-4.397326e+01
1.040000e-06	-3.494973e-06	-6.684553e-10	-2.427342e+01	-4.381558e+01
1.050000e-06	-3.458507e-06	-6.596364e-10	-2.402015e+01	-4.365811e+01
1.060000e-06	-3.421828e-06	-6.566150e-10	-2.376541e+01	-4.350054e+01
1.070000e-06	-3.384875e-06	-6.515515e-10	-2.350876e+01	-4.334253e+01
1.080000e-06	-3.347626e-06	-6.457465e-10	-2.325006e+01	-4.318371e+01
1.090000e-06	-3.310125e-06	-6.430556e-10	-2.298961e+01	-4.302369e+01
1.100000e-06	-3.272386e-06	-6.457866e-10	-2.272750e+01	-4.286204e+01
1.110000e-06	-3.234415e-06	-6.395131e-10	-2.246378e+01	-4.269830e+01
1.120000e-06	-3.196250e-06	-6.316889e-10	-2.219871e+01	-4.253204e+01
1.130000e-06	-3.157922e-06	-6.272495e-10	-2.193252e+01	-4.236276e+01
1.140000e-06	-3.119310e-06	-6.231387e-10	-2.166435e+01	-4.218999e+01
1.150000e-06	-3.080403e-06	-6.150812e-10	-2.139413e+01	-4.201324e+01
1.160000e-06	-3.041334e-06	-6.108544e-10	-2.112279e+01	-4.183204e+01
1.170000e-06	-3.002126e-06	-6.096849e-10	-2.085048e+01	-4.164590e+01
1.180000e-06	-2.962753e-06	-6.078549e-10	-2.057703e+01	-4.145435e+01
1.190000e-06	-2.923204e-06	-6.049339e-10	-2.030235e+01	-4.125694e+01
1.200000e-06	-2.883528e-06	-6.038487e-10	-2.002679e+01	-4.105323e+01
1.210000e-06	-2.843780e-06	-6.012763e-10	-1.975073e+01	-4.084281e+01
1.220000e-06	-2.803879e-06	-5.956721e-10	-1.947361e+01	-4.062529e+01
1.230000e-06	-2.763789e-06	-5.917580e-10	-1.919517e+01	-4.040031e+01
1.240000e-06	-2.723550e-06	-5.877834e-10	-1.891570e+01	-4.016753e+01
1.250000e-06	-2.683149e-06	-5.816229e-10	-1.863511e+01	-3.992667e+01
1.260000e-06	-2.642443e-06	-5.754680e-10	-1.835240e+01	-3.967746e+01
1.270000e-06	-2.601425e-06	-5.758797e-10	-1.806751e+01	-3.941969e+01
1.280000e-06	-2.560107e-06	-5.708266e-10	-1.778055e+01	-3.915316e+01
1.290000e-06	-2.518468e-06	-5.625576e-10	-1.749136e+01	-3.887775e+01
1.300000e-06	-2.476665e-06	-5.544381e-10	-1.720103e+01	-3.859334e+01
1.310000e-06	-2.434549e-06	-5.475040e-10	-1.690853e+01	-3.829988e+01
1.320000e-06	-2.392100e-06	-5.401974e-10	-1.661370e+01	-3.799733e+01
1.330000e-06	-2.349395e-06	-5.384185e-10	-1.631711e+01	-3.768572e+01
1.340000e-06	-2.306383e-06	-5.391933e-10	-1.601838e+01	-3.736510e+01
1.350000e-06	-2.263193e-06	-5.377144e-10	-1.571841e+01	-3.703553e+01
1.360000e-06	-2.219796e-06	-5.313242e-10	-1.541701e+01	-3.669715e+01
1.370000e-06	-2.176226e-06	-5.243518e-10	-1.511441e+01	-3.635008e+01
1.380000e-06	-2.132592e-06	-5.174291e-10	-1.481136e+01	-3.599450e+01
1.390000e-06	-2.088883e-06	-5.107116e-10	-1.450779e+01	-3.563059e+01
1.400000e-06	-2.045141e-06	-5.067066e-10	-1.420399e+01	-3.525855e+01
1.410000e-06	-2.001374e-06	-5.043455e-10	-1.390002e+01	-3.487860e+01
1.420000e-06	-1.957502e-06	-4.977269e-10	-1.359532e+01	-3.449095e+01
1.430000e-06	-1.913513e-06	-4.899751e-10	-1.328980e+01	-3.409583e+01
1.440000e-06	-1.869455e-06	-4.841290e-10	-1.298381e+01	-3.369346e+01
1.450000e-06	-1.825279e-06	-4.780366e-10	-1.267700e+01	-3.328405e+01
1.460000e-06	-1.780974e-06	-4.711551e-10	-1.236929e+01	-3.286780e+01
1.470000e-06	-1.736476e-06	-4.680577e-10	-1.206024e+01	-3.244490e+01
1.480000e-06	-1.691810e-06	-4.639182e-10	-1.175002e+01	-3.201551e+01
1.490000e-06	-1.647098e-06	-4.547210e-10	-1.143949e+01	-3.157976e+01
1.500000e-06	-1.602284e-06	-4.474722e-10	-1.112824e+01	-3.113777e+01
1.510000e-06	-1.557298e-06	-4.421422e-10	-1.081580e+01	-3.068961e+01
1.520000e-06	-1.512114e-06	-4.347807e-10	-1.050199e+01	-3.023530e+01
1.530000e-06	-1.466807e-06	-4.257972e-10	-1.018732e+01	-2.977486e+01
1.540000e-06	-1.421423e-06	-4.177276e-10	-9.872122e+00	-2.930822e+01
1.550000e-06	-1.375951e-06	-4.115613e-10	-9.556306e+00	-2.883531e+01
1.560000e-06	-1.330440e-06	-4.065845e-10	-9.240221e+00	-2.835597e+01
1.570000e-06	-1.284869e-06	-3.994703e-10	-8.923723e+00	-2.787004e+01
1.580000e-06	-1.239206e-06	-3.882762e-10	-8.606583e+00	-2.737727e+01
1.590000e-06	-1.193442e-06	-3.781417e-10	-8.288739e+00	-2.687738e+01
1.600000e-06	-1.147549e-06	-3.692408e-10	-7.969998e+00	-2.637006e+01
1.610000e-06	-1.101531e-06	-3.615910e-10	-7.650398e+00	-2.585492e+01
1.620000e-06	-1.055458e-06	-3.542828e-10	-7.330410e+00	-2.533156e+01
1.630000e-06	-1.009370e-06	-3.464802e-10	-7.010312e+00	-2.479952e+01
1.640000e-06	-9.631770e-07	-3.376191e-10	-6.689493e+00	-2.425831e+01
1.650000e-06	-9.168878e-07	-3.258146e-10	-6.368004e+00	-2.370741e+01
1.660000e-06	-8.706081e-07	-3.155125e-10	-6.046580e+00	-2.314627e+01
1.670000e-06	-8.242860e-07	-3.049644e-10	-5.724863e+00	-2.257432e+01
1.680000e-06	-7.779499e-07	-2.984069e-10	-5.403047e+00	-2.199096e+01
1.690000e-06	-7.315532e-07	-2.927200e-10	-5.080811e+00	-2.139559e+01
1.700000e-06	-6.850724e-07	-2.857207e-10	-4.757991e+00	-2.078760e+01
1.710000e-06	-6.386053e-07	-2.744722e-10	-4.435266e+00	-2.016639e+01
1.720000e-06	-5.921107e-07	-2.612246e-10	-4.112350e+00	-1.953135e+01
1.730000e-06	-5.456419e-07	-2.496929e-10	-3.789613e+00	-1.888190e+01
1.740000e-06	-4.990622e-07	-2.385278e-10	-3.466106e+00	-1.821747e+01
1.750000e-06	-4.522399e-07	-2.285473e-10	-3.140914e+00	-1.753752e+01
1.760000e-06	-4.053436e-07	-2.202526e-10	-2.815208e+00	-1.684157e+01
1.770000e-06	-3.584988e-07	-2.088178e-10	-2.489859e+00	-1.612914e+01
1.780000e-06	-3.116986e-07	-1.968653e-10	-2.164821e+00	-1.539984e+01
1.790000e-06	-2.648971e-07	-1.865111e-10	-1.839774e+00	-1.465331e+01
1.800000e-06	-2.180993e-07	-1.749436e-10	-1.514752e+00	-1.388926e+01
1.810000e-06	-1.712865e-07	-1.616234e-10	-1.189625e+00	-1.310748e+01
1.820000e-06	-1.244175e-07	-1.482836e-10	-8.641092e-01	-1.230781e+01
1.830000e-06	-7.751560e-08	-1.374805e-10	-5.383643e-01	-1.149018e+01
1.840000e-06	-3.072484e-08	-1.267573e-10	-2.133913e-01	-1.065461e+01
1.850000e-06	1.597807e-08	-1.150906e-10	1.109715e-01	-9.801203e+00
1.860000e-06	6.276573e-08	-1.043296e-10	4.359229e-01	-8.930145e+00
1.870000e-06	1.096930e-07	-9.204420e-11	7.618441e-01	-8.041719e+00
1.880000e-06	1.566440e-07	-7.835756e-11	1.087930e+00	-7.136301e+00
1.890000e-06	2.035372e-07	-6.372017e-11	1.413614e+00	-6.214362e+00
1.900000e-06	2.504121e-07	-4.740185e-11	1.739171e+00	-5.276466e+00
1.910000e-06	2.972232e-07	-3.205619e-11	2.064286e+00	-4.323273e+00
1.920000e-06	3.440336e-07	-1.749295e-11	2.389396e+00	-3.355534e+00
1.930000e-06	3.908958e-07	-5.393687e-12	2.714864e+00	-2.374093e+00
1.940000e-06	4.376886e-07	7.784020e-12	3.039851e+00	-1.379877e+00
1.950000e-06	4.844217e-07	1.798112e-11	3.364424e+00	-3.739018e-01
1.960000e-06	5.311007e-07	2.688996e-11	3.688621e+00	6.427418e-01
1.970000e-06	5.777173e-07	3.886681e-11	4.012384e+00	1.668887e+00
1.980000e-06	6.242906e-07	5.435040e-11	4.335847e+00	2.703299e+00
1.990000e-06	6.708279e-07	7.211951e-11	4.659059e+00	3.744682e+00
2.000000e-06	7.173087e-07	9.006770e-11	4.981880e+00	4.791685e+00
2.010000e-06	7.636885e-07	1.069167e-10	5.303998e+00	5.842910e+00
2.020000e-06	8.100187e-07	1.205931e-10	5.625772e+00	6.896919e+00
2.030000e-06	8.562827e-07	1.340866e-10	5.947087e+00	7.952243e+00
2.040000e-06	9.024953e-07	1.488140e-10	6.268045e+00	9.007392e+00
2.050000e-06	9.486937e-07	1.618623e-10	6.588903e+00	1.006086e+01
2.060000e-06	9.948616e-07	1.755014e-10	6.909550e+00	1.111114e+01
2.070000e-06	1.040956e-06	1.907210e-10	7.229685e+00	1.215672e+01
2.080000e-06	1.086911e-06	2.069280e-10	7.548855e+00	1.319612e+01
2.090000e-06	1.132744e-06	2.217787e-10	7.867176e+00	1.422786e+01
2.100000e-06	1.178505e-06	2.365158e-10	8.184998e+00	1.525050e+01
2.110000e-06	1.224167e-06	2.520559e-10	8.502132e+00	1.626265e+01
2.120000e-06	1.269719e-06	2.646575e-10	8.818500e+00	1.726295e+01
2.130000e-06	1.315158e-06	2.761454e-10	9.134083e+00	1.825012e+01
2.140000e-06	1.360554e-06	2.867318e-10	9.449368e+00	1.922290e+01
2.150000e-06	1.405919e-06	2.960515e-10	9.764441e+00	2.018015e+01
2.160000e-06	1.451144e-06	3.063894e-10	1.007854e+01	2.112077e+01
2.170000e-06	1.496291e-06	3.196002e-10	1.039210e+01	2.204377e+01
2.180000e-06	1.541363e-06	3.354576e-10	1.070513e+01	2.294821e+01
2.190000e-06	1.586246e-06	3.482576e-10	1.101686e+01	2.383328e+01
2.200000e-06	1.631040e-06	3.601053e-10	1.132796e+01	2.469823e+01
2.210000e-06	1.675743e-06	3.716286e-10	1.163843e+01	2.554245e+01
2.220000e-06	1.720255e-06	3.810728e-10	1.194758e+01	2.636538e+01
2.230000e-06	1.764589e-06	3.908860e-10	1.225549e+01	2.716660e+01
2.240000e-06	1.808834e-06	3.982407e-10	1.256278e+01	2.794577e+01
2.250000e-06	1.852970e-06	4.059195e-10	1.286932e+01	2.870267e+01
2.260000e-06	1.896958e-06	4.130103e-10	1.317483e+01	2.943715e+01
2.270000e-06	1.940878e-06	4.228866e-10	1.347986e+01	3.014919e+01
2.280000e-06	1.984741e-06	4.329685e-10	1.378450e+01	3.083884e+01
2.290000e-06	2.028579e-06	4.410873e-10	1.408897e+01	3.150627e+01
2.300000e-06	2.072352e-06	4.490343e-10	1.439298e+01	3.215172e+01
2.310000e-06	2.116002e-06	4.559339e-10	1.469614e+01	3.277550e+01
2.320000e-06	2.159568e-06	4.616917e-10	1.499871e+01	3.337804e+01
2.330000e-06	2.203039e-06	4.662364e-10	1.530063e+01	3.395980e+01
2.340000e-06	2.246433e-06	4.700172e-10	1.560201e+01	3.452133e+01
2.350000e-06	2.289689e-06	4.754891e-10	1.590243e+01	3.506325e+01
2.360000e-06	2.332769e-06	4.839569e-10	1.620164e+01	3.558622e+01
2.370000e-06	2.375712e-06	4.946045e-10	1.649988e+01	3.609094e+01
2.380000e-06	2.418359e-06	5.039859e-10	1.679608e+01	3.657815e+01
2.390000e-06	2.460634e-06	5.110145e-10	1.708969e+01	3.704866e+01
2.400000e-06	2.502580e-06	5.178355e-10	1.738101e+01	3.750325e+01
2.410000e-06	2.544196e-06	5.248667e-10	1.767005e+01	3.794276e+01
2.420000e-06	2.585445e-06	5.332474e-10	1.795653e+01	3.836802e+01
2.430000e-06	2.626374e-06	5.420543e-10	1.824079e+01	3.877986e+01
2.440000e-06	2.667083e-06	5.506241e-10	1.852352e+01	3.917913e+01
2.450000e-06	2.707523e-06	5.585970e-10	1.880439e+01	3.956665e+01
2.460000e-06	2.747741e-06	5.678263e-10	1.908371e+01	3.994322e+01
2.470000e-06	2.787833e-06	5.762011e-10	1.936216e+01	4.030963e+01
2.480000e-06	2.827819e-06	5.817819e-10	1.963988e+01	4.066663e+01
2.490000e-06	2.867660e-06	5.856845e-10	1.991658e+01	4.101496e+01
2.500000e-06	2.907347e-06	5.914151e-10	2.019222e+01	4.135530e+01
2.510000e-06	2.946889e-06	5.985595e-10	2.046685e+01	4.168828e+01
2.520000e-06	2.986311e-06	6.063923e-10	2.074064e+01	4.201452e+01
2.530000e-06	3.025613e-06	6.149078e-10	2.101360e+01	4.233455e+01
2.540000e-06	3.064621e-06	6.212464e-10	2.128452e+01	4.264888e+01
2.550000e-06	3.103330e-06	6.225268e-10	2.155336e+01	4.295795e+01
2.560000e-06	3.141941e-06	6.224110e-10	2.182153e+01	4.326216e+01
2.570000e-06	3.180369e-06	6.251113e-10	2.208842e+01	4.356184e+01
2.580000e-06	3.218464e-06	6.299841e-10	2.235300e+01	4.385728e+01
2.590000e-06	3.256304e-06	6.346436e-10	2.261580e+01	4.414870e+01
2.600000e-06	3.293946e-06	6.405457e-10	2.287724e+01	4.443629e+01
2.610000e-06	3.331383e-06	6.475103e-10	2.313725e+01	4.472017e+01
2.620000e-06	3.368604e-06	6.546431e-10	2.339576e+01	4.500041e+01
2.630000e-06	3.405638e-06	6.600237e-10	2.365297e+01	4.527704e+01
2.640000e-06	3.442391e-06	6.617710e-10	2.390823e+01	4.555004e+01
2.650000e-06	3.478822e-06	6.623969e-10	2.416125e+01	4.581937e+01
2.660000e-06	3.515066e-06	6.647845e-10	2.441297e+01	4.608493e+01
2.670000e-06	3.551137e-06	6.684841e-10	2.466349e+01	4.634658e+01
2.680000e-06	3.587050e-06	6.720203e-10	2.491292e+01	4.660418e+01
2.690000e-06	3.622839e-06	6.778914e-10	2.516148e+01	4.685754e+01
2.700000e-06	3.658471e-06	6.854921e-10	2.540895e+01	4.710645e+01
2.710000e-06	3.693910e-06	6.909654e-10	2.565508e+01	4.735071e+01
2.720000e-06	3.729188e-06	6.934902e-10	2.590010e+01	4.759007e+01
2.730000e-06	3.764238e-06	6.970283e-10	2.614353e+01	4.782431e+01
2.740000e-06	3.798877e-06	6.999593e-10	2.638411e+01	4.805316e+01
2.750000e-06	3.833017e-06	7.015349e-10	2.662122e+01	4.827640e+01
2.760000e-06	3.866620e-06	7.028489e-10	2.685460e+01	4.849378e+01
2.770000e-06	3.899673e-06	7.042356e-10	2.708416e+01	4.870508e+01
2.780000e-06	3.932293e-06	7.073416e-10	2.731071e+01	4.891007e+01
2.790000e-06	3.964652e-06	7.123758e-10	2.753545e+01	4.910856e+01
2.800000e-06	3.996806e-06	7.167364e-10	2.775877e+01	4.930036e+01
2.810000e-06	4.028781e-06	7.196000e-10	2.798084e+01	4.948530e+01
2.820000e-06	4.060585e-06	7.222669e-10	2.820173e+01	4.966325e+01
2.830000e-06	4.092206e-06	7.227208e-10	2.842135e+01	4.983410e+01
2.840000e-06	4.123619e-06	7.208068e-10	2.863952e+01	4.999775e+01
2.850000e-06	4.154677e-06	7.206898e-10	2.885522e+01	5.015415e+01
2.860000e-06	4.185403e-06	7.233340e-10	2.906862e+01	5.030326e+01
2.870000e-06	4.215923e-06	7.250160e-10	2.928059e+01	5.044510e+01
2.880000e-06	4.246166e-06	7.245841e-10	2.949063e+01	5.057968e+01
2.890000e-06	4.276011e-06	7.247496e-10	2.969791e+01	5.070707e+01
2.900000e-06	4.305558e-06	7.268490e-10	2.990312e+01	5.082735e+01
