# Temperatura_=_-0.4
# Concentracion g/m^3_=_1620.0
# C_Vs_to_Am_M_A/Vsm_=_65563218390.804596
# pendiente_HvsI_1/m_=_3716.3
# ordenada_HvsI_A/m_=_1297.0
# frecuencia_Hz_=_135089.4585438398

Tiempo_(s)	Campo_(V.s)	Magnetizacion_(V.s)	Campo_(kA/m)	Magnetizacion_(A/m)
0.000000e+00	-5.510701e-06	-1.335780e-09	-3.838191e+01	-8.680204e+01
1.000000e-08	-5.510869e-06	-1.338016e-09	-3.838307e+01	-8.681261e+01
2.000000e-08	-5.510787e-06	-1.342718e-09	-3.838251e+01	-8.682122e+01
3.000000e-08	-5.510285e-06	-1.345934e-09	-3.837901e+01	-8.682770e+01
4.000000e-08	-5.509407e-06	-1.342656e-09	-3.837289e+01	-8.683184e+01
5.000000e-08	-5.508058e-06	-1.334688e-09	-3.836350e+01	-8.683346e+01
6.000000e-08	-5.506041e-06	-1.317174e-09	-3.834945e+01	-8.683235e+01
7.000000e-08	-5.503441e-06	-1.298446e-09	-3.833134e+01	-8.682831e+01
8.000000e-08	-5.500228e-06	-1.356619e-09	-3.830896e+01	-8.682114e+01
9.000000e-08	-5.496472e-06	-1.418986e-09	-3.828280e+01	-8.681064e+01
1.000000e-07	-5.492324e-06	-1.345562e-09	-3.825391e+01	-8.679663e+01
1.100000e-07	-5.487937e-06	-1.253045e-09	-3.822335e+01	-8.677890e+01
1.200000e-07	-5.483434e-06	-1.311463e-09	-3.819200e+01	-8.675729e+01
1.300000e-07	-5.478667e-06	-1.362197e-09	-3.815879e+01	-8.673163e+01
1.400000e-07	-5.473458e-06	-1.345165e-09	-3.812251e+01	-8.670177e+01
1.500000e-07	-5.467817e-06	-1.211478e-09	-3.808322e+01	-8.666755e+01
1.600000e-07	-5.461868e-06	-1.311822e-09	-3.804178e+01	-8.662886e+01
1.700000e-07	-5.455376e-06	-1.366314e-09	-3.799657e+01	-8.658559e+01
1.800000e-07	-5.448444e-06	-1.374708e-09	-3.794829e+01	-8.653763e+01
1.900000e-07	-5.441266e-06	-1.262124e-09	-3.789829e+01	-8.648492e+01
2.000000e-07	-5.433779e-06	-1.289035e-09	-3.784615e+01	-8.642739e+01
2.100000e-07	-5.426022e-06	-1.352025e-09	-3.779212e+01	-8.636501e+01
2.200000e-07	-5.418012e-06	-1.374491e-09	-3.773633e+01	-8.629775e+01
2.300000e-07	-5.409813e-06	-1.328946e-09	-3.767923e+01	-8.622561e+01
2.400000e-07	-5.401155e-06	-1.315139e-09	-3.761892e+01	-8.614860e+01
2.500000e-07	-5.391754e-06	-1.369048e-09	-3.755344e+01	-8.606677e+01
2.600000e-07	-5.381706e-06	-1.351407e-09	-3.748346e+01	-8.598016e+01
2.700000e-07	-5.371062e-06	-1.317718e-09	-3.740932e+01	-8.588884e+01
2.800000e-07	-5.359912e-06	-1.287635e-09	-3.733167e+01	-8.579289e+01
2.900000e-07	-5.348350e-06	-1.356401e-09	-3.725113e+01	-8.569241e+01
3.000000e-07	-5.336404e-06	-1.318353e-09	-3.716793e+01	-8.558750e+01
3.100000e-07	-5.324027e-06	-1.302130e-09	-3.708172e+01	-8.547829e+01
3.200000e-07	-5.311143e-06	-1.268955e-09	-3.699199e+01	-8.536490e+01
3.300000e-07	-5.297966e-06	-1.350514e-09	-3.690021e+01	-8.524748e+01
3.400000e-07	-5.284440e-06	-1.292406e-09	-3.680601e+01	-8.512617e+01
3.500000e-07	-5.270348e-06	-1.272217e-09	-3.670785e+01	-8.500111e+01
3.600000e-07	-5.255860e-06	-1.284956e-09	-3.660695e+01	-8.487247e+01
3.700000e-07	-5.241115e-06	-1.344370e-09	-3.650425e+01	-8.474038e+01
3.800000e-07	-5.225699e-06	-1.254379e-09	-3.639687e+01	-8.460500e+01
3.900000e-07	-5.209647e-06	-1.266193e-09	-3.628507e+01	-8.446648e+01
4.000000e-07	-5.193274e-06	-1.318452e-09	-3.617103e+01	-8.432497e+01
4.100000e-07	-5.176470e-06	-1.277680e-09	-3.605399e+01	-8.418060e+01
4.200000e-07	-5.159235e-06	-1.204921e-09	-3.593396e+01	-8.403351e+01
4.300000e-07	-5.141790e-06	-1.305971e-09	-3.581245e+01	-8.388381e+01
4.400000e-07	-5.124102e-06	-1.331191e-09	-3.568925e+01	-8.373163e+01
4.500000e-07	-5.105950e-06	-1.221852e-09	-3.556283e+01	-8.357706e+01
4.600000e-07	-5.087398e-06	-1.246167e-09	-3.543361e+01	-8.342020e+01
4.700000e-07	-5.068515e-06	-1.324028e-09	-3.530209e+01	-8.326113e+01
4.800000e-07	-5.049215e-06	-1.238480e-09	-3.516766e+01	-8.309991e+01
4.900000e-07	-5.029613e-06	-1.203750e-09	-3.503114e+01	-8.293659e+01
5.000000e-07	-5.009830e-06	-1.309314e-09	-3.489335e+01	-8.277123e+01
5.100000e-07	-4.989779e-06	-1.255102e-09	-3.475369e+01	-8.260383e+01
5.200000e-07	-4.969432e-06	-1.178642e-09	-3.461198e+01	-8.243443e+01
5.300000e-07	-4.948861e-06	-1.270805e-09	-3.446870e+01	-8.226302e+01
5.400000e-07	-4.927970e-06	-1.300589e-09	-3.432320e+01	-8.208958e+01
5.500000e-07	-4.906643e-06	-1.171235e-09	-3.417465e+01	-8.191411e+01
5.600000e-07	-4.884984e-06	-1.212097e-09	-3.402380e+01	-8.173656e+01
5.700000e-07	-4.862975e-06	-1.273514e-09	-3.387051e+01	-8.155691e+01
5.800000e-07	-4.840601e-06	-1.199817e-09	-3.371467e+01	-8.137509e+01
5.900000e-07	-4.817907e-06	-1.173533e-09	-3.355661e+01	-8.119105e+01
6.000000e-07	-4.794880e-06	-1.256819e-09	-3.339623e+01	-8.100473e+01
6.100000e-07	-4.771547e-06	-1.201940e-09	-3.323372e+01	-8.081607e+01
6.200000e-07	-4.747964e-06	-1.165169e-09	-3.306946e+01	-8.062500e+01
6.300000e-07	-4.724132e-06	-1.215132e-09	-3.290347e+01	-8.043144e+01
6.400000e-07	-4.700077e-06	-1.217836e-09	-3.273593e+01	-8.023533e+01
6.500000e-07	-4.675712e-06	-1.163874e-09	-3.256623e+01	-8.003660e+01
6.600000e-07	-4.650916e-06	-1.207706e-09	-3.239353e+01	-7.983518e+01
6.700000e-07	-4.625677e-06	-1.210765e-09	-3.221774e+01	-7.963100e+01
6.800000e-07	-4.599979e-06	-1.171053e-09	-3.203875e+01	-7.942401e+01
6.900000e-07	-4.573720e-06	-1.177618e-09	-3.185586e+01	-7.921416e+01
7.000000e-07	-4.546885e-06	-1.201645e-09	-3.166895e+01	-7.900140e+01
7.100000e-07	-4.519692e-06	-1.162956e-09	-3.147955e+01	-7.878570e+01
7.200000e-07	-4.492258e-06	-1.164218e-09	-3.128848e+01	-7.856702e+01
7.300000e-07	-4.464560e-06	-1.184863e-09	-3.109556e+01	-7.834535e+01
7.400000e-07	-4.436612e-06	-1.169685e-09	-3.090090e+01	-7.812067e+01
7.500000e-07	-4.408491e-06	-1.158800e-09	-3.070504e+01	-7.789299e+01
7.600000e-07	-4.380145e-06	-1.171839e-09	-3.050761e+01	-7.766231e+01
7.700000e-07	-4.351449e-06	-1.156514e-09	-3.030774e+01	-7.742865e+01
7.800000e-07	-4.322447e-06	-1.140181e-09	-3.010574e+01	-7.719203e+01
7.900000e-07	-4.293169e-06	-1.155820e-09	-2.990183e+01	-7.695249e+01
8.000000e-07	-4.263574e-06	-1.147177e-09	-2.969570e+01	-7.671006e+01
8.100000e-07	-4.233662e-06	-1.127349e-09	-2.948736e+01	-7.646480e+01
8.200000e-07	-4.203501e-06	-1.133092e-09	-2.927729e+01	-7.621676e+01
8.300000e-07	-4.173123e-06	-1.144554e-09	-2.906570e+01	-7.596600e+01
8.400000e-07	-4.142390e-06	-1.121989e-09	-2.885165e+01	-7.571256e+01
8.500000e-07	-4.111338e-06	-1.122981e-09	-2.863537e+01	-7.545652e+01
8.600000e-07	-4.080135e-06	-1.128572e-09	-2.841805e+01	-7.519794e+01
8.700000e-07	-4.048731e-06	-1.117613e-09	-2.819932e+01	-7.493686e+01
8.800000e-07	-4.017104e-06	-1.103531e-09	-2.797904e+01	-7.467336e+01
8.900000e-07	-3.985297e-06	-1.119010e-09	-2.775751e+01	-7.440747e+01
9.000000e-07	-3.953238e-06	-1.104920e-09	-2.753421e+01	-7.413924e+01
9.100000e-07	-3.920929e-06	-1.089009e-09	-2.730918e+01	-7.386871e+01
9.200000e-07	-3.888347e-06	-1.091787e-09	-2.708225e+01	-7.359589e+01
9.300000e-07	-3.855328e-06	-1.099729e-09	-2.685227e+01	-7.332081e+01
9.400000e-07	-3.821844e-06	-1.082401e-09	-2.661906e+01	-7.304345e+01
9.500000e-07	-3.787932e-06	-1.088136e-09	-2.638286e+01	-7.276381e+01
9.600000e-07	-3.753573e-06	-1.094074e-09	-2.614355e+01	-7.248186e+01
9.700000e-07	-3.718783e-06	-1.082700e-09	-2.590124e+01	-7.219753e+01
9.800000e-07	-3.683652e-06	-1.069907e-09	-2.565655e+01	-7.191078e+01
9.900000e-07	-3.648318e-06	-1.075867e-09	-2.541045e+01	-7.162151e+01
1.000000e-06	-3.612756e-06	-1.066409e-09	-2.516276e+01	-7.132962e+01
1.010000e-06	-3.576961e-06	-1.055064e-09	-2.491345e+01	-7.103499e+01
1.020000e-06	-3.541063e-06	-1.057321e-09	-2.466343e+01	-7.073747e+01
1.030000e-06	-3.505025e-06	-1.057017e-09	-2.441242e+01	-7.043690e+01
1.040000e-06	-3.468718e-06	-1.044283e-09	-2.415954e+01	-7.013310e+01
1.050000e-06	-3.432191e-06	-1.038545e-09	-2.390513e+01	-6.982587e+01
1.060000e-06	-3.395458e-06	-1.035281e-09	-2.364929e+01	-6.951498e+01
1.070000e-06	-3.358443e-06	-1.020124e-09	-2.339148e+01	-6.920021e+01
1.080000e-06	-3.321219e-06	-1.014216e-09	-2.313222e+01	-6.888129e+01
1.090000e-06	-3.283677e-06	-1.016177e-09	-2.287074e+01	-6.855796e+01
1.100000e-06	-3.245840e-06	-1.010729e-09	-2.260720e+01	-6.822994e+01
1.110000e-06	-3.207841e-06	-1.001325e-09	-2.234254e+01	-6.789694e+01
1.120000e-06	-3.169700e-06	-1.000719e-09	-2.207688e+01	-6.755864e+01
1.130000e-06	-3.131445e-06	-9.925276e-10	-2.181045e+01	-6.721474e+01
1.140000e-06	-3.092844e-06	-9.829100e-10	-2.154159e+01	-6.686493e+01
1.150000e-06	-3.054003e-06	-9.752169e-10	-2.127106e+01	-6.650887e+01
1.160000e-06	-3.015064e-06	-9.731308e-10	-2.099985e+01	-6.614624e+01
1.170000e-06	-2.975836e-06	-9.637860e-10	-2.072663e+01	-6.577672e+01
1.180000e-06	-2.936344e-06	-9.601635e-10	-2.045157e+01	-6.539999e+01
1.190000e-06	-2.896766e-06	-9.560259e-10	-2.017591e+01	-6.501572e+01
1.200000e-06	-2.857084e-06	-9.499474e-10	-1.989953e+01	-6.462360e+01
1.210000e-06	-2.817222e-06	-9.417088e-10	-1.962189e+01	-6.422333e+01
1.220000e-06	-2.777270e-06	-9.407135e-10	-1.934362e+01	-6.381462e+01
1.230000e-06	-2.737174e-06	-9.317154e-10	-1.906435e+01	-6.339717e+01
1.240000e-06	-2.696884e-06	-9.216328e-10	-1.878374e+01	-6.297072e+01
1.250000e-06	-2.656510e-06	-9.163404e-10	-1.850253e+01	-6.253501e+01
1.260000e-06	-2.615817e-06	-9.137347e-10	-1.821910e+01	-6.208981e+01
1.270000e-06	-2.574744e-06	-9.075036e-10	-1.793304e+01	-6.163488e+01
1.280000e-06	-2.533562e-06	-9.009871e-10	-1.764620e+01	-6.117002e+01
1.290000e-06	-2.492127e-06	-8.909565e-10	-1.735761e+01	-6.069504e+01
1.300000e-06	-2.450262e-06	-8.800314e-10	-1.706602e+01	-6.020978e+01
1.310000e-06	-2.408170e-06	-8.701453e-10	-1.677285e+01	-5.971407e+01
1.320000e-06	-2.365933e-06	-8.636064e-10	-1.647867e+01	-5.920779e+01
1.330000e-06	-2.323384e-06	-8.569003e-10	-1.618232e+01	-5.869081e+01
1.340000e-06	-2.280558e-06	-8.521435e-10	-1.588403e+01	-5.816303e+01
1.350000e-06	-2.237493e-06	-8.462277e-10	-1.558409e+01	-5.762438e+01
1.360000e-06	-2.194192e-06	-8.366485e-10	-1.528250e+01	-5.707478e+01
1.370000e-06	-2.150788e-06	-8.262084e-10	-1.498019e+01	-5.651417e+01
1.380000e-06	-2.107248e-06	-8.192570e-10	-1.467693e+01	-5.594250e+01
1.390000e-06	-2.063475e-06	-8.123394e-10	-1.437206e+01	-5.535975e+01
1.400000e-06	-2.019602e-06	-8.026496e-10	-1.406648e+01	-5.476589e+01
1.410000e-06	-1.975677e-06	-7.926455e-10	-1.376055e+01	-5.416089e+01
1.420000e-06	-1.931719e-06	-7.813803e-10	-1.345438e+01	-5.354474e+01
1.430000e-06	-1.887718e-06	-7.711504e-10	-1.314791e+01	-5.291742e+01
1.440000e-06	-1.843605e-06	-7.605759e-10	-1.284067e+01	-5.227892e+01
1.450000e-06	-1.799392e-06	-7.522979e-10	-1.253272e+01	-5.162921e+01
1.460000e-06	-1.755132e-06	-7.415100e-10	-1.222445e+01	-5.096828e+01
1.470000e-06	-1.710697e-06	-7.300683e-10	-1.191497e+01	-5.029609e+01
1.480000e-06	-1.666053e-06	-7.153067e-10	-1.160402e+01	-4.961261e+01
1.490000e-06	-1.621280e-06	-7.011907e-10	-1.129218e+01	-4.891778e+01
1.500000e-06	-1.576408e-06	-6.893887e-10	-1.097965e+01	-4.821154e+01
1.510000e-06	-1.531475e-06	-6.802604e-10	-1.066669e+01	-4.749382e+01
1.520000e-06	-1.486339e-06	-6.677495e-10	-1.035232e+01	-4.676451e+01
1.530000e-06	-1.441125e-06	-6.549913e-10	-1.003740e+01	-4.602352e+01
1.540000e-06	-1.395958e-06	-6.409684e-10	-9.722815e+00	-4.527070e+01
1.550000e-06	-1.350641e-06	-6.280677e-10	-9.407182e+00	-4.450592e+01
1.560000e-06	-1.305205e-06	-6.099457e-10	-9.090723e+00	-4.372901e+01
1.570000e-06	-1.259694e-06	-5.959274e-10	-8.773742e+00	-4.293978e+01
1.580000e-06	-1.214096e-06	-5.832376e-10	-8.456154e+00	-4.213803e+01
1.590000e-06	-1.168432e-06	-5.699915e-10	-8.138100e+00	-4.132354e+01
1.600000e-06	-1.122658e-06	-5.553160e-10	-7.819285e+00	-4.049607e+01
1.610000e-06	-1.076843e-06	-5.410725e-10	-7.500184e+00	-3.965537e+01
1.620000e-06	-1.030926e-06	-5.279782e-10	-7.180376e+00	-3.880116e+01
1.630000e-06	-9.849055e-07	-5.133029e-10	-6.859844e+00	-3.793318e+01
1.640000e-06	-9.388490e-07	-4.994217e-10	-6.539062e+00	-3.705113e+01
1.650000e-06	-8.927055e-07	-4.837857e-10	-6.217673e+00	-3.615472e+01
1.660000e-06	-8.465235e-07	-4.668982e-10	-5.896017e+00	-3.524364e+01
1.670000e-06	-8.002794e-07	-4.508877e-10	-5.573928e+00	-3.431759e+01
1.680000e-06	-7.539448e-07	-4.374032e-10	-5.251208e+00	-3.337628e+01
1.690000e-06	-7.076455e-07	-4.239111e-10	-4.928734e+00	-3.241941e+01
1.700000e-06	-6.613386e-07	-4.110557e-10	-4.606208e+00	-3.144669e+01
1.710000e-06	-6.149724e-07	-3.948567e-10	-4.283269e+00	-3.045787e+01
1.720000e-06	-5.685514e-07	-3.773891e-10	-3.959948e+00	-2.945268e+01
1.730000e-06	-5.220297e-07	-3.604429e-10	-3.635925e+00	-2.843090e+01
1.740000e-06	-4.754221e-07	-3.446594e-10	-3.311304e+00	-2.739232e+01
1.750000e-06	-4.287892e-07	-3.299570e-10	-2.986507e+00	-2.633677e+01
1.760000e-06	-3.821498e-07	-3.156895e-10	-2.661665e+00	-2.526410e+01
1.770000e-06	-3.354442e-07	-2.995006e-10	-2.336361e+00	-2.417422e+01
1.780000e-06	-2.887560e-07	-2.852679e-10	-2.011179e+00	-2.306706e+01
1.790000e-06	-2.420404e-07	-2.706092e-10	-1.685806e+00	-2.194261e+01
1.800000e-06	-1.951916e-07	-2.523313e-10	-1.359505e+00	-2.080090e+01
1.810000e-06	-1.483837e-07	-2.317675e-10	-1.033489e+00	-1.964201e+01
1.820000e-06	-1.016804e-07	-2.123606e-10	-7.082017e-01	-1.846609e+01
1.830000e-06	-5.501109e-08	-1.945094e-10	-3.831509e-01	-1.727333e+01
1.840000e-06	-8.304393e-09	-1.780988e-10	-5.783991e-02	-1.606397e+01
1.850000e-06	3.844914e-08	-1.659807e-10	2.677973e-01	-1.483835e+01
1.860000e-06	8.519188e-08	-1.550060e-10	5.933595e-01	-1.359684e+01
1.870000e-06	1.318986e-07	-1.388185e-10	9.186706e-01	-1.233988e+01
1.880000e-06	1.786040e-07	-1.189972e-10	1.243973e+00	-1.106796e+01
1.890000e-06	2.252712e-07	-9.841652e-11	1.569009e+00	-9.781667e+00
1.900000e-06	2.719461e-07	-7.867233e-11	1.894099e+00	-8.481621e+00
1.910000e-06	3.185786e-07	-5.864910e-11	2.218893e+00	-7.168516e+00
1.920000e-06	3.651729e-07	-4.007987e-11	2.543421e+00	-5.843103e+00
1.930000e-06	4.117986e-07	-2.269820e-11	2.868168e+00	-4.506192e+00
1.940000e-06	4.583167e-07	-6.090752e-12	3.192165e+00	-3.158649e+00
1.950000e-06	5.047662e-07	8.979944e-12	3.515685e+00	-1.801392e+00
1.960000e-06	5.512254e-07	2.417310e-11	3.839272e+00	-4.353909e-01
1.970000e-06	5.976861e-07	4.075194e-11	4.162870e+00	9.383415e-01
1.980000e-06	6.440039e-07	5.879070e-11	4.485472e+00	2.318749e+00
1.990000e-06	6.902543e-07	8.046800e-11	4.807605e+00	3.704737e+00
2.000000e-06	7.365504e-07	1.020027e-10	5.130057e+00	5.095180e+00
2.010000e-06	7.828153e-07	1.208233e-10	5.452290e+00	6.488925e+00
2.020000e-06	8.290514e-07	1.399176e-10	5.774324e+00	7.884795e+00
2.030000e-06	8.752047e-07	1.582679e-10	6.095781e+00	9.281597e+00
2.040000e-06	9.212525e-07	1.748415e-10	6.416502e+00	1.067813e+01
2.050000e-06	9.672844e-07	1.907191e-10	6.737114e+00	1.207317e+01
2.060000e-06	1.013279e-06	2.098498e-10	7.057468e+00	1.346552e+01
2.070000e-06	1.059134e-06	2.308557e-10	7.376842e+00	1.485398e+01
2.080000e-06	1.104876e-06	2.523921e-10	7.695433e+00	1.623734e+01
2.090000e-06	1.150612e-06	2.734092e-10	8.013987e+00	1.761443e+01
2.100000e-06	1.196251e-06	2.934689e-10	8.331859e+00	1.898411e+01
2.110000e-06	1.241774e-06	3.121014e-10	8.648924e+00	2.034523e+01
2.120000e-06	1.287221e-06	3.302056e-10	8.965466e+00	2.169672e+01
2.130000e-06	1.332617e-06	3.466775e-10	9.281649e+00	2.303751e+01
2.140000e-06	1.377970e-06	3.632262e-10	9.597526e+00	2.436659e+01
2.150000e-06	1.423203e-06	3.831195e-10	9.912578e+00	2.568299e+01
2.160000e-06	1.468290e-06	4.013479e-10	1.022660e+01	2.698580e+01
2.170000e-06	1.513215e-06	4.202875e-10	1.053951e+01	2.827415e+01
2.180000e-06	1.558093e-06	4.368556e-10	1.085208e+01	2.954725e+01
2.190000e-06	1.602810e-06	4.510673e-10	1.116353e+01	3.080432e+01
2.200000e-06	1.647257e-06	4.671816e-10	1.147311e+01	3.204471e+01
2.210000e-06	1.691571e-06	4.829318e-10	1.178175e+01	3.326777e+01
2.220000e-06	1.735795e-06	5.027941e-10	1.208978e+01	3.447294e+01
2.230000e-06	1.779950e-06	5.219319e-10	1.239731e+01	3.565974e+01
2.240000e-06	1.824035e-06	5.378210e-10	1.270436e+01	3.682773e+01
2.250000e-06	1.868043e-06	5.496558e-10	1.301087e+01	3.797655e+01
2.260000e-06	1.911996e-06	5.612938e-10	1.331701e+01	3.910589e+01
2.270000e-06	1.955859e-06	5.722973e-10	1.362251e+01	4.021551e+01
2.280000e-06	1.999664e-06	5.872623e-10	1.392761e+01	4.130524e+01
2.290000e-06	2.043435e-06	6.042114e-10	1.423248e+01	4.237495e+01
2.300000e-06	2.087183e-06	6.188299e-10	1.453718e+01	4.342458e+01
2.310000e-06	2.130890e-06	6.329737e-10	1.484160e+01	4.445412e+01
2.320000e-06	2.174423e-06	6.462143e-10	1.514481e+01	4.546362e+01
2.330000e-06	2.217800e-06	6.591174e-10	1.544692e+01	4.645317e+01
2.340000e-06	2.260958e-06	6.694665e-10	1.574752e+01	4.742290e+01
2.350000e-06	2.303835e-06	6.818194e-10	1.604616e+01	4.837298e+01
2.360000e-06	2.346459e-06	6.960368e-10	1.634303e+01	4.930363e+01
2.370000e-06	2.388744e-06	7.075329e-10	1.663755e+01	5.021510e+01
2.380000e-06	2.430768e-06	7.193746e-10	1.693024e+01	5.110766e+01
2.390000e-06	2.472536e-06	7.321083e-10	1.722116e+01	5.198160e+01
2.400000e-06	2.513934e-06	7.454851e-10	1.750949e+01	5.283726e+01
2.410000e-06	2.554947e-06	7.599304e-10	1.779515e+01	5.367496e+01
2.420000e-06	2.595716e-06	7.746834e-10	1.807910e+01	5.449506e+01
2.430000e-06	2.636242e-06	7.896606e-10	1.836137e+01	5.529792e+01
2.440000e-06	2.676536e-06	8.022087e-10	1.864201e+01	5.608391e+01
2.450000e-06	2.716713e-06	8.137604e-10	1.892185e+01	5.685339e+01
2.460000e-06	2.756738e-06	8.235898e-10	1.920061e+01	5.760673e+01
2.470000e-06	2.796662e-06	8.332856e-10	1.947868e+01	5.834429e+01
2.480000e-06	2.836548e-06	8.445809e-10	1.975649e+01	5.906644e+01
2.490000e-06	2.876313e-06	8.550182e-10	2.003345e+01	5.977351e+01
2.500000e-06	2.915893e-06	8.651172e-10	2.030913e+01	6.046586e+01
2.510000e-06	2.955336e-06	8.778727e-10	2.058385e+01	6.114380e+01
2.520000e-06	2.994597e-06	8.904370e-10	2.085730e+01	6.180764e+01
2.530000e-06	3.033662e-06	8.993588e-10	2.112938e+01	6.245767e+01
2.540000e-06	3.072497e-06	9.052906e-10	2.139987e+01	6.309419e+01
2.550000e-06	3.111038e-06	9.115833e-10	2.166831e+01	6.371744e+01
2.560000e-06	3.149270e-06	9.195121e-10	2.193459e+01	6.432767e+01
2.570000e-06	3.187252e-06	9.293941e-10	2.219914e+01	6.492511e+01
2.580000e-06	3.225103e-06	9.387688e-10	2.246276e+01	6.550997e+01
2.590000e-06	3.262817e-06	9.452472e-10	2.272545e+01	6.608245e+01
2.600000e-06	3.300319e-06	9.506807e-10	2.298664e+01	6.664272e+01
2.610000e-06	3.337581e-06	9.567342e-10	2.324618e+01	6.719095e+01
2.620000e-06	3.374638e-06	9.635700e-10	2.350427e+01	6.772729e+01
2.630000e-06	3.411442e-06	9.705828e-10	2.376061e+01	6.825187e+01
2.640000e-06	3.447983e-06	9.769833e-10	2.401512e+01	6.876484e+01
2.650000e-06	3.484233e-06	9.834571e-10	2.426760e+01	6.926632e+01
2.660000e-06	3.520229e-06	9.883735e-10	2.451831e+01	6.975641e+01
2.670000e-06	3.556107e-06	9.939794e-10	2.476820e+01	7.023524e+01
2.680000e-06	3.591919e-06	9.984479e-10	2.501763e+01	7.070290e+01
2.690000e-06	3.627635e-06	1.003829e-09	2.526640e+01	7.115951e+01
2.700000e-06	3.663172e-06	1.011904e-09	2.551391e+01	7.160518e+01
2.710000e-06	3.698494e-06	1.019995e-09	2.575992e+01	7.204001e+01
2.720000e-06	3.733492e-06	1.028281e-09	2.600368e+01	7.246412e+01
2.730000e-06	3.768095e-06	1.034771e-09	2.624469e+01	7.287763e+01
2.740000e-06	3.802253e-06	1.041075e-09	2.648260e+01	7.328067e+01
2.750000e-06	3.835962e-06	1.045806e-09	2.671739e+01	7.367338e+01
2.760000e-06	3.869192e-06	1.049380e-09	2.694884e+01	7.405590e+01
2.770000e-06	3.901964e-06	1.052170e-09	2.717709e+01	7.442839e+01
2.780000e-06	3.934419e-06	1.057965e-09	2.740314e+01	7.479102e+01
2.790000e-06	3.966576e-06	1.066501e-09	2.762711e+01	7.514397e+01
2.800000e-06	3.998522e-06	1.075239e-09	2.784961e+01	7.548742e+01
2.810000e-06	4.030329e-06	1.082798e-09	2.807115e+01	7.582158e+01
2.820000e-06	4.062020e-06	1.089248e-09	2.829187e+01	7.614666e+01
2.830000e-06	4.093571e-06	1.093914e-09	2.851163e+01	7.646290e+01
2.840000e-06	4.124843e-06	1.095322e-09	2.872943e+01	7.677052e+01
2.850000e-06	4.155795e-06	1.098634e-09	2.894501e+01	7.706977e+01
2.860000e-06	4.186383e-06	1.101932e-09	2.915806e+01	7.736092e+01
2.870000e-06	4.216606e-06	1.104289e-09	2.936856e+01	7.764422e+01
2.880000e-06	4.246547e-06	1.107258e-09	2.957710e+01	7.791994e+01
2.890000e-06	4.276259e-06	1.112867e-09	2.978404e+01	7.818836e+01
2.900000e-06	4.305718e-06	1.121207e-09	2.998923e+01	7.844975e+01
