# Temperatura_=_-1.64
# Concentracion g/m^3_=_1620.0
# C_Vs_to_Am_M_A/Vsm_=_65563218390.804596
# pendiente_HvsI_1/m_=_3716.3
# ordenada_HvsI_A/m_=_1297.0
# frecuencia_Hz_=_135093.1746423905

Tiempo_(s)	Campo_(V.s)	Magnetizacion_(V.s)	Campo_(kA/m)	Magnetizacion_(A/m)
0.000000e+00	-5.541282e-06	-1.042364e-09	-3.837845e+01	-7.029490e+01
1.000000e-08	-5.541589e-06	-1.041606e-09	-3.838058e+01	-7.024688e+01
2.000000e-08	-5.541570e-06	-1.041942e-09	-3.838044e+01	-7.020055e+01
3.000000e-08	-5.541219e-06	-1.042871e-09	-3.837801e+01	-7.015598e+01
4.000000e-08	-5.540366e-06	-1.040672e-09	-3.837211e+01	-7.011318e+01
5.000000e-08	-5.538999e-06	-1.035418e-09	-3.836264e+01	-7.007216e+01
6.000000e-08	-5.537113e-06	-1.032464e-09	-3.834957e+01	-7.003287e+01
7.000000e-08	-5.534658e-06	-1.037934e-09	-3.833257e+01	-6.999526e+01
8.000000e-08	-5.531712e-06	-1.052423e-09	-3.831217e+01	-6.995922e+01
9.000000e-08	-5.528253e-06	-1.046964e-09	-3.828822e+01	-6.992464e+01
1.000000e-07	-5.524325e-06	-1.006166e-09	-3.826101e+01	-6.989136e+01
1.100000e-07	-5.520027e-06	-9.806305e-10	-3.823124e+01	-6.985921e+01
1.200000e-07	-5.515479e-06	-1.055911e-09	-3.819974e+01	-6.982799e+01
1.300000e-07	-5.510718e-06	-1.075650e-09	-3.816677e+01	-6.979747e+01
1.400000e-07	-5.505635e-06	-1.032113e-09	-3.813156e+01	-6.976741e+01
1.500000e-07	-5.500141e-06	-9.621879e-10	-3.809351e+01	-6.973754e+01
1.600000e-07	-5.494264e-06	-1.010357e-09	-3.805281e+01	-6.970757e+01
1.700000e-07	-5.487971e-06	-1.072879e-09	-3.800922e+01	-6.967721e+01
1.800000e-07	-5.481148e-06	-1.047489e-09	-3.796197e+01	-6.964614e+01
1.900000e-07	-5.473955e-06	-9.857212e-10	-3.791215e+01	-6.961405e+01
2.000000e-07	-5.466499e-06	-1.014719e-09	-3.786051e+01	-6.958059e+01
2.100000e-07	-5.458752e-06	-1.101424e-09	-3.780685e+01	-6.954544e+01
2.200000e-07	-5.450747e-06	-1.112237e-09	-3.775141e+01	-6.950825e+01
2.300000e-07	-5.442428e-06	-1.054399e-09	-3.769380e+01	-6.946869e+01
2.400000e-07	-5.433617e-06	-1.049155e-09	-3.763277e+01	-6.942643e+01
2.500000e-07	-5.424131e-06	-1.115131e-09	-3.756707e+01	-6.938113e+01
2.600000e-07	-5.414081e-06	-1.111276e-09	-3.749747e+01	-6.933247e+01
2.700000e-07	-5.403533e-06	-1.066010e-09	-3.742441e+01	-6.928015e+01
2.800000e-07	-5.392471e-06	-1.054484e-09	-3.734780e+01	-6.922387e+01
2.900000e-07	-5.380885e-06	-1.097829e-09	-3.726756e+01	-6.916335e+01
3.000000e-07	-5.368884e-06	-1.081456e-09	-3.718443e+01	-6.909833e+01
3.100000e-07	-5.356527e-06	-1.055254e-09	-3.709885e+01	-6.902856e+01
3.200000e-07	-5.343716e-06	-1.061550e-09	-3.701012e+01	-6.895383e+01
3.300000e-07	-5.330528e-06	-1.102120e-09	-3.691878e+01	-6.887395e+01
3.400000e-07	-5.317020e-06	-1.070658e-09	-3.682523e+01	-6.878873e+01
3.500000e-07	-5.303130e-06	-1.042160e-09	-3.672903e+01	-6.869803e+01
3.600000e-07	-5.288796e-06	-1.046896e-09	-3.662976e+01	-6.860175e+01
3.700000e-07	-5.273950e-06	-1.076715e-09	-3.652693e+01	-6.849977e+01
3.800000e-07	-5.258594e-06	-1.047406e-09	-3.642058e+01	-6.839205e+01
3.900000e-07	-5.242750e-06	-1.047884e-09	-3.631084e+01	-6.827854e+01
4.000000e-07	-5.226457e-06	-1.070682e-09	-3.619800e+01	-6.815925e+01
4.100000e-07	-5.209791e-06	-1.056461e-09	-3.608257e+01	-6.803419e+01
4.200000e-07	-5.192702e-06	-1.021766e-09	-3.596422e+01	-6.790342e+01
4.300000e-07	-5.175266e-06	-1.046677e-09	-3.584345e+01	-6.776700e+01
4.400000e-07	-5.157568e-06	-1.066410e-09	-3.572088e+01	-6.762505e+01
4.500000e-07	-5.139536e-06	-1.016251e-09	-3.559599e+01	-6.747769e+01
4.600000e-07	-5.121038e-06	-1.007421e-09	-3.546788e+01	-6.732508e+01
4.700000e-07	-5.102098e-06	-1.052856e-09	-3.533670e+01	-6.716738e+01
4.800000e-07	-5.082877e-06	-1.041256e-09	-3.520358e+01	-6.700478e+01
4.900000e-07	-5.063393e-06	-1.005302e-09	-3.506863e+01	-6.683751e+01
5.000000e-07	-5.043733e-06	-1.035571e-09	-3.493247e+01	-6.666579e+01
5.100000e-07	-5.023846e-06	-1.033411e-09	-3.479474e+01	-6.648987e+01
5.200000e-07	-5.003631e-06	-9.915148e-10	-3.465472e+01	-6.630999e+01
5.300000e-07	-4.983070e-06	-1.008420e-09	-3.451232e+01	-6.612642e+01
5.400000e-07	-4.962145e-06	-1.038905e-09	-3.436740e+01	-6.593945e+01
5.500000e-07	-4.940765e-06	-9.918207e-10	-3.421932e+01	-6.574934e+01
5.600000e-07	-4.919018e-06	-9.866337e-10	-3.406871e+01	-6.555637e+01
5.700000e-07	-4.897127e-06	-1.027662e-09	-3.391709e+01	-6.536084e+01
5.800000e-07	-4.874927e-06	-1.011097e-09	-3.376333e+01	-6.516303e+01
5.900000e-07	-4.852197e-06	-9.721716e-10	-3.360590e+01	-6.496320e+01
6.000000e-07	-4.829096e-06	-9.981013e-10	-3.344591e+01	-6.476164e+01
6.100000e-07	-4.805775e-06	-9.939462e-10	-3.328439e+01	-6.455862e+01
6.200000e-07	-4.782176e-06	-9.637468e-10	-3.312095e+01	-6.435437e+01
6.300000e-07	-4.758345e-06	-9.768777e-10	-3.295590e+01	-6.414916e+01
6.400000e-07	-4.734283e-06	-9.960637e-10	-3.278924e+01	-6.394321e+01
6.500000e-07	-4.709842e-06	-9.752425e-10	-3.261997e+01	-6.373673e+01
6.600000e-07	-4.684954e-06	-9.808237e-10	-3.244760e+01	-6.352993e+01
6.700000e-07	-4.659581e-06	-9.897983e-10	-3.227186e+01	-6.332299e+01
6.800000e-07	-4.633698e-06	-9.672652e-10	-3.209260e+01	-6.311607e+01
6.900000e-07	-4.607231e-06	-9.590517e-10	-3.190929e+01	-6.290931e+01
7.000000e-07	-4.580230e-06	-9.757781e-10	-3.172228e+01	-6.270284e+01
7.100000e-07	-4.552943e-06	-9.633359e-10	-3.153330e+01	-6.249676e+01
7.200000e-07	-4.525439e-06	-9.575898e-10	-3.134281e+01	-6.229115e+01
7.300000e-07	-4.497754e-06	-9.724956e-10	-3.115106e+01	-6.208606e+01
7.400000e-07	-4.469884e-06	-9.674557e-10	-3.095804e+01	-6.188154e+01
7.500000e-07	-4.441804e-06	-9.550591e-10	-3.076356e+01	-6.167760e+01
7.600000e-07	-4.413486e-06	-9.569950e-10	-3.056743e+01	-6.147422e+01
7.700000e-07	-4.384867e-06	-9.482227e-10	-3.036922e+01	-6.127139e+01
7.800000e-07	-4.355893e-06	-9.343483e-10	-3.016855e+01	-6.106905e+01
7.900000e-07	-4.326560e-06	-9.404472e-10	-2.996539e+01	-6.086712e+01
8.000000e-07	-4.296929e-06	-9.398446e-10	-2.976017e+01	-6.066553e+01
8.100000e-07	-4.267027e-06	-9.287469e-10	-2.955306e+01	-6.046416e+01
8.200000e-07	-4.236787e-06	-9.319777e-10	-2.934363e+01	-6.026288e+01
8.300000e-07	-4.206294e-06	-9.410345e-10	-2.913243e+01	-6.006155e+01
8.400000e-07	-4.175588e-06	-9.279577e-10	-2.891977e+01	-5.986002e+01
8.500000e-07	-4.144538e-06	-9.214983e-10	-2.870472e+01	-5.965810e+01
8.600000e-07	-4.113241e-06	-9.227062e-10	-2.848796e+01	-5.945562e+01
8.700000e-07	-4.081780e-06	-9.132425e-10	-2.827006e+01	-5.925237e+01
8.800000e-07	-4.050148e-06	-9.016147e-10	-2.805098e+01	-5.904814e+01
8.900000e-07	-4.018321e-06	-9.070928e-10	-2.783055e+01	-5.884272e+01
9.000000e-07	-3.986179e-06	-9.053279e-10	-2.760794e+01	-5.863587e+01
9.100000e-07	-3.953733e-06	-8.968923e-10	-2.738322e+01	-5.842737e+01
9.200000e-07	-3.920959e-06	-8.960044e-10	-2.715623e+01	-5.821698e+01
9.300000e-07	-3.887769e-06	-8.984232e-10	-2.692636e+01	-5.800446e+01
9.400000e-07	-3.854087e-06	-8.848531e-10	-2.669308e+01	-5.778956e+01
9.500000e-07	-3.819826e-06	-8.784278e-10	-2.645579e+01	-5.757203e+01
9.600000e-07	-3.785244e-06	-8.813410e-10	-2.621628e+01	-5.735164e+01
9.700000e-07	-3.750353e-06	-8.769976e-10	-2.597463e+01	-5.712813e+01
9.800000e-07	-3.715092e-06	-8.690013e-10	-2.573041e+01	-5.690127e+01
9.900000e-07	-3.679596e-06	-8.723077e-10	-2.548457e+01	-5.667081e+01
1.000000e-06	-3.643945e-06	-8.689280e-10	-2.523766e+01	-5.643652e+01
1.010000e-06	-3.608205e-06	-8.560419e-10	-2.499012e+01	-5.619817e+01
1.020000e-06	-3.572307e-06	-8.516595e-10	-2.474150e+01	-5.595554e+01
1.030000e-06	-3.536230e-06	-8.519807e-10	-2.449163e+01	-5.570841e+01
1.040000e-06	-3.499963e-06	-8.452637e-10	-2.424044e+01	-5.545657e+01
1.050000e-06	-3.463497e-06	-8.396945e-10	-2.398788e+01	-5.519982e+01
1.060000e-06	-3.426720e-06	-8.338359e-10	-2.373318e+01	-5.493797e+01
1.070000e-06	-3.389603e-06	-8.215077e-10	-2.347611e+01	-5.467083e+01
1.080000e-06	-3.352244e-06	-8.135128e-10	-2.321736e+01	-5.439824e+01
1.090000e-06	-3.314642e-06	-8.124796e-10	-2.295693e+01	-5.412001e+01
1.100000e-06	-3.276779e-06	-8.089267e-10	-2.269469e+01	-5.383600e+01
1.110000e-06	-3.238767e-06	-7.999953e-10	-2.243142e+01	-5.354607e+01
1.120000e-06	-3.200564e-06	-7.947728e-10	-2.216683e+01	-5.325008e+01
1.130000e-06	-3.162078e-06	-7.881676e-10	-2.190028e+01	-5.294790e+01
1.140000e-06	-3.123406e-06	-7.794449e-10	-2.163245e+01	-5.263941e+01
1.150000e-06	-3.084523e-06	-7.710543e-10	-2.136315e+01	-5.232452e+01
1.160000e-06	-3.045403e-06	-7.647766e-10	-2.109220e+01	-5.200312e+01
1.170000e-06	-3.006109e-06	-7.570053e-10	-2.082006e+01	-5.167513e+01
1.180000e-06	-2.966697e-06	-7.530040e-10	-2.054709e+01	-5.134047e+01
1.190000e-06	-2.927144e-06	-7.519147e-10	-2.027315e+01	-5.099906e+01
1.200000e-06	-2.887374e-06	-7.489014e-10	-1.999770e+01	-5.065085e+01
1.210000e-06	-2.847484e-06	-7.416880e-10	-1.972143e+01	-5.029578e+01
1.220000e-06	-2.807519e-06	-7.358832e-10	-1.944464e+01	-4.993380e+01
1.230000e-06	-2.767338e-06	-7.282084e-10	-1.916635e+01	-4.956487e+01
1.240000e-06	-2.726945e-06	-7.212504e-10	-1.888659e+01	-4.918895e+01
1.250000e-06	-2.686337e-06	-7.152108e-10	-1.860534e+01	-4.880600e+01
1.260000e-06	-2.645459e-06	-7.111266e-10	-1.832223e+01	-4.841601e+01
1.270000e-06	-2.604354e-06	-7.061386e-10	-1.803754e+01	-4.801894e+01
1.280000e-06	-2.562951e-06	-7.011128e-10	-1.775078e+01	-4.761477e+01
1.290000e-06	-2.521178e-06	-6.954616e-10	-1.746147e+01	-4.720348e+01
1.300000e-06	-2.479000e-06	-6.878859e-10	-1.716934e+01	-4.678505e+01
1.310000e-06	-2.436541e-06	-6.788489e-10	-1.687528e+01	-4.635945e+01
1.320000e-06	-2.393887e-06	-6.708701e-10	-1.657986e+01	-4.592667e+01
1.330000e-06	-2.351028e-06	-6.633978e-10	-1.628302e+01	-4.548669e+01
1.340000e-06	-2.308002e-06	-6.576826e-10	-1.598503e+01	-4.503946e+01
1.350000e-06	-2.264758e-06	-6.522893e-10	-1.568552e+01	-4.458497e+01
1.360000e-06	-2.221341e-06	-6.433377e-10	-1.538482e+01	-4.412318e+01
1.370000e-06	-2.177796e-06	-6.343953e-10	-1.508323e+01	-4.365404e+01
1.380000e-06	-2.134179e-06	-6.262220e-10	-1.478114e+01	-4.317752e+01
1.390000e-06	-2.090470e-06	-6.166464e-10	-1.447842e+01	-4.269355e+01
1.400000e-06	-2.046634e-06	-6.066391e-10	-1.417482e+01	-4.220207e+01
1.410000e-06	-2.002680e-06	-5.991181e-10	-1.387039e+01	-4.170302e+01
1.420000e-06	-1.958623e-06	-5.921649e-10	-1.356526e+01	-4.119631e+01
1.430000e-06	-1.914489e-06	-5.852979e-10	-1.325959e+01	-4.068185e+01
1.440000e-06	-1.870264e-06	-5.777060e-10	-1.295329e+01	-4.015955e+01
1.450000e-06	-1.825964e-06	-5.695821e-10	-1.264647e+01	-3.962928e+01
1.460000e-06	-1.781522e-06	-5.579592e-10	-1.233867e+01	-3.909094e+01
1.470000e-06	-1.736907e-06	-5.452927e-10	-1.202967e+01	-3.854437e+01
1.480000e-06	-1.692125e-06	-5.342157e-10	-1.171951e+01	-3.798945e+01
1.490000e-06	-1.647154e-06	-5.236093e-10	-1.140805e+01	-3.742599e+01
1.500000e-06	-1.602063e-06	-5.149358e-10	-1.109575e+01	-3.685385e+01
1.510000e-06	-1.556897e-06	-5.080956e-10	-1.078294e+01	-3.627282e+01
1.520000e-06	-1.511565e-06	-4.979849e-10	-1.046897e+01	-3.568273e+01
1.530000e-06	-1.466071e-06	-4.867685e-10	-1.015388e+01	-3.508335e+01
1.540000e-06	-1.420536e-06	-4.744654e-10	-9.838515e+00	-3.447447e+01
1.550000e-06	-1.374931e-06	-4.626219e-10	-9.522659e+00	-3.385587e+01
1.560000e-06	-1.329300e-06	-4.496407e-10	-9.206616e+00	-3.322731e+01
1.570000e-06	-1.283629e-06	-4.378873e-10	-8.890306e+00	-3.258853e+01
1.580000e-06	-1.237825e-06	-4.287389e-10	-8.573068e+00	-3.193929e+01
1.590000e-06	-1.191927e-06	-4.193630e-10	-8.255188e+00	-3.127932e+01
1.600000e-06	-1.145984e-06	-4.086925e-10	-7.936987e+00	-3.060836e+01
1.610000e-06	-1.099939e-06	-3.982944e-10	-7.618082e+00	-2.992614e+01
1.620000e-06	-1.053741e-06	-3.870664e-10	-7.298118e+00	-2.923238e+01
1.630000e-06	-1.007460e-06	-3.759335e-10	-6.977582e+00	-2.852681e+01
1.640000e-06	-9.611261e-07	-3.632163e-10	-6.656678e+00	-2.780916e+01
1.650000e-06	-9.146438e-07	-3.469285e-10	-6.334746e+00	-2.707916e+01
1.660000e-06	-8.681574e-07	-3.326707e-10	-6.012784e+00	-2.633655e+01
1.670000e-06	-8.216137e-07	-3.203255e-10	-5.690427e+00	-2.558107e+01
1.680000e-06	-7.749712e-07	-3.116565e-10	-5.367385e+00	-2.481249e+01
1.690000e-06	-7.284093e-07	-3.037637e-10	-5.044901e+00	-2.403055e+01
1.700000e-06	-6.817754e-07	-2.946592e-10	-4.721918e+00	-2.323505e+01
1.710000e-06	-6.350821e-07	-2.802812e-10	-4.398525e+00	-2.242578e+01
1.720000e-06	-5.884034e-07	-2.633488e-10	-4.075232e+00	-2.160256e+01
1.730000e-06	-5.416272e-07	-2.474301e-10	-3.751264e+00	-2.076522e+01
1.740000e-06	-4.947319e-07	-2.319288e-10	-3.426471e+00	-1.991364e+01
1.750000e-06	-4.478865e-07	-2.197769e-10	-3.102024e+00	-1.904770e+01
1.760000e-06	-4.010149e-07	-2.103527e-10	-2.777395e+00	-1.816731e+01
1.770000e-06	-3.540276e-07	-1.990560e-10	-2.451965e+00	-1.727243e+01
1.780000e-06	-3.069474e-07	-1.869149e-10	-2.125892e+00	-1.636304e+01
1.790000e-06	-2.598251e-07	-1.737148e-10	-1.799526e+00	-1.543916e+01
1.800000e-06	-2.127256e-07	-1.576052e-10	-1.473319e+00	-1.450083e+01
1.810000e-06	-1.655995e-07	-1.411428e-10	-1.146928e+00	-1.354817e+01
1.820000e-06	-1.185535e-07	-1.255037e-10	-8.210912e-01	-1.258130e+01
1.830000e-06	-7.151875e-08	-1.118645e-10	-4.953328e-01	-1.160040e+01
1.840000e-06	-2.450213e-08	-9.924083e-11	-1.696997e-01	-1.060568e+01
1.850000e-06	2.242560e-08	-8.602972e-11	1.553178e-01	-9.597425e+00
1.860000e-06	6.933295e-08	-7.307414e-11	4.801941e-01	-8.575932e+00
1.870000e-06	1.163488e-07	-5.747765e-11	8.058222e-01	-7.541559e+00
1.880000e-06	1.634752e-07	-4.112901e-11	1.132215e+00	-6.494708e+00
1.890000e-06	2.105874e-07	-2.597709e-11	1.458511e+00	-5.435826e+00
1.900000e-06	2.576323e-07	-1.000463e-11	1.784339e+00	-4.365406e+00
1.910000e-06	3.046589e-07	5.168456e-12	2.110042e+00	-3.283987e+00
1.920000e-06	3.516913e-07	1.971975e-11	2.435784e+00	-2.192149e+00
1.930000e-06	3.986296e-07	3.354168e-11	2.760875e+00	-1.090519e+00
1.940000e-06	4.456290e-07	4.707950e-11	3.086389e+00	2.023749e-02
1.950000e-06	4.926250e-07	5.799988e-11	3.411879e+00	1.139414e+00
1.960000e-06	5.394875e-07	6.894248e-11	3.736445e+00	2.266267e+00
1.970000e-06	5.862334e-07	8.175338e-11	4.060203e+00	3.400016e+00
1.980000e-06	6.329065e-07	9.722937e-11	4.383457e+00	4.539849e+00
1.990000e-06	6.794711e-07	1.146079e-10	4.705959e+00	5.684924e+00
2.000000e-06	7.259899e-07	1.319209e-10	5.028145e+00	6.834369e+00
2.010000e-06	7.725563e-07	1.475490e-10	5.350659e+00	7.987292e+00
2.020000e-06	8.190450e-07	1.614406e-10	5.672636e+00	9.142778e+00
2.030000e-06	8.654765e-07	1.751089e-10	5.994217e+00	1.029989e+01
2.040000e-06	9.118555e-07	1.886363e-10	6.315434e+00	1.145770e+01
2.050000e-06	9.581645e-07	2.023197e-10	6.636166e+00	1.261523e+01
2.060000e-06	1.004310e-06	2.171198e-10	6.955765e+00	1.377154e+01
2.070000e-06	1.050360e-06	2.325590e-10	7.274705e+00	1.492566e+01
2.080000e-06	1.096440e-06	2.492582e-10	7.593850e+00	1.607662e+01
2.090000e-06	1.142491e-06	2.653245e-10	7.912798e+00	1.722349e+01
2.100000e-06	1.188476e-06	2.806410e-10	8.231285e+00	1.836532e+01
2.110000e-06	1.234268e-06	2.956808e-10	8.548433e+00	1.950117e+01
2.120000e-06	1.279901e-06	3.087505e-10	8.864489e+00	2.063015e+01
2.130000e-06	1.325513e-06	3.230663e-10	9.180391e+00	2.175137e+01
2.140000e-06	1.371096e-06	3.377206e-10	9.496097e+00	2.286396e+01
2.150000e-06	1.416616e-06	3.519748e-10	9.811362e+00	2.396709e+01
2.160000e-06	1.462044e-06	3.667806e-10	1.012599e+01	2.505997e+01
2.170000e-06	1.507392e-06	3.837029e-10	1.044007e+01	2.614183e+01
2.180000e-06	1.552539e-06	4.011868e-10	1.075275e+01	2.721195e+01
2.190000e-06	1.597516e-06	4.161462e-10	1.106426e+01	2.826965e+01
2.200000e-06	1.642416e-06	4.303291e-10	1.137523e+01	2.931428e+01
2.210000e-06	1.687196e-06	4.441302e-10	1.168537e+01	3.034526e+01
2.220000e-06	1.731893e-06	4.578545e-10	1.199494e+01	3.136204e+01
2.230000e-06	1.776486e-06	4.720763e-10	1.230379e+01	3.236412e+01
2.240000e-06	1.820882e-06	4.867682e-10	1.261127e+01	3.335105e+01
2.250000e-06	1.865146e-06	5.008055e-10	1.291784e+01	3.432244e+01
2.260000e-06	1.909286e-06	5.114940e-10	1.322355e+01	3.527793e+01
2.270000e-06	1.953237e-06	5.229032e-10	1.352795e+01	3.621724e+01
2.280000e-06	1.997075e-06	5.345267e-10	1.383157e+01	3.714012e+01
2.290000e-06	2.040856e-06	5.452695e-10	1.413480e+01	3.804638e+01
2.300000e-06	2.084620e-06	5.558230e-10	1.443790e+01	3.893586e+01
2.310000e-06	2.128335e-06	5.671286e-10	1.474067e+01	3.980846e+01
2.320000e-06	2.171943e-06	5.792331e-10	1.504269e+01	4.066415e+01
2.330000e-06	2.215469e-06	5.898172e-10	1.534415e+01	4.150290e+01
2.340000e-06	2.258927e-06	5.993710e-10	1.564513e+01	4.232476e+01
2.350000e-06	2.302258e-06	6.110370e-10	1.594525e+01	4.312979e+01
2.360000e-06	2.345422e-06	6.220880e-10	1.624419e+01	4.391812e+01
2.370000e-06	2.388406e-06	6.318786e-10	1.654190e+01	4.468987e+01
2.380000e-06	2.431142e-06	6.428261e-10	1.683789e+01	4.544524e+01
2.390000e-06	2.473584e-06	6.532457e-10	1.713184e+01	4.618443e+01
2.400000e-06	2.515814e-06	6.641407e-10	1.742432e+01	4.690767e+01
2.410000e-06	2.557704e-06	6.747802e-10	1.771444e+01	4.761522e+01
2.420000e-06	2.599157e-06	6.853358e-10	1.800154e+01	4.830734e+01
2.430000e-06	2.640273e-06	6.951975e-10	1.828631e+01	4.898433e+01
2.440000e-06	2.681094e-06	7.046173e-10	1.856903e+01	4.964649e+01
2.450000e-06	2.721701e-06	7.150541e-10	1.885027e+01	5.029413e+01
2.460000e-06	2.762129e-06	7.268030e-10	1.913027e+01	5.092756e+01
2.470000e-06	2.802396e-06	7.378262e-10	1.940916e+01	5.154711e+01
2.480000e-06	2.842454e-06	7.467945e-10	1.968659e+01	5.215310e+01
2.490000e-06	2.882311e-06	7.545390e-10	1.996264e+01	5.274583e+01
2.500000e-06	2.922035e-06	7.620039e-10	2.023777e+01	5.332563e+01
2.510000e-06	2.961592e-06	7.680109e-10	2.051173e+01	5.389280e+01
2.520000e-06	3.000978e-06	7.735661e-10	2.078452e+01	5.444763e+01
2.530000e-06	3.040212e-06	7.820359e-10	2.105625e+01	5.499041e+01
2.540000e-06	3.079306e-06	7.906162e-10	2.132701e+01	5.552139e+01
2.550000e-06	3.118139e-06	7.954198e-10	2.159597e+01	5.604085e+01
2.560000e-06	3.156684e-06	8.006693e-10	2.186293e+01	5.654900e+01
2.570000e-06	3.195054e-06	8.090680e-10	2.212867e+01	5.704609e+01
2.580000e-06	3.233272e-06	8.162265e-10	2.239337e+01	5.753230e+01
2.590000e-06	3.271220e-06	8.209326e-10	2.265619e+01	5.800782e+01
2.600000e-06	3.308858e-06	8.258758e-10	2.291687e+01	5.847282e+01
2.610000e-06	3.346319e-06	8.318345e-10	2.317632e+01	5.892745e+01
2.620000e-06	3.383674e-06	8.390579e-10	2.343504e+01	5.937184e+01
2.630000e-06	3.420812e-06	8.464184e-10	2.369226e+01	5.980611e+01
2.640000e-06	3.457574e-06	8.516617e-10	2.394686e+01	6.023034e+01
2.650000e-06	3.493983e-06	8.545426e-10	2.419903e+01	6.064463e+01
2.660000e-06	3.530248e-06	8.585141e-10	2.445020e+01	6.104905e+01
2.670000e-06	3.566440e-06	8.638474e-10	2.470086e+01	6.144365e+01
2.680000e-06	3.602447e-06	8.680267e-10	2.495024e+01	6.182848e+01
2.690000e-06	3.638254e-06	8.720991e-10	2.519824e+01	6.220358e+01
2.700000e-06	3.673879e-06	8.765144e-10	2.544498e+01	6.256897e+01
2.710000e-06	3.709320e-06	8.812448e-10	2.569044e+01	6.292470e+01
2.720000e-06	3.744543e-06	8.872698e-10	2.593438e+01	6.327077e+01
2.730000e-06	3.779535e-06	8.963707e-10	2.617674e+01	6.360722e+01
2.740000e-06	3.814170e-06	9.044162e-10	2.641662e+01	6.393406e+01
2.750000e-06	3.848352e-06	9.084938e-10	2.665336e+01	6.425133e+01
2.760000e-06	3.882150e-06	9.102993e-10	2.688744e+01	6.455905e+01
2.770000e-06	3.915513e-06	9.116113e-10	2.711851e+01	6.485726e+01
2.780000e-06	3.948380e-06	9.161511e-10	2.734615e+01	6.514601e+01
2.790000e-06	3.980859e-06	9.240166e-10	2.757109e+01	6.542536e+01
2.800000e-06	4.013054e-06	9.329137e-10	2.779407e+01	6.569537e+01
2.810000e-06	4.045010e-06	9.407654e-10	2.801539e+01	6.595612e+01
2.820000e-06	4.076757e-06	9.470062e-10	2.823527e+01	6.620772e+01
2.830000e-06	4.108314e-06	9.511807e-10	2.845384e+01	6.645026e+01
2.840000e-06	4.139657e-06	9.530354e-10	2.867092e+01	6.668387e+01
2.850000e-06	4.170768e-06	9.533855e-10	2.888639e+01	6.690870e+01
2.860000e-06	4.201544e-06	9.566396e-10	2.909954e+01	6.712490e+01
2.870000e-06	4.231954e-06	9.623534e-10	2.931015e+01	6.733265e+01
2.880000e-06	4.262087e-06	9.654765e-10	2.951885e+01	6.753213e+01
2.890000e-06	4.291994e-06	9.710637e-10	2.972599e+01	6.772355e+01
2.900000e-06	4.321701e-06	9.774359e-10	2.993173e+01	6.790713e+01
