# Temperatura_=_13.66
# Concentracion g/m^3_=_1620.0
# C_Vs_to_Am_M_A/Vsm_=_65563218390.804596
# pendiente_HvsI_1/m_=_3716.3
# ordenada_HvsI_A/m_=_1297.0
# frecuencia_Hz_=_135100.64596563898

Tiempo_(s)	Campo_(V.s)	Magnetizacion_(V.s)	Campo_(kA/m)	Magnetizacion_(A/m)
0.000000e+00	-5.518663e-06	-7.801159e-10	-3.837093e+01	-5.180640e+01
1.000000e-08	-5.518863e-06	-7.771273e-10	-3.837232e+01	-5.179826e+01
2.000000e-08	-5.518700e-06	-7.785834e-10	-3.837119e+01	-5.178930e+01
3.000000e-08	-5.518100e-06	-7.805888e-10	-3.836702e+01	-5.177944e+01
4.000000e-08	-5.516906e-06	-7.821904e-10	-3.835871e+01	-5.176860e+01
5.000000e-08	-5.515079e-06	-7.837306e-10	-3.834601e+01	-5.175668e+01
6.000000e-08	-5.512791e-06	-7.891824e-10	-3.833010e+01	-5.174360e+01
7.000000e-08	-5.510057e-06	-7.936210e-10	-3.831109e+01	-5.172926e+01
8.000000e-08	-5.506819e-06	-7.829678e-10	-3.828858e+01	-5.171359e+01
9.000000e-08	-5.503113e-06	-7.493654e-10	-3.826282e+01	-5.169648e+01
1.000000e-07	-5.499015e-06	-7.326688e-10	-3.823432e+01	-5.167787e+01
1.100000e-07	-5.494633e-06	-7.662564e-10	-3.820385e+01	-5.165766e+01
1.200000e-07	-5.490014e-06	-7.792343e-10	-3.817174e+01	-5.163578e+01
1.300000e-07	-5.485129e-06	-7.889357e-10	-3.813777e+01	-5.161216e+01
1.400000e-07	-5.479837e-06	-7.448194e-10	-3.810098e+01	-5.158674e+01
1.500000e-07	-5.474177e-06	-7.489415e-10	-3.806162e+01	-5.155945e+01
1.600000e-07	-5.468237e-06	-7.755374e-10	-3.802032e+01	-5.153025e+01
1.700000e-07	-5.461829e-06	-7.695254e-10	-3.797577e+01	-5.149909e+01
1.800000e-07	-5.454956e-06	-7.530828e-10	-3.792798e+01	-5.146594e+01
1.900000e-07	-5.447716e-06	-7.259553e-10	-3.787764e+01	-5.143077e+01
2.000000e-07	-5.440206e-06	-7.831054e-10	-3.782543e+01	-5.139356e+01
2.100000e-07	-5.432406e-06	-7.783582e-10	-3.777119e+01	-5.135430e+01
2.200000e-07	-5.424265e-06	-7.595108e-10	-3.771459e+01	-5.131298e+01
2.300000e-07	-5.415846e-06	-7.165306e-10	-3.765605e+01	-5.126962e+01
2.400000e-07	-5.406969e-06	-7.506663e-10	-3.759433e+01	-5.122422e+01
2.500000e-07	-5.397413e-06	-7.525399e-10	-3.752789e+01	-5.117680e+01
2.600000e-07	-5.387169e-06	-7.584631e-10	-3.745666e+01	-5.112740e+01
2.700000e-07	-5.376378e-06	-7.395267e-10	-3.738164e+01	-5.107603e+01
2.800000e-07	-5.365173e-06	-7.543358e-10	-3.730372e+01	-5.102274e+01
2.900000e-07	-5.353555e-06	-7.503165e-10	-3.722295e+01	-5.096757e+01
3.000000e-07	-5.341519e-06	-7.434461e-10	-3.713926e+01	-5.091056e+01
3.100000e-07	-5.329089e-06	-7.454654e-10	-3.705284e+01	-5.085176e+01
3.200000e-07	-5.316238e-06	-7.551510e-10	-3.696348e+01	-5.079122e+01
3.300000e-07	-5.303004e-06	-7.598715e-10	-3.687147e+01	-5.072900e+01
3.400000e-07	-5.289312e-06	-7.413458e-10	-3.677627e+01	-5.066514e+01
3.500000e-07	-5.275107e-06	-7.453090e-10	-3.667750e+01	-5.059969e+01
3.600000e-07	-5.260603e-06	-7.407343e-10	-3.657666e+01	-5.053271e+01
3.700000e-07	-5.245783e-06	-7.507099e-10	-3.647362e+01	-5.046424e+01
3.800000e-07	-5.230488e-06	-7.503344e-10	-3.636727e+01	-5.039432e+01
3.900000e-07	-5.214605e-06	-7.608254e-10	-3.625684e+01	-5.032301e+01
4.000000e-07	-5.198141e-06	-7.450161e-10	-3.614236e+01	-5.025034e+01
4.100000e-07	-5.181365e-06	-7.497108e-10	-3.602572e+01	-5.017635e+01
4.200000e-07	-5.164312e-06	-7.464172e-10	-3.590715e+01	-5.010106e+01
4.300000e-07	-5.146944e-06	-7.529454e-10	-3.578639e+01	-5.002450e+01
4.400000e-07	-5.129202e-06	-7.394067e-10	-3.566303e+01	-4.994669e+01
4.500000e-07	-5.110989e-06	-7.542195e-10	-3.553640e+01	-4.986765e+01
4.600000e-07	-5.092400e-06	-7.448352e-10	-3.540715e+01	-4.978738e+01
4.700000e-07	-5.073544e-06	-7.473801e-10	-3.527605e+01	-4.970590e+01
4.800000e-07	-5.054359e-06	-7.427007e-10	-3.514265e+01	-4.962321e+01
4.900000e-07	-5.034813e-06	-7.461582e-10	-3.500675e+01	-4.953929e+01
5.000000e-07	-5.015008e-06	-7.222703e-10	-3.486905e+01	-4.945415e+01
5.100000e-07	-4.994978e-06	-7.310002e-10	-3.472978e+01	-4.936776e+01
5.200000e-07	-4.974638e-06	-7.359344e-10	-3.458836e+01	-4.928012e+01
5.300000e-07	-4.953944e-06	-7.333803e-10	-3.444447e+01	-4.919121e+01
5.400000e-07	-4.932956e-06	-7.237783e-10	-3.429855e+01	-4.910100e+01
5.500000e-07	-4.911654e-06	-7.365774e-10	-3.415043e+01	-4.900947e+01
5.600000e-07	-4.889938e-06	-7.310159e-10	-3.399944e+01	-4.891661e+01
5.700000e-07	-4.867895e-06	-7.276713e-10	-3.384618e+01	-4.882238e+01
5.800000e-07	-4.845522e-06	-7.298592e-10	-3.369062e+01	-4.872677e+01
5.900000e-07	-4.822732e-06	-7.235630e-10	-3.353216e+01	-4.862974e+01
6.000000e-07	-4.799642e-06	-7.139138e-10	-3.337162e+01	-4.853129e+01
6.100000e-07	-4.776315e-06	-7.213447e-10	-3.320943e+01	-4.843138e+01
6.200000e-07	-4.752767e-06	-7.208507e-10	-3.304570e+01	-4.833001e+01
6.300000e-07	-4.728973e-06	-7.060998e-10	-3.288026e+01	-4.822715e+01
6.400000e-07	-4.704845e-06	-7.125110e-10	-3.271251e+01	-4.812280e+01
6.500000e-07	-4.680313e-06	-7.169949e-10	-3.254194e+01	-4.801695e+01
6.600000e-07	-4.655368e-06	-7.094360e-10	-3.236849e+01	-4.790960e+01
6.700000e-07	-4.629921e-06	-7.054831e-10	-3.219156e+01	-4.780073e+01
6.800000e-07	-4.603991e-06	-7.158604e-10	-3.201127e+01	-4.769037e+01
6.900000e-07	-4.577552e-06	-7.036825e-10	-3.182744e+01	-4.757851e+01
7.000000e-07	-4.550600e-06	-7.008336e-10	-3.164004e+01	-4.746517e+01
7.100000e-07	-4.523319e-06	-7.025928e-10	-3.145036e+01	-4.735036e+01
7.200000e-07	-4.495797e-06	-7.025829e-10	-3.125901e+01	-4.723410e+01
7.300000e-07	-4.468046e-06	-6.931736e-10	-3.106606e+01	-4.711640e+01
7.400000e-07	-4.440104e-06	-7.066961e-10	-3.087177e+01	-4.699728e+01
7.500000e-07	-4.411998e-06	-7.072693e-10	-3.067636e+01	-4.687678e+01
7.600000e-07	-4.383606e-06	-7.044115e-10	-3.047895e+01	-4.675490e+01
7.700000e-07	-4.354867e-06	-7.018503e-10	-3.027913e+01	-4.663168e+01
7.800000e-07	-4.325814e-06	-7.034739e-10	-3.007712e+01	-4.650714e+01
7.900000e-07	-4.296412e-06	-6.873600e-10	-2.987269e+01	-4.638128e+01
8.000000e-07	-4.266681e-06	-6.840846e-10	-2.966598e+01	-4.625413e+01
8.100000e-07	-4.236715e-06	-6.866717e-10	-2.945763e+01	-4.612570e+01
8.200000e-07	-4.206535e-06	-6.886401e-10	-2.924778e+01	-4.599600e+01
8.300000e-07	-4.176075e-06	-6.855760e-10	-2.903600e+01	-4.586502e+01
8.400000e-07	-4.145298e-06	-6.910989e-10	-2.882201e+01	-4.573277e+01
8.500000e-07	-4.114166e-06	-6.886590e-10	-2.860555e+01	-4.559922e+01
8.600000e-07	-4.082748e-06	-6.822006e-10	-2.838710e+01	-4.546436e+01
8.700000e-07	-4.051218e-06	-6.792945e-10	-2.816788e+01	-4.532816e+01
8.800000e-07	-4.019554e-06	-6.776291e-10	-2.794771e+01	-4.519058e+01
8.900000e-07	-3.987588e-06	-6.712158e-10	-2.772546e+01	-4.505156e+01
9.000000e-07	-3.955317e-06	-6.680890e-10	-2.750108e+01	-4.491105e+01
9.100000e-07	-3.922783e-06	-6.691619e-10	-2.727487e+01	-4.476898e+01
9.200000e-07	-3.889886e-06	-6.662694e-10	-2.704614e+01	-4.462527e+01
9.300000e-07	-3.856691e-06	-6.646183e-10	-2.681534e+01	-4.447981e+01
9.400000e-07	-3.823101e-06	-6.643124e-10	-2.658179e+01	-4.433252e+01
9.500000e-07	-3.788951e-06	-6.654253e-10	-2.634435e+01	-4.418327e+01
9.600000e-07	-3.754382e-06	-6.615724e-10	-2.610399e+01	-4.403195e+01
9.700000e-07	-3.719456e-06	-6.607933e-10	-2.586115e+01	-4.387841e+01
9.800000e-07	-3.684198e-06	-6.561460e-10	-2.561601e+01	-4.372253e+01
9.900000e-07	-3.648702e-06	-6.533188e-10	-2.536921e+01	-4.356415e+01
1.000000e-06	-3.613045e-06	-6.472439e-10	-2.512128e+01	-4.340311e+01
1.010000e-06	-3.577239e-06	-6.445681e-10	-2.487233e+01	-4.323926e+01
1.020000e-06	-3.541315e-06	-6.405950e-10	-2.462255e+01	-4.307242e+01
1.030000e-06	-3.505324e-06	-6.428535e-10	-2.437231e+01	-4.290243e+01
1.040000e-06	-3.469073e-06	-6.418938e-10	-2.412026e+01	-4.272913e+01
1.050000e-06	-3.432391e-06	-6.384676e-10	-2.386521e+01	-4.255233e+01
1.060000e-06	-3.395412e-06	-6.311308e-10	-2.360809e+01	-4.237188e+01
1.070000e-06	-3.358249e-06	-6.281403e-10	-2.334970e+01	-4.218760e+01
1.080000e-06	-3.320931e-06	-6.233734e-10	-2.309023e+01	-4.199934e+01
1.090000e-06	-3.283439e-06	-6.201261e-10	-2.282955e+01	-4.180693e+01
1.100000e-06	-3.245710e-06	-6.164462e-10	-2.256722e+01	-4.161024e+01
1.110000e-06	-3.207675e-06	-6.142888e-10	-2.230277e+01	-4.140912e+01
1.120000e-06	-3.169350e-06	-6.091962e-10	-2.203630e+01	-4.120345e+01
1.130000e-06	-3.130770e-06	-6.059809e-10	-2.176805e+01	-4.099310e+01
1.140000e-06	-3.092058e-06	-6.021919e-10	-2.149889e+01	-4.077798e+01
1.150000e-06	-3.053252e-06	-5.973594e-10	-2.122908e+01	-4.055799e+01
1.160000e-06	-3.014256e-06	-5.923035e-10	-2.095794e+01	-4.033306e+01
1.170000e-06	-2.975039e-06	-5.906296e-10	-2.068527e+01	-4.010313e+01
1.180000e-06	-2.935612e-06	-5.890179e-10	-2.041113e+01	-3.986815e+01
1.190000e-06	-2.896069e-06	-5.857833e-10	-2.013619e+01	-3.962810e+01
1.200000e-06	-2.856439e-06	-5.824248e-10	-1.986065e+01	-3.938295e+01
1.210000e-06	-2.816653e-06	-5.770217e-10	-1.958402e+01	-3.913271e+01
1.220000e-06	-2.776646e-06	-5.710560e-10	-1.930585e+01	-3.887739e+01
1.230000e-06	-2.736441e-06	-5.633701e-10	-1.902631e+01	-3.861704e+01
1.240000e-06	-2.696026e-06	-5.596840e-10	-1.874531e+01	-3.835168e+01
1.250000e-06	-2.655378e-06	-5.566472e-10	-1.846268e+01	-3.808137e+01
1.260000e-06	-2.614512e-06	-5.574344e-10	-1.817855e+01	-3.780618e+01
1.270000e-06	-2.573412e-06	-5.588471e-10	-1.789278e+01	-3.752618e+01
1.280000e-06	-2.532021e-06	-5.581523e-10	-1.760499e+01	-3.724145e+01
1.290000e-06	-2.490344e-06	-5.511684e-10	-1.731521e+01	-3.695208e+01
1.300000e-06	-2.448477e-06	-5.413264e-10	-1.702411e+01	-3.665815e+01
1.310000e-06	-2.406325e-06	-5.319457e-10	-1.673103e+01	-3.635975e+01
1.320000e-06	-2.363860e-06	-5.255770e-10	-1.643578e+01	-3.605696e+01
1.330000e-06	-2.321077e-06	-5.232796e-10	-1.613831e+01	-3.574986e+01
1.340000e-06	-2.277957e-06	-5.254702e-10	-1.583850e+01	-3.543851e+01
1.350000e-06	-2.234685e-06	-5.263633e-10	-1.553763e+01	-3.512298e+01
1.360000e-06	-2.191326e-06	-5.246024e-10	-1.523616e+01	-3.480331e+01
1.370000e-06	-2.147836e-06	-5.189398e-10	-1.493378e+01	-3.447952e+01
1.380000e-06	-2.104202e-06	-5.127632e-10	-1.463039e+01	-3.415163e+01
1.390000e-06	-2.060486e-06	-5.038872e-10	-1.432644e+01	-3.381960e+01
1.400000e-06	-2.016719e-06	-4.958199e-10	-1.402212e+01	-3.348341e+01
1.410000e-06	-1.972866e-06	-4.902678e-10	-1.371722e+01	-3.314297e+01
1.420000e-06	-1.928907e-06	-4.878451e-10	-1.341158e+01	-3.279820e+01
1.430000e-06	-1.884842e-06	-4.868525e-10	-1.310519e+01	-3.244896e+01
1.440000e-06	-1.840705e-06	-4.842942e-10	-1.279831e+01	-3.209507e+01
1.450000e-06	-1.796511e-06	-4.785034e-10	-1.249103e+01	-3.173635e+01
1.460000e-06	-1.752198e-06	-4.687937e-10	-1.218293e+01	-3.137255e+01
1.470000e-06	-1.707751e-06	-4.596995e-10	-1.187389e+01	-3.100339e+01
1.480000e-06	-1.663233e-06	-4.510184e-10	-1.156436e+01	-3.062857e+01
1.490000e-06	-1.618537e-06	-4.443358e-10	-1.125359e+01	-3.024773e+01
1.500000e-06	-1.573623e-06	-4.416997e-10	-1.094130e+01	-2.986049e+01
1.510000e-06	-1.528627e-06	-4.385271e-10	-1.062845e+01	-2.946641e+01
1.520000e-06	-1.483553e-06	-4.303863e-10	-1.031505e+01	-2.906505e+01
1.530000e-06	-1.438338e-06	-4.184226e-10	-1.000068e+01	-2.865589e+01
1.540000e-06	-1.392941e-06	-4.075202e-10	-9.685036e+00	-2.823842e+01
1.550000e-06	-1.347443e-06	-3.981261e-10	-9.368692e+00	-2.781209e+01
1.560000e-06	-1.301966e-06	-3.899646e-10	-9.052494e+00	-2.737630e+01
1.570000e-06	-1.256449e-06	-3.829861e-10	-8.736015e+00	-2.693045e+01
1.580000e-06	-1.210822e-06	-3.755950e-10	-8.418775e+00	-2.647393e+01
1.590000e-06	-1.165077e-06	-3.672981e-10	-8.100713e+00	-2.600609e+01
1.600000e-06	-1.119218e-06	-3.570263e-10	-7.781857e+00	-2.552627e+01
1.610000e-06	-1.073228e-06	-3.470824e-10	-7.462090e+00	-2.503383e+01
1.620000e-06	-1.027182e-06	-3.362138e-10	-7.141933e+00	-2.452810e+01
1.630000e-06	-9.810897e-07	-3.260543e-10	-6.821458e+00	-2.400844e+01
1.640000e-06	-9.349372e-07	-3.168745e-10	-6.500562e+00	-2.347419e+01
1.650000e-06	-8.887799e-07	-3.092137e-10	-6.179633e+00	-2.292473e+01
1.660000e-06	-8.425284e-07	-3.023627e-10	-5.858049e+00	-2.235946e+01
1.670000e-06	-7.961626e-07	-2.941237e-10	-5.535671e+00	-2.177779e+01
1.680000e-06	-7.497477e-07	-2.866836e-10	-5.212951e+00	-2.117917e+01
1.690000e-06	-7.032250e-07	-2.800911e-10	-4.889481e+00	-2.056310e+01
1.700000e-06	-6.566464e-07	-2.708371e-10	-4.565623e+00	-1.992910e+01
1.710000e-06	-6.101990e-07	-2.579729e-10	-4.242677e+00	-1.927677e+01
1.720000e-06	-5.637359e-07	-2.446614e-10	-3.919622e+00	-1.860573e+01
1.730000e-06	-5.171459e-07	-2.326380e-10	-3.595684e+00	-1.791569e+01
1.740000e-06	-4.705391e-07	-2.225808e-10	-3.271630e+00	-1.720641e+01
1.750000e-06	-4.238647e-07	-2.162058e-10	-2.947106e+00	-1.647772e+01
1.760000e-06	-3.770021e-07	-2.090314e-10	-2.621273e+00	-1.572952e+01
1.770000e-06	-3.301182e-07	-1.982414e-10	-2.295292e+00	-1.496180e+01
1.780000e-06	-2.833337e-07	-1.874491e-10	-1.970002e+00	-1.417460e+01
1.790000e-06	-2.365511e-07	-1.754634e-10	-1.644726e+00	-1.336807e+01
1.800000e-06	-1.897295e-07	-1.615697e-10	-1.319178e+00	-1.254244e+01
1.810000e-06	-1.428944e-07	-1.483968e-10	-9.935362e-01	-1.169801e+01
1.820000e-06	-9.608458e-08	-1.370467e-10	-6.680703e-01	-1.083518e+01
1.830000e-06	-4.931583e-08	-1.266767e-10	-3.428900e-01	-9.954418e+00
1.840000e-06	-2.522394e-09	-1.148810e-10	-1.753806e-02	-9.056305e+00
1.850000e-06	4.429086e-08	-1.061335e-10	3.079517e-01	-8.141485e+00
1.860000e-06	9.107694e-08	-9.757089e-11	6.332525e-01	-7.210694e+00
1.870000e-06	1.378858e-07	-8.539221e-11	9.587119e-01	-6.264743e+00
1.880000e-06	1.847527e-07	-7.088066e-11	1.284575e+00	-5.304526e+00
1.890000e-06	2.316627e-07	-5.440227e-11	1.610737e+00	-4.331008e+00
1.900000e-06	2.784490e-07	-3.852156e-11	1.936039e+00	-3.345223e+00
1.910000e-06	3.251213e-07	-2.376855e-11	2.260549e+00	-2.348274e+00
1.920000e-06	3.718215e-07	-1.095940e-11	2.585252e+00	-1.341319e+00
1.930000e-06	4.184988e-07	5.930589e-13	2.909797e+00	-3.255760e-01
1.940000e-06	4.651306e-07	9.848926e-12	3.234025e+00	6.976931e-01
1.950000e-06	5.117691e-07	1.785682e-11	3.558300e+00	1.727182e+00
1.960000e-06	5.583624e-07	2.940114e-11	3.882260e+00	2.761551e+00
1.970000e-06	6.048897e-07	4.384320e-11	4.205762e+00	3.799430e+00
1.980000e-06	6.514098e-07	5.977752e-11	4.529213e+00	4.839431e+00
1.990000e-06	6.978025e-07	7.670091e-11	4.851779e+00	5.880149e+00
2.000000e-06	7.440877e-07	9.303976e-11	5.173597e+00	6.920178e+00
2.010000e-06	7.904050e-07	1.066977e-10	5.495638e+00	7.958111e+00
2.020000e-06	8.366236e-07	1.185375e-10	5.816993e+00	8.992551e+00
2.030000e-06	8.827757e-07	1.322717e-10	6.137886e+00	1.002212e+01
2.040000e-06	9.288530e-07	1.465109e-10	6.458259e+00	1.104546e+01
2.050000e-06	9.748815e-07	1.604320e-10	6.778293e+00	1.206124e+01
2.060000e-06	1.020955e-06	1.742125e-10	7.098637e+00	1.306820e+01
2.070000e-06	1.066959e-06	1.886249e-10	7.418499e+00	1.406508e+01
2.080000e-06	1.112862e-06	2.031924e-10	7.737662e+00	1.505069e+01
2.090000e-06	1.158665e-06	2.168859e-10	8.056125e+00	1.602392e+01
2.100000e-06	1.204386e-06	2.318466e-10	8.374022e+00	1.698368e+01
2.110000e-06	1.250040e-06	2.471671e-10	8.691452e+00	1.792899e+01
2.120000e-06	1.295583e-06	2.611673e-10	9.008108e+00	1.885892e+01
2.130000e-06	1.340978e-06	2.741445e-10	9.323740e+00	1.977262e+01
2.140000e-06	1.386300e-06	2.853943e-10	9.638863e+00	2.066931e+01
2.150000e-06	1.431591e-06	2.954293e-10	9.953764e+00	2.154831e+01
2.160000e-06	1.476798e-06	3.068156e-10	1.026809e+01	2.240901e+01
2.170000e-06	1.521872e-06	3.197347e-10	1.058149e+01	2.325090e+01
2.180000e-06	1.566809e-06	3.312941e-10	1.089393e+01	2.407355e+01
2.190000e-06	1.611624e-06	3.430581e-10	1.120552e+01	2.487660e+01
2.200000e-06	1.656280e-06	3.542051e-10	1.151602e+01	2.565979e+01
2.210000e-06	1.700830e-06	3.640066e-10	1.182577e+01	2.642296e+01
2.220000e-06	1.745306e-06	3.733734e-10	1.213501e+01	2.716601e+01
2.230000e-06	1.789626e-06	3.822079e-10	1.244316e+01	2.788892e+01
2.240000e-06	1.833769e-06	3.906478e-10	1.275009e+01	2.859176e+01
2.250000e-06	1.877762e-06	3.985080e-10	1.305597e+01	2.927467e+01
2.260000e-06	1.921629e-06	4.068484e-10	1.336097e+01	2.993785e+01
2.270000e-06	1.965417e-06	4.151557e-10	1.366543e+01	3.058159e+01
2.280000e-06	2.009145e-06	4.238886e-10	1.396946e+01	3.120622e+01
2.290000e-06	2.052809e-06	4.326526e-10	1.427305e+01	3.181212e+01
2.300000e-06	2.096436e-06	4.411346e-10	1.457639e+01	3.239975e+01
2.310000e-06	2.139990e-06	4.509330e-10	1.487922e+01	3.296959e+01
2.320000e-06	2.183463e-06	4.609244e-10	1.518148e+01	3.352217e+01
2.330000e-06	2.226879e-06	4.680990e-10	1.548336e+01	3.405805e+01
2.340000e-06	2.270169e-06	4.731782e-10	1.578435e+01	3.457781e+01
2.350000e-06	2.313296e-06	4.774678e-10	1.608421e+01	3.508207e+01
2.360000e-06	2.356226e-06	4.815520e-10	1.638270e+01	3.557145e+01
2.370000e-06	2.398853e-06	4.871088e-10	1.667908e+01	3.604659e+01
2.380000e-06	2.441131e-06	4.942011e-10	1.697304e+01	3.650812e+01
2.390000e-06	2.483080e-06	5.029646e-10	1.726470e+01	3.695669e+01
2.400000e-06	2.524673e-06	5.112504e-10	1.755390e+01	3.739291e+01
2.410000e-06	2.565926e-06	5.198155e-10	1.784073e+01	3.781742e+01
2.420000e-06	2.606892e-06	5.285186e-10	1.812556e+01	3.823082e+01
2.430000e-06	2.647554e-06	5.352872e-10	1.840828e+01	3.863367e+01
2.440000e-06	2.688001e-06	5.422512e-10	1.868951e+01	3.902656e+01
2.450000e-06	2.728265e-06	5.485129e-10	1.896946e+01	3.940999e+01
2.460000e-06	2.768317e-06	5.531376e-10	1.924794e+01	3.978447e+01
2.470000e-06	2.808239e-06	5.576768e-10	1.952552e+01	4.015046e+01
2.480000e-06	2.848043e-06	5.625989e-10	1.980227e+01	4.050840e+01
2.490000e-06	2.887755e-06	5.678240e-10	2.007839e+01	4.085866e+01
2.500000e-06	2.927344e-06	5.736164e-10	2.035365e+01	4.120161e+01
2.510000e-06	2.966796e-06	5.783240e-10	2.062795e+01	4.153754e+01
2.520000e-06	3.006069e-06	5.824068e-10	2.090102e+01	4.186674e+01
2.530000e-06	3.045121e-06	5.865076e-10	2.117255e+01	4.218944e+01
2.540000e-06	3.083926e-06	5.883944e-10	2.144235e+01	4.250583e+01
2.550000e-06	3.122482e-06	5.885924e-10	2.171043e+01	4.281606e+01
2.560000e-06	3.160840e-06	5.914995e-10	2.197713e+01	4.312026e+01
2.570000e-06	3.199013e-06	5.976039e-10	2.224255e+01	4.341850e+01
2.580000e-06	3.236938e-06	6.032768e-10	2.250624e+01	4.371085e+01
2.590000e-06	3.274598e-06	6.070956e-10	2.276808e+01	4.399731e+01
2.600000e-06	3.312058e-06	6.106574e-10	2.302854e+01	4.427789e+01
2.610000e-06	3.349287e-06	6.152320e-10	2.328739e+01	4.455256e+01
2.620000e-06	3.386259e-06	6.207805e-10	2.354446e+01	4.482127e+01
2.630000e-06	3.422968e-06	6.258507e-10	2.379969e+01	4.508394e+01
2.640000e-06	3.459496e-06	6.295809e-10	2.405367e+01	4.534050e+01
2.650000e-06	3.495813e-06	6.326418e-10	2.430618e+01	4.559084e+01
2.660000e-06	3.531862e-06	6.360664e-10	2.455682e+01	4.583487e+01
2.670000e-06	3.567731e-06	6.392712e-10	2.480622e+01	4.607249e+01
2.680000e-06	3.603498e-06	6.412668e-10	2.505490e+01	4.630357e+01
2.690000e-06	3.639170e-06	6.433376e-10	2.530293e+01	4.652803e+01
2.700000e-06	3.674709e-06	6.461100e-10	2.555003e+01	4.674576e+01
2.710000e-06	3.710096e-06	6.494494e-10	2.579607e+01	4.695666e+01
2.720000e-06	3.745248e-06	6.549587e-10	2.604049e+01	4.716067e+01
2.730000e-06	3.780051e-06	6.618881e-10	2.628247e+01	4.735771e+01
2.740000e-06	3.814446e-06	6.668832e-10	2.652162e+01	4.754773e+01
2.750000e-06	3.848366e-06	6.696891e-10	2.675746e+01	4.773071e+01
2.760000e-06	3.881855e-06	6.706776e-10	2.699031e+01	4.790663e+01
2.770000e-06	3.914844e-06	6.711993e-10	2.721967e+01	4.807549e+01
2.780000e-06	3.947263e-06	6.739159e-10	2.744508e+01	4.823734e+01
2.790000e-06	3.979330e-06	6.785729e-10	2.766804e+01	4.839222e+01
2.800000e-06	4.011225e-06	6.843338e-10	2.788981e+01	4.854022e+01
2.810000e-06	4.042996e-06	6.902733e-10	2.811071e+01	4.868142e+01
2.820000e-06	4.074580e-06	6.957132e-10	2.833031e+01	4.881597e+01
2.830000e-06	4.105972e-06	6.985879e-10	2.854858e+01	4.894400e+01
2.840000e-06	4.137184e-06	6.979831e-10	2.876559e+01	4.906568e+01
2.850000e-06	4.168079e-06	6.975059e-10	2.898040e+01	4.918121e+01
2.860000e-06	4.198646e-06	6.989329e-10	2.919293e+01	4.929080e+01
2.870000e-06	4.228893e-06	7.008559e-10	2.940324e+01	4.939467e+01
2.880000e-06	4.258811e-06	7.032914e-10	2.961126e+01	4.949307e+01
2.890000e-06	4.288529e-06	7.068268e-10	2.981789e+01	4.958625e+01
2.900000e-06	4.317992e-06	7.095488e-10	3.002274e+01	4.967450e+01
