# Temperatura_=_-0.26
# Concentracion g/m^3_=_1620.0
# C_Vs_to_Am_M_A/Vsm_=_65563218390.804596
# pendiente_HvsI_1/m_=_3716.3
# ordenada_HvsI_A/m_=_1297.0
# frecuencia_Hz_=_135106.92360658306

Tiempo_(s)	Campo_(V.s)	Magnetizacion_(V.s)	Campo_(kA/m)	Magnetizacion_(A/m)
0.000000e+00	-5.542847e-06	-1.417233e-09	-3.836785e+01	-9.171204e+01
1.000000e-08	-5.543017e-06	-1.417688e-09	-3.836903e+01	-9.172291e+01
2.000000e-08	-5.542790e-06	-1.420521e-09	-3.836745e+01	-9.173494e+01
3.000000e-08	-5.542128e-06	-1.421557e-09	-3.836288e+01	-9.174807e+01
4.000000e-08	-5.541027e-06	-1.418366e-09	-3.835525e+01	-9.176225e+01
5.000000e-08	-5.539279e-06	-1.414995e-09	-3.834316e+01	-9.177736e+01
6.000000e-08	-5.536909e-06	-1.411280e-09	-3.832674e+01	-9.179327e+01
7.000000e-08	-5.534154e-06	-1.425068e-09	-3.830767e+01	-9.180982e+01
8.000000e-08	-5.530867e-06	-1.443280e-09	-3.828492e+01	-9.182682e+01
9.000000e-08	-5.527078e-06	-1.398181e-09	-3.825870e+01	-9.184404e+01
1.000000e-07	-5.523031e-06	-1.346981e-09	-3.823068e+01	-9.186126e+01
1.100000e-07	-5.518749e-06	-1.436231e-09	-3.820104e+01	-9.187820e+01
1.200000e-07	-5.514068e-06	-1.486924e-09	-3.816864e+01	-9.189459e+01
1.300000e-07	-5.508980e-06	-1.420630e-09	-3.813342e+01	-9.191014e+01
1.400000e-07	-5.503631e-06	-1.314534e-09	-3.809640e+01	-9.192452e+01
1.500000e-07	-5.497965e-06	-1.358836e-09	-3.805717e+01	-9.193741e+01
1.600000e-07	-5.491858e-06	-1.450044e-09	-3.801490e+01	-9.194848e+01
1.700000e-07	-5.485273e-06	-1.406586e-09	-3.796932e+01	-9.195740e+01
1.800000e-07	-5.478349e-06	-1.361794e-09	-3.792139e+01	-9.196383e+01
1.900000e-07	-5.471169e-06	-1.398148e-09	-3.787169e+01	-9.196741e+01
2.000000e-07	-5.463617e-06	-1.470779e-09	-3.781942e+01	-9.196782e+01
2.100000e-07	-5.455746e-06	-1.438970e-09	-3.776493e+01	-9.196472e+01
2.200000e-07	-5.447732e-06	-1.395114e-09	-3.770946e+01	-9.195778e+01
2.300000e-07	-5.439328e-06	-1.400257e-09	-3.765129e+01	-9.194669e+01
2.400000e-07	-5.430254e-06	-1.456567e-09	-3.758848e+01	-9.193115e+01
2.500000e-07	-5.420670e-06	-1.464163e-09	-3.752213e+01	-9.191085e+01
2.600000e-07	-5.410535e-06	-1.444744e-09	-3.745198e+01	-9.188555e+01
2.700000e-07	-5.399725e-06	-1.426930e-09	-3.737715e+01	-9.185496e+01
2.800000e-07	-5.388406e-06	-1.444370e-09	-3.729880e+01	-9.181888e+01
2.900000e-07	-5.376698e-06	-1.441283e-09	-3.721776e+01	-9.177707e+01
3.000000e-07	-5.364615e-06	-1.415249e-09	-3.713412e+01	-9.172935e+01
3.100000e-07	-5.352150e-06	-1.405598e-09	-3.704783e+01	-9.167555e+01
3.200000e-07	-5.339366e-06	-1.439687e-09	-3.695935e+01	-9.161552e+01
3.300000e-07	-5.326159e-06	-1.443354e-09	-3.686792e+01	-9.154916e+01
3.400000e-07	-5.312455e-06	-1.396456e-09	-3.677307e+01	-9.147635e+01
3.500000e-07	-5.298291e-06	-1.397346e-09	-3.667503e+01	-9.139704e+01
3.600000e-07	-5.283631e-06	-1.432136e-09	-3.657354e+01	-9.131116e+01
3.700000e-07	-5.268471e-06	-1.399271e-09	-3.646861e+01	-9.121871e+01
3.800000e-07	-5.252774e-06	-1.374910e-09	-3.635995e+01	-9.111968e+01
3.900000e-07	-5.236690e-06	-1.439818e-09	-3.624862e+01	-9.101409e+01
4.000000e-07	-5.220258e-06	-1.425714e-09	-3.613487e+01	-9.090199e+01
4.100000e-07	-5.203426e-06	-1.342715e-09	-3.601836e+01	-9.078344e+01
4.200000e-07	-5.186239e-06	-1.387989e-09	-3.589939e+01	-9.065853e+01
4.300000e-07	-5.168765e-06	-1.461149e-09	-3.577843e+01	-9.052735e+01
4.400000e-07	-5.150947e-06	-1.361386e-09	-3.565510e+01	-9.039002e+01
4.500000e-07	-5.132570e-06	-1.332611e-09	-3.552790e+01	-9.024668e+01
4.600000e-07	-5.113807e-06	-1.438999e-09	-3.539802e+01	-9.009747e+01
4.700000e-07	-5.094783e-06	-1.404538e-09	-3.526633e+01	-8.994254e+01
4.800000e-07	-5.075429e-06	-1.299005e-09	-3.513236e+01	-8.978206e+01
4.900000e-07	-5.055877e-06	-1.383636e-09	-3.499702e+01	-8.961621e+01
5.000000e-07	-5.036141e-06	-1.414885e-09	-3.486041e+01	-8.944515e+01
5.100000e-07	-5.016037e-06	-1.302890e-09	-3.472125e+01	-8.926909e+01
5.200000e-07	-4.995599e-06	-1.330951e-09	-3.457978e+01	-8.908820e+01
5.300000e-07	-4.974928e-06	-1.422718e-09	-3.443669e+01	-8.890267e+01
5.400000e-07	-4.953861e-06	-1.329671e-09	-3.429086e+01	-8.871269e+01
5.500000e-07	-4.932383e-06	-1.297698e-09	-3.414219e+01	-8.851845e+01
5.600000e-07	-4.910618e-06	-1.398550e-09	-3.399153e+01	-8.832014e+01
5.700000e-07	-4.888536e-06	-1.360976e-09	-3.383868e+01	-8.811792e+01
5.800000e-07	-4.866059e-06	-1.278427e-09	-3.368309e+01	-8.791198e+01
5.900000e-07	-4.843212e-06	-1.351289e-09	-3.352494e+01	-8.770248e+01
6.000000e-07	-4.820052e-06	-1.364277e-09	-3.336463e+01	-8.748958e+01
6.100000e-07	-4.796607e-06	-1.283453e-09	-3.320235e+01	-8.727345e+01
6.200000e-07	-4.772964e-06	-1.314470e-09	-3.303868e+01	-8.705421e+01
6.300000e-07	-4.749111e-06	-1.352942e-09	-3.287357e+01	-8.683201e+01
6.400000e-07	-4.724923e-06	-1.291101e-09	-3.270614e+01	-8.660697e+01
6.500000e-07	-4.700341e-06	-1.291502e-09	-3.253599e+01	-8.637921e+01
6.600000e-07	-4.675220e-06	-1.339556e-09	-3.236209e+01	-8.614882e+01
6.700000e-07	-4.649493e-06	-1.300681e-09	-3.218401e+01	-8.591591e+01
6.800000e-07	-4.623261e-06	-1.282724e-09	-3.200243e+01	-8.568055e+01
6.900000e-07	-4.596616e-06	-1.321883e-09	-3.181800e+01	-8.544283e+01
7.000000e-07	-4.569588e-06	-1.301334e-09	-3.163090e+01	-8.520279e+01
7.100000e-07	-4.542242e-06	-1.264904e-09	-3.144161e+01	-8.496050e+01
7.200000e-07	-4.514726e-06	-1.287020e-09	-3.125115e+01	-8.471599e+01
7.300000e-07	-4.487010e-06	-1.284770e-09	-3.105930e+01	-8.446929e+01
7.400000e-07	-4.459021e-06	-1.264124e-09	-3.086556e+01	-8.422043e+01
7.500000e-07	-4.430800e-06	-1.283163e-09	-3.067021e+01	-8.396942e+01
7.600000e-07	-4.402356e-06	-1.290195e-09	-3.047332e+01	-8.371625e+01
7.700000e-07	-4.373521e-06	-1.260757e-09	-3.027372e+01	-8.346092e+01
7.800000e-07	-4.344295e-06	-1.261217e-09	-3.007141e+01	-8.320341e+01
7.900000e-07	-4.314830e-06	-1.259858e-09	-2.986746e+01	-8.294371e+01
8.000000e-07	-4.285091e-06	-1.231258e-09	-2.966160e+01	-8.268178e+01
8.100000e-07	-4.255052e-06	-1.226015e-09	-2.945368e+01	-8.241757e+01
8.200000e-07	-4.224722e-06	-1.249040e-09	-2.924373e+01	-8.215105e+01
8.300000e-07	-4.194028e-06	-1.239215e-09	-2.903126e+01	-8.188215e+01
8.400000e-07	-4.163038e-06	-1.228873e-09	-2.881675e+01	-8.161082e+01
8.500000e-07	-4.131865e-06	-1.241443e-09	-2.860097e+01	-8.133699e+01
8.600000e-07	-4.100526e-06	-1.231189e-09	-2.838403e+01	-8.106057e+01
8.700000e-07	-4.068989e-06	-1.202659e-09	-2.816574e+01	-8.078150e+01
8.800000e-07	-4.037269e-06	-1.203440e-09	-2.794617e+01	-8.049969e+01
8.900000e-07	-4.005357e-06	-1.205087e-09	-2.772527e+01	-8.021503e+01
9.000000e-07	-3.973119e-06	-1.185290e-09	-2.750212e+01	-7.992743e+01
9.100000e-07	-3.940482e-06	-1.181703e-09	-2.727620e+01	-7.963679e+01
9.200000e-07	-3.907407e-06	-1.192492e-09	-2.704726e+01	-7.934299e+01
9.300000e-07	-3.873833e-06	-1.179138e-09	-2.681486e+01	-7.904592e+01
9.400000e-07	-3.839722e-06	-1.167034e-09	-2.657874e+01	-7.874545e+01
9.500000e-07	-3.805121e-06	-1.173510e-09	-2.633923e+01	-7.844146e+01
9.600000e-07	-3.770220e-06	-1.164245e-09	-2.609764e+01	-7.813382e+01
9.700000e-07	-3.735151e-06	-1.145590e-09	-2.585489e+01	-7.782238e+01
9.800000e-07	-3.699845e-06	-1.147488e-09	-2.561050e+01	-7.750701e+01
9.900000e-07	-3.664322e-06	-1.151647e-09	-2.536461e+01	-7.718755e+01
1.000000e-06	-3.628640e-06	-1.138154e-09	-2.511762e+01	-7.686386e+01
1.010000e-06	-3.592834e-06	-1.133582e-09	-2.486977e+01	-7.653578e+01
1.020000e-06	-3.556924e-06	-1.134366e-09	-2.462120e+01	-7.620316e+01
1.030000e-06	-3.520753e-06	-1.122014e-09	-2.437082e+01	-7.586582e+01
1.040000e-06	-3.484303e-06	-1.109605e-09	-2.411851e+01	-7.552361e+01
1.050000e-06	-3.447648e-06	-1.108746e-09	-2.386478e+01	-7.517636e+01
1.060000e-06	-3.410665e-06	-1.099249e-09	-2.360879e+01	-7.482390e+01
1.070000e-06	-3.373397e-06	-1.088509e-09	-2.335081e+01	-7.446606e+01
1.080000e-06	-3.335947e-06	-1.089193e-09	-2.309159e+01	-7.410267e+01
1.090000e-06	-3.298263e-06	-1.088418e-09	-2.283074e+01	-7.373356e+01
1.100000e-06	-3.260314e-06	-1.076298e-09	-2.256805e+01	-7.335855e+01
1.110000e-06	-3.222098e-06	-1.068227e-09	-2.230352e+01	-7.297749e+01
1.120000e-06	-3.183632e-06	-1.060315e-09	-2.203725e+01	-7.259020e+01
1.130000e-06	-3.144894e-06	-1.046870e-09	-2.176911e+01	-7.219653e+01
1.140000e-06	-3.105942e-06	-1.038167e-09	-2.149948e+01	-7.179630e+01
1.150000e-06	-3.066908e-06	-1.038376e-09	-2.122928e+01	-7.138937e+01
1.160000e-06	-3.027683e-06	-1.034722e-09	-2.095776e+01	-7.097558e+01
1.170000e-06	-2.988258e-06	-1.028335e-09	-2.068486e+01	-7.055478e+01
1.180000e-06	-2.948759e-06	-1.022232e-09	-2.041145e+01	-7.012684e+01
1.190000e-06	-2.909136e-06	-1.012706e-09	-2.013718e+01	-6.969161e+01
1.200000e-06	-2.869331e-06	-1.001050e-09	-1.986165e+01	-6.924897e+01
1.210000e-06	-2.829343e-06	-9.938204e-10	-1.958485e+01	-6.879880e+01
1.220000e-06	-2.789214e-06	-9.868523e-10	-1.930707e+01	-6.834098e+01
1.230000e-06	-2.748925e-06	-9.788100e-10	-1.902819e+01	-6.787540e+01
1.240000e-06	-2.708366e-06	-9.740242e-10	-1.874744e+01	-6.740196e+01
1.250000e-06	-2.667483e-06	-9.699893e-10	-1.846444e+01	-6.692056e+01
1.260000e-06	-2.626376e-06	-9.658710e-10	-1.817990e+01	-6.643112e+01
1.270000e-06	-2.584991e-06	-9.617722e-10	-1.789343e+01	-6.593355e+01
1.280000e-06	-2.543187e-06	-9.549716e-10	-1.760406e+01	-6.542778e+01
1.290000e-06	-2.501051e-06	-9.442546e-10	-1.731239e+01	-6.491373e+01
1.300000e-06	-2.458628e-06	-9.339370e-10	-1.701874e+01	-6.439133e+01
1.310000e-06	-2.415878e-06	-9.250323e-10	-1.672282e+01	-6.386052e+01
1.320000e-06	-2.372910e-06	-9.180460e-10	-1.642540e+01	-6.332123e+01
1.330000e-06	-2.329781e-06	-9.138602e-10	-1.612685e+01	-6.277340e+01
1.340000e-06	-2.286472e-06	-9.125070e-10	-1.582707e+01	-6.221698e+01
1.350000e-06	-2.243081e-06	-9.081742e-10	-1.552672e+01	-6.165188e+01
1.360000e-06	-2.199629e-06	-8.998242e-10	-1.522593e+01	-6.107805e+01
1.370000e-06	-2.156056e-06	-8.890774e-10	-1.492432e+01	-6.049540e+01
1.380000e-06	-2.112415e-06	-8.775688e-10	-1.462224e+01	-5.990387e+01
1.390000e-06	-2.068715e-06	-8.649084e-10	-1.431974e+01	-5.930336e+01
1.400000e-06	-2.024894e-06	-8.542377e-10	-1.401642e+01	-5.869377e+01
1.410000e-06	-1.980943e-06	-8.436283e-10	-1.371218e+01	-5.807499e+01
1.420000e-06	-1.936970e-06	-8.333477e-10	-1.340780e+01	-5.744691e+01
1.430000e-06	-1.892901e-06	-8.231812e-10	-1.310275e+01	-5.680939e+01
1.440000e-06	-1.848617e-06	-8.118857e-10	-1.279621e+01	-5.616227e+01
1.450000e-06	-1.804146e-06	-7.990643e-10	-1.248838e+01	-5.550538e+01
1.460000e-06	-1.759547e-06	-7.866665e-10	-1.217967e+01	-5.483855e+01
1.470000e-06	-1.714806e-06	-7.747167e-10	-1.186997e+01	-5.416155e+01
1.480000e-06	-1.669882e-06	-7.620676e-10	-1.155900e+01	-5.347417e+01
1.490000e-06	-1.624892e-06	-7.493920e-10	-1.124758e+01	-5.277615e+01
1.500000e-06	-1.579822e-06	-7.387831e-10	-1.093560e+01	-5.206722e+01
1.510000e-06	-1.534600e-06	-7.291313e-10	-1.062258e+01	-5.134709e+01
1.520000e-06	-1.489220e-06	-7.168867e-10	-1.030845e+01	-5.061545e+01
1.530000e-06	-1.443708e-06	-7.023802e-10	-9.993416e+00	-4.987196e+01
1.540000e-06	-1.398193e-06	-6.867441e-10	-9.678359e+00	-4.911627e+01
1.550000e-06	-1.352645e-06	-6.692162e-10	-9.363070e+00	-4.834799e+01
1.560000e-06	-1.306970e-06	-6.532929e-10	-9.046910e+00	-4.756672e+01
1.570000e-06	-1.261184e-06	-6.416978e-10	-8.729977e+00	-4.677206e+01
1.580000e-06	-1.215268e-06	-6.331589e-10	-8.412145e+00	-4.596358e+01
1.590000e-06	-1.169333e-06	-6.229394e-10	-8.094175e+00	-4.514082e+01
1.600000e-06	-1.123361e-06	-6.120421e-10	-7.775960e+00	-4.430334e+01
1.610000e-06	-1.077250e-06	-5.976870e-10	-7.456779e+00	-4.345066e+01
1.620000e-06	-1.031032e-06	-5.784265e-10	-7.136855e+00	-4.258232e+01
1.630000e-06	-9.847493e-07	-5.603542e-10	-6.816482e+00	-4.169783e+01
1.640000e-06	-9.384173e-07	-5.430917e-10	-6.495769e+00	-4.079674e+01
1.650000e-06	-8.919747e-07	-5.288041e-10	-6.174291e+00	-3.987856e+01
1.660000e-06	-8.454795e-07	-5.157835e-10	-5.852449e+00	-3.894284e+01
1.670000e-06	-7.989228e-07	-5.028607e-10	-5.530181e+00	-3.798913e+01
1.680000e-06	-7.522810e-07	-4.879593e-10	-5.207325e+00	-3.701699e+01
1.690000e-06	-7.056242e-07	-4.720103e-10	-4.884364e+00	-3.602602e+01
1.700000e-06	-6.588947e-07	-4.561626e-10	-4.560900e+00	-3.501582e+01
1.710000e-06	-6.121614e-07	-4.378853e-10	-4.237410e+00	-3.398605e+01
1.720000e-06	-5.653809e-07	-4.187144e-10	-3.913594e+00	-3.293638e+01
1.730000e-06	-5.184374e-07	-4.025984e-10	-3.588649e+00	-3.186652e+01
1.740000e-06	-4.714789e-07	-3.866432e-10	-3.263600e+00	-3.077625e+01
1.750000e-06	-4.244982e-07	-3.704554e-10	-2.938397e+00	-2.966536e+01
1.760000e-06	-3.774417e-07	-3.535884e-10	-2.612670e+00	-2.853372e+01
1.770000e-06	-3.304719e-07	-3.386606e-10	-2.287542e+00	-2.738125e+01
1.780000e-06	-2.835103e-07	-3.253808e-10	-1.962472e+00	-2.620791e+01
1.790000e-06	-2.364598e-07	-3.106247e-10	-1.636786e+00	-2.501375e+01
1.800000e-06	-1.894011e-07	-2.937339e-10	-1.311044e+00	-2.379887e+01
1.810000e-06	-1.423364e-07	-2.735366e-10	-9.852590e-01	-2.256344e+01
1.820000e-06	-9.538043e-08	-2.508988e-10	-6.602278e-01	-2.130771e+01
1.830000e-06	-4.849196e-08	-2.286860e-10	-3.356636e-01	-2.003200e+01
1.840000e-06	-1.516421e-09	-2.089527e-10	-1.049674e-02	-1.873669e+01
1.850000e-06	4.544348e-08	-1.946522e-10	3.145619e-01	-1.742226e+01
1.860000e-06	9.245614e-08	-1.818189e-10	6.399858e-01	-1.608924e+01
1.870000e-06	1.395814e-07	-1.652076e-10	9.661887e-01	-1.473827e+01
1.880000e-06	1.866446e-07	-1.451862e-10	1.291963e+00	-1.337002e+01
1.890000e-06	2.337107e-07	-1.231781e-10	1.617757e+00	-1.198528e+01
1.900000e-06	2.808110e-07	-1.018838e-10	1.943787e+00	-1.058488e+01
1.910000e-06	3.278363e-07	-8.149543e-11	2.269298e+00	-9.169748e+00
1.920000e-06	3.748085e-07	-6.309761e-11	2.594443e+00	-7.740857e+00
1.930000e-06	4.216639e-07	-4.614970e-11	2.918778e+00	-6.299258e+00
1.940000e-06	4.684694e-07	-3.200763e-11	3.242768e+00	-4.846060e+00
1.950000e-06	5.153291e-07	-1.853533e-11	3.567133e+00	-3.382432e+00
1.960000e-06	5.621171e-07	-2.198130e-12	3.891001e+00	-1.909594e+00
1.970000e-06	6.088283e-07	1.828393e-11	4.214338e+00	-4.288141e-01
1.980000e-06	6.554977e-07	4.225881e-11	4.537386e+00	1.058597e+00
1.990000e-06	7.021212e-07	6.791002e-11	4.860116e+00	2.551291e+00
2.000000e-06	7.486375e-07	9.101585e-11	5.182104e+00	4.047889e+00
2.010000e-06	7.950452e-07	1.110944e-10	5.503341e+00	5.546989e+00
2.020000e-06	8.413867e-07	1.295026e-10	5.824118e+00	7.047169e+00
2.030000e-06	8.876602e-07	1.477105e-10	6.144426e+00	8.546998e+00
2.040000e-06	9.339414e-07	1.664076e-10	6.464787e+00	1.004504e+01
2.050000e-06	9.802013e-07	1.864697e-10	6.785000e+00	1.153986e+01
2.060000e-06	1.026427e-06	2.097525e-10	7.104974e+00	1.303004e+01
2.070000e-06	1.072605e-06	2.353636e-10	7.424624e+00	1.451416e+01
2.080000e-06	1.118613e-06	2.578834e-10	7.743095e+00	1.599085e+01
2.090000e-06	1.164522e-06	2.764408e-10	8.060879e+00	1.745875e+01
2.100000e-06	1.210388e-06	2.942150e-10	8.378361e+00	1.891655e+01
2.110000e-06	1.256098e-06	3.131355e-10	8.694768e+00	2.036297e+01
2.120000e-06	1.301719e-06	3.333528e-10	9.010560e+00	2.179678e+01
2.130000e-06	1.347258e-06	3.529970e-10	9.325785e+00	2.321681e+01
2.140000e-06	1.392631e-06	3.740360e-10	9.639858e+00	2.462195e+01
2.150000e-06	1.437892e-06	3.945691e-10	9.953156e+00	2.601116e+01
2.160000e-06	1.483145e-06	4.133803e-10	1.026640e+01	2.738346e+01
2.170000e-06	1.528486e-06	4.314210e-10	1.058025e+01	2.873793e+01
2.180000e-06	1.573747e-06	4.501033e-10	1.089355e+01	3.007375e+01
2.190000e-06	1.618818e-06	4.682789e-10	1.120553e+01	3.139017e+01
2.200000e-06	1.663738e-06	4.864911e-10	1.151648e+01	3.268650e+01
2.210000e-06	1.708485e-06	5.062369e-10	1.182621e+01	3.396217e+01
2.220000e-06	1.753064e-06	5.266223e-10	1.213479e+01	3.521666e+01
2.230000e-06	1.797520e-06	5.448678e-10	1.244252e+01	3.644954e+01
2.240000e-06	1.841892e-06	5.599076e-10	1.274966e+01	3.766048e+01
2.250000e-06	1.886100e-06	5.732013e-10	1.305567e+01	3.884922e+01
2.260000e-06	1.930165e-06	5.862576e-10	1.336070e+01	4.001556e+01
2.270000e-06	1.974137e-06	6.001135e-10	1.366507e+01	4.115943e+01
2.280000e-06	2.018031e-06	6.154417e-10	1.396891e+01	4.228077e+01
2.290000e-06	2.061844e-06	6.312534e-10	1.427218e+01	4.337966e+01
2.300000e-06	2.105542e-06	6.473019e-10	1.457466e+01	4.445619e+01
2.310000e-06	2.149155e-06	6.634319e-10	1.487656e+01	4.551057e+01
2.320000e-06	2.192672e-06	6.784486e-10	1.517778e+01	4.654302e+01
2.330000e-06	2.236083e-06	6.926874e-10	1.547827e+01	4.755385e+01
2.340000e-06	2.279413e-06	7.059559e-10	1.577821e+01	4.854341e+01
2.350000e-06	2.322678e-06	7.193666e-10	1.607769e+01	4.951211e+01
2.360000e-06	2.365720e-06	7.310878e-10	1.637563e+01	5.046037e+01
2.370000e-06	2.408486e-06	7.419294e-10	1.667166e+01	5.138869e+01
2.380000e-06	2.451143e-06	7.544325e-10	1.696693e+01	5.229756e+01
2.390000e-06	2.493589e-06	7.673149e-10	1.726074e+01	5.318751e+01
2.400000e-06	2.535741e-06	7.800351e-10	1.755252e+01	5.405910e+01
2.410000e-06	2.577475e-06	7.939307e-10	1.784140e+01	5.491287e+01
2.420000e-06	2.618762e-06	8.090547e-10	1.812719e+01	5.574941e+01
2.430000e-06	2.659805e-06	8.229644e-10	1.841129e+01	5.656929e+01
2.440000e-06	2.700617e-06	8.368117e-10	1.869380e+01	5.737306e+01
2.450000e-06	2.741190e-06	8.510504e-10	1.897465e+01	5.816130e+01
2.460000e-06	2.781491e-06	8.614097e-10	1.925361e+01	5.893455e+01
2.470000e-06	2.821562e-06	8.704728e-10	1.953099e+01	5.969333e+01
2.480000e-06	2.861490e-06	8.782761e-10	1.980737e+01	6.043817e+01
2.490000e-06	2.901247e-06	8.875581e-10	2.008257e+01	6.116955e+01
2.500000e-06	2.940876e-06	8.993972e-10	2.035688e+01	6.188792e+01
2.510000e-06	2.980417e-06	9.121800e-10	2.063059e+01	6.259372e+01
2.520000e-06	3.019757e-06	9.263854e-10	2.090290e+01	6.328735e+01
2.530000e-06	3.058898e-06	9.377041e-10	2.117384e+01	6.396917e+01
2.540000e-06	3.097902e-06	9.466739e-10	2.144382e+01	6.463950e+01
2.550000e-06	3.136701e-06	9.520536e-10	2.171240e+01	6.529865e+01
2.560000e-06	3.175255e-06	9.578455e-10	2.197927e+01	6.594688e+01
2.570000e-06	3.213572e-06	9.647523e-10	2.224450e+01	6.658439e+01
2.580000e-06	3.251644e-06	9.705345e-10	2.250803e+01	6.721140e+01
2.590000e-06	3.289449e-06	9.773113e-10	2.276973e+01	6.782804e+01
2.600000e-06	3.327035e-06	9.872568e-10	2.302989e+01	6.843444e+01
2.610000e-06	3.364446e-06	1.000591e-09	2.328886e+01	6.903069e+01
2.620000e-06	3.401647e-06	1.012663e-09	2.354636e+01	6.961686e+01
2.630000e-06	3.438617e-06	1.020782e-09	2.380227e+01	7.019297e+01
2.640000e-06	3.475302e-06	1.026083e-09	2.405621e+01	7.075905e+01
2.650000e-06	3.511723e-06	1.031137e-09	2.430831e+01	7.131508e+01
2.660000e-06	3.547860e-06	1.036712e-09	2.455845e+01	7.186104e+01
2.670000e-06	3.583780e-06	1.042069e-09	2.480709e+01	7.239689e+01
2.680000e-06	3.619615e-06	1.047805e-09	2.505515e+01	7.292258e+01
2.690000e-06	3.655317e-06	1.056045e-09	2.530228e+01	7.343806e+01
2.700000e-06	3.690888e-06	1.067084e-09	2.554850e+01	7.394326e+01
2.710000e-06	3.726339e-06	1.077675e-09	2.579390e+01	7.443812e+01
2.720000e-06	3.761577e-06	1.087561e-09	2.603781e+01	7.492259e+01
2.730000e-06	3.796484e-06	1.095963e-09	2.627944e+01	7.539661e+01
2.740000e-06	3.831018e-06	1.101935e-09	2.651849e+01	7.586015e+01
2.750000e-06	3.865225e-06	1.106831e-09	2.675527e+01	7.631316e+01
2.760000e-06	3.898920e-06	1.111489e-09	2.698851e+01	7.675565e+01
2.770000e-06	3.932054e-06	1.117577e-09	2.721787e+01	7.718760e+01
2.780000e-06	3.964841e-06	1.125173e-09	2.744482e+01	7.760904e+01
2.790000e-06	3.997309e-06	1.135244e-09	2.766957e+01	7.802001e+01
2.800000e-06	4.029450e-06	1.146908e-09	2.789204e+01	7.842058e+01
2.810000e-06	4.061298e-06	1.157444e-09	2.811250e+01	7.881084e+01
2.820000e-06	4.092943e-06	1.164954e-09	2.833154e+01	7.919090e+01
2.830000e-06	4.124378e-06	1.170116e-09	2.854914e+01	7.956090e+01
2.840000e-06	4.155628e-06	1.172973e-09	2.876545e+01	7.992101e+01
2.850000e-06	4.186621e-06	1.176267e-09	2.897999e+01	8.027141e+01
2.860000e-06	4.217309e-06	1.182316e-09	2.919241e+01	8.061233e+01
2.870000e-06	4.247732e-06	1.188461e-09	2.940300e+01	8.094399e+01
2.880000e-06	4.277849e-06	1.194857e-09	2.961147e+01	8.126665e+01
2.890000e-06	4.307700e-06	1.202525e-09	2.981810e+01	8.158060e+01
2.900000e-06	4.337270e-06	1.210955e-09	3.002279e+01	8.188613e+01
