# Temperatura_=_8.36
# Concentracion g/m^3_=_1620.0
# C_Vs_to_Am_M_A/Vsm_=_65563218390.804596
# pendiente_HvsI_1/m_=_3716.3
# ordenada_HvsI_A/m_=_1297.0
# frecuencia_Hz_=_135102.2658450322

Tiempo_(s)	Campo_(V.s)	Magnetizacion_(V.s)	Campo_(kA/m)	Magnetizacion_(A/m)
0.000000e+00	-5.521299e-06	-6.914761e-10	-3.836792e+01	-4.587246e+01
1.000000e-08	-5.521374e-06	-6.919109e-10	-3.836845e+01	-4.589062e+01
2.000000e-08	-5.521211e-06	-6.923910e-10	-3.836732e+01	-4.591199e+01
3.000000e-08	-5.520670e-06	-6.897836e-10	-3.836355e+01	-4.593629e+01
4.000000e-08	-5.519648e-06	-6.854405e-10	-3.835645e+01	-4.596321e+01
5.000000e-08	-5.518017e-06	-6.816064e-10	-3.834511e+01	-4.599240e+01
6.000000e-08	-5.515719e-06	-6.726762e-10	-3.832915e+01	-4.602352e+01
7.000000e-08	-5.512914e-06	-6.744722e-10	-3.830966e+01	-4.605616e+01
8.000000e-08	-5.509632e-06	-6.866938e-10	-3.828685e+01	-4.608993e+01
9.000000e-08	-5.505835e-06	-6.887634e-10	-3.826046e+01	-4.612440e+01
1.000000e-07	-5.501600e-06	-6.836736e-10	-3.823104e+01	-4.615916e+01
1.100000e-07	-5.497078e-06	-6.988966e-10	-3.819961e+01	-4.619376e+01
1.200000e-07	-5.492312e-06	-6.707586e-10	-3.816649e+01	-4.622777e+01
1.300000e-07	-5.487261e-06	-6.666537e-10	-3.813139e+01	-4.626075e+01
1.400000e-07	-5.481856e-06	-6.326975e-10	-3.809383e+01	-4.629228e+01
1.500000e-07	-5.476137e-06	-6.605286e-10	-3.805409e+01	-4.632193e+01
1.600000e-07	-5.470041e-06	-6.637153e-10	-3.801173e+01	-4.634929e+01
1.700000e-07	-5.463394e-06	-6.867142e-10	-3.796553e+01	-4.637397e+01
1.800000e-07	-5.456311e-06	-7.017758e-10	-3.791632e+01	-4.639559e+01
1.900000e-07	-5.448955e-06	-7.032032e-10	-3.786520e+01	-4.641381e+01
2.000000e-07	-5.441331e-06	-6.911276e-10	-3.781222e+01	-4.642829e+01
2.100000e-07	-5.433453e-06	-6.755711e-10	-3.775748e+01	-4.643873e+01
2.200000e-07	-5.425323e-06	-6.859536e-10	-3.770098e+01	-4.644485e+01
2.300000e-07	-5.416843e-06	-6.990501e-10	-3.764205e+01	-4.644643e+01
2.400000e-07	-5.407786e-06	-7.279444e-10	-3.757912e+01	-4.644324e+01
2.500000e-07	-5.398082e-06	-7.273429e-10	-3.751168e+01	-4.643512e+01
2.600000e-07	-5.387827e-06	-7.293053e-10	-3.744042e+01	-4.642191e+01
2.700000e-07	-5.376984e-06	-7.005164e-10	-3.736507e+01	-4.640351e+01
2.800000e-07	-5.365612e-06	-7.153753e-10	-3.728604e+01	-4.637984e+01
2.900000e-07	-5.353892e-06	-7.111516e-10	-3.720460e+01	-4.635087e+01
3.000000e-07	-5.341770e-06	-7.210041e-10	-3.712036e+01	-4.631660e+01
3.100000e-07	-5.329189e-06	-7.063235e-10	-3.703294e+01	-4.627704e+01
3.200000e-07	-5.316198e-06	-7.305121e-10	-3.694266e+01	-4.623225e+01
3.300000e-07	-5.302844e-06	-7.160146e-10	-3.684986e+01	-4.618234e+01
3.400000e-07	-5.289188e-06	-7.068459e-10	-3.675497e+01	-4.612741e+01
3.500000e-07	-5.275131e-06	-6.931985e-10	-3.665729e+01	-4.606760e+01
3.600000e-07	-5.260510e-06	-7.041230e-10	-3.655568e+01	-4.600310e+01
3.700000e-07	-5.245279e-06	-6.922704e-10	-3.644984e+01	-4.593409e+01
3.800000e-07	-5.229599e-06	-7.126992e-10	-3.634088e+01	-4.586078e+01
3.900000e-07	-5.213501e-06	-7.320026e-10	-3.622901e+01	-4.578340e+01
4.000000e-07	-5.196988e-06	-7.129286e-10	-3.611426e+01	-4.570219e+01
4.100000e-07	-5.180168e-06	-6.882782e-10	-3.599738e+01	-4.561742e+01
4.200000e-07	-5.163089e-06	-7.056919e-10	-3.587869e+01	-4.552935e+01
4.300000e-07	-5.145677e-06	-7.075479e-10	-3.575770e+01	-4.543825e+01
4.400000e-07	-5.127850e-06	-6.796439e-10	-3.563382e+01	-4.534440e+01
4.500000e-07	-5.109625e-06	-7.037562e-10	-3.550717e+01	-4.524808e+01
4.600000e-07	-5.090934e-06	-7.227264e-10	-3.537728e+01	-4.514956e+01
4.700000e-07	-5.071861e-06	-6.910825e-10	-3.524475e+01	-4.504913e+01
4.800000e-07	-5.052501e-06	-6.785482e-10	-3.511021e+01	-4.494704e+01
4.900000e-07	-5.032936e-06	-7.135133e-10	-3.497426e+01	-4.484357e+01
5.000000e-07	-5.013178e-06	-6.889391e-10	-3.483696e+01	-4.473896e+01
5.100000e-07	-4.993167e-06	-6.685649e-10	-3.469790e+01	-4.463346e+01
5.200000e-07	-4.972818e-06	-6.984816e-10	-3.455649e+01	-4.452730e+01
5.300000e-07	-4.952138e-06	-7.139246e-10	-3.441278e+01	-4.442068e+01
5.400000e-07	-4.931122e-06	-6.840763e-10	-3.426674e+01	-4.431382e+01
5.500000e-07	-4.909684e-06	-7.039168e-10	-3.411777e+01	-4.420688e+01
5.600000e-07	-4.887943e-06	-7.089842e-10	-3.396669e+01	-4.410005e+01
5.700000e-07	-4.865848e-06	-6.792785e-10	-3.381315e+01	-4.399346e+01
5.800000e-07	-4.843316e-06	-6.736049e-10	-3.365657e+01	-4.388724e+01
5.900000e-07	-4.820524e-06	-7.042519e-10	-3.349818e+01	-4.378152e+01
6.000000e-07	-4.797440e-06	-6.909797e-10	-3.333777e+01	-4.367638e+01
6.100000e-07	-4.774003e-06	-6.863131e-10	-3.317491e+01	-4.357190e+01
6.200000e-07	-4.750334e-06	-6.975611e-10	-3.301043e+01	-4.346814e+01
6.300000e-07	-4.726395e-06	-6.878361e-10	-3.284407e+01	-4.336514e+01
6.400000e-07	-4.702160e-06	-6.680775e-10	-3.267566e+01	-4.326294e+01
6.500000e-07	-4.677602e-06	-6.804877e-10	-3.250501e+01	-4.316153e+01
6.600000e-07	-4.652614e-06	-6.782941e-10	-3.233136e+01	-4.306093e+01
6.700000e-07	-4.627127e-06	-6.668312e-10	-3.215426e+01	-4.296111e+01
6.800000e-07	-4.601096e-06	-6.719242e-10	-3.197336e+01	-4.286204e+01
6.900000e-07	-4.574558e-06	-6.797407e-10	-3.178895e+01	-4.276368e+01
7.000000e-07	-4.547557e-06	-6.708709e-10	-3.160132e+01	-4.266599e+01
7.100000e-07	-4.520223e-06	-6.683528e-10	-3.141137e+01	-4.256890e+01
7.200000e-07	-4.492696e-06	-6.676888e-10	-3.122009e+01	-4.247234e+01
7.300000e-07	-4.464972e-06	-6.588002e-10	-3.102743e+01	-4.237624e+01
7.400000e-07	-4.437037e-06	-6.623002e-10	-3.083330e+01	-4.228051e+01
7.500000e-07	-4.408827e-06	-6.685306e-10	-3.063727e+01	-4.218507e+01
7.600000e-07	-4.380264e-06	-6.680462e-10	-3.043878e+01	-4.208983e+01
7.700000e-07	-4.351340e-06	-6.662615e-10	-3.023779e+01	-4.199468e+01
7.800000e-07	-4.322120e-06	-6.717142e-10	-3.003474e+01	-4.189954e+01
7.900000e-07	-4.292616e-06	-6.641190e-10	-2.982971e+01	-4.180430e+01
8.000000e-07	-4.262801e-06	-6.565325e-10	-2.962253e+01	-4.170886e+01
8.100000e-07	-4.232707e-06	-6.531429e-10	-2.941340e+01	-4.161311e+01
8.200000e-07	-4.202353e-06	-6.529255e-10	-2.920247e+01	-4.151695e+01
8.300000e-07	-4.171743e-06	-6.480031e-10	-2.898976e+01	-4.142027e+01
8.400000e-07	-4.140798e-06	-6.540710e-10	-2.877472e+01	-4.132297e+01
8.500000e-07	-4.109570e-06	-6.574366e-10	-2.855772e+01	-4.122494e+01
8.600000e-07	-4.078196e-06	-6.544070e-10	-2.833969e+01	-4.112607e+01
8.700000e-07	-4.046607e-06	-6.477921e-10	-2.812017e+01	-4.102625e+01
8.800000e-07	-4.014829e-06	-6.499551e-10	-2.789935e+01	-4.092538e+01
8.900000e-07	-3.982849e-06	-6.416419e-10	-2.767712e+01	-4.082334e+01
9.000000e-07	-3.950695e-06	-6.344308e-10	-2.745368e+01	-4.072003e+01
9.100000e-07	-3.918265e-06	-6.336863e-10	-2.722832e+01	-4.061534e+01
9.200000e-07	-3.885381e-06	-6.349995e-10	-2.699980e+01	-4.050914e+01
9.300000e-07	-3.852042e-06	-6.310011e-10	-2.676813e+01	-4.040133e+01
9.400000e-07	-3.818189e-06	-6.315765e-10	-2.653288e+01	-4.029178e+01
9.500000e-07	-3.783895e-06	-6.302576e-10	-2.629457e+01	-4.018039e+01
9.600000e-07	-3.749273e-06	-6.207531e-10	-2.605398e+01	-4.006703e+01
9.700000e-07	-3.714319e-06	-6.103499e-10	-2.581109e+01	-3.995157e+01
9.800000e-07	-3.679040e-06	-6.079165e-10	-2.556593e+01	-3.983390e+01
9.900000e-07	-3.643516e-06	-6.054288e-10	-2.531907e+01	-3.971389e+01
1.000000e-06	-3.607842e-06	-6.037962e-10	-2.507116e+01	-3.959140e+01
1.010000e-06	-3.572004e-06	-6.071031e-10	-2.482213e+01	-3.946631e+01
1.020000e-06	-3.535979e-06	-6.091153e-10	-2.457179e+01	-3.933848e+01
1.030000e-06	-3.499780e-06	-6.066765e-10	-2.432024e+01	-3.920779e+01
1.040000e-06	-3.463394e-06	-6.044609e-10	-2.406739e+01	-3.907409e+01
1.050000e-06	-3.426752e-06	-6.015617e-10	-2.381276e+01	-3.893725e+01
1.060000e-06	-3.389831e-06	-5.916102e-10	-2.355619e+01	-3.879714e+01
1.070000e-06	-3.352627e-06	-5.864577e-10	-2.329766e+01	-3.865362e+01
1.080000e-06	-3.315152e-06	-5.865924e-10	-2.303724e+01	-3.850656e+01
1.090000e-06	-3.277509e-06	-5.876578e-10	-2.277566e+01	-3.835584e+01
1.100000e-06	-3.239642e-06	-5.859590e-10	-2.251251e+01	-3.820132e+01
1.110000e-06	-3.201475e-06	-5.860869e-10	-2.224729e+01	-3.804288e+01
1.120000e-06	-3.163113e-06	-5.812344e-10	-2.198071e+01	-3.788041e+01
1.130000e-06	-3.124616e-06	-5.736355e-10	-2.171319e+01	-3.771378e+01
1.140000e-06	-3.085908e-06	-5.664096e-10	-2.144421e+01	-3.754291e+01
1.150000e-06	-3.047006e-06	-5.637169e-10	-2.117388e+01	-3.736768e+01
1.160000e-06	-3.007948e-06	-5.610437e-10	-2.090246e+01	-3.718800e+01
1.170000e-06	-2.968682e-06	-5.616779e-10	-2.062959e+01	-3.700379e+01
1.180000e-06	-2.929208e-06	-5.631891e-10	-2.035529e+01	-3.681498e+01
1.190000e-06	-2.889563e-06	-5.650484e-10	-2.007979e+01	-3.662150e+01
1.200000e-06	-2.849809e-06	-5.641806e-10	-1.980354e+01	-3.642330e+01
1.210000e-06	-2.809912e-06	-5.614606e-10	-1.952629e+01	-3.622032e+01
1.220000e-06	-2.769854e-06	-5.540452e-10	-1.924792e+01	-3.601253e+01
1.230000e-06	-2.729631e-06	-5.481148e-10	-1.896841e+01	-3.579990e+01
1.240000e-06	-2.689145e-06	-5.440221e-10	-1.868707e+01	-3.558242e+01
1.250000e-06	-2.648484e-06	-5.421795e-10	-1.840451e+01	-3.536008e+01
1.260000e-06	-2.607566e-06	-5.428544e-10	-1.812017e+01	-3.513286e+01
1.270000e-06	-2.566382e-06	-5.432686e-10	-1.783398e+01	-3.490079e+01
1.280000e-06	-2.525054e-06	-5.410028e-10	-1.754679e+01	-3.466387e+01
1.290000e-06	-2.483433e-06	-5.353113e-10	-1.725756e+01	-3.442211e+01
1.300000e-06	-2.441470e-06	-5.272335e-10	-1.696596e+01	-3.417554e+01
1.310000e-06	-2.399184e-06	-5.208868e-10	-1.667211e+01	-3.392418e+01
1.320000e-06	-2.356606e-06	-5.167998e-10	-1.637623e+01	-3.366805e+01
1.330000e-06	-2.313790e-06	-5.127293e-10	-1.607870e+01	-3.340717e+01
1.340000e-06	-2.270712e-06	-5.105679e-10	-1.577935e+01	-3.314156e+01
1.350000e-06	-2.227378e-06	-5.091695e-10	-1.547821e+01	-3.287123e+01
1.360000e-06	-2.183874e-06	-5.050066e-10	-1.517591e+01	-3.259618e+01
1.370000e-06	-2.140310e-06	-4.991663e-10	-1.487318e+01	-3.231641e+01
1.380000e-06	-2.096708e-06	-4.943160e-10	-1.457018e+01	-3.203190e+01
1.390000e-06	-2.053027e-06	-4.879512e-10	-1.426664e+01	-3.174260e+01
1.400000e-06	-2.009242e-06	-4.823597e-10	-1.396238e+01	-3.144849e+01
1.410000e-06	-1.965358e-06	-4.759635e-10	-1.365742e+01	-3.114948e+01
1.420000e-06	-1.921403e-06	-4.698563e-10	-1.335198e+01	-3.084548e+01
1.430000e-06	-1.877363e-06	-4.635630e-10	-1.304594e+01	-3.053638e+01
1.440000e-06	-1.833247e-06	-4.589103e-10	-1.273937e+01	-3.022205e+01
1.450000e-06	-1.789033e-06	-4.536069e-10	-1.243213e+01	-2.990232e+01
1.460000e-06	-1.744656e-06	-4.459825e-10	-1.212375e+01	-2.957700e+01
1.470000e-06	-1.700099e-06	-4.357563e-10	-1.181412e+01	-2.924587e+01
1.480000e-06	-1.655421e-06	-4.248666e-10	-1.150364e+01	-2.890868e+01
1.490000e-06	-1.610671e-06	-4.157236e-10	-1.119268e+01	-2.856514e+01
1.500000e-06	-1.565792e-06	-4.123523e-10	-1.088081e+01	-2.821495e+01
1.510000e-06	-1.520747e-06	-4.085421e-10	-1.056778e+01	-2.785777e+01
1.520000e-06	-1.475536e-06	-3.995677e-10	-1.025361e+01	-2.749321e+01
1.530000e-06	-1.430245e-06	-3.886253e-10	-9.938882e+00	-2.712089e+01
1.540000e-06	-1.384863e-06	-3.808190e-10	-9.623520e+00	-2.674036e+01
1.550000e-06	-1.339387e-06	-3.730477e-10	-9.307502e+00	-2.635117e+01
1.560000e-06	-1.293872e-06	-3.629812e-10	-8.991215e+00	-2.595284e+01
1.570000e-06	-1.248259e-06	-3.520421e-10	-8.674248e+00	-2.554487e+01
1.580000e-06	-1.202493e-06	-3.424447e-10	-8.356213e+00	-2.512672e+01
1.590000e-06	-1.156625e-06	-3.328892e-10	-8.037474e+00	-2.469787e+01
1.600000e-06	-1.110735e-06	-3.252468e-10	-7.718584e+00	-2.425774e+01
1.610000e-06	-1.064812e-06	-3.182734e-10	-7.399459e+00	-2.380578e+01
1.620000e-06	-1.018813e-06	-3.093645e-10	-7.079806e+00	-2.334141e+01
1.630000e-06	-9.727409e-07	-3.002031e-10	-6.759650e+00	-2.286407e+01
1.640000e-06	-9.265804e-07	-2.903122e-10	-6.438877e+00	-2.237319e+01
1.650000e-06	-8.803261e-07	-2.797577e-10	-6.117453e+00	-2.186820e+01
1.660000e-06	-8.340532e-07	-2.684729e-10	-5.795899e+00	-2.134856e+01
1.670000e-06	-7.877437e-07	-2.597937e-10	-5.474090e+00	-2.081373e+01
1.680000e-06	-7.413270e-07	-2.520636e-10	-5.151537e+00	-2.026322e+01
1.690000e-06	-6.948810e-07	-2.468718e-10	-4.828780e+00	-1.969655e+01
1.700000e-06	-6.484292e-07	-2.418921e-10	-4.505983e+00	-1.911327e+01
1.710000e-06	-6.019275e-07	-2.337616e-10	-4.182840e+00	-1.851299e+01
1.720000e-06	-5.553674e-07	-2.215480e-10	-3.859290e+00	-1.789534e+01
1.730000e-06	-5.087147e-07	-2.070812e-10	-3.535097e+00	-1.726001e+01
1.740000e-06	-4.620297e-07	-1.934033e-10	-3.210679e+00	-1.660675e+01
1.750000e-06	-4.153340e-07	-1.829602e-10	-2.886187e+00	-1.593536e+01
1.760000e-06	-3.686886e-07	-1.731413e-10	-2.562045e+00	-1.524572e+01
1.770000e-06	-3.220045e-07	-1.664204e-10	-2.237634e+00	-1.453775e+01
1.780000e-06	-2.752368e-07	-1.612407e-10	-1.912641e+00	-1.381147e+01
1.790000e-06	-2.284218e-07	-1.524095e-10	-1.587320e+00	-1.306694e+01
1.800000e-06	-1.815787e-07	-1.402377e-10	-1.261804e+00	-1.230433e+01
1.810000e-06	-1.347637e-07	-1.248896e-10	-9.364829e-01	-1.152387e+01
1.820000e-06	-8.795551e-08	-1.111615e-10	-6.112095e-01	-1.072586e+01
1.830000e-06	-4.114003e-08	-1.008732e-10	-2.858852e-01	-9.910713e+00
1.840000e-06	5.756292e-09	-9.066380e-11	4.000091e-02	-9.078890e+00
1.850000e-06	5.263791e-08	-8.255503e-11	3.657848e-01	-8.230949e+00
1.860000e-06	9.935651e-08	-7.357397e-11	6.904359e-01	-7.367525e+00
1.870000e-06	1.460305e-07	-6.304291e-11	1.014777e+00	-6.489333e+00
1.880000e-06	1.927891e-07	-5.246952e-11	1.339706e+00	-5.597163e+00
1.890000e-06	2.396252e-07	-3.955947e-11	1.665174e+00	-4.691878e+00
1.900000e-06	2.864406e-07	-2.678134e-11	1.990498e+00	-3.774412e+00
1.910000e-06	3.332201e-07	-1.496072e-11	2.315572e+00	-2.845767e+00
1.920000e-06	3.800110e-07	-4.152882e-12	2.640725e+00	-1.907005e+00
1.930000e-06	4.267247e-07	7.780164e-12	2.965342e+00	-9.592469e-01
1.940000e-06	4.733719e-07	1.790114e-11	3.289497e+00	-3.663794e-03
1.950000e-06	5.200455e-07	2.709233e-11	3.613836e+00	9.585263e-01
1.960000e-06	5.666433e-07	3.804543e-11	3.937647e+00	1.926066e+00
1.970000e-06	6.131101e-07	5.163006e-11	4.260548e+00	2.897666e+00
1.980000e-06	6.595238e-07	6.486992e-11	4.583081e+00	3.872010e+00
1.990000e-06	7.059649e-07	7.796954e-11	4.905804e+00	4.847763e+00
2.000000e-06	7.523956e-07	9.290424e-11	5.228454e+00	5.823580e+00
2.010000e-06	7.987591e-07	1.072889e-10	5.550637e+00	6.798111e+00
2.020000e-06	8.450228e-07	1.213457e-10	5.872128e+00	7.770009e+00
2.030000e-06	8.911221e-07	1.353554e-10	6.192475e+00	8.737942e+00
2.040000e-06	9.371831e-07	1.481688e-10	6.512556e+00	9.700592e+00
2.050000e-06	9.832480e-07	1.617060e-10	6.832665e+00	1.065667e+01
2.060000e-06	1.029281e-06	1.753710e-10	7.152550e+00	1.160492e+01
2.070000e-06	1.075220e-06	1.905174e-10	7.471788e+00	1.254413e+01
2.080000e-06	1.121043e-06	2.039859e-10	7.790213e+00	1.347313e+01
2.090000e-06	1.166825e-06	2.171190e-10	8.108352e+00	1.439081e+01
2.100000e-06	1.212512e-06	2.312803e-10	8.425837e+00	1.529610e+01
2.110000e-06	1.258084e-06	2.441430e-10	8.742519e+00	1.618802e+01
2.120000e-06	1.303629e-06	2.561102e-10	9.059017e+00	1.706564e+01
2.130000e-06	1.349091e-06	2.675142e-10	9.374932e+00	1.792813e+01
2.140000e-06	1.394439e-06	2.782303e-10	9.690064e+00	1.877469e+01
2.150000e-06	1.439686e-06	2.864074e-10	1.000448e+01	1.960465e+01
2.160000e-06	1.484757e-06	2.978803e-10	1.031769e+01	2.041740e+01
2.170000e-06	1.529674e-06	3.120103e-10	1.062982e+01	2.121240e+01
2.180000e-06	1.574509e-06	3.254888e-10	1.094138e+01	2.198923e+01
2.190000e-06	1.619306e-06	3.375522e-10	1.125268e+01	2.274752e+01
2.200000e-06	1.663952e-06	3.489937e-10	1.156293e+01	2.348702e+01
2.210000e-06	1.708426e-06	3.588891e-10	1.187198e+01	2.420754e+01
2.220000e-06	1.752786e-06	3.675089e-10	1.218024e+01	2.490898e+01
2.230000e-06	1.796997e-06	3.772125e-10	1.248747e+01	2.559131e+01
2.240000e-06	1.841095e-06	3.853270e-10	1.279391e+01	2.625461e+01
2.250000e-06	1.885101e-06	3.952970e-10	1.309971e+01	2.689899e+01
2.260000e-06	1.929010e-06	4.063899e-10	1.340484e+01	2.752467e+01
2.270000e-06	1.972820e-06	4.129982e-10	1.370928e+01	2.813192e+01
2.280000e-06	2.016539e-06	4.209230e-10	1.401309e+01	2.872106e+01
2.290000e-06	2.060228e-06	4.289133e-10	1.431668e+01	2.929248e+01
2.300000e-06	2.103936e-06	4.365721e-10	1.462041e+01	2.984661e+01
2.310000e-06	2.147631e-06	4.437036e-10	1.492405e+01	3.038395e+01
2.320000e-06	2.191214e-06	4.515688e-10	1.522691e+01	3.090500e+01
2.330000e-06	2.234636e-06	4.583553e-10	1.552866e+01	3.141031e+01
2.340000e-06	2.277925e-06	4.635030e-10	1.582947e+01	3.190047e+01
2.350000e-06	2.320999e-06	4.689335e-10	1.612879e+01	3.237607e+01
2.360000e-06	2.363746e-06	4.746703e-10	1.642585e+01	3.283772e+01
2.370000e-06	2.406232e-06	4.825872e-10	1.672109e+01	3.328603e+01
2.380000e-06	2.448462e-06	4.911351e-10	1.701455e+01	3.372162e+01
2.390000e-06	2.490482e-06	4.995557e-10	1.730654e+01	3.414510e+01
2.400000e-06	2.532194e-06	5.051940e-10	1.759641e+01	3.455706e+01
2.410000e-06	2.573500e-06	5.107762e-10	1.788344e+01	3.495810e+01
2.420000e-06	2.614606e-06	5.167138e-10	1.816910e+01	3.534877e+01
2.430000e-06	2.655453e-06	5.187424e-10	1.845294e+01	3.572961e+01
2.440000e-06	2.696022e-06	5.225946e-10	1.873486e+01	3.610113e+01
2.450000e-06	2.736363e-06	5.292206e-10	1.901519e+01	3.646380e+01
2.460000e-06	2.776411e-06	5.370484e-10	1.929349e+01	3.681806e+01
2.470000e-06	2.816284e-06	5.448518e-10	1.957057e+01	3.716430e+01
2.480000e-06	2.856113e-06	5.487501e-10	1.984734e+01	3.750290e+01
2.490000e-06	2.895884e-06	5.527956e-10	2.012371e+01	3.783416e+01
2.500000e-06	2.935504e-06	5.581268e-10	2.039904e+01	3.815835e+01
2.510000e-06	2.974934e-06	5.631507e-10	2.067304e+01	3.847571e+01
2.520000e-06	3.014182e-06	5.671389e-10	2.094578e+01	3.878643e+01
2.530000e-06	3.053248e-06	5.727293e-10	2.121725e+01	3.909065e+01
2.540000e-06	3.092083e-06	5.770239e-10	2.148712e+01	3.938847e+01
2.550000e-06	3.130697e-06	5.785566e-10	2.175545e+01	3.967996e+01
2.560000e-06	3.169150e-06	5.816006e-10	2.202266e+01	3.996515e+01
2.570000e-06	3.207300e-06	5.845536e-10	2.228777e+01	4.024404e+01
2.580000e-06	3.245147e-06	5.860483e-10	2.255077e+01	4.051659e+01
2.590000e-06	3.282887e-06	5.877385e-10	2.281303e+01	4.078273e+01
2.600000e-06	3.320473e-06	5.898162e-10	2.307422e+01	4.104238e+01
2.610000e-06	3.357789e-06	5.942616e-10	2.333353e+01	4.129543e+01
2.620000e-06	3.394791e-06	5.997661e-10	2.359066e+01	4.154175e+01
2.630000e-06	3.431507e-06	6.035126e-10	2.384580e+01	4.178122e+01
2.640000e-06	3.467976e-06	6.047705e-10	2.409923e+01	4.201369e+01
2.650000e-06	3.504211e-06	6.068060e-10	2.435103e+01	4.223900e+01
2.660000e-06	3.540233e-06	6.096857e-10	2.460135e+01	4.245703e+01
2.670000e-06	3.576064e-06	6.112254e-10	2.485034e+01	4.266762e+01
2.680000e-06	3.611813e-06	6.124617e-10	2.509876e+01	4.287065e+01
2.690000e-06	3.647517e-06	6.153487e-10	2.534687e+01	4.306600e+01
2.700000e-06	3.683101e-06	6.194173e-10	2.559415e+01	4.325358e+01
2.710000e-06	3.718476e-06	6.234192e-10	2.583997e+01	4.343329e+01
2.720000e-06	3.753511e-06	6.302937e-10	2.608343e+01	4.360509e+01
2.730000e-06	3.788118e-06	6.352907e-10	2.632392e+01	4.376895e+01
2.740000e-06	3.822208e-06	6.370385e-10	2.656081e+01	4.392486e+01
2.750000e-06	3.855864e-06	6.387730e-10	2.679469e+01	4.407285e+01
2.760000e-06	3.889116e-06	6.408981e-10	2.702576e+01	4.421298e+01
2.770000e-06	3.921898e-06	6.440976e-10	2.725357e+01	4.434535e+01
2.780000e-06	3.954292e-06	6.469833e-10	2.747868e+01	4.447008e+01
2.790000e-06	3.986404e-06	6.512489e-10	2.770182e+01	4.458732e+01
2.800000e-06	4.018323e-06	6.556963e-10	2.792363e+01	4.469728e+01
2.810000e-06	4.050064e-06	6.600398e-10	2.814420e+01	4.480018e+01
2.820000e-06	4.081631e-06	6.633757e-10	2.836356e+01	4.489626e+01
2.830000e-06	4.112985e-06	6.644374e-10	2.858145e+01	4.498583e+01
2.840000e-06	4.144071e-06	6.648128e-10	2.879746e+01	4.506918e+01
2.850000e-06	4.174934e-06	6.664149e-10	2.901193e+01	4.514666e+01
2.860000e-06	4.205507e-06	6.685633e-10	2.922439e+01	4.521862e+01
2.870000e-06	4.235706e-06	6.681255e-10	2.943424e+01	4.528545e+01
2.880000e-06	4.265567e-06	6.697323e-10	2.964175e+01	4.534753e+01
2.890000e-06	4.295171e-06	6.729142e-10	2.984747e+01	4.540528e+01
2.900000e-06	4.324521e-06	6.775741e-10	3.005143e+01	4.545910e+01
