# Temperatura_=_-0.2
# Concentracion g/m^3_=_1620.0
# C_Vs_to_Am_M_A/Vsm_=_65563218390.804596
# pendiente_HvsI_1/m_=_3716.3
# ordenada_HvsI_A/m_=_1297.0
# frecuencia_Hz_=_135107.58972187585

Tiempo_(s)	Campo_(V.s)	Magnetizacion_(V.s)	Campo_(kA/m)	Magnetizacion_(A/m)
0.000000e+00	-5.523402e-06	-9.514452e-10	-3.836820e+01	-6.257337e+01
1.000000e-08	-5.523448e-06	-9.551952e-10	-3.836852e+01	-6.258453e+01
2.000000e-08	-5.523219e-06	-9.597220e-10	-3.836694e+01	-6.259427e+01
3.000000e-08	-5.522632e-06	-9.623374e-10	-3.836286e+01	-6.260240e+01
4.000000e-08	-5.521609e-06	-9.589880e-10	-3.835575e+01	-6.260869e+01
5.000000e-08	-5.520010e-06	-9.495750e-10	-3.834465e+01	-6.261294e+01
6.000000e-08	-5.517716e-06	-9.277593e-10	-3.832871e+01	-6.261494e+01
7.000000e-08	-5.514808e-06	-9.103593e-10	-3.830851e+01	-6.261447e+01
8.000000e-08	-5.511398e-06	-9.403488e-10	-3.828482e+01	-6.261133e+01
9.000000e-08	-5.507521e-06	-1.011744e-09	-3.825789e+01	-6.260531e+01
1.000000e-07	-5.503270e-06	-1.003826e-09	-3.822836e+01	-6.259621e+01
1.100000e-07	-5.498744e-06	-9.085759e-10	-3.819692e+01	-6.258385e+01
1.200000e-07	-5.494022e-06	-8.473113e-10	-3.816412e+01	-6.256805e+01
1.300000e-07	-5.489026e-06	-9.242574e-10	-3.812941e+01	-6.254865e+01
1.400000e-07	-5.483590e-06	-9.536747e-10	-3.809165e+01	-6.252550e+01
1.500000e-07	-5.477748e-06	-8.946218e-10	-3.805107e+01	-6.249847e+01
1.600000e-07	-5.471581e-06	-8.511165e-10	-3.800824e+01	-6.246745e+01
1.700000e-07	-5.465004e-06	-9.513029e-10	-3.796255e+01	-6.243234e+01
1.800000e-07	-5.457951e-06	-9.885134e-10	-3.791355e+01	-6.239306e+01
1.900000e-07	-5.450629e-06	-9.272943e-10	-3.786269e+01	-6.234957e+01
2.000000e-07	-5.443100e-06	-8.722651e-10	-3.781039e+01	-6.230183e+01
2.100000e-07	-5.435285e-06	-9.268327e-10	-3.775610e+01	-6.224984e+01
2.200000e-07	-5.427183e-06	-9.656964e-10	-3.769983e+01	-6.219359e+01
2.300000e-07	-5.418761e-06	-9.330615e-10	-3.764132e+01	-6.213314e+01
2.400000e-07	-5.409847e-06	-9.164687e-10	-3.757940e+01	-6.206852e+01
2.500000e-07	-5.400111e-06	-9.398949e-10	-3.751177e+01	-6.199982e+01
2.600000e-07	-5.389578e-06	-9.591525e-10	-3.743860e+01	-6.192713e+01
2.700000e-07	-5.378537e-06	-9.233771e-10	-3.736190e+01	-6.185056e+01
2.800000e-07	-5.367066e-06	-9.148027e-10	-3.728222e+01	-6.177024e+01
2.900000e-07	-5.355245e-06	-9.258120e-10	-3.720010e+01	-6.168632e+01
3.000000e-07	-5.343152e-06	-9.480839e-10	-3.711610e+01	-6.159894e+01
3.100000e-07	-5.330609e-06	-9.098305e-10	-3.702898e+01	-6.150829e+01
3.200000e-07	-5.317566e-06	-9.021490e-10	-3.693837e+01	-6.141454e+01
3.300000e-07	-5.304222e-06	-9.103714e-10	-3.684568e+01	-6.131787e+01
3.400000e-07	-5.290614e-06	-9.359441e-10	-3.675115e+01	-6.121849e+01
3.500000e-07	-5.276612e-06	-8.969107e-10	-3.665388e+01	-6.111659e+01
3.600000e-07	-5.262065e-06	-9.026609e-10	-3.655284e+01	-6.101237e+01
3.700000e-07	-5.247047e-06	-9.271462e-10	-3.644852e+01	-6.090602e+01
3.800000e-07	-5.231545e-06	-9.264015e-10	-3.634083e+01	-6.079775e+01
3.900000e-07	-5.215390e-06	-8.812567e-10	-3.622861e+01	-6.068774e+01
4.000000e-07	-5.198850e-06	-9.105351e-10	-3.611371e+01	-6.057618e+01
4.100000e-07	-5.182032e-06	-9.338961e-10	-3.599689e+01	-6.046325e+01
4.200000e-07	-5.164875e-06	-8.871078e-10	-3.587771e+01	-6.034910e+01
4.300000e-07	-5.147470e-06	-8.785771e-10	-3.575680e+01	-6.023390e+01
4.400000e-07	-5.129773e-06	-9.435874e-10	-3.563387e+01	-6.011778e+01
4.500000e-07	-5.111582e-06	-9.219275e-10	-3.550750e+01	-6.000087e+01
4.600000e-07	-5.092795e-06	-8.573194e-10	-3.537700e+01	-5.988329e+01
4.700000e-07	-5.073720e-06	-8.923060e-10	-3.524450e+01	-5.976512e+01
4.800000e-07	-5.054412e-06	-9.186977e-10	-3.511038e+01	-5.964644e+01
4.900000e-07	-5.034819e-06	-8.658508e-10	-3.497428e+01	-5.952732e+01
5.000000e-07	-5.015133e-06	-8.711092e-10	-3.483753e+01	-5.940780e+01
5.100000e-07	-4.995258e-06	-9.161422e-10	-3.469946e+01	-5.928789e+01
5.200000e-07	-4.974935e-06	-8.687138e-10	-3.455829e+01	-5.916762e+01
5.300000e-07	-4.954192e-06	-8.523862e-10	-3.441420e+01	-5.904697e+01
5.400000e-07	-4.933208e-06	-9.091286e-10	-3.426843e+01	-5.892592e+01
5.500000e-07	-4.911851e-06	-8.950282e-10	-3.412008e+01	-5.880443e+01
5.600000e-07	-4.890073e-06	-8.350027e-10	-3.396880e+01	-5.868244e+01
5.700000e-07	-4.867948e-06	-8.753034e-10	-3.381511e+01	-5.855989e+01
5.800000e-07	-4.845467e-06	-8.933618e-10	-3.365894e+01	-5.843671e+01
5.900000e-07	-4.822599e-06	-8.444271e-10	-3.350009e+01	-5.831279e+01
6.000000e-07	-4.799402e-06	-8.462532e-10	-3.333895e+01	-5.818805e+01
6.100000e-07	-4.775969e-06	-8.851071e-10	-3.317618e+01	-5.806238e+01
6.200000e-07	-4.752313e-06	-8.469514e-10	-3.301186e+01	-5.793567e+01
6.300000e-07	-4.728478e-06	-8.327013e-10	-3.284628e+01	-5.780781e+01
6.400000e-07	-4.704351e-06	-8.651951e-10	-3.267868e+01	-5.767869e+01
6.500000e-07	-4.679719e-06	-8.588950e-10	-3.250758e+01	-5.754818e+01
6.600000e-07	-4.654627e-06	-8.317989e-10	-3.233328e+01	-5.741617e+01
6.700000e-07	-4.629095e-06	-8.543088e-10	-3.215592e+01	-5.728255e+01
6.800000e-07	-4.602928e-06	-8.510394e-10	-3.197415e+01	-5.714721e+01
6.900000e-07	-4.576236e-06	-8.252003e-10	-3.178874e+01	-5.701005e+01
7.000000e-07	-4.549169e-06	-8.324750e-10	-3.160072e+01	-5.687098e+01
7.100000e-07	-4.521779e-06	-8.471317e-10	-3.141045e+01	-5.672990e+01
7.200000e-07	-4.494192e-06	-8.282613e-10	-3.121882e+01	-5.658673e+01
7.300000e-07	-4.466443e-06	-8.275243e-10	-3.102606e+01	-5.644141e+01
7.400000e-07	-4.438561e-06	-8.421147e-10	-3.083238e+01	-5.629387e+01
7.500000e-07	-4.410435e-06	-8.324168e-10	-3.063700e+01	-5.614406e+01
7.600000e-07	-4.381942e-06	-8.209710e-10	-3.043908e+01	-5.599194e+01
7.700000e-07	-4.353113e-06	-8.291290e-10	-3.023882e+01	-5.583749e+01
7.800000e-07	-4.323962e-06	-8.233898e-10	-3.003632e+01	-5.568067e+01
7.900000e-07	-4.294585e-06	-8.101646e-10	-2.983225e+01	-5.552149e+01
8.000000e-07	-4.264934e-06	-8.186596e-10	-2.962628e+01	-5.535993e+01
8.100000e-07	-4.234877e-06	-8.208813e-10	-2.941750e+01	-5.519600e+01
8.200000e-07	-4.204509e-06	-8.136677e-10	-2.920654e+01	-5.502972e+01
8.300000e-07	-4.173879e-06	-8.175860e-10	-2.899377e+01	-5.486111e+01
8.400000e-07	-4.142944e-06	-8.236152e-10	-2.877888e+01	-5.469018e+01
8.500000e-07	-4.111712e-06	-8.095968e-10	-2.856193e+01	-5.451698e+01
8.600000e-07	-4.080266e-06	-8.058633e-10	-2.834349e+01	-5.434152e+01
8.700000e-07	-4.048675e-06	-8.057201e-10	-2.812405e+01	-5.416383e+01
8.800000e-07	-4.016951e-06	-7.983223e-10	-2.790367e+01	-5.398396e+01
8.900000e-07	-3.985066e-06	-7.924511e-10	-2.768218e+01	-5.380191e+01
9.000000e-07	-3.952856e-06	-7.991864e-10	-2.745844e+01	-5.361772e+01
9.100000e-07	-3.920276e-06	-7.929709e-10	-2.723212e+01	-5.343141e+01
9.200000e-07	-3.887319e-06	-7.867008e-10	-2.700319e+01	-5.324298e+01
9.300000e-07	-3.853890e-06	-7.892620e-10	-2.677097e+01	-5.305244e+01
9.400000e-07	-3.820006e-06	-7.904526e-10	-2.653560e+01	-5.285978e+01
9.500000e-07	-3.785694e-06	-7.825713e-10	-2.629725e+01	-5.266498e+01
9.600000e-07	-3.750906e-06	-7.855217e-10	-2.605560e+01	-5.246801e+01
9.700000e-07	-3.715746e-06	-7.888694e-10	-2.581136e+01	-5.226883e+01
9.800000e-07	-3.680354e-06	-7.831517e-10	-2.556551e+01	-5.206738e+01
9.900000e-07	-3.644833e-06	-7.769193e-10	-2.531876e+01	-5.186359e+01
1.000000e-06	-3.609192e-06	-7.759536e-10	-2.507118e+01	-5.165738e+01
1.010000e-06	-3.573418e-06	-7.671714e-10	-2.482268e+01	-5.144865e+01
1.020000e-06	-3.537500e-06	-7.587396e-10	-2.457318e+01	-5.123729e+01
1.030000e-06	-3.501365e-06	-7.587657e-10	-2.432216e+01	-5.102317e+01
1.040000e-06	-3.464984e-06	-7.586704e-10	-2.406945e+01	-5.080615e+01
1.050000e-06	-3.428317e-06	-7.526247e-10	-2.381474e+01	-5.058607e+01
1.060000e-06	-3.391308e-06	-7.476627e-10	-2.355766e+01	-5.036278e+01
1.070000e-06	-3.354069e-06	-7.430340e-10	-2.329898e+01	-5.013609e+01
1.080000e-06	-3.316655e-06	-7.339700e-10	-2.303908e+01	-4.990583e+01
1.090000e-06	-3.279006e-06	-7.278640e-10	-2.277756e+01	-4.967179e+01
1.100000e-06	-3.241168e-06	-7.223761e-10	-2.251471e+01	-4.943379e+01
1.110000e-06	-3.203068e-06	-7.144115e-10	-2.225005e+01	-4.919161e+01
1.120000e-06	-3.164698e-06	-7.082234e-10	-2.198352e+01	-4.894504e+01
1.130000e-06	-3.126078e-06	-7.129383e-10	-2.171524e+01	-4.869389e+01
1.140000e-06	-3.087241e-06	-7.156994e-10	-2.144546e+01	-4.843794e+01
1.150000e-06	-3.048185e-06	-7.117786e-10	-2.117416e+01	-4.817699e+01
1.160000e-06	-3.008991e-06	-7.055412e-10	-2.090190e+01	-4.791084e+01
1.170000e-06	-2.969709e-06	-6.994109e-10	-2.062902e+01	-4.763930e+01
1.180000e-06	-2.930228e-06	-6.876262e-10	-2.035477e+01	-4.736217e+01
1.190000e-06	-2.890559e-06	-6.804854e-10	-2.007921e+01	-4.707929e+01
1.200000e-06	-2.850769e-06	-6.802658e-10	-1.980281e+01	-4.679049e+01
1.210000e-06	-2.810838e-06	-6.811938e-10	-1.952543e+01	-4.649563e+01
1.220000e-06	-2.770736e-06	-6.776027e-10	-1.924687e+01	-4.619456e+01
1.230000e-06	-2.730464e-06	-6.761032e-10	-1.896711e+01	-4.588717e+01
1.240000e-06	-2.690021e-06	-6.722885e-10	-1.868618e+01	-4.557336e+01
1.250000e-06	-2.649448e-06	-6.640966e-10	-1.840434e+01	-4.525302e+01
1.260000e-06	-2.608546e-06	-6.578512e-10	-1.812021e+01	-4.492611e+01
1.270000e-06	-2.567293e-06	-6.557592e-10	-1.783365e+01	-4.459255e+01
1.280000e-06	-2.525822e-06	-6.519761e-10	-1.754557e+01	-4.425232e+01
1.290000e-06	-2.483987e-06	-6.491123e-10	-1.725497e+01	-4.390540e+01
1.300000e-06	-2.441718e-06	-6.466076e-10	-1.696135e+01	-4.355178e+01
1.310000e-06	-2.399152e-06	-6.421010e-10	-1.666567e+01	-4.319148e+01
1.320000e-06	-2.356414e-06	-6.337008e-10	-1.636879e+01	-4.282452e+01
1.330000e-06	-2.313509e-06	-6.287196e-10	-1.607075e+01	-4.245093e+01
1.340000e-06	-2.270438e-06	-6.258055e-10	-1.577156e+01	-4.207077e+01
1.350000e-06	-2.227157e-06	-6.199147e-10	-1.547091e+01	-4.168408e+01
1.360000e-06	-2.183677e-06	-6.131212e-10	-1.516887e+01	-4.129093e+01
1.370000e-06	-2.140103e-06	-6.074689e-10	-1.486618e+01	-4.089138e+01
1.380000e-06	-2.096431e-06	-6.038689e-10	-1.456282e+01	-4.048549e+01
1.390000e-06	-2.052677e-06	-5.986330e-10	-1.425888e+01	-4.007333e+01
1.400000e-06	-2.008882e-06	-5.914718e-10	-1.395466e+01	-3.965494e+01
1.410000e-06	-1.965020e-06	-5.812385e-10	-1.364997e+01	-3.923038e+01
1.420000e-06	-1.921039e-06	-5.712528e-10	-1.334446e+01	-3.879968e+01
1.430000e-06	-1.876972e-06	-5.632206e-10	-1.303835e+01	-3.836287e+01
1.440000e-06	-1.832838e-06	-5.578108e-10	-1.273178e+01	-3.791994e+01
1.450000e-06	-1.788532e-06	-5.513092e-10	-1.242400e+01	-3.747088e+01
1.460000e-06	-1.744059e-06	-5.436635e-10	-1.211508e+01	-3.701565e+01
1.470000e-06	-1.699511e-06	-5.339695e-10	-1.180562e+01	-3.655419e+01
1.480000e-06	-1.654908e-06	-5.230149e-10	-1.149579e+01	-3.608641e+01
1.490000e-06	-1.610169e-06	-5.122161e-10	-1.118501e+01	-3.561218e+01
1.500000e-06	-1.565204e-06	-5.061235e-10	-1.087266e+01	-3.513135e+01
1.510000e-06	-1.520136e-06	-5.002558e-10	-1.055960e+01	-3.464374e+01
1.520000e-06	-1.475019e-06	-4.923646e-10	-1.024619e+01	-3.414913e+01
1.530000e-06	-1.429773e-06	-4.821535e-10	-9.931894e+00	-3.364725e+01
1.540000e-06	-1.384454e-06	-4.734288e-10	-9.617081e+00	-3.313782e+01
1.550000e-06	-1.339068e-06	-4.673678e-10	-9.301807e+00	-3.262051e+01
1.560000e-06	-1.293532e-06	-4.599594e-10	-8.985493e+00	-3.209497e+01
1.570000e-06	-1.247833e-06	-4.496766e-10	-8.668047e+00	-3.156079e+01
1.580000e-06	-1.202038e-06	-4.390685e-10	-8.349934e+00	-3.101755e+01
1.590000e-06	-1.156189e-06	-4.280689e-10	-8.031446e+00	-3.046480e+01
1.600000e-06	-1.110319e-06	-4.185970e-10	-7.712808e+00	-2.990204e+01
1.610000e-06	-1.064320e-06	-4.102392e-10	-7.393277e+00	-2.932876e+01
1.620000e-06	-1.018176e-06	-4.025392e-10	-7.072741e+00	-2.874444e+01
1.630000e-06	-9.720409e-07	-3.929849e-10	-6.752264e+00	-2.814852e+01
1.640000e-06	-9.259622e-07	-3.817719e-10	-6.432179e+00	-2.754043e+01
1.650000e-06	-8.798336e-07	-3.711975e-10	-6.111748e+00	-2.691960e+01
1.660000e-06	-8.335468e-07	-3.594516e-10	-5.790217e+00	-2.628544e+01
1.670000e-06	-7.871660e-07	-3.471150e-10	-5.468033e+00	-2.563738e+01
1.680000e-06	-7.407374e-07	-3.344957e-10	-5.145519e+00	-2.497482e+01
1.690000e-06	-6.942932e-07	-3.256851e-10	-4.822894e+00	-2.429722e+01
1.700000e-06	-6.478294e-07	-3.180229e-10	-4.500134e+00	-2.360400e+01
1.710000e-06	-6.013370e-07	-3.091602e-10	-4.177176e+00	-2.289465e+01
1.720000e-06	-5.547926e-07	-2.986553e-10	-3.853856e+00	-2.216866e+01
1.730000e-06	-5.081543e-07	-2.872118e-10	-3.529884e+00	-2.142557e+01
1.740000e-06	-4.614734e-07	-2.738861e-10	-3.205616e+00	-2.066493e+01
1.750000e-06	-4.147033e-07	-2.609893e-10	-2.880728e+00	-1.988636e+01
1.760000e-06	-3.679350e-07	-2.488241e-10	-2.555854e+00	-1.908954e+01
1.770000e-06	-3.212426e-07	-2.381724e-10	-2.231506e+00	-1.827417e+01
1.780000e-06	-2.744465e-07	-2.289147e-10	-1.906438e+00	-1.744005e+01
1.790000e-06	-2.275249e-07	-2.176817e-10	-1.580498e+00	-1.658700e+01
1.800000e-06	-1.805462e-07	-2.037328e-10	-1.254161e+00	-1.571495e+01
1.810000e-06	-1.335647e-07	-1.887796e-10	-9.278050e-01	-1.482388e+01
1.820000e-06	-8.667961e-08	-1.748746e-10	-6.021182e-01	-1.391387e+01
1.830000e-06	-3.981093e-08	-1.620683e-10	-2.765459e-01	-1.298504e+01
1.840000e-06	7.071528e-09	-1.491597e-10	4.912223e-02	-1.203763e+01
1.850000e-06	5.394375e-08	-1.402830e-10	3.747192e-01	-1.107193e+01
1.860000e-06	1.007870e-07	-1.315680e-10	7.001151e-01	-1.008836e+01
1.870000e-06	1.476150e-07	-1.202058e-10	1.025405e+00	-9.087373e+00
1.880000e-06	1.944877e-07	-1.053274e-10	1.351005e+00	-8.069542e+00
1.890000e-06	2.413413e-07	-8.597517e-11	1.676473e+00	-7.035509e+00
1.900000e-06	2.881677e-07	-6.612254e-11	2.001751e+00	-5.986005e+00
1.910000e-06	3.349295e-07	-4.824209e-11	2.326582e+00	-4.921837e+00
1.920000e-06	3.816353e-07	-3.546289e-11	2.651023e+00	-3.843892e+00
1.930000e-06	4.283171e-07	-2.424228e-11	2.975297e+00	-2.753130e+00
1.940000e-06	4.750355e-07	-1.613772e-11	3.299825e+00	-1.650583e+00
1.950000e-06	5.217536e-07	-8.873008e-12	3.624351e+00	-5.373466e-01
1.960000e-06	5.683445e-07	2.755290e-12	3.947994e+00	5.854210e-01
1.970000e-06	6.148632e-07	2.086544e-11	4.271135e+00	1.716508e+00
1.980000e-06	6.612869e-07	4.292565e-11	4.593617e+00	2.854652e+00
1.990000e-06	7.076013e-07	6.563861e-11	4.915339e+00	3.998550e+00
2.000000e-06	7.539149e-07	8.683909e-11	5.237056e+00	5.146862e+00
2.010000e-06	8.002406e-07	1.036234e-10	5.558856e+00	6.298220e+00
2.020000e-06	8.465578e-07	1.137669e-10	5.880598e+00	7.451234e+00
2.030000e-06	8.928013e-07	1.221041e-10	6.201827e+00	8.604502e+00
2.040000e-06	9.389591e-07	1.328118e-10	6.522462e+00	9.756614e+00
2.050000e-06	9.850481e-07	1.473340e-10	6.842618e+00	1.090616e+01
2.060000e-06	1.031078e-06	1.663326e-10	7.162367e+00	1.205175e+01
2.070000e-06	1.077049e-06	1.901797e-10	7.481703e+00	1.319200e+01
2.080000e-06	1.122945e-06	2.133322e-10	7.800516e+00	1.432555e+01
2.090000e-06	1.168795e-06	2.315651e-10	8.119012e+00	1.545108e+01
2.100000e-06	1.214538e-06	2.469217e-10	8.436766e+00	1.656730e+01
2.110000e-06	1.260122e-06	2.563975e-10	8.753415e+00	1.767297e+01
2.120000e-06	1.305622e-06	2.644529e-10	9.069476e+00	1.876691e+01
2.130000e-06	1.351138e-06	2.780446e-10	9.385653e+00	1.984799e+01
2.140000e-06	1.396649e-06	2.969111e-10	9.701798e+00	2.091515e+01
2.150000e-06	1.442007e-06	3.165633e-10	1.001687e+01	2.196737e+01
2.160000e-06	1.487124e-06	3.366899e-10	1.033028e+01	2.300374e+01
2.170000e-06	1.532116e-06	3.554653e-10	1.064281e+01	2.402341e+01
2.180000e-06	1.576965e-06	3.679513e-10	1.095435e+01	2.502561e+01
2.190000e-06	1.621601e-06	3.752284e-10	1.126442e+01	2.600966e+01
2.200000e-06	1.666194e-06	3.827532e-10	1.157418e+01	2.697494e+01
2.210000e-06	1.710761e-06	3.946645e-10	1.188377e+01	2.792094e+01
2.220000e-06	1.755150e-06	4.114061e-10	1.219211e+01	2.884724e+01
2.230000e-06	1.799383e-06	4.286196e-10	1.249938e+01	2.975347e+01
2.240000e-06	1.843534e-06	4.428834e-10	1.280608e+01	3.063938e+01
2.250000e-06	1.887557e-06	4.536433e-10	1.311188e+01	3.150479e+01
2.260000e-06	1.931512e-06	4.613628e-10	1.341721e+01	3.234959e+01
2.270000e-06	1.975429e-06	4.668706e-10	1.372228e+01	3.317378e+01
2.280000e-06	2.019242e-06	4.734801e-10	1.402663e+01	3.397740e+01
2.290000e-06	2.063014e-06	4.826967e-10	1.433069e+01	3.476059e+01
2.300000e-06	2.106741e-06	4.941558e-10	1.463444e+01	3.552353e+01
2.310000e-06	2.150342e-06	5.084981e-10	1.493731e+01	3.626649e+01
2.320000e-06	2.193880e-06	5.220859e-10	1.523974e+01	3.698978e+01
2.330000e-06	2.237356e-06	5.320838e-10	1.554175e+01	3.769377e+01
2.340000e-06	2.280642e-06	5.380660e-10	1.584243e+01	3.837888e+01
2.350000e-06	2.323776e-06	5.413983e-10	1.614207e+01	3.904556e+01
2.360000e-06	2.366646e-06	5.456110e-10	1.643986e+01	3.969432e+01
2.370000e-06	2.409144e-06	5.526037e-10	1.673508e+01	4.032567e+01
2.380000e-06	2.451339e-06	5.637317e-10	1.702818e+01	4.094015e+01
2.390000e-06	2.493260e-06	5.772904e-10	1.731939e+01	4.153835e+01
2.400000e-06	2.534809e-06	5.900761e-10	1.760801e+01	4.212083e+01
2.410000e-06	2.575980e-06	6.011629e-10	1.789399e+01	4.268818e+01
2.420000e-06	2.616928e-06	6.097213e-10	1.817844e+01	4.324099e+01
2.430000e-06	2.657732e-06	6.143577e-10	1.846188e+01	4.377983e+01
2.440000e-06	2.698314e-06	6.179505e-10	1.874379e+01	4.430528e+01
2.450000e-06	2.738555e-06	6.247907e-10	1.902332e+01	4.481790e+01
2.460000e-06	2.778601e-06	6.332738e-10	1.930150e+01	4.531822e+01
2.470000e-06	2.818550e-06	6.422108e-10	1.957900e+01	4.580676e+01
2.480000e-06	2.858366e-06	6.499792e-10	1.985558e+01	4.628401e+01
2.490000e-06	2.898040e-06	6.597320e-10	2.013118e+01	4.675044e+01
2.500000e-06	2.937605e-06	6.691702e-10	2.040602e+01	4.720648e+01
2.510000e-06	2.977041e-06	6.748823e-10	2.067996e+01	4.765252e+01
2.520000e-06	3.016349e-06	6.781083e-10	2.095301e+01	4.808893e+01
2.530000e-06	3.055420e-06	6.817847e-10	2.122441e+01	4.851604e+01
2.540000e-06	3.094196e-06	6.859340e-10	2.149377e+01	4.893414e+01
2.550000e-06	3.132798e-06	6.901470e-10	2.176192e+01	4.934348e+01
2.560000e-06	3.171254e-06	6.974181e-10	2.202905e+01	4.974427e+01
2.570000e-06	3.209499e-06	7.051160e-10	2.229472e+01	5.013672e+01
2.580000e-06	3.247420e-06	7.098256e-10	2.255814e+01	5.052095e+01
2.590000e-06	3.285052e-06	7.135167e-10	2.281955e+01	5.089710e+01
2.600000e-06	3.322525e-06	7.178162e-10	2.307985e+01	5.126524e+01
2.610000e-06	3.359883e-06	7.228577e-10	2.333936e+01	5.162544e+01
2.620000e-06	3.397075e-06	7.299313e-10	2.359772e+01	5.197772e+01
2.630000e-06	3.433996e-06	7.362878e-10	2.385419e+01	5.232209e+01
2.640000e-06	3.470515e-06	7.404911e-10	2.410787e+01	5.265855e+01
2.650000e-06	3.506761e-06	7.431928e-10	2.435965e+01	5.298706e+01
2.660000e-06	3.542833e-06	7.443767e-10	2.461022e+01	5.330759e+01
2.670000e-06	3.578681e-06	7.444303e-10	2.485924e+01	5.362009e+01
2.680000e-06	3.614403e-06	7.459558e-10	2.510738e+01	5.392450e+01
2.690000e-06	3.650037e-06	7.532884e-10	2.535491e+01	5.422076e+01
2.700000e-06	3.685560e-06	7.641787e-10	2.560167e+01	5.450881e+01
2.710000e-06	3.720929e-06	7.718542e-10	2.584736e+01	5.478860e+01
2.720000e-06	3.756039e-06	7.784532e-10	2.609126e+01	5.506008e+01
2.730000e-06	3.790717e-06	7.803192e-10	2.633214e+01	5.532321e+01
2.740000e-06	3.824965e-06	7.777661e-10	2.657005e+01	5.557796e+01
2.750000e-06	3.858785e-06	7.763617e-10	2.680497e+01	5.582432e+01
2.760000e-06	3.891997e-06	7.794990e-10	2.703568e+01	5.606231e+01
2.770000e-06	3.924680e-06	7.868348e-10	2.726272e+01	5.629193e+01
2.780000e-06	3.956970e-06	7.959761e-10	2.748701e+01	5.651325e+01
2.790000e-06	3.988980e-06	8.051979e-10	2.770937e+01	5.672632e+01
2.800000e-06	4.020827e-06	8.135264e-10	2.793060e+01	5.693123e+01
2.810000e-06	4.052531e-06	8.199017e-10	2.815083e+01	5.712810e+01
2.820000e-06	4.084084e-06	8.226977e-10	2.837001e+01	5.731707e+01
2.830000e-06	4.115465e-06	8.225717e-10	2.858800e+01	5.749829e+01
2.840000e-06	4.146650e-06	8.205220e-10	2.880463e+01	5.767195e+01
2.850000e-06	4.177580e-06	8.212154e-10	2.901948e+01	5.783826e+01
2.860000e-06	4.208217e-06	8.254870e-10	2.923230e+01	5.799743e+01
2.870000e-06	4.238507e-06	8.306163e-10	2.944271e+01	5.814973e+01
2.880000e-06	4.268433e-06	8.361236e-10	2.965059e+01	5.829540e+01
2.890000e-06	4.298109e-06	8.407750e-10	2.985673e+01	5.843475e+01
2.900000e-06	4.327546e-06	8.457136e-10	3.006121e+01	5.856805e+01
