# Temperatura_=_8.62
# Concentracion g/m^3_=_1620.0
# C_Vs_to_Am_M_A/Vsm_=_65563218390.804596
# pendiente_HvsI_1/m_=_3716.3
# ordenada_HvsI_A/m_=_1297.0
# frecuencia_Hz_=_135103.3223054341

Tiempo_(s)	Campo_(V.s)	Magnetizacion_(V.s)	Campo_(kA/m)	Magnetizacion_(A/m)
0.000000e+00	-5.519173e-06	-7.227301e-10	-3.836957e+01	-4.836650e+01
1.000000e-08	-5.519373e-06	-7.205592e-10	-3.837096e+01	-4.837043e+01
2.000000e-08	-5.519403e-06	-7.195525e-10	-3.837117e+01	-4.837573e+01
3.000000e-08	-5.519129e-06	-7.218961e-10	-3.836926e+01	-4.838233e+01
4.000000e-08	-5.518393e-06	-7.233352e-10	-3.836414e+01	-4.839016e+01
5.000000e-08	-5.517138e-06	-7.206523e-10	-3.835542e+01	-4.839911e+01
6.000000e-08	-5.515287e-06	-7.147733e-10	-3.834255e+01	-4.840905e+01
7.000000e-08	-5.512861e-06	-6.972427e-10	-3.832569e+01	-4.841986e+01
8.000000e-08	-5.509971e-06	-6.897662e-10	-3.830559e+01	-4.843139e+01
9.000000e-08	-5.506609e-06	-7.310519e-10	-3.828222e+01	-4.844348e+01
1.000000e-07	-5.502752e-06	-7.767820e-10	-3.825541e+01	-4.845595e+01
1.100000e-07	-5.498431e-06	-7.498806e-10	-3.822537e+01	-4.846864e+01
1.200000e-07	-5.493880e-06	-6.944498e-10	-3.819373e+01	-4.848134e+01
1.300000e-07	-5.489197e-06	-6.587780e-10	-3.816117e+01	-4.849387e+01
1.400000e-07	-5.484153e-06	-7.193768e-10	-3.812610e+01	-4.850603e+01
1.500000e-07	-5.478686e-06	-7.185493e-10	-3.808810e+01	-4.851760e+01
1.600000e-07	-5.472886e-06	-6.849402e-10	-3.804777e+01	-4.852838e+01
1.700000e-07	-5.466748e-06	-6.783388e-10	-3.800510e+01	-4.853817e+01
1.800000e-07	-5.460111e-06	-7.158392e-10	-3.795896e+01	-4.854676e+01
1.900000e-07	-5.452945e-06	-7.454343e-10	-3.790914e+01	-4.855394e+01
2.000000e-07	-5.445441e-06	-6.836282e-10	-3.785698e+01	-4.855952e+01
2.100000e-07	-5.437748e-06	-6.930695e-10	-3.780350e+01	-4.856331e+01
2.200000e-07	-5.429804e-06	-7.311717e-10	-3.774827e+01	-4.856510e+01
2.300000e-07	-5.421605e-06	-7.798892e-10	-3.769127e+01	-4.856474e+01
2.400000e-07	-5.413189e-06	-7.355107e-10	-3.763276e+01	-4.856203e+01
2.500000e-07	-5.404250e-06	-7.337812e-10	-3.757061e+01	-4.855684e+01
2.600000e-07	-5.394496e-06	-7.469407e-10	-3.750281e+01	-4.854899e+01
2.700000e-07	-5.383995e-06	-7.663505e-10	-3.742980e+01	-4.853837e+01
2.800000e-07	-5.372926e-06	-7.510512e-10	-3.735285e+01	-4.852484e+01
2.900000e-07	-5.361440e-06	-7.644744e-10	-3.727300e+01	-4.850829e+01
3.000000e-07	-5.349661e-06	-7.701005e-10	-3.719111e+01	-4.848863e+01
3.100000e-07	-5.337610e-06	-7.641297e-10	-3.710733e+01	-4.846576e+01
3.200000e-07	-5.325113e-06	-7.454985e-10	-3.702045e+01	-4.843963e+01
3.300000e-07	-5.312120e-06	-7.419219e-10	-3.693012e+01	-4.841016e+01
3.400000e-07	-5.298774e-06	-7.495380e-10	-3.683734e+01	-4.837732e+01
3.500000e-07	-5.285073e-06	-7.380032e-10	-3.674209e+01	-4.834107e+01
3.600000e-07	-5.270902e-06	-7.434777e-10	-3.664358e+01	-4.830141e+01
3.700000e-07	-5.256248e-06	-7.551811e-10	-3.654170e+01	-4.825832e+01
3.800000e-07	-5.241090e-06	-7.623501e-10	-3.643632e+01	-4.821181e+01
3.900000e-07	-5.225354e-06	-7.375799e-10	-3.632692e+01	-4.816191e+01
4.000000e-07	-5.209039e-06	-7.372867e-10	-3.621350e+01	-4.810865e+01
4.100000e-07	-5.192428e-06	-7.430162e-10	-3.609802e+01	-4.805206e+01
4.200000e-07	-5.175556e-06	-7.474303e-10	-3.598072e+01	-4.799221e+01
4.300000e-07	-5.158367e-06	-7.302378e-10	-3.586122e+01	-4.792914e+01
4.400000e-07	-5.140895e-06	-7.436055e-10	-3.573976e+01	-4.786293e+01
4.500000e-07	-5.123037e-06	-7.452978e-10	-3.561561e+01	-4.779365e+01
4.600000e-07	-5.104802e-06	-7.399670e-10	-3.548884e+01	-4.772139e+01
4.700000e-07	-5.086119e-06	-7.164989e-10	-3.535895e+01	-4.764623e+01
4.800000e-07	-5.067054e-06	-7.259355e-10	-3.522641e+01	-4.756828e+01
4.900000e-07	-5.047737e-06	-7.305331e-10	-3.509212e+01	-4.748761e+01
5.000000e-07	-5.028153e-06	-7.343134e-10	-3.495597e+01	-4.740434e+01
5.100000e-07	-5.008296e-06	-7.202893e-10	-3.481792e+01	-4.731856e+01
5.200000e-07	-4.988165e-06	-7.228370e-10	-3.467797e+01	-4.723039e+01
5.300000e-07	-4.967687e-06	-7.144287e-10	-3.453561e+01	-4.713992e+01
5.400000e-07	-4.946825e-06	-7.121764e-10	-3.439058e+01	-4.704727e+01
5.500000e-07	-4.925594e-06	-7.098494e-10	-3.424297e+01	-4.695254e+01
5.600000e-07	-4.904037e-06	-7.144943e-10	-3.409311e+01	-4.685583e+01
5.700000e-07	-4.882184e-06	-7.057610e-10	-3.394119e+01	-4.675725e+01
5.800000e-07	-4.859956e-06	-7.110434e-10	-3.378666e+01	-4.665691e+01
5.900000e-07	-4.837393e-06	-7.172842e-10	-3.362980e+01	-4.655491e+01
6.000000e-07	-4.814486e-06	-7.084140e-10	-3.347055e+01	-4.645134e+01
6.100000e-07	-4.791241e-06	-6.968036e-10	-3.330895e+01	-4.634630e+01
6.200000e-07	-4.767775e-06	-7.023513e-10	-3.314581e+01	-4.623989e+01
6.300000e-07	-4.744081e-06	-6.967277e-10	-3.298108e+01	-4.613221e+01
6.400000e-07	-4.720119e-06	-6.820823e-10	-3.281450e+01	-4.602333e+01
6.500000e-07	-4.695927e-06	-6.916584e-10	-3.264632e+01	-4.591335e+01
6.600000e-07	-4.671382e-06	-6.978314e-10	-3.247568e+01	-4.580234e+01
6.700000e-07	-4.646438e-06	-6.889472e-10	-3.230227e+01	-4.569039e+01
6.800000e-07	-4.621032e-06	-6.872599e-10	-3.212565e+01	-4.557758e+01
6.900000e-07	-4.594928e-06	-6.957939e-10	-3.194417e+01	-4.546397e+01
7.000000e-07	-4.568292e-06	-6.818707e-10	-3.175899e+01	-4.534962e+01
7.100000e-07	-4.541310e-06	-6.772087e-10	-3.157141e+01	-4.523462e+01
7.200000e-07	-4.513993e-06	-6.804082e-10	-3.138150e+01	-4.511901e+01
7.300000e-07	-4.486409e-06	-6.786141e-10	-3.118974e+01	-4.500285e+01
7.400000e-07	-4.458599e-06	-6.695630e-10	-3.099640e+01	-4.488619e+01
7.500000e-07	-4.430576e-06	-6.800839e-10	-3.080159e+01	-4.476908e+01
7.600000e-07	-4.402394e-06	-6.774478e-10	-3.060566e+01	-4.465155e+01
7.700000e-07	-4.373969e-06	-6.717584e-10	-3.040805e+01	-4.453365e+01
7.800000e-07	-4.345152e-06	-6.729648e-10	-3.020771e+01	-4.441541e+01
7.900000e-07	-4.315957e-06	-6.777601e-10	-3.000475e+01	-4.429684e+01
8.000000e-07	-4.286400e-06	-6.661614e-10	-2.979927e+01	-4.417797e+01
8.100000e-07	-4.256577e-06	-6.658327e-10	-2.959193e+01	-4.405881e+01
8.200000e-07	-4.226531e-06	-6.669696e-10	-2.938305e+01	-4.393936e+01
8.300000e-07	-4.196173e-06	-6.640384e-10	-2.917200e+01	-4.381962e+01
8.400000e-07	-4.165468e-06	-6.604253e-10	-2.895854e+01	-4.369959e+01
8.500000e-07	-4.134475e-06	-6.666599e-10	-2.874308e+01	-4.357924e+01
8.600000e-07	-4.103268e-06	-6.622179e-10	-2.852612e+01	-4.345855e+01
8.700000e-07	-4.071889e-06	-6.528936e-10	-2.830798e+01	-4.333748e+01
8.800000e-07	-4.040350e-06	-6.488178e-10	-2.808871e+01	-4.321600e+01
8.900000e-07	-4.008573e-06	-6.475156e-10	-2.786780e+01	-4.309405e+01
9.000000e-07	-3.976573e-06	-6.423856e-10	-2.764533e+01	-4.297156e+01
9.100000e-07	-3.944352e-06	-6.407699e-10	-2.742133e+01	-4.284847e+01
9.200000e-07	-3.911789e-06	-6.405460e-10	-2.719495e+01	-4.272469e+01
9.300000e-07	-3.878821e-06	-6.358319e-10	-2.696575e+01	-4.260014e+01
9.400000e-07	-3.845464e-06	-6.332978e-10	-2.673386e+01	-4.247472e+01
9.500000e-07	-3.811708e-06	-6.330721e-10	-2.649918e+01	-4.234830e+01
9.600000e-07	-3.777496e-06	-6.298146e-10	-2.626134e+01	-4.222079e+01
9.700000e-07	-3.742772e-06	-6.229588e-10	-2.601993e+01	-4.209203e+01
9.800000e-07	-3.707723e-06	-6.236446e-10	-2.577628e+01	-4.196191e+01
9.900000e-07	-3.672443e-06	-6.227399e-10	-2.553101e+01	-4.183026e+01
1.000000e-06	-3.636886e-06	-6.204575e-10	-2.528381e+01	-4.169694e+01
1.010000e-06	-3.601144e-06	-6.169042e-10	-2.503533e+01	-4.156179e+01
1.020000e-06	-3.565262e-06	-6.169731e-10	-2.478588e+01	-4.142462e+01
1.030000e-06	-3.529285e-06	-6.129705e-10	-2.453577e+01	-4.128528e+01
1.040000e-06	-3.493125e-06	-6.111489e-10	-2.428438e+01	-4.114357e+01
1.050000e-06	-3.456635e-06	-6.087600e-10	-2.403070e+01	-4.099931e+01
1.060000e-06	-3.419893e-06	-6.051426e-10	-2.377527e+01	-4.085232e+01
1.070000e-06	-3.382989e-06	-5.985538e-10	-2.351871e+01	-4.070239e+01
1.080000e-06	-3.345896e-06	-5.987146e-10	-2.326084e+01	-4.054935e+01
1.090000e-06	-3.308497e-06	-5.987682e-10	-2.300084e+01	-4.039299e+01
1.100000e-06	-3.270775e-06	-5.996889e-10	-2.273859e+01	-4.023313e+01
1.110000e-06	-3.232841e-06	-5.982914e-10	-2.247487e+01	-4.006957e+01
1.120000e-06	-3.194748e-06	-5.956836e-10	-2.221005e+01	-3.990213e+01
1.130000e-06	-3.156512e-06	-5.889334e-10	-2.194423e+01	-3.973062e+01
1.140000e-06	-3.118093e-06	-5.843815e-10	-2.167714e+01	-3.955487e+01
1.150000e-06	-3.079391e-06	-5.794488e-10	-2.140808e+01	-3.937471e+01
1.160000e-06	-3.040384e-06	-5.737669e-10	-2.113690e+01	-3.918997e+01
1.170000e-06	-3.001169e-06	-5.719100e-10	-2.086427e+01	-3.900050e+01
1.180000e-06	-2.961819e-06	-5.746524e-10	-2.059071e+01	-3.880616e+01
1.190000e-06	-2.922352e-06	-5.754932e-10	-2.031634e+01	-3.860681e+01
1.200000e-06	-2.882772e-06	-5.739579e-10	-2.004118e+01	-3.840232e+01
1.210000e-06	-2.843053e-06	-5.707581e-10	-1.976505e+01	-3.819258e+01
1.220000e-06	-2.803196e-06	-5.637214e-10	-1.948796e+01	-3.797750e+01
1.230000e-06	-2.763197e-06	-5.539964e-10	-1.920988e+01	-3.775697e+01
1.240000e-06	-2.722977e-06	-5.468499e-10	-1.893027e+01	-3.753093e+01
1.250000e-06	-2.682562e-06	-5.446783e-10	-1.864930e+01	-3.729931e+01
1.260000e-06	-2.641894e-06	-5.438205e-10	-1.836658e+01	-3.706205e+01
1.270000e-06	-2.600963e-06	-5.473735e-10	-1.808202e+01	-3.681911e+01
1.280000e-06	-2.559849e-06	-5.494244e-10	-1.779619e+01	-3.657045e+01
1.290000e-06	-2.518485e-06	-5.457174e-10	-1.750863e+01	-3.631606e+01
1.300000e-06	-2.476896e-06	-5.346185e-10	-1.721950e+01	-3.605591e+01
1.310000e-06	-2.435033e-06	-5.224027e-10	-1.692847e+01	-3.579000e+01
1.320000e-06	-2.392756e-06	-5.125991e-10	-1.663456e+01	-3.551833e+01
1.330000e-06	-2.350116e-06	-5.073711e-10	-1.633812e+01	-3.524091e+01
1.340000e-06	-2.307261e-06	-5.077223e-10	-1.604019e+01	-3.495773e+01
1.350000e-06	-2.264228e-06	-5.119063e-10	-1.574103e+01	-3.466881e+01
1.360000e-06	-2.220933e-06	-5.113741e-10	-1.544004e+01	-3.437416e+01
1.370000e-06	-2.177426e-06	-5.070473e-10	-1.513758e+01	-3.407378e+01
1.380000e-06	-2.133828e-06	-4.996922e-10	-1.483448e+01	-3.376767e+01
1.390000e-06	-2.090177e-06	-4.913220e-10	-1.453101e+01	-3.345583e+01
1.400000e-06	-2.046419e-06	-4.828633e-10	-1.422681e+01	-3.313825e+01
1.410000e-06	-2.002582e-06	-4.779750e-10	-1.392205e+01	-3.281490e+01
1.420000e-06	-1.958692e-06	-4.738611e-10	-1.361692e+01	-3.248575e+01
1.430000e-06	-1.914698e-06	-4.703922e-10	-1.331108e+01	-3.215074e+01
1.440000e-06	-1.870617e-06	-4.685245e-10	-1.300463e+01	-3.180982e+01
1.450000e-06	-1.826477e-06	-4.671265e-10	-1.269776e+01	-3.146290e+01
1.460000e-06	-1.782216e-06	-4.609884e-10	-1.239006e+01	-3.110987e+01
1.470000e-06	-1.737773e-06	-4.502508e-10	-1.208108e+01	-3.075061e+01
1.480000e-06	-1.693204e-06	-4.384030e-10	-1.177124e+01	-3.038498e+01
1.490000e-06	-1.648496e-06	-4.270988e-10	-1.146042e+01	-3.001280e+01
1.500000e-06	-1.603675e-06	-4.212412e-10	-1.114883e+01	-2.963388e+01
1.510000e-06	-1.558755e-06	-4.203662e-10	-1.083654e+01	-2.924801e+01
1.520000e-06	-1.513661e-06	-4.194810e-10	-1.052305e+01	-2.885493e+01
1.530000e-06	-1.468430e-06	-4.148084e-10	-1.020860e+01	-2.845437e+01
1.540000e-06	-1.423075e-06	-4.058670e-10	-9.893286e+00	-2.804605e+01
1.550000e-06	-1.377704e-06	-3.948336e-10	-9.577864e+00	-2.762964e+01
1.560000e-06	-1.332320e-06	-3.822653e-10	-9.262354e+00	-2.720479e+01
1.570000e-06	-1.286829e-06	-3.704727e-10	-8.946103e+00	-2.677115e+01
1.580000e-06	-1.241239e-06	-3.620700e-10	-8.629155e+00	-2.632832e+01
1.590000e-06	-1.195512e-06	-3.566703e-10	-8.311262e+00	-2.587590e+01
1.600000e-06	-1.149691e-06	-3.522331e-10	-7.992709e+00	-2.541346e+01
1.610000e-06	-1.103839e-06	-3.470119e-10	-7.673944e+00	-2.494056e+01
1.620000e-06	-1.057900e-06	-3.396779e-10	-7.354572e+00	-2.445676e+01
1.630000e-06	-1.011855e-06	-3.296588e-10	-7.034465e+00	-2.396159e+01
1.640000e-06	-9.657426e-07	-3.187650e-10	-6.713891e+00	-2.345459e+01
1.650000e-06	-9.195460e-07	-3.057120e-10	-6.392730e+00	-2.293530e+01
1.660000e-06	-8.733016e-07	-2.961434e-10	-6.071236e+00	-2.240324e+01
1.670000e-06	-8.269698e-07	-2.894093e-10	-5.749135e+00	-2.185796e+01
1.680000e-06	-7.805820e-07	-2.857490e-10	-5.426645e+00	-2.129900e+01
1.690000e-06	-7.342342e-07	-2.817528e-10	-5.104433e+00	-2.072594e+01
1.700000e-06	-6.878848e-07	-2.770735e-10	-4.782210e+00	-2.013836e+01
1.710000e-06	-6.413914e-07	-2.684132e-10	-4.458985e+00	-1.953585e+01
1.720000e-06	-5.947644e-07	-2.551257e-10	-4.134832e+00	-1.891807e+01
1.730000e-06	-5.481604e-07	-2.403969e-10	-3.810839e+00	-1.828466e+01
1.740000e-06	-5.015729e-07	-2.273105e-10	-3.486960e+00	-1.763534e+01
1.750000e-06	-4.548790e-07	-2.175390e-10	-3.162342e+00	-1.696984e+01
1.760000e-06	-4.081461e-07	-2.106236e-10	-2.837452e+00	-1.628795e+01
1.770000e-06	-3.613499e-07	-2.037783e-10	-2.512123e+00	-1.558952e+01
1.780000e-06	-3.145303e-07	-1.970047e-10	-2.186631e+00	-1.487442e+01
1.790000e-06	-2.677171e-07	-1.889247e-10	-1.861183e+00	-1.414259e+01
1.800000e-06	-2.208339e-07	-1.757287e-10	-1.535248e+00	-1.339406e+01
1.810000e-06	-1.739795e-07	-1.602005e-10	-1.209514e+00	-1.262887e+01
1.820000e-06	-1.270640e-07	-1.441117e-10	-8.833550e-01	-1.184715e+01
1.830000e-06	-8.018052e-08	-1.302119e-10	-5.574190e-01	-1.104911e+01
1.840000e-06	-3.339262e-08	-1.198743e-10	-2.321472e-01	-1.023501e+01
1.850000e-06	1.339618e-08	-1.115151e-10	9.313091e-02	-9.405168e+00
1.860000e-06	6.023610e-08	-1.043156e-10	4.187644e-01	-8.560003e+00
1.870000e-06	1.070660e-07	-9.310911e-11	7.443278e-01	-7.699983e+00
1.880000e-06	1.537706e-07	-7.801303e-11	1.069021e+00	-6.825650e+00
1.890000e-06	2.004886e-07	-6.264412e-11	1.393807e+00	-5.937617e+00
1.900000e-06	2.472916e-07	-4.766594e-11	1.719183e+00	-5.036564e+00
1.910000e-06	2.941030e-07	-3.585920e-11	2.044619e+00	-4.123237e+00
1.920000e-06	3.408052e-07	-2.399968e-11	2.369295e+00	-3.198448e+00
1.930000e-06	3.875258e-07	-1.281364e-11	2.694098e+00	-2.263068e+00
1.940000e-06	4.343072e-07	-2.770749e-13	3.019325e+00	-1.318026e+00
1.950000e-06	4.809744e-07	1.184948e-11	3.343758e+00	-3.643061e-01
1.960000e-06	5.275976e-07	2.366231e-11	3.667885e+00	5.970574e-01
1.970000e-06	5.741871e-07	3.428254e-11	3.991778e+00	1.564985e+00
1.980000e-06	6.206724e-07	4.681698e-11	4.314945e+00	2.538356e+00
1.990000e-06	6.670600e-07	6.027167e-11	4.637434e+00	3.516016e+00
2.000000e-06	7.133619e-07	7.493208e-11	4.959328e+00	4.496778e+00
2.010000e-06	7.596089e-07	9.103524e-11	5.280839e+00	5.479433e+00
2.020000e-06	8.058903e-07	1.057347e-10	5.602589e+00	6.462752e+00
2.030000e-06	8.521403e-07	1.178546e-10	5.924122e+00	7.445497e+00
2.040000e-06	8.982842e-07	1.291199e-10	6.244917e+00	8.426423e+00
2.050000e-06	9.443883e-07	1.389450e-10	6.565435e+00	9.404284e+00
2.060000e-06	9.904518e-07	1.496426e-10	6.885670e+00	1.037785e+01
2.070000e-06	1.036404e-06	1.641513e-10	7.205130e+00	1.134588e+01
2.080000e-06	1.082239e-06	1.810233e-10	7.523780e+00	1.230719e+01
2.090000e-06	1.128028e-06	1.970018e-10	7.842108e+00	1.326060e+01
2.100000e-06	1.173773e-06	2.102642e-10	8.160129e+00	1.420495e+01
2.110000e-06	1.219458e-06	2.229867e-10	8.477733e+00	1.513916e+01
2.120000e-06	1.265075e-06	2.327997e-10	8.794865e+00	1.606214e+01
2.130000e-06	1.310601e-06	2.427006e-10	9.111364e+00	1.697289e+01
2.140000e-06	1.356003e-06	2.561250e-10	9.427004e+00	1.787045e+01
2.150000e-06	1.401348e-06	2.706988e-10	9.742241e+00	1.875391e+01
2.160000e-06	1.446631e-06	2.826627e-10	1.005705e+01	1.962244e+01
2.170000e-06	1.491719e-06	2.951525e-10	1.037051e+01	2.047525e+01
2.180000e-06	1.536732e-06	3.080739e-10	1.068344e+01	2.131165e+01
2.190000e-06	1.581675e-06	3.190514e-10	1.099588e+01	2.213100e+01
2.200000e-06	1.626428e-06	3.289968e-10	1.130701e+01	2.293273e+01
2.210000e-06	1.671023e-06	3.398038e-10	1.161703e+01	2.371637e+01
2.220000e-06	1.715483e-06	3.525103e-10	1.192612e+01	2.448149e+01
2.230000e-06	1.759808e-06	3.672009e-10	1.223427e+01	2.522778e+01
2.240000e-06	1.804033e-06	3.789110e-10	1.254173e+01	2.595497e+01
2.250000e-06	1.848148e-06	3.870010e-10	1.284842e+01	2.666287e+01
2.260000e-06	1.892148e-06	3.946657e-10	1.315431e+01	2.735139e+01
2.270000e-06	1.936101e-06	4.028716e-10	1.345987e+01	2.802049e+01
2.280000e-06	1.980010e-06	4.114870e-10	1.376513e+01	2.867020e+01
2.290000e-06	2.023861e-06	4.204331e-10	1.406999e+01	2.930064e+01
2.300000e-06	2.067643e-06	4.284371e-10	1.437436e+01	2.991196e+01
2.310000e-06	2.111388e-06	4.376021e-10	1.467848e+01	3.050441e+01
2.320000e-06	2.155048e-06	4.456668e-10	1.498200e+01	3.107827e+01
2.330000e-06	2.198588e-06	4.526045e-10	1.528470e+01	3.163388e+01
2.340000e-06	2.242003e-06	4.570764e-10	1.558652e+01	3.217165e+01
2.350000e-06	2.285271e-06	4.605855e-10	1.588732e+01	3.269199e+01
2.360000e-06	2.328341e-06	4.652755e-10	1.618674e+01	3.319540e+01
2.370000e-06	2.371078e-06	4.707439e-10	1.648385e+01	3.368238e+01
2.380000e-06	2.413597e-06	4.791829e-10	1.677945e+01	3.415347e+01
2.390000e-06	2.455876e-06	4.874723e-10	1.707338e+01	3.460924e+01
2.400000e-06	2.497745e-06	4.960017e-10	1.736445e+01	3.505027e+01
2.410000e-06	2.539338e-06	5.031102e-10	1.765360e+01	3.547715e+01
2.420000e-06	2.580614e-06	5.086503e-10	1.794056e+01	3.589050e+01
2.430000e-06	2.621554e-06	5.137772e-10	1.822518e+01	3.629092e+01
2.440000e-06	2.662265e-06	5.208096e-10	1.850820e+01	3.667902e+01
2.450000e-06	2.702725e-06	5.296594e-10	1.878948e+01	3.705540e+01
2.460000e-06	2.743024e-06	5.394504e-10	1.906964e+01	3.742066e+01
2.470000e-06	2.783163e-06	5.448751e-10	1.934869e+01	3.777536e+01
2.480000e-06	2.823105e-06	5.474496e-10	1.962636e+01	3.812008e+01
2.490000e-06	2.862927e-06	5.485319e-10	1.990321e+01	3.845535e+01
2.500000e-06	2.902611e-06	5.513467e-10	2.017910e+01	3.878167e+01
2.510000e-06	2.942169e-06	5.572965e-10	2.045411e+01	3.909954e+01
2.520000e-06	2.981624e-06	5.655397e-10	2.072840e+01	3.940941e+01
2.530000e-06	3.020840e-06	5.742454e-10	2.100103e+01	3.971171e+01
2.540000e-06	3.059793e-06	5.803251e-10	2.127183e+01	4.000682e+01
2.550000e-06	3.098494e-06	5.822432e-10	2.154089e+01	4.029511e+01
2.560000e-06	3.136987e-06	5.824517e-10	2.180849e+01	4.057688e+01
2.570000e-06	3.175265e-06	5.853018e-10	2.207460e+01	4.085243e+01
2.580000e-06	3.213309e-06	5.899514e-10	2.233908e+01	4.112200e+01
2.590000e-06	3.251194e-06	5.951448e-10	2.260246e+01	4.138581e+01
2.600000e-06	3.288906e-06	6.006234e-10	2.286464e+01	4.164404e+01
2.610000e-06	3.326436e-06	6.054608e-10	2.312555e+01	4.189684e+01
2.620000e-06	3.363730e-06	6.090539e-10	2.338482e+01	4.214433e+01
2.630000e-06	3.400712e-06	6.127577e-10	2.364192e+01	4.238658e+01
2.640000e-06	3.437372e-06	6.155571e-10	2.389678e+01	4.262366e+01
2.650000e-06	3.473851e-06	6.179909e-10	2.415038e+01	4.285560e+01
2.660000e-06	3.510143e-06	6.193878e-10	2.440269e+01	4.308241e+01
2.670000e-06	3.546204e-06	6.224085e-10	2.465339e+01	4.330409e+01
2.680000e-06	3.582075e-06	6.253249e-10	2.490277e+01	4.352060e+01
2.690000e-06	3.617801e-06	6.280076e-10	2.515114e+01	4.373191e+01
2.700000e-06	3.653412e-06	6.310912e-10	2.539870e+01	4.393796e+01
2.710000e-06	3.688805e-06	6.348492e-10	2.564476e+01	4.413869e+01
2.720000e-06	3.723965e-06	6.392142e-10	2.588919e+01	4.433403e+01
2.730000e-06	3.758896e-06	6.451284e-10	2.613203e+01	4.452392e+01
2.740000e-06	3.793448e-06	6.500250e-10	2.637224e+01	4.470827e+01
2.750000e-06	3.827513e-06	6.531765e-10	2.660906e+01	4.488704e+01
2.760000e-06	3.861120e-06	6.548744e-10	2.684270e+01	4.506015e+01
2.770000e-06	3.894242e-06	6.557236e-10	2.707297e+01	4.522755e+01
2.780000e-06	3.926905e-06	6.571427e-10	2.730004e+01	4.538919e+01
2.790000e-06	3.959263e-06	6.609356e-10	2.752499e+01	4.554505e+01
2.800000e-06	3.991386e-06	6.673611e-10	2.774831e+01	4.569511e+01
2.810000e-06	4.023298e-06	6.738485e-10	2.797017e+01	4.583935e+01
2.820000e-06	4.055024e-06	6.776824e-10	2.819073e+01	4.597780e+01
2.830000e-06	4.086608e-06	6.785130e-10	2.841031e+01	4.611049e+01
2.840000e-06	4.118035e-06	6.775014e-10	2.862878e+01	4.623746e+01
2.850000e-06	4.149144e-06	6.762238e-10	2.884505e+01	4.635878e+01
2.860000e-06	4.179893e-06	6.784684e-10	2.905882e+01	4.647453e+01
2.870000e-06	4.210386e-06	6.819606e-10	2.927081e+01	4.658483e+01
2.880000e-06	4.240599e-06	6.851919e-10	2.948086e+01	4.668978e+01
2.890000e-06	4.270499e-06	6.891134e-10	2.968872e+01	4.678954e+01
2.900000e-06	4.300131e-06	6.919015e-10	2.989473e+01	4.688424e+01
