# Temperatura_=_-0.28
# Concentracion g/m^3_=_1620.0
# C_Vs_to_Am_M_A/Vsm_=_65563218390.804596
# pendiente_HvsI_1/m_=_3716.3
# ordenada_HvsI_A/m_=_1297.0
# frecuencia_Hz_=_135106.66629832413

Tiempo_(s)	Campo_(V.s)	Magnetizacion_(V.s)	Campo_(kA/m)	Magnetizacion_(A/m)
0.000000e+00	-5.509499e-06	-1.389475e-09	-3.836788e+01	-9.113988e+01
1.000000e-08	-5.509771e-06	-1.389613e-09	-3.836977e+01	-9.114975e+01
2.000000e-08	-5.509769e-06	-1.391804e-09	-3.836975e+01	-9.115791e+01
3.000000e-08	-5.509409e-06	-1.393776e-09	-3.836725e+01	-9.116421e+01
4.000000e-08	-5.508501e-06	-1.393059e-09	-3.836092e+01	-9.116850e+01
5.000000e-08	-5.506976e-06	-1.391416e-09	-3.835031e+01	-9.117059e+01
6.000000e-08	-5.504910e-06	-1.387806e-09	-3.833592e+01	-9.117031e+01
7.000000e-08	-5.502320e-06	-1.389296e-09	-3.831788e+01	-9.116745e+01
8.000000e-08	-5.499218e-06	-1.382287e-09	-3.829627e+01	-9.116184e+01
9.000000e-08	-5.495645e-06	-1.379775e-09	-3.827139e+01	-9.115325e+01
1.000000e-07	-5.491642e-06	-1.398158e-09	-3.824352e+01	-9.114149e+01
1.100000e-07	-5.487242e-06	-1.396308e-09	-3.821288e+01	-9.112635e+01
1.200000e-07	-5.482583e-06	-1.350439e-09	-3.818043e+01	-9.110762e+01
1.300000e-07	-5.477831e-06	-1.374844e-09	-3.814734e+01	-9.108511e+01
1.400000e-07	-5.472720e-06	-1.402301e-09	-3.811175e+01	-9.105863e+01
1.500000e-07	-5.467144e-06	-1.409538e-09	-3.807292e+01	-9.102797e+01
1.600000e-07	-5.461209e-06	-1.344420e-09	-3.803159e+01	-9.099296e+01
1.700000e-07	-5.454856e-06	-1.353049e-09	-3.798734e+01	-9.095343e+01
1.800000e-07	-5.448098e-06	-1.386837e-09	-3.794028e+01	-9.090923e+01
1.900000e-07	-5.440987e-06	-1.393727e-09	-3.789076e+01	-9.086020e+01
2.000000e-07	-5.433580e-06	-1.357047e-09	-3.783918e+01	-9.080623e+01
2.100000e-07	-5.425899e-06	-1.385265e-09	-3.778569e+01	-9.074718e+01
2.200000e-07	-5.417847e-06	-1.438104e-09	-3.772962e+01	-9.068297e+01
2.300000e-07	-5.409531e-06	-1.442035e-09	-3.767170e+01	-9.061352e+01
2.400000e-07	-5.400867e-06	-1.406568e-09	-3.761137e+01	-9.053874e+01
2.500000e-07	-5.391525e-06	-1.404875e-09	-3.754631e+01	-9.045861e+01
2.600000e-07	-5.381469e-06	-1.441464e-09	-3.747628e+01	-9.037309e+01
2.700000e-07	-5.370826e-06	-1.433118e-09	-3.740216e+01	-9.028216e+01
2.800000e-07	-5.359769e-06	-1.413366e-09	-3.732516e+01	-9.018584e+01
2.900000e-07	-5.348295e-06	-1.404894e-09	-3.724526e+01	-9.008414e+01
3.000000e-07	-5.336329e-06	-1.426590e-09	-3.716193e+01	-8.997710e+01
3.100000e-07	-5.323992e-06	-1.404154e-09	-3.707601e+01	-8.986478e+01
3.200000e-07	-5.311323e-06	-1.400770e-09	-3.698779e+01	-8.974724e+01
3.300000e-07	-5.298222e-06	-1.382796e-09	-3.689655e+01	-8.962457e+01
3.400000e-07	-5.284608e-06	-1.398948e-09	-3.680175e+01	-8.949686e+01
3.500000e-07	-5.270567e-06	-1.386506e-09	-3.670396e+01	-8.936422e+01
3.600000e-07	-5.256176e-06	-1.387350e-09	-3.660374e+01	-8.922676e+01
3.700000e-07	-5.241235e-06	-1.374627e-09	-3.649970e+01	-8.908462e+01
3.800000e-07	-5.225794e-06	-1.394886e-09	-3.639217e+01	-8.893791e+01
3.900000e-07	-5.209920e-06	-1.370091e-09	-3.628162e+01	-8.878678e+01
4.000000e-07	-5.193556e-06	-1.348393e-09	-3.616766e+01	-8.863138e+01
4.100000e-07	-5.176831e-06	-1.367315e-09	-3.605119e+01	-8.847185e+01
4.200000e-07	-5.159886e-06	-1.389424e-09	-3.593319e+01	-8.830833e+01
4.300000e-07	-5.142531e-06	-1.346179e-09	-3.581232e+01	-8.814098e+01
4.400000e-07	-5.124796e-06	-1.345631e-09	-3.568882e+01	-8.796994e+01
4.500000e-07	-5.106815e-06	-1.389422e-09	-3.556360e+01	-8.779536e+01
4.600000e-07	-5.088458e-06	-1.361979e-09	-3.543576e+01	-8.761737e+01
4.700000e-07	-5.069664e-06	-1.314583e-09	-3.530489e+01	-8.743612e+01
4.800000e-07	-5.050559e-06	-1.358435e-09	-3.517184e+01	-8.725174e+01
4.900000e-07	-5.031249e-06	-1.373084e-09	-3.503736e+01	-8.706435e+01
5.000000e-07	-5.011646e-06	-1.310209e-09	-3.490085e+01	-8.687408e+01
5.100000e-07	-4.991742e-06	-1.323746e-09	-3.476224e+01	-8.668102e+01
5.200000e-07	-4.971532e-06	-1.368664e-09	-3.462150e+01	-8.648530e+01
5.300000e-07	-4.950966e-06	-1.322828e-09	-3.447828e+01	-8.628699e+01
5.400000e-07	-4.929977e-06	-1.297813e-09	-3.433211e+01	-8.608620e+01
5.500000e-07	-4.908620e-06	-1.354808e-09	-3.418338e+01	-8.588299e+01
5.600000e-07	-4.886983e-06	-1.332385e-09	-3.403270e+01	-8.567743e+01
5.700000e-07	-4.865009e-06	-1.286835e-09	-3.387968e+01	-8.546959e+01
5.800000e-07	-4.842733e-06	-1.320647e-09	-3.372455e+01	-8.525951e+01
5.900000e-07	-4.820149e-06	-1.328696e-09	-3.356727e+01	-8.504725e+01
6.000000e-07	-4.797142e-06	-1.269159e-09	-3.340706e+01	-8.483283e+01
6.100000e-07	-4.773870e-06	-1.287145e-09	-3.324499e+01	-8.461628e+01
6.200000e-07	-4.750322e-06	-1.313910e-09	-3.308100e+01	-8.439764e+01
6.300000e-07	-4.726484e-06	-1.279714e-09	-3.291500e+01	-8.417690e+01
6.400000e-07	-4.702467e-06	-1.271461e-09	-3.274774e+01	-8.395408e+01
6.500000e-07	-4.678166e-06	-1.306837e-09	-3.257851e+01	-8.372918e+01
6.600000e-07	-4.653382e-06	-1.281806e-09	-3.240592e+01	-8.350221e+01
6.700000e-07	-4.628075e-06	-1.262277e-09	-3.222968e+01	-8.327315e+01
6.800000e-07	-4.602251e-06	-1.277320e-09	-3.204985e+01	-8.304201e+01
6.900000e-07	-4.575885e-06	-1.268271e-09	-3.186623e+01	-8.280877e+01
7.000000e-07	-4.549101e-06	-1.242660e-09	-3.167971e+01	-8.257341e+01
7.100000e-07	-4.521995e-06	-1.259747e-09	-3.149095e+01	-8.233592e+01
7.200000e-07	-4.494635e-06	-1.262828e-09	-3.130041e+01	-8.209628e+01
7.300000e-07	-4.467019e-06	-1.244679e-09	-3.110810e+01	-8.185448e+01
7.400000e-07	-4.439151e-06	-1.244524e-09	-3.091403e+01	-8.161049e+01
7.500000e-07	-4.411068e-06	-1.247268e-09	-3.071846e+01	-8.136430e+01
7.600000e-07	-4.382727e-06	-1.228174e-09	-3.052109e+01	-8.111588e+01
7.700000e-07	-4.354114e-06	-1.222227e-09	-3.032183e+01	-8.086522e+01
7.800000e-07	-4.325200e-06	-1.224798e-09	-3.012047e+01	-8.061228e+01
7.900000e-07	-4.295990e-06	-1.211608e-09	-2.991706e+01	-8.035704e+01
8.000000e-07	-4.266499e-06	-1.205885e-09	-2.971169e+01	-8.009948e+01
8.100000e-07	-4.236723e-06	-1.213185e-09	-2.950433e+01	-7.983957e+01
8.200000e-07	-4.206616e-06	-1.207894e-09	-2.929466e+01	-7.957728e+01
8.300000e-07	-4.176156e-06	-1.196913e-09	-2.908254e+01	-7.931259e+01
8.400000e-07	-4.145457e-06	-1.200745e-09	-2.886875e+01	-7.904544e+01
8.500000e-07	-4.114510e-06	-1.194000e-09	-2.865324e+01	-7.877581e+01
8.600000e-07	-4.083295e-06	-1.180249e-09	-2.843586e+01	-7.850366e+01
8.700000e-07	-4.051886e-06	-1.176142e-09	-2.821713e+01	-7.822894e+01
8.800000e-07	-4.020348e-06	-1.176616e-09	-2.799750e+01	-7.795158e+01
8.900000e-07	-3.988601e-06	-1.163030e-09	-2.777642e+01	-7.767155e+01
9.000000e-07	-3.956552e-06	-1.160966e-09	-2.755323e+01	-7.738876e+01
9.100000e-07	-3.924208e-06	-1.160849e-09	-2.732799e+01	-7.710316e+01
9.200000e-07	-3.891537e-06	-1.152127e-09	-2.710047e+01	-7.681466e+01
9.300000e-07	-3.858466e-06	-1.141746e-09	-2.687016e+01	-7.652317e+01
9.400000e-07	-3.824914e-06	-1.143827e-09	-2.663651e+01	-7.622860e+01
9.500000e-07	-3.790895e-06	-1.137497e-09	-2.639960e+01	-7.593084e+01
9.600000e-07	-3.756506e-06	-1.130268e-09	-2.616012e+01	-7.562979e+01
9.700000e-07	-3.721750e-06	-1.130704e-09	-2.591808e+01	-7.532533e+01
9.800000e-07	-3.686702e-06	-1.129683e-09	-2.567401e+01	-7.501731e+01
9.900000e-07	-3.651444e-06	-1.116729e-09	-2.542847e+01	-7.470561e+01
1.000000e-06	-3.615976e-06	-1.110608e-09	-2.518148e+01	-7.439008e+01
1.010000e-06	-3.580352e-06	-1.107301e-09	-2.493339e+01	-7.407057e+01
1.020000e-06	-3.544542e-06	-1.100064e-09	-2.468402e+01	-7.374690e+01
1.030000e-06	-3.508521e-06	-1.094839e-09	-2.443316e+01	-7.341892e+01
1.040000e-06	-3.472296e-06	-1.095518e-09	-2.418089e+01	-7.308645e+01
1.050000e-06	-3.435822e-06	-1.088837e-09	-2.392689e+01	-7.274930e+01
1.060000e-06	-3.399125e-06	-1.076787e-09	-2.367134e+01	-7.240729e+01
1.070000e-06	-3.362181e-06	-1.069242e-09	-2.341406e+01	-7.206023e+01
1.080000e-06	-3.324950e-06	-1.060658e-09	-2.315479e+01	-7.170794e+01
1.090000e-06	-3.287533e-06	-1.050060e-09	-2.289422e+01	-7.135021e+01
1.100000e-06	-3.249950e-06	-1.044054e-09	-2.263249e+01	-7.098686e+01
1.110000e-06	-3.212025e-06	-1.042162e-09	-2.236838e+01	-7.061769e+01
1.120000e-06	-3.173800e-06	-1.035834e-09	-2.210218e+01	-7.024251e+01
1.130000e-06	-3.135438e-06	-1.029229e-09	-2.183503e+01	-6.986114e+01
1.140000e-06	-3.096904e-06	-1.023605e-09	-2.156668e+01	-6.947339e+01
1.150000e-06	-3.058225e-06	-1.016844e-09	-2.129733e+01	-6.907909e+01
1.160000e-06	-3.019365e-06	-1.005339e-09	-2.102670e+01	-6.867806e+01
1.170000e-06	-2.980225e-06	-9.966087e-10	-2.075414e+01	-6.827015e+01
1.180000e-06	-2.940899e-06	-9.896223e-10	-2.048027e+01	-6.785520e+01
1.190000e-06	-2.901425e-06	-9.833288e-10	-2.020537e+01	-6.743307e+01
1.200000e-06	-2.861789e-06	-9.762077e-10	-1.992936e+01	-6.700363e+01
1.210000e-06	-2.822032e-06	-9.713239e-10	-1.965249e+01	-6.656675e+01
1.220000e-06	-2.782186e-06	-9.631946e-10	-1.937500e+01	-6.612233e+01
1.230000e-06	-2.742205e-06	-9.569891e-10	-1.909658e+01	-6.567025e+01
1.240000e-06	-2.701990e-06	-9.509485e-10	-1.881652e+01	-6.521045e+01
1.250000e-06	-2.661533e-06	-9.437309e-10	-1.853478e+01	-6.474283e+01
1.260000e-06	-2.620849e-06	-9.357892e-10	-1.825146e+01	-6.426734e+01
1.270000e-06	-2.579940e-06	-9.284963e-10	-1.796657e+01	-6.378391e+01
1.280000e-06	-2.538627e-06	-9.187630e-10	-1.767887e+01	-6.329251e+01
1.290000e-06	-2.497015e-06	-9.083909e-10	-1.738909e+01	-6.279309e+01
1.300000e-06	-2.455189e-06	-8.996779e-10	-1.709781e+01	-6.228563e+01
1.310000e-06	-2.413019e-06	-8.935213e-10	-1.680414e+01	-6.177011e+01
1.320000e-06	-2.370662e-06	-8.871115e-10	-1.650917e+01	-6.124649e+01
1.330000e-06	-2.328084e-06	-8.802732e-10	-1.621266e+01	-6.071478e+01
1.340000e-06	-2.285181e-06	-8.733865e-10	-1.591388e+01	-6.017495e+01
1.350000e-06	-2.242041e-06	-8.659608e-10	-1.561346e+01	-5.962699e+01
1.360000e-06	-2.198736e-06	-8.566999e-10	-1.531188e+01	-5.907089e+01
1.370000e-06	-2.155297e-06	-8.470807e-10	-1.500938e+01	-5.850661e+01
1.380000e-06	-2.111740e-06	-8.391805e-10	-1.470605e+01	-5.793412e+01
1.390000e-06	-2.068106e-06	-8.316164e-10	-1.440219e+01	-5.735340e+01
1.400000e-06	-2.024411e-06	-8.230819e-10	-1.409789e+01	-5.676438e+01
1.410000e-06	-1.980655e-06	-8.133284e-10	-1.379318e+01	-5.616699e+01
1.420000e-06	-1.936825e-06	-8.018987e-10	-1.348795e+01	-5.556116e+01
1.430000e-06	-1.892881e-06	-7.896728e-10	-1.318193e+01	-5.494678e+01
1.440000e-06	-1.848886e-06	-7.796560e-10	-1.287555e+01	-5.432372e+01
1.450000e-06	-1.804798e-06	-7.712833e-10	-1.256852e+01	-5.369185e+01
1.460000e-06	-1.760518e-06	-7.613441e-10	-1.226016e+01	-5.305099e+01
1.470000e-06	-1.716055e-06	-7.485856e-10	-1.195052e+01	-5.240094e+01
1.480000e-06	-1.671431e-06	-7.354999e-10	-1.163976e+01	-5.174149e+01
1.490000e-06	-1.626707e-06	-7.223444e-10	-1.132830e+01	-5.107237e+01
1.500000e-06	-1.581866e-06	-7.113585e-10	-1.101603e+01	-5.039331e+01
1.510000e-06	-1.536915e-06	-7.007564e-10	-1.070300e+01	-4.970400e+01
1.520000e-06	-1.491799e-06	-6.899530e-10	-1.038881e+01	-4.900410e+01
1.530000e-06	-1.446483e-06	-6.765266e-10	-1.007323e+01	-4.829323e+01
1.540000e-06	-1.401128e-06	-6.627694e-10	-9.757388e+00	-4.757100e+01
1.550000e-06	-1.355794e-06	-6.503840e-10	-9.441684e+00	-4.683698e+01
1.560000e-06	-1.310398e-06	-6.392699e-10	-9.125545e+00	-4.609072e+01
1.570000e-06	-1.264954e-06	-6.268831e-10	-8.809073e+00	-4.533173e+01
1.580000e-06	-1.219429e-06	-6.158158e-10	-8.492042e+00	-4.455953e+01
1.590000e-06	-1.173764e-06	-6.031542e-10	-8.174032e+00	-4.377358e+01
1.600000e-06	-1.127981e-06	-5.889832e-10	-7.855201e+00	-4.297335e+01
1.610000e-06	-1.082072e-06	-5.751615e-10	-7.535494e+00	-4.215829e+01
1.620000e-06	-1.036104e-06	-5.612225e-10	-7.215373e+00	-4.132783e+01
1.630000e-06	-9.900544e-07	-5.485903e-10	-6.894689e+00	-4.048140e+01
1.640000e-06	-9.439016e-07	-5.366460e-10	-6.573284e+00	-3.961843e+01
1.650000e-06	-8.977208e-07	-5.230739e-10	-6.251683e+00	-3.873835e+01
1.660000e-06	-8.514986e-07	-5.073251e-10	-5.929793e+00	-3.784060e+01
1.670000e-06	-8.051612e-07	-4.905721e-10	-5.607102e+00	-3.692462e+01
1.680000e-06	-7.587809e-07	-4.724906e-10	-5.284112e+00	-3.598988e+01
1.690000e-06	-7.124475e-07	-4.560156e-10	-4.961449e+00	-3.503586e+01
1.700000e-06	-6.660842e-07	-4.421340e-10	-4.638577e+00	-3.406208e+01
1.710000e-06	-6.196785e-07	-4.286194e-10	-4.315410e+00	-3.306809e+01
1.720000e-06	-5.731865e-07	-4.133224e-10	-3.991642e+00	-3.205345e+01
1.730000e-06	-5.264744e-07	-3.972737e-10	-3.666341e+00	-3.101781e+01
1.740000e-06	-4.797804e-07	-3.806014e-10	-3.341167e+00	-2.996084e+01
1.750000e-06	-4.332161e-07	-3.637712e-10	-3.016895e+00	-2.888225e+01
1.760000e-06	-3.866248e-07	-3.476254e-10	-2.692435e+00	-2.778184e+01
1.770000e-06	-3.399901e-07	-3.312414e-10	-2.367674e+00	-2.665945e+01
1.780000e-06	-2.933617e-07	-3.149070e-10	-2.042956e+00	-2.551499e+01
1.790000e-06	-2.467373e-07	-2.979432e-10	-1.718266e+00	-2.434845e+01
1.800000e-06	-1.999814e-07	-2.789030e-10	-1.392661e+00	-2.315988e+01
1.810000e-06	-1.531924e-07	-2.596560e-10	-1.066824e+00	-2.194940e+01
1.820000e-06	-1.064207e-07	-2.412111e-10	-7.411084e-01	-2.071724e+01
1.830000e-06	-5.960307e-08	-2.233599e-10	-4.150728e-01	-1.946368e+01
1.840000e-06	-1.280206e-08	-2.058105e-10	-8.915289e-02	-1.818910e+01
1.850000e-06	3.393044e-08	-1.905538e-10	2.362899e-01	-1.689395e+01
1.860000e-06	8.066043e-08	-1.768269e-10	5.617152e-01	-1.557878e+01
1.870000e-06	1.274080e-07	-1.609481e-10	8.872628e-01	-1.424421e+01
1.880000e-06	1.740991e-07	-1.415267e-10	1.212417e+00	-1.289095e+01
1.890000e-06	2.207744e-07	-1.207457e-10	1.537462e+00	-1.151979e+01
1.900000e-06	2.674486e-07	-1.007314e-10	1.862499e+00	-1.013160e+01
1.910000e-06	3.141395e-07	-8.228892e-11	2.187652e+00	-8.727324e+00
1.920000e-06	3.608179e-07	-6.505818e-11	2.512718e+00	-7.307986e+00
1.930000e-06	4.074628e-07	-4.891261e-11	2.837550e+00	-5.874677e+00
1.940000e-06	4.541062e-07	-3.240881e-11	3.162373e+00	-4.428555e+00
1.950000e-06	5.007180e-07	-1.546405e-11	3.486975e+00	-2.970840e+00
1.960000e-06	5.472491e-07	2.196231e-12	3.811015e+00	-1.502807e+00
1.970000e-06	5.937015e-07	2.147275e-11	4.134508e+00	-2.578499e-02
1.980000e-06	6.400827e-07	4.336513e-11	4.457504e+00	1.458856e+00
1.990000e-06	6.863691e-07	6.656852e-11	4.779840e+00	2.949704e+00
2.000000e-06	7.326140e-07	8.800431e-11	5.101887e+00	4.445317e+00
2.010000e-06	7.788825e-07	1.079020e-10	5.424099e+00	5.944227e+00
2.020000e-06	8.250336e-07	1.259218e-10	5.745493e+00	7.444949e+00
2.030000e-06	8.710473e-07	1.435075e-10	6.065930e+00	8.945987e+00
2.040000e-06	9.170659e-07	1.624033e-10	6.386401e+00	1.044584e+01
2.050000e-06	9.629822e-07	1.826459e-10	6.706160e+00	1.194301e+01
2.060000e-06	1.008809e-06	2.043972e-10	7.025295e+00	1.343602e+01
2.070000e-06	1.054688e-06	2.273875e-10	7.344792e+00	1.492340e+01
2.080000e-06	1.100489e-06	2.515275e-10	7.663751e+00	1.640371e+01
2.090000e-06	1.146131e-06	2.749180e-10	7.981599e+00	1.787554e+01
2.100000e-06	1.191686e-06	2.962097e-10	8.298844e+00	1.933753e+01
2.110000e-06	1.237170e-06	3.159512e-10	8.615593e+00	2.078834e+01
2.120000e-06	1.282634e-06	3.343931e-10	8.932198e+00	2.222672e+01
2.130000e-06	1.328014e-06	3.531992e-10	9.248223e+00	2.365144e+01
2.140000e-06	1.373233e-06	3.722737e-10	9.563126e+00	2.506135e+01
2.150000e-06	1.418402e-06	3.910459e-10	9.877682e+00	2.645537e+01
2.160000e-06	1.463563e-06	4.107425e-10	1.019218e+01	2.783249e+01
2.170000e-06	1.508649e-06	4.322304e-10	1.050616e+01	2.919176e+01
2.180000e-06	1.553555e-06	4.530207e-10	1.081888e+01	3.053232e+01
2.190000e-06	1.598267e-06	4.721225e-10	1.113025e+01	3.185340e+01
2.200000e-06	1.642861e-06	4.909832e-10	1.144080e+01	3.315429e+01
2.210000e-06	1.687277e-06	5.092188e-10	1.175011e+01	3.443438e+01
2.220000e-06	1.731514e-06	5.267601e-10	1.205817e+01	3.569314e+01
2.230000e-06	1.775644e-06	5.444098e-10	1.236550e+01	3.693012e+01
2.240000e-06	1.819653e-06	5.607354e-10	1.267197e+01	3.814495e+01
2.250000e-06	1.863529e-06	5.754137e-10	1.297752e+01	3.933735e+01
2.260000e-06	1.907311e-06	5.901682e-10	1.328242e+01	4.050713e+01
2.270000e-06	1.951054e-06	6.058066e-10	1.358704e+01	4.165415e+01
2.280000e-06	1.994733e-06	6.220478e-10	1.389122e+01	4.277838e+01
2.290000e-06	2.038334e-06	6.378623e-10	1.419486e+01	4.387984e+01
2.300000e-06	2.081893e-06	6.550015e-10	1.449820e+01	4.495862e+01
2.310000e-06	2.125447e-06	6.707445e-10	1.480150e+01	4.601488e+01
2.320000e-06	2.168966e-06	6.845314e-10	1.510457e+01	4.704884e+01
2.330000e-06	2.212341e-06	6.959620e-10	1.540663e+01	4.806079e+01
2.340000e-06	2.255541e-06	7.037070e-10	1.570748e+01	4.905104e+01
2.350000e-06	2.298578e-06	7.121516e-10	1.600718e+01	5.001997e+01
2.360000e-06	2.341446e-06	7.236907e-10	1.630571e+01	5.096798e+01
2.370000e-06	2.384056e-06	7.378238e-10	1.660245e+01	5.189553e+01
2.380000e-06	2.426477e-06	7.540164e-10	1.689787e+01	5.280310e+01
2.390000e-06	2.468603e-06	7.736599e-10	1.719123e+01	5.369118e+01
2.400000e-06	2.510281e-06	7.914831e-10	1.748147e+01	5.456030e+01
2.410000e-06	2.551666e-06	8.048160e-10	1.776967e+01	5.541098e+01
2.420000e-06	2.592749e-06	8.138173e-10	1.805577e+01	5.624376e+01
2.430000e-06	2.633506e-06	8.200594e-10	1.833960e+01	5.705919e+01
2.440000e-06	2.673925e-06	8.275200e-10	1.862108e+01	5.785782e+01
2.450000e-06	2.714055e-06	8.406378e-10	1.890054e+01	5.864016e+01
2.460000e-06	2.754032e-06	8.589191e-10	1.917894e+01	5.940676e+01
2.470000e-06	2.793904e-06	8.754374e-10	1.945661e+01	6.015812e+01
2.480000e-06	2.833673e-06	8.882459e-10	1.973356e+01	6.089472e+01
2.490000e-06	2.873310e-06	8.968140e-10	2.000958e+01	6.161706e+01
2.500000e-06	2.912813e-06	9.015961e-10	2.028468e+01	6.232556e+01
2.510000e-06	2.952213e-06	9.068134e-10	2.055907e+01	6.302065e+01
2.520000e-06	2.991522e-06	9.147466e-10	2.083281e+01	6.370274e+01
2.530000e-06	3.030638e-06	9.250168e-10	2.110521e+01	6.437217e+01
2.540000e-06	3.069500e-06	9.356762e-10	2.137584e+01	6.502930e+01
2.550000e-06	3.108174e-06	9.472026e-10	2.164517e+01	6.567441e+01
2.560000e-06	3.146600e-06	9.588317e-10	2.191276e+01	6.630780e+01
2.570000e-06	3.184743e-06	9.675468e-10	2.217839e+01	6.692969e+01
2.580000e-06	3.222672e-06	9.739694e-10	2.244252e+01	6.754031e+01
2.590000e-06	3.260358e-06	9.792114e-10	2.270497e+01	6.813983e+01
2.600000e-06	3.297853e-06	9.850626e-10	2.296608e+01	6.872843e+01
2.610000e-06	3.335249e-06	9.934897e-10	2.322651e+01	6.930622e+01
2.620000e-06	3.372438e-06	1.005079e-09	2.348549e+01	6.987331e+01
2.630000e-06	3.409278e-06	1.017260e-09	2.374204e+01	7.042980e+01
2.640000e-06	3.445775e-06	1.026843e-09	2.399620e+01	7.097575e+01
2.650000e-06	3.482032e-06	1.033070e-09	2.424869e+01	7.151121e+01
2.660000e-06	3.518061e-06	1.037672e-09	2.449960e+01	7.203621e+01
2.670000e-06	3.553866e-06	1.042388e-09	2.474894e+01	7.255079e+01
2.680000e-06	3.589533e-06	1.046607e-09	2.499732e+01	7.305495e+01
2.690000e-06	3.625107e-06	1.052176e-09	2.524506e+01	7.354871e+01
2.700000e-06	3.660602e-06	1.061596e-09	2.549225e+01	7.403208e+01
2.710000e-06	3.696013e-06	1.072131e-09	2.573885e+01	7.450506e+01
2.720000e-06	3.731157e-06	1.083003e-09	2.598359e+01	7.496768e+01
2.730000e-06	3.765868e-06	1.093540e-09	2.622532e+01	7.541993e+01
2.740000e-06	3.800151e-06	1.099884e-09	2.646406e+01	7.586185e+01
2.750000e-06	3.833987e-06	1.101092e-09	2.669969e+01	7.629348e+01
2.760000e-06	3.867294e-06	1.101281e-09	2.693164e+01	7.671485e+01
2.770000e-06	3.900111e-06	1.103243e-09	2.716018e+01	7.712603e+01
2.780000e-06	3.932569e-06	1.108560e-09	2.738621e+01	7.752709e+01
2.790000e-06	3.964724e-06	1.118443e-09	2.761014e+01	7.791812e+01
2.800000e-06	3.996666e-06	1.131253e-09	2.783258e+01	7.829923e+01
2.810000e-06	4.028440e-06	1.142486e-09	2.805385e+01	7.867055e+01
2.820000e-06	4.060088e-06	1.148856e-09	2.827425e+01	7.903222e+01
2.830000e-06	4.091590e-06	1.151186e-09	2.849363e+01	7.938440e+01
2.840000e-06	4.122905e-06	1.150633e-09	2.871170e+01	7.972728e+01
2.850000e-06	4.153925e-06	1.150783e-09	2.892772e+01	8.006105e+01
2.860000e-06	4.184518e-06	1.154790e-09	2.914078e+01	8.038593e+01
2.870000e-06	4.214753e-06	1.162574e-09	2.935133e+01	8.070214e+01
2.880000e-06	4.244725e-06	1.173729e-09	2.956005e+01	8.100994e+01
2.890000e-06	4.274442e-06	1.185690e-09	2.976700e+01	8.130959e+01
2.900000e-06	4.303918e-06	1.195549e-09	2.997227e+01	8.160135e+01
