# Temperatura_=_-0.3
# Concentracion g/m^3_=_1620.0
# C_Vs_to_Am_M_A/Vsm_=_65563218390.804596
# pendiente_HvsI_1/m_=_3716.3
# ordenada_HvsI_A/m_=_1297.0
# frecuencia_Hz_=_135107.25879677702

Tiempo_(s)	Campo_(V.s)	Magnetizacion_(V.s)	Campo_(kA/m)	Magnetizacion_(A/m)
0.000000e+00	-5.502569e-06	-1.345711e-09	-3.836624e+01	-8.681582e+01
1.000000e-08	-5.502589e-06	-1.345046e-09	-3.836638e+01	-8.682884e+01
2.000000e-08	-5.502203e-06	-1.345679e-09	-3.836368e+01	-8.684113e+01
3.000000e-08	-5.501389e-06	-1.346078e-09	-3.835801e+01	-8.685260e+01
4.000000e-08	-5.500163e-06	-1.342049e-09	-3.834946e+01	-8.686319e+01
5.000000e-08	-5.498354e-06	-1.335154e-09	-3.833685e+01	-8.687279e+01
6.000000e-08	-5.495915e-06	-1.325656e-09	-3.831984e+01	-8.688128e+01
7.000000e-08	-5.492943e-06	-1.326429e-09	-3.829912e+01	-8.688854e+01
8.000000e-08	-5.489538e-06	-1.343006e-09	-3.827538e+01	-8.689442e+01
9.000000e-08	-5.485709e-06	-1.337497e-09	-3.824868e+01	-8.689877e+01
1.000000e-07	-5.481481e-06	-1.315772e-09	-3.821920e+01	-8.690143e+01
1.100000e-07	-5.477008e-06	-1.321688e-09	-3.818802e+01	-8.690220e+01
1.200000e-07	-5.472279e-06	-1.312844e-09	-3.815504e+01	-8.690092e+01
1.300000e-07	-5.467240e-06	-1.294990e-09	-3.811991e+01	-8.689738e+01
1.400000e-07	-5.461938e-06	-1.283163e-09	-3.808294e+01	-8.689141e+01
1.500000e-07	-5.456244e-06	-1.286781e-09	-3.804324e+01	-8.688279e+01
1.600000e-07	-5.450131e-06	-1.330471e-09	-3.800062e+01	-8.687133e+01
1.700000e-07	-5.443561e-06	-1.328746e-09	-3.795481e+01	-8.685683e+01
1.800000e-07	-5.436552e-06	-1.351215e-09	-3.790594e+01	-8.683911e+01
1.900000e-07	-5.429238e-06	-1.325232e-09	-3.785494e+01	-8.681797e+01
2.000000e-07	-5.421621e-06	-1.327111e-09	-3.780183e+01	-8.679322e+01
2.100000e-07	-5.413678e-06	-1.316690e-09	-3.774645e+01	-8.676470e+01
2.200000e-07	-5.405521e-06	-1.341803e-09	-3.768958e+01	-8.673223e+01
2.300000e-07	-5.397023e-06	-1.340776e-09	-3.763033e+01	-8.669565e+01
2.400000e-07	-5.387951e-06	-1.350160e-09	-3.756707e+01	-8.665483e+01
2.500000e-07	-5.378234e-06	-1.343011e-09	-3.749932e+01	-8.660962e+01
2.600000e-07	-5.367824e-06	-1.328816e-09	-3.742674e+01	-8.655991e+01
2.700000e-07	-5.356788e-06	-1.312486e-09	-3.734979e+01	-8.650560e+01
2.800000e-07	-5.345351e-06	-1.310870e-09	-3.727005e+01	-8.644657e+01
2.900000e-07	-5.333682e-06	-1.325434e-09	-3.718869e+01	-8.638277e+01
3.000000e-07	-5.321662e-06	-1.312323e-09	-3.710488e+01	-8.631413e+01
3.100000e-07	-5.309161e-06	-1.310790e-09	-3.701771e+01	-8.624059e+01
3.200000e-07	-5.296211e-06	-1.308396e-09	-3.692742e+01	-8.616213e+01
3.300000e-07	-5.282860e-06	-1.327272e-09	-3.683434e+01	-8.607873e+01
3.400000e-07	-5.269087e-06	-1.295745e-09	-3.673830e+01	-8.599038e+01
3.500000e-07	-5.254895e-06	-1.301704e-09	-3.663935e+01	-8.589709e+01
3.600000e-07	-5.240315e-06	-1.305380e-09	-3.653769e+01	-8.579889e+01
3.700000e-07	-5.225293e-06	-1.313061e-09	-3.643295e+01	-8.569582e+01
3.800000e-07	-5.209694e-06	-1.296287e-09	-3.632419e+01	-8.558791e+01
3.900000e-07	-5.193617e-06	-1.323583e-09	-3.621209e+01	-8.547522e+01
4.000000e-07	-5.177172e-06	-1.300904e-09	-3.609743e+01	-8.535783e+01
4.100000e-07	-5.160285e-06	-1.274397e-09	-3.597969e+01	-8.523580e+01
4.200000e-07	-5.143070e-06	-1.289085e-09	-3.585966e+01	-8.510923e+01
4.300000e-07	-5.125708e-06	-1.318426e-09	-3.573860e+01	-8.497819e+01
4.400000e-07	-5.108053e-06	-1.274988e-09	-3.561551e+01	-8.484278e+01
4.500000e-07	-5.089907e-06	-1.272631e-09	-3.548899e+01	-8.470310e+01
4.600000e-07	-5.071325e-06	-1.303713e-09	-3.535942e+01	-8.455926e+01
4.700000e-07	-5.052382e-06	-1.274097e-09	-3.522734e+01	-8.441134e+01
4.800000e-07	-5.033067e-06	-1.235101e-09	-3.509267e+01	-8.425946e+01
4.900000e-07	-5.013513e-06	-1.279356e-09	-3.495633e+01	-8.410373e+01
5.000000e-07	-4.993784e-06	-1.281030e-09	-3.481877e+01	-8.394423e+01
5.100000e-07	-4.973865e-06	-1.229632e-09	-3.467989e+01	-8.378107e+01
5.200000e-07	-4.953677e-06	-1.251897e-09	-3.453913e+01	-8.361436e+01
5.300000e-07	-4.933051e-06	-1.284493e-09	-3.439531e+01	-8.344417e+01
5.400000e-07	-4.911981e-06	-1.239189e-09	-3.424841e+01	-8.327061e+01
5.500000e-07	-4.890545e-06	-1.227024e-09	-3.409895e+01	-8.309376e+01
5.600000e-07	-4.868815e-06	-1.261141e-09	-3.394744e+01	-8.291369e+01
5.700000e-07	-4.846812e-06	-1.230522e-09	-3.379402e+01	-8.273049e+01
5.800000e-07	-4.824503e-06	-1.209801e-09	-3.363847e+01	-8.254423e+01
5.900000e-07	-4.801820e-06	-1.242077e-09	-3.348032e+01	-8.235496e+01
6.000000e-07	-4.778810e-06	-1.237623e-09	-3.331988e+01	-8.216276e+01
6.100000e-07	-4.755476e-06	-1.202233e-09	-3.315719e+01	-8.196767e+01
6.200000e-07	-4.731885e-06	-1.222199e-09	-3.299270e+01	-8.176974e+01
6.300000e-07	-4.708075e-06	-1.223056e-09	-3.282669e+01	-8.156901e+01
6.400000e-07	-4.683967e-06	-1.201652e-09	-3.265860e+01	-8.136554e+01
6.500000e-07	-4.659417e-06	-1.209598e-09	-3.248743e+01	-8.115934e+01
6.600000e-07	-4.634417e-06	-1.225695e-09	-3.231311e+01	-8.095045e+01
6.700000e-07	-4.608942e-06	-1.202620e-09	-3.213549e+01	-8.073889e+01
6.800000e-07	-4.582882e-06	-1.204099e-09	-3.195379e+01	-8.052470e+01
6.900000e-07	-4.556308e-06	-1.209937e-09	-3.176850e+01	-8.030788e+01
7.000000e-07	-4.529240e-06	-1.197957e-09	-3.157978e+01	-8.008846e+01
7.100000e-07	-4.501869e-06	-1.189421e-09	-3.138894e+01	-7.986645e+01
7.200000e-07	-4.474345e-06	-1.197884e-09	-3.119703e+01	-7.964187e+01
7.300000e-07	-4.446659e-06	-1.186901e-09	-3.100398e+01	-7.941471e+01
7.400000e-07	-4.418783e-06	-1.187460e-09	-3.080962e+01	-7.918499e+01
7.500000e-07	-4.390620e-06	-1.193536e-09	-3.061326e+01	-7.895272e+01
7.600000e-07	-4.362200e-06	-1.186620e-09	-3.041510e+01	-7.871791e+01
7.700000e-07	-4.333459e-06	-1.176730e-09	-3.021471e+01	-7.848055e+01
7.800000e-07	-4.304324e-06	-1.179503e-09	-3.001157e+01	-7.824064e+01
7.900000e-07	-4.274864e-06	-1.168437e-09	-2.980616e+01	-7.799820e+01
8.000000e-07	-4.245151e-06	-1.154529e-09	-2.959898e+01	-7.775321e+01
8.100000e-07	-4.215200e-06	-1.157086e-09	-2.939015e+01	-7.750568e+01
8.200000e-07	-4.184894e-06	-1.159706e-09	-2.917885e+01	-7.725559e+01
8.300000e-07	-4.154275e-06	-1.154469e-09	-2.896536e+01	-7.700295e+01
8.400000e-07	-4.123490e-06	-1.156609e-09	-2.875071e+01	-7.674773e+01
8.500000e-07	-4.092446e-06	-1.160793e-09	-2.853426e+01	-7.648992e+01
8.600000e-07	-4.061107e-06	-1.149240e-09	-2.831575e+01	-7.622951e+01
8.700000e-07	-4.029615e-06	-1.138456e-09	-2.809618e+01	-7.596646e+01
8.800000e-07	-3.997996e-06	-1.134727e-09	-2.787572e+01	-7.570074e+01
8.900000e-07	-3.966207e-06	-1.125673e-09	-2.765407e+01	-7.543233e+01
9.000000e-07	-3.934127e-06	-1.111142e-09	-2.743040e+01	-7.516117e+01
9.100000e-07	-3.901598e-06	-1.112955e-09	-2.720359e+01	-7.488722e+01
9.200000e-07	-3.868611e-06	-1.114139e-09	-2.697359e+01	-7.461042e+01
9.300000e-07	-3.835319e-06	-1.111112e-09	-2.674147e+01	-7.433070e+01
9.400000e-07	-3.801685e-06	-1.108733e-09	-2.650696e+01	-7.404799e+01
9.500000e-07	-3.767679e-06	-1.109156e-09	-2.626985e+01	-7.376219e+01
9.600000e-07	-3.733164e-06	-1.097537e-09	-2.602920e+01	-7.347322e+01
9.700000e-07	-3.698194e-06	-1.090107e-09	-2.578537e+01	-7.318097e+01
9.800000e-07	-3.662983e-06	-1.086174e-09	-2.553987e+01	-7.288533e+01
9.900000e-07	-3.627530e-06	-1.079925e-09	-2.529267e+01	-7.258617e+01
1.000000e-06	-3.591921e-06	-1.070675e-09	-2.504439e+01	-7.228335e+01
1.010000e-06	-3.556186e-06	-1.071364e-09	-2.479523e+01	-7.197672e+01
1.020000e-06	-3.520304e-06	-1.072195e-09	-2.454505e+01	-7.166614e+01
1.030000e-06	-3.484235e-06	-1.068445e-09	-2.429356e+01	-7.135144e+01
1.040000e-06	-3.448004e-06	-1.062320e-09	-2.404094e+01	-7.103243e+01
1.050000e-06	-3.411565e-06	-1.055096e-09	-2.378687e+01	-7.070895e+01
1.060000e-06	-3.374869e-06	-1.040856e-09	-2.353101e+01	-7.038078e+01
1.070000e-06	-3.337885e-06	-1.030120e-09	-2.327315e+01	-7.004774e+01
1.080000e-06	-3.300638e-06	-1.026101e-09	-2.301344e+01	-6.970962e+01
1.090000e-06	-3.263162e-06	-1.023942e-09	-2.275214e+01	-6.936621e+01
1.100000e-06	-3.225421e-06	-1.018260e-09	-2.248900e+01	-6.901730e+01
1.110000e-06	-3.187443e-06	-1.011860e-09	-2.222420e+01	-6.866266e+01
1.120000e-06	-3.149244e-06	-1.004875e-09	-2.195786e+01	-6.830208e+01
1.130000e-06	-3.110793e-06	-9.959550e-10	-2.168977e+01	-6.793533e+01
1.140000e-06	-3.072056e-06	-9.888637e-10	-2.141967e+01	-6.756221e+01
1.150000e-06	-3.033147e-06	-9.816084e-10	-2.114838e+01	-6.718248e+01
1.160000e-06	-2.994050e-06	-9.751029e-10	-2.087578e+01	-6.679595e+01
1.170000e-06	-2.954722e-06	-9.682283e-10	-2.060157e+01	-6.640239e+01
1.180000e-06	-2.915253e-06	-9.614628e-10	-2.032638e+01	-6.600160e+01
1.190000e-06	-2.875667e-06	-9.536794e-10	-2.005036e+01	-6.559340e+01
1.200000e-06	-2.835998e-06	-9.471446e-10	-1.977378e+01	-6.517760e+01
1.210000e-06	-2.796223e-06	-9.406738e-10	-1.949645e+01	-6.475401e+01
1.220000e-06	-2.756299e-06	-9.361033e-10	-1.921808e+01	-6.432247e+01
1.230000e-06	-2.716232e-06	-9.290819e-10	-1.893872e+01	-6.388282e+01
1.240000e-06	-2.675995e-06	-9.216975e-10	-1.865817e+01	-6.343492e+01
1.250000e-06	-2.635590e-06	-9.146658e-10	-1.837645e+01	-6.297864e+01
1.260000e-06	-2.594927e-06	-9.098032e-10	-1.809293e+01	-6.251386e+01
1.270000e-06	-2.553938e-06	-9.026374e-10	-1.780713e+01	-6.204048e+01
1.280000e-06	-2.512641e-06	-8.940198e-10	-1.751919e+01	-6.155839e+01
1.290000e-06	-2.471056e-06	-8.844664e-10	-1.722925e+01	-6.106752e+01
1.300000e-06	-2.429229e-06	-8.765157e-10	-1.693761e+01	-6.056779e+01
1.310000e-06	-2.387154e-06	-8.674871e-10	-1.664425e+01	-6.005916e+01
1.320000e-06	-2.344753e-06	-8.600115e-10	-1.634861e+01	-5.954157e+01
1.330000e-06	-2.301990e-06	-8.567058e-10	-1.605045e+01	-5.901498e+01
1.340000e-06	-2.258959e-06	-8.535085e-10	-1.575042e+01	-5.847936e+01
1.350000e-06	-2.215772e-06	-8.449877e-10	-1.544930e+01	-5.793470e+01
1.360000e-06	-2.172396e-06	-8.343915e-10	-1.514686e+01	-5.738096e+01
1.370000e-06	-2.128847e-06	-8.235708e-10	-1.484322e+01	-5.681815e+01
1.380000e-06	-2.085235e-06	-8.130406e-10	-1.453914e+01	-5.624623e+01
1.390000e-06	-2.041562e-06	-8.016677e-10	-1.423463e+01	-5.566521e+01
1.400000e-06	-1.997871e-06	-7.923449e-10	-1.393000e+01	-5.507505e+01
1.410000e-06	-1.954135e-06	-7.850131e-10	-1.362505e+01	-5.447575e+01
1.420000e-06	-1.910282e-06	-7.776320e-10	-1.331929e+01	-5.386726e+01
1.430000e-06	-1.866296e-06	-7.702996e-10	-1.301261e+01	-5.324956e+01
1.440000e-06	-1.822255e-06	-7.628983e-10	-1.270553e+01	-5.262259e+01
1.450000e-06	-1.778177e-06	-7.523312e-10	-1.239820e+01	-5.198630e+01
1.460000e-06	-1.733976e-06	-7.390090e-10	-1.209002e+01	-5.134059e+01
1.470000e-06	-1.689639e-06	-7.250646e-10	-1.178088e+01	-5.068538e+01
1.480000e-06	-1.645151e-06	-7.108465e-10	-1.147069e+01	-5.002055e+01
1.490000e-06	-1.600483e-06	-6.991985e-10	-1.115925e+01	-4.934596e+01
1.500000e-06	-1.555640e-06	-6.895474e-10	-1.084658e+01	-4.866145e+01
1.510000e-06	-1.510657e-06	-6.790294e-10	-1.053294e+01	-4.796685e+01
1.520000e-06	-1.465570e-06	-6.649770e-10	-1.021858e+01	-4.726193e+01
1.530000e-06	-1.420400e-06	-6.510462e-10	-9.903632e+00	-4.654647e+01
1.540000e-06	-1.375129e-06	-6.377949e-10	-9.587979e+00	-4.582020e+01
1.550000e-06	-1.329731e-06	-6.254040e-10	-9.271450e+00	-4.508285e+01
1.560000e-06	-1.284241e-06	-6.120683e-10	-8.954272e+00	-4.433409e+01
1.570000e-06	-1.238681e-06	-6.011584e-10	-8.636606e+00	-4.357360e+01
1.580000e-06	-1.193091e-06	-5.910082e-10	-8.318735e+00	-4.280100e+01
1.590000e-06	-1.147461e-06	-5.782162e-10	-8.000581e+00	-4.201592e+01
1.600000e-06	-1.101759e-06	-5.637289e-10	-7.681929e+00	-4.121795e+01
1.610000e-06	-1.056001e-06	-5.496022e-10	-7.362882e+00	-4.040667e+01
1.620000e-06	-1.010186e-06	-5.368901e-10	-7.043441e+00	-3.958163e+01
1.630000e-06	-9.643031e-07	-5.261905e-10	-6.723529e+00	-3.874238e+01
1.640000e-06	-9.183407e-07	-5.133740e-10	-6.403060e+00	-3.788845e+01
1.650000e-06	-8.722916e-07	-4.997780e-10	-6.081985e+00	-3.701937e+01
1.660000e-06	-8.261920e-07	-4.846038e-10	-5.760560e+00	-3.613466e+01
1.670000e-06	-7.800353e-07	-4.681421e-10	-5.438736e+00	-3.523385e+01
1.680000e-06	-7.338018e-07	-4.521386e-10	-5.116376e+00	-3.431645e+01
1.690000e-06	-6.874810e-07	-4.392177e-10	-4.793408e+00	-3.338202e+01
1.700000e-06	-6.411028e-07	-4.264591e-10	-4.470039e+00	-3.243011e+01
1.710000e-06	-5.947613e-07	-4.110059e-10	-4.146927e+00	-3.146027e+01
1.720000e-06	-5.484235e-07	-3.950802e-10	-3.823841e+00	-3.047211e+01
1.730000e-06	-5.020206e-07	-3.773489e-10	-3.500300e+00	-2.946525e+01
1.740000e-06	-4.555628e-07	-3.588498e-10	-3.176376e+00	-2.843934e+01
1.750000e-06	-4.090240e-07	-3.436446e-10	-2.851888e+00	-2.739409e+01
1.760000e-06	-3.624440e-07	-3.299233e-10	-2.527113e+00	-2.632922e+01
1.770000e-06	-3.158765e-07	-3.180843e-10	-2.202424e+00	-2.524454e+01
1.780000e-06	-2.692572e-07	-3.080218e-10	-1.877375e+00	-2.413987e+01
1.790000e-06	-2.225888e-07	-2.923481e-10	-1.551983e+00	-2.301511e+01
1.800000e-06	-1.759733e-07	-2.705919e-10	-1.226960e+00	-2.187024e+01
1.810000e-06	-1.293625e-07	-2.476343e-10	-9.019699e-01	-2.070526e+01
1.820000e-06	-8.268000e-08	-2.280684e-10	-5.764799e-01	-1.952028e+01
1.830000e-06	-3.591416e-08	-2.124484e-10	-2.504087e-01	-1.831546e+01
1.840000e-06	1.086465e-08	-1.999558e-10	7.575290e-02	-1.709104e+01
1.850000e-06	5.749581e-08	-1.909149e-10	4.008851e-01	-1.584734e+01
1.860000e-06	1.040306e-07	-1.802522e-10	7.253451e-01	-1.458475e+01
1.870000e-06	1.506222e-07	-1.642413e-10	1.050201e+00	-1.330375e+01
1.880000e-06	1.972755e-07	-1.430640e-10	1.375488e+00	-1.200489e+01
1.890000e-06	2.438741e-07	-1.184281e-10	1.700393e+00	-1.068881e+01
1.900000e-06	2.904452e-07	-9.562262e-11	2.025107e+00	-9.356217e+00
1.910000e-06	3.370538e-07	-7.656405e-11	2.350082e+00	-8.007911e+00
1.920000e-06	3.837006e-07	-6.366688e-11	2.675322e+00	-6.644759e+00
1.930000e-06	4.302296e-07	-5.214155e-11	2.999743e+00	-5.267704e+00
1.940000e-06	4.766470e-07	-4.113356e-11	3.323384e+00	-3.877760e+00
1.950000e-06	5.231862e-07	-2.674588e-11	3.647876e+00	-2.476012e+00
1.960000e-06	5.697267e-07	-6.827616e-12	3.972375e+00	-1.063605e+00
1.970000e-06	6.161242e-07	1.862268e-11	4.295878e+00	3.582537e-01
1.980000e-06	6.623447e-07	4.485251e-11	4.618147e+00	1.788303e+00
1.990000e-06	7.084668e-07	6.732362e-11	4.939730e+00	3.225234e+00
2.000000e-06	7.546700e-07	8.683169e-11	5.261878e+00	4.667693e+00
2.010000e-06	8.008773e-07	1.037393e-10	5.584055e+00	6.114289e+00
2.020000e-06	8.469786e-07	1.182300e-10	5.905493e+00	7.563602e+00
2.030000e-06	8.929830e-07	1.325631e-10	6.226255e+00	9.014189e+00
2.040000e-06	9.389311e-07	1.498747e-10	6.546625e+00	1.046459e+01
2.050000e-06	9.848321e-07	1.717530e-10	6.866666e+00	1.191333e+01
2.060000e-06	1.030664e-06	1.953437e-10	7.186226e+00	1.335894e+01
2.070000e-06	1.076422e-06	2.195438e-10	7.505269e+00	1.479996e+01
2.080000e-06	1.122117e-06	2.423512e-10	7.823873e+00	1.623492e+01
2.090000e-06	1.167763e-06	2.626462e-10	8.142136e+00	1.766240e+01
2.100000e-06	1.213299e-06	2.811011e-10	8.459636e+00	1.908099e+01
2.110000e-06	1.258801e-06	2.966056e-10	8.776896e+00	2.048932e+01
2.120000e-06	1.304252e-06	3.126008e-10	9.093793e+00	2.188606e+01
2.130000e-06	1.349478e-06	3.297536e-10	9.409130e+00	2.326992e+01
2.140000e-06	1.394583e-06	3.482325e-10	9.723620e+00	2.463968e+01
2.150000e-06	1.439688e-06	3.683590e-10	1.003812e+01	2.599416e+01
2.160000e-06	1.484752e-06	3.907995e-10	1.035232e+01	2.733226e+01
2.170000e-06	1.529644e-06	4.125691e-10	1.066533e+01	2.865294e+01
2.180000e-06	1.574398e-06	4.313158e-10	1.097737e+01	2.995525e+01
2.190000e-06	1.619057e-06	4.467019e-10	1.128875e+01	3.123829e+01
2.200000e-06	1.663475e-06	4.595110e-10	1.159845e+01	3.250126e+01
2.210000e-06	1.707696e-06	4.738121e-10	1.190678e+01	3.374346e+01
2.220000e-06	1.751878e-06	4.913566e-10	1.221483e+01	3.496423e+01
2.230000e-06	1.795975e-06	5.087832e-10	1.252230e+01	3.616303e+01
2.240000e-06	1.839916e-06	5.262413e-10	1.282867e+01	3.733941e+01
2.250000e-06	1.883846e-06	5.430963e-10	1.313497e+01	3.849300e+01
2.260000e-06	1.927753e-06	5.581120e-10	1.344111e+01	3.962349e+01
2.270000e-06	1.971535e-06	5.701853e-10	1.374637e+01	4.073071e+01
2.280000e-06	2.015265e-06	5.828129e-10	1.405128e+01	4.181452e+01
2.290000e-06	2.058966e-06	5.982941e-10	1.435598e+01	4.287491e+01
2.300000e-06	2.102603e-06	6.151657e-10	1.466024e+01	4.391191e+01
2.310000e-06	2.146146e-06	6.309880e-10	1.496383e+01	4.492565e+01
2.320000e-06	2.189533e-06	6.453332e-10	1.526635e+01	4.591631e+01
2.330000e-06	2.232728e-06	6.579793e-10	1.556752e+01	4.688416e+01
2.340000e-06	2.275758e-06	6.700637e-10	1.586754e+01	4.782953e+01
2.350000e-06	2.318623e-06	6.818204e-10	1.616642e+01	4.875279e+01
2.360000e-06	2.361191e-06	6.925854e-10	1.646322e+01	4.965437e+01
2.370000e-06	2.403450e-06	7.039824e-10	1.675787e+01	5.053476e+01
2.380000e-06	2.445485e-06	7.164714e-10	1.705095e+01	5.139447e+01
2.390000e-06	2.487208e-06	7.304094e-10	1.734187e+01	5.223406e+01
2.400000e-06	2.528553e-06	7.452244e-10	1.763014e+01	5.305412e+01
2.410000e-06	2.569514e-06	7.601620e-10	1.791574e+01	5.385525e+01
2.420000e-06	2.610223e-06	7.726986e-10	1.819958e+01	5.463808e+01
2.430000e-06	2.650700e-06	7.822544e-10	1.848180e+01	5.540325e+01
2.440000e-06	2.690972e-06	7.923920e-10	1.876259e+01	5.615138e+01
2.450000e-06	2.731123e-06	8.042874e-10	1.904254e+01	5.688314e+01
2.460000e-06	2.771109e-06	8.147254e-10	1.932134e+01	5.759914e+01
2.470000e-06	2.810915e-06	8.242108e-10	1.959889e+01	5.830002e+01
2.480000e-06	2.850583e-06	8.336973e-10	1.987547e+01	5.898638e+01
2.490000e-06	2.890168e-06	8.447204e-10	2.015147e+01	5.965882e+01
2.500000e-06	2.929586e-06	8.573749e-10	2.042631e+01	6.031790e+01
2.510000e-06	2.968820e-06	8.678292e-10	2.069987e+01	6.096416e+01
2.520000e-06	3.007945e-06	8.767219e-10	2.097266e+01	6.159811e+01
2.530000e-06	3.046863e-06	8.838427e-10	2.124402e+01	6.222022e+01
2.540000e-06	3.085510e-06	8.891402e-10	2.151348e+01	6.283094e+01
2.550000e-06	3.123943e-06	8.937832e-10	2.178145e+01	6.343066e+01
2.560000e-06	3.162167e-06	8.998252e-10	2.204797e+01	6.401976e+01
2.570000e-06	3.200142e-06	9.102250e-10	2.231274e+01	6.459855e+01
2.580000e-06	3.237811e-06	9.216444e-10	2.257539e+01	6.516733e+01
2.590000e-06	3.275254e-06	9.340038e-10	2.283645e+01	6.572634e+01
2.600000e-06	3.312568e-06	9.457781e-10	2.309663e+01	6.627580e+01
2.610000e-06	3.349679e-06	9.537326e-10	2.335538e+01	6.681587e+01
2.620000e-06	3.386504e-06	9.578977e-10	2.361214e+01	6.734670e+01
2.630000e-06	3.423119e-06	9.618057e-10	2.386744e+01	6.786837e+01
2.640000e-06	3.459562e-06	9.652154e-10	2.412153e+01	6.838097e+01
2.650000e-06	3.495725e-06	9.699110e-10	2.437367e+01	6.888454e+01
2.660000e-06	3.531636e-06	9.782441e-10	2.462406e+01	6.937909e+01
2.670000e-06	3.567421e-06	9.894654e-10	2.487357e+01	6.986461e+01
2.680000e-06	3.603097e-06	1.000843e-09	2.512232e+01	7.034107e+01
2.690000e-06	3.638673e-06	1.007814e-09	2.537037e+01	7.080843e+01
2.700000e-06	3.674101e-06	1.011312e-09	2.561739e+01	7.126662e+01
2.710000e-06	3.709225e-06	1.014427e-09	2.586228e+01	7.171558e+01
2.720000e-06	3.744016e-06	1.019447e-09	2.610486e+01	7.215522e+01
2.730000e-06	3.778446e-06	1.027415e-09	2.634492e+01	7.258548e+01
2.740000e-06	3.812425e-06	1.035985e-09	2.658184e+01	7.300626e+01
2.750000e-06	3.845995e-06	1.043582e-09	2.681590e+01	7.341750e+01
2.760000e-06	3.879122e-06	1.049545e-09	2.704688e+01	7.381913e+01
2.770000e-06	3.911778e-06	1.054178e-09	2.727457e+01	7.421107e+01
2.780000e-06	3.944081e-06	1.058888e-09	2.749980e+01	7.459330e+01
2.790000e-06	3.976118e-06	1.064826e-09	2.772317e+01	7.496577e+01
2.800000e-06	4.007936e-06	1.073670e-09	2.794502e+01	7.532847e+01
2.810000e-06	4.039591e-06	1.082715e-09	2.816574e+01	7.568141e+01
2.820000e-06	4.071082e-06	1.091174e-09	2.838531e+01	7.602460e+01
2.830000e-06	4.102366e-06	1.096336e-09	2.860343e+01	7.635811e+01
2.840000e-06	4.133423e-06	1.098515e-09	2.881997e+01	7.668200e+01
2.850000e-06	4.164165e-06	1.101515e-09	2.903432e+01	7.699636e+01
2.860000e-06	4.194539e-06	1.105723e-09	2.924610e+01	7.730131e+01
2.870000e-06	4.224604e-06	1.109267e-09	2.945573e+01	7.759701e+01
2.880000e-06	4.254400e-06	1.114495e-09	2.966347e+01	7.788361e+01
2.890000e-06	4.283909e-06	1.121444e-09	2.986923e+01	7.816130e+01
2.900000e-06	4.313160e-06	1.130236e-09	3.007318e+01	7.843031e+01
