# Temperatura_=_-6.27
# Concentracion g/m^3_=_1620.0
# C_Vs_to_Am_M_A/Vsm_=_65563218390.804596
# pendiente_HvsI_1/m_=_3716.3
# ordenada_HvsI_A/m_=_1297.0
# frecuencia_Hz_=_135097.00320573914

Tiempo_(s)	Campo_(V.s)	Magnetizacion_(V.s)	Campo_(kA/m)	Magnetizacion_(A/m)
0.000000e+00	-5.539180e-06	-9.623984e-10	-3.838319e+01	-6.482530e+01
1.000000e-08	-5.539310e-06	-9.629903e-10	-3.838409e+01	-6.482470e+01
2.000000e-08	-5.539079e-06	-9.644132e-10	-3.838249e+01	-6.482335e+01
3.000000e-08	-5.538411e-06	-9.634731e-10	-3.837786e+01	-6.482099e+01
4.000000e-08	-5.537161e-06	-9.567542e-10	-3.836920e+01	-6.481737e+01
5.000000e-08	-5.535305e-06	-9.521149e-10	-3.835635e+01	-6.481224e+01
6.000000e-08	-5.533007e-06	-9.372443e-10	-3.834042e+01	-6.480533e+01
7.000000e-08	-5.530182e-06	-9.431673e-10	-3.832084e+01	-6.479639e+01
8.000000e-08	-5.526837e-06	-1.003320e-09	-3.829767e+01	-6.478515e+01
9.000000e-08	-5.523011e-06	-1.019522e-09	-3.827115e+01	-6.477135e+01
1.000000e-07	-5.518772e-06	-9.088780e-10	-3.824178e+01	-6.475475e+01
1.100000e-07	-5.514404e-06	-9.431863e-10	-3.821151e+01	-6.473510e+01
1.200000e-07	-5.509789e-06	-9.686559e-10	-3.817953e+01	-6.471217e+01
1.300000e-07	-5.504699e-06	-1.017714e-09	-3.814426e+01	-6.468574e+01
1.400000e-07	-5.499178e-06	-9.036534e-10	-3.810600e+01	-6.465561e+01
1.500000e-07	-5.493409e-06	-8.864250e-10	-3.806603e+01	-6.462158e+01
1.600000e-07	-5.487390e-06	-9.792308e-10	-3.802432e+01	-6.458350e+01
1.700000e-07	-5.480872e-06	-1.021071e-09	-3.797915e+01	-6.454120e+01
1.800000e-07	-5.473922e-06	-9.976419e-10	-3.793099e+01	-6.449456e+01
1.900000e-07	-5.466692e-06	-9.358980e-10	-3.788089e+01	-6.444347e+01
2.000000e-07	-5.459164e-06	-9.959142e-10	-3.782873e+01	-6.438785e+01
2.100000e-07	-5.451308e-06	-1.011146e-09	-3.777430e+01	-6.432764e+01
2.200000e-07	-5.443229e-06	-1.015851e-09	-3.771831e+01	-6.426281e+01
2.300000e-07	-5.434864e-06	-9.627549e-10	-3.766035e+01	-6.419334e+01
2.400000e-07	-5.425966e-06	-1.030113e-09	-3.759869e+01	-6.411924e+01
2.500000e-07	-5.416317e-06	-1.032863e-09	-3.753183e+01	-6.404056e+01
2.600000e-07	-5.406000e-06	-1.028082e-09	-3.746034e+01	-6.395735e+01
2.700000e-07	-5.395043e-06	-9.599479e-10	-3.738441e+01	-6.386971e+01
2.800000e-07	-5.383524e-06	-9.920101e-10	-3.730459e+01	-6.377772e+01
2.900000e-07	-5.371741e-06	-1.002633e-09	-3.722294e+01	-6.368154e+01
3.000000e-07	-5.359607e-06	-1.002526e-09	-3.713886e+01	-6.358129e+01
3.100000e-07	-5.347008e-06	-9.592559e-10	-3.705156e+01	-6.347715e+01
3.200000e-07	-5.334013e-06	-9.932749e-10	-3.696151e+01	-6.336930e+01
3.300000e-07	-5.320698e-06	-1.010052e-09	-3.686924e+01	-6.325794e+01
3.400000e-07	-5.306992e-06	-9.682770e-10	-3.677427e+01	-6.314327e+01
3.500000e-07	-5.292759e-06	-9.329873e-10	-3.667564e+01	-6.302551e+01
3.600000e-07	-5.278105e-06	-9.826032e-10	-3.657410e+01	-6.290489e+01
3.700000e-07	-5.262955e-06	-9.802512e-10	-3.646912e+01	-6.278165e+01
3.800000e-07	-5.247121e-06	-9.400042e-10	-3.635940e+01	-6.265602e+01
3.900000e-07	-5.230876e-06	-9.911154e-10	-3.624683e+01	-6.252825e+01
4.000000e-07	-5.214270e-06	-1.001027e-09	-3.613176e+01	-6.239858e+01
4.100000e-07	-5.197218e-06	-9.153679e-10	-3.601360e+01	-6.226725e+01
4.200000e-07	-5.179906e-06	-9.059570e-10	-3.589364e+01	-6.213448e+01
4.300000e-07	-5.162428e-06	-1.015526e-09	-3.577253e+01	-6.200052e+01
4.400000e-07	-5.144622e-06	-9.510376e-10	-3.564914e+01	-6.186557e+01
4.500000e-07	-5.126314e-06	-8.952128e-10	-3.552228e+01	-6.172986e+01
4.600000e-07	-5.107559e-06	-9.696852e-10	-3.539232e+01	-6.159358e+01
4.700000e-07	-5.088494e-06	-9.915790e-10	-3.526021e+01	-6.145691e+01
4.800000e-07	-5.069113e-06	-8.723543e-10	-3.512591e+01	-6.132003e+01
4.900000e-07	-5.049495e-06	-9.361588e-10	-3.498997e+01	-6.118309e+01
5.000000e-07	-5.029720e-06	-9.910746e-10	-3.485294e+01	-6.104624e+01
5.100000e-07	-5.009644e-06	-9.027342e-10	-3.471383e+01	-6.090960e+01
5.200000e-07	-4.989229e-06	-8.834809e-10	-3.457236e+01	-6.077326e+01
5.300000e-07	-4.968490e-06	-1.003474e-09	-3.442866e+01	-6.063732e+01
5.400000e-07	-4.947324e-06	-9.400554e-10	-3.428199e+01	-6.050186e+01
5.500000e-07	-4.925814e-06	-8.722915e-10	-3.413294e+01	-6.036691e+01
5.600000e-07	-4.904036e-06	-9.376319e-10	-3.398203e+01	-6.023251e+01
5.700000e-07	-4.881885e-06	-9.445929e-10	-3.382854e+01	-6.009867e+01
5.800000e-07	-4.859333e-06	-8.610435e-10	-3.367226e+01	-5.996540e+01
5.900000e-07	-4.836418e-06	-9.178531e-10	-3.351348e+01	-5.983267e+01
6.000000e-07	-4.813243e-06	-9.528182e-10	-3.335288e+01	-5.970044e+01
6.100000e-07	-4.789867e-06	-8.882808e-10	-3.319091e+01	-5.956868e+01
6.200000e-07	-4.766241e-06	-8.904676e-10	-3.302719e+01	-5.943731e+01
6.300000e-07	-4.742357e-06	-9.317923e-10	-3.286169e+01	-5.930626e+01
6.400000e-07	-4.718105e-06	-8.873786e-10	-3.269364e+01	-5.917544e+01
6.500000e-07	-4.693401e-06	-8.736522e-10	-3.252245e+01	-5.904475e+01
6.600000e-07	-4.668333e-06	-9.175384e-10	-3.234875e+01	-5.891408e+01
6.700000e-07	-4.642753e-06	-8.978831e-10	-3.217149e+01	-5.878333e+01
6.800000e-07	-4.616498e-06	-8.770070e-10	-3.198956e+01	-5.865237e+01
6.900000e-07	-4.589720e-06	-9.040916e-10	-3.180401e+01	-5.852108e+01
7.000000e-07	-4.562648e-06	-9.049098e-10	-3.161641e+01	-5.838932e+01
7.100000e-07	-4.535259e-06	-8.721717e-10	-3.142663e+01	-5.825697e+01
7.200000e-07	-4.507596e-06	-8.871496e-10	-3.123494e+01	-5.812390e+01
7.300000e-07	-4.479769e-06	-8.892823e-10	-3.104211e+01	-5.798996e+01
7.400000e-07	-4.451714e-06	-8.825541e-10	-3.084771e+01	-5.785504e+01
7.500000e-07	-4.423434e-06	-8.867819e-10	-3.065174e+01	-5.771900e+01
7.600000e-07	-4.394855e-06	-8.975378e-10	-3.045371e+01	-5.758171e+01
7.700000e-07	-4.365952e-06	-8.762325e-10	-3.025343e+01	-5.744306e+01
7.800000e-07	-4.336744e-06	-8.829418e-10	-3.005104e+01	-5.730292e+01
7.900000e-07	-4.307292e-06	-8.875147e-10	-2.984695e+01	-5.716117e+01
8.000000e-07	-4.277592e-06	-8.786997e-10	-2.964114e+01	-5.701772e+01
8.100000e-07	-4.247490e-06	-8.673609e-10	-2.943256e+01	-5.687244e+01
8.200000e-07	-4.217046e-06	-8.849455e-10	-2.922160e+01	-5.672525e+01
8.300000e-07	-4.186282e-06	-8.763025e-10	-2.900842e+01	-5.657604e+01
8.400000e-07	-4.155239e-06	-8.650105e-10	-2.879332e+01	-5.642472e+01
8.500000e-07	-4.124001e-06	-8.662149e-10	-2.857685e+01	-5.627121e+01
8.600000e-07	-4.092570e-06	-8.678381e-10	-2.835906e+01	-5.611542e+01
8.700000e-07	-4.060997e-06	-8.499895e-10	-2.814028e+01	-5.595728e+01
8.800000e-07	-4.029252e-06	-8.546311e-10	-2.792030e+01	-5.579670e+01
8.900000e-07	-3.997238e-06	-8.586225e-10	-2.769846e+01	-5.563361e+01
9.000000e-07	-3.964970e-06	-8.436871e-10	-2.747487e+01	-5.546794e+01
9.100000e-07	-3.932397e-06	-8.322440e-10	-2.724915e+01	-5.529961e+01
9.200000e-07	-3.899370e-06	-8.387238e-10	-2.702030e+01	-5.512856e+01
9.300000e-07	-3.865852e-06	-8.344389e-10	-2.678803e+01	-5.495470e+01
9.400000e-07	-3.831832e-06	-8.254535e-10	-2.655230e+01	-5.477797e+01
9.500000e-07	-3.797357e-06	-8.319998e-10	-2.631341e+01	-5.459828e+01
9.600000e-07	-3.762511e-06	-8.302607e-10	-2.607195e+01	-5.441555e+01
9.700000e-07	-3.727345e-06	-8.185201e-10	-2.582826e+01	-5.422971e+01
9.800000e-07	-3.691941e-06	-8.160328e-10	-2.558294e+01	-5.404066e+01
9.900000e-07	-3.656374e-06	-8.214173e-10	-2.533648e+01	-5.384831e+01
1.000000e-06	-3.620675e-06	-8.113398e-10	-2.508911e+01	-5.365256e+01
1.010000e-06	-3.584822e-06	-8.067678e-10	-2.484067e+01	-5.345331e+01
1.020000e-06	-3.548800e-06	-8.062009e-10	-2.459106e+01	-5.325046e+01
1.030000e-06	-3.512659e-06	-8.014791e-10	-2.434062e+01	-5.304388e+01
1.040000e-06	-3.476260e-06	-7.882623e-10	-2.408840e+01	-5.283345e+01
1.050000e-06	-3.439496e-06	-7.865854e-10	-2.383365e+01	-5.261906e+01
1.060000e-06	-3.402458e-06	-7.770918e-10	-2.357699e+01	-5.240058e+01
1.070000e-06	-3.365210e-06	-7.711491e-10	-2.331889e+01	-5.217785e+01
1.080000e-06	-3.327772e-06	-7.694810e-10	-2.305946e+01	-5.195076e+01
1.090000e-06	-3.290201e-06	-7.737198e-10	-2.279912e+01	-5.171915e+01
1.100000e-06	-3.252395e-06	-7.638786e-10	-2.253714e+01	-5.148287e+01
1.110000e-06	-3.214251e-06	-7.543542e-10	-2.227283e+01	-5.124178e+01
1.120000e-06	-3.175896e-06	-7.478337e-10	-2.200705e+01	-5.099572e+01
1.130000e-06	-3.137259e-06	-7.431485e-10	-2.173932e+01	-5.074455e+01
1.140000e-06	-3.098358e-06	-7.362896e-10	-2.146976e+01	-5.048811e+01
1.150000e-06	-3.059301e-06	-7.352853e-10	-2.119912e+01	-5.022625e+01
1.160000e-06	-3.020080e-06	-7.310467e-10	-2.092735e+01	-4.995883e+01
1.170000e-06	-2.980679e-06	-7.280156e-10	-2.065432e+01	-4.968569e+01
1.180000e-06	-2.941117e-06	-7.237523e-10	-2.038018e+01	-4.940669e+01
1.190000e-06	-2.901452e-06	-7.182219e-10	-2.010532e+01	-4.912170e+01
1.200000e-06	-2.861647e-06	-7.110356e-10	-1.982949e+01	-4.883058e+01
1.210000e-06	-2.821647e-06	-7.057253e-10	-1.955232e+01	-4.853322e+01
1.220000e-06	-2.781454e-06	-7.048803e-10	-1.927381e+01	-4.822949e+01
1.230000e-06	-2.741118e-06	-6.997215e-10	-1.899431e+01	-4.791928e+01
1.240000e-06	-2.700494e-06	-6.941420e-10	-1.871281e+01	-4.760250e+01
1.250000e-06	-2.659656e-06	-6.899891e-10	-1.842982e+01	-4.727905e+01
1.260000e-06	-2.618542e-06	-6.856600e-10	-1.814493e+01	-4.694884e+01
1.270000e-06	-2.577129e-06	-6.804917e-10	-1.785796e+01	-4.661181e+01
1.280000e-06	-2.535526e-06	-6.756887e-10	-1.756967e+01	-4.626788e+01
1.290000e-06	-2.493501e-06	-6.689416e-10	-1.727847e+01	-4.591701e+01
1.300000e-06	-2.451147e-06	-6.632973e-10	-1.698498e+01	-4.555915e+01
1.310000e-06	-2.408543e-06	-6.578276e-10	-1.668976e+01	-4.519424e+01
1.320000e-06	-2.365745e-06	-6.537412e-10	-1.639319e+01	-4.482228e+01
1.330000e-06	-2.322794e-06	-6.495498e-10	-1.609557e+01	-4.444322e+01
1.340000e-06	-2.279643e-06	-6.470821e-10	-1.579656e+01	-4.405705e+01
1.350000e-06	-2.236317e-06	-6.375847e-10	-1.549633e+01	-4.366376e+01
1.360000e-06	-2.192858e-06	-6.270642e-10	-1.519519e+01	-4.326333e+01
1.370000e-06	-2.149304e-06	-6.174308e-10	-1.489339e+01	-4.285576e+01
1.380000e-06	-2.105670e-06	-6.137818e-10	-1.459103e+01	-4.244103e+01
1.390000e-06	-2.061950e-06	-6.104984e-10	-1.428807e+01	-4.201913e+01
1.400000e-06	-2.018110e-06	-6.077749e-10	-1.398429e+01	-4.159005e+01
1.410000e-06	-1.974168e-06	-6.012638e-10	-1.367980e+01	-4.115377e+01
1.420000e-06	-1.930138e-06	-5.930073e-10	-1.337470e+01	-4.071026e+01
1.430000e-06	-1.885995e-06	-5.854445e-10	-1.306881e+01	-4.025950e+01
1.440000e-06	-1.841692e-06	-5.797342e-10	-1.276182e+01	-3.980144e+01
1.450000e-06	-1.797301e-06	-5.688375e-10	-1.245422e+01	-3.933602e+01
1.460000e-06	-1.752807e-06	-5.569363e-10	-1.214590e+01	-3.886319e+01
1.470000e-06	-1.708183e-06	-5.465334e-10	-1.183669e+01	-3.838285e+01
1.480000e-06	-1.663346e-06	-5.380387e-10	-1.152599e+01	-3.789491e+01
1.490000e-06	-1.618385e-06	-5.301449e-10	-1.121444e+01	-3.739926e+01
1.500000e-06	-1.573306e-06	-5.255401e-10	-1.090206e+01	-3.689576e+01
1.510000e-06	-1.528035e-06	-5.208659e-10	-1.058837e+01	-3.638426e+01
1.520000e-06	-1.482693e-06	-5.129440e-10	-1.027417e+01	-3.586458e+01
1.530000e-06	-1.437226e-06	-5.020008e-10	-9.959114e+00	-3.533654e+01
1.540000e-06	-1.391632e-06	-4.909806e-10	-9.643174e+00	-3.479992e+01
1.550000e-06	-1.346026e-06	-4.807378e-10	-9.327152e+00	-3.425449e+01
1.560000e-06	-1.300398e-06	-4.700071e-10	-9.010979e+00	-3.369999e+01
1.570000e-06	-1.254595e-06	-4.618674e-10	-8.693593e+00	-3.313616e+01
1.580000e-06	-1.208714e-06	-4.568718e-10	-8.375661e+00	-3.256269e+01
1.590000e-06	-1.162834e-06	-4.515281e-10	-8.057742e+00	-3.197927e+01
1.600000e-06	-1.116863e-06	-4.423765e-10	-7.739190e+00	-3.138559e+01
1.610000e-06	-1.070742e-06	-4.308368e-10	-7.419602e+00	-3.078130e+01
1.620000e-06	-1.024511e-06	-4.181214e-10	-7.099246e+00	-3.016605e+01
1.630000e-06	-9.782108e-07	-4.068804e-10	-6.778414e+00	-2.953948e+01
1.640000e-06	-9.318441e-07	-3.939430e-10	-6.457121e+00	-2.890121e+01
1.650000e-06	-8.854334e-07	-3.827550e-10	-6.135522e+00	-2.825088e+01
1.660000e-06	-8.389388e-07	-3.720405e-10	-5.813343e+00	-2.758810e+01
1.670000e-06	-7.924459e-07	-3.638852e-10	-5.491175e+00	-2.691250e+01
1.680000e-06	-7.459636e-07	-3.548335e-10	-5.169080e+00	-2.622372e+01
1.690000e-06	-6.994258e-07	-3.466866e-10	-4.846601e+00	-2.552138e+01
1.700000e-06	-6.528050e-07	-3.365256e-10	-4.523547e+00	-2.480515e+01
1.710000e-06	-6.060623e-07	-3.251695e-10	-4.199648e+00	-2.407469e+01
1.720000e-06	-5.592689e-07	-3.115535e-10	-3.875398e+00	-2.332968e+01
1.730000e-06	-5.124591e-07	-2.981483e-10	-3.551034e+00	-2.256984e+01
1.740000e-06	-4.656185e-07	-2.860143e-10	-3.226457e+00	-2.179491e+01
1.750000e-06	-4.187230e-07	-2.748827e-10	-2.901499e+00	-2.100465e+01
1.760000e-06	-3.718365e-07	-2.628408e-10	-2.576604e+00	-2.019887e+01
1.770000e-06	-3.248413e-07	-2.503424e-10	-2.250956e+00	-1.937741e+01
1.780000e-06	-2.777865e-07	-2.393521e-10	-1.924894e+00	-1.854015e+01
1.790000e-06	-2.308481e-07	-2.268667e-10	-1.599639e+00	-1.768703e+01
1.800000e-06	-1.839088e-07	-2.117582e-10	-1.274378e+00	-1.681802e+01
1.810000e-06	-1.369106e-07	-1.966310e-10	-9.487081e-01	-1.593314e+01
1.820000e-06	-8.985244e-08	-1.827814e-10	-6.226235e-01	-1.503248e+01
1.830000e-06	-4.285983e-08	-1.698243e-10	-2.969929e-01	-1.411618e+01
1.840000e-06	4.048419e-09	-1.575569e-10	2.805312e-02	-1.318441e+01
1.850000e-06	5.096814e-08	-1.473651e-10	3.531786e-01	-1.223744e+01
1.860000e-06	9.792754e-08	-1.380275e-10	6.785791e-01	-1.127557e+01
1.870000e-06	1.450103e-07	-1.256874e-10	1.004835e+00	-1.029916e+01
1.880000e-06	1.920275e-07	-1.111557e-10	1.330635e+00	-9.308644e+00
1.890000e-06	2.389334e-07	-9.507640e-11	1.655665e+00	-8.304505e+00
1.900000e-06	2.859110e-07	-8.039017e-11	1.981192e+00	-7.287287e+00
1.910000e-06	3.328480e-07	-6.728538e-11	2.306437e+00	-6.257589e+00
1.920000e-06	3.797907e-07	-5.622202e-11	2.631721e+00	-5.216067e+00
1.930000e-06	4.267259e-07	-4.377930e-11	2.956954e+00	-4.163429e+00
1.940000e-06	4.735468e-07	-3.259790e-11	3.281395e+00	-3.100436e+00
1.950000e-06	5.203221e-07	-2.199952e-11	3.605520e+00	-2.027895e+00
1.960000e-06	5.670788e-07	-9.805415e-12	3.929516e+00	-9.466569e-01
1.970000e-06	6.138051e-07	5.752832e-12	4.253301e+00	1.423841e-01
1.980000e-06	6.604385e-07	2.194766e-11	4.576443e+00	1.238298e+00
1.990000e-06	7.069907e-07	3.753591e-11	4.899022e+00	2.340122e+00
2.000000e-06	7.534423e-07	5.196939e-11	5.220903e+00	3.446863e+00
2.010000e-06	7.998446e-07	6.383095e-11	5.542443e+00	4.557508e+00
2.020000e-06	8.462525e-07	7.567635e-11	5.864022e+00	5.671020e+00
2.030000e-06	8.925659e-07	9.155680e-11	6.184946e+00	6.786353e+00
2.040000e-06	9.388033e-07	1.076083e-10	6.505343e+00	7.902449e+00
2.050000e-06	9.850067e-07	1.213923e-10	6.825506e+00	9.018249e+00
2.060000e-06	1.031112e-06	1.365305e-10	7.144985e+00	1.013269e+01
2.070000e-06	1.077181e-06	1.552949e-10	7.464217e+00	1.124473e+01
2.080000e-06	1.123208e-06	1.734486e-10	7.783155e+00	1.235332e+01
2.090000e-06	1.169077e-06	1.898607e-10	8.101001e+00	1.345744e+01
2.100000e-06	1.214850e-06	2.041653e-10	8.418182e+00	1.455609e+01
2.110000e-06	1.260566e-06	2.167362e-10	8.734968e+00	1.564830e+01
2.120000e-06	1.306276e-06	2.310892e-10	9.051711e+00	1.673313e+01
2.130000e-06	1.351922e-06	2.449036e-10	9.368007e+00	1.780966e+01
2.140000e-06	1.397351e-06	2.582937e-10	9.682805e+00	1.887703e+01
2.150000e-06	1.442605e-06	2.724347e-10	9.996390e+00	1.993441e+01
2.160000e-06	1.487861e-06	2.887284e-10	1.030998e+01	2.098103e+01
2.170000e-06	1.533132e-06	3.047547e-10	1.062368e+01	2.201616e+01
2.180000e-06	1.578317e-06	3.191663e-10	1.093679e+01	2.303912e+01
2.190000e-06	1.623344e-06	3.327916e-10	1.124880e+01	2.404927e+01
2.200000e-06	1.668178e-06	3.444194e-10	1.155947e+01	2.504606e+01
2.210000e-06	1.712827e-06	3.568650e-10	1.186887e+01	2.602897e+01
2.220000e-06	1.757311e-06	3.712391e-10	1.217711e+01	2.699754e+01
2.230000e-06	1.801670e-06	3.845578e-10	1.248449e+01	2.795137e+01
2.240000e-06	1.845883e-06	3.982751e-10	1.279086e+01	2.889012e+01
2.250000e-06	1.889995e-06	4.097338e-10	1.309653e+01	2.981351e+01
2.260000e-06	1.934081e-06	4.228386e-10	1.340202e+01	3.072130e+01
2.270000e-06	1.978023e-06	4.360650e-10	1.370652e+01	3.161332e+01
2.280000e-06	2.021792e-06	4.479444e-10	1.400981e+01	3.248944e+01
2.290000e-06	2.065508e-06	4.576277e-10	1.431273e+01	3.334960e+01
2.300000e-06	2.109206e-06	4.683143e-10	1.461553e+01	3.419376e+01
2.310000e-06	2.152877e-06	4.802021e-10	1.491815e+01	3.502196e+01
2.320000e-06	2.196426e-06	4.900505e-10	1.521991e+01	3.583424e+01
2.330000e-06	2.239864e-06	4.982145e-10	1.552091e+01	3.663072e+01
2.340000e-06	2.283292e-06	5.074540e-10	1.582184e+01	3.741154e+01
2.350000e-06	2.326564e-06	5.178273e-10	1.612169e+01	3.817685e+01
2.360000e-06	2.369604e-06	5.291621e-10	1.641993e+01	3.892687e+01
2.370000e-06	2.412318e-06	5.402049e-10	1.671592e+01	3.966181e+01
2.380000e-06	2.454660e-06	5.496818e-10	1.700932e+01	4.038193e+01
2.390000e-06	2.496843e-06	5.591026e-10	1.730163e+01	4.108747e+01
2.400000e-06	2.538791e-06	5.677583e-10	1.759230e+01	4.177873e+01
2.410000e-06	2.580270e-06	5.773773e-10	1.787973e+01	4.245598e+01
2.420000e-06	2.621388e-06	5.888576e-10	1.816465e+01	4.311951e+01
2.430000e-06	2.662245e-06	6.015831e-10	1.844776e+01	4.376963e+01
2.440000e-06	2.702865e-06	6.128052e-10	1.872923e+01	4.440661e+01
2.450000e-06	2.743241e-06	6.244088e-10	1.900902e+01	4.503077e+01
2.460000e-06	2.783398e-06	6.334241e-10	1.928728e+01	4.564237e+01
2.470000e-06	2.823434e-06	6.401661e-10	1.956471e+01	4.624169e+01
2.480000e-06	2.863365e-06	6.466649e-10	1.984140e+01	4.682900e+01
2.490000e-06	2.903124e-06	6.538073e-10	2.011690e+01	4.740455e+01
2.500000e-06	2.942721e-06	6.634744e-10	2.039129e+01	4.796857e+01
2.510000e-06	2.982215e-06	6.746497e-10	2.066496e+01	4.852128e+01
2.520000e-06	3.021499e-06	6.835050e-10	2.093718e+01	4.906288e+01
2.530000e-06	3.060693e-06	6.907591e-10	2.120877e+01	4.959356e+01
2.540000e-06	3.099782e-06	6.962494e-10	2.147963e+01	5.011348e+01
2.550000e-06	3.138597e-06	7.007432e-10	2.174860e+01	5.062277e+01
2.560000e-06	3.177140e-06	7.060155e-10	2.201567e+01	5.112158e+01
2.570000e-06	3.215421e-06	7.151349e-10	2.228094e+01	5.161000e+01
2.580000e-06	3.253493e-06	7.244994e-10	2.254476e+01	5.208812e+01
2.590000e-06	3.291356e-06	7.320923e-10	2.280712e+01	5.255601e+01
2.600000e-06	3.328987e-06	7.391525e-10	2.306789e+01	5.301374e+01
2.610000e-06	3.366367e-06	7.456298e-10	2.332691e+01	5.346133e+01
2.620000e-06	3.403552e-06	7.514360e-10	2.358457e+01	5.389883e+01
2.630000e-06	3.440557e-06	7.560256e-10	2.384100e+01	5.432624e+01
2.640000e-06	3.477161e-06	7.614154e-10	2.409464e+01	5.474357e+01
2.650000e-06	3.513466e-06	7.670596e-10	2.434622e+01	5.515083e+01
2.660000e-06	3.549641e-06	7.727404e-10	2.459688e+01	5.554800e+01
2.670000e-06	3.585552e-06	7.785767e-10	2.484573e+01	5.593509e+01
2.680000e-06	3.621315e-06	7.843696e-10	2.509354e+01	5.631208e+01
2.690000e-06	3.657018e-06	7.903738e-10	2.534094e+01	5.667896e+01
2.700000e-06	3.692601e-06	7.963652e-10	2.558751e+01	5.703573e+01
2.710000e-06	3.728016e-06	8.011246e-10	2.583291e+01	5.738238e+01
2.720000e-06	3.763178e-06	8.072523e-10	2.607657e+01	5.771894e+01
2.730000e-06	3.797958e-06	8.154697e-10	2.631757e+01	5.804540e+01
2.740000e-06	3.832311e-06	8.221562e-10	2.655562e+01	5.836180e+01
2.750000e-06	3.866233e-06	8.268869e-10	2.679068e+01	5.866817e+01
2.760000e-06	3.899683e-06	8.317586e-10	2.702246e+01	5.896457e+01
2.770000e-06	3.932671e-06	8.366106e-10	2.725105e+01	5.925106e+01
2.780000e-06	3.965296e-06	8.422380e-10	2.747712e+01	5.952772e+01
2.790000e-06	3.997641e-06	8.482925e-10	2.770125e+01	5.979464e+01
2.800000e-06	4.029707e-06	8.546442e-10	2.792345e+01	6.005195e+01
2.810000e-06	4.061542e-06	8.595581e-10	2.814405e+01	6.029976e+01
2.820000e-06	4.093219e-06	8.629128e-10	2.836355e+01	6.053823e+01
2.830000e-06	4.124673e-06	8.655156e-10	2.858151e+01	6.076751e+01
2.840000e-06	4.155902e-06	8.674185e-10	2.879791e+01	6.098779e+01
2.850000e-06	4.186923e-06	8.709851e-10	2.901287e+01	6.119925e+01
2.860000e-06	4.217525e-06	8.757712e-10	2.922492e+01	6.140211e+01
2.870000e-06	4.247733e-06	8.798014e-10	2.943424e+01	6.159657e+01
2.880000e-06	4.277687e-06	8.850752e-10	2.964181e+01	6.178288e+01
2.890000e-06	4.307407e-06	8.897167e-10	2.984775e+01	6.196128e+01
2.900000e-06	4.336868e-06	8.938594e-10	3.005190e+01	6.213203e+01
