# Temperatura_=_-0.3
# Concentracion g/m^3_=_1620.0
# C_Vs_to_Am_M_A/Vsm_=_65563218390.804596
# pendiente_HvsI_1/m_=_3716.3
# ordenada_HvsI_A/m_=_1297.0
# frecuencia_Hz_=_135104.29413405733

Tiempo_(s)	Campo_(V.s)	Magnetizacion_(V.s)	Campo_(kA/m)	Magnetizacion_(A/m)
0.000000e+00	-5.512140e-06	-1.349766e-09	-3.838141e+01	-8.721697e+01
1.000000e-08	-5.512303e-06	-1.353179e-09	-3.838254e+01	-8.724023e+01
2.000000e-08	-5.512197e-06	-1.356309e-09	-3.838180e+01	-8.726443e+01
3.000000e-08	-5.511785e-06	-1.356941e-09	-3.837894e+01	-8.728955e+01
4.000000e-08	-5.510865e-06	-1.354082e-09	-3.837253e+01	-8.731553e+01
5.000000e-08	-5.509317e-06	-1.348820e-09	-3.836175e+01	-8.734229e+01
6.000000e-08	-5.507209e-06	-1.338528e-09	-3.834707e+01	-8.736972e+01
7.000000e-08	-5.504542e-06	-1.325356e-09	-3.832850e+01	-8.739768e+01
8.000000e-08	-5.501314e-06	-1.351548e-09	-3.830602e+01	-8.742601e+01
9.000000e-08	-5.497638e-06	-1.406662e-09	-3.828043e+01	-8.745454e+01
1.000000e-07	-5.493604e-06	-1.380605e-09	-3.825234e+01	-8.748306e+01
1.100000e-07	-5.489267e-06	-1.283891e-09	-3.822214e+01	-8.751135e+01
1.200000e-07	-5.484744e-06	-1.298514e-09	-3.819065e+01	-8.753917e+01
1.300000e-07	-5.479888e-06	-1.350343e-09	-3.815684e+01	-8.756626e+01
1.400000e-07	-5.474582e-06	-1.366832e-09	-3.811989e+01	-8.759235e+01
1.500000e-07	-5.468928e-06	-1.269400e-09	-3.808052e+01	-8.761717e+01
1.600000e-07	-5.463002e-06	-1.279626e-09	-3.803925e+01	-8.764042e+01
1.700000e-07	-5.456615e-06	-1.375195e-09	-3.799478e+01	-8.766180e+01
1.800000e-07	-5.449694e-06	-1.397610e-09	-3.794659e+01	-8.768102e+01
1.900000e-07	-5.442399e-06	-1.338909e-09	-3.789580e+01	-8.769777e+01
2.000000e-07	-5.434901e-06	-1.306987e-09	-3.784359e+01	-8.771175e+01
2.100000e-07	-5.427236e-06	-1.370138e-09	-3.779021e+01	-8.772266e+01
2.200000e-07	-5.419291e-06	-1.379839e-09	-3.773489e+01	-8.773019e+01
2.300000e-07	-5.411007e-06	-1.361297e-09	-3.767721e+01	-8.773405e+01
2.400000e-07	-5.402241e-06	-1.344907e-09	-3.761617e+01	-8.773397e+01
2.500000e-07	-5.392740e-06	-1.400351e-09	-3.755001e+01	-8.772967e+01
2.600000e-07	-5.382423e-06	-1.395959e-09	-3.747818e+01	-8.772088e+01
2.700000e-07	-5.371533e-06	-1.373252e-09	-3.740235e+01	-8.770737e+01
2.800000e-07	-5.360288e-06	-1.344783e-09	-3.732405e+01	-8.768888e+01
2.900000e-07	-5.348714e-06	-1.374260e-09	-3.724346e+01	-8.766521e+01
3.000000e-07	-5.336774e-06	-1.373165e-09	-3.716032e+01	-8.763616e+01
3.100000e-07	-5.324450e-06	-1.358415e-09	-3.707451e+01	-8.760153e+01
3.200000e-07	-5.311672e-06	-1.345376e-09	-3.698553e+01	-8.756117e+01
3.300000e-07	-5.298536e-06	-1.381371e-09	-3.689407e+01	-8.751493e+01
3.400000e-07	-5.285056e-06	-1.386881e-09	-3.680020e+01	-8.746268e+01
3.500000e-07	-5.271103e-06	-1.346790e-09	-3.670305e+01	-8.740431e+01
3.600000e-07	-5.256607e-06	-1.335278e-09	-3.660211e+01	-8.733974e+01
3.700000e-07	-5.241712e-06	-1.363940e-09	-3.649840e+01	-8.726890e+01
3.800000e-07	-5.226340e-06	-1.340605e-09	-3.639136e+01	-8.719173e+01
3.900000e-07	-5.210301e-06	-1.312976e-09	-3.627968e+01	-8.710822e+01
4.000000e-07	-5.193876e-06	-1.364730e-09	-3.616532e+01	-8.701834e+01
4.100000e-07	-5.177115e-06	-1.367365e-09	-3.604861e+01	-8.692211e+01
4.200000e-07	-5.160013e-06	-1.301670e-09	-3.592952e+01	-8.681955e+01
4.300000e-07	-5.142664e-06	-1.313986e-09	-3.580872e+01	-8.671070e+01
4.400000e-07	-5.125006e-06	-1.378995e-09	-3.568577e+01	-8.659561e+01
4.500000e-07	-5.106975e-06	-1.310487e-09	-3.556022e+01	-8.647435e+01
4.600000e-07	-5.088496e-06	-1.270838e-09	-3.543154e+01	-8.634701e+01
4.700000e-07	-5.069557e-06	-1.331679e-09	-3.529967e+01	-8.621367e+01
4.800000e-07	-5.050275e-06	-1.328544e-09	-3.516541e+01	-8.607445e+01
4.900000e-07	-5.030741e-06	-1.256791e-09	-3.502939e+01	-8.592946e+01
5.000000e-07	-5.011066e-06	-1.313405e-09	-3.489239e+01	-8.577883e+01
5.100000e-07	-4.991203e-06	-1.335974e-09	-3.475408e+01	-8.562268e+01
5.200000e-07	-4.970947e-06	-1.261928e-09	-3.461304e+01	-8.546115e+01
5.300000e-07	-4.950328e-06	-1.274299e-09	-3.446947e+01	-8.529439e+01
5.400000e-07	-4.929400e-06	-1.351617e-09	-3.432375e+01	-8.512255e+01
5.500000e-07	-4.908030e-06	-1.288509e-09	-3.417495e+01	-8.494576e+01
5.600000e-07	-4.886317e-06	-1.252213e-09	-3.402376e+01	-8.476419e+01
5.700000e-07	-4.864377e-06	-1.309753e-09	-3.387099e+01	-8.457799e+01
5.800000e-07	-4.842058e-06	-1.291780e-09	-3.371558e+01	-8.438731e+01
5.900000e-07	-4.819327e-06	-1.233243e-09	-3.355730e+01	-8.419230e+01
6.000000e-07	-4.796278e-06	-1.284181e-09	-3.339681e+01	-8.399312e+01
6.100000e-07	-4.772979e-06	-1.302249e-09	-3.323458e+01	-8.378990e+01
6.200000e-07	-4.749442e-06	-1.251373e-09	-3.307068e+01	-8.358280e+01
6.300000e-07	-4.725673e-06	-1.265127e-09	-3.290518e+01	-8.337195e+01
6.400000e-07	-4.701633e-06	-1.292803e-09	-3.273779e+01	-8.315750e+01
6.500000e-07	-4.677209e-06	-1.253255e-09	-3.256772e+01	-8.293957e+01
6.600000e-07	-4.652365e-06	-1.249363e-09	-3.239473e+01	-8.271829e+01
6.700000e-07	-4.627014e-06	-1.277645e-09	-3.221821e+01	-8.249377e+01
6.800000e-07	-4.601067e-06	-1.248575e-09	-3.203754e+01	-8.226614e+01
6.900000e-07	-4.574622e-06	-1.232462e-09	-3.185340e+01	-8.203550e+01
7.000000e-07	-4.547783e-06	-1.256213e-09	-3.166652e+01	-8.180194e+01
7.100000e-07	-4.520585e-06	-1.248451e-09	-3.147714e+01	-8.156557e+01
7.200000e-07	-4.493093e-06	-1.222667e-09	-3.128571e+01	-8.132645e+01
7.300000e-07	-4.465411e-06	-1.236780e-09	-3.109296e+01	-8.108468e+01
7.400000e-07	-4.437564e-06	-1.235670e-09	-3.089906e+01	-8.084031e+01
7.500000e-07	-4.409535e-06	-1.219530e-09	-3.070389e+01	-8.059342e+01
7.600000e-07	-4.381266e-06	-1.220220e-09	-3.050705e+01	-8.034404e+01
7.700000e-07	-4.352647e-06	-1.223273e-09	-3.030778e+01	-8.009223e+01
7.800000e-07	-4.323648e-06	-1.201479e-09	-3.010585e+01	-7.983801e+01
7.900000e-07	-4.294354e-06	-1.201351e-09	-2.990188e+01	-7.958141e+01
8.000000e-07	-4.264751e-06	-1.206339e-09	-2.969575e+01	-7.932245e+01
8.100000e-07	-4.234776e-06	-1.196080e-09	-2.948704e+01	-7.906113e+01
8.200000e-07	-4.204567e-06	-1.189795e-09	-2.927668e+01	-7.879745e+01
8.300000e-07	-4.174131e-06	-1.204381e-09	-2.906476e+01	-7.853140e+01
8.400000e-07	-4.143339e-06	-1.196348e-09	-2.885035e+01	-7.826295e+01
8.500000e-07	-4.112231e-06	-1.183302e-09	-2.863374e+01	-7.799208e+01
8.600000e-07	-4.080922e-06	-1.181861e-09	-2.841573e+01	-7.771874e+01
8.700000e-07	-4.049415e-06	-1.175241e-09	-2.819636e+01	-7.744288e+01
8.800000e-07	-4.017714e-06	-1.157661e-09	-2.797562e+01	-7.716444e+01
8.900000e-07	-3.985847e-06	-1.160476e-09	-2.775373e+01	-7.688335e+01
9.000000e-07	-3.953739e-06	-1.165900e-09	-2.753015e+01	-7.659953e+01
9.100000e-07	-3.921311e-06	-1.155185e-09	-2.730436e+01	-7.631289e+01
9.200000e-07	-3.888610e-06	-1.149981e-09	-2.707666e+01	-7.602334e+01
9.300000e-07	-3.855646e-06	-1.154526e-09	-2.684713e+01	-7.573076e+01
9.400000e-07	-3.822202e-06	-1.141636e-09	-2.661425e+01	-7.543504e+01
9.500000e-07	-3.788150e-06	-1.126086e-09	-2.637715e+01	-7.513606e+01
9.600000e-07	-3.753636e-06	-1.126241e-09	-2.613682e+01	-7.483368e+01
9.700000e-07	-3.718701e-06	-1.119105e-09	-2.589357e+01	-7.452777e+01
9.800000e-07	-3.683447e-06	-1.106529e-09	-2.564809e+01	-7.421816e+01
9.900000e-07	-3.647993e-06	-1.105670e-09	-2.540122e+01	-7.390473e+01
1.000000e-06	-3.612372e-06	-1.106376e-09	-2.515319e+01	-7.358729e+01
1.010000e-06	-3.576630e-06	-1.092621e-09	-2.490432e+01	-7.326569e+01
1.020000e-06	-3.540778e-06	-1.085876e-09	-2.465468e+01	-7.293976e+01
1.030000e-06	-3.504817e-06	-1.082903e-09	-2.440428e+01	-7.260932e+01
1.040000e-06	-3.468633e-06	-1.072267e-09	-2.415233e+01	-7.227421e+01
1.050000e-06	-3.432144e-06	-1.059548e-09	-2.389825e+01	-7.193423e+01
1.060000e-06	-3.395413e-06	-1.057255e-09	-2.364249e+01	-7.158921e+01
1.070000e-06	-3.358436e-06	-1.050498e-09	-2.338502e+01	-7.123898e+01
1.080000e-06	-3.321196e-06	-1.043779e-09	-2.312571e+01	-7.088335e+01
1.090000e-06	-3.283675e-06	-1.042579e-09	-2.286446e+01	-7.052214e+01
1.100000e-06	-3.245960e-06	-1.038834e-09	-2.260184e+01	-7.015518e+01
1.110000e-06	-3.208056e-06	-1.024071e-09	-2.233791e+01	-6.978230e+01
1.120000e-06	-3.169884e-06	-1.014687e-09	-2.207212e+01	-6.940333e+01
1.130000e-06	-3.131498e-06	-1.009126e-09	-2.180484e+01	-6.901811e+01
1.140000e-06	-3.092941e-06	-1.002437e-09	-2.153636e+01	-6.862648e+01
1.150000e-06	-3.054144e-06	-9.933316e-10	-2.126621e+01	-6.822830e+01
1.160000e-06	-3.015038e-06	-9.880744e-10	-2.099392e+01	-6.782342e+01
1.170000e-06	-2.975738e-06	-9.812463e-10	-2.072026e+01	-6.741171e+01
1.180000e-06	-2.936328e-06	-9.734719e-10	-2.044585e+01	-6.699304e+01
1.190000e-06	-2.896803e-06	-9.671272e-10	-2.017064e+01	-6.656730e+01
1.200000e-06	-2.857157e-06	-9.607270e-10	-1.989458e+01	-6.613438e+01
1.210000e-06	-2.817401e-06	-9.535357e-10	-1.961776e+01	-6.569419e+01
1.220000e-06	-2.777519e-06	-9.494357e-10	-1.934005e+01	-6.524663e+01
1.230000e-06	-2.737491e-06	-9.453173e-10	-1.906134e+01	-6.479164e+01
1.240000e-06	-2.697261e-06	-9.382962e-10	-1.878121e+01	-6.432913e+01
1.250000e-06	-2.656765e-06	-9.329678e-10	-1.849923e+01	-6.385904e+01
1.260000e-06	-2.616072e-06	-9.289720e-10	-1.821589e+01	-6.338134e+01
1.270000e-06	-2.575121e-06	-9.230117e-10	-1.793075e+01	-6.289596e+01
1.280000e-06	-2.533835e-06	-9.132309e-10	-1.764327e+01	-6.240288e+01
1.290000e-06	-2.492406e-06	-9.034474e-10	-1.735479e+01	-6.190205e+01
1.300000e-06	-2.450754e-06	-8.944059e-10	-1.706477e+01	-6.139345e+01
1.310000e-06	-2.408694e-06	-8.877449e-10	-1.677190e+01	-6.087705e+01
1.320000e-06	-2.366233e-06	-8.819895e-10	-1.647624e+01	-6.035282e+01
1.330000e-06	-2.323430e-06	-8.777277e-10	-1.617820e+01	-5.982075e+01
1.340000e-06	-2.280457e-06	-8.730369e-10	-1.587898e+01	-5.928081e+01
1.350000e-06	-2.237355e-06	-8.652277e-10	-1.557886e+01	-5.873296e+01
1.360000e-06	-2.194032e-06	-8.515351e-10	-1.527719e+01	-5.817717e+01
1.370000e-06	-2.150525e-06	-8.378221e-10	-1.497425e+01	-5.761340e+01
1.380000e-06	-2.106934e-06	-8.248732e-10	-1.467073e+01	-5.704160e+01
1.390000e-06	-2.063289e-06	-8.148355e-10	-1.436682e+01	-5.646171e+01
1.400000e-06	-2.019591e-06	-8.075954e-10	-1.406255e+01	-5.587365e+01
1.410000e-06	-1.975793e-06	-8.022077e-10	-1.375758e+01	-5.527733e+01
1.420000e-06	-1.931900e-06	-7.951356e-10	-1.345195e+01	-5.467265e+01
1.430000e-06	-1.887961e-06	-7.864988e-10	-1.314600e+01	-5.405949e+01
1.440000e-06	-1.843928e-06	-7.747539e-10	-1.283939e+01	-5.343771e+01
1.450000e-06	-1.799769e-06	-7.617976e-10	-1.253191e+01	-5.280714e+01
1.460000e-06	-1.755536e-06	-7.480804e-10	-1.222392e+01	-5.216760e+01
1.470000e-06	-1.711163e-06	-7.360345e-10	-1.191494e+01	-5.151889e+01
1.480000e-06	-1.666667e-06	-7.248711e-10	-1.160511e+01	-5.086076e+01
1.490000e-06	-1.622046e-06	-7.148575e-10	-1.129442e+01	-5.019297e+01
1.500000e-06	-1.577193e-06	-7.051885e-10	-1.098210e+01	-4.951523e+01
1.510000e-06	-1.532204e-06	-6.956711e-10	-1.066884e+01	-4.882725e+01
1.520000e-06	-1.487094e-06	-6.825240e-10	-1.035474e+01	-4.812868e+01
1.530000e-06	-1.441927e-06	-6.679024e-10	-1.004024e+01	-4.741917e+01
1.540000e-06	-1.396736e-06	-6.528753e-10	-9.725566e+00	-4.669836e+01
1.550000e-06	-1.351358e-06	-6.375686e-10	-9.409597e+00	-4.596583e+01
1.560000e-06	-1.305849e-06	-6.240566e-10	-9.092715e+00	-4.522116e+01
1.570000e-06	-1.260282e-06	-6.119106e-10	-8.775432e+00	-4.446391e+01
1.580000e-06	-1.214651e-06	-6.020179e-10	-8.457697e+00	-4.369364e+01
1.590000e-06	-1.169019e-06	-5.911010e-10	-8.139956e+00	-4.290985e+01
1.600000e-06	-1.123295e-06	-5.801120e-10	-7.821579e+00	-4.211207e+01
1.610000e-06	-1.077415e-06	-5.679565e-10	-7.502113e+00	-4.129981e+01
1.620000e-06	-1.031448e-06	-5.564753e-10	-7.182045e+00	-4.047255e+01
1.630000e-06	-9.854583e-07	-5.444371e-10	-6.861813e+00	-3.962981e+01
1.640000e-06	-9.394695e-07	-5.300171e-10	-6.541590e+00	-3.877107e+01
1.650000e-06	-8.933914e-07	-5.125398e-10	-6.220745e+00	-3.789585e+01
1.660000e-06	-8.471846e-07	-4.937185e-10	-5.899004e+00	-3.700365e+01
1.670000e-06	-8.008843e-07	-4.761711e-10	-5.576612e+00	-3.609400e+01
1.680000e-06	-7.545196e-07	-4.622872e-10	-5.253771e+00	-3.516645e+01
1.690000e-06	-7.081863e-07	-4.504099e-10	-4.931149e+00	-3.422056e+01
1.700000e-06	-6.618610e-07	-4.397052e-10	-4.608584e+00	-3.325592e+01
1.710000e-06	-6.154944e-07	-4.241667e-10	-4.285730e+00	-3.227217e+01
1.720000e-06	-5.690455e-07	-4.065798e-10	-3.962302e+00	-3.126897e+01
1.730000e-06	-5.224817e-07	-3.879401e-10	-3.638075e+00	-3.024601e+01
1.740000e-06	-4.759696e-07	-3.724453e-10	-3.314209e+00	-2.920304e+01
1.750000e-06	-4.294531e-07	-3.591402e-10	-2.990311e+00	-2.813987e+01
1.760000e-06	-3.827494e-07	-3.443456e-10	-2.665110e+00	-2.705635e+01
1.770000e-06	-3.359557e-07	-3.307627e-10	-2.339282e+00	-2.595237e+01
1.780000e-06	-2.891851e-07	-3.153794e-10	-2.013616e+00	-2.482792e+01
1.790000e-06	-2.424487e-07	-2.979746e-10	-1.688187e+00	-2.368301e+01
1.800000e-06	-1.956663e-07	-2.780819e-10	-1.362438e+00	-2.251776e+01
1.810000e-06	-1.488851e-07	-2.578081e-10	-1.036697e+00	-2.133233e+01
1.820000e-06	-1.022101e-07	-2.390885e-10	-7.116956e-01	-2.012695e+01
1.830000e-06	-5.552929e-08	-2.242277e-10	-3.866542e-01	-1.890195e+01
1.840000e-06	-8.846415e-09	-2.095249e-10	-6.159819e-02	-1.765770e+01
1.850000e-06	3.787669e-08	-1.940867e-10	2.637380e-01	-1.639468e+01
1.860000e-06	8.467572e-08	-1.778509e-10	5.896028e-01	-1.511341e+01
1.870000e-06	1.314414e-07	-1.594627e-10	9.152357e-01	-1.381451e+01
1.880000e-06	1.782259e-07	-1.395751e-10	1.240999e+00	-1.249868e+01
1.890000e-06	2.249894e-07	-1.196398e-10	1.566616e+00	-1.116665e+01
1.900000e-06	2.716992e-07	-1.009699e-10	1.891860e+00	-9.819280e+00
1.910000e-06	3.184292e-07	-8.276401e-11	2.217244e+00	-8.457453e+00
1.920000e-06	3.651357e-07	-6.523330e-11	2.542465e+00	-7.082139e+00
1.930000e-06	4.118344e-07	-5.041012e-11	2.867631e+00	-5.694366e+00
1.940000e-06	4.584693e-07	-3.547954e-11	3.192353e+00	-4.295221e+00
1.950000e-06	5.050720e-07	-1.945083e-11	3.516851e+00	-2.885846e+00
1.960000e-06	5.517361e-07	1.866555e-13	3.841776e+00	-1.467434e+00
1.970000e-06	5.982576e-07	2.214196e-11	4.165708e+00	-4.122086e-02
1.980000e-06	6.446205e-07	4.412061e-11	4.488537e+00	1.391517e+00
1.990000e-06	6.909005e-07	6.678141e-11	4.810787e+00	2.829468e+00
2.000000e-06	7.371573e-07	8.860243e-11	5.132876e+00	4.271294e+00
2.010000e-06	7.834041e-07	1.070454e-10	5.454896e+00	5.715636e+00
2.020000e-06	8.295327e-07	1.238049e-10	5.776093e+00	7.161117e+00
2.030000e-06	8.756221e-07	1.420491e-10	6.097016e+00	8.606352e+00
2.040000e-06	9.216882e-07	1.611105e-10	6.417777e+00	1.004996e+01
2.050000e-06	9.676536e-07	1.809037e-10	6.737838e+00	1.149054e+01
2.060000e-06	1.013538e-06	2.019243e-10	7.057334e+00	1.292675e+01
2.070000e-06	1.059390e-06	2.227617e-10	7.376602e+00	1.435721e+01
2.080000e-06	1.105169e-06	2.412787e-10	7.695364e+00	1.578060e+01
2.090000e-06	1.150848e-06	2.602732e-10	8.013431e+00	1.719562e+01
2.100000e-06	1.196480e-06	2.804783e-10	8.331171e+00	1.860100e+01
2.110000e-06	1.242000e-06	2.984290e-10	8.648130e+00	1.999553e+01
2.120000e-06	1.287402e-06	3.154346e-10	8.964270e+00	2.137802e+01
2.130000e-06	1.332790e-06	3.345353e-10	9.280309e+00	2.274736e+01
2.140000e-06	1.378120e-06	3.536300e-10	9.595944e+00	2.410247e+01
2.150000e-06	1.423310e-06	3.719132e-10	9.910603e+00	2.544236e+01
2.160000e-06	1.468384e-06	3.893117e-10	1.022446e+01	2.676608e+01
2.170000e-06	1.513363e-06	4.077950e-10	1.053765e+01	2.807277e+01
2.180000e-06	1.558213e-06	4.275656e-10	1.084994e+01	2.936162e+01
2.190000e-06	1.602925e-06	4.481283e-10	1.116128e+01	3.063190e+01
2.200000e-06	1.647499e-06	4.676209e-10	1.147165e+01	3.188297e+01
2.210000e-06	1.691945e-06	4.856833e-10	1.178113e+01	3.311425e+01
2.220000e-06	1.736274e-06	5.033106e-10	1.208979e+01	3.432524e+01
2.230000e-06	1.780472e-06	5.207435e-10	1.239755e+01	3.551552e+01
2.240000e-06	1.824523e-06	5.369677e-10	1.270428e+01	3.668475e+01
2.250000e-06	1.868486e-06	5.535341e-10	1.301040e+01	3.783265e+01
2.260000e-06	1.912431e-06	5.706432e-10	1.331639e+01	3.895904e+01
2.270000e-06	1.956310e-06	5.869370e-10	1.362192e+01	4.006378e+01
2.280000e-06	2.000096e-06	6.024838e-10	1.392681e+01	4.114684e+01
2.290000e-06	2.043810e-06	6.174635e-10	1.423119e+01	4.220821e+01
2.300000e-06	2.087433e-06	6.317327e-10	1.453494e+01	4.324798e+01
2.310000e-06	2.131002e-06	6.459542e-10	1.483831e+01	4.426629e+01
2.320000e-06	2.174502e-06	6.596877e-10	1.514120e+01	4.526332e+01
2.330000e-06	2.217878e-06	6.709294e-10	1.544324e+01	4.623932e+01
2.340000e-06	2.261130e-06	6.801987e-10	1.574440e+01	4.719458e+01
2.350000e-06	2.304292e-06	6.905230e-10	1.604494e+01	4.812943e+01
2.360000e-06	2.347235e-06	7.028618e-10	1.634395e+01	4.904425e+01
2.370000e-06	2.389824e-06	7.160729e-10	1.664050e+01	4.993943e+01
2.380000e-06	2.432130e-06	7.293268e-10	1.693509e+01	5.081540e+01
2.390000e-06	2.474081e-06	7.417189e-10	1.722720e+01	5.167261e+01
2.400000e-06	2.515576e-06	7.551936e-10	1.751612e+01	5.251153e+01
2.410000e-06	2.556628e-06	7.702680e-10	1.780198e+01	5.333264e+01
2.420000e-06	2.597405e-06	7.846818e-10	1.808591e+01	5.413642e+01
2.430000e-06	2.638007e-06	7.960751e-10	1.836862e+01	5.492337e+01
2.440000e-06	2.678404e-06	8.064186e-10	1.864991e+01	5.569396e+01
2.450000e-06	2.718639e-06	8.166211e-10	1.893007e+01	5.644869e+01
2.460000e-06	2.758684e-06	8.280330e-10	1.920891e+01	5.718801e+01
2.470000e-06	2.798562e-06	8.393481e-10	1.948658e+01	5.791239e+01
2.480000e-06	2.838341e-06	8.493002e-10	1.976356e+01	5.862227e+01
2.490000e-06	2.878020e-06	8.596587e-10	2.003985e+01	5.931806e+01
2.500000e-06	2.917606e-06	8.713737e-10	2.031549e+01	6.000016e+01
2.510000e-06	2.957065e-06	8.841977e-10	2.059025e+01	6.066895e+01
2.520000e-06	2.996377e-06	8.952437e-10	2.086398e+01	6.132477e+01
2.530000e-06	3.035480e-06	9.031599e-10	2.113626e+01	6.196794e+01
2.540000e-06	3.074308e-06	9.084488e-10	2.140662e+01	6.259875e+01
2.550000e-06	3.112862e-06	9.114458e-10	2.167507e+01	6.321747e+01
2.560000e-06	3.151199e-06	9.169651e-10	2.194201e+01	6.382433e+01
2.570000e-06	3.189331e-06	9.256467e-10	2.220753e+01	6.441954e+01
2.580000e-06	3.227248e-06	9.337336e-10	2.247155e+01	6.500327e+01
2.590000e-06	3.264973e-06	9.417175e-10	2.273423e+01	6.557567e+01
2.600000e-06	3.302487e-06	9.505755e-10	2.299544e+01	6.613688e+01
2.610000e-06	3.339724e-06	9.607411e-10	2.325472e+01	6.668700e+01
2.620000e-06	3.376690e-06	9.704876e-10	2.351213e+01	6.722611e+01
2.630000e-06	3.413357e-06	9.783894e-10	2.376744e+01	6.775427e+01
2.640000e-06	3.449837e-06	9.828352e-10	2.402145e+01	6.827153e+01
2.650000e-06	3.486115e-06	9.862776e-10	2.427405e+01	6.877793e+01
2.660000e-06	3.522123e-06	9.919481e-10	2.452478e+01	6.927349e+01
2.670000e-06	3.558010e-06	9.994568e-10	2.477467e+01	6.975822e+01
2.680000e-06	3.593733e-06	1.007795e-09	2.502341e+01	7.023213e+01
2.690000e-06	3.629339e-06	1.016311e-09	2.527133e+01	7.069523e+01
2.700000e-06	3.664803e-06	1.025394e-09	2.551828e+01	7.114753e+01
2.710000e-06	3.700066e-06	1.033567e-09	2.576381e+01	7.158903e+01
2.720000e-06	3.735190e-06	1.041471e-09	2.600839e+01	7.201976e+01
2.730000e-06	3.770055e-06	1.048604e-09	2.625115e+01	7.243974e+01
2.740000e-06	3.804442e-06	1.053270e-09	2.649059e+01	7.284901e+01
2.750000e-06	3.838275e-06	1.057767e-09	2.672617e+01	7.324763e+01
2.760000e-06	3.871536e-06	1.062654e-09	2.695777e+01	7.363565e+01
2.770000e-06	3.904276e-06	1.067720e-09	2.718574e+01	7.401316e+01
2.780000e-06	3.936602e-06	1.074604e-09	2.741083e+01	7.438027e+01
2.790000e-06	3.968681e-06	1.082539e-09	2.763419e+01	7.473711e+01
2.800000e-06	4.000658e-06	1.090171e-09	2.785685e+01	7.508381e+01
2.810000e-06	4.032479e-06	1.097492e-09	2.807843e+01	7.542055e+01
2.820000e-06	4.064086e-06	1.104928e-09	2.829851e+01	7.574752e+01
2.830000e-06	4.095508e-06	1.111061e-09	2.851730e+01	7.606492e+01
2.840000e-06	4.126725e-06	1.114399e-09	2.873467e+01	7.637300e+01
2.850000e-06	4.157692e-06	1.117650e-09	2.895029e+01	7.667201e+01
2.860000e-06	4.188326e-06	1.122134e-09	2.916360e+01	7.696222e+01
2.870000e-06	4.218614e-06	1.126876e-09	2.937449e+01	7.724393e+01
2.880000e-06	4.248546e-06	1.131998e-09	2.958292e+01	7.751746e+01
2.890000e-06	4.278266e-06	1.137576e-09	2.978985e+01	7.778314e+01
2.900000e-06	4.307793e-06	1.143710e-09	2.999546e+01	7.804130e+01
