# Temperatura_=_11.2
# Concentracion g/m^3_=_1620.0
# C_Vs_to_Am_M_A/Vsm_=_65563218390.804596
# pendiente_HvsI_1/m_=_3716.3
# ordenada_HvsI_A/m_=_1297.0
# frecuencia_Hz_=_135105.7243443008

Tiempo_(s)	Campo_(V.s)	Magnetizacion_(V.s)	Campo_(kA/m)	Magnetizacion_(A/m)
0.000000e+00	-5.511985e-06	-7.537826e-10	-3.836526e+01	-4.895416e+01
1.000000e-08	-5.512286e-06	-7.510225e-10	-3.836736e+01	-4.894800e+01
2.000000e-08	-5.512312e-06	-7.489706e-10	-3.836754e+01	-4.893915e+01
3.000000e-08	-5.511978e-06	-7.484600e-10	-3.836522e+01	-4.892753e+01
4.000000e-08	-5.511171e-06	-7.468772e-10	-3.835960e+01	-4.891304e+01
5.000000e-08	-5.509828e-06	-7.424317e-10	-3.835025e+01	-4.889559e+01
6.000000e-08	-5.508014e-06	-7.339222e-10	-3.833762e+01	-4.887515e+01
7.000000e-08	-5.505642e-06	-7.210803e-10	-3.832111e+01	-4.885167e+01
8.000000e-08	-5.502670e-06	-7.254343e-10	-3.830043e+01	-4.882515e+01
9.000000e-08	-5.499219e-06	-7.718115e-10	-3.827641e+01	-4.879557e+01
1.000000e-07	-5.495372e-06	-8.031165e-10	-3.824963e+01	-4.876297e+01
1.100000e-07	-5.491102e-06	-7.560288e-10	-3.821991e+01	-4.872738e+01
1.200000e-07	-5.486485e-06	-6.847073e-10	-3.818778e+01	-4.868888e+01
1.300000e-07	-5.481726e-06	-6.907374e-10	-3.815465e+01	-4.864755e+01
1.400000e-07	-5.476679e-06	-7.459023e-10	-3.811953e+01	-4.860349e+01
1.500000e-07	-5.471152e-06	-7.238976e-10	-3.808105e+01	-4.855681e+01
1.600000e-07	-5.465228e-06	-6.802684e-10	-3.803982e+01	-4.850765e+01
1.700000e-07	-5.459002e-06	-7.046191e-10	-3.799649e+01	-4.845616e+01
1.800000e-07	-5.452359e-06	-7.651765e-10	-3.795025e+01	-4.840251e+01
1.900000e-07	-5.445238e-06	-7.422611e-10	-3.790068e+01	-4.834686e+01
2.000000e-07	-5.437829e-06	-6.739219e-10	-3.784911e+01	-4.828940e+01
2.100000e-07	-5.430186e-06	-6.876752e-10	-3.779591e+01	-4.823033e+01
2.200000e-07	-5.422242e-06	-7.432607e-10	-3.774062e+01	-4.816983e+01
2.300000e-07	-5.414057e-06	-7.510662e-10	-3.768365e+01	-4.810811e+01
2.400000e-07	-5.405578e-06	-7.126263e-10	-3.762464e+01	-4.804537e+01
2.500000e-07	-5.396551e-06	-7.122318e-10	-3.756180e+01	-4.798180e+01
2.600000e-07	-5.386715e-06	-7.316247e-10	-3.749334e+01	-4.791761e+01
2.700000e-07	-5.376142e-06	-7.377980e-10	-3.741975e+01	-4.785297e+01
2.800000e-07	-5.365029e-06	-7.292990e-10	-3.734240e+01	-4.778806e+01
2.900000e-07	-5.353509e-06	-7.422570e-10	-3.726222e+01	-4.772306e+01
3.000000e-07	-5.341700e-06	-7.557060e-10	-3.718002e+01	-4.765813e+01
3.100000e-07	-5.329578e-06	-7.539561e-10	-3.709565e+01	-4.759340e+01
3.200000e-07	-5.317034e-06	-7.383239e-10	-3.700834e+01	-4.752899e+01
3.300000e-07	-5.304041e-06	-7.313622e-10	-3.691790e+01	-4.746502e+01
3.400000e-07	-5.290692e-06	-7.365820e-10	-3.682499e+01	-4.740158e+01
3.500000e-07	-5.276993e-06	-7.412158e-10	-3.672964e+01	-4.733872e+01
3.600000e-07	-5.262873e-06	-7.346053e-10	-3.663136e+01	-4.727650e+01
3.700000e-07	-5.248314e-06	-7.391508e-10	-3.653003e+01	-4.721493e+01
3.800000e-07	-5.233304e-06	-7.522775e-10	-3.642555e+01	-4.715402e+01
3.900000e-07	-5.217736e-06	-7.407688e-10	-3.631719e+01	-4.709375e+01
4.000000e-07	-5.201524e-06	-7.265140e-10	-3.620435e+01	-4.703407e+01
4.100000e-07	-5.184850e-06	-7.392216e-10	-3.608829e+01	-4.697490e+01
4.200000e-07	-5.167977e-06	-7.384681e-10	-3.597085e+01	-4.691617e+01
4.300000e-07	-5.150825e-06	-7.141882e-10	-3.585147e+01	-4.685776e+01
4.400000e-07	-5.133290e-06	-7.255326e-10	-3.572942e+01	-4.679954e+01
4.500000e-07	-5.115392e-06	-7.473819e-10	-3.560484e+01	-4.674136e+01
4.600000e-07	-5.096991e-06	-7.240621e-10	-3.547677e+01	-4.668305e+01
4.700000e-07	-5.078108e-06	-7.047429e-10	-3.534534e+01	-4.662445e+01
4.800000e-07	-5.058992e-06	-7.337703e-10	-3.521228e+01	-4.656534e+01
4.900000e-07	-5.039697e-06	-7.364487e-10	-3.507798e+01	-4.650554e+01
5.000000e-07	-5.020134e-06	-7.154076e-10	-3.494182e+01	-4.644482e+01
5.100000e-07	-5.000350e-06	-7.218508e-10	-3.480411e+01	-4.638297e+01
5.200000e-07	-4.980310e-06	-7.281518e-10	-3.466463e+01	-4.631977e+01
5.300000e-07	-4.959842e-06	-7.048624e-10	-3.452216e+01	-4.625500e+01
5.400000e-07	-4.938960e-06	-7.133301e-10	-3.437682e+01	-4.618844e+01
5.500000e-07	-4.917757e-06	-7.324614e-10	-3.422924e+01	-4.611987e+01
5.600000e-07	-4.896204e-06	-7.132542e-10	-3.407922e+01	-4.604909e+01
5.700000e-07	-4.874341e-06	-7.008395e-10	-3.392705e+01	-4.597590e+01
5.800000e-07	-4.852171e-06	-7.266181e-10	-3.377274e+01	-4.590012e+01
5.900000e-07	-4.829662e-06	-7.208137e-10	-3.361607e+01	-4.582157e+01
6.000000e-07	-4.806804e-06	-6.972662e-10	-3.345697e+01	-4.574011e+01
6.100000e-07	-4.783629e-06	-7.076819e-10	-3.329566e+01	-4.565559e+01
6.200000e-07	-4.760229e-06	-7.132094e-10	-3.313279e+01	-4.556790e+01
6.300000e-07	-4.736601e-06	-6.863161e-10	-3.296833e+01	-4.547695e+01
6.400000e-07	-4.712722e-06	-6.823593e-10	-3.280213e+01	-4.538267e+01
6.500000e-07	-4.688522e-06	-6.949933e-10	-3.263368e+01	-4.528502e+01
6.600000e-07	-4.663890e-06	-6.858894e-10	-3.246224e+01	-4.518398e+01
6.700000e-07	-4.638744e-06	-6.809491e-10	-3.228721e+01	-4.507955e+01
6.800000e-07	-4.613071e-06	-6.918630e-10	-3.210852e+01	-4.497176e+01
6.900000e-07	-4.586899e-06	-6.854031e-10	-3.192636e+01	-4.486067e+01
7.000000e-07	-4.560216e-06	-6.731893e-10	-3.174063e+01	-4.474636e+01
7.100000e-07	-4.533121e-06	-6.781467e-10	-3.155204e+01	-4.462894e+01
7.200000e-07	-4.505685e-06	-6.779941e-10	-3.136108e+01	-4.450853e+01
7.300000e-07	-4.478013e-06	-6.699164e-10	-3.116847e+01	-4.438528e+01
7.400000e-07	-4.450215e-06	-6.715490e-10	-3.097499e+01	-4.425937e+01
7.500000e-07	-4.422326e-06	-6.760334e-10	-3.078087e+01	-4.413097e+01
7.600000e-07	-4.394251e-06	-6.683335e-10	-3.058546e+01	-4.400029e+01
7.700000e-07	-4.365835e-06	-6.645501e-10	-3.038767e+01	-4.386755e+01
7.800000e-07	-4.337041e-06	-6.679183e-10	-3.018726e+01	-4.373297e+01
7.900000e-07	-4.307864e-06	-6.658922e-10	-2.998418e+01	-4.359678e+01
8.000000e-07	-4.278397e-06	-6.594929e-10	-2.977908e+01	-4.345923e+01
8.100000e-07	-4.248747e-06	-6.604672e-10	-2.957270e+01	-4.332056e+01
8.200000e-07	-4.218839e-06	-6.563855e-10	-2.936453e+01	-4.318100e+01
8.300000e-07	-4.188588e-06	-6.489112e-10	-2.915397e+01	-4.304079e+01
8.400000e-07	-4.158012e-06	-6.472885e-10	-2.894116e+01	-4.290017e+01
8.500000e-07	-4.127134e-06	-6.494174e-10	-2.872624e+01	-4.275935e+01
8.600000e-07	-4.095949e-06	-6.463838e-10	-2.850918e+01	-4.261853e+01
8.700000e-07	-4.064477e-06	-6.473800e-10	-2.829012e+01	-4.247791e+01
8.800000e-07	-4.032837e-06	-6.491589e-10	-2.806990e+01	-4.233766e+01
8.900000e-07	-4.001082e-06	-6.454746e-10	-2.784887e+01	-4.219793e+01
9.000000e-07	-3.969144e-06	-6.402453e-10	-2.762657e+01	-4.205885e+01
9.100000e-07	-3.936846e-06	-6.369649e-10	-2.740177e+01	-4.192052e+01
9.200000e-07	-3.904212e-06	-6.305971e-10	-2.717462e+01	-4.178302e+01
9.300000e-07	-3.871304e-06	-6.261664e-10	-2.694557e+01	-4.164640e+01
9.400000e-07	-3.837989e-06	-6.263340e-10	-2.671369e+01	-4.151067e+01
9.500000e-07	-3.804149e-06	-6.252265e-10	-2.647815e+01	-4.137583e+01
9.600000e-07	-3.769851e-06	-6.220477e-10	-2.623943e+01	-4.124182e+01
9.700000e-07	-3.735190e-06	-6.224248e-10	-2.599817e+01	-4.110859e+01
9.800000e-07	-3.700154e-06	-6.219284e-10	-2.575431e+01	-4.097602e+01
9.900000e-07	-3.664807e-06	-6.169711e-10	-2.550828e+01	-4.084397e+01
1.000000e-06	-3.629270e-06	-6.133538e-10	-2.526094e+01	-4.071229e+01
1.010000e-06	-3.593614e-06	-6.109575e-10	-2.501276e+01	-4.058078e+01
1.020000e-06	-3.557792e-06	-6.056587e-10	-2.476343e+01	-4.044922e+01
1.030000e-06	-3.521848e-06	-6.026599e-10	-2.451325e+01	-4.031736e+01
1.040000e-06	-3.485770e-06	-6.038677e-10	-2.426213e+01	-4.018495e+01
1.050000e-06	-3.449424e-06	-6.003289e-10	-2.400915e+01	-4.005168e+01
1.060000e-06	-3.412813e-06	-5.929433e-10	-2.375432e+01	-3.991726e+01
1.070000e-06	-3.375916e-06	-5.884176e-10	-2.349751e+01	-3.978135e+01
1.080000e-06	-3.338680e-06	-5.884322e-10	-2.323833e+01	-3.964363e+01
1.090000e-06	-3.301206e-06	-5.873343e-10	-2.297750e+01	-3.950376e+01
1.100000e-06	-3.263528e-06	-5.859831e-10	-2.271525e+01	-3.936137e+01
1.110000e-06	-3.225623e-06	-5.819605e-10	-2.245142e+01	-3.921611e+01
1.120000e-06	-3.187524e-06	-5.746312e-10	-2.218624e+01	-3.906764e+01
1.130000e-06	-3.149220e-06	-5.684250e-10	-2.191963e+01	-3.891560e+01
1.140000e-06	-3.110650e-06	-5.677016e-10	-2.165117e+01	-3.875965e+01
1.150000e-06	-3.071889e-06	-5.653799e-10	-2.138138e+01	-3.859944e+01
1.160000e-06	-3.032970e-06	-5.609804e-10	-2.111049e+01	-3.843466e+01
1.170000e-06	-2.993857e-06	-5.593447e-10	-2.083825e+01	-3.826500e+01
1.180000e-06	-2.954547e-06	-5.600286e-10	-2.056464e+01	-3.809016e+01
1.190000e-06	-2.915033e-06	-5.582381e-10	-2.028961e+01	-3.790988e+01
1.200000e-06	-2.875413e-06	-5.582857e-10	-2.001384e+01	-3.772390e+01
1.210000e-06	-2.835656e-06	-5.577400e-10	-1.973712e+01	-3.753200e+01
1.220000e-06	-2.795756e-06	-5.518296e-10	-1.945940e+01	-3.733398e+01
1.230000e-06	-2.755717e-06	-5.431086e-10	-1.918072e+01	-3.712965e+01
1.240000e-06	-2.715553e-06	-5.364432e-10	-1.890116e+01	-3.691887e+01
1.250000e-06	-2.675234e-06	-5.307177e-10	-1.862053e+01	-3.670151e+01
1.260000e-06	-2.634677e-06	-5.257311e-10	-1.833824e+01	-3.647748e+01
1.270000e-06	-2.593854e-06	-5.261442e-10	-1.805410e+01	-3.624671e+01
1.280000e-06	-2.552718e-06	-5.281579e-10	-1.776777e+01	-3.600915e+01
1.290000e-06	-2.511316e-06	-5.270777e-10	-1.747960e+01	-3.576478e+01
1.300000e-06	-2.469742e-06	-5.220349e-10	-1.719023e+01	-3.551360e+01
1.310000e-06	-2.427859e-06	-5.137745e-10	-1.689871e+01	-3.525563e+01
1.320000e-06	-2.385620e-06	-5.054812e-10	-1.660471e+01	-3.499092e+01
1.330000e-06	-2.343055e-06	-4.994698e-10	-1.630845e+01	-3.471951e+01
1.340000e-06	-2.300162e-06	-4.980071e-10	-1.600990e+01	-3.444149e+01
1.350000e-06	-2.257086e-06	-4.973634e-10	-1.571007e+01	-3.415692e+01
1.360000e-06	-2.213864e-06	-4.946520e-10	-1.540924e+01	-3.386589e+01
1.370000e-06	-2.170530e-06	-4.922101e-10	-1.510762e+01	-3.356851e+01
1.380000e-06	-2.127103e-06	-4.899724e-10	-1.480535e+01	-3.326485e+01
1.390000e-06	-2.083558e-06	-4.868057e-10	-1.450226e+01	-3.295500e+01
1.400000e-06	-2.039905e-06	-4.822957e-10	-1.419843e+01	-3.263905e+01
1.410000e-06	-1.996166e-06	-4.776444e-10	-1.389399e+01	-3.231706e+01
1.420000e-06	-1.952347e-06	-4.704676e-10	-1.358899e+01	-3.198909e+01
1.430000e-06	-1.908429e-06	-4.630865e-10	-1.328331e+01	-3.165518e+01
1.440000e-06	-1.864409e-06	-4.581974e-10	-1.297691e+01	-3.131534e+01
1.450000e-06	-1.820280e-06	-4.527511e-10	-1.266976e+01	-3.096957e+01
1.460000e-06	-1.776065e-06	-4.438755e-10	-1.236201e+01	-3.061783e+01
1.470000e-06	-1.731765e-06	-4.366413e-10	-1.205366e+01	-3.026007e+01
1.480000e-06	-1.687343e-06	-4.312147e-10	-1.174447e+01	-2.989618e+01
1.490000e-06	-1.642714e-06	-4.257545e-10	-1.143384e+01	-2.952604e+01
1.500000e-06	-1.597944e-06	-4.207905e-10	-1.112223e+01	-2.914948e+01
1.510000e-06	-1.553066e-06	-4.157696e-10	-1.080986e+01	-2.876631e+01
1.520000e-06	-1.508012e-06	-4.085702e-10	-1.049627e+01	-2.837629e+01
1.530000e-06	-1.462885e-06	-3.999671e-10	-1.018217e+01	-2.797914e+01
1.540000e-06	-1.417684e-06	-3.906693e-10	-9.867559e+00	-2.757456e+01
1.550000e-06	-1.372371e-06	-3.810587e-10	-9.552162e+00	-2.716219e+01
1.560000e-06	-1.326971e-06	-3.721751e-10	-9.236162e+00	-2.674166e+01
1.570000e-06	-1.281464e-06	-3.659493e-10	-8.919421e+00	-2.631255e+01
1.580000e-06	-1.235887e-06	-3.607336e-10	-8.602186e+00	-2.587442e+01
1.590000e-06	-1.190248e-06	-3.552376e-10	-8.284527e+00	-2.542679e+01
1.600000e-06	-1.144508e-06	-3.473628e-10	-7.966158e+00	-2.496916e+01
1.610000e-06	-1.098650e-06	-3.389954e-10	-7.646973e+00	-2.450101e+01
1.620000e-06	-1.052712e-06	-3.313864e-10	-7.327230e+00	-2.402180e+01
1.630000e-06	-1.006728e-06	-3.232840e-10	-7.007167e+00	-2.353098e+01
1.640000e-06	-9.606813e-07	-3.123544e-10	-6.686664e+00	-2.302799e+01
1.650000e-06	-9.145243e-07	-2.991896e-10	-6.365395e+00	-2.251226e+01
1.660000e-06	-8.682959e-07	-2.894885e-10	-6.043631e+00	-2.198323e+01
1.670000e-06	-8.220093e-07	-2.817472e-10	-5.721460e+00	-2.144034e+01
1.680000e-06	-7.757186e-07	-2.765589e-10	-5.399262e+00	-2.088304e+01
1.690000e-06	-7.294127e-07	-2.719355e-10	-5.076957e+00	-2.031082e+01
1.700000e-06	-6.830241e-07	-2.673383e-10	-4.754076e+00	-1.972316e+01
1.710000e-06	-6.366331e-07	-2.593890e-10	-4.431180e+00	-1.911960e+01
1.720000e-06	-5.901865e-07	-2.474202e-10	-4.107896e+00	-1.849969e+01
1.730000e-06	-5.436531e-07	-2.337885e-10	-3.784008e+00	-1.786304e+01
1.740000e-06	-4.970531e-07	-2.199796e-10	-3.459656e+00	-1.720929e+01
1.750000e-06	-4.504804e-07	-2.071668e-10	-3.135495e+00	-1.653815e+01
1.760000e-06	-4.039081e-07	-1.980084e-10	-2.811336e+00	-1.584938e+01
1.770000e-06	-3.572773e-07	-1.907945e-10	-2.486770e+00	-1.514278e+01
1.780000e-06	-3.106190e-07	-1.843064e-10	-2.162013e+00	-1.441825e+01
1.790000e-06	-2.639108e-07	-1.767087e-10	-1.836908e+00	-1.367572e+01
1.800000e-06	-2.171808e-07	-1.637983e-10	-1.511651e+00	-1.291524e+01
1.810000e-06	-1.704709e-07	-1.472671e-10	-1.186534e+00	-1.213689e+01
1.820000e-06	-1.237357e-07	-1.310368e-10	-8.612419e-01	-1.134085e+01
1.830000e-06	-7.690561e-08	-1.187549e-10	-5.352888e-01	-1.052737e+01
1.840000e-06	-3.009300e-08	-1.073470e-10	-2.094574e-01	-9.696794e+00
1.850000e-06	1.664717e-08	-9.504304e-11	1.158699e-01	-8.849531e+00
1.860000e-06	6.344970e-08	-8.563149e-11	4.416312e-01	-7.986079e+00
1.870000e-06	1.102711e-07	-7.534235e-11	7.675241e-01	-7.107013e+00
1.880000e-06	1.570272e-07	-6.438320e-11	1.092962e+00	-6.212988e+00
1.890000e-06	2.038200e-07	-5.289098e-11	1.418656e+00	-5.304736e+00
1.900000e-06	2.506212e-07	-4.049121e-11	1.744408e+00	-4.383062e+00
1.910000e-06	2.974150e-07	-2.652046e-11	2.070108e+00	-3.448844e+00
1.920000e-06	3.442891e-07	-1.218164e-11	2.396368e+00	-2.503026e+00
1.930000e-06	3.910671e-07	-3.110958e-13	2.721958e+00	-1.546616e+00
1.940000e-06	4.377156e-07	1.189328e-11	3.046648e+00	-5.806813e-01
1.950000e-06	4.843398e-07	2.185051e-11	3.371167e+00	3.936587e-01
1.960000e-06	5.308811e-07	3.151901e-11	3.695110e+00	1.375235e+00
1.970000e-06	5.773414e-07	4.341124e-11	4.018490e+00	2.362838e+00
1.980000e-06	6.237537e-07	5.835615e-11	4.341535e+00	3.355222e+00
1.990000e-06	6.701117e-07	7.510338e-11	4.664202e+00	4.351110e+00
2.000000e-06	7.163958e-07	9.096237e-11	4.986355e+00	5.349206e+00
2.010000e-06	7.626570e-07	1.058809e-10	5.308348e+00	6.348195e+00
2.020000e-06	8.088660e-07	1.189097e-10	5.629979e+00	7.346756e+00
2.030000e-06	8.549931e-07	1.294897e-10	5.951039e+00	8.343567e+00
2.040000e-06	9.010774e-07	1.408880e-10	6.271801e+00	9.337309e+00
2.050000e-06	9.471141e-07	1.518122e-10	6.592232e+00	1.032668e+01
2.060000e-06	9.930790e-07	1.652192e-10	6.912163e+00	1.131039e+01
2.070000e-06	1.039025e-06	1.811151e-10	7.231961e+00	1.228718e+01
2.080000e-06	1.084906e-06	1.993601e-10	7.551307e+00	1.325583e+01
2.090000e-06	1.130635e-06	2.167021e-10	7.869596e+00	1.421514e+01
2.100000e-06	1.176261e-06	2.313898e-10	8.187170e+00	1.516399e+01
2.110000e-06	1.221849e-06	2.434470e-10	8.504481e+00	1.610126e+01
2.120000e-06	1.267439e-06	2.525884e-10	8.821798e+00	1.702594e+01
2.130000e-06	1.312944e-06	2.626313e-10	9.138530e+00	1.793704e+01
2.140000e-06	1.358319e-06	2.741601e-10	9.454359e+00	1.883364e+01
2.150000e-06	1.403561e-06	2.869413e-10	9.769254e+00	1.971491e+01
2.160000e-06	1.448668e-06	3.001775e-10	1.008322e+01	2.058007e+01
2.170000e-06	1.493739e-06	3.141364e-10	1.039692e+01	2.142842e+01
2.180000e-06	1.538735e-06	3.279571e-10	1.071011e+01	2.225933e+01
2.190000e-06	1.583520e-06	3.383095e-10	1.102183e+01	2.307226e+01
2.200000e-06	1.628106e-06	3.459645e-10	1.133216e+01	2.386673e+01
2.210000e-06	1.672573e-06	3.534699e-10	1.164167e+01	2.464236e+01
2.220000e-06	1.716984e-06	3.618864e-10	1.195078e+01	2.539881e+01
2.230000e-06	1.761286e-06	3.718382e-10	1.225914e+01	2.613587e+01
2.240000e-06	1.805430e-06	3.830835e-10	1.256640e+01	2.685335e+01
2.250000e-06	1.849454e-06	3.957916e-10	1.287282e+01	2.755117e+01
2.260000e-06	1.893406e-06	4.074603e-10	1.317874e+01	2.822932e+01
2.270000e-06	1.937267e-06	4.175155e-10	1.348403e+01	2.888784e+01
2.280000e-06	1.981041e-06	4.251379e-10	1.378871e+01	2.952683e+01
2.290000e-06	2.024794e-06	4.313405e-10	1.409324e+01	3.014649e+01
2.300000e-06	2.068484e-06	4.366610e-10	1.439734e+01	3.074704e+01
2.310000e-06	2.112077e-06	4.420633e-10	1.470077e+01	3.132877e+01
2.320000e-06	2.155595e-06	4.496569e-10	1.500366e+01	3.189200e+01
2.330000e-06	2.199074e-06	4.590263e-10	1.530629e+01	3.243713e+01
2.340000e-06	2.242485e-06	4.679942e-10	1.560844e+01	3.296458e+01
2.350000e-06	2.285723e-06	4.767918e-10	1.590940e+01	3.347479e+01
2.360000e-06	2.328685e-06	4.845577e-10	1.620843e+01	3.396825e+01
2.370000e-06	2.371365e-06	4.902177e-10	1.650550e+01	3.444546e+01
2.380000e-06	2.413826e-06	4.948459e-10	1.680104e+01	3.490697e+01
2.390000e-06	2.456083e-06	5.015150e-10	1.709516e+01	3.535331e+01
2.400000e-06	2.498013e-06	5.095603e-10	1.738701e+01	3.578505e+01
2.410000e-06	2.539478e-06	5.158920e-10	1.767562e+01	3.620273e+01
2.420000e-06	2.580512e-06	5.221658e-10	1.796123e+01	3.660692e+01
2.430000e-06	2.621360e-06	5.291164e-10	1.824554e+01	3.699819e+01
2.440000e-06	2.662002e-06	5.355360e-10	1.852843e+01	3.737710e+01
2.450000e-06	2.702242e-06	5.423029e-10	1.880851e+01	3.774418e+01
2.460000e-06	2.742309e-06	5.487889e-10	1.908739e+01	3.809996e+01
2.470000e-06	2.782289e-06	5.532574e-10	1.936567e+01	3.844498e+01
2.480000e-06	2.822109e-06	5.557988e-10	1.964283e+01	3.877972e+01
2.490000e-06	2.861851e-06	5.577273e-10	1.991944e+01	3.910466e+01
2.500000e-06	2.901484e-06	5.623615e-10	2.019530e+01	3.942025e+01
2.510000e-06	2.940971e-06	5.680838e-10	2.047014e+01	3.972694e+01
2.520000e-06	2.980371e-06	5.746192e-10	2.074438e+01	4.002511e+01
2.530000e-06	3.019590e-06	5.795838e-10	2.101736e+01	4.031516e+01
2.540000e-06	3.058537e-06	5.830171e-10	2.128844e+01	4.059744e+01
2.550000e-06	3.097235e-06	5.844675e-10	2.155779e+01	4.087226e+01
2.560000e-06	3.135626e-06	5.864290e-10	2.182501e+01	4.113993e+01
2.570000e-06	3.173749e-06	5.897368e-10	2.209035e+01	4.140073e+01
2.580000e-06	3.211710e-06	5.937330e-10	2.235458e+01	4.165489e+01
2.590000e-06	3.249524e-06	5.978262e-10	2.261778e+01	4.190264e+01
2.600000e-06	3.287171e-06	6.000389e-10	2.287981e+01	4.214417e+01
2.610000e-06	3.324624e-06	6.020555e-10	2.314050e+01	4.237967e+01
2.620000e-06	3.361828e-06	6.052260e-10	2.339945e+01	4.260928e+01
2.630000e-06	3.398774e-06	6.115803e-10	2.365660e+01	4.283314e+01
2.640000e-06	3.435467e-06	6.160455e-10	2.391200e+01	4.305137e+01
2.650000e-06	3.471861e-06	6.179669e-10	2.416531e+01	4.326407e+01
2.660000e-06	3.507988e-06	6.205851e-10	2.441677e+01	4.347133e+01
2.670000e-06	3.543944e-06	6.225494e-10	2.466704e+01	4.367322e+01
2.680000e-06	3.579769e-06	6.242643e-10	2.491639e+01	4.386980e+01
2.690000e-06	3.615473e-06	6.267718e-10	2.516490e+01	4.406114e+01
2.700000e-06	3.651071e-06	6.301850e-10	2.541268e+01	4.424729e+01
2.710000e-06	3.686544e-06	6.339126e-10	2.565959e+01	4.442829e+01
2.720000e-06	3.721827e-06	6.374330e-10	2.590516e+01	4.460418e+01
2.730000e-06	3.756801e-06	6.425616e-10	2.614859e+01	4.477501e+01
2.740000e-06	3.791300e-06	6.466213e-10	2.638872e+01	4.494082e+01
2.750000e-06	3.825339e-06	6.486837e-10	2.662564e+01	4.510165e+01
2.760000e-06	3.858832e-06	6.504465e-10	2.685876e+01	4.525754e+01
2.770000e-06	3.891768e-06	6.532419e-10	2.708801e+01	4.540855e+01
2.780000e-06	3.924349e-06	6.575412e-10	2.731478e+01	4.555473e+01
2.790000e-06	3.956634e-06	6.615984e-10	2.753950e+01	4.569613e+01
2.800000e-06	3.988693e-06	6.648925e-10	2.776264e+01	4.583282e+01
2.810000e-06	4.020599e-06	6.676315e-10	2.798472e+01	4.596487e+01
2.820000e-06	4.052355e-06	6.712735e-10	2.820575e+01	4.609234e+01
2.830000e-06	4.083933e-06	6.749476e-10	2.842554e+01	4.621532e+01
2.840000e-06	4.115295e-06	6.754861e-10	2.864383e+01	4.633390e+01
2.850000e-06	4.146419e-06	6.745475e-10	2.886047e+01	4.644816e+01
2.860000e-06	4.177231e-06	6.761151e-10	2.907493e+01	4.655820e+01
2.870000e-06	4.207661e-06	6.817023e-10	2.928673e+01	4.666412e+01
2.880000e-06	4.237747e-06	6.842093e-10	2.949614e+01	4.676602e+01
2.890000e-06	4.267503e-06	6.876414e-10	2.970325e+01	4.686401e+01
2.900000e-06	4.296992e-06	6.902763e-10	2.990850e+01	4.695820e+01
