# Temperatura_=_-2.78
# Concentracion g/m^3_=_1620.0
# C_Vs_to_Am_M_A/Vsm_=_65563218390.804596
# pendiente_HvsI_1/m_=_3716.3
# ordenada_HvsI_A/m_=_1297.0
# frecuencia_Hz_=_135093.1190950707

Tiempo_(s)	Campo_(V.s)	Magnetizacion_(V.s)	Campo_(kA/m)	Magnetizacion_(A/m)
0.000000e+00	-5.525883e-06	-1.031975e-09	-3.837616e+01	-6.939899e+01
1.000000e-08	-5.526054e-06	-1.027630e-09	-3.837734e+01	-6.936036e+01
2.000000e-08	-5.525988e-06	-1.025979e-09	-3.837689e+01	-6.932313e+01
3.000000e-08	-5.525628e-06	-1.026264e-09	-3.837438e+01	-6.928734e+01
4.000000e-08	-5.524905e-06	-1.025270e-09	-3.836937e+01	-6.925299e+01
5.000000e-08	-5.523783e-06	-1.023649e-09	-3.836157e+01	-6.922005e+01
6.000000e-08	-5.522035e-06	-1.023895e-09	-3.834943e+01	-6.918846e+01
7.000000e-08	-5.519648e-06	-1.016248e-09	-3.833285e+01	-6.915816e+01
8.000000e-08	-5.516685e-06	-1.006476e-09	-3.831228e+01	-6.912903e+01
9.000000e-08	-5.513186e-06	-1.004356e-09	-3.828798e+01	-6.910094e+01
1.000000e-07	-5.509332e-06	-1.041483e-09	-3.826122e+01	-6.907374e+01
1.100000e-07	-5.505053e-06	-1.071214e-09	-3.823150e+01	-6.904725e+01
1.200000e-07	-5.500441e-06	-1.038194e-09	-3.819947e+01	-6.902129e+01
1.300000e-07	-5.495690e-06	-9.650436e-10	-3.816647e+01	-6.899563e+01
1.400000e-07	-5.490637e-06	-1.008461e-09	-3.813138e+01	-6.897006e+01
1.500000e-07	-5.485092e-06	-1.031123e-09	-3.809287e+01	-6.894434e+01
1.600000e-07	-5.479112e-06	-1.042219e-09	-3.805134e+01	-6.891821e+01
1.700000e-07	-5.472887e-06	-9.733844e-10	-3.800811e+01	-6.889141e+01
1.800000e-07	-5.466217e-06	-1.011809e-09	-3.796179e+01	-6.886369e+01
1.900000e-07	-5.458958e-06	-1.074461e-09	-3.791137e+01	-6.883476e+01
2.000000e-07	-5.451417e-06	-1.067747e-09	-3.785900e+01	-6.880436e+01
2.100000e-07	-5.443697e-06	-1.020001e-09	-3.780539e+01	-6.877222e+01
2.200000e-07	-5.435700e-06	-1.013088e-09	-3.774985e+01	-6.873806e+01
2.300000e-07	-5.427377e-06	-1.087120e-09	-3.769205e+01	-6.870163e+01
2.400000e-07	-5.418758e-06	-1.096794e-09	-3.763219e+01	-6.866267e+01
2.500000e-07	-5.409640e-06	-1.081848e-09	-3.756887e+01	-6.862093e+01
2.600000e-07	-5.399885e-06	-1.063442e-09	-3.750112e+01	-6.857617e+01
2.700000e-07	-5.389423e-06	-1.095265e-09	-3.742847e+01	-6.852816e+01
2.800000e-07	-5.378349e-06	-1.068081e-09	-3.735156e+01	-6.847669e+01
2.900000e-07	-5.366807e-06	-1.057281e-09	-3.727140e+01	-6.842156e+01
3.000000e-07	-5.354827e-06	-1.047822e-09	-3.718821e+01	-6.836259e+01
3.100000e-07	-5.342575e-06	-1.082931e-09	-3.710312e+01	-6.829961e+01
3.200000e-07	-5.329951e-06	-1.063241e-09	-3.701545e+01	-6.823246e+01
3.300000e-07	-5.316841e-06	-1.058376e-09	-3.692440e+01	-6.816101e+01
3.400000e-07	-5.303273e-06	-1.042428e-09	-3.683017e+01	-6.808515e+01
3.500000e-07	-5.289353e-06	-1.062856e-09	-3.673350e+01	-6.800477e+01
3.600000e-07	-5.275055e-06	-1.042754e-09	-3.663420e+01	-6.791979e+01
3.700000e-07	-5.260250e-06	-1.031174e-09	-3.653138e+01	-6.783015e+01
3.800000e-07	-5.244960e-06	-1.039930e-09	-3.642520e+01	-6.773579e+01
3.900000e-07	-5.229172e-06	-1.065534e-09	-3.631556e+01	-6.763669e+01
4.000000e-07	-5.212897e-06	-1.034749e-09	-3.620253e+01	-6.753282e+01
4.100000e-07	-5.196183e-06	-1.022575e-09	-3.608646e+01	-6.742418e+01
4.200000e-07	-5.179120e-06	-1.050076e-09	-3.596795e+01	-6.731080e+01
4.300000e-07	-5.161761e-06	-1.042386e-09	-3.584740e+01	-6.719268e+01
4.400000e-07	-5.144088e-06	-9.988992e-10	-3.572466e+01	-6.706988e+01
4.500000e-07	-5.126129e-06	-1.019247e-09	-3.559994e+01	-6.694243e+01
4.600000e-07	-5.107776e-06	-1.055553e-09	-3.547249e+01	-6.681040e+01
4.700000e-07	-5.089021e-06	-1.003661e-09	-3.534223e+01	-6.667387e+01
4.800000e-07	-5.069953e-06	-9.942204e-10	-3.520981e+01	-6.653290e+01
4.900000e-07	-5.050557e-06	-1.041042e-09	-3.507511e+01	-6.638758e+01
5.000000e-07	-5.030895e-06	-1.033346e-09	-3.493856e+01	-6.623800e+01
5.100000e-07	-5.010992e-06	-9.802527e-10	-3.480034e+01	-6.608427e+01
5.200000e-07	-4.990819e-06	-1.013704e-09	-3.466024e+01	-6.592649e+01
5.300000e-07	-4.970401e-06	-1.012373e-09	-3.451844e+01	-6.576476e+01
5.400000e-07	-4.949687e-06	-9.679470e-10	-3.437459e+01	-6.559920e+01
5.500000e-07	-4.928536e-06	-9.809909e-10	-3.422770e+01	-6.542991e+01
5.600000e-07	-4.906961e-06	-1.030565e-09	-3.407786e+01	-6.525702e+01
5.700000e-07	-4.885058e-06	-9.851010e-10	-3.392576e+01	-6.508065e+01
5.800000e-07	-4.862892e-06	-9.741538e-10	-3.377181e+01	-6.490091e+01
5.900000e-07	-4.840408e-06	-1.006755e-09	-3.361567e+01	-6.471793e+01
6.000000e-07	-4.817504e-06	-9.933149e-10	-3.345660e+01	-6.453182e+01
6.100000e-07	-4.794129e-06	-9.513267e-10	-3.329427e+01	-6.434272e+01
6.200000e-07	-4.770501e-06	-9.811002e-10	-3.313018e+01	-6.415074e+01
6.300000e-07	-4.746771e-06	-9.789509e-10	-3.296538e+01	-6.395602e+01
6.400000e-07	-4.722779e-06	-9.517543e-10	-3.279876e+01	-6.375867e+01
6.500000e-07	-4.698435e-06	-9.610681e-10	-3.262970e+01	-6.355882e+01
6.600000e-07	-4.673710e-06	-9.803637e-10	-3.245798e+01	-6.335660e+01
6.700000e-07	-4.648563e-06	-9.595247e-10	-3.228334e+01	-6.315213e+01
6.800000e-07	-4.622875e-06	-9.560152e-10	-3.210494e+01	-6.294554e+01
6.900000e-07	-4.596644e-06	-9.629079e-10	-3.192278e+01	-6.273696e+01
7.000000e-07	-4.569937e-06	-9.498615e-10	-3.173730e+01	-6.252651e+01
7.100000e-07	-4.542734e-06	-9.395359e-10	-3.154838e+01	-6.231432e+01
7.200000e-07	-4.515208e-06	-9.457135e-10	-3.135722e+01	-6.210052e+01
7.300000e-07	-4.487521e-06	-9.424204e-10	-3.116494e+01	-6.188523e+01
7.400000e-07	-4.459678e-06	-9.356046e-10	-3.097157e+01	-6.166858e+01
7.500000e-07	-4.431621e-06	-9.410262e-10	-3.077672e+01	-6.145070e+01
7.600000e-07	-4.403312e-06	-9.379858e-10	-3.058013e+01	-6.123171e+01
7.700000e-07	-4.374719e-06	-9.328251e-10	-3.038155e+01	-6.101173e+01
7.800000e-07	-4.345811e-06	-9.270467e-10	-3.018079e+01	-6.079089e+01
7.900000e-07	-4.316626e-06	-9.236064e-10	-2.997811e+01	-6.056929e+01
8.000000e-07	-4.287092e-06	-9.147758e-10	-2.977300e+01	-6.034705e+01
8.100000e-07	-4.257203e-06	-9.184511e-10	-2.956542e+01	-6.012427e+01
8.200000e-07	-4.227039e-06	-9.160835e-10	-2.935594e+01	-5.990107e+01
8.300000e-07	-4.196534e-06	-9.140930e-10	-2.914409e+01	-5.967752e+01
8.400000e-07	-4.165687e-06	-9.077907e-10	-2.892986e+01	-5.945373e+01
8.500000e-07	-4.134526e-06	-9.087217e-10	-2.871346e+01	-5.922976e+01
8.600000e-07	-4.103159e-06	-9.023644e-10	-2.849562e+01	-5.900569e+01
8.700000e-07	-4.071689e-06	-8.983366e-10	-2.827707e+01	-5.878158e+01
8.800000e-07	-4.040054e-06	-8.966887e-10	-2.805737e+01	-5.855746e+01
8.900000e-07	-4.008233e-06	-8.938078e-10	-2.783638e+01	-5.833336e+01
9.000000e-07	-3.976196e-06	-8.818533e-10	-2.761389e+01	-5.810931e+01
9.100000e-07	-3.943874e-06	-8.800061e-10	-2.738942e+01	-5.788531e+01
9.200000e-07	-3.911152e-06	-8.727734e-10	-2.716217e+01	-5.766133e+01
9.300000e-07	-3.878122e-06	-8.665460e-10	-2.693278e+01	-5.743734e+01
9.400000e-07	-3.844718e-06	-8.662918e-10	-2.670080e+01	-5.721330e+01
9.500000e-07	-3.810795e-06	-8.715045e-10	-2.646521e+01	-5.698912e+01
9.600000e-07	-3.776458e-06	-8.649571e-10	-2.622675e+01	-5.676472e+01
9.700000e-07	-3.741756e-06	-8.545755e-10	-2.598575e+01	-5.653998e+01
9.800000e-07	-3.706676e-06	-8.513070e-10	-2.574213e+01	-5.631477e+01
9.900000e-07	-3.671219e-06	-8.479688e-10	-2.549588e+01	-5.608893e+01
1.000000e-06	-3.635499e-06	-8.374619e-10	-2.524781e+01	-5.586229e+01
1.010000e-06	-3.599655e-06	-8.339031e-10	-2.499889e+01	-5.563465e+01
1.020000e-06	-3.563692e-06	-8.318359e-10	-2.474913e+01	-5.540580e+01
1.030000e-06	-3.527603e-06	-8.276963e-10	-2.449850e+01	-5.517550e+01
1.040000e-06	-3.491336e-06	-8.246910e-10	-2.424663e+01	-5.494348e+01
1.050000e-06	-3.454861e-06	-8.209036e-10	-2.399332e+01	-5.470949e+01
1.060000e-06	-3.418201e-06	-8.112077e-10	-2.373873e+01	-5.447322e+01
1.070000e-06	-3.381263e-06	-7.994532e-10	-2.348219e+01	-5.423437e+01
1.080000e-06	-3.344028e-06	-7.971395e-10	-2.322361e+01	-5.399263e+01
1.090000e-06	-3.306516e-06	-7.936296e-10	-2.296310e+01	-5.374765e+01
1.100000e-06	-3.268734e-06	-7.903129e-10	-2.270071e+01	-5.349909e+01
1.110000e-06	-3.230728e-06	-7.855814e-10	-2.243676e+01	-5.324661e+01
1.120000e-06	-3.192498e-06	-7.814032e-10	-2.217126e+01	-5.298985e+01
1.130000e-06	-3.154032e-06	-7.722182e-10	-2.190412e+01	-5.272844e+01
1.140000e-06	-3.115413e-06	-7.659852e-10	-2.163592e+01	-5.246202e+01
1.150000e-06	-3.076603e-06	-7.603896e-10	-2.136640e+01	-5.219023e+01
1.160000e-06	-3.037582e-06	-7.552400e-10	-2.109540e+01	-5.191272e+01
1.170000e-06	-2.998429e-06	-7.497835e-10	-2.082349e+01	-5.162912e+01
1.180000e-06	-2.959008e-06	-7.497220e-10	-2.054972e+01	-5.133910e+01
1.190000e-06	-2.919400e-06	-7.462628e-10	-2.027465e+01	-5.104232e+01
1.200000e-06	-2.879685e-06	-7.409005e-10	-1.999884e+01	-5.073845e+01
1.210000e-06	-2.839770e-06	-7.333398e-10	-1.972164e+01	-5.042720e+01
1.220000e-06	-2.799709e-06	-7.257445e-10	-1.944342e+01	-5.010827e+01
1.230000e-06	-2.759547e-06	-7.150251e-10	-1.916450e+01	-4.978140e+01
1.240000e-06	-2.719316e-06	-7.080757e-10	-1.888510e+01	-4.944633e+01
1.250000e-06	-2.678916e-06	-7.022089e-10	-1.860454e+01	-4.910284e+01
1.260000e-06	-2.638258e-06	-6.983933e-10	-1.832218e+01	-4.875073e+01
1.270000e-06	-2.597433e-06	-6.974178e-10	-1.803866e+01	-4.838981e+01
1.280000e-06	-2.556308e-06	-6.947584e-10	-1.775305e+01	-4.801994e+01
1.290000e-06	-2.514844e-06	-6.868558e-10	-1.746509e+01	-4.764099e+01
1.300000e-06	-2.473126e-06	-6.771465e-10	-1.717536e+01	-4.725285e+01
1.310000e-06	-2.431154e-06	-6.675988e-10	-1.688388e+01	-4.685546e+01
1.320000e-06	-2.388854e-06	-6.586437e-10	-1.659011e+01	-4.644876e+01
1.330000e-06	-2.346151e-06	-6.510864e-10	-1.629355e+01	-4.603274e+01
1.340000e-06	-2.303122e-06	-6.474089e-10	-1.599472e+01	-4.560738e+01
1.350000e-06	-2.259923e-06	-6.449938e-10	-1.569472e+01	-4.517272e+01
1.360000e-06	-2.216630e-06	-6.404055e-10	-1.539406e+01	-4.472880e+01
1.370000e-06	-2.173156e-06	-6.336387e-10	-1.509213e+01	-4.427569e+01
1.380000e-06	-2.129520e-06	-6.234967e-10	-1.478910e+01	-4.381346e+01
1.390000e-06	-2.085755e-06	-6.130679e-10	-1.448515e+01	-4.334221e+01
1.400000e-06	-2.041911e-06	-6.026442e-10	-1.418067e+01	-4.286204e+01
1.410000e-06	-1.998016e-06	-5.956173e-10	-1.387582e+01	-4.237308e+01
1.420000e-06	-1.954030e-06	-5.882951e-10	-1.357035e+01	-4.187545e+01
1.430000e-06	-1.909989e-06	-5.815914e-10	-1.326449e+01	-4.136927e+01
1.440000e-06	-1.865887e-06	-5.759851e-10	-1.295821e+01	-4.085468e+01
1.450000e-06	-1.821650e-06	-5.710557e-10	-1.265099e+01	-4.033179e+01
1.460000e-06	-1.777316e-06	-5.616391e-10	-1.234311e+01	-3.980072e+01
1.470000e-06	-1.732854e-06	-5.506537e-10	-1.203433e+01	-3.926159e+01
1.480000e-06	-1.688208e-06	-5.400779e-10	-1.172427e+01	-3.871449e+01
1.490000e-06	-1.643423e-06	-5.317665e-10	-1.141325e+01	-3.815950e+01
1.500000e-06	-1.598505e-06	-5.237017e-10	-1.110130e+01	-3.759667e+01
1.510000e-06	-1.553459e-06	-5.165480e-10	-1.078846e+01	-3.702606e+01
1.520000e-06	-1.508280e-06	-5.085176e-10	-1.047471e+01	-3.644768e+01
1.530000e-06	-1.462916e-06	-4.970982e-10	-1.015966e+01	-3.586151e+01
1.540000e-06	-1.417467e-06	-4.837674e-10	-9.844027e+00	-3.526753e+01
1.550000e-06	-1.372055e-06	-4.755278e-10	-9.528650e+00	-3.466566e+01
1.560000e-06	-1.326588e-06	-4.687538e-10	-9.212892e+00	-3.405582e+01
1.570000e-06	-1.280961e-06	-4.603881e-10	-8.896020e+00	-3.343786e+01
1.580000e-06	-1.235185e-06	-4.494207e-10	-8.578114e+00	-3.281162e+01
1.590000e-06	-1.189366e-06	-4.378968e-10	-8.259912e+00	-3.217692e+01
1.600000e-06	-1.143524e-06	-4.249127e-10	-7.941549e+00	-3.153353e+01
1.610000e-06	-1.097634e-06	-4.137708e-10	-7.622852e+00	-3.088118e+01
1.620000e-06	-1.051627e-06	-4.066169e-10	-7.303338e+00	-3.021960e+01
1.630000e-06	-1.005510e-06	-3.999226e-10	-6.983064e+00	-2.954846e+01
1.640000e-06	-9.592892e-07	-3.911574e-10	-6.662072e+00	-2.886743e+01
1.650000e-06	-9.129562e-07	-3.767644e-10	-6.340299e+00	-2.817614e+01
1.660000e-06	-8.666251e-07	-3.618782e-10	-6.018539e+00	-2.747420e+01
1.670000e-06	-8.202633e-07	-3.445313e-10	-5.696565e+00	-2.676120e+01
1.680000e-06	-7.737991e-07	-3.307097e-10	-5.373881e+00	-2.603674e+01
1.690000e-06	-7.273915e-07	-3.218915e-10	-5.051589e+00	-2.530037e+01
1.700000e-06	-6.810203e-07	-3.152197e-10	-4.729550e+00	-2.455168e+01
1.710000e-06	-6.344951e-07	-3.075500e-10	-4.406442e+00	-2.379022e+01
1.720000e-06	-5.878414e-07	-2.930769e-10	-4.082441e+00	-2.301556e+01
1.730000e-06	-5.411526e-07	-2.769208e-10	-3.758197e+00	-2.222730e+01
1.740000e-06	-4.943495e-07	-2.589040e-10	-3.433159e+00	-2.142501e+01
1.750000e-06	-4.474474e-07	-2.413005e-10	-3.107433e+00	-2.060831e+01
1.760000e-06	-4.005575e-07	-2.289538e-10	-2.781792e+00	-1.977684e+01
1.770000e-06	-3.537095e-07	-2.187856e-10	-2.456442e+00	-1.893027e+01
1.780000e-06	-3.068567e-07	-2.103494e-10	-2.131059e+00	-1.806830e+01
1.790000e-06	-2.598728e-07	-2.013447e-10	-1.804765e+00	-1.719068e+01
1.800000e-06	-2.128646e-07	-1.857431e-10	-1.478302e+00	-1.629719e+01
1.810000e-06	-1.658879e-07	-1.669534e-10	-1.152058e+00	-1.538768e+01
1.820000e-06	-1.189622e-07	-1.500812e-10	-8.261691e-01	-1.446204e+01
1.830000e-06	-7.208066e-08	-1.331797e-10	-5.005858e-01	-1.352022e+01
1.840000e-06	-2.517584e-08	-1.207494e-10	-1.748412e-01	-1.256223e+01
1.850000e-06	2.184210e-08	-1.106063e-10	1.516891e-01	-1.158816e+01
1.860000e-06	6.883210e-08	-9.949726e-11	4.780252e-01	-1.059815e+01
1.870000e-06	1.156577e-07	-8.551490e-11	8.032198e-01	-9.592422e+00
1.880000e-06	1.624666e-07	-7.192560e-11	1.128298e+00	-8.571263e+00
1.890000e-06	2.092624e-07	-5.885780e-11	1.453286e+00	-7.535038e+00
1.900000e-06	2.561063e-07	-4.273612e-11	1.778607e+00	-6.484185e+00
1.910000e-06	3.029684e-07	-2.872084e-11	2.104055e+00	-5.419215e+00
1.920000e-06	3.496997e-07	-1.398214e-11	2.428595e+00	-4.340714e+00
1.930000e-06	3.964063e-07	2.596386e-12	2.752963e+00	-3.249338e+00
1.940000e-06	4.431067e-07	1.670591e-11	3.077288e+00	-2.145816e+00
1.950000e-06	4.897670e-07	2.740605e-11	3.401334e+00	-1.030943e+00
1.960000e-06	5.364848e-07	3.756166e-11	3.725780e+00	9.442020e-02
1.970000e-06	5.831032e-07	5.009654e-11	4.049536e+00	1.229351e+00
1.980000e-06	6.295276e-07	6.385783e-11	4.371944e+00	2.372869e+00
1.990000e-06	6.758471e-07	7.951523e-11	4.693623e+00	3.523942e+00
2.000000e-06	7.221539e-07	9.706162e-11	5.015215e+00	4.681490e+00
2.010000e-06	7.684800e-07	1.158885e-10	5.336941e+00	5.844390e+00
2.020000e-06	8.148103e-07	1.334535e-10	5.658695e+00	7.011484e+00
2.030000e-06	8.611960e-07	1.467871e-10	5.980834e+00	8.181582e+00
2.040000e-06	9.075018e-07	1.583235e-10	6.302419e+00	9.353472e+00
2.050000e-06	9.536531e-07	1.705714e-10	6.622931e+00	1.052592e+01
2.060000e-06	9.997330e-07	1.850392e-10	6.942946e+00	1.169770e+01
2.070000e-06	1.045724e-06	2.021490e-10	7.262343e+00	1.286756e+01
2.080000e-06	1.091591e-06	2.207903e-10	7.580880e+00	1.403426e+01
2.090000e-06	1.137385e-06	2.393823e-10	7.898912e+00	1.519658e+01
2.100000e-06	1.183223e-06	2.551563e-10	8.217245e+00	1.635332e+01
2.110000e-06	1.228972e-06	2.683574e-10	8.534966e+00	1.750328e+01
2.120000e-06	1.274659e-06	2.801365e-10	8.852255e+00	1.864532e+01
2.130000e-06	1.320299e-06	2.937405e-10	9.169212e+00	1.977832e+01
2.140000e-06	1.365800e-06	3.085038e-10	9.485206e+00	2.090123e+01
2.150000e-06	1.411167e-06	3.238997e-10	9.800271e+00	2.201301e+01
2.160000e-06	1.456382e-06	3.403962e-10	1.011428e+01	2.311272e+01
2.170000e-06	1.501541e-06	3.562997e-10	1.042790e+01	2.419944e+01
2.180000e-06	1.546586e-06	3.726076e-10	1.074073e+01	2.527235e+01
2.190000e-06	1.591449e-06	3.853017e-10	1.105229e+01	2.633067e+01
2.200000e-06	1.636147e-06	3.963780e-10	1.136271e+01	2.737370e+01
2.210000e-06	1.680735e-06	4.085918e-10	1.167237e+01	2.840083e+01
2.220000e-06	1.725161e-06	4.231324e-10	1.198090e+01	2.941150e+01
2.230000e-06	1.769398e-06	4.378299e-10	1.228812e+01	3.040525e+01
2.240000e-06	1.813527e-06	4.504244e-10	1.259459e+01	3.138169e+01
2.250000e-06	1.857591e-06	4.629056e-10	1.290060e+01	3.234050e+01
2.260000e-06	1.901639e-06	4.746358e-10	1.320650e+01	3.328145e+01
2.270000e-06	1.945655e-06	4.867838e-10	1.351219e+01	3.420438e+01
2.280000e-06	1.989619e-06	4.987561e-10	1.381750e+01	3.510921e+01
2.290000e-06	2.033504e-06	5.096449e-10	1.412228e+01	3.599591e+01
2.300000e-06	2.077294e-06	5.209705e-10	1.442639e+01	3.686456e+01
2.310000e-06	2.120968e-06	5.332042e-10	1.472970e+01	3.771526e+01
2.320000e-06	2.164560e-06	5.469528e-10	1.503244e+01	3.854821e+01
2.330000e-06	2.208110e-06	5.589111e-10	1.533489e+01	3.936364e+01
2.340000e-06	2.251541e-06	5.682022e-10	1.563650e+01	4.016186e+01
2.350000e-06	2.294725e-06	5.776148e-10	1.593641e+01	4.094319e+01
2.360000e-06	2.337641e-06	5.882421e-10	1.623445e+01	4.170801e+01
2.370000e-06	2.380410e-06	6.002704e-10	1.653148e+01	4.245676e+01
2.380000e-06	2.422941e-06	6.113396e-10	1.682684e+01	4.318986e+01
2.390000e-06	2.465105e-06	6.219900e-10	1.711966e+01	4.390780e+01
2.400000e-06	2.506959e-06	6.323755e-10	1.741033e+01	4.461106e+01
2.410000e-06	2.548491e-06	6.425590e-10	1.769876e+01	4.530015e+01
2.420000e-06	2.589617e-06	6.536437e-10	1.798437e+01	4.597557e+01
2.430000e-06	2.630465e-06	6.647670e-10	1.826806e+01	4.663782e+01
2.440000e-06	2.671119e-06	6.756651e-10	1.855039e+01	4.728742e+01
2.450000e-06	2.711518e-06	6.874606e-10	1.883095e+01	4.792485e+01
2.460000e-06	2.751815e-06	6.984946e-10	1.911081e+01	4.855058e+01
2.470000e-06	2.791978e-06	7.064551e-10	1.938973e+01	4.916508e+01
2.480000e-06	2.831945e-06	7.133804e-10	1.966729e+01	4.976877e+01
2.490000e-06	2.871798e-06	7.198325e-10	1.994406e+01	5.036205e+01
2.500000e-06	2.911542e-06	7.275752e-10	2.022008e+01	5.094530e+01
2.510000e-06	2.951167e-06	7.386571e-10	2.049527e+01	5.151884e+01
2.520000e-06	2.990597e-06	7.489395e-10	2.076910e+01	5.208298e+01
2.530000e-06	3.029774e-06	7.585097e-10	2.104118e+01	5.263797e+01
2.540000e-06	3.068760e-06	7.664751e-10	2.131193e+01	5.318402e+01
2.550000e-06	3.107504e-06	7.706595e-10	2.158100e+01	5.372132e+01
2.560000e-06	3.145965e-06	7.743386e-10	2.184810e+01	5.424999e+01
2.570000e-06	3.184275e-06	7.797447e-10	2.211415e+01	5.477013e+01
2.580000e-06	3.222457e-06	7.846168e-10	2.237932e+01	5.528178e+01
2.590000e-06	3.260405e-06	7.904434e-10	2.264286e+01	5.578496e+01
2.600000e-06	3.298114e-06	7.985155e-10	2.290475e+01	5.627963e+01
2.610000e-06	3.335669e-06	8.061247e-10	2.316556e+01	5.676574e+01
2.620000e-06	3.372877e-06	8.133796e-10	2.342396e+01	5.724319e+01
2.630000e-06	3.409815e-06	8.192025e-10	2.368048e+01	5.771184e+01
2.640000e-06	3.446612e-06	8.237562e-10	2.393603e+01	5.817156e+01
2.650000e-06	3.483095e-06	8.276997e-10	2.418940e+01	5.862215e+01
2.660000e-06	3.519261e-06	8.316469e-10	2.444057e+01	5.906344e+01
2.670000e-06	3.555230e-06	8.378715e-10	2.469037e+01	5.949520e+01
2.680000e-06	3.591102e-06	8.443874e-10	2.493949e+01	5.991722e+01
2.690000e-06	3.626863e-06	8.509522e-10	2.518784e+01	6.032927e+01
2.700000e-06	3.662439e-06	8.568949e-10	2.543491e+01	6.073112e+01
2.710000e-06	3.697823e-06	8.598128e-10	2.568064e+01	6.112255e+01
2.720000e-06	3.733072e-06	8.633790e-10	2.592544e+01	6.150335e+01
2.730000e-06	3.768039e-06	8.708311e-10	2.616828e+01	6.187330e+01
2.740000e-06	3.802598e-06	8.787008e-10	2.640828e+01	6.223221e+01
2.750000e-06	3.836780e-06	8.844067e-10	2.664568e+01	6.257991e+01
2.760000e-06	3.870432e-06	8.877684e-10	2.687938e+01	6.291627e+01
2.770000e-06	3.903470e-06	8.889026e-10	2.710882e+01	6.324114e+01
2.780000e-06	3.936115e-06	8.907278e-10	2.733554e+01	6.355445e+01
2.790000e-06	3.968457e-06	8.949464e-10	2.756014e+01	6.385613e+01
2.800000e-06	4.000575e-06	9.006147e-10	2.778320e+01	6.414615e+01
2.810000e-06	4.032513e-06	9.073948e-10	2.800500e+01	6.442454e+01
2.820000e-06	4.064244e-06	9.139504e-10	2.822536e+01	6.469133e+01
2.830000e-06	4.095837e-06	9.185005e-10	2.844477e+01	6.494662e+01
2.840000e-06	4.127265e-06	9.197923e-10	2.866304e+01	6.519053e+01
2.850000e-06	4.158431e-06	9.192336e-10	2.887948e+01	6.542322e+01
2.860000e-06	4.189273e-06	9.203597e-10	2.909367e+01	6.564491e+01
2.870000e-06	4.219731e-06	9.230211e-10	2.930519e+01	6.585584e+01
2.880000e-06	4.249863e-06	9.265615e-10	2.951445e+01	6.605628e+01
2.890000e-06	4.279696e-06	9.310638e-10	2.972164e+01	6.624655e+01
2.900000e-06	4.309142e-06	9.355860e-10	2.992613e+01	6.642700e+01
