# Temperatura_=_11.7
# Concentracion g/m^3_=_1620.0
# C_Vs_to_Am_M_A/Vsm_=_65563218390.804596
# pendiente_HvsI_1/m_=_3716.3
# ordenada_HvsI_A/m_=_1297.0
# frecuencia_Hz_=_135101.74359560452

Tiempo_(s)	Campo_(V.s)	Magnetizacion_(V.s)	Campo_(kA/m)	Magnetizacion_(A/m)
0.000000e+00	-5.531335e-06	-7.257983e-10	-3.836762e+01	-4.872158e+01
1.000000e-08	-5.531713e-06	-7.249882e-10	-3.837024e+01	-4.872426e+01
2.000000e-08	-5.531849e-06	-7.263003e-10	-3.837119e+01	-4.872922e+01
3.000000e-08	-5.531625e-06	-7.295714e-10	-3.836963e+01	-4.873642e+01
4.000000e-08	-5.530872e-06	-7.303215e-10	-3.836441e+01	-4.874583e+01
5.000000e-08	-5.529566e-06	-7.239398e-10	-3.835535e+01	-4.875738e+01
6.000000e-08	-5.527691e-06	-7.127588e-10	-3.834235e+01	-4.877097e+01
7.000000e-08	-5.525202e-06	-6.880409e-10	-3.832508e+01	-4.878649e+01
8.000000e-08	-5.522184e-06	-6.739080e-10	-3.830415e+01	-4.880382e+01
9.000000e-08	-5.518802e-06	-7.498297e-10	-3.828069e+01	-4.882280e+01
1.000000e-07	-5.514977e-06	-8.298656e-10	-3.825416e+01	-4.884327e+01
1.100000e-07	-5.510671e-06	-7.115276e-10	-3.822429e+01	-4.886505e+01
1.200000e-07	-5.506261e-06	-5.752551e-10	-3.819370e+01	-4.888793e+01
1.300000e-07	-5.501760e-06	-6.238641e-10	-3.816247e+01	-4.891171e+01
1.400000e-07	-5.496789e-06	-8.033883e-10	-3.812799e+01	-4.893616e+01
1.500000e-07	-5.491275e-06	-7.459173e-10	-3.808975e+01	-4.896105e+01
1.600000e-07	-5.485461e-06	-5.652790e-10	-3.804942e+01	-4.898615e+01
1.700000e-07	-5.479406e-06	-6.309941e-10	-3.800742e+01	-4.901121e+01
1.800000e-07	-5.472759e-06	-7.979266e-10	-3.796132e+01	-4.903596e+01
1.900000e-07	-5.465577e-06	-7.929632e-10	-3.791150e+01	-4.906017e+01
2.000000e-07	-5.458228e-06	-6.030904e-10	-3.786052e+01	-4.908358e+01
2.100000e-07	-5.450705e-06	-6.284508e-10	-3.780834e+01	-4.910593e+01
2.200000e-07	-5.442831e-06	-7.425470e-10	-3.775372e+01	-4.912698e+01
2.300000e-07	-5.434710e-06	-7.839601e-10	-3.769739e+01	-4.914647e+01
2.400000e-07	-5.426337e-06	-6.826820e-10	-3.763932e+01	-4.916418e+01
2.500000e-07	-5.417403e-06	-6.917943e-10	-3.757734e+01	-4.917985e+01
2.600000e-07	-5.407570e-06	-7.505946e-10	-3.750913e+01	-4.919329e+01
2.700000e-07	-5.396968e-06	-7.733169e-10	-3.743559e+01	-4.920426e+01
2.800000e-07	-5.385897e-06	-7.095553e-10	-3.735880e+01	-4.921258e+01
2.900000e-07	-5.374405e-06	-7.084247e-10	-3.727909e+01	-4.921805e+01
3.000000e-07	-5.362566e-06	-7.651671e-10	-3.719697e+01	-4.922050e+01
3.100000e-07	-5.350346e-06	-7.756796e-10	-3.711221e+01	-4.921978e+01
3.200000e-07	-5.337717e-06	-7.244979e-10	-3.702461e+01	-4.921573e+01
3.300000e-07	-5.324674e-06	-6.995911e-10	-3.693413e+01	-4.920824e+01
3.400000e-07	-5.311340e-06	-7.685588e-10	-3.684165e+01	-4.919719e+01
3.500000e-07	-5.297746e-06	-7.635852e-10	-3.674735e+01	-4.918249e+01
3.600000e-07	-5.283555e-06	-7.051196e-10	-3.664892e+01	-4.916406e+01
3.700000e-07	-5.268827e-06	-7.104811e-10	-3.654676e+01	-4.914184e+01
3.800000e-07	-5.253703e-06	-7.831527e-10	-3.644185e+01	-4.911580e+01
3.900000e-07	-5.237971e-06	-7.257585e-10	-3.633273e+01	-4.908589e+01
4.000000e-07	-5.221756e-06	-6.975824e-10	-3.622025e+01	-4.905212e+01
4.100000e-07	-5.205329e-06	-7.706202e-10	-3.610631e+01	-4.901449e+01
4.200000e-07	-5.188587e-06	-7.717737e-10	-3.599018e+01	-4.897301e+01
4.300000e-07	-5.171285e-06	-6.554916e-10	-3.587017e+01	-4.892772e+01
4.400000e-07	-5.153628e-06	-7.298692e-10	-3.574769e+01	-4.887868e+01
4.500000e-07	-5.135756e-06	-8.165240e-10	-3.562372e+01	-4.882593e+01
4.600000e-07	-5.117546e-06	-7.183608e-10	-3.549741e+01	-4.876955e+01
4.700000e-07	-5.098872e-06	-6.594771e-10	-3.536788e+01	-4.870963e+01
4.800000e-07	-5.079805e-06	-7.865137e-10	-3.523562e+01	-4.864625e+01
4.900000e-07	-5.060456e-06	-7.584992e-10	-3.510141e+01	-4.857952e+01
5.000000e-07	-5.040833e-06	-6.688794e-10	-3.496530e+01	-4.850955e+01
5.100000e-07	-5.021018e-06	-7.391844e-10	-3.482786e+01	-4.843644e+01
5.200000e-07	-5.000955e-06	-7.737175e-10	-3.468869e+01	-4.836033e+01
5.300000e-07	-4.980400e-06	-6.670570e-10	-3.454611e+01	-4.828132e+01
5.400000e-07	-4.959442e-06	-7.185393e-10	-3.440074e+01	-4.819955e+01
5.500000e-07	-4.938193e-06	-8.054387e-10	-3.425335e+01	-4.811515e+01
5.600000e-07	-4.916599e-06	-7.133492e-10	-3.410356e+01	-4.802825e+01
5.700000e-07	-4.894729e-06	-6.699439e-10	-3.395186e+01	-4.793897e+01
5.800000e-07	-4.872523e-06	-7.689110e-10	-3.379783e+01	-4.784744e+01
5.900000e-07	-4.849954e-06	-7.404876e-10	-3.364128e+01	-4.775380e+01
6.000000e-07	-4.827052e-06	-6.636304e-10	-3.348243e+01	-4.765816e+01
6.100000e-07	-4.803885e-06	-7.262998e-10	-3.332173e+01	-4.756065e+01
6.200000e-07	-4.780479e-06	-7.492688e-10	-3.315938e+01	-4.746137e+01
6.300000e-07	-4.756812e-06	-6.845788e-10	-3.299521e+01	-4.736045e+01
6.400000e-07	-4.732958e-06	-7.006346e-10	-3.282975e+01	-4.725798e+01
6.500000e-07	-4.708833e-06	-7.479810e-10	-3.266241e+01	-4.715408e+01
6.600000e-07	-4.684184e-06	-7.041665e-10	-3.249143e+01	-4.704882e+01
6.700000e-07	-4.659048e-06	-6.934112e-10	-3.231708e+01	-4.694230e+01
6.800000e-07	-4.633466e-06	-7.180318e-10	-3.213963e+01	-4.683461e+01
6.900000e-07	-4.607264e-06	-6.975589e-10	-3.195789e+01	-4.672580e+01
7.000000e-07	-4.580454e-06	-6.704592e-10	-3.177192e+01	-4.661596e+01
7.100000e-07	-4.553232e-06	-7.026497e-10	-3.158310e+01	-4.650513e+01
7.200000e-07	-4.525829e-06	-7.048042e-10	-3.139302e+01	-4.639336e+01
7.300000e-07	-4.498329e-06	-6.917361e-10	-3.120227e+01	-4.628071e+01
7.400000e-07	-4.470681e-06	-6.985815e-10	-3.101049e+01	-4.616721e+01
7.500000e-07	-4.442713e-06	-7.118268e-10	-3.081649e+01	-4.605288e+01
7.600000e-07	-4.414389e-06	-6.908821e-10	-3.062002e+01	-4.593774e+01
7.700000e-07	-4.385766e-06	-6.854541e-10	-3.042148e+01	-4.582182e+01
7.800000e-07	-4.356771e-06	-6.841564e-10	-3.022036e+01	-4.570511e+01
7.900000e-07	-4.327461e-06	-6.803252e-10	-3.001705e+01	-4.558762e+01
8.000000e-07	-4.297902e-06	-6.795774e-10	-2.981202e+01	-4.546935e+01
8.100000e-07	-4.268114e-06	-6.909355e-10	-2.960540e+01	-4.535027e+01
8.200000e-07	-4.238096e-06	-6.843487e-10	-2.939718e+01	-4.523037e+01
8.300000e-07	-4.207754e-06	-6.827391e-10	-2.918672e+01	-4.510963e+01
8.400000e-07	-4.177116e-06	-6.887853e-10	-2.897420e+01	-4.498801e+01
8.500000e-07	-4.146157e-06	-6.816837e-10	-2.875946e+01	-4.486547e+01
8.600000e-07	-4.114872e-06	-6.676635e-10	-2.854245e+01	-4.474199e+01
8.700000e-07	-4.083444e-06	-6.707703e-10	-2.832445e+01	-4.461751e+01
8.800000e-07	-4.051918e-06	-6.699960e-10	-2.810577e+01	-4.449198e+01
8.900000e-07	-4.020199e-06	-6.589973e-10	-2.788576e+01	-4.436535e+01
9.000000e-07	-3.988304e-06	-6.611112e-10	-2.766452e+01	-4.423756e+01
9.100000e-07	-3.956176e-06	-6.621828e-10	-2.744167e+01	-4.410854e+01
9.200000e-07	-3.923601e-06	-6.494741e-10	-2.721571e+01	-4.397823e+01
9.300000e-07	-3.890596e-06	-6.469074e-10	-2.698678e+01	-4.384656e+01
9.400000e-07	-3.857107e-06	-6.612088e-10	-2.675449e+01	-4.371345e+01
9.500000e-07	-3.823039e-06	-6.557745e-10	-2.651817e+01	-4.357884e+01
9.600000e-07	-3.788548e-06	-6.481724e-10	-2.627893e+01	-4.344264e+01
9.700000e-07	-3.753728e-06	-6.510910e-10	-2.603741e+01	-4.330477e+01
9.800000e-07	-3.718658e-06	-6.482261e-10	-2.579415e+01	-4.316514e+01
9.900000e-07	-3.683361e-06	-6.321075e-10	-2.554931e+01	-4.302367e+01
1.000000e-06	-3.647863e-06	-6.339109e-10	-2.530308e+01	-4.288028e+01
1.010000e-06	-3.612217e-06	-6.361401e-10	-2.505583e+01	-4.273487e+01
1.020000e-06	-3.576443e-06	-6.299502e-10	-2.480769e+01	-4.258736e+01
1.030000e-06	-3.540527e-06	-6.285742e-10	-2.455856e+01	-4.243764e+01
1.040000e-06	-3.504420e-06	-6.384721e-10	-2.430810e+01	-4.228563e+01
1.050000e-06	-3.468029e-06	-6.334011e-10	-2.405568e+01	-4.213124e+01
1.060000e-06	-3.431289e-06	-6.246700e-10	-2.380084e+01	-4.197436e+01
1.070000e-06	-3.394253e-06	-6.213174e-10	-2.354394e+01	-4.181491e+01
1.080000e-06	-3.356954e-06	-6.182524e-10	-2.328522e+01	-4.165278e+01
1.090000e-06	-3.319430e-06	-6.095248e-10	-2.302494e+01	-4.148789e+01
1.100000e-06	-3.281667e-06	-6.114560e-10	-2.276299e+01	-4.132013e+01
1.110000e-06	-3.243673e-06	-6.133107e-10	-2.249945e+01	-4.114941e+01
1.120000e-06	-3.205371e-06	-6.070978e-10	-2.223377e+01	-4.097564e+01
1.130000e-06	-3.166820e-06	-6.040890e-10	-2.196637e+01	-4.079872e+01
1.140000e-06	-3.128103e-06	-6.086013e-10	-2.169781e+01	-4.061855e+01
1.150000e-06	-3.089259e-06	-6.039595e-10	-2.142837e+01	-4.043504e+01
1.160000e-06	-3.050254e-06	-5.936190e-10	-2.115782e+01	-4.024810e+01
1.170000e-06	-3.011075e-06	-5.908803e-10	-2.088606e+01	-4.005764e+01
1.180000e-06	-2.971821e-06	-5.918266e-10	-2.061378e+01	-3.986355e+01
1.190000e-06	-2.932405e-06	-5.900679e-10	-2.034037e+01	-3.966576e+01
1.200000e-06	-2.892774e-06	-5.910959e-10	-2.006547e+01	-3.946416e+01
1.210000e-06	-2.852963e-06	-5.909715e-10	-1.978933e+01	-3.925867e+01
1.220000e-06	-2.813019e-06	-5.833196e-10	-1.951226e+01	-3.904919e+01
1.230000e-06	-2.772928e-06	-5.753915e-10	-1.923417e+01	-3.883563e+01
1.240000e-06	-2.732668e-06	-5.721769e-10	-1.895492e+01	-3.861790e+01
1.250000e-06	-2.692174e-06	-5.700817e-10	-1.867403e+01	-3.839590e+01
1.260000e-06	-2.651381e-06	-5.663985e-10	-1.839107e+01	-3.816954e+01
1.270000e-06	-2.610345e-06	-5.721449e-10	-1.810643e+01	-3.793871e+01
1.280000e-06	-2.569025e-06	-5.742265e-10	-1.781982e+01	-3.770332e+01
1.290000e-06	-2.527330e-06	-5.673871e-10	-1.753061e+01	-3.746326e+01
1.300000e-06	-2.485357e-06	-5.537770e-10	-1.723946e+01	-3.721843e+01
1.310000e-06	-2.443208e-06	-5.428755e-10	-1.694710e+01	-3.696871e+01
1.320000e-06	-2.400815e-06	-5.352371e-10	-1.665304e+01	-3.671398e+01
1.330000e-06	-2.358060e-06	-5.333790e-10	-1.635648e+01	-3.645413e+01
1.340000e-06	-2.315022e-06	-5.360001e-10	-1.605795e+01	-3.618902e+01
1.350000e-06	-2.271779e-06	-5.395551e-10	-1.575799e+01	-3.591852e+01
1.360000e-06	-2.228352e-06	-5.374724e-10	-1.545677e+01	-3.564248e+01
1.370000e-06	-2.184865e-06	-5.325935e-10	-1.515512e+01	-3.536075e+01
1.380000e-06	-2.141292e-06	-5.225370e-10	-1.485288e+01	-3.507316e+01
1.390000e-06	-2.097587e-06	-5.107494e-10	-1.454973e+01	-3.477955e+01
1.400000e-06	-2.053848e-06	-5.020409e-10	-1.424634e+01	-3.447972e+01
1.410000e-06	-2.010052e-06	-4.964870e-10	-1.394255e+01	-3.417350e+01
1.420000e-06	-1.966106e-06	-4.914598e-10	-1.363772e+01	-3.386066e+01
1.430000e-06	-1.922104e-06	-4.899625e-10	-1.333250e+01	-3.354099e+01
1.440000e-06	-1.878050e-06	-4.898959e-10	-1.302693e+01	-3.321426e+01
1.450000e-06	-1.833786e-06	-4.867548e-10	-1.271990e+01	-3.288023e+01
1.460000e-06	-1.789396e-06	-4.772804e-10	-1.241199e+01	-3.253864e+01
1.470000e-06	-1.744940e-06	-4.634038e-10	-1.210363e+01	-3.218922e+01
1.480000e-06	-1.700325e-06	-4.483344e-10	-1.179415e+01	-3.183169e+01
1.490000e-06	-1.655518e-06	-4.337135e-10	-1.148336e+01	-3.146575e+01
1.500000e-06	-1.610521e-06	-4.242987e-10	-1.117124e+01	-3.109110e+01
1.510000e-06	-1.565426e-06	-4.182525e-10	-1.085844e+01	-3.070741e+01
1.520000e-06	-1.520271e-06	-4.149754e-10	-1.054523e+01	-3.031435e+01
1.530000e-06	-1.475034e-06	-4.113825e-10	-1.023145e+01	-2.991159e+01
1.540000e-06	-1.429711e-06	-4.047016e-10	-9.917066e+00	-2.949877e+01
1.550000e-06	-1.384288e-06	-3.951959e-10	-9.601993e+00	-2.907554e+01
1.560000e-06	-1.338672e-06	-3.846717e-10	-9.285581e+00	-2.864154e+01
1.570000e-06	-1.292967e-06	-3.745189e-10	-8.968552e+00	-2.819638e+01
1.580000e-06	-1.247280e-06	-3.656154e-10	-8.651646e+00	-2.773971e+01
1.590000e-06	-1.201457e-06	-3.590128e-10	-8.333804e+00	-2.727115e+01
1.600000e-06	-1.155530e-06	-3.534006e-10	-8.015235e+00	-2.679031e+01
1.610000e-06	-1.109550e-06	-3.475369e-10	-7.696298e+00	-2.629684e+01
1.620000e-06	-1.063402e-06	-3.421608e-10	-7.376195e+00	-2.579037e+01
1.630000e-06	-1.017187e-06	-3.342516e-10	-7.055632e+00	-2.527053e+01
1.640000e-06	-9.710084e-07	-3.240169e-10	-6.735315e+00	-2.473699e+01
1.650000e-06	-9.247966e-07	-3.100429e-10	-6.414771e+00	-2.418940e+01
1.660000e-06	-8.785888e-07	-2.986757e-10	-6.094255e+00	-2.362744e+01
1.670000e-06	-8.322691e-07	-2.893928e-10	-5.772962e+00	-2.305082e+01
1.680000e-06	-7.858531e-07	-2.820381e-10	-5.451001e+00	-2.245926e+01
1.690000e-06	-7.394341e-07	-2.753482e-10	-5.129020e+00	-2.185249e+01
1.700000e-06	-6.928937e-07	-2.699710e-10	-4.806197e+00	-2.123029e+01
1.710000e-06	-6.462292e-07	-2.601613e-10	-4.482512e+00	-2.059247e+01
1.720000e-06	-5.995638e-07	-2.467576e-10	-4.158822e+00	-1.993884e+01
1.730000e-06	-5.528611e-07	-2.331101e-10	-3.834873e+00	-1.926928e+01
1.740000e-06	-5.060547e-07	-2.210967e-10	-3.510204e+00	-1.858370e+01
1.750000e-06	-4.591946e-07	-2.108424e-10	-3.185163e+00	-1.788205e+01
1.760000e-06	-4.123283e-07	-2.016659e-10	-2.860079e+00	-1.716430e+01
1.770000e-06	-3.654237e-07	-1.927129e-10	-2.534730e+00	-1.643050e+01
1.780000e-06	-3.184789e-07	-1.836937e-10	-2.209101e+00	-1.568072e+01
1.790000e-06	-2.715581e-07	-1.750032e-10	-1.883639e+00	-1.491511e+01
1.800000e-06	-2.246572e-07	-1.615560e-10	-1.558315e+00	-1.413382e+01
1.810000e-06	-1.777249e-07	-1.460193e-10	-1.232773e+00	-1.333710e+01
1.820000e-06	-1.307357e-07	-1.322887e-10	-9.068369e-01	-1.252523e+01
1.830000e-06	-8.376852e-08	-1.220392e-10	-5.810530e-01	-1.169854e+01
1.840000e-06	-3.684498e-08	-1.128875e-10	-2.555720e-01	-1.085742e+01
1.850000e-06	1.001740e-08	-1.029743e-10	6.948484e-02	-1.000233e+01
1.860000e-06	5.689593e-08	-9.494696e-11	3.946536e-01	-9.133745e+00
1.870000e-06	1.038124e-07	-8.554726e-11	7.200859e-01	-8.252225e+00
1.880000e-06	1.506857e-07	-7.312233e-11	1.045218e+00	-7.358369e+00
1.890000e-06	1.975474e-07	-5.914991e-11	1.370271e+00	-6.452831e+00
1.900000e-06	2.444332e-07	-4.316446e-11	1.695489e+00	-5.536310e+00
1.910000e-06	2.913732e-07	-2.935838e-11	2.021085e+00	-4.609556e+00
1.920000e-06	3.383062e-07	-1.572443e-11	2.346631e+00	-3.673361e+00
1.930000e-06	3.851367e-07	-4.227447e-12	2.671467e+00	-2.728562e+00
1.940000e-06	4.319394e-07	6.344399e-12	2.996110e+00	-1.776033e+00
1.950000e-06	4.787281e-07	1.508188e-11	3.320655e+00	-8.166870e-01
1.960000e-06	5.254832e-07	2.391537e-11	3.644968e+00	1.485318e-01
1.970000e-06	5.722405e-07	3.407118e-11	3.969296e+00	1.118649e+00
1.980000e-06	6.189614e-07	4.713513e-11	4.293372e+00	2.092665e+00
1.990000e-06	6.656181e-07	6.367025e-11	4.617002e+00	3.069558e+00
2.000000e-06	7.121935e-07	8.086751e-11	4.940068e+00	4.048291e+00
2.010000e-06	7.586457e-07	9.646877e-11	5.262280e+00	5.027812e+00
2.020000e-06	8.049723e-07	1.096828e-10	5.583620e+00	6.007061e+00
2.030000e-06	8.513021e-07	1.202775e-10	5.904983e+00	6.984977e+00
2.040000e-06	8.975438e-07	1.323028e-10	6.225734e+00	7.960496e+00
2.050000e-06	9.436417e-07	1.449652e-10	6.545488e+00	8.932563e+00
2.060000e-06	9.897278e-07	1.590805e-10	6.865160e+00	9.900132e+00
2.070000e-06	1.035665e-06	1.748068e-10	7.183803e+00	1.086217e+01
2.080000e-06	1.081525e-06	1.920666e-10	7.501904e+00	1.181767e+01
2.090000e-06	1.127462e-06	2.095801e-10	7.820545e+00	1.276564e+01
2.100000e-06	1.173313e-06	2.244992e-10	8.138584e+00	1.370513e+01
2.110000e-06	1.219074e-06	2.372403e-10	8.456000e+00	1.463520e+01
2.120000e-06	1.264775e-06	2.473128e-10	8.773000e+00	1.555496e+01
2.130000e-06	1.310341e-06	2.578491e-10	9.089067e+00	1.646357e+01
2.140000e-06	1.355877e-06	2.686150e-10	9.404920e+00	1.736022e+01
2.150000e-06	1.401388e-06	2.806103e-10	9.720605e+00	1.824413e+01
2.160000e-06	1.446737e-06	2.926453e-10	1.003516e+01	1.911461e+01
2.170000e-06	1.491976e-06	3.063429e-10	1.034896e+01	1.997100e+01
2.180000e-06	1.537123e-06	3.215509e-10	1.066212e+01	2.081267e+01
2.190000e-06	1.582166e-06	3.348998e-10	1.097456e+01	2.163908e+01
2.200000e-06	1.627080e-06	3.460049e-10	1.128610e+01	2.244975e+01
2.210000e-06	1.671769e-06	3.553349e-10	1.159608e+01	2.324421e+01
2.220000e-06	1.716265e-06	3.639656e-10	1.190473e+01	2.402211e+01
2.230000e-06	1.760665e-06	3.728485e-10	1.221270e+01	2.478312e+01
2.240000e-06	1.804938e-06	3.809690e-10	1.251980e+01	2.552697e+01
2.250000e-06	1.849027e-06	3.899460e-10	1.282561e+01	2.625346e+01
2.260000e-06	1.892980e-06	3.997089e-10	1.313049e+01	2.696245e+01
2.270000e-06	1.936849e-06	4.099743e-10	1.343478e+01	2.765384e+01
2.280000e-06	1.980688e-06	4.196959e-10	1.373887e+01	2.832760e+01
2.290000e-06	2.024500e-06	4.296126e-10	1.404277e+01	2.898374e+01
2.300000e-06	2.068252e-06	4.379200e-10	1.434625e+01	2.962233e+01
2.310000e-06	2.111936e-06	4.450526e-10	1.464926e+01	3.024348e+01
2.320000e-06	2.155577e-06	4.522811e-10	1.495198e+01	3.084735e+01
2.330000e-06	2.199181e-06	4.599817e-10	1.525442e+01	3.143415e+01
2.340000e-06	2.242697e-06	4.670388e-10	1.555627e+01	3.200410e+01
2.350000e-06	2.286107e-06	4.728172e-10	1.585738e+01	3.255749e+01
2.360000e-06	2.329347e-06	4.801969e-10	1.615731e+01	3.309462e+01
2.370000e-06	2.372316e-06	4.889555e-10	1.645536e+01	3.361584e+01
2.380000e-06	2.415074e-06	4.961120e-10	1.675195e+01	3.412150e+01
2.390000e-06	2.457606e-06	5.027749e-10	1.704697e+01	3.461198e+01
2.400000e-06	2.499722e-06	5.107910e-10	1.733910e+01	3.508769e+01
2.410000e-06	2.541430e-06	5.187629e-10	1.762840e+01	3.554904e+01
2.420000e-06	2.582800e-06	5.278879e-10	1.791536e+01	3.599645e+01
2.430000e-06	2.623899e-06	5.363434e-10	1.820045e+01	3.643037e+01
2.440000e-06	2.664724e-06	5.429484e-10	1.848363e+01	3.685122e+01
2.450000e-06	2.705189e-06	5.498075e-10	1.876431e+01	3.725943e+01
2.460000e-06	2.745458e-06	5.555605e-10	1.904363e+01	3.765546e+01
2.470000e-06	2.785626e-06	5.594739e-10	1.932225e+01	3.803971e+01
2.480000e-06	2.825624e-06	5.617515e-10	1.959970e+01	3.841262e+01
2.490000e-06	2.865463e-06	5.618455e-10	1.987603e+01	3.877458e+01
2.500000e-06	2.905200e-06	5.656402e-10	2.015167e+01	3.912601e+01
2.510000e-06	2.944820e-06	5.746909e-10	2.042649e+01	3.946727e+01
2.520000e-06	2.984297e-06	5.855032e-10	2.070032e+01	3.979874e+01
2.530000e-06	3.023618e-06	5.922249e-10	2.097306e+01	4.012075e+01
2.540000e-06	3.062702e-06	5.944945e-10	2.124416e+01	4.043365e+01
2.550000e-06	3.101548e-06	5.928719e-10	2.151361e+01	4.073772e+01
2.560000e-06	3.140161e-06	5.887472e-10	2.178145e+01	4.103328e+01
2.570000e-06	3.178544e-06	5.873698e-10	2.204770e+01	4.132057e+01
2.580000e-06	3.216760e-06	5.924405e-10	2.231278e+01	4.159984e+01
2.590000e-06	3.254736e-06	6.004175e-10	2.257619e+01	4.187133e+01
2.600000e-06	3.292435e-06	6.086128e-10	2.283769e+01	4.213523e+01
2.610000e-06	3.329937e-06	6.151803e-10	2.309782e+01	4.239173e+01
2.620000e-06	3.367284e-06	6.199821e-10	2.335687e+01	4.264101e+01
2.630000e-06	3.404369e-06	6.217031e-10	2.361411e+01	4.288320e+01
2.640000e-06	3.441183e-06	6.197466e-10	2.386947e+01	4.311844e+01
2.650000e-06	3.477769e-06	6.195830e-10	2.412324e+01	4.334686e+01
2.660000e-06	3.514004e-06	6.233685e-10	2.437458e+01	4.356855e+01
2.670000e-06	3.549965e-06	6.284427e-10	2.462402e+01	4.378362e+01
2.680000e-06	3.585786e-06	6.320717e-10	2.487249e+01	4.399215e+01
2.690000e-06	3.621531e-06	6.353343e-10	2.512044e+01	4.419422e+01
2.700000e-06	3.657220e-06	6.396350e-10	2.536798e+01	4.438990e+01
2.710000e-06	3.692762e-06	6.442398e-10	2.561452e+01	4.457926e+01
2.720000e-06	3.728157e-06	6.493708e-10	2.586004e+01	4.476236e+01
2.730000e-06	3.763326e-06	6.551794e-10	2.610398e+01	4.493927e+01
2.740000e-06	3.798083e-06	6.596873e-10	2.634507e+01	4.511006e+01
2.750000e-06	3.832420e-06	6.616001e-10	2.658325e+01	4.527479e+01
2.760000e-06	3.866259e-06	6.606106e-10	2.681797e+01	4.543355e+01
2.770000e-06	3.899500e-06	6.607760e-10	2.704854e+01	4.558640e+01
2.780000e-06	3.932255e-06	6.629762e-10	2.727574e+01	4.573344e+01
2.790000e-06	3.964631e-06	6.702543e-10	2.750031e+01	4.587476e+01
2.800000e-06	3.996737e-06	6.775867e-10	2.772302e+01	4.601046e+01
2.810000e-06	4.028651e-06	6.845741e-10	2.794439e+01	4.614066e+01
2.820000e-06	4.060403e-06	6.896770e-10	2.816463e+01	4.626548e+01
2.830000e-06	4.092043e-06	6.897127e-10	2.838410e+01	4.638506e+01
2.840000e-06	4.123543e-06	6.874917e-10	2.860260e+01	4.649953e+01
2.850000e-06	4.154831e-06	6.861714e-10	2.881962e+01	4.660906e+01
2.860000e-06	4.185779e-06	6.880375e-10	2.903429e+01	4.671381e+01
2.870000e-06	4.216341e-06	6.923458e-10	2.924628e+01	4.681396e+01
2.880000e-06	4.246497e-06	6.980978e-10	2.945546e+01	4.690968e+01
2.890000e-06	4.276357e-06	7.033171e-10	2.966258e+01	4.700118e+01
2.900000e-06	4.306044e-06	7.067259e-10	2.986850e+01	4.708866e+01
