# Temperatura_=_-0.23
# Concentracion g/m^3_=_1620.0
# C_Vs_to_Am_M_A/Vsm_=_65563218390.804596
# pendiente_HvsI_1/m_=_3716.3
# ordenada_HvsI_A/m_=_1297.0
# frecuencia_Hz_=_135112.7034476199

Tiempo_(s)	Campo_(V.s)	Magnetizacion_(V.s)	Campo_(kA/m)	Magnetizacion_(A/m)
0.000000e+00	-5.521038e-06	-1.241879e-09	-3.837460e+01	-8.024638e+01
1.000000e-08	-5.521171e-06	-1.238070e-09	-3.837553e+01	-8.029828e+01
2.000000e-08	-5.521012e-06	-1.232131e-09	-3.837442e+01	-8.034651e+01
3.000000e-08	-5.520432e-06	-1.224128e-09	-3.837039e+01	-8.039080e+01
4.000000e-08	-5.519336e-06	-1.218083e-09	-3.836278e+01	-8.043090e+01
5.000000e-08	-5.517654e-06	-1.219907e-09	-3.835108e+01	-8.046657e+01
6.000000e-08	-5.515380e-06	-1.227398e-09	-3.833528e+01	-8.049758e+01
7.000000e-08	-5.512577e-06	-1.230578e-09	-3.831580e+01	-8.052372e+01
8.000000e-08	-5.509310e-06	-1.222513e-09	-3.829309e+01	-8.054478e+01
9.000000e-08	-5.505595e-06	-1.201783e-09	-3.826727e+01	-8.056058e+01
1.000000e-07	-5.501431e-06	-1.182695e-09	-3.823833e+01	-8.057095e+01
1.100000e-07	-5.496987e-06	-1.227238e-09	-3.820743e+01	-8.057576e+01
1.200000e-07	-5.492304e-06	-1.222865e-09	-3.817489e+01	-8.057487e+01
1.300000e-07	-5.487285e-06	-1.195736e-09	-3.814000e+01	-8.056819e+01
1.400000e-07	-5.481948e-06	-1.162050e-09	-3.810290e+01	-8.055564e+01
1.500000e-07	-5.476253e-06	-1.192319e-09	-3.806332e+01	-8.053715e+01
1.600000e-07	-5.470158e-06	-1.241274e-09	-3.802096e+01	-8.051270e+01
1.700000e-07	-5.463672e-06	-1.212267e-09	-3.797587e+01	-8.048227e+01
1.800000e-07	-5.456836e-06	-1.186318e-09	-3.792836e+01	-8.044589e+01
1.900000e-07	-5.449649e-06	-1.177206e-09	-3.787840e+01	-8.040359e+01
2.000000e-07	-5.442121e-06	-1.229155e-09	-3.782608e+01	-8.035543e+01
2.100000e-07	-5.434354e-06	-1.222591e-09	-3.777210e+01	-8.030149e+01
2.200000e-07	-5.426312e-06	-1.210113e-09	-3.771620e+01	-8.024189e+01
2.300000e-07	-5.417880e-06	-1.197485e-09	-3.765759e+01	-8.017673e+01
2.400000e-07	-5.408924e-06	-1.237709e-09	-3.759534e+01	-8.010618e+01
2.500000e-07	-5.399265e-06	-1.231974e-09	-3.752821e+01	-8.003038e+01
2.600000e-07	-5.388898e-06	-1.216942e-09	-3.745615e+01	-7.994952e+01
2.700000e-07	-5.377916e-06	-1.204117e-09	-3.737982e+01	-7.986378e+01
2.800000e-07	-5.366466e-06	-1.228282e-09	-3.730023e+01	-7.977338e+01
2.900000e-07	-5.354724e-06	-1.225687e-09	-3.721862e+01	-7.967851e+01
3.000000e-07	-5.342682e-06	-1.205845e-09	-3.713492e+01	-7.957942e+01
3.100000e-07	-5.330211e-06	-1.202821e-09	-3.704824e+01	-7.947632e+01
3.200000e-07	-5.317289e-06	-1.214370e-09	-3.695843e+01	-7.936944e+01
3.300000e-07	-5.304019e-06	-1.209616e-09	-3.686619e+01	-7.925903e+01
3.400000e-07	-5.290384e-06	-1.177992e-09	-3.677142e+01	-7.914531e+01
3.500000e-07	-5.276255e-06	-1.178598e-09	-3.667322e+01	-7.902851e+01
3.600000e-07	-5.261610e-06	-1.194723e-09	-3.657142e+01	-7.890887e+01
3.700000e-07	-5.246505e-06	-1.195209e-09	-3.646643e+01	-7.878659e+01
3.800000e-07	-5.230912e-06	-1.179372e-09	-3.635805e+01	-7.866190e+01
3.900000e-07	-5.214861e-06	-1.192528e-09	-3.624649e+01	-7.853500e+01
4.000000e-07	-5.198448e-06	-1.178863e-09	-3.613241e+01	-7.840607e+01
4.100000e-07	-5.181695e-06	-1.163407e-09	-3.601597e+01	-7.827529e+01
4.200000e-07	-5.164668e-06	-1.175217e-09	-3.589761e+01	-7.814282e+01
4.300000e-07	-5.147352e-06	-1.203238e-09	-3.577726e+01	-7.800881e+01
4.400000e-07	-5.129612e-06	-1.165556e-09	-3.565395e+01	-7.787338e+01
4.500000e-07	-5.111402e-06	-1.156084e-09	-3.552738e+01	-7.773664e+01
4.600000e-07	-5.092789e-06	-1.177525e-09	-3.539801e+01	-7.759869e+01
4.700000e-07	-5.073899e-06	-1.175892e-09	-3.526671e+01	-7.745959e+01
4.800000e-07	-5.054758e-06	-1.140825e-09	-3.513367e+01	-7.731940e+01
4.900000e-07	-5.035327e-06	-1.169842e-09	-3.499862e+01	-7.717814e+01
5.000000e-07	-5.015614e-06	-1.177196e-09	-3.486160e+01	-7.703585e+01
5.100000e-07	-4.995587e-06	-1.149695e-09	-3.472239e+01	-7.689251e+01
5.200000e-07	-4.975239e-06	-1.152512e-09	-3.458096e+01	-7.674809e+01
5.300000e-07	-4.954607e-06	-1.180259e-09	-3.443756e+01	-7.660257e+01
5.400000e-07	-4.933577e-06	-1.138883e-09	-3.429139e+01	-7.645588e+01
5.500000e-07	-4.912076e-06	-1.119613e-09	-3.414194e+01	-7.630795e+01
5.600000e-07	-4.890247e-06	-1.151585e-09	-3.399022e+01	-7.615871e+01
5.700000e-07	-4.868156e-06	-1.150007e-09	-3.383668e+01	-7.600805e+01
5.800000e-07	-4.845745e-06	-1.121865e-09	-3.368090e+01	-7.585587e+01
5.900000e-07	-4.822977e-06	-1.145788e-09	-3.352265e+01	-7.570205e+01
6.000000e-07	-4.799872e-06	-1.156507e-09	-3.336206e+01	-7.554646e+01
6.100000e-07	-4.776473e-06	-1.123660e-09	-3.319942e+01	-7.538899e+01
6.200000e-07	-4.752862e-06	-1.118433e-09	-3.303531e+01	-7.522949e+01
6.300000e-07	-4.729049e-06	-1.126356e-09	-3.286979e+01	-7.506783e+01
6.400000e-07	-4.704914e-06	-1.107101e-09	-3.270204e+01	-7.490387e+01
6.500000e-07	-4.680294e-06	-1.099740e-09	-3.253092e+01	-7.473749e+01
6.600000e-07	-4.655197e-06	-1.119510e-09	-3.235648e+01	-7.456855e+01
6.700000e-07	-4.629718e-06	-1.111053e-09	-3.217939e+01	-7.439692e+01
6.800000e-07	-4.603770e-06	-1.103040e-09	-3.199903e+01	-7.422248e+01
6.900000e-07	-4.577264e-06	-1.109089e-09	-3.181480e+01	-7.404512e+01
7.000000e-07	-4.550269e-06	-1.106375e-09	-3.162716e+01	-7.386474e+01
7.100000e-07	-4.522941e-06	-1.087399e-09	-3.143722e+01	-7.368125e+01
7.200000e-07	-4.495411e-06	-1.092623e-09	-3.124587e+01	-7.349455e+01
7.300000e-07	-4.467706e-06	-1.091875e-09	-3.105330e+01	-7.330459e+01
7.400000e-07	-4.439814e-06	-1.085976e-09	-3.085944e+01	-7.311130e+01
7.500000e-07	-4.411675e-06	-1.083295e-09	-3.066385e+01	-7.291463e+01
7.600000e-07	-4.383184e-06	-1.089351e-09	-3.046582e+01	-7.271456e+01
7.700000e-07	-4.354342e-06	-1.081373e-09	-3.026535e+01	-7.251105e+01
7.800000e-07	-4.325205e-06	-1.079356e-09	-3.006283e+01	-7.230412e+01
7.900000e-07	-4.295831e-06	-1.074527e-09	-2.985866e+01	-7.209375e+01
8.000000e-07	-4.266180e-06	-1.067314e-09	-2.965257e+01	-7.187996e+01
8.100000e-07	-4.236129e-06	-1.062381e-09	-2.944370e+01	-7.166279e+01
8.200000e-07	-4.205727e-06	-1.069944e-09	-2.923239e+01	-7.144227e+01
8.300000e-07	-4.175048e-06	-1.064440e-09	-2.901915e+01	-7.121845e+01
8.400000e-07	-4.144137e-06	-1.058017e-09	-2.880430e+01	-7.099138e+01
8.500000e-07	-4.113067e-06	-1.057101e-09	-2.858834e+01	-7.076113e+01
8.600000e-07	-4.081749e-06	-1.052861e-09	-2.837067e+01	-7.052776e+01
8.700000e-07	-4.050122e-06	-1.041264e-09	-2.815084e+01	-7.029135e+01
8.800000e-07	-4.018364e-06	-1.039624e-09	-2.793010e+01	-7.005196e+01
8.900000e-07	-3.986468e-06	-1.039839e-09	-2.770840e+01	-6.980967e+01
9.000000e-07	-3.954321e-06	-1.032996e-09	-2.748496e+01	-6.956455e+01
9.100000e-07	-3.921813e-06	-1.031130e-09	-2.725901e+01	-6.931668e+01
9.200000e-07	-3.888929e-06	-1.032261e-09	-2.703044e+01	-6.906612e+01
9.300000e-07	-3.855581e-06	-1.025973e-09	-2.679866e+01	-6.881292e+01
9.400000e-07	-3.821731e-06	-1.017613e-09	-2.656338e+01	-6.855714e+01
9.500000e-07	-3.787516e-06	-1.019338e-09	-2.632556e+01	-6.829882e+01
9.600000e-07	-3.752842e-06	-1.015472e-09	-2.608456e+01	-6.803799e+01
9.700000e-07	-3.717800e-06	-1.008007e-09	-2.584099e+01	-6.777467e+01
9.800000e-07	-3.682533e-06	-1.005370e-09	-2.559587e+01	-6.750888e+01
9.900000e-07	-3.647062e-06	-1.006377e-09	-2.534932e+01	-6.724060e+01
1.000000e-06	-3.611416e-06	-9.970960e-10	-2.510156e+01	-6.696981e+01
1.010000e-06	-3.575642e-06	-9.937879e-10	-2.485291e+01	-6.669647e+01
1.020000e-06	-3.539803e-06	-9.936182e-10	-2.460380e+01	-6.642053e+01
1.030000e-06	-3.503823e-06	-9.895033e-10	-2.435372e+01	-6.614193e+01
1.040000e-06	-3.467615e-06	-9.810955e-10	-2.410205e+01	-6.586056e+01
1.050000e-06	-3.431166e-06	-9.783884e-10	-2.384871e+01	-6.557634e+01
1.060000e-06	-3.394359e-06	-9.700494e-10	-2.359288e+01	-6.528914e+01
1.070000e-06	-3.357183e-06	-9.632593e-10	-2.333449e+01	-6.499882e+01
1.080000e-06	-3.319770e-06	-9.620589e-10	-2.307444e+01	-6.470523e+01
1.090000e-06	-3.282178e-06	-9.621475e-10	-2.281315e+01	-6.440822e+01
1.100000e-06	-3.244350e-06	-9.548341e-10	-2.255022e+01	-6.410759e+01
1.110000e-06	-3.206284e-06	-9.495907e-10	-2.228564e+01	-6.380315e+01
1.120000e-06	-3.168065e-06	-9.427076e-10	-2.202000e+01	-6.349471e+01
1.130000e-06	-3.129646e-06	-9.336817e-10	-2.175296e+01	-6.318204e+01
1.140000e-06	-3.091031e-06	-9.243963e-10	-2.148457e+01	-6.286493e+01
1.150000e-06	-3.052237e-06	-9.190494e-10	-2.121492e+01	-6.254313e+01
1.160000e-06	-3.013256e-06	-9.141848e-10	-2.094398e+01	-6.221642e+01
1.170000e-06	-2.974112e-06	-9.098108e-10	-2.067191e+01	-6.188454e+01
1.180000e-06	-2.934719e-06	-9.056703e-10	-2.039810e+01	-6.154726e+01
1.190000e-06	-2.895142e-06	-9.007306e-10	-2.012301e+01	-6.120433e+01
1.200000e-06	-2.855482e-06	-8.949970e-10	-1.984735e+01	-6.085550e+01
1.210000e-06	-2.815647e-06	-8.873142e-10	-1.957048e+01	-6.050052e+01
1.220000e-06	-2.775598e-06	-8.781550e-10	-1.929211e+01	-6.013916e+01
1.230000e-06	-2.735424e-06	-8.691912e-10	-1.901288e+01	-5.977117e+01
1.240000e-06	-2.695042e-06	-8.643765e-10	-1.873220e+01	-5.939631e+01
1.250000e-06	-2.654307e-06	-8.601109e-10	-1.844907e+01	-5.901437e+01
1.260000e-06	-2.613334e-06	-8.571236e-10	-1.816427e+01	-5.862512e+01
1.270000e-06	-2.572134e-06	-8.523397e-10	-1.787791e+01	-5.822835e+01
1.280000e-06	-2.530667e-06	-8.466008e-10	-1.758969e+01	-5.782386e+01
1.290000e-06	-2.488961e-06	-8.391735e-10	-1.729981e+01	-5.741145e+01
1.300000e-06	-2.447082e-06	-8.312995e-10	-1.700873e+01	-5.699094e+01
1.310000e-06	-2.404901e-06	-8.219304e-10	-1.671554e+01	-5.656215e+01
1.320000e-06	-2.362260e-06	-8.148034e-10	-1.641916e+01	-5.612491e+01
1.330000e-06	-2.319391e-06	-8.093335e-10	-1.612119e+01	-5.567907e+01
1.340000e-06	-2.276378e-06	-8.047771e-10	-1.582223e+01	-5.522448e+01
1.350000e-06	-2.233116e-06	-7.966425e-10	-1.552153e+01	-5.476100e+01
1.360000e-06	-2.189708e-06	-7.869599e-10	-1.521982e+01	-5.428848e+01
1.370000e-06	-2.146254e-06	-7.765922e-10	-1.491778e+01	-5.380681e+01
1.380000e-06	-2.102667e-06	-7.711572e-10	-1.461483e+01	-5.331585e+01
1.390000e-06	-2.058945e-06	-7.670157e-10	-1.431093e+01	-5.281549e+01
1.400000e-06	-2.015154e-06	-7.609367e-10	-1.400656e+01	-5.230560e+01
1.410000e-06	-1.971248e-06	-7.510766e-10	-1.370138e+01	-5.178606e+01
1.420000e-06	-1.927257e-06	-7.398874e-10	-1.339562e+01	-5.125675e+01
1.430000e-06	-1.883279e-06	-7.277634e-10	-1.308995e+01	-5.071755e+01
1.440000e-06	-1.839204e-06	-7.181035e-10	-1.278360e+01	-5.016833e+01
1.450000e-06	-1.794948e-06	-7.098041e-10	-1.247599e+01	-4.960895e+01
1.460000e-06	-1.750586e-06	-7.016789e-10	-1.216765e+01	-4.903927e+01
1.470000e-06	-1.706121e-06	-6.921353e-10	-1.185859e+01	-4.845913e+01
1.480000e-06	-1.661471e-06	-6.784544e-10	-1.154825e+01	-4.786838e+01
1.490000e-06	-1.616635e-06	-6.655974e-10	-1.123661e+01	-4.726684e+01
1.500000e-06	-1.571636e-06	-6.554652e-10	-1.092383e+01	-4.665432e+01
1.510000e-06	-1.526479e-06	-6.451911e-10	-1.060997e+01	-4.603061e+01
1.520000e-06	-1.481273e-06	-6.330645e-10	-1.029576e+01	-4.539551e+01
1.530000e-06	-1.435974e-06	-6.194559e-10	-9.980902e+00	-4.474876e+01
1.540000e-06	-1.390553e-06	-6.073757e-10	-9.665195e+00	-4.409013e+01
1.550000e-06	-1.345083e-06	-5.953809e-10	-9.349153e+00	-4.341935e+01
1.560000e-06	-1.299487e-06	-5.814411e-10	-9.032233e+00	-4.273613e+01
1.570000e-06	-1.253797e-06	-5.682437e-10	-8.714657e+00	-4.204017e+01
1.580000e-06	-1.208046e-06	-5.543911e-10	-8.396665e+00	-4.133117e+01
1.590000e-06	-1.162175e-06	-5.428262e-10	-8.077833e+00	-4.060880e+01
1.600000e-06	-1.116219e-06	-5.335346e-10	-7.758405e+00	-3.987271e+01
1.610000e-06	-1.070233e-06	-5.252330e-10	-7.438777e+00	-3.912255e+01
1.620000e-06	-1.024206e-06	-5.147627e-10	-7.118857e+00	-3.835797e+01
1.630000e-06	-9.781264e-07	-5.017376e-10	-6.798580e+00	-3.757859e+01
1.640000e-06	-9.319146e-07	-4.848143e-10	-6.477379e+00	-3.678405e+01
1.650000e-06	-8.854969e-07	-4.679622e-10	-6.154747e+00	-3.597397e+01
1.660000e-06	-8.389212e-07	-4.522011e-10	-5.831017e+00	-3.514798e+01
1.670000e-06	-7.923343e-07	-4.405969e-10	-5.507210e+00	-3.430571e+01
1.680000e-06	-7.458261e-07	-4.297949e-10	-5.183949e+00	-3.344680e+01
1.690000e-06	-6.993257e-07	-4.196769e-10	-4.860743e+00	-3.257090e+01
1.700000e-06	-6.527706e-07	-4.082581e-10	-4.537157e+00	-3.167768e+01
1.710000e-06	-6.061921e-07	-3.936421e-10	-4.213408e+00	-3.076682e+01
1.720000e-06	-5.596399e-07	-3.788071e-10	-3.889841e+00	-2.983803e+01
1.730000e-06	-5.130226e-07	-3.641540e-10	-3.565822e+00	-2.889105e+01
1.740000e-06	-4.663063e-07	-3.493777e-10	-3.241115e+00	-2.792564e+01
1.750000e-06	-4.196252e-07	-3.362030e-10	-2.916653e+00	-2.694161e+01
1.760000e-06	-3.729898e-07	-3.241922e-10	-2.592508e+00	-2.593878e+01
1.770000e-06	-3.262887e-07	-3.120442e-10	-2.267907e+00	-2.491706e+01
1.780000e-06	-2.795321e-07	-2.979476e-10	-1.942920e+00	-2.387635e+01
1.790000e-06	-2.327872e-07	-2.811300e-10	-1.618014e+00	-2.281665e+01
1.800000e-06	-1.859842e-07	-2.630633e-10	-1.292705e+00	-2.173797e+01
1.810000e-06	-1.391217e-07	-2.439518e-10	-9.669812e-01	-2.064042e+01
1.820000e-06	-9.226093e-08	-2.262728e-10	-6.412701e-01	-1.952414e+01
1.830000e-06	-4.537994e-08	-2.097872e-10	-3.154185e-01	-1.838932e+01
1.840000e-06	1.501086e-09	-1.946368e-10	1.043347e-02	-1.723625e+01
1.850000e-06	4.833960e-08	-1.810406e-10	3.359899e-01	-1.606525e+01
1.860000e-06	9.513688e-08	-1.658352e-10	6.612598e-01	-1.487674e+01
1.870000e-06	1.419621e-07	-1.475206e-10	9.867235e-01	-1.367117e+01
1.880000e-06	1.887748e-07	-1.290783e-10	1.312101e+00	-1.244908e+01
1.890000e-06	2.356003e-07	-1.116367e-10	1.637567e+00	-1.121107e+01
1.900000e-06	2.824769e-07	-9.456924e-11	1.963388e+00	-9.957822e+00
1.910000e-06	3.293197e-07	-7.674140e-11	2.288974e+00	-8.690062e+00
1.920000e-06	3.761254e-07	-6.080990e-11	2.614302e+00	-7.408592e+00
1.930000e-06	4.228137e-07	-4.432549e-11	2.938815e+00	-6.114275e+00
1.940000e-06	4.693098e-07	-2.855408e-11	3.261992e+00	-4.808033e+00
1.950000e-06	5.157898e-07	-1.276678e-11	3.585056e+00	-3.490847e+00
1.960000e-06	5.623160e-07	5.183119e-12	3.908442e+00	-2.163752e+00
1.970000e-06	6.088068e-07	2.514258e-11	4.231581e+00	-8.278327e-01
1.980000e-06	6.552982e-07	4.466730e-11	4.554725e+00	5.157795e-01
1.990000e-06	7.017589e-07	6.489664e-11	4.877655e+00	1.865910e+00
2.000000e-06	7.482341e-07	8.573702e-11	5.200687e+00	3.221349e+00
2.010000e-06	7.946449e-07	1.044488e-10	5.523270e+00	4.580852e+00
2.020000e-06	8.408786e-07	1.213195e-10	5.844623e+00	5.943149e+00
2.030000e-06	8.870507e-07	1.398221e-10	6.165547e+00	7.306947e+00
2.040000e-06	9.331706e-07	1.595690e-10	6.486109e+00	8.670938e+00
2.050000e-06	9.791709e-07	1.795869e-10	6.805839e+00	1.003381e+01
2.060000e-06	1.025108e-06	2.004945e-10	7.125130e+00	1.139423e+01
2.070000e-06	1.071029e-06	2.221034e-10	7.444310e+00	1.275088e+01
2.080000e-06	1.116877e-06	2.430305e-10	7.762984e+00	1.410246e+01
2.090000e-06	1.162584e-06	2.617140e-10	8.080673e+00	1.544766e+01
2.100000e-06	1.208176e-06	2.801007e-10	8.397563e+00	1.678520e+01
2.110000e-06	1.253719e-06	2.989527e-10	8.714114e+00	1.811384e+01
2.120000e-06	1.299204e-06	3.178533e-10	9.030268e+00	1.943235e+01
2.130000e-06	1.344611e-06	3.360522e-10	9.345870e+00	2.073954e+01
2.140000e-06	1.389971e-06	3.533757e-10	9.661154e+00	2.203428e+01
2.150000e-06	1.435284e-06	3.693286e-10	9.976104e+00	2.331546e+01
2.160000e-06	1.480452e-06	3.861884e-10	1.029005e+01	2.458205e+01
2.170000e-06	1.525526e-06	4.046879e-10	1.060334e+01	2.583305e+01
2.180000e-06	1.570509e-06	4.221599e-10	1.091601e+01	2.706752e+01
2.190000e-06	1.615369e-06	4.382139e-10	1.122781e+01	2.828461e+01
2.200000e-06	1.660104e-06	4.562350e-10	1.153874e+01	2.948351e+01
2.210000e-06	1.704713e-06	4.732154e-10	1.184880e+01	3.066348e+01
2.220000e-06	1.749109e-06	4.887999e-10	1.215738e+01	3.182386e+01
2.230000e-06	1.793272e-06	5.019932e-10	1.246434e+01	3.296405e+01
2.240000e-06	1.837378e-06	5.140367e-10	1.277091e+01	3.408353e+01
2.250000e-06	1.881406e-06	5.280553e-10	1.307693e+01	3.518186e+01
2.260000e-06	1.925296e-06	5.437147e-10	1.338199e+01	3.625866e+01
2.270000e-06	1.969131e-06	5.598457e-10	1.368667e+01	3.731363e+01
2.280000e-06	2.012914e-06	5.748182e-10	1.399099e+01	3.834653e+01
2.290000e-06	2.056599e-06	5.886185e-10	1.429462e+01	3.935722e+01
2.300000e-06	2.100234e-06	6.015316e-10	1.459792e+01	4.034560e+01
2.310000e-06	2.143856e-06	6.126979e-10	1.490112e+01	4.131165e+01
2.320000e-06	2.187427e-06	6.229822e-10	1.520396e+01	4.225541e+01
2.330000e-06	2.230929e-06	6.340884e-10	1.550633e+01	4.317699e+01
2.340000e-06	2.274273e-06	6.461729e-10	1.580760e+01	4.407656e+01
2.350000e-06	2.317417e-06	6.577895e-10	1.610747e+01	4.495433e+01
2.360000e-06	2.360365e-06	6.686806e-10	1.640598e+01	4.581057e+01
2.370000e-06	2.403043e-06	6.795358e-10	1.670263e+01	4.664561e+01
2.380000e-06	2.445436e-06	6.888347e-10	1.699728e+01	4.745981e+01
2.390000e-06	2.487518e-06	6.992430e-10	1.728978e+01	4.825358e+01
2.400000e-06	2.529295e-06	7.118101e-10	1.758015e+01	4.902734e+01
2.410000e-06	2.570827e-06	7.256176e-10	1.786883e+01	4.978158e+01
2.420000e-06	2.612011e-06	7.379870e-10	1.815508e+01	5.051678e+01
2.430000e-06	2.652785e-06	7.467351e-10	1.843848e+01	5.123347e+01
2.440000e-06	2.693275e-06	7.545878e-10	1.871992e+01	5.193219e+01
2.450000e-06	2.733598e-06	7.641665e-10	1.900018e+01	5.261347e+01
2.460000e-06	2.773760e-06	7.747822e-10	1.927934e+01	5.327789e+01
2.470000e-06	2.813716e-06	7.850695e-10	1.955706e+01	5.392601e+01
2.480000e-06	2.853506e-06	7.937245e-10	1.983362e+01	5.455838e+01
2.490000e-06	2.893160e-06	8.022532e-10	2.010924e+01	5.517558e+01
2.500000e-06	2.932660e-06	8.113133e-10	2.038379e+01	5.577816e+01
2.510000e-06	2.972018e-06	8.188366e-10	2.065735e+01	5.636667e+01
2.520000e-06	3.011246e-06	8.258103e-10	2.093001e+01	5.694164e+01
2.530000e-06	3.050247e-06	8.337439e-10	2.120109e+01	5.750359e+01
2.540000e-06	3.088995e-06	8.416154e-10	2.147041e+01	5.805303e+01
2.550000e-06	3.127543e-06	8.483186e-10	2.173835e+01	5.859044e+01
2.560000e-06	3.165925e-06	8.557068e-10	2.200512e+01	5.911628e+01
2.570000e-06	3.204072e-06	8.635567e-10	2.227027e+01	5.963099e+01
2.580000e-06	3.241968e-06	8.699607e-10	2.253367e+01	6.013499e+01
2.590000e-06	3.279727e-06	8.756388e-10	2.279612e+01	6.062865e+01
2.600000e-06	3.317309e-06	8.829765e-10	2.305734e+01	6.111235e+01
2.610000e-06	3.354644e-06	8.924941e-10	2.331683e+01	6.158642e+01
2.620000e-06	3.391711e-06	9.016495e-10	2.357448e+01	6.205118e+01
2.630000e-06	3.428531e-06	9.087041e-10	2.383040e+01	6.250690e+01
2.640000e-06	3.465084e-06	9.126644e-10	2.408446e+01	6.295385e+01
2.650000e-06	3.501343e-06	9.161663e-10	2.433648e+01	6.339225e+01
2.660000e-06	3.537346e-06	9.212588e-10	2.458673e+01	6.382231e+01
2.670000e-06	3.573196e-06	9.256731e-10	2.483591e+01	6.424423e+01
2.680000e-06	3.608924e-06	9.304169e-10	2.508424e+01	6.465816e+01
2.690000e-06	3.644557e-06	9.367448e-10	2.533191e+01	6.506424e+01
2.700000e-06	3.680106e-06	9.435712e-10	2.557900e+01	6.546260e+01
2.710000e-06	3.715479e-06	9.510109e-10	2.582486e+01	6.585333e+01
2.720000e-06	3.750584e-06	9.595206e-10	2.606887e+01	6.623654e+01
2.730000e-06	3.785310e-06	9.666918e-10	2.631023e+01	6.661228e+01
2.740000e-06	3.819664e-06	9.702089e-10	2.654901e+01	6.698062e+01
2.750000e-06	3.853523e-06	9.710592e-10	2.678435e+01	6.734161e+01
2.760000e-06	3.886811e-06	9.720800e-10	2.701573e+01	6.769529e+01
2.770000e-06	3.919643e-06	9.757616e-10	2.724392e+01	6.804168e+01
2.780000e-06	3.952036e-06	9.826848e-10	2.746908e+01	6.838082e+01
2.790000e-06	3.984137e-06	9.911926e-10	2.769220e+01	6.871272e+01
2.800000e-06	4.016071e-06	9.996490e-10	2.791416e+01	6.903740e+01
2.810000e-06	4.047807e-06	1.005073e-09	2.813475e+01	6.935488e+01
2.820000e-06	4.079370e-06	1.006459e-09	2.835413e+01	6.966518e+01
2.830000e-06	4.110753e-06	1.005594e-09	2.857226e+01	6.996830e+01
2.840000e-06	4.141905e-06	1.005978e-09	2.878879e+01	7.026427e+01
2.850000e-06	4.172812e-06	1.010499e-09	2.900361e+01	7.055311e+01
2.860000e-06	4.203394e-06	1.016435e-09	2.921617e+01	7.083485e+01
2.870000e-06	4.233602e-06	1.021462e-09	2.942613e+01	7.110951e+01
2.880000e-06	4.263491e-06	1.026681e-09	2.963388e+01	7.137714e+01
2.890000e-06	4.293128e-06	1.031878e-09	2.983988e+01	7.163777e+01
2.900000e-06	4.322512e-06	1.037130e-09	3.004412e+01	7.189145e+01
