# Temperatura_=_-0.4
# Concentracion g/m^3_=_1620.0
# C_Vs_to_Am_M_A/Vsm_=_65563218390.804596
# pendiente_HvsI_1/m_=_3716.3
# ordenada_HvsI_A/m_=_1297.0
# frecuencia_Hz_=_135096.53762416026

Tiempo_(s)	Campo_(V.s)	Magnetizacion_(V.s)	Campo_(kA/m)	Magnetizacion_(A/m)
0.000000e+00	-5.530703e-06	-1.429786e-09	-3.837287e+01	-9.329162e+01
1.000000e-08	-5.530931e-06	-1.432016e-09	-3.837446e+01	-9.330344e+01
2.000000e-08	-5.530960e-06	-1.432710e-09	-3.837466e+01	-9.331342e+01
3.000000e-08	-5.530675e-06	-1.434105e-09	-3.837268e+01	-9.332153e+01
4.000000e-08	-5.530013e-06	-1.435208e-09	-3.836809e+01	-9.332770e+01
5.000000e-08	-5.528797e-06	-1.432997e-09	-3.835965e+01	-9.333189e+01
6.000000e-08	-5.526862e-06	-1.423392e-09	-3.834623e+01	-9.333402e+01
7.000000e-08	-5.524286e-06	-1.398736e-09	-3.832835e+01	-9.333401e+01
8.000000e-08	-5.521207e-06	-1.408215e-09	-3.830699e+01	-9.333176e+01
9.000000e-08	-5.517668e-06	-1.473079e-09	-3.828243e+01	-9.332718e+01
1.000000e-07	-5.513722e-06	-1.513440e-09	-3.825506e+01	-9.332017e+01
1.100000e-07	-5.509502e-06	-1.431177e-09	-3.822578e+01	-9.331060e+01
1.200000e-07	-5.505130e-06	-1.379981e-09	-3.819544e+01	-9.329837e+01
1.300000e-07	-5.500535e-06	-1.358898e-09	-3.816356e+01	-9.328336e+01
1.400000e-07	-5.495484e-06	-1.473174e-09	-3.812852e+01	-9.326545e+01
1.500000e-07	-5.489924e-06	-1.418263e-09	-3.808994e+01	-9.324452e+01
1.600000e-07	-5.483973e-06	-1.392645e-09	-3.804865e+01	-9.322045e+01
1.700000e-07	-5.477679e-06	-1.386805e-09	-3.800499e+01	-9.319313e+01
1.800000e-07	-5.470990e-06	-1.468867e-09	-3.795857e+01	-9.316245e+01
1.900000e-07	-5.463864e-06	-1.445724e-09	-3.790914e+01	-9.312829e+01
2.000000e-07	-5.456428e-06	-1.382120e-09	-3.785754e+01	-9.309056e+01
2.100000e-07	-5.448739e-06	-1.402911e-09	-3.780419e+01	-9.304916e+01
2.200000e-07	-5.440741e-06	-1.466724e-09	-3.774870e+01	-9.300400e+01
2.300000e-07	-5.432528e-06	-1.494050e-09	-3.769172e+01	-9.295500e+01
2.400000e-07	-5.424037e-06	-1.433767e-09	-3.763281e+01	-9.290208e+01
2.500000e-07	-5.414927e-06	-1.451800e-09	-3.756960e+01	-9.284518e+01
2.600000e-07	-5.405055e-06	-1.442218e-09	-3.750111e+01	-9.278424e+01
2.700000e-07	-5.394514e-06	-1.458343e-09	-3.742797e+01	-9.271921e+01
2.800000e-07	-5.383466e-06	-1.408022e-09	-3.735132e+01	-9.265005e+01
2.900000e-07	-5.371995e-06	-1.442436e-09	-3.727174e+01	-9.257672e+01
3.000000e-07	-5.360196e-06	-1.431664e-09	-3.718987e+01	-9.249919e+01
3.100000e-07	-5.348106e-06	-1.451812e-09	-3.710599e+01	-9.241745e+01
3.200000e-07	-5.335551e-06	-1.398837e-09	-3.701888e+01	-9.233149e+01
3.300000e-07	-5.322475e-06	-1.427007e-09	-3.692815e+01	-9.224128e+01
3.400000e-07	-5.309004e-06	-1.410988e-09	-3.683469e+01	-9.214684e+01
3.500000e-07	-5.295178e-06	-1.417520e-09	-3.673876e+01	-9.204816e+01
3.600000e-07	-5.280897e-06	-1.382803e-09	-3.663968e+01	-9.194525e+01
3.700000e-07	-5.266371e-06	-1.422342e-09	-3.653890e+01	-9.183812e+01
3.800000e-07	-5.251250e-06	-1.412538e-09	-3.643399e+01	-9.172677e+01
3.900000e-07	-5.235409e-06	-1.399590e-09	-3.632408e+01	-9.161122e+01
4.000000e-07	-5.219084e-06	-1.397554e-09	-3.621081e+01	-9.149147e+01
4.100000e-07	-5.202347e-06	-1.424672e-09	-3.609469e+01	-9.136754e+01
4.200000e-07	-5.185373e-06	-1.397466e-09	-3.597692e+01	-9.123943e+01
4.300000e-07	-5.168150e-06	-1.369903e-09	-3.585742e+01	-9.110716e+01
4.400000e-07	-5.150694e-06	-1.401161e-09	-3.573631e+01	-9.097073e+01
4.500000e-07	-5.132826e-06	-1.404897e-09	-3.561234e+01	-9.083013e+01
4.600000e-07	-5.114418e-06	-1.381449e-09	-3.548463e+01	-9.068537e+01
4.700000e-07	-5.095553e-06	-1.369391e-09	-3.535374e+01	-9.053645e+01
4.800000e-07	-5.076382e-06	-1.396204e-09	-3.522072e+01	-9.038335e+01
4.900000e-07	-5.056968e-06	-1.376821e-09	-3.508603e+01	-9.022606e+01
5.000000e-07	-5.037371e-06	-1.376002e-09	-3.495006e+01	-9.006456e+01
5.100000e-07	-5.017549e-06	-1.364192e-09	-3.481253e+01	-8.989884e+01
5.200000e-07	-4.997400e-06	-1.361158e-09	-3.467273e+01	-8.972887e+01
5.300000e-07	-4.976866e-06	-1.342503e-09	-3.453027e+01	-8.955463e+01
5.400000e-07	-4.955980e-06	-1.369706e-09	-3.438536e+01	-8.937609e+01
5.500000e-07	-4.934753e-06	-1.361171e-09	-3.423808e+01	-8.919321e+01
5.600000e-07	-4.913191e-06	-1.356989e-09	-3.408848e+01	-8.900597e+01
5.700000e-07	-4.891209e-06	-1.340450e-09	-3.393596e+01	-8.881434e+01
5.800000e-07	-4.868827e-06	-1.352307e-09	-3.378067e+01	-8.861828e+01
5.900000e-07	-4.846082e-06	-1.334532e-09	-3.362287e+01	-8.841776e+01
6.000000e-07	-4.822936e-06	-1.332417e-09	-3.346228e+01	-8.821275e+01
6.100000e-07	-4.799602e-06	-1.321436e-09	-3.330038e+01	-8.800324e+01
6.200000e-07	-4.776118e-06	-1.332656e-09	-3.313744e+01	-8.778920e+01
6.300000e-07	-4.752364e-06	-1.321276e-09	-3.297264e+01	-8.757062e+01
6.400000e-07	-4.728408e-06	-1.317146e-09	-3.280643e+01	-8.734748e+01
6.500000e-07	-4.704123e-06	-1.310146e-09	-3.263793e+01	-8.711979e+01
6.600000e-07	-4.679422e-06	-1.311248e-09	-3.246655e+01	-8.688754e+01
6.700000e-07	-4.654367e-06	-1.293808e-09	-3.229272e+01	-8.665075e+01
6.800000e-07	-4.628738e-06	-1.291288e-09	-3.211490e+01	-8.640945e+01
6.900000e-07	-4.602456e-06	-1.290586e-09	-3.193255e+01	-8.616365e+01
7.000000e-07	-4.575568e-06	-1.285767e-09	-3.174600e+01	-8.591341e+01
7.100000e-07	-4.548238e-06	-1.279506e-09	-3.155638e+01	-8.565877e+01
7.200000e-07	-4.520745e-06	-1.283489e-09	-3.136563e+01	-8.539979e+01
7.300000e-07	-4.493126e-06	-1.280169e-09	-3.117401e+01	-8.513653e+01
7.400000e-07	-4.465351e-06	-1.269903e-09	-3.098130e+01	-8.486909e+01
7.500000e-07	-4.437374e-06	-1.274347e-09	-3.078719e+01	-8.459753e+01
7.600000e-07	-4.409070e-06	-1.268911e-09	-3.059081e+01	-8.432197e+01
7.700000e-07	-4.380390e-06	-1.259586e-09	-3.039182e+01	-8.404249e+01
7.800000e-07	-4.351330e-06	-1.253030e-09	-3.019020e+01	-8.375922e+01
7.900000e-07	-4.321943e-06	-1.256393e-09	-2.998631e+01	-8.347227e+01
8.000000e-07	-4.292347e-06	-1.245675e-09	-2.978097e+01	-8.318175e+01
8.100000e-07	-4.262529e-06	-1.245682e-09	-2.957409e+01	-8.288779e+01
8.200000e-07	-4.232414e-06	-1.237136e-09	-2.936514e+01	-8.259052e+01
8.300000e-07	-4.201978e-06	-1.234711e-09	-2.915397e+01	-8.229007e+01
8.400000e-07	-4.171220e-06	-1.225983e-09	-2.894057e+01	-8.198655e+01
8.500000e-07	-4.140189e-06	-1.230145e-09	-2.872527e+01	-8.168009e+01
8.600000e-07	-4.108903e-06	-1.221585e-09	-2.850821e+01	-8.137080e+01
8.700000e-07	-4.077416e-06	-1.217761e-09	-2.828974e+01	-8.105881e+01
8.800000e-07	-4.045775e-06	-1.207764e-09	-2.807021e+01	-8.074420e+01
8.900000e-07	-4.013983e-06	-1.205374e-09	-2.784963e+01	-8.042708e+01
9.000000e-07	-3.981952e-06	-1.193549e-09	-2.762740e+01	-8.010753e+01
9.100000e-07	-3.949544e-06	-1.189546e-09	-2.740255e+01	-7.978561e+01
9.200000e-07	-3.916761e-06	-1.180713e-09	-2.717509e+01	-7.946137e+01
9.300000e-07	-3.883507e-06	-1.179181e-09	-2.694437e+01	-7.913487e+01
9.400000e-07	-3.849827e-06	-1.175530e-09	-2.671070e+01	-7.880611e+01
9.500000e-07	-3.815787e-06	-1.176234e-09	-2.647452e+01	-7.847509e+01
9.600000e-07	-3.781315e-06	-1.169240e-09	-2.623535e+01	-7.814181e+01
9.700000e-07	-3.746394e-06	-1.162079e-09	-2.599306e+01	-7.780622e+01
9.800000e-07	-3.711130e-06	-1.152633e-09	-2.574839e+01	-7.746827e+01
9.900000e-07	-3.675675e-06	-1.142910e-09	-2.550240e+01	-7.712786e+01
1.000000e-06	-3.640079e-06	-1.133583e-09	-2.525543e+01	-7.678491e+01
1.010000e-06	-3.604313e-06	-1.127725e-09	-2.500728e+01	-7.643928e+01
1.020000e-06	-3.568425e-06	-1.124426e-09	-2.475829e+01	-7.609083e+01
1.030000e-06	-3.532429e-06	-1.119584e-09	-2.450854e+01	-7.573939e+01
1.040000e-06	-3.496160e-06	-1.116605e-09	-2.425690e+01	-7.538478e+01
1.050000e-06	-3.459692e-06	-1.109013e-09	-2.400388e+01	-7.502678e+01
1.060000e-06	-3.422944e-06	-1.098993e-09	-2.374891e+01	-7.466519e+01
1.070000e-06	-3.385842e-06	-1.085353e-09	-2.349150e+01	-7.429974e+01
1.080000e-06	-3.348571e-06	-1.077905e-09	-2.323291e+01	-7.393018e+01
1.090000e-06	-3.311083e-06	-1.070792e-09	-2.297281e+01	-7.355625e+01
1.100000e-06	-3.273311e-06	-1.068044e-09	-2.271074e+01	-7.317766e+01
1.110000e-06	-3.235295e-06	-1.060778e-09	-2.244698e+01	-7.279412e+01
1.120000e-06	-3.197146e-06	-1.054506e-09	-2.218229e+01	-7.240532e+01
1.130000e-06	-3.158765e-06	-1.041826e-09	-2.191600e+01	-7.201097e+01
1.140000e-06	-3.120092e-06	-1.035803e-09	-2.164768e+01	-7.161074e+01
1.150000e-06	-3.081184e-06	-1.027987e-09	-2.137773e+01	-7.120433e+01
1.160000e-06	-3.042037e-06	-1.021368e-09	-2.110612e+01	-7.079144e+01
1.170000e-06	-3.002772e-06	-1.012399e-09	-2.083370e+01	-7.037175e+01
1.180000e-06	-2.963416e-06	-1.008742e-09	-2.056064e+01	-6.994496e+01
1.190000e-06	-2.923893e-06	-9.996673e-10	-2.028643e+01	-6.951079e+01
1.200000e-06	-2.884220e-06	-9.899014e-10	-2.001116e+01	-6.906895e+01
1.210000e-06	-2.844463e-06	-9.801895e-10	-1.973533e+01	-6.861918e+01
1.220000e-06	-2.804550e-06	-9.743260e-10	-1.945840e+01	-6.816122e+01
1.230000e-06	-2.764413e-06	-9.662040e-10	-1.917992e+01	-6.769482e+01
1.240000e-06	-2.724109e-06	-9.615747e-10	-1.890029e+01	-6.721977e+01
1.250000e-06	-2.683721e-06	-9.567741e-10	-1.862007e+01	-6.673587e+01
1.260000e-06	-2.643085e-06	-9.497277e-10	-1.833813e+01	-6.624292e+01
1.270000e-06	-2.602033e-06	-9.437931e-10	-1.805331e+01	-6.574076e+01
1.280000e-06	-2.560751e-06	-9.377651e-10	-1.776689e+01	-6.522924e+01
1.290000e-06	-2.519185e-06	-9.277484e-10	-1.747850e+01	-6.470824e+01
1.300000e-06	-2.477208e-06	-9.176192e-10	-1.718725e+01	-6.417765e+01
1.310000e-06	-2.434937e-06	-9.083285e-10	-1.689397e+01	-6.363738e+01
1.320000e-06	-2.392392e-06	-8.986430e-10	-1.659879e+01	-6.308736e+01
1.330000e-06	-2.349588e-06	-8.893462e-10	-1.630180e+01	-6.252755e+01
1.340000e-06	-2.306533e-06	-8.848583e-10	-1.600309e+01	-6.195790e+01
1.350000e-06	-2.263236e-06	-8.807521e-10	-1.570268e+01	-6.137839e+01
1.360000e-06	-2.219766e-06	-8.718629e-10	-1.540108e+01	-6.078901e+01
1.370000e-06	-2.176223e-06	-8.610855e-10	-1.509897e+01	-6.018976e+01
1.380000e-06	-2.132633e-06	-8.494078e-10	-1.479654e+01	-5.958065e+01
1.390000e-06	-2.088960e-06	-8.409928e-10	-1.449353e+01	-5.896170e+01
1.400000e-06	-2.045220e-06	-8.309101e-10	-1.419005e+01	-5.833291e+01
1.410000e-06	-2.001443e-06	-8.238745e-10	-1.388632e+01	-5.769430e+01
1.420000e-06	-1.957582e-06	-8.108718e-10	-1.358201e+01	-5.704589e+01
1.430000e-06	-1.913606e-06	-7.982325e-10	-1.327690e+01	-5.638767e+01
1.440000e-06	-1.869547e-06	-7.863392e-10	-1.297121e+01	-5.571966e+01
1.450000e-06	-1.825310e-06	-7.776206e-10	-1.266429e+01	-5.504182e+01
1.460000e-06	-1.780887e-06	-7.687922e-10	-1.235607e+01	-5.435414e+01
1.470000e-06	-1.736381e-06	-7.611591e-10	-1.204728e+01	-5.365655e+01
1.480000e-06	-1.691768e-06	-7.501925e-10	-1.173775e+01	-5.294901e+01
1.490000e-06	-1.646994e-06	-7.363132e-10	-1.142710e+01	-5.223141e+01
1.500000e-06	-1.602021e-06	-7.206565e-10	-1.111507e+01	-5.150363e+01
1.510000e-06	-1.556930e-06	-7.071210e-10	-1.080222e+01	-5.076555e+01
1.520000e-06	-1.511807e-06	-6.935121e-10	-1.048915e+01	-5.001699e+01
1.530000e-06	-1.466523e-06	-6.799539e-10	-1.017497e+01	-4.925775e+01
1.540000e-06	-1.421033e-06	-6.677548e-10	-9.859344e+00	-4.848761e+01
1.550000e-06	-1.375526e-06	-6.618410e-10	-9.543610e+00	-4.770630e+01
1.560000e-06	-1.330003e-06	-6.533753e-10	-9.227766e+00	-4.691354e+01
1.570000e-06	-1.284375e-06	-6.395090e-10	-8.911193e+00	-4.610901e+01
1.580000e-06	-1.238639e-06	-6.226135e-10	-8.593872e+00	-4.529235e+01
1.590000e-06	-1.192749e-06	-6.048719e-10	-8.275480e+00	-4.446320e+01
1.600000e-06	-1.146741e-06	-5.878812e-10	-7.956269e+00	-4.362115e+01
1.610000e-06	-1.100627e-06	-5.742910e-10	-7.636318e+00	-4.276576e+01
1.620000e-06	-1.054423e-06	-5.642348e-10	-7.315753e+00	-4.189660e+01
1.630000e-06	-1.008232e-06	-5.546960e-10	-6.995269e+00	-4.101319e+01
1.640000e-06	-9.620405e-07	-5.440027e-10	-6.674786e+00	-4.011506e+01
1.650000e-06	-9.157533e-07	-5.269416e-10	-6.353638e+00	-3.920169e+01
1.660000e-06	-8.694262e-07	-5.092177e-10	-6.032214e+00	-3.827261e+01
1.670000e-06	-8.230743e-07	-4.907760e-10	-5.710617e+00	-3.732729e+01
1.680000e-06	-7.766458e-07	-4.747015e-10	-5.388489e+00	-3.636524e+01
1.690000e-06	-7.300583e-07	-4.575060e-10	-5.065258e+00	-3.538596e+01
1.700000e-06	-6.834015e-07	-4.443472e-10	-4.741545e+00	-3.438898e+01
1.710000e-06	-6.368018e-07	-4.307161e-10	-4.418230e+00	-3.337382e+01
1.720000e-06	-5.901463e-07	-4.148505e-10	-4.094526e+00	-3.234004e+01
1.730000e-06	-5.434594e-07	-3.972921e-10	-3.770606e+00	-3.128723e+01
1.740000e-06	-4.967292e-07	-3.800360e-10	-3.446384e+00	-3.021502e+01
1.750000e-06	-4.499344e-07	-3.610777e-10	-3.121714e+00	-2.912307e+01
1.760000e-06	-4.031282e-07	-3.431285e-10	-2.796966e+00	-2.801109e+01
1.770000e-06	-3.563167e-07	-3.259764e-10	-2.472180e+00	-2.687884e+01
1.780000e-06	-3.095006e-07	-3.107239e-10	-2.147363e+00	-2.572614e+01
1.790000e-06	-2.625804e-07	-2.963441e-10	-1.821823e+00	-2.455286e+01
1.800000e-06	-2.155846e-07	-2.791260e-10	-1.495759e+00	-2.335895e+01
1.810000e-06	-1.686371e-07	-2.586389e-10	-1.170031e+00	-2.214443e+01
1.820000e-06	-1.216626e-07	-2.377389e-10	-8.441138e-01	-2.090939e+01
1.830000e-06	-7.468447e-08	-2.193198e-10	-5.181724e-01	-1.965398e+01
1.840000e-06	-2.772715e-08	-2.030630e-10	-1.923753e-01	-1.837847e+01
1.850000e-06	1.925870e-08	-1.874687e-10	1.336199e-01	-1.708318e+01
1.860000e-06	6.622197e-08	-1.725557e-10	4.594583e-01	-1.576851e+01
1.870000e-06	1.131494e-07	-1.547056e-10	7.850483e-01	-1.443498e+01
1.880000e-06	1.600649e-07	-1.339246e-10	1.110555e+00	-1.308316e+01
1.890000e-06	2.070487e-07	-1.124366e-10	1.436536e+00	-1.171372e+01
1.900000e-06	2.539869e-07	-8.954883e-11	1.762200e+00	-1.032742e+01
1.910000e-06	3.008310e-07	-7.047676e-11	2.087212e+00	-8.925091e+00
1.920000e-06	3.476631e-07	-5.306013e-11	2.412141e+00	-7.507656e+00
1.930000e-06	3.945198e-07	-3.562860e-11	2.737239e+00	-6.076111e+00
1.940000e-06	4.413120e-07	-1.982278e-11	3.061891e+00	-4.631525e+00
1.950000e-06	4.879613e-07	-3.645144e-12	3.385551e+00	-3.175041e+00
1.960000e-06	5.346504e-07	1.378119e-11	3.709487e+00	-1.707868e+00
1.970000e-06	5.813802e-07	3.078911e-11	4.033706e+00	-2.312732e-01
1.980000e-06	6.279695e-07	4.980548e-11	4.356949e+00	1.253418e+00
1.990000e-06	6.744083e-07	7.340348e-11	4.679149e+00	2.744832e+00
2.000000e-06	7.207727e-07	9.991871e-11	5.000833e+00	4.241555e+00
2.010000e-06	7.671719e-07	1.263102e-10	5.322757e+00	5.742134e+00
2.020000e-06	8.135574e-07	1.505817e-10	5.644587e+00	7.245090e+00
2.030000e-06	8.598006e-07	1.676999e-10	5.965430e+00	8.748923e+00
2.040000e-06	9.060326e-07	1.829135e-10	6.286194e+00	1.025212e+01
2.050000e-06	9.522472e-07	1.975064e-10	6.606839e+00	1.175317e+01
2.060000e-06	9.984217e-07	2.151311e-10	6.927204e+00	1.325054e+01
2.070000e-06	1.044572e-06	2.370477e-10	7.247400e+00	1.474275e+01
2.080000e-06	1.090587e-06	2.625514e-10	7.566664e+00	1.622830e+01
2.090000e-06	1.136523e-06	2.885363e-10	7.885373e+00	1.770574e+01
2.100000e-06	1.182374e-06	3.128178e-10	8.203492e+00	1.917365e+01
2.110000e-06	1.228059e-06	3.329520e-10	8.520466e+00	2.063063e+01
2.120000e-06	1.273641e-06	3.488494e-10	8.836718e+00	2.207537e+01
2.130000e-06	1.319121e-06	3.636508e-10	9.152264e+00	2.350658e+01
2.140000e-06	1.364573e-06	3.807322e-10	9.467620e+00	2.492305e+01
2.150000e-06	1.409997e-06	3.979312e-10	9.782780e+00	2.632363e+01
2.160000e-06	1.455317e-06	4.171758e-10	1.009722e+01	2.770725e+01
2.170000e-06	1.500603e-06	4.396190e-10	1.041142e+01	2.907290e+01
2.180000e-06	1.545771e-06	4.625087e-10	1.072480e+01	3.041968e+01
2.190000e-06	1.590679e-06	4.825455e-10	1.103638e+01	3.174674e+01
2.200000e-06	1.635380e-06	4.997445e-10	1.134652e+01	3.305335e+01
2.210000e-06	1.680024e-06	5.158744e-10	1.165627e+01	3.433885e+01
2.220000e-06	1.724589e-06	5.310504e-10	1.196546e+01	3.560268e+01
2.230000e-06	1.769057e-06	5.471599e-10	1.227399e+01	3.684437e+01
2.240000e-06	1.813366e-06	5.624079e-10	1.258142e+01	3.806353e+01
2.250000e-06	1.857555e-06	5.780010e-10	1.288800e+01	3.925988e+01
2.260000e-06	1.901625e-06	5.942930e-10	1.319377e+01	4.043322e+01
2.270000e-06	1.945549e-06	6.111410e-10	1.349852e+01	4.158344e+01
2.280000e-06	1.989442e-06	6.262657e-10	1.380306e+01	4.271050e+01
2.290000e-06	2.033268e-06	6.393453e-10	1.410713e+01	4.381448e+01
2.300000e-06	2.076992e-06	6.532001e-10	1.441049e+01	4.489549e+01
2.310000e-06	2.120629e-06	6.695094e-10	1.471325e+01	4.595375e+01
2.320000e-06	2.164195e-06	6.863222e-10	1.501552e+01	4.698954e+01
2.330000e-06	2.207695e-06	7.016735e-10	1.531733e+01	4.800318e+01
2.340000e-06	2.251152e-06	7.131462e-10	1.561884e+01	4.899509e+01
2.350000e-06	2.294438e-06	7.247298e-10	1.591917e+01	4.996570e+01
2.360000e-06	2.337499e-06	7.367194e-10	1.621793e+01	5.091553e+01
2.370000e-06	2.380375e-06	7.482684e-10	1.651541e+01	5.184509e+01
2.380000e-06	2.423007e-06	7.596265e-10	1.681120e+01	5.275497e+01
2.390000e-06	2.465423e-06	7.723103e-10	1.710548e+01	5.364577e+01
2.400000e-06	2.507615e-06	7.862185e-10	1.739822e+01	5.451808e+01
2.410000e-06	2.549407e-06	8.010263e-10	1.768818e+01	5.537256e+01
2.420000e-06	2.590739e-06	8.175409e-10	1.797495e+01	5.620984e+01
2.430000e-06	2.631711e-06	8.313065e-10	1.825922e+01	5.703055e+01
2.440000e-06	2.672455e-06	8.404348e-10	1.854191e+01	5.783534e+01
2.450000e-06	2.712990e-06	8.511238e-10	1.882315e+01	5.862483e+01
2.460000e-06	2.753278e-06	8.618427e-10	1.910267e+01	5.939964e+01
2.470000e-06	2.793379e-06	8.711729e-10	1.938090e+01	6.016035e+01
2.480000e-06	2.833305e-06	8.823697e-10	1.965791e+01	6.090754e+01
2.490000e-06	2.873070e-06	8.942124e-10	1.993380e+01	6.164173e+01
2.500000e-06	2.912699e-06	9.065728e-10	2.020876e+01	6.236344e+01
2.510000e-06	2.952188e-06	9.211025e-10	2.048274e+01	6.307313e+01
2.520000e-06	2.991574e-06	9.349365e-10	2.075600e+01	6.377124e+01
2.530000e-06	3.030837e-06	9.452961e-10	2.102842e+01	6.445816e+01
2.540000e-06	3.069892e-06	9.529826e-10	2.129938e+01	6.513424e+01
2.550000e-06	3.108675e-06	9.581560e-10	2.156847e+01	6.579979e+01
2.560000e-06	3.147236e-06	9.641347e-10	2.183601e+01	6.645507e+01
2.570000e-06	3.185535e-06	9.733777e-10	2.210174e+01	6.710031e+01
2.580000e-06	3.223566e-06	9.835635e-10	2.236560e+01	6.773569e+01
2.590000e-06	3.261462e-06	9.931154e-10	2.262853e+01	6.836135e+01
2.600000e-06	3.299186e-06	1.002790e-09	2.289027e+01	6.897738e+01
2.610000e-06	3.336670e-06	1.011798e-09	2.315033e+01	6.958385e+01
2.620000e-06	3.373999e-06	1.020847e-09	2.340933e+01	7.018079e+01
2.630000e-06	3.411128e-06	1.029255e-09	2.366694e+01	7.076819e+01
2.640000e-06	3.447846e-06	1.035483e-09	2.392169e+01	7.134601e+01
2.650000e-06	3.484229e-06	1.040973e-09	2.417412e+01	7.191421e+01
2.660000e-06	3.520382e-06	1.048789e-09	2.442495e+01	7.247268e+01
2.670000e-06	3.556333e-06	1.056195e-09	2.467439e+01	7.302134e+01
2.680000e-06	3.592150e-06	1.061744e-09	2.492289e+01	7.356007e+01
2.690000e-06	3.627861e-06	1.067290e-09	2.517066e+01	7.408874e+01
2.700000e-06	3.663465e-06	1.074550e-09	2.541769e+01	7.460721e+01
2.710000e-06	3.698949e-06	1.081554e-09	2.566388e+01	7.511536e+01
2.720000e-06	3.734211e-06	1.089321e-09	2.590854e+01	7.561304e+01
2.730000e-06	3.769195e-06	1.100567e-09	2.615126e+01	7.610013e+01
2.740000e-06	3.803770e-06	1.111562e-09	2.639115e+01	7.657650e+01
2.750000e-06	3.837875e-06	1.118879e-09	2.662777e+01	7.704205e+01
2.760000e-06	3.871635e-06	1.123399e-09	2.686201e+01	7.749668e+01
2.770000e-06	3.904907e-06	1.127278e-09	2.709285e+01	7.794033e+01
2.780000e-06	3.937668e-06	1.132353e-09	2.732015e+01	7.837293e+01
2.790000e-06	3.970035e-06	1.140846e-09	2.754472e+01	7.879445e+01
2.800000e-06	4.002107e-06	1.151183e-09	2.776723e+01	7.920490e+01
2.810000e-06	4.033946e-06	1.160716e-09	2.798814e+01	7.960430e+01
2.820000e-06	4.065623e-06	1.169524e-09	2.820792e+01	7.999269e+01
2.830000e-06	4.097202e-06	1.176659e-09	2.842702e+01	8.037016e+01
2.840000e-06	4.128592e-06	1.178635e-09	2.864481e+01	8.073683e+01
2.850000e-06	4.159753e-06	1.178006e-09	2.886101e+01	8.109283e+01
2.860000e-06	4.190616e-06	1.181803e-09	2.907514e+01	8.143833e+01
2.870000e-06	4.221095e-06	1.188209e-09	2.928661e+01	8.177355e+01
2.880000e-06	4.251280e-06	1.194573e-09	2.949604e+01	8.209870e+01
2.890000e-06	4.281216e-06	1.202186e-09	2.970374e+01	8.241404e+01
2.900000e-06	4.310863e-06	1.209270e-09	2.990943e+01	8.271987e+01
