# Temperatura_=_-35.62
# Concentracion g/m^3_=_1620.0
# C_Vs_to_Am_M_A/Vsm_=_65563218390.804596
# pendiente_HvsI_1/m_=_3716.3
# ordenada_HvsI_A/m_=_1297.0
# frecuencia_Hz_=_135094.412888514

Tiempo_(s)	Campo_(V.s)	Magnetizacion_(V.s)	Campo_(kA/m)	Magnetizacion_(A/m)
0.000000e+00	-5.530331e-06	-1.089046e-09	-3.836738e+01	-7.182998e+01
1.000000e-08	-5.530681e-06	-1.092228e-09	-3.836981e+01	-7.185995e+01
2.000000e-08	-5.530730e-06	-1.095778e-09	-3.837015e+01	-7.188907e+01
3.000000e-08	-5.530378e-06	-1.099843e-09	-3.836771e+01	-7.191731e+01
4.000000e-08	-5.529605e-06	-1.098939e-09	-3.836234e+01	-7.194463e+01
5.000000e-08	-5.528397e-06	-1.093397e-09	-3.835396e+01	-7.197095e+01
6.000000e-08	-5.526662e-06	-1.088405e-09	-3.834192e+01	-7.199622e+01
7.000000e-08	-5.524300e-06	-1.078155e-09	-3.832554e+01	-7.202036e+01
8.000000e-08	-5.521314e-06	-1.092552e-09	-3.830482e+01	-7.204328e+01
9.000000e-08	-5.517867e-06	-1.139189e-09	-3.828091e+01	-7.206490e+01
1.000000e-07	-5.513971e-06	-1.134315e-09	-3.825388e+01	-7.208512e+01
1.100000e-07	-5.509638e-06	-1.025853e-09	-3.822382e+01	-7.210383e+01
1.200000e-07	-5.505126e-06	-1.049507e-09	-3.819252e+01	-7.212092e+01
1.300000e-07	-5.500520e-06	-1.109217e-09	-3.816056e+01	-7.213628e+01
1.400000e-07	-5.495552e-06	-1.176698e-09	-3.812609e+01	-7.214978e+01
1.500000e-07	-5.490050e-06	-1.029246e-09	-3.808792e+01	-7.216131e+01
1.600000e-07	-5.484221e-06	-1.004420e-09	-3.804749e+01	-7.217073e+01
1.700000e-07	-5.478040e-06	-1.100717e-09	-3.800460e+01	-7.217792e+01
1.800000e-07	-5.471320e-06	-1.172525e-09	-3.795798e+01	-7.218275e+01
1.900000e-07	-5.464192e-06	-1.093075e-09	-3.790853e+01	-7.218509e+01
2.000000e-07	-5.456828e-06	-1.028080e-09	-3.785744e+01	-7.218480e+01
2.100000e-07	-5.449211e-06	-1.130819e-09	-3.780460e+01	-7.218176e+01
2.200000e-07	-5.441298e-06	-1.189115e-09	-3.774970e+01	-7.217584e+01
2.300000e-07	-5.433162e-06	-1.145857e-09	-3.769326e+01	-7.216692e+01
2.400000e-07	-5.424645e-06	-1.062235e-09	-3.763417e+01	-7.215486e+01
2.500000e-07	-5.415512e-06	-1.132792e-09	-3.757081e+01	-7.213956e+01
2.600000e-07	-5.405642e-06	-1.153417e-09	-3.750233e+01	-7.212089e+01
2.700000e-07	-5.395083e-06	-1.138772e-09	-3.742908e+01	-7.209876e+01
2.800000e-07	-5.384071e-06	-1.080549e-09	-3.735268e+01	-7.207306e+01
2.900000e-07	-5.372648e-06	-1.138439e-09	-3.727343e+01	-7.204368e+01
3.000000e-07	-5.360888e-06	-1.129015e-09	-3.719185e+01	-7.201055e+01
3.100000e-07	-5.348812e-06	-1.104796e-09	-3.710807e+01	-7.197357e+01
3.200000e-07	-5.336240e-06	-1.060348e-09	-3.702085e+01	-7.193268e+01
3.300000e-07	-5.323184e-06	-1.124070e-09	-3.693027e+01	-7.188779e+01
3.400000e-07	-5.309809e-06	-1.127688e-09	-3.683748e+01	-7.183887e+01
3.500000e-07	-5.296057e-06	-1.099944e-09	-3.674207e+01	-7.178584e+01
3.600000e-07	-5.281712e-06	-1.074795e-09	-3.664256e+01	-7.172867e+01
3.700000e-07	-5.266823e-06	-1.139651e-09	-3.653926e+01	-7.166732e+01
3.800000e-07	-5.251506e-06	-1.118652e-09	-3.643300e+01	-7.160177e+01
3.900000e-07	-5.235525e-06	-1.075301e-09	-3.632213e+01	-7.153200e+01
4.000000e-07	-5.218992e-06	-1.105801e-09	-3.620742e+01	-7.145799e+01
4.100000e-07	-5.202369e-06	-1.140873e-09	-3.609210e+01	-7.137975e+01
4.200000e-07	-5.185421e-06	-1.069454e-09	-3.597452e+01	-7.129727e+01
4.300000e-07	-5.168000e-06	-1.047914e-09	-3.585366e+01	-7.121058e+01
4.400000e-07	-5.150364e-06	-1.143977e-09	-3.573131e+01	-7.111970e+01
4.500000e-07	-5.132436e-06	-1.114832e-09	-3.560693e+01	-7.102465e+01
4.600000e-07	-5.114007e-06	-1.041282e-09	-3.547908e+01	-7.092547e+01
4.700000e-07	-5.095124e-06	-1.084726e-09	-3.534807e+01	-7.082221e+01
4.800000e-07	-5.076019e-06	-1.140580e-09	-3.521553e+01	-7.071490e+01
4.900000e-07	-5.056657e-06	-1.045414e-09	-3.508121e+01	-7.060361e+01
5.000000e-07	-5.037046e-06	-1.054971e-09	-3.494515e+01	-7.048839e+01
5.100000e-07	-5.017244e-06	-1.110160e-09	-3.480777e+01	-7.036932e+01
5.200000e-07	-4.997123e-06	-1.071566e-09	-3.466818e+01	-7.024645e+01
5.300000e-07	-4.976624e-06	-1.026313e-09	-3.452596e+01	-7.011988e+01
5.400000e-07	-4.955823e-06	-1.114380e-09	-3.438166e+01	-6.998966e+01
5.500000e-07	-4.934681e-06	-1.089132e-09	-3.423498e+01	-6.985589e+01
5.600000e-07	-4.913117e-06	-1.026735e-09	-3.408538e+01	-6.971866e+01
5.700000e-07	-4.891236e-06	-1.058336e-09	-3.393358e+01	-6.957804e+01
5.800000e-07	-4.869000e-06	-1.098510e-09	-3.377931e+01	-6.943412e+01
5.900000e-07	-4.846384e-06	-1.024480e-09	-3.362241e+01	-6.928701e+01
6.000000e-07	-4.823439e-06	-1.034171e-09	-3.346323e+01	-6.913679e+01
6.100000e-07	-4.800187e-06	-1.073004e-09	-3.330191e+01	-6.898356e+01
6.200000e-07	-4.776736e-06	-1.048039e-09	-3.313922e+01	-6.882740e+01
6.300000e-07	-4.753054e-06	-1.020608e-09	-3.297492e+01	-6.866842e+01
6.400000e-07	-4.729138e-06	-1.055613e-09	-3.280900e+01	-6.850671e+01
6.500000e-07	-4.704915e-06	-1.042513e-09	-3.264095e+01	-6.834237e+01
6.600000e-07	-4.680190e-06	-1.023391e-09	-3.246941e+01	-6.817547e+01
6.700000e-07	-4.654985e-06	-1.042524e-09	-3.229455e+01	-6.800613e+01
6.800000e-07	-4.629250e-06	-1.042938e-09	-3.211601e+01	-6.783442e+01
6.900000e-07	-4.602843e-06	-1.016955e-09	-3.193281e+01	-6.766044e+01
7.000000e-07	-4.575938e-06	-1.025765e-09	-3.174615e+01	-6.748426e+01
7.100000e-07	-4.548729e-06	-1.034729e-09	-3.155739e+01	-6.730598e+01
7.200000e-07	-4.521324e-06	-1.015125e-09	-3.136727e+01	-6.712567e+01
7.300000e-07	-4.493743e-06	-1.015626e-09	-3.117592e+01	-6.694340e+01
7.400000e-07	-4.465973e-06	-1.020061e-09	-3.098326e+01	-6.675924e+01
7.500000e-07	-4.437989e-06	-1.011532e-09	-3.078912e+01	-6.657328e+01
7.600000e-07	-4.409702e-06	-9.992990e-10	-3.059287e+01	-6.638555e+01
7.700000e-07	-4.381051e-06	-1.005057e-09	-3.039410e+01	-6.619614e+01
7.800000e-07	-4.352050e-06	-9.916952e-10	-3.019290e+01	-6.600508e+01
7.900000e-07	-4.322810e-06	-9.917231e-10	-2.999005e+01	-6.581242e+01
8.000000e-07	-4.293315e-06	-9.957292e-10	-2.978542e+01	-6.561821e+01
8.100000e-07	-4.263528e-06	-9.979154e-10	-2.957877e+01	-6.542248e+01
8.200000e-07	-4.233432e-06	-9.858461e-10	-2.936998e+01	-6.522525e+01
8.300000e-07	-4.203091e-06	-9.955268e-10	-2.915948e+01	-6.502656e+01
8.400000e-07	-4.172460e-06	-9.868540e-10	-2.894698e+01	-6.482641e+01
8.500000e-07	-4.141451e-06	-9.739843e-10	-2.873185e+01	-6.462482e+01
8.600000e-07	-4.110266e-06	-9.673218e-10	-2.851550e+01	-6.442177e+01
8.700000e-07	-4.079016e-06	-9.738768e-10	-2.829870e+01	-6.421728e+01
8.800000e-07	-4.047539e-06	-9.615486e-10	-2.808032e+01	-6.401131e+01
8.900000e-07	-4.015849e-06	-9.637615e-10	-2.786047e+01	-6.380384e+01
9.000000e-07	-3.984007e-06	-9.641692e-10	-2.763956e+01	-6.359485e+01
9.100000e-07	-3.951829e-06	-9.565900e-10	-2.741632e+01	-6.338429e+01
9.200000e-07	-3.919133e-06	-9.433363e-10	-2.718949e+01	-6.317211e+01
9.300000e-07	-3.885973e-06	-9.462347e-10	-2.695943e+01	-6.295825e+01
9.400000e-07	-3.852384e-06	-9.401028e-10	-2.672641e+01	-6.274266e+01
9.500000e-07	-3.818270e-06	-9.326747e-10	-2.648973e+01	-6.252524e+01
9.600000e-07	-3.783706e-06	-9.363496e-10	-2.624994e+01	-6.230593e+01
9.700000e-07	-3.748832e-06	-9.402729e-10	-2.600800e+01	-6.208462e+01
9.800000e-07	-3.713683e-06	-9.305330e-10	-2.576415e+01	-6.186122e+01
9.900000e-07	-3.678284e-06	-9.229712e-10	-2.551856e+01	-6.163562e+01
1.000000e-06	-3.642755e-06	-9.221560e-10	-2.527208e+01	-6.140770e+01
1.010000e-06	-3.607101e-06	-9.128946e-10	-2.502473e+01	-6.117734e+01
1.020000e-06	-3.571266e-06	-9.064881e-10	-2.477611e+01	-6.094441e+01
1.030000e-06	-3.535271e-06	-9.078898e-10	-2.452639e+01	-6.070877e+01
1.040000e-06	-3.499042e-06	-9.084570e-10	-2.427505e+01	-6.047028e+01
1.050000e-06	-3.462524e-06	-8.990474e-10	-2.402171e+01	-6.022878e+01
1.060000e-06	-3.425710e-06	-8.949042e-10	-2.376630e+01	-5.998413e+01
1.070000e-06	-3.388655e-06	-8.871597e-10	-2.350923e+01	-5.973615e+01
1.080000e-06	-3.351445e-06	-8.811280e-10	-2.325108e+01	-5.948470e+01
1.090000e-06	-3.313972e-06	-8.755025e-10	-2.299111e+01	-5.922958e+01
1.100000e-06	-3.276236e-06	-8.760560e-10	-2.272931e+01	-5.897065e+01
1.110000e-06	-3.238286e-06	-8.679153e-10	-2.246602e+01	-5.870771e+01
1.120000e-06	-3.200118e-06	-8.633296e-10	-2.220123e+01	-5.844060e+01
1.130000e-06	-3.161721e-06	-8.588476e-10	-2.193484e+01	-5.816913e+01
1.140000e-06	-3.123126e-06	-8.566552e-10	-2.166709e+01	-5.789314e+01
1.150000e-06	-3.084282e-06	-8.478776e-10	-2.139760e+01	-5.761243e+01
1.160000e-06	-3.045134e-06	-8.439844e-10	-2.112600e+01	-5.732684e+01
1.170000e-06	-3.005847e-06	-8.380053e-10	-2.085345e+01	-5.703618e+01
1.180000e-06	-2.966428e-06	-8.338213e-10	-2.057997e+01	-5.674029e+01
1.190000e-06	-2.926855e-06	-8.294766e-10	-2.030543e+01	-5.643900e+01
1.200000e-06	-2.887213e-06	-8.271209e-10	-2.003041e+01	-5.613213e+01
1.210000e-06	-2.847514e-06	-8.205688e-10	-1.975499e+01	-5.581952e+01
1.220000e-06	-2.807714e-06	-8.152008e-10	-1.947887e+01	-5.550101e+01
1.230000e-06	-2.767792e-06	-8.094089e-10	-1.920191e+01	-5.517646e+01
1.240000e-06	-2.727649e-06	-8.028262e-10	-1.892342e+01	-5.484569e+01
1.250000e-06	-2.687214e-06	-7.938346e-10	-1.864289e+01	-5.450859e+01
1.260000e-06	-2.646513e-06	-7.869550e-10	-1.836052e+01	-5.416499e+01
1.270000e-06	-2.605501e-06	-7.845246e-10	-1.807600e+01	-5.381478e+01
1.280000e-06	-2.564113e-06	-7.826379e-10	-1.778886e+01	-5.345782e+01
1.290000e-06	-2.522375e-06	-7.777624e-10	-1.749930e+01	-5.309400e+01
1.300000e-06	-2.480219e-06	-7.708427e-10	-1.720684e+01	-5.272320e+01
1.310000e-06	-2.437755e-06	-7.631139e-10	-1.691224e+01	-5.234530e+01
1.320000e-06	-2.395214e-06	-7.544180e-10	-1.661710e+01	-5.196022e+01
1.330000e-06	-2.352530e-06	-7.466320e-10	-1.632098e+01	-5.156784e+01
1.340000e-06	-2.309587e-06	-7.424159e-10	-1.602306e+01	-5.116809e+01
1.350000e-06	-2.266380e-06	-7.397738e-10	-1.572330e+01	-5.076086e+01
1.360000e-06	-2.222964e-06	-7.322700e-10	-1.542210e+01	-5.034609e+01
1.370000e-06	-2.179445e-06	-7.246634e-10	-1.512018e+01	-4.992368e+01
1.380000e-06	-2.135876e-06	-7.177123e-10	-1.481792e+01	-4.949357e+01
1.390000e-06	-2.092207e-06	-7.124450e-10	-1.451495e+01	-4.905569e+01
1.400000e-06	-2.048454e-06	-7.024529e-10	-1.421141e+01	-4.860995e+01
1.410000e-06	-2.004645e-06	-6.945950e-10	-1.390748e+01	-4.815631e+01
1.420000e-06	-1.960732e-06	-6.847780e-10	-1.360283e+01	-4.769468e+01
1.430000e-06	-1.916753e-06	-6.771879e-10	-1.329772e+01	-4.722500e+01
1.440000e-06	-1.872675e-06	-6.717242e-10	-1.299192e+01	-4.674721e+01
1.450000e-06	-1.828414e-06	-6.674453e-10	-1.268486e+01	-4.626124e+01
1.460000e-06	-1.784025e-06	-6.588089e-10	-1.237690e+01	-4.576701e+01
1.470000e-06	-1.739548e-06	-6.492348e-10	-1.206834e+01	-4.526445e+01
1.480000e-06	-1.694962e-06	-6.393139e-10	-1.175901e+01	-4.475348e+01
1.490000e-06	-1.650200e-06	-6.277867e-10	-1.144847e+01	-4.423403e+01
1.500000e-06	-1.605315e-06	-6.153992e-10	-1.113708e+01	-4.370602e+01
1.510000e-06	-1.560256e-06	-6.056577e-10	-1.082448e+01	-4.316934e+01
1.520000e-06	-1.515022e-06	-5.962827e-10	-1.051066e+01	-4.262391e+01
1.530000e-06	-1.469731e-06	-5.868485e-10	-1.019645e+01	-4.206963e+01
1.540000e-06	-1.424337e-06	-5.743259e-10	-9.881517e+00	-4.150638e+01
1.550000e-06	-1.378883e-06	-5.641002e-10	-9.566175e+00	-4.093407e+01
1.560000e-06	-1.333397e-06	-5.508683e-10	-9.250609e+00	-4.035256e+01
1.570000e-06	-1.287828e-06	-5.381148e-10	-8.934474e+00	-3.976174e+01
1.580000e-06	-1.242175e-06	-5.296437e-10	-8.617745e+00	-3.916148e+01
1.590000e-06	-1.196482e-06	-5.228056e-10	-8.300747e+00	-3.855163e+01
1.600000e-06	-1.150668e-06	-5.139950e-10	-7.982906e+00	-3.793206e+01
1.610000e-06	-1.104701e-06	-5.036682e-10	-7.664007e+00	-3.730262e+01
1.620000e-06	-1.058636e-06	-4.940870e-10	-7.344425e+00	-3.666316e+01
1.630000e-06	-1.012462e-06	-4.848637e-10	-7.024086e+00	-3.601352e+01
1.640000e-06	-9.662634e-07	-4.757921e-10	-6.703576e+00	-3.535356e+01
1.650000e-06	-9.199684e-07	-4.644970e-10	-6.382399e+00	-3.468310e+01
1.660000e-06	-8.736601e-07	-4.538595e-10	-6.061129e+00	-3.400199e+01
1.670000e-06	-8.273432e-07	-4.415261e-10	-5.739799e+00	-3.331008e+01
1.680000e-06	-7.808970e-07	-4.319884e-10	-5.417573e+00	-3.260720e+01
1.690000e-06	-7.344540e-07	-4.215723e-10	-5.095368e+00	-3.189320e+01
1.700000e-06	-6.879222e-07	-4.124301e-10	-4.772548e+00	-3.116793e+01
1.710000e-06	-6.413649e-07	-4.002361e-10	-4.449551e+00	-3.043125e+01
1.720000e-06	-5.947933e-07	-3.864960e-10	-4.126454e+00	-2.968302e+01
1.730000e-06	-5.480341e-07	-3.730422e-10	-3.802057e+00	-2.892311e+01
1.740000e-06	-5.011843e-07	-3.612941e-10	-3.477030e+00	-2.815141e+01
1.750000e-06	-4.543316e-07	-3.505341e-10	-3.151984e+00	-2.736782e+01
1.760000e-06	-4.074852e-07	-3.411450e-10	-2.826981e+00	-2.657225e+01
1.770000e-06	-3.606292e-07	-3.311379e-10	-2.501912e+00	-2.576461e+01
1.780000e-06	-3.137097e-07	-3.204840e-10	-2.176401e+00	-2.494486e+01
1.790000e-06	-2.668137e-07	-3.081062e-10	-1.851054e+00	-2.411296e+01
1.800000e-06	-2.199228e-07	-2.924545e-10	-1.525743e+00	-2.326890e+01
1.810000e-06	-1.729583e-07	-2.773030e-10	-1.199921e+00	-2.241266e+01
1.820000e-06	-1.259715e-07	-2.640448e-10	-8.739437e-01	-2.154429e+01
1.830000e-06	-7.902271e-08	-2.515465e-10	-5.482301e-01	-2.066384e+01
1.840000e-06	-3.208725e-08	-2.403740e-10	-2.226094e-01	-1.977139e+01
1.850000e-06	1.492087e-08	-2.282477e-10	1.035155e-01	-1.886703e+01
1.860000e-06	6.194593e-08	-2.182952e-10	4.297578e-01	-1.795092e+01
1.870000e-06	1.088723e-07	-2.077115e-10	7.553157e-01	-1.702320e+01
1.880000e-06	1.557272e-07	-1.952900e-10	1.080377e+00	-1.608407e+01
1.890000e-06	2.026094e-07	-1.825136e-10	1.405629e+00	-1.513375e+01
1.900000e-06	2.494644e-07	-1.680819e-10	1.730691e+00	-1.417250e+01
1.910000e-06	2.963119e-07	-1.546203e-10	2.055702e+00	-1.320059e+01
1.920000e-06	3.432283e-07	-1.404794e-10	2.381190e+00	-1.221834e+01
1.930000e-06	3.901689e-07	-1.285118e-10	2.706847e+00	-1.122610e+01
1.940000e-06	4.370054e-07	-1.154218e-10	3.031781e+00	-1.022422e+01
1.950000e-06	4.837403e-07	-1.038355e-10	3.356010e+00	-9.213129e+00
1.960000e-06	5.304295e-07	-9.452443e-11	3.679923e+00	-8.193243e+00
1.970000e-06	5.771154e-07	-8.486423e-11	4.003812e+00	-7.165024e+00
1.980000e-06	6.237855e-07	-7.112761e-11	4.327591e+00	-6.128957e+00
1.990000e-06	6.702757e-07	-5.492740e-11	4.650123e+00	-5.085554e+00
2.000000e-06	7.167039e-07	-3.832984e-11	4.972225e+00	-4.035350e+00
2.010000e-06	7.631533e-07	-2.177557e-11	5.294474e+00	-2.978902e+00
2.020000e-06	8.095763e-07	-6.821300e-12	5.616539e+00	-1.916790e+00
2.030000e-06	8.559290e-07	5.486761e-12	5.938117e+00	-8.496116e-01
2.040000e-06	9.021689e-07	1.815506e-11	6.258912e+00	2.220181e-01
2.050000e-06	9.483503e-07	3.033891e-11	6.579302e+00	1.297468e+00
2.060000e-06	9.944316e-07	4.311433e-11	6.898997e+00	2.376096e+00
2.070000e-06	1.040404e-06	5.803665e-11	7.217938e+00	3.457245e+00
2.080000e-06	1.086329e-06	7.552448e-11	7.536547e+00	4.540252e+00
2.090000e-06	1.132174e-06	9.214117e-11	7.854604e+00	5.624447e+00
2.100000e-06	1.177965e-06	1.061305e-10	8.172284e+00	6.709156e+00
2.110000e-06	1.223730e-06	1.201855e-10	8.489784e+00	7.793702e+00
2.120000e-06	1.269405e-06	1.348820e-10	8.806657e+00	8.877409e+00
2.130000e-06	1.315021e-06	1.497896e-10	9.123128e+00	9.959604e+00
2.140000e-06	1.360545e-06	1.646841e-10	9.438952e+00	1.103962e+01
2.150000e-06	1.405913e-06	1.791626e-10	9.753701e+00	1.211679e+01
2.160000e-06	1.451237e-06	1.926652e-10	1.006814e+01	1.319047e+01
2.170000e-06	1.496558e-06	2.075507e-10	1.038256e+01	1.426001e+01
2.180000e-06	1.541775e-06	2.234094e-10	1.069626e+01	1.532478e+01
2.190000e-06	1.586787e-06	2.394234e-10	1.100854e+01	1.638418e+01
2.200000e-06	1.631611e-06	2.554843e-10	1.131951e+01	1.743761e+01
2.210000e-06	1.676319e-06	2.706186e-10	1.162968e+01	1.848449e+01
2.220000e-06	1.720907e-06	2.845136e-10	1.193901e+01	1.952426e+01
2.230000e-06	1.765342e-06	2.979172e-10	1.224728e+01	2.055638e+01
2.240000e-06	1.809649e-06	3.103517e-10	1.255467e+01	2.158035e+01
2.250000e-06	1.853851e-06	3.227976e-10	1.286133e+01	2.259566e+01
2.260000e-06	1.897877e-06	3.352190e-10	1.316677e+01	2.360186e+01
2.270000e-06	1.941780e-06	3.494786e-10	1.347135e+01	2.459850e+01
2.280000e-06	1.985589e-06	3.637269e-10	1.377528e+01	2.558516e+01
2.290000e-06	2.029307e-06	3.774992e-10	1.407858e+01	2.656146e+01
2.300000e-06	2.073020e-06	3.902266e-10	1.438184e+01	2.752703e+01
2.310000e-06	2.116691e-06	4.033191e-10	1.468481e+01	2.848153e+01
2.320000e-06	2.160297e-06	4.167855e-10	1.498733e+01	2.942465e+01
2.330000e-06	2.203824e-06	4.288689e-10	1.528931e+01	3.035611e+01
2.340000e-06	2.247213e-06	4.399731e-10	1.559033e+01	3.127564e+01
2.350000e-06	2.290454e-06	4.516143e-10	1.589031e+01	3.218302e+01
2.360000e-06	2.333528e-06	4.639282e-10	1.618915e+01	3.307802e+01
2.370000e-06	2.376424e-06	4.761551e-10	1.648674e+01	3.396047e+01
2.380000e-06	2.419159e-06	4.883273e-10	1.678323e+01	3.483021e+01
2.390000e-06	2.461614e-06	5.007709e-10	1.707776e+01	3.568708e+01
2.400000e-06	2.503675e-06	5.124880e-10	1.736957e+01	3.653097e+01
2.410000e-06	2.545406e-06	5.231837e-10	1.765908e+01	3.736179e+01
2.420000e-06	2.586790e-06	5.348400e-10	1.794618e+01	3.817945e+01
2.430000e-06	2.627832e-06	5.467122e-10	1.823092e+01	3.898389e+01
2.440000e-06	2.668666e-06	5.581179e-10	1.851421e+01	3.977507e+01
2.450000e-06	2.709267e-06	5.723363e-10	1.879588e+01	4.055295e+01
2.460000e-06	2.749559e-06	5.889393e-10	1.907541e+01	4.131753e+01
2.470000e-06	2.789707e-06	6.012722e-10	1.935395e+01	4.206881e+01
2.480000e-06	2.829742e-06	6.089509e-10	1.963170e+01	4.280679e+01
2.490000e-06	2.869609e-06	6.152961e-10	1.990828e+01	4.353150e+01
2.500000e-06	2.909323e-06	6.233630e-10	2.018380e+01	4.424298e+01
2.510000e-06	2.948854e-06	6.333198e-10	2.045805e+01	4.494127e+01
2.520000e-06	2.988232e-06	6.446153e-10	2.073124e+01	4.562642e+01
2.530000e-06	3.027486e-06	6.568589e-10	2.100357e+01	4.629850e+01
2.540000e-06	3.066567e-06	6.672577e-10	2.127470e+01	4.695757e+01
2.550000e-06	3.105452e-06	6.737971e-10	2.154447e+01	4.760370e+01
2.560000e-06	3.144115e-06	6.817061e-10	2.181270e+01	4.823698e+01
2.570000e-06	3.182538e-06	6.893986e-10	2.207927e+01	4.885748e+01
2.580000e-06	3.220697e-06	6.963722e-10	2.234400e+01	4.946531e+01
2.590000e-06	3.258621e-06	7.016243e-10	2.260710e+01	5.006055e+01
2.600000e-06	3.296368e-06	7.060117e-10	2.286897e+01	5.064329e+01
2.610000e-06	3.333959e-06	7.141776e-10	2.312976e+01	5.121364e+01
2.620000e-06	3.371309e-06	7.238616e-10	2.338889e+01	5.177170e+01
2.630000e-06	3.408428e-06	7.364001e-10	2.364640e+01	5.231759e+01
2.640000e-06	3.445346e-06	7.458646e-10	2.390253e+01	5.285139e+01
2.650000e-06	3.481901e-06	7.515512e-10	2.415614e+01	5.337324e+01
2.660000e-06	3.518151e-06	7.545983e-10	2.440762e+01	5.388325e+01
2.670000e-06	3.554155e-06	7.569421e-10	2.465741e+01	5.438153e+01
2.680000e-06	3.589989e-06	7.597079e-10	2.490601e+01	5.486821e+01
2.690000e-06	3.625695e-06	7.661051e-10	2.515373e+01	5.534342e+01
2.700000e-06	3.661270e-06	7.774693e-10	2.540053e+01	5.580728e+01
2.710000e-06	3.696733e-06	7.892338e-10	2.564656e+01	5.625993e+01
2.720000e-06	3.731991e-06	8.001056e-10	2.589117e+01	5.670151e+01
2.730000e-06	3.767058e-06	8.112493e-10	2.613445e+01	5.713216e+01
2.740000e-06	3.801796e-06	8.191163e-10	2.637544e+01	5.755204e+01
2.750000e-06	3.836147e-06	8.203319e-10	2.661376e+01	5.796128e+01
2.760000e-06	3.870084e-06	8.203507e-10	2.684920e+01	5.836005e+01
2.770000e-06	3.903485e-06	8.252001e-10	2.708093e+01	5.874852e+01
2.780000e-06	3.936414e-06	8.338882e-10	2.730938e+01	5.912685e+01
2.790000e-06	3.968853e-06	8.435373e-10	2.753442e+01	5.949521e+01
2.800000e-06	4.000921e-06	8.524287e-10	2.775690e+01	5.985378e+01
2.810000e-06	4.032841e-06	8.613461e-10	2.797835e+01	6.020276e+01
2.820000e-06	4.064586e-06	8.680265e-10	2.819859e+01	6.054232e+01
2.830000e-06	4.096138e-06	8.718397e-10	2.841748e+01	6.087266e+01
2.840000e-06	4.127573e-06	8.747875e-10	2.863557e+01	6.119399e+01
2.850000e-06	4.158722e-06	8.764668e-10	2.885166e+01	6.150650e+01
2.860000e-06	4.189592e-06	8.810213e-10	2.906583e+01	6.181041e+01
2.870000e-06	4.220117e-06	8.856217e-10	2.927760e+01	6.210593e+01
2.880000e-06	4.250255e-06	8.910635e-10	2.948669e+01	6.239327e+01
2.890000e-06	4.280171e-06	8.993806e-10	2.969424e+01	6.267266e+01
2.900000e-06	4.309788e-06	9.073957e-10	2.989971e+01	6.294431e+01
