# Temperatura_=_-0.3
# Concentracion g/m^3_=_1620.0
# C_Vs_to_Am_M_A/Vsm_=_65563218390.804596
# pendiente_HvsI_1/m_=_3716.3
# ordenada_HvsI_A/m_=_1297.0
# frecuencia_Hz_=_135100.1539336452

Tiempo_(s)	Campo_(V.s)	Magnetizacion_(V.s)	Campo_(kA/m)	Magnetizacion_(A/m)
0.000000e+00	-5.513827e-06	-1.445790e-09	-3.836702e+01	-9.319287e+01
1.000000e-08	-5.514048e-06	-1.448701e-09	-3.836856e+01	-9.320527e+01
2.000000e-08	-5.513994e-06	-1.451124e-09	-3.836819e+01	-9.321621e+01
3.000000e-08	-5.513593e-06	-1.451169e-09	-3.836540e+01	-9.322558e+01
4.000000e-08	-5.512734e-06	-1.447138e-09	-3.835942e+01	-9.323326e+01
5.000000e-08	-5.511406e-06	-1.442859e-09	-3.835018e+01	-9.323911e+01
6.000000e-08	-5.509553e-06	-1.446483e-09	-3.833729e+01	-9.324298e+01
7.000000e-08	-5.507131e-06	-1.465239e-09	-3.832044e+01	-9.324471e+01
8.000000e-08	-5.504143e-06	-1.461094e-09	-3.829964e+01	-9.324412e+01
9.000000e-08	-5.500562e-06	-1.394816e-09	-3.827472e+01	-9.324104e+01
1.000000e-07	-5.496520e-06	-1.358577e-09	-3.824660e+01	-9.323527e+01
1.100000e-07	-5.492204e-06	-1.453351e-09	-3.821657e+01	-9.322665e+01
1.200000e-07	-5.487661e-06	-1.526590e-09	-3.818495e+01	-9.321497e+01
1.300000e-07	-5.482834e-06	-1.424565e-09	-3.815137e+01	-9.320006e+01
1.400000e-07	-5.477683e-06	-1.336614e-09	-3.811552e+01	-9.318173e+01
1.500000e-07	-5.472182e-06	-1.403799e-09	-3.807724e+01	-9.315981e+01
1.600000e-07	-5.466236e-06	-1.505198e-09	-3.803587e+01	-9.313412e+01
1.700000e-07	-5.459886e-06	-1.447717e-09	-3.799169e+01	-9.310451e+01
1.800000e-07	-5.453183e-06	-1.352562e-09	-3.794505e+01	-9.307082e+01
1.900000e-07	-5.446104e-06	-1.426621e-09	-3.789578e+01	-9.303293e+01
2.000000e-07	-5.438678e-06	-1.490110e-09	-3.784411e+01	-9.299070e+01
2.100000e-07	-5.430999e-06	-1.472978e-09	-3.779068e+01	-9.294404e+01
2.200000e-07	-5.423096e-06	-1.400028e-09	-3.773569e+01	-9.289283e+01
2.300000e-07	-5.414861e-06	-1.442667e-09	-3.767839e+01	-9.283702e+01
2.400000e-07	-5.406095e-06	-1.488397e-09	-3.761739e+01	-9.277654e+01
2.500000e-07	-5.396750e-06	-1.484798e-09	-3.755236e+01	-9.271134e+01
2.600000e-07	-5.386841e-06	-1.435013e-09	-3.748341e+01	-9.264140e+01
2.700000e-07	-5.376338e-06	-1.445990e-09	-3.741033e+01	-9.256671e+01
2.800000e-07	-5.365318e-06	-1.467135e-09	-3.733365e+01	-9.248728e+01
2.900000e-07	-5.353866e-06	-1.454589e-09	-3.725396e+01	-9.240313e+01
3.000000e-07	-5.341974e-06	-1.420714e-09	-3.717122e+01	-9.231429e+01
3.100000e-07	-5.329678e-06	-1.419458e-09	-3.708565e+01	-9.222082e+01
3.200000e-07	-5.317066e-06	-1.451247e-09	-3.699790e+01	-9.212278e+01
3.300000e-07	-5.304116e-06	-1.434727e-09	-3.690779e+01	-9.202025e+01
3.400000e-07	-5.290681e-06	-1.399263e-09	-3.681430e+01	-9.191330e+01
3.500000e-07	-5.276783e-06	-1.402794e-09	-3.671759e+01	-9.180202e+01
3.600000e-07	-5.262547e-06	-1.445389e-09	-3.661854e+01	-9.168651e+01
3.700000e-07	-5.247730e-06	-1.407642e-09	-3.651544e+01	-9.156688e+01
3.800000e-07	-5.232273e-06	-1.394699e-09	-3.640788e+01	-9.144322e+01
3.900000e-07	-5.216414e-06	-1.437842e-09	-3.629753e+01	-9.131564e+01
4.000000e-07	-5.200251e-06	-1.422238e-09	-3.618506e+01	-9.118424e+01
4.100000e-07	-5.183604e-06	-1.334362e-09	-3.606922e+01	-9.104912e+01
4.200000e-07	-5.166467e-06	-1.391473e-09	-3.594998e+01	-9.091036e+01
4.300000e-07	-5.149110e-06	-1.458163e-09	-3.582920e+01	-9.076806e+01
4.400000e-07	-5.131476e-06	-1.376664e-09	-3.570650e+01	-9.062230e+01
4.500000e-07	-5.113438e-06	-1.333961e-09	-3.558098e+01	-9.047314e+01
4.600000e-07	-5.095007e-06	-1.444539e-09	-3.545274e+01	-9.032063e+01
4.700000e-07	-5.076190e-06	-1.409467e-09	-3.532180e+01	-9.016484e+01
4.800000e-07	-5.056967e-06	-1.311512e-09	-3.518805e+01	-9.000579e+01
4.900000e-07	-5.037430e-06	-1.374223e-09	-3.505210e+01	-8.984350e+01
5.000000e-07	-5.017677e-06	-1.426145e-09	-3.491465e+01	-8.967797e+01
5.100000e-07	-4.997662e-06	-1.319206e-09	-3.477538e+01	-8.950921e+01
5.200000e-07	-4.977379e-06	-1.337510e-09	-3.463425e+01	-8.933720e+01
5.300000e-07	-4.956865e-06	-1.417544e-09	-3.449150e+01	-8.916189e+01
5.400000e-07	-4.936021e-06	-1.338364e-09	-3.434646e+01	-8.898324e+01
5.500000e-07	-4.914801e-06	-1.288303e-09	-3.419881e+01	-8.880120e+01
5.600000e-07	-4.893246e-06	-1.388693e-09	-3.404882e+01	-8.861569e+01
5.700000e-07	-4.871338e-06	-1.368206e-09	-3.389637e+01	-8.842663e+01
5.800000e-07	-4.849120e-06	-1.284894e-09	-3.374178e+01	-8.823394e+01
5.900000e-07	-4.826584e-06	-1.340651e-09	-3.358496e+01	-8.803752e+01
6.000000e-07	-4.803650e-06	-1.364836e-09	-3.342538e+01	-8.783726e+01
6.100000e-07	-4.780310e-06	-1.283921e-09	-3.326298e+01	-8.763307e+01
6.200000e-07	-4.756796e-06	-1.295710e-09	-3.309935e+01	-8.742483e+01
6.300000e-07	-4.733125e-06	-1.342098e-09	-3.293464e+01	-8.721243e+01
6.400000e-07	-4.709111e-06	-1.292861e-09	-3.276754e+01	-8.699577e+01
6.500000e-07	-4.684747e-06	-1.288316e-09	-3.259801e+01	-8.677474e+01
6.600000e-07	-4.660056e-06	-1.328022e-09	-3.242621e+01	-8.654925e+01
6.700000e-07	-4.634844e-06	-1.301141e-09	-3.225077e+01	-8.631921e+01
6.800000e-07	-4.609147e-06	-1.272109e-09	-3.207196e+01	-8.608452e+01
6.900000e-07	-4.583160e-06	-1.305247e-09	-3.189114e+01	-8.584513e+01
7.000000e-07	-4.556686e-06	-1.293303e-09	-3.170693e+01	-8.560097e+01
7.100000e-07	-4.529680e-06	-1.269812e-09	-3.151900e+01	-8.535199e+01
7.200000e-07	-4.502276e-06	-1.282222e-09	-3.132832e+01	-8.509817e+01
7.300000e-07	-4.474626e-06	-1.282389e-09	-3.113592e+01	-8.483948e+01
7.400000e-07	-4.446793e-06	-1.256203e-09	-3.094225e+01	-8.457594e+01
7.500000e-07	-4.418779e-06	-1.269988e-09	-3.074732e+01	-8.430755e+01
7.600000e-07	-4.390515e-06	-1.273653e-09	-3.055065e+01	-8.403435e+01
7.700000e-07	-4.361945e-06	-1.258560e-09	-3.035185e+01	-8.375640e+01
7.800000e-07	-4.333064e-06	-1.259462e-09	-3.015089e+01	-8.347377e+01
7.900000e-07	-4.303813e-06	-1.263704e-09	-2.994735e+01	-8.318654e+01
8.000000e-07	-4.274249e-06	-1.237020e-09	-2.974163e+01	-8.289482e+01
8.100000e-07	-4.244463e-06	-1.233276e-09	-2.953437e+01	-8.259872e+01
8.200000e-07	-4.214405e-06	-1.243288e-09	-2.932522e+01	-8.229837e+01
8.300000e-07	-4.184055e-06	-1.230114e-09	-2.911403e+01	-8.199393e+01
8.400000e-07	-4.153445e-06	-1.215075e-09	-2.890104e+01	-8.168554e+01
8.500000e-07	-4.122601e-06	-1.228418e-09	-2.868642e+01	-8.137337e+01
8.600000e-07	-4.091466e-06	-1.228227e-09	-2.846977e+01	-8.105758e+01
8.700000e-07	-4.060043e-06	-1.213050e-09	-2.825112e+01	-8.073836e+01
8.800000e-07	-4.028392e-06	-1.215263e-09	-2.803088e+01	-8.041587e+01
8.900000e-07	-3.996539e-06	-1.213319e-09	-2.780923e+01	-8.009029e+01
9.000000e-07	-3.964509e-06	-1.190880e-09	-2.758636e+01	-7.976180e+01
9.100000e-07	-3.932194e-06	-1.183367e-09	-2.736150e+01	-7.943056e+01
9.200000e-07	-3.899551e-06	-1.189831e-09	-2.713436e+01	-7.909672e+01
9.300000e-07	-3.866633e-06	-1.175293e-09	-2.690531e+01	-7.876044e+01
9.400000e-07	-3.833414e-06	-1.164588e-09	-2.667416e+01	-7.842184e+01
9.500000e-07	-3.799739e-06	-1.172001e-09	-2.643984e+01	-7.808105e+01
9.600000e-07	-3.765512e-06	-1.171691e-09	-2.620168e+01	-7.773815e+01
9.700000e-07	-3.730764e-06	-1.158312e-09	-2.595988e+01	-7.739323e+01
9.800000e-07	-3.695606e-06	-1.159395e-09	-2.571525e+01	-7.704634e+01
9.900000e-07	-3.660250e-06	-1.155123e-09	-2.546923e+01	-7.669751e+01
1.000000e-06	-3.624738e-06	-1.138152e-09	-2.522212e+01	-7.634674e+01
1.010000e-06	-3.589018e-06	-1.128069e-09	-2.497357e+01	-7.599401e+01
1.020000e-06	-3.553145e-06	-1.131121e-09	-2.472395e+01	-7.563926e+01
1.030000e-06	-3.517140e-06	-1.121781e-09	-2.447342e+01	-7.528240e+01
1.040000e-06	-3.480990e-06	-1.114918e-09	-2.422188e+01	-7.492334e+01
1.050000e-06	-3.444606e-06	-1.115111e-09	-2.396871e+01	-7.456191e+01
1.060000e-06	-3.407929e-06	-1.111170e-09	-2.371350e+01	-7.419795e+01
1.070000e-06	-3.371063e-06	-1.098564e-09	-2.345696e+01	-7.383126e+01
1.080000e-06	-3.333979e-06	-1.093496e-09	-2.319893e+01	-7.346161e+01
1.090000e-06	-3.296572e-06	-1.084808e-09	-2.293864e+01	-7.308872e+01
1.100000e-06	-3.258918e-06	-1.070673e-09	-2.267663e+01	-7.271233e+01
1.110000e-06	-3.221071e-06	-1.059896e-09	-2.241328e+01	-7.233212e+01
1.120000e-06	-3.182939e-06	-1.054391e-09	-2.214794e+01	-7.194776e+01
1.130000e-06	-3.144538e-06	-1.045498e-09	-2.188073e+01	-7.155890e+01
1.140000e-06	-3.105997e-06	-1.040312e-09	-2.161255e+01	-7.116516e+01
1.150000e-06	-3.067229e-06	-1.038869e-09	-2.134279e+01	-7.076618e+01
1.160000e-06	-3.028231e-06	-1.032824e-09	-2.107143e+01	-7.036154e+01
1.170000e-06	-2.989045e-06	-1.022773e-09	-2.079876e+01	-6.995085e+01
1.180000e-06	-2.949669e-06	-1.013301e-09	-2.052477e+01	-6.953369e+01
1.190000e-06	-2.910127e-06	-1.002731e-09	-2.024963e+01	-6.910966e+01
1.200000e-06	-2.870413e-06	-9.909880e-10	-1.997328e+01	-6.867833e+01
1.210000e-06	-2.830599e-06	-9.849989e-10	-1.969624e+01	-6.823931e+01
1.220000e-06	-2.790669e-06	-9.790000e-10	-1.941840e+01	-6.779219e+01
1.230000e-06	-2.750643e-06	-9.727506e-10	-1.913988e+01	-6.733658e+01
1.240000e-06	-2.710467e-06	-9.673540e-10	-1.886032e+01	-6.687209e+01
1.250000e-06	-2.669972e-06	-9.620103e-10	-1.857854e+01	-6.639837e+01
1.260000e-06	-2.629244e-06	-9.539232e-10	-1.829515e+01	-6.591507e+01
1.270000e-06	-2.588342e-06	-9.465568e-10	-1.801054e+01	-6.542186e+01
1.280000e-06	-2.547206e-06	-9.395946e-10	-1.772430e+01	-6.491845e+01
1.290000e-06	-2.505853e-06	-9.305848e-10	-1.743655e+01	-6.440454e+01
1.300000e-06	-2.464237e-06	-9.190870e-10	-1.714697e+01	-6.387989e+01
1.310000e-06	-2.422280e-06	-9.082260e-10	-1.685502e+01	-6.334426e+01
1.320000e-06	-2.380031e-06	-8.990428e-10	-1.656104e+01	-6.279746e+01
1.330000e-06	-2.337548e-06	-8.906315e-10	-1.626543e+01	-6.223931e+01
1.340000e-06	-2.294805e-06	-8.811107e-10	-1.596801e+01	-6.166966e+01
1.350000e-06	-2.251828e-06	-8.728632e-10	-1.566896e+01	-6.108840e+01
1.360000e-06	-2.208587e-06	-8.629604e-10	-1.536808e+01	-6.049543e+01
1.370000e-06	-2.165121e-06	-8.551674e-10	-1.506562e+01	-5.989068e+01
1.380000e-06	-2.121505e-06	-8.473906e-10	-1.476213e+01	-5.927410e+01
1.390000e-06	-2.077751e-06	-8.394382e-10	-1.445768e+01	-5.864567e+01
1.400000e-06	-2.033944e-06	-8.284191e-10	-1.415285e+01	-5.800538e+01
1.410000e-06	-1.990114e-06	-8.150912e-10	-1.384787e+01	-5.735325e+01
1.420000e-06	-1.946224e-06	-8.011551e-10	-1.354247e+01	-5.668929e+01
1.430000e-06	-1.902233e-06	-7.878125e-10	-1.323637e+01	-5.601356e+01
1.440000e-06	-1.858130e-06	-7.767215e-10	-1.292948e+01	-5.532608e+01
1.450000e-06	-1.813914e-06	-7.691516e-10	-1.262181e+01	-5.462691e+01
1.460000e-06	-1.769559e-06	-7.630617e-10	-1.231318e+01	-5.391610e+01
1.470000e-06	-1.725115e-06	-7.552848e-10	-1.200392e+01	-5.319369e+01
1.480000e-06	-1.680540e-06	-7.418370e-10	-1.169375e+01	-5.245974e+01
1.490000e-06	-1.635934e-06	-7.256256e-10	-1.138337e+01	-5.171427e+01
1.500000e-06	-1.591276e-06	-7.094480e-10	-1.107262e+01	-5.095732e+01
1.510000e-06	-1.546426e-06	-6.944648e-10	-1.076054e+01	-5.018887e+01
1.520000e-06	-1.501460e-06	-6.794531e-10	-1.044766e+01	-4.940893e+01
1.530000e-06	-1.456402e-06	-6.651078e-10	-1.013413e+01	-4.861746e+01
1.540000e-06	-1.411226e-06	-6.530659e-10	-9.819777e+00	-4.781440e+01
1.550000e-06	-1.365923e-06	-6.406161e-10	-9.504540e+00	-4.699968e+01
1.560000e-06	-1.320571e-06	-6.295965e-10	-9.188965e+00	-4.617319e+01
1.570000e-06	-1.275118e-06	-6.182865e-10	-8.872693e+00	-4.533478e+01
1.580000e-06	-1.229520e-06	-6.049857e-10	-8.555402e+00	-4.448430e+01
1.590000e-06	-1.183842e-06	-5.895766e-10	-8.237566e+00	-4.362154e+01
1.600000e-06	-1.138086e-06	-5.744801e-10	-7.919178e+00	-4.274629e+01
1.610000e-06	-1.092158e-06	-5.600282e-10	-7.599599e+00	-4.185827e+01
1.620000e-06	-1.046118e-06	-5.446630e-10	-7.279232e+00	-4.095721e+01
1.630000e-06	-1.000035e-06	-5.310446e-10	-6.958575e+00	-4.004279e+01
1.640000e-06	-9.539245e-07	-5.182009e-10	-6.637721e+00	-3.911468e+01
1.650000e-06	-9.077646e-07	-5.027855e-10	-6.316525e+00	-3.817251e+01
1.660000e-06	-8.615333e-07	-4.883077e-10	-5.994833e+00	-3.721590e+01
1.670000e-06	-8.153220e-07	-4.726383e-10	-5.673279e+00	-3.624445e+01
1.680000e-06	-7.690523e-07	-4.574103e-10	-5.351320e+00	-3.525776e+01
1.690000e-06	-7.227358e-07	-4.434314e-10	-5.029034e+00	-3.425539e+01
1.700000e-06	-6.763754e-07	-4.320824e-10	-4.706443e+00	-3.323693e+01
1.710000e-06	-6.298759e-07	-4.166330e-10	-4.382884e+00	-3.220195e+01
1.720000e-06	-5.833785e-07	-3.960243e-10	-4.059340e+00	-3.115004e+01
1.730000e-06	-5.369152e-07	-3.753055e-10	-3.736033e+00	-3.008079e+01
1.740000e-06	-4.904228e-07	-3.562454e-10	-3.412523e+00	-2.899381e+01
1.750000e-06	-4.438419e-07	-3.392168e-10	-3.088398e+00	-2.788874e+01
1.760000e-06	-3.972058e-07	-3.250449e-10	-2.763889e+00	-2.676525e+01
1.770000e-06	-3.505759e-07	-3.101854e-10	-2.439422e+00	-2.562303e+01
1.780000e-06	-3.039087e-07	-2.940489e-10	-2.114697e+00	-2.446183e+01
1.790000e-06	-2.572263e-07	-2.771131e-10	-1.789865e+00	-2.328143e+01
1.800000e-06	-2.105293e-07	-2.566385e-10	-1.464932e+00	-2.208168e+01
1.810000e-06	-1.637990e-07	-2.351505e-10	-1.139768e+00	-2.086247e+01
1.820000e-06	-1.170415e-07	-2.147797e-10	-8.144135e-01	-1.962377e+01
1.830000e-06	-7.032791e-08	-1.959857e-10	-4.893648e-01	-1.836561e+01
1.840000e-06	-2.366420e-08	-1.774061e-10	-1.646633e-01	-1.708808e+01
1.850000e-06	2.302915e-08	-1.603360e-10	1.602444e-01	-1.579137e+01
1.860000e-06	6.978654e-08	-1.458717e-10	4.855978e-01	-1.447574e+01
1.870000e-06	1.166310e-07	-1.300444e-10	8.115566e-01	-1.314152e+01
1.880000e-06	1.634953e-07	-1.112338e-10	1.137654e+00	-1.178913e+01
1.890000e-06	2.103198e-07	-9.133533e-11	1.463474e+00	-1.041909e+01
1.900000e-06	2.571295e-07	-6.986199e-11	1.789192e+00	-9.031995e+00
1.910000e-06	3.038616e-07	-4.790317e-11	2.114369e+00	-7.628525e+00
1.920000e-06	3.505625e-07	-2.633661e-11	2.439329e+00	-6.209453e+00
1.930000e-06	3.972848e-07	-7.199975e-12	2.764439e+00	-4.775633e+00
1.940000e-06	4.439323e-07	1.079886e-11	3.089027e+00	-3.328004e+00
1.950000e-06	4.904592e-07	2.552998e-11	3.412776e+00	-1.867586e+00
1.960000e-06	5.369529e-07	3.999625e-11	3.736295e+00	-3.954753e-01
1.970000e-06	5.834359e-07	5.786560e-11	4.059739e+00	1.087157e+00
1.980000e-06	6.299031e-07	8.061022e-11	4.383074e+00	2.579071e+00
1.990000e-06	6.763556e-07	1.059798e-10	4.706305e+00	4.078965e+00
2.000000e-06	7.227487e-07	1.311478e-10	5.029123e+00	5.585478e+00
2.010000e-06	7.690507e-07	1.547480e-10	5.351309e+00	7.097199e+00
2.020000e-06	8.153125e-07	1.758285e-10	5.673213e+00	8.612672e+00
2.030000e-06	8.614864e-07	1.951339e-10	5.994506e+00	1.013040e+01
2.040000e-06	9.075681e-07	2.138248e-10	6.315158e+00	1.164887e+01
2.050000e-06	9.536064e-07	2.308398e-10	6.635508e+00	1.316654e+01
2.060000e-06	9.995471e-07	2.492374e-10	6.955178e+00	1.468184e+01
2.070000e-06	1.045427e-06	2.703800e-10	7.274425e+00	1.619321e+01
2.080000e-06	1.091259e-06	2.933301e-10	7.593340e+00	1.769911e+01
2.090000e-06	1.137045e-06	3.168794e-10	7.911936e+00	1.919798e+01
2.100000e-06	1.182757e-06	3.383802e-10	8.230012e+00	2.068830e+01
2.110000e-06	1.228390e-06	3.589830e-10	8.547544e+00	2.216858e+01
2.120000e-06	1.273927e-06	3.792909e-10	8.864405e+00	2.363736e+01
2.130000e-06	1.319351e-06	3.990794e-10	9.180482e+00	2.509323e+01
2.140000e-06	1.364732e-06	4.176673e-10	9.496258e+00	2.653483e+01
2.150000e-06	1.410068e-06	4.355629e-10	9.811720e+00	2.796086e+01
2.160000e-06	1.455258e-06	4.531401e-10	1.012617e+01	2.937010e+01
2.170000e-06	1.500231e-06	4.710834e-10	1.043910e+01	3.076138e+01
2.180000e-06	1.545069e-06	4.885362e-10	1.075110e+01	3.213362e+01
2.190000e-06	1.589785e-06	5.053527e-10	1.106225e+01	3.348583e+01
2.200000e-06	1.634398e-06	5.220880e-10	1.137268e+01	3.481710e+01
2.210000e-06	1.678959e-06	5.398858e-10	1.168275e+01	3.612662e+01
2.220000e-06	1.723370e-06	5.586835e-10	1.199178e+01	3.741366e+01
2.230000e-06	1.767633e-06	5.775047e-10	1.229978e+01	3.867760e+01
2.240000e-06	1.811803e-06	5.937363e-10	1.260712e+01	3.991791e+01
2.250000e-06	1.855909e-06	6.080431e-10	1.291402e+01	4.113417e+01
2.260000e-06	1.899896e-06	6.208292e-10	1.322010e+01	4.232604e+01
2.270000e-06	1.943786e-06	6.326757e-10	1.352550e+01	4.349330e+01
2.280000e-06	1.987646e-06	6.455846e-10	1.383070e+01	4.463580e+01
2.290000e-06	2.031460e-06	6.605930e-10	1.413557e+01	4.575351e+01
2.300000e-06	2.075214e-06	6.767033e-10	1.444002e+01	4.684648e+01
2.310000e-06	2.118893e-06	6.928146e-10	1.474396e+01	4.791485e+01
2.320000e-06	2.162447e-06	7.086607e-10	1.504702e+01	4.895882e+01
2.330000e-06	2.205863e-06	7.232252e-10	1.534912e+01	4.997871e+01
2.340000e-06	2.249200e-06	7.350253e-10	1.565068e+01	5.097488e+01
2.350000e-06	2.292418e-06	7.466432e-10	1.595140e+01	5.194777e+01
2.360000e-06	2.335288e-06	7.577507e-10	1.624970e+01	5.289787e+01
2.370000e-06	2.377847e-06	7.684643e-10	1.654584e+01	5.382574e+01
2.380000e-06	2.420235e-06	7.801037e-10	1.684080e+01	5.473198e+01
2.390000e-06	2.462289e-06	7.931387e-10	1.713342e+01	5.561723e+01
2.400000e-06	2.503976e-06	8.070878e-10	1.742349e+01	5.648216e+01
2.410000e-06	2.545319e-06	8.206614e-10	1.771117e+01	5.732747e+01
2.420000e-06	2.586321e-06	8.363262e-10	1.799647e+01	5.815388e+01
2.430000e-06	2.627064e-06	8.523441e-10	1.827998e+01	5.896211e+01
2.440000e-06	2.667607e-06	8.657936e-10	1.856209e+01	5.975291e+01
2.450000e-06	2.707971e-06	8.769230e-10	1.884295e+01	6.052700e+01
2.460000e-06	2.748139e-06	8.863240e-10	1.912246e+01	6.128511e+01
2.470000e-06	2.788179e-06	8.936119e-10	1.940107e+01	6.202795e+01
2.480000e-06	2.828089e-06	9.016614e-10	1.967878e+01	6.275622e+01
2.490000e-06	2.867842e-06	9.121878e-10	1.995539e+01	6.347056e+01
2.500000e-06	2.907502e-06	9.254001e-10	2.023136e+01	6.417163e+01
2.510000e-06	2.946998e-06	9.410188e-10	2.050618e+01	6.486001e+01
2.520000e-06	2.986355e-06	9.558953e-10	2.078004e+01	6.553627e+01
2.530000e-06	3.025608e-06	9.667071e-10	2.105318e+01	6.620094e+01
2.540000e-06	3.064527e-06	9.737896e-10	2.132399e+01	6.685448e+01
2.550000e-06	3.103187e-06	9.795203e-10	2.159300e+01	6.749732e+01
2.560000e-06	3.141625e-06	9.866366e-10	2.186046e+01	6.812985e+01
2.570000e-06	3.179748e-06	9.947997e-10	2.212574e+01	6.875239e+01
2.580000e-06	3.217684e-06	1.002607e-09	2.238970e+01	6.936524e+01
2.590000e-06	3.255468e-06	1.010360e-09	2.265262e+01	6.996863e+01
2.600000e-06	3.292995e-06	1.018841e-09	2.291375e+01	7.056274e+01
2.610000e-06	3.330295e-06	1.030030e-09	2.317329e+01	7.114772e+01
2.620000e-06	3.367438e-06	1.042455e-09	2.343175e+01	7.172367e+01
2.630000e-06	3.404336e-06	1.052898e-09	2.368849e+01	7.229063e+01
2.640000e-06	3.440954e-06	1.060670e-09	2.394329e+01	7.284863e+01
2.650000e-06	3.477334e-06	1.065673e-09	2.419643e+01	7.339766e+01
2.660000e-06	3.513531e-06	1.069604e-09	2.444831e+01	7.393765e+01
2.670000e-06	3.549545e-06	1.074138e-09	2.469890e+01	7.446852e+01
2.680000e-06	3.585400e-06	1.079657e-09	2.494840e+01	7.499019e+01
2.690000e-06	3.621128e-06	1.086053e-09	2.519700e+01	7.550251e+01
2.700000e-06	3.656682e-06	1.094303e-09	2.544440e+01	7.600535e+01
2.710000e-06	3.692005e-06	1.104185e-09	2.569019e+01	7.649857e+01
2.720000e-06	3.727089e-06	1.113654e-09	2.593431e+01	7.698200e+01
2.730000e-06	3.761969e-06	1.122376e-09	2.617702e+01	7.745548e+01
2.740000e-06	3.796501e-06	1.130068e-09	2.641730e+01	7.791886e+01
2.750000e-06	3.830433e-06	1.135915e-09	2.665341e+01	7.837198e+01
2.760000e-06	3.863832e-06	1.139810e-09	2.688581e+01	7.881471e+01
2.770000e-06	3.896894e-06	1.143837e-09	2.711587e+01	7.924692e+01
2.780000e-06	3.929530e-06	1.148885e-09	2.734296e+01	7.966850e+01
2.790000e-06	3.961757e-06	1.156050e-09	2.756721e+01	8.007935e+01
2.800000e-06	3.993788e-06	1.164803e-09	2.779009e+01	8.047942e+01
2.810000e-06	4.025694e-06	1.172089e-09	2.801210e+01	8.086867e+01
2.820000e-06	4.057456e-06	1.176726e-09	2.823312e+01	8.124708e+01
2.830000e-06	4.089001e-06	1.179395e-09	2.845261e+01	8.161467e+01
2.840000e-06	4.120302e-06	1.182403e-09	2.867042e+01	8.197149e+01
2.850000e-06	4.151313e-06	1.186857e-09	2.888620e+01	8.231763e+01
2.860000e-06	4.181971e-06	1.192515e-09	2.909953e+01	8.265320e+01
2.870000e-06	4.212370e-06	1.198643e-09	2.931106e+01	8.297833e+01
2.880000e-06	4.242493e-06	1.202731e-09	2.952066e+01	8.329322e+01
2.890000e-06	4.272338e-06	1.206080e-09	2.972833e+01	8.359806e+01
2.900000e-06	4.301862e-06	1.209935e-09	2.993377e+01	8.389310e+01
