# Temperatura_=_-0.2
# Concentracion g/m^3_=_1620.0
# C_Vs_to_Am_M_A/Vsm_=_65563218390.804596
# pendiente_HvsI_1/m_=_3716.3
# ordenada_HvsI_A/m_=_1297.0
# frecuencia_Hz_=_135106.26748504987

Tiempo_(s)	Campo_(V.s)	Magnetizacion_(V.s)	Campo_(kA/m)	Magnetizacion_(A/m)
0.000000e+00	-5.527772e-06	-9.102110e-10	-3.837289e+01	-5.937355e+01
1.000000e-08	-5.528010e-06	-9.089735e-10	-3.837454e+01	-5.936642e+01
2.000000e-08	-5.528002e-06	-9.088689e-10	-3.837448e+01	-5.935839e+01
3.000000e-08	-5.527718e-06	-9.095750e-10	-3.837251e+01	-5.934941e+01
4.000000e-08	-5.526907e-06	-9.092119e-10	-3.836688e+01	-5.933940e+01
5.000000e-08	-5.525561e-06	-9.072704e-10	-3.835754e+01	-5.932829e+01
6.000000e-08	-5.523673e-06	-9.034859e-10	-3.834443e+01	-5.931598e+01
7.000000e-08	-5.521172e-06	-8.979979e-10	-3.832707e+01	-5.930240e+01
8.000000e-08	-5.518151e-06	-8.899289e-10	-3.830610e+01	-5.928744e+01
9.000000e-08	-5.514677e-06	-8.862054e-10	-3.828199e+01	-5.927100e+01
1.000000e-07	-5.510806e-06	-9.041196e-10	-3.825511e+01	-5.925299e+01
1.100000e-07	-5.506569e-06	-9.436299e-10	-3.822570e+01	-5.923330e+01
1.200000e-07	-5.502002e-06	-9.394023e-10	-3.819399e+01	-5.921183e+01
1.300000e-07	-5.497133e-06	-8.582733e-10	-3.816020e+01	-5.918848e+01
1.400000e-07	-5.492003e-06	-8.593402e-10	-3.812458e+01	-5.916316e+01
1.500000e-07	-5.486553e-06	-8.938416e-10	-3.808675e+01	-5.913577e+01
1.600000e-07	-5.480675e-06	-9.126350e-10	-3.804595e+01	-5.910622e+01
1.700000e-07	-5.474420e-06	-8.596134e-10	-3.800253e+01	-5.907444e+01
1.800000e-07	-5.467782e-06	-8.443697e-10	-3.795644e+01	-5.904035e+01
1.900000e-07	-5.460717e-06	-9.275119e-10	-3.790740e+01	-5.900389e+01
2.000000e-07	-5.453257e-06	-9.325686e-10	-3.785562e+01	-5.896500e+01
2.100000e-07	-5.445538e-06	-9.163252e-10	-3.780203e+01	-5.892363e+01
2.200000e-07	-5.437654e-06	-8.873609e-10	-3.774730e+01	-5.887975e+01
2.300000e-07	-5.429440e-06	-9.396119e-10	-3.769028e+01	-5.883333e+01
2.400000e-07	-5.420799e-06	-9.378666e-10	-3.763030e+01	-5.878435e+01
2.500000e-07	-5.411627e-06	-9.286094e-10	-3.756662e+01	-5.873281e+01
2.600000e-07	-5.401751e-06	-9.102067e-10	-3.749807e+01	-5.867872e+01
2.700000e-07	-5.391120e-06	-9.362464e-10	-3.742427e+01	-5.862208e+01
2.800000e-07	-5.379887e-06	-9.262792e-10	-3.734629e+01	-5.856292e+01
2.900000e-07	-5.368361e-06	-9.178449e-10	-3.726629e+01	-5.850127e+01
3.000000e-07	-5.356570e-06	-9.065756e-10	-3.718443e+01	-5.843719e+01
3.100000e-07	-5.344360e-06	-9.115787e-10	-3.709967e+01	-5.837071e+01
3.200000e-07	-5.331712e-06	-9.110964e-10	-3.701187e+01	-5.830189e+01
3.300000e-07	-5.318669e-06	-8.888044e-10	-3.692133e+01	-5.823080e+01
3.400000e-07	-5.305237e-06	-8.773856e-10	-3.682808e+01	-5.815751e+01
3.500000e-07	-5.291480e-06	-8.801915e-10	-3.673259e+01	-5.808208e+01
3.600000e-07	-5.277354e-06	-8.982050e-10	-3.663453e+01	-5.800460e+01
3.700000e-07	-5.262771e-06	-8.775196e-10	-3.653329e+01	-5.792514e+01
3.800000e-07	-5.247711e-06	-8.806966e-10	-3.642875e+01	-5.784377e+01
3.900000e-07	-5.232094e-06	-8.964389e-10	-3.632034e+01	-5.776058e+01
4.000000e-07	-5.216009e-06	-8.881464e-10	-3.620868e+01	-5.767563e+01
4.100000e-07	-5.199481e-06	-8.536911e-10	-3.609394e+01	-5.758901e+01
4.200000e-07	-5.182627e-06	-8.857838e-10	-3.597694e+01	-5.750077e+01
4.300000e-07	-5.165460e-06	-8.955346e-10	-3.585778e+01	-5.741099e+01
4.400000e-07	-5.147910e-06	-8.613395e-10	-3.573594e+01	-5.731973e+01
4.500000e-07	-5.130036e-06	-8.551511e-10	-3.561187e+01	-5.722704e+01
4.600000e-07	-5.111686e-06	-9.101174e-10	-3.548448e+01	-5.713295e+01
4.700000e-07	-5.092842e-06	-8.723507e-10	-3.535367e+01	-5.703752e+01
4.800000e-07	-5.073630e-06	-8.381479e-10	-3.522031e+01	-5.694078e+01
4.900000e-07	-5.054157e-06	-8.734092e-10	-3.508513e+01	-5.684274e+01
5.000000e-07	-5.034519e-06	-8.911833e-10	-3.494880e+01	-5.674342e+01
5.100000e-07	-5.014631e-06	-8.339306e-10	-3.481075e+01	-5.664284e+01
5.200000e-07	-4.994526e-06	-8.587257e-10	-3.467118e+01	-5.654098e+01
5.300000e-07	-4.974112e-06	-8.866045e-10	-3.452947e+01	-5.643784e+01
5.400000e-07	-4.953238e-06	-8.443197e-10	-3.438457e+01	-5.633340e+01
5.500000e-07	-4.931982e-06	-8.324929e-10	-3.423701e+01	-5.622764e+01
5.600000e-07	-4.910426e-06	-8.880742e-10	-3.408737e+01	-5.612053e+01
5.700000e-07	-4.888562e-06	-8.586500e-10	-3.393559e+01	-5.601204e+01
5.800000e-07	-4.866373e-06	-8.188860e-10	-3.378156e+01	-5.590212e+01
5.900000e-07	-4.843873e-06	-8.559669e-10	-3.362537e+01	-5.579072e+01
6.000000e-07	-4.820982e-06	-8.620344e-10	-3.346647e+01	-5.567781e+01
6.100000e-07	-4.797714e-06	-8.142990e-10	-3.330495e+01	-5.556334e+01
6.200000e-07	-4.774205e-06	-8.319584e-10	-3.314175e+01	-5.544724e+01
6.300000e-07	-4.750542e-06	-8.572824e-10	-3.297748e+01	-5.532947e+01
6.400000e-07	-4.726675e-06	-8.196701e-10	-3.281180e+01	-5.520999e+01
6.500000e-07	-4.702402e-06	-8.164622e-10	-3.264330e+01	-5.508874e+01
6.600000e-07	-4.677594e-06	-8.417258e-10	-3.247109e+01	-5.496567e+01
6.700000e-07	-4.652307e-06	-8.222390e-10	-3.229555e+01	-5.484075e+01
6.800000e-07	-4.626610e-06	-8.030997e-10	-3.211717e+01	-5.471393e+01
6.900000e-07	-4.600340e-06	-8.311222e-10	-3.193481e+01	-5.458520e+01
7.000000e-07	-4.573514e-06	-8.233432e-10	-3.174859e+01	-5.445451e+01
7.100000e-07	-4.546350e-06	-8.053167e-10	-3.156001e+01	-5.432185e+01
7.200000e-07	-4.518911e-06	-8.143915e-10	-3.136954e+01	-5.418721e+01
7.300000e-07	-4.491261e-06	-8.212783e-10	-3.117760e+01	-5.405058e+01
7.400000e-07	-4.463447e-06	-7.986286e-10	-3.098452e+01	-5.391196e+01
7.500000e-07	-4.435463e-06	-8.047141e-10	-3.079026e+01	-5.377136e+01
7.600000e-07	-4.407237e-06	-8.102835e-10	-3.059432e+01	-5.362881e+01
7.700000e-07	-4.378641e-06	-7.995302e-10	-3.039581e+01	-5.348431e+01
7.800000e-07	-4.349630e-06	-7.935149e-10	-3.019442e+01	-5.333790e+01
7.900000e-07	-4.320311e-06	-8.044702e-10	-2.999089e+01	-5.318961e+01
8.000000e-07	-4.290776e-06	-7.917247e-10	-2.978587e+01	-5.303949e+01
8.100000e-07	-4.260950e-06	-7.887931e-10	-2.957881e+01	-5.288758e+01
8.200000e-07	-4.230777e-06	-7.956407e-10	-2.936936e+01	-5.273393e+01
8.300000e-07	-4.200370e-06	-7.933934e-10	-2.915828e+01	-5.257859e+01
8.400000e-07	-4.169718e-06	-7.805427e-10	-2.894550e+01	-5.242160e+01
8.500000e-07	-4.138735e-06	-7.882239e-10	-2.873042e+01	-5.226303e+01
8.600000e-07	-4.107389e-06	-7.875162e-10	-2.851282e+01	-5.210291e+01
8.700000e-07	-4.075781e-06	-7.751981e-10	-2.829340e+01	-5.194131e+01
8.800000e-07	-4.044113e-06	-7.747084e-10	-2.807357e+01	-5.177825e+01
8.900000e-07	-4.012328e-06	-7.785482e-10	-2.785292e+01	-5.161379e+01
9.000000e-07	-3.980317e-06	-7.677314e-10	-2.763071e+01	-5.144794e+01
9.100000e-07	-3.948079e-06	-7.622751e-10	-2.740692e+01	-5.128073e+01
9.200000e-07	-3.915511e-06	-7.651085e-10	-2.718083e+01	-5.111218e+01
9.300000e-07	-3.882499e-06	-7.567823e-10	-2.695167e+01	-5.094229e+01
9.400000e-07	-3.848947e-06	-7.532745e-10	-2.671876e+01	-5.077105e+01
9.500000e-07	-3.814942e-06	-7.605484e-10	-2.648270e+01	-5.059842e+01
9.600000e-07	-3.780529e-06	-7.599151e-10	-2.624381e+01	-5.042439e+01
9.700000e-07	-3.745687e-06	-7.493309e-10	-2.600195e+01	-5.024890e+01
9.800000e-07	-3.710507e-06	-7.526476e-10	-2.575773e+01	-5.007187e+01
9.900000e-07	-3.675077e-06	-7.522587e-10	-2.551178e+01	-4.989324e+01
1.000000e-06	-3.639500e-06	-7.430221e-10	-2.526481e+01	-4.971289e+01
1.010000e-06	-3.603799e-06	-7.380342e-10	-2.501698e+01	-4.953073e+01
1.020000e-06	-3.567992e-06	-7.426857e-10	-2.476841e+01	-4.934661e+01
1.030000e-06	-3.532059e-06	-7.374301e-10	-2.451897e+01	-4.916040e+01
1.040000e-06	-3.495905e-06	-7.347904e-10	-2.426800e+01	-4.897193e+01
1.050000e-06	-3.459443e-06	-7.356212e-10	-2.401488e+01	-4.878103e+01
1.060000e-06	-3.422691e-06	-7.316346e-10	-2.375976e+01	-4.858751e+01
1.070000e-06	-3.385672e-06	-7.183914e-10	-2.350278e+01	-4.839118e+01
1.080000e-06	-3.348416e-06	-7.155207e-10	-2.324415e+01	-4.819181e+01
1.090000e-06	-3.310961e-06	-7.114370e-10	-2.298415e+01	-4.798918e+01
1.100000e-06	-3.273249e-06	-7.047718e-10	-2.272236e+01	-4.778308e+01
1.110000e-06	-3.235326e-06	-7.009109e-10	-2.245910e+01	-4.757326e+01
1.120000e-06	-3.197170e-06	-7.003767e-10	-2.219423e+01	-4.735947e+01
1.130000e-06	-3.158726e-06	-6.941901e-10	-2.192736e+01	-4.714148e+01
1.140000e-06	-3.120030e-06	-6.911429e-10	-2.165874e+01	-4.691904e+01
1.150000e-06	-3.081117e-06	-6.883793e-10	-2.138861e+01	-4.669190e+01
1.160000e-06	-3.042083e-06	-6.798804e-10	-2.111764e+01	-4.645982e+01
1.170000e-06	-3.002925e-06	-6.696231e-10	-2.084581e+01	-4.622256e+01
1.180000e-06	-2.963536e-06	-6.669132e-10	-2.057238e+01	-4.597988e+01
1.190000e-06	-2.923971e-06	-6.634231e-10	-2.029773e+01	-4.573158e+01
1.200000e-06	-2.884247e-06	-6.578340e-10	-2.002197e+01	-4.547742e+01
1.210000e-06	-2.844434e-06	-6.561167e-10	-1.974560e+01	-4.521721e+01
1.220000e-06	-2.804499e-06	-6.531063e-10	-1.946837e+01	-4.495075e+01
1.230000e-06	-2.764329e-06	-6.451931e-10	-1.918952e+01	-4.467788e+01
1.240000e-06	-2.724017e-06	-6.368757e-10	-1.890968e+01	-4.439842e+01
1.250000e-06	-2.683549e-06	-6.325574e-10	-1.862876e+01	-4.411224e+01
1.260000e-06	-2.642846e-06	-6.273128e-10	-1.834620e+01	-4.381921e+01
1.270000e-06	-2.601788e-06	-6.261208e-10	-1.806119e+01	-4.351921e+01
1.280000e-06	-2.560420e-06	-6.263057e-10	-1.777401e+01	-4.321215e+01
1.290000e-06	-2.518817e-06	-6.239642e-10	-1.748522e+01	-4.289796e+01
1.300000e-06	-2.476955e-06	-6.156681e-10	-1.719462e+01	-4.257658e+01
1.310000e-06	-2.434773e-06	-6.076020e-10	-1.690180e+01	-4.224796e+01
1.320000e-06	-2.392260e-06	-5.980114e-10	-1.660667e+01	-4.191207e+01
1.330000e-06	-2.349494e-06	-5.890926e-10	-1.630980e+01	-4.156891e+01
1.340000e-06	-2.306514e-06	-5.843491e-10	-1.601144e+01	-4.121847e+01
1.350000e-06	-2.263274e-06	-5.829370e-10	-1.571128e+01	-4.086076e+01
1.360000e-06	-2.219791e-06	-5.786802e-10	-1.540942e+01	-4.049580e+01
1.370000e-06	-2.176184e-06	-5.744521e-10	-1.510672e+01	-4.012363e+01
1.380000e-06	-2.132547e-06	-5.683401e-10	-1.480379e+01	-3.974427e+01
1.390000e-06	-2.088869e-06	-5.612007e-10	-1.450059e+01	-3.935775e+01
1.400000e-06	-2.045091e-06	-5.542071e-10	-1.419669e+01	-3.896412e+01
1.410000e-06	-2.001226e-06	-5.495588e-10	-1.389218e+01	-3.856340e+01
1.420000e-06	-1.957289e-06	-5.436014e-10	-1.358718e+01	-3.815563e+01
1.430000e-06	-1.913281e-06	-5.393048e-10	-1.328169e+01	-3.774082e+01
1.440000e-06	-1.869226e-06	-5.371722e-10	-1.297586e+01	-3.731899e+01
1.450000e-06	-1.825031e-06	-5.345454e-10	-1.266906e+01	-3.689012e+01
1.460000e-06	-1.780629e-06	-5.284303e-10	-1.236083e+01	-3.645419e+01
1.470000e-06	-1.736120e-06	-5.203889e-10	-1.205186e+01	-3.601118e+01
1.480000e-06	-1.691538e-06	-5.109346e-10	-1.174238e+01	-3.556101e+01
1.490000e-06	-1.646883e-06	-4.993362e-10	-1.143239e+01	-3.510361e+01
1.500000e-06	-1.602076e-06	-4.900291e-10	-1.112135e+01	-3.463886e+01
1.510000e-06	-1.557023e-06	-4.853021e-10	-1.080860e+01	-3.416664e+01
1.520000e-06	-1.511847e-06	-4.796906e-10	-1.049499e+01	-3.368676e+01
1.530000e-06	-1.466617e-06	-4.705803e-10	-1.018101e+01	-3.319905e+01
1.540000e-06	-1.421312e-06	-4.609253e-10	-9.866517e+00	-3.270327e+01
1.550000e-06	-1.375884e-06	-4.499916e-10	-9.551164e+00	-3.219917e+01
1.560000e-06	-1.330326e-06	-4.382583e-10	-9.234902e+00	-3.168647e+01
1.570000e-06	-1.284735e-06	-4.277069e-10	-8.918417e+00	-3.116485e+01
1.580000e-06	-1.239062e-06	-4.187003e-10	-8.601365e+00	-3.063395e+01
1.590000e-06	-1.193259e-06	-4.097105e-10	-8.283412e+00	-3.009341e+01
1.600000e-06	-1.147374e-06	-4.010787e-10	-7.964883e+00	-2.954282e+01
1.610000e-06	-1.101437e-06	-3.926387e-10	-7.645997e+00	-2.898175e+01
1.620000e-06	-1.055469e-06	-3.823390e-10	-7.326894e+00	-2.840976e+01
1.630000e-06	-1.009381e-06	-3.718306e-10	-7.006956e+00	-2.782636e+01
1.640000e-06	-9.631216e-07	-3.623268e-10	-6.685832e+00	-2.723108e+01
1.650000e-06	-9.168073e-07	-3.481716e-10	-6.364326e+00	-2.662341e+01
1.660000e-06	-8.704862e-07	-3.345858e-10	-6.042772e+00	-2.600285e+01
1.670000e-06	-8.241418e-07	-3.223980e-10	-5.721058e+00	-2.536887e+01
1.680000e-06	-7.777474e-07	-3.133777e-10	-5.398995e+00	-2.472097e+01
1.690000e-06	-7.313127e-07	-3.039017e-10	-5.076653e+00	-2.405862e+01
1.700000e-06	-6.848424e-07	-2.966313e-10	-4.754063e+00	-2.338134e+01
1.710000e-06	-6.383560e-07	-2.892196e-10	-4.431363e+00	-2.268863e+01
1.720000e-06	-5.918570e-07	-2.776100e-10	-4.108575e+00	-2.198002e+01
1.730000e-06	-5.452966e-07	-2.627762e-10	-3.785360e+00	-2.125509e+01
1.740000e-06	-4.987135e-07	-2.483762e-10	-3.461988e+00	-2.051340e+01
1.750000e-06	-4.521091e-07	-2.353677e-10	-3.138467e+00	-1.975460e+01
1.760000e-06	-4.054138e-07	-2.250240e-10	-2.814316e+00	-1.897834e+01
1.770000e-06	-3.584969e-07	-2.164240e-10	-2.488627e+00	-1.818434e+01
1.780000e-06	-3.114583e-07	-2.077865e-10	-2.162092e+00	-1.737236e+01
1.790000e-06	-2.644815e-07	-1.978398e-10	-1.835987e+00	-1.654223e+01
1.800000e-06	-2.175022e-07	-1.845556e-10	-1.509865e+00	-1.569382e+01
1.810000e-06	-1.705519e-07	-1.687442e-10	-1.183944e+00	-1.482708e+01
1.820000e-06	-1.236926e-07	-1.516282e-10	-8.586539e-01	-1.394203e+01
1.830000e-06	-7.680927e-08	-1.374606e-10	-5.331974e-01	-1.303876e+01
1.840000e-06	-2.989841e-08	-1.250122e-10	-2.075499e-01	-1.211741e+01
1.850000e-06	1.696254e-08	-1.124373e-10	1.177512e-01	-1.117823e+01
1.860000e-06	6.380855e-08	-1.025734e-10	4.429485e-01	-1.022155e+01
1.870000e-06	1.106356e-07	-9.241057e-11	7.680144e-01	-9.247746e+00
1.880000e-06	1.574538e-07	-7.983102e-11	1.093018e+00	-8.257305e+00
1.890000e-06	2.042447e-07	-6.600779e-11	1.417833e+00	-7.250785e+00
1.900000e-06	2.510806e-07	-5.045007e-11	1.742960e+00	-6.228822e+00
1.910000e-06	2.979401e-07	-3.536753e-11	2.068251e+00	-5.192136e+00
1.920000e-06	3.447110e-07	-2.020391e-11	2.392927e+00	-4.141519e+00
1.930000e-06	3.914703e-07	-5.692461e-12	2.717523e+00	-3.077841e+00
1.940000e-06	4.382692e-07	1.008656e-11	3.042393e+00	-2.002044e+00
1.950000e-06	4.849799e-07	2.253713e-11	3.366651e+00	-9.151370e-01
1.960000e-06	5.315751e-07	3.401987e-11	3.690107e+00	1.818068e-01
1.970000e-06	5.781262e-07	4.413927e-11	4.013257e+00	1.287654e+00
1.980000e-06	6.245887e-07	5.661945e-11	4.335792e+00	2.401218e+00
1.990000e-06	6.710219e-07	7.262470e-11	4.658124e+00	3.521263e+00
2.000000e-06	7.174344e-07	9.147072e-11	4.980312e+00	4.646511e+00
2.010000e-06	7.637763e-07	1.090286e-10	5.302010e+00	5.775647e+00
2.020000e-06	8.100856e-07	1.244769e-10	5.623481e+00	6.907327e+00
2.030000e-06	8.563749e-07	1.386259e-10	5.944814e+00	8.040186e+00
2.040000e-06	9.026378e-07	1.510876e-10	6.265964e+00	9.172843e+00
2.050000e-06	9.488454e-07	1.624820e-10	6.586729e+00	1.030391e+01
2.060000e-06	9.949572e-07	1.748728e-10	6.906830e+00	1.143199e+01
2.070000e-06	1.040943e-06	1.898369e-10	7.226059e+00	1.255571e+01
2.080000e-06	1.086808e-06	2.089549e-10	7.544439e+00	1.367371e+01
2.090000e-06	1.132593e-06	2.266431e-10	7.862278e+00	1.478462e+01
2.100000e-06	1.178360e-06	2.408059e-10	8.179981e+00	1.588715e+01
2.110000e-06	1.224099e-06	2.547202e-10	8.497498e+00	1.698000e+01
2.120000e-06	1.269731e-06	2.673201e-10	8.814262e+00	1.806195e+01
2.130000e-06	1.315273e-06	2.811396e-10	9.130410e+00	1.913181e+01
2.140000e-06	1.360729e-06	2.946237e-10	9.445957e+00	2.018844e+01
2.150000e-06	1.406128e-06	3.089055e-10	9.761108e+00	2.123077e+01
2.160000e-06	1.451438e-06	3.220285e-10	1.007564e+01	2.225780e+01
2.170000e-06	1.496523e-06	3.363332e-10	1.038862e+01	2.326860e+01
2.180000e-06	1.541482e-06	3.506417e-10	1.070072e+01	2.426230e+01
2.190000e-06	1.586410e-06	3.633273e-10	1.101260e+01	2.523812e+01
2.200000e-06	1.631229e-06	3.752419e-10	1.132372e+01	2.619537e+01
2.210000e-06	1.675935e-06	3.864672e-10	1.163407e+01	2.713342e+01
2.220000e-06	1.720522e-06	3.982782e-10	1.194358e+01	2.805174e+01
2.230000e-06	1.764935e-06	4.122488e-10	1.225189e+01	2.894989e+01
2.240000e-06	1.809172e-06	4.261430e-10	1.255898e+01	2.982751e+01
2.250000e-06	1.853249e-06	4.388398e-10	1.286495e+01	3.068431e+01
2.260000e-06	1.897256e-06	4.481170e-10	1.317044e+01	3.152012e+01
2.270000e-06	1.941233e-06	4.572930e-10	1.347572e+01	3.233481e+01
2.280000e-06	1.985138e-06	4.665940e-10	1.378050e+01	3.312836e+01
2.290000e-06	2.028941e-06	4.751970e-10	1.408457e+01	3.390083e+01
2.300000e-06	2.072648e-06	4.842333e-10	1.438798e+01	3.465234e+01
2.310000e-06	2.116325e-06	4.957535e-10	1.469118e+01	3.538308e+01
2.320000e-06	2.159970e-06	5.073710e-10	1.499415e+01	3.609332e+01
2.330000e-06	2.203540e-06	5.170808e-10	1.529662e+01	3.678338e+01
2.340000e-06	2.246996e-06	5.255759e-10	1.559828e+01	3.745363e+01
2.350000e-06	2.290303e-06	5.331617e-10	1.589890e+01	3.810453e+01
2.360000e-06	2.333386e-06	5.405918e-10	1.619799e+01	3.873653e+01
2.370000e-06	2.376182e-06	5.473902e-10	1.649507e+01	3.935017e+01
2.380000e-06	2.418728e-06	5.546993e-10	1.679041e+01	3.994599e+01
2.390000e-06	2.460951e-06	5.635852e-10	1.708352e+01	4.052457e+01
2.400000e-06	2.502778e-06	5.733108e-10	1.737388e+01	4.108651e+01
2.410000e-06	2.544286e-06	5.816897e-10	1.766201e+01	4.163244e+01
2.420000e-06	2.585532e-06	5.896969e-10	1.794834e+01	4.216299e+01
2.430000e-06	2.626518e-06	5.979527e-10	1.823286e+01	4.267878e+01
2.440000e-06	2.667276e-06	6.068705e-10	1.851579e+01	4.318044e+01
2.450000e-06	2.707766e-06	6.164064e-10	1.879687e+01	4.366861e+01
2.460000e-06	2.748014e-06	6.248646e-10	1.907626e+01	4.414388e+01
2.470000e-06	2.788100e-06	6.305283e-10	1.935453e+01	4.460687e+01
2.480000e-06	2.828027e-06	6.355439e-10	1.963170e+01	4.505815e+01
2.490000e-06	2.867838e-06	6.398089e-10	1.990806e+01	4.549825e+01
2.500000e-06	2.907527e-06	6.451447e-10	2.018358e+01	4.592772e+01
2.510000e-06	2.947046e-06	6.520641e-10	2.045791e+01	4.634703e+01
2.520000e-06	2.986415e-06	6.608240e-10	2.073120e+01	4.675665e+01
2.530000e-06	3.025629e-06	6.710456e-10	2.100342e+01	4.715698e+01
2.540000e-06	3.064667e-06	6.793276e-10	2.127441e+01	4.754842e+01
2.550000e-06	3.103549e-06	6.831477e-10	2.154433e+01	4.793131e+01
2.560000e-06	3.142180e-06	6.843727e-10	2.181250e+01	4.830594e+01
2.570000e-06	3.180536e-06	6.862592e-10	2.207876e+01	4.867258e+01
2.580000e-06	3.218707e-06	6.902096e-10	2.234374e+01	4.903146e+01
2.590000e-06	3.256676e-06	6.960896e-10	2.260731e+01	4.938275e+01
2.600000e-06	3.294393e-06	7.028772e-10	2.286914e+01	4.972660e+01
2.610000e-06	3.331868e-06	7.097577e-10	2.312928e+01	5.006312e+01
2.620000e-06	3.369109e-06	7.170055e-10	2.338780e+01	5.039239e+01
2.630000e-06	3.406108e-06	7.228682e-10	2.364464e+01	5.071445e+01
2.640000e-06	3.442840e-06	7.263295e-10	2.389963e+01	5.102932e+01
2.650000e-06	3.479317e-06	7.280040e-10	2.415285e+01	5.133697e+01
2.660000e-06	3.515577e-06	7.289955e-10	2.440456e+01	5.163739e+01
2.670000e-06	3.551610e-06	7.318759e-10	2.465469e+01	5.193051e+01
2.680000e-06	3.587480e-06	7.364033e-10	2.490370e+01	5.221626e+01
2.690000e-06	3.623242e-06	7.424960e-10	2.515195e+01	5.249456e+01
2.700000e-06	3.658879e-06	7.489472e-10	2.539934e+01	5.276532e+01
2.710000e-06	3.694306e-06	7.539492e-10	2.564527e+01	5.302845e+01
2.720000e-06	3.729536e-06	7.581303e-10	2.588983e+01	5.328383e+01
2.730000e-06	3.764576e-06	7.639408e-10	2.613307e+01	5.353138e+01
2.740000e-06	3.799274e-06	7.688356e-10	2.637393e+01	5.377100e+01
2.750000e-06	3.833541e-06	7.708187e-10	2.661181e+01	5.400262e+01
2.760000e-06	3.867368e-06	7.720846e-10	2.684664e+01	5.422616e+01
2.770000e-06	3.900733e-06	7.737054e-10	2.707825e+01	5.444155e+01
2.780000e-06	3.933623e-06	7.754826e-10	2.730656e+01	5.464878e+01
2.790000e-06	3.966113e-06	7.791740e-10	2.753210e+01	5.484780e+01
2.800000e-06	3.998305e-06	7.848209e-10	2.775558e+01	5.503864e+01
2.810000e-06	4.030242e-06	7.913787e-10	2.797728e+01	5.522130e+01
2.820000e-06	4.061993e-06	7.975915e-10	2.819769e+01	5.539585e+01
2.830000e-06	4.093581e-06	8.013025e-10	2.841697e+01	5.556235e+01
2.840000e-06	4.124970e-06	8.016732e-10	2.863487e+01	5.572091e+01
2.850000e-06	4.156084e-06	8.010154e-10	2.885085e+01	5.587165e+01
2.860000e-06	4.186894e-06	8.025040e-10	2.906473e+01	5.601474e+01
2.870000e-06	4.217430e-06	8.050128e-10	2.927671e+01	5.615035e+01
2.880000e-06	4.247636e-06	8.067067e-10	2.948639e+01	5.627868e+01
2.890000e-06	4.277511e-06	8.095852e-10	2.969378e+01	5.639998e+01
2.900000e-06	4.307130e-06	8.122384e-10	2.989939e+01	5.651449e+01
