# Temperatura_=_-0.4
# Concentracion g/m^3_=_1620.0
# C_Vs_to_Am_M_A/Vsm_=_65563218390.804596
# pendiente_HvsI_1/m_=_3716.3
# ordenada_HvsI_A/m_=_1297.0
# frecuencia_Hz_=_135088.43418967637

Tiempo_(s)	Campo_(V.s)	Magnetizacion_(V.s)	Campo_(kA/m)	Magnetizacion_(A/m)
0.000000e+00	-5.523063e-06	-1.374582e-09	-3.837903e+01	-8.982899e+01
1.000000e-08	-5.523366e-06	-1.377028e-09	-3.838114e+01	-8.983492e+01
2.000000e-08	-5.523347e-06	-1.380315e-09	-3.838101e+01	-8.983887e+01
3.000000e-08	-5.522930e-06	-1.384454e-09	-3.837811e+01	-8.984073e+01
4.000000e-08	-5.522035e-06	-1.381455e-09	-3.837189e+01	-8.984040e+01
5.000000e-08	-5.520589e-06	-1.380484e-09	-3.836184e+01	-8.983774e+01
6.000000e-08	-5.518567e-06	-1.378115e-09	-3.834779e+01	-8.983263e+01
7.000000e-08	-5.515935e-06	-1.384127e-09	-3.832950e+01	-8.982496e+01
8.000000e-08	-5.512780e-06	-1.424164e-09	-3.830758e+01	-8.981458e+01
9.000000e-08	-5.509166e-06	-1.397406e-09	-3.828247e+01	-8.980138e+01
1.000000e-07	-5.505116e-06	-1.276418e-09	-3.825432e+01	-8.978522e+01
1.100000e-07	-5.500861e-06	-1.333108e-09	-3.822476e+01	-8.976598e+01
1.200000e-07	-5.496399e-06	-1.430417e-09	-3.819375e+01	-8.974355e+01
1.300000e-07	-5.491467e-06	-1.433823e-09	-3.815948e+01	-8.971781e+01
1.400000e-07	-5.486155e-06	-1.324444e-09	-3.812257e+01	-8.968864e+01
1.500000e-07	-5.480649e-06	-1.291574e-09	-3.808431e+01	-8.965594e+01
1.600000e-07	-5.474766e-06	-1.457141e-09	-3.804343e+01	-8.961961e+01
1.700000e-07	-5.468413e-06	-1.422908e-09	-3.799928e+01	-8.957957e+01
1.800000e-07	-5.461632e-06	-1.319243e-09	-3.795216e+01	-8.953572e+01
1.900000e-07	-5.454428e-06	-1.249228e-09	-3.790210e+01	-8.948801e+01
2.000000e-07	-5.446971e-06	-1.406153e-09	-3.785028e+01	-8.943635e+01
2.100000e-07	-5.439283e-06	-1.465697e-09	-3.779686e+01	-8.938070e+01
2.200000e-07	-5.431379e-06	-1.423677e-09	-3.774193e+01	-8.932100e+01
2.300000e-07	-5.423154e-06	-1.355560e-09	-3.768478e+01	-8.925722e+01
2.400000e-07	-5.414344e-06	-1.419386e-09	-3.762356e+01	-8.918934e+01
2.500000e-07	-5.404888e-06	-1.436070e-09	-3.755786e+01	-8.911732e+01
2.600000e-07	-5.394980e-06	-1.392213e-09	-3.748901e+01	-8.904116e+01
2.700000e-07	-5.384481e-06	-1.367336e-09	-3.741605e+01	-8.896086e+01
2.800000e-07	-5.373263e-06	-1.393600e-09	-3.733810e+01	-8.887642e+01
2.900000e-07	-5.361728e-06	-1.413876e-09	-3.725794e+01	-8.878785e+01
3.000000e-07	-5.350043e-06	-1.355317e-09	-3.717674e+01	-8.869517e+01
3.100000e-07	-5.337904e-06	-1.347018e-09	-3.709239e+01	-8.859841e+01
3.200000e-07	-5.325221e-06	-1.366685e-09	-3.700426e+01	-8.849761e+01
3.300000e-07	-5.312140e-06	-1.393661e-09	-3.691336e+01	-8.839279e+01
3.400000e-07	-5.298643e-06	-1.315862e-09	-3.681957e+01	-8.828400e+01
3.500000e-07	-5.284736e-06	-1.319845e-09	-3.672294e+01	-8.817128e+01
3.600000e-07	-5.270530e-06	-1.369143e-09	-3.662422e+01	-8.805469e+01
3.700000e-07	-5.255864e-06	-1.370616e-09	-3.652231e+01	-8.793427e+01
3.800000e-07	-5.240475e-06	-1.292787e-09	-3.641537e+01	-8.781009e+01
3.900000e-07	-5.224582e-06	-1.354540e-09	-3.630493e+01	-8.768219e+01
4.000000e-07	-5.208305e-06	-1.373068e-09	-3.619182e+01	-8.755063e+01
4.100000e-07	-5.191570e-06	-1.290675e-09	-3.607554e+01	-8.741548e+01
4.200000e-07	-5.174643e-06	-1.274415e-09	-3.595791e+01	-8.727678e+01
4.300000e-07	-5.157472e-06	-1.399722e-09	-3.583860e+01	-8.713459e+01
4.400000e-07	-5.139748e-06	-1.335156e-09	-3.571543e+01	-8.698898e+01
4.500000e-07	-5.121572e-06	-1.245959e-09	-3.558913e+01	-8.683999e+01
4.600000e-07	-5.103044e-06	-1.330900e-09	-3.546038e+01	-8.668768e+01
4.700000e-07	-5.084212e-06	-1.380510e-09	-3.532952e+01	-8.653211e+01
4.800000e-07	-5.065062e-06	-1.259314e-09	-3.519645e+01	-8.637331e+01
4.900000e-07	-5.045568e-06	-1.292286e-09	-3.506098e+01	-8.621135e+01
5.000000e-07	-5.025861e-06	-1.370940e-09	-3.492404e+01	-8.604627e+01
5.100000e-07	-5.005994e-06	-1.280945e-09	-3.478600e+01	-8.587811e+01
5.200000e-07	-4.985810e-06	-1.250081e-09	-3.464574e+01	-8.570693e+01
5.300000e-07	-4.965272e-06	-1.360987e-09	-3.450302e+01	-8.553275e+01
5.400000e-07	-4.944323e-06	-1.307290e-09	-3.435745e+01	-8.535563e+01
5.500000e-07	-4.922961e-06	-1.220493e-09	-3.420901e+01	-8.517560e+01
5.600000e-07	-4.901273e-06	-1.320339e-09	-3.405830e+01	-8.499270e+01
5.700000e-07	-4.879334e-06	-1.345345e-09	-3.390585e+01	-8.480696e+01
5.800000e-07	-4.857078e-06	-1.249178e-09	-3.375119e+01	-8.461844e+01
5.900000e-07	-4.834447e-06	-1.277892e-09	-3.359393e+01	-8.442715e+01
6.000000e-07	-4.811539e-06	-1.330364e-09	-3.343475e+01	-8.423313e+01
6.100000e-07	-4.788275e-06	-1.248078e-09	-3.327309e+01	-8.403642e+01
6.200000e-07	-4.764754e-06	-1.246299e-09	-3.310965e+01	-8.383705e+01
6.300000e-07	-4.741078e-06	-1.297415e-09	-3.294513e+01	-8.363505e+01
6.400000e-07	-4.717131e-06	-1.262886e-09	-3.277872e+01	-8.343046e+01
6.500000e-07	-4.692867e-06	-1.239120e-09	-3.261012e+01	-8.322331e+01
6.600000e-07	-4.668154e-06	-1.296024e-09	-3.243839e+01	-8.301362e+01
6.700000e-07	-4.642929e-06	-1.266788e-09	-3.226310e+01	-8.280144e+01
6.800000e-07	-4.617183e-06	-1.235469e-09	-3.208420e+01	-8.258678e+01
6.900000e-07	-4.590941e-06	-1.257659e-09	-3.190184e+01	-8.236968e+01
7.000000e-07	-4.564193e-06	-1.254491e-09	-3.171598e+01	-8.215017e+01
7.100000e-07	-4.536973e-06	-1.215636e-09	-3.152683e+01	-8.192826e+01
7.200000e-07	-4.509491e-06	-1.244103e-09	-3.133586e+01	-8.170399e+01
7.300000e-07	-4.481809e-06	-1.244555e-09	-3.114350e+01	-8.147737e+01
7.400000e-07	-4.453946e-06	-1.217231e-09	-3.094989e+01	-8.124841e+01
7.500000e-07	-4.425894e-06	-1.222529e-09	-3.075495e+01	-8.101714e+01
7.600000e-07	-4.397559e-06	-1.232972e-09	-3.055805e+01	-8.078356e+01
7.700000e-07	-4.368745e-06	-1.200303e-09	-3.035783e+01	-8.054767e+01
7.800000e-07	-4.339723e-06	-1.204310e-09	-3.015617e+01	-8.030947e+01
7.900000e-07	-4.310624e-06	-1.215669e-09	-2.995396e+01	-8.006896e+01
8.000000e-07	-4.281229e-06	-1.190871e-09	-2.974969e+01	-7.982611e+01
8.100000e-07	-4.251443e-06	-1.178748e-09	-2.954271e+01	-7.958092e+01
8.200000e-07	-4.221226e-06	-1.200070e-09	-2.933274e+01	-7.933334e+01
8.300000e-07	-4.190702e-06	-1.186883e-09	-2.912064e+01	-7.908333e+01
8.400000e-07	-4.159904e-06	-1.164332e-09	-2.890662e+01	-7.883086e+01
8.500000e-07	-4.128827e-06	-1.178744e-09	-2.869067e+01	-7.857587e+01
8.600000e-07	-4.097566e-06	-1.178859e-09	-2.847345e+01	-7.831828e+01
8.700000e-07	-4.066156e-06	-1.154036e-09	-2.825519e+01	-7.805802e+01
8.800000e-07	-4.034590e-06	-1.152418e-09	-2.803583e+01	-7.779501e+01
8.900000e-07	-4.002839e-06	-1.160905e-09	-2.781520e+01	-7.752915e+01
9.000000e-07	-3.970839e-06	-1.136309e-09	-2.759284e+01	-7.726032e+01
9.100000e-07	-3.938595e-06	-1.129307e-09	-2.736878e+01	-7.698842e+01
9.200000e-07	-3.906016e-06	-1.138141e-09	-2.714239e+01	-7.671331e+01
9.300000e-07	-3.872966e-06	-1.129508e-09	-2.691273e+01	-7.643484e+01
9.400000e-07	-3.839315e-06	-1.112472e-09	-2.667889e+01	-7.615289e+01
9.500000e-07	-3.805196e-06	-1.126305e-09	-2.644181e+01	-7.586728e+01
9.600000e-07	-3.770701e-06	-1.126365e-09	-2.620211e+01	-7.557785e+01
9.700000e-07	-3.735856e-06	-1.112320e-09	-2.595997e+01	-7.528442e+01
9.800000e-07	-3.700784e-06	-1.106616e-09	-2.571626e+01	-7.498682e+01
9.900000e-07	-3.665509e-06	-1.106906e-09	-2.547114e+01	-7.468485e+01
1.000000e-06	-3.630019e-06	-1.086409e-09	-2.522452e+01	-7.437833e+01
1.010000e-06	-3.594316e-06	-1.078796e-09	-2.497643e+01	-7.406705e+01
1.020000e-06	-3.558454e-06	-1.080571e-09	-2.472723e+01	-7.375082e+01
1.030000e-06	-3.522349e-06	-1.076427e-09	-2.447634e+01	-7.342943e+01
1.040000e-06	-3.486012e-06	-1.065550e-09	-2.422384e+01	-7.310268e+01
1.050000e-06	-3.449459e-06	-1.067851e-09	-2.396984e+01	-7.277038e+01
1.060000e-06	-3.412650e-06	-1.058793e-09	-2.371405e+01	-7.243231e+01
1.070000e-06	-3.375520e-06	-1.045792e-09	-2.345605e+01	-7.208828e+01
1.080000e-06	-3.338120e-06	-1.041893e-09	-2.319616e+01	-7.173811e+01
1.090000e-06	-3.300671e-06	-1.038807e-09	-2.293593e+01	-7.138161e+01
1.100000e-06	-3.263018e-06	-1.027982e-09	-2.267428e+01	-7.101859e+01
1.110000e-06	-3.224992e-06	-1.022410e-09	-2.241005e+01	-7.064889e+01
1.120000e-06	-3.186785e-06	-1.019413e-09	-2.214455e+01	-7.027234e+01
1.130000e-06	-3.148353e-06	-1.010295e-09	-2.187749e+01	-6.988881e+01
1.140000e-06	-3.109666e-06	-1.002690e-09	-2.160866e+01	-6.949814e+01
1.150000e-06	-3.070818e-06	-9.985828e-10	-2.133871e+01	-6.910021e+01
1.160000e-06	-3.031702e-06	-9.912383e-10	-2.106690e+01	-6.869491e+01
1.170000e-06	-2.992419e-06	-9.816401e-10	-2.079392e+01	-6.828214e+01
1.180000e-06	-2.953044e-06	-9.779292e-10	-2.052031e+01	-6.786180e+01
1.190000e-06	-2.913473e-06	-9.700489e-10	-2.024534e+01	-6.743383e+01
1.200000e-06	-2.873725e-06	-9.611227e-10	-1.996913e+01	-6.699817e+01
1.210000e-06	-2.833834e-06	-9.538571e-10	-1.969194e+01	-6.655476e+01
1.220000e-06	-2.793828e-06	-9.485037e-10	-1.941394e+01	-6.610357e+01
1.230000e-06	-2.753707e-06	-9.378560e-10	-1.913515e+01	-6.564459e+01
1.240000e-06	-2.713375e-06	-9.332930e-10	-1.885488e+01	-6.517779e+01
1.250000e-06	-2.672867e-06	-9.267414e-10	-1.857340e+01	-6.470318e+01
1.260000e-06	-2.632245e-06	-9.190937e-10	-1.829112e+01	-6.422078e+01
1.270000e-06	-2.591336e-06	-9.131513e-10	-1.800685e+01	-6.373058e+01
1.280000e-06	-2.550001e-06	-9.104093e-10	-1.771962e+01	-6.323263e+01
1.290000e-06	-2.508311e-06	-9.019330e-10	-1.742992e+01	-6.272694e+01
1.300000e-06	-2.466313e-06	-8.929487e-10	-1.713808e+01	-6.221354e+01
1.310000e-06	-2.424116e-06	-8.845014e-10	-1.684486e+01	-6.169247e+01
1.320000e-06	-2.381712e-06	-8.768139e-10	-1.655020e+01	-6.116376e+01
1.330000e-06	-2.338931e-06	-8.696110e-10	-1.625292e+01	-6.062743e+01
1.340000e-06	-2.295850e-06	-8.652847e-10	-1.595356e+01	-6.008351e+01
1.350000e-06	-2.252673e-06	-8.572065e-10	-1.565353e+01	-5.953200e+01
1.360000e-06	-2.209360e-06	-8.490340e-10	-1.535255e+01	-5.897292e+01
1.370000e-06	-2.165876e-06	-8.402934e-10	-1.505039e+01	-5.840625e+01
1.380000e-06	-2.122290e-06	-8.316551e-10	-1.474752e+01	-5.783196e+01
1.390000e-06	-2.078569e-06	-8.226322e-10	-1.444371e+01	-5.725003e+01
1.400000e-06	-2.034753e-06	-8.127854e-10	-1.413923e+01	-5.666038e+01
1.410000e-06	-1.990862e-06	-8.021419e-10	-1.383423e+01	-5.606295e+01
1.420000e-06	-1.946932e-06	-7.914053e-10	-1.352898e+01	-5.545762e+01
1.430000e-06	-1.902952e-06	-7.819147e-10	-1.322336e+01	-5.484429e+01
1.440000e-06	-1.858890e-06	-7.724964e-10	-1.291718e+01	-5.422279e+01
1.450000e-06	-1.814697e-06	-7.621601e-10	-1.261009e+01	-5.359294e+01
1.460000e-06	-1.770340e-06	-7.511204e-10	-1.230186e+01	-5.295456e+01
1.470000e-06	-1.725858e-06	-7.412962e-10	-1.199276e+01	-5.230740e+01
1.480000e-06	-1.681282e-06	-7.303085e-10	-1.168301e+01	-5.165120e+01
1.490000e-06	-1.636610e-06	-7.162925e-10	-1.137259e+01	-5.098568e+01
1.500000e-06	-1.591805e-06	-7.038143e-10	-1.106124e+01	-5.031052e+01
1.510000e-06	-1.546883e-06	-6.948472e-10	-1.074909e+01	-4.962537e+01
1.520000e-06	-1.501833e-06	-6.819290e-10	-1.043604e+01	-4.892987e+01
1.530000e-06	-1.456611e-06	-6.680013e-10	-1.012180e+01	-4.822362e+01
1.540000e-06	-1.411241e-06	-6.555815e-10	-9.806530e+00	-4.750620e+01
1.550000e-06	-1.365762e-06	-6.463376e-10	-9.490499e+00	-4.677716e+01
1.560000e-06	-1.320214e-06	-6.353834e-10	-9.173996e+00	-4.603605e+01
1.570000e-06	-1.274587e-06	-6.246952e-10	-8.856934e+00	-4.528238e+01
1.580000e-06	-1.228886e-06	-6.124387e-10	-8.539367e+00	-4.451567e+01
1.590000e-06	-1.183239e-06	-5.987273e-10	-8.222173e+00	-4.373539e+01
1.600000e-06	-1.137513e-06	-5.836937e-10	-7.904430e+00	-4.294104e+01
1.610000e-06	-1.091678e-06	-5.691914e-10	-7.585924e+00	-4.213211e+01
1.620000e-06	-1.045774e-06	-5.536407e-10	-7.266946e+00	-4.130806e+01
1.630000e-06	-9.996639e-07	-5.395176e-10	-6.946533e+00	-4.046839e+01
1.640000e-06	-9.535248e-07	-5.277302e-10	-6.625918e+00	-3.961257e+01
1.650000e-06	-9.074377e-07	-5.145263e-10	-6.305665e+00	-3.874013e+01
1.660000e-06	-8.612157e-07	-5.015818e-10	-5.984474e+00	-3.785056e+01
1.670000e-06	-8.149016e-07	-4.887443e-10	-5.662643e+00	-3.694342e+01
1.680000e-06	-7.685160e-07	-4.754768e-10	-5.340316e+00	-3.601826e+01
1.690000e-06	-7.220675e-07	-4.608586e-10	-5.017552e+00	-3.507468e+01
1.700000e-06	-6.756379e-07	-4.461029e-10	-4.694919e+00	-3.411229e+01
1.710000e-06	-6.292218e-07	-4.307157e-10	-4.372379e+00	-3.313078e+01
1.720000e-06	-5.827585e-07	-4.128352e-10	-4.049512e+00	-3.212983e+01
1.730000e-06	-5.362104e-07	-3.969883e-10	-3.726055e+00	-3.110921e+01
1.740000e-06	-4.896216e-07	-3.844502e-10	-3.402316e+00	-3.006871e+01
1.750000e-06	-4.429406e-07	-3.730721e-10	-3.077936e+00	-2.900819e+01
1.760000e-06	-3.961954e-07	-3.606294e-10	-2.753109e+00	-2.792756e+01
1.770000e-06	-3.494154e-07	-3.444891e-10	-2.428041e+00	-2.682680e+01
1.780000e-06	-3.026028e-07	-3.274857e-10	-2.102747e+00	-2.570593e+01
1.790000e-06	-2.557193e-07	-3.106981e-10	-1.776960e+00	-2.456506e+01
1.800000e-06	-2.088587e-07	-2.927843e-10	-1.451332e+00	-2.340434e+01
1.810000e-06	-1.620612e-07	-2.738808e-10	-1.126142e+00	-2.222403e+01
1.820000e-06	-1.151995e-07	-2.555911e-10	-8.005061e-01	-2.102440e+01
1.830000e-06	-6.834193e-08	-2.392768e-10	-4.748990e-01	-1.980585e+01
1.840000e-06	-2.152350e-08	-2.230669e-10	-1.495640e-01	-1.856880e+01
1.850000e-06	2.536341e-08	-2.067902e-10	1.762470e-01	-1.731377e+01
1.860000e-06	7.225293e-08	-1.916668e-10	5.020760e-01	-1.604134e+01
1.870000e-06	1.191123e-07	-1.745062e-10	8.276959e-01	-1.475215e+01
1.880000e-06	1.659868e-07	-1.569063e-10	1.153421e+00	-1.344692e+01
1.890000e-06	2.128036e-07	-1.398982e-10	1.478744e+00	-1.212642e+01
1.900000e-06	2.595732e-07	-1.234725e-10	1.803740e+00	-1.079149e+01
1.910000e-06	3.063415e-07	-1.054909e-10	2.128727e+00	-9.443029e+00
1.920000e-06	3.530662e-07	-8.641819e-11	2.453411e+00	-8.081983e+00
1.930000e-06	3.998252e-07	-6.687813e-11	2.778332e+00	-6.709353e+00
1.940000e-06	4.465943e-07	-4.829007e-11	3.103325e+00	-5.326188e+00
1.950000e-06	4.931354e-07	-3.355398e-11	3.426733e+00	-3.933578e+00
1.960000e-06	5.395553e-07	-1.939479e-11	3.749299e+00	-2.532650e+00
1.970000e-06	5.860511e-07	-3.744392e-12	4.072392e+00	-1.124566e+00
1.980000e-06	6.325489e-07	1.475273e-11	4.395499e+00	2.894856e-01
1.990000e-06	6.789931e-07	3.596904e-11	4.718233e+00	1.708294e+00
2.000000e-06	7.253987e-07	5.815130e-11	5.040700e+00	3.130630e+00
2.010000e-06	7.717801e-07	8.081065e-11	5.362998e+00	4.555256e+00
2.020000e-06	8.180268e-07	1.020774e-10	5.684360e+00	5.980926e+00
2.030000e-06	8.641169e-07	1.208302e-10	6.004634e+00	7.406395e+00
2.040000e-06	9.101760e-07	1.379530e-10	6.324693e+00	8.830422e+00
2.050000e-06	9.562044e-07	1.551061e-10	6.644538e+00	1.025178e+01
2.060000e-06	1.002194e-06	1.730578e-10	6.964116e+00	1.166925e+01
2.070000e-06	1.048165e-06	1.919469e-10	7.283561e+00	1.308165e+01
2.080000e-06	1.094070e-06	2.139623e-10	7.602551e+00	1.448780e+01
2.090000e-06	1.139783e-06	2.356524e-10	7.920202e+00	1.588658e+01
2.100000e-06	1.185350e-06	2.571831e-10	8.236838e+00	1.727688e+01
2.110000e-06	1.230927e-06	2.796839e-10	8.553549e+00	1.865765e+01
2.120000e-06	1.276465e-06	3.018774e-10	8.869988e+00	2.002787e+01
2.130000e-06	1.321946e-06	3.221911e-10	9.186031e+00	2.138657e+01
2.140000e-06	1.367468e-06	3.396167e-10	9.502352e+00	2.273284e+01
2.150000e-06	1.412872e-06	3.542995e-10	9.817865e+00	2.406580e+01
2.160000e-06	1.458079e-06	3.687918e-10	1.013200e+01	2.538466e+01
2.170000e-06	1.503197e-06	3.863394e-10	1.044552e+01	2.668866e+01
2.180000e-06	1.548206e-06	4.070355e-10	1.075828e+01	2.797710e+01
2.190000e-06	1.593105e-06	4.268105e-10	1.107028e+01	2.924935e+01
2.200000e-06	1.637930e-06	4.473568e-10	1.138176e+01	3.050485e+01
2.210000e-06	1.682606e-06	4.673480e-10	1.169221e+01	3.174308e+01
2.220000e-06	1.727121e-06	4.857171e-10	1.200154e+01	3.296359e+01
2.230000e-06	1.771600e-06	5.031825e-10	1.231061e+01	3.416600e+01
2.240000e-06	1.815915e-06	5.181509e-10	1.261856e+01	3.534997e+01
2.250000e-06	1.860020e-06	5.314893e-10	1.292503e+01	3.651523e+01
2.260000e-06	1.903995e-06	5.448507e-10	1.323061e+01	3.766158e+01
2.270000e-06	1.947891e-06	5.619290e-10	1.353564e+01	3.878885e+01
2.280000e-06	1.991799e-06	5.804950e-10	1.384075e+01	3.989693e+01
2.290000e-06	2.035616e-06	5.979612e-10	1.414523e+01	4.098577e+01
2.300000e-06	2.079311e-06	6.143311e-10	1.444886e+01	4.205536e+01
2.310000e-06	2.122914e-06	6.311574e-10	1.475185e+01	4.310573e+01
2.320000e-06	2.166469e-06	6.469660e-10	1.505451e+01	4.413697e+01
2.330000e-06	2.209947e-06	6.595472e-10	1.535663e+01	4.514920e+01
2.340000e-06	2.253251e-06	6.712698e-10	1.565754e+01	4.614255e+01
2.350000e-06	2.296377e-06	6.835229e-10	1.595722e+01	4.711721e+01
2.360000e-06	2.339395e-06	6.959279e-10	1.625615e+01	4.807340e+01
2.370000e-06	2.382163e-06	7.092189e-10	1.655333e+01	4.901135e+01
2.380000e-06	2.424605e-06	7.211956e-10	1.684826e+01	4.993132e+01
2.390000e-06	2.466742e-06	7.336329e-10	1.714107e+01	5.083358e+01
2.400000e-06	2.508626e-06	7.471034e-10	1.743211e+01	5.171843e+01
2.410000e-06	2.550075e-06	7.612632e-10	1.772013e+01	5.258615e+01
2.420000e-06	2.591148e-06	7.761420e-10	1.800554e+01	5.343708e+01
2.430000e-06	2.632113e-06	7.900337e-10	1.829021e+01	5.427151e+01
2.440000e-06	2.672745e-06	8.012275e-10	1.857256e+01	5.508977e+01
2.450000e-06	2.713117e-06	8.123472e-10	1.885309e+01	5.589218e+01
2.460000e-06	2.753357e-06	8.233542e-10	1.913271e+01	5.667906e+01
2.470000e-06	2.793414e-06	8.321999e-10	1.941106e+01	5.745071e+01
2.480000e-06	2.833277e-06	8.407035e-10	1.968807e+01	5.820746e+01
2.490000e-06	2.873023e-06	8.502601e-10	1.996426e+01	5.894960e+01
2.500000e-06	2.912711e-06	8.633486e-10	2.024004e+01	5.967743e+01
2.510000e-06	2.952301e-06	8.773995e-10	2.051515e+01	6.039123e+01
2.520000e-06	2.991701e-06	8.891711e-10	2.078893e+01	6.109128e+01
2.530000e-06	3.030833e-06	9.010131e-10	2.106086e+01	6.177783e+01
2.540000e-06	3.069791e-06	9.104072e-10	2.133157e+01	6.245114e+01
2.550000e-06	3.108494e-06	9.156209e-10	2.160052e+01	6.311146e+01
2.560000e-06	3.146924e-06	9.217324e-10	2.186756e+01	6.375901e+01
2.570000e-06	3.185181e-06	9.315631e-10	2.213340e+01	6.439401e+01
2.580000e-06	3.223251e-06	9.413412e-10	2.239794e+01	6.501667e+01
2.590000e-06	3.261132e-06	9.487811e-10	2.266118e+01	6.562718e+01
2.600000e-06	3.298841e-06	9.567732e-10	2.292321e+01	6.622575e+01
2.610000e-06	3.336344e-06	9.646355e-10	2.318381e+01	6.681254e+01
2.620000e-06	3.373499e-06	9.728506e-10	2.344200e+01	6.738773e+01
2.630000e-06	3.410390e-06	9.813619e-10	2.369835e+01	6.795149e+01
2.640000e-06	3.447075e-06	9.885483e-10	2.395327e+01	6.850398e+01
2.650000e-06	3.483510e-06	9.937829e-10	2.420645e+01	6.904537e+01
2.660000e-06	3.519761e-06	9.987768e-10	2.445835e+01	6.957579e+01
2.670000e-06	3.555758e-06	1.004993e-09	2.470849e+01	7.009541e+01
2.680000e-06	3.591538e-06	1.011539e-09	2.495712e+01	7.060438e+01
2.690000e-06	3.627211e-06	1.019025e-09	2.520501e+01	7.110285e+01
2.700000e-06	3.662801e-06	1.028440e-09	2.545232e+01	7.159097e+01
2.710000e-06	3.698228e-06	1.037680e-09	2.569850e+01	7.206889e+01
2.720000e-06	3.733367e-06	1.045370e-09	2.594268e+01	7.253679e+01
2.730000e-06	3.768230e-06	1.054916e-09	2.618494e+01	7.299481e+01
2.740000e-06	3.802700e-06	1.064210e-09	2.642446e+01	7.344313e+01
2.750000e-06	3.836764e-06	1.069924e-09	2.666116e+01	7.388190e+01
2.760000e-06	3.870358e-06	1.074557e-09	2.689461e+01	7.431132e+01
2.770000e-06	3.903433e-06	1.080781e-09	2.712444e+01	7.473156e+01
2.780000e-06	3.936101e-06	1.088521e-09	2.735145e+01	7.514280e+01
2.790000e-06	3.968397e-06	1.097251e-09	2.757587e+01	7.554524e+01
2.800000e-06	4.000416e-06	1.107000e-09	2.779836e+01	7.593907e+01
2.810000e-06	4.032212e-06	1.116750e-09	2.801931e+01	7.632449e+01
2.820000e-06	4.063864e-06	1.124298e-09	2.823925e+01	7.670169e+01
2.830000e-06	4.095325e-06	1.129214e-09	2.845787e+01	7.707090e+01
2.840000e-06	4.126580e-06	1.132200e-09	2.867506e+01	7.743232e+01
2.850000e-06	4.157645e-06	1.135193e-09	2.889093e+01	7.778616e+01
2.860000e-06	4.188471e-06	1.141748e-09	2.910513e+01	7.813262e+01
2.870000e-06	4.218992e-06	1.149731e-09	2.931722e+01	7.847193e+01
2.880000e-06	4.249154e-06	1.156602e-09	2.952681e+01	7.880429e+01
2.890000e-06	4.278959e-06	1.165136e-09	2.973392e+01	7.912990e+01
2.900000e-06	4.308427e-06	1.173939e-09	2.993869e+01	7.944898e+01
