# Temperatura_=_-0.4
# Concentracion g/m^3_=_1620.0
# C_Vs_to_Am_M_A/Vsm_=_65563218390.804596
# pendiente_HvsI_1/m_=_3716.3
# ordenada_HvsI_A/m_=_1297.0
# frecuencia_Hz_=_135088.6333041764

Tiempo_(s)	Campo_(V.s)	Magnetizacion_(V.s)	Campo_(kA/m)	Magnetizacion_(A/m)
0.000000e+00	-5.532323e-06	-1.411210e-09	-3.838578e+01	-8.910576e+01
1.000000e-08	-5.532572e-06	-1.411464e-09	-3.838751e+01	-8.912687e+01
2.000000e-08	-5.532565e-06	-1.413501e-09	-3.838746e+01	-8.914573e+01
3.000000e-08	-5.532155e-06	-1.414952e-09	-3.838462e+01	-8.916219e+01
4.000000e-08	-5.531163e-06	-1.412073e-09	-3.837773e+01	-8.917606e+01
5.000000e-08	-5.529504e-06	-1.407611e-09	-3.836622e+01	-8.918718e+01
6.000000e-08	-5.527188e-06	-1.404249e-09	-3.835016e+01	-8.919537e+01
7.000000e-08	-5.524357e-06	-1.392882e-09	-3.833051e+01	-8.920043e+01
8.000000e-08	-5.521171e-06	-1.397135e-09	-3.830840e+01	-8.920220e+01
9.000000e-08	-5.517554e-06	-1.431568e-09	-3.828331e+01	-8.920048e+01
1.000000e-07	-5.513499e-06	-1.457721e-09	-3.825517e+01	-8.919509e+01
1.100000e-07	-5.509145e-06	-1.374958e-09	-3.822496e+01	-8.918587e+01
1.200000e-07	-5.504596e-06	-1.347032e-09	-3.819340e+01	-8.917263e+01
1.300000e-07	-5.499736e-06	-1.354551e-09	-3.815968e+01	-8.915523e+01
1.400000e-07	-5.494455e-06	-1.425523e-09	-3.812303e+01	-8.913352e+01
1.500000e-07	-5.488799e-06	-1.358574e-09	-3.808379e+01	-8.910734e+01
1.600000e-07	-5.482796e-06	-1.339295e-09	-3.804214e+01	-8.907659e+01
1.700000e-07	-5.476322e-06	-1.387153e-09	-3.799722e+01	-8.904113e+01
1.800000e-07	-5.469429e-06	-1.455639e-09	-3.794939e+01	-8.900088e+01
1.900000e-07	-5.462206e-06	-1.400981e-09	-3.789928e+01	-8.895576e+01
2.000000e-07	-5.454724e-06	-1.368656e-09	-3.784736e+01	-8.890569e+01
2.100000e-07	-5.447031e-06	-1.394464e-09	-3.779399e+01	-8.885063e+01
2.200000e-07	-5.439052e-06	-1.418398e-09	-3.773862e+01	-8.879055e+01
2.300000e-07	-5.430611e-06	-1.387505e-09	-3.768006e+01	-8.872543e+01
2.400000e-07	-5.421676e-06	-1.361235e-09	-3.761807e+01	-8.865527e+01
2.500000e-07	-5.412206e-06	-1.402397e-09	-3.755236e+01	-8.858010e+01
2.600000e-07	-5.402067e-06	-1.393530e-09	-3.748200e+01	-8.849994e+01
2.700000e-07	-5.391229e-06	-1.371795e-09	-3.740681e+01	-8.841486e+01
2.800000e-07	-5.379906e-06	-1.330044e-09	-3.732824e+01	-8.832492e+01
2.900000e-07	-5.368308e-06	-1.359187e-09	-3.724777e+01	-8.823019e+01
3.000000e-07	-5.356323e-06	-1.348044e-09	-3.716461e+01	-8.813077e+01
3.100000e-07	-5.343972e-06	-1.357202e-09	-3.707892e+01	-8.802677e+01
3.200000e-07	-5.331194e-06	-1.316853e-09	-3.699026e+01	-8.791830e+01
3.300000e-07	-5.317973e-06	-1.350721e-09	-3.689852e+01	-8.780549e+01
3.400000e-07	-5.304345e-06	-1.337879e-09	-3.680397e+01	-8.768846e+01
3.500000e-07	-5.290286e-06	-1.340626e-09	-3.670642e+01	-8.756736e+01
3.600000e-07	-5.275770e-06	-1.300798e-09	-3.660570e+01	-8.744232e+01
3.700000e-07	-5.260726e-06	-1.347872e-09	-3.650132e+01	-8.731349e+01
3.800000e-07	-5.245149e-06	-1.335057e-09	-3.639323e+01	-8.718101e+01
3.900000e-07	-5.229028e-06	-1.313400e-09	-3.628139e+01	-8.704503e+01
4.000000e-07	-5.212483e-06	-1.317820e-09	-3.616658e+01	-8.690568e+01
4.100000e-07	-5.195696e-06	-1.365887e-09	-3.605011e+01	-8.676310e+01
4.200000e-07	-5.178604e-06	-1.323019e-09	-3.593152e+01	-8.661743e+01
4.300000e-07	-5.161102e-06	-1.288620e-09	-3.581008e+01	-8.646878e+01
4.400000e-07	-5.143274e-06	-1.339897e-09	-3.568638e+01	-8.631727e+01
4.500000e-07	-5.125158e-06	-1.344748e-09	-3.556068e+01	-8.616301e+01
4.600000e-07	-5.106596e-06	-1.284339e-09	-3.543189e+01	-8.600609e+01
4.700000e-07	-5.087554e-06	-1.299411e-09	-3.529977e+01	-8.584661e+01
4.800000e-07	-5.068217e-06	-1.350413e-09	-3.516560e+01	-8.568463e+01
4.900000e-07	-5.048703e-06	-1.299022e-09	-3.503021e+01	-8.552021e+01
5.000000e-07	-5.028990e-06	-1.277677e-09	-3.489343e+01	-8.535341e+01
5.100000e-07	-5.009054e-06	-1.313302e-09	-3.475511e+01	-8.518426e+01
5.200000e-07	-4.988864e-06	-1.300187e-09	-3.461502e+01	-8.501279e+01
5.300000e-07	-4.968182e-06	-1.253757e-09	-3.447152e+01	-8.483901e+01
5.400000e-07	-4.947048e-06	-1.305880e-09	-3.432488e+01	-8.466292e+01
5.500000e-07	-4.925657e-06	-1.312702e-09	-3.417646e+01	-8.448451e+01
5.600000e-07	-4.903990e-06	-1.269304e-09	-3.402612e+01	-8.430376e+01
5.700000e-07	-4.881971e-06	-1.270240e-09	-3.387334e+01	-8.412064e+01
5.800000e-07	-4.859496e-06	-1.304914e-09	-3.371740e+01	-8.393511e+01
5.900000e-07	-4.836753e-06	-1.257802e-09	-3.355960e+01	-8.374712e+01
6.000000e-07	-4.813798e-06	-1.249145e-09	-3.340033e+01	-8.355662e+01
6.100000e-07	-4.790464e-06	-1.272159e-09	-3.323843e+01	-8.336355e+01
6.200000e-07	-4.766881e-06	-1.262744e-09	-3.307479e+01	-8.316785e+01
6.300000e-07	-4.743132e-06	-1.231696e-09	-3.291001e+01	-8.296944e+01
6.400000e-07	-4.719173e-06	-1.255769e-09	-3.274378e+01	-8.276826e+01
6.500000e-07	-4.694727e-06	-1.251036e-09	-3.257416e+01	-8.256425e+01
6.600000e-07	-4.669728e-06	-1.236112e-09	-3.240071e+01	-8.235734e+01
6.700000e-07	-4.644222e-06	-1.239890e-09	-3.222373e+01	-8.214745e+01
6.800000e-07	-4.618034e-06	-1.247758e-09	-3.204203e+01	-8.193454e+01
6.900000e-07	-4.591294e-06	-1.224739e-09	-3.185649e+01	-8.171854e+01
7.000000e-07	-4.564157e-06	-1.225054e-09	-3.166821e+01	-8.149940e+01
7.100000e-07	-4.536723e-06	-1.224135e-09	-3.147785e+01	-8.127708e+01
7.200000e-07	-4.509107e-06	-1.215762e-09	-3.128624e+01	-8.105153e+01
7.300000e-07	-4.481413e-06	-1.211945e-09	-3.109409e+01	-8.082273e+01
7.400000e-07	-4.453611e-06	-1.216103e-09	-3.090119e+01	-8.059066e+01
7.500000e-07	-4.425482e-06	-1.212976e-09	-3.070601e+01	-8.035529e+01
7.600000e-07	-4.397037e-06	-1.207961e-09	-3.050865e+01	-8.011663e+01
7.700000e-07	-4.368348e-06	-1.204771e-09	-3.030959e+01	-7.987467e+01
7.800000e-07	-4.339225e-06	-1.189089e-09	-3.010752e+01	-7.962942e+01
7.900000e-07	-4.309780e-06	-1.183006e-09	-2.990322e+01	-7.938092e+01
8.000000e-07	-4.280157e-06	-1.181432e-09	-2.969768e+01	-7.912917e+01
8.100000e-07	-4.250165e-06	-1.179197e-09	-2.948959e+01	-7.887421e+01
8.200000e-07	-4.219866e-06	-1.170305e-09	-2.927935e+01	-7.861608e+01
8.300000e-07	-4.189284e-06	-1.175318e-09	-2.906717e+01	-7.835482e+01
8.400000e-07	-4.158388e-06	-1.170483e-09	-2.885279e+01	-7.809047e+01
8.500000e-07	-4.127264e-06	-1.163853e-09	-2.863684e+01	-7.782309e+01
8.600000e-07	-4.095914e-06	-1.157297e-09	-2.841932e+01	-7.755273e+01
8.700000e-07	-4.064451e-06	-1.158136e-09	-2.820102e+01	-7.727942e+01
8.800000e-07	-4.032835e-06	-1.146671e-09	-2.798165e+01	-7.700323e+01
8.900000e-07	-4.001005e-06	-1.143824e-09	-2.776080e+01	-7.672418e+01
9.000000e-07	-3.968919e-06	-1.137087e-09	-2.753817e+01	-7.644233e+01
9.100000e-07	-3.936377e-06	-1.130622e-09	-2.731238e+01	-7.615771e+01
9.200000e-07	-3.903391e-06	-1.118928e-09	-2.708351e+01	-7.587033e+01
9.300000e-07	-3.870034e-06	-1.121721e-09	-2.685206e+01	-7.558022e+01
9.400000e-07	-3.836163e-06	-1.117265e-09	-2.661705e+01	-7.528738e+01
9.500000e-07	-3.801790e-06	-1.113469e-09	-2.637856e+01	-7.499181e+01
9.600000e-07	-3.767051e-06	-1.111054e-09	-2.613752e+01	-7.469348e+01
9.700000e-07	-3.732097e-06	-1.110460e-09	-2.589499e+01	-7.439236e+01
9.800000e-07	-3.696959e-06	-1.099963e-09	-2.565119e+01	-7.408842e+01
9.900000e-07	-3.661535e-06	-1.091998e-09	-2.540540e+01	-7.378158e+01
1.000000e-06	-3.625915e-06	-1.087567e-09	-2.515825e+01	-7.347176e+01
1.010000e-06	-3.590222e-06	-1.082551e-09	-2.491060e+01	-7.315888e+01
1.020000e-06	-3.554351e-06	-1.076550e-09	-2.466171e+01	-7.284282e+01
1.030000e-06	-3.518213e-06	-1.074928e-09	-2.441097e+01	-7.252345e+01
1.040000e-06	-3.481881e-06	-1.071459e-09	-2.415888e+01	-7.220063e+01
1.050000e-06	-3.445346e-06	-1.064002e-09	-2.390538e+01	-7.187420e+01
1.060000e-06	-3.408500e-06	-1.054856e-09	-2.364973e+01	-7.154398e+01
1.070000e-06	-3.371340e-06	-1.045529e-09	-2.339190e+01	-7.120980e+01
1.080000e-06	-3.333924e-06	-1.039292e-09	-2.313228e+01	-7.087143e+01
1.090000e-06	-3.296336e-06	-1.029010e-09	-2.287148e+01	-7.052868e+01
1.100000e-06	-3.258585e-06	-1.022055e-09	-2.260955e+01	-7.018131e+01
1.110000e-06	-3.220566e-06	-1.012365e-09	-2.234576e+01	-6.982908e+01
1.120000e-06	-3.182251e-06	-1.005896e-09	-2.207991e+01	-6.947177e+01
1.130000e-06	-3.143674e-06	-9.995660e-10	-2.181224e+01	-6.910910e+01
1.140000e-06	-3.104878e-06	-9.958915e-10	-2.154306e+01	-6.874083e+01
1.150000e-06	-3.065840e-06	-9.880947e-10	-2.127219e+01	-6.836671e+01
1.160000e-06	-3.026743e-06	-9.811500e-10	-2.100092e+01	-6.798647e+01
1.170000e-06	-2.987558e-06	-9.735988e-10	-2.072904e+01	-6.759985e+01
1.180000e-06	-2.948085e-06	-9.673457e-10	-2.045516e+01	-6.720660e+01
1.190000e-06	-2.908446e-06	-9.592651e-10	-2.018013e+01	-6.680646e+01
1.200000e-06	-2.868736e-06	-9.547803e-10	-1.990460e+01	-6.639920e+01
1.210000e-06	-2.828919e-06	-9.481768e-10	-1.962833e+01	-6.598457e+01
1.220000e-06	-2.788931e-06	-9.428362e-10	-1.935088e+01	-6.556235e+01
1.230000e-06	-2.748762e-06	-9.344313e-10	-1.907216e+01	-6.513231e+01
1.240000e-06	-2.708423e-06	-9.275034e-10	-1.879227e+01	-6.469425e+01
1.250000e-06	-2.667765e-06	-9.189701e-10	-1.851017e+01	-6.424798e+01
1.260000e-06	-2.626787e-06	-9.123456e-10	-1.822585e+01	-6.379331e+01
1.270000e-06	-2.585665e-06	-9.066739e-10	-1.794052e+01	-6.333008e+01
1.280000e-06	-2.544184e-06	-9.026148e-10	-1.765271e+01	-6.285814e+01
1.290000e-06	-2.502345e-06	-8.950397e-10	-1.736241e+01	-6.237736e+01
1.300000e-06	-2.460223e-06	-8.854094e-10	-1.707015e+01	-6.188760e+01
1.310000e-06	-2.417804e-06	-8.767660e-10	-1.677583e+01	-6.138876e+01
1.320000e-06	-2.375120e-06	-8.692253e-10	-1.647967e+01	-6.088075e+01
1.330000e-06	-2.332180e-06	-8.606352e-10	-1.618173e+01	-6.036349e+01
1.340000e-06	-2.289141e-06	-8.550461e-10	-1.588310e+01	-5.983690e+01
1.350000e-06	-2.245870e-06	-8.489462e-10	-1.558287e+01	-5.930094e+01
1.360000e-06	-2.202329e-06	-8.388592e-10	-1.528076e+01	-5.875555e+01
1.370000e-06	-2.158712e-06	-8.290537e-10	-1.497813e+01	-5.820069e+01
1.380000e-06	-2.115052e-06	-8.212114e-10	-1.467520e+01	-5.763633e+01
1.390000e-06	-2.071323e-06	-8.124757e-10	-1.437179e+01	-5.706244e+01
1.400000e-06	-2.027541e-06	-8.030371e-10	-1.406800e+01	-5.647898e+01
1.410000e-06	-1.983646e-06	-7.970293e-10	-1.376344e+01	-5.588594e+01
1.420000e-06	-1.939691e-06	-7.870572e-10	-1.345846e+01	-5.528326e+01
1.430000e-06	-1.895693e-06	-7.762707e-10	-1.315318e+01	-5.467093e+01
1.440000e-06	-1.851510e-06	-7.680851e-10	-1.284662e+01	-5.404888e+01
1.450000e-06	-1.807206e-06	-7.622962e-10	-1.253922e+01	-5.341708e+01
1.460000e-06	-1.762799e-06	-7.521526e-10	-1.223111e+01	-5.277545e+01
1.470000e-06	-1.718247e-06	-7.407642e-10	-1.192198e+01	-5.212390e+01
1.480000e-06	-1.673594e-06	-7.284555e-10	-1.161216e+01	-5.146235e+01
1.490000e-06	-1.628750e-06	-7.137503e-10	-1.130101e+01	-5.079068e+01
1.500000e-06	-1.583737e-06	-6.984196e-10	-1.098869e+01	-5.010875e+01
1.510000e-06	-1.538631e-06	-6.878594e-10	-1.067572e+01	-4.941641e+01
1.520000e-06	-1.493347e-06	-6.773505e-10	-1.036153e+01	-4.871346e+01
1.530000e-06	-1.448005e-06	-6.673915e-10	-1.004692e+01	-4.799972e+01
1.540000e-06	-1.402573e-06	-6.556683e-10	-9.731691e+00	-4.727496e+01
1.550000e-06	-1.356975e-06	-6.429978e-10	-9.415314e+00	-4.653891e+01
1.560000e-06	-1.311366e-06	-6.268491e-10	-9.098859e+00	-4.579131e+01
1.570000e-06	-1.265670e-06	-6.126708e-10	-8.781798e+00	-4.503185e+01
1.580000e-06	-1.219829e-06	-5.996909e-10	-8.463727e+00	-4.426021e+01
1.590000e-06	-1.174011e-06	-5.869088e-10	-8.145822e+00	-4.347603e+01
1.600000e-06	-1.128172e-06	-5.737387e-10	-7.827773e+00	-4.267896e+01
1.610000e-06	-1.082181e-06	-5.609750e-10	-7.508666e+00	-4.186859e+01
1.620000e-06	-1.036097e-06	-5.480730e-10	-7.188912e+00	-4.104454e+01
1.630000e-06	-9.899353e-07	-5.367305e-10	-6.868623e+00	-4.020637e+01
1.640000e-06	-9.437267e-07	-5.249501e-10	-6.548007e+00	-3.935365e+01
1.650000e-06	-8.974942e-07	-5.101842e-10	-6.227224e+00	-3.848596e+01
1.660000e-06	-8.511696e-07	-4.963565e-10	-5.905803e+00	-3.760284e+01
1.670000e-06	-8.047631e-07	-4.811863e-10	-5.583814e+00	-3.670385e+01
1.680000e-06	-7.582326e-07	-4.659874e-10	-5.260964e+00	-3.578855e+01
1.690000e-06	-7.115642e-07	-4.508735e-10	-4.937157e+00	-3.485652e+01
1.700000e-06	-6.649596e-07	-4.369742e-10	-4.613793e+00	-3.390732e+01
1.710000e-06	-6.183892e-07	-4.203427e-10	-4.290667e+00	-3.294057e+01
1.720000e-06	-5.717268e-07	-4.030176e-10	-3.966901e+00	-3.195587e+01
1.730000e-06	-5.249671e-07	-3.863167e-10	-3.642461e+00	-3.095289e+01
1.740000e-06	-4.781564e-07	-3.704611e-10	-3.317667e+00	-2.993129e+01
1.750000e-06	-4.313880e-07	-3.555447e-10	-2.993167e+00	-2.889079e+01
1.760000e-06	-3.846407e-07	-3.407376e-10	-2.668812e+00	-2.783115e+01
1.770000e-06	-3.378097e-07	-3.259233e-10	-2.343878e+00	-2.675218e+01
1.780000e-06	-2.909018e-07	-3.113716e-10	-2.018409e+00	-2.565374e+01
1.790000e-06	-2.438972e-07	-2.954869e-10	-1.692270e+00	-2.453572e+01
1.800000e-06	-1.968998e-07	-2.775592e-10	-1.366181e+00	-2.339811e+01
1.810000e-06	-1.498651e-07	-2.570664e-10	-1.039832e+00	-2.224092e+01
1.820000e-06	-1.028084e-07	-2.382086e-10	-7.133316e-01	-2.106427e+01
1.830000e-06	-5.582618e-08	-2.216602e-10	-3.873475e-01	-1.986832e+01
1.840000e-06	-8.860308e-09	-2.045744e-10	-6.147686e-02	-1.865330e+01
1.850000e-06	3.805719e-08	-1.889521e-10	2.640581e-01	-1.741953e+01
1.860000e-06	8.496479e-08	-1.765744e-10	5.895245e-01	-1.616740e+01
1.870000e-06	1.319028e-07	-1.612600e-10	9.152020e-01	-1.489736e+01
1.880000e-06	1.788592e-07	-1.409239e-10	1.241007e+00	-1.360996e+01
1.890000e-06	2.257977e-07	-1.187818e-10	1.566687e+00	-1.230581e+01
1.900000e-06	2.727305e-07	-9.848789e-11	1.892328e+00	-1.098560e+01
1.910000e-06	3.196990e-07	-8.079901e-11	2.218217e+00	-9.650106e+00
1.920000e-06	3.666764e-07	-6.422257e-11	2.544168e+00	-8.300153e+00
1.930000e-06	4.135359e-07	-4.896064e-11	2.869301e+00	-6.936653e+00
1.940000e-06	4.602907e-07	-3.375704e-11	3.193707e+00	-5.560582e+00
1.950000e-06	5.070128e-07	-1.790865e-11	3.517886e+00	-4.172978e+00
1.960000e-06	5.536221e-07	-9.673066e-13	3.841283e+00	-2.774941e+00
1.970000e-06	6.001729e-07	1.834556e-11	4.164273e+00	-1.367624e+00
1.980000e-06	6.467026e-07	4.080125e-11	4.487118e+00	4.776857e-02
1.990000e-06	6.931828e-07	6.342720e-11	4.809619e+00	1.469986e+00
2.000000e-06	7.396838e-07	8.412054e-11	5.132263e+00	2.897740e+00
2.010000e-06	7.860233e-07	1.037746e-10	5.453789e+00	4.329709e+00
2.020000e-06	8.323264e-07	1.218386e-10	5.775060e+00	5.764542e+00
2.030000e-06	8.786457e-07	1.396446e-10	6.096445e+00	7.200872e+00
2.040000e-06	9.248082e-07	1.582729e-10	6.416741e+00	8.637314e+00
2.050000e-06	9.708573e-07	1.757799e-10	6.736251e+00	1.007248e+01
2.060000e-06	1.016907e-06	1.933943e-10	7.055763e+00	1.150498e+01
2.070000e-06	1.062978e-06	2.136042e-10	7.375424e+00	1.293343e+01
2.080000e-06	1.108884e-06	2.357935e-10	7.693946e+00	1.435646e+01
2.090000e-06	1.154634e-06	2.567706e-10	8.011380e+00	1.577273e+01
2.100000e-06	1.200337e-06	2.775332e-10	8.328486e+00	1.718092e+01
2.110000e-06	1.245944e-06	2.969437e-10	8.644928e+00	1.857974e+01
2.120000e-06	1.291493e-06	3.144199e-10	8.960967e+00	1.996796e+01
2.130000e-06	1.337046e-06	3.309652e-10	9.277038e+00	2.134437e+01
2.140000e-06	1.382473e-06	3.481913e-10	9.592229e+00	2.270783e+01
2.150000e-06	1.427823e-06	3.659794e-10	9.906887e+00	2.405725e+01
2.160000e-06	1.473120e-06	3.838877e-10	1.022118e+01	2.539160e+01
2.170000e-06	1.518288e-06	4.042505e-10	1.053457e+01	2.670994e+01
2.180000e-06	1.563343e-06	4.240608e-10	1.084719e+01	2.801137e+01
2.190000e-06	1.608254e-06	4.402155e-10	1.115880e+01	2.929507e+01
2.200000e-06	1.653097e-06	4.564321e-10	1.146994e+01	3.056031e+01
2.210000e-06	1.697818e-06	4.743092e-10	1.178023e+01	3.180642e+01
2.220000e-06	1.742447e-06	4.932271e-10	1.208989e+01	3.303283e+01
2.230000e-06	1.786898e-06	5.104680e-10	1.239831e+01	3.423903e+01
2.240000e-06	1.831110e-06	5.250845e-10	1.270508e+01	3.542460e+01
2.250000e-06	1.875199e-06	5.379374e-10	1.301099e+01	3.658921e+01
2.260000e-06	1.919093e-06	5.496528e-10	1.331555e+01	3.773260e+01
2.270000e-06	1.962889e-06	5.629139e-10	1.361942e+01	3.885458e+01
2.280000e-06	2.006652e-06	5.787921e-10	1.392307e+01	3.995505e+01
2.290000e-06	2.050346e-06	5.960836e-10	1.422624e+01	4.103398e+01
2.300000e-06	2.093990e-06	6.147415e-10	1.452906e+01	4.209142e+01
2.310000e-06	2.137496e-06	6.324536e-10	1.483092e+01	4.312746e+01
2.320000e-06	2.180910e-06	6.470627e-10	1.513215e+01	4.414228e+01
2.330000e-06	2.224291e-06	6.586295e-10	1.543315e+01	4.513612e+01
2.340000e-06	2.267623e-06	6.679016e-10	1.573380e+01	4.610925e+01
2.350000e-06	2.310875e-06	6.756760e-10	1.603391e+01	4.706202e+01
2.360000e-06	2.353926e-06	6.861620e-10	1.633262e+01	4.799480e+01
2.370000e-06	2.396723e-06	7.009174e-10	1.662955e+01	4.890802e+01
2.380000e-06	2.439267e-06	7.162585e-10	1.692475e+01	4.980214e+01
2.390000e-06	2.481564e-06	7.320454e-10	1.721823e+01	5.067763e+01
2.400000e-06	2.523509e-06	7.464474e-10	1.750926e+01	5.153501e+01
2.410000e-06	2.565157e-06	7.582513e-10	1.779823e+01	5.237481e+01
2.420000e-06	2.606481e-06	7.689985e-10	1.808496e+01	5.319756e+01
2.430000e-06	2.647498e-06	7.811913e-10	1.836955e+01	5.400382e+01
2.440000e-06	2.688233e-06	7.936604e-10	1.865219e+01	5.479413e+01
2.450000e-06	2.728645e-06	8.060869e-10	1.893258e+01	5.556904e+01
2.460000e-06	2.768841e-06	8.175972e-10	1.921148e+01	5.632909e+01
2.470000e-06	2.808850e-06	8.279893e-10	1.948909e+01	5.707482e+01
2.480000e-06	2.848722e-06	8.382363e-10	1.976574e+01	5.780673e+01
2.490000e-06	2.888468e-06	8.478364e-10	2.004151e+01	5.852533e+01
2.500000e-06	2.928072e-06	8.588328e-10	2.031630e+01	5.923109e+01
2.510000e-06	2.967542e-06	8.704733e-10	2.059016e+01	5.992446e+01
2.520000e-06	3.006846e-06	8.815096e-10	2.086287e+01	6.060585e+01
2.530000e-06	3.045927e-06	8.919790e-10	2.113403e+01	6.127566e+01
2.540000e-06	3.084824e-06	8.984057e-10	2.140392e+01	6.193426e+01
2.550000e-06	3.123636e-06	9.035091e-10	2.167322e+01	6.258197e+01
2.560000e-06	3.162249e-06	9.107148e-10	2.194113e+01	6.321908e+01
2.570000e-06	3.200568e-06	9.207783e-10	2.220700e+01	6.384585e+01
2.580000e-06	3.238617e-06	9.311904e-10	2.247100e+01	6.446253e+01
2.590000e-06	3.276450e-06	9.417338e-10	2.273350e+01	6.506929e+01
2.600000e-06	3.314127e-06	9.532739e-10	2.299493e+01	6.566632e+01
2.610000e-06	3.351546e-06	9.636274e-10	2.325456e+01	6.625373e+01
2.620000e-06	3.388774e-06	9.733007e-10	2.351286e+01	6.683164e+01
2.630000e-06	3.425774e-06	9.829030e-10	2.376958e+01	6.740011e+01
2.640000e-06	3.462475e-06	9.911883e-10	2.402423e+01	6.795921e+01
2.650000e-06	3.498968e-06	9.984643e-10	2.427744e+01	6.850897e+01
2.660000e-06	3.535112e-06	1.005886e-09	2.452822e+01	6.904938e+01
2.670000e-06	3.571068e-06	1.011962e-09	2.477770e+01	6.958044e+01
2.680000e-06	3.606884e-06	1.017017e-09	2.502621e+01	7.010212e+01
2.690000e-06	3.642479e-06	1.023854e-09	2.527318e+01	7.061440e+01
2.700000e-06	3.677980e-06	1.033309e-09	2.551951e+01	7.111722e+01
2.710000e-06	3.713294e-06	1.042814e-09	2.576453e+01	7.161053e+01
2.720000e-06	3.748408e-06	1.054558e-09	2.600817e+01	7.209428e+01
2.730000e-06	3.783321e-06	1.066857e-09	2.625041e+01	7.256841e+01
2.740000e-06	3.817939e-06	1.074770e-09	2.649060e+01	7.303288e+01
2.750000e-06	3.852047e-06	1.079185e-09	2.672726e+01	7.348763e+01
2.760000e-06	3.885649e-06	1.081566e-09	2.696041e+01	7.393262e+01
2.770000e-06	3.918766e-06	1.085327e-09	2.719018e+01	7.436782e+01
2.780000e-06	3.951413e-06	1.091308e-09	2.741671e+01	7.479322e+01
2.790000e-06	3.983745e-06	1.100537e-09	2.764104e+01	7.520880e+01
2.800000e-06	4.015699e-06	1.110985e-09	2.786275e+01	7.561459e+01
2.810000e-06	4.047407e-06	1.121674e-09	2.808276e+01	7.601060e+01
2.820000e-06	4.078979e-06	1.127885e-09	2.830182e+01	7.639689e+01
2.830000e-06	4.110381e-06	1.129233e-09	2.851970e+01	7.677351e+01
2.840000e-06	4.141604e-06	1.129975e-09	2.873634e+01	7.714054e+01
2.850000e-06	4.172608e-06	1.131559e-09	2.895146e+01	7.749810e+01
2.860000e-06	4.203368e-06	1.136168e-09	2.916489e+01	7.784628e+01
2.870000e-06	4.233815e-06	1.140364e-09	2.937614e+01	7.818524e+01
2.880000e-06	4.263928e-06	1.145399e-09	2.958508e+01	7.851513e+01
2.890000e-06	4.293693e-06	1.152883e-09	2.979160e+01	7.883613e+01
2.900000e-06	4.323209e-06	1.158681e-09	2.999640e+01	7.914842e+01
