# Temperatura_=_-0.2
# Concentracion g/m^3_=_1620.0
# C_Vs_to_Am_M_A/Vsm_=_65563218390.804596
# pendiente_HvsI_1/m_=_3716.3
# ordenada_HvsI_A/m_=_1297.0
# frecuencia_Hz_=_135108.2222719275

Tiempo_(s)	Campo_(V.s)	Magnetizacion_(V.s)	Campo_(kA/m)	Magnetizacion_(A/m)
0.000000e+00	-5.520916e-06	-9.114108e-10	-3.836462e+01	-5.908998e+01
1.000000e-08	-5.521121e-06	-9.072391e-10	-3.836604e+01	-5.907010e+01
2.000000e-08	-5.521172e-06	-9.042009e-10	-3.836639e+01	-5.904926e+01
3.000000e-08	-5.520953e-06	-9.050853e-10	-3.836487e+01	-5.902745e+01
4.000000e-08	-5.520343e-06	-9.051349e-10	-3.836063e+01	-5.900467e+01
5.000000e-08	-5.519244e-06	-9.022113e-10	-3.835299e+01	-5.898089e+01
6.000000e-08	-5.517485e-06	-8.932509e-10	-3.834077e+01	-5.895610e+01
7.000000e-08	-5.515043e-06	-8.649791e-10	-3.832380e+01	-5.893026e+01
8.000000e-08	-5.512037e-06	-8.465598e-10	-3.830291e+01	-5.890332e+01
9.000000e-08	-5.508587e-06	-9.115317e-10	-3.827894e+01	-5.887523e+01
1.000000e-07	-5.504670e-06	-9.984603e-10	-3.825172e+01	-5.884595e+01
1.100000e-07	-5.500373e-06	-9.395957e-10	-3.822186e+01	-5.881540e+01
1.200000e-07	-5.495891e-06	-8.257111e-10	-3.819072e+01	-5.878354e+01
1.300000e-07	-5.491314e-06	-8.048053e-10	-3.815891e+01	-5.875029e+01
1.400000e-07	-5.486431e-06	-9.107717e-10	-3.812498e+01	-5.871559e+01
1.500000e-07	-5.481059e-06	-9.175314e-10	-3.808765e+01	-5.867937e+01
1.600000e-07	-5.475295e-06	-8.093088e-10	-3.804759e+01	-5.864158e+01
1.700000e-07	-5.469152e-06	-8.240165e-10	-3.800491e+01	-5.860214e+01
1.800000e-07	-5.462541e-06	-9.110210e-10	-3.795896e+01	-5.856101e+01
1.900000e-07	-5.455519e-06	-9.487604e-10	-3.791017e+01	-5.851813e+01
2.000000e-07	-5.448197e-06	-8.396252e-10	-3.785929e+01	-5.847345e+01
2.100000e-07	-5.440612e-06	-8.466395e-10	-3.780658e+01	-5.842693e+01
2.200000e-07	-5.432751e-06	-9.056265e-10	-3.775196e+01	-5.837853e+01
2.300000e-07	-5.424645e-06	-9.472085e-10	-3.769563e+01	-5.832824e+01
2.400000e-07	-5.416354e-06	-8.823868e-10	-3.763802e+01	-5.827602e+01
2.500000e-07	-5.407533e-06	-8.800458e-10	-3.757672e+01	-5.822186e+01
2.600000e-07	-5.397843e-06	-9.060193e-10	-3.750939e+01	-5.816577e+01
2.700000e-07	-5.387467e-06	-9.208772e-10	-3.743728e+01	-5.810774e+01
2.800000e-07	-5.376532e-06	-8.875162e-10	-3.736129e+01	-5.804778e+01
2.900000e-07	-5.365054e-06	-8.868940e-10	-3.728154e+01	-5.798592e+01
3.000000e-07	-5.353174e-06	-9.160227e-10	-3.719898e+01	-5.792219e+01
3.100000e-07	-5.341018e-06	-9.114278e-10	-3.711451e+01	-5.785660e+01
3.200000e-07	-5.328516e-06	-8.827319e-10	-3.702763e+01	-5.778920e+01
3.300000e-07	-5.315586e-06	-8.618179e-10	-3.693778e+01	-5.772003e+01
3.400000e-07	-5.302311e-06	-9.033326e-10	-3.684554e+01	-5.764915e+01
3.500000e-07	-5.288636e-06	-8.850690e-10	-3.675051e+01	-5.757658e+01
3.600000e-07	-5.274464e-06	-8.632521e-10	-3.665203e+01	-5.750240e+01
3.700000e-07	-5.259920e-06	-8.701301e-10	-3.655096e+01	-5.742664e+01
3.800000e-07	-5.245081e-06	-9.118723e-10	-3.644784e+01	-5.734936e+01
3.900000e-07	-5.229571e-06	-8.567360e-10	-3.634007e+01	-5.727062e+01
4.000000e-07	-5.213373e-06	-8.523641e-10	-3.622751e+01	-5.719045e+01
4.100000e-07	-5.196765e-06	-9.043766e-10	-3.611210e+01	-5.710890e+01
4.200000e-07	-5.179827e-06	-9.038619e-10	-3.599440e+01	-5.702601e+01
4.300000e-07	-5.162555e-06	-8.264340e-10	-3.587438e+01	-5.694181e+01
4.400000e-07	-5.144989e-06	-8.740565e-10	-3.575231e+01	-5.685634e+01
4.500000e-07	-5.127138e-06	-9.165937e-10	-3.562827e+01	-5.676960e+01
4.600000e-07	-5.108782e-06	-8.563544e-10	-3.550071e+01	-5.668162e+01
4.700000e-07	-5.089998e-06	-8.204653e-10	-3.537018e+01	-5.659240e+01
4.800000e-07	-5.070905e-06	-8.885382e-10	-3.523751e+01	-5.650193e+01
4.900000e-07	-5.051478e-06	-8.659517e-10	-3.510251e+01	-5.641020e+01
5.000000e-07	-5.031790e-06	-8.250747e-10	-3.496570e+01	-5.631719e+01
5.100000e-07	-5.011948e-06	-8.639757e-10	-3.482782e+01	-5.622286e+01
5.200000e-07	-4.991922e-06	-8.727058e-10	-3.468866e+01	-5.612717e+01
5.300000e-07	-4.971481e-06	-8.141477e-10	-3.454661e+01	-5.603008e+01
5.400000e-07	-4.950602e-06	-8.466588e-10	-3.440153e+01	-5.593154e+01
5.500000e-07	-4.929371e-06	-8.843100e-10	-3.425399e+01	-5.583146e+01
5.600000e-07	-4.907840e-06	-8.303908e-10	-3.410437e+01	-5.572980e+01
5.700000e-07	-4.886067e-06	-8.127045e-10	-3.395308e+01	-5.562647e+01
5.800000e-07	-4.863999e-06	-8.531670e-10	-3.379973e+01	-5.552139e+01
5.900000e-07	-4.841521e-06	-8.314446e-10	-3.364352e+01	-5.541449e+01
6.000000e-07	-4.818608e-06	-8.004017e-10	-3.348431e+01	-5.530567e+01
6.100000e-07	-4.795316e-06	-8.334620e-10	-3.332245e+01	-5.519485e+01
6.200000e-07	-4.771726e-06	-8.334104e-10	-3.315852e+01	-5.508195e+01
6.300000e-07	-4.747989e-06	-8.068729e-10	-3.299358e+01	-5.496690e+01
6.400000e-07	-4.724111e-06	-8.136986e-10	-3.282765e+01	-5.484960e+01
6.500000e-07	-4.699918e-06	-8.259955e-10	-3.265953e+01	-5.472999e+01
6.600000e-07	-4.675321e-06	-8.018009e-10	-3.248861e+01	-5.460800e+01
6.700000e-07	-4.650351e-06	-8.058223e-10	-3.231509e+01	-5.448359e+01
6.800000e-07	-4.624966e-06	-8.106153e-10	-3.213869e+01	-5.435669e+01
6.900000e-07	-4.598956e-06	-8.014247e-10	-3.195795e+01	-5.422726e+01
7.000000e-07	-4.572282e-06	-7.929557e-10	-3.177259e+01	-5.409530e+01
7.100000e-07	-4.545155e-06	-8.045876e-10	-3.158409e+01	-5.396077e+01
7.200000e-07	-4.517671e-06	-7.952638e-10	-3.139310e+01	-5.382367e+01
7.300000e-07	-4.489938e-06	-7.952970e-10	-3.120039e+01	-5.368403e+01
7.400000e-07	-4.462059e-06	-7.971704e-10	-3.100666e+01	-5.354186e+01
7.500000e-07	-4.434017e-06	-7.986320e-10	-3.081180e+01	-5.339721e+01
7.600000e-07	-4.405756e-06	-7.911902e-10	-3.061542e+01	-5.325013e+01
7.700000e-07	-4.377150e-06	-7.927770e-10	-3.041663e+01	-5.310068e+01
7.800000e-07	-4.348188e-06	-7.818117e-10	-3.021538e+01	-5.294895e+01
7.900000e-07	-4.318987e-06	-7.750038e-10	-3.001246e+01	-5.279504e+01
8.000000e-07	-4.289538e-06	-7.775057e-10	-2.980782e+01	-5.263905e+01
8.100000e-07	-4.259772e-06	-7.823021e-10	-2.960098e+01	-5.248110e+01
8.200000e-07	-4.229697e-06	-7.762419e-10	-2.939199e+01	-5.232131e+01
8.300000e-07	-4.199350e-06	-7.785810e-10	-2.918110e+01	-5.215983e+01
8.400000e-07	-4.168719e-06	-7.795950e-10	-2.896825e+01	-5.199678e+01
8.500000e-07	-4.137825e-06	-7.702173e-10	-2.875357e+01	-5.183233e+01
8.600000e-07	-4.106572e-06	-7.620432e-10	-2.853640e+01	-5.166661e+01
8.700000e-07	-4.075020e-06	-7.619212e-10	-2.831715e+01	-5.149979e+01
8.800000e-07	-4.043327e-06	-7.588050e-10	-2.809691e+01	-5.133201e+01
8.900000e-07	-4.011485e-06	-7.548056e-10	-2.787564e+01	-5.116341e+01
9.000000e-07	-3.979427e-06	-7.598783e-10	-2.765287e+01	-5.099413e+01
9.100000e-07	-3.947169e-06	-7.584772e-10	-2.742871e+01	-5.082432e+01
9.200000e-07	-3.914735e-06	-7.523940e-10	-2.720333e+01	-5.065408e+01
9.300000e-07	-3.881945e-06	-7.500395e-10	-2.697548e+01	-5.048353e+01
9.400000e-07	-3.848729e-06	-7.538479e-10	-2.674466e+01	-5.031277e+01
9.500000e-07	-3.814963e-06	-7.480317e-10	-2.651002e+01	-5.014187e+01
9.600000e-07	-3.780660e-06	-7.449293e-10	-2.627165e+01	-4.997090e+01
9.700000e-07	-3.745942e-06	-7.413420e-10	-2.603039e+01	-4.979988e+01
9.800000e-07	-3.710861e-06	-7.371978e-10	-2.578662e+01	-4.962885e+01
9.900000e-07	-3.675524e-06	-7.300869e-10	-2.554106e+01	-4.945780e+01
1.000000e-06	-3.639923e-06	-7.334382e-10	-2.529367e+01	-4.928668e+01
1.010000e-06	-3.604145e-06	-7.319095e-10	-2.504505e+01	-4.911546e+01
1.020000e-06	-3.568325e-06	-7.283583e-10	-2.479614e+01	-4.894404e+01
1.030000e-06	-3.532359e-06	-7.264319e-10	-2.454621e+01	-4.877231e+01
1.040000e-06	-3.496161e-06	-7.289661e-10	-2.429467e+01	-4.860015e+01
1.050000e-06	-3.459661e-06	-7.248804e-10	-2.404104e+01	-4.842738e+01
1.060000e-06	-3.422898e-06	-7.211231e-10	-2.378558e+01	-4.825383e+01
1.070000e-06	-3.386058e-06	-7.143761e-10	-2.352958e+01	-4.807926e+01
1.080000e-06	-3.348962e-06	-7.073673e-10	-2.327180e+01	-4.790345e+01
1.090000e-06	-3.311544e-06	-7.005870e-10	-2.301178e+01	-4.772612e+01
1.100000e-06	-3.273879e-06	-6.987797e-10	-2.275004e+01	-4.754700e+01
1.110000e-06	-3.235905e-06	-6.946311e-10	-2.248616e+01	-4.736577e+01
1.120000e-06	-3.197737e-06	-6.898168e-10	-2.222094e+01	-4.718211e+01
1.130000e-06	-3.159456e-06	-6.874238e-10	-2.195493e+01	-4.699568e+01
1.140000e-06	-3.120948e-06	-6.870942e-10	-2.168734e+01	-4.680612e+01
1.150000e-06	-3.082123e-06	-6.829483e-10	-2.141754e+01	-4.661307e+01
1.160000e-06	-3.043058e-06	-6.758024e-10	-2.114608e+01	-4.641614e+01
1.170000e-06	-3.003797e-06	-6.704383e-10	-2.087326e+01	-4.621496e+01
1.180000e-06	-2.964330e-06	-6.653017e-10	-2.059900e+01	-4.600915e+01
1.190000e-06	-2.924731e-06	-6.605575e-10	-2.032384e+01	-4.579831e+01
1.200000e-06	-2.885030e-06	-6.581075e-10	-2.004795e+01	-4.558206e+01
1.210000e-06	-2.845180e-06	-6.584482e-10	-1.977104e+01	-4.536002e+01
1.220000e-06	-2.805237e-06	-6.566680e-10	-1.949348e+01	-4.513183e+01
1.230000e-06	-2.765141e-06	-6.541475e-10	-1.921485e+01	-4.489712e+01
1.240000e-06	-2.724884e-06	-6.496566e-10	-1.893510e+01	-4.465556e+01
1.250000e-06	-2.684508e-06	-6.455397e-10	-1.865453e+01	-4.440680e+01
1.260000e-06	-2.643870e-06	-6.366612e-10	-1.837214e+01	-4.415053e+01
1.270000e-06	-2.602938e-06	-6.321253e-10	-1.808771e+01	-4.388647e+01
1.280000e-06	-2.561756e-06	-6.277017e-10	-1.780153e+01	-4.361433e+01
1.290000e-06	-2.520412e-06	-6.225423e-10	-1.751424e+01	-4.333388e+01
1.300000e-06	-2.478911e-06	-6.152844e-10	-1.722585e+01	-4.304489e+01
1.310000e-06	-2.437016e-06	-6.099859e-10	-1.693472e+01	-4.274716e+01
1.320000e-06	-2.394768e-06	-6.061305e-10	-1.664114e+01	-4.244051e+01
1.330000e-06	-2.352205e-06	-6.038209e-10	-1.634538e+01	-4.212479e+01
1.340000e-06	-2.309241e-06	-6.014670e-10	-1.604682e+01	-4.179989e+01
1.350000e-06	-2.266082e-06	-5.985451e-10	-1.574691e+01	-4.146569e+01
1.360000e-06	-2.222763e-06	-5.924179e-10	-1.544589e+01	-4.112214e+01
1.370000e-06	-2.179200e-06	-5.860836e-10	-1.514317e+01	-4.076916e+01
1.380000e-06	-2.135501e-06	-5.780538e-10	-1.483950e+01	-4.040674e+01
1.390000e-06	-2.091746e-06	-5.685615e-10	-1.453546e+01	-4.003487e+01
1.400000e-06	-2.047935e-06	-5.601470e-10	-1.423102e+01	-3.965353e+01
1.410000e-06	-2.004071e-06	-5.553114e-10	-1.392621e+01	-3.926277e+01
1.420000e-06	-1.960123e-06	-5.528291e-10	-1.362081e+01	-3.886260e+01
1.430000e-06	-1.916136e-06	-5.496340e-10	-1.331515e+01	-3.845307e+01
1.440000e-06	-1.872118e-06	-5.451081e-10	-1.300927e+01	-3.803422e+01
1.450000e-06	-1.828030e-06	-5.387668e-10	-1.270290e+01	-3.760612e+01
1.460000e-06	-1.783823e-06	-5.305758e-10	-1.239571e+01	-3.716881e+01
1.470000e-06	-1.739464e-06	-5.210452e-10	-1.208746e+01	-3.672234e+01
1.480000e-06	-1.695016e-06	-5.121956e-10	-1.177859e+01	-3.626675e+01
1.490000e-06	-1.650388e-06	-5.042675e-10	-1.146848e+01	-3.580208e+01
1.500000e-06	-1.605575e-06	-4.990422e-10	-1.115707e+01	-3.532835e+01
1.510000e-06	-1.560664e-06	-4.957353e-10	-1.084499e+01	-3.484556e+01
1.520000e-06	-1.515607e-06	-4.912282e-10	-1.053189e+01	-3.435371e+01
1.530000e-06	-1.470411e-06	-4.832799e-10	-1.021782e+01	-3.385276e+01
1.540000e-06	-1.425068e-06	-4.735600e-10	-9.902739e+00	-3.334265e+01
1.550000e-06	-1.379659e-06	-4.641606e-10	-9.587193e+00	-3.282330e+01
1.560000e-06	-1.334268e-06	-4.565311e-10	-9.271771e+00	-3.229461e+01
1.570000e-06	-1.288761e-06	-4.472985e-10	-8.955543e+00	-3.175645e+01
1.580000e-06	-1.243109e-06	-4.371925e-10	-8.638312e+00	-3.120864e+01
1.590000e-06	-1.197379e-06	-4.268634e-10	-8.320537e+00	-3.065101e+01
1.600000e-06	-1.151509e-06	-4.142266e-10	-8.001786e+00	-3.008332e+01
1.610000e-06	-1.105518e-06	-4.037843e-10	-7.682197e+00	-2.950532e+01
1.620000e-06	-1.059466e-06	-3.972573e-10	-7.362187e+00	-2.891674e+01
1.630000e-06	-1.013362e-06	-3.913694e-10	-7.041809e+00	-2.831727e+01
1.640000e-06	-9.671822e-07	-3.832145e-10	-6.720909e+00	-2.770658e+01
1.650000e-06	-9.208645e-07	-3.696102e-10	-6.399049e+00	-2.708431e+01
1.660000e-06	-8.744896e-07	-3.555699e-10	-6.076791e+00	-2.645011e+01
1.670000e-06	-8.281040e-07	-3.396316e-10	-5.754460e+00	-2.580357e+01
1.680000e-06	-7.816702e-07	-3.258207e-10	-5.431793e+00	-2.514429e+01
1.690000e-06	-7.353016e-07	-3.145880e-10	-5.109580e+00	-2.447187e+01
1.700000e-06	-6.889024e-07	-3.075183e-10	-4.787154e+00	-2.378588e+01
1.710000e-06	-6.423421e-07	-2.999893e-10	-4.463608e+00	-2.308591e+01
1.720000e-06	-5.957767e-07	-2.890018e-10	-4.140027e+00	-2.237155e+01
1.730000e-06	-5.492703e-07	-2.770606e-10	-3.816856e+00	-2.164240e+01
1.740000e-06	-5.027278e-07	-2.643395e-10	-3.493435e+00	-2.089806e+01
1.750000e-06	-4.561021e-07	-2.505188e-10	-3.169434e+00	-2.013819e+01
1.760000e-06	-4.094129e-07	-2.370125e-10	-2.844993e+00	-1.936242e+01
1.770000e-06	-3.626901e-07	-2.240524e-10	-2.520318e+00	-1.857047e+01
1.780000e-06	-3.159520e-07	-2.127670e-10	-2.195537e+00	-1.776205e+01
1.790000e-06	-2.691317e-07	-2.025598e-10	-1.870185e+00	-1.693694e+01
1.800000e-06	-2.222732e-07	-1.882739e-10	-1.544567e+00	-1.609496e+01
1.810000e-06	-1.754198e-07	-1.728750e-10	-1.218985e+00	-1.523599e+01
1.820000e-06	-1.284885e-07	-1.579192e-10	-8.928614e-01	-1.435995e+01
1.830000e-06	-8.158810e-08	-1.447566e-10	-5.669523e-01	-1.346685e+01
1.840000e-06	-3.479553e-08	-1.319700e-10	-2.417926e-01	-1.255673e+01
1.850000e-06	1.196233e-08	-1.191407e-10	8.312575e-02	-1.162974e+01
1.860000e-06	5.870265e-08	-1.090397e-10	4.079222e-01	-1.068608e+01
1.870000e-06	1.055054e-07	-9.709750e-11	7.331523e-01	-9.726028e+00
1.880000e-06	1.523779e-07	-8.035984e-11	1.058867e+00	-8.749944e+00
1.890000e-06	1.991855e-07	-6.249507e-11	1.384132e+00	-7.758268e+00
1.900000e-06	2.458930e-07	-4.521543e-11	1.708700e+00	-6.751519e+00
1.910000e-06	2.926221e-07	-3.075577e-11	2.033419e+00	-5.730297e+00
1.920000e-06	3.393606e-07	-1.724434e-11	2.358202e+00	-4.695283e+00
1.930000e-06	3.860114e-07	-7.050629e-12	2.682377e+00	-3.647239e+00
1.940000e-06	4.326104e-07	2.860353e-12	3.006191e+00	-2.587001e+00
1.950000e-06	4.792279e-07	1.291634e-11	3.330134e+00	-1.515485e+00
1.960000e-06	5.257941e-07	2.536206e-11	3.653721e+00	-4.336736e-01
1.970000e-06	5.722816e-07	4.153144e-11	3.976761e+00	6.573773e-01
1.980000e-06	6.187455e-07	5.951279e-11	4.299636e+00	1.756550e+00
1.990000e-06	6.651412e-07	7.736875e-11	4.622038e+00	2.862668e+00
2.000000e-06	7.114794e-07	9.536704e-11	4.944041e+00	3.974499e+00
2.010000e-06	7.577694e-07	1.119008e-10	5.265707e+00	5.090766e+00
2.020000e-06	8.040623e-07	1.251868e-10	5.587395e+00	6.210148e+00
2.030000e-06	8.503390e-07	1.361705e-10	5.908970e+00	7.331291e+00
2.040000e-06	8.965479e-07	1.474398e-10	6.230073e+00	8.452816e+00
2.050000e-06	9.426763e-07	1.600152e-10	6.550618e+00	9.573320e+00
2.060000e-06	9.886868e-07	1.762679e-10	6.870343e+00	1.069139e+01
2.070000e-06	1.034605e-06	1.961694e-10	7.189428e+00	1.180562e+01
2.080000e-06	1.080485e-06	2.168640e-10	7.508245e+00	1.291459e+01
2.090000e-06	1.126376e-06	2.357182e-10	7.827142e+00	1.401690e+01
2.100000e-06	1.172226e-06	2.507619e-10	8.145750e+00	1.511118e+01
2.110000e-06	1.217893e-06	2.632453e-10	8.463087e+00	1.619608e+01
2.120000e-06	1.263430e-06	2.738472e-10	8.779523e+00	1.727028e+01
2.130000e-06	1.308907e-06	2.851201e-10	9.095542e+00	1.833251e+01
2.140000e-06	1.354332e-06	2.972298e-10	9.411194e+00	1.938157e+01
2.150000e-06	1.399711e-06	3.104158e-10	9.726531e+00	2.041629e+01
2.160000e-06	1.445032e-06	3.243216e-10	1.004147e+01	2.143557e+01
2.170000e-06	1.490291e-06	3.399240e-10	1.035597e+01	2.243840e+01
2.180000e-06	1.535383e-06	3.558395e-10	1.066931e+01	2.342382e+01
2.190000e-06	1.580340e-06	3.703523e-10	1.098171e+01	2.439098e+01
2.200000e-06	1.625209e-06	3.848781e-10	1.129351e+01	2.533908e+01
2.210000e-06	1.669898e-06	3.984908e-10	1.160405e+01	2.626743e+01
2.220000e-06	1.714407e-06	4.099495e-10	1.191334e+01	2.717544e+01
2.230000e-06	1.758776e-06	4.213108e-10	1.222166e+01	2.806259e+01
2.240000e-06	1.803036e-06	4.308736e-10	1.252922e+01	2.892848e+01
2.250000e-06	1.847182e-06	4.398804e-10	1.283599e+01	2.977278e+01
2.260000e-06	1.891226e-06	4.496998e-10	1.314205e+01	3.059528e+01
2.270000e-06	1.935188e-06	4.607281e-10	1.344754e+01	3.139584e+01
2.280000e-06	1.979056e-06	4.715323e-10	1.375237e+01	3.217443e+01
2.290000e-06	2.022923e-06	4.836136e-10	1.405721e+01	3.293111e+01
2.300000e-06	2.066787e-06	4.921570e-10	1.436202e+01	3.366602e+01
2.310000e-06	2.110584e-06	4.981003e-10	1.466636e+01	3.437939e+01
2.320000e-06	2.154279e-06	5.052001e-10	1.497000e+01	3.507153e+01
2.330000e-06	2.197868e-06	5.126133e-10	1.527289e+01	3.574282e+01
2.340000e-06	2.241367e-06	5.191393e-10	1.557516e+01	3.639372e+01
2.350000e-06	2.284729e-06	5.262294e-10	1.587649e+01	3.702474e+01
2.360000e-06	2.327830e-06	5.363600e-10	1.617600e+01	3.763646e+01
2.370000e-06	2.370627e-06	5.470540e-10	1.647339e+01	3.822950e+01
2.380000e-06	2.413124e-06	5.576521e-10	1.676870e+01	3.880454e+01
2.390000e-06	2.455391e-06	5.678856e-10	1.706241e+01	3.936229e+01
2.400000e-06	2.497427e-06	5.777196e-10	1.735452e+01	3.990349e+01
2.410000e-06	2.539071e-06	5.865425e-10	1.764390e+01	4.042890e+01
2.420000e-06	2.580278e-06	5.956312e-10	1.793024e+01	4.093929e+01
2.430000e-06	2.621140e-06	6.025661e-10	1.821419e+01	4.143546e+01
2.440000e-06	2.661786e-06	6.062376e-10	1.849664e+01	4.191820e+01
2.450000e-06	2.702231e-06	6.119384e-10	1.877769e+01	4.238829e+01
2.460000e-06	2.742488e-06	6.208304e-10	1.905744e+01	4.284650e+01
2.470000e-06	2.782581e-06	6.302864e-10	1.933604e+01	4.329359e+01
2.480000e-06	2.822549e-06	6.406719e-10	1.961377e+01	4.373028e+01
2.490000e-06	2.862416e-06	6.495494e-10	1.989081e+01	4.415728e+01
2.500000e-06	2.902180e-06	6.582272e-10	2.016713e+01	4.457526e+01
2.510000e-06	2.941817e-06	6.642747e-10	2.044256e+01	4.498483e+01
2.520000e-06	2.981338e-06	6.694049e-10	2.071719e+01	4.538659e+01
2.530000e-06	3.020701e-06	6.728760e-10	2.099072e+01	4.578107e+01
2.540000e-06	3.059801e-06	6.757467e-10	2.126243e+01	4.616875e+01
2.550000e-06	3.098680e-06	6.796570e-10	2.153260e+01	4.655007e+01
2.560000e-06	3.137233e-06	6.853100e-10	2.180050e+01	4.692542e+01
2.570000e-06	3.175433e-06	6.919406e-10	2.206595e+01	4.729511e+01
2.580000e-06	3.213422e-06	6.978017e-10	2.232993e+01	4.765941e+01
2.590000e-06	3.251262e-06	7.037399e-10	2.259288e+01	4.801855e+01
2.600000e-06	3.288974e-06	7.092874e-10	2.285494e+01	4.837268e+01
2.610000e-06	3.326510e-06	7.150016e-10	2.311578e+01	4.872191e+01
2.620000e-06	3.363874e-06	7.194278e-10	2.337542e+01	4.906629e+01
2.630000e-06	3.400999e-06	7.230990e-10	2.363340e+01	4.940584e+01
2.640000e-06	3.437747e-06	7.258785e-10	2.388876e+01	4.974051e+01
2.650000e-06	3.474160e-06	7.285666e-10	2.414179e+01	5.007023e+01
2.660000e-06	3.510375e-06	7.328663e-10	2.439345e+01	5.039488e+01
2.670000e-06	3.546442e-06	7.384117e-10	2.464408e+01	5.071429e+01
2.680000e-06	3.582391e-06	7.446613e-10	2.489388e+01	5.102828e+01
2.690000e-06	3.618225e-06	7.500491e-10	2.514289e+01	5.133665e+01
2.700000e-06	3.653927e-06	7.544437e-10	2.539098e+01	5.163915e+01
2.710000e-06	3.689456e-06	7.607579e-10	2.563788e+01	5.193554e+01
2.720000e-06	3.724695e-06	7.642899e-10	2.588275e+01	5.222555e+01
2.730000e-06	3.759532e-06	7.692316e-10	2.612483e+01	5.250893e+01
2.740000e-06	3.793957e-06	7.738251e-10	2.636405e+01	5.278538e+01
2.750000e-06	3.828006e-06	7.770435e-10	2.660065e+01	5.305466e+01
2.760000e-06	3.861559e-06	7.798307e-10	2.683381e+01	5.331649e+01
2.770000e-06	3.894604e-06	7.806230e-10	2.706344e+01	5.357064e+01
2.780000e-06	3.927291e-06	7.814961e-10	2.729058e+01	5.381686e+01
2.790000e-06	3.959652e-06	7.825364e-10	2.751546e+01	5.405495e+01
2.800000e-06	3.991763e-06	7.884854e-10	2.773859e+01	5.428473e+01
2.810000e-06	4.023690e-06	7.992258e-10	2.796045e+01	5.450602e+01
2.820000e-06	4.055493e-06	8.098915e-10	2.818145e+01	5.471870e+01
2.830000e-06	4.087195e-06	8.162627e-10	2.840174e+01	5.492268e+01
2.840000e-06	4.118697e-06	8.146781e-10	2.862065e+01	5.511788e+01
2.850000e-06	4.149859e-06	8.072805e-10	2.883720e+01	5.530428e+01
2.860000e-06	4.180662e-06	8.012504e-10	2.905124e+01	5.548190e+01
2.870000e-06	4.211144e-06	8.005576e-10	2.926307e+01	5.565077e+01
2.880000e-06	4.241339e-06	8.039589e-10	2.947289e+01	5.581099e+01
2.890000e-06	4.271284e-06	8.109568e-10	2.968097e+01	5.596267e+01
2.900000e-06	4.301004e-06	8.200896e-10	2.988749e+01	5.610599e+01
