# Temperatura_=_-33.29
# Concentracion g/m^3_=_1620.0
# C_Vs_to_Am_M_A/Vsm_=_65563218390.804596
# pendiente_HvsI_1/m_=_3716.3
# ordenada_HvsI_A/m_=_1297.0
# frecuencia_Hz_=_135097.7915169446

Tiempo_(s)	Campo_(V.s)	Magnetizacion_(V.s)	Campo_(kA/m)	Magnetizacion_(A/m)
0.000000e+00	-5.509657e-06	-9.870759e-10	-3.837199e+01	-6.568568e+01
1.000000e-08	-5.509746e-06	-9.861781e-10	-3.837261e+01	-6.573664e+01
2.000000e-08	-5.509515e-06	-9.869516e-10	-3.837100e+01	-6.578651e+01
3.000000e-08	-5.508907e-06	-9.854152e-10	-3.836677e+01	-6.583503e+01
4.000000e-08	-5.507766e-06	-9.802299e-10	-3.835882e+01	-6.588198e+01
5.000000e-08	-5.506066e-06	-9.736621e-10	-3.834698e+01	-6.592708e+01
6.000000e-08	-5.503799e-06	-9.599572e-10	-3.833119e+01	-6.597010e+01
7.000000e-08	-5.500910e-06	-9.696778e-10	-3.831108e+01	-6.601078e+01
8.000000e-08	-5.497512e-06	-1.000158e-09	-3.828741e+01	-6.604888e+01
9.000000e-08	-5.493652e-06	-9.828797e-10	-3.826052e+01	-6.608415e+01
1.000000e-07	-5.489409e-06	-9.434957e-10	-3.823097e+01	-6.611637e+01
1.100000e-07	-5.484993e-06	-9.932057e-10	-3.820022e+01	-6.614531e+01
1.200000e-07	-5.480361e-06	-9.789454e-10	-3.816796e+01	-6.617075e+01
1.300000e-07	-5.475353e-06	-9.884505e-10	-3.813308e+01	-6.619249e+01
1.400000e-07	-5.469875e-06	-9.170393e-10	-3.809493e+01	-6.621035e+01
1.500000e-07	-5.464024e-06	-9.636020e-10	-3.805418e+01	-6.622416e+01
1.600000e-07	-5.457882e-06	-1.000932e-09	-3.801141e+01	-6.623377e+01
1.700000e-07	-5.451390e-06	-9.811019e-10	-3.796619e+01	-6.623903e+01
1.800000e-07	-5.444507e-06	-9.643336e-10	-3.791826e+01	-6.623984e+01
1.900000e-07	-5.437213e-06	-9.685220e-10	-3.786746e+01	-6.623610e+01
2.000000e-07	-5.429639e-06	-1.031197e-09	-3.781471e+01	-6.622773e+01
2.100000e-07	-5.421834e-06	-1.013565e-09	-3.776035e+01	-6.621469e+01
2.200000e-07	-5.413716e-06	-1.015737e-09	-3.770381e+01	-6.619695e+01
2.300000e-07	-5.405225e-06	-1.003649e-09	-3.764468e+01	-6.617449e+01
2.400000e-07	-5.396145e-06	-1.055817e-09	-3.758144e+01	-6.614733e+01
2.500000e-07	-5.386412e-06	-1.021457e-09	-3.751365e+01	-6.611551e+01
2.600000e-07	-5.376051e-06	-1.010973e-09	-3.744150e+01	-6.607908e+01
2.700000e-07	-5.365123e-06	-9.879684e-10	-3.736538e+01	-6.603812e+01
2.800000e-07	-5.353809e-06	-1.026505e-09	-3.728659e+01	-6.599273e+01
2.900000e-07	-5.342149e-06	-9.980328e-10	-3.720539e+01	-6.594302e+01
3.000000e-07	-5.330100e-06	-9.847285e-10	-3.712147e+01	-6.588912e+01
3.100000e-07	-5.317601e-06	-9.748243e-10	-3.703442e+01	-6.583118e+01
3.200000e-07	-5.304707e-06	-1.008226e-09	-3.694462e+01	-6.576937e+01
3.300000e-07	-5.291394e-06	-9.843969e-10	-3.685190e+01	-6.570384e+01
3.400000e-07	-5.277687e-06	-9.535972e-10	-3.675644e+01	-6.563479e+01
3.500000e-07	-5.263599e-06	-9.712215e-10	-3.665832e+01	-6.556240e+01
3.600000e-07	-5.249068e-06	-1.001561e-09	-3.655712e+01	-6.548688e+01
3.700000e-07	-5.233929e-06	-9.654106e-10	-3.645169e+01	-6.540842e+01
3.800000e-07	-5.218015e-06	-9.561235e-10	-3.634086e+01	-6.532722e+01
3.900000e-07	-5.201751e-06	-1.003322e-09	-3.622758e+01	-6.524350e+01
4.000000e-07	-5.185252e-06	-9.729609e-10	-3.611268e+01	-6.515744e+01
4.100000e-07	-5.168352e-06	-9.247523e-10	-3.599497e+01	-6.506924e+01
4.200000e-07	-5.151167e-06	-9.673538e-10	-3.587529e+01	-6.497909e+01
4.300000e-07	-5.133666e-06	-1.010518e-09	-3.575341e+01	-6.488718e+01
4.400000e-07	-5.115766e-06	-9.297958e-10	-3.562874e+01	-6.479366e+01
4.500000e-07	-5.097431e-06	-9.433854e-10	-3.550105e+01	-6.469870e+01
4.600000e-07	-5.078746e-06	-9.970072e-10	-3.537092e+01	-6.460244e+01
4.700000e-07	-5.059718e-06	-9.549576e-10	-3.523839e+01	-6.450501e+01
4.800000e-07	-5.040371e-06	-9.027524e-10	-3.510365e+01	-6.440652e+01
4.900000e-07	-5.020830e-06	-9.873894e-10	-3.496755e+01	-6.430707e+01
5.000000e-07	-5.001080e-06	-9.665287e-10	-3.483001e+01	-6.420672e+01
5.100000e-07	-4.981035e-06	-9.056920e-10	-3.469041e+01	-6.410554e+01
5.200000e-07	-4.960720e-06	-9.510663e-10	-3.454892e+01	-6.400357e+01
5.300000e-07	-4.940120e-06	-9.936391e-10	-3.440545e+01	-6.390082e+01
5.400000e-07	-4.919120e-06	-9.058395e-10	-3.425920e+01	-6.379729e+01
5.500000e-07	-4.897711e-06	-9.227069e-10	-3.411009e+01	-6.369297e+01
5.600000e-07	-4.875939e-06	-9.750186e-10	-3.395846e+01	-6.358780e+01
5.700000e-07	-4.853830e-06	-9.310714e-10	-3.380449e+01	-6.348174e+01
5.800000e-07	-4.831376e-06	-9.028333e-10	-3.364810e+01	-6.337470e+01
5.900000e-07	-4.808643e-06	-9.660594e-10	-3.348979e+01	-6.326661e+01
6.000000e-07	-4.785597e-06	-9.398744e-10	-3.332928e+01	-6.315734e+01
6.100000e-07	-4.762254e-06	-9.011323e-10	-3.316671e+01	-6.304678e+01
6.200000e-07	-4.738686e-06	-9.339306e-10	-3.300256e+01	-6.293480e+01
6.300000e-07	-4.714812e-06	-9.319499e-10	-3.283630e+01	-6.282126e+01
6.400000e-07	-4.690625e-06	-8.922296e-10	-3.266785e+01	-6.270601e+01
6.500000e-07	-4.666090e-06	-9.181280e-10	-3.249698e+01	-6.258888e+01
6.600000e-07	-4.641152e-06	-9.316484e-10	-3.232329e+01	-6.246972e+01
6.700000e-07	-4.615729e-06	-8.959469e-10	-3.214623e+01	-6.234837e+01
6.800000e-07	-4.589765e-06	-9.043043e-10	-3.196541e+01	-6.222465e+01
6.900000e-07	-4.563233e-06	-9.168322e-10	-3.178062e+01	-6.209841e+01
7.000000e-07	-4.536202e-06	-8.921991e-10	-3.159237e+01	-6.196949e+01
7.100000e-07	-4.508809e-06	-8.873182e-10	-3.140159e+01	-6.183772e+01
7.200000e-07	-4.481193e-06	-9.082522e-10	-3.120926e+01	-6.170298e+01
7.300000e-07	-4.453428e-06	-8.907554e-10	-3.101589e+01	-6.156510e+01
7.400000e-07	-4.425458e-06	-8.889170e-10	-3.082109e+01	-6.142398e+01
7.500000e-07	-4.397267e-06	-8.955408e-10	-3.062476e+01	-6.127949e+01
7.600000e-07	-4.368825e-06	-8.858668e-10	-3.042667e+01	-6.113154e+01
7.700000e-07	-4.340079e-06	-8.705755e-10	-3.022647e+01	-6.098003e+01
7.800000e-07	-4.311042e-06	-8.851495e-10	-3.002424e+01	-6.082489e+01
7.900000e-07	-4.281735e-06	-8.741480e-10	-2.982013e+01	-6.066608e+01
8.000000e-07	-4.252138e-06	-8.609176e-10	-2.961400e+01	-6.050354e+01
8.100000e-07	-4.222215e-06	-8.629562e-10	-2.940561e+01	-6.033727e+01
8.200000e-07	-4.191934e-06	-8.708924e-10	-2.919471e+01	-6.016725e+01
8.300000e-07	-4.161323e-06	-8.546203e-10	-2.898153e+01	-5.999349e+01
8.400000e-07	-4.130494e-06	-8.579655e-10	-2.876682e+01	-5.981604e+01
8.500000e-07	-4.099470e-06	-8.628220e-10	-2.855075e+01	-5.963493e+01
8.600000e-07	-4.068245e-06	-8.534293e-10	-2.833328e+01	-5.945023e+01
8.700000e-07	-4.036755e-06	-8.418285e-10	-2.811397e+01	-5.926202e+01
8.800000e-07	-4.005000e-06	-8.514914e-10	-2.789281e+01	-5.907037e+01
8.900000e-07	-3.973089e-06	-8.451210e-10	-2.767057e+01	-5.887540e+01
9.000000e-07	-3.940963e-06	-8.346723e-10	-2.744682e+01	-5.867721e+01
9.100000e-07	-3.908513e-06	-8.389474e-10	-2.722083e+01	-5.847593e+01
9.200000e-07	-3.875671e-06	-8.416779e-10	-2.699210e+01	-5.827167e+01
9.300000e-07	-3.842379e-06	-8.291295e-10	-2.676024e+01	-5.806458e+01
9.400000e-07	-3.808662e-06	-8.283654e-10	-2.652542e+01	-5.785477e+01
9.500000e-07	-3.774434e-06	-8.345080e-10	-2.628704e+01	-5.764240e+01
9.600000e-07	-3.739689e-06	-8.254652e-10	-2.604506e+01	-5.742758e+01
9.700000e-07	-3.704656e-06	-8.199111e-10	-2.580107e+01	-5.721045e+01
9.800000e-07	-3.669436e-06	-8.229722e-10	-2.555578e+01	-5.699113e+01
9.900000e-07	-3.634062e-06	-8.186067e-10	-2.530942e+01	-5.676973e+01
1.000000e-06	-3.598523e-06	-8.072615e-10	-2.506190e+01	-5.654636e+01
1.010000e-06	-3.562840e-06	-8.102342e-10	-2.481339e+01	-5.632110e+01
1.020000e-06	-3.526981e-06	-8.103131e-10	-2.456365e+01	-5.609405e+01
1.030000e-06	-3.490851e-06	-8.057012e-10	-2.431202e+01	-5.586525e+01
1.040000e-06	-3.454508e-06	-8.035245e-10	-2.405891e+01	-5.563475e+01
1.050000e-06	-3.417934e-06	-8.050293e-10	-2.380419e+01	-5.540258e+01
1.060000e-06	-3.381023e-06	-7.927888e-10	-2.354713e+01	-5.516874e+01
1.070000e-06	-3.343939e-06	-7.877437e-10	-2.328885e+01	-5.493322e+01
1.080000e-06	-3.306724e-06	-7.873860e-10	-2.302967e+01	-5.469599e+01
1.090000e-06	-3.269232e-06	-7.847147e-10	-2.276856e+01	-5.445697e+01
1.100000e-06	-3.231477e-06	-7.755503e-10	-2.250562e+01	-5.421610e+01
1.110000e-06	-3.193489e-06	-7.739731e-10	-2.224105e+01	-5.397326e+01
1.120000e-06	-3.155291e-06	-7.679308e-10	-2.197501e+01	-5.372833e+01
1.130000e-06	-3.116883e-06	-7.603666e-10	-2.170752e+01	-5.348116e+01
1.140000e-06	-3.078257e-06	-7.538735e-10	-2.143851e+01	-5.323157e+01
1.150000e-06	-3.039432e-06	-7.506335e-10	-2.116811e+01	-5.297939e+01
1.160000e-06	-3.000365e-06	-7.432960e-10	-2.089604e+01	-5.272439e+01
1.170000e-06	-2.961140e-06	-7.392862e-10	-2.062285e+01	-5.246634e+01
1.180000e-06	-2.921803e-06	-7.356472e-10	-2.034889e+01	-5.220501e+01
1.190000e-06	-2.882254e-06	-7.309507e-10	-2.007345e+01	-5.194012e+01
1.200000e-06	-2.842518e-06	-7.256105e-10	-1.979671e+01	-5.167140e+01
1.210000e-06	-2.802703e-06	-7.224910e-10	-1.951942e+01	-5.139856e+01
1.220000e-06	-2.762837e-06	-7.165986e-10	-1.924177e+01	-5.112132e+01
1.230000e-06	-2.722825e-06	-7.104285e-10	-1.896311e+01	-5.083936e+01
1.240000e-06	-2.682614e-06	-7.080787e-10	-1.868306e+01	-5.055238e+01
1.250000e-06	-2.642174e-06	-7.043852e-10	-1.840142e+01	-5.026006e+01
1.260000e-06	-2.601402e-06	-7.003089e-10	-1.811745e+01	-4.996210e+01
1.270000e-06	-2.560317e-06	-6.955659e-10	-1.783132e+01	-4.965818e+01
1.280000e-06	-2.518953e-06	-6.891986e-10	-1.754324e+01	-4.934800e+01
1.290000e-06	-2.477291e-06	-6.804076e-10	-1.725309e+01	-4.903126e+01
1.300000e-06	-2.435300e-06	-6.726310e-10	-1.696064e+01	-4.870767e+01
1.310000e-06	-2.393028e-06	-6.642751e-10	-1.666624e+01	-4.837694e+01
1.320000e-06	-2.350472e-06	-6.568978e-10	-1.636986e+01	-4.803881e+01
1.330000e-06	-2.307574e-06	-6.531676e-10	-1.607109e+01	-4.769302e+01
1.340000e-06	-2.264469e-06	-6.523511e-10	-1.577089e+01	-4.733934e+01
1.350000e-06	-2.221278e-06	-6.478428e-10	-1.547008e+01	-4.697754e+01
1.360000e-06	-2.177987e-06	-6.419286e-10	-1.516859e+01	-4.660741e+01
1.370000e-06	-2.134528e-06	-6.345463e-10	-1.486592e+01	-4.622878e+01
1.380000e-06	-2.090882e-06	-6.276794e-10	-1.456194e+01	-4.584146e+01
1.390000e-06	-2.047158e-06	-6.181509e-10	-1.425742e+01	-4.544532e+01
1.400000e-06	-2.003423e-06	-6.130332e-10	-1.395283e+01	-4.504023e+01
1.410000e-06	-1.959611e-06	-6.084721e-10	-1.364770e+01	-4.462607e+01
1.420000e-06	-1.915746e-06	-6.040467e-10	-1.334221e+01	-4.420277e+01
1.430000e-06	-1.871789e-06	-5.988367e-10	-1.303607e+01	-4.377025e+01
1.440000e-06	-1.827669e-06	-5.930416e-10	-1.272880e+01	-4.332846e+01
1.450000e-06	-1.783473e-06	-5.830458e-10	-1.242099e+01	-4.287737e+01
1.460000e-06	-1.739229e-06	-5.745275e-10	-1.211286e+01	-4.241696e+01
1.470000e-06	-1.694860e-06	-5.668768e-10	-1.180385e+01	-4.194723e+01
1.480000e-06	-1.650378e-06	-5.583780e-10	-1.149406e+01	-4.146819e+01
1.490000e-06	-1.605771e-06	-5.499354e-10	-1.118339e+01	-4.097987e+01
1.500000e-06	-1.561042e-06	-5.443785e-10	-1.087187e+01	-4.048228e+01
1.510000e-06	-1.516097e-06	-5.380642e-10	-1.055885e+01	-3.997549e+01
1.520000e-06	-1.471007e-06	-5.307550e-10	-1.024482e+01	-3.945952e+01
1.530000e-06	-1.425926e-06	-5.224637e-10	-9.930855e+00	-3.893443e+01
1.540000e-06	-1.380765e-06	-5.145169e-10	-9.616338e+00	-3.840027e+01
1.550000e-06	-1.335396e-06	-5.049681e-10	-9.300363e+00	-3.785710e+01
1.560000e-06	-1.289868e-06	-4.960406e-10	-8.983286e+00	-3.730495e+01
1.570000e-06	-1.244349e-06	-4.883943e-10	-8.666267e+00	-3.674388e+01
1.580000e-06	-1.198781e-06	-4.809852e-10	-8.348908e+00	-3.617391e+01
1.590000e-06	-1.153099e-06	-4.747925e-10	-8.030753e+00	-3.559509e+01
1.600000e-06	-1.107353e-06	-4.689981e-10	-7.712158e+00	-3.500742e+01
1.610000e-06	-1.061545e-06	-4.625259e-10	-7.393126e+00	-3.441092e+01
1.620000e-06	-1.015584e-06	-4.554526e-10	-7.073029e+00	-3.380559e+01
1.630000e-06	-9.695415e-07	-4.481736e-10	-6.752369e+00	-3.319139e+01
1.640000e-06	-9.234733e-07	-4.371166e-10	-6.431528e+00	-3.256831e+01
1.650000e-06	-8.772896e-07	-4.271876e-10	-6.109881e+00	-3.193630e+01
1.660000e-06	-8.311449e-07	-4.169897e-10	-5.788507e+00	-3.129528e+01
1.670000e-06	-7.849846e-07	-4.094013e-10	-5.467023e+00	-3.064519e+01
1.680000e-06	-7.386778e-07	-4.000612e-10	-5.144520e+00	-2.998593e+01
1.690000e-06	-6.922697e-07	-3.927702e-10	-4.821311e+00	-2.931739e+01
1.700000e-06	-6.457327e-07	-3.830691e-10	-4.497204e+00	-2.863945e+01
1.710000e-06	-5.992315e-07	-3.715294e-10	-4.173347e+00	-2.795197e+01
1.720000e-06	-5.526867e-07	-3.597364e-10	-3.849185e+00	-2.725481e+01
1.730000e-06	-5.060975e-07	-3.475469e-10	-3.524715e+00	-2.654780e+01
1.740000e-06	-4.595091e-07	-3.332777e-10	-3.200250e+00	-2.583078e+01
1.750000e-06	-4.129089e-07	-3.204814e-10	-2.875703e+00	-2.510358e+01
1.760000e-06	-3.662999e-07	-3.091645e-10	-2.551095e+00	-2.436602e+01
1.770000e-06	-3.195743e-07	-2.985363e-10	-2.225674e+00	-2.361792e+01
1.780000e-06	-2.727466e-07	-2.888710e-10	-1.899543e+00	-2.285910e+01
1.790000e-06	-2.258479e-07	-2.793407e-10	-1.572917e+00	-2.208939e+01
1.800000e-06	-1.790218e-07	-2.663927e-10	-1.246797e+00	-2.130863e+01
1.810000e-06	-1.322844e-07	-2.516350e-10	-9.212943e-01	-2.051664e+01
1.820000e-06	-8.556378e-08	-2.391966e-10	-5.959087e-01	-1.971329e+01
1.830000e-06	-3.885695e-08	-2.283471e-10	-2.706191e-01	-1.889845e+01
1.840000e-06	7.833808e-09	-2.168268e-10	5.455853e-02	-1.807201e+01
1.850000e-06	5.460068e-08	-2.065953e-10	3.802663e-01	-1.723387e+01
1.860000e-06	1.013771e-07	-1.963700e-10	7.060406e-01	-1.638398e+01
1.870000e-06	1.481039e-07	-1.822347e-10	1.031470e+00	-1.552229e+01
1.880000e-06	1.948234e-07	-1.681132e-10	1.356847e+00	-1.464880e+01
1.890000e-06	2.415431e-07	-1.534033e-10	1.682226e+00	-1.376353e+01
1.900000e-06	2.883267e-07	-1.403871e-10	2.008050e+00	-1.286655e+01
1.910000e-06	3.350524e-07	-1.271147e-10	2.333471e+00	-1.195796e+01
1.920000e-06	3.817270e-07	-1.158843e-10	2.658537e+00	-1.103790e+01
1.930000e-06	4.283735e-07	-1.041880e-10	2.983406e+00	-1.010653e+01
1.940000e-06	4.750361e-07	-9.488024e-11	3.308388e+00	-9.164101e+00
1.950000e-06	5.216913e-07	-8.648282e-11	3.633318e+00	-8.210865e+00
1.960000e-06	5.682453e-07	-7.600366e-11	3.957543e+00	-7.247134e+00
1.970000e-06	6.146433e-07	-6.173289e-11	4.280682e+00	-6.273267e+00
1.980000e-06	6.608413e-07	-4.506192e-11	4.602427e+00	-5.289663e+00
1.990000e-06	7.070841e-07	-2.772199e-11	4.924486e+00	-4.296769e+00
2.000000e-06	7.534316e-07	-1.278168e-11	5.247272e+00	-3.295075e+00
2.010000e-06	7.996608e-07	-4.405331e-13	5.569236e+00	-2.285113e+00
2.020000e-06	8.457955e-07	9.171547e-12	5.890541e+00	-1.267458e+00
2.030000e-06	8.918904e-07	2.165371e-11	6.211568e+00	-2.427251e-01
2.040000e-06	9.379381e-07	3.601585e-11	6.532268e+00	7.884319e-01
2.050000e-06	9.838945e-07	5.158582e-11	6.852331e+00	1.825324e+00
2.060000e-06	1.029678e-06	7.077806e-11	7.171190e+00	2.867230e+00
2.070000e-06	1.075389e-06	9.129472e-11	7.489546e+00	3.913396e+00
2.080000e-06	1.121090e-06	1.081422e-10	7.807830e+00	4.963041e+00
2.090000e-06	1.166753e-06	1.214427e-10	8.125846e+00	6.015363e+00
2.100000e-06	1.212334e-06	1.343492e-10	8.443299e+00	7.069537e+00
2.110000e-06	1.257855e-06	1.470781e-10	8.760328e+00	8.124720e+00
2.120000e-06	1.303328e-06	1.607429e-10	9.077023e+00	9.180061e+00
2.130000e-06	1.348725e-06	1.743818e-10	9.393189e+00	1.023469e+01
2.140000e-06	1.394050e-06	1.887559e-10	9.708857e+00	1.128775e+01
2.150000e-06	1.439259e-06	2.041597e-10	1.002372e+01	1.233837e+01
2.160000e-06	1.484297e-06	2.208006e-10	1.033738e+01	1.338568e+01
2.170000e-06	1.529161e-06	2.347988e-10	1.064984e+01	1.442883e+01
2.180000e-06	1.573898e-06	2.494217e-10	1.096141e+01	1.546696e+01
2.190000e-06	1.618674e-06	2.633352e-10	1.127325e+01	1.649926e+01
2.200000e-06	1.663312e-06	2.770037e-10	1.158413e+01	1.752490e+01
2.210000e-06	1.707706e-06	2.891762e-10	1.189332e+01	1.854309e+01
2.220000e-06	1.752031e-06	3.026975e-10	1.220202e+01	1.955309e+01
2.230000e-06	1.796283e-06	3.158005e-10	1.251021e+01	2.055414e+01
2.240000e-06	1.840420e-06	3.283546e-10	1.281760e+01	2.154556e+01
2.250000e-06	1.884397e-06	3.416549e-10	1.312388e+01	2.252667e+01
2.260000e-06	1.928229e-06	3.547930e-10	1.342914e+01	2.349686e+01
2.270000e-06	1.971970e-06	3.660237e-10	1.373378e+01	2.445552e+01
2.280000e-06	2.015655e-06	3.766187e-10	1.403802e+01	2.540212e+01
2.290000e-06	2.059267e-06	3.867987e-10	1.434176e+01	2.633614e+01
2.300000e-06	2.102840e-06	3.977987e-10	1.464523e+01	2.725714e+01
2.310000e-06	2.146401e-06	4.090501e-10	1.494860e+01	2.816470e+01
2.320000e-06	2.189858e-06	4.206555e-10	1.525126e+01	2.905845e+01
2.330000e-06	2.233235e-06	4.317306e-10	1.555336e+01	2.993807e+01
2.340000e-06	2.276515e-06	4.430648e-10	1.585478e+01	3.080329e+01
2.350000e-06	2.319467e-06	4.544207e-10	1.615392e+01	3.165388e+01
2.360000e-06	2.362109e-06	4.644425e-10	1.645090e+01	3.248964e+01
2.370000e-06	2.404511e-06	4.741844e-10	1.674621e+01	3.331045e+01
2.380000e-06	2.446571e-06	4.835736e-10	1.703914e+01	3.411620e+01
2.390000e-06	2.488248e-06	4.946717e-10	1.732940e+01	3.490684e+01
2.400000e-06	2.529624e-06	5.051000e-10	1.761756e+01	3.568234e+01
2.410000e-06	2.570649e-06	5.159698e-10	1.790328e+01	3.644274e+01
2.420000e-06	2.611315e-06	5.258975e-10	1.818650e+01	3.718808e+01
2.430000e-06	2.651830e-06	5.358298e-10	1.846866e+01	3.791845e+01
2.440000e-06	2.692214e-06	5.447379e-10	1.874992e+01	3.863396e+01
2.450000e-06	2.732334e-06	5.531453e-10	1.902933e+01	3.933478e+01
2.460000e-06	2.772256e-06	5.624516e-10	1.930737e+01	4.002106e+01
2.470000e-06	2.812075e-06	5.728324e-10	1.958469e+01	4.069300e+01
2.480000e-06	2.851782e-06	5.826650e-10	1.986123e+01	4.135081e+01
2.490000e-06	2.891412e-06	5.942951e-10	2.013723e+01	4.199472e+01
2.500000e-06	2.930988e-06	6.062200e-10	2.041286e+01	4.262497e+01
2.510000e-06	2.970386e-06	6.151692e-10	2.068725e+01	4.324182e+01
2.520000e-06	3.009547e-06	6.227146e-10	2.095998e+01	4.384552e+01
2.530000e-06	3.048547e-06	6.332796e-10	2.123160e+01	4.443636e+01
2.540000e-06	3.087342e-06	6.435228e-10	2.150179e+01	4.501459e+01
2.550000e-06	3.125836e-06	6.517962e-10	2.176988e+01	4.558049e+01
2.560000e-06	3.164008e-06	6.599991e-10	2.203573e+01	4.613434e+01
2.570000e-06	3.201920e-06	6.667420e-10	2.229976e+01	4.667640e+01
2.580000e-06	3.239676e-06	6.713139e-10	2.256271e+01	4.720694e+01
2.590000e-06	3.277291e-06	6.756978e-10	2.282468e+01	4.772620e+01
2.600000e-06	3.314696e-06	6.818170e-10	2.308519e+01	4.823445e+01
2.610000e-06	3.351838e-06	6.905106e-10	2.334387e+01	4.873193e+01
2.620000e-06	3.388699e-06	7.003215e-10	2.360059e+01	4.921885e+01
2.630000e-06	3.425354e-06	7.079297e-10	2.385587e+01	4.969545e+01
2.640000e-06	3.461817e-06	7.136738e-10	2.410981e+01	5.016192e+01
2.650000e-06	3.498018e-06	7.196137e-10	2.436194e+01	5.061846e+01
2.660000e-06	3.533969e-06	7.253785e-10	2.461232e+01	5.106526e+01
2.670000e-06	3.569796e-06	7.294867e-10	2.486184e+01	5.150247e+01
2.680000e-06	3.605493e-06	7.348690e-10	2.511045e+01	5.193027e+01
2.690000e-06	3.641044e-06	7.430946e-10	2.535804e+01	5.234879e+01
2.700000e-06	3.676494e-06	7.513205e-10	2.560493e+01	5.275816e+01
2.710000e-06	3.711710e-06	7.562418e-10	2.585019e+01	5.315851e+01
2.720000e-06	3.746652e-06	7.617440e-10	2.609355e+01	5.354995e+01
2.730000e-06	3.781277e-06	7.678437e-10	2.633469e+01	5.393257e+01
2.740000e-06	3.815485e-06	7.724573e-10	2.657294e+01	5.430648e+01
2.750000e-06	3.849290e-06	7.758975e-10	2.680837e+01	5.467175e+01
2.760000e-06	3.882588e-06	7.803438e-10	2.704028e+01	5.502846e+01
2.770000e-06	3.915290e-06	7.851080e-10	2.726803e+01	5.537667e+01
2.780000e-06	3.947538e-06	7.911490e-10	2.749262e+01	5.571647e+01
2.790000e-06	3.979528e-06	7.986989e-10	2.771541e+01	5.604791e+01
2.800000e-06	4.011369e-06	8.060136e-10	2.793717e+01	5.637104e+01
2.810000e-06	4.043106e-06	8.120239e-10	2.815820e+01	5.668593e+01
2.820000e-06	4.074664e-06	8.157752e-10	2.837799e+01	5.699263e+01
2.830000e-06	4.106024e-06	8.175128e-10	2.859640e+01	5.729121e+01
2.840000e-06	4.137084e-06	8.181801e-10	2.881271e+01	5.758171e+01
2.850000e-06	4.167737e-06	8.211973e-10	2.902619e+01	5.786420e+01
2.860000e-06	4.198074e-06	8.259353e-10	2.923748e+01	5.813875e+01
2.870000e-06	4.228069e-06	8.283344e-10	2.944638e+01	5.840542e+01
2.880000e-06	4.257745e-06	8.310676e-10	2.965306e+01	5.866429e+01
2.890000e-06	4.287253e-06	8.349985e-10	2.985856e+01	5.891542e+01
2.900000e-06	4.316593e-06	8.404447e-10	3.006290e+01	5.915890e+01
