# Temperatura_=_12.2
# Concentracion g/m^3_=_1620.0
# C_Vs_to_Am_M_A/Vsm_=_65563218390.804596
# pendiente_HvsI_1/m_=_3716.3
# ordenada_HvsI_A/m_=_1297.0
# frecuencia_Hz_=_135104.38889273227

Tiempo_(s)	Campo_(V.s)	Magnetizacion_(V.s)	Campo_(kA/m)	Magnetizacion_(A/m)
0.000000e+00	-5.529837e-06	-7.151707e-10	-3.836596e+01	-4.959202e+01
1.000000e-08	-5.530151e-06	-7.141300e-10	-3.836814e+01	-4.959578e+01
2.000000e-08	-5.530128e-06	-7.144750e-10	-3.836798e+01	-4.959913e+01
3.000000e-08	-5.529810e-06	-7.165561e-10	-3.836577e+01	-4.960191e+01
4.000000e-08	-5.529116e-06	-7.147530e-10	-3.836096e+01	-4.960401e+01
5.000000e-08	-5.527904e-06	-7.112833e-10	-3.835255e+01	-4.960529e+01
6.000000e-08	-5.526168e-06	-7.093044e-10	-3.834050e+01	-4.960564e+01
7.000000e-08	-5.523828e-06	-7.136304e-10	-3.832427e+01	-4.960495e+01
8.000000e-08	-5.520949e-06	-7.440528e-10	-3.830430e+01	-4.960310e+01
9.000000e-08	-5.517556e-06	-7.226921e-10	-3.828075e+01	-4.960000e+01
1.000000e-07	-5.513639e-06	-6.208700e-10	-3.825358e+01	-4.959556e+01
1.100000e-07	-5.509427e-06	-6.214300e-10	-3.822436e+01	-4.958971e+01
1.200000e-07	-5.505027e-06	-7.562171e-10	-3.819383e+01	-4.958239e+01
1.300000e-07	-5.500261e-06	-7.722920e-10	-3.816076e+01	-4.957353e+01
1.400000e-07	-5.495090e-06	-6.735947e-10	-3.812489e+01	-4.956311e+01
1.500000e-07	-5.489623e-06	-6.033225e-10	-3.808695e+01	-4.955109e+01
1.600000e-07	-5.483882e-06	-7.471292e-10	-3.804712e+01	-4.953746e+01
1.700000e-07	-5.477646e-06	-7.647997e-10	-3.800386e+01	-4.952222e+01
1.800000e-07	-5.470953e-06	-6.615536e-10	-3.795742e+01	-4.950537e+01
1.900000e-07	-5.463991e-06	-5.946219e-10	-3.790912e+01	-4.948694e+01
2.000000e-07	-5.456661e-06	-7.048169e-10	-3.785827e+01	-4.946695e+01
2.100000e-07	-5.448931e-06	-7.629153e-10	-3.780464e+01	-4.944545e+01
2.200000e-07	-5.440945e-06	-7.167438e-10	-3.774923e+01	-4.942247e+01
2.300000e-07	-5.432783e-06	-6.728296e-10	-3.769260e+01	-4.939808e+01
2.400000e-07	-5.424337e-06	-7.045098e-10	-3.763400e+01	-4.937233e+01
2.500000e-07	-5.415198e-06	-7.386091e-10	-3.757060e+01	-4.934529e+01
2.600000e-07	-5.405340e-06	-7.138913e-10	-3.750220e+01	-4.931703e+01
2.700000e-07	-5.394974e-06	-7.187981e-10	-3.743028e+01	-4.928760e+01
2.800000e-07	-5.384006e-06	-7.293192e-10	-3.735419e+01	-4.925708e+01
2.900000e-07	-5.372597e-06	-7.630643e-10	-3.727503e+01	-4.922553e+01
3.000000e-07	-5.360846e-06	-7.503785e-10	-3.719350e+01	-4.919301e+01
3.100000e-07	-5.348665e-06	-7.556594e-10	-3.710899e+01	-4.915959e+01
3.200000e-07	-5.336063e-06	-7.364569e-10	-3.702156e+01	-4.912530e+01
3.300000e-07	-5.323123e-06	-7.820811e-10	-3.693178e+01	-4.909019e+01
3.400000e-07	-5.309826e-06	-7.529138e-10	-3.683953e+01	-4.905429e+01
3.500000e-07	-5.296013e-06	-7.287025e-10	-3.674369e+01	-4.901763e+01
3.600000e-07	-5.281707e-06	-7.313908e-10	-3.664443e+01	-4.898021e+01
3.700000e-07	-5.267091e-06	-7.779168e-10	-3.654303e+01	-4.894202e+01
3.800000e-07	-5.251982e-06	-7.282421e-10	-3.643820e+01	-4.890307e+01
3.900000e-07	-5.236225e-06	-7.422323e-10	-3.632888e+01	-4.886331e+01
4.000000e-07	-5.220041e-06	-7.846970e-10	-3.621659e+01	-4.882271e+01
4.100000e-07	-5.203471e-06	-7.431247e-10	-3.610164e+01	-4.878122e+01
4.200000e-07	-5.186488e-06	-6.853470e-10	-3.598381e+01	-4.873875e+01
4.300000e-07	-5.169249e-06	-7.753599e-10	-3.586421e+01	-4.869523e+01
4.400000e-07	-5.151739e-06	-7.910054e-10	-3.574272e+01	-4.865057e+01
4.500000e-07	-5.133778e-06	-6.852771e-10	-3.561811e+01	-4.860466e+01
4.600000e-07	-5.115353e-06	-7.136127e-10	-3.549027e+01	-4.855739e+01
4.700000e-07	-5.096603e-06	-8.014408e-10	-3.536019e+01	-4.850861e+01
4.800000e-07	-5.077503e-06	-7.208209e-10	-3.522767e+01	-4.845821e+01
4.900000e-07	-5.058036e-06	-6.773556e-10	-3.509261e+01	-4.840604e+01
5.000000e-07	-5.038328e-06	-7.767816e-10	-3.495587e+01	-4.835194e+01
5.100000e-07	-5.018410e-06	-7.454445e-10	-3.481768e+01	-4.829578e+01
5.200000e-07	-4.998195e-06	-6.719947e-10	-3.467743e+01	-4.823740e+01
5.300000e-07	-4.977698e-06	-7.529270e-10	-3.453522e+01	-4.817664e+01
5.400000e-07	-4.956878e-06	-7.791346e-10	-3.439077e+01	-4.811336e+01
5.500000e-07	-4.935595e-06	-6.715014e-10	-3.424312e+01	-4.804740e+01
5.600000e-07	-4.913908e-06	-7.147769e-10	-3.409265e+01	-4.797865e+01
5.700000e-07	-4.892028e-06	-7.804304e-10	-3.394085e+01	-4.790695e+01
5.800000e-07	-4.869873e-06	-7.036640e-10	-3.378714e+01	-4.783220e+01
5.900000e-07	-4.847296e-06	-6.760184e-10	-3.363049e+01	-4.775428e+01
6.000000e-07	-4.824349e-06	-7.523239e-10	-3.347129e+01	-4.767311e+01
6.100000e-07	-4.801080e-06	-7.070023e-10	-3.330985e+01	-4.758860e+01
6.200000e-07	-4.777604e-06	-6.674087e-10	-3.314697e+01	-4.750069e+01
6.300000e-07	-4.753942e-06	-7.164477e-10	-3.298280e+01	-4.740934e+01
6.400000e-07	-4.729965e-06	-7.174366e-10	-3.281645e+01	-4.731453e+01
6.500000e-07	-4.705685e-06	-6.721613e-10	-3.264800e+01	-4.721626e+01
6.600000e-07	-4.681105e-06	-7.145188e-10	-3.247747e+01	-4.711454e+01
6.700000e-07	-4.656016e-06	-7.212645e-10	-3.230340e+01	-4.700941e+01
6.800000e-07	-4.630331e-06	-6.795325e-10	-3.212519e+01	-4.690094e+01
6.900000e-07	-4.604108e-06	-6.835369e-10	-3.194326e+01	-4.678921e+01
7.000000e-07	-4.577475e-06	-7.056529e-10	-3.175848e+01	-4.667432e+01
7.100000e-07	-4.550428e-06	-6.754066e-10	-3.157083e+01	-4.655640e+01
7.200000e-07	-4.523007e-06	-6.773630e-10	-3.138058e+01	-4.643558e+01
7.300000e-07	-4.495372e-06	-6.978995e-10	-3.118885e+01	-4.631204e+01
7.400000e-07	-4.467524e-06	-6.858498e-10	-3.099564e+01	-4.618596e+01
7.500000e-07	-4.439452e-06	-6.797307e-10	-3.080088e+01	-4.605751e+01
7.600000e-07	-4.411184e-06	-6.941489e-10	-3.060476e+01	-4.592692e+01
7.700000e-07	-4.382660e-06	-6.793653e-10	-3.040685e+01	-4.579440e+01
7.800000e-07	-4.353803e-06	-6.631148e-10	-3.020665e+01	-4.566017e+01
7.900000e-07	-4.324631e-06	-6.724796e-10	-3.000425e+01	-4.552448e+01
8.000000e-07	-4.295122e-06	-6.660869e-10	-2.979952e+01	-4.538754e+01
8.100000e-07	-4.265290e-06	-6.562856e-10	-2.959254e+01	-4.524961e+01
8.200000e-07	-4.235202e-06	-6.723983e-10	-2.938380e+01	-4.511092e+01
8.300000e-07	-4.204844e-06	-6.882020e-10	-2.917317e+01	-4.497169e+01
8.400000e-07	-4.174204e-06	-6.732269e-10	-2.896059e+01	-4.483215e+01
8.500000e-07	-4.143283e-06	-6.723796e-10	-2.874606e+01	-4.469251e+01
8.600000e-07	-4.112069e-06	-6.744765e-10	-2.852950e+01	-4.455297e+01
8.700000e-07	-4.080564e-06	-6.590792e-10	-2.831092e+01	-4.441372e+01
8.800000e-07	-4.048856e-06	-6.432606e-10	-2.809093e+01	-4.427490e+01
8.900000e-07	-4.017013e-06	-6.541308e-10	-2.787000e+01	-4.413668e+01
9.000000e-07	-3.984964e-06	-6.528710e-10	-2.764765e+01	-4.399916e+01
9.100000e-07	-3.952606e-06	-6.504461e-10	-2.742315e+01	-4.386245e+01
9.200000e-07	-3.919931e-06	-6.595262e-10	-2.719645e+01	-4.372660e+01
9.300000e-07	-3.886919e-06	-6.654004e-10	-2.696741e+01	-4.359166e+01
9.400000e-07	-3.853486e-06	-6.466824e-10	-2.673545e+01	-4.345763e+01
9.500000e-07	-3.819638e-06	-6.424814e-10	-2.650061e+01	-4.332450e+01
9.600000e-07	-3.785339e-06	-6.424351e-10	-2.626265e+01	-4.319220e+01
9.700000e-07	-3.750539e-06	-6.341311e-10	-2.602121e+01	-4.306066e+01
9.800000e-07	-3.715392e-06	-6.275615e-10	-2.577736e+01	-4.292974e+01
9.900000e-07	-3.680037e-06	-6.401743e-10	-2.553206e+01	-4.279931e+01
1.000000e-06	-3.644453e-06	-6.433737e-10	-2.528518e+01	-4.266919e+01
1.010000e-06	-3.608674e-06	-6.362567e-10	-2.503694e+01	-4.253915e+01
1.020000e-06	-3.572766e-06	-6.365956e-10	-2.478782e+01	-4.240896e+01
1.030000e-06	-3.536699e-06	-6.371245e-10	-2.453759e+01	-4.227836e+01
1.040000e-06	-3.500423e-06	-6.285050e-10	-2.428590e+01	-4.214706e+01
1.050000e-06	-3.463947e-06	-6.237156e-10	-2.403284e+01	-4.201473e+01
1.060000e-06	-3.427269e-06	-6.230043e-10	-2.377836e+01	-4.188105e+01
1.070000e-06	-3.390362e-06	-6.163743e-10	-2.352230e+01	-4.174566e+01
1.080000e-06	-3.353194e-06	-6.114241e-10	-2.326443e+01	-4.160819e+01
1.090000e-06	-3.315703e-06	-6.127830e-10	-2.300432e+01	-4.146826e+01
1.100000e-06	-3.277927e-06	-6.116068e-10	-2.274223e+01	-4.132549e+01
1.110000e-06	-3.239958e-06	-6.028064e-10	-2.247880e+01	-4.117949e+01
1.120000e-06	-3.201779e-06	-6.004811e-10	-2.221392e+01	-4.102985e+01
1.130000e-06	-3.163336e-06	-5.980003e-10	-2.194719e+01	-4.087617e+01
1.140000e-06	-3.124686e-06	-5.933189e-10	-2.167904e+01	-4.071808e+01
1.150000e-06	-3.085901e-06	-5.900435e-10	-2.140995e+01	-4.055518e+01
1.160000e-06	-3.046947e-06	-5.898682e-10	-2.113969e+01	-4.038711e+01
1.170000e-06	-3.007773e-06	-5.840916e-10	-2.086790e+01	-4.021350e+01
1.180000e-06	-2.968357e-06	-5.805356e-10	-2.059443e+01	-4.003402e+01
1.190000e-06	-2.928785e-06	-5.781699e-10	-2.031989e+01	-3.984833e+01
1.200000e-06	-2.889083e-06	-5.765453e-10	-2.004443e+01	-3.965614e+01
1.210000e-06	-2.849216e-06	-5.703495e-10	-1.976784e+01	-3.945717e+01
1.220000e-06	-2.809172e-06	-5.672894e-10	-1.949001e+01	-3.925117e+01
1.230000e-06	-2.768990e-06	-5.635415e-10	-1.921123e+01	-3.903791e+01
1.240000e-06	-2.728645e-06	-5.596963e-10	-1.893131e+01	-3.881719e+01
1.250000e-06	-2.688121e-06	-5.549703e-10	-1.865016e+01	-3.858884e+01
1.260000e-06	-2.647427e-06	-5.532508e-10	-1.836783e+01	-3.835272e+01
1.270000e-06	-2.606398e-06	-5.500916e-10	-1.808316e+01	-3.810873e+01
1.280000e-06	-2.564982e-06	-5.452712e-10	-1.779582e+01	-3.785677e+01
1.290000e-06	-2.523283e-06	-5.386923e-10	-1.750652e+01	-3.759680e+01
1.300000e-06	-2.481382e-06	-5.321437e-10	-1.721580e+01	-3.732879e+01
1.310000e-06	-2.439204e-06	-5.243463e-10	-1.692318e+01	-3.705273e+01
1.320000e-06	-2.396760e-06	-5.197587e-10	-1.662870e+01	-3.676865e+01
1.330000e-06	-2.354072e-06	-5.174284e-10	-1.633253e+01	-3.647658e+01
1.340000e-06	-2.311059e-06	-5.167054e-10	-1.603410e+01	-3.617660e+01
1.350000e-06	-2.267818e-06	-5.146714e-10	-1.573410e+01	-3.586877e+01
1.360000e-06	-2.224397e-06	-5.090871e-10	-1.543285e+01	-3.555319e+01
1.370000e-06	-2.180794e-06	-5.020759e-10	-1.513033e+01	-3.522997e+01
1.380000e-06	-2.137099e-06	-4.947177e-10	-1.482717e+01	-3.489919e+01
1.390000e-06	-2.093324e-06	-4.882760e-10	-1.452346e+01	-3.456099e+01
1.400000e-06	-2.049458e-06	-4.817876e-10	-1.421912e+01	-3.421546e+01
1.410000e-06	-2.005518e-06	-4.780819e-10	-1.391426e+01	-3.386272e+01
1.420000e-06	-1.961467e-06	-4.744749e-10	-1.360864e+01	-3.350285e+01
1.430000e-06	-1.917329e-06	-4.714604e-10	-1.330241e+01	-3.313596e+01
1.440000e-06	-1.873107e-06	-4.675223e-10	-1.299560e+01	-3.276211e+01
1.450000e-06	-1.828775e-06	-4.631406e-10	-1.268803e+01	-3.238134e+01
1.460000e-06	-1.784331e-06	-4.536578e-10	-1.237967e+01	-3.199371e+01
1.470000e-06	-1.739758e-06	-4.434165e-10	-1.207042e+01	-3.159921e+01
1.480000e-06	-1.695071e-06	-4.335321e-10	-1.176039e+01	-3.119782e+01
1.490000e-06	-1.650241e-06	-4.256572e-10	-1.144936e+01	-3.078950e+01
1.500000e-06	-1.605334e-06	-4.182716e-10	-1.113779e+01	-3.037417e+01
1.510000e-06	-1.560394e-06	-4.131723e-10	-1.082600e+01	-2.995171e+01
1.520000e-06	-1.515314e-06	-4.079558e-10	-1.051324e+01	-2.952198e+01
1.530000e-06	-1.470082e-06	-4.005472e-10	-1.019942e+01	-2.908480e+01
1.540000e-06	-1.424741e-06	-3.899282e-10	-9.884838e+00	-2.863995e+01
1.550000e-06	-1.379299e-06	-3.813421e-10	-9.569562e+00	-2.818717e+01
1.560000e-06	-1.333754e-06	-3.745376e-10	-9.253575e+00	-2.772618e+01
1.570000e-06	-1.288093e-06	-3.660822e-10	-8.936779e+00	-2.725667e+01
1.580000e-06	-1.242300e-06	-3.564567e-10	-8.619067e+00	-2.677827e+01
1.590000e-06	-1.196412e-06	-3.493830e-10	-8.300699e+00	-2.629061e+01
1.600000e-06	-1.150457e-06	-3.427321e-10	-7.981859e+00	-2.579327e+01
1.610000e-06	-1.104483e-06	-3.382289e-10	-7.662895e+00	-2.528584e+01
1.620000e-06	-1.058483e-06	-3.334332e-10	-7.343743e+00	-2.476785e+01
1.630000e-06	-1.012348e-06	-3.266183e-10	-7.023660e+00	-2.423883e+01
1.640000e-06	-9.661046e-07	-3.176871e-10	-6.702825e+00	-2.369829e+01
1.650000e-06	-9.198872e-07	-3.055619e-10	-6.382169e+00	-2.314576e+01
1.660000e-06	-8.736870e-07	-2.932867e-10	-6.061633e+00	-2.258074e+01
1.670000e-06	-8.273705e-07	-2.822802e-10	-5.740289e+00	-2.200272e+01
1.680000e-06	-7.809668e-07	-2.754173e-10	-5.418340e+00	-2.141124e+01
1.690000e-06	-7.344385e-07	-2.697874e-10	-5.095528e+00	-2.080581e+01
1.700000e-06	-6.878187e-07	-2.659112e-10	-4.772080e+00	-2.018598e+01
1.710000e-06	-6.412567e-07	-2.603027e-10	-4.449033e+00	-1.955133e+01
1.720000e-06	-5.946946e-07	-2.506610e-10	-4.125986e+00	-1.890145e+01
1.730000e-06	-5.480433e-07	-2.377449e-10	-3.802320e+00	-1.823598e+01
1.740000e-06	-5.013361e-07	-2.249858e-10	-3.478265e+00	-1.755459e+01
1.750000e-06	-4.545645e-07	-2.150263e-10	-3.153765e+00	-1.685701e+01
1.760000e-06	-4.077357e-07	-2.081726e-10	-2.828866e+00	-1.614301e+01
1.770000e-06	-3.609116e-07	-2.010107e-10	-2.504002e+00	-1.541242e+01
1.780000e-06	-3.140778e-07	-1.949623e-10	-2.179069e+00	-1.466512e+01
1.790000e-06	-2.671646e-07	-1.860281e-10	-1.853586e+00	-1.390107e+01
1.800000e-06	-2.201744e-07	-1.725499e-10	-1.527568e+00	-1.312030e+01
1.810000e-06	-1.732292e-07	-1.584045e-10	-1.201862e+00	-1.232289e+01
1.820000e-06	-1.263299e-07	-1.449749e-10	-8.764758e-01	-1.150900e+01
1.830000e-06	-7.941661e-08	-1.329006e-10	-5.509918e-01	-1.067889e+01
1.840000e-06	-3.250598e-08	-1.229059e-10	-2.255262e-01	-9.832862e+00
1.850000e-06	1.438629e-08	-1.128062e-10	9.981192e-02	-8.971319e+00
1.860000e-06	6.130439e-08	-1.048358e-10	4.253293e-01	-8.094735e+00
1.870000e-06	1.082202e-07	-9.388476e-11	7.508310e-01	-7.203662e+00
1.880000e-06	1.550702e-07	-7.885842e-11	1.075876e+00	-6.298731e+00
1.890000e-06	2.019058e-07	-6.348162e-11	1.400821e+00	-5.380647e+00
1.900000e-06	2.487712e-07	-4.748143e-11	1.725973e+00	-4.450189e+00
1.910000e-06	2.956565e-07	-3.545060e-11	2.051262e+00	-3.508206e+00
1.920000e-06	3.425561e-07	-2.464769e-11	2.376651e+00	-2.555615e+00
1.930000e-06	3.893951e-07	-1.627965e-11	2.701620e+00	-1.593395e+00
1.940000e-06	4.361898e-07	-6.385798e-12	3.026281e+00	-6.225859e-01
1.950000e-06	4.829733e-07	4.365875e-12	3.350864e+00	3.557211e-01
1.960000e-06	5.296797e-07	1.694686e-11	3.674913e+00	1.340385e+00
1.970000e-06	5.762966e-07	3.190653e-11	3.998341e+00	2.330223e+00
1.980000e-06	6.228076e-07	4.763005e-11	4.321033e+00	3.324016e+00
1.990000e-06	6.692583e-07	6.154199e-11	4.643308e+00	4.320514e+00
2.000000e-06	7.157334e-07	7.381141e-11	4.965752e+00	5.318447e+00
2.010000e-06	7.621906e-07	8.706131e-11	5.288072e+00	6.316525e+00
2.020000e-06	8.085645e-07	1.007452e-10	5.609813e+00	7.313452e+00
2.030000e-06	8.548864e-07	1.128858e-10	5.931194e+00	8.307930e+00
2.040000e-06	9.011423e-07	1.260649e-10	6.252117e+00	9.298667e+00
2.050000e-06	9.473206e-07	1.387826e-10	6.572502e+00	1.028438e+01
2.060000e-06	9.934417e-07	1.516036e-10	6.892490e+00	1.126382e+01
2.070000e-06	1.039485e-06	1.659314e-10	7.211935e+00	1.223574e+01
2.080000e-06	1.085453e-06	1.810197e-10	7.530860e+00	1.319894e+01
2.090000e-06	1.131356e-06	1.960901e-10	7.849337e+00	1.415227e+01
2.100000e-06	1.177223e-06	2.090119e-10	8.167561e+00	1.509462e+01
2.110000e-06	1.223006e-06	2.226273e-10	8.485202e+00	1.602492e+01
2.120000e-06	1.268630e-06	2.347214e-10	8.801740e+00	1.694216e+01
2.130000e-06	1.314159e-06	2.458683e-10	9.117626e+00	1.784541e+01
2.140000e-06	1.359614e-06	2.566037e-10	9.432989e+00	1.873379e+01
2.150000e-06	1.404977e-06	2.663804e-10	9.747720e+00	1.960649e+01
2.160000e-06	1.450301e-06	2.775789e-10	1.006217e+01	2.046278e+01
2.170000e-06	1.495590e-06	2.922368e-10	1.037639e+01	2.130200e+01
2.180000e-06	1.540737e-06	3.079221e-10	1.068962e+01	2.212357e+01
2.190000e-06	1.585702e-06	3.202482e-10	1.100159e+01	2.292699e+01
2.200000e-06	1.630519e-06	3.278806e-10	1.131252e+01	2.371185e+01
2.210000e-06	1.675241e-06	3.345203e-10	1.162281e+01	2.447781e+01
2.220000e-06	1.719851e-06	3.418434e-10	1.193231e+01	2.522460e+01
2.230000e-06	1.764352e-06	3.512081e-10	1.224106e+01	2.595205e+01
2.240000e-06	1.808760e-06	3.595474e-10	1.254916e+01	2.666005e+01
2.250000e-06	1.852992e-06	3.684963e-10	1.285604e+01	2.734858e+01
2.260000e-06	1.897134e-06	3.789161e-10	1.316230e+01	2.801768e+01
2.270000e-06	1.941195e-06	3.892277e-10	1.346799e+01	2.866747e+01
2.280000e-06	1.985130e-06	3.983074e-10	1.377281e+01	2.929814e+01
2.290000e-06	2.029022e-06	4.061195e-10	1.407734e+01	2.990993e+01
2.300000e-06	2.072880e-06	4.122602e-10	1.438162e+01	3.050314e+01
2.310000e-06	2.116666e-06	4.191113e-10	1.468541e+01	3.107812e+01
2.320000e-06	2.160341e-06	4.286345e-10	1.498843e+01	3.163529e+01
2.330000e-06	2.203873e-06	4.375381e-10	1.529045e+01	3.217510e+01
2.340000e-06	2.247215e-06	4.435675e-10	1.559116e+01	3.269802e+01
2.350000e-06	2.290364e-06	4.481981e-10	1.589052e+01	3.320458e+01
2.360000e-06	2.333396e-06	4.525621e-10	1.618908e+01	3.369533e+01
2.370000e-06	2.376148e-06	4.578263e-10	1.648569e+01	3.417084e+01
2.380000e-06	2.418605e-06	4.649951e-10	1.678026e+01	3.463169e+01
2.390000e-06	2.460796e-06	4.730448e-10	1.707298e+01	3.507848e+01
2.400000e-06	2.502625e-06	4.810207e-10	1.736319e+01	3.551181e+01
2.410000e-06	2.544135e-06	4.890955e-10	1.765119e+01	3.593229e+01
2.420000e-06	2.585355e-06	4.986336e-10	1.793717e+01	3.634052e+01
2.430000e-06	2.626305e-06	5.068117e-10	1.822128e+01	3.673708e+01
2.440000e-06	2.667043e-06	5.132142e-10	1.850392e+01	3.712258e+01
2.450000e-06	2.707608e-06	5.199476e-10	1.878536e+01	3.749755e+01
2.460000e-06	2.748018e-06	5.271900e-10	1.906572e+01	3.786256e+01
2.470000e-06	2.788238e-06	5.331262e-10	1.934477e+01	3.821811e+01
2.480000e-06	2.828234e-06	5.390116e-10	1.962226e+01	3.856471e+01
2.490000e-06	2.868077e-06	5.431342e-10	1.989869e+01	3.890283e+01
2.500000e-06	2.907811e-06	5.481080e-10	2.017436e+01	3.923290e+01
2.510000e-06	2.947444e-06	5.557806e-10	2.044934e+01	3.955532e+01
2.520000e-06	2.986924e-06	5.614733e-10	2.072325e+01	3.987048e+01
2.530000e-06	3.026172e-06	5.654288e-10	2.099556e+01	4.017870e+01
2.540000e-06	3.065131e-06	5.687674e-10	2.126585e+01	4.048031e+01
2.550000e-06	3.103889e-06	5.692018e-10	2.153476e+01	4.077556e+01
2.560000e-06	3.142479e-06	5.703590e-10	2.180249e+01	4.106470e+01
2.570000e-06	3.180794e-06	5.765588e-10	2.206832e+01	4.134795e+01
2.580000e-06	3.218895e-06	5.854378e-10	2.233266e+01	4.162546e+01
2.590000e-06	3.256849e-06	5.935787e-10	2.259599e+01	4.189740e+01
2.600000e-06	3.294591e-06	5.998665e-10	2.285784e+01	4.216388e+01
2.610000e-06	3.332136e-06	6.044618e-10	2.311833e+01	4.242500e+01
2.620000e-06	3.369511e-06	6.080397e-10	2.337764e+01	4.268082e+01
2.630000e-06	3.406642e-06	6.101364e-10	2.363525e+01	4.293139e+01
2.640000e-06	3.443538e-06	6.111043e-10	2.389124e+01	4.317674e+01
2.650000e-06	3.480172e-06	6.122106e-10	2.414540e+01	4.341689e+01
2.660000e-06	3.516528e-06	6.143042e-10	2.439764e+01	4.365183e+01
2.670000e-06	3.552705e-06	6.189348e-10	2.464864e+01	4.388156e+01
2.680000e-06	3.588739e-06	6.230816e-10	2.489864e+01	4.410604e+01
2.690000e-06	3.624604e-06	6.251719e-10	2.514747e+01	4.432526e+01
2.700000e-06	3.660277e-06	6.277614e-10	2.539497e+01	4.453918e+01
2.710000e-06	3.695726e-06	6.322140e-10	2.564091e+01	4.474777e+01
2.720000e-06	3.731001e-06	6.376745e-10	2.588565e+01	4.495101e+01
2.730000e-06	3.765975e-06	6.441373e-10	2.612830e+01	4.514886e+01
2.740000e-06	3.800523e-06	6.497004e-10	2.636799e+01	4.534130e+01
2.750000e-06	3.834675e-06	6.531430e-10	2.660494e+01	4.552831e+01
2.760000e-06	3.868377e-06	6.544185e-10	2.683877e+01	4.570990e+01
2.770000e-06	3.901616e-06	6.552703e-10	2.706938e+01	4.588606e+01
2.780000e-06	3.934477e-06	6.588409e-10	2.729737e+01	4.605680e+01
2.790000e-06	3.967049e-06	6.647023e-10	2.752335e+01	4.622215e+01
2.800000e-06	3.999321e-06	6.715715e-10	2.774725e+01	4.638216e+01
2.810000e-06	4.031278e-06	6.782043e-10	2.796897e+01	4.653686e+01
2.820000e-06	4.063046e-06	6.819677e-10	2.818937e+01	4.668631e+01
2.830000e-06	4.094712e-06	6.817893e-10	2.840908e+01	4.683061e+01
2.840000e-06	4.126159e-06	6.787367e-10	2.862725e+01	4.696982e+01
2.850000e-06	4.157308e-06	6.763960e-10	2.884337e+01	4.710405e+01
2.860000e-06	4.188107e-06	6.779500e-10	2.905705e+01	4.723341e+01
2.870000e-06	4.218577e-06	6.817335e-10	2.926845e+01	4.735801e+01
2.880000e-06	4.248789e-06	6.863604e-10	2.947806e+01	4.747798e+01
2.890000e-06	4.278783e-06	6.927293e-10	2.968616e+01	4.759346e+01
2.900000e-06	4.308473e-06	6.978846e-10	2.989215e+01	4.770459e+01
