# Temperatura_=_3.01
# Concentracion g/m^3_=_1620.0
# C_Vs_to_Am_M_A/Vsm_=_65563218390.804596
# pendiente_HvsI_1/m_=_3716.3
# ordenada_HvsI_A/m_=_1297.0
# frecuencia_Hz_=_135107.54050198916

Tiempo_(s)	Campo_(V.s)	Magnetizacion_(V.s)	Campo_(kA/m)	Magnetizacion_(A/m)
0.000000e+00	-5.523950e-06	-8.354937e-10	-3.836677e+01	-5.519213e+01
1.000000e-08	-5.524022e-06	-8.349293e-10	-3.836727e+01	-5.520965e+01
2.000000e-08	-5.523779e-06	-8.347350e-10	-3.836558e+01	-5.522519e+01
3.000000e-08	-5.523174e-06	-8.313919e-10	-3.836138e+01	-5.523845e+01
4.000000e-08	-5.522150e-06	-8.263727e-10	-3.835426e+01	-5.524915e+01
5.000000e-08	-5.520528e-06	-8.221233e-10	-3.834300e+01	-5.525699e+01
6.000000e-08	-5.518280e-06	-8.122483e-10	-3.832738e+01	-5.526171e+01
7.000000e-08	-5.515415e-06	-8.221977e-10	-3.830749e+01	-5.526303e+01
8.000000e-08	-5.512011e-06	-8.428185e-10	-3.828384e+01	-5.526070e+01
9.000000e-08	-5.508128e-06	-8.328408e-10	-3.825687e+01	-5.525449e+01
1.000000e-07	-5.503875e-06	-7.991552e-10	-3.822734e+01	-5.524418e+01
1.100000e-07	-5.499463e-06	-8.321075e-10	-3.819669e+01	-5.522957e+01
1.200000e-07	-5.494860e-06	-8.109673e-10	-3.816472e+01	-5.521049e+01
1.300000e-07	-5.489895e-06	-8.256010e-10	-3.813023e+01	-5.518680e+01
1.400000e-07	-5.484460e-06	-7.596115e-10	-3.809248e+01	-5.515837e+01
1.500000e-07	-5.478632e-06	-8.040689e-10	-3.805201e+01	-5.512511e+01
1.600000e-07	-5.472450e-06	-8.208256e-10	-3.800907e+01	-5.508697e+01
1.700000e-07	-5.465869e-06	-8.247023e-10	-3.796336e+01	-5.504390e+01
1.800000e-07	-5.458896e-06	-7.989126e-10	-3.791493e+01	-5.499591e+01
1.900000e-07	-5.451618e-06	-7.963059e-10	-3.786438e+01	-5.494303e+01
2.000000e-07	-5.444013e-06	-8.171561e-10	-3.781156e+01	-5.488531e+01
2.100000e-07	-5.436114e-06	-8.076504e-10	-3.775670e+01	-5.482285e+01
2.200000e-07	-5.427998e-06	-8.173771e-10	-3.770033e+01	-5.475576e+01
2.300000e-07	-5.419531e-06	-8.077001e-10	-3.764152e+01	-5.468419e+01
2.400000e-07	-5.410493e-06	-8.372599e-10	-3.757875e+01	-5.460830e+01
2.500000e-07	-5.400658e-06	-8.123830e-10	-3.751044e+01	-5.452830e+01
2.600000e-07	-5.390118e-06	-8.310201e-10	-3.743723e+01	-5.444440e+01
2.700000e-07	-5.379186e-06	-8.096377e-10	-3.736130e+01	-5.435683e+01
2.800000e-07	-5.367830e-06	-8.394867e-10	-3.728243e+01	-5.426585e+01
2.900000e-07	-5.356028e-06	-8.104015e-10	-3.720046e+01	-5.417172e+01
3.000000e-07	-5.343905e-06	-8.108200e-10	-3.711626e+01	-5.407472e+01
3.100000e-07	-5.331294e-06	-7.840133e-10	-3.702867e+01	-5.397514e+01
3.200000e-07	-5.318186e-06	-8.228382e-10	-3.693762e+01	-5.387327e+01
3.300000e-07	-5.304757e-06	-8.034177e-10	-3.684436e+01	-5.376940e+01
3.400000e-07	-5.291018e-06	-7.948777e-10	-3.674893e+01	-5.366382e+01
3.500000e-07	-5.276885e-06	-7.902470e-10	-3.665077e+01	-5.355682e+01
3.600000e-07	-5.262381e-06	-8.239701e-10	-3.655003e+01	-5.344868e+01
3.700000e-07	-5.247383e-06	-7.876948e-10	-3.644586e+01	-5.333967e+01
3.800000e-07	-5.231797e-06	-7.845277e-10	-3.633761e+01	-5.323004e+01
3.900000e-07	-5.215667e-06	-8.075914e-10	-3.622557e+01	-5.312003e+01
4.000000e-07	-5.199075e-06	-7.945414e-10	-3.611033e+01	-5.300988e+01
4.100000e-07	-5.182137e-06	-7.595618e-10	-3.599269e+01	-5.289977e+01
4.200000e-07	-5.164917e-06	-7.937647e-10	-3.587309e+01	-5.278988e+01
4.300000e-07	-5.147368e-06	-8.211504e-10	-3.575121e+01	-5.268039e+01
4.400000e-07	-5.129492e-06	-7.642177e-10	-3.562705e+01	-5.257140e+01
4.500000e-07	-5.111239e-06	-7.754818e-10	-3.550027e+01	-5.246304e+01
4.600000e-07	-5.092593e-06	-8.089572e-10	-3.537076e+01	-5.235537e+01
4.700000e-07	-5.073529e-06	-7.766691e-10	-3.523836e+01	-5.224845e+01
4.800000e-07	-5.054076e-06	-7.414238e-10	-3.510324e+01	-5.214231e+01
4.900000e-07	-5.034463e-06	-8.065788e-10	-3.496702e+01	-5.203693e+01
5.000000e-07	-5.014664e-06	-7.857391e-10	-3.482951e+01	-5.193228e+01
5.100000e-07	-4.994484e-06	-7.477611e-10	-3.468935e+01	-5.182833e+01
5.200000e-07	-4.973972e-06	-7.812002e-10	-3.454688e+01	-5.172497e+01
5.300000e-07	-4.953196e-06	-8.128348e-10	-3.440258e+01	-5.162212e+01
5.400000e-07	-4.932059e-06	-7.438399e-10	-3.425577e+01	-5.151965e+01
5.500000e-07	-4.910544e-06	-7.624622e-10	-3.410634e+01	-5.141742e+01
5.600000e-07	-4.888687e-06	-7.913898e-10	-3.395452e+01	-5.131527e+01
5.700000e-07	-4.866489e-06	-7.544287e-10	-3.380035e+01	-5.121303e+01
5.800000e-07	-4.843960e-06	-7.315429e-10	-3.364388e+01	-5.111052e+01
5.900000e-07	-4.821157e-06	-7.855051e-10	-3.348550e+01	-5.100754e+01
6.000000e-07	-4.798084e-06	-7.611710e-10	-3.332524e+01	-5.090390e+01
6.100000e-07	-4.774677e-06	-7.369422e-10	-3.316267e+01	-5.079940e+01
6.200000e-07	-4.750941e-06	-7.593746e-10	-3.299781e+01	-5.069384e+01
6.300000e-07	-4.726991e-06	-7.580104e-10	-3.283146e+01	-5.058702e+01
6.400000e-07	-4.702801e-06	-7.209109e-10	-3.266345e+01	-5.047874e+01
6.500000e-07	-4.678246e-06	-7.421602e-10	-3.249290e+01	-5.036883e+01
6.600000e-07	-4.653260e-06	-7.523414e-10	-3.231936e+01	-5.025710e+01
6.700000e-07	-4.627757e-06	-7.291978e-10	-3.214223e+01	-5.014339e+01
6.800000e-07	-4.601685e-06	-7.331656e-10	-3.196114e+01	-5.002756e+01
6.900000e-07	-4.575065e-06	-7.493399e-10	-3.177626e+01	-4.990948e+01
7.000000e-07	-4.548000e-06	-7.302808e-10	-3.158828e+01	-4.978903e+01
7.100000e-07	-4.520617e-06	-7.196462e-10	-3.139809e+01	-4.966612e+01
7.200000e-07	-4.492954e-06	-7.310853e-10	-3.120595e+01	-4.954069e+01
7.300000e-07	-4.465105e-06	-7.194370e-10	-3.101252e+01	-4.941267e+01
7.400000e-07	-4.437138e-06	-7.147043e-10	-3.081828e+01	-4.928204e+01
7.500000e-07	-4.408941e-06	-7.225658e-10	-3.062244e+01	-4.914879e+01
7.600000e-07	-4.380409e-06	-7.218699e-10	-3.042427e+01	-4.901294e+01
7.700000e-07	-4.351570e-06	-7.075368e-10	-3.022397e+01	-4.887454e+01
7.800000e-07	-4.322368e-06	-7.157655e-10	-3.002114e+01	-4.873362e+01
7.900000e-07	-4.292828e-06	-7.099824e-10	-2.981597e+01	-4.859028e+01
8.000000e-07	-4.263013e-06	-7.012787e-10	-2.960889e+01	-4.844461e+01
8.100000e-07	-4.232924e-06	-6.992331e-10	-2.939990e+01	-4.829672e+01
8.200000e-07	-4.202531e-06	-7.102787e-10	-2.918881e+01	-4.814673e+01
8.300000e-07	-4.171803e-06	-6.991868e-10	-2.897538e+01	-4.799479e+01
8.400000e-07	-4.140800e-06	-7.020666e-10	-2.876006e+01	-4.784104e+01
8.500000e-07	-4.109492e-06	-7.055561e-10	-2.854260e+01	-4.768565e+01
8.600000e-07	-4.077913e-06	-6.998922e-10	-2.832327e+01	-4.752876e+01
8.700000e-07	-4.046217e-06	-6.850542e-10	-2.810313e+01	-4.737054e+01
8.800000e-07	-4.014479e-06	-6.928534e-10	-2.788269e+01	-4.721115e+01
8.900000e-07	-3.982549e-06	-6.878616e-10	-2.766092e+01	-4.705076e+01
9.000000e-07	-3.950276e-06	-6.815478e-10	-2.743677e+01	-4.688951e+01
9.100000e-07	-3.917683e-06	-6.827550e-10	-2.721039e+01	-4.672755e+01
9.200000e-07	-3.884728e-06	-6.882338e-10	-2.698150e+01	-4.656501e+01
9.300000e-07	-3.851329e-06	-6.784045e-10	-2.674953e+01	-4.640199e+01
9.400000e-07	-3.817455e-06	-6.784626e-10	-2.651425e+01	-4.623861e+01
9.500000e-07	-3.783099e-06	-6.834380e-10	-2.627563e+01	-4.607495e+01
9.600000e-07	-3.748354e-06	-6.780920e-10	-2.603431e+01	-4.591105e+01
9.700000e-07	-3.713293e-06	-6.712489e-10	-2.579079e+01	-4.574696e+01
9.800000e-07	-3.677930e-06	-6.722453e-10	-2.554518e+01	-4.558268e+01
9.900000e-07	-3.642351e-06	-6.697099e-10	-2.529806e+01	-4.541821e+01
1.000000e-06	-3.606657e-06	-6.606782e-10	-2.505015e+01	-4.525351e+01
1.010000e-06	-3.570851e-06	-6.615185e-10	-2.480146e+01	-4.508850e+01
1.020000e-06	-3.534882e-06	-6.631357e-10	-2.455163e+01	-4.492309e+01
1.030000e-06	-3.498694e-06	-6.590735e-10	-2.430029e+01	-4.475717e+01
1.040000e-06	-3.462269e-06	-6.560971e-10	-2.404730e+01	-4.459057e+01
1.050000e-06	-3.425531e-06	-6.559401e-10	-2.379213e+01	-4.442313e+01
1.060000e-06	-3.388505e-06	-6.439098e-10	-2.353497e+01	-4.425465e+01
1.070000e-06	-3.351283e-06	-6.382816e-10	-2.327644e+01	-4.408491e+01
1.080000e-06	-3.313825e-06	-6.356171e-10	-2.301627e+01	-4.391366e+01
1.090000e-06	-3.276209e-06	-6.349454e-10	-2.275501e+01	-4.374063e+01
1.100000e-06	-3.238351e-06	-6.287843e-10	-2.249207e+01	-4.356555e+01
1.110000e-06	-3.200156e-06	-6.294530e-10	-2.222678e+01	-4.338812e+01
1.120000e-06	-3.161798e-06	-6.266251e-10	-2.196037e+01	-4.320803e+01
1.130000e-06	-3.123321e-06	-6.238021e-10	-2.169312e+01	-4.302495e+01
1.140000e-06	-3.084530e-06	-6.186305e-10	-2.142370e+01	-4.283857e+01
1.150000e-06	-3.045523e-06	-6.143003e-10	-2.115278e+01	-4.264855e+01
1.160000e-06	-3.006366e-06	-6.051710e-10	-2.088081e+01	-4.245455e+01
1.170000e-06	-2.967026e-06	-6.029854e-10	-2.060757e+01	-4.225626e+01
1.180000e-06	-2.927569e-06	-6.008499e-10	-2.033352e+01	-4.205334e+01
1.190000e-06	-2.887929e-06	-5.999081e-10	-2.005820e+01	-4.184548e+01
1.200000e-06	-2.848138e-06	-5.981195e-10	-1.978183e+01	-4.163238e+01
1.210000e-06	-2.808216e-06	-5.978993e-10	-1.950455e+01	-4.141372e+01
1.220000e-06	-2.768233e-06	-5.931983e-10	-1.922685e+01	-4.118925e+01
1.230000e-06	-2.728102e-06	-5.881633e-10	-1.894812e+01	-4.095869e+01
1.240000e-06	-2.687730e-06	-5.825219e-10	-1.866771e+01	-4.072181e+01
1.250000e-06	-2.647197e-06	-5.780010e-10	-1.838619e+01	-4.047839e+01
1.260000e-06	-2.606387e-06	-5.752443e-10	-1.810274e+01	-4.022822e+01
1.270000e-06	-2.565249e-06	-5.727273e-10	-1.781702e+01	-3.997113e+01
1.280000e-06	-2.523987e-06	-5.697943e-10	-1.753043e+01	-3.970697e+01
1.290000e-06	-2.482414e-06	-5.640665e-10	-1.724168e+01	-3.943561e+01
1.300000e-06	-2.440431e-06	-5.589034e-10	-1.695009e+01	-3.915696e+01
1.310000e-06	-2.398237e-06	-5.547498e-10	-1.665703e+01	-3.887092e+01
1.320000e-06	-2.355704e-06	-5.529682e-10	-1.636161e+01	-3.857745e+01
1.330000e-06	-2.312783e-06	-5.512908e-10	-1.606351e+01	-3.827650e+01
1.340000e-06	-2.269696e-06	-5.483499e-10	-1.576424e+01	-3.796806e+01
1.350000e-06	-2.226434e-06	-5.403754e-10	-1.546377e+01	-3.765214e+01
1.360000e-06	-2.182931e-06	-5.336559e-10	-1.516161e+01	-3.732874e+01
1.370000e-06	-2.139256e-06	-5.286375e-10	-1.485827e+01	-3.699790e+01
1.380000e-06	-2.095477e-06	-5.269392e-10	-1.455420e+01	-3.665966e+01
1.390000e-06	-2.051593e-06	-5.232878e-10	-1.424940e+01	-3.631407e+01
1.400000e-06	-2.007689e-06	-5.185716e-10	-1.394446e+01	-3.596118e+01
1.410000e-06	-1.963825e-06	-5.108150e-10	-1.363981e+01	-3.560104e+01
1.420000e-06	-1.919825e-06	-5.046518e-10	-1.333420e+01	-3.523369e+01
1.430000e-06	-1.875649e-06	-4.975396e-10	-1.302738e+01	-3.485920e+01
1.440000e-06	-1.831330e-06	-4.936566e-10	-1.271956e+01	-3.447758e+01
1.450000e-06	-1.786912e-06	-4.887262e-10	-1.241105e+01	-3.408886e+01
1.460000e-06	-1.742472e-06	-4.842193e-10	-1.210239e+01	-3.369304e+01
1.470000e-06	-1.697979e-06	-4.763898e-10	-1.179336e+01	-3.329012e+01
1.480000e-06	-1.653376e-06	-4.677027e-10	-1.148357e+01	-3.288005e+01
1.490000e-06	-1.608617e-06	-4.582459e-10	-1.117270e+01	-3.246276e+01
1.500000e-06	-1.563655e-06	-4.508653e-10	-1.086042e+01	-3.203818e+01
1.510000e-06	-1.518504e-06	-4.430954e-10	-1.054682e+01	-3.160618e+01
1.520000e-06	-1.473236e-06	-4.345930e-10	-1.023240e+01	-3.116660e+01
1.530000e-06	-1.427944e-06	-4.262439e-10	-9.917830e+00	-3.071926e+01
1.540000e-06	-1.382545e-06	-4.202226e-10	-9.602511e+00	-3.026395e+01
1.550000e-06	-1.337004e-06	-4.153402e-10	-9.286201e+00	-2.980040e+01
1.560000e-06	-1.291415e-06	-4.076491e-10	-8.969564e+00	-2.932833e+01
1.570000e-06	-1.245760e-06	-4.003478e-10	-8.652462e+00	-2.884741e+01
1.580000e-06	-1.200038e-06	-3.926469e-10	-8.334901e+00	-2.835729e+01
1.590000e-06	-1.154194e-06	-3.825126e-10	-8.016487e+00	-2.785757e+01
1.600000e-06	-1.108207e-06	-3.725165e-10	-7.697089e+00	-2.734784e+01
1.610000e-06	-1.062203e-06	-3.622985e-10	-7.377562e+00	-2.682764e+01
1.620000e-06	-1.016200e-06	-3.525377e-10	-7.058049e+00	-2.629652e+01
1.630000e-06	-9.701664e-07	-3.458630e-10	-6.738320e+00	-2.575396e+01
1.640000e-06	-9.240194e-07	-3.374367e-10	-6.417805e+00	-2.519947e+01
1.650000e-06	-8.776800e-07	-3.285596e-10	-6.095954e+00	-2.463251e+01
1.660000e-06	-8.312399e-07	-3.177683e-10	-5.773402e+00	-2.405256e+01
1.670000e-06	-7.848220e-07	-3.056323e-10	-5.451005e+00	-2.345907e+01
1.680000e-06	-7.384131e-07	-2.918727e-10	-5.128671e+00	-2.285152e+01
1.690000e-06	-6.919433e-07	-2.804340e-10	-4.805913e+00	-2.222937e+01
1.700000e-06	-6.453902e-07	-2.710883e-10	-4.482578e+00	-2.159211e+01
1.710000e-06	-5.987967e-07	-2.634666e-10	-4.158961e+00	-2.093925e+01
1.720000e-06	-5.521516e-07	-2.537107e-10	-3.834986e+00	-2.027031e+01
1.730000e-06	-5.054564e-07	-2.439773e-10	-3.510663e+00	-1.958485e+01
1.740000e-06	-4.587369e-07	-2.321857e-10	-3.186172e+00	-1.888248e+01
1.750000e-06	-4.119576e-07	-2.198161e-10	-2.861264e+00	-1.816282e+01
1.760000e-06	-3.651107e-07	-2.072228e-10	-2.535888e+00	-1.742558e+01
1.770000e-06	-3.183077e-07	-1.975194e-10	-2.210816e+00	-1.667048e+01
1.780000e-06	-2.714910e-07	-1.907510e-10	-1.885649e+00	-1.589734e+01
1.790000e-06	-2.246245e-07	-1.817496e-10	-1.560136e+00	-1.510602e+01
1.800000e-06	-1.778254e-07	-1.683221e-10	-1.235092e+00	-1.429645e+01
1.810000e-06	-1.310274e-07	-1.527199e-10	-9.100545e-01	-1.346864e+01
1.820000e-06	-8.417491e-08	-1.376313e-10	-5.846394e-01	-1.262268e+01
1.830000e-06	-3.732101e-08	-1.238966e-10	-2.592142e-01	-1.175872e+01
1.840000e-06	9.477117e-09	-1.100568e-10	6.582361e-02	-1.087701e+01
1.850000e-06	5.625743e-08	-1.007488e-10	3.907377e-01	-9.977873e+00
1.860000e-06	1.031116e-07	-9.203330e-11	7.161647e-01	-9.061725e+00
1.870000e-06	1.499841e-07	-8.143143e-11	1.041719e+00	-8.129062e+00
1.880000e-06	1.968716e-07	-6.997510e-11	1.367378e+00	-7.180463e+00
1.890000e-06	2.437220e-07	-5.495919e-11	1.692779e+00	-6.216596e+00
1.900000e-06	2.905078e-07	-3.937950e-11	2.017731e+00	-5.238207e+00
1.910000e-06	3.372994e-07	-2.309654e-11	2.342723e+00	-4.246125e+00
1.920000e-06	3.841036e-07	-9.234989e-12	2.667803e+00	-3.241255e+00
1.930000e-06	4.308869e-07	3.838180e-12	2.992738e+00	-2.224575e+00
1.940000e-06	4.775602e-07	1.183356e-11	3.316909e+00	-1.197134e+00
1.950000e-06	5.241365e-07	1.787134e-11	3.640406e+00	-1.600452e-01
1.960000e-06	5.706241e-07	2.849453e-11	3.963288e+00	8.855200e-01
1.970000e-06	6.170649e-07	4.607447e-11	4.285843e+00	1.938336e+00
1.980000e-06	6.635022e-07	6.644994e-11	4.608375e+00	2.997129e+00
1.990000e-06	7.099503e-07	8.628843e-11	4.930982e+00	4.060589e+00
2.000000e-06	7.563457e-07	1.031462e-10	5.253222e+00	5.127367e+00
2.010000e-06	8.026517e-07	1.165084e-10	5.574842e+00	6.196094e+00
2.020000e-06	8.489199e-07	1.285584e-10	5.896200e+00	7.265380e+00
2.030000e-06	8.951428e-07	1.420032e-10	6.217242e+00	8.333825e+00
2.040000e-06	9.412941e-07	1.559647e-10	6.537787e+00	9.400028e+00
2.050000e-06	9.873821e-07	1.722938e-10	6.857893e+00	1.046259e+01
2.060000e-06	1.033451e-06	1.893130e-10	7.177866e+00	1.152014e+01
2.070000e-06	1.079496e-06	2.076261e-10	7.497670e+00	1.257130e+01
2.080000e-06	1.125425e-06	2.253293e-10	7.816674e+00	1.361476e+01
2.090000e-06	1.171204e-06	2.394128e-10	8.134633e+00	1.464921e+01
2.100000e-06	1.216862e-06	2.509219e-10	8.451752e+00	1.567340e+01
2.110000e-06	1.262474e-06	2.605737e-10	8.768549e+00	1.668613e+01
2.120000e-06	1.308094e-06	2.730137e-10	9.085407e+00	1.768627e+01
2.130000e-06	1.353678e-06	2.871418e-10	9.402011e+00	1.867273e+01
2.140000e-06	1.399120e-06	3.011430e-10	9.717630e+00	1.964450e+01
2.150000e-06	1.444389e-06	3.153851e-10	1.003205e+01	2.060063e+01
2.160000e-06	1.489545e-06	3.301430e-10	1.034568e+01	2.154028e+01
2.170000e-06	1.534575e-06	3.434373e-10	1.065844e+01	2.246264e+01
2.180000e-06	1.579415e-06	3.545043e-10	1.096987e+01	2.336703e+01
2.190000e-06	1.624164e-06	3.647424e-10	1.128068e+01	2.425283e+01
2.200000e-06	1.668838e-06	3.758812e-10	1.159096e+01	2.511952e+01
2.210000e-06	1.713389e-06	3.874729e-10	1.190040e+01	2.596665e+01
2.220000e-06	1.757843e-06	3.992054e-10	1.220915e+01	2.679388e+01
2.230000e-06	1.802117e-06	4.090398e-10	1.251666e+01	2.760094e+01
2.240000e-06	1.846252e-06	4.178868e-10	1.282320e+01	2.838765e+01
2.250000e-06	1.890324e-06	4.261264e-10	1.312931e+01	2.915391e+01
2.260000e-06	1.934316e-06	4.347122e-10	1.343485e+01	2.989973e+01
2.270000e-06	1.978227e-06	4.441050e-10	1.373983e+01	3.062515e+01
2.280000e-06	2.022111e-06	4.535777e-10	1.404463e+01	3.133032e+01
2.290000e-06	2.065965e-06	4.630309e-10	1.434923e+01	3.201544e+01
2.300000e-06	2.109752e-06	4.728247e-10	1.465335e+01	3.268081e+01
2.310000e-06	2.153484e-06	4.816283e-10	1.495709e+01	3.332675e+01
2.320000e-06	2.197108e-06	4.881489e-10	1.526008e+01	3.395365e+01
2.330000e-06	2.240554e-06	4.933933e-10	1.556183e+01	3.456195e+01
2.340000e-06	2.283774e-06	5.004793e-10	1.586202e+01	3.515216e+01
2.350000e-06	2.326760e-06	5.080687e-10	1.616059e+01	3.572477e+01
2.360000e-06	2.369502e-06	5.165686e-10	1.645745e+01	3.628036e+01
2.370000e-06	2.411981e-06	5.255232e-10	1.675249e+01	3.681950e+01
2.380000e-06	2.454199e-06	5.334329e-10	1.704571e+01	3.734279e+01
2.390000e-06	2.496042e-06	5.409709e-10	1.733633e+01	3.785085e+01
2.400000e-06	2.537565e-06	5.474965e-10	1.762474e+01	3.834430e+01
2.410000e-06	2.578827e-06	5.536577e-10	1.791132e+01	3.882375e+01
2.420000e-06	2.619756e-06	5.599075e-10	1.819560e+01	3.928983e+01
2.430000e-06	2.660438e-06	5.662062e-10	1.847815e+01	3.974315e+01
2.440000e-06	2.700899e-06	5.727247e-10	1.875917e+01	4.018430e+01
2.450000e-06	2.741131e-06	5.799017e-10	1.903861e+01	4.061386e+01
2.460000e-06	2.781248e-06	5.857238e-10	1.931724e+01	4.103238e+01
2.470000e-06	2.821252e-06	5.903768e-10	1.959509e+01	4.144039e+01
2.480000e-06	2.861131e-06	5.953225e-10	1.987207e+01	4.183839e+01
2.490000e-06	2.900887e-06	6.025329e-10	2.014820e+01	4.222684e+01
2.500000e-06	2.940495e-06	6.116471e-10	2.042330e+01	4.260619e+01
2.510000e-06	2.979971e-06	6.205194e-10	2.069748e+01	4.297682e+01
2.520000e-06	3.019292e-06	6.266935e-10	2.097058e+01	4.333909e+01
2.530000e-06	3.058390e-06	6.291809e-10	2.124214e+01	4.369332e+01
2.540000e-06	3.097182e-06	6.283443e-10	2.151158e+01	4.403981e+01
2.550000e-06	3.135702e-06	6.269243e-10	2.177912e+01	4.437879e+01
2.560000e-06	3.174018e-06	6.291200e-10	2.204524e+01	4.471048e+01
2.570000e-06	3.212097e-06	6.342274e-10	2.230972e+01	4.503504e+01
2.580000e-06	3.250001e-06	6.406000e-10	2.257298e+01	4.535263e+01
2.590000e-06	3.287787e-06	6.472008e-10	2.283543e+01	4.566335e+01
2.600000e-06	3.325408e-06	6.511804e-10	2.309672e+01	4.596727e+01
2.610000e-06	3.362850e-06	6.547228e-10	2.335678e+01	4.626446e+01
2.620000e-06	3.400016e-06	6.587968e-10	2.361492e+01	4.655493e+01
2.630000e-06	3.436834e-06	6.627156e-10	2.387064e+01	4.683870e+01
2.640000e-06	3.473384e-06	6.650605e-10	2.412449e+01	4.711575e+01
2.650000e-06	3.509717e-06	6.683438e-10	2.437685e+01	4.738607e+01
2.660000e-06	3.545849e-06	6.721249e-10	2.462780e+01	4.764961e+01
2.670000e-06	3.581831e-06	6.740079e-10	2.487772e+01	4.790633e+01
2.680000e-06	3.617643e-06	6.767165e-10	2.512645e+01	4.815618e+01
2.690000e-06	3.653325e-06	6.811527e-10	2.537428e+01	4.839912e+01
2.700000e-06	3.688887e-06	6.858501e-10	2.562128e+01	4.863510e+01
2.710000e-06	3.724214e-06	6.906655e-10	2.586664e+01	4.886408e+01
2.720000e-06	3.759207e-06	6.976519e-10	2.610969e+01	4.908602e+01
2.730000e-06	3.793875e-06	7.041782e-10	2.635048e+01	4.930090e+01
2.740000e-06	3.828138e-06	7.065414e-10	2.658845e+01	4.950872e+01
2.750000e-06	3.861800e-06	7.061790e-10	2.682225e+01	4.970948e+01
2.760000e-06	3.894968e-06	7.052981e-10	2.705262e+01	4.990321e+01
2.770000e-06	3.927715e-06	7.062690e-10	2.728007e+01	5.008995e+01
2.780000e-06	3.960035e-06	7.117604e-10	2.750454e+01	5.026976e+01
2.790000e-06	3.992160e-06	7.198353e-10	2.772767e+01	5.044273e+01
2.800000e-06	4.024193e-06	7.280404e-10	2.795016e+01	5.060895e+01
2.810000e-06	4.056070e-06	7.332754e-10	2.817156e+01	5.076856e+01
2.820000e-06	4.087759e-06	7.354616e-10	2.839166e+01	5.092169e+01
2.830000e-06	4.119286e-06	7.345529e-10	2.861063e+01	5.106853e+01
2.840000e-06	4.150523e-06	7.306063e-10	2.882759e+01	5.120924e+01
2.850000e-06	4.181386e-06	7.286476e-10	2.904195e+01	5.134404e+01
2.860000e-06	4.211888e-06	7.307552e-10	2.925380e+01	5.147315e+01
2.870000e-06	4.242051e-06	7.344354e-10	2.946329e+01	5.159679e+01
2.880000e-06	4.271966e-06	7.412084e-10	2.967107e+01	5.171523e+01
2.890000e-06	4.301688e-06	7.473687e-10	2.987751e+01	5.182871e+01
2.900000e-06	4.331100e-06	7.523959e-10	3.008179e+01	5.193751e+01
