# Temperatura_=_12.8
# Concentracion g/m^3_=_1620.0
# C_Vs_to_Am_M_A/Vsm_=_65563218390.804596
# pendiente_HvsI_1/m_=_3716.3
# ordenada_HvsI_A/m_=_1297.0
# frecuencia_Hz_=_135103.77845439487

Tiempo_(s)	Campo_(V.s)	Magnetizacion_(V.s)	Campo_(kA/m)	Magnetizacion_(A/m)
0.000000e+00	-5.516397e-06	-8.710647e-10	-3.837494e+01	-5.569891e+01
1.000000e-08	-5.516579e-06	-8.724525e-10	-3.837621e+01	-5.570068e+01
2.000000e-08	-5.516440e-06	-8.728709e-10	-3.837524e+01	-5.570009e+01
3.000000e-08	-5.515726e-06	-8.726749e-10	-3.837027e+01	-5.569707e+01
4.000000e-08	-5.514445e-06	-8.730176e-10	-3.836136e+01	-5.569157e+01
5.000000e-08	-5.512604e-06	-8.764743e-10	-3.834856e+01	-5.568354e+01
6.000000e-08	-5.510220e-06	-8.640677e-10	-3.833197e+01	-5.567296e+01
7.000000e-08	-5.507364e-06	-8.277071e-10	-3.831210e+01	-5.565981e+01
8.000000e-08	-5.504080e-06	-8.478722e-10	-3.828926e+01	-5.564410e+01
9.000000e-08	-5.500348e-06	-9.535622e-10	-3.826330e+01	-5.562585e+01
1.000000e-07	-5.496108e-06	-9.288300e-10	-3.823380e+01	-5.560509e+01
1.100000e-07	-5.491581e-06	-8.026019e-10	-3.820231e+01	-5.558188e+01
1.200000e-07	-5.486941e-06	-7.716018e-10	-3.817003e+01	-5.555628e+01
1.300000e-07	-5.481967e-06	-9.036301e-10	-3.813543e+01	-5.552837e+01
1.400000e-07	-5.476411e-06	-9.252394e-10	-3.809678e+01	-5.549826e+01
1.500000e-07	-5.470459e-06	-7.976880e-10	-3.805538e+01	-5.546605e+01
1.600000e-07	-5.464386e-06	-7.807219e-10	-3.801313e+01	-5.543187e+01
1.700000e-07	-5.457951e-06	-8.958562e-10	-3.796836e+01	-5.539584e+01
1.800000e-07	-5.450942e-06	-9.150426e-10	-3.791960e+01	-5.535813e+01
1.900000e-07	-5.443613e-06	-7.981378e-10	-3.786862e+01	-5.531887e+01
2.000000e-07	-5.436067e-06	-7.832414e-10	-3.781612e+01	-5.527822e+01
2.100000e-07	-5.428147e-06	-8.562624e-10	-3.776103e+01	-5.523634e+01
2.200000e-07	-5.419940e-06	-8.830101e-10	-3.770394e+01	-5.519340e+01
2.300000e-07	-5.411519e-06	-8.175906e-10	-3.764536e+01	-5.514955e+01
2.400000e-07	-5.402633e-06	-8.153911e-10	-3.758354e+01	-5.510496e+01
2.500000e-07	-5.392979e-06	-8.433344e-10	-3.751639e+01	-5.505978e+01
2.600000e-07	-5.382591e-06	-8.577186e-10	-3.744412e+01	-5.501416e+01
2.700000e-07	-5.371686e-06	-8.351051e-10	-3.736826e+01	-5.496824e+01
2.800000e-07	-5.360323e-06	-8.431315e-10	-3.728921e+01	-5.492214e+01
2.900000e-07	-5.348489e-06	-8.541816e-10	-3.720689e+01	-5.487597e+01
3.000000e-07	-5.336295e-06	-8.655301e-10	-3.712206e+01	-5.482983e+01
3.100000e-07	-5.323758e-06	-8.493839e-10	-3.703485e+01	-5.478381e+01
3.200000e-07	-5.310729e-06	-8.197050e-10	-3.694421e+01	-5.473796e+01
3.300000e-07	-5.297321e-06	-8.243718e-10	-3.685093e+01	-5.469232e+01
3.400000e-07	-5.283672e-06	-8.518997e-10	-3.675599e+01	-5.464691e+01
3.500000e-07	-5.269519e-06	-8.261413e-10	-3.665753e+01	-5.460172e+01
3.600000e-07	-5.254854e-06	-8.141141e-10	-3.655551e+01	-5.455673e+01
3.700000e-07	-5.239906e-06	-8.655239e-10	-3.645152e+01	-5.451188e+01
3.800000e-07	-5.224433e-06	-8.540433e-10	-3.634389e+01	-5.446710e+01
3.900000e-07	-5.208227e-06	-7.949923e-10	-3.623115e+01	-5.442229e+01
4.000000e-07	-5.191584e-06	-8.380141e-10	-3.611538e+01	-5.437732e+01
4.100000e-07	-5.174738e-06	-8.818556e-10	-3.599818e+01	-5.433203e+01
4.200000e-07	-5.157592e-06	-7.921031e-10	-3.587891e+01	-5.428627e+01
4.300000e-07	-5.140074e-06	-7.906626e-10	-3.575704e+01	-5.423983e+01
4.400000e-07	-5.122253e-06	-8.889832e-10	-3.563307e+01	-5.419250e+01
4.500000e-07	-5.104087e-06	-8.464914e-10	-3.550670e+01	-5.414406e+01
4.600000e-07	-5.085430e-06	-7.572749e-10	-3.537691e+01	-5.409426e+01
4.700000e-07	-5.066348e-06	-8.460492e-10	-3.524417e+01	-5.404283e+01
4.800000e-07	-5.047018e-06	-8.683019e-10	-3.510970e+01	-5.398952e+01
4.900000e-07	-5.027449e-06	-7.723527e-10	-3.497357e+01	-5.393403e+01
5.000000e-07	-5.007635e-06	-8.010135e-10	-3.483573e+01	-5.387608e+01
5.100000e-07	-4.987582e-06	-8.685471e-10	-3.469623e+01	-5.381539e+01
5.200000e-07	-4.967144e-06	-7.760140e-10	-3.455405e+01	-5.375166e+01
5.300000e-07	-4.946330e-06	-7.682566e-10	-3.440926e+01	-5.368462e+01
5.400000e-07	-4.925307e-06	-8.607172e-10	-3.426301e+01	-5.361398e+01
5.500000e-07	-4.903976e-06	-8.104945e-10	-3.411462e+01	-5.353948e+01
5.600000e-07	-4.882213e-06	-7.368536e-10	-3.396323e+01	-5.346085e+01
5.700000e-07	-4.860139e-06	-8.192339e-10	-3.380967e+01	-5.337788e+01
5.800000e-07	-4.837712e-06	-8.251397e-10	-3.365366e+01	-5.329032e+01
5.900000e-07	-4.814826e-06	-7.451874e-10	-3.349445e+01	-5.319798e+01
6.000000e-07	-4.791640e-06	-7.805329e-10	-3.333315e+01	-5.310069e+01
6.100000e-07	-4.768259e-06	-8.225385e-10	-3.317051e+01	-5.299829e+01
6.200000e-07	-4.744626e-06	-7.566460e-10	-3.300610e+01	-5.289067e+01
6.300000e-07	-4.720728e-06	-7.534182e-10	-3.283985e+01	-5.277772e+01
6.400000e-07	-4.696605e-06	-8.017927e-10	-3.267204e+01	-5.265941e+01
6.500000e-07	-4.672169e-06	-7.692620e-10	-3.250205e+01	-5.253568e+01
6.600000e-07	-4.647194e-06	-7.480945e-10	-3.232831e+01	-5.240656e+01
6.700000e-07	-4.621651e-06	-7.851273e-10	-3.215062e+01	-5.227208e+01
6.800000e-07	-4.595524e-06	-7.743775e-10	-3.196887e+01	-5.213232e+01
6.900000e-07	-4.568925e-06	-7.427649e-10	-3.178383e+01	-5.198737e+01
7.000000e-07	-4.541926e-06	-7.658494e-10	-3.159601e+01	-5.183740e+01
7.100000e-07	-4.514543e-06	-7.711051e-10	-3.140552e+01	-5.168256e+01
7.200000e-07	-4.486955e-06	-7.469181e-10	-3.121360e+01	-5.152307e+01
7.300000e-07	-4.459191e-06	-7.507738e-10	-3.102047e+01	-5.135914e+01
7.400000e-07	-4.431248e-06	-7.662879e-10	-3.082608e+01	-5.119105e+01
7.500000e-07	-4.403081e-06	-7.492241e-10	-3.063014e+01	-5.101908e+01
7.600000e-07	-4.374596e-06	-7.460182e-10	-3.043198e+01	-5.084352e+01
7.700000e-07	-4.345749e-06	-7.562146e-10	-3.023130e+01	-5.066471e+01
7.800000e-07	-4.316573e-06	-7.505166e-10	-3.002834e+01	-5.048299e+01
7.900000e-07	-4.287067e-06	-7.420838e-10	-2.982308e+01	-5.029869e+01
8.000000e-07	-4.257326e-06	-7.529277e-10	-2.961618e+01	-5.011218e+01
8.100000e-07	-4.227338e-06	-7.466892e-10	-2.940757e+01	-4.992383e+01
8.200000e-07	-4.197034e-06	-7.368198e-10	-2.919677e+01	-4.973399e+01
8.300000e-07	-4.166489e-06	-7.420168e-10	-2.898428e+01	-4.954302e+01
8.400000e-07	-4.135592e-06	-7.441817e-10	-2.876934e+01	-4.935127e+01
8.500000e-07	-4.104419e-06	-7.289384e-10	-2.855249e+01	-4.915909e+01
8.600000e-07	-4.073099e-06	-7.284076e-10	-2.833461e+01	-4.896679e+01
8.700000e-07	-4.041577e-06	-7.319343e-10	-2.811533e+01	-4.877468e+01
8.800000e-07	-4.009893e-06	-7.219063e-10	-2.789491e+01	-4.858305e+01
8.900000e-07	-3.978042e-06	-7.174624e-10	-2.767334e+01	-4.839214e+01
9.000000e-07	-3.945888e-06	-7.253917e-10	-2.744966e+01	-4.820219e+01
9.100000e-07	-3.913385e-06	-7.166577e-10	-2.722355e+01	-4.801339e+01
9.200000e-07	-3.880517e-06	-7.070451e-10	-2.699490e+01	-4.782589e+01
9.300000e-07	-3.847206e-06	-7.115281e-10	-2.676318e+01	-4.763982e+01
9.400000e-07	-3.813385e-06	-7.097599e-10	-2.652790e+01	-4.745527e+01
9.500000e-07	-3.779063e-06	-6.993057e-10	-2.628914e+01	-4.727227e+01
9.600000e-07	-3.744356e-06	-7.014324e-10	-2.604770e+01	-4.709082e+01
9.700000e-07	-3.709328e-06	-7.056752e-10	-2.580403e+01	-4.691090e+01
9.800000e-07	-3.674012e-06	-6.946363e-10	-2.555835e+01	-4.673240e+01
9.900000e-07	-3.638501e-06	-6.917498e-10	-2.531132e+01	-4.655522e+01
1.000000e-06	-3.602836e-06	-6.963538e-10	-2.506321e+01	-4.637918e+01
1.010000e-06	-3.567012e-06	-6.894980e-10	-2.481400e+01	-4.620408e+01
1.020000e-06	-3.531064e-06	-6.806915e-10	-2.456393e+01	-4.602967e+01
1.030000e-06	-3.494955e-06	-6.858800e-10	-2.431274e+01	-4.585567e+01
1.040000e-06	-3.458635e-06	-6.848966e-10	-2.406008e+01	-4.568177e+01
1.050000e-06	-3.422072e-06	-6.732358e-10	-2.380573e+01	-4.550762e+01
1.060000e-06	-3.385293e-06	-6.677955e-10	-2.354987e+01	-4.533284e+01
1.070000e-06	-3.348288e-06	-6.686914e-10	-2.329244e+01	-4.515703e+01
1.080000e-06	-3.310960e-06	-6.620022e-10	-2.303277e+01	-4.497977e+01
1.090000e-06	-3.273315e-06	-6.613605e-10	-2.277089e+01	-4.480062e+01
1.100000e-06	-3.235436e-06	-6.623302e-10	-2.250739e+01	-4.461912e+01
1.110000e-06	-3.197360e-06	-6.552732e-10	-2.224251e+01	-4.443481e+01
1.120000e-06	-3.159016e-06	-6.450742e-10	-2.197577e+01	-4.424722e+01
1.130000e-06	-3.120553e-06	-6.455490e-10	-2.170820e+01	-4.405587e+01
1.140000e-06	-3.081968e-06	-6.420897e-10	-2.143978e+01	-4.386030e+01
1.150000e-06	-3.043033e-06	-6.339230e-10	-2.116893e+01	-4.366004e+01
1.160000e-06	-3.003825e-06	-6.319548e-10	-2.089618e+01	-4.345464e+01
1.170000e-06	-2.964464e-06	-6.351923e-10	-2.062236e+01	-4.324366e+01
1.180000e-06	-2.924973e-06	-6.306334e-10	-2.034764e+01	-4.302669e+01
1.190000e-06	-2.885407e-06	-6.264995e-10	-2.007240e+01	-4.280333e+01
1.200000e-06	-2.845724e-06	-6.264032e-10	-1.979634e+01	-4.257321e+01
1.210000e-06	-2.805876e-06	-6.228752e-10	-1.951914e+01	-4.233599e+01
1.220000e-06	-2.765900e-06	-6.161875e-10	-1.924105e+01	-4.209134e+01
1.230000e-06	-2.725765e-06	-6.127800e-10	-1.896185e+01	-4.183899e+01
1.240000e-06	-2.685394e-06	-6.101986e-10	-1.868101e+01	-4.157870e+01
1.250000e-06	-2.644769e-06	-6.021532e-10	-1.839840e+01	-4.131025e+01
1.260000e-06	-2.603932e-06	-5.975178e-10	-1.811431e+01	-4.103347e+01
1.270000e-06	-2.562842e-06	-5.988573e-10	-1.782847e+01	-4.074822e+01
1.280000e-06	-2.521444e-06	-5.974914e-10	-1.754048e+01	-4.045440e+01
1.290000e-06	-2.479739e-06	-5.913890e-10	-1.725036e+01	-4.015194e+01
1.300000e-06	-2.437765e-06	-5.846534e-10	-1.695837e+01	-3.984080e+01
1.310000e-06	-2.395525e-06	-5.766538e-10	-1.666452e+01	-3.952100e+01
1.320000e-06	-2.352949e-06	-5.687265e-10	-1.636835e+01	-3.919256e+01
1.330000e-06	-2.310078e-06	-5.649969e-10	-1.607011e+01	-3.885554e+01
1.340000e-06	-2.266947e-06	-5.632952e-10	-1.577007e+01	-3.851003e+01
1.350000e-06	-2.223621e-06	-5.587384e-10	-1.546867e+01	-3.815614e+01
1.360000e-06	-2.180179e-06	-5.542163e-10	-1.516646e+01	-3.779400e+01
1.370000e-06	-2.136605e-06	-5.504260e-10	-1.486334e+01	-3.742374e+01
1.380000e-06	-2.092978e-06	-5.448374e-10	-1.455985e+01	-3.704554e+01
1.390000e-06	-2.049294e-06	-5.377930e-10	-1.425596e+01	-3.665955e+01
1.400000e-06	-2.005516e-06	-5.340180e-10	-1.395142e+01	-3.626593e+01
1.410000e-06	-1.961707e-06	-5.279576e-10	-1.364666e+01	-3.586485e+01
1.420000e-06	-1.917811e-06	-5.199202e-10	-1.334129e+01	-3.545648e+01
1.430000e-06	-1.873735e-06	-5.113726e-10	-1.303468e+01	-3.504095e+01
1.440000e-06	-1.829512e-06	-5.047590e-10	-1.272705e+01	-3.461841e+01
1.450000e-06	-1.785194e-06	-4.962777e-10	-1.241874e+01	-3.418897e+01
1.460000e-06	-1.740881e-06	-4.884482e-10	-1.211048e+01	-3.375273e+01
1.470000e-06	-1.696480e-06	-4.814528e-10	-1.180160e+01	-3.330974e+01
1.480000e-06	-1.651924e-06	-4.749284e-10	-1.149165e+01	-3.286006e+01
1.490000e-06	-1.607226e-06	-4.679023e-10	-1.118070e+01	-3.240368e+01
1.500000e-06	-1.562310e-06	-4.630314e-10	-1.086824e+01	-3.194058e+01
1.510000e-06	-1.517246e-06	-4.547659e-10	-1.055476e+01	-3.147068e+01
1.520000e-06	-1.472085e-06	-4.426778e-10	-1.024059e+01	-3.099388e+01
1.530000e-06	-1.426775e-06	-4.323402e-10	-9.925395e+00	-3.051004e+01
1.540000e-06	-1.381303e-06	-4.242186e-10	-9.609066e+00	-3.001895e+01
1.550000e-06	-1.335788e-06	-4.175928e-10	-9.292439e+00	-2.952039e+01
1.560000e-06	-1.290292e-06	-4.094909e-10	-8.975943e+00	-2.901409e+01
1.570000e-06	-1.244722e-06	-4.012292e-10	-8.658941e+00	-2.849973e+01
1.580000e-06	-1.199008e-06	-3.934867e-10	-8.340929e+00	-2.797696e+01
1.590000e-06	-1.153183e-06	-3.858307e-10	-8.022143e+00	-2.744539e+01
1.600000e-06	-1.107280e-06	-3.790062e-10	-7.702820e+00	-2.690459e+01
1.610000e-06	-1.061313e-06	-3.711876e-10	-7.383047e+00	-2.635411e+01
1.620000e-06	-1.015340e-06	-3.620019e-10	-7.063239e+00	-2.579345e+01
1.630000e-06	-9.692990e-07	-3.518906e-10	-6.742951e+00	-2.522212e+01
1.640000e-06	-9.231094e-07	-3.378245e-10	-6.421632e+00	-2.463958e+01
1.650000e-06	-8.768335e-07	-3.247473e-10	-6.099712e+00	-2.404530e+01
1.660000e-06	-8.305266e-07	-3.131406e-10	-5.777577e+00	-2.343871e+01
1.670000e-06	-7.842288e-07	-3.056128e-10	-5.455506e+00	-2.281927e+01
1.680000e-06	-7.379045e-07	-2.985075e-10	-5.133250e+00	-2.218642e+01
1.690000e-06	-6.915304e-07	-2.935079e-10	-4.810647e+00	-2.153963e+01
1.700000e-06	-6.451377e-07	-2.871442e-10	-4.487916e+00	-2.087835e+01
1.710000e-06	-5.986920e-07	-2.764029e-10	-4.164815e+00	-2.020209e+01
1.720000e-06	-5.521437e-07	-2.619282e-10	-3.841000e+00	-1.951036e+01
1.730000e-06	-5.055149e-07	-2.464194e-10	-3.516626e+00	-1.880273e+01
1.740000e-06	-4.588825e-07	-2.342710e-10	-3.192227e+00	-1.807878e+01
1.750000e-06	-4.122554e-07	-2.257000e-10	-2.867864e+00	-1.733816e+01
1.760000e-06	-3.655577e-07	-2.197592e-10	-2.543011e+00	-1.658056e+01
1.770000e-06	-3.188328e-07	-2.140117e-10	-2.217967e+00	-1.580573e+01
1.780000e-06	-2.721000e-07	-2.067336e-10	-1.892870e+00	-1.501349e+01
1.790000e-06	-2.252974e-07	-1.932362e-10	-1.567287e+00	-1.420372e+01
1.800000e-06	-1.784182e-07	-1.765678e-10	-1.241170e+00	-1.337639e+01
1.810000e-06	-1.315418e-07	-1.589363e-10	-9.150738e-01	-1.253151e+01
1.820000e-06	-8.470651e-08	-1.444666e-10	-5.892628e-01	-1.166919e+01
1.830000e-06	-3.783617e-08	-1.342388e-10	-2.632082e-01	-1.078964e+01
1.840000e-06	8.990696e-09	-1.243504e-10	6.254399e-02	-9.893132e+00
1.850000e-06	5.566835e-08	-1.156064e-10	3.872582e-01	-8.980020e+00
1.860000e-06	1.022989e-07	-1.034943e-10	7.116446e-01	-8.050756e+00
1.870000e-06	1.489553e-07	-8.736928e-11	1.036211e+00	-7.105874e+00
1.880000e-06	1.955720e-07	-6.942521e-11	1.360501e+00	-6.145992e+00
1.890000e-06	2.421718e-07	-5.184649e-11	1.684674e+00	-5.171814e+00
1.900000e-06	2.888117e-07	-3.976736e-11	2.009126e+00	-4.184124e+00
1.910000e-06	3.354498e-07	-3.019768e-11	2.333564e+00	-3.183787e+00
1.920000e-06	3.820230e-07	-1.998890e-11	2.657552e+00	-2.171740e+00
1.930000e-06	4.286368e-07	-4.876402e-12	2.981822e+00	-1.148996e+00
1.940000e-06	4.753001e-07	8.694190e-12	3.306436e+00	-1.166303e-01
1.950000e-06	5.218806e-07	2.192465e-11	3.630474e+00	9.242174e-01
1.960000e-06	5.683266e-07	3.552776e-11	3.953577e+00	1.972353e+00
1.970000e-06	6.147678e-07	5.199213e-11	4.276646e+00	3.026534e+00
1.980000e-06	6.612961e-07	6.594002e-11	4.600322e+00	4.085473e+00
1.990000e-06	7.077749e-07	7.805239e-11	4.923652e+00	5.147848e+00
2.000000e-06	7.541346e-07	9.159733e-11	5.246155e+00	6.212311e+00
2.010000e-06	8.003858e-07	1.062864e-10	5.567902e+00	7.277492e+00
2.020000e-06	8.466597e-07	1.210275e-10	5.889808e+00	8.342006e+00
2.030000e-06	8.929097e-07	1.365154e-10	6.211547e+00	9.404467e+00
2.040000e-06	9.390467e-07	1.536688e-10	6.532500e+00	1.046349e+01
2.050000e-06	9.851811e-07	1.684868e-10	6.853435e+00	1.151770e+01
2.060000e-06	1.031254e-06	1.838866e-10	7.173942e+00	1.256575e+01
2.070000e-06	1.077167e-06	1.972718e-10	7.493338e+00	1.360631e+01
2.080000e-06	1.122968e-06	2.102182e-10	7.811956e+00	1.463808e+01
2.090000e-06	1.168687e-06	2.217072e-10	8.129998e+00	1.565981e+01
2.100000e-06	1.214363e-06	2.332336e-10	8.447744e+00	1.667030e+01
2.110000e-06	1.259968e-06	2.469303e-10	8.764997e+00	1.766839e+01
2.120000e-06	1.305485e-06	2.624050e-10	9.081634e+00	1.865301e+01
2.130000e-06	1.350889e-06	2.758711e-10	9.397492e+00	1.962312e+01
2.140000e-06	1.396177e-06	2.868458e-10	9.712534e+00	2.057778e+01
2.150000e-06	1.441345e-06	2.954707e-10	1.002675e+01	2.151610e+01
2.160000e-06	1.486356e-06	3.068435e-10	1.033987e+01	2.243729e+01
2.170000e-06	1.531350e-06	3.200569e-10	1.065287e+01	2.334063e+01
2.180000e-06	1.576320e-06	3.335679e-10	1.096571e+01	2.422549e+01
2.190000e-06	1.621181e-06	3.465736e-10	1.127778e+01	2.509131e+01
2.200000e-06	1.665869e-06	3.607999e-10	1.158866e+01	2.593765e+01
2.210000e-06	1.710325e-06	3.734188e-10	1.189791e+01	2.676413e+01
2.220000e-06	1.754653e-06	3.856536e-10	1.220629e+01	2.757045e+01
2.230000e-06	1.798885e-06	3.958750e-10	1.251398e+01	2.835643e+01
2.240000e-06	1.842970e-06	4.020181e-10	1.282066e+01	2.912195e+01
2.250000e-06	1.886935e-06	4.074384e-10	1.312651e+01	2.986697e+01
2.260000e-06	1.930835e-06	4.153056e-10	1.343190e+01	3.059154e+01
2.270000e-06	1.974673e-06	4.278136e-10	1.373686e+01	3.129578e+01
2.280000e-06	2.018444e-06	4.418930e-10	1.404135e+01	3.197989e+01
2.290000e-06	2.062144e-06	4.548997e-10	1.434535e+01	3.264414e+01
2.300000e-06	2.105787e-06	4.651555e-10	1.464895e+01	3.328883e+01
2.310000e-06	2.149350e-06	4.733329e-10	1.495200e+01	3.391437e+01
2.320000e-06	2.192837e-06	4.805115e-10	1.525452e+01	3.452119e+01
2.330000e-06	2.236255e-06	4.862214e-10	1.555656e+01	3.510977e+01
2.340000e-06	2.279490e-06	4.930166e-10	1.585732e+01	3.568064e+01
2.350000e-06	2.322462e-06	5.024891e-10	1.615626e+01	3.623435e+01
2.360000e-06	2.365192e-06	5.125815e-10	1.645351e+01	3.677151e+01
2.370000e-06	2.407673e-06	5.229325e-10	1.674903e+01	3.729273e+01
2.380000e-06	2.449827e-06	5.313871e-10	1.704228e+01	3.779863e+01
2.390000e-06	2.491687e-06	5.383605e-10	1.733348e+01	3.828986e+01
2.400000e-06	2.533268e-06	5.431137e-10	1.762274e+01	3.876707e+01
2.410000e-06	2.574477e-06	5.475049e-10	1.790941e+01	3.923090e+01
2.420000e-06	2.615379e-06	5.530314e-10	1.819395e+01	3.968201e+01
2.430000e-06	2.656035e-06	5.615376e-10	1.847677e+01	4.012103e+01
2.440000e-06	2.696478e-06	5.723495e-10	1.875811e+01	4.054857e+01
2.450000e-06	2.736726e-06	5.826207e-10	1.903810e+01	4.096524e+01
2.460000e-06	2.776741e-06	5.904311e-10	1.931646e+01	4.137161e+01
2.470000e-06	2.816568e-06	5.959200e-10	1.959352e+01	4.176824e+01
2.480000e-06	2.856295e-06	5.980624e-10	1.986988e+01	4.215563e+01
2.490000e-06	2.895968e-06	6.029934e-10	2.014587e+01	4.253429e+01
2.500000e-06	2.935522e-06	6.110512e-10	2.042103e+01	4.290467e+01
2.510000e-06	2.974894e-06	6.182582e-10	2.069492e+01	4.326717e+01
2.520000e-06	3.014096e-06	6.270231e-10	2.096763e+01	4.362219e+01
2.530000e-06	3.053156e-06	6.360579e-10	2.123935e+01	4.397006e+01
2.540000e-06	3.091950e-06	6.404542e-10	2.150922e+01	4.431109e+01
2.550000e-06	3.130452e-06	6.421333e-10	2.177706e+01	4.464554e+01
2.560000e-06	3.168769e-06	6.444217e-10	2.204361e+01	4.497363e+01
2.570000e-06	3.206885e-06	6.462886e-10	2.230877e+01	4.529556e+01
2.580000e-06	3.244755e-06	6.487001e-10	2.257221e+01	4.561147e+01
2.590000e-06	3.282432e-06	6.536322e-10	2.283431e+01	4.592149e+01
2.600000e-06	3.319902e-06	6.597161e-10	2.309498e+01	4.622571e+01
2.610000e-06	3.357128e-06	6.655731e-10	2.335394e+01	4.652418e+01
2.620000e-06	3.394145e-06	6.713603e-10	2.361145e+01	4.681694e+01
2.630000e-06	3.430855e-06	6.757558e-10	2.386682e+01	4.710398e+01
2.640000e-06	3.467257e-06	6.791887e-10	2.412005e+01	4.738529e+01
2.650000e-06	3.503424e-06	6.832971e-10	2.437165e+01	4.766084e+01
2.660000e-06	3.539358e-06	6.881724e-10	2.462162e+01	4.793057e+01
2.670000e-06	3.575168e-06	6.912691e-10	2.487074e+01	4.819443e+01
2.680000e-06	3.610900e-06	6.948238e-10	2.511931e+01	4.845234e+01
2.690000e-06	3.646503e-06	6.999802e-10	2.536698e+01	4.870422e+01
2.700000e-06	3.681977e-06	7.050796e-10	2.561376e+01	4.894999e+01
2.710000e-06	3.717284e-06	7.087333e-10	2.585937e+01	4.918956e+01
2.720000e-06	3.752372e-06	7.138930e-10	2.610346e+01	4.942286e+01
2.730000e-06	3.787035e-06	7.191596e-10	2.634460e+01	4.964981e+01
2.740000e-06	3.821137e-06	7.222801e-10	2.658183e+01	4.987034e+01
2.750000e-06	3.854816e-06	7.243548e-10	2.681612e+01	5.008439e+01
2.760000e-06	3.888010e-06	7.258333e-10	2.704703e+01	5.029191e+01
2.770000e-06	3.920723e-06	7.271676e-10	2.727460e+01	5.049288e+01
2.780000e-06	3.953072e-06	7.306538e-10	2.749964e+01	5.068726e+01
2.790000e-06	3.985138e-06	7.360817e-10	2.772270e+01	5.087506e+01
2.800000e-06	4.017039e-06	7.413656e-10	2.794462e+01	5.105629e+01
2.810000e-06	4.048773e-06	7.455796e-10	2.816538e+01	5.123098e+01
2.820000e-06	4.080323e-06	7.479960e-10	2.838486e+01	5.139918e+01
2.830000e-06	4.111668e-06	7.483867e-10	2.860291e+01	5.156096e+01
2.840000e-06	4.142739e-06	7.468500e-10	2.881906e+01	5.171639e+01
2.850000e-06	4.173525e-06	7.484013e-10	2.903323e+01	5.186559e+01
2.860000e-06	4.204048e-06	7.537533e-10	2.924556e+01	5.200867e+01
2.870000e-06	4.234216e-06	7.582784e-10	2.945542e+01	5.214576e+01
2.880000e-06	4.264031e-06	7.620468e-10	2.966283e+01	5.227702e+01
2.890000e-06	4.293546e-06	7.653756e-10	2.986815e+01	5.240261e+01
2.900000e-06	4.322811e-06	7.683165e-10	3.007174e+01	5.252271e+01
