# Temperatura_=_24.8
# Concentracion g/m^3_=_1620.0
# C_Vs_to_Am_M_A/Vsm_=_65563218390.804596
# pendiente_HvsI_1/m_=_3716.3
# ordenada_HvsI_A/m_=_1297.0
# frecuencia_Hz_=_135088.65581975394

Tiempo_(s)	Campo_(V.s)	Magnetizacion_(V.s)	Campo_(kA/m)	Magnetizacion_(A/m)
0.000000e+00	-5.522382e-06	-1.393090e-09	-3.837478e+01	-8.825161e+01
1.000000e-08	-5.522576e-06	-1.396491e-09	-3.837613e+01	-8.826528e+01
2.000000e-08	-5.522460e-06	-1.397631e-09	-3.837532e+01	-8.827937e+01
3.000000e-08	-5.521891e-06	-1.396011e-09	-3.837137e+01	-8.829384e+01
4.000000e-08	-5.520841e-06	-1.392887e-09	-3.836407e+01	-8.830860e+01
5.000000e-08	-5.519200e-06	-1.387907e-09	-3.835267e+01	-8.832356e+01
6.000000e-08	-5.516930e-06	-1.382928e-09	-3.833689e+01	-8.833862e+01
7.000000e-08	-5.514152e-06	-1.391412e-09	-3.831759e+01	-8.835364e+01
8.000000e-08	-5.510865e-06	-1.396577e-09	-3.829475e+01	-8.836851e+01
9.000000e-08	-5.507085e-06	-1.377199e-09	-3.826848e+01	-8.838308e+01
1.000000e-07	-5.502875e-06	-1.375690e-09	-3.823922e+01	-8.839720e+01
1.100000e-07	-5.498400e-06	-1.430789e-09	-3.820813e+01	-8.841071e+01
1.200000e-07	-5.493715e-06	-1.406920e-09	-3.817557e+01	-8.842345e+01
1.300000e-07	-5.488731e-06	-1.355641e-09	-3.814094e+01	-8.843524e+01
1.400000e-07	-5.483411e-06	-1.337435e-09	-3.810397e+01	-8.844592e+01
1.500000e-07	-5.477720e-06	-1.408412e-09	-3.806442e+01	-8.845530e+01
1.600000e-07	-5.471600e-06	-1.409735e-09	-3.802190e+01	-8.846322e+01
1.700000e-07	-5.465135e-06	-1.368267e-09	-3.797697e+01	-8.846949e+01
1.800000e-07	-5.458341e-06	-1.371365e-09	-3.792976e+01	-8.847395e+01
1.900000e-07	-5.451122e-06	-1.434939e-09	-3.787960e+01	-8.847642e+01
2.000000e-07	-5.443578e-06	-1.397703e-09	-3.782717e+01	-8.847673e+01
2.100000e-07	-5.435820e-06	-1.332779e-09	-3.777326e+01	-8.847474e+01
2.200000e-07	-5.427724e-06	-1.333046e-09	-3.771701e+01	-8.847027e+01
2.300000e-07	-5.419114e-06	-1.402771e-09	-3.765718e+01	-8.846318e+01
2.400000e-07	-5.410044e-06	-1.426248e-09	-3.759415e+01	-8.845334e+01
2.500000e-07	-5.400499e-06	-1.371686e-09	-3.752782e+01	-8.844059e+01
2.600000e-07	-5.390344e-06	-1.353642e-09	-3.745725e+01	-8.842483e+01
2.700000e-07	-5.379527e-06	-1.364215e-09	-3.738208e+01	-8.840594e+01
2.800000e-07	-5.368156e-06	-1.366565e-09	-3.730307e+01	-8.838381e+01
2.900000e-07	-5.356432e-06	-1.330436e-09	-3.722160e+01	-8.835833e+01
3.000000e-07	-5.344388e-06	-1.352177e-09	-3.713791e+01	-8.832943e+01
3.100000e-07	-5.331912e-06	-1.372757e-09	-3.705121e+01	-8.829703e+01
3.200000e-07	-5.319029e-06	-1.382712e-09	-3.696169e+01	-8.826105e+01
3.300000e-07	-5.305764e-06	-1.337803e-09	-3.686951e+01	-8.822144e+01
3.400000e-07	-5.292014e-06	-1.346836e-09	-3.677396e+01	-8.817815e+01
3.500000e-07	-5.277757e-06	-1.354068e-09	-3.667489e+01	-8.813114e+01
3.600000e-07	-5.263113e-06	-1.351562e-09	-3.657313e+01	-8.808037e+01
3.700000e-07	-5.248126e-06	-1.303634e-09	-3.646899e+01	-8.802582e+01
3.800000e-07	-5.232558e-06	-1.338334e-09	-3.636081e+01	-8.796749e+01
3.900000e-07	-5.216326e-06	-1.371206e-09	-3.624801e+01	-8.790535e+01
4.000000e-07	-5.199746e-06	-1.327268e-09	-3.613280e+01	-8.783942e+01
4.100000e-07	-5.182884e-06	-1.283373e-09	-3.601563e+01	-8.776971e+01
4.200000e-07	-5.165722e-06	-1.347936e-09	-3.589637e+01	-8.769622e+01
4.300000e-07	-5.148248e-06	-1.359822e-09	-3.577494e+01	-8.761898e+01
4.400000e-07	-5.130351e-06	-1.293998e-09	-3.565057e+01	-8.753802e+01
4.500000e-07	-5.112163e-06	-1.318287e-09	-3.552418e+01	-8.745339e+01
4.600000e-07	-5.093571e-06	-1.379765e-09	-3.539499e+01	-8.736511e+01
4.700000e-07	-5.074495e-06	-1.316857e-09	-3.526243e+01	-8.727324e+01
4.800000e-07	-5.055189e-06	-1.276189e-09	-3.512828e+01	-8.717783e+01
4.900000e-07	-5.035735e-06	-1.346641e-09	-3.499309e+01	-8.707894e+01
5.000000e-07	-5.016104e-06	-1.340647e-09	-3.485668e+01	-8.697664e+01
5.100000e-07	-4.996112e-06	-1.287408e-09	-3.471775e+01	-8.687100e+01
5.200000e-07	-4.975762e-06	-1.328196e-09	-3.457634e+01	-8.676208e+01
5.300000e-07	-4.955076e-06	-1.354195e-09	-3.443260e+01	-8.664998e+01
5.400000e-07	-4.933909e-06	-1.290706e-09	-3.428551e+01	-8.653477e+01
5.500000e-07	-4.912444e-06	-1.306283e-09	-3.413635e+01	-8.641655e+01
5.600000e-07	-4.890752e-06	-1.342811e-09	-3.398561e+01	-8.629541e+01
5.700000e-07	-4.868738e-06	-1.293256e-09	-3.383264e+01	-8.617145e+01
5.800000e-07	-4.846426e-06	-1.271842e-09	-3.367759e+01	-8.604476e+01
5.900000e-07	-4.823756e-06	-1.331278e-09	-3.352006e+01	-8.591546e+01
6.000000e-07	-4.800617e-06	-1.312591e-09	-3.335926e+01	-8.578366e+01
6.100000e-07	-4.777149e-06	-1.270924e-09	-3.319619e+01	-8.564947e+01
6.200000e-07	-4.753512e-06	-1.295221e-09	-3.303194e+01	-8.551300e+01
6.300000e-07	-4.729716e-06	-1.307824e-09	-3.286658e+01	-8.537438e+01
6.400000e-07	-4.705620e-06	-1.269877e-09	-3.269914e+01	-8.523372e+01
6.500000e-07	-4.681099e-06	-1.285302e-09	-3.252874e+01	-8.509115e+01
6.600000e-07	-4.656076e-06	-1.302550e-09	-3.235485e+01	-8.494679e+01
6.700000e-07	-4.630552e-06	-1.279062e-09	-3.217749e+01	-8.480077e+01
6.800000e-07	-4.604525e-06	-1.269650e-09	-3.199664e+01	-8.465320e+01
6.900000e-07	-4.577970e-06	-1.290494e-09	-3.181210e+01	-8.450420e+01
7.000000e-07	-4.551091e-06	-1.273355e-09	-3.162532e+01	-8.435391e+01
7.100000e-07	-4.523886e-06	-1.259793e-09	-3.143628e+01	-8.420243e+01
7.200000e-07	-4.496431e-06	-1.270258e-09	-3.124549e+01	-8.404987e+01
7.300000e-07	-4.468848e-06	-1.268786e-09	-3.105382e+01	-8.389635e+01
7.400000e-07	-4.441036e-06	-1.258297e-09	-3.086056e+01	-8.374196e+01
7.500000e-07	-4.412940e-06	-1.267605e-09	-3.066532e+01	-8.358680e+01
7.600000e-07	-4.384531e-06	-1.266681e-09	-3.046790e+01	-8.343095e+01
7.700000e-07	-4.355758e-06	-1.252377e-09	-3.026796e+01	-8.327448e+01
7.800000e-07	-4.326624e-06	-1.250813e-09	-3.006551e+01	-8.311748e+01
7.900000e-07	-4.297180e-06	-1.250709e-09	-2.986091e+01	-8.295998e+01
8.000000e-07	-4.267454e-06	-1.242150e-09	-2.965434e+01	-8.280202e+01
8.100000e-07	-4.237486e-06	-1.243312e-09	-2.944609e+01	-8.264365e+01
8.200000e-07	-4.207225e-06	-1.251608e-09	-2.923581e+01	-8.248486e+01
8.300000e-07	-4.176652e-06	-1.243296e-09	-2.902336e+01	-8.232565e+01
8.400000e-07	-4.145852e-06	-1.239686e-09	-2.880933e+01	-8.216602e+01
8.500000e-07	-4.114794e-06	-1.242205e-09	-2.859351e+01	-8.200591e+01
8.600000e-07	-4.083445e-06	-1.233477e-09	-2.837567e+01	-8.184529e+01
8.700000e-07	-4.051870e-06	-1.218684e-09	-2.815626e+01	-8.168407e+01
8.800000e-07	-4.020179e-06	-1.222857e-09	-2.793604e+01	-8.152216e+01
8.900000e-07	-3.988285e-06	-1.219499e-09	-2.771441e+01	-8.135947e+01
9.000000e-07	-3.956135e-06	-1.211854e-09	-2.749100e+01	-8.119587e+01
9.100000e-07	-3.923677e-06	-1.213520e-09	-2.726545e+01	-8.103120e+01
9.200000e-07	-3.890709e-06	-1.216410e-09	-2.703636e+01	-8.086532e+01
9.300000e-07	-3.857302e-06	-1.203327e-09	-2.680421e+01	-8.069804e+01
9.400000e-07	-3.823608e-06	-1.199478e-09	-2.657008e+01	-8.052917e+01
9.500000e-07	-3.789431e-06	-1.199343e-09	-2.633258e+01	-8.035850e+01
9.600000e-07	-3.754745e-06	-1.193469e-09	-2.609155e+01	-8.018581e+01
9.700000e-07	-3.719776e-06	-1.186092e-09	-2.584855e+01	-8.001085e+01
9.800000e-07	-3.684515e-06	-1.187497e-09	-2.560353e+01	-7.983339e+01
9.900000e-07	-3.649067e-06	-1.180116e-09	-2.535720e+01	-7.965315e+01
1.000000e-06	-3.613549e-06	-1.169939e-09	-2.511038e+01	-7.946987e+01
1.010000e-06	-3.577920e-06	-1.168793e-09	-2.486280e+01	-7.928329e+01
1.020000e-06	-3.542070e-06	-1.169380e-09	-2.461368e+01	-7.909311e+01
1.030000e-06	-3.505995e-06	-1.162087e-09	-2.436300e+01	-7.889906e+01
1.040000e-06	-3.469714e-06	-1.160431e-09	-2.411088e+01	-7.870085e+01
1.050000e-06	-3.433110e-06	-1.160461e-09	-2.385652e+01	-7.849820e+01
1.060000e-06	-3.396179e-06	-1.150610e-09	-2.359989e+01	-7.829082e+01
1.070000e-06	-3.359001e-06	-1.141744e-09	-2.334155e+01	-7.807845e+01
1.080000e-06	-3.321658e-06	-1.137921e-09	-2.308205e+01	-7.786082e+01
1.090000e-06	-3.284030e-06	-1.132491e-09	-2.282057e+01	-7.763766e+01
1.100000e-06	-3.246197e-06	-1.125260e-09	-2.255767e+01	-7.740873e+01
1.110000e-06	-3.208239e-06	-1.121587e-09	-2.229390e+01	-7.717379e+01
1.120000e-06	-3.169979e-06	-1.113690e-09	-2.202804e+01	-7.693262e+01
1.130000e-06	-3.131438e-06	-1.106436e-09	-2.176022e+01	-7.668500e+01
1.140000e-06	-3.092710e-06	-1.103542e-09	-2.149110e+01	-7.643075e+01
1.150000e-06	-3.053765e-06	-1.099841e-09	-2.122047e+01	-7.616968e+01
1.160000e-06	-3.014671e-06	-1.092463e-09	-2.094881e+01	-7.590165e+01
1.170000e-06	-2.975496e-06	-1.087596e-09	-2.067659e+01	-7.562650e+01
1.180000e-06	-2.936099e-06	-1.082169e-09	-2.040282e+01	-7.534412e+01
1.190000e-06	-2.896499e-06	-1.074548e-09	-2.012764e+01	-7.505440e+01
1.200000e-06	-2.856793e-06	-1.067851e-09	-1.985173e+01	-7.475726e+01
1.210000e-06	-2.817006e-06	-1.067097e-09	-1.957524e+01	-7.445261e+01
1.220000e-06	-2.777103e-06	-1.063847e-09	-1.929796e+01	-7.414041e+01
1.230000e-06	-2.737030e-06	-1.059875e-09	-1.901950e+01	-7.382061e+01
1.240000e-06	-2.696582e-06	-1.056228e-09	-1.873842e+01	-7.349317e+01
1.250000e-06	-2.655825e-06	-1.053100e-09	-1.845521e+01	-7.315809e+01
1.260000e-06	-2.614821e-06	-1.045754e-09	-1.817027e+01	-7.281533e+01
1.270000e-06	-2.573644e-06	-1.038239e-09	-1.788413e+01	-7.246490e+01
1.280000e-06	-2.532251e-06	-1.031764e-09	-1.759650e+01	-7.210678e+01
1.290000e-06	-2.490448e-06	-1.025217e-09	-1.730601e+01	-7.174096e+01
1.300000e-06	-2.448350e-06	-1.016370e-09	-1.701347e+01	-7.136744e+01
1.310000e-06	-2.405949e-06	-1.009308e-09	-1.671883e+01	-7.098618e+01
1.320000e-06	-2.363231e-06	-1.003637e-09	-1.642198e+01	-7.059716e+01
1.330000e-06	-2.320332e-06	-1.002440e-09	-1.612388e+01	-7.020031e+01
1.340000e-06	-2.277360e-06	-1.001321e-09	-1.582527e+01	-6.979558e+01
1.350000e-06	-2.234169e-06	-9.964929e-10	-1.552514e+01	-6.938287e+01
1.360000e-06	-2.190733e-06	-9.895231e-10	-1.522330e+01	-6.896205e+01
1.370000e-06	-2.147211e-06	-9.802762e-10	-1.492087e+01	-6.853298e+01
1.380000e-06	-2.103636e-06	-9.702225e-10	-1.461807e+01	-6.809547e+01
1.390000e-06	-2.059972e-06	-9.614531e-10	-1.431465e+01	-6.764929e+01
1.400000e-06	-2.016209e-06	-9.552293e-10	-1.401054e+01	-6.719418e+01
1.410000e-06	-1.972380e-06	-9.495131e-10	-1.370598e+01	-6.672982e+01
1.420000e-06	-1.928546e-06	-9.414431e-10	-1.340138e+01	-6.625586e+01
1.430000e-06	-1.884570e-06	-9.303561e-10	-1.309579e+01	-6.577189e+01
1.440000e-06	-1.840446e-06	-9.204512e-10	-1.278918e+01	-6.527744e+01
1.450000e-06	-1.796259e-06	-9.093085e-10	-1.248212e+01	-6.477201e+01
1.460000e-06	-1.751892e-06	-9.006834e-10	-1.217382e+01	-6.425503e+01
1.470000e-06	-1.707381e-06	-8.906745e-10	-1.186451e+01	-6.372588e+01
1.480000e-06	-1.662711e-06	-8.810327e-10	-1.155410e+01	-6.318387e+01
1.490000e-06	-1.617927e-06	-8.726549e-10	-1.124290e+01	-6.262827e+01
1.500000e-06	-1.573048e-06	-8.650180e-10	-1.093104e+01	-6.205830e+01
1.510000e-06	-1.528022e-06	-8.553873e-10	-1.061816e+01	-6.147313e+01
1.520000e-06	-1.482900e-06	-8.431784e-10	-1.030461e+01	-6.087185e+01
1.530000e-06	-1.437671e-06	-8.309068e-10	-9.990306e+00	-6.025355e+01
1.540000e-06	-1.392321e-06	-8.182882e-10	-9.675175e+00	-5.961723e+01
1.550000e-06	-1.346817e-06	-8.085714e-10	-9.358966e+00	-5.896189e+01
1.560000e-06	-1.301208e-06	-8.007811e-10	-9.042036e+00	-5.828646e+01
1.570000e-06	-1.255571e-06	-7.912802e-10	-8.724905e+00	-5.758988e+01
1.580000e-06	-1.209904e-06	-7.805601e-10	-8.407568e+00	-5.687103e+01
1.590000e-06	-1.164142e-06	-7.673936e-10	-8.089573e+00	-5.612879e+01
1.600000e-06	-1.118227e-06	-7.492078e-10	-7.770506e+00	-5.536202e+01
1.610000e-06	-1.072209e-06	-7.290822e-10	-7.450732e+00	-5.456960e+01
1.620000e-06	-1.026163e-06	-7.138021e-10	-7.130760e+00	-5.375037e+01
1.630000e-06	-9.800753e-07	-7.027296e-10	-6.810498e+00	-5.290323e+01
1.640000e-06	-9.339138e-07	-6.933718e-10	-6.489724e+00	-5.202708e+01
1.650000e-06	-8.876753e-07	-6.831043e-10	-6.168415e+00	-5.112082e+01
1.660000e-06	-8.414612e-07	-6.705173e-10	-5.847275e+00	-5.018344e+01
1.670000e-06	-7.951667e-07	-6.524100e-10	-5.525577e+00	-4.921394e+01
1.680000e-06	-7.488279e-07	-6.293424e-10	-5.203571e+00	-4.821137e+01
1.690000e-06	-7.024478e-07	-6.072588e-10	-4.881278e+00	-4.717487e+01
1.700000e-06	-6.559413e-07	-5.885640e-10	-4.558106e+00	-4.610364e+01
1.710000e-06	-6.094686e-07	-5.767485e-10	-4.235169e+00	-4.499693e+01
1.720000e-06	-5.629547e-07	-5.644268e-10	-3.911946e+00	-4.385413e+01
1.730000e-06	-5.163597e-07	-5.487446e-10	-3.588160e+00	-4.267469e+01
1.740000e-06	-4.695782e-07	-5.300613e-10	-3.263077e+00	-4.145816e+01
1.750000e-06	-4.227937e-07	-5.085941e-10	-2.937974e+00	-4.020422e+01
1.760000e-06	-3.761402e-07	-4.864376e-10	-2.613781e+00	-3.891266e+01
1.770000e-06	-3.294715e-07	-4.651929e-10	-2.289482e+00	-3.758337e+01
1.780000e-06	-2.827554e-07	-4.472923e-10	-1.964854e+00	-3.621638e+01
1.790000e-06	-2.358797e-07	-4.295450e-10	-1.639117e+00	-3.481187e+01
1.800000e-06	-1.888712e-07	-4.111095e-10	-1.312457e+00	-3.337012e+01
1.810000e-06	-1.418873e-07	-3.906151e-10	-9.859682e-01	-3.189157e+01
1.820000e-06	-9.498291e-08	-3.680443e-10	-6.600318e-01	-3.037678e+01
1.830000e-06	-4.818609e-08	-3.440964e-10	-3.348429e-01	-2.882646e+01
1.840000e-06	-1.435377e-09	-3.221667e-10	-9.974368e-03	-2.724147e+01
1.850000e-06	4.542549e-08	-3.029735e-10	3.156596e-01	-2.562279e+01
1.860000e-06	9.235385e-08	-2.839579e-10	6.417627e-01	-2.397154e+01
1.870000e-06	1.391379e-07	-2.606030e-10	9.668625e-01	-2.228898e+01
1.880000e-06	1.858244e-07	-2.334748e-10	1.291286e+00	-2.057651e+01
1.890000e-06	2.325846e-07	-2.049077e-10	1.616220e+00	-1.883563e+01
1.900000e-06	2.792991e-07	-1.782723e-10	1.940837e+00	-1.706798e+01
1.910000e-06	3.259417e-07	-1.560814e-10	2.264954e+00	-1.527531e+01
1.920000e-06	3.725822e-07	-1.346290e-10	2.589057e+00	-1.345950e+01
1.930000e-06	4.192486e-07	-1.127641e-10	2.913339e+00	-1.162248e+01
1.940000e-06	4.659892e-07	-8.776993e-11	3.238137e+00	-9.766332e+00
1.950000e-06	5.126012e-07	-5.901642e-11	3.562042e+00	-7.893179e+00
1.960000e-06	5.591096e-07	-2.737737e-11	3.885227e+00	-6.005237e+00
1.970000e-06	6.056531e-07	2.595706e-12	4.208655e+00	-4.104782e+00
1.980000e-06	6.521614e-07	3.014305e-11	4.531840e+00	-2.194144e+00
1.990000e-06	6.986338e-07	5.753586e-11	4.854774e+00	-2.756957e-01
2.000000e-06	7.450067e-07	7.950412e-11	5.177018e+00	1.648156e+00
2.010000e-06	7.913033e-07	1.036259e-10	5.498730e+00	3.574986e+00
2.020000e-06	8.375280e-07	1.320718e-10	5.819944e+00	5.502359e+00
2.030000e-06	8.836483e-07	1.661595e-10	6.140431e+00	7.427840e+00
2.040000e-06	9.298672e-07	1.988127e-10	6.461604e+00	9.349009e+00
2.050000e-06	9.760538e-07	2.267460e-10	6.782553e+00	1.126347e+01
2.060000e-06	1.022057e-06	2.517974e-10	7.102228e+00	1.316886e+01
2.070000e-06	1.067935e-06	2.746399e-10	7.421032e+00	1.506287e+01
2.080000e-06	1.113723e-06	2.967365e-10	7.739210e+00	1.694324e+01
2.090000e-06	1.159477e-06	3.208130e-10	8.057151e+00	1.880778e+01
2.100000e-06	1.205125e-06	3.490702e-10	8.374357e+00	2.065437e+01
2.110000e-06	1.250739e-06	3.805426e-10	8.691328e+00	2.248099e+01
2.120000e-06	1.296292e-06	4.089963e-10	9.007871e+00	2.428569e+01
2.130000e-06	1.341705e-06	4.334192e-10	9.323449e+00	2.606663e+01
2.140000e-06	1.387032e-06	4.565852e-10	9.638423e+00	2.782209e+01
2.150000e-06	1.432294e-06	4.762349e-10	9.952946e+00	2.955045e+01
2.160000e-06	1.477475e-06	4.955342e-10	1.026690e+01	3.125020e+01
2.170000e-06	1.522548e-06	5.136815e-10	1.058012e+01	3.291998e+01
2.180000e-06	1.567441e-06	5.365080e-10	1.089208e+01	3.455852e+01
2.190000e-06	1.612190e-06	5.613420e-10	1.120303e+01	3.616471e+01
2.200000e-06	1.656844e-06	5.845873e-10	1.151334e+01	3.773755e+01
2.210000e-06	1.701405e-06	6.058706e-10	1.182299e+01	3.927618e+01
2.220000e-06	1.745789e-06	6.262489e-10	1.213140e+01	4.077987e+01
2.230000e-06	1.789973e-06	6.456729e-10	1.243844e+01	4.224801e+01
2.240000e-06	1.834108e-06	6.623616e-10	1.274513e+01	4.368014e+01
2.250000e-06	1.878156e-06	6.773199e-10	1.305122e+01	4.507590e+01
2.260000e-06	1.922118e-06	6.947262e-10	1.335671e+01	4.643507e+01
2.270000e-06	1.965971e-06	7.145760e-10	1.366144e+01	4.775755e+01
2.280000e-06	2.009719e-06	7.351582e-10	1.396545e+01	4.904334e+01
2.290000e-06	2.053418e-06	7.572673e-10	1.426910e+01	5.029255e+01
2.300000e-06	2.097011e-06	7.774522e-10	1.457203e+01	5.150542e+01
2.310000e-06	2.140493e-06	7.932740e-10	1.487419e+01	5.268225e+01
2.320000e-06	2.183933e-06	8.078075e-10	1.517605e+01	5.382344e+01
2.330000e-06	2.227369e-06	8.225884e-10	1.547789e+01	5.492950e+01
2.340000e-06	2.270591e-06	8.373107e-10	1.577823e+01	5.600099e+01
2.350000e-06	2.313592e-06	8.502094e-10	1.607705e+01	5.703853e+01
2.360000e-06	2.356494e-06	8.639173e-10	1.637517e+01	5.804284e+01
2.370000e-06	2.399206e-06	8.761254e-10	1.667197e+01	5.901464e+01
2.380000e-06	2.441661e-06	8.866112e-10	1.696699e+01	5.995474e+01
2.390000e-06	2.483820e-06	8.999573e-10	1.725995e+01	6.086397e+01
2.400000e-06	2.525580e-06	9.169828e-10	1.755014e+01	6.174319e+01
2.410000e-06	2.566934e-06	9.330077e-10	1.783751e+01	6.259329e+01
2.420000e-06	2.608002e-06	9.458170e-10	1.812289e+01	6.341515e+01
2.430000e-06	2.648803e-06	9.551125e-10	1.840641e+01	6.420970e+01
2.440000e-06	2.689383e-06	9.623336e-10	1.868840e+01	6.497784e+01
2.450000e-06	2.729657e-06	9.699009e-10	1.896826e+01	6.572048e+01
2.460000e-06	2.769655e-06	9.790301e-10	1.924620e+01	6.643852e+01
2.470000e-06	2.809555e-06	9.895740e-10	1.952347e+01	6.713285e+01
2.480000e-06	2.849340e-06	1.000693e-09	1.979993e+01	6.780432e+01
2.490000e-06	2.889025e-06	1.010501e-09	2.007570e+01	6.845378e+01
2.500000e-06	2.928559e-06	1.018260e-09	2.035042e+01	6.908205e+01
2.510000e-06	2.967924e-06	1.025742e-09	2.062397e+01	6.968990e+01
2.520000e-06	3.007218e-06	1.032530e-09	2.089702e+01	7.027810e+01
2.530000e-06	3.046289e-06	1.036596e-09	2.116853e+01	7.084736e+01
2.540000e-06	3.085147e-06	1.041043e-09	2.143855e+01	7.139836e+01
2.550000e-06	3.123797e-06	1.049172e-09	2.170712e+01	7.193175e+01
2.560000e-06	3.162214e-06	1.058445e-09	2.197408e+01	7.244813e+01
2.570000e-06	3.200436e-06	1.066544e-09	2.223968e+01	7.294809e+01
2.580000e-06	3.238362e-06	1.073132e-09	2.250323e+01	7.343215e+01
2.590000e-06	3.276043e-06	1.079249e-09	2.276507e+01	7.390081e+01
2.600000e-06	3.313491e-06	1.083144e-09	2.302529e+01	7.435454e+01
2.610000e-06	3.350782e-06	1.088290e-09	2.328443e+01	7.479378e+01
2.620000e-06	3.387875e-06	1.097345e-09	2.354219e+01	7.521893e+01
2.630000e-06	3.424659e-06	1.104283e-09	2.379780e+01	7.563035e+01
2.640000e-06	3.461223e-06	1.107047e-09	2.405188e+01	7.602841e+01
2.650000e-06	3.497580e-06	1.110438e-09	2.430453e+01	7.641343e+01
2.660000e-06	3.533719e-06	1.115258e-09	2.455565e+01	7.678572e+01
2.670000e-06	3.569598e-06	1.120865e-09	2.480497e+01	7.714557e+01
2.680000e-06	3.605270e-06	1.124780e-09	2.505286e+01	7.749325e+01
2.690000e-06	3.640798e-06	1.127004e-09	2.529974e+01	7.782904e+01
2.700000e-06	3.676218e-06	1.126948e-09	2.554587e+01	7.815319e+01
2.710000e-06	3.711531e-06	1.126647e-09	2.579126e+01	7.846597e+01
2.720000e-06	3.746643e-06	1.128990e-09	2.603525e+01	7.876761e+01
2.730000e-06	3.781511e-06	1.134954e-09	2.627755e+01	7.905837e+01
2.740000e-06	3.816060e-06	1.140847e-09	2.651762e+01	7.933851e+01
2.750000e-06	3.850042e-06	1.142479e-09	2.675376e+01	7.960830e+01
2.760000e-06	3.883467e-06	1.142955e-09	2.698604e+01	7.986798e+01
2.770000e-06	3.916539e-06	1.141319e-09	2.721585e+01	8.011785e+01
2.780000e-06	3.949169e-06	1.140041e-09	2.744259e+01	8.035819e+01
2.790000e-06	3.981336e-06	1.138896e-09	2.766612e+01	8.058930e+01
2.800000e-06	4.013185e-06	1.140937e-09	2.788744e+01	8.081148e+01
2.810000e-06	4.044880e-06	1.147155e-09	2.810769e+01	8.102505e+01
2.820000e-06	4.076433e-06	1.154816e-09	2.832695e+01	8.123035e+01
2.830000e-06	4.107786e-06	1.162347e-09	2.854482e+01	8.142771e+01
2.840000e-06	4.138960e-06	1.166127e-09	2.876144e+01	8.161751e+01
2.850000e-06	4.169952e-06	1.167639e-09	2.897680e+01	8.180010e+01
2.860000e-06	4.200608e-06	1.168054e-09	2.918984e+01	8.197585e+01
2.870000e-06	4.230946e-06	1.170793e-09	2.940065e+01	8.214516e+01
2.880000e-06	4.260955e-06	1.175450e-09	2.960918e+01	8.230841e+01
2.890000e-06	4.290572e-06	1.180487e-09	2.981499e+01	8.246599e+01
2.900000e-06	4.319935e-06	1.186804e-09	3.001903e+01	8.261831e+01
