# Temperatura_=_11.6
# Concentracion g/m^3_=_1620.0
# C_Vs_to_Am_M_A/Vsm_=_65563218390.804596
# pendiente_HvsI_1/m_=_3716.3
# ordenada_HvsI_A/m_=_1297.0
# frecuencia_Hz_=_135106.93576694585

Tiempo_(s)	Campo_(V.s)	Magnetizacion_(V.s)	Campo_(kA/m)	Magnetizacion_(A/m)
0.000000e+00	-5.523233e-06	-1.692778e-09	-3.836529e+01	-1.094870e+02
1.000000e-08	-5.523369e-06	-1.692474e-09	-3.836624e+01	-1.094457e+02
2.000000e-08	-5.523253e-06	-1.694243e-09	-3.836543e+01	-1.094042e+02
3.000000e-08	-5.522837e-06	-1.694715e-09	-3.836254e+01	-1.093623e+02
4.000000e-08	-5.522044e-06	-1.693800e-09	-3.835704e+01	-1.093200e+02
5.000000e-08	-5.520839e-06	-1.691207e-09	-3.834867e+01	-1.092769e+02
6.000000e-08	-5.518999e-06	-1.689282e-09	-3.833589e+01	-1.092328e+02
7.000000e-08	-5.516476e-06	-1.688000e-09	-3.831836e+01	-1.091875e+02
8.000000e-08	-5.513407e-06	-1.690421e-09	-3.829704e+01	-1.091407e+02
9.000000e-08	-5.509881e-06	-1.701569e-09	-3.827255e+01	-1.090921e+02
1.000000e-07	-5.505955e-06	-1.700055e-09	-3.824528e+01	-1.090415e+02
1.100000e-07	-5.501589e-06	-1.660594e-09	-3.821495e+01	-1.089885e+02
1.200000e-07	-5.496966e-06	-1.661068e-09	-3.818284e+01	-1.089329e+02
1.300000e-07	-5.492159e-06	-1.690230e-09	-3.814945e+01	-1.088743e+02
1.400000e-07	-5.486961e-06	-1.675929e-09	-3.811334e+01	-1.088125e+02
1.500000e-07	-5.481378e-06	-1.644219e-09	-3.807456e+01	-1.087472e+02
1.600000e-07	-5.475484e-06	-1.647522e-09	-3.803362e+01	-1.086782e+02
1.700000e-07	-5.469247e-06	-1.708785e-09	-3.799030e+01	-1.086052e+02
1.800000e-07	-5.462557e-06	-1.691485e-09	-3.794383e+01	-1.085279e+02
1.900000e-07	-5.455426e-06	-1.658933e-09	-3.789430e+01	-1.084462e+02
2.000000e-07	-5.448029e-06	-1.645765e-09	-3.784291e+01	-1.083600e+02
2.100000e-07	-5.440359e-06	-1.679413e-09	-3.778964e+01	-1.082690e+02
2.200000e-07	-5.432375e-06	-1.677166e-09	-3.773418e+01	-1.081732e+02
2.300000e-07	-5.424105e-06	-1.662501e-09	-3.767673e+01	-1.080724e+02
2.400000e-07	-5.415484e-06	-1.663875e-09	-3.761685e+01	-1.079666e+02
2.500000e-07	-5.406245e-06	-1.683066e-09	-3.755268e+01	-1.078559e+02
2.600000e-07	-5.396303e-06	-1.683802e-09	-3.748362e+01	-1.077401e+02
2.700000e-07	-5.385841e-06	-1.656981e-09	-3.741095e+01	-1.076194e+02
2.800000e-07	-5.374817e-06	-1.644433e-09	-3.733437e+01	-1.074938e+02
2.900000e-07	-5.363275e-06	-1.656212e-09	-3.725420e+01	-1.073634e+02
3.000000e-07	-5.351458e-06	-1.662274e-09	-3.717212e+01	-1.072284e+02
3.100000e-07	-5.339312e-06	-1.634651e-09	-3.708775e+01	-1.070888e+02
3.200000e-07	-5.326661e-06	-1.627328e-09	-3.699988e+01	-1.069449e+02
3.300000e-07	-5.313560e-06	-1.632507e-09	-3.690887e+01	-1.067969e+02
3.400000e-07	-5.300110e-06	-1.640968e-09	-3.681545e+01	-1.066449e+02
3.500000e-07	-5.286229e-06	-1.608698e-09	-3.671902e+01	-1.064891e+02
3.600000e-07	-5.271902e-06	-1.607730e-09	-3.661951e+01	-1.063299e+02
3.700000e-07	-5.257221e-06	-1.629388e-09	-3.651753e+01	-1.061674e+02
3.800000e-07	-5.242041e-06	-1.639220e-09	-3.641209e+01	-1.060019e+02
3.900000e-07	-5.226268e-06	-1.604932e-09	-3.630253e+01	-1.058335e+02
4.000000e-07	-5.209988e-06	-1.612725e-09	-3.618944e+01	-1.056626e+02
4.100000e-07	-5.193384e-06	-1.619367e-09	-3.607411e+01	-1.054893e+02
4.200000e-07	-5.176488e-06	-1.595031e-09	-3.595675e+01	-1.053139e+02
4.300000e-07	-5.159225e-06	-1.593300e-09	-3.583684e+01	-1.051365e+02
4.400000e-07	-5.141614e-06	-1.639264e-09	-3.571450e+01	-1.049572e+02
4.500000e-07	-5.123609e-06	-1.617486e-09	-3.558944e+01	-1.047764e+02
4.600000e-07	-5.105087e-06	-1.573991e-09	-3.546078e+01	-1.045939e+02
4.700000e-07	-5.086199e-06	-1.603025e-09	-3.532958e+01	-1.044101e+02
4.800000e-07	-5.067097e-06	-1.622148e-09	-3.519690e+01	-1.042248e+02
4.900000e-07	-5.047676e-06	-1.569582e-09	-3.506199e+01	-1.040383e+02
5.000000e-07	-5.027970e-06	-1.571044e-09	-3.492512e+01	-1.038504e+02
5.100000e-07	-5.008055e-06	-1.604756e-09	-3.478679e+01	-1.036612e+02
5.200000e-07	-4.987876e-06	-1.563253e-09	-3.464662e+01	-1.034705e+02
5.300000e-07	-4.967303e-06	-1.544070e-09	-3.450372e+01	-1.032784e+02
5.400000e-07	-4.946370e-06	-1.594566e-09	-3.435831e+01	-1.030847e+02
5.500000e-07	-4.925114e-06	-1.577304e-09	-3.421066e+01	-1.028893e+02
5.600000e-07	-4.903477e-06	-1.525527e-09	-3.406037e+01	-1.026920e+02
5.700000e-07	-4.881566e-06	-1.565608e-09	-3.390817e+01	-1.024926e+02
5.800000e-07	-4.859360e-06	-1.583245e-09	-3.375392e+01	-1.022909e+02
5.900000e-07	-4.836707e-06	-1.531336e-09	-3.359657e+01	-1.020867e+02
6.000000e-07	-4.813727e-06	-1.535020e-09	-3.343695e+01	-1.018797e+02
6.100000e-07	-4.790545e-06	-1.565280e-09	-3.327592e+01	-1.016697e+02
6.200000e-07	-4.767093e-06	-1.519901e-09	-3.311302e+01	-1.014564e+02
6.300000e-07	-4.743300e-06	-1.507131e-09	-3.294775e+01	-1.012395e+02
6.400000e-07	-4.719250e-06	-1.544607e-09	-3.278069e+01	-1.010188e+02
6.500000e-07	-4.694955e-06	-1.532651e-09	-3.261194e+01	-1.007941e+02
6.600000e-07	-4.670272e-06	-1.507299e-09	-3.244048e+01	-1.005649e+02
6.700000e-07	-4.645116e-06	-1.533636e-09	-3.226575e+01	-1.003312e+02
6.800000e-07	-4.619397e-06	-1.524104e-09	-3.208710e+01	-1.000926e+02
6.900000e-07	-4.593115e-06	-1.490802e-09	-3.190454e+01	-9.984889e+01
7.000000e-07	-4.566347e-06	-1.499588e-09	-3.171861e+01	-9.959995e+01
7.100000e-07	-4.539192e-06	-1.509377e-09	-3.152998e+01	-9.934556e+01
7.200000e-07	-4.511717e-06	-1.483377e-09	-3.133914e+01	-9.908558e+01
7.300000e-07	-4.484008e-06	-1.490314e-09	-3.114666e+01	-9.881987e+01
7.400000e-07	-4.456104e-06	-1.509510e-09	-3.095284e+01	-9.854836e+01
7.500000e-07	-4.427950e-06	-1.496223e-09	-3.075728e+01	-9.827098e+01
7.600000e-07	-4.399559e-06	-1.486002e-09	-3.056007e+01	-9.798771e+01
7.700000e-07	-4.370991e-06	-1.496013e-09	-3.036163e+01	-9.769855e+01
7.800000e-07	-4.342136e-06	-1.481311e-09	-3.016120e+01	-9.740355e+01
7.900000e-07	-4.312875e-06	-1.465165e-09	-2.995795e+01	-9.710278e+01
8.000000e-07	-4.283349e-06	-1.472452e-09	-2.975285e+01	-9.679635e+01
8.100000e-07	-4.253602e-06	-1.469033e-09	-2.954623e+01	-9.648440e+01
8.200000e-07	-4.223538e-06	-1.453084e-09	-2.933740e+01	-9.616710e+01
8.300000e-07	-4.193166e-06	-1.456246e-09	-2.912643e+01	-9.584465e+01
8.400000e-07	-4.162460e-06	-1.457554e-09	-2.891314e+01	-9.551727e+01
8.500000e-07	-4.131444e-06	-1.442972e-09	-2.869770e+01	-9.518521e+01
8.600000e-07	-4.100113e-06	-1.444602e-09	-2.848007e+01	-9.484872e+01
8.700000e-07	-4.068519e-06	-1.450253e-09	-2.826061e+01	-9.450809e+01
8.800000e-07	-4.036849e-06	-1.433999e-09	-2.804062e+01	-9.416360e+01
8.900000e-07	-4.005090e-06	-1.417999e-09	-2.782002e+01	-9.381555e+01
9.000000e-07	-3.973099e-06	-1.418865e-09	-2.759781e+01	-9.346424e+01
9.100000e-07	-3.940824e-06	-1.408588e-09	-2.737362e+01	-9.310997e+01
9.200000e-07	-3.908210e-06	-1.400176e-09	-2.714707e+01	-9.275302e+01
9.300000e-07	-3.875146e-06	-1.404852e-09	-2.691741e+01	-9.239367e+01
9.400000e-07	-3.841644e-06	-1.402652e-09	-2.668470e+01	-9.203219e+01
9.500000e-07	-3.807727e-06	-1.386274e-09	-2.644910e+01	-9.166883e+01
9.600000e-07	-3.773424e-06	-1.381800e-09	-2.621083e+01	-9.130380e+01
9.700000e-07	-3.738740e-06	-1.376948e-09	-2.596991e+01	-9.093730e+01
9.800000e-07	-3.703698e-06	-1.362206e-09	-2.572650e+01	-9.056949e+01
9.900000e-07	-3.668349e-06	-1.354490e-09	-2.548097e+01	-9.020050e+01
1.000000e-06	-3.632789e-06	-1.359513e-09	-2.523396e+01	-8.983044e+01
1.010000e-06	-3.597029e-06	-1.351216e-09	-2.498556e+01	-8.945934e+01
1.020000e-06	-3.561078e-06	-1.339268e-09	-2.473584e+01	-8.908723e+01
1.030000e-06	-3.524996e-06	-1.334697e-09	-2.448521e+01	-8.871407e+01
1.040000e-06	-3.488785e-06	-1.325911e-09	-2.423368e+01	-8.833980e+01
1.050000e-06	-3.452360e-06	-1.312030e-09	-2.398067e+01	-8.796430e+01
1.060000e-06	-3.415687e-06	-1.307485e-09	-2.372593e+01	-8.758741e+01
1.070000e-06	-3.378812e-06	-1.303046e-09	-2.346979e+01	-8.720894e+01
1.080000e-06	-3.341652e-06	-1.292942e-09	-2.321167e+01	-8.682864e+01
1.090000e-06	-3.304167e-06	-1.287157e-09	-2.295129e+01	-8.644623e+01
1.100000e-06	-3.266400e-06	-1.283508e-09	-2.268896e+01	-8.606139e+01
1.110000e-06	-3.228422e-06	-1.270605e-09	-2.242515e+01	-8.567378e+01
1.120000e-06	-3.190286e-06	-1.254826e-09	-2.216026e+01	-8.528301e+01
1.130000e-06	-3.151912e-06	-1.245611e-09	-2.189371e+01	-8.488868e+01
1.140000e-06	-3.113172e-06	-1.237898e-09	-2.162461e+01	-8.449035e+01
1.150000e-06	-3.074219e-06	-1.233525e-09	-2.135404e+01	-8.408757e+01
1.160000e-06	-3.035114e-06	-1.235165e-09	-2.108241e+01	-8.367987e+01
1.170000e-06	-2.995750e-06	-1.233045e-09	-2.080897e+01	-8.326679e+01
1.180000e-06	-2.956241e-06	-1.220489e-09	-2.053454e+01	-8.284784e+01
1.190000e-06	-2.916664e-06	-1.209858e-09	-2.025963e+01	-8.242255e+01
1.200000e-06	-2.876970e-06	-1.199343e-09	-1.998391e+01	-8.199044e+01
1.210000e-06	-2.837115e-06	-1.186313e-09	-1.970707e+01	-8.155104e+01
1.220000e-06	-2.797157e-06	-1.177014e-09	-1.942952e+01	-8.110391e+01
1.230000e-06	-2.757119e-06	-1.173280e-09	-1.915140e+01	-8.064862e+01
1.240000e-06	-2.716893e-06	-1.164259e-09	-1.887199e+01	-8.018475e+01
1.250000e-06	-2.676483e-06	-1.152820e-09	-1.859130e+01	-7.971194e+01
1.260000e-06	-2.635819e-06	-1.146238e-09	-1.830884e+01	-7.922981e+01
1.270000e-06	-2.594817e-06	-1.141082e-09	-1.802403e+01	-7.873806e+01
1.280000e-06	-2.553588e-06	-1.130938e-09	-1.773765e+01	-7.823640e+01
1.290000e-06	-2.512113e-06	-1.122171e-09	-1.744955e+01	-7.772458e+01
1.300000e-06	-2.470334e-06	-1.115465e-09	-1.715935e+01	-7.720240e+01
1.310000e-06	-2.428196e-06	-1.105175e-09	-1.686665e+01	-7.666968e+01
1.320000e-06	-2.385657e-06	-1.090415e-09	-1.657117e+01	-7.612629e+01
1.330000e-06	-2.342888e-06	-1.079036e-09	-1.627409e+01	-7.557212e+01
1.340000e-06	-2.299942e-06	-1.072550e-09	-1.597578e+01	-7.500713e+01
1.350000e-06	-2.256785e-06	-1.068890e-09	-1.567600e+01	-7.443128e+01
1.360000e-06	-2.213461e-06	-1.066218e-09	-1.537507e+01	-7.384457e+01
1.370000e-06	-2.170064e-06	-1.059915e-09	-1.507363e+01	-7.324703e+01
1.380000e-06	-2.126563e-06	-1.047945e-09	-1.477146e+01	-7.263872e+01
1.390000e-06	-2.082836e-06	-1.032296e-09	-1.446772e+01	-7.201971e+01
1.400000e-06	-2.038981e-06	-1.014488e-09	-1.416310e+01	-7.139007e+01
1.410000e-06	-1.995119e-06	-9.997580e-10	-1.385843e+01	-7.074991e+01
1.420000e-06	-1.951229e-06	-9.896077e-10	-1.355356e+01	-7.009930e+01
1.430000e-06	-1.907227e-06	-9.831130e-10	-1.324792e+01	-6.943834e+01
1.440000e-06	-1.863105e-06	-9.769085e-10	-1.294143e+01	-6.876711e+01
1.450000e-06	-1.818838e-06	-9.693692e-10	-1.263395e+01	-6.808565e+01
1.460000e-06	-1.774449e-06	-9.614133e-10	-1.232562e+01	-6.739401e+01
1.470000e-06	-1.730027e-06	-9.501881e-10	-1.201706e+01	-6.669217e+01
1.480000e-06	-1.685490e-06	-9.373995e-10	-1.170769e+01	-6.598010e+01
1.490000e-06	-1.640780e-06	-9.253282e-10	-1.139713e+01	-6.525771e+01
1.500000e-06	-1.595933e-06	-9.130049e-10	-1.108562e+01	-6.452486e+01
1.510000e-06	-1.551012e-06	-8.980128e-10	-1.077359e+01	-6.378137e+01
1.520000e-06	-1.505938e-06	-8.830742e-10	-1.046050e+01	-6.302696e+01
1.530000e-06	-1.460635e-06	-8.685619e-10	-1.014582e+01	-6.226132e+01
1.540000e-06	-1.415196e-06	-8.559811e-10	-9.830185e+00	-6.148405e+01
1.550000e-06	-1.369704e-06	-8.448900e-10	-9.514194e+00	-6.069467e+01
1.560000e-06	-1.324202e-06	-8.312855e-10	-9.198126e+00	-5.989264e+01
1.570000e-06	-1.278655e-06	-8.151766e-10	-8.881747e+00	-5.907732e+01
1.580000e-06	-1.233005e-06	-7.988328e-10	-8.564661e+00	-5.824801e+01
1.590000e-06	-1.187267e-06	-7.822059e-10	-8.246956e+00	-5.740391e+01
1.600000e-06	-1.141464e-06	-7.652358e-10	-7.928799e+00	-5.654415e+01
1.610000e-06	-1.095560e-06	-7.472005e-10	-7.609942e+00	-5.566778e+01
1.620000e-06	-1.049563e-06	-7.304629e-10	-7.290438e+00	-5.477379e+01
1.630000e-06	-1.003470e-06	-7.143992e-10	-6.970267e+00	-5.386109e+01
1.640000e-06	-9.572778e-07	-6.994949e-10	-6.649411e+00	-5.292851e+01
1.650000e-06	-9.110169e-07	-6.853321e-10	-6.328075e+00	-5.197485e+01
1.660000e-06	-8.647471e-07	-6.728646e-10	-6.006677e+00	-5.099885e+01
1.670000e-06	-8.184583e-07	-6.607334e-10	-5.685147e+00	-4.999919e+01
1.680000e-06	-7.720603e-07	-6.462773e-10	-5.362859e+00	-4.897455e+01
1.690000e-06	-7.256093e-07	-6.297419e-10	-5.040203e+00	-4.792355e+01
1.700000e-06	-6.790819e-07	-6.120066e-10	-4.717016e+00	-4.684482e+01
1.710000e-06	-6.324874e-07	-5.903922e-10	-4.393363e+00	-4.573700e+01
1.720000e-06	-5.859110e-07	-5.643901e-10	-4.069835e+00	-4.459871e+01
1.730000e-06	-5.393056e-07	-5.407486e-10	-3.746106e+00	-4.342861e+01
1.740000e-06	-4.926697e-07	-5.212724e-10	-3.422166e+00	-4.222540e+01
1.750000e-06	-4.459973e-07	-5.083883e-10	-3.097971e+00	-4.098783e+01
1.760000e-06	-3.993182e-07	-4.957075e-10	-2.773730e+00	-3.971469e+01
1.770000e-06	-3.525976e-07	-4.791975e-10	-2.449202e+00	-3.840488e+01
1.780000e-06	-3.057337e-07	-4.586785e-10	-2.123677e+00	-3.705736e+01
1.790000e-06	-2.588723e-07	-4.359759e-10	-1.798170e+00	-3.567121e+01
1.800000e-06	-2.120771e-07	-4.116257e-10	-1.473123e+00	-3.424561e+01
1.810000e-06	-1.652323e-07	-3.865653e-10	-1.147731e+00	-3.277987e+01
1.820000e-06	-1.184131e-07	-3.659807e-10	-8.225169e-01	-3.127344e+01
1.830000e-06	-7.162917e-08	-3.472447e-10	-4.975481e-01	-2.972592e+01
1.840000e-06	-2.478189e-08	-3.292360e-10	-1.721391e-01	-2.813706e+01
1.850000e-06	2.207489e-08	-3.097169e-10	1.533359e-01	-2.650678e+01
1.860000e-06	6.891153e-08	-2.889016e-10	4.786710e-01	-2.483517e+01
1.870000e-06	1.157324e-07	-2.668411e-10	8.038964e-01	-2.312249e+01
1.880000e-06	1.625368e-07	-2.431412e-10	1.129008e+00	-2.136921e+01
1.890000e-06	2.093749e-07	-2.182204e-10	1.454353e+00	-1.957596e+01
1.900000e-06	2.562192e-07	-1.908542e-10	1.779741e+00	-1.774358e+01
1.910000e-06	3.030685e-07	-1.619280e-10	2.105164e+00	-1.587310e+01
1.920000e-06	3.499596e-07	-1.335835e-10	2.430877e+00	-1.396573e+01
1.930000e-06	3.968027e-07	-1.066039e-10	2.756257e+00	-1.202287e+01
1.940000e-06	4.435298e-07	-8.174666e-11	3.080832e+00	-1.004611e+01
1.950000e-06	4.901767e-07	-5.844143e-11	3.404849e+00	-8.037232e+00
1.960000e-06	5.367320e-07	-3.470274e-11	3.728230e+00	-5.998175e+00
1.970000e-06	5.832180e-07	-5.648669e-12	4.051129e+00	-3.931049e+00
1.980000e-06	6.296543e-07	2.656113e-11	4.373684e+00	-1.838126e+00
1.990000e-06	6.760218e-07	5.984568e-11	4.695760e+00	2.781807e-01
2.000000e-06	7.223580e-07	9.397169e-11	5.017619e+00	2.415319e+00
2.010000e-06	7.687887e-07	1.257082e-10	5.340135e+00	4.570617e+00
2.020000e-06	8.152741e-07	1.550600e-10	5.663030e+00	6.741293e+00
2.030000e-06	8.616004e-07	1.833059e-10	5.984820e+00	8.924472e+00
2.040000e-06	9.078021e-07	2.127913e-10	6.305744e+00	1.111720e+01
2.050000e-06	9.538921e-07	2.407858e-10	6.625893e+00	1.331646e+01
2.060000e-06	9.998838e-07	2.696935e-10	6.945359e+00	1.551920e+01
2.070000e-06	1.045869e-06	3.017298e-10	7.264781e+00	1.772232e+01
2.080000e-06	1.091737e-06	3.340654e-10	7.583385e+00	1.992273e+01
2.090000e-06	1.137532e-06	3.658410e-10	7.901488e+00	2.211733e+01
2.100000e-06	1.183317e-06	3.967025e-10	8.219520e+00	2.430307e+01
2.110000e-06	1.228988e-06	4.255522e-10	8.536755e+00	2.647690e+01
2.120000e-06	1.274522e-06	4.524139e-10	8.853045e+00	2.863587e+01
2.130000e-06	1.319998e-06	4.800083e-10	9.168924e+00	3.077708e+01
2.140000e-06	1.365466e-06	5.089510e-10	9.484756e+00	3.289774e+01
2.150000e-06	1.410848e-06	5.379990e-10	9.799982e+00	3.499514e+01
2.160000e-06	1.456049e-06	5.667323e-10	1.011396e+01	3.706671e+01
2.170000e-06	1.501185e-06	5.932332e-10	1.042748e+01	3.911002e+01
2.180000e-06	1.546237e-06	6.180504e-10	1.074042e+01	4.112276e+01
2.190000e-06	1.591098e-06	6.407195e-10	1.105203e+01	4.310280e+01
2.200000e-06	1.635910e-06	6.637319e-10	1.136331e+01	4.504816e+01
2.210000e-06	1.680654e-06	6.892108e-10	1.167410e+01	4.695705e+01
2.220000e-06	1.725224e-06	7.173573e-10	1.198369e+01	4.882784e+01
2.230000e-06	1.769587e-06	7.457898e-10	1.229185e+01	5.065911e+01
2.240000e-06	1.813762e-06	7.714589e-10	1.259870e+01	5.244962e+01
2.250000e-06	1.857822e-06	7.915081e-10	1.290474e+01	5.419832e+01
2.260000e-06	1.901791e-06	8.066741e-10	1.321016e+01	5.590435e+01
2.270000e-06	1.945697e-06	8.219972e-10	1.351513e+01	5.756706e+01
2.280000e-06	1.989548e-06	8.392157e-10	1.381973e+01	5.918598e+01
2.290000e-06	2.033342e-06	8.595798e-10	1.412393e+01	6.076082e+01
2.300000e-06	2.077089e-06	8.842355e-10	1.442781e+01	6.229149e+01
2.310000e-06	2.120779e-06	9.109929e-10	1.473128e+01	6.377808e+01
2.320000e-06	2.164435e-06	9.359174e-10	1.503452e+01	6.522082e+01
2.330000e-06	2.208011e-06	9.563994e-10	1.533721e+01	6.662012e+01
2.340000e-06	2.251394e-06	9.709608e-10	1.563856e+01	6.797655e+01
2.350000e-06	2.294689e-06	9.831317e-10	1.593929e+01	6.929081e+01
2.360000e-06	2.337865e-06	9.962096e-10	1.623920e+01	7.056373e+01
2.370000e-06	2.380728e-06	1.011388e-09	1.653693e+01	7.179625e+01
2.380000e-06	2.423227e-06	1.028745e-09	1.683213e+01	7.298942e+01
2.390000e-06	2.465407e-06	1.048664e-09	1.712512e+01	7.414439e+01
2.400000e-06	2.507261e-06	1.069482e-09	1.741585e+01	7.526239e+01
2.410000e-06	2.548740e-06	1.089382e-09	1.770397e+01	7.634468e+01
2.420000e-06	2.589854e-06	1.105129e-09	1.798956e+01	7.739261e+01
2.430000e-06	2.630670e-06	1.116532e-09	1.827307e+01	7.840756e+01
2.440000e-06	2.671250e-06	1.126732e-09	1.855495e+01	7.939091e+01
2.450000e-06	2.711611e-06	1.137049e-09	1.883530e+01	8.034407e+01
2.460000e-06	2.751838e-06	1.149875e-09	1.911473e+01	8.126845e+01
2.470000e-06	2.791954e-06	1.164947e-09	1.939338e+01	8.216544e+01
2.480000e-06	2.831960e-06	1.179732e-09	1.967126e+01	8.303640e+01
2.490000e-06	2.871801e-06	1.193894e-09	1.994801e+01	8.388267e+01
2.500000e-06	2.911483e-06	1.207330e-09	2.022365e+01	8.470551e+01
2.510000e-06	2.951088e-06	1.220204e-09	2.049875e+01	8.550617e+01
2.520000e-06	2.990613e-06	1.231274e-09	2.077330e+01	8.628580e+01
2.530000e-06	3.029909e-06	1.242050e-09	2.104625e+01	8.704551e+01
2.540000e-06	3.068907e-06	1.254960e-09	2.131714e+01	8.778631e+01
2.550000e-06	3.107644e-06	1.267579e-09	2.158621e+01	8.850915e+01
2.560000e-06	3.146082e-06	1.276647e-09	2.185321e+01	8.921488e+01
2.570000e-06	3.184300e-06	1.283359e-09	2.211868e+01	8.990428e+01
2.580000e-06	3.222374e-06	1.290341e-09	2.238315e+01	9.057803e+01
2.590000e-06	3.260266e-06	1.297016e-09	2.264635e+01	9.123673e+01
2.600000e-06	3.297918e-06	1.305908e-09	2.290788e+01	9.188090e+01
2.610000e-06	3.335393e-06	1.318367e-09	2.316820e+01	9.251097e+01
2.620000e-06	3.372648e-06	1.331726e-09	2.342698e+01	9.312728e+01
2.630000e-06	3.409552e-06	1.342991e-09	2.368331e+01	9.373010e+01
2.640000e-06	3.446135e-06	1.351126e-09	2.393743e+01	9.431963e+01
2.650000e-06	3.482470e-06	1.357039e-09	2.418982e+01	9.489600e+01
2.660000e-06	3.518593e-06	1.361861e-09	2.444073e+01	9.545927e+01
2.670000e-06	3.554577e-06	1.365185e-09	2.469068e+01	9.600946e+01
2.680000e-06	3.590464e-06	1.369141e-09	2.493996e+01	9.654654e+01
2.690000e-06	3.626244e-06	1.377209e-09	2.518850e+01	9.707042e+01
2.700000e-06	3.661870e-06	1.387231e-09	2.543596e+01	9.758100e+01
2.710000e-06	3.697284e-06	1.395774e-09	2.568195e+01	9.807814e+01
2.720000e-06	3.732473e-06	1.402312e-09	2.592638e+01	9.856168e+01
2.730000e-06	3.767370e-06	1.405801e-09	2.616878e+01	9.903148e+01
2.740000e-06	3.801830e-06	1.407430e-09	2.640815e+01	9.948735e+01
2.750000e-06	3.835813e-06	1.410091e-09	2.664419e+01	9.992915e+01
2.760000e-06	3.869372e-06	1.414898e-09	2.687730e+01	1.003567e+02
2.770000e-06	3.902453e-06	1.421513e-09	2.710709e+01	1.007699e+02
2.780000e-06	3.935125e-06	1.429613e-09	2.733403e+01	1.011687e+02
2.790000e-06	3.967456e-06	1.438742e-09	2.755861e+01	1.015529e+02
2.800000e-06	3.999485e-06	1.446750e-09	2.778109e+01	1.019226e+02
2.810000e-06	4.031356e-06	1.452727e-09	2.800247e+01	1.022778e+02
2.820000e-06	4.063068e-06	1.457052e-09	2.822275e+01	1.026184e+02
2.830000e-06	4.094586e-06	1.460945e-09	2.844168e+01	1.029446e+02
2.840000e-06	4.125911e-06	1.465799e-09	2.865926e+01	1.032565e+02
2.850000e-06	4.156975e-06	1.470713e-09	2.887504e+01	1.035544e+02
2.860000e-06	4.187746e-06	1.476094e-09	2.908878e+01	1.038385e+02
2.870000e-06	4.218183e-06	1.484140e-09	2.930020e+01	1.041090e+02
2.880000e-06	4.248259e-06	1.490540e-09	2.950912e+01	1.043664e+02
2.890000e-06	4.278018e-06	1.491891e-09	2.971583e+01	1.046110e+02
2.900000e-06	4.307499e-06	1.493436e-09	2.992060e+01	1.048433e+02
