# Temperatura_=_-12.91
# Concentracion g/m^3_=_1620.0
# C_Vs_to_Am_M_A/Vsm_=_65563218390.804596
# pendiente_HvsI_1/m_=_3716.3
# ordenada_HvsI_A/m_=_1297.0
# frecuencia_Hz_=_135104.4506400508

Tiempo_(s)	Campo_(V.s)	Magnetizacion_(V.s)	Campo_(kA/m)	Magnetizacion_(A/m)
0.000000e+00	-5.507377e-06	-1.308167e-09	-3.837538e+01	-8.331995e+01
1.000000e-08	-5.507573e-06	-1.308785e-09	-3.837675e+01	-8.327976e+01
2.000000e-08	-5.507451e-06	-1.310352e-09	-3.837589e+01	-8.323756e+01
3.000000e-08	-5.507008e-06	-1.310544e-09	-3.837280e+01	-8.319325e+01
4.000000e-08	-5.506179e-06	-1.309205e-09	-3.836703e+01	-8.314671e+01
5.000000e-08	-5.504801e-06	-1.306195e-09	-3.835743e+01	-8.309781e+01
6.000000e-08	-5.502815e-06	-1.305248e-09	-3.834359e+01	-8.304646e+01
7.000000e-08	-5.500142e-06	-1.311489e-09	-3.832497e+01	-8.299256e+01
8.000000e-08	-5.496944e-06	-1.317031e-09	-3.830268e+01	-8.293600e+01
9.000000e-08	-5.493339e-06	-1.280821e-09	-3.827756e+01	-8.287670e+01
1.000000e-07	-5.489308e-06	-1.266303e-09	-3.824947e+01	-8.281461e+01
1.100000e-07	-5.484909e-06	-1.312396e-09	-3.821882e+01	-8.274966e+01
1.200000e-07	-5.480273e-06	-1.350331e-09	-3.818652e+01	-8.268183e+01
1.300000e-07	-5.475352e-06	-1.262761e-09	-3.815223e+01	-8.261111e+01
1.400000e-07	-5.470049e-06	-1.240173e-09	-3.811528e+01	-8.253750e+01
1.500000e-07	-5.464372e-06	-1.290098e-09	-3.807572e+01	-8.246105e+01
1.600000e-07	-5.458360e-06	-1.369281e-09	-3.803382e+01	-8.238179e+01
1.700000e-07	-5.451954e-06	-1.254446e-09	-3.798919e+01	-8.229983e+01
1.800000e-07	-5.445111e-06	-1.178061e-09	-3.794151e+01	-8.221527e+01
1.900000e-07	-5.437923e-06	-1.234478e-09	-3.789142e+01	-8.212824e+01
2.000000e-07	-5.430431e-06	-1.315936e-09	-3.783922e+01	-8.203891e+01
2.100000e-07	-5.422669e-06	-1.274851e-09	-3.778514e+01	-8.194745e+01
2.200000e-07	-5.414670e-06	-1.202891e-09	-3.772940e+01	-8.185409e+01
2.300000e-07	-5.406347e-06	-1.228959e-09	-3.767140e+01	-8.175904e+01
2.400000e-07	-5.397487e-06	-1.247525e-09	-3.760966e+01	-8.166256e+01
2.500000e-07	-5.387965e-06	-1.221575e-09	-3.754331e+01	-8.156492e+01
2.600000e-07	-5.377810e-06	-1.179017e-09	-3.747256e+01	-8.146641e+01
2.700000e-07	-5.367078e-06	-1.234248e-09	-3.739778e+01	-8.136734e+01
2.800000e-07	-5.355848e-06	-1.246224e-09	-3.731952e+01	-8.126800e+01
2.900000e-07	-5.344184e-06	-1.237039e-09	-3.723825e+01	-8.116873e+01
3.000000e-07	-5.332189e-06	-1.192118e-09	-3.715467e+01	-8.106985e+01
3.100000e-07	-5.319901e-06	-1.222689e-09	-3.706905e+01	-8.097168e+01
3.200000e-07	-5.307127e-06	-1.213193e-09	-3.698004e+01	-8.087454e+01
3.300000e-07	-5.293903e-06	-1.210173e-09	-3.688789e+01	-8.077876e+01
3.400000e-07	-5.280394e-06	-1.175542e-09	-3.679376e+01	-8.068463e+01
3.500000e-07	-5.266482e-06	-1.212950e-09	-3.669683e+01	-8.059244e+01
3.600000e-07	-5.252113e-06	-1.233205e-09	-3.659670e+01	-8.050248e+01
3.700000e-07	-5.237304e-06	-1.222824e-09	-3.649351e+01	-8.041498e+01
3.800000e-07	-5.221903e-06	-1.188306e-09	-3.638619e+01	-8.033019e+01
3.900000e-07	-5.206023e-06	-1.219630e-09	-3.627554e+01	-8.024828e+01
4.000000e-07	-5.189805e-06	-1.212271e-09	-3.616254e+01	-8.016944e+01
4.100000e-07	-5.173221e-06	-1.168029e-09	-3.604698e+01	-8.009378e+01
4.200000e-07	-5.156216e-06	-1.196209e-09	-3.592849e+01	-8.002142e+01
4.300000e-07	-5.138798e-06	-1.250103e-09	-3.580712e+01	-7.995240e+01
4.400000e-07	-5.121053e-06	-1.200026e-09	-3.568348e+01	-7.988675e+01
4.500000e-07	-5.103001e-06	-1.163735e-09	-3.555769e+01	-7.982443e+01
4.600000e-07	-5.084533e-06	-1.238201e-09	-3.542901e+01	-7.976538e+01
4.700000e-07	-5.065619e-06	-1.227039e-09	-3.529721e+01	-7.970949e+01
4.800000e-07	-5.046314e-06	-1.159427e-09	-3.516269e+01	-7.965662e+01
4.900000e-07	-5.026767e-06	-1.194092e-09	-3.502649e+01	-7.960656e+01
5.000000e-07	-5.007075e-06	-1.236929e-09	-3.488928e+01	-7.955908e+01
5.100000e-07	-4.987164e-06	-1.160628e-09	-3.475053e+01	-7.951392e+01
5.200000e-07	-4.966961e-06	-1.176200e-09	-3.460976e+01	-7.947076e+01
5.300000e-07	-4.946413e-06	-1.235994e-09	-3.446659e+01	-7.942926e+01
5.400000e-07	-4.925438e-06	-1.185974e-09	-3.432043e+01	-7.938904e+01
5.500000e-07	-4.904136e-06	-1.144801e-09	-3.417199e+01	-7.934970e+01
5.600000e-07	-4.882547e-06	-1.231968e-09	-3.402156e+01	-7.931081e+01
5.700000e-07	-4.860532e-06	-1.217599e-09	-3.386816e+01	-7.927194e+01
5.800000e-07	-4.838072e-06	-1.153893e-09	-3.371166e+01	-7.923260e+01
5.900000e-07	-4.815206e-06	-1.191425e-09	-3.355233e+01	-7.919234e+01
6.000000e-07	-4.792124e-06	-1.222691e-09	-3.339150e+01	-7.915068e+01
6.100000e-07	-4.768878e-06	-1.152190e-09	-3.322952e+01	-7.910712e+01
6.200000e-07	-4.745377e-06	-1.166070e-09	-3.306576e+01	-7.906120e+01
6.300000e-07	-4.721661e-06	-1.208685e-09	-3.290051e+01	-7.901244e+01
6.400000e-07	-4.697723e-06	-1.177628e-09	-3.273371e+01	-7.896039e+01
6.500000e-07	-4.673416e-06	-1.162201e-09	-3.256434e+01	-7.890461e+01
6.600000e-07	-4.648666e-06	-1.201615e-09	-3.239189e+01	-7.884470e+01
6.700000e-07	-4.623472e-06	-1.177660e-09	-3.221633e+01	-7.878025e+01
6.800000e-07	-4.597807e-06	-1.150606e-09	-3.203750e+01	-7.871093e+01
6.900000e-07	-4.571518e-06	-1.171396e-09	-3.185432e+01	-7.863640e+01
7.000000e-07	-4.544647e-06	-1.169160e-09	-3.166708e+01	-7.855639e+01
7.100000e-07	-4.517402e-06	-1.146595e-09	-3.147724e+01	-7.847067e+01
7.200000e-07	-4.489905e-06	-1.165764e-09	-3.128564e+01	-7.837904e+01
7.300000e-07	-4.462226e-06	-1.177896e-09	-3.109277e+01	-7.828135e+01
7.400000e-07	-4.434372e-06	-1.158031e-09	-3.089869e+01	-7.817751e+01
7.500000e-07	-4.406278e-06	-1.158118e-09	-3.070293e+01	-7.806748e+01
7.600000e-07	-4.377930e-06	-1.163005e-09	-3.050540e+01	-7.795124e+01
7.700000e-07	-4.349264e-06	-1.151827e-09	-3.030565e+01	-7.782886e+01
7.800000e-07	-4.320251e-06	-1.145189e-09	-3.010349e+01	-7.770044e+01
7.900000e-07	-4.291015e-06	-1.154222e-09	-2.989977e+01	-7.756612e+01
8.000000e-07	-4.261491e-06	-1.145309e-09	-2.969405e+01	-7.742611e+01
8.100000e-07	-4.231672e-06	-1.143695e-09	-2.948627e+01	-7.728064e+01
8.200000e-07	-4.201564e-06	-1.148386e-09	-2.927648e+01	-7.712999e+01
8.300000e-07	-4.171101e-06	-1.145064e-09	-2.906421e+01	-7.697447e+01
8.400000e-07	-4.140324e-06	-1.130602e-09	-2.884976e+01	-7.681445e+01
8.500000e-07	-4.109340e-06	-1.139753e-09	-2.863386e+01	-7.665029e+01
8.600000e-07	-4.078093e-06	-1.141772e-09	-2.841614e+01	-7.648240e+01
8.700000e-07	-4.046593e-06	-1.131837e-09	-2.819664e+01	-7.631120e+01
8.800000e-07	-4.014972e-06	-1.126190e-09	-2.797631e+01	-7.613713e+01
8.900000e-07	-3.983209e-06	-1.132867e-09	-2.775498e+01	-7.596063e+01
9.000000e-07	-3.951220e-06	-1.125667e-09	-2.753209e+01	-7.578215e+01
9.100000e-07	-3.918897e-06	-1.126441e-09	-2.730686e+01	-7.560213e+01
9.200000e-07	-3.886192e-06	-1.129883e-09	-2.707897e+01	-7.542101e+01
9.300000e-07	-3.853112e-06	-1.124391e-09	-2.684847e+01	-7.523920e+01
9.400000e-07	-3.819538e-06	-1.111101e-09	-2.661452e+01	-7.505710e+01
9.500000e-07	-3.785495e-06	-1.111685e-09	-2.637731e+01	-7.487510e+01
9.600000e-07	-3.751058e-06	-1.107715e-09	-2.613735e+01	-7.469353e+01
9.700000e-07	-3.716306e-06	-1.098963e-09	-2.589520e+01	-7.451270e+01
9.800000e-07	-3.681289e-06	-1.100614e-09	-2.565120e+01	-7.433288e+01
9.900000e-07	-3.645909e-06	-1.106960e-09	-2.540468e+01	-7.415430e+01
1.000000e-06	-3.610295e-06	-1.103903e-09	-2.515652e+01	-7.397713e+01
1.010000e-06	-3.574558e-06	-1.098198e-09	-2.490750e+01	-7.380151e+01
1.020000e-06	-3.538712e-06	-1.095829e-09	-2.465773e+01	-7.362749e+01
1.030000e-06	-3.502721e-06	-1.087036e-09	-2.440695e+01	-7.345512e+01
1.040000e-06	-3.466574e-06	-1.080666e-09	-2.415507e+01	-7.328435e+01
1.050000e-06	-3.430161e-06	-1.085039e-09	-2.390135e+01	-7.311510e+01
1.060000e-06	-3.393379e-06	-1.091228e-09	-2.364505e+01	-7.294722e+01
1.070000e-06	-3.356337e-06	-1.087675e-09	-2.338694e+01	-7.278050e+01
1.080000e-06	-3.319067e-06	-1.084920e-09	-2.312724e+01	-7.261470e+01
1.090000e-06	-3.281553e-06	-1.078184e-09	-2.286585e+01	-7.244952e+01
1.100000e-06	-3.243890e-06	-1.067431e-09	-2.260341e+01	-7.228459e+01
1.110000e-06	-3.206050e-06	-1.056848e-09	-2.233974e+01	-7.211953e+01
1.120000e-06	-3.167947e-06	-1.053769e-09	-2.207424e+01	-7.195389e+01
1.130000e-06	-3.129612e-06	-1.046957e-09	-2.180712e+01	-7.178719e+01
1.140000e-06	-3.091033e-06	-1.043433e-09	-2.153830e+01	-7.161894e+01
1.150000e-06	-3.052232e-06	-1.046158e-09	-2.126794e+01	-7.144858e+01
1.160000e-06	-3.013241e-06	-1.050592e-09	-2.099625e+01	-7.127557e+01
1.170000e-06	-2.973982e-06	-1.045767e-09	-2.072269e+01	-7.109933e+01
1.180000e-06	-2.934567e-06	-1.038582e-09	-2.044805e+01	-7.091928e+01
1.190000e-06	-2.895063e-06	-1.030506e-09	-2.017278e+01	-7.073483e+01
1.200000e-06	-2.855401e-06	-1.020950e-09	-1.989642e+01	-7.054539e+01
1.210000e-06	-2.815647e-06	-1.013461e-09	-1.961942e+01	-7.035039e+01
1.220000e-06	-2.775738e-06	-1.012295e-09	-1.934133e+01	-7.014926e+01
1.230000e-06	-2.735631e-06	-1.009393e-09	-1.906186e+01	-6.994145e+01
1.240000e-06	-2.695366e-06	-1.005851e-09	-1.878130e+01	-6.972645e+01
1.250000e-06	-2.654923e-06	-1.001856e-09	-1.849949e+01	-6.950376e+01
1.260000e-06	-2.614233e-06	-9.976352e-10	-1.821596e+01	-6.927293e+01
1.270000e-06	-2.573273e-06	-9.910398e-10	-1.793055e+01	-6.903354e+01
1.280000e-06	-2.532027e-06	-9.845856e-10	-1.764315e+01	-6.878521e+01
1.290000e-06	-2.490473e-06	-9.805704e-10	-1.735360e+01	-6.852762e+01
1.300000e-06	-2.448635e-06	-9.751900e-10	-1.706208e+01	-6.826046e+01
1.310000e-06	-2.406581e-06	-9.658263e-10	-1.676905e+01	-6.798351e+01
1.320000e-06	-2.364194e-06	-9.567923e-10	-1.647369e+01	-6.769659e+01
1.330000e-06	-2.321484e-06	-9.514273e-10	-1.617609e+01	-6.739955e+01
1.340000e-06	-2.278535e-06	-9.471086e-10	-1.587682e+01	-6.709230e+01
1.350000e-06	-2.235333e-06	-9.469692e-10	-1.557579e+01	-6.677481e+01
1.360000e-06	-2.192023e-06	-9.486203e-10	-1.527401e+01	-6.644707e+01
1.370000e-06	-2.148627e-06	-9.463707e-10	-1.497163e+01	-6.610915e+01
1.380000e-06	-2.105113e-06	-9.390508e-10	-1.466842e+01	-6.576111e+01
1.390000e-06	-2.061458e-06	-9.289261e-10	-1.436423e+01	-6.540309e+01
1.400000e-06	-2.017698e-06	-9.172424e-10	-1.405931e+01	-6.503523e+01
1.410000e-06	-1.973902e-06	-9.087987e-10	-1.375414e+01	-6.465770e+01
1.420000e-06	-1.930058e-06	-9.047632e-10	-1.344863e+01	-6.427071e+01
1.430000e-06	-1.886090e-06	-9.028630e-10	-1.314227e+01	-6.387445e+01
1.440000e-06	-1.842077e-06	-8.990369e-10	-1.283559e+01	-6.346913e+01
1.450000e-06	-1.797943e-06	-8.934549e-10	-1.252806e+01	-6.305495e+01
1.460000e-06	-1.753624e-06	-8.840255e-10	-1.221925e+01	-6.263213e+01
1.470000e-06	-1.709236e-06	-8.743543e-10	-1.190995e+01	-6.220082e+01
1.480000e-06	-1.664748e-06	-8.679844e-10	-1.159995e+01	-6.176119e+01
1.490000e-06	-1.620090e-06	-8.636367e-10	-1.128878e+01	-6.131335e+01
1.500000e-06	-1.575299e-06	-8.554521e-10	-1.097668e+01	-6.085738e+01
1.510000e-06	-1.530412e-06	-8.464365e-10	-1.066390e+01	-6.039332e+01
1.520000e-06	-1.485369e-06	-8.388002e-10	-1.035004e+01	-5.992113e+01
1.530000e-06	-1.440144e-06	-8.292845e-10	-1.003491e+01	-5.944074e+01
1.540000e-06	-1.394873e-06	-8.185244e-10	-9.719468e+00	-5.895198e+01
1.550000e-06	-1.349567e-06	-8.114357e-10	-9.403778e+00	-5.845465e+01
1.560000e-06	-1.304105e-06	-8.047585e-10	-9.086998e+00	-5.794842e+01
1.570000e-06	-1.258588e-06	-7.964136e-10	-8.769834e+00	-5.743293e+01
1.580000e-06	-1.212992e-06	-7.872621e-10	-8.452120e+00	-5.690769e+01
1.590000e-06	-1.167261e-06	-7.767186e-10	-8.133467e+00	-5.637216e+01
1.600000e-06	-1.121491e-06	-7.632419e-10	-7.814545e+00	-5.582570e+01
1.610000e-06	-1.075724e-06	-7.500979e-10	-7.495640e+00	-5.526757e+01
1.620000e-06	-1.029916e-06	-7.394020e-10	-7.176450e+00	-5.469696e+01
1.630000e-06	-9.840207e-07	-7.307040e-10	-6.856652e+00	-5.411296e+01
1.640000e-06	-9.380860e-07	-7.235737e-10	-6.536579e+00	-5.351459e+01
1.650000e-06	-8.921363e-07	-7.166320e-10	-6.216401e+00	-5.290078e+01
1.660000e-06	-8.460834e-07	-7.105756e-10	-5.895505e+00	-5.227041e+01
1.670000e-06	-7.998816e-07	-7.020098e-10	-5.573571e+00	-5.162225e+01
1.680000e-06	-7.536309e-07	-6.902270e-10	-5.251297e+00	-5.095506e+01
1.690000e-06	-7.074074e-07	-6.785104e-10	-4.929212e+00	-5.026751e+01
1.700000e-06	-6.611816e-07	-6.655731e-10	-4.607110e+00	-4.955824e+01
1.710000e-06	-6.148856e-07	-6.507474e-10	-4.284520e+00	-4.882586e+01
1.720000e-06	-5.685042e-07	-6.355850e-10	-3.961335e+00	-4.806895e+01
1.730000e-06	-5.221043e-07	-6.215034e-10	-3.638020e+00	-4.728607e+01
1.740000e-06	-4.756312e-07	-6.113069e-10	-3.314196e+00	-4.647580e+01
1.750000e-06	-4.291216e-07	-6.021669e-10	-2.990117e+00	-4.563671e+01
1.760000e-06	-3.826310e-07	-5.900153e-10	-2.666171e+00	-4.476740e+01
1.770000e-06	-3.359954e-07	-5.743477e-10	-2.341215e+00	-4.386653e+01
1.780000e-06	-2.892501e-07	-5.578753e-10	-2.015494e+00	-4.293277e+01
1.790000e-06	-2.424851e-07	-5.426118e-10	-1.689635e+00	-4.196488e+01
1.800000e-06	-1.957124e-07	-5.284009e-10	-1.363723e+00	-4.096168e+01
1.810000e-06	-1.489590e-07	-5.127418e-10	-1.037946e+00	-3.992208e+01
1.820000e-06	-1.021439e-07	-4.973383e-10	-7.117385e-01	-3.884511e+01
1.830000e-06	-5.536714e-08	-4.827159e-10	-3.857980e-01	-3.772987e+01
1.840000e-06	-8.614532e-09	-4.680743e-10	-6.002602e-02	-3.657563e+01
1.850000e-06	3.818055e-08	-4.523379e-10	2.660419e-01	-3.538175e+01
1.860000e-06	8.487381e-08	-4.369472e-10	5.914003e-01	-3.414777e+01
1.870000e-06	1.314379e-07	-4.211793e-10	9.158589e-01	-3.287334e+01
1.880000e-06	1.780852e-07	-4.037518e-10	1.240897e+00	-3.155832e+01
1.890000e-06	2.248727e-07	-3.831211e-10	1.566912e+00	-3.020268e+01
1.900000e-06	2.716027e-07	-3.605534e-10	1.892526e+00	-2.880661e+01
1.910000e-06	3.182674e-07	-3.387220e-10	2.217686e+00	-2.737044e+01
1.920000e-06	3.648946e-07	-3.167626e-10	2.542584e+00	-2.589470e+01
1.930000e-06	4.114297e-07	-2.945560e-10	2.866841e+00	-2.438009e+01
1.940000e-06	4.578734e-07	-2.738971e-10	3.190459e+00	-2.282749e+01
1.950000e-06	5.042892e-07	-2.533336e-10	3.513885e+00	-2.123796e+01
1.960000e-06	5.507142e-07	-2.304882e-10	3.837374e+00	-1.961274e+01
1.970000e-06	5.970900e-07	-2.076502e-10	4.160521e+00	-1.795324e+01
1.980000e-06	6.433899e-07	-1.851322e-10	4.483138e+00	-1.626103e+01
1.990000e-06	6.896361e-07	-1.609831e-10	4.805381e+00	-1.453787e+01
2.000000e-06	7.358327e-07	-1.345651e-10	5.127279e+00	-1.278565e+01
2.010000e-06	7.819846e-07	-1.088606e-10	5.448865e+00	-1.100640e+01
2.020000e-06	8.280857e-07	-8.195556e-11	5.770097e+00	-9.202296e+00
2.030000e-06	8.741343e-07	-5.377073e-11	6.090964e+00	-7.375646e+00
2.040000e-06	9.201970e-07	-2.853663e-11	6.411929e+00	-5.528860e+00
2.050000e-06	9.662018e-07	-5.612267e-12	6.732490e+00	-3.664448e+00
2.060000e-06	1.012087e-06	1.830560e-11	7.052218e+00	-1.785010e+00
2.070000e-06	1.057938e-06	4.290106e-11	7.371709e+00	1.067852e-01
2.080000e-06	1.103705e-06	6.725426e-11	7.690611e+00	2.008209e+00
2.090000e-06	1.149380e-06	9.311896e-11	8.008876e+00	3.916491e+00
2.100000e-06	1.195001e-06	1.214633e-10	8.326763e+00	5.828835e+00
2.110000e-06	1.240548e-06	1.502729e-10	8.644131e+00	7.742433e+00
2.120000e-06	1.285980e-06	1.778032e-10	8.960705e+00	9.654479e+00
2.130000e-06	1.331354e-06	2.038009e-10	9.276865e+00	1.156219e+01
2.140000e-06	1.376649e-06	2.274242e-10	9.592485e+00	1.346281e+01
2.150000e-06	1.421798e-06	2.479647e-10	9.907083e+00	1.535365e+01
2.160000e-06	1.466857e-06	2.680138e-10	1.022105e+01	1.723205e+01
2.170000e-06	1.511814e-06	2.886614e-10	1.053432e+01	1.909548e+01
2.180000e-06	1.556633e-06	3.115599e-10	1.084661e+01	2.094144e+01
2.190000e-06	1.601272e-06	3.366007e-10	1.115766e+01	2.276757e+01
2.200000e-06	1.645783e-06	3.630485e-10	1.146781e+01	2.457163e+01
2.210000e-06	1.690130e-06	3.919250e-10	1.177682e+01	2.635147e+01
2.220000e-06	1.734359e-06	4.185472e-10	1.208500e+01	2.810510e+01
2.230000e-06	1.778563e-06	4.407039e-10	1.239302e+01	2.983066e+01
2.240000e-06	1.822612e-06	4.603403e-10	1.269995e+01	3.152644e+01
2.250000e-06	1.866513e-06	4.767835e-10	1.300586e+01	3.319088e+01
2.260000e-06	1.910370e-06	4.937065e-10	1.331145e+01	3.482259e+01
2.270000e-06	1.954211e-06	5.145800e-10	1.361693e+01	3.642034e+01
2.280000e-06	1.997988e-06	5.375439e-10	1.392197e+01	3.798304e+01
2.290000e-06	2.041697e-06	5.600865e-10	1.422654e+01	3.950978e+01
2.300000e-06	2.085316e-06	5.825357e-10	1.453047e+01	4.099982e+01
2.310000e-06	2.128856e-06	6.032322e-10	1.483386e+01	4.245258e+01
2.320000e-06	2.172371e-06	6.190503e-10	1.513707e+01	4.386763e+01
2.330000e-06	2.215795e-06	6.316744e-10	1.543965e+01	4.524468e+01
2.340000e-06	2.259055e-06	6.444666e-10	1.574108e+01	4.658364e+01
2.350000e-06	2.302091e-06	6.600990e-10	1.604096e+01	4.788450e+01
2.360000e-06	2.344894e-06	6.782873e-10	1.633921e+01	4.914743e+01
2.370000e-06	2.387530e-06	6.976938e-10	1.663630e+01	5.037271e+01
2.380000e-06	2.429908e-06	7.161598e-10	1.693159e+01	5.156075e+01
2.390000e-06	2.471939e-06	7.318798e-10	1.722446e+01	5.271207e+01
2.400000e-06	2.513598e-06	7.455046e-10	1.751474e+01	5.382728e+01
2.410000e-06	2.554928e-06	7.585475e-10	1.780273e+01	5.490710e+01
2.420000e-06	2.595966e-06	7.705105e-10	1.808868e+01	5.595230e+01
2.430000e-06	2.636685e-06	7.837386e-10	1.837241e+01	5.696376e+01
2.440000e-06	2.677108e-06	7.997124e-10	1.865408e+01	5.794239e+01
2.450000e-06	2.717314e-06	8.163718e-10	1.893423e+01	5.888916e+01
2.460000e-06	2.757432e-06	8.320976e-10	1.921378e+01	5.980507e+01
2.470000e-06	2.797411e-06	8.444240e-10	1.949235e+01	6.069117e+01
2.480000e-06	2.837188e-06	8.534470e-10	1.976951e+01	6.154850e+01
2.490000e-06	2.876816e-06	8.611521e-10	2.004564e+01	6.237813e+01
2.500000e-06	2.916309e-06	8.691650e-10	2.032083e+01	6.318111e+01
2.510000e-06	2.955636e-06	8.824193e-10	2.059486e+01	6.395850e+01
2.520000e-06	2.994779e-06	8.964452e-10	2.086760e+01	6.471132e+01
2.530000e-06	3.033750e-06	9.111827e-10	2.113915e+01	6.544058e+01
2.540000e-06	3.072531e-06	9.268515e-10	2.140938e+01	6.614726e+01
2.550000e-06	3.111096e-06	9.380297e-10	2.167810e+01	6.683229e+01
2.560000e-06	3.149358e-06	9.451270e-10	2.194471e+01	6.749656e+01
2.570000e-06	3.187346e-06	9.504242e-10	2.220941e+01	6.814092e+01
2.580000e-06	3.225193e-06	9.554001e-10	2.247313e+01	6.876617e+01
2.590000e-06	3.262883e-06	9.613622e-10	2.273575e+01	6.937303e+01
2.600000e-06	3.300371e-06	9.724550e-10	2.299697e+01	6.996220e+01
2.610000e-06	3.337679e-06	9.869083e-10	2.325693e+01	7.053431e+01
2.620000e-06	3.374720e-06	1.002341e-09	2.351503e+01	7.108992e+01
2.630000e-06	3.411391e-06	1.013491e-09	2.377056e+01	7.162954e+01
2.640000e-06	3.447836e-06	1.019775e-09	2.402451e+01	7.215363e+01
2.650000e-06	3.484082e-06	1.024064e-09	2.427707e+01	7.266260e+01
2.660000e-06	3.520092e-06	1.026235e-09	2.452799e+01	7.315679e+01
2.670000e-06	3.555954e-06	1.028047e-09	2.477787e+01	7.363652e+01
2.680000e-06	3.591664e-06	1.031935e-09	2.502670e+01	7.410203e+01
2.690000e-06	3.627263e-06	1.040538e-09	2.527475e+01	7.455355e+01
2.700000e-06	3.662754e-06	1.052352e-09	2.552206e+01	7.499125e+01
2.710000e-06	3.698022e-06	1.061073e-09	2.576780e+01	7.541529e+01
2.720000e-06	3.733032e-06	1.067143e-09	2.601175e+01	7.582579e+01
2.730000e-06	3.767761e-06	1.071389e-09	2.625374e+01	7.622284e+01
2.740000e-06	3.802167e-06	1.073421e-09	2.649348e+01	7.660653e+01
2.750000e-06	3.836109e-06	1.074728e-09	2.672999e+01	7.697693e+01
2.760000e-06	3.869501e-06	1.078351e-09	2.696266e+01	7.733409e+01
2.770000e-06	3.902390e-06	1.084337e-09	2.719184e+01	7.767808e+01
2.780000e-06	3.934898e-06	1.090424e-09	2.741835e+01	7.800896e+01
2.790000e-06	3.967176e-06	1.096738e-09	2.764326e+01	7.832679e+01
2.800000e-06	3.999136e-06	1.103121e-09	2.786596e+01	7.863166e+01
2.810000e-06	4.030838e-06	1.107429e-09	2.808686e+01	7.892365e+01
2.820000e-06	4.062374e-06	1.108890e-09	2.830661e+01	7.920288e+01
2.830000e-06	4.093734e-06	1.111228e-09	2.852512e+01	7.946948e+01
2.840000e-06	4.124926e-06	1.114304e-09	2.874247e+01	7.972359e+01
2.850000e-06	4.155876e-06	1.117392e-09	2.895813e+01	7.996541e+01
2.860000e-06	4.186561e-06	1.121963e-09	2.917194e+01	8.019513e+01
2.870000e-06	4.216926e-06	1.127778e-09	2.938352e+01	8.041298e+01
2.880000e-06	4.246845e-06	1.131044e-09	2.959199e+01	8.061924e+01
2.890000e-06	4.276435e-06	1.131309e-09	2.979818e+01	8.081417e+01
2.900000e-06	4.305820e-06	1.132401e-09	3.000294e+01	8.099811e+01
