# Temperatura_=_-12.38
# Concentracion g/m^3_=_1620.0
# C_Vs_to_Am_M_A/Vsm_=_65563218390.804596
# pendiente_HvsI_1/m_=_3716.3
# ordenada_HvsI_A/m_=_1297.0
# frecuencia_Hz_=_135105.22116825372

Tiempo_(s)	Campo_(V.s)	Magnetizacion_(V.s)	Campo_(kA/m)	Magnetizacion_(A/m)
0.000000e+00	-5.518437e-06	-1.294170e-09	-3.836772e+01	-8.191087e+01
1.000000e-08	-5.518648e-06	-1.296233e-09	-3.836919e+01	-8.188654e+01
2.000000e-08	-5.518629e-06	-1.299962e-09	-3.836905e+01	-8.186186e+01
3.000000e-08	-5.518424e-06	-1.300403e-09	-3.836763e+01	-8.183665e+01
4.000000e-08	-5.517812e-06	-1.295037e-09	-3.836338e+01	-8.181073e+01
5.000000e-08	-5.516557e-06	-1.288024e-09	-3.835465e+01	-8.178392e+01
6.000000e-08	-5.514637e-06	-1.282703e-09	-3.834130e+01	-8.175602e+01
7.000000e-08	-5.512212e-06	-1.277919e-09	-3.832444e+01	-8.172681e+01
8.000000e-08	-5.509302e-06	-1.269193e-09	-3.830421e+01	-8.169608e+01
9.000000e-08	-5.505798e-06	-1.259143e-09	-3.827985e+01	-8.166364e+01
1.000000e-07	-5.501824e-06	-1.301936e-09	-3.825221e+01	-8.162926e+01
1.100000e-07	-5.497531e-06	-1.361321e-09	-3.822237e+01	-8.159275e+01
1.200000e-07	-5.492977e-06	-1.326769e-09	-3.819071e+01	-8.155392e+01
1.300000e-07	-5.488193e-06	-1.208479e-09	-3.815744e+01	-8.151258e+01
1.400000e-07	-5.483138e-06	-1.209711e-09	-3.812230e+01	-8.146858e+01
1.500000e-07	-5.477695e-06	-1.305811e-09	-3.808446e+01	-8.142176e+01
1.600000e-07	-5.471855e-06	-1.342108e-09	-3.804385e+01	-8.137199e+01
1.700000e-07	-5.465620e-06	-1.243081e-09	-3.800051e+01	-8.131918e+01
1.800000e-07	-5.458949e-06	-1.204145e-09	-3.795412e+01	-8.126324e+01
1.900000e-07	-5.451858e-06	-1.286532e-09	-3.790482e+01	-8.120411e+01
2.000000e-07	-5.444482e-06	-1.314384e-09	-3.785353e+01	-8.114177e+01
2.100000e-07	-5.436879e-06	-1.250721e-09	-3.780068e+01	-8.107621e+01
2.200000e-07	-5.428949e-06	-1.211402e-09	-3.774554e+01	-8.100748e+01
2.300000e-07	-5.420712e-06	-1.268792e-09	-3.768827e+01	-8.093564e+01
2.400000e-07	-5.412190e-06	-1.292215e-09	-3.762902e+01	-8.086076e+01
2.500000e-07	-5.403182e-06	-1.254530e-09	-3.756639e+01	-8.078298e+01
2.600000e-07	-5.393394e-06	-1.209415e-09	-3.749834e+01	-8.070245e+01
2.700000e-07	-5.382827e-06	-1.240387e-09	-3.742487e+01	-8.061934e+01
2.800000e-07	-5.371707e-06	-1.256629e-09	-3.734756e+01	-8.053385e+01
2.900000e-07	-5.360228e-06	-1.243502e-09	-3.726775e+01	-8.044622e+01
3.000000e-07	-5.348385e-06	-1.219642e-09	-3.718541e+01	-8.035670e+01
3.100000e-07	-5.336186e-06	-1.242604e-09	-3.710060e+01	-8.026555e+01
3.200000e-07	-5.323626e-06	-1.252755e-09	-3.701327e+01	-8.017306e+01
3.300000e-07	-5.310544e-06	-1.228026e-09	-3.692231e+01	-8.007954e+01
3.400000e-07	-5.296984e-06	-1.202694e-09	-3.682804e+01	-7.998530e+01
3.500000e-07	-5.283136e-06	-1.229739e-09	-3.673176e+01	-7.989065e+01
3.600000e-07	-5.268912e-06	-1.246409e-09	-3.663286e+01	-7.979592e+01
3.700000e-07	-5.254218e-06	-1.217107e-09	-3.653070e+01	-7.970142e+01
3.800000e-07	-5.239096e-06	-1.213632e-09	-3.642556e+01	-7.960749e+01
3.900000e-07	-5.223479e-06	-1.242038e-09	-3.631699e+01	-7.951443e+01
4.000000e-07	-5.207245e-06	-1.216436e-09	-3.620411e+01	-7.942254e+01
4.100000e-07	-5.190489e-06	-1.183983e-09	-3.608762e+01	-7.933210e+01
4.200000e-07	-5.173444e-06	-1.240219e-09	-3.596911e+01	-7.924339e+01
4.300000e-07	-5.156162e-06	-1.260241e-09	-3.584895e+01	-7.915664e+01
4.400000e-07	-5.138613e-06	-1.197735e-09	-3.572694e+01	-7.907208e+01
4.500000e-07	-5.120728e-06	-1.202450e-09	-3.560260e+01	-7.898991e+01
4.600000e-07	-5.102408e-06	-1.269754e-09	-3.547522e+01	-7.891028e+01
4.700000e-07	-5.083682e-06	-1.216559e-09	-3.534502e+01	-7.883332e+01
4.800000e-07	-5.064581e-06	-1.170114e-09	-3.521222e+01	-7.875914e+01
4.900000e-07	-5.045108e-06	-1.237166e-09	-3.507684e+01	-7.868779e+01
5.000000e-07	-5.025422e-06	-1.249422e-09	-3.493996e+01	-7.861930e+01
5.100000e-07	-5.005481e-06	-1.173199e-09	-3.480132e+01	-7.855365e+01
5.200000e-07	-4.985257e-06	-1.208758e-09	-3.466071e+01	-7.849080e+01
5.300000e-07	-4.964753e-06	-1.250597e-09	-3.451815e+01	-7.843066e+01
5.400000e-07	-4.943918e-06	-1.185893e-09	-3.437330e+01	-7.837310e+01
5.500000e-07	-4.922730e-06	-1.176975e-09	-3.422598e+01	-7.831796e+01
5.600000e-07	-4.901192e-06	-1.248149e-09	-3.407623e+01	-7.826505e+01
5.700000e-07	-4.879333e-06	-1.213122e-09	-3.392426e+01	-7.821415e+01
5.800000e-07	-4.857078e-06	-1.172306e-09	-3.376953e+01	-7.816499e+01
5.900000e-07	-4.834445e-06	-1.228556e-09	-3.361217e+01	-7.811730e+01
6.000000e-07	-4.811504e-06	-1.233791e-09	-3.345267e+01	-7.807077e+01
6.100000e-07	-4.788234e-06	-1.171670e-09	-3.329088e+01	-7.802506e+01
6.200000e-07	-4.764733e-06	-1.191905e-09	-3.312749e+01	-7.797983e+01
6.300000e-07	-4.741035e-06	-1.219209e-09	-3.296272e+01	-7.793472e+01
6.400000e-07	-4.717122e-06	-1.182425e-09	-3.279647e+01	-7.788936e+01
6.500000e-07	-4.692998e-06	-1.186097e-09	-3.262873e+01	-7.784338e+01
6.600000e-07	-4.668476e-06	-1.219518e-09	-3.245825e+01	-7.779638e+01
6.700000e-07	-4.643443e-06	-1.196716e-09	-3.228420e+01	-7.774800e+01
6.800000e-07	-4.617943e-06	-1.177062e-09	-3.210691e+01	-7.769786e+01
6.900000e-07	-4.591876e-06	-1.195677e-09	-3.192567e+01	-7.764560e+01
7.000000e-07	-4.565260e-06	-1.182718e-09	-3.174062e+01	-7.759087e+01
7.100000e-07	-4.538157e-06	-1.161697e-09	-3.155218e+01	-7.753334e+01
7.200000e-07	-4.510653e-06	-1.175903e-09	-3.136096e+01	-7.747270e+01
7.300000e-07	-4.482923e-06	-1.186602e-09	-3.116816e+01	-7.740865e+01
7.400000e-07	-4.455031e-06	-1.174357e-09	-3.097424e+01	-7.734094e+01
7.500000e-07	-4.426991e-06	-1.176056e-09	-3.077929e+01	-7.726933e+01
7.600000e-07	-4.398765e-06	-1.176689e-09	-3.058304e+01	-7.719363e+01
7.700000e-07	-4.370295e-06	-1.168772e-09	-3.038510e+01	-7.711365e+01
7.800000e-07	-4.341465e-06	-1.164274e-09	-3.018466e+01	-7.702927e+01
7.900000e-07	-4.312269e-06	-1.165574e-09	-2.998167e+01	-7.694039e+01
8.000000e-07	-4.282747e-06	-1.158083e-09	-2.977641e+01	-7.684693e+01
8.100000e-07	-4.252977e-06	-1.158515e-09	-2.956943e+01	-7.674887e+01
8.200000e-07	-4.222977e-06	-1.159803e-09	-2.936085e+01	-7.664620e+01
8.300000e-07	-4.192668e-06	-1.154484e-09	-2.915012e+01	-7.653898e+01
8.400000e-07	-4.162000e-06	-1.148585e-09	-2.893690e+01	-7.642725e+01
8.500000e-07	-4.131029e-06	-1.155603e-09	-2.872157e+01	-7.631113e+01
8.600000e-07	-4.099795e-06	-1.156243e-09	-2.850441e+01	-7.619074e+01
8.700000e-07	-4.068307e-06	-1.149200e-09	-2.828549e+01	-7.606624e+01
8.800000e-07	-4.036693e-06	-1.146410e-09	-2.806569e+01	-7.593779e+01
8.900000e-07	-4.004972e-06	-1.143884e-09	-2.784514e+01	-7.580560e+01
9.000000e-07	-3.973056e-06	-1.133429e-09	-2.762324e+01	-7.566987e+01
9.100000e-07	-3.940889e-06	-1.131421e-09	-2.739959e+01	-7.553083e+01
9.200000e-07	-3.908385e-06	-1.132490e-09	-2.717360e+01	-7.538872e+01
9.300000e-07	-3.875359e-06	-1.125988e-09	-2.694398e+01	-7.524376e+01
9.400000e-07	-3.841897e-06	-1.123023e-09	-2.671134e+01	-7.509620e+01
9.500000e-07	-3.808036e-06	-1.127250e-09	-2.647591e+01	-7.494628e+01
9.600000e-07	-3.773580e-06	-1.121417e-09	-2.623636e+01	-7.479421e+01
9.700000e-07	-3.738669e-06	-1.107270e-09	-2.599363e+01	-7.464022e+01
9.800000e-07	-3.703470e-06	-1.103169e-09	-2.574890e+01	-7.448451e+01
9.900000e-07	-3.668037e-06	-1.101147e-09	-2.550255e+01	-7.432727e+01
1.000000e-06	-3.632422e-06	-1.094660e-09	-2.525493e+01	-7.416865e+01
1.010000e-06	-3.596684e-06	-1.092410e-09	-2.500646e+01	-7.400879e+01
1.020000e-06	-3.560837e-06	-1.096269e-09	-2.475723e+01	-7.384781e+01
1.030000e-06	-3.524841e-06	-1.091288e-09	-2.450696e+01	-7.368580e+01
1.040000e-06	-3.488688e-06	-1.086966e-09	-2.425560e+01	-7.352279e+01
1.050000e-06	-3.452391e-06	-1.089377e-09	-2.400324e+01	-7.335880e+01
1.060000e-06	-3.415846e-06	-1.089732e-09	-2.374916e+01	-7.319384e+01
1.070000e-06	-3.378975e-06	-1.081090e-09	-2.349281e+01	-7.302783e+01
1.080000e-06	-3.341784e-06	-1.075563e-09	-2.323423e+01	-7.286071e+01
1.090000e-06	-3.304308e-06	-1.070961e-09	-2.297367e+01	-7.269234e+01
1.100000e-06	-3.266669e-06	-1.063499e-09	-2.271198e+01	-7.252259e+01
1.110000e-06	-3.228828e-06	-1.057751e-09	-2.244889e+01	-7.235126e+01
1.120000e-06	-3.190727e-06	-1.055968e-09	-2.218398e+01	-7.217814e+01
1.130000e-06	-3.152392e-06	-1.048636e-09	-2.191746e+01	-7.200299e+01
1.140000e-06	-3.113773e-06	-1.043249e-09	-2.164895e+01	-7.182554e+01
1.150000e-06	-3.074948e-06	-1.044598e-09	-2.137902e+01	-7.164550e+01
1.160000e-06	-3.036030e-06	-1.045446e-09	-2.110843e+01	-7.146256e+01
1.170000e-06	-2.996973e-06	-1.040773e-09	-2.083688e+01	-7.127638e+01
1.180000e-06	-2.957693e-06	-1.036994e-09	-2.056378e+01	-7.108662e+01
1.190000e-06	-2.918155e-06	-1.034207e-09	-2.028889e+01	-7.089293e+01
1.200000e-06	-2.878419e-06	-1.029762e-09	-2.001262e+01	-7.069496e+01
1.210000e-06	-2.838520e-06	-1.025088e-09	-1.973521e+01	-7.049234e+01
1.220000e-06	-2.798538e-06	-1.022392e-09	-1.945723e+01	-7.028471e+01
1.230000e-06	-2.758497e-06	-1.017764e-09	-1.917884e+01	-7.007173e+01
1.240000e-06	-2.718287e-06	-1.010388e-09	-1.889928e+01	-6.985305e+01
1.250000e-06	-2.677864e-06	-1.005491e-09	-1.861823e+01	-6.962833e+01
1.260000e-06	-2.637207e-06	-1.001683e-09	-1.833556e+01	-6.939727e+01
1.270000e-06	-2.596262e-06	-9.978241e-10	-1.805088e+01	-6.915956e+01
1.280000e-06	-2.555084e-06	-9.932870e-10	-1.776459e+01	-6.891494e+01
1.290000e-06	-2.513646e-06	-9.899504e-10	-1.747648e+01	-6.866315e+01
1.300000e-06	-2.471924e-06	-9.838760e-10	-1.718640e+01	-6.840398e+01
1.310000e-06	-2.429918e-06	-9.764700e-10	-1.689435e+01	-6.813721e+01
1.320000e-06	-2.387575e-06	-9.695988e-10	-1.659996e+01	-6.786269e+01
1.330000e-06	-2.344934e-06	-9.632698e-10	-1.630349e+01	-6.758027e+01
1.340000e-06	-2.302058e-06	-9.582568e-10	-1.600539e+01	-6.728984e+01
1.350000e-06	-2.258977e-06	-9.576826e-10	-1.570586e+01	-6.699131e+01
1.360000e-06	-2.215679e-06	-9.599680e-10	-1.540483e+01	-6.668461e+01
1.370000e-06	-2.172192e-06	-9.603454e-10	-1.510248e+01	-6.636973e+01
1.380000e-06	-2.128547e-06	-9.558219e-10	-1.479903e+01	-6.604662e+01
1.390000e-06	-2.084831e-06	-9.479867e-10	-1.449509e+01	-6.571531e+01
1.400000e-06	-2.041048e-06	-9.352473e-10	-1.419067e+01	-6.537580e+01
1.410000e-06	-1.997148e-06	-9.241240e-10	-1.388545e+01	-6.502813e+01
1.420000e-06	-1.953199e-06	-9.169623e-10	-1.357990e+01	-6.467233e+01
1.430000e-06	-1.909202e-06	-9.116548e-10	-1.327400e+01	-6.430843e+01
1.440000e-06	-1.865158e-06	-9.075500e-10	-1.296778e+01	-6.393647e+01
1.450000e-06	-1.821031e-06	-9.034782e-10	-1.266098e+01	-6.355648e+01
1.460000e-06	-1.776702e-06	-8.997830e-10	-1.235278e+01	-6.316846e+01
1.470000e-06	-1.732206e-06	-8.915522e-10	-1.204341e+01	-6.277239e+01
1.480000e-06	-1.687633e-06	-8.817063e-10	-1.173351e+01	-6.236826e+01
1.490000e-06	-1.642945e-06	-8.748991e-10	-1.142281e+01	-6.195599e+01
1.500000e-06	-1.598045e-06	-8.670889e-10	-1.111064e+01	-6.153547e+01
1.510000e-06	-1.552929e-06	-8.582563e-10	-1.079696e+01	-6.110655e+01
1.520000e-06	-1.507773e-06	-8.495094e-10	-1.048301e+01	-6.066905e+01
1.530000e-06	-1.462607e-06	-8.422687e-10	-1.016899e+01	-6.022271e+01
1.540000e-06	-1.417333e-06	-8.339018e-10	-9.854212e+00	-5.976722e+01
1.550000e-06	-1.371903e-06	-8.275561e-10	-9.538354e+00	-5.930222e+01
1.560000e-06	-1.326399e-06	-8.220908e-10	-9.221978e+00	-5.882728e+01
1.570000e-06	-1.280835e-06	-8.133768e-10	-8.905187e+00	-5.834188e+01
1.580000e-06	-1.235167e-06	-8.036746e-10	-8.587673e+00	-5.784547e+01
1.590000e-06	-1.189470e-06	-7.938014e-10	-8.269963e+00	-5.733739e+01
1.600000e-06	-1.143702e-06	-7.811996e-10	-7.951754e+00	-5.681693e+01
1.610000e-06	-1.097835e-06	-7.672218e-10	-7.632852e+00	-5.628330e+01
1.620000e-06	-1.051927e-06	-7.553548e-10	-7.313671e+00	-5.573563e+01
1.630000e-06	-1.005965e-06	-7.437050e-10	-6.994112e+00	-5.517301e+01
1.640000e-06	-9.599346e-07	-7.346642e-10	-6.674082e+00	-5.459441e+01
1.650000e-06	-9.138152e-07	-7.284199e-10	-6.353431e+00	-5.399879e+01
1.660000e-06	-8.676187e-07	-7.225224e-10	-6.032243e+00	-5.338502e+01
1.670000e-06	-8.214061e-07	-7.149762e-10	-5.710943e+00	-5.275192e+01
1.680000e-06	-7.751290e-07	-7.042960e-10	-5.389195e+00	-5.209827e+01
1.690000e-06	-7.288192e-07	-6.906984e-10	-5.067219e+00	-5.142280e+01
1.700000e-06	-6.824383e-07	-6.764842e-10	-4.744750e+00	-5.072421e+01
1.710000e-06	-6.359922e-07	-6.607322e-10	-4.421827e+00	-5.000118e+01
1.720000e-06	-5.894878e-07	-6.442605e-10	-4.098498e+00	-4.925236e+01
1.730000e-06	-5.429123e-07	-6.301490e-10	-3.774675e+00	-4.847642e+01
1.740000e-06	-4.963842e-07	-6.203264e-10	-3.451182e+00	-4.767201e+01
1.750000e-06	-4.498475e-07	-6.117351e-10	-3.127629e+00	-4.683780e+01
1.760000e-06	-4.032611e-07	-6.021573e-10	-2.803731e+00	-4.597249e+01
1.770000e-06	-3.566272e-07	-5.892970e-10	-2.479502e+00	-4.507482e+01
1.780000e-06	-3.099115e-07	-5.721150e-10	-2.154704e+00	-4.414358e+01
1.790000e-06	-2.630683e-07	-5.542539e-10	-1.829020e+00	-4.317762e+01
1.800000e-06	-2.161532e-07	-5.390413e-10	-1.502836e+00	-4.217584e+01
1.810000e-06	-1.692920e-07	-5.250481e-10	-1.177027e+00	-4.113726e+01
1.820000e-06	-1.225095e-07	-5.110745e-10	-8.517647e-01	-4.006097e+01
1.830000e-06	-7.585443e-08	-4.990957e-10	-5.273888e-01	-3.894617e+01
1.840000e-06	-2.918183e-08	-4.881034e-10	-2.028909e-01	-3.779219e+01
1.850000e-06	1.758138e-08	-4.741908e-10	1.222371e-01	-3.659845e+01
1.860000e-06	6.434705e-08	-4.576304e-10	4.473821e-01	-3.536454e+01
1.870000e-06	1.111413e-07	-4.389152e-10	7.727254e-01	-3.409018e+01
1.880000e-06	1.579073e-07	-4.200716e-10	1.097873e+00	-3.277523e+01
1.890000e-06	2.045884e-07	-4.019483e-10	1.422430e+00	-3.141971e+01
1.900000e-06	2.513100e-07	-3.830330e-10	1.747268e+00	-3.002382e+01
1.910000e-06	2.980670e-07	-3.634349e-10	2.072354e+00	-2.858790e+01
1.920000e-06	3.447469e-07	-3.428869e-10	2.396902e+00	-2.711246e+01
1.930000e-06	3.914609e-07	-3.214693e-10	2.721688e+00	-2.559820e+01
1.940000e-06	4.381950e-07	-2.997768e-10	3.046613e+00	-2.404598e+01
1.950000e-06	4.848029e-07	-2.790052e-10	3.370661e+00	-2.245682e+01
1.960000e-06	5.313142e-07	-2.579535e-10	3.694038e+00	-2.083194e+01
1.970000e-06	5.778207e-07	-2.359518e-10	4.017381e+00	-1.917268e+01
1.980000e-06	6.243065e-07	-2.139867e-10	4.340580e+00	-1.748058e+01
1.990000e-06	6.707102e-07	-1.918485e-10	4.663208e+00	-1.575733e+01
2.000000e-06	7.170203e-07	-1.678572e-10	4.985186e+00	-1.400476e+01
2.010000e-06	7.632863e-07	-1.412416e-10	5.306857e+00	-1.222484e+01
2.020000e-06	8.095673e-07	-1.123454e-10	5.628632e+00	-1.041968e+01
2.030000e-06	8.558257e-07	-8.341530e-11	5.950251e+00	-8.591520e+00
2.040000e-06	9.020115e-07	-5.501215e-11	6.271363e+00	-6.742697e+00
2.050000e-06	9.480164e-07	-2.864497e-11	6.591220e+00	-4.875660e+00
2.060000e-06	9.938662e-07	-5.361530e-12	6.909996e+00	-2.992943e+00
2.070000e-06	1.039815e-06	1.719523e-11	7.229463e+00	-1.097155e+00
2.080000e-06	1.085807e-06	4.210538e-11	7.549227e+00	8.090325e-01
2.090000e-06	1.131636e-06	6.999494e-11	7.867859e+00	2.722901e+00
2.100000e-06	1.177343e-06	9.991550e-11	8.185648e+00	4.641697e+00
2.110000e-06	1.223035e-06	1.294323e-10	8.503329e+00	6.562651e+00
2.120000e-06	1.268652e-06	1.562854e-10	8.820487e+00	8.482989e+00
2.130000e-06	1.314148e-06	1.818573e-10	9.136804e+00	1.039995e+01
2.140000e-06	1.359480e-06	2.081889e-10	9.451979e+00	1.231079e+01
2.150000e-06	1.404677e-06	2.327355e-10	9.766220e+00	1.421281e+01
2.160000e-06	1.449854e-06	2.551219e-10	1.008032e+01	1.610337e+01
2.170000e-06	1.495011e-06	2.788187e-10	1.039428e+01	1.797990e+01
2.180000e-06	1.540059e-06	3.045856e-10	1.070748e+01	1.983990e+01
2.190000e-06	1.584883e-06	3.324973e-10	1.101913e+01	2.168096e+01
2.200000e-06	1.629559e-06	3.600436e-10	1.132974e+01	2.350078e+01
2.210000e-06	1.674158e-06	3.869718e-10	1.163983e+01	2.529719e+01
2.220000e-06	1.718654e-06	4.144384e-10	1.194919e+01	2.706811e+01
2.230000e-06	1.763020e-06	4.400348e-10	1.225765e+01	2.881162e+01
2.240000e-06	1.807226e-06	4.618864e-10	1.256500e+01	3.052593e+01
2.250000e-06	1.851307e-06	4.801889e-10	1.287147e+01	3.220940e+01
2.260000e-06	1.895305e-06	4.966083e-10	1.317738e+01	3.386054e+01
2.270000e-06	1.939300e-06	5.134905e-10	1.348326e+01	3.547802e+01
2.280000e-06	1.983287e-06	5.345550e-10	1.378908e+01	3.706067e+01
2.290000e-06	2.027129e-06	5.589963e-10	1.409390e+01	3.860746e+01
2.300000e-06	2.070904e-06	5.846328e-10	1.439826e+01	4.011754e+01
2.310000e-06	2.114668e-06	6.099982e-10	1.470253e+01	4.159023e+01
2.320000e-06	2.158331e-06	6.299946e-10	1.500610e+01	4.302499e+01
2.330000e-06	2.201862e-06	6.428951e-10	1.530876e+01	4.442143e+01
2.340000e-06	2.245191e-06	6.544874e-10	1.561001e+01	4.577934e+01
2.350000e-06	2.288250e-06	6.693638e-10	1.590939e+01	4.709862e+01
2.360000e-06	2.331111e-06	6.861511e-10	1.620738e+01	4.837934e+01
2.370000e-06	2.373845e-06	7.049834e-10	1.650450e+01	4.962169e+01
2.380000e-06	2.416362e-06	7.261504e-10	1.680010e+01	5.082599e+01
2.390000e-06	2.458550e-06	7.462167e-10	1.709342e+01	5.199267e+01
2.400000e-06	2.500401e-06	7.622326e-10	1.738440e+01	5.312229e+01
2.410000e-06	2.541893e-06	7.747942e-10	1.767287e+01	5.421547e+01
2.420000e-06	2.583062e-06	7.860131e-10	1.795911e+01	5.527296e+01
2.430000e-06	2.623989e-06	7.981400e-10	1.824366e+01	5.629557e+01
2.440000e-06	2.664681e-06	8.130835e-10	1.852658e+01	5.728418e+01
2.450000e-06	2.705113e-06	8.290808e-10	1.880769e+01	5.823973e+01
2.460000e-06	2.745329e-06	8.436962e-10	1.908729e+01	5.916320e+01
2.470000e-06	2.785415e-06	8.562543e-10	1.936599e+01	6.005563e+01
2.480000e-06	2.825366e-06	8.669509e-10	1.964376e+01	6.091807e+01
2.490000e-06	2.865187e-06	8.770753e-10	1.992062e+01	6.175158e+01
2.500000e-06	2.904907e-06	8.860361e-10	2.019678e+01	6.255725e+01
2.510000e-06	2.944472e-06	8.977513e-10	2.047186e+01	6.333616e+01
2.520000e-06	2.983876e-06	9.116577e-10	2.074582e+01	6.408937e+01
2.530000e-06	3.023126e-06	9.249740e-10	2.101871e+01	6.481794e+01
2.540000e-06	3.062151e-06	9.397325e-10	2.129004e+01	6.552288e+01
2.550000e-06	3.100932e-06	9.524482e-10	2.155967e+01	6.620521e+01
2.560000e-06	3.139514e-06	9.592377e-10	2.182792e+01	6.686586e+01
2.570000e-06	3.177865e-06	9.620910e-10	2.209456e+01	6.750577e+01
2.580000e-06	3.215966e-06	9.661619e-10	2.235947e+01	6.812579e+01
2.590000e-06	3.253837e-06	9.727674e-10	2.262276e+01	6.872675e+01
2.600000e-06	3.291480e-06	9.821273e-10	2.288448e+01	6.930940e+01
2.610000e-06	3.328915e-06	9.945969e-10	2.314475e+01	6.987446e+01
2.620000e-06	3.366131e-06	1.008963e-09	2.340351e+01	7.042258e+01
2.630000e-06	3.403169e-06	1.021710e-09	2.366102e+01	7.095435e+01
2.640000e-06	3.439983e-06	1.029098e-09	2.391697e+01	7.147031e+01
2.650000e-06	3.476449e-06	1.033680e-09	2.417051e+01	7.197094e+01
2.660000e-06	3.512661e-06	1.036467e-09	2.442227e+01	7.245668e+01
2.670000e-06	3.548716e-06	1.038329e-09	2.467295e+01	7.292789e+01
2.680000e-06	3.584637e-06	1.042605e-09	2.492270e+01	7.338491e+01
2.690000e-06	3.620458e-06	1.050848e-09	2.517175e+01	7.382802e+01
2.700000e-06	3.656156e-06	1.061472e-09	2.541995e+01	7.425746e+01
2.710000e-06	3.691666e-06	1.069992e-09	2.566684e+01	7.467343e+01
2.720000e-06	3.726880e-06	1.075636e-09	2.591167e+01	7.507610e+01
2.730000e-06	3.761715e-06	1.079899e-09	2.615386e+01	7.546562e+01
2.740000e-06	3.796227e-06	1.082552e-09	2.639381e+01	7.584209e+01
2.750000e-06	3.830262e-06	1.084696e-09	2.663044e+01	7.620561e+01
2.760000e-06	3.863745e-06	1.088490e-09	2.686324e+01	7.655628e+01
2.770000e-06	3.896776e-06	1.094554e-09	2.709289e+01	7.689416e+01
2.780000e-06	3.929395e-06	1.101833e-09	2.731968e+01	7.721931e+01
2.790000e-06	3.961711e-06	1.109705e-09	2.754436e+01	7.753183e+01
2.800000e-06	3.993781e-06	1.116635e-09	2.776734e+01	7.783176e+01
2.810000e-06	4.025669e-06	1.121189e-09	2.798904e+01	7.811920e+01
2.820000e-06	4.057409e-06	1.124841e-09	2.820971e+01	7.839425e+01
2.830000e-06	4.089000e-06	1.128534e-09	2.842936e+01	7.865700e+01
2.840000e-06	4.120445e-06	1.132508e-09	2.864798e+01	7.890759e+01
2.850000e-06	4.151614e-06	1.136155e-09	2.886469e+01	7.914617e+01
2.860000e-06	4.182403e-06	1.140688e-09	2.907875e+01	7.937291e+01
2.870000e-06	4.212825e-06	1.146880e-09	2.929027e+01	7.958801e+01
2.880000e-06	4.242904e-06	1.151800e-09	2.949940e+01	7.979168e+01
2.890000e-06	4.272729e-06	1.154655e-09	2.970676e+01	7.998417e+01
2.900000e-06	4.302304e-06	1.158182e-09	2.991238e+01	8.016577e+01
