# Temperatura_=_11.19
# Concentracion g/m^3_=_1620.0
# C_Vs_to_Am_M_A/Vsm_=_65563218390.804596
# pendiente_HvsI_1/m_=_3716.3
# ordenada_HvsI_A/m_=_1297.0
# frecuencia_Hz_=_135108.32263368845

Tiempo_(s)	Campo_(V.s)	Magnetizacion_(V.s)	Campo_(kA/m)	Magnetizacion_(A/m)
0.000000e+00	-5.534118e-06	-1.722478e-09	-3.836734e+01	-1.128819e+02
1.000000e-08	-5.534331e-06	-1.722419e-09	-3.836882e+01	-1.128344e+02
2.000000e-08	-5.534376e-06	-1.723613e-09	-3.836913e+01	-1.127870e+02
3.000000e-08	-5.534121e-06	-1.724774e-09	-3.836737e+01	-1.127397e+02
4.000000e-08	-5.533346e-06	-1.726325e-09	-3.836199e+01	-1.126924e+02
5.000000e-08	-5.532070e-06	-1.722514e-09	-3.835314e+01	-1.126450e+02
6.000000e-08	-5.530254e-06	-1.704909e-09	-3.834055e+01	-1.125973e+02
7.000000e-08	-5.527673e-06	-1.686007e-09	-3.832266e+01	-1.125491e+02
8.000000e-08	-5.524466e-06	-1.706381e-09	-3.830042e+01	-1.125001e+02
9.000000e-08	-5.520824e-06	-1.769121e-09	-3.827517e+01	-1.124502e+02
1.000000e-07	-5.516729e-06	-1.819293e-09	-3.824678e+01	-1.123991e+02
1.100000e-07	-5.512303e-06	-1.773145e-09	-3.821610e+01	-1.123464e+02
1.200000e-07	-5.507675e-06	-1.657208e-09	-3.818402e+01	-1.122919e+02
1.300000e-07	-5.502855e-06	-1.642731e-09	-3.815060e+01	-1.122352e+02
1.400000e-07	-5.497681e-06	-1.719915e-09	-3.811473e+01	-1.121761e+02
1.500000e-07	-5.492087e-06	-1.743657e-09	-3.807594e+01	-1.121141e+02
1.600000e-07	-5.486196e-06	-1.687663e-09	-3.803510e+01	-1.120491e+02
1.700000e-07	-5.479936e-06	-1.657291e-09	-3.799170e+01	-1.119807e+02
1.800000e-07	-5.473249e-06	-1.735187e-09	-3.794535e+01	-1.119086e+02
1.900000e-07	-5.466110e-06	-1.748323e-09	-3.789585e+01	-1.118325e+02
2.000000e-07	-5.458556e-06	-1.694889e-09	-3.784348e+01	-1.117521e+02
2.100000e-07	-5.450745e-06	-1.649309e-09	-3.778933e+01	-1.116673e+02
2.200000e-07	-5.442734e-06	-1.710234e-09	-3.773379e+01	-1.115778e+02
2.300000e-07	-5.434526e-06	-1.742615e-09	-3.767688e+01	-1.114834e+02
2.400000e-07	-5.425931e-06	-1.721023e-09	-3.761729e+01	-1.113840e+02
2.500000e-07	-5.416623e-06	-1.678821e-09	-3.755277e+01	-1.112795e+02
2.600000e-07	-5.406499e-06	-1.682539e-09	-3.748258e+01	-1.111696e+02
2.700000e-07	-5.395695e-06	-1.696464e-09	-3.740767e+01	-1.110545e+02
2.800000e-07	-5.384517e-06	-1.692458e-09	-3.733017e+01	-1.109340e+02
2.900000e-07	-5.372946e-06	-1.684445e-09	-3.724996e+01	-1.108082e+02
3.000000e-07	-5.360952e-06	-1.684635e-09	-3.716680e+01	-1.106771e+02
3.100000e-07	-5.348670e-06	-1.689478e-09	-3.708166e+01	-1.105407e+02
3.200000e-07	-5.335921e-06	-1.656850e-09	-3.699326e+01	-1.103993e+02
3.300000e-07	-5.322666e-06	-1.643609e-09	-3.690137e+01	-1.102528e+02
3.400000e-07	-5.309089e-06	-1.648596e-09	-3.680725e+01	-1.101014e+02
3.500000e-07	-5.295200e-06	-1.680904e-09	-3.671096e+01	-1.099453e+02
3.600000e-07	-5.280793e-06	-1.670330e-09	-3.661107e+01	-1.097848e+02
3.700000e-07	-5.265821e-06	-1.669293e-09	-3.650727e+01	-1.096199e+02
3.800000e-07	-5.250431e-06	-1.666667e-09	-3.640058e+01	-1.094510e+02
3.900000e-07	-5.234467e-06	-1.658591e-09	-3.628990e+01	-1.092783e+02
4.000000e-07	-5.217888e-06	-1.628046e-09	-3.617496e+01	-1.091019e+02
4.100000e-07	-5.201055e-06	-1.647480e-09	-3.605826e+01	-1.089222e+02
4.200000e-07	-5.184019e-06	-1.664011e-09	-3.594015e+01	-1.087393e+02
4.300000e-07	-5.166640e-06	-1.647157e-09	-3.581966e+01	-1.085535e+02
4.400000e-07	-5.148932e-06	-1.639738e-09	-3.569689e+01	-1.083651e+02
4.500000e-07	-5.130939e-06	-1.683715e-09	-3.557215e+01	-1.081741e+02
4.600000e-07	-5.112517e-06	-1.666014e-09	-3.544444e+01	-1.079809e+02
4.700000e-07	-5.093537e-06	-1.611173e-09	-3.531285e+01	-1.077856e+02
4.800000e-07	-5.074218e-06	-1.623642e-09	-3.517891e+01	-1.075883e+02
4.900000e-07	-5.054706e-06	-1.657050e-09	-3.504364e+01	-1.073892e+02
5.000000e-07	-5.034954e-06	-1.614586e-09	-3.490670e+01	-1.071884e+02
5.100000e-07	-5.014988e-06	-1.598842e-09	-3.476828e+01	-1.069860e+02
5.200000e-07	-4.994751e-06	-1.634666e-09	-3.462798e+01	-1.067819e+02
5.300000e-07	-4.974204e-06	-1.619523e-09	-3.448553e+01	-1.065763e+02
5.400000e-07	-4.953290e-06	-1.593708e-09	-3.434054e+01	-1.063690e+02
5.500000e-07	-4.931961e-06	-1.627609e-09	-3.419267e+01	-1.061602e+02
5.600000e-07	-4.910324e-06	-1.625712e-09	-3.404266e+01	-1.059496e+02
5.700000e-07	-4.888378e-06	-1.576525e-09	-3.389051e+01	-1.057373e+02
5.800000e-07	-4.866008e-06	-1.592538e-09	-3.373542e+01	-1.055230e+02
5.900000e-07	-4.843288e-06	-1.615450e-09	-3.357790e+01	-1.053066e+02
6.000000e-07	-4.820300e-06	-1.579485e-09	-3.341854e+01	-1.050880e+02
6.100000e-07	-4.796982e-06	-1.565467e-09	-3.325687e+01	-1.048669e+02
6.200000e-07	-4.773342e-06	-1.588501e-09	-3.309298e+01	-1.046432e+02
6.300000e-07	-4.749466e-06	-1.565346e-09	-3.292745e+01	-1.044166e+02
6.400000e-07	-4.725425e-06	-1.552411e-09	-3.276078e+01	-1.041869e+02
6.500000e-07	-4.701132e-06	-1.572572e-09	-3.259236e+01	-1.039539e+02
6.600000e-07	-4.676419e-06	-1.571762e-09	-3.242103e+01	-1.037172e+02
6.700000e-07	-4.651144e-06	-1.548615e-09	-3.224580e+01	-1.034767e+02
6.800000e-07	-4.625233e-06	-1.556113e-09	-3.206615e+01	-1.032321e+02
6.900000e-07	-4.598756e-06	-1.551968e-09	-3.188260e+01	-1.029831e+02
7.000000e-07	-4.571836e-06	-1.538379e-09	-3.169596e+01	-1.027296e+02
7.100000e-07	-4.544567e-06	-1.540636e-09	-3.150691e+01	-1.024713e+02
7.200000e-07	-4.517021e-06	-1.544082e-09	-3.131594e+01	-1.022080e+02
7.300000e-07	-4.489282e-06	-1.528871e-09	-3.112363e+01	-1.019396e+02
7.400000e-07	-4.461407e-06	-1.527363e-09	-3.093037e+01	-1.016658e+02
7.500000e-07	-4.433307e-06	-1.522586e-09	-3.073556e+01	-1.013866e+02
7.600000e-07	-4.404919e-06	-1.512984e-09	-3.053875e+01	-1.011019e+02
7.700000e-07	-4.376248e-06	-1.513668e-09	-3.033998e+01	-1.008115e+02
7.800000e-07	-4.347193e-06	-1.515473e-09	-3.013854e+01	-1.005155e+02
7.900000e-07	-4.317774e-06	-1.504321e-09	-2.993459e+01	-1.002137e+02
8.000000e-07	-4.288139e-06	-1.501549e-09	-2.972913e+01	-9.990634e+01
8.100000e-07	-4.258189e-06	-1.498275e-09	-2.952149e+01	-9.959333e+01
8.200000e-07	-4.227779e-06	-1.481728e-09	-2.931066e+01	-9.927478e+01
8.300000e-07	-4.197047e-06	-1.471040e-09	-2.909760e+01	-9.895079e+01
8.400000e-07	-4.166246e-06	-1.474839e-09	-2.888406e+01	-9.862149e+01
8.500000e-07	-4.135144e-06	-1.477666e-09	-2.866843e+01	-9.828705e+01
8.600000e-07	-4.103583e-06	-1.475993e-09	-2.844963e+01	-9.794765e+01
8.700000e-07	-4.071864e-06	-1.479417e-09	-2.822972e+01	-9.760350e+01
8.800000e-07	-4.040069e-06	-1.473961e-09	-2.800929e+01	-9.725481e+01
8.900000e-07	-4.008150e-06	-1.459021e-09	-2.778800e+01	-9.690182e+01
9.000000e-07	-3.976090e-06	-1.447193e-09	-2.756573e+01	-9.654478e+01
9.100000e-07	-3.943753e-06	-1.440325e-09	-2.734154e+01	-9.618395e+01
9.200000e-07	-3.910987e-06	-1.428189e-09	-2.711438e+01	-9.581957e+01
9.300000e-07	-3.877745e-06	-1.424932e-09	-2.688392e+01	-9.545191e+01
9.400000e-07	-3.844142e-06	-1.429237e-09	-2.665095e+01	-9.508121e+01
9.500000e-07	-3.810118e-06	-1.429496e-09	-2.641507e+01	-9.470773e+01
9.600000e-07	-3.775529e-06	-1.419024e-09	-2.617527e+01	-9.433167e+01
9.700000e-07	-3.740546e-06	-1.409756e-09	-2.593273e+01	-9.395327e+01
9.800000e-07	-3.705294e-06	-1.395419e-09	-2.568834e+01	-9.357270e+01
9.900000e-07	-3.669776e-06	-1.380363e-09	-2.544209e+01	-9.319012e+01
1.000000e-06	-3.634051e-06	-1.372388e-09	-2.519442e+01	-9.280569e+01
1.010000e-06	-3.598225e-06	-1.370525e-09	-2.494604e+01	-9.241949e+01
1.020000e-06	-3.562308e-06	-1.364678e-09	-2.469704e+01	-9.203161e+01
1.030000e-06	-3.526230e-06	-1.361200e-09	-2.444691e+01	-9.164207e+01
1.040000e-06	-3.489887e-06	-1.358801e-09	-2.419494e+01	-9.125088e+01
1.050000e-06	-3.453195e-06	-1.353796e-09	-2.394057e+01	-9.085800e+01
1.060000e-06	-3.416191e-06	-1.342716e-09	-2.368402e+01	-9.046334e+01
1.070000e-06	-3.378991e-06	-1.331482e-09	-2.342612e+01	-9.006679e+01
1.080000e-06	-3.341559e-06	-1.321458e-09	-2.316661e+01	-8.966818e+01
1.090000e-06	-3.303860e-06	-1.311727e-09	-2.290524e+01	-8.926732e+01
1.100000e-06	-3.265961e-06	-1.303326e-09	-2.264250e+01	-8.886396e+01
1.110000e-06	-3.227872e-06	-1.295648e-09	-2.237843e+01	-8.845784e+01
1.120000e-06	-3.189648e-06	-1.286207e-09	-2.211343e+01	-8.804865e+01
1.130000e-06	-3.151293e-06	-1.275559e-09	-2.184752e+01	-8.763604e+01
1.140000e-06	-3.112601e-06	-1.266745e-09	-2.157927e+01	-8.721966e+01
1.150000e-06	-3.073517e-06	-1.261673e-09	-2.130831e+01	-8.679911e+01
1.160000e-06	-3.034279e-06	-1.254975e-09	-2.103628e+01	-8.637397e+01
1.170000e-06	-2.994982e-06	-1.247255e-09	-2.076383e+01	-8.594382e+01
1.180000e-06	-2.955483e-06	-1.241784e-09	-2.048999e+01	-8.550821e+01
1.190000e-06	-2.915755e-06	-1.235542e-09	-2.021456e+01	-8.506669e+01
1.200000e-06	-2.875952e-06	-1.226725e-09	-1.993861e+01	-8.461881e+01
1.210000e-06	-2.836047e-06	-1.210983e-09	-1.966195e+01	-8.416412e+01
1.220000e-06	-2.795997e-06	-1.198209e-09	-1.938429e+01	-8.370215e+01
1.230000e-06	-2.755853e-06	-1.186616e-09	-1.910598e+01	-8.323248e+01
1.240000e-06	-2.715533e-06	-1.177547e-09	-1.882645e+01	-8.275467e+01
1.250000e-06	-2.674979e-06	-1.172825e-09	-1.854529e+01	-8.226832e+01
1.260000e-06	-2.634167e-06	-1.172142e-09	-1.826235e+01	-8.177303e+01
1.270000e-06	-2.593135e-06	-1.167031e-09	-1.797788e+01	-8.126845e+01
1.280000e-06	-2.551847e-06	-1.155558e-09	-1.769164e+01	-8.075423e+01
1.290000e-06	-2.510241e-06	-1.141761e-09	-1.740318e+01	-8.023008e+01
1.300000e-06	-2.468315e-06	-1.126638e-09	-1.711252e+01	-7.969571e+01
1.310000e-06	-2.426096e-06	-1.111915e-09	-1.681982e+01	-7.915089e+01
1.320000e-06	-2.383607e-06	-1.102742e-09	-1.652525e+01	-7.859542e+01
1.330000e-06	-2.340827e-06	-1.099272e-09	-1.622866e+01	-7.802911e+01
1.340000e-06	-2.297792e-06	-1.097028e-09	-1.593030e+01	-7.745183e+01
1.350000e-06	-2.254527e-06	-1.092464e-09	-1.563035e+01	-7.686347e+01
1.360000e-06	-2.211069e-06	-1.087558e-09	-1.532906e+01	-7.626397e+01
1.370000e-06	-2.167485e-06	-1.077138e-09	-1.502690e+01	-7.565327e+01
1.380000e-06	-2.123775e-06	-1.064147e-09	-1.472386e+01	-7.503136e+01
1.390000e-06	-2.079948e-06	-1.049421e-09	-1.442002e+01	-7.439823e+01
1.400000e-06	-2.036107e-06	-1.034363e-09	-1.411607e+01	-7.375391e+01
1.410000e-06	-1.992246e-06	-1.023281e-09	-1.381199e+01	-7.309843e+01
1.420000e-06	-1.948301e-06	-1.014171e-09	-1.350733e+01	-7.243184e+01
1.430000e-06	-1.904213e-06	-1.005806e-09	-1.320167e+01	-7.175418e+01
1.440000e-06	-1.859972e-06	-9.966938e-10	-1.289495e+01	-7.106549e+01
1.450000e-06	-1.815701e-06	-9.878452e-10	-1.258802e+01	-7.036581e+01
1.460000e-06	-1.771339e-06	-9.776274e-10	-1.228047e+01	-6.965516e+01
1.470000e-06	-1.726831e-06	-9.648750e-10	-1.197190e+01	-6.893353e+01
1.480000e-06	-1.682201e-06	-9.513070e-10	-1.166249e+01	-6.820089e+01
1.490000e-06	-1.637381e-06	-9.395052e-10	-1.135176e+01	-6.745719e+01
1.500000e-06	-1.592387e-06	-9.261566e-10	-1.103982e+01	-6.670230e+01
1.510000e-06	-1.547254e-06	-9.127768e-10	-1.072692e+01	-6.593609e+01
1.520000e-06	-1.501969e-06	-9.025396e-10	-1.041296e+01	-6.515834e+01
1.530000e-06	-1.456572e-06	-8.923887e-10	-1.009823e+01	-6.436879e+01
1.540000e-06	-1.411143e-06	-8.807357e-10	-9.783275e+00	-6.356713e+01
1.550000e-06	-1.365688e-06	-8.692157e-10	-9.468144e+00	-6.275296e+01
1.560000e-06	-1.320185e-06	-8.554919e-10	-9.152674e+00	-6.192581e+01
1.570000e-06	-1.274533e-06	-8.402320e-10	-8.836177e+00	-6.108517e+01
1.580000e-06	-1.228752e-06	-8.255338e-10	-8.518785e+00	-6.023043e+01
1.590000e-06	-1.182869e-06	-8.121967e-10	-8.200682e+00	-5.936089e+01
1.600000e-06	-1.136904e-06	-7.958926e-10	-7.882009e+00	-5.847582e+01
1.610000e-06	-1.090929e-06	-7.785675e-10	-7.563276e+00	-5.757438e+01
1.620000e-06	-1.044834e-06	-7.626875e-10	-7.243703e+00	-5.665566e+01
1.630000e-06	-9.986152e-07	-7.479885e-10	-6.923273e+00	-5.571870e+01
1.640000e-06	-9.522586e-07	-7.338160e-10	-6.601889e+00	-5.476245e+01
1.650000e-06	-9.057836e-07	-7.209175e-10	-6.279684e+00	-5.378583e+01
1.660000e-06	-8.593382e-07	-7.093002e-10	-5.957684e+00	-5.278767e+01
1.670000e-06	-8.129016e-07	-6.962848e-10	-5.635744e+00	-5.176679e+01
1.680000e-06	-7.664936e-07	-6.808279e-10	-5.314003e+00	-5.072193e+01
1.690000e-06	-7.200089e-07	-6.637672e-10	-4.991731e+00	-4.965182e+01
1.700000e-06	-6.733954e-07	-6.441279e-10	-4.668566e+00	-4.855519e+01
1.710000e-06	-6.267065e-07	-6.218674e-10	-4.344878e+00	-4.743071e+01
1.720000e-06	-5.799938e-07	-5.999745e-10	-4.021024e+00	-4.627708e+01
1.730000e-06	-5.333170e-07	-5.808488e-10	-3.697419e+00	-4.509302e+01
1.740000e-06	-4.864955e-07	-5.645812e-10	-3.372812e+00	-4.387725e+01
1.750000e-06	-4.395963e-07	-5.503394e-10	-3.047666e+00	-4.262853e+01
1.760000e-06	-3.927699e-07	-5.340931e-10	-2.723024e+00	-4.134569e+01
1.770000e-06	-3.458746e-07	-5.127622e-10	-2.397905e+00	-4.002759e+01
1.780000e-06	-2.989022e-07	-4.891841e-10	-2.072251e+00	-3.867318e+01
1.790000e-06	-2.519664e-07	-4.670375e-10	-1.746851e+00	-3.728151e+01
1.800000e-06	-2.050558e-07	-4.472574e-10	-1.421626e+00	-3.585170e+01
1.810000e-06	-1.580860e-07	-4.282773e-10	-1.095990e+00	-3.438300e+01
1.820000e-06	-1.111042e-07	-4.102337e-10	-7.702714e-01	-3.287478e+01
1.830000e-06	-6.415962e-08	-3.915700e-10	-4.448106e-01	-3.132655e+01
1.840000e-06	-1.722385e-08	-3.705834e-10	-1.194108e-01	-2.973795e+01
1.850000e-06	2.975767e-08	-3.475690e-10	2.063062e-01	-2.810879e+01
1.860000e-06	7.673532e-08	-3.247932e-10	5.319963e-01	-2.643904e+01
1.870000e-06	1.236584e-07	-3.013395e-10	8.573083e-01	-2.472883e+01
1.880000e-06	1.705546e-07	-2.785397e-10	1.182433e+00	-2.297848e+01
1.890000e-06	2.174305e-07	-2.550234e-10	1.507418e+00	-2.118847e+01
1.900000e-06	2.644061e-07	-2.284621e-10	1.833094e+00	-1.935950e+01
1.910000e-06	3.113972e-07	-2.006163e-10	2.158877e+00	-1.749244e+01
1.920000e-06	3.582890e-07	-1.726363e-10	2.483973e+00	-1.558833e+01
1.930000e-06	4.051652e-07	-1.454594e-10	2.808959e+00	-1.364843e+01
1.940000e-06	4.520231e-07	-1.203112e-10	3.133819e+00	-1.167417e+01
1.950000e-06	4.988491e-07	-9.613381e-11	3.458458e+00	-9.667168e+00
1.960000e-06	5.456064e-07	-7.147091e-11	3.782620e+00	-7.629224e+00
1.970000e-06	5.922531e-07	-4.483617e-11	4.106016e+00	-5.562303e+00
1.980000e-06	6.388711e-07	-1.663433e-11	4.429213e+00	-3.468539e+00
1.990000e-06	6.855112e-07	1.236041e-11	4.752563e+00	-1.350220e+00
2.000000e-06	7.320348e-07	4.376384e-11	5.075105e+00	7.902210e-01
2.010000e-06	7.783647e-07	7.557230e-11	5.396305e+00	2.950217e+00
2.020000e-06	8.246519e-07	1.095009e-10	5.717208e+00	5.127082e+00
2.030000e-06	8.709941e-07	1.422506e-10	6.038492e+00	7.318023e+00
2.040000e-06	9.173454e-07	1.731580e-10	6.359840e+00	9.520153e+00
2.050000e-06	9.636241e-07	2.029286e-10	6.680685e+00	1.173051e+01
2.060000e-06	1.009818e-06	2.322320e-10	7.000942e+00	1.394608e+01
2.070000e-06	1.055907e-06	2.619896e-10	7.320473e+00	1.616380e+01
2.080000e-06	1.101851e-06	2.913878e-10	7.638995e+00	1.838057e+01
2.090000e-06	1.147705e-06	3.220852e-10	7.956893e+00	2.059330e+01
2.100000e-06	1.193543e-06	3.533687e-10	8.274683e+00	2.279891e+01
2.110000e-06	1.239308e-06	3.857132e-10	8.591967e+00	2.499433e+01
2.120000e-06	1.284948e-06	4.165589e-10	8.908380e+00	2.717656e+01
2.130000e-06	1.330536e-06	4.456672e-10	9.224441e+00	2.934264e+01
2.140000e-06	1.376095e-06	4.744844e-10	9.540291e+00	3.148970e+01
2.150000e-06	1.421549e-06	4.995345e-10	9.855422e+00	3.361496e+01
2.160000e-06	1.466880e-06	5.223558e-10	1.016970e+01	3.571577e+01
2.170000e-06	1.512039e-06	5.464005e-10	1.048278e+01	3.778957e+01
2.180000e-06	1.557043e-06	5.724002e-10	1.079478e+01	3.983397e+01
2.190000e-06	1.601973e-06	6.017997e-10	1.110628e+01	4.184672e+01
2.200000e-06	1.646781e-06	6.321214e-10	1.141693e+01	4.382573e+01
2.210000e-06	1.691406e-06	6.629900e-10	1.172630e+01	4.576908e+01
2.220000e-06	1.735891e-06	6.919146e-10	1.203471e+01	4.767503e+01
2.230000e-06	1.780251e-06	7.176291e-10	1.234226e+01	4.954204e+01
2.240000e-06	1.824515e-06	7.381593e-10	1.264913e+01	5.136875e+01
2.250000e-06	1.868681e-06	7.545781e-10	1.295533e+01	5.315400e+01
2.260000e-06	1.912695e-06	7.706911e-10	1.326048e+01	5.489683e+01
2.270000e-06	1.956646e-06	7.896937e-10	1.356518e+01	5.659647e+01
2.280000e-06	2.000570e-06	8.128434e-10	1.386970e+01	5.825237e+01
2.290000e-06	2.044434e-06	8.383356e-10	1.417381e+01	5.986416e+01
2.300000e-06	2.088291e-06	8.645240e-10	1.447786e+01	6.143166e+01
2.310000e-06	2.132137e-06	8.899575e-10	1.478184e+01	6.295489e+01
2.320000e-06	2.175899e-06	9.108189e-10	1.508524e+01	6.443405e+01
2.330000e-06	2.219558e-06	9.255872e-10	1.538792e+01	6.586950e+01
2.340000e-06	2.263092e-06	9.387168e-10	1.568973e+01	6.726178e+01
2.350000e-06	2.306405e-06	9.544332e-10	1.599002e+01	6.861157e+01
2.360000e-06	2.349500e-06	9.730699e-10	1.628878e+01	6.991971e+01
2.370000e-06	2.392368e-06	9.927684e-10	1.658599e+01	7.118714e+01
2.380000e-06	2.434873e-06	1.013198e-09	1.688067e+01	7.241495e+01
2.390000e-06	2.477107e-06	1.032262e-09	1.717347e+01	7.360432e+01
2.400000e-06	2.519105e-06	1.048893e-09	1.746464e+01	7.475652e+01
2.410000e-06	2.560752e-06	1.063242e-09	1.775337e+01	7.587289e+01
2.420000e-06	2.602012e-06	1.076170e-09	1.803942e+01	7.695484e+01
2.430000e-06	2.642918e-06	1.088561e-09	1.832302e+01	7.800383e+01
2.440000e-06	2.683550e-06	1.104862e-09	1.860472e+01	7.902134e+01
2.450000e-06	2.723956e-06	1.123324e-09	1.888484e+01	8.000888e+01
2.460000e-06	2.764197e-06	1.139972e-09	1.916383e+01	8.096795e+01
2.470000e-06	2.804316e-06	1.153905e-09	1.944197e+01	8.190004e+01
2.480000e-06	2.844333e-06	1.167434e-09	1.971940e+01	8.280665e+01
2.490000e-06	2.884217e-06	1.181340e-09	1.999591e+01	8.368920e+01
2.500000e-06	2.923987e-06	1.193027e-09	2.027163e+01	8.454910e+01
2.510000e-06	2.963589e-06	1.207115e-09	2.054619e+01	8.538768e+01
2.520000e-06	3.002979e-06	1.222235e-09	2.081927e+01	8.620622e+01
2.530000e-06	3.042250e-06	1.236315e-09	2.109154e+01	8.700591e+01
2.540000e-06	3.081280e-06	1.251437e-09	2.136213e+01	8.778787e+01
2.550000e-06	3.120031e-06	1.264880e-09	2.163078e+01	8.855314e+01
2.560000e-06	3.158595e-06	1.274078e-09	2.189814e+01	8.930265e+01
2.570000e-06	3.196930e-06	1.279137e-09	2.216391e+01	9.003724e+01
2.580000e-06	3.235018e-06	1.284762e-09	2.242797e+01	9.075766e+01
2.590000e-06	3.272900e-06	1.291834e-09	2.269060e+01	9.146455e+01
2.600000e-06	3.310584e-06	1.301852e-09	2.295186e+01	9.215846e+01
2.610000e-06	3.348076e-06	1.317134e-09	2.321179e+01	9.283983e+01
2.620000e-06	3.385377e-06	1.335310e-09	2.347039e+01	9.350901e+01
2.630000e-06	3.422447e-06	1.350124e-09	2.372739e+01	9.416625e+01
2.640000e-06	3.459267e-06	1.357743e-09	2.398266e+01	9.481174e+01
2.650000e-06	3.495802e-06	1.361971e-09	2.423595e+01	9.544554e+01
2.660000e-06	3.532041e-06	1.365564e-09	2.448720e+01	9.606767e+01
2.670000e-06	3.568054e-06	1.369012e-09	2.473687e+01	9.667806e+01
2.680000e-06	3.603944e-06	1.374685e-09	2.498569e+01	9.727659e+01
2.690000e-06	3.639749e-06	1.384426e-09	2.523392e+01	9.786307e+01
2.700000e-06	3.675497e-06	1.396559e-09	2.548176e+01	9.843728e+01
2.710000e-06	3.711089e-06	1.406707e-09	2.572851e+01	9.899895e+01
2.720000e-06	3.746387e-06	1.414218e-09	2.597323e+01	9.954778e+01
2.730000e-06	3.781312e-06	1.419629e-09	2.621536e+01	1.000835e+02
2.740000e-06	3.815803e-06	1.422259e-09	2.645448e+01	1.006057e+02
2.750000e-06	3.849924e-06	1.424550e-09	2.669104e+01	1.011141e+02
2.760000e-06	3.883551e-06	1.428559e-09	2.692417e+01	1.016083e+02
2.770000e-06	3.916621e-06	1.435755e-09	2.715344e+01	1.020882e+02
2.780000e-06	3.949250e-06	1.445718e-09	2.737965e+01	1.025533e+02
2.790000e-06	3.981499e-06	1.456532e-09	2.760323e+01	1.030034e+02
2.800000e-06	4.013547e-06	1.466880e-09	2.782542e+01	1.034384e+02
2.810000e-06	4.045441e-06	1.475322e-09	2.804653e+01	1.038579e+02
2.820000e-06	4.077199e-06	1.480209e-09	2.826671e+01	1.042620e+02
2.830000e-06	4.108837e-06	1.483670e-09	2.848605e+01	1.046506e+02
2.840000e-06	4.140242e-06	1.488905e-09	2.870377e+01	1.050236e+02
2.850000e-06	4.171375e-06	1.494359e-09	2.891962e+01	1.053810e+02
2.860000e-06	4.202198e-06	1.500681e-09	2.913331e+01	1.057230e+02
2.870000e-06	4.232627e-06	1.510002e-09	2.934427e+01	1.060498e+02
2.880000e-06	4.262725e-06	1.517264e-09	2.955293e+01	1.063616e+02
2.890000e-06	4.292601e-06	1.519459e-09	2.976006e+01	1.066586e+02
2.900000e-06	4.322244e-06	1.522510e-09	2.996557e+01	1.069413e+02
