# Temperatura_=_-8.2
# Concentracion g/m^3_=_1620.0
# C_Vs_to_Am_M_A/Vsm_=_65563218390.804596
# pendiente_HvsI_1/m_=_3716.3
# ordenada_HvsI_A/m_=_1297.0
# frecuencia_Hz_=_135109.46689233268

Tiempo_(s)	Campo_(V.s)	Magnetizacion_(V.s)	Campo_(kA/m)	Magnetizacion_(A/m)
0.000000e+00	-5.519017e-06	-1.446345e-09	-3.835773e+01	-9.383391e+01
1.000000e-08	-5.519157e-06	-1.439223e-09	-3.835870e+01	-9.375582e+01
2.000000e-08	-5.519133e-06	-1.436018e-09	-3.835853e+01	-9.367635e+01
3.000000e-08	-5.518877e-06	-1.435156e-09	-3.835675e+01	-9.359541e+01
4.000000e-08	-5.518228e-06	-1.437521e-09	-3.835224e+01	-9.351290e+01
5.000000e-08	-5.516997e-06	-1.439034e-09	-3.834369e+01	-9.342871e+01
6.000000e-08	-5.515117e-06	-1.437791e-09	-3.833062e+01	-9.334271e+01
7.000000e-08	-5.512788e-06	-1.436890e-09	-3.831443e+01	-9.325477e+01
8.000000e-08	-5.509962e-06	-1.418783e-09	-3.829479e+01	-9.316478e+01
9.000000e-08	-5.506487e-06	-1.408048e-09	-3.827064e+01	-9.307261e+01
1.000000e-07	-5.502568e-06	-1.463748e-09	-3.824340e+01	-9.297812e+01
1.100000e-07	-5.498335e-06	-1.474246e-09	-3.821399e+01	-9.288121e+01
1.200000e-07	-5.493796e-06	-1.378617e-09	-3.818244e+01	-9.278177e+01
1.300000e-07	-5.488987e-06	-1.346460e-09	-3.814902e+01	-9.267968e+01
1.400000e-07	-5.483905e-06	-1.430213e-09	-3.811369e+01	-9.257487e+01
1.500000e-07	-5.478401e-06	-1.501407e-09	-3.807544e+01	-9.246726e+01
1.600000e-07	-5.472405e-06	-1.413688e-09	-3.803377e+01	-9.235678e+01
1.700000e-07	-5.466053e-06	-1.354113e-09	-3.798962e+01	-9.224341e+01
1.800000e-07	-5.459340e-06	-1.412880e-09	-3.794296e+01	-9.212711e+01
1.900000e-07	-5.452135e-06	-1.463006e-09	-3.789289e+01	-9.200788e+01
2.000000e-07	-5.444670e-06	-1.387560e-09	-3.784101e+01	-9.188575e+01
2.100000e-07	-5.437064e-06	-1.341601e-09	-3.778814e+01	-9.176075e+01
2.200000e-07	-5.429128e-06	-1.397205e-09	-3.773299e+01	-9.163294e+01
2.300000e-07	-5.420936e-06	-1.467193e-09	-3.767605e+01	-9.150241e+01
2.400000e-07	-5.412425e-06	-1.426222e-09	-3.761690e+01	-9.136925e+01
2.500000e-07	-5.403354e-06	-1.369425e-09	-3.755386e+01	-9.123359e+01
2.600000e-07	-5.393613e-06	-1.388205e-09	-3.748616e+01	-9.109558e+01
2.700000e-07	-5.383144e-06	-1.421228e-09	-3.741340e+01	-9.095537e+01
2.800000e-07	-5.372155e-06	-1.405696e-09	-3.733702e+01	-9.081313e+01
2.900000e-07	-5.360708e-06	-1.373885e-09	-3.725746e+01	-9.066906e+01
3.000000e-07	-5.348781e-06	-1.401212e-09	-3.717457e+01	-9.052335e+01
3.100000e-07	-5.336498e-06	-1.417080e-09	-3.708920e+01	-9.037622e+01
3.200000e-07	-5.323856e-06	-1.396380e-09	-3.700133e+01	-9.022787e+01
3.300000e-07	-5.310766e-06	-1.357033e-09	-3.691036e+01	-9.007854e+01
3.400000e-07	-5.297278e-06	-1.382386e-09	-3.681662e+01	-8.992843e+01
3.500000e-07	-5.283486e-06	-1.405173e-09	-3.672077e+01	-8.977777e+01
3.600000e-07	-5.269298e-06	-1.380846e-09	-3.662215e+01	-8.962676e+01
3.700000e-07	-5.254578e-06	-1.352977e-09	-3.651985e+01	-8.947561e+01
3.800000e-07	-5.239374e-06	-1.403562e-09	-3.641418e+01	-8.932451e+01
3.900000e-07	-5.223574e-06	-1.402139e-09	-3.630437e+01	-8.917363e+01
4.000000e-07	-5.207164e-06	-1.343143e-09	-3.619032e+01	-8.902314e+01
4.100000e-07	-5.190438e-06	-1.359784e-09	-3.607407e+01	-8.887317e+01
4.200000e-07	-5.173497e-06	-1.416150e-09	-3.595632e+01	-8.872384e+01
4.300000e-07	-5.156221e-06	-1.351920e-09	-3.583626e+01	-8.857524e+01
4.400000e-07	-5.138545e-06	-1.321766e-09	-3.571341e+01	-8.842744e+01
4.500000e-07	-5.120582e-06	-1.407081e-09	-3.558856e+01	-8.828047e+01
4.600000e-07	-5.102253e-06	-1.397789e-09	-3.546118e+01	-8.813433e+01
4.700000e-07	-5.083411e-06	-1.303134e-09	-3.533022e+01	-8.798901e+01
4.800000e-07	-5.064214e-06	-1.354594e-09	-3.519680e+01	-8.784446e+01
4.900000e-07	-5.044780e-06	-1.407764e-09	-3.506173e+01	-8.770057e+01
5.000000e-07	-5.025080e-06	-1.318521e-09	-3.492481e+01	-8.755725e+01
5.100000e-07	-5.005151e-06	-1.309477e-09	-3.478631e+01	-8.741433e+01
5.200000e-07	-4.984968e-06	-1.388882e-09	-3.464603e+01	-8.727165e+01
5.300000e-07	-4.964440e-06	-1.332008e-09	-3.450336e+01	-8.712900e+01
5.400000e-07	-4.943540e-06	-1.285909e-09	-3.435811e+01	-8.698615e+01
5.500000e-07	-4.922318e-06	-1.379589e-09	-3.421060e+01	-8.684285e+01
5.600000e-07	-4.900757e-06	-1.371280e-09	-3.406076e+01	-8.669882e+01
5.700000e-07	-4.878904e-06	-1.281610e-09	-3.390887e+01	-8.655377e+01
5.800000e-07	-4.856741e-06	-1.328047e-09	-3.375484e+01	-8.640739e+01
5.900000e-07	-4.834229e-06	-1.367070e-09	-3.359838e+01	-8.625937e+01
6.000000e-07	-4.811403e-06	-1.284969e-09	-3.343974e+01	-8.610937e+01
6.100000e-07	-4.788274e-06	-1.289071e-09	-3.327899e+01	-8.595706e+01
6.200000e-07	-4.764797e-06	-1.344559e-09	-3.311582e+01	-8.580211e+01
6.300000e-07	-4.740963e-06	-1.301402e-09	-3.295017e+01	-8.564418e+01
6.400000e-07	-4.716880e-06	-1.279057e-09	-3.278279e+01	-8.548297e+01
6.500000e-07	-4.692558e-06	-1.330255e-09	-3.261375e+01	-8.531814e+01
6.600000e-07	-4.667945e-06	-1.309240e-09	-3.244269e+01	-8.514942e+01
6.700000e-07	-4.642886e-06	-1.275103e-09	-3.226852e+01	-8.497652e+01
6.800000e-07	-4.617280e-06	-1.299385e-09	-3.209056e+01	-8.479918e+01
6.900000e-07	-4.591205e-06	-1.293966e-09	-3.190934e+01	-8.461718e+01
7.000000e-07	-4.564638e-06	-1.259157e-09	-3.172470e+01	-8.443032e+01
7.100000e-07	-4.537593e-06	-1.278932e-09	-3.153673e+01	-8.423843e+01
7.200000e-07	-4.510171e-06	-1.287215e-09	-3.134614e+01	-8.404137e+01
7.300000e-07	-4.482484e-06	-1.264807e-09	-3.115372e+01	-8.383905e+01
7.400000e-07	-4.454619e-06	-1.270015e-09	-3.096005e+01	-8.363140e+01
7.500000e-07	-4.426580e-06	-1.279820e-09	-3.076518e+01	-8.341840e+01
7.600000e-07	-4.398287e-06	-1.257500e-09	-3.056854e+01	-8.320006e+01
7.700000e-07	-4.369635e-06	-1.253978e-09	-3.036941e+01	-8.297644e+01
7.800000e-07	-4.340686e-06	-1.259959e-09	-3.016821e+01	-8.274763e+01
7.900000e-07	-4.311476e-06	-1.244955e-09	-2.996520e+01	-8.251377e+01
8.000000e-07	-4.281982e-06	-1.242835e-09	-2.976021e+01	-8.227503e+01
8.100000e-07	-4.252233e-06	-1.255181e-09	-2.955345e+01	-8.203160e+01
8.200000e-07	-4.222200e-06	-1.242624e-09	-2.934472e+01	-8.178372e+01
8.300000e-07	-4.191826e-06	-1.228442e-09	-2.913362e+01	-8.153167e+01
8.400000e-07	-4.161105e-06	-1.237447e-09	-2.892010e+01	-8.127573e+01
8.500000e-07	-4.130121e-06	-1.237602e-09	-2.870476e+01	-8.101622e+01
8.600000e-07	-4.098848e-06	-1.227330e-09	-2.848741e+01	-8.075348e+01
8.700000e-07	-4.067321e-06	-1.232767e-09	-2.826829e+01	-8.048786e+01
8.800000e-07	-4.035650e-06	-1.235047e-09	-2.804817e+01	-8.021972e+01
8.900000e-07	-4.003837e-06	-1.215895e-09	-2.782708e+01	-7.994944e+01
9.000000e-07	-3.971834e-06	-1.210245e-09	-2.760465e+01	-7.967738e+01
9.100000e-07	-3.939540e-06	-1.214209e-09	-2.738020e+01	-7.940390e+01
9.200000e-07	-3.906936e-06	-1.200422e-09	-2.715360e+01	-7.912939e+01
9.300000e-07	-3.874021e-06	-1.186463e-09	-2.692484e+01	-7.885417e+01
9.400000e-07	-3.840800e-06	-1.193604e-09	-2.669395e+01	-7.857858e+01
9.500000e-07	-3.807094e-06	-1.189578e-09	-2.645969e+01	-7.830293e+01
9.600000e-07	-3.772819e-06	-1.176499e-09	-2.622147e+01	-7.802750e+01
9.700000e-07	-3.738128e-06	-1.175862e-09	-2.598036e+01	-7.775254e+01
9.800000e-07	-3.703047e-06	-1.176145e-09	-2.573655e+01	-7.747827e+01
9.900000e-07	-3.667619e-06	-1.162617e-09	-2.549032e+01	-7.720486e+01
1.000000e-06	-3.631980e-06	-1.160109e-09	-2.524263e+01	-7.693245e+01
1.010000e-06	-3.596249e-06	-1.163180e-09	-2.499430e+01	-7.666115e+01
1.020000e-06	-3.560360e-06	-1.154541e-09	-2.474486e+01	-7.639098e+01
1.030000e-06	-3.524282e-06	-1.145399e-09	-2.449412e+01	-7.612197e+01
1.040000e-06	-3.488015e-06	-1.147723e-09	-2.424205e+01	-7.585405e+01
1.050000e-06	-3.451509e-06	-1.146084e-09	-2.398834e+01	-7.558714e+01
1.060000e-06	-3.414785e-06	-1.139451e-09	-2.373310e+01	-7.532108e+01
1.070000e-06	-3.377818e-06	-1.134982e-09	-2.347618e+01	-7.505569e+01
1.080000e-06	-3.340614e-06	-1.127938e-09	-2.321760e+01	-7.479073e+01
1.090000e-06	-3.303140e-06	-1.115549e-09	-2.295716e+01	-7.452591e+01
1.100000e-06	-3.265421e-06	-1.109000e-09	-2.269501e+01	-7.426090e+01
1.110000e-06	-3.227548e-06	-1.105053e-09	-2.243178e+01	-7.399533e+01
1.120000e-06	-3.189476e-06	-1.095061e-09	-2.216718e+01	-7.372880e+01
1.130000e-06	-3.151195e-06	-1.087954e-09	-2.190112e+01	-7.346087e+01
1.140000e-06	-3.112649e-06	-1.086880e-09	-2.163323e+01	-7.319108e+01
1.150000e-06	-3.073807e-06	-1.085100e-09	-2.136327e+01	-7.291893e+01
1.160000e-06	-3.034811e-06	-1.078549e-09	-2.109224e+01	-7.264392e+01
1.170000e-06	-2.995631e-06	-1.072546e-09	-2.081994e+01	-7.236551e+01
1.180000e-06	-2.956186e-06	-1.065513e-09	-2.054579e+01	-7.208317e+01
1.190000e-06	-2.916539e-06	-1.058203e-09	-2.027024e+01	-7.179637e+01
1.200000e-06	-2.876770e-06	-1.051912e-09	-1.999384e+01	-7.150456e+01
1.210000e-06	-2.836943e-06	-1.044761e-09	-1.971704e+01	-7.120721e+01
1.220000e-06	-2.797012e-06	-1.034994e-09	-1.943951e+01	-7.090381e+01
1.230000e-06	-2.756895e-06	-1.028457e-09	-1.916070e+01	-7.059385e+01
1.240000e-06	-2.716646e-06	-1.021726e-09	-1.888096e+01	-7.027684e+01
1.250000e-06	-2.676307e-06	-1.011531e-09	-1.860061e+01	-6.995234e+01
1.260000e-06	-2.635789e-06	-1.002069e-09	-1.831900e+01	-6.961991e+01
1.270000e-06	-2.595015e-06	-9.981077e-10	-1.803562e+01	-6.927917e+01
1.280000e-06	-2.554001e-06	-9.932287e-10	-1.775056e+01	-6.892975e+01
1.290000e-06	-2.512693e-06	-9.858454e-10	-1.746347e+01	-6.857135e+01
1.300000e-06	-2.471003e-06	-9.778104e-10	-1.717372e+01	-6.820367e+01
1.310000e-06	-2.428945e-06	-9.689831e-10	-1.688141e+01	-6.782650e+01
1.320000e-06	-2.386646e-06	-9.573346e-10	-1.658743e+01	-6.743965e+01
1.330000e-06	-2.344121e-06	-9.479590e-10	-1.629188e+01	-6.704295e+01
1.340000e-06	-2.301348e-06	-9.408741e-10	-1.599460e+01	-6.663633e+01
1.350000e-06	-2.258402e-06	-9.362746e-10	-1.569612e+01	-6.621970e+01
1.360000e-06	-2.215197e-06	-9.356608e-10	-1.539584e+01	-6.579305e+01
1.370000e-06	-2.171694e-06	-9.343820e-10	-1.509350e+01	-6.535640e+01
1.380000e-06	-2.128050e-06	-9.283932e-10	-1.479016e+01	-6.490980e+01
1.390000e-06	-2.084340e-06	-9.167391e-10	-1.448637e+01	-6.445331e+01
1.400000e-06	-2.040568e-06	-9.017203e-10	-1.418215e+01	-6.398706e+01
1.410000e-06	-1.996703e-06	-8.868830e-10	-1.387729e+01	-6.351115e+01
1.420000e-06	-1.952739e-06	-8.760219e-10	-1.357173e+01	-6.302573e+01
1.430000e-06	-1.908686e-06	-8.709415e-10	-1.326556e+01	-6.253094e+01
1.440000e-06	-1.864509e-06	-8.689774e-10	-1.295852e+01	-6.202693e+01
1.450000e-06	-1.820244e-06	-8.654598e-10	-1.265088e+01	-6.151385e+01
1.460000e-06	-1.775925e-06	-8.589237e-10	-1.234286e+01	-6.099182e+01
1.470000e-06	-1.731479e-06	-8.485928e-10	-1.203396e+01	-6.046096e+01
1.480000e-06	-1.686922e-06	-8.378164e-10	-1.172428e+01	-5.992136e+01
1.490000e-06	-1.642219e-06	-8.284980e-10	-1.141359e+01	-5.937306e+01
1.500000e-06	-1.597319e-06	-8.190665e-10	-1.110153e+01	-5.881610e+01
1.510000e-06	-1.552313e-06	-8.072135e-10	-1.078873e+01	-5.825042e+01
1.520000e-06	-1.507208e-06	-7.960904e-10	-1.047525e+01	-5.767596e+01
1.530000e-06	-1.461965e-06	-7.868608e-10	-1.016080e+01	-5.709256e+01
1.540000e-06	-1.416607e-06	-7.780755e-10	-9.845564e+00	-5.650002e+01
1.550000e-06	-1.371242e-06	-7.682515e-10	-9.530268e+00	-5.589807e+01
1.560000e-06	-1.325757e-06	-7.582015e-10	-9.214148e+00	-5.528636e+01
1.570000e-06	-1.280038e-06	-7.456210e-10	-8.896391e+00	-5.466446e+01
1.580000e-06	-1.234225e-06	-7.325096e-10	-8.577989e+00	-5.403186e+01
1.590000e-06	-1.188411e-06	-7.218080e-10	-8.259576e+00	-5.338799e+01
1.600000e-06	-1.142549e-06	-7.102455e-10	-7.940829e+00	-5.273218e+01
1.610000e-06	-1.096597e-06	-6.977787e-10	-7.621461e+00	-5.206367e+01
1.620000e-06	-1.050575e-06	-6.875780e-10	-7.301605e+00	-5.138164e+01
1.630000e-06	-1.004487e-06	-6.791861e-10	-6.981289e+00	-5.068517e+01
1.640000e-06	-9.583317e-07	-6.693885e-10	-6.660502e+00	-4.997329e+01
1.650000e-06	-9.120946e-07	-6.556854e-10	-6.339150e+00	-4.924494e+01
1.660000e-06	-8.657861e-07	-6.416889e-10	-6.017301e+00	-4.849899e+01
1.670000e-06	-8.194441e-07	-6.288915e-10	-5.695220e+00	-4.773425e+01
1.680000e-06	-7.731330e-07	-6.162831e-10	-5.373353e+00	-4.694949e+01
1.690000e-06	-7.268065e-07	-6.072598e-10	-5.051378e+00	-4.614343e+01
1.700000e-06	-6.804029e-07	-5.981259e-10	-4.728869e+00	-4.531473e+01
1.710000e-06	-6.339520e-07	-5.833092e-10	-4.406031e+00	-4.446205e+01
1.720000e-06	-5.874191e-07	-5.620772e-10	-4.082622e+00	-4.358402e+01
1.730000e-06	-5.407533e-07	-5.390844e-10	-3.758290e+00	-4.267926e+01
1.740000e-06	-4.940183e-07	-5.201006e-10	-3.433477e+00	-4.174639e+01
1.750000e-06	-4.472905e-07	-5.063353e-10	-3.108714e+00	-4.078407e+01
1.760000e-06	-4.005739e-07	-4.950593e-10	-2.784029e+00	-3.979095e+01
1.770000e-06	-3.538332e-07	-4.838654e-10	-2.459177e+00	-3.876576e+01
1.780000e-06	-3.070152e-07	-4.685422e-10	-2.133787e+00	-3.770724e+01
1.790000e-06	-2.601886e-07	-4.499100e-10	-1.808337e+00	-3.661424e+01
1.800000e-06	-2.133885e-07	-4.313539e-10	-1.483072e+00	-3.548566e+01
1.810000e-06	-1.665788e-07	-4.117866e-10	-1.157740e+00	-3.432049e+01
1.820000e-06	-1.197311e-07	-3.907816e-10	-8.321432e-01	-3.311783e+01
1.830000e-06	-7.285408e-08	-3.708320e-10	-5.063433e-01	-3.187689e+01
1.840000e-06	-2.604168e-08	-3.548914e-10	-1.809923e-01	-3.059700e+01
1.850000e-06	2.065617e-08	-3.416335e-10	1.435624e-01	-2.927763e+01
1.860000e-06	6.737343e-08	-3.264104e-10	4.682521e-01	-2.791839e+01
1.870000e-06	1.141879e-07	-3.080042e-10	7.936172e-01	-2.651903e+01
1.880000e-06	1.610188e-07	-2.883344e-10	1.119097e+00	-2.507948e+01
1.890000e-06	2.078416e-07	-2.667101e-10	1.444520e+00	-2.359982e+01
1.900000e-06	2.546448e-07	-2.431094e-10	1.769807e+00	-2.208031e+01
1.910000e-06	3.014549e-07	-2.189799e-10	2.095142e+00	-2.052137e+01
1.920000e-06	3.482799e-07	-1.960591e-10	2.420581e+00	-1.892360e+01
1.930000e-06	3.950985e-07	-1.733888e-10	2.745975e+00	-1.728779e+01
1.940000e-06	4.418640e-07	-1.524019e-10	3.070999e+00	-1.561490e+01
1.950000e-06	4.885599e-07	-1.314773e-10	3.395541e+00	-1.390606e+01
1.960000e-06	5.351767e-07	-1.095464e-10	3.719532e+00	-1.216260e+01
1.970000e-06	5.816961e-07	-8.651216e-11	4.042846e+00	-1.038599e+01
1.980000e-06	6.281017e-07	-5.969324e-11	4.365370e+00	-8.577886e+00
1.990000e-06	6.744622e-07	-3.016489e-11	4.687581e+00	-6.740091e+00
2.000000e-06	7.208546e-07	-1.452009e-12	5.010012e+00	-4.874566e+00
2.010000e-06	7.672503e-07	2.463886e-11	5.332467e+00	-2.983414e+00
2.020000e-06	8.136267e-07	4.956456e-11	5.654788e+00	-1.068869e+00
2.030000e-06	8.599172e-07	7.651079e-11	5.976511e+00	8.667130e-01
2.040000e-06	9.060905e-07	1.041093e-10	6.297420e+00	2.820867e+00
2.050000e-06	9.522156e-07	1.306175e-10	6.617995e+00	4.791030e+00
2.060000e-06	9.982571e-07	1.572729e-10	6.937988e+00	6.774557e+00
2.070000e-06	1.044174e-06	1.844868e-10	7.257112e+00	8.768734e+00
2.080000e-06	1.090022e-06	2.121708e-10	7.575762e+00	1.077079e+01
2.090000e-06	1.135818e-06	2.373711e-10	7.894047e+00	1.277793e+01
2.100000e-06	1.181581e-06	2.625832e-10	8.212108e+00	1.478731e+01
2.110000e-06	1.227255e-06	2.895220e-10	8.529545e+00	1.679609e+01
2.120000e-06	1.272806e-06	3.180578e-10	8.846130e+00	1.880145e+01
2.130000e-06	1.318296e-06	3.478922e-10	9.162288e+00	2.080057e+01
2.140000e-06	1.363727e-06	3.767697e-10	9.478041e+00	2.279069e+01
2.150000e-06	1.409080e-06	4.029447e-10	9.793252e+00	2.476908e+01
2.160000e-06	1.454338e-06	4.266236e-10	1.010779e+01	2.673310e+01
2.170000e-06	1.499468e-06	4.474333e-10	1.042145e+01	2.868018e+01
2.180000e-06	1.544480e-06	4.688538e-10	1.073429e+01	3.060784e+01
2.190000e-06	1.589364e-06	4.931261e-10	1.104624e+01	3.251370e+01
2.200000e-06	1.634122e-06	5.206886e-10	1.135732e+01	3.439553e+01
2.210000e-06	1.678709e-06	5.498770e-10	1.166720e+01	3.625118e+01
2.220000e-06	1.723139e-06	5.790155e-10	1.197599e+01	3.807868e+01
2.230000e-06	1.767511e-06	6.061864e-10	1.228438e+01	3.987618e+01
2.240000e-06	1.811827e-06	6.275616e-10	1.259238e+01	4.164198e+01
2.250000e-06	1.855996e-06	6.439561e-10	1.289936e+01	4.337456e+01
2.260000e-06	1.899998e-06	6.598670e-10	1.320518e+01	4.507254e+01
2.270000e-06	1.943925e-06	6.796124e-10	1.351048e+01	4.673471e+01
2.280000e-06	1.987836e-06	7.015257e-10	1.381566e+01	4.836003e+01
2.290000e-06	2.031739e-06	7.253787e-10	1.412079e+01	4.994763e+01
2.300000e-06	2.075581e-06	7.516449e-10	1.442550e+01	5.149679e+01
2.310000e-06	2.119341e-06	7.777822e-10	1.472964e+01	5.300699e+01
2.320000e-06	2.162987e-06	7.986100e-10	1.503298e+01	5.447782e+01
2.330000e-06	2.206500e-06	8.134466e-10	1.533540e+01	5.590908e+01
2.340000e-06	2.249834e-06	8.260823e-10	1.563658e+01	5.730069e+01
2.350000e-06	2.292919e-06	8.395903e-10	1.593602e+01	5.865272e+01
2.360000e-06	2.335775e-06	8.556577e-10	1.623387e+01	5.996539e+01
2.370000e-06	2.378423e-06	8.756589e-10	1.653028e+01	6.123903e+01
2.380000e-06	2.420736e-06	8.948709e-10	1.682436e+01	6.247411e+01
2.390000e-06	2.462721e-06	9.111769e-10	1.711616e+01	6.367121e+01
2.400000e-06	2.504468e-06	9.274270e-10	1.740630e+01	6.483101e+01
2.410000e-06	2.545960e-06	9.434223e-10	1.769468e+01	6.595428e+01
2.420000e-06	2.587127e-06	9.562097e-10	1.798080e+01	6.704186e+01
2.430000e-06	2.627940e-06	9.689298e-10	1.826445e+01	6.809467e+01
2.440000e-06	2.668532e-06	9.839726e-10	1.854656e+01	6.911371e+01
2.450000e-06	2.708932e-06	9.993393e-10	1.882735e+01	7.009999e+01
2.460000e-06	2.749162e-06	1.014823e-09	1.910695e+01	7.105458e+01
2.470000e-06	2.789261e-06	1.028128e-09	1.938565e+01	7.197856e+01
2.480000e-06	2.829218e-06	1.039880e-09	1.966335e+01	7.287305e+01
2.490000e-06	2.869026e-06	1.050468e-09	1.994002e+01	7.373915e+01
2.500000e-06	2.908706e-06	1.059275e-09	2.021580e+01	7.457797e+01
2.510000e-06	2.948222e-06	1.070509e-09	2.049044e+01	7.539060e+01
2.520000e-06	2.987557e-06	1.084908e-09	2.076382e+01	7.617811e+01
2.530000e-06	3.026716e-06	1.099596e-09	2.103598e+01	7.694155e+01
2.540000e-06	3.065653e-06	1.115330e-09	2.130660e+01	7.768191e+01
2.550000e-06	3.104323e-06	1.128577e-09	2.157536e+01	7.840017e+01
2.560000e-06	3.142726e-06	1.136310e-09	2.184227e+01	7.909723e+01
2.570000e-06	3.180955e-06	1.140850e-09	2.210796e+01	7.977395e+01
2.580000e-06	3.219088e-06	1.146316e-09	2.237299e+01	8.043114e+01
2.590000e-06	3.257084e-06	1.152490e-09	2.263706e+01	8.106955e+01
2.600000e-06	3.294788e-06	1.162229e-09	2.289911e+01	8.168986e+01
2.610000e-06	3.332164e-06	1.175448e-09	2.315888e+01	8.229269e+01
2.620000e-06	3.369314e-06	1.191323e-09	2.341707e+01	8.287860e+01
2.630000e-06	3.406220e-06	1.204291e-09	2.367357e+01	8.344809e+01
2.640000e-06	3.442866e-06	1.211824e-09	2.392827e+01	8.400161e+01
2.650000e-06	3.479317e-06	1.217005e-09	2.418160e+01	8.453952e+01
2.660000e-06	3.515541e-06	1.219368e-09	2.443336e+01	8.506215e+01
2.670000e-06	3.551569e-06	1.223454e-09	2.468376e+01	8.556978e+01
2.680000e-06	3.587462e-06	1.229657e-09	2.493322e+01	8.606263e+01
2.690000e-06	3.623197e-06	1.237965e-09	2.518159e+01	8.654088e+01
2.700000e-06	3.658811e-06	1.247612e-09	2.542911e+01	8.700466e+01
2.710000e-06	3.694276e-06	1.254360e-09	2.567559e+01	8.745409e+01
2.720000e-06	3.729401e-06	1.256752e-09	2.591972e+01	8.788924e+01
2.730000e-06	3.764061e-06	1.258628e-09	2.616060e+01	8.831016e+01
2.740000e-06	3.798278e-06	1.260838e-09	2.639841e+01	8.871689e+01
2.750000e-06	3.832073e-06	1.265214e-09	2.663329e+01	8.910945e+01
2.760000e-06	3.865490e-06	1.271630e-09	2.686555e+01	8.948785e+01
2.770000e-06	3.898515e-06	1.279932e-09	2.709507e+01	8.985211e+01
2.780000e-06	3.931079e-06	1.288014e-09	2.732139e+01	9.020225e+01
2.790000e-06	3.963363e-06	1.294057e-09	2.754577e+01	9.053829e+01
2.800000e-06	3.995524e-06	1.299303e-09	2.776930e+01	9.086027e+01
2.810000e-06	4.027528e-06	1.303291e-09	2.799173e+01	9.116825e+01
2.820000e-06	4.059390e-06	1.305286e-09	2.821317e+01	9.146230e+01
2.830000e-06	4.091024e-06	1.309213e-09	2.843303e+01	9.174252e+01
2.840000e-06	4.122456e-06	1.315258e-09	2.865148e+01	9.200905e+01
2.850000e-06	4.153661e-06	1.319667e-09	2.886837e+01	9.226204e+01
2.860000e-06	4.184495e-06	1.322065e-09	2.908266e+01	9.250168e+01
2.870000e-06	4.215014e-06	1.325388e-09	2.929477e+01	9.272819e+01
2.880000e-06	4.245178e-06	1.330229e-09	2.950442e+01	9.294182e+01
2.890000e-06	4.274996e-06	1.333576e-09	2.971165e+01	9.314287e+01
2.900000e-06	4.304513e-06	1.336131e-09	2.991680e+01	9.333166e+01
