# Temperatura_=_-8.1
# Concentracion g/m^3_=_1620.0
# C_Vs_to_Am_M_A/Vsm_=_65563218390.804596
# pendiente_HvsI_1/m_=_3716.3
# ordenada_HvsI_A/m_=_1297.0
# frecuencia_Hz_=_135111.10462375384

Tiempo_(s)	Campo_(V.s)	Magnetizacion_(V.s)	Campo_(kA/m)	Magnetizacion_(A/m)
0.000000e+00	-5.528291e-06	-1.413801e-09	-3.836856e+01	-9.324920e+01
1.000000e-08	-5.528281e-06	-1.413042e-09	-3.836850e+01	-9.319576e+01
2.000000e-08	-5.528065e-06	-1.413961e-09	-3.836700e+01	-9.314320e+01
3.000000e-08	-5.527532e-06	-1.414749e-09	-3.836330e+01	-9.309134e+01
4.000000e-08	-5.526461e-06	-1.413163e-09	-3.835586e+01	-9.303997e+01
5.000000e-08	-5.524774e-06	-1.402201e-09	-3.834416e+01	-9.298887e+01
6.000000e-08	-5.522513e-06	-1.384151e-09	-3.832847e+01	-9.293778e+01
7.000000e-08	-5.519670e-06	-1.382435e-09	-3.830873e+01	-9.288643e+01
8.000000e-08	-5.516243e-06	-1.410515e-09	-3.828495e+01	-9.283452e+01
9.000000e-08	-5.512365e-06	-1.448310e-09	-3.825804e+01	-9.278175e+01
1.000000e-07	-5.508130e-06	-1.466373e-09	-3.822864e+01	-9.272781e+01
1.100000e-07	-5.503618e-06	-1.414919e-09	-3.819732e+01	-9.267236e+01
1.200000e-07	-5.498946e-06	-1.344276e-09	-3.816490e+01	-9.261510e+01
1.300000e-07	-5.494037e-06	-1.357141e-09	-3.813083e+01	-9.255568e+01
1.400000e-07	-5.488689e-06	-1.410928e-09	-3.809372e+01	-9.249380e+01
1.500000e-07	-5.482854e-06	-1.422588e-09	-3.805321e+01	-9.242915e+01
1.600000e-07	-5.476631e-06	-1.379086e-09	-3.801003e+01	-9.236144e+01
1.700000e-07	-5.470041e-06	-1.361214e-09	-3.796429e+01	-9.229038e+01
1.800000e-07	-5.463074e-06	-1.431352e-09	-3.791593e+01	-9.221572e+01
1.900000e-07	-5.455741e-06	-1.416594e-09	-3.786504e+01	-9.213723e+01
2.000000e-07	-5.448075e-06	-1.365272e-09	-3.781183e+01	-9.205470e+01
2.100000e-07	-5.440176e-06	-1.352592e-09	-3.775701e+01	-9.196795e+01
2.200000e-07	-5.432107e-06	-1.435268e-09	-3.770101e+01	-9.187684e+01
2.300000e-07	-5.423714e-06	-1.457994e-09	-3.764276e+01	-9.178124e+01
2.400000e-07	-5.414774e-06	-1.419804e-09	-3.758071e+01	-9.168109e+01
2.500000e-07	-5.405104e-06	-1.383808e-09	-3.751360e+01	-9.157633e+01
2.600000e-07	-5.394697e-06	-1.398813e-09	-3.744137e+01	-9.146695e+01
2.700000e-07	-5.383744e-06	-1.399318e-09	-3.736535e+01	-9.135298e+01
2.800000e-07	-5.372385e-06	-1.392977e-09	-3.728651e+01	-9.123448e+01
2.900000e-07	-5.360654e-06	-1.399430e-09	-3.720510e+01	-9.111154e+01
3.000000e-07	-5.348514e-06	-1.407186e-09	-3.712084e+01	-9.098429e+01
3.100000e-07	-5.335933e-06	-1.409117e-09	-3.703352e+01	-9.085288e+01
3.200000e-07	-5.322916e-06	-1.386387e-09	-3.694318e+01	-9.071750e+01
3.300000e-07	-5.309475e-06	-1.382457e-09	-3.684989e+01	-9.057836e+01
3.400000e-07	-5.295646e-06	-1.370869e-09	-3.675392e+01	-9.043569e+01
3.500000e-07	-5.281428e-06	-1.384042e-09	-3.665524e+01	-9.028974e+01
3.600000e-07	-5.266849e-06	-1.370127e-09	-3.655406e+01	-9.014080e+01
3.700000e-07	-5.251879e-06	-1.379774e-09	-3.645016e+01	-8.998914e+01
3.800000e-07	-5.236321e-06	-1.385323e-09	-3.634217e+01	-8.983505e+01
3.900000e-07	-5.220108e-06	-1.384475e-09	-3.622965e+01	-8.967884e+01
4.000000e-07	-5.203419e-06	-1.347960e-09	-3.611382e+01	-8.952080e+01
4.100000e-07	-5.186511e-06	-1.362102e-09	-3.599648e+01	-8.936123e+01
4.200000e-07	-5.169318e-06	-1.377711e-09	-3.587715e+01	-8.920043e+01
4.300000e-07	-5.151722e-06	-1.355778e-09	-3.575502e+01	-8.903866e+01
4.400000e-07	-5.133789e-06	-1.341607e-09	-3.563056e+01	-8.887621e+01
4.500000e-07	-5.115469e-06	-1.389943e-09	-3.550341e+01	-8.871332e+01
4.600000e-07	-5.096760e-06	-1.371599e-09	-3.537357e+01	-8.855022e+01
4.700000e-07	-5.077715e-06	-1.324335e-09	-3.524138e+01	-8.838711e+01
4.800000e-07	-5.058360e-06	-1.350355e-09	-3.510705e+01	-8.822418e+01
4.900000e-07	-5.038714e-06	-1.378842e-09	-3.497070e+01	-8.806157e+01
5.000000e-07	-5.018815e-06	-1.321056e-09	-3.483260e+01	-8.789941e+01
5.100000e-07	-4.998742e-06	-1.315599e-09	-3.469328e+01	-8.773778e+01
5.200000e-07	-4.978400e-06	-1.363248e-09	-3.455210e+01	-8.757675e+01
5.300000e-07	-4.957682e-06	-1.345243e-09	-3.440831e+01	-8.741632e+01
5.400000e-07	-4.936603e-06	-1.322233e-09	-3.426201e+01	-8.725650e+01
5.500000e-07	-4.915165e-06	-1.358846e-09	-3.411322e+01	-8.709722e+01
5.600000e-07	-4.893277e-06	-1.343270e-09	-3.396131e+01	-8.693842e+01
5.700000e-07	-4.870995e-06	-1.294482e-09	-3.380667e+01	-8.677999e+01
5.800000e-07	-4.848438e-06	-1.326386e-09	-3.365011e+01	-8.662177e+01
5.900000e-07	-4.825576e-06	-1.347433e-09	-3.349144e+01	-8.646359e+01
6.000000e-07	-4.802365e-06	-1.304530e-09	-3.333035e+01	-8.630527e+01
6.100000e-07	-4.778897e-06	-1.301033e-09	-3.316747e+01	-8.614657e+01
6.200000e-07	-4.755195e-06	-1.332081e-09	-3.300297e+01	-8.598726e+01
6.300000e-07	-4.731262e-06	-1.302397e-09	-3.283686e+01	-8.582707e+01
6.400000e-07	-4.707116e-06	-1.292885e-09	-3.266928e+01	-8.566573e+01
6.500000e-07	-4.682592e-06	-1.321355e-09	-3.249907e+01	-8.550296e+01
6.600000e-07	-4.657515e-06	-1.315516e-09	-3.232503e+01	-8.533845e+01
6.700000e-07	-4.631857e-06	-1.288553e-09	-3.214695e+01	-8.517191e+01
6.800000e-07	-4.605651e-06	-1.303360e-09	-3.196508e+01	-8.500304e+01
6.900000e-07	-4.578864e-06	-1.297426e-09	-3.177916e+01	-8.483156e+01
7.000000e-07	-4.551683e-06	-1.277053e-09	-3.159051e+01	-8.465718e+01
7.100000e-07	-4.524241e-06	-1.282151e-09	-3.140006e+01	-8.447962e+01
7.200000e-07	-4.496561e-06	-1.296888e-09	-3.120795e+01	-8.429863e+01
7.300000e-07	-4.468742e-06	-1.285923e-09	-3.101487e+01	-8.411397e+01
7.400000e-07	-4.440766e-06	-1.288657e-09	-3.082071e+01	-8.392542e+01
7.500000e-07	-4.412588e-06	-1.289404e-09	-3.062514e+01	-8.373278e+01
7.600000e-07	-4.384158e-06	-1.274447e-09	-3.042782e+01	-8.353589e+01
7.700000e-07	-4.355401e-06	-1.260877e-09	-3.022824e+01	-8.333460e+01
7.800000e-07	-4.326221e-06	-1.263119e-09	-3.002572e+01	-8.312882e+01
7.900000e-07	-4.296619e-06	-1.258564e-09	-2.982027e+01	-8.291845e+01
8.000000e-07	-4.266739e-06	-1.255140e-09	-2.961289e+01	-8.270345e+01
8.100000e-07	-4.236580e-06	-1.258075e-09	-2.940357e+01	-8.248381e+01
8.200000e-07	-4.206162e-06	-1.252611e-09	-2.919245e+01	-8.225955e+01
8.300000e-07	-4.175569e-06	-1.241604e-09	-2.898013e+01	-8.203070e+01
8.400000e-07	-4.144617e-06	-1.240577e-09	-2.876531e+01	-8.179736e+01
8.500000e-07	-4.113314e-06	-1.241360e-09	-2.854805e+01	-8.155963e+01
8.600000e-07	-4.081848e-06	-1.234881e-09	-2.832967e+01	-8.131765e+01
8.700000e-07	-4.050188e-06	-1.230538e-09	-2.810994e+01	-8.107157e+01
8.800000e-07	-4.018355e-06	-1.226164e-09	-2.788900e+01	-8.082158e+01
8.900000e-07	-3.986364e-06	-1.218347e-09	-2.766697e+01	-8.056788e+01
9.000000e-07	-3.954120e-06	-1.210430e-09	-2.744319e+01	-8.031069e+01
9.100000e-07	-3.921564e-06	-1.209315e-09	-2.721723e+01	-8.005024e+01
9.200000e-07	-3.888571e-06	-1.202921e-09	-2.698825e+01	-7.978678e+01
9.300000e-07	-3.855181e-06	-1.201118e-09	-2.675651e+01	-7.952055e+01
9.400000e-07	-3.821434e-06	-1.202624e-09	-2.652229e+01	-7.925180e+01
9.500000e-07	-3.787165e-06	-1.199712e-09	-2.628445e+01	-7.898077e+01
9.600000e-07	-3.752455e-06	-1.186598e-09	-2.604355e+01	-7.870771e+01
9.700000e-07	-3.717484e-06	-1.178272e-09	-2.580084e+01	-7.843284e+01
9.800000e-07	-3.682190e-06	-1.172645e-09	-2.555588e+01	-7.815639e+01
9.900000e-07	-3.646605e-06	-1.167462e-09	-2.530890e+01	-7.787855e+01
1.000000e-06	-3.610881e-06	-1.162876e-09	-2.506097e+01	-7.759951e+01
1.010000e-06	-3.575024e-06	-1.163860e-09	-2.481211e+01	-7.731941e+01
1.020000e-06	-3.539015e-06	-1.158815e-09	-2.456219e+01	-7.703840e+01
1.030000e-06	-3.502780e-06	-1.152422e-09	-2.431070e+01	-7.675656e+01
1.040000e-06	-3.466317e-06	-1.147469e-09	-2.405764e+01	-7.647398e+01
1.050000e-06	-3.429673e-06	-1.143082e-09	-2.380331e+01	-7.619068e+01
1.060000e-06	-3.392770e-06	-1.133638e-09	-2.354719e+01	-7.590668e+01
1.070000e-06	-3.355559e-06	-1.126144e-09	-2.328893e+01	-7.562194e+01
1.080000e-06	-3.318019e-06	-1.121759e-09	-2.302839e+01	-7.533639e+01
1.090000e-06	-3.280193e-06	-1.115913e-09	-2.276586e+01	-7.504994e+01
1.100000e-06	-3.242176e-06	-1.109727e-09	-2.250201e+01	-7.476244e+01
1.110000e-06	-3.204006e-06	-1.106005e-09	-2.223709e+01	-7.447373e+01
1.120000e-06	-3.165634e-06	-1.098932e-09	-2.197078e+01	-7.418361e+01
1.130000e-06	-3.127057e-06	-1.090651e-09	-2.170303e+01	-7.389185e+01
1.140000e-06	-3.088268e-06	-1.087560e-09	-2.143382e+01	-7.359818e+01
1.150000e-06	-3.049176e-06	-1.086075e-09	-2.116251e+01	-7.330231e+01
1.160000e-06	-3.009891e-06	-1.082612e-09	-2.088986e+01	-7.300395e+01
1.170000e-06	-2.970567e-06	-1.077805e-09	-2.061693e+01	-7.270275e+01
1.180000e-06	-2.931074e-06	-1.072297e-09	-2.034283e+01	-7.239838e+01
1.190000e-06	-2.891346e-06	-1.062979e-09	-2.006711e+01	-7.209048e+01
1.200000e-06	-2.851505e-06	-1.052934e-09	-1.979059e+01	-7.177867e+01
1.210000e-06	-2.811598e-06	-1.043884e-09	-1.951362e+01	-7.146259e+01
1.220000e-06	-2.771566e-06	-1.038237e-09	-1.923579e+01	-7.114186e+01
1.230000e-06	-2.731328e-06	-1.032581e-09	-1.895652e+01	-7.081611e+01
1.240000e-06	-2.690944e-06	-1.027634e-09	-1.867623e+01	-7.048496e+01
1.250000e-06	-2.650409e-06	-1.021467e-09	-1.839490e+01	-7.014807e+01
1.260000e-06	-2.609594e-06	-1.016571e-09	-1.811163e+01	-6.980508e+01
1.270000e-06	-2.568526e-06	-1.010368e-09	-1.782660e+01	-6.945566e+01
1.280000e-06	-2.527105e-06	-1.003436e-09	-1.753912e+01	-6.909951e+01
1.290000e-06	-2.485183e-06	-9.946951e-10	-1.724817e+01	-6.873632e+01
1.300000e-06	-2.442994e-06	-9.863874e-10	-1.695536e+01	-6.836582e+01
1.310000e-06	-2.400659e-06	-9.796790e-10	-1.666154e+01	-6.798777e+01
1.320000e-06	-2.358039e-06	-9.750824e-10	-1.636574e+01	-6.760194e+01
1.330000e-06	-2.315152e-06	-9.701435e-10	-1.606808e+01	-6.720814e+01
1.340000e-06	-2.272066e-06	-9.668609e-10	-1.576905e+01	-6.680618e+01
1.350000e-06	-2.228787e-06	-9.649975e-10	-1.546868e+01	-6.639592e+01
1.360000e-06	-2.185325e-06	-9.622571e-10	-1.516704e+01	-6.597724e+01
1.370000e-06	-2.141703e-06	-9.562999e-10	-1.486428e+01	-6.555001e+01
1.380000e-06	-2.097962e-06	-9.467499e-10	-1.456070e+01	-6.511417e+01
1.390000e-06	-2.054124e-06	-9.326867e-10	-1.425645e+01	-6.466963e+01
1.400000e-06	-2.010185e-06	-9.171732e-10	-1.395150e+01	-6.421634e+01
1.410000e-06	-1.966162e-06	-9.033398e-10	-1.364595e+01	-6.375425e+01
1.420000e-06	-1.922091e-06	-8.930985e-10	-1.334009e+01	-6.328332e+01
1.430000e-06	-1.877990e-06	-8.871073e-10	-1.303401e+01	-6.280350e+01
1.440000e-06	-1.833801e-06	-8.831800e-10	-1.272732e+01	-6.231475e+01
1.450000e-06	-1.789530e-06	-8.788107e-10	-1.242006e+01	-6.181701e+01
1.460000e-06	-1.745182e-06	-8.717641e-10	-1.211226e+01	-6.131021e+01
1.470000e-06	-1.700628e-06	-8.617248e-10	-1.180305e+01	-6.079427e+01
1.480000e-06	-1.655811e-06	-8.495660e-10	-1.149200e+01	-6.026906e+01
1.490000e-06	-1.610783e-06	-8.381735e-10	-1.117948e+01	-5.973444e+01
1.500000e-06	-1.565666e-06	-8.259551e-10	-1.086635e+01	-5.919023e+01
1.510000e-06	-1.520505e-06	-8.147936e-10	-1.055291e+01	-5.863621e+01
1.520000e-06	-1.475222e-06	-8.055977e-10	-1.023864e+01	-5.807211e+01
1.530000e-06	-1.429825e-06	-7.976012e-10	-9.923562e+00	-5.749762e+01
1.540000e-06	-1.384339e-06	-7.895740e-10	-9.607872e+00	-5.691235e+01
1.550000e-06	-1.338737e-06	-7.819334e-10	-9.291377e+00	-5.631588e+01
1.560000e-06	-1.292972e-06	-7.725393e-10	-8.973745e+00	-5.570772e+01
1.570000e-06	-1.247139e-06	-7.593354e-10	-8.655647e+00	-5.508730e+01
1.580000e-06	-1.201312e-06	-7.451929e-10	-8.337587e+00	-5.445402e+01
1.590000e-06	-1.155438e-06	-7.317152e-10	-8.019203e+00	-5.380717e+01
1.600000e-06	-1.109447e-06	-7.183093e-10	-7.700007e+00	-5.314601e+01
1.610000e-06	-1.063337e-06	-7.074861e-10	-7.379990e+00	-5.246971e+01
1.620000e-06	-1.017218e-06	-6.992855e-10	-7.059904e+00	-5.177738e+01
1.630000e-06	-9.709472e-07	-6.912921e-10	-6.738764e+00	-5.106808e+01
1.640000e-06	-9.245545e-07	-6.833684e-10	-6.416780e+00	-5.034080e+01
1.650000e-06	-8.781556e-07	-6.750359e-10	-6.094754e+00	-4.959446e+01
1.660000e-06	-8.317344e-07	-6.638817e-10	-5.772572e+00	-4.882794e+01
1.670000e-06	-7.853351e-07	-6.486999e-10	-5.450542e+00	-4.804010e+01
1.680000e-06	-7.388634e-07	-6.314537e-10	-5.128010e+00	-4.722972e+01
1.690000e-06	-6.923891e-07	-6.151556e-10	-4.805459e+00	-4.639557e+01
1.700000e-06	-6.459338e-07	-5.990232e-10	-4.483040e+00	-4.553639e+01
1.710000e-06	-5.993829e-07	-5.855514e-10	-4.159958e+00	-4.465092e+01
1.720000e-06	-5.527688e-07	-5.740470e-10	-3.836438e+00	-4.373787e+01
1.730000e-06	-5.060094e-07	-5.621655e-10	-3.511909e+00	-4.279596e+01
1.740000e-06	-4.591475e-07	-5.495324e-10	-3.186668e+00	-4.182396e+01
1.750000e-06	-4.123845e-07	-5.346297e-10	-2.862115e+00	-4.082061e+01
1.760000e-06	-3.656002e-07	-5.159571e-10	-2.537412e+00	-3.978472e+01
1.770000e-06	-3.187491e-07	-4.948867e-10	-2.212247e+00	-3.871516e+01
1.780000e-06	-2.718812e-07	-4.747241e-10	-1.886965e+00	-3.761083e+01
1.790000e-06	-2.250182e-07	-4.577897e-10	-1.561717e+00	-3.647071e+01
1.800000e-06	-1.781649e-07	-4.439351e-10	-1.236536e+00	-3.529388e+01
1.810000e-06	-1.312115e-07	-4.308869e-10	-9.106609e-01	-3.407949e+01
1.820000e-06	-8.423723e-08	-4.168794e-10	-5.846403e-01	-3.282681e+01
1.830000e-06	-3.728803e-08	-3.990341e-10	-2.587940e-01	-3.153521e+01
1.840000e-06	9.652426e-09	-3.780557e-10	6.699172e-02	-3.020420e+01
1.850000e-06	5.663930e-08	-3.571213e-10	3.930996e-01	-2.883343e+01
1.860000e-06	1.036581e-07	-3.363270e-10	7.194291e-01	-2.742265e+01
1.870000e-06	1.506020e-07	-3.154758e-10	1.045239e+00	-2.597181e+01
1.880000e-06	1.974779e-07	-2.966235e-10	1.370576e+00	-2.448099e+01
1.890000e-06	2.443799e-07	-2.768059e-10	1.696095e+00	-2.295043e+01
1.900000e-06	2.912798e-07	-2.558988e-10	2.021599e+00	-2.138055e+01
1.910000e-06	3.380582e-07	-2.353102e-10	2.346260e+00	-1.977192e+01
1.920000e-06	3.847757e-07	-2.114763e-10	2.670498e+00	-1.812530e+01
1.930000e-06	4.314897e-07	-1.843501e-10	2.994712e+00	-1.644161e+01
1.940000e-06	4.782267e-07	-1.584574e-10	3.319086e+00	-1.472194e+01
1.950000e-06	5.249046e-07	-1.353821e-10	3.643049e+00	-1.296757e+01
1.960000e-06	5.714793e-07	-1.136480e-10	3.966296e+00	-1.117992e+01
1.970000e-06	6.180267e-07	-9.303788e-11	4.289354e+00	-9.360595e+00
1.980000e-06	6.645589e-07	-7.062057e-11	4.612306e+00	-7.511350e+00
1.990000e-06	7.110276e-07	-4.211789e-11	4.934818e+00	-5.634088e+00
2.000000e-06	7.574275e-07	-1.020993e-11	5.256852e+00	-3.730860e+00
2.010000e-06	8.038353e-07	2.176165e-11	5.578941e+00	-1.803850e+00
2.020000e-06	8.502096e-07	5.316782e-11	5.900797e+00	1.446356e-01
2.030000e-06	8.964324e-07	8.255401e-11	6.221602e+00	2.112174e+00
2.040000e-06	9.425645e-07	1.082316e-10	6.541777e+00	4.096242e+00
2.050000e-06	9.887465e-07	1.313795e-10	6.862299e+00	6.094228e+00
2.060000e-06	1.034892e-06	1.546382e-10	7.182568e+00	8.103446e+00
2.070000e-06	1.080885e-06	1.801419e-10	7.501776e+00	1.012115e+01
2.080000e-06	1.126795e-06	2.101041e-10	7.820410e+00	1.214454e+01
2.090000e-06	1.172654e-06	2.441062e-10	8.138694e+00	1.417079e+01
2.100000e-06	1.218412e-06	2.772866e-10	8.456271e+00	1.619706e+01
2.110000e-06	1.264042e-06	3.068632e-10	8.772962e+00	1.822050e+01
2.120000e-06	1.309569e-06	3.333263e-10	9.088935e+00	2.023828e+01
2.130000e-06	1.355051e-06	3.586325e-10	9.404599e+00	2.224761e+01
2.140000e-06	1.400490e-06	3.836876e-10	9.719962e+00	2.424572e+01
2.150000e-06	1.445860e-06	4.069729e-10	1.003485e+01	2.622991e+01
2.160000e-06	1.491117e-06	4.301163e-10	1.034895e+01	2.819756e+01
2.170000e-06	1.536199e-06	4.556963e-10	1.066184e+01	3.014612e+01
2.180000e-06	1.581197e-06	4.838629e-10	1.097414e+01	3.207315e+01
2.190000e-06	1.626177e-06	5.146109e-10	1.128632e+01	3.397633e+01
2.200000e-06	1.671042e-06	5.464953e-10	1.159770e+01	3.585343e+01
2.210000e-06	1.715720e-06	5.746240e-10	1.190779e+01	3.770239e+01
2.220000e-06	1.760225e-06	5.975226e-10	1.221667e+01	3.952126e+01
2.230000e-06	1.804615e-06	6.169687e-10	1.252475e+01	4.130824e+01
2.240000e-06	1.848875e-06	6.341217e-10	1.283194e+01	4.306171e+01
2.250000e-06	1.892992e-06	6.515102e-10	1.313813e+01	4.478019e+01
2.260000e-06	1.937005e-06	6.722580e-10	1.344360e+01	4.646236e+01
2.270000e-06	1.980905e-06	6.974729e-10	1.374828e+01	4.810709e+01
2.280000e-06	2.024754e-06	7.226483e-10	1.405261e+01	4.971338e+01
2.290000e-06	2.068602e-06	7.456392e-10	1.435693e+01	5.128045e+01
2.300000e-06	2.112378e-06	7.686059e-10	1.466075e+01	5.280764e+01
2.310000e-06	2.156049e-06	7.893998e-10	1.496385e+01	5.429448e+01
2.320000e-06	2.199609e-06	8.069348e-10	1.526617e+01	5.574067e+01
2.330000e-06	2.243043e-06	8.209357e-10	1.556762e+01	5.714604e+01
2.340000e-06	2.286307e-06	8.358048e-10	1.586789e+01	5.851060e+01
2.350000e-06	2.329353e-06	8.533881e-10	1.616665e+01	5.983449e+01
2.360000e-06	2.372181e-06	8.713482e-10	1.646389e+01	6.111800e+01
2.370000e-06	2.414759e-06	8.897457e-10	1.675940e+01	6.236153e+01
2.380000e-06	2.457029e-06	9.081415e-10	1.705277e+01	6.356562e+01
2.390000e-06	2.498949e-06	9.251064e-10	1.734371e+01	6.473093e+01
2.400000e-06	2.540488e-06	9.413679e-10	1.763201e+01	6.585818e+01
2.410000e-06	2.581722e-06	9.552994e-10	1.791819e+01	6.694823e+01
2.420000e-06	2.622736e-06	9.677773e-10	1.820285e+01	6.800198e+01
2.430000e-06	2.663459e-06	9.807595e-10	1.848548e+01	6.902042e+01
2.440000e-06	2.703979e-06	9.937934e-10	1.876671e+01	7.000460e+01
2.450000e-06	2.744328e-06	1.008806e-09	1.904674e+01	7.095560e+01
2.460000e-06	2.784453e-06	1.024796e-09	1.932522e+01	7.187454e+01
2.470000e-06	2.824460e-06	1.039381e-09	1.960289e+01	7.276257e+01
2.480000e-06	2.864374e-06	1.051381e-09	1.987991e+01	7.362084e+01
2.490000e-06	2.904203e-06	1.062492e-09	2.015634e+01	7.445052e+01
2.500000e-06	2.943928e-06	1.073566e-09	2.043205e+01	7.525277e+01
2.510000e-06	2.983485e-06	1.085713e-09	2.070658e+01	7.602872e+01
2.520000e-06	3.022804e-06	1.099684e-09	2.097948e+01	7.677949e+01
2.530000e-06	3.061924e-06	1.114056e-09	2.125099e+01	7.750616e+01
2.540000e-06	3.100829e-06	1.127330e-09	2.152100e+01	7.820977e+01
2.550000e-06	3.139469e-06	1.135819e-09	2.178918e+01	7.889133e+01
2.560000e-06	3.177871e-06	1.140573e-09	2.205571e+01	7.955178e+01
2.570000e-06	3.216058e-06	1.146414e-09	2.232074e+01	8.019201e+01
2.580000e-06	3.254013e-06	1.153515e-09	2.258416e+01	8.081286e+01
2.590000e-06	3.291825e-06	1.163037e-09	2.284659e+01	8.141510e+01
2.600000e-06	3.329453e-06	1.174493e-09	2.310774e+01	8.199945e+01
2.610000e-06	3.366773e-06	1.189615e-09	2.336676e+01	8.256656e+01
2.620000e-06	3.403796e-06	1.203343e-09	2.362372e+01	8.311699e+01
2.630000e-06	3.440594e-06	1.211566e-09	2.387911e+01	8.365128e+01
2.640000e-06	3.477142e-06	1.216159e-09	2.413277e+01	8.416989e+01
2.650000e-06	3.513389e-06	1.219748e-09	2.438433e+01	8.467321e+01
2.660000e-06	3.549455e-06	1.222657e-09	2.463465e+01	8.516160e+01
2.670000e-06	3.585393e-06	1.226777e-09	2.488407e+01	8.563533e+01
2.680000e-06	3.621210e-06	1.234639e-09	2.513266e+01	8.609467e+01
2.690000e-06	3.656899e-06	1.245616e-09	2.538035e+01	8.653979e+01
2.700000e-06	3.692422e-06	1.255851e-09	2.562690e+01	8.697087e+01
2.710000e-06	3.727701e-06	1.259383e-09	2.587174e+01	8.738803e+01
2.720000e-06	3.762671e-06	1.259830e-09	2.611445e+01	8.779138e+01
2.730000e-06	3.797226e-06	1.260677e-09	2.635428e+01	8.818098e+01
2.740000e-06	3.831320e-06	1.261718e-09	2.659091e+01	8.855690e+01
2.750000e-06	3.864967e-06	1.263484e-09	2.682443e+01	8.891918e+01
2.760000e-06	3.898140e-06	1.268373e-09	2.705466e+01	8.926787e+01
2.770000e-06	3.930864e-06	1.276697e-09	2.728178e+01	8.960301e+01
2.780000e-06	3.963197e-06	1.286009e-09	2.750618e+01	8.992465e+01
2.790000e-06	3.995317e-06	1.294467e-09	2.772911e+01	9.023285e+01
2.800000e-06	4.027330e-06	1.302734e-09	2.795129e+01	9.052767e+01
2.810000e-06	4.059180e-06	1.308071e-09	2.817234e+01	9.080922e+01
2.820000e-06	4.090873e-06	1.308236e-09	2.839230e+01	9.107760e+01
2.830000e-06	4.122372e-06	1.306488e-09	2.861092e+01	9.133295e+01
2.840000e-06	4.153512e-06	1.306445e-09	2.882704e+01	9.157545e+01
2.850000e-06	4.184330e-06	1.310639e-09	2.904094e+01	9.180528e+01
2.860000e-06	4.214882e-06	1.319566e-09	2.925298e+01	9.202268e+01
2.870000e-06	4.245072e-06	1.328461e-09	2.946251e+01	9.222792e+01
2.880000e-06	4.274982e-06	1.334130e-09	2.967009e+01	9.242128e+01
2.890000e-06	4.304618e-06	1.337280e-09	2.987578e+01	9.260309e+01
2.900000e-06	4.333978e-06	1.337248e-09	3.007956e+01	9.277372e+01
