# Temperatura_=_12.63
# Concentracion g/m^3_=_1620.0
# C_Vs_to_Am_M_A/Vsm_=_65563218390.804596
# pendiente_HvsI_1/m_=_3716.3
# ordenada_HvsI_A/m_=_1297.0
# frecuencia_Hz_=_135108.6149187092

Tiempo_(s)	Campo_(V.s)	Magnetizacion_(V.s)	Campo_(kA/m)	Magnetizacion_(A/m)
0.000000e+00	-5.518132e-06	-1.793137e-09	-3.836275e+01	-1.175523e+02
1.000000e-08	-5.518246e-06	-1.793077e-09	-3.836354e+01	-1.175453e+02
2.000000e-08	-5.518083e-06	-1.796086e-09	-3.836240e+01	-1.175407e+02
3.000000e-08	-5.517558e-06	-1.798794e-09	-3.835875e+01	-1.175380e+02
4.000000e-08	-5.516573e-06	-1.797392e-09	-3.835191e+01	-1.175370e+02
5.000000e-08	-5.515035e-06	-1.786094e-09	-3.834121e+01	-1.175372e+02
6.000000e-08	-5.512850e-06	-1.764331e-09	-3.832602e+01	-1.175382e+02
7.000000e-08	-5.510075e-06	-1.766448e-09	-3.830673e+01	-1.175395e+02
8.000000e-08	-5.506838e-06	-1.836746e-09	-3.828423e+01	-1.175406e+02
9.000000e-08	-5.503174e-06	-1.889339e-09	-3.825876e+01	-1.175410e+02
1.000000e-07	-5.499055e-06	-1.807695e-09	-3.823012e+01	-1.175401e+02
1.100000e-07	-5.494660e-06	-1.722428e-09	-3.819956e+01	-1.175373e+02
1.200000e-07	-5.490106e-06	-1.776828e-09	-3.816791e+01	-1.175321e+02
1.300000e-07	-5.485233e-06	-1.815772e-09	-3.813402e+01	-1.175238e+02
1.400000e-07	-5.479927e-06	-1.790361e-09	-3.809714e+01	-1.175119e+02
1.500000e-07	-5.474195e-06	-1.716052e-09	-3.805729e+01	-1.174959e+02
1.600000e-07	-5.468095e-06	-1.803365e-09	-3.801488e+01	-1.174750e+02
1.700000e-07	-5.461571e-06	-1.839986e-09	-3.796952e+01	-1.174488e+02
1.800000e-07	-5.454572e-06	-1.776394e-09	-3.792087e+01	-1.174167e+02
1.900000e-07	-5.447268e-06	-1.727036e-09	-3.787009e+01	-1.173783e+02
2.000000e-07	-5.439712e-06	-1.775736e-09	-3.781756e+01	-1.173330e+02
2.100000e-07	-5.431840e-06	-1.835354e-09	-3.776283e+01	-1.172805e+02
2.200000e-07	-5.423751e-06	-1.807029e-09	-3.770659e+01	-1.172203e+02
2.300000e-07	-5.415394e-06	-1.790085e-09	-3.764850e+01	-1.171521e+02
2.400000e-07	-5.406539e-06	-1.799988e-09	-3.758693e+01	-1.170756e+02
2.500000e-07	-5.396970e-06	-1.826574e-09	-3.752041e+01	-1.169905e+02
2.600000e-07	-5.386664e-06	-1.785031e-09	-3.744876e+01	-1.168967e+02
2.700000e-07	-5.375819e-06	-1.778101e-09	-3.737336e+01	-1.167940e+02
2.800000e-07	-5.364494e-06	-1.778113e-09	-3.729464e+01	-1.166822e+02
2.900000e-07	-5.352796e-06	-1.808592e-09	-3.721331e+01	-1.165615e+02
3.000000e-07	-5.340784e-06	-1.773287e-09	-3.712980e+01	-1.164316e+02
3.100000e-07	-5.328349e-06	-1.755407e-09	-3.704335e+01	-1.162928e+02
3.200000e-07	-5.315442e-06	-1.749132e-09	-3.695362e+01	-1.161451e+02
3.300000e-07	-5.302172e-06	-1.777686e-09	-3.686136e+01	-1.159886e+02
3.400000e-07	-5.288553e-06	-1.744314e-09	-3.676668e+01	-1.158237e+02
3.500000e-07	-5.274459e-06	-1.729560e-09	-3.666870e+01	-1.156504e+02
3.600000e-07	-5.259932e-06	-1.764718e-09	-3.656771e+01	-1.154691e+02
3.700000e-07	-5.245065e-06	-1.781120e-09	-3.646435e+01	-1.152801e+02
3.800000e-07	-5.229618e-06	-1.717599e-09	-3.635696e+01	-1.150837e+02
3.900000e-07	-5.213561e-06	-1.729268e-09	-3.624533e+01	-1.148803e+02
4.000000e-07	-5.197200e-06	-1.782787e-09	-3.613159e+01	-1.146704e+02
4.100000e-07	-5.180477e-06	-1.726536e-09	-3.601533e+01	-1.144542e+02
4.200000e-07	-5.163313e-06	-1.680437e-09	-3.589599e+01	-1.142322e+02
4.300000e-07	-5.145886e-06	-1.766398e-09	-3.577485e+01	-1.140049e+02
4.400000e-07	-5.128185e-06	-1.784461e-09	-3.565178e+01	-1.137726e+02
4.500000e-07	-5.110076e-06	-1.681865e-09	-3.552589e+01	-1.135358e+02
4.600000e-07	-5.091494e-06	-1.715876e-09	-3.539670e+01	-1.132950e+02
4.700000e-07	-5.072522e-06	-1.776960e-09	-3.526481e+01	-1.130504e+02
4.800000e-07	-5.053268e-06	-1.702054e-09	-3.513095e+01	-1.128026e+02
4.900000e-07	-5.033703e-06	-1.665202e-09	-3.499493e+01	-1.125519e+02
5.000000e-07	-5.013917e-06	-1.750076e-09	-3.485738e+01	-1.122986e+02
5.100000e-07	-4.993902e-06	-1.699133e-09	-3.471823e+01	-1.120432e+02
5.200000e-07	-4.973480e-06	-1.640189e-09	-3.457625e+01	-1.117858e+02
5.300000e-07	-4.952729e-06	-1.720816e-09	-3.443199e+01	-1.115267e+02
5.400000e-07	-4.931738e-06	-1.744272e-09	-3.428606e+01	-1.112662e+02
5.500000e-07	-4.910327e-06	-1.643532e-09	-3.413720e+01	-1.110046e+02
5.600000e-07	-4.888515e-06	-1.681459e-09	-3.398557e+01	-1.107419e+02
5.700000e-07	-4.866404e-06	-1.734237e-09	-3.383185e+01	-1.104783e+02
5.800000e-07	-4.843998e-06	-1.664940e-09	-3.367608e+01	-1.102139e+02
5.900000e-07	-4.821270e-06	-1.643423e-09	-3.351807e+01	-1.099487e+02
6.000000e-07	-4.798121e-06	-1.708038e-09	-3.335714e+01	-1.096828e+02
6.100000e-07	-4.774662e-06	-1.665451e-09	-3.319405e+01	-1.094162e+02
6.200000e-07	-4.750967e-06	-1.627968e-09	-3.302932e+01	-1.091487e+02
6.300000e-07	-4.727048e-06	-1.674580e-09	-3.286303e+01	-1.088805e+02
6.400000e-07	-4.702950e-06	-1.675398e-09	-3.269549e+01	-1.086112e+02
6.500000e-07	-4.678536e-06	-1.632190e-09	-3.252577e+01	-1.083409e+02
6.600000e-07	-4.653641e-06	-1.655947e-09	-3.235269e+01	-1.080693e+02
6.700000e-07	-4.628181e-06	-1.661796e-09	-3.217570e+01	-1.077963e+02
6.800000e-07	-4.602179e-06	-1.621571e-09	-3.199493e+01	-1.075217e+02
6.900000e-07	-4.575612e-06	-1.621871e-09	-3.181023e+01	-1.072452e+02
7.000000e-07	-4.548534e-06	-1.634459e-09	-3.162198e+01	-1.069666e+02
7.100000e-07	-4.521114e-06	-1.613908e-09	-3.143135e+01	-1.066858e+02
7.200000e-07	-4.493493e-06	-1.613122e-09	-3.123932e+01	-1.064023e+02
7.300000e-07	-4.465752e-06	-1.632494e-09	-3.104646e+01	-1.061161e+02
7.400000e-07	-4.437861e-06	-1.616023e-09	-3.085256e+01	-1.058268e+02
7.500000e-07	-4.409742e-06	-1.601107e-09	-3.065708e+01	-1.055343e+02
7.600000e-07	-4.381363e-06	-1.602556e-09	-3.045979e+01	-1.052382e+02
7.700000e-07	-4.352684e-06	-1.592445e-09	-3.026041e+01	-1.049383e+02
7.800000e-07	-4.323596e-06	-1.573138e-09	-3.005818e+01	-1.046345e+02
7.900000e-07	-4.294169e-06	-1.578916e-09	-2.985360e+01	-1.043264e+02
8.000000e-07	-4.264525e-06	-1.571187e-09	-2.964751e+01	-1.040140e+02
8.100000e-07	-4.234606e-06	-1.554688e-09	-2.943951e+01	-1.036969e+02
8.200000e-07	-4.204363e-06	-1.550219e-09	-2.922926e+01	-1.033752e+02
8.300000e-07	-4.173768e-06	-1.553819e-09	-2.901655e+01	-1.030485e+02
8.400000e-07	-4.142815e-06	-1.536288e-09	-2.880137e+01	-1.027169e+02
8.500000e-07	-4.111573e-06	-1.534151e-09	-2.858417e+01	-1.023801e+02
8.600000e-07	-4.080155e-06	-1.537055e-09	-2.836575e+01	-1.020380e+02
8.700000e-07	-4.048582e-06	-1.523490e-09	-2.814625e+01	-1.016907e+02
8.800000e-07	-4.016850e-06	-1.505762e-09	-2.792564e+01	-1.013380e+02
8.900000e-07	-3.984971e-06	-1.508217e-09	-2.770402e+01	-1.009800e+02
9.000000e-07	-3.952856e-06	-1.498274e-09	-2.748075e+01	-1.006165e+02
9.100000e-07	-3.920448e-06	-1.484853e-09	-2.725545e+01	-1.002475e+02
9.200000e-07	-3.887683e-06	-1.487704e-09	-2.702766e+01	-9.987315e+01
9.300000e-07	-3.854505e-06	-1.491484e-09	-2.679700e+01	-9.949335e+01
9.400000e-07	-3.820849e-06	-1.476488e-09	-2.656302e+01	-9.910814e+01
9.500000e-07	-3.786783e-06	-1.469427e-09	-2.632619e+01	-9.871755e+01
9.600000e-07	-3.752265e-06	-1.465704e-09	-2.608622e+01	-9.832161e+01
9.700000e-07	-3.717242e-06	-1.447733e-09	-2.584273e+01	-9.792035e+01
9.800000e-07	-3.681905e-06	-1.434060e-09	-2.559706e+01	-9.751382e+01
9.900000e-07	-3.646325e-06	-1.438819e-09	-2.534970e+01	-9.710203e+01
1.000000e-06	-3.610615e-06	-1.438754e-09	-2.510145e+01	-9.668503e+01
1.010000e-06	-3.574847e-06	-1.426559e-09	-2.485278e+01	-9.626283e+01
1.020000e-06	-3.538954e-06	-1.423557e-09	-2.460325e+01	-9.583547e+01
1.030000e-06	-3.502897e-06	-1.418799e-09	-2.435258e+01	-9.540295e+01
1.040000e-06	-3.466676e-06	-1.403436e-09	-2.410077e+01	-9.496527e+01
1.050000e-06	-3.430194e-06	-1.393859e-09	-2.384714e+01	-9.452243e+01
1.060000e-06	-3.393409e-06	-1.394033e-09	-2.359140e+01	-9.407441e+01
1.070000e-06	-3.356337e-06	-1.383493e-09	-2.333368e+01	-9.362118e+01
1.080000e-06	-3.318979e-06	-1.374158e-09	-2.307395e+01	-9.316270e+01
1.090000e-06	-3.281376e-06	-1.368820e-09	-2.281254e+01	-9.269891e+01
1.100000e-06	-3.243600e-06	-1.359819e-09	-2.254991e+01	-9.222974e+01
1.110000e-06	-3.205630e-06	-1.340580e-09	-2.228594e+01	-9.175512e+01
1.120000e-06	-3.167325e-06	-1.328512e-09	-2.201964e+01	-9.127496e+01
1.130000e-06	-3.128769e-06	-1.317730e-09	-2.175159e+01	-9.078915e+01
1.140000e-06	-3.090076e-06	-1.310289e-09	-2.148259e+01	-9.029758e+01
1.150000e-06	-3.051203e-06	-1.307714e-09	-2.121235e+01	-8.980013e+01
1.160000e-06	-3.012114e-06	-1.308291e-09	-2.094060e+01	-8.929667e+01
1.170000e-06	-2.972832e-06	-1.300675e-09	-2.066750e+01	-8.878707e+01
1.180000e-06	-2.933351e-06	-1.291752e-09	-2.039302e+01	-8.827119e+01
1.190000e-06	-2.893739e-06	-1.282553e-09	-2.011763e+01	-8.774887e+01
1.200000e-06	-2.854081e-06	-1.268404e-09	-1.984193e+01	-8.721998e+01
1.210000e-06	-2.814300e-06	-1.253125e-09	-1.956537e+01	-8.668437e+01
1.220000e-06	-2.774334e-06	-1.246011e-09	-1.928752e+01	-8.614188e+01
1.230000e-06	-2.734214e-06	-1.240893e-09	-1.900860e+01	-8.559238e+01
1.240000e-06	-2.693906e-06	-1.234331e-09	-1.872837e+01	-8.503571e+01
1.250000e-06	-2.653350e-06	-1.229320e-09	-1.844642e+01	-8.447174e+01
1.260000e-06	-2.612544e-06	-1.224786e-09	-1.816273e+01	-8.390034e+01
1.270000e-06	-2.571458e-06	-1.214634e-09	-1.787710e+01	-8.332137e+01
1.280000e-06	-2.530128e-06	-1.199879e-09	-1.758977e+01	-8.273472e+01
1.290000e-06	-2.488500e-06	-1.186169e-09	-1.730036e+01	-8.214025e+01
1.300000e-06	-2.446500e-06	-1.172912e-09	-1.700838e+01	-8.153787e+01
1.310000e-06	-2.404170e-06	-1.161728e-09	-1.671409e+01	-8.092746e+01
1.320000e-06	-2.361536e-06	-1.153252e-09	-1.641770e+01	-8.030891e+01
1.330000e-06	-2.318710e-06	-1.145682e-09	-1.611996e+01	-7.968213e+01
1.340000e-06	-2.275793e-06	-1.136793e-09	-1.582160e+01	-7.904702e+01
1.350000e-06	-2.232660e-06	-1.129328e-09	-1.552173e+01	-7.840347e+01
1.360000e-06	-2.189269e-06	-1.121147e-09	-1.522007e+01	-7.775138e+01
1.370000e-06	-2.145712e-06	-1.110965e-09	-1.491726e+01	-7.709065e+01
1.380000e-06	-2.102024e-06	-1.096552e-09	-1.461354e+01	-7.642116e+01
1.390000e-06	-2.058264e-06	-1.079988e-09	-1.430931e+01	-7.574279e+01
1.400000e-06	-2.014436e-06	-1.063980e-09	-1.400461e+01	-7.505538e+01
1.410000e-06	-1.970538e-06	-1.052320e-09	-1.369942e+01	-7.435880e+01
1.420000e-06	-1.926579e-06	-1.041090e-09	-1.339382e+01	-7.365287e+01
1.430000e-06	-1.882546e-06	-1.031066e-09	-1.308770e+01	-7.293738e+01
1.440000e-06	-1.838443e-06	-1.019688e-09	-1.278108e+01	-7.221211e+01
1.450000e-06	-1.794219e-06	-1.008332e-09	-1.247364e+01	-7.147680e+01
1.460000e-06	-1.749851e-06	-9.956109e-10	-1.216518e+01	-7.073116e+01
1.470000e-06	-1.705319e-06	-9.814741e-10	-1.185559e+01	-6.997487e+01
1.480000e-06	-1.660694e-06	-9.666211e-10	-1.154535e+01	-6.920755e+01
1.490000e-06	-1.616017e-06	-9.516906e-10	-1.123475e+01	-6.842878e+01
1.500000e-06	-1.571210e-06	-9.356856e-10	-1.092325e+01	-6.763813e+01
1.510000e-06	-1.526235e-06	-9.217461e-10	-1.061058e+01	-6.683506e+01
1.520000e-06	-1.481057e-06	-9.091782e-10	-1.029650e+01	-6.601904e+01
1.530000e-06	-1.435803e-06	-8.978781e-10	-9.981882e+00	-6.518945e+01
1.540000e-06	-1.390539e-06	-8.860277e-10	-9.667203e+00	-6.434562e+01
1.550000e-06	-1.345157e-06	-8.729172e-10	-9.351702e+00	-6.348685e+01
1.560000e-06	-1.299645e-06	-8.563238e-10	-9.035292e+00	-6.261236e+01
1.570000e-06	-1.254069e-06	-8.357320e-10	-8.718447e+00	-6.172134e+01
1.580000e-06	-1.208462e-06	-8.162247e-10	-8.401377e+00	-6.081292e+01
1.590000e-06	-1.162729e-06	-7.976062e-10	-8.083439e+00	-5.988618e+01
1.600000e-06	-1.116855e-06	-7.810536e-10	-7.764515e+00	-5.894015e+01
1.610000e-06	-1.070947e-06	-7.680355e-10	-7.445358e+00	-5.797384e+01
1.620000e-06	-1.025001e-06	-7.555918e-10	-7.125938e+00	-5.698619e+01
1.630000e-06	-9.789364e-07	-7.408264e-10	-6.805688e+00	-5.597614e+01
1.640000e-06	-9.327770e-07	-7.247450e-10	-6.484783e+00	-5.494257e+01
1.650000e-06	-8.865527e-07	-7.080779e-10	-6.163425e+00	-5.388438e+01
1.660000e-06	-8.403220e-07	-6.913999e-10	-5.842024e+00	-5.280041e+01
1.670000e-06	-7.940948e-07	-6.739185e-10	-5.520646e+00	-5.168952e+01
1.680000e-06	-7.477128e-07	-6.562303e-10	-5.198193e+00	-5.055057e+01
1.690000e-06	-7.012393e-07	-6.397487e-10	-4.875103e+00	-4.938243e+01
1.700000e-06	-6.548437e-07	-6.202217e-10	-4.552555e+00	-4.818399e+01
1.710000e-06	-6.084408e-07	-5.966363e-10	-4.229956e+00	-4.695414e+01
1.720000e-06	-5.619261e-07	-5.739188e-10	-3.906580e+00	-4.569185e+01
1.730000e-06	-5.152954e-07	-5.519494e-10	-3.582398e+00	-4.439611e+01
1.740000e-06	-4.686312e-07	-5.317579e-10	-3.257983e+00	-4.306598e+01
1.750000e-06	-4.219806e-07	-5.123301e-10	-2.933662e+00	-4.170057e+01
1.760000e-06	-3.752519e-07	-4.953257e-10	-2.608798e+00	-4.029909e+01
1.770000e-06	-3.285196e-07	-4.783421e-10	-2.283909e+00	-3.886081e+01
1.780000e-06	-2.817453e-07	-4.595339e-10	-1.958729e+00	-3.738512e+01
1.790000e-06	-2.349080e-07	-4.405320e-10	-1.633110e+00	-3.587150e+01
1.800000e-06	-1.880808e-07	-4.206310e-10	-1.307561e+00	-3.431955e+01
1.810000e-06	-1.412657e-07	-3.993626e-10	-9.820966e-01	-3.272897e+01
1.820000e-06	-9.450076e-08	-3.769449e-10	-6.569811e-01	-3.109963e+01
1.830000e-06	-4.769662e-08	-3.542412e-10	-3.315928e-01	-2.943150e+01
1.840000e-06	-8.606314e-10	-3.330416e-10	-5.983217e-03	-2.772470e+01
1.850000e-06	4.597157e-08	-3.132068e-10	3.196001e-01	-2.597951e+01
1.860000e-06	9.279742e-08	-2.930984e-10	6.451393e-01	-2.419635e+01
1.870000e-06	1.396389e-07	-2.706008e-10	9.707872e-01	-2.237579e+01
1.880000e-06	1.864697e-07	-2.462066e-10	1.296361e+00	-2.051857e+01
1.890000e-06	2.332072e-07	-2.185600e-10	1.621286e+00	-1.862558e+01
1.900000e-06	2.799038e-07	-1.876597e-10	1.945926e+00	-1.669787e+01
1.910000e-06	3.266110e-07	-1.566385e-10	2.270641e+00	-1.473664e+01
1.920000e-06	3.734260e-07	-1.260559e-10	2.596104e+00	-1.274325e+01
1.930000e-06	4.202531e-07	-9.877850e-11	2.921652e+00	-1.071923e+01
1.940000e-06	4.669836e-07	-7.565028e-11	3.246528e+00	-8.666228e+00
1.950000e-06	5.136459e-07	-5.212176e-11	3.570931e+00	-6.586051e+00
1.960000e-06	5.602334e-07	-2.633179e-11	3.894813e+00	-4.480637e+00
1.970000e-06	6.068159e-07	2.355460e-12	4.218660e+00	-2.352055e+00
1.980000e-06	6.532650e-07	3.370779e-11	4.541580e+00	-2.024904e-01
1.990000e-06	6.995657e-07	6.766897e-11	4.863469e+00	1.965760e+00
2.000000e-06	7.459373e-07	1.026882e-10	5.185849e+00	4.150299e+00
2.010000e-06	7.923632e-07	1.363867e-10	5.508608e+00	6.348644e+00
2.020000e-06	8.387706e-07	1.701842e-10	5.831238e+00	8.558233e+00
2.030000e-06	8.851360e-07	2.033521e-10	6.153576e+00	1.077644e+01
2.040000e-06	9.313898e-07	2.356686e-10	6.475138e+00	1.300060e+01
2.050000e-06	9.775308e-07	2.662637e-10	6.795916e+00	1.522799e+01
2.060000e-06	1.023576e-06	2.951303e-10	7.116028e+00	1.745587e+01
2.070000e-06	1.069554e-06	3.250049e-10	7.435673e+00	1.968151e+01
2.080000e-06	1.115414e-06	3.571916e-10	7.754499e+00	2.190216e+01
2.090000e-06	1.161080e-06	3.910032e-10	8.071973e+00	2.411510e+01
2.100000e-06	1.206707e-06	4.249489e-10	8.389180e+00	2.631764e+01
2.110000e-06	1.252348e-06	4.575894e-10	8.706478e+00	2.850714e+01
2.120000e-06	1.297909e-06	4.883121e-10	9.023226e+00	3.068102e+01
2.130000e-06	1.343405e-06	5.166977e-10	9.339523e+00	3.283678e+01
2.140000e-06	1.388769e-06	5.434640e-10	9.654893e+00	3.497197e+01
2.150000e-06	1.433970e-06	5.695891e-10	9.969141e+00	3.708429e+01
2.160000e-06	1.479110e-06	5.977000e-10	1.028296e+01	3.917151e+01
2.170000e-06	1.524161e-06	6.287370e-10	1.059616e+01	4.123153e+01
2.180000e-06	1.569042e-06	6.606285e-10	1.090818e+01	4.326237e+01
2.190000e-06	1.613810e-06	6.921758e-10	1.121941e+01	4.526221e+01
2.200000e-06	1.658536e-06	7.239066e-10	1.153035e+01	4.722933e+01
2.210000e-06	1.703124e-06	7.550232e-10	1.184033e+01	4.916221e+01
2.220000e-06	1.747501e-06	7.829360e-10	1.214884e+01	5.105943e+01
2.230000e-06	1.791681e-06	8.068431e-10	1.245599e+01	5.291978e+01
2.240000e-06	1.835745e-06	8.281481e-10	1.276233e+01	5.474216e+01
2.250000e-06	1.879741e-06	8.474522e-10	1.306819e+01	5.652566e+01
2.260000e-06	1.923669e-06	8.674536e-10	1.337359e+01	5.826953e+01
2.270000e-06	1.967579e-06	8.899550e-10	1.367885e+01	5.997318e+01
2.280000e-06	2.011458e-06	9.131214e-10	1.398391e+01	6.163616e+01
2.290000e-06	2.055267e-06	9.363942e-10	1.428847e+01	6.325821e+01
2.300000e-06	2.099001e-06	9.604636e-10	1.459252e+01	6.483917e+01
2.310000e-06	2.142642e-06	9.834342e-10	1.489591e+01	6.637908e+01
2.320000e-06	2.186180e-06	1.003250e-09	1.519860e+01	6.787808e+01
2.330000e-06	2.229617e-06	1.020843e-09	1.550057e+01	6.933645e+01
2.340000e-06	2.272893e-06	1.037569e-09	1.580143e+01	7.075462e+01
2.350000e-06	2.316017e-06	1.054388e-09	1.610124e+01	7.213309e+01
2.360000e-06	2.358901e-06	1.071648e-09	1.639937e+01	7.347251e+01
2.370000e-06	2.401435e-06	1.090379e-09	1.669508e+01	7.477360e+01
2.380000e-06	2.443655e-06	1.108864e-09	1.698860e+01	7.603717e+01
2.390000e-06	2.485605e-06	1.125576e-09	1.728024e+01	7.726411e+01
2.400000e-06	2.527273e-06	1.141400e-09	1.756992e+01	7.845539e+01
2.410000e-06	2.568627e-06	1.156785e-09	1.785742e+01	7.961200e+01
2.420000e-06	2.609674e-06	1.171224e-09	1.814278e+01	8.073500e+01
2.430000e-06	2.650417e-06	1.186269e-09	1.842603e+01	8.182549e+01
2.440000e-06	2.690949e-06	1.201965e-09	1.870781e+01	8.288457e+01
2.450000e-06	2.731282e-06	1.216213e-09	1.898821e+01	8.391336e+01
2.460000e-06	2.771419e-06	1.229227e-09	1.926725e+01	8.491299e+01
2.470000e-06	2.811492e-06	1.241218e-09	1.954585e+01	8.588458e+01
2.480000e-06	2.851438e-06	1.253079e-09	1.982355e+01	8.682924e+01
2.490000e-06	2.891167e-06	1.266015e-09	2.009975e+01	8.774806e+01
2.500000e-06	2.930723e-06	1.279559e-09	2.037475e+01	8.864208e+01
2.510000e-06	2.970181e-06	1.294279e-09	2.064907e+01	8.951232e+01
2.520000e-06	3.009499e-06	1.305615e-09	2.092241e+01	9.035976e+01
2.530000e-06	3.048636e-06	1.316811e-09	2.119450e+01	9.118533e+01
2.540000e-06	3.087634e-06	1.329900e-09	2.146561e+01	9.198989e+01
2.550000e-06	3.126338e-06	1.340574e-09	2.173469e+01	9.277428e+01
2.560000e-06	3.164696e-06	1.348644e-09	2.200137e+01	9.353926e+01
2.570000e-06	3.202795e-06	1.355712e-09	2.226623e+01	9.428552e+01
2.580000e-06	3.240705e-06	1.364073e-09	2.252979e+01	9.501371e+01
2.590000e-06	3.278457e-06	1.373916e-09	2.279224e+01	9.572442e+01
2.600000e-06	3.315997e-06	1.386759e-09	2.305322e+01	9.641817e+01
2.610000e-06	3.353281e-06	1.401855e-09	2.331243e+01	9.709542e+01
2.620000e-06	3.390336e-06	1.417444e-09	2.357004e+01	9.775659e+01
2.630000e-06	3.427151e-06	1.428458e-09	2.382598e+01	9.840204e+01
2.640000e-06	3.463659e-06	1.434418e-09	2.407979e+01	9.903208e+01
2.650000e-06	3.499917e-06	1.438246e-09	2.433186e+01	9.964696e+01
2.660000e-06	3.535976e-06	1.442104e-09	2.458255e+01	1.002469e+02
2.670000e-06	3.571845e-06	1.446809e-09	2.483192e+01	1.008321e+02
2.680000e-06	3.607567e-06	1.453157e-09	2.508026e+01	1.014028e+02
2.690000e-06	3.643169e-06	1.462401e-09	2.532776e+01	1.019590e+02
2.700000e-06	3.678677e-06	1.471914e-09	2.557462e+01	1.025008e+02
2.710000e-06	3.714066e-06	1.478233e-09	2.582065e+01	1.030284e+02
2.720000e-06	3.749171e-06	1.483148e-09	2.606471e+01	1.035418e+02
2.730000e-06	3.783833e-06	1.488640e-09	2.630568e+01	1.040412e+02
2.740000e-06	3.818126e-06	1.495316e-09	2.654409e+01	1.045266e+02
2.750000e-06	3.851979e-06	1.501914e-09	2.677944e+01	1.049980e+02
2.760000e-06	3.885160e-06	1.509984e-09	2.701012e+01	1.054557e+02
2.770000e-06	3.917851e-06	1.519892e-09	2.723739e+01	1.058996e+02
2.780000e-06	3.950263e-06	1.529276e-09	2.746272e+01	1.063300e+02
2.790000e-06	3.982395e-06	1.538233e-09	2.768611e+01	1.067471e+02
2.800000e-06	4.014354e-06	1.546100e-09	2.790829e+01	1.071508e+02
2.810000e-06	4.046174e-06	1.552770e-09	2.812951e+01	1.075416e+02
2.820000e-06	4.077777e-06	1.559405e-09	2.834922e+01	1.079196e+02
2.830000e-06	4.109197e-06	1.566807e-09	2.856765e+01	1.082851e+02
2.840000e-06	4.140368e-06	1.573258e-09	2.878436e+01	1.086384e+02
2.850000e-06	4.171227e-06	1.576881e-09	2.899889e+01	1.089798e+02
2.860000e-06	4.201813e-06	1.580709e-09	2.921153e+01	1.093097e+02
2.870000e-06	4.232040e-06	1.586765e-09	2.942167e+01	1.096284e+02
2.880000e-06	4.262005e-06	1.592257e-09	2.962999e+01	1.099364e+02
2.890000e-06	4.291715e-06	1.598344e-09	2.983654e+01	1.102341e+02
2.900000e-06	4.321120e-06	1.605442e-09	3.004097e+01	1.105220e+02
