# Temperatura_=_8.5
# Concentracion g/m^3_=_1620.0
# C_Vs_to_Am_M_A/Vsm_=_65563218390.804596
# pendiente_HvsI_1/m_=_3716.3
# ordenada_HvsI_A/m_=_1297.0
# frecuencia_Hz_=_135111.13283072374

Tiempo_(s)	Campo_(V.s)	Magnetizacion_(V.s)	Campo_(kA/m)	Magnetizacion_(A/m)
0.000000e+00	-5.506250e-06	-1.678432e-09	-3.836721e+01	-1.094544e+02
1.000000e-08	-5.506547e-06	-1.674881e-09	-3.836928e+01	-1.094213e+02
2.000000e-08	-5.506676e-06	-1.675548e-09	-3.837017e+01	-1.093879e+02
3.000000e-08	-5.506432e-06	-1.678376e-09	-3.836848e+01	-1.093540e+02
4.000000e-08	-5.505655e-06	-1.679475e-09	-3.836306e+01	-1.093195e+02
5.000000e-08	-5.504304e-06	-1.677712e-09	-3.835365e+01	-1.092843e+02
6.000000e-08	-5.502338e-06	-1.667794e-09	-3.833995e+01	-1.092482e+02
7.000000e-08	-5.499773e-06	-1.656519e-09	-3.832208e+01	-1.092110e+02
8.000000e-08	-5.496693e-06	-1.691327e-09	-3.830061e+01	-1.091725e+02
9.000000e-08	-5.493133e-06	-1.739263e-09	-3.827581e+01	-1.091326e+02
1.000000e-07	-5.489088e-06	-1.693755e-09	-3.824763e+01	-1.090908e+02
1.100000e-07	-5.484675e-06	-1.617002e-09	-3.821688e+01	-1.090471e+02
1.200000e-07	-5.480130e-06	-1.679983e-09	-3.818521e+01	-1.090011e+02
1.300000e-07	-5.475417e-06	-1.720577e-09	-3.815237e+01	-1.089526e+02
1.400000e-07	-5.470335e-06	-1.691315e-09	-3.811696e+01	-1.089013e+02
1.500000e-07	-5.464869e-06	-1.602768e-09	-3.807887e+01	-1.088470e+02
1.600000e-07	-5.459122e-06	-1.667801e-09	-3.803882e+01	-1.087895e+02
1.700000e-07	-5.452959e-06	-1.745779e-09	-3.799588e+01	-1.087284e+02
1.800000e-07	-5.446308e-06	-1.689521e-09	-3.794954e+01	-1.086636e+02
1.900000e-07	-5.439317e-06	-1.610317e-09	-3.790083e+01	-1.085949e+02
2.000000e-07	-5.432019e-06	-1.639960e-09	-3.784997e+01	-1.085221e+02
2.100000e-07	-5.424421e-06	-1.710444e-09	-3.779703e+01	-1.084450e+02
2.200000e-07	-5.416562e-06	-1.691625e-09	-3.774227e+01	-1.083634e+02
2.300000e-07	-5.408440e-06	-1.651784e-09	-3.768567e+01	-1.082773e+02
2.400000e-07	-5.399906e-06	-1.663664e-09	-3.762621e+01	-1.081866e+02
2.500000e-07	-5.390674e-06	-1.705907e-09	-3.756188e+01	-1.080911e+02
2.600000e-07	-5.380713e-06	-1.672151e-09	-3.749247e+01	-1.079908e+02
2.700000e-07	-5.370235e-06	-1.646998e-09	-3.741947e+01	-1.078857e+02
2.800000e-07	-5.359257e-06	-1.640367e-09	-3.734297e+01	-1.077759e+02
2.900000e-07	-5.347815e-06	-1.676507e-09	-3.726324e+01	-1.076613e+02
3.000000e-07	-5.336022e-06	-1.659916e-09	-3.718107e+01	-1.075420e+02
3.100000e-07	-5.323803e-06	-1.636744e-09	-3.709593e+01	-1.074181e+02
3.200000e-07	-5.311095e-06	-1.624616e-09	-3.700738e+01	-1.072896e+02
3.300000e-07	-5.298048e-06	-1.662575e-09	-3.691647e+01	-1.071568e+02
3.400000e-07	-5.284671e-06	-1.641357e-09	-3.682326e+01	-1.070197e+02
3.500000e-07	-5.270778e-06	-1.603600e-09	-3.672646e+01	-1.068785e+02
3.600000e-07	-5.256315e-06	-1.616889e-09	-3.662568e+01	-1.067333e+02
3.700000e-07	-5.241605e-06	-1.662220e-09	-3.652318e+01	-1.065844e+02
3.800000e-07	-5.226502e-06	-1.612345e-09	-3.641794e+01	-1.064319e+02
3.900000e-07	-5.210750e-06	-1.595452e-09	-3.630818e+01	-1.062760e+02
4.000000e-07	-5.194628e-06	-1.653718e-09	-3.619585e+01	-1.061169e+02
4.100000e-07	-5.178129e-06	-1.623868e-09	-3.608088e+01	-1.059548e+02
4.200000e-07	-5.161180e-06	-1.543388e-09	-3.596278e+01	-1.057899e+02
4.300000e-07	-5.143931e-06	-1.607788e-09	-3.584259e+01	-1.056224e+02
4.400000e-07	-5.126412e-06	-1.670995e-09	-3.572052e+01	-1.054524e+02
4.500000e-07	-5.108534e-06	-1.564716e-09	-3.559595e+01	-1.052800e+02
4.600000e-07	-5.090304e-06	-1.554620e-09	-3.546892e+01	-1.051056e+02
4.700000e-07	-5.071646e-06	-1.656432e-09	-3.533892e+01	-1.049290e+02
4.800000e-07	-5.052584e-06	-1.607012e-09	-3.520609e+01	-1.047506e+02
4.900000e-07	-5.033241e-06	-1.522098e-09	-3.507131e+01	-1.045704e+02
5.000000e-07	-5.013675e-06	-1.615165e-09	-3.493497e+01	-1.043884e+02
5.100000e-07	-4.993899e-06	-1.616151e-09	-3.479718e+01	-1.042047e+02
5.200000e-07	-4.973803e-06	-1.508050e-09	-3.465715e+01	-1.040194e+02
5.300000e-07	-4.953322e-06	-1.562373e-09	-3.451444e+01	-1.038324e+02
5.400000e-07	-4.932541e-06	-1.646530e-09	-3.436964e+01	-1.036438e+02
5.500000e-07	-4.911406e-06	-1.542997e-09	-3.422237e+01	-1.034535e+02
5.600000e-07	-4.889938e-06	-1.529530e-09	-3.407278e+01	-1.032614e+02
5.700000e-07	-4.868187e-06	-1.623808e-09	-3.392122e+01	-1.030676e+02
5.800000e-07	-4.846057e-06	-1.575609e-09	-3.376702e+01	-1.028719e+02
5.900000e-07	-4.823565e-06	-1.506365e-09	-3.361030e+01	-1.026741e+02
6.000000e-07	-4.800720e-06	-1.584854e-09	-3.345112e+01	-1.024742e+02
6.100000e-07	-4.777571e-06	-1.580356e-09	-3.328982e+01	-1.022721e+02
6.200000e-07	-4.754167e-06	-1.502212e-09	-3.312674e+01	-1.020676e+02
6.300000e-07	-4.730493e-06	-1.537456e-09	-3.296178e+01	-1.018605e+02
6.400000e-07	-4.706603e-06	-1.572469e-09	-3.279532e+01	-1.016508e+02
6.500000e-07	-4.682443e-06	-1.514593e-09	-3.262697e+01	-1.014381e+02
6.600000e-07	-4.657823e-06	-1.522055e-09	-3.245542e+01	-1.012224e+02
6.700000e-07	-4.632689e-06	-1.559024e-09	-3.228029e+01	-1.010036e+02
6.800000e-07	-4.606952e-06	-1.521611e-09	-3.210096e+01	-1.007813e+02
6.900000e-07	-4.580613e-06	-1.503171e-09	-3.191743e+01	-1.005556e+02
7.000000e-07	-4.553868e-06	-1.532463e-09	-3.173107e+01	-1.003262e+02
7.100000e-07	-4.526814e-06	-1.516622e-09	-3.154256e+01	-1.000931e+02
7.200000e-07	-4.499493e-06	-1.495317e-09	-3.135219e+01	-9.985600e+01
7.300000e-07	-4.471976e-06	-1.518628e-09	-3.116045e+01	-9.961493e+01
7.400000e-07	-4.444328e-06	-1.519599e-09	-3.096780e+01	-9.936977e+01
7.500000e-07	-4.416446e-06	-1.499764e-09	-3.077352e+01	-9.912044e+01
7.600000e-07	-4.388306e-06	-1.501302e-09	-3.057745e+01	-9.886689e+01
7.700000e-07	-4.359908e-06	-1.499638e-09	-3.037957e+01	-9.860908e+01
7.800000e-07	-4.331155e-06	-1.477639e-09	-3.017922e+01	-9.834700e+01
7.900000e-07	-4.302038e-06	-1.479170e-09	-2.997633e+01	-9.808063e+01
8.000000e-07	-4.272622e-06	-1.482762e-09	-2.977137e+01	-9.781002e+01
8.100000e-07	-4.242929e-06	-1.467555e-09	-2.956446e+01	-9.753518e+01
8.200000e-07	-4.212916e-06	-1.459559e-09	-2.935533e+01	-9.725617e+01
8.300000e-07	-4.182602e-06	-1.468842e-09	-2.914411e+01	-9.697307e+01
8.400000e-07	-4.151913e-06	-1.454859e-09	-2.893027e+01	-9.668596e+01
8.500000e-07	-4.120958e-06	-1.443430e-09	-2.871458e+01	-9.639492e+01
8.600000e-07	-4.089794e-06	-1.453683e-09	-2.849743e+01	-9.610007e+01
8.700000e-07	-4.058418e-06	-1.455132e-09	-2.827881e+01	-9.580152e+01
8.800000e-07	-4.026929e-06	-1.436315e-09	-2.805939e+01	-9.549938e+01
8.900000e-07	-3.995315e-06	-1.436322e-09	-2.783911e+01	-9.519378e+01
9.000000e-07	-3.963452e-06	-1.433884e-09	-2.761708e+01	-9.488484e+01
9.100000e-07	-3.931245e-06	-1.414916e-09	-2.739267e+01	-9.457267e+01
9.200000e-07	-3.898795e-06	-1.406921e-09	-2.716656e+01	-9.425739e+01
9.300000e-07	-3.865965e-06	-1.412453e-09	-2.693781e+01	-9.393910e+01
9.400000e-07	-3.832693e-06	-1.399323e-09	-2.670597e+01	-9.361790e+01
9.500000e-07	-3.799017e-06	-1.388236e-09	-2.647131e+01	-9.329386e+01
9.600000e-07	-3.764870e-06	-1.393418e-09	-2.623338e+01	-9.296705e+01
9.700000e-07	-3.730235e-06	-1.385709e-09	-2.599205e+01	-9.263751e+01
9.800000e-07	-3.695192e-06	-1.367141e-09	-2.574787e+01	-9.230527e+01
9.900000e-07	-3.659843e-06	-1.366382e-09	-2.550156e+01	-9.197033e+01
1.000000e-06	-3.624330e-06	-1.367976e-09	-2.525411e+01	-9.163267e+01
1.010000e-06	-3.588763e-06	-1.352875e-09	-2.500628e+01	-9.129224e+01
1.020000e-06	-3.553074e-06	-1.345139e-09	-2.475760e+01	-9.094898e+01
1.030000e-06	-3.517219e-06	-1.346260e-09	-2.450776e+01	-9.060278e+01
1.040000e-06	-3.481150e-06	-1.339050e-09	-2.425643e+01	-9.025352e+01
1.050000e-06	-3.444826e-06	-1.329763e-09	-2.400333e+01	-8.990105e+01
1.060000e-06	-3.408297e-06	-1.332098e-09	-2.374880e+01	-8.954519e+01
1.070000e-06	-3.371481e-06	-1.325851e-09	-2.349227e+01	-8.918574e+01
1.080000e-06	-3.334367e-06	-1.312749e-09	-2.323366e+01	-8.882247e+01
1.090000e-06	-3.297020e-06	-1.308025e-09	-2.297343e+01	-8.845514e+01
1.100000e-06	-3.259420e-06	-1.302350e-09	-2.271144e+01	-8.808348e+01
1.110000e-06	-3.221562e-06	-1.285277e-09	-2.244764e+01	-8.770720e+01
1.120000e-06	-3.183460e-06	-1.274267e-09	-2.218215e+01	-8.732599e+01
1.130000e-06	-3.145109e-06	-1.270185e-09	-2.191492e+01	-8.693955e+01
1.140000e-06	-3.106575e-06	-1.262000e-09	-2.164642e+01	-8.654755e+01
1.150000e-06	-3.067949e-06	-1.257786e-09	-2.137728e+01	-8.614966e+01
1.160000e-06	-3.029156e-06	-1.261160e-09	-2.110697e+01	-8.574555e+01
1.170000e-06	-2.990130e-06	-1.257201e-09	-2.083504e+01	-8.533487e+01
1.180000e-06	-2.950899e-06	-1.247610e-09	-2.056168e+01	-8.491731e+01
1.190000e-06	-2.911492e-06	-1.239622e-09	-2.028709e+01	-8.449253e+01
1.200000e-06	-2.871922e-06	-1.231253e-09	-2.001137e+01	-8.406022e+01
1.210000e-06	-2.832255e-06	-1.215720e-09	-1.973498e+01	-8.362008e+01
1.220000e-06	-2.792450e-06	-1.207164e-09	-1.945762e+01	-8.317182e+01
1.230000e-06	-2.752513e-06	-1.203221e-09	-1.917934e+01	-8.271518e+01
1.240000e-06	-2.712416e-06	-1.196093e-09	-1.889995e+01	-8.224990e+01
1.250000e-06	-2.672063e-06	-1.187225e-09	-1.861877e+01	-8.177578e+01
1.260000e-06	-2.631519e-06	-1.182618e-09	-1.833626e+01	-8.129260e+01
1.270000e-06	-2.590722e-06	-1.174421e-09	-1.805199e+01	-8.080019e+01
1.280000e-06	-2.549663e-06	-1.160887e-09	-1.776589e+01	-8.029841e+01
1.290000e-06	-2.508284e-06	-1.150633e-09	-1.747757e+01	-7.978714e+01
1.300000e-06	-2.466504e-06	-1.142292e-09	-1.718644e+01	-7.926629e+01
1.310000e-06	-2.424411e-06	-1.132169e-09	-1.689315e+01	-7.873579e+01
1.320000e-06	-2.382087e-06	-1.122037e-09	-1.659823e+01	-7.819561e+01
1.330000e-06	-2.339567e-06	-1.114327e-09	-1.630196e+01	-7.764573e+01
1.340000e-06	-2.296807e-06	-1.104527e-09	-1.600401e+01	-7.708616e+01
1.350000e-06	-2.253837e-06	-1.094217e-09	-1.570460e+01	-7.651692e+01
1.360000e-06	-2.210652e-06	-1.087122e-09	-1.540369e+01	-7.593805e+01
1.370000e-06	-2.167291e-06	-1.081278e-09	-1.510155e+01	-7.534961e+01
1.380000e-06	-2.123844e-06	-1.071907e-09	-1.479881e+01	-7.475166e+01
1.390000e-06	-2.080296e-06	-1.061569e-09	-1.449537e+01	-7.414426e+01
1.400000e-06	-2.036666e-06	-1.049562e-09	-1.419136e+01	-7.352748e+01
1.410000e-06	-1.993001e-06	-1.036682e-09	-1.388711e+01	-7.290139e+01
1.420000e-06	-1.949288e-06	-1.021631e-09	-1.358252e+01	-7.226602e+01
1.430000e-06	-1.905470e-06	-1.009393e-09	-1.327720e+01	-7.162141e+01
1.440000e-06	-1.861535e-06	-9.995749e-10	-1.297106e+01	-7.096756e+01
1.450000e-06	-1.817479e-06	-9.892934e-10	-1.266408e+01	-7.030446e+01
1.460000e-06	-1.773350e-06	-9.788202e-10	-1.235659e+01	-6.963206e+01
1.470000e-06	-1.729101e-06	-9.685538e-10	-1.204827e+01	-6.895026e+01
1.480000e-06	-1.684678e-06	-9.557624e-10	-1.173873e+01	-6.825892e+01
1.490000e-06	-1.640109e-06	-9.444618e-10	-1.142818e+01	-6.755785e+01
1.500000e-06	-1.595413e-06	-9.327364e-10	-1.111674e+01	-6.684683e+01
1.510000e-06	-1.550570e-06	-9.164747e-10	-1.080427e+01	-6.612554e+01
1.520000e-06	-1.505463e-06	-8.988977e-10	-1.048997e+01	-6.539363e+01
1.530000e-06	-1.460243e-06	-8.855463e-10	-1.017488e+01	-6.465067e+01
1.540000e-06	-1.415074e-06	-8.731237e-10	-9.860148e+00	-6.389616e+01
1.550000e-06	-1.369851e-06	-8.608255e-10	-9.545033e+00	-6.312953e+01
1.560000e-06	-1.324571e-06	-8.498705e-10	-9.229530e+00	-6.235015e+01
1.570000e-06	-1.279203e-06	-8.387332e-10	-8.913405e+00	-6.155731e+01
1.580000e-06	-1.233697e-06	-8.251343e-10	-8.596327e+00	-6.075023e+01
1.590000e-06	-1.188121e-06	-8.104329e-10	-8.278751e+00	-5.992804e+01
1.600000e-06	-1.142457e-06	-7.953582e-10	-7.960570e+00	-5.908983e+01
1.610000e-06	-1.096705e-06	-7.777018e-10	-7.641775e+00	-5.823462e+01
1.620000e-06	-1.050919e-06	-7.607708e-10	-7.322739e+00	-5.736134e+01
1.630000e-06	-1.005057e-06	-7.467910e-10	-7.003178e+00	-5.646890e+01
1.640000e-06	-9.591152e-07	-7.350274e-10	-6.683055e+00	-5.555614e+01
1.650000e-06	-9.131346e-07	-7.234851e-10	-6.362665e+00	-5.462184e+01
1.660000e-06	-8.670653e-07	-7.116989e-10	-6.041657e+00	-5.366477e+01
1.670000e-06	-8.209080e-07	-6.977501e-10	-5.720036e+00	-5.268366e+01
1.680000e-06	-7.747386e-07	-6.817216e-10	-5.398330e+00	-5.167721e+01
1.690000e-06	-7.285609e-07	-6.640018e-10	-5.076567e+00	-5.064411e+01
1.700000e-06	-6.822426e-07	-6.462423e-10	-4.753824e+00	-4.958306e+01
1.710000e-06	-6.358833e-07	-6.249637e-10	-4.430795e+00	-4.849276e+01
1.720000e-06	-5.895149e-07	-6.034001e-10	-4.107703e+00	-4.737192e+01
1.730000e-06	-5.430603e-07	-5.834654e-10	-3.784010e+00	-4.621930e+01
1.740000e-06	-4.965812e-07	-5.663337e-10	-3.460147e+00	-4.503368e+01
1.750000e-06	-4.501077e-07	-5.518185e-10	-3.136323e+00	-4.381392e+01
1.760000e-06	-4.035656e-07	-5.354725e-10	-2.812020e+00	-4.255892e+01
1.770000e-06	-3.568836e-07	-5.159673e-10	-2.486743e+00	-4.126767e+01
1.780000e-06	-3.102217e-07	-4.955105e-10	-2.161606e+00	-3.993925e+01
1.790000e-06	-2.636214e-07	-4.759526e-10	-1.836898e+00	-3.857284e+01
1.800000e-06	-2.169278e-07	-4.571254e-10	-1.511539e+00	-3.716772e+01
1.810000e-06	-1.702103e-07	-4.370516e-10	-1.186015e+00	-3.572329e+01
1.820000e-06	-1.235561e-07	-4.152751e-10	-8.609310e-01	-3.423910e+01
1.830000e-06	-7.687453e-08	-3.936021e-10	-5.356569e-01	-3.271482e+01
1.840000e-06	-3.021196e-08	-3.740739e-10	-2.105150e-01	-3.115027e+01
1.850000e-06	1.641275e-08	-3.553826e-10	1.143630e-01	-2.954544e+01
1.860000e-06	6.306265e-08	-3.351865e-10	4.394166e-01	-2.790045e+01
1.870000e-06	1.097249e-07	-3.134134e-10	7.645565e-01	-2.621561e+01
1.880000e-06	1.564652e-07	-2.903379e-10	1.090240e+00	-2.449140e+01
1.890000e-06	2.032314e-07	-2.662531e-10	1.416104e+00	-2.272845e+01
1.900000e-06	2.499281e-07	-2.411461e-10	1.741484e+00	-2.092760e+01
1.910000e-06	2.966255e-07	-2.148135e-10	2.066868e+00	-1.908983e+01
1.920000e-06	3.433758e-07	-1.868190e-10	2.392621e+00	-1.721631e+01
1.930000e-06	3.900959e-07	-1.588826e-10	2.718164e+00	-1.530838e+01
1.940000e-06	4.367626e-07	-1.333205e-10	3.043334e+00	-1.336755e+01
1.950000e-06	4.833163e-07	-1.095833e-10	3.367718e+00	-1.139549e+01
1.960000e-06	5.297813e-07	-8.449428e-11	3.691483e+00	-9.394017e+00
1.970000e-06	5.762566e-07	-5.785509e-11	4.015320e+00	-7.365119e+00
1.980000e-06	6.226236e-07	-3.128448e-11	4.338403e+00	-5.310911e+00
1.990000e-06	6.688783e-07	-2.591096e-12	4.660702e+00	-3.233643e+00
2.000000e-06	7.150964e-07	2.857487e-11	4.982747e+00	-1.135687e+00
2.010000e-06	7.612782e-07	6.009697e-11	5.304539e+00	9.804763e-01
2.020000e-06	8.074046e-07	9.196502e-11	5.625945e+00	3.112268e+00
2.030000e-06	8.535392e-07	1.228414e-10	5.947408e+00	5.257024e+00
2.040000e-06	8.996442e-07	1.522932e-10	6.268665e+00	7.412014e+00
2.050000e-06	9.456404e-07	1.786832e-10	6.589163e+00	9.574447e+00
2.060000e-06	9.915296e-07	2.059899e-10	6.908917e+00	1.174150e+01
2.070000e-06	1.037412e-06	2.343902e-10	7.228619e+00	1.391030e+01
2.080000e-06	1.083253e-06	2.640534e-10	7.548038e+00	1.607800e+01
2.090000e-06	1.128980e-06	2.948413e-10	7.866665e+00	1.824174e+01
2.100000e-06	1.174634e-06	3.263625e-10	8.184780e+00	2.039867e+01
2.110000e-06	1.220179e-06	3.577797e-10	8.502133e+00	2.254599e+01
2.120000e-06	1.265605e-06	3.877222e-10	8.818659e+00	2.468094e+01
2.130000e-06	1.310927e-06	4.173085e-10	9.134458e+00	2.680085e+01
2.140000e-06	1.356189e-06	4.474924e-10	9.449844e+00	2.890310e+01
2.150000e-06	1.401412e-06	4.750759e-10	9.764953e+00	3.098518e+01
2.160000e-06	1.446556e-06	4.999905e-10	1.007951e+01	3.304467e+01
2.170000e-06	1.491665e-06	5.237098e-10	1.039383e+01	3.507929e+01
2.180000e-06	1.536655e-06	5.479377e-10	1.070732e+01	3.708687e+01
2.190000e-06	1.581397e-06	5.765914e-10	1.101907e+01	3.906538e+01
2.200000e-06	1.625942e-06	6.082549e-10	1.132947e+01	4.101294e+01
2.210000e-06	1.670355e-06	6.407669e-10	1.163893e+01	4.292782e+01
2.220000e-06	1.714612e-06	6.717762e-10	1.194731e+01	4.480844e+01
2.230000e-06	1.758741e-06	6.991134e-10	1.225480e+01	4.665341e+01
2.240000e-06	1.802772e-06	7.223584e-10	1.256161e+01	4.846149e+01
2.250000e-06	1.846675e-06	7.431067e-10	1.286751e+01	5.023160e+01
2.260000e-06	1.890492e-06	7.609543e-10	1.317283e+01	5.196286e+01
2.270000e-06	1.934306e-06	7.799873e-10	1.347812e+01	5.365454e+01
2.280000e-06	1.978085e-06	8.025049e-10	1.378318e+01	5.530607e+01
2.290000e-06	2.021803e-06	8.268167e-10	1.408780e+01	5.691708e+01
2.300000e-06	2.065495e-06	8.505286e-10	1.439224e+01	5.848732e+01
2.310000e-06	2.109105e-06	8.738234e-10	1.469611e+01	6.001675e+01
2.320000e-06	2.152600e-06	8.949824e-10	1.499918e+01	6.150542e+01
2.330000e-06	2.196036e-06	9.130834e-10	1.530184e+01	6.295358e+01
2.340000e-06	2.239411e-06	9.291044e-10	1.560408e+01	6.436158e+01
2.350000e-06	2.282613e-06	9.463720e-10	1.590511e+01	6.572991e+01
2.360000e-06	2.325478e-06	9.641784e-10	1.620379e+01	6.705918e+01
2.370000e-06	2.367972e-06	9.812593e-10	1.649988e+01	6.835009e+01
2.380000e-06	2.410184e-06	9.993103e-10	1.679401e+01	6.960346e+01
2.390000e-06	2.452136e-06	1.016929e-09	1.708633e+01	7.082018e+01
2.400000e-06	2.493873e-06	1.033813e-09	1.737715e+01	7.200121e+01
2.410000e-06	2.535389e-06	1.048976e-09	1.766644e+01	7.314759e+01
2.420000e-06	2.576514e-06	1.063765e-09	1.795299e+01	7.426040e+01
2.430000e-06	2.617267e-06	1.077863e-09	1.823695e+01	7.534074e+01
2.440000e-06	2.657868e-06	1.092908e-09	1.851986e+01	7.638977e+01
2.450000e-06	2.698287e-06	1.107787e-09	1.880149e+01	7.740866e+01
2.460000e-06	2.738456e-06	1.121771e-09	1.908139e+01	7.839855e+01
2.470000e-06	2.778392e-06	1.135278e-09	1.935967e+01	7.936062e+01
2.480000e-06	2.818199e-06	1.146644e-09	1.963703e+01	8.029601e+01
2.490000e-06	2.857932e-06	1.157126e-09	1.991389e+01	8.120583e+01
2.500000e-06	2.897501e-06	1.168474e-09	2.018961e+01	8.209119e+01
2.510000e-06	2.936925e-06	1.182436e-09	2.046431e+01	8.295312e+01
2.520000e-06	2.976245e-06	1.197528e-09	2.073829e+01	8.379264e+01
2.530000e-06	3.015384e-06	1.210716e-09	2.101101e+01	8.461067e+01
2.540000e-06	3.054266e-06	1.224788e-09	2.128194e+01	8.540812e+01
2.550000e-06	3.092886e-06	1.238126e-09	2.155104e+01	8.618581e+01
2.560000e-06	3.131293e-06	1.246244e-09	2.181866e+01	8.694451e+01
2.570000e-06	3.169471e-06	1.251210e-09	2.208468e+01	8.768489e+01
2.580000e-06	3.207456e-06	1.256214e-09	2.234935e+01	8.840760e+01
2.590000e-06	3.245302e-06	1.262562e-09	2.261306e+01	8.911319e+01
2.600000e-06	3.282929e-06	1.272702e-09	2.287524e+01	8.980214e+01
2.610000e-06	3.320316e-06	1.288559e-09	2.313576e+01	9.047486e+01
2.620000e-06	3.357505e-06	1.305224e-09	2.339489e+01	9.113172e+01
2.630000e-06	3.394442e-06	1.318485e-09	2.365226e+01	9.177301e+01
2.640000e-06	3.431025e-06	1.326886e-09	2.390717e+01	9.239895e+01
2.650000e-06	3.467268e-06	1.332497e-09	2.415971e+01	9.300973e+01
2.660000e-06	3.503317e-06	1.336124e-09	2.441090e+01	9.360548e+01
2.670000e-06	3.539223e-06	1.340260e-09	2.466109e+01	9.418628e+01
2.680000e-06	3.574939e-06	1.346482e-09	2.490995e+01	9.475217e+01
2.690000e-06	3.610581e-06	1.355032e-09	2.515831e+01	9.530317e+01
2.700000e-06	3.646155e-06	1.365042e-09	2.540618e+01	9.583928e+01
2.710000e-06	3.681488e-06	1.373177e-09	2.565238e+01	9.636046e+01
2.720000e-06	3.716548e-06	1.378836e-09	2.589668e+01	9.686667e+01
2.730000e-06	3.751393e-06	1.383713e-09	2.613947e+01	9.735785e+01
2.740000e-06	3.785904e-06	1.387499e-09	2.637994e+01	9.783396e+01
2.750000e-06	3.819948e-06	1.391070e-09	2.661716e+01	9.829496e+01
2.760000e-06	3.853442e-06	1.395181e-09	2.685054e+01	9.874081e+01
2.770000e-06	3.886378e-06	1.402029e-09	2.708004e+01	9.917150e+01
2.780000e-06	3.918936e-06	1.409726e-09	2.730690e+01	9.958703e+01
2.790000e-06	3.951214e-06	1.415500e-09	2.753181e+01	9.998746e+01
2.800000e-06	3.983188e-06	1.422300e-09	2.775461e+01	1.003728e+02
2.810000e-06	4.014940e-06	1.428684e-09	2.797585e+01	1.007433e+02
2.820000e-06	4.046549e-06	1.434676e-09	2.819610e+01	1.010989e+02
2.830000e-06	4.078014e-06	1.441091e-09	2.841535e+01	1.014399e+02
2.840000e-06	4.109313e-06	1.449382e-09	2.863344e+01	1.017665e+02
2.850000e-06	4.140390e-06	1.456674e-09	2.884998e+01	1.020790e+02
2.860000e-06	4.171120e-06	1.460963e-09	2.906410e+01	1.023776e+02
2.870000e-06	4.201520e-06	1.465408e-09	2.927593e+01	1.026628e+02
2.880000e-06	4.231653e-06	1.470583e-09	2.948590e+01	1.029349e+02
2.890000e-06	4.261459e-06	1.475421e-09	2.969358e+01	1.031944e+02
2.900000e-06	4.290904e-06	1.481325e-09	2.989875e+01	1.034417e+02
