# Temperatura_=_14.0
# Concentracion g/m^3_=_1620.0
# C_Vs_to_Am_M_A/Vsm_=_65563218390.804596
# pendiente_HvsI_1/m_=_3716.3
# ordenada_HvsI_A/m_=_1297.0
# frecuencia_Hz_=_135105.42816007882

Tiempo_(s)	Campo_(V.s)	Magnetizacion_(V.s)	Campo_(kA/m)	Magnetizacion_(A/m)
0.000000e+00	-5.527588e-06	-1.934200e-09	-3.836206e+01	-1.232445e+02
1.000000e-08	-5.527796e-06	-1.934456e-09	-3.836351e+01	-1.232177e+02
2.000000e-08	-5.527656e-06	-1.936948e-09	-3.836253e+01	-1.231890e+02
3.000000e-08	-5.527053e-06	-1.936458e-09	-3.835835e+01	-1.231580e+02
4.000000e-08	-5.525894e-06	-1.934184e-09	-3.835031e+01	-1.231246e+02
5.000000e-08	-5.524240e-06	-1.928639e-09	-3.833883e+01	-1.230884e+02
6.000000e-08	-5.522061e-06	-1.925164e-09	-3.832370e+01	-1.230491e+02
7.000000e-08	-5.519330e-06	-1.945364e-09	-3.830475e+01	-1.230064e+02
8.000000e-08	-5.516096e-06	-1.958816e-09	-3.828231e+01	-1.229600e+02
9.000000e-08	-5.512337e-06	-1.939420e-09	-3.825622e+01	-1.229095e+02
1.000000e-07	-5.508167e-06	-1.939762e-09	-3.822728e+01	-1.228547e+02
1.100000e-07	-5.503708e-06	-1.918012e-09	-3.819633e+01	-1.227951e+02
1.200000e-07	-5.499015e-06	-1.909775e-09	-3.816376e+01	-1.227305e+02
1.300000e-07	-5.494044e-06	-1.877081e-09	-3.812926e+01	-1.226606e+02
1.400000e-07	-5.488696e-06	-1.895877e-09	-3.809215e+01	-1.225851e+02
1.500000e-07	-5.482953e-06	-1.926065e-09	-3.805229e+01	-1.225036e+02
1.600000e-07	-5.476890e-06	-1.929253e-09	-3.801021e+01	-1.224161e+02
1.700000e-07	-5.470418e-06	-1.913240e-09	-3.796530e+01	-1.223222e+02
1.800000e-07	-5.463421e-06	-1.900649e-09	-3.791673e+01	-1.222218e+02
1.900000e-07	-5.456048e-06	-1.914324e-09	-3.786557e+01	-1.221148e+02
2.000000e-07	-5.448493e-06	-1.889032e-09	-3.781314e+01	-1.220009e+02
2.100000e-07	-5.440719e-06	-1.883676e-09	-3.775918e+01	-1.218801e+02
2.200000e-07	-5.432612e-06	-1.887807e-09	-3.770292e+01	-1.217524e+02
2.300000e-07	-5.424140e-06	-1.915271e-09	-3.764412e+01	-1.216178e+02
2.400000e-07	-5.415199e-06	-1.896885e-09	-3.758207e+01	-1.214762e+02
2.500000e-07	-5.405594e-06	-1.876920e-09	-3.751541e+01	-1.213277e+02
2.600000e-07	-5.395283e-06	-1.852363e-09	-3.744385e+01	-1.211724e+02
2.700000e-07	-5.384416e-06	-1.852904e-09	-3.736844e+01	-1.210105e+02
2.800000e-07	-5.373104e-06	-1.841208e-09	-3.728993e+01	-1.208420e+02
2.900000e-07	-5.361397e-06	-1.843376e-09	-3.720868e+01	-1.206672e+02
3.000000e-07	-5.349360e-06	-1.833498e-09	-3.712514e+01	-1.204863e+02
3.100000e-07	-5.336987e-06	-1.831726e-09	-3.703927e+01	-1.202995e+02
3.200000e-07	-5.324172e-06	-1.826215e-09	-3.695034e+01	-1.201071e+02
3.300000e-07	-5.310890e-06	-1.818060e-09	-3.685816e+01	-1.199093e+02
3.400000e-07	-5.297133e-06	-1.806929e-09	-3.676268e+01	-1.197065e+02
3.500000e-07	-5.282978e-06	-1.820177e-09	-3.666444e+01	-1.194989e+02
3.600000e-07	-5.268445e-06	-1.819497e-09	-3.656358e+01	-1.192869e+02
3.700000e-07	-5.253472e-06	-1.808666e-09	-3.645967e+01	-1.190708e+02
3.800000e-07	-5.238009e-06	-1.818238e-09	-3.635235e+01	-1.188509e+02
3.900000e-07	-5.221975e-06	-1.825490e-09	-3.624108e+01	-1.186274e+02
4.000000e-07	-5.205512e-06	-1.795576e-09	-3.612682e+01	-1.184008e+02
4.100000e-07	-5.188762e-06	-1.785173e-09	-3.601057e+01	-1.181713e+02
4.200000e-07	-5.171620e-06	-1.817840e-09	-3.589161e+01	-1.179391e+02
4.300000e-07	-5.154079e-06	-1.801453e-09	-3.576987e+01	-1.177046e+02
4.400000e-07	-5.136208e-06	-1.780322e-09	-3.564584e+01	-1.174680e+02
4.500000e-07	-5.117976e-06	-1.798993e-09	-3.551931e+01	-1.172294e+02
4.600000e-07	-5.099320e-06	-1.812317e-09	-3.538984e+01	-1.169890e+02
4.700000e-07	-5.080293e-06	-1.768196e-09	-3.525778e+01	-1.167471e+02
4.800000e-07	-5.061036e-06	-1.781499e-09	-3.512414e+01	-1.165037e+02
4.900000e-07	-5.041532e-06	-1.793175e-09	-3.498878e+01	-1.162589e+02
5.000000e-07	-5.021736e-06	-1.756817e-09	-3.485140e+01	-1.160127e+02
5.100000e-07	-5.001704e-06	-1.737156e-09	-3.471237e+01	-1.157653e+02
5.200000e-07	-4.981458e-06	-1.777118e-09	-3.457186e+01	-1.155165e+02
5.300000e-07	-4.960807e-06	-1.759939e-09	-3.442854e+01	-1.152664e+02
5.400000e-07	-4.939680e-06	-1.740844e-09	-3.428192e+01	-1.150149e+02
5.500000e-07	-4.918234e-06	-1.764992e-09	-3.413308e+01	-1.147618e+02
5.600000e-07	-4.896481e-06	-1.768225e-09	-3.398211e+01	-1.145070e+02
5.700000e-07	-4.874383e-06	-1.730222e-09	-3.382875e+01	-1.142503e+02
5.800000e-07	-4.852012e-06	-1.740143e-09	-3.367349e+01	-1.139916e+02
5.900000e-07	-4.829290e-06	-1.743624e-09	-3.351580e+01	-1.137307e+02
6.000000e-07	-4.806157e-06	-1.709127e-09	-3.335525e+01	-1.134672e+02
6.100000e-07	-4.782792e-06	-1.701505e-09	-3.319310e+01	-1.132010e+02
6.200000e-07	-4.759232e-06	-1.716897e-09	-3.302959e+01	-1.129318e+02
6.300000e-07	-4.735384e-06	-1.699711e-09	-3.286408e+01	-1.126593e+02
6.400000e-07	-4.711215e-06	-1.694427e-09	-3.269634e+01	-1.123832e+02
6.500000e-07	-4.686690e-06	-1.711203e-09	-3.252614e+01	-1.121033e+02
6.600000e-07	-4.661771e-06	-1.701317e-09	-3.235320e+01	-1.118193e+02
6.700000e-07	-4.636225e-06	-1.685325e-09	-3.217591e+01	-1.115308e+02
6.800000e-07	-4.609973e-06	-1.684186e-09	-3.199372e+01	-1.112377e+02
6.900000e-07	-4.583247e-06	-1.677397e-09	-3.180824e+01	-1.109396e+02
7.000000e-07	-4.556108e-06	-1.663236e-09	-3.161989e+01	-1.106363e+02
7.100000e-07	-4.528633e-06	-1.669679e-09	-3.142921e+01	-1.103276e+02
7.200000e-07	-4.500989e-06	-1.671151e-09	-3.123736e+01	-1.100133e+02
7.300000e-07	-4.473208e-06	-1.667178e-09	-3.104455e+01	-1.096932e+02
7.400000e-07	-4.445282e-06	-1.663169e-09	-3.085074e+01	-1.093671e+02
7.500000e-07	-4.417133e-06	-1.659331e-09	-3.065538e+01	-1.090350e+02
7.600000e-07	-4.388698e-06	-1.644314e-09	-3.045804e+01	-1.086966e+02
7.700000e-07	-4.359973e-06	-1.639709e-09	-3.025869e+01	-1.083520e+02
7.800000e-07	-4.330884e-06	-1.631265e-09	-3.005681e+01	-1.080011e+02
7.900000e-07	-4.301471e-06	-1.622207e-09	-2.985268e+01	-1.076438e+02
8.000000e-07	-4.271793e-06	-1.614210e-09	-2.964671e+01	-1.072802e+02
8.100000e-07	-4.241866e-06	-1.612494e-09	-2.943901e+01	-1.069102e+02
8.200000e-07	-4.211681e-06	-1.602187e-09	-2.922953e+01	-1.065341e+02
8.300000e-07	-4.181142e-06	-1.595587e-09	-2.901758e+01	-1.061519e+02
8.400000e-07	-4.150278e-06	-1.591141e-09	-2.880338e+01	-1.057636e+02
8.500000e-07	-4.119087e-06	-1.589709e-09	-2.858692e+01	-1.053695e+02
8.600000e-07	-4.087639e-06	-1.584534e-09	-2.836866e+01	-1.049696e+02
8.700000e-07	-4.056071e-06	-1.580705e-09	-2.814958e+01	-1.045642e+02
8.800000e-07	-4.024352e-06	-1.569641e-09	-2.792944e+01	-1.041534e+02
8.900000e-07	-3.992422e-06	-1.555192e-09	-2.770785e+01	-1.037375e+02
9.000000e-07	-3.960206e-06	-1.545279e-09	-2.748426e+01	-1.033166e+02
9.100000e-07	-3.927692e-06	-1.540683e-09	-2.725861e+01	-1.028910e+02
9.200000e-07	-3.894800e-06	-1.533172e-09	-2.703034e+01	-1.024608e+02
9.300000e-07	-3.861420e-06	-1.526908e-09	-2.679868e+01	-1.020263e+02
9.400000e-07	-3.827687e-06	-1.524131e-09	-2.656457e+01	-1.015876e+02
9.500000e-07	-3.793512e-06	-1.515672e-09	-2.632738e+01	-1.011450e+02
9.600000e-07	-3.758887e-06	-1.502230e-09	-2.608709e+01	-1.006986e+02
9.700000e-07	-3.723960e-06	-1.490812e-09	-2.584469e+01	-1.002486e+02
9.800000e-07	-3.688712e-06	-1.483476e-09	-2.560006e+01	-9.979502e+01
9.900000e-07	-3.653277e-06	-1.474919e-09	-2.535414e+01	-9.933810e+01
1.000000e-06	-3.617669e-06	-1.468951e-09	-2.510702e+01	-9.887789e+01
1.010000e-06	-3.581868e-06	-1.459472e-09	-2.485856e+01	-9.841445e+01
1.020000e-06	-3.545909e-06	-1.449558e-09	-2.460900e+01	-9.794782e+01
1.030000e-06	-3.509770e-06	-1.439184e-09	-2.435818e+01	-9.747800e+01
1.040000e-06	-3.473409e-06	-1.433235e-09	-2.410584e+01	-9.700499e+01
1.050000e-06	-3.436757e-06	-1.426369e-09	-2.385147e+01	-9.652871e+01
1.060000e-06	-3.399855e-06	-1.420505e-09	-2.359536e+01	-9.604910e+01
1.070000e-06	-3.362734e-06	-1.409475e-09	-2.333774e+01	-9.556604e+01
1.080000e-06	-3.325356e-06	-1.397500e-09	-2.307833e+01	-9.507939e+01
1.090000e-06	-3.287713e-06	-1.383855e-09	-2.281709e+01	-9.458898e+01
1.100000e-06	-3.249761e-06	-1.372916e-09	-2.255370e+01	-9.409463e+01
1.110000e-06	-3.211567e-06	-1.361231e-09	-2.228862e+01	-9.359612e+01
1.120000e-06	-3.173184e-06	-1.351166e-09	-2.202224e+01	-9.309320e+01
1.130000e-06	-3.134675e-06	-1.341174e-09	-2.175498e+01	-9.258563e+01
1.140000e-06	-3.096022e-06	-1.333578e-09	-2.148673e+01	-9.207312e+01
1.150000e-06	-3.057108e-06	-1.328347e-09	-2.121666e+01	-9.155540e+01
1.160000e-06	-3.017946e-06	-1.322805e-09	-2.094487e+01	-9.103216e+01
1.170000e-06	-2.978637e-06	-1.313027e-09	-2.067206e+01	-9.050311e+01
1.180000e-06	-2.939234e-06	-1.302983e-09	-2.039861e+01	-8.996793e+01
1.190000e-06	-2.899700e-06	-1.293472e-09	-2.012423e+01	-8.942633e+01
1.200000e-06	-2.859986e-06	-1.281535e-09	-1.984861e+01	-8.887799e+01
1.210000e-06	-2.820082e-06	-1.269396e-09	-1.957167e+01	-8.832261e+01
1.220000e-06	-2.780007e-06	-1.259489e-09	-1.929355e+01	-8.775992e+01
1.230000e-06	-2.739767e-06	-1.251158e-09	-1.901428e+01	-8.718962e+01
1.240000e-06	-2.699325e-06	-1.242443e-09	-1.873361e+01	-8.661147e+01
1.250000e-06	-2.658627e-06	-1.234365e-09	-1.845116e+01	-8.602520e+01
1.260000e-06	-2.617668e-06	-1.226095e-09	-1.816690e+01	-8.543059e+01
1.270000e-06	-2.576434e-06	-1.215730e-09	-1.788073e+01	-8.482743e+01
1.280000e-06	-2.534890e-06	-1.204819e-09	-1.759241e+01	-8.421553e+01
1.290000e-06	-2.493000e-06	-1.193282e-09	-1.730169e+01	-8.359472e+01
1.300000e-06	-2.450817e-06	-1.180359e-09	-1.700894e+01	-8.296485e+01
1.310000e-06	-2.408321e-06	-1.166456e-09	-1.671401e+01	-8.232579e+01
1.320000e-06	-2.365533e-06	-1.153787e-09	-1.641705e+01	-8.167745e+01
1.330000e-06	-2.322585e-06	-1.144615e-09	-1.611899e+01	-8.101971e+01
1.340000e-06	-2.279498e-06	-1.135275e-09	-1.581997e+01	-8.035252e+01
1.350000e-06	-2.236233e-06	-1.127987e-09	-1.551970e+01	-7.967582e+01
1.360000e-06	-2.192804e-06	-1.120144e-09	-1.521830e+01	-7.898954e+01
1.370000e-06	-2.149288e-06	-1.109328e-09	-1.491629e+01	-7.829365e+01
1.380000e-06	-2.105673e-06	-1.095462e-09	-1.461360e+01	-7.758811e+01
1.390000e-06	-2.061954e-06	-1.079799e-09	-1.431018e+01	-7.687289e+01
1.400000e-06	-2.018144e-06	-1.062606e-09	-1.400614e+01	-7.614793e+01
1.410000e-06	-1.974227e-06	-1.049276e-09	-1.370135e+01	-7.541319e+01
1.420000e-06	-1.930223e-06	-1.038660e-09	-1.339596e+01	-7.466860e+01
1.430000e-06	-1.886161e-06	-1.030107e-09	-1.309017e+01	-7.391407e+01
1.440000e-06	-1.842071e-06	-1.020841e-09	-1.278417e+01	-7.314949e+01
1.450000e-06	-1.797921e-06	-1.011448e-09	-1.247777e+01	-7.237472e+01
1.460000e-06	-1.753605e-06	-9.997387e-10	-1.217021e+01	-7.158959e+01
1.470000e-06	-1.709051e-06	-9.854410e-10	-1.186100e+01	-7.079388e+01
1.480000e-06	-1.664350e-06	-9.702796e-10	-1.155077e+01	-6.998734e+01
1.490000e-06	-1.619492e-06	-9.566086e-10	-1.123945e+01	-6.916965e+01
1.500000e-06	-1.574473e-06	-9.406223e-10	-1.092701e+01	-6.834046e+01
1.510000e-06	-1.529355e-06	-9.228840e-10	-1.061389e+01	-6.749936e+01
1.520000e-06	-1.484158e-06	-9.068487e-10	-1.030022e+01	-6.664586e+01
1.530000e-06	-1.438830e-06	-8.921338e-10	-9.985639e+00	-6.577945e+01
1.540000e-06	-1.393410e-06	-8.778576e-10	-9.670414e+00	-6.489951e+01
1.550000e-06	-1.347955e-06	-8.629782e-10	-9.354955e+00	-6.400538e+01
1.560000e-06	-1.302385e-06	-8.459639e-10	-9.038695e+00	-6.309634e+01
1.570000e-06	-1.256640e-06	-8.280449e-10	-8.721216e+00	-6.217159e+01
1.580000e-06	-1.210758e-06	-8.120107e-10	-8.402791e+00	-6.123028e+01
1.590000e-06	-1.164874e-06	-7.945617e-10	-8.084354e+00	-6.027149e+01
1.600000e-06	-1.118983e-06	-7.738779e-10	-7.765867e+00	-5.929425e+01
1.610000e-06	-1.072963e-06	-7.543684e-10	-7.446479e+00	-5.829752e+01
1.620000e-06	-1.026849e-06	-7.375474e-10	-7.126442e+00	-5.728021e+01
1.630000e-06	-9.806937e-07	-7.230896e-10	-6.806121e+00	-5.624121e+01
1.640000e-06	-9.344681e-07	-7.107082e-10	-6.485310e+00	-5.517935e+01
1.650000e-06	-8.881307e-07	-6.974385e-10	-6.163724e+00	-5.409343e+01
1.660000e-06	-8.417227e-07	-6.839293e-10	-5.841647e+00	-5.298222e+01
1.670000e-06	-7.953476e-07	-6.693131e-10	-5.519799e+00	-5.184449e+01
1.680000e-06	-7.489600e-07	-6.522100e-10	-5.197864e+00	-5.067899e+01
1.690000e-06	-7.024501e-07	-6.326950e-10	-4.875080e+00	-4.948449e+01
1.700000e-06	-6.558331e-07	-6.116269e-10	-4.551553e+00	-4.825975e+01
1.710000e-06	-6.092250e-07	-5.893104e-10	-4.228088e+00	-4.700356e+01
1.720000e-06	-5.626281e-07	-5.686986e-10	-3.904700e+00	-4.571476e+01
1.730000e-06	-5.160143e-07	-5.479136e-10	-3.581195e+00	-4.439222e+01
1.740000e-06	-4.693366e-07	-5.295095e-10	-3.257247e+00	-4.303487e+01
1.750000e-06	-4.225871e-07	-5.128955e-10	-2.932800e+00	-4.164170e+01
1.760000e-06	-3.758673e-07	-4.946561e-10	-2.608560e+00	-4.021181e+01
1.770000e-06	-3.291269e-07	-4.744642e-10	-2.284176e+00	-3.874435e+01
1.780000e-06	-2.823000e-07	-4.521920e-10	-1.959193e+00	-3.723860e+01
1.790000e-06	-2.354166e-07	-4.288123e-10	-1.633817e+00	-3.569394e+01
1.800000e-06	-1.884461e-07	-4.063628e-10	-1.307836e+00	-3.410986e+01
1.810000e-06	-1.414690e-07	-3.844078e-10	-9.818103e-01	-3.248602e+01
1.820000e-06	-9.451513e-08	-3.622422e-10	-6.559453e-01	-3.082216e+01
1.830000e-06	-4.750571e-08	-3.398630e-10	-3.296948e-01	-2.911822e+01
1.840000e-06	-5.352818e-10	-3.169923e-10	-3.714914e-03	-2.737427e+01
1.850000e-06	4.634491e-08	-2.940293e-10	3.216387e-01	-2.559053e+01
1.860000e-06	9.325378e-08	-2.714013e-10	6.471914e-01	-2.376741e+01
1.870000e-06	1.401887e-07	-2.472400e-10	9.729245e-01	-2.190547e+01
1.880000e-06	1.871240e-07	-2.208083e-10	1.298661e+00	-2.000543e+01
1.890000e-06	2.340147e-07	-1.922585e-10	1.624087e+00	-1.806822e+01
1.900000e-06	2.808485e-07	-1.612270e-10	1.949119e+00	-1.609491e+01
1.910000e-06	3.276621e-07	-1.319941e-10	2.274010e+00	-1.408674e+01
1.920000e-06	3.744562e-07	-1.040276e-10	2.598767e+00	-1.204514e+01
1.930000e-06	4.213087e-07	-7.685621e-11	2.923929e+00	-9.971679e+00
1.940000e-06	4.681160e-07	-4.934379e-11	3.248776e+00	-7.868113e+00
1.950000e-06	5.147974e-07	-2.121677e-11	3.572750e+00	-5.736332e+00
1.960000e-06	5.614027e-07	8.061703e-12	3.896196e+00	-3.578380e+00
1.970000e-06	6.079650e-07	3.652039e-11	4.219343e+00	-1.396436e+00
1.980000e-06	6.544995e-07	6.377066e-11	4.542298e+00	8.071918e-01
1.990000e-06	7.010421e-07	9.377281e-11	4.865308e+00	3.030078e+00
2.000000e-06	7.474528e-07	1.278897e-10	5.187404e+00	5.269690e+00
2.010000e-06	7.937598e-07	1.637808e-10	5.508779e+00	7.523405e+00
2.020000e-06	8.401019e-07	1.999664e-10	5.830399e+00	9.788518e+00
2.030000e-06	8.863819e-07	2.345900e-10	6.151587e+00	1.206226e+01
2.040000e-06	9.325773e-07	2.669378e-10	6.472188e+00	1.434180e+01
2.050000e-06	9.786159e-07	2.968327e-10	6.791701e+00	1.662429e+01
2.060000e-06	1.024577e-06	3.264698e-10	7.110678e+00	1.890684e+01
2.070000e-06	1.070532e-06	3.593239e-10	7.429610e+00	2.118657e+01
2.080000e-06	1.116455e-06	3.933401e-10	7.748319e+00	2.346059e+01
2.090000e-06	1.162350e-06	4.280604e-10	8.066839e+00	2.572606e+01
2.100000e-06	1.208200e-06	4.632258e-10	8.385037e+00	2.798016e+01
2.110000e-06	1.253894e-06	4.981366e-10	8.702163e+00	3.022012e+01
2.120000e-06	1.299435e-06	5.314282e-10	9.018221e+00	3.244326e+01
2.130000e-06	1.344958e-06	5.634993e-10	9.334153e+00	3.464697e+01
2.140000e-06	1.390416e-06	5.905570e-10	9.649636e+00	3.682873e+01
2.150000e-06	1.435722e-06	6.138943e-10	9.964068e+00	3.898614e+01
2.160000e-06	1.480974e-06	6.388555e-10	1.027812e+01	4.111692e+01
2.170000e-06	1.526151e-06	6.680293e-10	1.059165e+01	4.321890e+01
2.180000e-06	1.571157e-06	6.981281e-10	1.090400e+01	4.529008e+01
2.190000e-06	1.616075e-06	7.294689e-10	1.121574e+01	4.732859e+01
2.200000e-06	1.660881e-06	7.627511e-10	1.152670e+01	4.933271e+01
2.210000e-06	1.705489e-06	7.941147e-10	1.183628e+01	5.130089e+01
2.220000e-06	1.749931e-06	8.218928e-10	1.214471e+01	5.323176e+01
2.230000e-06	1.794271e-06	8.472487e-10	1.245243e+01	5.512410e+01
2.240000e-06	1.838489e-06	8.690797e-10	1.275931e+01	5.697686e+01
2.250000e-06	1.882617e-06	8.886739e-10	1.306557e+01	5.878918e+01
2.260000e-06	1.926676e-06	9.087648e-10	1.337134e+01	6.056036e+01
2.270000e-06	1.970583e-06	9.300102e-10	1.367606e+01	6.228988e+01
2.280000e-06	2.014360e-06	9.529519e-10	1.397987e+01	6.397737e+01
2.290000e-06	2.058094e-06	9.774939e-10	1.428340e+01	6.562264e+01
2.300000e-06	2.101775e-06	1.003937e-09	1.458655e+01	6.722566e+01
2.310000e-06	2.145379e-06	1.029549e-09	1.488916e+01	6.878655e+01
2.320000e-06	2.188943e-06	1.053646e-09	1.519150e+01	7.030557e+01
2.330000e-06	2.232376e-06	1.073338e-09	1.549293e+01	7.178311e+01
2.340000e-06	2.275627e-06	1.088123e-09	1.579310e+01	7.321971e+01
2.350000e-06	2.318774e-06	1.102263e-09	1.609254e+01	7.461601e+01
2.360000e-06	2.361759e-06	1.117988e-09	1.639086e+01	7.597277e+01
2.370000e-06	2.404521e-06	1.136488e-09	1.668764e+01	7.729084e+01
2.380000e-06	2.447097e-06	1.157620e-09	1.698312e+01	7.857115e+01
2.390000e-06	2.489413e-06	1.178220e-09	1.727680e+01	7.981474e+01
2.400000e-06	2.531369e-06	1.197730e-09	1.756798e+01	8.102266e+01
2.410000e-06	2.572939e-06	1.213495e-09	1.785648e+01	8.219605e+01
2.420000e-06	2.614063e-06	1.226318e-09	1.814188e+01	8.333608e+01
2.430000e-06	2.654902e-06	1.239561e-09	1.842531e+01	8.444395e+01
2.440000e-06	2.695559e-06	1.254204e-09	1.870747e+01	8.552087e+01
2.450000e-06	2.735926e-06	1.268751e-09	1.898762e+01	8.656806e+01
2.460000e-06	2.776012e-06	1.283065e-09	1.926583e+01	8.758675e+01
2.470000e-06	2.815978e-06	1.295030e-09	1.954319e+01	8.857814e+01
2.480000e-06	2.855832e-06	1.305384e-09	1.981978e+01	8.954342e+01
2.490000e-06	2.895507e-06	1.317297e-09	2.009513e+01	9.048373e+01
2.500000e-06	2.935049e-06	1.330926e-09	2.036956e+01	9.140018e+01
2.510000e-06	2.974481e-06	1.347714e-09	2.064322e+01	9.229386e+01
2.520000e-06	3.013753e-06	1.362169e-09	2.091577e+01	9.316576e+01
2.530000e-06	3.052808e-06	1.373951e-09	2.118682e+01	9.401686e+01
2.540000e-06	3.091649e-06	1.384669e-09	2.145638e+01	9.484804e+01
2.550000e-06	3.130267e-06	1.392828e-09	2.172440e+01	9.566015e+01
2.560000e-06	3.168686e-06	1.400886e-09	2.199103e+01	9.645395e+01
2.570000e-06	3.206894e-06	1.410472e-09	2.225619e+01	9.723013e+01
2.580000e-06	3.244848e-06	1.422103e-09	2.251960e+01	9.798933e+01
2.590000e-06	3.282585e-06	1.434781e-09	2.278150e+01	9.873211e+01
2.600000e-06	3.320180e-06	1.448094e-09	2.304241e+01	9.945896e+01
2.610000e-06	3.357549e-06	1.461859e-09	2.330176e+01	1.001703e+02
2.620000e-06	3.394643e-06	1.475554e-09	2.355919e+01	1.008665e+02
2.630000e-06	3.431549e-06	1.485203e-09	2.381532e+01	1.015479e+02
2.640000e-06	3.468150e-06	1.491371e-09	2.406934e+01	1.022147e+02
2.650000e-06	3.504441e-06	1.497678e-09	2.432120e+01	1.028671e+02
2.660000e-06	3.540519e-06	1.504395e-09	2.457158e+01	1.035053e+02
2.670000e-06	3.576402e-06	1.512413e-09	2.482062e+01	1.041294e+02
2.680000e-06	3.612147e-06	1.522621e-09	2.506869e+01	1.047394e+02
2.690000e-06	3.647786e-06	1.533721e-09	2.531603e+01	1.053354e+02
2.700000e-06	3.683322e-06	1.542768e-09	2.556266e+01	1.059174e+02
2.710000e-06	3.718671e-06	1.548751e-09	2.580798e+01	1.064855e+02
2.720000e-06	3.753694e-06	1.553954e-09	2.605105e+01	1.070395e+02
2.730000e-06	3.788435e-06	1.558640e-09	2.629215e+01	1.075796e+02
2.740000e-06	3.822850e-06	1.563444e-09	2.653099e+01	1.081057e+02
2.750000e-06	3.856774e-06	1.569511e-09	2.676643e+01	1.086177e+02
2.760000e-06	3.890219e-06	1.577667e-09	2.699854e+01	1.091157e+02
2.770000e-06	3.923284e-06	1.586943e-09	2.722802e+01	1.095998e+02
2.780000e-06	3.955932e-06	1.595075e-09	2.745460e+01	1.100699e+02
2.790000e-06	3.988130e-06	1.603368e-09	2.767806e+01	1.105261e+02
2.800000e-06	4.020046e-06	1.611063e-09	2.789956e+01	1.109684e+02
2.810000e-06	4.051842e-06	1.617001e-09	2.812023e+01	1.113972e+02
2.820000e-06	4.083493e-06	1.622285e-09	2.833989e+01	1.118123e+02
2.830000e-06	4.114937e-06	1.627965e-09	2.855811e+01	1.122142e+02
2.840000e-06	4.146184e-06	1.633281e-09	2.877497e+01	1.126029e+02
2.850000e-06	4.177151e-06	1.639297e-09	2.898988e+01	1.129787e+02
2.860000e-06	4.207738e-06	1.646868e-09	2.920216e+01	1.133419e+02
2.870000e-06	4.237928e-06	1.654365e-09	2.941168e+01	1.136929e+02
2.880000e-06	4.267860e-06	1.659650e-09	2.961942e+01	1.140320e+02
2.890000e-06	4.297581e-06	1.663409e-09	2.982568e+01	1.143596e+02
2.900000e-06	4.327013e-06	1.667223e-09	3.002994e+01	1.146761e+02
