# Temperatura_=_6.45
# Concentracion g/m^3_=_1620.0
# C_Vs_to_Am_M_A/Vsm_=_65563218390.804596
# pendiente_HvsI_1/m_=_3716.3
# ordenada_HvsI_A/m_=_1297.0
# frecuencia_Hz_=_135109.27919797343

Tiempo_(s)	Campo_(V.s)	Magnetizacion_(V.s)	Campo_(kA/m)	Magnetizacion_(A/m)
0.000000e+00	-5.527090e-06	-1.599446e-09	-3.836513e+01	-1.045941e+02
1.000000e-08	-5.527333e-06	-1.597053e-09	-3.836682e+01	-1.045593e+02
2.000000e-08	-5.527312e-06	-1.598407e-09	-3.836667e+01	-1.045274e+02
3.000000e-08	-5.527053e-06	-1.602379e-09	-3.836487e+01	-1.044984e+02
4.000000e-08	-5.526475e-06	-1.605095e-09	-3.836086e+01	-1.044724e+02
5.000000e-08	-5.525395e-06	-1.602725e-09	-3.835336e+01	-1.044491e+02
6.000000e-08	-5.523693e-06	-1.592760e-09	-3.834155e+01	-1.044284e+02
7.000000e-08	-5.521382e-06	-1.585509e-09	-3.832551e+01	-1.044102e+02
8.000000e-08	-5.518539e-06	-1.612608e-09	-3.830577e+01	-1.043942e+02
9.000000e-08	-5.515176e-06	-1.640701e-09	-3.828243e+01	-1.043801e+02
1.000000e-07	-5.511347e-06	-1.608209e-09	-3.825585e+01	-1.043676e+02
1.100000e-07	-5.507125e-06	-1.570721e-09	-3.822654e+01	-1.043564e+02
1.200000e-07	-5.502603e-06	-1.590866e-09	-3.819516e+01	-1.043462e+02
1.300000e-07	-5.497867e-06	-1.595583e-09	-3.816228e+01	-1.043365e+02
1.400000e-07	-5.492883e-06	-1.602000e-09	-3.812769e+01	-1.043270e+02
1.500000e-07	-5.487449e-06	-1.583042e-09	-3.808997e+01	-1.043172e+02
1.600000e-07	-5.481549e-06	-1.615299e-09	-3.804902e+01	-1.043066e+02
1.700000e-07	-5.475309e-06	-1.622938e-09	-3.800570e+01	-1.042949e+02
1.800000e-07	-5.468747e-06	-1.573980e-09	-3.796015e+01	-1.042816e+02
1.900000e-07	-5.461846e-06	-1.566174e-09	-3.791225e+01	-1.042663e+02
2.000000e-07	-5.454557e-06	-1.583505e-09	-3.786166e+01	-1.042484e+02
2.100000e-07	-5.446958e-06	-1.624420e-09	-3.780891e+01	-1.042276e+02
2.200000e-07	-5.439142e-06	-1.623985e-09	-3.775465e+01	-1.042034e+02
2.300000e-07	-5.431032e-06	-1.628663e-09	-3.769836e+01	-1.041755e+02
2.400000e-07	-5.422545e-06	-1.620374e-09	-3.763945e+01	-1.041434e+02
2.500000e-07	-5.413460e-06	-1.616774e-09	-3.757639e+01	-1.041067e+02
2.600000e-07	-5.403607e-06	-1.595834e-09	-3.750800e+01	-1.040652e+02
2.700000e-07	-5.393132e-06	-1.607937e-09	-3.743529e+01	-1.040186e+02
2.800000e-07	-5.382119e-06	-1.616785e-09	-3.735884e+01	-1.039664e+02
2.900000e-07	-5.370713e-06	-1.621662e-09	-3.727967e+01	-1.039085e+02
3.000000e-07	-5.359000e-06	-1.601387e-09	-3.719837e+01	-1.038447e+02
3.100000e-07	-5.346847e-06	-1.589896e-09	-3.711401e+01	-1.037748e+02
3.200000e-07	-5.334275e-06	-1.589164e-09	-3.702674e+01	-1.036985e+02
3.300000e-07	-5.321294e-06	-1.592039e-09	-3.693664e+01	-1.036159e+02
3.400000e-07	-5.307912e-06	-1.578266e-09	-3.684375e+01	-1.035268e+02
3.500000e-07	-5.294231e-06	-1.568385e-09	-3.674879e+01	-1.034311e+02
3.600000e-07	-5.280222e-06	-1.597074e-09	-3.665155e+01	-1.033289e+02
3.700000e-07	-5.265772e-06	-1.600780e-09	-3.655124e+01	-1.032202e+02
3.800000e-07	-5.250746e-06	-1.562851e-09	-3.644694e+01	-1.031049e+02
3.900000e-07	-5.235126e-06	-1.555926e-09	-3.633853e+01	-1.029833e+02
4.000000e-07	-5.218987e-06	-1.587268e-09	-3.622650e+01	-1.028553e+02
4.100000e-07	-5.202348e-06	-1.554338e-09	-3.611100e+01	-1.027212e+02
4.200000e-07	-5.185358e-06	-1.535503e-09	-3.599307e+01	-1.025810e+02
4.300000e-07	-5.168129e-06	-1.582129e-09	-3.587348e+01	-1.024350e+02
4.400000e-07	-5.150551e-06	-1.587841e-09	-3.575146e+01	-1.022833e+02
4.500000e-07	-5.132579e-06	-1.529640e-09	-3.562671e+01	-1.021261e+02
4.600000e-07	-5.114225e-06	-1.560425e-09	-3.549932e+01	-1.019636e+02
4.700000e-07	-5.095477e-06	-1.590327e-09	-3.536918e+01	-1.017961e+02
4.800000e-07	-5.076343e-06	-1.539209e-09	-3.523636e+01	-1.016238e+02
4.900000e-07	-5.056915e-06	-1.533891e-09	-3.510151e+01	-1.014469e+02
5.000000e-07	-5.037282e-06	-1.582988e-09	-3.496523e+01	-1.012656e+02
5.100000e-07	-5.017398e-06	-1.526947e-09	-3.482721e+01	-1.010802e+02
5.200000e-07	-4.997251e-06	-1.492588e-09	-3.468736e+01	-1.008909e+02
5.300000e-07	-4.976843e-06	-1.560515e-09	-3.454571e+01	-1.006979e+02
5.400000e-07	-4.956103e-06	-1.559405e-09	-3.440174e+01	-1.005015e+02
5.500000e-07	-4.934964e-06	-1.496094e-09	-3.425501e+01	-1.003017e+02
5.600000e-07	-4.913460e-06	-1.539099e-09	-3.410575e+01	-1.000989e+02
5.700000e-07	-4.891670e-06	-1.563626e-09	-3.395449e+01	-9.989311e+01
5.800000e-07	-4.869492e-06	-1.499334e-09	-3.380055e+01	-9.968457e+01
5.900000e-07	-4.846948e-06	-1.503326e-09	-3.364407e+01	-9.947339e+01
6.000000e-07	-4.824101e-06	-1.542469e-09	-3.348548e+01	-9.925972e+01
6.100000e-07	-4.800876e-06	-1.495395e-09	-3.332427e+01	-9.904365e+01
6.200000e-07	-4.777396e-06	-1.477269e-09	-3.316129e+01	-9.882528e+01
6.300000e-07	-4.753706e-06	-1.519952e-09	-3.299685e+01	-9.860468e+01
6.400000e-07	-4.729743e-06	-1.499084e-09	-3.283051e+01	-9.838191e+01
6.500000e-07	-4.705487e-06	-1.473430e-09	-3.266215e+01	-9.815702e+01
6.600000e-07	-4.680854e-06	-1.502929e-09	-3.249116e+01	-9.793004e+01
6.700000e-07	-4.655781e-06	-1.498730e-09	-3.231712e+01	-9.770098e+01
6.800000e-07	-4.630136e-06	-1.468516e-09	-3.213911e+01	-9.746983e+01
6.900000e-07	-4.603950e-06	-1.484456e-09	-3.195735e+01	-9.723660e+01
7.000000e-07	-4.577286e-06	-1.483823e-09	-3.177227e+01	-9.700125e+01
7.100000e-07	-4.550154e-06	-1.457929e-09	-3.158394e+01	-9.676377e+01
7.200000e-07	-4.522668e-06	-1.464090e-09	-3.139315e+01	-9.652410e+01
7.300000e-07	-4.494911e-06	-1.475721e-09	-3.120047e+01	-9.628221e+01
7.400000e-07	-4.467014e-06	-1.454476e-09	-3.100684e+01	-9.603803e+01
7.500000e-07	-4.438965e-06	-1.452558e-09	-3.081214e+01	-9.579153e+01
7.600000e-07	-4.410631e-06	-1.457538e-09	-3.061546e+01	-9.554264e+01
7.700000e-07	-4.381998e-06	-1.444994e-09	-3.041672e+01	-9.529130e+01
7.800000e-07	-4.353080e-06	-1.437408e-09	-3.021599e+01	-9.503745e+01
7.900000e-07	-4.323865e-06	-1.444090e-09	-3.001320e+01	-9.478103e+01
8.000000e-07	-4.294338e-06	-1.431642e-09	-2.980824e+01	-9.452198e+01
8.100000e-07	-4.264498e-06	-1.419058e-09	-2.960111e+01	-9.426024e+01
8.200000e-07	-4.234353e-06	-1.419817e-09	-2.939187e+01	-9.399577e+01
8.300000e-07	-4.203963e-06	-1.414565e-09	-2.918093e+01	-9.372850e+01
8.400000e-07	-4.173307e-06	-1.400880e-09	-2.896813e+01	-9.345840e+01
8.500000e-07	-4.142289e-06	-1.404310e-09	-2.875283e+01	-9.318541e+01
8.600000e-07	-4.110972e-06	-1.410479e-09	-2.853545e+01	-9.290949e+01
8.700000e-07	-4.079435e-06	-1.403741e-09	-2.831654e+01	-9.263061e+01
8.800000e-07	-4.047727e-06	-1.398221e-09	-2.809644e+01	-9.234872e+01
8.900000e-07	-4.015861e-06	-1.397788e-09	-2.787525e+01	-9.206379e+01
9.000000e-07	-3.983817e-06	-1.383403e-09	-2.765283e+01	-9.177578e+01
9.100000e-07	-3.951563e-06	-1.368590e-09	-2.742894e+01	-9.148467e+01
9.200000e-07	-3.918954e-06	-1.367748e-09	-2.720260e+01	-9.119041e+01
9.300000e-07	-3.885979e-06	-1.362744e-09	-2.697370e+01	-9.089298e+01
9.400000e-07	-3.852564e-06	-1.354497e-09	-2.674176e+01	-9.059232e+01
9.500000e-07	-3.818688e-06	-1.356704e-09	-2.650662e+01	-9.028841e+01
9.600000e-07	-3.784447e-06	-1.356388e-09	-2.626894e+01	-8.998119e+01
9.700000e-07	-3.749724e-06	-1.340841e-09	-2.602792e+01	-8.967062e+01
9.800000e-07	-3.714568e-06	-1.330901e-09	-2.578389e+01	-8.935663e+01
9.900000e-07	-3.679153e-06	-1.326294e-09	-2.553807e+01	-8.903916e+01
1.000000e-06	-3.643544e-06	-1.316312e-09	-2.529089e+01	-8.871815e+01
1.010000e-06	-3.607821e-06	-1.306334e-09	-2.504293e+01	-8.839350e+01
1.020000e-06	-3.572049e-06	-1.305317e-09	-2.479463e+01	-8.806514e+01
1.030000e-06	-3.536153e-06	-1.299375e-09	-2.454546e+01	-8.773296e+01
1.040000e-06	-3.500045e-06	-1.292398e-09	-2.429482e+01	-8.739685e+01
1.050000e-06	-3.463661e-06	-1.291223e-09	-2.404227e+01	-8.705670e+01
1.060000e-06	-3.426981e-06	-1.289910e-09	-2.378767e+01	-8.671238e+01
1.070000e-06	-3.390029e-06	-1.279531e-09	-2.353117e+01	-8.636375e+01
1.080000e-06	-3.352826e-06	-1.270055e-09	-2.327293e+01	-8.601067e+01
1.090000e-06	-3.315365e-06	-1.261195e-09	-2.301291e+01	-8.565298e+01
1.100000e-06	-3.277657e-06	-1.249670e-09	-2.275116e+01	-8.529053e+01
1.110000e-06	-3.239774e-06	-1.239478e-09	-2.248821e+01	-8.492314e+01
1.120000e-06	-3.201638e-06	-1.233310e-09	-2.222350e+01	-8.455065e+01
1.130000e-06	-3.163265e-06	-1.223291e-09	-2.195714e+01	-8.417287e+01
1.140000e-06	-3.124677e-06	-1.213348e-09	-2.168929e+01	-8.378963e+01
1.150000e-06	-3.085763e-06	-1.210671e-09	-2.141917e+01	-8.340075e+01
1.160000e-06	-3.046602e-06	-1.211174e-09	-2.114734e+01	-8.300604e+01
1.170000e-06	-3.007253e-06	-1.207809e-09	-2.087421e+01	-8.260534e+01
1.180000e-06	-2.967777e-06	-1.202071e-09	-2.060020e+01	-8.219845e+01
1.190000e-06	-2.928239e-06	-1.193824e-09	-2.032575e+01	-8.178522e+01
1.200000e-06	-2.888600e-06	-1.182202e-09	-2.005061e+01	-8.136547e+01
1.210000e-06	-2.848822e-06	-1.170383e-09	-1.977450e+01	-8.093906e+01
1.220000e-06	-2.808902e-06	-1.160797e-09	-1.949740e+01	-8.050583e+01
1.230000e-06	-2.768850e-06	-1.153425e-09	-1.921939e+01	-8.006565e+01
1.240000e-06	-2.728583e-06	-1.147155e-09	-1.893989e+01	-7.961839e+01
1.250000e-06	-2.688079e-06	-1.143422e-09	-1.865874e+01	-7.916394e+01
1.260000e-06	-2.647351e-06	-1.140539e-09	-1.837603e+01	-7.870221e+01
1.270000e-06	-2.606320e-06	-1.136493e-09	-1.809122e+01	-7.823309e+01
1.280000e-06	-2.565022e-06	-1.128573e-09	-1.780456e+01	-7.775652e+01
1.290000e-06	-2.523490e-06	-1.119539e-09	-1.751627e+01	-7.727244e+01
1.300000e-06	-2.481667e-06	-1.112628e-09	-1.722597e+01	-7.678079e+01
1.310000e-06	-2.439532e-06	-1.105415e-09	-1.693349e+01	-7.628154e+01
1.320000e-06	-2.397126e-06	-1.096158e-09	-1.663915e+01	-7.577465e+01
1.330000e-06	-2.354454e-06	-1.088069e-09	-1.634295e+01	-7.526012e+01
1.340000e-06	-2.311504e-06	-1.080617e-09	-1.604482e+01	-7.473792e+01
1.350000e-06	-2.268307e-06	-1.075097e-09	-1.574498e+01	-7.420805e+01
1.360000e-06	-2.224854e-06	-1.071408e-09	-1.544336e+01	-7.367050e+01
1.370000e-06	-2.181280e-06	-1.068745e-09	-1.514089e+01	-7.312526e+01
1.380000e-06	-2.137654e-06	-1.060884e-09	-1.483808e+01	-7.257231e+01
1.390000e-06	-2.093913e-06	-1.046907e-09	-1.453446e+01	-7.201164e+01
1.400000e-06	-2.050094e-06	-1.030050e-09	-1.423029e+01	-7.144321e+01
1.410000e-06	-2.006198e-06	-1.014188e-09	-1.392560e+01	-7.086697e+01
1.420000e-06	-1.962216e-06	-1.000027e-09	-1.362031e+01	-7.028285e+01
1.430000e-06	-1.918115e-06	-9.892294e-10	-1.331419e+01	-6.969077e+01
1.440000e-06	-1.873942e-06	-9.808942e-10	-1.300757e+01	-6.909059e+01
1.450000e-06	-1.829768e-06	-9.734937e-10	-1.270095e+01	-6.848218e+01
1.460000e-06	-1.785481e-06	-9.666631e-10	-1.239354e+01	-6.786533e+01
1.470000e-06	-1.741063e-06	-9.592560e-10	-1.208522e+01	-6.723983e+01
1.480000e-06	-1.696509e-06	-9.483447e-10	-1.177596e+01	-6.660540e+01
1.490000e-06	-1.651762e-06	-9.349243e-10	-1.146536e+01	-6.596172e+01
1.500000e-06	-1.606910e-06	-9.199782e-10	-1.115403e+01	-6.530842e+01
1.510000e-06	-1.561951e-06	-9.034446e-10	-1.084195e+01	-6.464507e+01
1.520000e-06	-1.516859e-06	-8.879285e-10	-1.052896e+01	-6.397118e+01
1.530000e-06	-1.471574e-06	-8.758822e-10	-1.021462e+01	-6.328623e+01
1.540000e-06	-1.426136e-06	-8.679889e-10	-9.899219e+00	-6.258960e+01
1.550000e-06	-1.380641e-06	-8.624298e-10	-9.583427e+00	-6.188063e+01
1.560000e-06	-1.335105e-06	-8.546165e-10	-9.267349e+00	-6.115860e+01
1.570000e-06	-1.289472e-06	-8.412929e-10	-8.950595e+00	-6.042271e+01
1.580000e-06	-1.243714e-06	-8.257248e-10	-8.632981e+00	-5.967211e+01
1.590000e-06	-1.197925e-06	-8.095885e-10	-8.315145e+00	-5.890590e+01
1.600000e-06	-1.152062e-06	-7.928770e-10	-7.996795e+00	-5.812310e+01
1.610000e-06	-1.106105e-06	-7.747636e-10	-7.677795e+00	-5.732269e+01
1.620000e-06	-1.060069e-06	-7.575817e-10	-7.358243e+00	-5.650360e+01
1.630000e-06	-1.013936e-06	-7.430446e-10	-7.038020e+00	-5.566469e+01
1.640000e-06	-9.676943e-07	-7.309931e-10	-6.717046e+00	-5.480481e+01
1.650000e-06	-9.213827e-07	-7.193229e-10	-6.395583e+00	-5.392276e+01
1.660000e-06	-8.750510e-07	-7.076354e-10	-6.073982e+00	-5.301729e+01
1.670000e-06	-8.287355e-07	-6.956608e-10	-5.752493e+00	-5.208717e+01
1.680000e-06	-7.824694e-07	-6.813146e-10	-5.431346e+00	-5.113113e+01
1.690000e-06	-7.360645e-07	-6.625563e-10	-5.109237e+00	-5.014788e+01
1.700000e-06	-6.895355e-07	-6.424776e-10	-4.786265e+00	-4.913615e+01
1.710000e-06	-6.430183e-07	-6.222869e-10	-4.463376e+00	-4.809470e+01
1.720000e-06	-5.964647e-07	-6.004210e-10	-4.140234e+00	-4.702228e+01
1.730000e-06	-5.498170e-07	-5.792054e-10	-3.816438e+00	-4.591768e+01
1.740000e-06	-5.030663e-07	-5.625871e-10	-3.491929e+00	-4.477975e+01
1.750000e-06	-4.563380e-07	-5.490768e-10	-3.167574e+00	-4.360736e+01
1.760000e-06	-4.095975e-07	-5.344276e-10	-2.843135e+00	-4.239948e+01
1.770000e-06	-3.626627e-07	-5.174222e-10	-2.517347e+00	-4.115513e+01
1.780000e-06	-3.156450e-07	-4.990227e-10	-2.190983e+00	-3.987343e+01
1.790000e-06	-2.687297e-07	-4.795530e-10	-1.865330e+00	-3.855357e+01
1.800000e-06	-2.218448e-07	-4.591553e-10	-1.539889e+00	-3.719486e+01
1.810000e-06	-1.749567e-07	-4.392349e-10	-1.214425e+00	-3.579674e+01
1.820000e-06	-1.280740e-07	-4.205343e-10	-8.889985e-01	-3.435875e+01
1.830000e-06	-8.124444e-08	-4.029784e-10	-5.639411e-01	-3.288056e+01
1.840000e-06	-3.439064e-08	-3.850121e-10	-2.387153e-01	-3.136199e+01
1.850000e-06	1.249470e-08	-3.654764e-10	8.672935e-02	-2.980300e+01
1.860000e-06	5.936878e-08	-3.453268e-10	4.120958e-01	-2.820371e+01
1.870000e-06	1.061946e-07	-3.250776e-10	7.371277e-01	-2.656439e+01
1.880000e-06	1.530015e-07	-3.038233e-10	1.062027e+00	-2.488547e+01
1.890000e-06	1.999255e-07	-2.797547e-10	1.387741e+00	-2.316755e+01
1.900000e-06	2.467734e-07	-2.534844e-10	1.712925e+00	-2.141139e+01
1.910000e-06	2.935093e-07	-2.278302e-10	2.037333e+00	-1.961792e+01
1.920000e-06	3.403129e-07	-2.021517e-10	2.362211e+00	-1.778825e+01
1.930000e-06	3.871375e-07	-1.756454e-10	2.687233e+00	-1.592364e+01
1.940000e-06	4.338295e-07	-1.502284e-10	3.011336e+00	-1.402551e+01
1.950000e-06	4.804276e-07	-1.276555e-10	3.334787e+00	-1.209546e+01
1.960000e-06	5.269950e-07	-1.043996e-10	3.658024e+00	-1.013523e+01
1.970000e-06	5.735389e-07	-7.901959e-11	3.981099e+00	-8.146705e+00
1.980000e-06	6.200849e-07	-5.259206e-11	4.304189e+00	-6.131927e+00
1.990000e-06	6.665666e-07	-2.476262e-11	4.626832e+00	-4.093061e+00
2.000000e-06	7.130341e-07	5.156925e-12	4.949376e+00	-2.032397e+00
2.010000e-06	7.594747e-07	3.654663e-11	5.271734e+00	4.765797e-02
2.020000e-06	8.058261e-07	6.870835e-11	5.593472e+00	2.144597e+00
2.030000e-06	8.520916e-07	1.026176e-10	5.914614e+00	4.255823e+00
2.040000e-06	8.983307e-07	1.355237e-10	6.235573e+00	6.378657e+00
2.050000e-06	9.445692e-07	1.653732e-10	6.556528e+00	8.510360e+00
2.060000e-06	9.906790e-07	1.933371e-10	6.876590e+00	1.064814e+01
2.070000e-06	1.036703e-06	2.199803e-10	7.196057e+00	1.278917e+01
2.080000e-06	1.082676e-06	2.474091e-10	7.515167e+00	1.493059e+01
2.090000e-06	1.128594e-06	2.768077e-10	7.833896e+00	1.706956e+01
2.100000e-06	1.174474e-06	3.090997e-10	8.152366e+00	1.920321e+01
2.110000e-06	1.220278e-06	3.428840e-10	8.470302e+00	2.132874e+01
2.120000e-06	1.265973e-06	3.749209e-10	8.787484e+00	2.344333e+01
2.130000e-06	1.311575e-06	4.053915e-10	9.104019e+00	2.554426e+01
2.140000e-06	1.357111e-06	4.342369e-10	9.420101e+00	2.762886e+01
2.150000e-06	1.402576e-06	4.592032e-10	9.735684e+00	2.969453e+01
2.160000e-06	1.447912e-06	4.824947e-10	1.005038e+01	3.173877e+01
2.170000e-06	1.493127e-06	5.063677e-10	1.036423e+01	3.375919e+01
2.180000e-06	1.538288e-06	5.317855e-10	1.067770e+01	3.575351e+01
2.190000e-06	1.583262e-06	5.617373e-10	1.098988e+01	3.771956e+01
2.200000e-06	1.628054e-06	5.931423e-10	1.130079e+01	3.965535e+01
2.210000e-06	1.672721e-06	6.232688e-10	1.161084e+01	4.155899e+01
2.220000e-06	1.717210e-06	6.526255e-10	1.191965e+01	4.342876e+01
2.230000e-06	1.761566e-06	6.794184e-10	1.222754e+01	4.526310e+01
2.240000e-06	1.805842e-06	7.026556e-10	1.253487e+01	4.706062e+01
2.250000e-06	1.850036e-06	7.225536e-10	1.284163e+01	4.882008e+01
2.260000e-06	1.894119e-06	7.400697e-10	1.314763e+01	5.054042e+01
2.270000e-06	1.938120e-06	7.594233e-10	1.345305e+01	5.222075e+01
2.280000e-06	1.982098e-06	7.807509e-10	1.375832e+01	5.386035e+01
2.290000e-06	2.026015e-06	8.018037e-10	1.406315e+01	5.545868e+01
2.300000e-06	2.069834e-06	8.225112e-10	1.436732e+01	5.701535e+01
2.310000e-06	2.113570e-06	8.455940e-10	1.467090e+01	5.853015e+01
2.320000e-06	2.157215e-06	8.692375e-10	1.497385e+01	6.000303e+01
2.330000e-06	2.200753e-06	8.917242e-10	1.527606e+01	6.143407e+01
2.340000e-06	2.244188e-06	9.133449e-10	1.557756e+01	6.282354e+01
2.350000e-06	2.287453e-06	9.311791e-10	1.587788e+01	6.417180e+01
2.360000e-06	2.330473e-06	9.452605e-10	1.617649e+01	6.547939e+01
2.370000e-06	2.373243e-06	9.581122e-10	1.647337e+01	6.674695e+01
2.380000e-06	2.415756e-06	9.725198e-10	1.676846e+01	6.797522e+01
2.390000e-06	2.458046e-06	9.900664e-10	1.706201e+01	6.916506e+01
2.400000e-06	2.500061e-06	1.009470e-09	1.735365e+01	7.031741e+01
2.410000e-06	2.541712e-06	1.029756e-09	1.764276e+01	7.143331e+01
2.420000e-06	2.583060e-06	1.048412e-09	1.792977e+01	7.251384e+01
2.430000e-06	2.624234e-06	1.062149e-09	1.821557e+01	7.356017e+01
2.440000e-06	2.665098e-06	1.072744e-09	1.849922e+01	7.457347e+01
2.450000e-06	2.705605e-06	1.082140e-09	1.878039e+01	7.555500e+01
2.460000e-06	2.745909e-06	1.094407e-09	1.906015e+01	7.650599e+01
2.470000e-06	2.786018e-06	1.108792e-09	1.933855e+01	7.742771e+01
2.480000e-06	2.826021e-06	1.121669e-09	1.961623e+01	7.832143e+01
2.490000e-06	2.865935e-06	1.135215e-09	1.989329e+01	7.918841e+01
2.500000e-06	2.905713e-06	1.149364e-09	2.016939e+01	8.002987e+01
2.510000e-06	2.945337e-06	1.164204e-09	2.044444e+01	8.084704e+01
2.520000e-06	2.984753e-06	1.179416e-09	2.071803e+01	8.164107e+01
2.530000e-06	3.023989e-06	1.190015e-09	2.099038e+01	8.241309e+01
2.540000e-06	3.062938e-06	1.197849e-09	2.126074e+01	8.316419e+01
2.550000e-06	3.101602e-06	1.205572e-09	2.152912e+01	8.389538e+01
2.560000e-06	3.140171e-06	1.212175e-09	2.179684e+01	8.460763e+01
2.570000e-06	3.178560e-06	1.217355e-09	2.206330e+01	8.530181e+01
2.580000e-06	3.216704e-06	1.223468e-09	2.232807e+01	8.597876e+01
2.590000e-06	3.254665e-06	1.231463e-09	2.259157e+01	8.663923e+01
2.600000e-06	3.292416e-06	1.240862e-09	2.285361e+01	8.728389e+01
2.610000e-06	3.329955e-06	1.252906e-09	2.311418e+01	8.791336e+01
2.620000e-06	3.367222e-06	1.266628e-09	2.337286e+01	8.852817e+01
2.630000e-06	3.404236e-06	1.278599e-09	2.362979e+01	8.912877e+01
2.640000e-06	3.441055e-06	1.286806e-09	2.388536e+01	8.971557e+01
2.650000e-06	3.477556e-06	1.293630e-09	2.413872e+01	9.028889e+01
2.660000e-06	3.513842e-06	1.299762e-09	2.439059e+01	9.084900e+01
2.670000e-06	3.550005e-06	1.304831e-09	2.464161e+01	9.139609e+01
2.680000e-06	3.585959e-06	1.310335e-09	2.489118e+01	9.193033e+01
2.690000e-06	3.621741e-06	1.317532e-09	2.513955e+01	9.245181e+01
2.700000e-06	3.657417e-06	1.326963e-09	2.538719e+01	9.296059e+01
2.710000e-06	3.692945e-06	1.335629e-09	2.563380e+01	9.345671e+01
2.720000e-06	3.728251e-06	1.340958e-09	2.587887e+01	9.394013e+01
2.730000e-06	3.763193e-06	1.345174e-09	2.612141e+01	9.441085e+01
2.740000e-06	3.797678e-06	1.348995e-09	2.636078e+01	9.486879e+01
2.750000e-06	3.831762e-06	1.352591e-09	2.659737e+01	9.531390e+01
2.760000e-06	3.865522e-06	1.356291e-09	2.683170e+01	9.574610e+01
2.770000e-06	3.898815e-06	1.362298e-09	2.706280e+01	9.616533e+01
2.780000e-06	3.931595e-06	1.370119e-09	2.729034e+01	9.657152e+01
2.790000e-06	3.964064e-06	1.376586e-09	2.751572e+01	9.696462e+01
2.800000e-06	3.996293e-06	1.383349e-09	2.773942e+01	9.734458e+01
2.810000e-06	4.028315e-06	1.391246e-09	2.796170e+01	9.771140e+01
2.820000e-06	4.060152e-06	1.398816e-09	2.818269e+01	9.806508e+01
2.830000e-06	4.091827e-06	1.405767e-09	2.840256e+01	9.840567e+01
2.840000e-06	4.123318e-06	1.412898e-09	2.862114e+01	9.873323e+01
2.850000e-06	4.154517e-06	1.419361e-09	2.883770e+01	9.904788e+01
2.860000e-06	4.185388e-06	1.423517e-09	2.905199e+01	9.934975e+01
2.870000e-06	4.215905e-06	1.427687e-09	2.926381e+01	9.963903e+01
2.880000e-06	4.246044e-06	1.431973e-09	2.947302e+01	9.991594e+01
2.890000e-06	4.275941e-06	1.434485e-09	2.968054e+01	1.001807e+02
2.900000e-06	4.305630e-06	1.437707e-09	2.988662e+01	1.004337e+02
