# Temperatura_=_10.06
# Concentracion g/m^3_=_1620.0
# C_Vs_to_Am_M_A/Vsm_=_65563218390.804596
# pendiente_HvsI_1/m_=_3716.3
# ordenada_HvsI_A/m_=_1297.0
# frecuencia_Hz_=_135107.35547585518

Tiempo_(s)	Campo_(V.s)	Magnetizacion_(V.s)	Campo_(kA/m)	Magnetizacion_(A/m)
0.000000e+00	-5.533115e-06	-1.675795e-09	-3.836810e+01	-1.109940e+02
1.000000e-08	-5.533422e-06	-1.673673e-09	-3.837023e+01	-1.109272e+02
2.000000e-08	-5.533461e-06	-1.676112e-09	-3.837050e+01	-1.108607e+02
3.000000e-08	-5.533108e-06	-1.679874e-09	-3.836805e+01	-1.107948e+02
4.000000e-08	-5.532246e-06	-1.684373e-09	-3.836208e+01	-1.107292e+02
5.000000e-08	-5.530731e-06	-1.686013e-09	-3.835157e+01	-1.106641e+02
6.000000e-08	-5.528660e-06	-1.682987e-09	-3.833721e+01	-1.105994e+02
7.000000e-08	-5.526156e-06	-1.674824e-09	-3.831985e+01	-1.105350e+02
8.000000e-08	-5.523159e-06	-1.678297e-09	-3.829906e+01	-1.104708e+02
9.000000e-08	-5.519670e-06	-1.701271e-09	-3.827487e+01	-1.104066e+02
1.000000e-07	-5.515687e-06	-1.702292e-09	-3.824725e+01	-1.103422e+02
1.100000e-07	-5.511285e-06	-1.660712e-09	-3.821673e+01	-1.102775e+02
1.200000e-07	-5.506701e-06	-1.676238e-09	-3.818494e+01	-1.102124e+02
1.300000e-07	-5.501916e-06	-1.685205e-09	-3.815176e+01	-1.101465e+02
1.400000e-07	-5.496752e-06	-1.672262e-09	-3.811595e+01	-1.100796e+02
1.500000e-07	-5.491193e-06	-1.672526e-09	-3.807741e+01	-1.100116e+02
1.600000e-07	-5.485319e-06	-1.689676e-09	-3.803667e+01	-1.099421e+02
1.700000e-07	-5.479151e-06	-1.725407e-09	-3.799390e+01	-1.098710e+02
1.800000e-07	-5.472503e-06	-1.647303e-09	-3.794780e+01	-1.097980e+02
1.900000e-07	-5.465411e-06	-1.641677e-09	-3.789862e+01	-1.097228e+02
2.000000e-07	-5.458025e-06	-1.650712e-09	-3.784741e+01	-1.096453e+02
2.100000e-07	-5.450346e-06	-1.697894e-09	-3.779416e+01	-1.095653e+02
2.200000e-07	-5.442355e-06	-1.676113e-09	-3.773875e+01	-1.094825e+02
2.300000e-07	-5.434043e-06	-1.696494e-09	-3.768111e+01	-1.093967e+02
2.400000e-07	-5.425424e-06	-1.708913e-09	-3.762134e+01	-1.093078e+02
2.500000e-07	-5.416260e-06	-1.718169e-09	-3.755780e+01	-1.092156e+02
2.600000e-07	-5.406296e-06	-1.695125e-09	-3.748871e+01	-1.091200e+02
2.700000e-07	-5.395695e-06	-1.688453e-09	-3.741520e+01	-1.090209e+02
2.800000e-07	-5.384562e-06	-1.705107e-09	-3.733799e+01	-1.089181e+02
2.900000e-07	-5.373001e-06	-1.713087e-09	-3.725783e+01	-1.088116e+02
3.000000e-07	-5.361132e-06	-1.709323e-09	-3.717553e+01	-1.087012e+02
3.100000e-07	-5.348833e-06	-1.681059e-09	-3.709024e+01	-1.085871e+02
3.200000e-07	-5.336088e-06	-1.691847e-09	-3.700186e+01	-1.084691e+02
3.300000e-07	-5.322926e-06	-1.691328e-09	-3.691060e+01	-1.083472e+02
3.400000e-07	-5.309424e-06	-1.705131e-09	-3.681697e+01	-1.082214e+02
3.500000e-07	-5.295528e-06	-1.672481e-09	-3.672061e+01	-1.080918e+02
3.600000e-07	-5.281215e-06	-1.698489e-09	-3.662136e+01	-1.079584e+02
3.700000e-07	-5.266578e-06	-1.704438e-09	-3.651987e+01	-1.078212e+02
3.800000e-07	-5.251425e-06	-1.689715e-09	-3.641479e+01	-1.076803e+02
3.900000e-07	-5.235565e-06	-1.644353e-09	-3.630481e+01	-1.075357e+02
4.000000e-07	-5.219268e-06	-1.683306e-09	-3.619181e+01	-1.073875e+02
4.100000e-07	-5.202627e-06	-1.668816e-09	-3.607641e+01	-1.072357e+02
4.200000e-07	-5.185555e-06	-1.632779e-09	-3.595803e+01	-1.070805e+02
4.300000e-07	-5.168185e-06	-1.651355e-09	-3.583758e+01	-1.069219e+02
4.400000e-07	-5.150582e-06	-1.699747e-09	-3.571552e+01	-1.067600e+02
4.500000e-07	-5.132563e-06	-1.636084e-09	-3.559057e+01	-1.065948e+02
4.600000e-07	-5.114002e-06	-1.617436e-09	-3.546186e+01	-1.064264e+02
4.700000e-07	-5.095058e-06	-1.672999e-09	-3.533050e+01	-1.062548e+02
4.800000e-07	-5.075813e-06	-1.651165e-09	-3.519705e+01	-1.060801e+02
4.900000e-07	-5.056335e-06	-1.588358e-09	-3.506198e+01	-1.059023e+02
5.000000e-07	-5.036742e-06	-1.639980e-09	-3.492612e+01	-1.057214e+02
5.100000e-07	-5.016916e-06	-1.655045e-09	-3.478864e+01	-1.055375e+02
5.200000e-07	-4.996682e-06	-1.581843e-09	-3.464833e+01	-1.053504e+02
5.300000e-07	-4.976086e-06	-1.604146e-09	-3.450552e+01	-1.051604e+02
5.400000e-07	-4.955209e-06	-1.659499e-09	-3.436075e+01	-1.049672e+02
5.500000e-07	-4.933953e-06	-1.599781e-09	-3.421335e+01	-1.047709e+02
5.600000e-07	-4.912297e-06	-1.578318e-09	-3.406319e+01	-1.045714e+02
5.700000e-07	-4.890300e-06	-1.649767e-09	-3.391065e+01	-1.043688e+02
5.800000e-07	-4.868018e-06	-1.618945e-09	-3.375614e+01	-1.041628e+02
5.900000e-07	-4.845388e-06	-1.567462e-09	-3.359922e+01	-1.039535e+02
6.000000e-07	-4.822456e-06	-1.610893e-09	-3.344021e+01	-1.037408e+02
6.100000e-07	-4.799238e-06	-1.616374e-09	-3.327920e+01	-1.035247e+02
6.200000e-07	-4.775644e-06	-1.550526e-09	-3.311560e+01	-1.033050e+02
6.300000e-07	-4.751846e-06	-1.578735e-09	-3.295058e+01	-1.030816e+02
6.400000e-07	-4.727876e-06	-1.605913e-09	-3.278436e+01	-1.028546e+02
6.500000e-07	-4.703585e-06	-1.569451e-09	-3.261592e+01	-1.026238e+02
6.600000e-07	-4.678833e-06	-1.566874e-09	-3.244428e+01	-1.023892e+02
6.700000e-07	-4.653554e-06	-1.601685e-09	-3.226899e+01	-1.021507e+02
6.800000e-07	-4.627735e-06	-1.566043e-09	-3.208996e+01	-1.019082e+02
6.900000e-07	-4.601415e-06	-1.549377e-09	-3.190745e+01	-1.016618e+02
7.000000e-07	-4.574633e-06	-1.567419e-09	-3.172173e+01	-1.014114e+02
7.100000e-07	-4.547390e-06	-1.555720e-09	-3.153282e+01	-1.011569e+02
7.200000e-07	-4.519829e-06	-1.530104e-09	-3.134170e+01	-1.008984e+02
7.300000e-07	-4.492119e-06	-1.554336e-09	-3.114956e+01	-1.006359e+02
7.400000e-07	-4.464269e-06	-1.555121e-09	-3.095644e+01	-1.003693e+02
7.500000e-07	-4.436226e-06	-1.535360e-09	-3.076198e+01	-1.000988e+02
7.600000e-07	-4.407973e-06	-1.537350e-09	-3.056607e+01	-9.982438e+01
7.700000e-07	-4.379388e-06	-1.544591e-09	-3.036785e+01	-9.954607e+01
7.800000e-07	-4.350362e-06	-1.523582e-09	-3.016658e+01	-9.926397e+01
7.900000e-07	-4.321047e-06	-1.520179e-09	-2.996330e+01	-9.897815e+01
8.000000e-07	-4.291450e-06	-1.525859e-09	-2.975807e+01	-9.868872e+01
8.100000e-07	-4.261510e-06	-1.510198e-09	-2.955046e+01	-9.839577e+01
8.200000e-07	-4.231287e-06	-1.498796e-09	-2.934088e+01	-9.809941e+01
8.300000e-07	-4.200811e-06	-1.506183e-09	-2.912955e+01	-9.779976e+01
8.400000e-07	-4.170045e-06	-1.501764e-09	-2.891621e+01	-9.749694e+01
8.500000e-07	-4.138966e-06	-1.491712e-09	-2.870070e+01	-9.719106e+01
8.600000e-07	-4.107662e-06	-1.502441e-09	-2.848363e+01	-9.688224e+01
8.700000e-07	-4.076148e-06	-1.500810e-09	-2.826510e+01	-9.657059e+01
8.800000e-07	-4.044451e-06	-1.481065e-09	-2.804530e+01	-9.625622e+01
8.900000e-07	-4.012604e-06	-1.470142e-09	-2.782447e+01	-9.593922e+01
9.000000e-07	-3.980564e-06	-1.468458e-09	-2.760230e+01	-9.561967e+01
9.100000e-07	-3.948184e-06	-1.450447e-09	-2.737777e+01	-9.529765e+01
9.200000e-07	-3.915336e-06	-1.445560e-09	-2.714999e+01	-9.497321e+01
9.300000e-07	-3.882121e-06	-1.451410e-09	-2.691967e+01	-9.464638e+01
9.400000e-07	-3.848493e-06	-1.448120e-09	-2.668648e+01	-9.431717e+01
9.500000e-07	-3.814375e-06	-1.437389e-09	-2.644990e+01	-9.398556e+01
9.600000e-07	-3.779869e-06	-1.440434e-09	-2.621062e+01	-9.365153e+01
9.700000e-07	-3.744995e-06	-1.428676e-09	-2.596880e+01	-9.331501e+01
9.800000e-07	-3.709849e-06	-1.411767e-09	-2.572509e+01	-9.297591e+01
9.900000e-07	-3.674489e-06	-1.406774e-09	-2.547989e+01	-9.263411e+01
1.000000e-06	-3.638918e-06	-1.407859e-09	-2.523323e+01	-9.228945e+01
1.010000e-06	-3.603214e-06	-1.391706e-09	-2.498566e+01	-9.194178e+01
1.020000e-06	-3.567352e-06	-1.383005e-09	-2.473698e+01	-9.159087e+01
1.030000e-06	-3.531303e-06	-1.380568e-09	-2.448700e+01	-9.123650e+01
1.040000e-06	-3.495036e-06	-1.372103e-09	-2.423552e+01	-9.087840e+01
1.050000e-06	-3.458490e-06	-1.363251e-09	-2.398210e+01	-9.051631e+01
1.060000e-06	-3.421742e-06	-1.363809e-09	-2.372727e+01	-9.014990e+01
1.070000e-06	-3.384791e-06	-1.354233e-09	-2.347105e+01	-8.977885e+01
1.080000e-06	-3.347528e-06	-1.338384e-09	-2.321266e+01	-8.940281e+01
1.090000e-06	-3.309978e-06	-1.330327e-09	-2.295227e+01	-8.902143e+01
1.100000e-06	-3.272187e-06	-1.321038e-09	-2.269022e+01	-8.863433e+01
1.110000e-06	-3.234202e-06	-1.304328e-09	-2.242683e+01	-8.824112e+01
1.120000e-06	-3.196040e-06	-1.292653e-09	-2.216220e+01	-8.784143e+01
1.130000e-06	-3.157702e-06	-1.287683e-09	-2.189636e+01	-8.743487e+01
1.140000e-06	-3.119004e-06	-1.278849e-09	-2.162801e+01	-8.702104e+01
1.150000e-06	-3.079938e-06	-1.274318e-09	-2.135712e+01	-8.659958e+01
1.160000e-06	-3.040742e-06	-1.274614e-09	-2.108532e+01	-8.617012e+01
1.170000e-06	-3.001490e-06	-1.268864e-09	-2.081314e+01	-8.573230e+01
1.180000e-06	-2.962110e-06	-1.256120e-09	-2.054007e+01	-8.528579e+01
1.190000e-06	-2.922500e-06	-1.248305e-09	-2.026540e+01	-8.483029e+01
1.200000e-06	-2.882773e-06	-1.237042e-09	-1.998992e+01	-8.436550e+01
1.210000e-06	-2.842950e-06	-1.221197e-09	-1.971378e+01	-8.389117e+01
1.220000e-06	-2.802939e-06	-1.208218e-09	-1.943633e+01	-8.340707e+01
1.230000e-06	-2.762734e-06	-1.202134e-09	-1.915754e+01	-8.291303e+01
1.240000e-06	-2.722368e-06	-1.192519e-09	-1.887763e+01	-8.240887e+01
1.250000e-06	-2.681745e-06	-1.187963e-09	-1.859594e+01	-8.189450e+01
1.260000e-06	-2.640851e-06	-1.186397e-09	-1.831237e+01	-8.136982e+01
1.270000e-06	-2.599761e-06	-1.181840e-09	-1.802744e+01	-8.083481e+01
1.280000e-06	-2.558371e-06	-1.170807e-09	-1.774043e+01	-8.028946e+01
1.290000e-06	-2.516687e-06	-1.159325e-09	-1.745138e+01	-7.973382e+01
1.300000e-06	-2.474718e-06	-1.146310e-09	-1.716036e+01	-7.916797e+01
1.310000e-06	-2.432450e-06	-1.131082e-09	-1.686726e+01	-7.859201e+01
1.320000e-06	-2.389912e-06	-1.117126e-09	-1.657229e+01	-7.800609e+01
1.330000e-06	-2.347066e-06	-1.108905e-09	-1.627519e+01	-7.741039e+01
1.340000e-06	-2.303954e-06	-1.103165e-09	-1.597624e+01	-7.680511e+01
1.350000e-06	-2.260701e-06	-1.100217e-09	-1.567631e+01	-7.619047e+01
1.360000e-06	-2.217346e-06	-1.097219e-09	-1.537567e+01	-7.556670e+01
1.370000e-06	-2.173846e-06	-1.091817e-09	-1.507403e+01	-7.493407e+01
1.380000e-06	-2.130227e-06	-1.080977e-09	-1.477156e+01	-7.429282e+01
1.390000e-06	-2.086517e-06	-1.064749e-09	-1.446847e+01	-7.364321e+01
1.400000e-06	-2.042719e-06	-1.044901e-09	-1.416476e+01	-7.298548e+01
1.410000e-06	-1.998835e-06	-1.025949e-09	-1.386046e+01	-7.231988e+01
1.420000e-06	-1.954884e-06	-1.011481e-09	-1.355569e+01	-7.164660e+01
1.430000e-06	-1.910857e-06	-1.003588e-09	-1.325040e+01	-7.096584e+01
1.440000e-06	-1.866681e-06	-9.988589e-10	-1.294407e+01	-7.027774e+01
1.450000e-06	-1.822410e-06	-9.946008e-10	-1.263708e+01	-6.958242e+01
1.460000e-06	-1.778053e-06	-9.868051e-10	-1.232949e+01	-6.887992e+01
1.470000e-06	-1.733543e-06	-9.726228e-10	-1.202085e+01	-6.817024e+01
1.480000e-06	-1.688830e-06	-9.595364e-10	-1.171080e+01	-6.745334e+01
1.490000e-06	-1.643962e-06	-9.463544e-10	-1.139968e+01	-6.672907e+01
1.500000e-06	-1.599020e-06	-9.319218e-10	-1.108804e+01	-6.599723e+01
1.510000e-06	-1.553911e-06	-9.153860e-10	-1.077524e+01	-6.525755e+01
1.520000e-06	-1.508635e-06	-9.025583e-10	-1.046128e+01	-6.450966e+01
1.530000e-06	-1.463288e-06	-8.903849e-10	-1.014683e+01	-6.375310e+01
1.540000e-06	-1.417851e-06	-8.817450e-10	-9.831757e+00	-6.298734e+01
1.550000e-06	-1.372282e-06	-8.749548e-10	-9.515768e+00	-6.221176e+01
1.560000e-06	-1.326611e-06	-8.663554e-10	-9.199079e+00	-6.142562e+01
1.570000e-06	-1.280914e-06	-8.526929e-10	-8.882199e+00	-6.062811e+01
1.580000e-06	-1.235120e-06	-8.365620e-10	-8.564650e+00	-5.981834e+01
1.590000e-06	-1.189273e-06	-8.163576e-10	-8.246739e+00	-5.899531e+01
1.600000e-06	-1.143417e-06	-7.950072e-10	-7.928762e+00	-5.815794e+01
1.610000e-06	-1.097486e-06	-7.748537e-10	-7.610260e+00	-5.730508e+01
1.620000e-06	-1.051487e-06	-7.598019e-10	-7.291296e+00	-5.643550e+01
1.630000e-06	-1.005289e-06	-7.477352e-10	-6.970944e+00	-5.554788e+01
1.640000e-06	-9.589305e-07	-7.349292e-10	-6.649482e+00	-5.464087e+01
1.650000e-06	-9.126356e-07	-7.217873e-10	-6.328460e+00	-5.371305e+01
1.660000e-06	-8.663139e-07	-7.069772e-10	-6.007253e+00	-5.276295e+01
1.670000e-06	-8.198575e-07	-6.910090e-10	-5.685112e+00	-5.178907e+01
1.680000e-06	-7.733532e-07	-6.741292e-10	-5.362639e+00	-5.078989e+01
1.690000e-06	-7.268285e-07	-6.575608e-10	-5.040024e+00	-4.976388e+01
1.700000e-06	-6.802545e-07	-6.402067e-10	-4.717067e+00	-4.870949e+01
1.710000e-06	-6.336686e-07	-6.211777e-10	-4.394028e+00	-4.762521e+01
1.720000e-06	-5.870797e-07	-6.005174e-10	-4.070968e+00	-4.650953e+01
1.730000e-06	-5.403630e-07	-5.806107e-10	-3.747022e+00	-4.536098e+01
1.740000e-06	-4.935767e-07	-5.608684e-10	-3.422593e+00	-4.417817e+01
1.750000e-06	-4.468269e-07	-5.440151e-10	-3.098417e+00	-4.295975e+01
1.760000e-06	-4.000921e-07	-5.256130e-10	-2.774346e+00	-4.170445e+01
1.770000e-06	-3.532961e-07	-5.054558e-10	-2.449850e+00	-4.041109e+01
1.780000e-06	-3.063930e-07	-4.862118e-10	-2.124611e+00	-3.907860e+01
1.790000e-06	-2.594791e-07	-4.687305e-10	-1.799298e+00	-3.770605e+01
1.800000e-06	-2.125104e-07	-4.488110e-10	-1.473604e+00	-3.629260e+01
1.810000e-06	-1.654773e-07	-4.260813e-10	-1.147464e+00	-3.483757e+01
1.820000e-06	-1.184613e-07	-4.035825e-10	-8.214427e-01	-3.334043e+01
1.830000e-06	-7.144578e-08	-3.821149e-10	-4.954242e-01	-3.180082e+01
1.840000e-06	-2.449611e-08	-3.600118e-10	-1.698626e-01	-3.021855e+01
1.850000e-06	2.241710e-08	-3.391905e-10	1.554462e-01	-2.859357e+01
1.860000e-06	6.931081e-08	-3.195526e-10	4.806197e-01	-2.692607e+01
1.870000e-06	1.161950e-07	-2.985576e-10	8.057273e-01	-2.521640e+01
1.880000e-06	1.631914e-07	-2.769691e-10	1.131613e+00	-2.346509e+01
1.890000e-06	2.102223e-07	-2.534861e-10	1.457738e+00	-2.167289e+01
1.900000e-06	2.571701e-07	-2.243413e-10	1.783286e+00	-1.984073e+01
1.910000e-06	3.040463e-07	-1.931054e-10	2.108339e+00	-1.796974e+01
1.920000e-06	3.508881e-07	-1.624575e-10	2.433152e+00	-1.606125e+01
1.930000e-06	3.977697e-07	-1.340939e-10	2.758242e+00	-1.411678e+01
1.940000e-06	4.446060e-07	-1.095361e-10	3.083017e+00	-1.213801e+01
1.950000e-06	4.913751e-07	-8.835025e-11	3.407327e+00	-1.012683e+01
1.960000e-06	5.381178e-07	-6.662316e-11	3.731453e+00	-8.085281e+00
1.970000e-06	5.847965e-07	-3.988272e-11	4.055136e+00	-6.015581e+00
1.980000e-06	6.314160e-07	-1.100713e-11	4.378408e+00	-3.920087e+00
1.990000e-06	6.779064e-07	1.878540e-11	4.700785e+00	-1.801301e+00
2.000000e-06	7.242494e-07	5.009239e-11	5.022140e+00	3.381508e-01
2.010000e-06	7.706266e-07	8.211699e-11	5.343732e+00	2.495527e+00
2.020000e-06	8.170808e-07	1.141068e-10	5.665857e+00	4.667987e+00
2.030000e-06	8.634297e-07	1.463732e-10	5.987253e+00	6.852610e+00
2.040000e-06	9.096788e-07	1.762558e-10	6.307957e+00	9.046407e+00
2.050000e-06	9.558076e-07	2.038301e-10	6.627826e+00	1.124634e+01
2.060000e-06	1.001873e-06	2.306677e-10	6.947254e+00	1.344933e+01
2.070000e-06	1.047978e-06	2.579969e-10	7.266961e+00	1.565229e+01
2.080000e-06	1.093997e-06	2.854725e-10	7.586069e+00	1.785213e+01
2.090000e-06	1.139895e-06	3.144890e-10	7.904337e+00	2.004580e+01
2.100000e-06	1.185676e-06	3.467947e-10	8.221795e+00	2.223025e+01
2.110000e-06	1.231387e-06	3.817912e-10	8.538767e+00	2.440250e+01
2.120000e-06	1.277057e-06	4.171286e-10	8.855454e+00	2.655965e+01
2.130000e-06	1.322614e-06	4.519656e-10	9.171359e+00	2.869887e+01
2.140000e-06	1.368118e-06	4.815983e-10	9.486895e+00	3.081744e+01
2.150000e-06	1.413577e-06	5.052832e-10	9.802124e+00	3.291275e+01
2.160000e-06	1.458859e-06	5.268414e-10	1.011612e+01	3.498232e+01
2.170000e-06	1.503998e-06	5.488025e-10	1.042913e+01	3.702381e+01
2.180000e-06	1.549073e-06	5.742997e-10	1.074169e+01	3.903503e+01
2.190000e-06	1.594016e-06	6.041729e-10	1.105333e+01	4.101395e+01
2.200000e-06	1.638808e-06	6.368364e-10	1.136393e+01	4.295872e+01
2.210000e-06	1.683477e-06	6.691353e-10	1.167368e+01	4.486765e+01
2.220000e-06	1.728049e-06	6.991351e-10	1.198275e+01	4.673924e+01
2.230000e-06	1.772526e-06	7.248258e-10	1.229117e+01	4.857219e+01
2.240000e-06	1.816836e-06	7.453586e-10	1.259843e+01	5.036537e+01
2.250000e-06	1.860917e-06	7.619513e-10	1.290410e+01	5.211785e+01
2.260000e-06	1.904917e-06	7.781062e-10	1.320920e+01	5.382890e+01
2.270000e-06	1.948942e-06	7.983523e-10	1.351449e+01	5.549794e+01
2.280000e-06	1.992858e-06	8.226209e-10	1.381901e+01	5.712463e+01
2.290000e-06	2.036621e-06	8.484781e-10	1.412247e+01	5.870878e+01
2.300000e-06	2.080301e-06	8.737896e-10	1.442536e+01	6.025037e+01
2.310000e-06	2.123960e-06	8.972809e-10	1.472811e+01	6.174958e+01
2.320000e-06	2.167596e-06	9.179012e-10	1.503069e+01	6.320671e+01
2.330000e-06	2.211186e-06	9.343591e-10	1.533296e+01	6.462223e+01
2.340000e-06	2.254672e-06	9.482426e-10	1.563450e+01	6.599677e+01
2.350000e-06	2.298007e-06	9.633916e-10	1.593500e+01	6.733106e+01
2.360000e-06	2.341186e-06	9.813504e-10	1.623441e+01	6.862596e+01
2.370000e-06	2.384164e-06	1.000452e-09	1.653243e+01	6.988245e+01
2.380000e-06	2.426834e-06	1.020459e-09	1.682832e+01	7.110157e+01
2.390000e-06	2.469166e-06	1.039452e-09	1.712186e+01	7.228447e+01
2.400000e-06	2.511156e-06	1.056182e-09	1.741303e+01	7.343235e+01
2.410000e-06	2.552888e-06	1.071405e-09	1.770241e+01	7.454647e+01
2.420000e-06	2.594401e-06	1.085842e-09	1.799027e+01	7.562814e+01
2.430000e-06	2.635533e-06	1.100423e-09	1.827549e+01	7.667867e+01
2.440000e-06	2.676288e-06	1.117713e-09	1.855810e+01	7.769941e+01
2.450000e-06	2.716770e-06	1.136615e-09	1.883881e+01	7.869168e+01
2.460000e-06	2.757041e-06	1.152588e-09	1.911806e+01	7.965683e+01
2.470000e-06	2.797121e-06	1.164734e-09	1.939599e+01	8.059616e+01
2.480000e-06	2.837018e-06	1.175167e-09	1.967265e+01	8.151093e+01
2.490000e-06	2.876795e-06	1.186442e-09	1.994847e+01	8.240238e+01
2.500000e-06	2.916475e-06	1.199093e-09	2.022362e+01	8.327169e+01
2.510000e-06	2.956046e-06	1.213711e-09	2.049802e+01	8.411996e+01
2.520000e-06	2.995516e-06	1.230463e-09	2.077171e+01	8.494826e+01
2.530000e-06	3.034801e-06	1.247249e-09	2.104413e+01	8.575755e+01
2.540000e-06	3.073935e-06	1.262997e-09	2.131549e+01	8.654873e+01
2.550000e-06	3.112870e-06	1.275505e-09	2.158548e+01	8.732263e+01
2.560000e-06	3.151509e-06	1.282917e-09	2.185341e+01	8.807998e+01
2.570000e-06	3.189858e-06	1.286363e-09	2.211933e+01	8.882141e+01
2.580000e-06	3.227921e-06	1.289726e-09	2.238327e+01	8.954750e+01
2.590000e-06	3.265807e-06	1.296362e-09	2.264598e+01	9.025872e+01
2.600000e-06	3.303538e-06	1.307629e-09	2.290762e+01	9.095546e+01
2.610000e-06	3.341128e-06	1.322735e-09	2.316828e+01	9.163804e+01
2.620000e-06	3.378499e-06	1.339097e-09	2.342742e+01	9.230668e+01
2.630000e-06	3.415580e-06	1.353050e-09	2.368455e+01	9.296154e+01
2.640000e-06	3.452405e-06	1.362451e-09	2.393990e+01	9.360272e+01
2.650000e-06	3.488933e-06	1.368472e-09	2.419320e+01	9.423024e+01
2.660000e-06	3.525205e-06	1.372597e-09	2.444472e+01	9.484409e+01
2.670000e-06	3.561225e-06	1.375087e-09	2.469449e+01	9.544418e+01
2.680000e-06	3.597044e-06	1.378342e-09	2.494287e+01	9.603040e+01
2.690000e-06	3.632773e-06	1.384170e-09	2.519062e+01	9.660260e+01
2.700000e-06	3.668357e-06	1.392974e-09	2.543737e+01	9.716060e+01
2.710000e-06	3.703760e-06	1.402332e-09	2.568286e+01	9.770422e+01
2.720000e-06	3.739092e-06	1.410043e-09	2.592787e+01	9.823325e+01
2.730000e-06	3.774227e-06	1.418037e-09	2.617150e+01	9.874748e+01
2.740000e-06	3.808928e-06	1.425731e-09	2.641213e+01	9.924672e+01
2.750000e-06	3.843205e-06	1.430884e-09	2.664982e+01	9.973079e+01
2.760000e-06	3.876959e-06	1.432826e-09	2.688387e+01	1.001995e+02
2.770000e-06	3.910221e-06	1.435952e-09	2.711452e+01	1.006528e+02
2.780000e-06	3.943088e-06	1.439889e-09	2.734243e+01	1.010904e+02
2.790000e-06	3.975467e-06	1.444347e-09	2.756696e+01	1.015124e+02
2.800000e-06	4.007496e-06	1.452223e-09	2.778905e+01	1.019188e+02
2.810000e-06	4.039325e-06	1.461623e-09	2.800977e+01	1.023095e+02
2.820000e-06	4.071034e-06	1.470330e-09	2.822964e+01	1.026846e+02
2.830000e-06	4.102640e-06	1.478070e-09	2.844881e+01	1.030443e+02
2.840000e-06	4.134030e-06	1.484945e-09	2.866647e+01	1.033887e+02
2.850000e-06	4.165157e-06	1.490206e-09	2.888232e+01	1.037182e+02
2.860000e-06	4.196002e-06	1.494333e-09	2.909620e+01	1.040329e+02
2.870000e-06	4.226570e-06	1.500951e-09	2.930817e+01	1.043332e+02
2.880000e-06	4.256752e-06	1.505203e-09	2.951746e+01	1.046196e+02
2.890000e-06	4.286561e-06	1.505789e-09	2.972417e+01	1.048926e+02
2.900000e-06	4.316044e-06	1.508662e-09	2.992861e+01	1.051525e+02
