# Temperatura_=_-4.86
# Concentracion g/m^3_=_1620.0
# C_Vs_to_Am_M_A/Vsm_=_65563218390.804596
# pendiente_HvsI_1/m_=_3716.3
# ordenada_HvsI_A/m_=_1297.0
# frecuencia_Hz_=_135110.97465694282

Tiempo_(s)	Campo_(V.s)	Magnetizacion_(V.s)	Campo_(kA/m)	Magnetizacion_(A/m)
0.000000e+00	-5.523705e-06	-1.345887e-09	-3.837091e+01	-8.869105e+01
1.000000e-08	-5.523939e-06	-1.346970e-09	-3.837254e+01	-8.861986e+01
2.000000e-08	-5.523937e-06	-1.349565e-09	-3.837252e+01	-8.854899e+01
3.000000e-08	-5.523499e-06	-1.352144e-09	-3.836948e+01	-8.847841e+01
4.000000e-08	-5.522376e-06	-1.349598e-09	-3.836168e+01	-8.840806e+01
5.000000e-08	-5.520565e-06	-1.339236e-09	-3.834909e+01	-8.833784e+01
6.000000e-08	-5.518279e-06	-1.318526e-09	-3.833322e+01	-8.826768e+01
7.000000e-08	-5.515517e-06	-1.313990e-09	-3.831403e+01	-8.819744e+01
8.000000e-08	-5.512255e-06	-1.373890e-09	-3.829137e+01	-8.812699e+01
9.000000e-08	-5.508515e-06	-1.439477e-09	-3.826539e+01	-8.805619e+01
1.000000e-07	-5.504327e-06	-1.385853e-09	-3.823630e+01	-8.798488e+01
1.100000e-07	-5.499929e-06	-1.288150e-09	-3.820575e+01	-8.791290e+01
1.200000e-07	-5.495427e-06	-1.298915e-09	-3.817447e+01	-8.784007e+01
1.300000e-07	-5.490638e-06	-1.349839e-09	-3.814120e+01	-8.776623e+01
1.400000e-07	-5.485339e-06	-1.349642e-09	-3.810440e+01	-8.769121e+01
1.500000e-07	-5.479634e-06	-1.284464e-09	-3.806476e+01	-8.761483e+01
1.600000e-07	-5.473630e-06	-1.333073e-09	-3.802306e+01	-8.753694e+01
1.700000e-07	-5.467167e-06	-1.396906e-09	-3.797816e+01	-8.745738e+01
1.800000e-07	-5.460146e-06	-1.363743e-09	-3.792939e+01	-8.737601e+01
1.900000e-07	-5.452807e-06	-1.298254e-09	-3.787841e+01	-8.729269e+01
2.000000e-07	-5.445254e-06	-1.269210e-09	-3.782594e+01	-8.720730e+01
2.100000e-07	-5.437420e-06	-1.325976e-09	-3.777152e+01	-8.711975e+01
2.200000e-07	-5.429323e-06	-1.333883e-09	-3.771527e+01	-8.702994e+01
2.300000e-07	-5.420949e-06	-1.351547e-09	-3.765711e+01	-8.693780e+01
2.400000e-07	-5.412044e-06	-1.339165e-09	-3.759525e+01	-8.684330e+01
2.500000e-07	-5.402375e-06	-1.354808e-09	-3.752808e+01	-8.674638e+01
2.600000e-07	-5.392134e-06	-1.329401e-09	-3.745694e+01	-8.664705e+01
2.700000e-07	-5.381415e-06	-1.310750e-09	-3.738248e+01	-8.654531e+01
2.800000e-07	-5.370143e-06	-1.308155e-09	-3.730418e+01	-8.644118e+01
2.900000e-07	-5.358437e-06	-1.355778e-09	-3.722286e+01	-8.633470e+01
3.000000e-07	-5.346426e-06	-1.351246e-09	-3.713943e+01	-8.622594e+01
3.100000e-07	-5.334016e-06	-1.316917e-09	-3.705322e+01	-8.611496e+01
3.200000e-07	-5.321140e-06	-1.313789e-09	-3.696377e+01	-8.600186e+01
3.300000e-07	-5.307944e-06	-1.344044e-09	-3.687210e+01	-8.588672e+01
3.400000e-07	-5.294458e-06	-1.333584e-09	-3.677842e+01	-8.576967e+01
3.500000e-07	-5.280434e-06	-1.293212e-09	-3.668100e+01	-8.565081e+01
3.600000e-07	-5.265842e-06	-1.327491e-09	-3.657964e+01	-8.553026e+01
3.700000e-07	-5.250888e-06	-1.352778e-09	-3.647576e+01	-8.540816e+01
3.800000e-07	-5.235338e-06	-1.316845e-09	-3.636774e+01	-8.528463e+01
3.900000e-07	-5.219080e-06	-1.295388e-09	-3.625481e+01	-8.515978e+01
4.000000e-07	-5.202533e-06	-1.342187e-09	-3.613986e+01	-8.503375e+01
4.100000e-07	-5.185792e-06	-1.305073e-09	-3.602357e+01	-8.490664e+01
4.200000e-07	-5.168705e-06	-1.265000e-09	-3.590487e+01	-8.477857e+01
4.300000e-07	-5.151286e-06	-1.321792e-09	-3.578387e+01	-8.464962e+01
4.400000e-07	-5.133547e-06	-1.361530e-09	-3.566064e+01	-8.451989e+01
4.500000e-07	-5.115311e-06	-1.280870e-09	-3.553397e+01	-8.438944e+01
4.600000e-07	-5.096626e-06	-1.290875e-09	-3.540417e+01	-8.425833e+01
4.700000e-07	-5.077605e-06	-1.342551e-09	-3.527204e+01	-8.412659e+01
4.800000e-07	-5.058250e-06	-1.299560e-09	-3.513758e+01	-8.399426e+01
4.900000e-07	-5.038682e-06	-1.260117e-09	-3.500165e+01	-8.386133e+01
5.000000e-07	-5.018976e-06	-1.329438e-09	-3.486476e+01	-8.372779e+01
5.100000e-07	-4.999065e-06	-1.301083e-09	-3.472645e+01	-8.359360e+01
5.200000e-07	-4.978753e-06	-1.243171e-09	-3.458535e+01	-8.345873e+01
5.300000e-07	-4.958010e-06	-1.303097e-09	-3.444126e+01	-8.332309e+01
5.400000e-07	-4.936931e-06	-1.338216e-09	-3.429483e+01	-8.318660e+01
5.500000e-07	-4.915500e-06	-1.251450e-09	-3.414596e+01	-8.304917e+01
5.600000e-07	-4.893782e-06	-1.260895e-09	-3.399509e+01	-8.291068e+01
5.700000e-07	-4.871805e-06	-1.318590e-09	-3.384243e+01	-8.277100e+01
5.800000e-07	-4.849545e-06	-1.272392e-09	-3.368780e+01	-8.263000e+01
5.900000e-07	-4.826955e-06	-1.245689e-09	-3.353088e+01	-8.248752e+01
6.000000e-07	-4.803941e-06	-1.298145e-09	-3.337100e+01	-8.234342e+01
6.100000e-07	-4.780617e-06	-1.272546e-09	-3.320898e+01	-8.219753e+01
6.200000e-07	-4.757053e-06	-1.227776e-09	-3.304529e+01	-8.204971e+01
6.300000e-07	-4.733282e-06	-1.267011e-09	-3.288016e+01	-8.189978e+01
6.400000e-07	-4.709258e-06	-1.272009e-09	-3.271328e+01	-8.174760e+01
6.500000e-07	-4.684750e-06	-1.236751e-09	-3.254304e+01	-8.159301e+01
6.600000e-07	-4.659793e-06	-1.257977e-09	-3.236967e+01	-8.143588e+01
6.700000e-07	-4.634350e-06	-1.274675e-09	-3.219293e+01	-8.127608e+01
6.800000e-07	-4.608226e-06	-1.233320e-09	-3.201145e+01	-8.111348e+01
6.900000e-07	-4.581522e-06	-1.234524e-09	-3.182595e+01	-8.094799e+01
7.000000e-07	-4.554384e-06	-1.249698e-09	-3.163743e+01	-8.077952e+01
7.100000e-07	-4.526962e-06	-1.227506e-09	-3.144694e+01	-8.060800e+01
7.200000e-07	-4.499409e-06	-1.217976e-09	-3.125555e+01	-8.043339e+01
7.300000e-07	-4.471742e-06	-1.245083e-09	-3.106336e+01	-8.025566e+01
7.400000e-07	-4.443907e-06	-1.232595e-09	-3.087000e+01	-8.007481e+01
7.500000e-07	-4.415878e-06	-1.218971e-09	-3.067529e+01	-7.989086e+01
7.600000e-07	-4.387550e-06	-1.226371e-09	-3.047851e+01	-7.970384e+01
7.700000e-07	-4.358789e-06	-1.223917e-09	-3.027872e+01	-7.951383e+01
7.800000e-07	-4.329643e-06	-1.203775e-09	-3.007625e+01	-7.932090e+01
7.900000e-07	-4.300224e-06	-1.213156e-09	-2.987189e+01	-7.912516e+01
8.000000e-07	-4.270573e-06	-1.212573e-09	-2.966591e+01	-7.892674e+01
8.100000e-07	-4.240534e-06	-1.194542e-09	-2.945725e+01	-7.872578e+01
8.200000e-07	-4.210165e-06	-1.191479e-09	-2.924629e+01	-7.852244e+01
8.300000e-07	-4.179583e-06	-1.203793e-09	-2.903385e+01	-7.831690e+01
8.400000e-07	-4.148653e-06	-1.191595e-09	-2.881899e+01	-7.810933e+01
8.500000e-07	-4.117434e-06	-1.187826e-09	-2.860212e+01	-7.789992e+01
8.600000e-07	-4.086066e-06	-1.200182e-09	-2.838422e+01	-7.768889e+01
8.700000e-07	-4.054545e-06	-1.194222e-09	-2.816526e+01	-7.747642e+01
8.800000e-07	-4.022896e-06	-1.178323e-09	-2.794541e+01	-7.726272e+01
8.900000e-07	-3.991096e-06	-1.179849e-09	-2.772450e+01	-7.704799e+01
9.000000e-07	-3.959006e-06	-1.174357e-09	-2.750158e+01	-7.683240e+01
9.100000e-07	-3.926539e-06	-1.157048e-09	-2.727606e+01	-7.661614e+01
9.200000e-07	-3.893676e-06	-1.158754e-09	-2.704777e+01	-7.639936e+01
9.300000e-07	-3.860435e-06	-1.166932e-09	-2.681686e+01	-7.618222e+01
9.400000e-07	-3.826663e-06	-1.158861e-09	-2.658226e+01	-7.596484e+01
9.500000e-07	-3.792297e-06	-1.153681e-09	-2.634353e+01	-7.574731e+01
9.600000e-07	-3.757564e-06	-1.158105e-09	-2.610226e+01	-7.552971e+01
9.700000e-07	-3.722469e-06	-1.142888e-09	-2.585846e+01	-7.531208e+01
9.800000e-07	-3.687091e-06	-1.128503e-09	-2.561271e+01	-7.509444e+01
9.900000e-07	-3.651620e-06	-1.129401e-09	-2.536630e+01	-7.487676e+01
1.000000e-06	-3.616030e-06	-1.130498e-09	-2.511907e+01	-7.465900e+01
1.010000e-06	-3.580289e-06	-1.119305e-09	-2.487080e+01	-7.444106e+01
1.020000e-06	-3.544427e-06	-1.120443e-09	-2.462168e+01	-7.422281e+01
1.030000e-06	-3.508404e-06	-1.122661e-09	-2.437144e+01	-7.400410e+01
1.040000e-06	-3.472150e-06	-1.115650e-09	-2.411960e+01	-7.378474e+01
1.050000e-06	-3.435565e-06	-1.108756e-09	-2.386546e+01	-7.356448e+01
1.060000e-06	-3.398620e-06	-1.110398e-09	-2.360882e+01	-7.334306e+01
1.070000e-06	-3.361439e-06	-1.100283e-09	-2.335053e+01	-7.312019e+01
1.080000e-06	-3.324041e-06	-1.091149e-09	-2.309074e+01	-7.289553e+01
1.090000e-06	-3.286410e-06	-1.090076e-09	-2.282934e+01	-7.266874e+01
1.100000e-06	-3.248569e-06	-1.086963e-09	-2.256648e+01	-7.243944e+01
1.110000e-06	-3.210513e-06	-1.075507e-09	-2.230211e+01	-7.220722e+01
1.120000e-06	-3.172148e-06	-1.069275e-09	-2.203561e+01	-7.197166e+01
1.130000e-06	-3.133562e-06	-1.064011e-09	-2.176757e+01	-7.173234e+01
1.140000e-06	-3.094804e-06	-1.055147e-09	-2.149833e+01	-7.148882e+01
1.150000e-06	-3.055837e-06	-1.050095e-09	-2.122764e+01	-7.124064e+01
1.160000e-06	-3.016664e-06	-1.049523e-09	-2.095553e+01	-7.098737e+01
1.170000e-06	-2.977305e-06	-1.043425e-09	-2.068211e+01	-7.072855e+01
1.180000e-06	-2.937844e-06	-1.038535e-09	-2.040799e+01	-7.046374e+01
1.190000e-06	-2.898310e-06	-1.038624e-09	-2.013337e+01	-7.019254e+01
1.200000e-06	-2.858691e-06	-1.033384e-09	-1.985815e+01	-6.991452e+01
1.210000e-06	-2.818856e-06	-1.023154e-09	-1.958144e+01	-6.962931e+01
1.220000e-06	-2.778859e-06	-1.015569e-09	-1.930359e+01	-6.933654e+01
1.230000e-06	-2.738768e-06	-1.008188e-09	-1.902510e+01	-6.903587e+01
1.240000e-06	-2.698429e-06	-9.968555e-10	-1.874488e+01	-6.872700e+01
1.250000e-06	-2.657834e-06	-9.927861e-10	-1.846288e+01	-6.840967e+01
1.260000e-06	-2.616945e-06	-9.932242e-10	-1.817884e+01	-6.808365e+01
1.270000e-06	-2.575652e-06	-9.903159e-10	-1.789199e+01	-6.774873e+01
1.280000e-06	-2.534088e-06	-9.819976e-10	-1.760327e+01	-6.740477e+01
1.290000e-06	-2.492274e-06	-9.757342e-10	-1.731280e+01	-6.705166e+01
1.300000e-06	-2.450125e-06	-9.667310e-10	-1.702001e+01	-6.668931e+01
1.310000e-06	-2.407702e-06	-9.563317e-10	-1.672531e+01	-6.631770e+01
1.320000e-06	-2.365059e-06	-9.486488e-10	-1.642909e+01	-6.593684e+01
1.330000e-06	-2.322177e-06	-9.441767e-10	-1.613121e+01	-6.554675e+01
1.340000e-06	-2.279073e-06	-9.395856e-10	-1.583178e+01	-6.514754e+01
1.350000e-06	-2.235828e-06	-9.383483e-10	-1.553138e+01	-6.473929e+01
1.360000e-06	-2.192457e-06	-9.373531e-10	-1.523010e+01	-6.432216e+01
1.370000e-06	-2.148937e-06	-9.333249e-10	-1.492778e+01	-6.389630e+01
1.380000e-06	-2.105252e-06	-9.251615e-10	-1.462432e+01	-6.346189e+01
1.390000e-06	-2.061491e-06	-9.163397e-10	-1.432033e+01	-6.301913e+01
1.400000e-06	-2.017695e-06	-9.055675e-10	-1.401610e+01	-6.256821e+01
1.410000e-06	-1.973855e-06	-8.943806e-10	-1.371156e+01	-6.210935e+01
1.420000e-06	-1.929994e-06	-8.850207e-10	-1.340688e+01	-6.164274e+01
1.430000e-06	-1.886014e-06	-8.785604e-10	-1.310136e+01	-6.116857e+01
1.440000e-06	-1.841861e-06	-8.715987e-10	-1.279465e+01	-6.068701e+01
1.450000e-06	-1.797570e-06	-8.645772e-10	-1.248698e+01	-6.019820e+01
1.460000e-06	-1.753214e-06	-8.586869e-10	-1.217886e+01	-5.970227e+01
1.470000e-06	-1.708780e-06	-8.523085e-10	-1.187019e+01	-5.919928e+01
1.480000e-06	-1.664117e-06	-8.450144e-10	-1.155994e+01	-5.868926e+01
1.490000e-06	-1.619288e-06	-8.361402e-10	-1.124853e+01	-5.817220e+01
1.500000e-06	-1.574371e-06	-8.256684e-10	-1.093651e+01	-5.764800e+01
1.510000e-06	-1.529283e-06	-8.148205e-10	-1.062330e+01	-5.711653e+01
1.520000e-06	-1.484053e-06	-8.043550e-10	-1.030911e+01	-5.657756e+01
1.530000e-06	-1.438759e-06	-7.940873e-10	-9.994466e+00	-5.603081e+01
1.540000e-06	-1.393378e-06	-7.846281e-10	-9.679225e+00	-5.547592e+01
1.550000e-06	-1.347905e-06	-7.753937e-10	-9.363340e+00	-5.491242e+01
1.560000e-06	-1.302361e-06	-7.655547e-10	-9.046968e+00	-5.433980e+01
1.570000e-06	-1.256760e-06	-7.534647e-10	-8.730194e+00	-5.375742e+01
1.580000e-06	-1.211089e-06	-7.426567e-10	-8.412937e+00	-5.316459e+01
1.590000e-06	-1.165325e-06	-7.323765e-10	-8.095031e+00	-5.256051e+01
1.600000e-06	-1.119467e-06	-7.190029e-10	-7.776476e+00	-5.194431e+01
1.610000e-06	-1.073527e-06	-7.044453e-10	-7.457353e+00	-5.131502e+01
1.620000e-06	-1.027528e-06	-6.935022e-10	-7.137815e+00	-5.067160e+01
1.630000e-06	-9.814221e-07	-6.828756e-10	-6.817536e+00	-5.001293e+01
1.640000e-06	-9.352071e-07	-6.719271e-10	-6.496499e+00	-4.933784e+01
1.650000e-06	-8.889252e-07	-6.619971e-10	-6.174998e+00	-4.864505e+01
1.660000e-06	-8.425899e-07	-6.536416e-10	-5.853126e+00	-4.793327e+01
1.670000e-06	-7.962153e-07	-6.448123e-10	-5.530980e+00	-4.720114e+01
1.680000e-06	-7.497814e-07	-6.336646e-10	-5.208423e+00	-4.644724e+01
1.690000e-06	-7.033334e-07	-6.204429e-10	-4.885768e+00	-4.567015e+01
1.700000e-06	-6.568613e-07	-6.052161e-10	-4.562945e+00	-4.486842e+01
1.710000e-06	-6.103277e-07	-5.873534e-10	-4.239696e+00	-4.404057e+01
1.720000e-06	-5.637037e-07	-5.709740e-10	-3.915818e+00	-4.318514e+01
1.730000e-06	-5.170415e-07	-5.583988e-10	-3.591675e+00	-4.230069e+01
1.740000e-06	-4.704361e-07	-5.486703e-10	-3.267926e+00	-4.138579e+01
1.750000e-06	-4.238101e-07	-5.368086e-10	-2.944035e+00	-4.043906e+01
1.760000e-06	-3.770803e-07	-5.222417e-10	-2.619422e+00	-3.945915e+01
1.770000e-06	-3.302449e-07	-5.057117e-10	-2.294076e+00	-3.844480e+01
1.780000e-06	-2.833245e-07	-4.874962e-10	-1.968139e+00	-3.739482e+01
1.790000e-06	-2.364272e-07	-4.702156e-10	-1.642363e+00	-3.630809e+01
1.800000e-06	-1.895466e-07	-4.538079e-10	-1.316702e+00	-3.518361e+01
1.810000e-06	-1.426574e-07	-4.374572e-10	-9.909820e-01	-3.402049e+01
1.820000e-06	-9.582059e-08	-4.216592e-10	-6.656262e-01	-3.281797e+01
1.830000e-06	-4.896200e-08	-4.054672e-10	-3.401189e-01	-3.157541e+01
1.840000e-06	-2.034424e-09	-3.870821e-10	-1.413231e-02	-3.029232e+01
1.850000e-06	4.488482e-08	-3.682380e-10	3.117964e-01	-2.896837e+01
1.860000e-06	9.178463e-08	-3.502478e-10	6.375901e-01	-2.760338e+01
1.870000e-06	1.386072e-07	-3.322864e-10	9.628472e-01	-2.619734e+01
1.880000e-06	1.853589e-07	-3.130608e-10	1.287612e+00	-2.475042e+01
1.890000e-06	2.321595e-07	-2.922361e-10	1.612717e+00	-2.326297e+01
1.900000e-06	2.789210e-07	-2.689497e-10	1.937550e+00	-2.173551e+01
1.910000e-06	3.256692e-07	-2.435305e-10	2.262290e+00	-2.016875e+01
1.920000e-06	3.724842e-07	-2.171785e-10	2.587495e+00	-1.856357e+01
1.930000e-06	4.193109e-07	-1.939487e-10	2.912780e+00	-1.692106e+01
1.940000e-06	4.660537e-07	-1.729976e-10	3.237484e+00	-1.524247e+01
1.950000e-06	5.127058e-07	-1.522158e-10	3.561556e+00	-1.352922e+01
1.960000e-06	5.594142e-07	-1.305074e-10	3.886020e+00	-1.178292e+01
1.970000e-06	6.061139e-07	-1.078434e-10	4.210424e+00	-1.000534e+01
1.980000e-06	6.526116e-07	-8.436456e-11	4.533424e+00	-8.198409e+00
1.990000e-06	6.989221e-07	-5.896589e-11	4.855125e+00	-6.364195e+00
2.000000e-06	7.451925e-07	-3.164721e-11	5.176546e+00	-4.504915e+00
2.010000e-06	7.914725e-07	-3.960122e-12	5.498035e+00	-2.622913e+00
2.020000e-06	8.377599e-07	2.405316e-11	5.819574e+00	-7.206492e-01
2.030000e-06	8.840845e-07	5.256915e-11	6.141372e+00	1.199314e+00
2.040000e-06	9.303337e-07	8.068473e-11	6.462646e+00	3.134323e+00
2.050000e-06	9.764884e-07	1.062160e-10	6.783264e+00	5.081650e+00
2.060000e-06	1.022656e-06	1.307612e-10	7.103968e+00	7.038506e+00
2.070000e-06	1.068721e-06	1.553584e-10	7.423964e+00	9.002059e+00
2.080000e-06	1.114621e-06	1.802441e-10	7.742815e+00	1.096944e+01
2.090000e-06	1.160428e-06	2.078973e-10	8.061017e+00	1.293778e+01
2.100000e-06	1.206151e-06	2.372264e-10	8.378634e+00	1.490421e+01
2.110000e-06	1.251820e-06	2.657765e-10	8.695881e+00	1.686586e+01
2.120000e-06	1.297409e-06	2.937873e-10	9.012567e+00	1.881992e+01
2.130000e-06	1.342930e-06	3.227328e-10	9.328785e+00	2.076361e+01
2.140000e-06	1.388385e-06	3.492793e-10	9.644540e+00	2.269423e+01
2.150000e-06	1.433700e-06	3.722457e-10	9.959323e+00	2.460915e+01
2.160000e-06	1.478923e-06	3.936913e-10	1.027347e+01	2.650583e+01
2.170000e-06	1.524047e-06	4.159708e-10	1.058693e+01	2.838184e+01
2.180000e-06	1.569000e-06	4.409383e-10	1.089920e+01	3.023486e+01
2.190000e-06	1.613828e-06	4.682432e-10	1.121060e+01	3.206272e+01
2.200000e-06	1.658571e-06	4.965371e-10	1.152141e+01	3.386336e+01
2.210000e-06	1.703142e-06	5.242052e-10	1.183103e+01	3.563487e+01
2.220000e-06	1.747536e-06	5.498634e-10	1.213941e+01	3.737551e+01
2.230000e-06	1.791791e-06	5.726075e-10	1.244683e+01	3.908369e+01
2.240000e-06	1.835927e-06	5.926137e-10	1.275343e+01	4.075798e+01
2.250000e-06	1.879950e-06	6.111901e-10	1.305924e+01	4.239712e+01
2.260000e-06	1.923880e-06	6.290688e-10	1.336440e+01	4.400003e+01
2.270000e-06	1.967797e-06	6.482280e-10	1.366948e+01	4.556578e+01
2.280000e-06	2.011627e-06	6.696201e-10	1.397395e+01	4.709365e+01
2.290000e-06	2.055359e-06	6.924919e-10	1.427774e+01	4.858303e+01
2.300000e-06	2.099030e-06	7.154949e-10	1.458110e+01	5.003354e+01
2.310000e-06	2.142631e-06	7.368700e-10	1.488398e+01	5.144491e+01
2.320000e-06	2.186097e-06	7.544289e-10	1.518592e+01	5.281706e+01
2.330000e-06	2.229402e-06	7.692080e-10	1.548674e+01	5.415005e+01
2.340000e-06	2.272638e-06	7.850581e-10	1.578709e+01	5.544406e+01
2.350000e-06	2.315756e-06	8.021227e-10	1.608661e+01	5.669945e+01
2.360000e-06	2.358693e-06	8.186653e-10	1.638487e+01	5.791666e+01
2.370000e-06	2.401401e-06	8.365420e-10	1.668155e+01	5.909629e+01
2.380000e-06	2.443805e-06	8.552495e-10	1.697611e+01	6.023899e+01
2.390000e-06	2.485874e-06	8.720563e-10	1.726834e+01	6.134557e+01
2.400000e-06	2.527617e-06	8.861050e-10	1.755832e+01	6.241686e+01
2.410000e-06	2.569158e-06	8.983459e-10	1.784689e+01	6.345381e+01
2.420000e-06	2.610432e-06	9.106571e-10	1.813360e+01	6.445740e+01
2.430000e-06	2.651281e-06	9.245348e-10	1.841736e+01	6.542868e+01
2.440000e-06	2.691840e-06	9.410684e-10	1.869911e+01	6.636872e+01
2.450000e-06	2.732263e-06	9.579488e-10	1.897991e+01	6.727863e+01
2.460000e-06	2.772467e-06	9.733975e-10	1.925919e+01	6.815951e+01
2.470000e-06	2.812458e-06	9.846963e-10	1.953699e+01	6.901250e+01
2.480000e-06	2.852303e-06	9.932042e-10	1.981378e+01	6.983871e+01
2.490000e-06	2.892013e-06	1.000896e-09	2.008963e+01	7.063924e+01
2.500000e-06	2.931583e-06	1.010100e-09	2.036450e+01	7.141516e+01
2.510000e-06	2.970984e-06	1.025302e-09	2.063820e+01	7.216751e+01
2.520000e-06	3.010258e-06	1.039775e-09	2.091103e+01	7.289729e+01
2.530000e-06	3.049320e-06	1.054905e-09	2.118237e+01	7.360547e+01
2.540000e-06	3.088112e-06	1.070949e-09	2.145184e+01	7.429294e+01
2.550000e-06	3.126702e-06	1.081776e-09	2.171991e+01	7.496055e+01
2.560000e-06	3.165064e-06	1.086942e-09	2.198640e+01	7.560908e+01
2.570000e-06	3.203130e-06	1.089352e-09	2.225083e+01	7.623925e+01
2.580000e-06	3.240984e-06	1.092922e-09	2.251379e+01	7.685172e+01
2.590000e-06	3.278640e-06	1.098977e-09	2.277536e+01	7.744707e+01
2.600000e-06	3.316125e-06	1.110538e-09	2.303575e+01	7.802583e+01
2.610000e-06	3.353499e-06	1.126750e-09	2.329538e+01	7.858845e+01
2.620000e-06	3.390688e-06	1.143173e-09	2.355372e+01	7.913532e+01
2.630000e-06	3.427559e-06	1.152782e-09	2.380984e+01	7.966677e+01
2.640000e-06	3.464116e-06	1.156058e-09	2.406379e+01	8.018306e+01
2.650000e-06	3.500439e-06	1.158556e-09	2.431611e+01	8.068442e+01
2.660000e-06	3.536577e-06	1.161132e-09	2.456715e+01	8.117100e+01
2.670000e-06	3.572552e-06	1.164745e-09	2.481705e+01	8.164293e+01
2.680000e-06	3.608322e-06	1.171117e-09	2.506553e+01	8.210027e+01
2.690000e-06	3.643937e-06	1.180126e-09	2.531293e+01	8.254308e+01
2.700000e-06	3.679440e-06	1.188174e-09	2.555956e+01	8.297136e+01
2.710000e-06	3.714809e-06	1.192288e-09	2.580525e+01	8.338512e+01
2.720000e-06	3.749918e-06	1.194988e-09	2.604914e+01	8.378431e+01
2.730000e-06	3.784684e-06	1.195119e-09	2.629065e+01	8.416892e+01
2.740000e-06	3.819083e-06	1.195287e-09	2.652960e+01	8.453890e+01
2.750000e-06	3.853065e-06	1.197837e-09	2.676566e+01	8.489421e+01
2.760000e-06	3.886552e-06	1.202782e-09	2.699828e+01	8.523483e+01
2.770000e-06	3.919496e-06	1.210056e-09	2.722713e+01	8.556076e+01
2.780000e-06	3.951944e-06	1.217296e-09	2.745253e+01	8.587198e+01
2.790000e-06	3.984042e-06	1.222933e-09	2.767550e+01	8.616855e+01
2.800000e-06	4.015970e-06	1.227080e-09	2.789729e+01	8.645051e+01
2.810000e-06	4.047736e-06	1.230062e-09	2.811796e+01	8.671795e+01
2.820000e-06	4.079332e-06	1.231944e-09	2.833744e+01	8.697102e+01
2.830000e-06	4.110754e-06	1.235061e-09	2.855572e+01	8.720987e+01
2.840000e-06	4.141947e-06	1.239468e-09	2.877241e+01	8.743471e+01
2.850000e-06	4.172881e-06	1.244654e-09	2.898729e+01	8.764578e+01
2.860000e-06	4.203453e-06	1.251792e-09	2.919966e+01	8.784339e+01
2.870000e-06	4.233663e-06	1.259039e-09	2.940951e+01	8.802786e+01
2.880000e-06	4.263595e-06	1.262220e-09	2.961744e+01	8.819957e+01
2.890000e-06	4.293233e-06	1.262536e-09	2.982332e+01	8.835894e+01
2.900000e-06	4.322552e-06	1.262461e-09	3.002699e+01	8.850641e+01
