# Temperatura_=_-24.82
# Concentracion g/m^3_=_1620.0
# C_Vs_to_Am_M_A/Vsm_=_65563218390.804596
# pendiente_HvsI_1/m_=_3716.3
# ordenada_HvsI_A/m_=_1297.0
# frecuencia_Hz_=_135092.75220913143

Tiempo_(s)	Campo_(V.s)	Magnetizacion_(V.s)	Campo_(kA/m)	Magnetizacion_(A/m)
0.000000e+00	-5.520775e-06	-1.094282e-09	-3.836576e+01	-7.073553e+01
1.000000e-08	-5.520962e-06	-1.092415e-09	-3.836705e+01	-7.074002e+01
2.000000e-08	-5.520968e-06	-1.095017e-09	-3.836710e+01	-7.074804e+01
3.000000e-08	-5.520680e-06	-1.101447e-09	-3.836509e+01	-7.075960e+01
4.000000e-08	-5.519913e-06	-1.105740e-09	-3.835976e+01	-7.077468e+01
5.000000e-08	-5.518443e-06	-1.104179e-09	-3.834955e+01	-7.079322e+01
6.000000e-08	-5.516409e-06	-1.089595e-09	-3.833541e+01	-7.081511e+01
7.000000e-08	-5.513977e-06	-1.071412e-09	-3.831851e+01	-7.084022e+01
8.000000e-08	-5.510958e-06	-1.111788e-09	-3.829753e+01	-7.086838e+01
9.000000e-08	-5.507356e-06	-1.149788e-09	-3.827250e+01	-7.089941e+01
1.000000e-07	-5.503338e-06	-1.108841e-09	-3.824458e+01	-7.093306e+01
1.100000e-07	-5.499012e-06	-1.061925e-09	-3.821452e+01	-7.096910e+01
1.200000e-07	-5.494586e-06	-1.106498e-09	-3.818376e+01	-7.100723e+01
1.300000e-07	-5.489909e-06	-1.104822e-09	-3.815125e+01	-7.104717e+01
1.400000e-07	-5.484775e-06	-1.076087e-09	-3.811558e+01	-7.108860e+01
1.500000e-07	-5.479282e-06	-1.030945e-09	-3.807741e+01	-7.113120e+01
1.600000e-07	-5.473446e-06	-1.136289e-09	-3.803685e+01	-7.117462e+01
1.700000e-07	-5.467044e-06	-1.135105e-09	-3.799236e+01	-7.121852e+01
1.800000e-07	-5.460144e-06	-1.081218e-09	-3.794441e+01	-7.126255e+01
1.900000e-07	-5.453022e-06	-1.049849e-09	-3.789492e+01	-7.130638e+01
2.000000e-07	-5.445629e-06	-1.114596e-09	-3.784354e+01	-7.134965e+01
2.100000e-07	-5.437916e-06	-1.119896e-09	-3.778994e+01	-7.139203e+01
2.200000e-07	-5.429951e-06	-1.069317e-09	-3.773459e+01	-7.143321e+01
2.300000e-07	-5.421769e-06	-1.067824e-09	-3.767773e+01	-7.147287e+01
2.400000e-07	-5.413249e-06	-1.104137e-09	-3.761852e+01	-7.151071e+01
2.500000e-07	-5.404058e-06	-1.125712e-09	-3.755465e+01	-7.154648e+01
2.600000e-07	-5.394125e-06	-1.081683e-09	-3.748562e+01	-7.157993e+01
2.700000e-07	-5.383562e-06	-1.085244e-09	-3.741221e+01	-7.161082e+01
2.800000e-07	-5.372495e-06	-1.092580e-09	-3.733531e+01	-7.163897e+01
2.900000e-07	-5.361074e-06	-1.120654e-09	-3.725593e+01	-7.166421e+01
3.000000e-07	-5.349248e-06	-1.084355e-09	-3.717376e+01	-7.168640e+01
3.100000e-07	-5.336968e-06	-1.095900e-09	-3.708841e+01	-7.170543e+01
3.200000e-07	-5.324289e-06	-1.083048e-09	-3.700031e+01	-7.172122e+01
3.300000e-07	-5.311301e-06	-1.115632e-09	-3.691005e+01	-7.173372e+01
3.400000e-07	-5.297949e-06	-1.073699e-09	-3.681726e+01	-7.174294e+01
3.500000e-07	-5.284139e-06	-1.076881e-09	-3.672129e+01	-7.174886e+01
3.600000e-07	-5.269924e-06	-1.100149e-09	-3.662250e+01	-7.175155e+01
3.700000e-07	-5.255335e-06	-1.129556e-09	-3.652112e+01	-7.175107e+01
3.800000e-07	-5.240119e-06	-1.067614e-09	-3.641538e+01	-7.174753e+01
3.900000e-07	-5.224292e-06	-1.085055e-09	-3.630539e+01	-7.174103e+01
4.000000e-07	-5.208015e-06	-1.133543e-09	-3.619228e+01	-7.173174e+01
4.100000e-07	-5.191273e-06	-1.092602e-09	-3.607593e+01	-7.171981e+01
4.200000e-07	-5.174102e-06	-1.045376e-09	-3.595660e+01	-7.170543e+01
4.300000e-07	-5.156694e-06	-1.127959e-09	-3.583563e+01	-7.168880e+01
4.400000e-07	-5.138996e-06	-1.138324e-09	-3.571264e+01	-7.167013e+01
4.500000e-07	-5.120936e-06	-1.046495e-09	-3.558714e+01	-7.164965e+01
4.600000e-07	-5.102532e-06	-1.087087e-09	-3.545924e+01	-7.162757e+01
4.700000e-07	-5.083678e-06	-1.155286e-09	-3.532822e+01	-7.160414e+01
4.800000e-07	-5.064515e-06	-1.074173e-09	-3.519505e+01	-7.157959e+01
4.900000e-07	-5.045115e-06	-1.047140e-09	-3.506023e+01	-7.155414e+01
5.000000e-07	-5.025464e-06	-1.141263e-09	-3.492367e+01	-7.152804e+01
5.100000e-07	-5.005553e-06	-1.092695e-09	-3.478530e+01	-7.150148e+01
5.200000e-07	-4.985314e-06	-1.028485e-09	-3.464465e+01	-7.147470e+01
5.300000e-07	-4.964788e-06	-1.113307e-09	-3.450201e+01	-7.144789e+01
5.400000e-07	-4.943998e-06	-1.135818e-09	-3.435754e+01	-7.142123e+01
5.500000e-07	-4.922772e-06	-1.034752e-09	-3.421003e+01	-7.139490e+01
5.600000e-07	-4.901175e-06	-1.085060e-09	-3.405994e+01	-7.136904e+01
5.700000e-07	-4.879327e-06	-1.141468e-09	-3.390811e+01	-7.134380e+01
5.800000e-07	-4.857108e-06	-1.065206e-09	-3.375371e+01	-7.131929e+01
5.900000e-07	-4.834526e-06	-1.049886e-09	-3.359677e+01	-7.129560e+01
6.000000e-07	-4.811643e-06	-1.131935e-09	-3.343775e+01	-7.127281e+01
6.100000e-07	-4.788444e-06	-1.083937e-09	-3.327653e+01	-7.125097e+01
6.200000e-07	-4.764931e-06	-1.046511e-09	-3.311314e+01	-7.123012e+01
6.300000e-07	-4.741168e-06	-1.103836e-09	-3.294800e+01	-7.121025e+01
6.400000e-07	-4.717223e-06	-1.106609e-09	-3.278160e+01	-7.119137e+01
6.500000e-07	-4.692994e-06	-1.053183e-09	-3.261322e+01	-7.117344e+01
6.600000e-07	-4.668358e-06	-1.092812e-09	-3.244202e+01	-7.115643e+01
6.700000e-07	-4.643258e-06	-1.106379e-09	-3.226759e+01	-7.114025e+01
6.800000e-07	-4.617496e-06	-1.066682e-09	-3.208856e+01	-7.112483e+01
6.900000e-07	-4.591097e-06	-1.072696e-09	-3.190511e+01	-7.111008e+01
7.000000e-07	-4.564211e-06	-1.102613e-09	-3.171826e+01	-7.109588e+01
7.100000e-07	-4.536979e-06	-1.076890e-09	-3.152902e+01	-7.108212e+01
7.200000e-07	-4.509596e-06	-1.074216e-09	-3.133872e+01	-7.106867e+01
7.300000e-07	-4.482031e-06	-1.099420e-09	-3.114717e+01	-7.105538e+01
7.400000e-07	-4.454226e-06	-1.091732e-09	-3.095394e+01	-7.104212e+01
7.500000e-07	-4.426217e-06	-1.078585e-09	-3.075930e+01	-7.102874e+01
7.600000e-07	-4.397975e-06	-1.097035e-09	-3.056303e+01	-7.101509e+01
7.700000e-07	-4.369393e-06	-1.096167e-09	-3.036441e+01	-7.100102e+01
7.800000e-07	-4.340508e-06	-1.078680e-09	-3.016367e+01	-7.098639e+01
7.900000e-07	-4.311233e-06	-1.088774e-09	-2.996023e+01	-7.097104e+01
8.000000e-07	-4.281617e-06	-1.093195e-09	-2.975442e+01	-7.095485e+01
8.100000e-07	-4.251802e-06	-1.081378e-09	-2.954723e+01	-7.093767e+01
8.200000e-07	-4.221735e-06	-1.076691e-09	-2.933828e+01	-7.091937e+01
8.300000e-07	-4.191339e-06	-1.083362e-09	-2.912705e+01	-7.089983e+01
8.400000e-07	-4.160608e-06	-1.069336e-09	-2.891349e+01	-7.087895e+01
8.500000e-07	-4.129595e-06	-1.073102e-09	-2.869797e+01	-7.085661e+01
8.600000e-07	-4.098339e-06	-1.087030e-09	-2.848076e+01	-7.083273e+01
8.700000e-07	-4.066897e-06	-1.087487e-09	-2.826226e+01	-7.080721e+01
8.800000e-07	-4.035221e-06	-1.074324e-09	-2.804213e+01	-7.077998e+01
8.900000e-07	-4.003340e-06	-1.081178e-09	-2.782058e+01	-7.075096e+01
9.000000e-07	-3.971299e-06	-1.074749e-09	-2.759792e+01	-7.072010e+01
9.100000e-07	-3.938994e-06	-1.062865e-09	-2.737342e+01	-7.068735e+01
9.200000e-07	-3.906381e-06	-1.063645e-09	-2.714678e+01	-7.065265e+01
9.300000e-07	-3.873466e-06	-1.069641e-09	-2.691804e+01	-7.061598e+01
9.400000e-07	-3.840062e-06	-1.058493e-09	-2.668590e+01	-7.057728e+01
9.500000e-07	-3.806174e-06	-1.062064e-09	-2.645040e+01	-7.053653e+01
9.600000e-07	-3.771801e-06	-1.066624e-09	-2.621154e+01	-7.049370e+01
9.700000e-07	-3.736956e-06	-1.059791e-09	-2.596939e+01	-7.044876e+01
9.800000e-07	-3.701803e-06	-1.050696e-09	-2.572510e+01	-7.040168e+01
9.900000e-07	-3.666377e-06	-1.056998e-09	-2.547891e+01	-7.035243e+01
1.000000e-06	-3.630740e-06	-1.053519e-09	-2.523126e+01	-7.030098e+01
1.010000e-06	-3.594968e-06	-1.043825e-09	-2.498266e+01	-7.024728e+01
1.020000e-06	-3.559067e-06	-1.046487e-09	-2.473318e+01	-7.019130e+01
1.030000e-06	-3.523014e-06	-1.048660e-09	-2.448263e+01	-7.013298e+01
1.040000e-06	-3.486762e-06	-1.041368e-09	-2.423070e+01	-7.007227e+01
1.050000e-06	-3.450315e-06	-1.040966e-09	-2.397742e+01	-7.000911e+01
1.060000e-06	-3.413538e-06	-1.047210e-09	-2.372185e+01	-6.994342e+01
1.070000e-06	-3.376441e-06	-1.039699e-09	-2.346404e+01	-6.987512e+01
1.080000e-06	-3.339216e-06	-1.031104e-09	-2.320536e+01	-6.980412e+01
1.090000e-06	-3.301746e-06	-1.031585e-09	-2.294496e+01	-6.973031e+01
1.100000e-06	-3.263924e-06	-1.032417e-09	-2.268212e+01	-6.965359e+01
1.110000e-06	-3.225879e-06	-1.026444e-09	-2.241774e+01	-6.957384e+01
1.120000e-06	-3.187721e-06	-1.025310e-09	-2.215256e+01	-6.949093e+01
1.130000e-06	-3.149377e-06	-1.021093e-09	-2.188610e+01	-6.940472e+01
1.140000e-06	-3.110806e-06	-1.015242e-09	-2.161806e+01	-6.931507e+01
1.150000e-06	-3.071961e-06	-1.012955e-09	-2.134811e+01	-6.922183e+01
1.160000e-06	-3.032872e-06	-1.017758e-09	-2.107646e+01	-6.912484e+01
1.170000e-06	-2.993599e-06	-1.017197e-09	-2.080354e+01	-6.902394e+01
1.180000e-06	-2.954094e-06	-1.018597e-09	-2.052901e+01	-6.891897e+01
1.190000e-06	-2.914464e-06	-1.020456e-09	-2.025361e+01	-6.880977e+01
1.200000e-06	-2.874745e-06	-1.017950e-09	-1.997759e+01	-6.869618e+01
1.210000e-06	-2.834879e-06	-1.006845e-09	-1.970054e+01	-6.857803e+01
1.220000e-06	-2.794874e-06	-1.001160e-09	-1.942254e+01	-6.845516e+01
1.230000e-06	-2.754747e-06	-9.959548e-10	-1.914368e+01	-6.832742e+01
1.240000e-06	-2.714486e-06	-9.922588e-10	-1.886389e+01	-6.819467e+01
1.250000e-06	-2.674100e-06	-9.915152e-10	-1.858323e+01	-6.805677e+01
1.260000e-06	-2.633502e-06	-9.958264e-10	-1.830111e+01	-6.791358e+01
1.270000e-06	-2.592615e-06	-9.970084e-10	-1.801697e+01	-6.776498e+01
1.280000e-06	-2.551415e-06	-9.940546e-10	-1.773065e+01	-6.761086e+01
1.290000e-06	-2.509951e-06	-9.891407e-10	-1.744251e+01	-6.745113e+01
1.300000e-06	-2.468235e-06	-9.827358e-10	-1.715261e+01	-6.728569e+01
1.310000e-06	-2.426246e-06	-9.743945e-10	-1.686081e+01	-6.711447e+01
1.320000e-06	-2.383999e-06	-9.679568e-10	-1.656722e+01	-6.693739e+01
1.330000e-06	-2.341351e-06	-9.666400e-10	-1.627085e+01	-6.675442e+01
1.340000e-06	-2.298353e-06	-9.675044e-10	-1.597204e+01	-6.656550e+01
1.350000e-06	-2.255167e-06	-9.685285e-10	-1.567192e+01	-6.637061e+01
1.360000e-06	-2.211783e-06	-9.689581e-10	-1.537043e+01	-6.616970e+01
1.370000e-06	-2.168196e-06	-9.665082e-10	-1.506753e+01	-6.596276e+01
1.380000e-06	-2.124482e-06	-9.610309e-10	-1.476375e+01	-6.574978e+01
1.390000e-06	-2.080725e-06	-9.555367e-10	-1.445967e+01	-6.553074e+01
1.400000e-06	-2.036934e-06	-9.490704e-10	-1.415535e+01	-6.530561e+01
1.410000e-06	-1.993093e-06	-9.459253e-10	-1.385069e+01	-6.507438e+01
1.420000e-06	-1.949163e-06	-9.412574e-10	-1.354540e+01	-6.483702e+01
1.430000e-06	-1.905119e-06	-9.375473e-10	-1.323933e+01	-6.459349e+01
1.440000e-06	-1.861021e-06	-9.341449e-10	-1.293287e+01	-6.434373e+01
1.450000e-06	-1.816785e-06	-9.304056e-10	-1.262546e+01	-6.408768e+01
1.460000e-06	-1.772468e-06	-9.264429e-10	-1.231749e+01	-6.382523e+01
1.470000e-06	-1.728054e-06	-9.228958e-10	-1.200884e+01	-6.355627e+01
1.480000e-06	-1.683456e-06	-9.177970e-10	-1.169891e+01	-6.328065e+01
1.490000e-06	-1.638702e-06	-9.134618e-10	-1.138790e+01	-6.299818e+01
1.500000e-06	-1.593703e-06	-9.069508e-10	-1.107519e+01	-6.270863e+01
1.510000e-06	-1.548570e-06	-8.976688e-10	-1.076155e+01	-6.241176e+01
1.520000e-06	-1.503456e-06	-8.870771e-10	-1.044803e+01	-6.210723e+01
1.530000e-06	-1.458251e-06	-8.801314e-10	-1.013388e+01	-6.179472e+01
1.540000e-06	-1.412886e-06	-8.759902e-10	-9.818630e+00	-6.147379e+01
1.550000e-06	-1.367368e-06	-8.721285e-10	-9.502312e+00	-6.114400e+01
1.560000e-06	-1.321814e-06	-8.655471e-10	-9.185739e+00	-6.080482e+01
1.570000e-06	-1.276229e-06	-8.566486e-10	-8.868951e+00	-6.045568e+01
1.580000e-06	-1.230502e-06	-8.459319e-10	-8.551182e+00	-6.009595e+01
1.590000e-06	-1.184713e-06	-8.351016e-10	-8.232977e+00	-5.972493e+01
1.600000e-06	-1.138874e-06	-8.242101e-10	-7.914428e+00	-5.934188e+01
1.610000e-06	-1.092985e-06	-8.130705e-10	-7.595525e+00	-5.894598e+01
1.620000e-06	-1.047020e-06	-8.055297e-10	-7.276101e+00	-5.853637e+01
1.630000e-06	-1.000944e-06	-7.999836e-10	-6.955905e+00	-5.811211e+01
1.640000e-06	-9.548045e-07	-7.941656e-10	-6.635263e+00	-5.767223e+01
1.650000e-06	-9.086493e-07	-7.868108e-10	-6.314515e+00	-5.721570e+01
1.660000e-06	-8.624293e-07	-7.790591e-10	-5.993317e+00	-5.674145e+01
1.670000e-06	-8.161013e-07	-7.705423e-10	-5.671367e+00	-5.624835e+01
1.680000e-06	-7.697256e-07	-7.608750e-10	-5.349086e+00	-5.573526e+01
1.690000e-06	-7.233653e-07	-7.522619e-10	-5.026913e+00	-5.520098e+01
1.700000e-06	-6.770379e-07	-7.424912e-10	-4.704968e+00	-5.464430e+01
1.710000e-06	-6.306066e-07	-7.304281e-10	-4.382301e+00	-5.406400e+01
1.720000e-06	-5.840686e-07	-7.179354e-10	-4.058893e+00	-5.345883e+01
1.730000e-06	-5.374996e-07	-7.049553e-10	-3.735268e+00	-5.282756e+01
1.740000e-06	-4.909733e-07	-6.940199e-10	-3.411941e+00	-5.216893e+01
1.750000e-06	-4.444404e-07	-6.848577e-10	-3.088568e+00	-5.148174e+01
1.760000e-06	-3.977371e-07	-6.744182e-10	-2.764011e+00	-5.076479e+01
1.770000e-06	-3.509555e-07	-6.607428e-10	-2.438910e+00	-5.001690e+01
1.780000e-06	-3.040508e-07	-6.478264e-10	-2.112953e+00	-4.923696e+01
1.790000e-06	-2.571259e-07	-6.373015e-10	-1.786856e+00	-4.842389e+01
1.800000e-06	-2.102701e-07	-6.275845e-10	-1.461239e+00	-4.757668e+01
1.810000e-06	-1.634296e-07	-6.176352e-10	-1.135729e+00	-4.669439e+01
1.820000e-06	-1.165893e-07	-6.063733e-10	-8.102186e-01	-4.577617e+01
1.830000e-06	-6.970179e-08	-5.919629e-10	-4.843816e-01	-4.482123e+01
1.840000e-06	-2.282345e-08	-5.761979e-10	-1.586080e-01	-4.382892e+01
1.850000e-06	2.404508e-08	-5.613262e-10	1.670975e-01	-4.279865e+01
1.860000e-06	7.078623e-08	-5.476850e-10	4.919177e-01	-4.172998e+01
1.870000e-06	1.174584e-07	-5.379220e-10	8.162586e-01	-4.062257e+01
1.880000e-06	1.641949e-07	-5.287740e-10	1.141047e+00	-3.947622e+01
1.890000e-06	2.109425e-07	-5.173998e-10	1.465912e+00	-3.829085e+01
1.900000e-06	2.577951e-07	-4.993378e-10	1.791506e+00	-3.706653e+01
1.910000e-06	3.046635e-07	-4.784820e-10	2.117211e+00	-3.580346e+01
1.920000e-06	3.514021e-07	-4.564157e-10	2.442014e+00	-3.450199e+01
1.930000e-06	3.981263e-07	-4.343133e-10	2.766716e+00	-3.316262e+01
1.940000e-06	4.448364e-07	-4.175466e-10	3.091320e+00	-3.178600e+01
1.950000e-06	4.915422e-07	-4.035443e-10	3.415895e+00	-3.037293e+01
1.960000e-06	5.381146e-07	-3.876149e-10	3.739543e+00	-2.892435e+01
1.970000e-06	5.845219e-07	-3.690496e-10	4.062043e+00	-2.744136e+01
1.980000e-06	6.309630e-07	-3.490398e-10	4.384778e+00	-2.592518e+01
1.990000e-06	6.773845e-07	-3.270136e-10	4.707376e+00	-2.437720e+01
2.000000e-06	7.238134e-07	-3.018926e-10	5.030027e+00	-2.279893e+01
2.010000e-06	7.702374e-07	-2.760937e-10	5.352643e+00	-2.119201e+01
2.020000e-06	8.165985e-07	-2.517866e-10	5.674822e+00	-1.955820e+01
2.030000e-06	8.628572e-07	-2.277689e-10	5.996290e+00	-1.789939e+01
2.040000e-06	9.089995e-07	-2.074091e-10	6.316949e+00	-1.621757e+01
2.050000e-06	9.550794e-07	-1.868137e-10	6.637174e+00	-1.451482e+01
2.060000e-06	1.001079e-06	-1.664001e-10	6.956838e+00	-1.279331e+01
2.070000e-06	1.047021e-06	-1.424500e-10	7.276104e+00	-1.105531e+01
2.080000e-06	1.092931e-06	-1.152887e-10	7.595149e+00	-9.303133e+00
2.090000e-06	1.138743e-06	-8.881634e-11	7.913512e+00	-7.539151e+00
2.100000e-06	1.184485e-06	-6.421031e-11	8.231391e+00	-5.765786e+00
2.110000e-06	1.230225e-06	-4.017652e-11	8.549253e+00	-3.985489e+00
2.120000e-06	1.275895e-06	-1.541035e-11	8.866632e+00	-2.200729e+00
2.130000e-06	1.321442e-06	9.389533e-12	9.183152e+00	-4.139843e-01
2.140000e-06	1.366867e-06	3.604278e-11	9.498828e+00	1.372276e+00
2.150000e-06	1.412201e-06	6.267004e-11	9.813867e+00	3.155597e+00
2.160000e-06	1.457511e-06	8.642807e-11	1.012874e+01	4.933559e+00
2.170000e-06	1.502667e-06	1.100462e-10	1.044255e+01	6.703778e+00
2.180000e-06	1.547622e-06	1.342747e-10	1.075495e+01	8.463930e+00
2.190000e-06	1.592505e-06	1.598019e-10	1.106686e+01	1.021175e+01
2.200000e-06	1.637282e-06	1.850133e-10	1.137803e+01	1.194505e+01
2.210000e-06	1.681898e-06	2.107508e-10	1.168809e+01	1.366173e+01
2.220000e-06	1.726364e-06	2.369910e-10	1.199710e+01	1.535978e+01
2.230000e-06	1.770752e-06	2.612533e-10	1.230556e+01	1.703729e+01
2.240000e-06	1.815014e-06	2.835034e-10	1.261315e+01	1.869246e+01
2.250000e-06	1.859131e-06	3.026092e-10	1.291974e+01	2.032361e+01
2.260000e-06	1.903132e-06	3.216854e-10	1.322551e+01	2.192918e+01
2.270000e-06	1.947068e-06	3.404985e-10	1.353084e+01	2.350773e+01
2.280000e-06	1.991003e-06	3.619361e-10	1.383616e+01	2.505796e+01
2.290000e-06	2.034914e-06	3.835859e-10	1.414131e+01	2.657870e+01
2.300000e-06	2.078738e-06	4.048605e-10	1.444586e+01	2.806890e+01
2.310000e-06	2.122438e-06	4.275899e-10	1.474955e+01	2.952767e+01
2.320000e-06	2.166088e-06	4.492607e-10	1.505289e+01	3.095424e+01
2.330000e-06	2.209672e-06	4.683158e-10	1.535577e+01	3.234798e+01
2.340000e-06	2.253020e-06	4.825718e-10	1.565701e+01	3.370837e+01
2.350000e-06	2.296115e-06	4.971098e-10	1.595649e+01	3.503505e+01
2.360000e-06	2.338998e-06	5.144733e-10	1.625450e+01	3.632776e+01
2.370000e-06	2.381598e-06	5.329806e-10	1.655054e+01	3.758638e+01
2.380000e-06	2.423878e-06	5.515459e-10	1.684436e+01	3.881088e+01
2.390000e-06	2.465954e-06	5.700856e-10	1.713676e+01	4.000137e+01
2.400000e-06	2.507820e-06	5.862890e-10	1.742770e+01	4.115803e+01
2.410000e-06	2.549252e-06	5.994034e-10	1.771562e+01	4.228116e+01
2.420000e-06	2.590397e-06	6.127106e-10	1.800155e+01	4.337112e+01
2.430000e-06	2.631308e-06	6.264178e-10	1.828586e+01	4.442838e+01
2.440000e-06	2.671898e-06	6.406357e-10	1.856793e+01	4.545346e+01
2.450000e-06	2.712276e-06	6.555769e-10	1.884853e+01	4.644694e+01
2.460000e-06	2.752440e-06	6.706631e-10	1.912765e+01	4.740948e+01
2.470000e-06	2.792429e-06	6.854167e-10	1.940554e+01	4.834176e+01
2.480000e-06	2.832287e-06	6.978816e-10	1.968253e+01	4.924450e+01
2.490000e-06	2.872058e-06	7.086761e-10	1.995891e+01	5.011845e+01
2.500000e-06	2.911727e-06	7.190923e-10	2.023459e+01	5.096440e+01
2.510000e-06	2.951251e-06	7.297384e-10	2.050925e+01	5.178314e+01
2.520000e-06	2.990651e-06	7.413929e-10	2.078305e+01	5.257545e+01
2.530000e-06	3.029862e-06	7.534538e-10	2.105555e+01	5.334212e+01
2.540000e-06	3.068806e-06	7.673724e-10	2.132618e+01	5.408395e+01
2.550000e-06	3.107549e-06	7.810044e-10	2.159542e+01	5.480171e+01
2.560000e-06	3.146066e-06	7.905353e-10	2.186309e+01	5.549615e+01
2.570000e-06	3.184335e-06	7.953236e-10	2.212903e+01	5.616799e+01
2.580000e-06	3.222407e-06	7.992259e-10	2.239361e+01	5.681795e+01
2.590000e-06	3.260311e-06	8.053723e-10	2.265702e+01	5.744668e+01
2.600000e-06	3.297977e-06	8.144078e-10	2.291877e+01	5.805483e+01
2.610000e-06	3.335430e-06	8.270157e-10	2.317904e+01	5.864300e+01
2.620000e-06	3.372708e-06	8.418302e-10	2.343810e+01	5.921174e+01
2.630000e-06	3.409647e-06	8.535354e-10	2.369481e+01	5.976160e+01
2.640000e-06	3.446255e-06	8.592287e-10	2.394921e+01	6.029304e+01
2.650000e-06	3.482607e-06	8.615455e-10	2.420182e+01	6.080651e+01
2.660000e-06	3.518780e-06	8.640549e-10	2.445321e+01	6.130244e+01
2.670000e-06	3.554795e-06	8.684017e-10	2.470349e+01	6.178119e+01
2.680000e-06	3.590689e-06	8.743957e-10	2.495293e+01	6.224311e+01
2.690000e-06	3.626528e-06	8.831200e-10	2.520199e+01	6.268850e+01
2.700000e-06	3.662277e-06	8.926864e-10	2.545042e+01	6.311765e+01
2.710000e-06	3.697815e-06	8.987224e-10	2.569738e+01	6.353082e+01
2.720000e-06	3.732961e-06	9.012705e-10	2.594163e+01	6.392824e+01
2.730000e-06	3.767723e-06	9.030786e-10	2.618320e+01	6.431013e+01
2.740000e-06	3.802184e-06	9.070752e-10	2.642268e+01	6.467670e+01
2.750000e-06	3.836182e-06	9.123884e-10	2.665894e+01	6.502815e+01
2.760000e-06	3.869566e-06	9.187306e-10	2.689094e+01	6.536466e+01
2.770000e-06	3.902553e-06	9.265749e-10	2.712018e+01	6.568642e+01
2.780000e-06	3.935205e-06	9.345962e-10	2.734708e+01	6.599363e+01
2.790000e-06	3.967438e-06	9.416831e-10	2.757109e+01	6.628647e+01
2.800000e-06	3.999400e-06	9.473905e-10	2.779320e+01	6.656516e+01
2.810000e-06	4.031236e-06	9.505827e-10	2.801444e+01	6.682992e+01
2.820000e-06	4.062969e-06	9.500672e-10	2.823497e+01	6.708098e+01
2.830000e-06	4.094550e-06	9.503628e-10	2.845443e+01	6.731859e+01
2.840000e-06	4.125849e-06	9.552264e-10	2.867194e+01	6.754303e+01
2.850000e-06	4.156812e-06	9.611261e-10	2.888711e+01	6.775460e+01
2.860000e-06	4.187537e-06	9.681769e-10	2.910063e+01	6.795362e+01
2.870000e-06	4.217967e-06	9.772674e-10	2.931210e+01	6.814043e+01
2.880000e-06	4.248085e-06	9.826502e-10	2.952140e+01	6.831541e+01
2.890000e-06	4.277867e-06	9.824161e-10	2.972836e+01	6.847895e+01
2.900000e-06	4.307382e-06	9.806068e-10	2.993347e+01	6.863148e+01
