# Temperatura_=_10.01
# Concentracion g/m^3_=_1620.0
# C_Vs_to_Am_M_A/Vsm_=_65563218390.804596
# pendiente_HvsI_1/m_=_3716.3
# ordenada_HvsI_A/m_=_1297.0
# frecuencia_Hz_=_135106.72833917613

Tiempo_(s)	Campo_(V.s)	Magnetizacion_(V.s)	Campo_(kA/m)	Magnetizacion_(A/m)
0.000000e+00	-5.528838e-06	-1.702499e-09	-3.837268e+01	-1.106376e+02
1.000000e-08	-5.528994e-06	-1.701881e-09	-3.837376e+01	-1.105960e+02
2.000000e-08	-5.528856e-06	-1.701495e-09	-3.837280e+01	-1.105549e+02
3.000000e-08	-5.528339e-06	-1.701441e-09	-3.836921e+01	-1.105140e+02
4.000000e-08	-5.527236e-06	-1.701690e-09	-3.836156e+01	-1.104734e+02
5.000000e-08	-5.525469e-06	-1.705516e-09	-3.834930e+01	-1.104329e+02
6.000000e-08	-5.523161e-06	-1.706220e-09	-3.833328e+01	-1.103923e+02
7.000000e-08	-5.520312e-06	-1.693478e-09	-3.831350e+01	-1.103516e+02
8.000000e-08	-5.516970e-06	-1.685526e-09	-3.829031e+01	-1.103105e+02
9.000000e-08	-5.513276e-06	-1.697257e-09	-3.826467e+01	-1.102689e+02
1.000000e-07	-5.509218e-06	-1.714307e-09	-3.823650e+01	-1.102265e+02
1.100000e-07	-5.504851e-06	-1.728930e-09	-3.820620e+01	-1.101831e+02
1.200000e-07	-5.500215e-06	-1.708854e-09	-3.817402e+01	-1.101385e+02
1.300000e-07	-5.495242e-06	-1.665694e-09	-3.813951e+01	-1.100923e+02
1.400000e-07	-5.489941e-06	-1.680064e-09	-3.810271e+01	-1.100444e+02
1.500000e-07	-5.484293e-06	-1.699466e-09	-3.806352e+01	-1.099945e+02
1.600000e-07	-5.478313e-06	-1.708202e-09	-3.802201e+01	-1.099423e+02
1.700000e-07	-5.472009e-06	-1.647165e-09	-3.797826e+01	-1.098875e+02
1.800000e-07	-5.465244e-06	-1.656250e-09	-3.793131e+01	-1.098300e+02
1.900000e-07	-5.457988e-06	-1.702885e-09	-3.788095e+01	-1.097695e+02
2.000000e-07	-5.450422e-06	-1.720759e-09	-3.782844e+01	-1.097058e+02
2.100000e-07	-5.442642e-06	-1.685583e-09	-3.777444e+01	-1.096385e+02
2.200000e-07	-5.434562e-06	-1.683008e-09	-3.771836e+01	-1.095677e+02
2.300000e-07	-5.426093e-06	-1.710344e-09	-3.765958e+01	-1.094930e+02
2.400000e-07	-5.417211e-06	-1.707725e-09	-3.759794e+01	-1.094142e+02
2.500000e-07	-5.407667e-06	-1.692123e-09	-3.753170e+01	-1.093314e+02
2.600000e-07	-5.397410e-06	-1.683824e-09	-3.746051e+01	-1.092442e+02
2.700000e-07	-5.386713e-06	-1.702722e-09	-3.738627e+01	-1.091527e+02
2.800000e-07	-5.375554e-06	-1.689804e-09	-3.730882e+01	-1.090568e+02
2.900000e-07	-5.363928e-06	-1.681179e-09	-3.722813e+01	-1.089563e+02
3.000000e-07	-5.351932e-06	-1.669782e-09	-3.714487e+01	-1.088513e+02
3.100000e-07	-5.339518e-06	-1.685643e-09	-3.705871e+01	-1.087417e+02
3.200000e-07	-5.326654e-06	-1.671611e-09	-3.696943e+01	-1.086276e+02
3.300000e-07	-5.313390e-06	-1.672138e-09	-3.687737e+01	-1.085089e+02
3.400000e-07	-5.299759e-06	-1.659838e-09	-3.678276e+01	-1.083856e+02
3.500000e-07	-5.285663e-06	-1.668663e-09	-3.668493e+01	-1.082579e+02
3.600000e-07	-5.271107e-06	-1.669593e-09	-3.658391e+01	-1.081258e+02
3.700000e-07	-5.256100e-06	-1.668977e-09	-3.647975e+01	-1.079893e+02
3.800000e-07	-5.240613e-06	-1.653091e-09	-3.637227e+01	-1.078486e+02
3.900000e-07	-5.224558e-06	-1.662268e-09	-3.626083e+01	-1.077037e+02
4.000000e-07	-5.207988e-06	-1.663365e-09	-3.614583e+01	-1.075546e+02
4.100000e-07	-5.191149e-06	-1.641722e-09	-3.602896e+01	-1.074016e+02
4.200000e-07	-5.174061e-06	-1.639279e-09	-3.591036e+01	-1.072447e+02
4.300000e-07	-5.156629e-06	-1.663085e-09	-3.578938e+01	-1.070839e+02
4.400000e-07	-5.138827e-06	-1.645414e-09	-3.566582e+01	-1.069194e+02
4.500000e-07	-5.120613e-06	-1.626354e-09	-3.553941e+01	-1.067513e+02
4.600000e-07	-5.101971e-06	-1.659429e-09	-3.541002e+01	-1.065796e+02
4.700000e-07	-5.083024e-06	-1.658397e-09	-3.527852e+01	-1.064043e+02
4.800000e-07	-5.063770e-06	-1.614949e-09	-3.514489e+01	-1.062256e+02
4.900000e-07	-5.044213e-06	-1.625109e-09	-3.500916e+01	-1.060435e+02
5.000000e-07	-5.024484e-06	-1.652177e-09	-3.487223e+01	-1.058580e+02
5.100000e-07	-5.004583e-06	-1.608387e-09	-3.473411e+01	-1.056691e+02
5.200000e-07	-4.984359e-06	-1.598223e-09	-3.459374e+01	-1.054768e+02
5.300000e-07	-4.963723e-06	-1.636767e-09	-3.445052e+01	-1.052812e+02
5.400000e-07	-4.942744e-06	-1.623184e-09	-3.430492e+01	-1.050822e+02
5.500000e-07	-4.921433e-06	-1.593785e-09	-3.415701e+01	-1.048798e+02
5.600000e-07	-4.899711e-06	-1.629715e-09	-3.400625e+01	-1.046739e+02
5.700000e-07	-4.877661e-06	-1.621673e-09	-3.385321e+01	-1.044645e+02
5.800000e-07	-4.855258e-06	-1.578610e-09	-3.369773e+01	-1.042514e+02
5.900000e-07	-4.832515e-06	-1.593320e-09	-3.353988e+01	-1.040348e+02
6.000000e-07	-4.809518e-06	-1.613105e-09	-3.338026e+01	-1.038144e+02
6.100000e-07	-4.786222e-06	-1.572355e-09	-3.321858e+01	-1.035901e+02
6.200000e-07	-4.762624e-06	-1.572505e-09	-3.305480e+01	-1.033620e+02
6.300000e-07	-4.738769e-06	-1.596655e-09	-3.288923e+01	-1.031298e+02
6.400000e-07	-4.714641e-06	-1.576457e-09	-3.272178e+01	-1.028936e+02
6.500000e-07	-4.690144e-06	-1.557115e-09	-3.255176e+01	-1.026532e+02
6.600000e-07	-4.665218e-06	-1.575858e-09	-3.237876e+01	-1.024086e+02
6.700000e-07	-4.639724e-06	-1.564613e-09	-3.220182e+01	-1.021596e+02
6.800000e-07	-4.613574e-06	-1.544194e-09	-3.202032e+01	-1.019063e+02
6.900000e-07	-4.586937e-06	-1.552996e-09	-3.183545e+01	-1.016485e+02
7.000000e-07	-4.559955e-06	-1.555410e-09	-3.164819e+01	-1.013862e+02
7.100000e-07	-4.532663e-06	-1.536734e-09	-3.145876e+01	-1.011194e+02
7.200000e-07	-4.505159e-06	-1.537242e-09	-3.126788e+01	-1.008480e+02
7.300000e-07	-4.477515e-06	-1.541522e-09	-3.107601e+01	-1.005721e+02
7.400000e-07	-4.449720e-06	-1.528632e-09	-3.088310e+01	-1.002916e+02
7.500000e-07	-4.421711e-06	-1.522529e-09	-3.068870e+01	-1.000067e+02
7.600000e-07	-4.393413e-06	-1.527012e-09	-3.049231e+01	-9.971725e+01
7.700000e-07	-4.364766e-06	-1.519302e-09	-3.029349e+01	-9.942342e+01
7.800000e-07	-4.335686e-06	-1.503755e-09	-3.009166e+01	-9.912527e+01
7.900000e-07	-4.306261e-06	-1.501319e-09	-2.988743e+01	-9.882289e+01
8.000000e-07	-4.276574e-06	-1.498309e-09	-2.968139e+01	-9.851638e+01
8.100000e-07	-4.246586e-06	-1.491333e-09	-2.947326e+01	-9.820587e+01
8.200000e-07	-4.216337e-06	-1.487038e-09	-2.926332e+01	-9.789147e+01
8.300000e-07	-4.185841e-06	-1.487321e-09	-2.905166e+01	-9.757334e+01
8.400000e-07	-4.155078e-06	-1.478448e-09	-2.883815e+01	-9.725163e+01
8.500000e-07	-4.123951e-06	-1.475389e-09	-2.862212e+01	-9.692648e+01
8.600000e-07	-4.092482e-06	-1.475047e-09	-2.840371e+01	-9.659807e+01
8.700000e-07	-4.060842e-06	-1.465618e-09	-2.818411e+01	-9.626654e+01
8.800000e-07	-4.029114e-06	-1.451324e-09	-2.796390e+01	-9.593206e+01
8.900000e-07	-3.997162e-06	-1.447808e-09	-2.774215e+01	-9.559478e+01
9.000000e-07	-3.964968e-06	-1.440247e-09	-2.751870e+01	-9.525484e+01
9.100000e-07	-3.932504e-06	-1.431017e-09	-2.729339e+01	-9.491240e+01
9.200000e-07	-3.899654e-06	-1.427390e-09	-2.706539e+01	-9.456757e+01
9.300000e-07	-3.866447e-06	-1.425407e-09	-2.683492e+01	-9.422046e+01
9.400000e-07	-3.832711e-06	-1.415604e-09	-2.660078e+01	-9.387117e+01
9.500000e-07	-3.798440e-06	-1.411749e-09	-2.636292e+01	-9.351977e+01
9.600000e-07	-3.763837e-06	-1.407954e-09	-2.612276e+01	-9.316631e+01
9.700000e-07	-3.728896e-06	-1.396684e-09	-2.588025e+01	-9.281083e+01
9.800000e-07	-3.693641e-06	-1.387309e-09	-2.563557e+01	-9.245333e+01
9.900000e-07	-3.658194e-06	-1.385534e-09	-2.538955e+01	-9.209378e+01
1.000000e-06	-3.622614e-06	-1.379227e-09	-2.514261e+01	-9.173214e+01
1.010000e-06	-3.586898e-06	-1.369561e-09	-2.489472e+01	-9.136832e+01
1.020000e-06	-3.550988e-06	-1.365775e-09	-2.464549e+01	-9.100221e+01
1.030000e-06	-3.514858e-06	-1.360831e-09	-2.439473e+01	-9.063369e+01
1.040000e-06	-3.478528e-06	-1.352355e-09	-2.414258e+01	-9.026258e+01
1.050000e-06	-3.441871e-06	-1.346869e-09	-2.388817e+01	-8.988869e+01
1.060000e-06	-3.404868e-06	-1.341780e-09	-2.363135e+01	-8.951180e+01
1.070000e-06	-3.367691e-06	-1.329429e-09	-2.337332e+01	-8.913167e+01
1.080000e-06	-3.330363e-06	-1.318643e-09	-2.311425e+01	-8.874802e+01
1.090000e-06	-3.292789e-06	-1.311307e-09	-2.285347e+01	-8.836057e+01
1.100000e-06	-3.254973e-06	-1.302634e-09	-2.259101e+01	-8.796901e+01
1.110000e-06	-3.216958e-06	-1.291780e-09	-2.232717e+01	-8.757300e+01
1.120000e-06	-3.178625e-06	-1.283235e-09	-2.206112e+01	-8.717221e+01
1.130000e-06	-3.140004e-06	-1.273335e-09	-2.179307e+01	-8.676629e+01
1.140000e-06	-3.101169e-06	-1.265139e-09	-2.152354e+01	-8.635489e+01
1.150000e-06	-3.062152e-06	-1.262685e-09	-2.125274e+01	-8.593764e+01
1.160000e-06	-3.022961e-06	-1.260006e-09	-2.098074e+01	-8.551417e+01
1.170000e-06	-2.983612e-06	-1.249698e-09	-2.070764e+01	-8.508414e+01
1.180000e-06	-2.944193e-06	-1.240573e-09	-2.043405e+01	-8.464719e+01
1.190000e-06	-2.904667e-06	-1.233112e-09	-2.015973e+01	-8.420299e+01
1.200000e-06	-2.865000e-06	-1.222284e-09	-1.988442e+01	-8.375119e+01
1.210000e-06	-2.825201e-06	-1.209741e-09	-1.960819e+01	-8.329150e+01
1.220000e-06	-2.785242e-06	-1.201690e-09	-1.933086e+01	-8.282363e+01
1.230000e-06	-2.745094e-06	-1.194208e-09	-1.905222e+01	-8.234729e+01
1.240000e-06	-2.704759e-06	-1.185076e-09	-1.877227e+01	-8.186225e+01
1.250000e-06	-2.664124e-06	-1.176913e-09	-1.849025e+01	-8.136828e+01
1.260000e-06	-2.623137e-06	-1.169612e-09	-1.820578e+01	-8.086520e+01
1.270000e-06	-2.581793e-06	-1.158326e-09	-1.791883e+01	-8.035284e+01
1.280000e-06	-2.540199e-06	-1.144645e-09	-1.763015e+01	-7.983107e+01
1.290000e-06	-2.498326e-06	-1.134931e-09	-1.733953e+01	-7.929978e+01
1.300000e-06	-2.456112e-06	-1.128120e-09	-1.704655e+01	-7.875889e+01
1.310000e-06	-2.413686e-06	-1.120011e-09	-1.675209e+01	-7.820835e+01
1.320000e-06	-2.370974e-06	-1.110329e-09	-1.645565e+01	-7.764815e+01
1.330000e-06	-2.327925e-06	-1.098643e-09	-1.615687e+01	-7.707827e+01
1.340000e-06	-2.284660e-06	-1.086108e-09	-1.585659e+01	-7.649874e+01
1.350000e-06	-2.241257e-06	-1.076982e-09	-1.555535e+01	-7.590961e+01
1.360000e-06	-2.197788e-06	-1.070888e-09	-1.525366e+01	-7.531091e+01
1.370000e-06	-2.154317e-06	-1.063669e-09	-1.495195e+01	-7.470273e+01
1.380000e-06	-2.110783e-06	-1.053729e-09	-1.464981e+01	-7.408512e+01
1.390000e-06	-2.067156e-06	-1.041305e-09	-1.434702e+01	-7.345816e+01
1.400000e-06	-2.023446e-06	-1.026422e-09	-1.404365e+01	-7.282192e+01
1.410000e-06	-1.979623e-06	-1.011370e-09	-1.373949e+01	-7.217646e+01
1.420000e-06	-1.935665e-06	-9.978303e-10	-1.343440e+01	-7.152181e+01
1.430000e-06	-1.891614e-06	-9.864288e-10	-1.312867e+01	-7.085801e+01
1.440000e-06	-1.847488e-06	-9.772166e-10	-1.282242e+01	-7.018504e+01
1.450000e-06	-1.803233e-06	-9.700138e-10	-1.251527e+01	-6.950288e+01
1.460000e-06	-1.758783e-06	-9.632449e-10	-1.220677e+01	-6.881144e+01
1.470000e-06	-1.714219e-06	-9.543302e-10	-1.189747e+01	-6.811061e+01
1.480000e-06	-1.669567e-06	-9.418778e-10	-1.158757e+01	-6.740022e+01
1.490000e-06	-1.624676e-06	-9.270426e-10	-1.127600e+01	-6.668005e+01
1.500000e-06	-1.579630e-06	-9.083294e-10	-1.096336e+01	-6.594983e+01
1.510000e-06	-1.534587e-06	-8.893790e-10	-1.065074e+01	-6.520920e+01
1.520000e-06	-1.489459e-06	-8.740570e-10	-1.033753e+01	-6.445777e+01
1.530000e-06	-1.444155e-06	-8.634323e-10	-1.002310e+01	-6.369505e+01
1.540000e-06	-1.398728e-06	-8.563339e-10	-9.707813e+00	-6.292049e+01
1.550000e-06	-1.353222e-06	-8.505397e-10	-9.391981e+00	-6.213348e+01
1.560000e-06	-1.307679e-06	-8.403609e-10	-9.075891e+00	-6.133330e+01
1.570000e-06	-1.262082e-06	-8.235209e-10	-8.759431e+00	-6.051921e+01
1.580000e-06	-1.216345e-06	-8.036258e-10	-8.441993e+00	-5.969034e+01
1.590000e-06	-1.170549e-06	-7.839214e-10	-8.124149e+00	-5.884579e+01
1.600000e-06	-1.124687e-06	-7.663138e-10	-7.805842e+00	-5.798456e+01
1.610000e-06	-1.078698e-06	-7.507779e-10	-7.486664e+00	-5.710561e+01
1.620000e-06	-1.032665e-06	-7.381857e-10	-7.167170e+00	-5.620783e+01
1.630000e-06	-9.865483e-07	-7.281977e-10	-6.847098e+00	-5.529005e+01
1.640000e-06	-9.403182e-07	-7.175719e-10	-6.526240e+00	-5.435105e+01
1.650000e-06	-8.939884e-07	-7.050886e-10	-6.204691e+00	-5.338958e+01
1.660000e-06	-8.476051e-07	-6.902700e-10	-5.882769e+00	-5.240434e+01
1.670000e-06	-8.011885e-07	-6.735957e-10	-5.560617e+00	-5.139401e+01
1.680000e-06	-7.547108e-07	-6.563793e-10	-5.238040e+00	-5.035726e+01
1.690000e-06	-7.082406e-07	-6.392489e-10	-4.915515e+00	-4.929274e+01
1.700000e-06	-6.617311e-07	-6.206175e-10	-4.592718e+00	-4.819912e+01
1.710000e-06	-6.151573e-07	-5.995428e-10	-4.269474e+00	-4.707507e+01
1.720000e-06	-5.684885e-07	-5.784104e-10	-3.945572e+00	-4.591930e+01
1.730000e-06	-5.217357e-07	-5.596130e-10	-3.621085e+00	-4.473055e+01
1.740000e-06	-4.750194e-07	-5.437156e-10	-3.296853e+00	-4.350762e+01
1.750000e-06	-4.282482e-07	-5.269155e-10	-2.972239e+00	-4.224935e+01
1.760000e-06	-3.814473e-07	-5.076142e-10	-2.647419e+00	-4.095467e+01
1.770000e-06	-3.347045e-07	-4.859390e-10	-2.323003e+00	-3.962261e+01
1.780000e-06	-2.879250e-07	-4.635063e-10	-1.998332e+00	-3.825228e+01
1.790000e-06	-2.410288e-07	-4.427956e-10	-1.672851e+00	-3.684289e+01
1.800000e-06	-1.940582e-07	-4.231747e-10	-1.346853e+00	-3.539378e+01
1.810000e-06	-1.470828e-07	-4.023800e-10	-1.020822e+00	-3.390444e+01
1.820000e-06	-1.001184e-07	-3.808142e-10	-6.948680e-01	-3.237446e+01
1.830000e-06	-5.310848e-08	-3.602553e-10	-3.685973e-01	-3.080361e+01
1.840000e-06	-6.084959e-09	-3.400773e-10	-4.223241e-02	-2.919180e+01
1.850000e-06	4.090452e-08	-3.188695e-10	2.838962e-01	-2.753910e+01
1.860000e-06	8.787894e-08	-2.966686e-10	6.099203e-01	-2.584577e+01
1.870000e-06	1.347607e-07	-2.737864e-10	9.353013e-01	-2.411222e+01
1.880000e-06	1.815935e-07	-2.505571e-10	1.260342e+00	-2.233904e+01
1.890000e-06	2.284533e-07	-2.261240e-10	1.585571e+00	-2.052701e+01
1.900000e-06	2.752504e-07	-1.999069e-10	1.910365e+00	-1.867709e+01
1.910000e-06	3.219596e-07	-1.730212e-10	2.234548e+00	-1.679041e+01
1.920000e-06	3.686782e-07	-1.466212e-10	2.558796e+00	-1.486827e+01
1.930000e-06	4.154446e-07	-1.216799e-10	2.883376e+00	-1.291216e+01
1.940000e-06	4.621720e-07	-9.768704e-11	3.207686e+00	-1.092375e+01
1.950000e-06	5.087987e-07	-7.300241e-11	3.531297e+00	-8.904851e+00
1.960000e-06	5.554283e-07	-4.731428e-11	3.854928e+00	-6.857441e+00
1.970000e-06	6.020794e-07	-1.997742e-11	4.178708e+00	-4.783652e+00
1.980000e-06	6.486144e-07	9.292557e-12	4.501682e+00	-2.685753e+00
1.990000e-06	6.950597e-07	4.058091e-11	4.824034e+00	-5.661431e-01
2.000000e-06	7.415101e-07	7.297874e-11	5.146421e+00	1.572659e+00
2.010000e-06	7.878997e-07	1.041465e-10	5.468386e+00	3.728031e+00
2.020000e-06	8.342617e-07	1.355501e-10	5.790160e+00	5.897254e+00
2.030000e-06	8.805825e-07	1.670879e-10	6.111647e+00	8.077535e+00
2.040000e-06	9.268476e-07	1.960819e-10	6.432749e+00	1.026601e+01
2.050000e-06	9.730084e-07	2.233064e-10	6.753126e+00	1.245978e+01
2.060000e-06	1.019036e-06	2.510546e-10	7.072580e+00	1.465591e+01
2.070000e-06	1.064922e-06	2.806114e-10	7.391045e+00	1.685142e+01
2.080000e-06	1.110693e-06	3.111919e-10	7.708719e+00	1.904337e+01
2.090000e-06	1.156496e-06	3.425769e-10	8.026612e+00	2.122881e+01
2.100000e-06	1.202265e-06	3.746338e-10	8.344273e+00	2.340484e+01
2.110000e-06	1.247931e-06	4.063466e-10	8.661217e+00	2.556858e+01
2.120000e-06	1.293525e-06	4.378765e-10	8.977660e+00	2.771723e+01
2.130000e-06	1.339036e-06	4.687182e-10	9.293527e+00	2.984808e+01
2.140000e-06	1.384443e-06	4.972419e-10	9.608671e+00	3.195847e+01
2.150000e-06	1.429732e-06	5.237235e-10	9.922996e+00	3.404590e+01
2.160000e-06	1.474908e-06	5.487207e-10	1.023654e+01	3.610794e+01
2.170000e-06	1.520059e-06	5.733918e-10	1.054991e+01	3.814232e+01
2.180000e-06	1.565148e-06	6.008153e-10	1.086285e+01	4.014688e+01
2.190000e-06	1.610098e-06	6.302386e-10	1.117482e+01	4.211965e+01
2.200000e-06	1.654903e-06	6.593956e-10	1.148579e+01	4.405878e+01
2.210000e-06	1.699520e-06	6.883064e-10	1.179545e+01	4.596261e+01
2.220000e-06	1.743950e-06	7.149409e-10	1.210381e+01	4.782963e+01
2.230000e-06	1.788213e-06	7.374249e-10	1.241102e+01	4.965853e+01
2.240000e-06	1.832359e-06	7.571003e-10	1.271741e+01	5.144815e+01
2.250000e-06	1.876452e-06	7.734191e-10	1.302344e+01	5.319754e+01
2.260000e-06	1.920450e-06	7.900545e-10	1.332881e+01	5.490591e+01
2.270000e-06	1.964354e-06	8.105607e-10	1.363352e+01	5.657266e+01
2.280000e-06	2.008177e-06	8.338708e-10	1.393767e+01	5.819735e+01
2.290000e-06	2.051911e-06	8.587822e-10	1.424121e+01	5.977974e+01
2.300000e-06	2.095569e-06	8.836405e-10	1.454421e+01	6.131973e+01
2.310000e-06	2.139165e-06	9.072719e-10	1.484679e+01	6.281742e+01
2.320000e-06	2.182676e-06	9.284234e-10	1.514877e+01	6.427303e+01
2.330000e-06	2.226153e-06	9.456213e-10	1.545052e+01	6.568695e+01
2.340000e-06	2.269571e-06	9.588754e-10	1.575187e+01	6.705969e+01
2.350000e-06	2.312798e-06	9.717691e-10	1.605188e+01	6.839192e+01
2.360000e-06	2.355816e-06	9.873443e-10	1.635045e+01	6.968439e+01
2.370000e-06	2.398530e-06	1.006222e-09	1.664690e+01	7.093798e+01
2.380000e-06	2.440934e-06	1.027030e-09	1.694120e+01	7.215368e+01
2.390000e-06	2.483082e-06	1.046523e-09	1.723373e+01	7.333252e+01
2.400000e-06	2.524935e-06	1.063754e-09	1.752421e+01	7.447565e+01
2.410000e-06	2.566522e-06	1.077956e-09	1.781284e+01	7.558424e+01
2.420000e-06	2.607844e-06	1.090430e-09	1.809964e+01	7.665952e+01
2.430000e-06	2.648834e-06	1.105724e-09	1.838413e+01	7.770278e+01
2.440000e-06	2.689511e-06	1.122082e-09	1.866644e+01	7.871528e+01
2.450000e-06	2.729911e-06	1.138740e-09	1.894684e+01	7.969833e+01
2.460000e-06	2.770039e-06	1.153466e-09	1.922534e+01	8.065323e+01
2.470000e-06	2.809979e-06	1.165369e-09	1.950255e+01	8.158126e+01
2.480000e-06	2.849794e-06	1.178163e-09	1.977888e+01	8.248368e+01
2.490000e-06	2.889481e-06	1.191270e-09	2.005432e+01	8.336172e+01
2.500000e-06	2.929062e-06	1.203125e-09	2.032904e+01	8.421656e+01
2.510000e-06	2.968541e-06	1.217794e-09	2.060304e+01	8.504934e+01
2.520000e-06	3.007871e-06	1.232400e-09	2.087601e+01	8.586114e+01
2.530000e-06	3.047013e-06	1.245291e-09	2.114767e+01	8.665298e+01
2.540000e-06	3.085982e-06	1.259507e-09	2.141814e+01	8.742580e+01
2.550000e-06	3.124780e-06	1.270945e-09	2.168741e+01	8.818049e+01
2.560000e-06	3.163268e-06	1.277977e-09	2.195454e+01	8.891785e+01
2.570000e-06	3.201477e-06	1.284253e-09	2.221972e+01	8.963859e+01
2.580000e-06	3.239487e-06	1.292869e-09	2.248353e+01	9.034336e+01
2.590000e-06	3.277250e-06	1.302845e-09	2.274562e+01	9.103274e+01
2.600000e-06	3.314818e-06	1.316368e-09	2.300636e+01	9.170719e+01
2.610000e-06	3.352242e-06	1.332809e-09	2.326610e+01	9.236714e+01
2.620000e-06	3.389457e-06	1.348161e-09	2.352439e+01	9.301292e+01
2.630000e-06	3.426403e-06	1.356787e-09	2.378081e+01	9.364479e+01
2.640000e-06	3.463071e-06	1.362125e-09	2.403531e+01	9.426294e+01
2.650000e-06	3.499480e-06	1.366835e-09	2.428800e+01	9.486753e+01
2.660000e-06	3.535644e-06	1.370938e-09	2.453899e+01	9.545861e+01
2.670000e-06	3.571542e-06	1.376035e-09	2.478814e+01	9.603622e+01
2.680000e-06	3.607268e-06	1.384731e-09	2.503610e+01	9.660034e+01
2.690000e-06	3.642921e-06	1.396687e-09	2.528354e+01	9.715092e+01
2.700000e-06	3.678449e-06	1.408542e-09	2.553013e+01	9.768786e+01
2.710000e-06	3.713782e-06	1.417389e-09	2.577536e+01	9.821106e+01
2.720000e-06	3.748840e-06	1.422391e-09	2.601867e+01	9.872039e+01
2.730000e-06	3.783556e-06	1.425628e-09	2.625962e+01	9.921570e+01
2.740000e-06	3.817906e-06	1.429117e-09	2.649802e+01	9.969686e+01
2.750000e-06	3.851869e-06	1.433387e-09	2.673374e+01	1.001637e+02
2.760000e-06	3.885324e-06	1.438661e-09	2.696593e+01	1.006162e+02
2.770000e-06	3.918241e-06	1.445388e-09	2.719439e+01	1.010541e+02
2.780000e-06	3.950791e-06	1.452534e-09	2.742031e+01	1.014774e+02
2.790000e-06	3.983041e-06	1.459419e-09	2.764414e+01	1.018860e+02
2.800000e-06	4.014974e-06	1.467285e-09	2.786576e+01	1.022799e+02
2.810000e-06	4.046720e-06	1.475232e-09	2.808610e+01	1.026591e+02
2.820000e-06	4.078355e-06	1.480114e-09	2.830566e+01	1.030236e+02
2.830000e-06	4.109799e-06	1.483819e-09	2.852390e+01	1.033736e+02
2.840000e-06	4.141050e-06	1.486057e-09	2.874079e+01	1.037092e+02
2.850000e-06	4.172036e-06	1.487186e-09	2.895585e+01	1.040305e+02
2.860000e-06	4.202725e-06	1.490360e-09	2.916884e+01	1.043378e+02
2.870000e-06	4.233176e-06	1.497755e-09	2.938019e+01	1.046313e+02
2.880000e-06	4.263271e-06	1.504830e-09	2.958906e+01	1.049114e+02
2.890000e-06	4.293008e-06	1.510348e-09	2.979545e+01	1.051785e+02
2.900000e-06	4.322479e-06	1.516363e-09	2.999999e+01	1.054329e+02
