# Temperatura_=_-7.73
# Concentracion g/m^3_=_1620.0
# C_Vs_to_Am_M_A/Vsm_=_65563218390.804596
# pendiente_HvsI_1/m_=_3716.3
# ordenada_HvsI_A/m_=_1297.0
# frecuencia_Hz_=_135110.27309987048

Tiempo_(s)	Campo_(V.s)	Magnetizacion_(V.s)	Campo_(kA/m)	Magnetizacion_(A/m)
0.000000e+00	-5.536647e-06	-1.423049e-09	-3.836440e+01	-9.394339e+01
1.000000e-08	-5.536732e-06	-1.421901e-09	-3.836498e+01	-9.387101e+01
2.000000e-08	-5.536484e-06	-1.422041e-09	-3.836327e+01	-9.379866e+01
3.000000e-08	-5.535810e-06	-1.421318e-09	-3.835860e+01	-9.372613e+01
4.000000e-08	-5.534637e-06	-1.422249e-09	-3.835047e+01	-9.365320e+01
5.000000e-08	-5.532854e-06	-1.423841e-09	-3.833811e+01	-9.357963e+01
6.000000e-08	-5.530491e-06	-1.411293e-09	-3.832174e+01	-9.350515e+01
7.000000e-08	-5.527597e-06	-1.392440e-09	-3.830169e+01	-9.342952e+01
8.000000e-08	-5.524258e-06	-1.402824e-09	-3.827855e+01	-9.335243e+01
9.000000e-08	-5.520511e-06	-1.426403e-09	-3.825259e+01	-9.327362e+01
1.000000e-07	-5.516291e-06	-1.415233e-09	-3.822335e+01	-9.319281e+01
1.100000e-07	-5.511726e-06	-1.399733e-09	-3.819172e+01	-9.310970e+01
1.200000e-07	-5.506927e-06	-1.392890e-09	-3.815847e+01	-9.302403e+01
1.300000e-07	-5.501842e-06	-1.420040e-09	-3.812323e+01	-9.293555e+01
1.400000e-07	-5.496359e-06	-1.407546e-09	-3.808524e+01	-9.284399e+01
1.500000e-07	-5.490569e-06	-1.389381e-09	-3.804512e+01	-9.274913e+01
1.600000e-07	-5.484462e-06	-1.401140e-09	-3.800280e+01	-9.265076e+01
1.700000e-07	-5.477883e-06	-1.396100e-09	-3.795722e+01	-9.254870e+01
1.800000e-07	-5.470898e-06	-1.385617e-09	-3.790881e+01	-9.244278e+01
1.900000e-07	-5.463554e-06	-1.369679e-09	-3.785792e+01	-9.233288e+01
2.000000e-07	-5.455973e-06	-1.380629e-09	-3.780540e+01	-9.221889e+01
2.100000e-07	-5.448057e-06	-1.376232e-09	-3.775054e+01	-9.210074e+01
2.200000e-07	-5.439746e-06	-1.380153e-09	-3.769296e+01	-9.197841e+01
2.300000e-07	-5.431170e-06	-1.391676e-09	-3.763353e+01	-9.185188e+01
2.400000e-07	-5.422135e-06	-1.398795e-09	-3.757093e+01	-9.172119e+01
2.500000e-07	-5.412417e-06	-1.385208e-09	-3.750359e+01	-9.158642e+01
2.600000e-07	-5.401985e-06	-1.371487e-09	-3.743130e+01	-9.144765e+01
2.700000e-07	-5.390996e-06	-1.364399e-09	-3.735515e+01	-9.130503e+01
2.800000e-07	-5.379589e-06	-1.373575e-09	-3.727612e+01	-9.115872e+01
2.900000e-07	-5.367836e-06	-1.381459e-09	-3.719468e+01	-9.100890e+01
3.000000e-07	-5.355772e-06	-1.376396e-09	-3.711109e+01	-9.085580e+01
3.100000e-07	-5.343321e-06	-1.364120e-09	-3.702481e+01	-9.069967e+01
3.200000e-07	-5.330356e-06	-1.365412e-09	-3.693497e+01	-9.054076e+01
3.300000e-07	-5.316862e-06	-1.371285e-09	-3.684147e+01	-9.037935e+01
3.400000e-07	-5.303004e-06	-1.355627e-09	-3.674545e+01	-9.021575e+01
3.500000e-07	-5.288718e-06	-1.346284e-09	-3.664645e+01	-9.005026e+01
3.600000e-07	-5.273941e-06	-1.364465e-09	-3.654406e+01	-8.988319e+01
3.700000e-07	-5.258772e-06	-1.373482e-09	-3.643895e+01	-8.971485e+01
3.800000e-07	-5.243127e-06	-1.349935e-09	-3.633054e+01	-8.954556e+01
3.900000e-07	-5.226877e-06	-1.350510e-09	-3.621795e+01	-8.937562e+01
4.000000e-07	-5.210145e-06	-1.363833e-09	-3.610201e+01	-8.920534e+01
4.100000e-07	-5.193144e-06	-1.343732e-09	-3.598421e+01	-8.903499e+01
4.200000e-07	-5.175817e-06	-1.328576e-09	-3.586415e+01	-8.886484e+01
4.300000e-07	-5.158228e-06	-1.363539e-09	-3.574226e+01	-8.869513e+01
4.400000e-07	-5.140360e-06	-1.366141e-09	-3.561845e+01	-8.852609e+01
4.500000e-07	-5.122000e-06	-1.335971e-09	-3.549124e+01	-8.835790e+01
4.600000e-07	-5.103165e-06	-1.343855e-09	-3.536073e+01	-8.819074e+01
4.700000e-07	-5.084069e-06	-1.359125e-09	-3.522840e+01	-8.802473e+01
4.800000e-07	-5.064762e-06	-1.329184e-09	-3.509463e+01	-8.785996e+01
4.900000e-07	-5.045171e-06	-1.323088e-09	-3.495888e+01	-8.769650e+01
5.000000e-07	-5.025285e-06	-1.343894e-09	-3.482108e+01	-8.753438e+01
5.100000e-07	-5.005143e-06	-1.326039e-09	-3.468151e+01	-8.737357e+01
5.200000e-07	-4.984743e-06	-1.313065e-09	-3.454016e+01	-8.721404e+01
5.300000e-07	-4.963948e-06	-1.342115e-09	-3.439607e+01	-8.705568e+01
5.400000e-07	-4.942798e-06	-1.342342e-09	-3.424952e+01	-8.689838e+01
5.500000e-07	-4.921361e-06	-1.319590e-09	-3.410097e+01	-8.674199e+01
5.600000e-07	-4.899555e-06	-1.331210e-09	-3.394988e+01	-8.658631e+01
5.700000e-07	-4.877399e-06	-1.333065e-09	-3.379635e+01	-8.643111e+01
5.800000e-07	-4.854834e-06	-1.304216e-09	-3.364000e+01	-8.627616e+01
5.900000e-07	-4.831875e-06	-1.304160e-09	-3.348091e+01	-8.612118e+01
6.000000e-07	-4.808609e-06	-1.313690e-09	-3.331969e+01	-8.596587e+01
6.100000e-07	-4.785059e-06	-1.296287e-09	-3.315651e+01	-8.580992e+01
6.200000e-07	-4.761314e-06	-1.294228e-09	-3.299198e+01	-8.565301e+01
6.300000e-07	-4.737364e-06	-1.306022e-09	-3.282603e+01	-8.549479e+01
6.400000e-07	-4.713094e-06	-1.294665e-09	-3.265786e+01	-8.533494e+01
6.500000e-07	-4.688437e-06	-1.287199e-09	-3.248700e+01	-8.517309e+01
6.600000e-07	-4.663297e-06	-1.293548e-09	-3.231280e+01	-8.500891e+01
6.700000e-07	-4.637576e-06	-1.278347e-09	-3.213458e+01	-8.484207e+01
6.800000e-07	-4.611286e-06	-1.269036e-09	-3.195241e+01	-8.467225e+01
6.900000e-07	-4.584543e-06	-1.278740e-09	-3.176710e+01	-8.449913e+01
7.000000e-07	-4.557500e-06	-1.274916e-09	-3.157972e+01	-8.432243e+01
7.100000e-07	-4.530154e-06	-1.265104e-09	-3.139023e+01	-8.414188e+01
7.200000e-07	-4.502546e-06	-1.273077e-09	-3.119893e+01	-8.395725e+01
7.300000e-07	-4.474794e-06	-1.268490e-09	-3.100664e+01	-8.376832e+01
7.400000e-07	-4.446832e-06	-1.248680e-09	-3.081288e+01	-8.357492e+01
7.500000e-07	-4.418587e-06	-1.247350e-09	-3.061717e+01	-8.337690e+01
7.600000e-07	-4.390035e-06	-1.248555e-09	-3.041932e+01	-8.317415e+01
7.700000e-07	-4.361114e-06	-1.234985e-09	-3.021892e+01	-8.296660e+01
7.800000e-07	-4.331880e-06	-1.232206e-09	-3.001636e+01	-8.275421e+01
7.900000e-07	-4.302415e-06	-1.235155e-09	-2.981219e+01	-8.253699e+01
8.000000e-07	-4.272589e-06	-1.224032e-09	-2.960552e+01	-8.231498e+01
8.100000e-07	-4.242391e-06	-1.211774e-09	-2.939627e+01	-8.208825e+01
8.200000e-07	-4.211983e-06	-1.215055e-09	-2.918557e+01	-8.185692e+01
8.300000e-07	-4.181340e-06	-1.214459e-09	-2.897324e+01	-8.162113e+01
8.400000e-07	-4.150414e-06	-1.209944e-09	-2.875895e+01	-8.138107e+01
8.500000e-07	-4.119207e-06	-1.216727e-09	-2.854271e+01	-8.113693e+01
8.600000e-07	-4.087778e-06	-1.215865e-09	-2.832493e+01	-8.088895e+01
8.700000e-07	-4.056148e-06	-1.199292e-09	-2.810576e+01	-8.063739e+01
8.800000e-07	-4.024251e-06	-1.187289e-09	-2.788474e+01	-8.038251e+01
8.900000e-07	-3.992191e-06	-1.184212e-09	-2.766260e+01	-8.012461e+01
9.000000e-07	-3.959924e-06	-1.177642e-09	-2.743901e+01	-7.986397e+01
9.100000e-07	-3.927340e-06	-1.174333e-09	-2.721323e+01	-7.960091e+01
9.200000e-07	-3.894325e-06	-1.178491e-09	-2.698446e+01	-7.933572e+01
9.300000e-07	-3.860722e-06	-1.174437e-09	-2.675162e+01	-7.906870e+01
9.400000e-07	-3.826750e-06	-1.164082e-09	-2.651622e+01	-7.880015e+01
9.500000e-07	-3.792451e-06	-1.159259e-09	-2.627856e+01	-7.853033e+01
9.600000e-07	-3.757704e-06	-1.152167e-09	-2.603779e+01	-7.825951e+01
9.700000e-07	-3.722569e-06	-1.142929e-09	-2.579433e+01	-7.798792e+01
9.800000e-07	-3.687136e-06	-1.144161e-09	-2.554881e+01	-7.771578e+01
9.900000e-07	-3.651569e-06	-1.150397e-09	-2.530236e+01	-7.744326e+01
1.000000e-06	-3.615877e-06	-1.145891e-09	-2.505504e+01	-7.717051e+01
1.010000e-06	-3.580010e-06	-1.137021e-09	-2.480652e+01	-7.689763e+01
1.020000e-06	-3.544023e-06	-1.131429e-09	-2.455716e+01	-7.662471e+01
1.030000e-06	-3.507841e-06	-1.123824e-09	-2.430644e+01	-7.635177e+01
1.040000e-06	-3.471371e-06	-1.117859e-09	-2.405374e+01	-7.607879e+01
1.050000e-06	-3.434598e-06	-1.119214e-09	-2.379893e+01	-7.580572e+01
1.060000e-06	-3.397531e-06	-1.117833e-09	-2.354209e+01	-7.553245e+01
1.070000e-06	-3.360263e-06	-1.110441e-09	-2.328385e+01	-7.525883e+01
1.080000e-06	-3.322776e-06	-1.103660e-09	-2.302410e+01	-7.498469e+01
1.090000e-06	-3.285013e-06	-1.097128e-09	-2.276243e+01	-7.470977e+01
1.100000e-06	-3.247002e-06	-1.088425e-09	-2.249905e+01	-7.443381e+01
1.110000e-06	-3.208785e-06	-1.080235e-09	-2.223424e+01	-7.415648e+01
1.120000e-06	-3.170343e-06	-1.072792e-09	-2.196786e+01	-7.387745e+01
1.130000e-06	-3.131719e-06	-1.065043e-09	-2.170023e+01	-7.359632e+01
1.140000e-06	-3.092905e-06	-1.061144e-09	-2.143128e+01	-7.331267e+01
1.150000e-06	-3.053869e-06	-1.062169e-09	-2.116079e+01	-7.302608e+01
1.160000e-06	-3.014653e-06	-1.059090e-09	-2.088906e+01	-7.273607e+01
1.170000e-06	-2.975298e-06	-1.052513e-09	-2.061636e+01	-7.244217e+01
1.180000e-06	-2.935793e-06	-1.047888e-09	-2.034263e+01	-7.214389e+01
1.190000e-06	-2.896115e-06	-1.041330e-09	-2.006769e+01	-7.184072e+01
1.200000e-06	-2.856308e-06	-1.030312e-09	-1.979186e+01	-7.153218e+01
1.210000e-06	-2.816347e-06	-1.020087e-09	-1.951496e+01	-7.121777e+01
1.220000e-06	-2.776242e-06	-1.013185e-09	-1.923707e+01	-7.089699e+01
1.230000e-06	-2.735998e-06	-1.005816e-09	-1.895821e+01	-7.056937e+01
1.240000e-06	-2.695512e-06	-9.987759e-10	-1.867767e+01	-7.023446e+01
1.250000e-06	-2.654721e-06	-9.934621e-10	-1.839503e+01	-6.989181e+01
1.260000e-06	-2.613691e-06	-9.890687e-10	-1.811072e+01	-6.954102e+01
1.270000e-06	-2.572417e-06	-9.830336e-10	-1.782473e+01	-6.918171e+01
1.280000e-06	-2.530810e-06	-9.758543e-10	-1.753643e+01	-6.881354e+01
1.290000e-06	-2.488888e-06	-9.684764e-10	-1.724594e+01	-6.843618e+01
1.300000e-06	-2.446628e-06	-9.598276e-10	-1.695311e+01	-6.804937e+01
1.310000e-06	-2.404124e-06	-9.500111e-10	-1.665859e+01	-6.765288e+01
1.320000e-06	-2.361422e-06	-9.412506e-10	-1.636271e+01	-6.724651e+01
1.330000e-06	-2.318468e-06	-9.352522e-10	-1.606507e+01	-6.683010e+01
1.340000e-06	-2.275273e-06	-9.323610e-10	-1.576576e+01	-6.640356e+01
1.350000e-06	-2.231856e-06	-9.302095e-10	-1.546492e+01	-6.596680e+01
1.360000e-06	-2.188334e-06	-9.262296e-10	-1.516335e+01	-6.551979e+01
1.370000e-06	-2.144744e-06	-9.187998e-10	-1.486131e+01	-6.506253e+01
1.380000e-06	-2.101024e-06	-9.073414e-10	-1.455837e+01	-6.459506e+01
1.390000e-06	-2.057172e-06	-8.928034e-10	-1.425450e+01	-6.411743e+01
1.400000e-06	-2.013271e-06	-8.775649e-10	-1.395031e+01	-6.362973e+01
1.410000e-06	-1.969345e-06	-8.643300e-10	-1.364593e+01	-6.313206e+01
1.420000e-06	-1.925281e-06	-8.543415e-10	-1.334061e+01	-6.262455e+01
1.430000e-06	-1.881032e-06	-8.481439e-10	-1.303400e+01	-6.210731e+01
1.440000e-06	-1.836705e-06	-8.442373e-10	-1.272685e+01	-6.158048e+01
1.450000e-06	-1.792274e-06	-8.397762e-10	-1.241898e+01	-6.104419e+01
1.460000e-06	-1.747675e-06	-8.317947e-10	-1.210995e+01	-6.049853e+01
1.470000e-06	-1.703046e-06	-8.206401e-10	-1.180071e+01	-5.994362e+01
1.480000e-06	-1.658324e-06	-8.091037e-10	-1.149082e+01	-5.937951e+01
1.490000e-06	-1.613364e-06	-7.973979e-10	-1.117928e+01	-5.880624e+01
1.500000e-06	-1.568277e-06	-7.842896e-10	-1.086687e+01	-5.822381e+01
1.510000e-06	-1.523094e-06	-7.730865e-10	-1.055378e+01	-5.763218e+01
1.520000e-06	-1.477804e-06	-7.645775e-10	-1.023996e+01	-5.703124e+01
1.530000e-06	-1.432373e-06	-7.571571e-10	-9.925167e+00	-5.642084e+01
1.540000e-06	-1.386785e-06	-7.495328e-10	-9.609277e+00	-5.580076e+01
1.550000e-06	-1.341117e-06	-7.397553e-10	-9.292837e+00	-5.517071e+01
1.560000e-06	-1.295441e-06	-7.280214e-10	-8.976338e+00	-5.453033e+01
1.570000e-06	-1.249713e-06	-7.146316e-10	-8.659480e+00	-5.387919e+01
1.580000e-06	-1.203887e-06	-7.015851e-10	-8.341946e+00	-5.321677e+01
1.590000e-06	-1.157970e-06	-6.894425e-10	-8.023776e+00	-5.254249e+01
1.600000e-06	-1.111965e-06	-6.785152e-10	-7.705001e+00	-5.185566e+01
1.610000e-06	-1.065892e-06	-6.704508e-10	-7.385750e+00	-5.115554e+01
1.620000e-06	-1.019687e-06	-6.624792e-10	-7.065593e+00	-5.044128e+01
1.630000e-06	-9.733364e-07	-6.510524e-10	-6.744419e+00	-4.971198e+01
1.640000e-06	-9.269394e-07	-6.372120e-10	-6.422926e+00	-4.896664e+01
1.650000e-06	-8.805395e-07	-6.248558e-10	-6.101412e+00	-4.820422e+01
1.660000e-06	-8.340931e-07	-6.148433e-10	-5.779578e+00	-4.742358e+01
1.670000e-06	-7.875921e-07	-6.049186e-10	-5.457364e+00	-4.662354e+01
1.680000e-06	-7.410009e-07	-5.947159e-10	-5.134526e+00	-4.580287e+01
1.690000e-06	-6.943725e-07	-5.844936e-10	-4.811429e+00	-4.496028e+01
1.700000e-06	-6.477618e-07	-5.702345e-10	-4.488455e+00	-4.409446e+01
1.710000e-06	-6.011359e-07	-5.519693e-10	-4.165376e+00	-4.320406e+01
1.720000e-06	-5.544443e-07	-5.338714e-10	-3.841842e+00	-4.228772e+01
1.730000e-06	-5.076749e-07	-5.170831e-10	-3.517768e+00	-4.134407e+01
1.740000e-06	-4.609129e-07	-5.034532e-10	-3.193746e+00	-4.037176e+01
1.750000e-06	-4.140314e-07	-4.917004e-10	-2.868896e+00	-3.936944e+01
1.760000e-06	-3.670330e-07	-4.784692e-10	-2.543236e+00	-3.833580e+01
1.770000e-06	-3.200915e-07	-4.630143e-10	-2.217970e+00	-3.726956e+01
1.780000e-06	-2.731027e-07	-4.476246e-10	-1.892376e+00	-3.616953e+01
1.790000e-06	-2.260149e-07	-4.317464e-10	-1.566097e+00	-3.503454e+01
1.800000e-06	-1.789857e-07	-4.141032e-10	-1.240224e+00	-3.386354e+01
1.810000e-06	-1.319760e-07	-3.961785e-10	-9.144847e-01	-3.265555e+01
1.820000e-06	-8.490277e-08	-3.791100e-10	-5.883062e-01	-3.140970e+01
1.830000e-06	-3.783552e-08	-3.631281e-10	-2.621690e-01	-3.012525e+01
1.840000e-06	9.172882e-09	-3.472421e-10	6.356051e-02	-2.880156e+01
1.850000e-06	5.613418e-08	-3.315113e-10	3.889636e-01	-2.743814e+01
1.860000e-06	1.030949e-07	-3.159497e-10	7.143630e-01	-2.603466e+01
1.870000e-06	1.500634e-07	-2.973080e-10	1.039816e+00	-2.459093e+01
1.880000e-06	1.970317e-07	-2.747045e-10	1.365267e+00	-2.310691e+01
1.890000e-06	2.439925e-07	-2.497684e-10	1.690667e+00	-2.158276e+01
1.900000e-06	2.909627e-07	-2.251090e-10	2.016132e+00	-2.001879e+01
1.910000e-06	3.379608e-07	-2.018700e-10	2.341790e+00	-1.841549e+01
1.920000e-06	3.849544e-07	-1.792283e-10	2.667417e+00	-1.677353e+01
1.930000e-06	4.319124e-07	-1.583541e-10	2.992797e+00	-1.509378e+01
1.940000e-06	4.788106e-07	-1.381811e-10	3.317763e+00	-1.337725e+01
1.950000e-06	5.256640e-07	-1.160016e-10	3.642418e+00	-1.162518e+01
1.960000e-06	5.724691e-07	-9.086665e-11	3.966739e+00	-9.838938e+00
1.970000e-06	6.191223e-07	-6.436395e-11	4.290007e+00	-8.020102e+00
1.980000e-06	6.657253e-07	-3.765440e-11	4.612927e+00	-6.170399e+00
1.990000e-06	7.123149e-07	-9.996002e-12	4.935755e+00	-4.291718e+00
2.000000e-06	7.588204e-07	1.737520e-11	5.258000e+00	-2.386101e+00
2.010000e-06	8.052969e-07	4.342436e-11	5.580044e+00	-4.557322e-01
2.020000e-06	8.517134e-07	7.113103e-11	5.901672e+00	1.497071e+00
2.030000e-06	8.980063e-07	1.008596e-10	6.222443e+00	3.469873e+00
2.040000e-06	9.442661e-07	1.294319e-10	6.542986e+00	5.460127e+00
2.050000e-06	9.905243e-07	1.557195e-10	6.863517e+00	7.465196e+00
2.060000e-06	1.036623e-06	1.810119e-10	7.182944e+00	9.482357e+00
2.070000e-06	1.082616e-06	2.065490e-10	7.501635e+00	1.150883e+01
2.080000e-06	1.128598e-06	2.327987e-10	7.820252e+00	1.354177e+01
2.090000e-06	1.174490e-06	2.619945e-10	8.138246e+00	1.557831e+01
2.100000e-06	1.220265e-06	2.933828e-10	8.455432e+00	1.761555e+01
2.110000e-06	1.265897e-06	3.241469e-10	8.771626e+00	1.965062e+01
2.120000e-06	1.311410e-06	3.532453e-10	9.086992e+00	2.168061e+01
2.130000e-06	1.356895e-06	3.799964e-10	9.402161e+00	2.370269e+01
2.140000e-06	1.402331e-06	4.039867e-10	9.716997e+00	2.571403e+01
2.150000e-06	1.447699e-06	4.256142e-10	1.003136e+01	2.771190e+01
2.160000e-06	1.492954e-06	4.484345e-10	1.034494e+01	2.969361e+01
2.170000e-06	1.538075e-06	4.725724e-10	1.065759e+01	3.165658e+01
2.180000e-06	1.583145e-06	5.007876e-10	1.096989e+01	3.359832e+01
2.190000e-06	1.628108e-06	5.325871e-10	1.128144e+01	3.551645e+01
2.200000e-06	1.672911e-06	5.629849e-10	1.159190e+01	3.740873e+01
2.210000e-06	1.717562e-06	5.890134e-10	1.190129e+01	3.927303e+01
2.220000e-06	1.762100e-06	6.121652e-10	1.220990e+01	4.110738e+01
2.230000e-06	1.806573e-06	6.343542e-10	1.251806e+01	4.290997e+01
2.240000e-06	1.850897e-06	6.545542e-10	1.282519e+01	4.467913e+01
2.250000e-06	1.895064e-06	6.738214e-10	1.313123e+01	4.641336e+01
2.260000e-06	1.939138e-06	6.950481e-10	1.343663e+01	4.811132e+01
2.270000e-06	1.983112e-06	7.177701e-10	1.374133e+01	4.977187e+01
2.280000e-06	2.026976e-06	7.403318e-10	1.404527e+01	5.139400e+01
2.290000e-06	2.070737e-06	7.641454e-10	1.434850e+01	5.297690e+01
2.300000e-06	2.114401e-06	7.877074e-10	1.465105e+01	5.451992e+01
2.310000e-06	2.157994e-06	8.078326e-10	1.495312e+01	5.602259e+01
2.320000e-06	2.201545e-06	8.228597e-10	1.525489e+01	5.748459e+01
2.330000e-06	2.245037e-06	8.360255e-10	1.555625e+01	5.890576e+01
2.340000e-06	2.288417e-06	8.519102e-10	1.585684e+01	6.028611e+01
2.350000e-06	2.331613e-06	8.714815e-10	1.615615e+01	6.162578e+01
2.360000e-06	2.374607e-06	8.905959e-10	1.645407e+01	6.292506e+01
2.370000e-06	2.417356e-06	9.085111e-10	1.675029e+01	6.418436e+01
2.380000e-06	2.459809e-06	9.250883e-10	1.704445e+01	6.540422e+01
2.390000e-06	2.501942e-06	9.397721e-10	1.733640e+01	6.658529e+01
2.400000e-06	2.543723e-06	9.526144e-10	1.762590e+01	6.772832e+01
2.410000e-06	2.585171e-06	9.645604e-10	1.791311e+01	6.883414e+01
2.420000e-06	2.626275e-06	9.776632e-10	1.819792e+01	6.990366e+01
2.430000e-06	2.667149e-06	9.938307e-10	1.848114e+01	7.093788e+01
2.440000e-06	2.707853e-06	1.012043e-09	1.876319e+01	7.193782e+01
2.450000e-06	2.748311e-06	1.028345e-09	1.904353e+01	7.290458e+01
2.460000e-06	2.788536e-06	1.041925e-09	1.932225e+01	7.383925e+01
2.470000e-06	2.828595e-06	1.052968e-09	1.959983e+01	7.474298e+01
2.480000e-06	2.868532e-06	1.063686e-09	1.987656e+01	7.561691e+01
2.490000e-06	2.908308e-06	1.073877e-09	2.015218e+01	7.646218e+01
2.500000e-06	2.947938e-06	1.083822e-09	2.042678e+01	7.727993e+01
2.510000e-06	2.987467e-06	1.098027e-09	2.070068e+01	7.807128e+01
2.520000e-06	3.026816e-06	1.112596e-09	2.097334e+01	7.883732e+01
2.530000e-06	3.065924e-06	1.128661e-09	2.124432e+01	7.957909e+01
2.540000e-06	3.104783e-06	1.143755e-09	2.151358e+01	8.029763e+01
2.550000e-06	3.143374e-06	1.152149e-09	2.178099e+01	8.099388e+01
2.560000e-06	3.181721e-06	1.157622e-09	2.204670e+01	8.166878e+01
2.570000e-06	3.219851e-06	1.162755e-09	2.231091e+01	8.232317e+01
2.580000e-06	3.257751e-06	1.168887e-09	2.257353e+01	8.295785e+01
2.590000e-06	3.295425e-06	1.177312e-09	2.283458e+01	8.357357e+01
2.600000e-06	3.332946e-06	1.190953e-09	2.309457e+01	8.417098e+01
2.610000e-06	3.370360e-06	1.208190e-09	2.335382e+01	8.475071e+01
2.620000e-06	3.407546e-06	1.222591e-09	2.361149e+01	8.531329e+01
2.630000e-06	3.444375e-06	1.229763e-09	2.386668e+01	8.585922e+01
2.640000e-06	3.480941e-06	1.232984e-09	2.412005e+01	8.638890e+01
2.650000e-06	3.517373e-06	1.236155e-09	2.437249e+01	8.690270e+01
2.660000e-06	3.553603e-06	1.240111e-09	2.462354e+01	8.740094e+01
2.670000e-06	3.589592e-06	1.245554e-09	2.487291e+01	8.788386e+01
2.680000e-06	3.625415e-06	1.254644e-09	2.512114e+01	8.835168e+01
2.690000e-06	3.661118e-06	1.265929e-09	2.536853e+01	8.880456e+01
2.700000e-06	3.696664e-06	1.274924e-09	2.561484e+01	8.924264e+01
2.710000e-06	3.732034e-06	1.280747e-09	2.585992e+01	8.966603e+01
2.720000e-06	3.767139e-06	1.282926e-09	2.610317e+01	9.007479e+01
2.730000e-06	3.801900e-06	1.285104e-09	2.634403e+01	9.046897e+01
2.740000e-06	3.836275e-06	1.287630e-09	2.658223e+01	9.084863e+01
2.750000e-06	3.870124e-06	1.290032e-09	2.681677e+01	9.121379e+01
2.760000e-06	3.903513e-06	1.295825e-09	2.704812e+01	9.156449e+01
2.770000e-06	3.936478e-06	1.304004e-09	2.727654e+01	9.190076e+01
2.780000e-06	3.969016e-06	1.312114e-09	2.750201e+01	9.222264e+01
2.790000e-06	4.001258e-06	1.317871e-09	2.772542e+01	9.253018e+01
2.800000e-06	4.033261e-06	1.323068e-09	2.794717e+01	9.282347e+01
2.810000e-06	4.065092e-06	1.326713e-09	2.816773e+01	9.310258e+01
2.820000e-06	4.096791e-06	1.329878e-09	2.838738e+01	9.336764e+01
2.830000e-06	4.128261e-06	1.331507e-09	2.860545e+01	9.361880e+01
2.840000e-06	4.159448e-06	1.332640e-09	2.882155e+01	9.385624e+01
2.850000e-06	4.190350e-06	1.335858e-09	2.903567e+01	9.408015e+01
2.860000e-06	4.220981e-06	1.340919e-09	2.924791e+01	9.429079e+01
2.870000e-06	4.251290e-06	1.347033e-09	2.945793e+01	9.448842e+01
2.880000e-06	4.281297e-06	1.351215e-09	2.966586e+01	9.467337e+01
2.890000e-06	4.311035e-06	1.354337e-09	2.987192e+01	9.484598e+01
2.900000e-06	4.340459e-06	1.356252e-09	3.007580e+01	9.500662e+01
