# Temperatura_=_-27.27
# Concentracion g/m^3_=_1620.0
# C_Vs_to_Am_M_A/Vsm_=_65563218390.804596
# pendiente_HvsI_1/m_=_3716.3
# ordenada_HvsI_A/m_=_1297.0
# frecuencia_Hz_=_135091.73698657364

Tiempo_(s)	Campo_(V.s)	Magnetizacion_(V.s)	Campo_(kA/m)	Magnetizacion_(A/m)
0.000000e+00	-5.524266e-06	-1.185415e-09	-3.837792e+01	-7.479982e+01
1.000000e-08	-5.524489e-06	-1.183147e-09	-3.837947e+01	-7.479393e+01
2.000000e-08	-5.524433e-06	-1.184662e-09	-3.837908e+01	-7.478618e+01
3.000000e-08	-5.524072e-06	-1.186686e-09	-3.837657e+01	-7.477658e+01
4.000000e-08	-5.523330e-06	-1.186034e-09	-3.837141e+01	-7.476518e+01
5.000000e-08	-5.522061e-06	-1.184983e-09	-3.836260e+01	-7.475198e+01
6.000000e-08	-5.520150e-06	-1.188979e-09	-3.834933e+01	-7.473703e+01
7.000000e-08	-5.517751e-06	-1.194280e-09	-3.833266e+01	-7.472035e+01
8.000000e-08	-5.514861e-06	-1.201257e-09	-3.831258e+01	-7.470198e+01
9.000000e-08	-5.511379e-06	-1.177256e-09	-3.828839e+01	-7.468195e+01
1.000000e-07	-5.507468e-06	-1.132692e-09	-3.826122e+01	-7.466029e+01
1.100000e-07	-5.503205e-06	-1.129220e-09	-3.823160e+01	-7.463706e+01
1.200000e-07	-5.498650e-06	-1.225394e-09	-3.819996e+01	-7.461230e+01
1.300000e-07	-5.493869e-06	-1.217392e-09	-3.816675e+01	-7.458608e+01
1.400000e-07	-5.488758e-06	-1.126029e-09	-3.813124e+01	-7.455846e+01
1.500000e-07	-5.483316e-06	-1.108150e-09	-3.809344e+01	-7.452951e+01
1.600000e-07	-5.477503e-06	-1.226068e-09	-3.805305e+01	-7.449932e+01
1.700000e-07	-5.471214e-06	-1.270953e-09	-3.800936e+01	-7.446799e+01
1.800000e-07	-5.464475e-06	-1.120469e-09	-3.796254e+01	-7.443561e+01
1.900000e-07	-5.457379e-06	-1.042109e-09	-3.791324e+01	-7.440230e+01
2.000000e-07	-5.450026e-06	-1.129941e-09	-3.786216e+01	-7.436819e+01
2.100000e-07	-5.442385e-06	-1.198190e-09	-3.780908e+01	-7.433341e+01
2.200000e-07	-5.434448e-06	-1.133287e-09	-3.775394e+01	-7.429811e+01
2.300000e-07	-5.426222e-06	-1.095685e-09	-3.769679e+01	-7.426244e+01
2.400000e-07	-5.417606e-06	-1.151765e-09	-3.763694e+01	-7.422656e+01
2.500000e-07	-5.408407e-06	-1.186829e-09	-3.757303e+01	-7.419065e+01
2.600000e-07	-5.398621e-06	-1.126243e-09	-3.750504e+01	-7.415487e+01
2.700000e-07	-5.388306e-06	-1.090011e-09	-3.743338e+01	-7.411940e+01
2.800000e-07	-5.377344e-06	-1.132770e-09	-3.735723e+01	-7.408444e+01
2.900000e-07	-5.365897e-06	-1.172119e-09	-3.727771e+01	-7.405017e+01
3.000000e-07	-5.354119e-06	-1.137431e-09	-3.719588e+01	-7.401676e+01
3.100000e-07	-5.341959e-06	-1.115581e-09	-3.711140e+01	-7.398441e+01
3.200000e-07	-5.329394e-06	-1.139721e-09	-3.702412e+01	-7.395329e+01
3.300000e-07	-5.316421e-06	-1.158271e-09	-3.693399e+01	-7.392356e+01
3.400000e-07	-5.303015e-06	-1.114362e-09	-3.684085e+01	-7.389540e+01
3.500000e-07	-5.289159e-06	-1.085039e-09	-3.674460e+01	-7.386895e+01
3.600000e-07	-5.274806e-06	-1.127199e-09	-3.664488e+01	-7.384436e+01
3.700000e-07	-5.260061e-06	-1.171322e-09	-3.654245e+01	-7.382173e+01
3.800000e-07	-5.244824e-06	-1.137782e-09	-3.643659e+01	-7.380118e+01
3.900000e-07	-5.228927e-06	-1.121080e-09	-3.632615e+01	-7.378280e+01
4.000000e-07	-5.212698e-06	-1.157137e-09	-3.621341e+01	-7.376663e+01
4.100000e-07	-5.196236e-06	-1.128285e-09	-3.609904e+01	-7.375274e+01
4.200000e-07	-5.179236e-06	-1.085448e-09	-3.598094e+01	-7.374112e+01
4.300000e-07	-5.161858e-06	-1.150298e-09	-3.586022e+01	-7.373178e+01
4.400000e-07	-5.144279e-06	-1.187223e-09	-3.573809e+01	-7.372467e+01
4.500000e-07	-5.126291e-06	-1.101137e-09	-3.561313e+01	-7.371973e+01
4.600000e-07	-5.107855e-06	-1.107348e-09	-3.548505e+01	-7.371687e+01
4.700000e-07	-5.089105e-06	-1.196490e-09	-3.535479e+01	-7.371597e+01
4.800000e-07	-5.070072e-06	-1.144836e-09	-3.522256e+01	-7.371688e+01
4.900000e-07	-5.050663e-06	-1.076411e-09	-3.508772e+01	-7.371943e+01
5.000000e-07	-5.031000e-06	-1.148254e-09	-3.495112e+01	-7.372342e+01
5.100000e-07	-5.011131e-06	-1.150016e-09	-3.481309e+01	-7.372862e+01
5.200000e-07	-4.990933e-06	-1.068162e-09	-3.467278e+01	-7.373478e+01
5.300000e-07	-4.970419e-06	-1.125193e-09	-3.453026e+01	-7.374164e+01
5.400000e-07	-4.949573e-06	-1.178774e-09	-3.438544e+01	-7.374890e+01
5.500000e-07	-4.928334e-06	-1.083129e-09	-3.423789e+01	-7.375625e+01
5.600000e-07	-4.906728e-06	-1.084466e-09	-3.408779e+01	-7.376337e+01
5.700000e-07	-4.884869e-06	-1.180835e-09	-3.393593e+01	-7.376994e+01
5.800000e-07	-4.862765e-06	-1.129238e-09	-3.378237e+01	-7.377561e+01
5.900000e-07	-4.840222e-06	-1.067356e-09	-3.362576e+01	-7.378004e+01
6.000000e-07	-4.817318e-06	-1.137871e-09	-3.346665e+01	-7.378288e+01
6.100000e-07	-4.794172e-06	-1.131062e-09	-3.330584e+01	-7.378379e+01
6.200000e-07	-4.770734e-06	-1.056670e-09	-3.314302e+01	-7.378243e+01
6.300000e-07	-4.747023e-06	-1.099798e-09	-3.297830e+01	-7.377848e+01
6.400000e-07	-4.722968e-06	-1.142356e-09	-3.281118e+01	-7.377161e+01
6.500000e-07	-4.698596e-06	-1.095240e-09	-3.264186e+01	-7.376154e+01
6.600000e-07	-4.673928e-06	-1.103767e-09	-3.247049e+01	-7.374799e+01
6.700000e-07	-4.648793e-06	-1.140308e-09	-3.229588e+01	-7.373070e+01
6.800000e-07	-4.623252e-06	-1.099891e-09	-3.211844e+01	-7.370946e+01
6.900000e-07	-4.597233e-06	-1.078471e-09	-3.193768e+01	-7.368407e+01
7.000000e-07	-4.570630e-06	-1.110025e-09	-3.175287e+01	-7.365435e+01
7.100000e-07	-4.543531e-06	-1.098015e-09	-3.156460e+01	-7.362020e+01
7.200000e-07	-4.516107e-06	-1.082185e-09	-3.137408e+01	-7.358152e+01
7.300000e-07	-4.488461e-06	-1.114305e-09	-3.118202e+01	-7.353825e+01
7.400000e-07	-4.460584e-06	-1.120640e-09	-3.098836e+01	-7.349038e+01
7.500000e-07	-4.432512e-06	-1.093323e-09	-3.079334e+01	-7.343795e+01
7.600000e-07	-4.404229e-06	-1.094574e-09	-3.059685e+01	-7.338101e+01
7.700000e-07	-4.375690e-06	-1.103060e-09	-3.039858e+01	-7.331968e+01
7.800000e-07	-4.346790e-06	-1.088762e-09	-3.019782e+01	-7.325410e+01
7.900000e-07	-4.317509e-06	-1.090071e-09	-2.999439e+01	-7.318446e+01
8.000000e-07	-4.287900e-06	-1.100993e-09	-2.978869e+01	-7.311097e+01
8.100000e-07	-4.258052e-06	-1.091952e-09	-2.958134e+01	-7.303391e+01
8.200000e-07	-4.228015e-06	-1.087727e-09	-2.937267e+01	-7.295355e+01
8.300000e-07	-4.197680e-06	-1.096071e-09	-2.916193e+01	-7.287021e+01
8.400000e-07	-4.167008e-06	-1.089774e-09	-2.894884e+01	-7.278424e+01
8.500000e-07	-4.136031e-06	-1.083445e-09	-2.873364e+01	-7.269599e+01
8.600000e-07	-4.104772e-06	-1.097827e-09	-2.851647e+01	-7.260585e+01
8.700000e-07	-4.073271e-06	-1.103656e-09	-2.829764e+01	-7.251422e+01
8.800000e-07	-4.041572e-06	-1.091794e-09	-2.807742e+01	-7.242150e+01
8.900000e-07	-4.009684e-06	-1.092563e-09	-2.785588e+01	-7.232810e+01
9.000000e-07	-3.977569e-06	-1.092954e-09	-2.763278e+01	-7.223442e+01
9.100000e-07	-3.945198e-06	-1.078664e-09	-2.740790e+01	-7.214087e+01
9.200000e-07	-3.912558e-06	-1.076654e-09	-2.718114e+01	-7.204784e+01
9.300000e-07	-3.879581e-06	-1.084735e-09	-2.695204e+01	-7.195569e+01
9.400000e-07	-3.846106e-06	-1.078464e-09	-2.671949e+01	-7.186480e+01
9.500000e-07	-3.812215e-06	-1.075232e-09	-2.648404e+01	-7.177547e+01
9.600000e-07	-3.777961e-06	-1.083072e-09	-2.624607e+01	-7.168802e+01
9.700000e-07	-3.743282e-06	-1.077739e-09	-2.600515e+01	-7.160271e+01
9.800000e-07	-3.708217e-06	-1.064835e-09	-2.576155e+01	-7.151976e+01
9.900000e-07	-3.672887e-06	-1.067602e-09	-2.551610e+01	-7.143935e+01
1.000000e-06	-3.637365e-06	-1.070816e-09	-2.526933e+01	-7.136163e+01
1.010000e-06	-3.601642e-06	-1.062514e-09	-2.502116e+01	-7.128668e+01
1.020000e-06	-3.565779e-06	-1.061610e-09	-2.477201e+01	-7.121455e+01
1.030000e-06	-3.529783e-06	-1.067452e-09	-2.452194e+01	-7.114522e+01
1.040000e-06	-3.493599e-06	-1.062196e-09	-2.427057e+01	-7.107864e+01
1.050000e-06	-3.457221e-06	-1.057889e-09	-2.401784e+01	-7.101468e+01
1.060000e-06	-3.420610e-06	-1.064892e-09	-2.376350e+01	-7.095316e+01
1.070000e-06	-3.383722e-06	-1.064224e-09	-2.350723e+01	-7.089387e+01
1.080000e-06	-3.346557e-06	-1.055512e-09	-2.324904e+01	-7.083653e+01
1.090000e-06	-3.309158e-06	-1.052123e-09	-2.298923e+01	-7.078081e+01
1.100000e-06	-3.271454e-06	-1.048057e-09	-2.272729e+01	-7.072634e+01
1.110000e-06	-3.233507e-06	-1.039160e-09	-2.246367e+01	-7.067269e+01
1.120000e-06	-3.195336e-06	-1.036747e-09	-2.219848e+01	-7.061939e+01
1.130000e-06	-3.156908e-06	-1.036644e-09	-2.193152e+01	-7.056596e+01
1.140000e-06	-3.118233e-06	-1.031692e-09	-2.166284e+01	-7.051185e+01
1.150000e-06	-3.079395e-06	-1.029562e-09	-2.139303e+01	-7.045649e+01
1.160000e-06	-3.040432e-06	-1.033959e-09	-2.112235e+01	-7.039931e+01
1.170000e-06	-3.001246e-06	-1.033097e-09	-2.085011e+01	-7.033969e+01
1.180000e-06	-2.961876e-06	-1.027291e-09	-2.057661e+01	-7.027700e+01
1.190000e-06	-2.922320e-06	-1.025005e-09	-2.030180e+01	-7.021063e+01
1.200000e-06	-2.882651e-06	-1.022586e-09	-2.002622e+01	-7.013993e+01
1.210000e-06	-2.842803e-06	-1.017085e-09	-1.974938e+01	-7.006429e+01
1.220000e-06	-2.802776e-06	-1.015045e-09	-1.947131e+01	-6.998308e+01
1.230000e-06	-2.762627e-06	-1.013436e-09	-1.919239e+01	-6.989569e+01
1.240000e-06	-2.722315e-06	-1.007138e-09	-1.891234e+01	-6.980155e+01
1.250000e-06	-2.681800e-06	-1.003916e-09	-1.863087e+01	-6.970010e+01
1.260000e-06	-2.641120e-06	-1.006223e-09	-1.834827e+01	-6.959081e+01
1.270000e-06	-2.600195e-06	-1.008107e-09	-1.806395e+01	-6.947319e+01
1.280000e-06	-2.558963e-06	-1.004015e-09	-1.777751e+01	-6.934679e+01
1.290000e-06	-2.517541e-06	-9.997717e-10	-1.748974e+01	-6.921119e+01
1.300000e-06	-2.475823e-06	-9.952462e-10	-1.719992e+01	-6.906604e+01
1.310000e-06	-2.433750e-06	-9.858509e-10	-1.690763e+01	-6.891101e+01
1.320000e-06	-2.391386e-06	-9.792253e-10	-1.661332e+01	-6.874584e+01
1.330000e-06	-2.348729e-06	-9.780947e-10	-1.631698e+01	-6.857031e+01
1.340000e-06	-2.305810e-06	-9.764644e-10	-1.601881e+01	-6.838426e+01
1.350000e-06	-2.262699e-06	-9.765050e-10	-1.571932e+01	-6.818757e+01
1.360000e-06	-2.219448e-06	-9.791547e-10	-1.541884e+01	-6.798018e+01
1.370000e-06	-2.176095e-06	-9.782041e-10	-1.511767e+01	-6.776206e+01
1.380000e-06	-2.132554e-06	-9.737477e-10	-1.481518e+01	-6.753325e+01
1.390000e-06	-2.088829e-06	-9.682003e-10	-1.451142e+01	-6.729382e+01
1.400000e-06	-2.045010e-06	-9.608952e-10	-1.420700e+01	-6.704387e+01
1.410000e-06	-2.001040e-06	-9.518094e-10	-1.390153e+01	-6.678354e+01
1.420000e-06	-1.956973e-06	-9.439784e-10	-1.359539e+01	-6.651301e+01
1.430000e-06	-1.912824e-06	-9.393392e-10	-1.328868e+01	-6.623247e+01
1.440000e-06	-1.868601e-06	-9.363666e-10	-1.298145e+01	-6.594213e+01
1.450000e-06	-1.824394e-06	-9.353780e-10	-1.267435e+01	-6.564221e+01
1.460000e-06	-1.780076e-06	-9.368119e-10	-1.236646e+01	-6.533292e+01
1.470000e-06	-1.735580e-06	-9.358924e-10	-1.205734e+01	-6.501450e+01
1.480000e-06	-1.690998e-06	-9.305519e-10	-1.174762e+01	-6.468716e+01
1.490000e-06	-1.646298e-06	-9.244236e-10	-1.143708e+01	-6.435107e+01
1.500000e-06	-1.601411e-06	-9.175628e-10	-1.112525e+01	-6.400641e+01
1.510000e-06	-1.556421e-06	-9.090592e-10	-1.081270e+01	-6.365331e+01
1.520000e-06	-1.511228e-06	-9.020387e-10	-1.049873e+01	-6.329186e+01
1.530000e-06	-1.465912e-06	-8.962841e-10	-1.018391e+01	-6.292210e+01
1.540000e-06	-1.420563e-06	-8.912132e-10	-9.868868e+00	-6.254403e+01
1.550000e-06	-1.375040e-06	-8.875825e-10	-9.552614e+00	-6.215757e+01
1.560000e-06	-1.329503e-06	-8.817348e-10	-9.236263e+00	-6.176259e+01
1.570000e-06	-1.283910e-06	-8.703422e-10	-8.919517e+00	-6.135887e+01
1.580000e-06	-1.238269e-06	-8.584976e-10	-8.602440e+00	-6.094615e+01
1.590000e-06	-1.192608e-06	-8.500800e-10	-8.285233e+00	-6.052406e+01
1.600000e-06	-1.146807e-06	-8.426897e-10	-7.967040e+00	-6.009215e+01
1.610000e-06	-1.100879e-06	-8.346833e-10	-7.647972e+00	-5.964990e+01
1.620000e-06	-1.054813e-06	-8.268071e-10	-7.327945e+00	-5.919669e+01
1.630000e-06	-1.008705e-06	-8.189932e-10	-7.007626e+00	-5.873184e+01
1.640000e-06	-9.625595e-07	-8.105345e-10	-6.687048e+00	-5.825456e+01
1.650000e-06	-9.162986e-07	-8.047916e-10	-6.365666e+00	-5.776399e+01
1.660000e-06	-8.700630e-07	-8.003010e-10	-6.044461e+00	-5.725919e+01
1.670000e-06	-8.237638e-07	-7.950351e-10	-5.722813e+00	-5.673914e+01
1.680000e-06	-7.774096e-07	-7.881677e-10	-5.400783e+00	-5.620274e+01
1.690000e-06	-7.309641e-07	-7.798832e-10	-5.078119e+00	-5.564886e+01
1.700000e-06	-6.843901e-07	-7.683088e-10	-4.754562e+00	-5.507627e+01
1.710000e-06	-6.378547e-07	-7.524698e-10	-4.431274e+00	-5.448371e+01
1.720000e-06	-5.912718e-07	-7.363051e-10	-4.107655e+00	-5.386989e+01
1.730000e-06	-5.446158e-07	-7.236464e-10	-3.783529e+00	-5.323344e+01
1.740000e-06	-4.979155e-07	-7.141996e-10	-3.459095e+00	-5.257303e+01
1.750000e-06	-4.512014e-07	-7.066170e-10	-3.134565e+00	-5.188727e+01
1.760000e-06	-4.045152e-07	-6.992498e-10	-2.810229e+00	-5.117478e+01
1.770000e-06	-3.577713e-07	-6.874023e-10	-2.485491e+00	-5.043421e+01
1.780000e-06	-3.109871e-07	-6.726340e-10	-2.160475e+00	-4.966419e+01
1.790000e-06	-2.642476e-07	-6.573589e-10	-1.835768e+00	-4.886342e+01
1.800000e-06	-2.174749e-07	-6.440502e-10	-1.510831e+00	-4.803064e+01
1.810000e-06	-1.706908e-07	-6.324117e-10	-1.185815e+00	-4.716463e+01
1.820000e-06	-1.239020e-07	-6.208602e-10	-8.607661e-01	-4.626426e+01
1.830000e-06	-7.701964e-08	-6.094227e-10	-5.350672e-01	-4.532846e+01
1.840000e-06	-3.015211e-08	-5.954574e-10	-2.094713e-01	-4.435628e+01
1.850000e-06	1.673441e-08	-5.787759e-10	1.162565e-01	-4.334684e+01
1.860000e-06	6.367059e-08	-5.627256e-10	4.423293e-01	-4.229942e+01
1.870000e-06	1.105104e-07	-5.480428e-10	7.677327e-01	-4.121338e+01
1.880000e-06	1.572692e-07	-5.333598e-10	1.092573e+00	-4.008824e+01
1.890000e-06	2.040377e-07	-5.183436e-10	1.417481e+00	-3.892365e+01
1.900000e-06	2.508400e-07	-5.010676e-10	1.742624e+00	-3.771943e+01
1.910000e-06	2.975821e-07	-4.814282e-10	2.067348e+00	-3.647552e+01
1.920000e-06	3.442618e-07	-4.607172e-10	2.391639e+00	-3.519205e+01
1.930000e-06	3.909526e-07	-4.404977e-10	2.716007e+00	-3.386931e+01
1.940000e-06	4.376299e-07	-4.215653e-10	3.040281e+00	-3.250775e+01
1.950000e-06	4.842915e-07	-4.032390e-10	3.364447e+00	-3.110800e+01
1.960000e-06	5.309865e-07	-3.848498e-10	3.688844e+00	-2.967085e+01
1.970000e-06	5.777147e-07	-3.653969e-10	4.013472e+00	-2.819726e+01
1.980000e-06	6.243095e-07	-3.451749e-10	4.337173e+00	-2.668838e+01
1.990000e-06	6.707448e-07	-3.239893e-10	4.659766e+00	-2.514548e+01
2.000000e-06	7.170847e-07	-3.001279e-10	4.981697e+00	-2.357004e+01
2.010000e-06	7.633661e-07	-2.744185e-10	5.303221e+00	-2.196366e+01
2.020000e-06	8.097193e-07	-2.493156e-10	5.625244e+00	-2.032810e+01
2.030000e-06	8.559989e-07	-2.242511e-10	5.946755e+00	-1.866524e+01
2.040000e-06	9.021366e-07	-2.000023e-10	6.267280e+00	-1.697713e+01
2.050000e-06	9.482785e-07	-1.762313e-10	6.587835e+00	-1.526589e+01
2.060000e-06	9.944025e-07	-1.538960e-10	6.908266e+00	-1.353379e+01
2.070000e-06	1.040481e-06	-1.322147e-10	7.228384e+00	-1.178317e+01
2.080000e-06	1.086438e-06	-1.094741e-10	7.547647e+00	-1.001647e+01
2.090000e-06	1.132308e-06	-9.051501e-11	7.866318e+00	-8.236186e+00
2.100000e-06	1.178100e-06	-6.966510e-11	8.184437e+00	-6.444886e+00
2.110000e-06	1.223728e-06	-4.685371e-11	8.501428e+00	-4.645172e+00
2.120000e-06	1.269320e-06	-1.916296e-11	8.818160e+00	-2.839678e+00
2.130000e-06	1.314830e-06	1.205680e-11	9.134324e+00	-1.031052e+00
2.140000e-06	1.360229e-06	4.360176e-11	9.449719e+00	7.780607e-01
2.150000e-06	1.405517e-06	7.022423e-11	9.764342e+00	2.585025e+00
2.160000e-06	1.450695e-06	8.967254e-11	1.007820e+01	4.387239e+00
2.170000e-06	1.495877e-06	1.055311e-10	1.039208e+01	6.182139e+00
2.180000e-06	1.540964e-06	1.215541e-10	1.070531e+01	7.967222e+00
2.190000e-06	1.585880e-06	1.439116e-10	1.101735e+01	9.740051e+00
2.200000e-06	1.630664e-06	1.743923e-10	1.132847e+01	1.149827e+01
2.210000e-06	1.675327e-06	2.088305e-10	1.163875e+01	1.323962e+01
2.220000e-06	1.719861e-06	2.437379e-10	1.194814e+01	1.496194e+01
2.230000e-06	1.764206e-06	2.732425e-10	1.225621e+01	1.666318e+01
2.240000e-06	1.808376e-06	2.926617e-10	1.256306e+01	1.834143e+01
2.250000e-06	1.852466e-06	3.042434e-10	1.286937e+01	1.999488e+01
2.260000e-06	1.896572e-06	3.140249e-10	1.317577e+01	2.162188e+01
2.270000e-06	1.940629e-06	3.280170e-10	1.348184e+01	2.322092e+01
2.280000e-06	1.984573e-06	3.462381e-10	1.378713e+01	2.479062e+01
2.290000e-06	2.028422e-06	3.721503e-10	1.409176e+01	2.632978e+01
2.300000e-06	2.072209e-06	4.016590e-10	1.439595e+01	2.783731e+01
2.310000e-06	2.115948e-06	4.321400e-10	1.469981e+01	2.931230e+01
2.320000e-06	2.159584e-06	4.565953e-10	1.500296e+01	3.075400e+01
2.330000e-06	2.203120e-06	4.726966e-10	1.530541e+01	3.216179e+01
2.340000e-06	2.246510e-06	4.812374e-10	1.560685e+01	3.353520e+01
2.350000e-06	2.289704e-06	4.886069e-10	1.590692e+01	3.487391e+01
2.360000e-06	2.332678e-06	4.995569e-10	1.620547e+01	3.617775e+01
2.370000e-06	2.375420e-06	5.176543e-10	1.650240e+01	3.744667e+01
2.380000e-06	2.417971e-06	5.412625e-10	1.679802e+01	3.868075e+01
2.390000e-06	2.460288e-06	5.680134e-10	1.709200e+01	3.988020e+01
2.400000e-06	2.502204e-06	5.903953e-10	1.738319e+01	4.104533e+01
2.410000e-06	2.543655e-06	6.047872e-10	1.767116e+01	4.217656e+01
2.420000e-06	2.584821e-06	6.146094e-10	1.795715e+01	4.327441e+01
2.430000e-06	2.625778e-06	6.223780e-10	1.824168e+01	4.433949e+01
2.440000e-06	2.666430e-06	6.324334e-10	1.852410e+01	4.537247e+01
2.450000e-06	2.706808e-06	6.489516e-10	1.880461e+01	4.637410e+01
2.460000e-06	2.747034e-06	6.694038e-10	1.908406e+01	4.734518e+01
2.470000e-06	2.787087e-06	6.933480e-10	1.936232e+01	4.828656e+01
2.480000e-06	2.826993e-06	7.118128e-10	1.963955e+01	4.919913e+01
2.490000e-06	2.866857e-06	7.245317e-10	1.991649e+01	5.008380e+01
2.500000e-06	2.906645e-06	7.318406e-10	2.019290e+01	5.094151e+01
2.510000e-06	2.946316e-06	7.358643e-10	2.046851e+01	5.177317e+01
2.520000e-06	2.985734e-06	7.468824e-10	2.074235e+01	5.257975e+01
2.530000e-06	3.024812e-06	7.601823e-10	2.101383e+01	5.336215e+01
2.540000e-06	3.063707e-06	7.804387e-10	2.128404e+01	5.412130e+01
2.550000e-06	3.102438e-06	7.988692e-10	2.155311e+01	5.485809e+01
2.560000e-06	3.140830e-06	8.108982e-10	2.181982e+01	5.557336e+01
2.570000e-06	3.179014e-06	8.161013e-10	2.208509e+01	5.626794e+01
2.580000e-06	3.217146e-06	8.183781e-10	2.235000e+01	5.694261e+01
2.590000e-06	3.255133e-06	8.195113e-10	2.261390e+01	5.759810e+01
2.600000e-06	3.292882e-06	8.259885e-10	2.287615e+01	5.823511e+01
2.610000e-06	3.330346e-06	8.389416e-10	2.313642e+01	5.885426e+01
2.620000e-06	3.367471e-06	8.568356e-10	2.339433e+01	5.945615e+01
2.630000e-06	3.404374e-06	8.737178e-10	2.365071e+01	6.004129e+01
2.640000e-06	3.441054e-06	8.829363e-10	2.390553e+01	6.061017e+01
2.650000e-06	3.477394e-06	8.882723e-10	2.415798e+01	6.116320e+01
2.660000e-06	3.513563e-06	8.904340e-10	2.440926e+01	6.170076e+01
2.670000e-06	3.549584e-06	8.913592e-10	2.465950e+01	6.222316e+01
2.680000e-06	3.585490e-06	8.969670e-10	2.490895e+01	6.273068e+01
2.690000e-06	3.621307e-06	9.067242e-10	2.515777e+01	6.322353e+01
2.700000e-06	3.657009e-06	9.190442e-10	2.540580e+01	6.370190e+01
2.710000e-06	3.692560e-06	9.276294e-10	2.565278e+01	6.416593e+01
2.720000e-06	3.727792e-06	9.317851e-10	2.589754e+01	6.461575e+01
2.730000e-06	3.762746e-06	9.356652e-10	2.614037e+01	6.505142e+01
2.740000e-06	3.797378e-06	9.401834e-10	2.638096e+01	6.547302e+01
2.750000e-06	3.831555e-06	9.456495e-10	2.661840e+01	6.588058e+01
2.760000e-06	3.865208e-06	9.504123e-10	2.685219e+01	6.627413e+01
2.770000e-06	3.898403e-06	9.573780e-10	2.708280e+01	6.665368e+01
2.780000e-06	3.931170e-06	9.637030e-10	2.731044e+01	6.701926e+01
2.790000e-06	3.963530e-06	9.690022e-10	2.753525e+01	6.737087e+01
2.800000e-06	3.995661e-06	9.725623e-10	2.775847e+01	6.770854e+01
2.810000e-06	4.027620e-06	9.756335e-10	2.798049e+01	6.803231e+01
2.820000e-06	4.059384e-06	9.793676e-10	2.820116e+01	6.834222e+01
2.830000e-06	4.090981e-06	9.865170e-10	2.842067e+01	6.863835e+01
2.840000e-06	4.122346e-06	9.937353e-10	2.863857e+01	6.892077e+01
2.850000e-06	4.153364e-06	9.963996e-10	2.885405e+01	6.918961e+01
2.860000e-06	4.184087e-06	9.966641e-10	2.906749e+01	6.944501e+01
2.870000e-06	4.214480e-06	9.989985e-10	2.927864e+01	6.968716e+01
2.880000e-06	4.244620e-06	1.002438e-09	2.948803e+01	6.991625e+01
2.890000e-06	4.274605e-06	1.005617e-09	2.969633e+01	7.013253e+01
2.900000e-06	4.304346e-06	1.008321e-09	2.990295e+01	7.033628e+01
