# Temperatura_=_-9.9
# Concentracion g/m^3_=_1620.0
# C_Vs_to_Am_M_A/Vsm_=_65563218390.804596
# pendiente_HvsI_1/m_=_3716.3
# ordenada_HvsI_A/m_=_1297.0
# frecuencia_Hz_=_135106.61122188735

Tiempo_(s)	Campo_(V.s)	Magnetizacion_(V.s)	Campo_(kA/m)	Magnetizacion_(A/m)
0.000000e+00	-5.514222e-06	-1.366282e-09	-3.837392e+01	-8.860859e+01
1.000000e-08	-5.514421e-06	-1.365665e-09	-3.837530e+01	-8.854688e+01
2.000000e-08	-5.514431e-06	-1.367410e-09	-3.837537e+01	-8.848636e+01
3.000000e-08	-5.514185e-06	-1.368674e-09	-3.837366e+01	-8.842690e+01
4.000000e-08	-5.513452e-06	-1.367555e-09	-3.836856e+01	-8.836838e+01
5.000000e-08	-5.512112e-06	-1.364288e-09	-3.835924e+01	-8.831062e+01
6.000000e-08	-5.510174e-06	-1.358536e-09	-3.834575e+01	-8.825343e+01
7.000000e-08	-5.507681e-06	-1.358167e-09	-3.832840e+01	-8.819659e+01
8.000000e-08	-5.504687e-06	-1.354031e-09	-3.830756e+01	-8.813988e+01
9.000000e-08	-5.501208e-06	-1.352296e-09	-3.828335e+01	-8.808305e+01
1.000000e-07	-5.497325e-06	-1.398856e-09	-3.825633e+01	-8.802582e+01
1.100000e-07	-5.493054e-06	-1.420558e-09	-3.822661e+01	-8.796794e+01
1.200000e-07	-5.488453e-06	-1.331028e-09	-3.819459e+01	-8.790914e+01
1.300000e-07	-5.483688e-06	-1.276592e-09	-3.816143e+01	-8.784912e+01
1.400000e-07	-5.478662e-06	-1.305249e-09	-3.812645e+01	-8.778763e+01
1.500000e-07	-5.473170e-06	-1.385634e-09	-3.808823e+01	-8.772440e+01
1.600000e-07	-5.467250e-06	-1.357101e-09	-3.804703e+01	-8.765917e+01
1.700000e-07	-5.461091e-06	-1.312699e-09	-3.800417e+01	-8.759170e+01
1.800000e-07	-5.454589e-06	-1.342580e-09	-3.795893e+01	-8.752177e+01
1.900000e-07	-5.447511e-06	-1.365935e-09	-3.790967e+01	-8.744916e+01
2.000000e-07	-5.440044e-06	-1.347375e-09	-3.785771e+01	-8.737369e+01
2.100000e-07	-5.432367e-06	-1.300917e-09	-3.780428e+01	-8.729521e+01
2.200000e-07	-5.424461e-06	-1.326246e-09	-3.774926e+01	-8.721357e+01
2.300000e-07	-5.416353e-06	-1.350965e-09	-3.769284e+01	-8.712868e+01
2.400000e-07	-5.407933e-06	-1.353569e-09	-3.763424e+01	-8.704046e+01
2.500000e-07	-5.398910e-06	-1.311604e-09	-3.757145e+01	-8.694885e+01
2.600000e-07	-5.389068e-06	-1.304599e-09	-3.750296e+01	-8.685385e+01
2.700000e-07	-5.378489e-06	-1.300018e-09	-3.742934e+01	-8.675547e+01
2.800000e-07	-5.367523e-06	-1.304883e-09	-3.735302e+01	-8.665375e+01
2.900000e-07	-5.356172e-06	-1.292010e-09	-3.727404e+01	-8.654877e+01
3.000000e-07	-5.344326e-06	-1.298677e-09	-3.719160e+01	-8.644063e+01
3.100000e-07	-5.332148e-06	-1.296894e-09	-3.710685e+01	-8.632947e+01
3.200000e-07	-5.319601e-06	-1.296476e-09	-3.701953e+01	-8.621543e+01
3.300000e-07	-5.306558e-06	-1.275467e-09	-3.692877e+01	-8.609870e+01
3.400000e-07	-5.293093e-06	-1.266032e-09	-3.683506e+01	-8.597947e+01
3.500000e-07	-5.279330e-06	-1.287140e-09	-3.673928e+01	-8.585795e+01
3.600000e-07	-5.265176e-06	-1.287971e-09	-3.664079e+01	-8.573439e+01
3.700000e-07	-5.250557e-06	-1.277841e-09	-3.653905e+01	-8.560902e+01
3.800000e-07	-5.235459e-06	-1.301482e-09	-3.643398e+01	-8.548209e+01
3.900000e-07	-5.219691e-06	-1.313992e-09	-3.632425e+01	-8.535385e+01
4.000000e-07	-5.203373e-06	-1.256856e-09	-3.621069e+01	-8.522457e+01
4.100000e-07	-5.186787e-06	-1.258481e-09	-3.609527e+01	-8.509450e+01
4.200000e-07	-5.169892e-06	-1.310082e-09	-3.597770e+01	-8.496388e+01
4.300000e-07	-5.152549e-06	-1.285140e-09	-3.585700e+01	-8.483295e+01
4.400000e-07	-5.134905e-06	-1.235667e-09	-3.573422e+01	-8.470195e+01
4.500000e-07	-5.117105e-06	-1.303187e-09	-3.561035e+01	-8.457109e+01
4.600000e-07	-5.098848e-06	-1.316289e-09	-3.548330e+01	-8.444057e+01
4.700000e-07	-5.080032e-06	-1.234934e-09	-3.535235e+01	-8.431055e+01
4.800000e-07	-5.060946e-06	-1.244878e-09	-3.521953e+01	-8.418121e+01
4.900000e-07	-5.041616e-06	-1.311462e-09	-3.508502e+01	-8.405265e+01
5.000000e-07	-5.021954e-06	-1.245574e-09	-3.494819e+01	-8.392500e+01
5.100000e-07	-5.002052e-06	-1.213503e-09	-3.480969e+01	-8.379832e+01
5.200000e-07	-4.981892e-06	-1.282701e-09	-3.466939e+01	-8.367267e+01
5.300000e-07	-4.961392e-06	-1.271987e-09	-3.452673e+01	-8.354806e+01
5.400000e-07	-4.940556e-06	-1.213929e-09	-3.438173e+01	-8.342449e+01
5.500000e-07	-4.919437e-06	-1.270171e-09	-3.423476e+01	-8.330192e+01
5.600000e-07	-4.897996e-06	-1.286932e-09	-3.408555e+01	-8.318029e+01
5.700000e-07	-4.876181e-06	-1.222570e-09	-3.393374e+01	-8.305950e+01
5.800000e-07	-4.854110e-06	-1.240403e-09	-3.378014e+01	-8.293944e+01
5.900000e-07	-4.831728e-06	-1.282350e-09	-3.362439e+01	-8.281997e+01
6.000000e-07	-4.808833e-06	-1.226912e-09	-3.346506e+01	-8.270092e+01
6.100000e-07	-4.785602e-06	-1.210876e-09	-3.330339e+01	-8.258212e+01
6.200000e-07	-4.762216e-06	-1.254263e-09	-3.314065e+01	-8.246336e+01
6.300000e-07	-4.738563e-06	-1.233213e-09	-3.297605e+01	-8.234443e+01
6.400000e-07	-4.714621e-06	-1.211362e-09	-3.280943e+01	-8.222511e+01
6.500000e-07	-4.690440e-06	-1.248310e-09	-3.264115e+01	-8.210516e+01
6.600000e-07	-4.665913e-06	-1.245541e-09	-3.247047e+01	-8.198434e+01
6.700000e-07	-4.640940e-06	-1.212113e-09	-3.229668e+01	-8.186241e+01
6.800000e-07	-4.615297e-06	-1.228312e-09	-3.211822e+01	-8.173913e+01
6.900000e-07	-4.588977e-06	-1.232993e-09	-3.193506e+01	-8.161426e+01
7.000000e-07	-4.562184e-06	-1.207685e-09	-3.174861e+01	-8.148758e+01
7.100000e-07	-4.534948e-06	-1.214535e-09	-3.155907e+01	-8.135885e+01
7.200000e-07	-4.507443e-06	-1.234870e-09	-3.136766e+01	-8.122786e+01
7.300000e-07	-4.479788e-06	-1.224359e-09	-3.117521e+01	-8.109443e+01
7.400000e-07	-4.451955e-06	-1.225614e-09	-3.098152e+01	-8.095837e+01
7.500000e-07	-4.423942e-06	-1.227598e-09	-3.078657e+01	-8.081952e+01
7.600000e-07	-4.395749e-06	-1.212308e-09	-3.059038e+01	-8.067774e+01
7.700000e-07	-4.367298e-06	-1.203362e-09	-3.039238e+01	-8.053291e+01
7.800000e-07	-4.338403e-06	-1.214426e-09	-3.019130e+01	-8.038494e+01
7.900000e-07	-4.309103e-06	-1.207294e-09	-2.998740e+01	-8.023374e+01
8.000000e-07	-4.279532e-06	-1.202456e-09	-2.978161e+01	-8.007928e+01
8.100000e-07	-4.249723e-06	-1.209206e-09	-2.957416e+01	-7.992151e+01
8.200000e-07	-4.219731e-06	-1.205579e-09	-2.936545e+01	-7.976045e+01
8.300000e-07	-4.189484e-06	-1.191166e-09	-2.915496e+01	-7.959609e+01
8.400000e-07	-4.158928e-06	-1.193422e-09	-2.894232e+01	-7.942848e+01
8.500000e-07	-4.128013e-06	-1.196218e-09	-2.872718e+01	-7.925767e+01
8.600000e-07	-4.096768e-06	-1.192438e-09	-2.850974e+01	-7.908373e+01
8.700000e-07	-4.065329e-06	-1.192747e-09	-2.829096e+01	-7.890676e+01
8.800000e-07	-4.033675e-06	-1.195249e-09	-2.807067e+01	-7.872684e+01
8.900000e-07	-4.001808e-06	-1.185861e-09	-2.784890e+01	-7.854410e+01
9.000000e-07	-3.969771e-06	-1.176548e-09	-2.762596e+01	-7.835864e+01
9.100000e-07	-3.937548e-06	-1.175022e-09	-2.740171e+01	-7.817058e+01
9.200000e-07	-3.905071e-06	-1.167361e-09	-2.717571e+01	-7.798005e+01
9.300000e-07	-3.872214e-06	-1.158365e-09	-2.694705e+01	-7.778716e+01
9.400000e-07	-3.838979e-06	-1.161276e-09	-2.671576e+01	-7.759204e+01
9.500000e-07	-3.805242e-06	-1.163370e-09	-2.648099e+01	-7.739478e+01
9.600000e-07	-3.770940e-06	-1.153364e-09	-2.624228e+01	-7.719548e+01
9.700000e-07	-3.736140e-06	-1.146492e-09	-2.600010e+01	-7.699422e+01
9.800000e-07	-3.700962e-06	-1.143305e-09	-2.575530e+01	-7.679107e+01
9.900000e-07	-3.665600e-06	-1.137938e-09	-2.550921e+01	-7.658607e+01
1.000000e-06	-3.630070e-06	-1.133338e-09	-2.526195e+01	-7.637926e+01
1.010000e-06	-3.594397e-06	-1.134506e-09	-2.501370e+01	-7.617062e+01
1.020000e-06	-3.558588e-06	-1.130941e-09	-2.476450e+01	-7.596014e+01
1.030000e-06	-3.522600e-06	-1.123766e-09	-2.451406e+01	-7.574778e+01
1.040000e-06	-3.486443e-06	-1.119542e-09	-2.426244e+01	-7.553345e+01
1.050000e-06	-3.450122e-06	-1.117554e-09	-2.400968e+01	-7.531706e+01
1.060000e-06	-3.413600e-06	-1.109881e-09	-2.375552e+01	-7.509847e+01
1.070000e-06	-3.376819e-06	-1.104649e-09	-2.349955e+01	-7.487754e+01
1.080000e-06	-3.339657e-06	-1.100321e-09	-2.324094e+01	-7.465409e+01
1.090000e-06	-3.302176e-06	-1.093172e-09	-2.298011e+01	-7.442789e+01
1.100000e-06	-3.264557e-06	-1.084051e-09	-2.271832e+01	-7.419874e+01
1.110000e-06	-3.226736e-06	-1.079886e-09	-2.245512e+01	-7.396637e+01
1.120000e-06	-3.188657e-06	-1.073624e-09	-2.219012e+01	-7.373052e+01
1.130000e-06	-3.150293e-06	-1.065022e-09	-2.192315e+01	-7.349090e+01
1.140000e-06	-3.111724e-06	-1.059021e-09	-2.165474e+01	-7.324721e+01
1.150000e-06	-3.072924e-06	-1.059052e-09	-2.138473e+01	-7.299913e+01
1.160000e-06	-3.033921e-06	-1.059212e-09	-2.111330e+01	-7.274636e+01
1.170000e-06	-2.994816e-06	-1.057525e-09	-2.084116e+01	-7.248855e+01
1.180000e-06	-2.955527e-06	-1.053405e-09	-2.056775e+01	-7.222540e+01
1.190000e-06	-2.916093e-06	-1.047092e-09	-2.029333e+01	-7.195657e+01
1.200000e-06	-2.876514e-06	-1.039471e-09	-2.001789e+01	-7.168176e+01
1.210000e-06	-2.836728e-06	-1.031743e-09	-1.974102e+01	-7.140065e+01
1.220000e-06	-2.796747e-06	-1.024718e-09	-1.946279e+01	-7.111295e+01
1.230000e-06	-2.756675e-06	-1.020035e-09	-1.918392e+01	-7.081839e+01
1.240000e-06	-2.716500e-06	-1.015923e-09	-1.890435e+01	-7.051670e+01
1.250000e-06	-2.676151e-06	-1.011351e-09	-1.862355e+01	-7.020765e+01
1.260000e-06	-2.635599e-06	-1.008844e-09	-1.834134e+01	-6.989104e+01
1.270000e-06	-2.594747e-06	-1.005033e-09	-1.805706e+01	-6.956667e+01
1.280000e-06	-2.553652e-06	-1.000922e-09	-1.777107e+01	-6.923438e+01
1.290000e-06	-2.512283e-06	-9.941621e-10	-1.748318e+01	-6.889405e+01
1.300000e-06	-2.470542e-06	-9.859573e-10	-1.719270e+01	-6.854558e+01
1.310000e-06	-2.428380e-06	-9.783652e-10	-1.689930e+01	-6.818890e+01
1.320000e-06	-2.385836e-06	-9.723894e-10	-1.660323e+01	-6.782396e+01
1.330000e-06	-2.343072e-06	-9.686204e-10	-1.630563e+01	-6.745077e+01
1.340000e-06	-2.300083e-06	-9.658390e-10	-1.600647e+01	-6.706933e+01
1.350000e-06	-2.256932e-06	-9.645882e-10	-1.570617e+01	-6.667968e+01
1.360000e-06	-2.213661e-06	-9.618675e-10	-1.540505e+01	-6.628188e+01
1.370000e-06	-2.170219e-06	-9.557407e-10	-1.510273e+01	-6.587602e+01
1.380000e-06	-2.126644e-06	-9.463848e-10	-1.479948e+01	-6.546220e+01
1.390000e-06	-2.082972e-06	-9.327293e-10	-1.449557e+01	-6.504052e+01
1.400000e-06	-2.039226e-06	-9.208811e-10	-1.419114e+01	-6.461110e+01
1.410000e-06	-1.995410e-06	-9.131994e-10	-1.388622e+01	-6.417405e+01
1.420000e-06	-1.951494e-06	-9.081638e-10	-1.358061e+01	-6.372949e+01
1.430000e-06	-1.907523e-06	-9.015522e-10	-1.327461e+01	-6.327754e+01
1.440000e-06	-1.863418e-06	-8.954758e-10	-1.296768e+01	-6.281827e+01
1.450000e-06	-1.819203e-06	-8.897130e-10	-1.265998e+01	-6.235175e+01
1.460000e-06	-1.774949e-06	-8.839899e-10	-1.235201e+01	-6.187804e+01
1.470000e-06	-1.730533e-06	-8.775481e-10	-1.204292e+01	-6.139715e+01
1.480000e-06	-1.685974e-06	-8.711813e-10	-1.173283e+01	-6.090904e+01
1.490000e-06	-1.641315e-06	-8.653852e-10	-1.142205e+01	-6.041364e+01
1.500000e-06	-1.596539e-06	-8.564146e-10	-1.111044e+01	-5.991084e+01
1.510000e-06	-1.551626e-06	-8.424869e-10	-1.079789e+01	-5.940046e+01
1.520000e-06	-1.506517e-06	-8.293132e-10	-1.048398e+01	-5.888226e+01
1.530000e-06	-1.461287e-06	-8.186251e-10	-1.016922e+01	-5.835593e+01
1.540000e-06	-1.416042e-06	-8.096354e-10	-9.854350e+00	-5.782112e+01
1.550000e-06	-1.370739e-06	-8.030716e-10	-9.539087e+00	-5.727737e+01
1.560000e-06	-1.325359e-06	-7.962943e-10	-9.223284e+00	-5.672417e+01
1.570000e-06	-1.279897e-06	-7.832905e-10	-8.906907e+00	-5.616092e+01
1.580000e-06	-1.234287e-06	-7.668518e-10	-8.589500e+00	-5.558696e+01
1.590000e-06	-1.188549e-06	-7.521058e-10	-8.271212e+00	-5.500154e+01
1.600000e-06	-1.142742e-06	-7.379527e-10	-7.952436e+00	-5.440382e+01
1.610000e-06	-1.096856e-06	-7.236117e-10	-7.633112e+00	-5.379291e+01
1.620000e-06	-1.050893e-06	-7.123675e-10	-7.313250e+00	-5.316782e+01
1.630000e-06	-1.004861e-06	-7.035717e-10	-6.992908e+00	-5.252751e+01
1.640000e-06	-9.586967e-07	-6.942462e-10	-6.671648e+00	-5.187086e+01
1.650000e-06	-9.123976e-07	-6.848202e-10	-6.349449e+00	-5.119671e+01
1.660000e-06	-8.660776e-07	-6.741495e-10	-6.027104e+00	-5.050380e+01
1.670000e-06	-8.198116e-07	-6.605581e-10	-5.705136e+00	-4.979087e+01
1.680000e-06	-7.735553e-07	-6.458053e-10	-5.383234e+00	-4.905659e+01
1.690000e-06	-7.272068e-07	-6.324963e-10	-5.060691e+00	-4.829961e+01
1.700000e-06	-6.807863e-07	-6.184314e-10	-4.737647e+00	-4.751855e+01
1.710000e-06	-6.343335e-07	-6.040612e-10	-4.414378e+00	-4.671200e+01
1.720000e-06	-5.878346e-07	-5.881965e-10	-4.090788e+00	-4.587859e+01
1.730000e-06	-5.413549e-07	-5.714841e-10	-3.767333e+00	-4.501691e+01
1.740000e-06	-4.948493e-07	-5.552238e-10	-3.443696e+00	-4.412560e+01
1.750000e-06	-4.482266e-07	-5.421568e-10	-3.119245e+00	-4.320332e+01
1.760000e-06	-4.015850e-07	-5.300493e-10	-2.794663e+00	-4.224876e+01
1.770000e-06	-3.549395e-07	-5.156402e-10	-2.470053e+00	-4.126068e+01
1.780000e-06	-3.082404e-07	-4.997624e-10	-2.145070e+00	-4.023791e+01
1.790000e-06	-2.615526e-07	-4.848636e-10	-1.820165e+00	-3.917933e+01
1.800000e-06	-2.148697e-07	-4.706529e-10	-1.495296e+00	-3.808394e+01
1.810000e-06	-1.681371e-07	-4.560024e-10	-1.170080e+00	-3.695081e+01
1.820000e-06	-1.212684e-07	-4.404143e-10	-8.439163e-01	-3.577916e+01
1.830000e-06	-7.441790e-08	-4.236667e-10	-5.178802e-01	-3.456830e+01
1.840000e-06	-2.769902e-08	-4.064074e-10	-1.927597e-01	-3.331768e+01
1.850000e-06	1.904350e-08	-3.902726e-10	1.325253e-01	-3.202688e+01
1.860000e-06	6.581733e-08	-3.745122e-10	4.580282e-01	-3.069565e+01
1.870000e-06	1.126296e-07	-3.569287e-10	7.837986e-01	-2.932387e+01
1.880000e-06	1.594533e-07	-3.396491e-10	1.109648e+00	-2.791161e+01
1.890000e-06	2.062384e-07	-3.211972e-10	1.435230e+00	-2.645907e+01
1.900000e-06	2.529898e-07	-3.010608e-10	1.760577e+00	-2.496665e+01
1.910000e-06	2.997836e-07	-2.800671e-10	2.086218e+00	-2.343490e+01
1.920000e-06	3.465800e-07	-2.573563e-10	2.411878e+00	-2.186457e+01
1.930000e-06	3.932523e-07	-2.351751e-10	2.736674e+00	-2.025656e+01
1.940000e-06	4.398628e-07	-2.153524e-10	3.061041e+00	-1.861195e+01
1.950000e-06	4.865326e-07	-1.964166e-10	3.385820e+00	-1.693199e+01
1.960000e-06	5.331771e-07	-1.764273e-10	3.710423e+00	-1.521811e+01
1.970000e-06	5.796291e-07	-1.547570e-10	4.033686e+00	-1.347188e+01
1.980000e-06	6.259971e-07	-1.303082e-10	4.356365e+00	-1.169503e+01
1.990000e-06	6.723417e-07	-1.025551e-10	4.678880e+00	-9.889462e+00
2.000000e-06	7.186668e-07	-7.251916e-11	5.001260e+00	-8.057190e+00
2.010000e-06	7.649831e-07	-4.464735e-11	5.323579e+00	-6.200371e+00
2.020000e-06	8.112388e-07	-1.976833e-11	5.645477e+00	-4.321279e+00
2.030000e-06	8.574374e-07	4.239402e-12	5.966977e+00	-2.422297e+00
2.040000e-06	9.036090e-07	2.701681e-11	6.288288e+00	-5.059045e-01
2.050000e-06	9.497201e-07	5.023123e-11	6.609179e+00	1.425337e+00
2.060000e-06	9.957336e-07	7.686088e-11	6.929391e+00	3.368798e+00
2.070000e-06	1.041715e-06	1.072874e-10	7.249377e+00	5.321790e+00
2.080000e-06	1.087664e-06	1.381827e-10	7.569139e+00	7.281587e+00
2.090000e-06	1.133528e-06	1.645399e-10	7.888316e+00	9.245438e+00
2.100000e-06	1.179270e-06	1.888759e-10	8.206633e+00	1.121058e+01
2.110000e-06	1.224873e-06	2.145589e-10	8.523990e+00	1.317425e+01
2.120000e-06	1.270389e-06	2.407617e-10	8.840740e+00	1.513371e+01
2.130000e-06	1.315857e-06	2.683948e-10	9.157156e+00	1.708626e+01
2.140000e-06	1.361183e-06	2.974254e-10	9.472584e+00	1.902923e+01
2.150000e-06	1.406332e-06	3.262915e-10	9.786775e+00	2.096003e+01
2.160000e-06	1.451410e-06	3.520045e-10	1.010048e+01	2.287615e+01
2.170000e-06	1.496453e-06	3.751217e-10	1.041394e+01	2.477514e+01
2.180000e-06	1.541400e-06	3.974759e-10	1.072673e+01	2.665467e+01
2.190000e-06	1.586276e-06	4.215866e-10	1.103902e+01	2.851253e+01
2.200000e-06	1.630998e-06	4.489448e-10	1.135024e+01	3.034661e+01
2.210000e-06	1.675525e-06	4.789924e-10	1.166011e+01	3.215493e+01
2.220000e-06	1.719961e-06	5.091916e-10	1.196935e+01	3.393567e+01
2.230000e-06	1.764231e-06	5.371670e-10	1.227743e+01	3.568713e+01
2.240000e-06	1.808336e-06	5.602722e-10	1.258435e+01	3.740777e+01
2.250000e-06	1.852346e-06	5.771926e-10	1.289062e+01	3.909621e+01
2.260000e-06	1.896279e-06	5.936206e-10	1.319636e+01	4.075121e+01
2.270000e-06	1.940167e-06	6.129422e-10	1.350178e+01	4.237170e+01
2.280000e-06	1.984004e-06	6.336482e-10	1.380684e+01	4.395678e+01
2.290000e-06	2.027759e-06	6.564510e-10	1.411134e+01	4.550570e+01
2.300000e-06	2.071489e-06	6.807873e-10	1.441566e+01	4.701785e+01
2.310000e-06	2.115199e-06	7.052429e-10	1.471984e+01	4.849279e+01
2.320000e-06	2.158804e-06	7.272651e-10	1.502329e+01	4.993025e+01
2.330000e-06	2.202326e-06	7.452940e-10	1.532616e+01	5.133007e+01
2.340000e-06	2.245750e-06	7.603903e-10	1.562836e+01	5.269224e+01
2.350000e-06	2.288979e-06	7.747250e-10	1.592919e+01	5.401690e+01
2.360000e-06	2.331894e-06	7.898947e-10	1.622784e+01	5.530429e+01
2.370000e-06	2.374546e-06	8.056884e-10	1.652466e+01	5.655479e+01
2.380000e-06	2.416969e-06	8.224524e-10	1.681988e+01	5.776886e+01
2.390000e-06	2.459047e-06	8.395396e-10	1.711271e+01	5.894707e+01
2.400000e-06	2.500785e-06	8.566763e-10	1.740317e+01	6.009009e+01
2.410000e-06	2.542242e-06	8.740088e-10	1.769167e+01	6.119865e+01
2.420000e-06	2.583291e-06	8.896736e-10	1.797733e+01	6.227355e+01
2.430000e-06	2.623949e-06	9.026836e-10	1.826028e+01	6.331565e+01
2.440000e-06	2.664425e-06	9.148380e-10	1.854195e+01	6.432585e+01
2.450000e-06	2.704721e-06	9.279575e-10	1.882237e+01	6.530508e+01
2.460000e-06	2.744890e-06	9.423874e-10	1.910191e+01	6.625432e+01
2.470000e-06	2.784936e-06	9.564592e-10	1.938059e+01	6.717452e+01
2.480000e-06	2.824856e-06	9.696852e-10	1.965840e+01	6.806668e+01
2.490000e-06	2.864679e-06	9.819078e-10	1.993553e+01	6.893177e+01
2.500000e-06	2.904362e-06	9.925696e-10	2.021169e+01	6.977074e+01
2.510000e-06	2.943909e-06	1.003500e-09	2.048690e+01	7.058455e+01
2.520000e-06	2.983269e-06	1.013911e-09	2.076081e+01	7.137411e+01
2.530000e-06	3.022436e-06	1.022978e-09	2.103338e+01	7.214030e+01
2.540000e-06	3.061399e-06	1.034425e-09	2.130452e+01	7.288395e+01
2.550000e-06	3.100069e-06	1.047108e-09	2.157363e+01	7.360586e+01
2.560000e-06	3.138504e-06	1.056190e-09	2.184110e+01	7.430678e+01
2.570000e-06	3.176719e-06	1.061476e-09	2.210704e+01	7.498741e+01
2.580000e-06	3.214707e-06	1.065656e-09	2.237140e+01	7.564837e+01
2.590000e-06	3.252566e-06	1.069688e-09	2.263487e+01	7.629026e+01
2.600000e-06	3.290304e-06	1.076275e-09	2.289749e+01	7.691361e+01
2.610000e-06	3.327785e-06	1.088958e-09	2.315833e+01	7.751888e+01
2.620000e-06	3.364917e-06	1.105264e-09	2.341673e+01	7.810651e+01
2.630000e-06	3.401771e-06	1.118792e-09	2.367320e+01	7.867684e+01
2.640000e-06	3.438354e-06	1.126749e-09	2.392779e+01	7.923020e+01
2.650000e-06	3.474676e-06	1.130493e-09	2.418056e+01	7.976685e+01
2.660000e-06	3.510793e-06	1.131640e-09	2.443189e+01	8.028702e+01
2.670000e-06	3.546759e-06	1.132777e-09	2.468219e+01	8.079089e+01
2.680000e-06	3.582603e-06	1.136623e-09	2.493162e+01	8.127862e+01
2.690000e-06	3.618278e-06	1.145291e-09	2.517989e+01	8.175031e+01
2.700000e-06	3.653820e-06	1.157545e-09	2.542723e+01	8.220607e+01
2.710000e-06	3.689255e-06	1.167893e-09	2.567382e+01	8.264597e+01
2.720000e-06	3.724472e-06	1.173828e-09	2.591890e+01	8.307008e+01
2.730000e-06	3.759316e-06	1.175015e-09	2.616139e+01	8.347845e+01
2.740000e-06	3.793675e-06	1.173600e-09	2.640049e+01	8.387112e+01
2.750000e-06	3.827618e-06	1.173238e-09	2.663671e+01	8.424816e+01
2.760000e-06	3.861131e-06	1.175653e-09	2.686992e+01	8.460963e+01
2.770000e-06	3.894108e-06	1.182817e-09	2.709941e+01	8.495560e+01
2.780000e-06	3.926650e-06	1.192334e-09	2.732588e+01	8.528617e+01
2.790000e-06	3.958881e-06	1.201639e-09	2.755017e+01	8.560146e+01
2.800000e-06	3.990888e-06	1.210544e-09	2.777291e+01	8.590159e+01
2.810000e-06	4.022750e-06	1.216936e-09	2.799464e+01	8.618675e+01
2.820000e-06	4.054515e-06	1.219527e-09	2.821570e+01	8.645714e+01
2.830000e-06	4.086089e-06	1.221068e-09	2.843542e+01	8.671299e+01
2.840000e-06	4.117390e-06	1.224036e-09	2.865325e+01	8.695458e+01
2.850000e-06	4.148395e-06	1.227605e-09	2.886902e+01	8.718221e+01
2.860000e-06	4.179039e-06	1.233769e-09	2.908227e+01	8.739622e+01
2.870000e-06	4.209350e-06	1.242910e-09	2.929321e+01	8.759701e+01
2.880000e-06	4.239366e-06	1.250109e-09	2.950209e+01	8.778499e+01
2.890000e-06	4.269122e-06	1.252975e-09	2.970916e+01	8.796062e+01
2.900000e-06	4.298600e-06	1.255091e-09	2.991431e+01	8.812437e+01
