# Temperatura_=_-9.7
# Concentracion g/m^3_=_1620.0
# C_Vs_to_Am_M_A/Vsm_=_65563218390.804596
# pendiente_HvsI_1/m_=_3716.3
# ordenada_HvsI_A/m_=_1297.0
# frecuencia_Hz_=_135107.3436144262

Tiempo_(s)	Campo_(V.s)	Magnetizacion_(V.s)	Campo_(kA/m)	Magnetizacion_(A/m)
0.000000e+00	-5.520860e-06	-1.428675e-09	-3.837407e+01	-9.194073e+01
1.000000e-08	-5.520928e-06	-1.429710e-09	-3.837455e+01	-9.190112e+01
2.000000e-08	-5.520627e-06	-1.433344e-09	-3.837246e+01	-9.186258e+01
3.000000e-08	-5.519925e-06	-1.436054e-09	-3.836758e+01	-9.182492e+01
4.000000e-08	-5.518848e-06	-1.435197e-09	-3.836009e+01	-9.178787e+01
5.000000e-08	-5.517150e-06	-1.427531e-09	-3.834829e+01	-9.175117e+01
6.000000e-08	-5.514774e-06	-1.420696e-09	-3.833178e+01	-9.171450e+01
7.000000e-08	-5.511806e-06	-1.434778e-09	-3.831114e+01	-9.167756e+01
8.000000e-08	-5.508366e-06	-1.455444e-09	-3.828723e+01	-9.163998e+01
9.000000e-08	-5.504486e-06	-1.429147e-09	-3.826027e+01	-9.160141e+01
1.000000e-07	-5.500200e-06	-1.394239e-09	-3.823048e+01	-9.156148e+01
1.100000e-07	-5.495725e-06	-1.437340e-09	-3.819937e+01	-9.151980e+01
1.200000e-07	-5.491013e-06	-1.477575e-09	-3.816662e+01	-9.147599e+01
1.300000e-07	-5.485989e-06	-1.402332e-09	-3.813170e+01	-9.142968e+01
1.400000e-07	-5.480650e-06	-1.354413e-09	-3.809459e+01	-9.138050e+01
1.500000e-07	-5.474940e-06	-1.383761e-09	-3.805490e+01	-9.132808e+01
1.600000e-07	-5.468838e-06	-1.475739e-09	-3.801248e+01	-9.127209e+01
1.700000e-07	-5.462291e-06	-1.422750e-09	-3.796698e+01	-9.121219e+01
1.800000e-07	-5.455320e-06	-1.399952e-09	-3.791853e+01	-9.114809e+01
1.900000e-07	-5.447964e-06	-1.436831e-09	-3.786740e+01	-9.107951e+01
2.000000e-07	-5.440252e-06	-1.465244e-09	-3.781379e+01	-9.100622e+01
2.100000e-07	-5.432344e-06	-1.414226e-09	-3.775882e+01	-9.092801e+01
2.200000e-07	-5.424268e-06	-1.374424e-09	-3.770269e+01	-9.084469e+01
2.300000e-07	-5.415867e-06	-1.415048e-09	-3.764430e+01	-9.075615e+01
2.400000e-07	-5.406897e-06	-1.437991e-09	-3.758195e+01	-9.066229e+01
2.500000e-07	-5.397206e-06	-1.425686e-09	-3.751459e+01	-9.056304e+01
2.600000e-07	-5.386926e-06	-1.379903e-09	-3.744313e+01	-9.045841e+01
2.700000e-07	-5.376094e-06	-1.385230e-09	-3.736785e+01	-9.034841e+01
2.800000e-07	-5.364734e-06	-1.385018e-09	-3.728889e+01	-9.023313e+01
2.900000e-07	-5.353003e-06	-1.387552e-09	-3.720734e+01	-9.011265e+01
3.000000e-07	-5.340878e-06	-1.351979e-09	-3.712307e+01	-8.998715e+01
3.100000e-07	-5.328308e-06	-1.364539e-09	-3.703570e+01	-8.985679e+01
3.200000e-07	-5.315371e-06	-1.369314e-09	-3.694577e+01	-8.972180e+01
3.300000e-07	-5.302081e-06	-1.369302e-09	-3.685340e+01	-8.958242e+01
3.400000e-07	-5.288310e-06	-1.322411e-09	-3.675768e+01	-8.943894e+01
3.500000e-07	-5.274026e-06	-1.340067e-09	-3.665840e+01	-8.929166e+01
3.600000e-07	-5.259430e-06	-1.360720e-09	-3.655695e+01	-8.914090e+01
3.700000e-07	-5.244418e-06	-1.344370e-09	-3.645260e+01	-8.898700e+01
3.800000e-07	-5.228804e-06	-1.325371e-09	-3.634407e+01	-8.883031e+01
3.900000e-07	-5.212765e-06	-1.378248e-09	-3.623259e+01	-8.867120e+01
4.000000e-07	-5.196299e-06	-1.356733e-09	-3.611814e+01	-8.851004e+01
4.100000e-07	-5.179421e-06	-1.289310e-09	-3.600082e+01	-8.834719e+01
4.200000e-07	-5.162255e-06	-1.329737e-09	-3.588150e+01	-8.818301e+01
4.300000e-07	-5.144752e-06	-1.390779e-09	-3.575984e+01	-8.801785e+01
4.400000e-07	-5.126867e-06	-1.320595e-09	-3.563553e+01	-8.785205e+01
4.500000e-07	-5.108588e-06	-1.297719e-09	-3.550848e+01	-8.768595e+01
4.600000e-07	-5.089933e-06	-1.388614e-09	-3.537882e+01	-8.751983e+01
4.700000e-07	-5.070913e-06	-1.352722e-09	-3.524661e+01	-8.735397e+01
4.800000e-07	-5.051520e-06	-1.267583e-09	-3.511182e+01	-8.718862e+01
4.900000e-07	-5.031878e-06	-1.324705e-09	-3.497529e+01	-8.702401e+01
5.000000e-07	-5.012015e-06	-1.359592e-09	-3.483723e+01	-8.686032e+01
5.100000e-07	-4.991866e-06	-1.264360e-09	-3.469718e+01	-8.669769e+01
5.200000e-07	-4.971403e-06	-1.293815e-09	-3.455494e+01	-8.653625e+01
5.300000e-07	-4.950645e-06	-1.370811e-09	-3.441066e+01	-8.637607e+01
5.400000e-07	-4.929538e-06	-1.306950e-09	-3.426395e+01	-8.621720e+01
5.500000e-07	-4.908044e-06	-1.264014e-09	-3.411455e+01	-8.605963e+01
5.600000e-07	-4.886262e-06	-1.347968e-09	-3.396315e+01	-8.590333e+01
5.700000e-07	-4.864102e-06	-1.316182e-09	-3.380912e+01	-8.574822e+01
5.800000e-07	-4.841491e-06	-1.250186e-09	-3.365196e+01	-8.559421e+01
5.900000e-07	-4.818570e-06	-1.304760e-09	-3.349264e+01	-8.544114e+01
6.000000e-07	-4.795411e-06	-1.332329e-09	-3.333167e+01	-8.528885e+01
6.100000e-07	-4.771980e-06	-1.259633e-09	-3.316881e+01	-8.513714e+01
6.200000e-07	-4.748301e-06	-1.277646e-09	-3.300422e+01	-8.498576e+01
6.300000e-07	-4.724397e-06	-1.314041e-09	-3.283807e+01	-8.483449e+01
6.400000e-07	-4.700228e-06	-1.273970e-09	-3.267008e+01	-8.468303e+01
6.500000e-07	-4.675725e-06	-1.263761e-09	-3.249976e+01	-8.453111e+01
6.600000e-07	-4.650750e-06	-1.306213e-09	-3.232617e+01	-8.437844e+01
6.700000e-07	-4.625173e-06	-1.281776e-09	-3.214839e+01	-8.422469e+01
6.800000e-07	-4.599038e-06	-1.254090e-09	-3.196673e+01	-8.406957e+01
6.900000e-07	-4.572413e-06	-1.274270e-09	-3.178167e+01	-8.391276e+01
7.000000e-07	-4.545313e-06	-1.270141e-09	-3.159330e+01	-8.375396e+01
7.100000e-07	-4.517927e-06	-1.241949e-09	-3.140295e+01	-8.359286e+01
7.200000e-07	-4.490333e-06	-1.253622e-09	-3.121115e+01	-8.342918e+01
7.300000e-07	-4.462544e-06	-1.263103e-09	-3.101800e+01	-8.326266e+01
7.400000e-07	-4.434607e-06	-1.246519e-09	-3.082381e+01	-8.309303e+01
7.500000e-07	-4.406434e-06	-1.246778e-09	-3.062799e+01	-8.292006e+01
7.600000e-07	-4.377943e-06	-1.251137e-09	-3.042996e+01	-8.274355e+01
7.700000e-07	-4.349076e-06	-1.237692e-09	-3.022931e+01	-8.256331e+01
7.800000e-07	-4.319873e-06	-1.228272e-09	-3.002632e+01	-8.237920e+01
7.900000e-07	-4.290373e-06	-1.233639e-09	-2.982128e+01	-8.219109e+01
8.000000e-07	-4.260579e-06	-1.224494e-09	-2.961419e+01	-8.199888e+01
8.100000e-07	-4.230494e-06	-1.220830e-09	-2.940508e+01	-8.180252e+01
8.200000e-07	-4.200150e-06	-1.225331e-09	-2.919416e+01	-8.160198e+01
8.300000e-07	-4.169533e-06	-1.223515e-09	-2.898135e+01	-8.139726e+01
8.400000e-07	-4.138627e-06	-1.214151e-09	-2.876653e+01	-8.118840e+01
8.500000e-07	-4.107420e-06	-1.225050e-09	-2.854962e+01	-8.097545e+01
8.600000e-07	-4.075966e-06	-1.225724e-09	-2.833099e+01	-8.075851e+01
8.700000e-07	-4.044315e-06	-1.211754e-09	-2.811099e+01	-8.053770e+01
8.800000e-07	-4.012501e-06	-1.203289e-09	-2.788987e+01	-8.031316e+01
8.900000e-07	-3.980492e-06	-1.204199e-09	-2.766738e+01	-8.008504e+01
9.000000e-07	-3.948262e-06	-1.189105e-09	-2.744335e+01	-7.985353e+01
9.100000e-07	-3.915769e-06	-1.182903e-09	-2.721750e+01	-7.961882e+01
9.200000e-07	-3.882927e-06	-1.186638e-09	-2.698923e+01	-7.938112e+01
9.300000e-07	-3.849643e-06	-1.183473e-09	-2.675788e+01	-7.914064e+01
9.400000e-07	-3.815841e-06	-1.173685e-09	-2.652293e+01	-7.889759e+01
9.500000e-07	-3.781545e-06	-1.177043e-09	-2.628455e+01	-7.865219e+01
9.600000e-07	-3.746810e-06	-1.171957e-09	-2.604311e+01	-7.840466e+01
9.700000e-07	-3.711769e-06	-1.155955e-09	-2.579955e+01	-7.815519e+01
9.800000e-07	-3.676460e-06	-1.150549e-09	-2.555413e+01	-7.790398e+01
9.900000e-07	-3.640904e-06	-1.153431e-09	-2.530699e+01	-7.765121e+01
1.000000e-06	-3.605194e-06	-1.145868e-09	-2.505877e+01	-7.739704e+01
1.010000e-06	-3.569328e-06	-1.141344e-09	-2.480948e+01	-7.714159e+01
1.020000e-06	-3.533330e-06	-1.142399e-09	-2.455927e+01	-7.688499e+01
1.030000e-06	-3.497185e-06	-1.133748e-09	-2.430803e+01	-7.662732e+01
1.040000e-06	-3.460792e-06	-1.122955e-09	-2.405507e+01	-7.636864e+01
1.050000e-06	-3.424076e-06	-1.121505e-09	-2.379987e+01	-7.610897e+01
1.060000e-06	-3.387064e-06	-1.121203e-09	-2.354261e+01	-7.584830e+01
1.070000e-06	-3.349837e-06	-1.112714e-09	-2.328386e+01	-7.558659e+01
1.080000e-06	-3.312359e-06	-1.109942e-09	-2.302336e+01	-7.532377e+01
1.090000e-06	-3.274634e-06	-1.105773e-09	-2.276114e+01	-7.505973e+01
1.100000e-06	-3.236698e-06	-1.093221e-09	-2.249746e+01	-7.479433e+01
1.110000e-06	-3.198618e-06	-1.079216e-09	-2.223277e+01	-7.452738e+01
1.120000e-06	-3.160344e-06	-1.073527e-09	-2.196674e+01	-7.425870e+01
1.130000e-06	-3.121870e-06	-1.066188e-09	-2.169931e+01	-7.398803e+01
1.140000e-06	-3.083186e-06	-1.064145e-09	-2.143043e+01	-7.371512e+01
1.150000e-06	-3.044258e-06	-1.067967e-09	-2.115986e+01	-7.343967e+01
1.160000e-06	-3.005118e-06	-1.070588e-09	-2.088780e+01	-7.316139e+01
1.170000e-06	-2.965713e-06	-1.062728e-09	-2.061391e+01	-7.287993e+01
1.180000e-06	-2.926158e-06	-1.053934e-09	-2.033897e+01	-7.259495e+01
1.190000e-06	-2.886501e-06	-1.043051e-09	-2.006333e+01	-7.230609e+01
1.200000e-06	-2.846713e-06	-1.028658e-09	-1.978677e+01	-7.201299e+01
1.210000e-06	-2.806815e-06	-1.017627e-09	-1.950945e+01	-7.171528e+01
1.220000e-06	-2.766849e-06	-1.016465e-09	-1.923166e+01	-7.141257e+01
1.230000e-06	-2.726793e-06	-1.014360e-09	-1.895324e+01	-7.110450e+01
1.240000e-06	-2.686469e-06	-1.010443e-09	-1.867295e+01	-7.079071e+01
1.250000e-06	-2.645807e-06	-1.006825e-09	-1.839032e+01	-7.047084e+01
1.260000e-06	-2.604903e-06	-1.002883e-09	-1.810601e+01	-7.014454e+01
1.270000e-06	-2.563756e-06	-9.927738e-10	-1.782001e+01	-6.981149e+01
1.280000e-06	-2.522389e-06	-9.805558e-10	-1.753248e+01	-6.947138e+01
1.290000e-06	-2.480745e-06	-9.729332e-10	-1.724302e+01	-6.912393e+01
1.300000e-06	-2.438625e-06	-9.642307e-10	-1.695026e+01	-6.876887e+01
1.310000e-06	-2.396170e-06	-9.556399e-10	-1.665516e+01	-6.840595e+01
1.320000e-06	-2.353546e-06	-9.512256e-10	-1.635889e+01	-6.803497e+01
1.330000e-06	-2.310679e-06	-9.480747e-10	-1.606094e+01	-6.765572e+01
1.340000e-06	-2.267599e-06	-9.431125e-10	-1.576150e+01	-6.726806e+01
1.350000e-06	-2.224286e-06	-9.397776e-10	-1.546044e+01	-6.687184e+01
1.360000e-06	-2.180778e-06	-9.357087e-10	-1.515803e+01	-6.646694e+01
1.370000e-06	-2.137132e-06	-9.276596e-10	-1.485466e+01	-6.605328e+01
1.380000e-06	-2.093401e-06	-9.188739e-10	-1.455069e+01	-6.563078e+01
1.390000e-06	-2.049667e-06	-9.129794e-10	-1.424671e+01	-6.519938e+01
1.400000e-06	-2.005840e-06	-9.050185e-10	-1.394208e+01	-6.475905e+01
1.410000e-06	-1.961906e-06	-8.967507e-10	-1.363670e+01	-6.430976e+01
1.420000e-06	-1.917962e-06	-8.910197e-10	-1.333126e+01	-6.385148e+01
1.430000e-06	-1.873932e-06	-8.863313e-10	-1.302522e+01	-6.338419e+01
1.440000e-06	-1.829730e-06	-8.772929e-10	-1.271798e+01	-6.290787e+01
1.450000e-06	-1.785378e-06	-8.690827e-10	-1.240970e+01	-6.242249e+01
1.460000e-06	-1.740844e-06	-8.623110e-10	-1.210016e+01	-6.192800e+01
1.470000e-06	-1.696175e-06	-8.538455e-10	-1.178967e+01	-6.142434e+01
1.480000e-06	-1.651437e-06	-8.447101e-10	-1.147871e+01	-6.091142e+01
1.490000e-06	-1.606560e-06	-8.358653e-10	-1.116679e+01	-6.038914e+01
1.500000e-06	-1.561515e-06	-8.227596e-10	-1.085369e+01	-5.985733e+01
1.510000e-06	-1.516374e-06	-8.074010e-10	-1.053992e+01	-5.931581e+01
1.520000e-06	-1.471130e-06	-7.952163e-10	-1.022545e+01	-5.876434e+01
1.530000e-06	-1.425781e-06	-7.846331e-10	-9.910239e+00	-5.820264e+01
1.540000e-06	-1.380368e-06	-7.764229e-10	-9.594584e+00	-5.763037e+01
1.550000e-06	-1.334869e-06	-7.729481e-10	-9.278330e+00	-5.704713e+01
1.560000e-06	-1.289327e-06	-7.673991e-10	-8.961782e+00	-5.645248e+01
1.570000e-06	-1.243748e-06	-7.561916e-10	-8.644972e+00	-5.584588e+01
1.580000e-06	-1.198021e-06	-7.428271e-10	-8.327136e+00	-5.522676e+01
1.590000e-06	-1.152170e-06	-7.314799e-10	-8.008434e+00	-5.459446e+01
1.600000e-06	-1.106268e-06	-7.175016e-10	-7.689387e+00	-5.394827e+01
1.610000e-06	-1.060275e-06	-7.045600e-10	-7.369699e+00	-5.328740e+01
1.620000e-06	-1.014185e-06	-6.948932e-10	-7.049341e+00	-5.261100e+01
1.630000e-06	-9.680401e-07	-6.868448e-10	-6.728598e+00	-5.191816e+01
1.640000e-06	-9.218382e-07	-6.782716e-10	-6.407460e+00	-5.120790e+01
1.650000e-06	-8.755954e-07	-6.684105e-10	-6.086038e+00	-5.047919e+01
1.660000e-06	-8.292992e-07	-6.587677e-10	-5.764246e+00	-4.973096e+01
1.670000e-06	-7.829766e-07	-6.468662e-10	-5.442269e+00	-4.896206e+01
1.680000e-06	-7.365813e-07	-6.352874e-10	-5.119787e+00	-4.817134e+01
1.690000e-06	-6.901034e-07	-6.217734e-10	-4.796731e+00	-4.735758e+01
1.700000e-06	-6.436601e-07	-6.057353e-10	-4.473916e+00	-4.651957e+01
1.710000e-06	-5.972066e-07	-5.871074e-10	-4.151030e+00	-4.565605e+01
1.720000e-06	-5.507015e-07	-5.690891e-10	-3.827785e+00	-4.476577e+01
1.730000e-06	-5.041761e-07	-5.526503e-10	-3.504398e+00	-4.384749e+01
1.740000e-06	-4.575919e-07	-5.389961e-10	-3.180603e+00	-4.289997e+01
1.750000e-06	-4.108797e-07	-5.288744e-10	-2.855919e+00	-4.192199e+01
1.760000e-06	-3.641019e-07	-5.169242e-10	-2.530779e+00	-4.091237e+01
1.770000e-06	-3.172517e-07	-5.004219e-10	-2.205135e+00	-3.986999e+01
1.780000e-06	-2.704041e-07	-4.837010e-10	-1.879509e+00	-3.879376e+01
1.790000e-06	-2.236104e-07	-4.669446e-10	-1.554258e+00	-3.768267e+01
1.800000e-06	-1.767455e-07	-4.479867e-10	-1.228512e+00	-3.653579e+01
1.810000e-06	-1.298227e-07	-4.275890e-10	-9.023640e-01	-3.535229e+01
1.820000e-06	-8.292467e-08	-4.090704e-10	-5.763881e-01	-3.413143e+01
1.830000e-06	-3.609865e-08	-3.924237e-10	-2.509124e-01	-3.287256e+01
1.840000e-06	1.071624e-08	-3.778748e-10	7.448580e-02	-3.157520e+01
1.850000e-06	5.747172e-08	-3.641635e-10	3.994711e-01	-3.023895e+01
1.860000e-06	1.042021e-07	-3.478317e-10	7.242817e-01	-2.886358e+01
1.870000e-06	1.510595e-07	-3.290664e-10	1.049976e+00	-2.744900e+01
1.880000e-06	1.979600e-07	-3.084490e-10	1.375969e+00	-2.599525e+01
1.890000e-06	2.448347e-07	-2.847293e-10	1.701783e+00	-2.450255e+01
1.900000e-06	2.917150e-07	-2.586930e-10	2.027636e+00	-2.297127e+01
1.910000e-06	3.384700e-07	-2.350733e-10	2.352618e+00	-2.140196e+01
1.920000e-06	3.851306e-07	-2.129865e-10	2.676944e+00	-1.979532e+01
1.930000e-06	4.318075e-07	-1.903635e-10	3.001383e+00	-1.815223e+01
1.940000e-06	4.784730e-07	-1.685179e-10	3.325743e+00	-1.647372e+01
1.950000e-06	5.251265e-07	-1.466941e-10	3.650019e+00	-1.476101e+01
1.960000e-06	5.717169e-07	-1.238960e-10	3.973857e+00	-1.301547e+01
1.970000e-06	6.181677e-07	-1.002377e-10	4.296724e+00	-1.123864e+01
1.980000e-06	6.645368e-07	-7.488514e-11	4.619024e+00	-9.432195e+00
1.990000e-06	7.109228e-07	-4.698146e-11	4.941441e+00	-7.597974e+00
2.000000e-06	7.573157e-07	-1.952086e-11	5.263906e+00	-5.737951e+00
2.010000e-06	8.036757e-07	6.303561e-12	5.586143e+00	-3.854232e+00
2.020000e-06	8.499798e-07	3.369237e-11	5.907991e+00	-1.949046e+00
2.030000e-06	8.962074e-07	6.085798e-11	6.229307e+00	-2.473035e-02
2.040000e-06	9.423294e-07	8.702109e-11	6.549889e+00	1.916276e+00
2.050000e-06	9.883453e-07	1.128571e-10	6.869734e+00	3.871447e+00
2.060000e-06	1.034284e-06	1.384913e-10	7.189040e+00	5.838185e+00
2.070000e-06	1.080180e-06	1.643437e-10	7.508054e+00	7.813830e+00
2.080000e-06	1.126009e-06	1.906314e-10	7.826601e+00	9.795676e+00
2.090000e-06	1.171770e-06	2.192525e-10	8.144669e+00	1.178099e+01
2.100000e-06	1.217450e-06	2.494574e-10	8.462183e+00	1.376701e+01
2.110000e-06	1.262993e-06	2.776258e-10	8.778739e+00	1.575098e+01
2.120000e-06	1.308440e-06	3.039388e-10	9.094630e+00	1.773017e+01
2.130000e-06	1.353876e-06	3.296571e-10	9.410441e+00	1.970185e+01
2.140000e-06	1.399309e-06	3.542146e-10	9.726239e+00	2.166336e+01
2.150000e-06	1.444615e-06	3.768258e-10	1.004115e+01	2.361206e+01
2.160000e-06	1.489811e-06	3.987785e-10	1.035529e+01	2.554543e+01
2.170000e-06	1.534906e-06	4.218840e-10	1.066874e+01	2.746098e+01
2.180000e-06	1.579840e-06	4.483868e-10	1.098106e+01	2.935635e+01
2.190000e-06	1.624701e-06	4.781475e-10	1.129288e+01	3.122927e+01
2.200000e-06	1.669413e-06	5.082487e-10	1.160366e+01	3.307761e+01
2.210000e-06	1.713927e-06	5.357504e-10	1.191307e+01	3.489932e+01
2.220000e-06	1.758371e-06	5.605032e-10	1.222199e+01	3.669253e+01
2.230000e-06	1.802748e-06	5.828078e-10	1.253044e+01	3.845550e+01
2.240000e-06	1.846951e-06	6.006930e-10	1.283768e+01	4.018662e+01
2.250000e-06	1.891006e-06	6.165560e-10	1.314389e+01	4.188445e+01
2.260000e-06	1.935017e-06	6.349847e-10	1.344980e+01	4.354772e+01
2.270000e-06	1.978942e-06	6.571435e-10	1.375512e+01	4.517529e+01
2.280000e-06	2.022778e-06	6.818427e-10	1.405981e+01	4.676620e+01
2.290000e-06	2.066582e-06	7.077303e-10	1.436428e+01	4.831965e+01
2.300000e-06	2.110314e-06	7.327793e-10	1.466825e+01	4.983499e+01
2.310000e-06	2.153970e-06	7.544137e-10	1.497169e+01	5.131176e+01
2.320000e-06	2.197480e-06	7.722543e-10	1.527412e+01	5.274961e+01
2.330000e-06	2.240768e-06	7.879965e-10	1.557500e+01	5.414837e+01
2.340000e-06	2.283932e-06	8.027173e-10	1.587502e+01	5.550802e+01
2.350000e-06	2.326954e-06	8.190293e-10	1.617406e+01	5.682864e+01
2.360000e-06	2.369793e-06	8.374679e-10	1.647182e+01	5.811049e+01
2.370000e-06	2.412407e-06	8.570453e-10	1.676802e+01	5.935393e+01
2.380000e-06	2.454623e-06	8.762796e-10	1.706145e+01	6.055942e+01
2.390000e-06	2.496325e-06	8.932612e-10	1.735131e+01	6.172756e+01
2.400000e-06	2.537647e-06	9.081177e-10	1.763853e+01	6.285901e+01
2.410000e-06	2.578742e-06	9.225207e-10	1.792417e+01	6.395454e+01
2.420000e-06	2.619589e-06	9.368286e-10	1.820809e+01	6.501498e+01
2.430000e-06	2.660237e-06	9.517072e-10	1.849063e+01	6.604124e+01
2.440000e-06	2.700703e-06	9.669935e-10	1.877189e+01	6.703426e+01
2.450000e-06	2.740934e-06	9.816090e-10	1.905153e+01	6.799504e+01
2.460000e-06	2.781012e-06	9.957914e-10	1.933010e+01	6.892461e+01
2.470000e-06	2.820956e-06	1.007994e-09	1.960774e+01	6.982402e+01
2.480000e-06	2.860783e-06	1.018726e-09	1.988457e+01	7.069432e+01
2.490000e-06	2.900523e-06	1.029531e-09	2.016079e+01	7.153658e+01
2.500000e-06	2.940166e-06	1.041074e-09	2.043634e+01	7.235186e+01
2.510000e-06	2.979701e-06	1.054407e-09	2.071113e+01	7.314119e+01
2.520000e-06	3.019022e-06	1.067224e-09	2.098445e+01	7.390560e+01
2.530000e-06	3.058101e-06	1.080798e-09	2.125607e+01	7.464607e+01
2.540000e-06	3.096949e-06	1.094570e-09	2.152609e+01	7.536354e+01
2.550000e-06	3.135508e-06	1.104122e-09	2.179411e+01	7.605894e+01
2.560000e-06	3.173767e-06	1.110252e-09	2.206004e+01	7.673311e+01
2.570000e-06	3.211829e-06	1.116266e-09	2.232460e+01	7.738688e+01
2.580000e-06	3.249756e-06	1.124882e-09	2.258822e+01	7.802100e+01
2.590000e-06	3.287457e-06	1.136052e-09	2.285026e+01	7.863618e+01
2.600000e-06	3.324932e-06	1.148672e-09	2.311075e+01	7.923305e+01
2.610000e-06	3.362166e-06	1.161769e-09	2.336955e+01	7.981222e+01
2.620000e-06	3.399126e-06	1.172302e-09	2.362645e+01	8.037420e+01
2.630000e-06	3.435954e-06	1.177450e-09	2.388243e+01	8.091948e+01
2.640000e-06	3.472529e-06	1.180286e-09	2.413666e+01	8.144849e+01
2.650000e-06	3.508740e-06	1.183330e-09	2.438835e+01	8.196158e+01
2.660000e-06	3.544742e-06	1.187050e-09	2.463859e+01	8.245909e+01
2.670000e-06	3.580615e-06	1.190776e-09	2.488793e+01	8.294129e+01
2.680000e-06	3.616341e-06	1.196806e-09	2.513626e+01	8.340843e+01
2.690000e-06	3.651956e-06	1.205494e-09	2.538381e+01	8.386069e+01
2.700000e-06	3.687489e-06	1.213021e-09	2.563079e+01	8.429827e+01
2.710000e-06	3.722802e-06	1.217653e-09	2.587624e+01	8.472129e+01
2.720000e-06	3.757804e-06	1.221312e-09	2.611953e+01	8.512989e+01
2.730000e-06	3.792488e-06	1.223781e-09	2.636061e+01	8.552417e+01
2.740000e-06	3.826703e-06	1.224921e-09	2.659843e+01	8.590424e+01
2.750000e-06	3.860342e-06	1.227154e-09	2.683225e+01	8.627020e+01
2.760000e-06	3.893562e-06	1.232788e-09	2.706315e+01	8.662212e+01
2.770000e-06	3.926405e-06	1.240976e-09	2.729143e+01	8.696013e+01
2.780000e-06	3.958836e-06	1.248802e-09	2.751685e+01	8.728433e+01
2.790000e-06	3.990954e-06	1.255610e-09	2.774009e+01	8.759484e+01
2.800000e-06	4.022836e-06	1.260704e-09	2.796170e+01	8.789182e+01
2.810000e-06	4.054572e-06	1.263629e-09	2.818229e+01	8.817542e+01
2.820000e-06	4.086227e-06	1.266084e-09	2.840231e+01	8.844585e+01
2.830000e-06	4.117728e-06	1.269215e-09	2.862127e+01	8.870331e+01
2.840000e-06	4.148903e-06	1.272110e-09	2.883796e+01	8.894806e+01
2.850000e-06	4.179719e-06	1.275123e-09	2.905215e+01	8.918037e+01
2.860000e-06	4.210243e-06	1.279154e-09	2.926432e+01	8.940056e+01
2.870000e-06	4.240446e-06	1.281921e-09	2.947425e+01	8.960896e+01
2.880000e-06	4.270350e-06	1.282445e-09	2.968210e+01	8.980596e+01
2.890000e-06	4.299995e-06	1.284289e-09	2.988816e+01	8.999194e+01
2.900000e-06	4.329368e-06	1.288035e-09	3.009232e+01	9.016735e+01
