# Temperatura_=_-7.8
# Concentracion g/m^3_=_1620.0
# C_Vs_to_Am_M_A/Vsm_=_65563218390.804596
# pendiente_HvsI_1/m_=_3716.3
# ordenada_HvsI_A/m_=_1297.0
# frecuencia_Hz_=_135110.53247884376

Tiempo_(s)	Campo_(V.s)	Magnetizacion_(V.s)	Campo_(kA/m)	Magnetizacion_(A/m)
0.000000e+00	-5.522230e-06	-1.444492e-09	-3.836473e+01	-9.458537e+01
1.000000e-08	-5.522402e-06	-1.448882e-09	-3.836592e+01	-9.453104e+01
2.000000e-08	-5.522284e-06	-1.450776e-09	-3.836510e+01	-9.447746e+01
3.000000e-08	-5.521736e-06	-1.448933e-09	-3.836130e+01	-9.442442e+01
4.000000e-08	-5.520630e-06	-1.441884e-09	-3.835361e+01	-9.437164e+01
5.000000e-08	-5.518981e-06	-1.431966e-09	-3.834215e+01	-9.431883e+01
6.000000e-08	-5.516848e-06	-1.432180e-09	-3.832733e+01	-9.426569e+01
7.000000e-08	-5.514143e-06	-1.460009e-09	-3.830854e+01	-9.421189e+01
8.000000e-08	-5.510818e-06	-1.475010e-09	-3.828545e+01	-9.415708e+01
9.000000e-08	-5.507029e-06	-1.425005e-09	-3.825912e+01	-9.410094e+01
1.000000e-07	-5.502935e-06	-1.391584e-09	-3.823068e+01	-9.404310e+01
1.100000e-07	-5.498603e-06	-1.429408e-09	-3.820059e+01	-9.398322e+01
1.200000e-07	-5.493929e-06	-1.485066e-09	-3.816811e+01	-9.392096e+01
1.300000e-07	-5.488888e-06	-1.424271e-09	-3.813309e+01	-9.385597e+01
1.400000e-07	-5.483570e-06	-1.366012e-09	-3.809614e+01	-9.378794e+01
1.500000e-07	-5.477894e-06	-1.418052e-09	-3.805671e+01	-9.371656e+01
1.600000e-07	-5.471835e-06	-1.492540e-09	-3.801462e+01	-9.364154e+01
1.700000e-07	-5.465341e-06	-1.446947e-09	-3.796950e+01	-9.356263e+01
1.800000e-07	-5.458415e-06	-1.364181e-09	-3.792138e+01	-9.347959e+01
1.900000e-07	-5.451150e-06	-1.398071e-09	-3.787091e+01	-9.339221e+01
2.000000e-07	-5.443619e-06	-1.444809e-09	-3.781859e+01	-9.330032e+01
2.100000e-07	-5.435912e-06	-1.441466e-09	-3.776505e+01	-9.320379e+01
2.200000e-07	-5.427990e-06	-1.398263e-09	-3.771001e+01	-9.310250e+01
2.300000e-07	-5.419739e-06	-1.429457e-09	-3.765269e+01	-9.299639e+01
2.400000e-07	-5.410837e-06	-1.442129e-09	-3.759084e+01	-9.288542e+01
2.500000e-07	-5.401232e-06	-1.421115e-09	-3.752411e+01	-9.276961e+01
2.600000e-07	-5.391070e-06	-1.383672e-09	-3.745352e+01	-9.264898e+01
2.700000e-07	-5.380316e-06	-1.401113e-09	-3.737881e+01	-9.252363e+01
2.800000e-07	-5.369024e-06	-1.413570e-09	-3.730035e+01	-9.239365e+01
2.900000e-07	-5.357318e-06	-1.400605e-09	-3.721903e+01	-9.225919e+01
3.000000e-07	-5.345274e-06	-1.371431e-09	-3.713535e+01	-9.212042e+01
3.100000e-07	-5.332829e-06	-1.376955e-09	-3.704890e+01	-9.197754e+01
3.200000e-07	-5.319926e-06	-1.394575e-09	-3.695925e+01	-9.183077e+01
3.300000e-07	-5.306576e-06	-1.379169e-09	-3.686651e+01	-9.168036e+01
3.400000e-07	-5.292804e-06	-1.347773e-09	-3.677083e+01	-9.152658e+01
3.500000e-07	-5.278625e-06	-1.355556e-09	-3.667233e+01	-9.136969e+01
3.600000e-07	-5.263959e-06	-1.381226e-09	-3.657044e+01	-9.120999e+01
3.700000e-07	-5.248927e-06	-1.359695e-09	-3.646600e+01	-9.104777e+01
3.800000e-07	-5.233411e-06	-1.353219e-09	-3.635821e+01	-9.088334e+01
3.900000e-07	-5.217255e-06	-1.384855e-09	-3.624597e+01	-9.071698e+01
4.000000e-07	-5.200741e-06	-1.374890e-09	-3.613124e+01	-9.054898e+01
4.100000e-07	-5.183979e-06	-1.320126e-09	-3.601479e+01	-9.037965e+01
4.200000e-07	-5.166871e-06	-1.358004e-09	-3.589593e+01	-9.020923e+01
4.300000e-07	-5.149474e-06	-1.399475e-09	-3.577507e+01	-9.003799e+01
4.400000e-07	-5.131798e-06	-1.350704e-09	-3.565227e+01	-8.986616e+01
4.500000e-07	-5.113630e-06	-1.324971e-09	-3.552605e+01	-8.969396e+01
4.600000e-07	-5.094977e-06	-1.394521e-09	-3.539646e+01	-8.952158e+01
4.700000e-07	-5.075985e-06	-1.370835e-09	-3.526452e+01	-8.934919e+01
4.800000e-07	-5.056710e-06	-1.310502e-09	-3.513061e+01	-8.917690e+01
4.900000e-07	-5.037201e-06	-1.341204e-09	-3.499507e+01	-8.900484e+01
5.000000e-07	-5.017470e-06	-1.364966e-09	-3.485800e+01	-8.883307e+01
5.100000e-07	-4.997425e-06	-1.299001e-09	-3.471874e+01	-8.866165e+01
5.200000e-07	-4.977093e-06	-1.319833e-09	-3.457748e+01	-8.849057e+01
5.300000e-07	-4.956436e-06	-1.371802e-09	-3.443397e+01	-8.831983e+01
5.400000e-07	-4.935444e-06	-1.325857e-09	-3.428813e+01	-8.814936e+01
5.500000e-07	-4.914069e-06	-1.295182e-09	-3.413963e+01	-8.797910e+01
5.600000e-07	-4.892328e-06	-1.352647e-09	-3.398859e+01	-8.780893e+01
5.700000e-07	-4.870241e-06	-1.334257e-09	-3.383515e+01	-8.763873e+01
5.800000e-07	-4.847731e-06	-1.282350e-09	-3.367876e+01	-8.746834e+01
5.900000e-07	-4.824908e-06	-1.315347e-09	-3.352020e+01	-8.729757e+01
6.000000e-07	-4.801765e-06	-1.334434e-09	-3.335942e+01	-8.712624e+01
6.100000e-07	-4.778355e-06	-1.285569e-09	-3.319679e+01	-8.695413e+01
6.200000e-07	-4.754782e-06	-1.288903e-09	-3.303302e+01	-8.678103e+01
6.300000e-07	-4.730984e-06	-1.318416e-09	-3.286768e+01	-8.660671e+01
6.400000e-07	-4.706898e-06	-1.290991e-09	-3.270035e+01	-8.643093e+01
6.500000e-07	-4.682387e-06	-1.281568e-09	-3.253006e+01	-8.625345e+01
6.600000e-07	-4.657401e-06	-1.305991e-09	-3.235648e+01	-8.607405e+01
6.700000e-07	-4.631903e-06	-1.292775e-09	-3.217933e+01	-8.589249e+01
6.800000e-07	-4.605832e-06	-1.267917e-09	-3.199821e+01	-8.570857e+01
6.900000e-07	-4.579294e-06	-1.284740e-09	-3.181384e+01	-8.552207e+01
7.000000e-07	-4.552315e-06	-1.285201e-09	-3.162641e+01	-8.533282e+01
7.100000e-07	-4.524962e-06	-1.269382e-09	-3.143638e+01	-8.514063e+01
7.200000e-07	-4.497342e-06	-1.276355e-09	-3.124449e+01	-8.494536e+01
7.300000e-07	-4.469531e-06	-1.290736e-09	-3.105128e+01	-8.474688e+01
7.400000e-07	-4.441543e-06	-1.276923e-09	-3.085684e+01	-8.454509e+01
7.500000e-07	-4.413355e-06	-1.271158e-09	-3.066101e+01	-8.433993e+01
7.600000e-07	-4.384907e-06	-1.271717e-09	-3.046337e+01	-8.413133e+01
7.700000e-07	-4.356091e-06	-1.265777e-09	-3.026318e+01	-8.391928e+01
7.800000e-07	-4.326946e-06	-1.256203e-09	-3.006070e+01	-8.370378e+01
7.900000e-07	-4.297562e-06	-1.261486e-09	-2.985656e+01	-8.348488e+01
8.000000e-07	-4.267948e-06	-1.256810e-09	-2.965082e+01	-8.326264e+01
8.100000e-07	-4.238039e-06	-1.250608e-09	-2.944304e+01	-8.303714e+01
8.200000e-07	-4.207805e-06	-1.249706e-09	-2.923299e+01	-8.280849e+01
8.300000e-07	-4.177245e-06	-1.247183e-09	-2.902068e+01	-8.257684e+01
8.400000e-07	-4.146351e-06	-1.235649e-09	-2.880605e+01	-8.234233e+01
8.500000e-07	-4.115170e-06	-1.238005e-09	-2.858942e+01	-8.210513e+01
8.600000e-07	-4.083798e-06	-1.244410e-09	-2.837148e+01	-8.186543e+01
8.700000e-07	-4.052283e-06	-1.238991e-09	-2.815253e+01	-8.162343e+01
8.800000e-07	-4.020609e-06	-1.233706e-09	-2.793248e+01	-8.137932e+01
8.900000e-07	-3.988737e-06	-1.231427e-09	-2.771105e+01	-8.113332e+01
9.000000e-07	-3.956637e-06	-1.217314e-09	-2.748805e+01	-8.088563e+01
9.100000e-07	-3.924246e-06	-1.204456e-09	-2.726301e+01	-8.063645e+01
9.200000e-07	-3.891370e-06	-1.203930e-09	-2.703461e+01	-8.038597e+01
9.300000e-07	-3.857954e-06	-1.200860e-09	-2.680246e+01	-8.013438e+01
9.400000e-07	-3.824076e-06	-1.196494e-09	-2.656710e+01	-7.988184e+01
9.500000e-07	-3.789746e-06	-1.199911e-09	-2.632860e+01	-7.962850e+01
9.600000e-07	-3.755091e-06	-1.197912e-09	-2.608784e+01	-7.937448e+01
9.700000e-07	-3.720151e-06	-1.181810e-09	-2.584510e+01	-7.911988e+01
9.800000e-07	-3.684877e-06	-1.174126e-09	-2.560004e+01	-7.886478e+01
9.900000e-07	-3.649396e-06	-1.171814e-09	-2.535354e+01	-7.860920e+01
1.000000e-06	-3.613783e-06	-1.162314e-09	-2.510613e+01	-7.835316e+01
1.010000e-06	-3.578005e-06	-1.152730e-09	-2.485756e+01	-7.809663e+01
1.020000e-06	-3.542067e-06	-1.156328e-09	-2.460789e+01	-7.783954e+01
1.030000e-06	-3.505959e-06	-1.155289e-09	-2.435704e+01	-7.758179e+01
1.040000e-06	-3.469579e-06	-1.150288e-09	-2.410429e+01	-7.732324e+01
1.050000e-06	-3.432954e-06	-1.147615e-09	-2.384985e+01	-7.706371e+01
1.060000e-06	-3.396103e-06	-1.143154e-09	-2.359384e+01	-7.680300e+01
1.070000e-06	-3.358975e-06	-1.128079e-09	-2.333589e+01	-7.654085e+01
1.080000e-06	-3.321546e-06	-1.118430e-09	-2.307586e+01	-7.627698e+01
1.090000e-06	-3.283948e-06	-1.114380e-09	-2.281465e+01	-7.601109e+01
1.100000e-06	-3.246229e-06	-1.109021e-09	-2.255261e+01	-7.574283e+01
1.110000e-06	-3.208263e-06	-1.103403e-09	-2.228884e+01	-7.547183e+01
1.120000e-06	-3.170046e-06	-1.102145e-09	-2.202334e+01	-7.519771e+01
1.130000e-06	-3.131597e-06	-1.096335e-09	-2.175622e+01	-7.492007e+01
1.140000e-06	-3.092937e-06	-1.087672e-09	-2.148764e+01	-7.463847e+01
1.150000e-06	-3.054016e-06	-1.084458e-09	-2.121725e+01	-7.435249e+01
1.160000e-06	-3.014859e-06	-1.080095e-09	-2.094520e+01	-7.406170e+01
1.170000e-06	-2.975542e-06	-1.069083e-09	-2.067206e+01	-7.376565e+01
1.180000e-06	-2.936069e-06	-1.062477e-09	-2.039783e+01	-7.346391e+01
1.190000e-06	-2.896453e-06	-1.060208e-09	-2.012260e+01	-7.315606e+01
1.200000e-06	-2.856744e-06	-1.053902e-09	-1.984673e+01	-7.284167e+01
1.210000e-06	-2.816964e-06	-1.045984e-09	-1.957037e+01	-7.252035e+01
1.220000e-06	-2.777057e-06	-1.040970e-09	-1.929312e+01	-7.219173e+01
1.230000e-06	-2.736867e-06	-1.034364e-09	-1.901390e+01	-7.185545e+01
1.240000e-06	-2.696424e-06	-1.023606e-09	-1.873293e+01	-7.151119e+01
1.250000e-06	-2.655802e-06	-1.017586e-09	-1.845072e+01	-7.115866e+01
1.260000e-06	-2.615011e-06	-1.013097e-09	-1.816733e+01	-7.079759e+01
1.270000e-06	-2.573971e-06	-1.004955e-09	-1.788222e+01	-7.042777e+01
1.280000e-06	-2.532520e-06	-9.964282e-10	-1.759424e+01	-7.004901e+01
1.290000e-06	-2.490594e-06	-9.925144e-10	-1.730296e+01	-6.966116e+01
1.300000e-06	-2.448288e-06	-9.859987e-10	-1.700905e+01	-6.926413e+01
1.310000e-06	-2.405793e-06	-9.770603e-10	-1.671383e+01	-6.885783e+01
1.320000e-06	-2.363043e-06	-9.689528e-10	-1.641683e+01	-6.844225e+01
1.330000e-06	-2.320023e-06	-9.614013e-10	-1.611796e+01	-6.801739e+01
1.340000e-06	-2.276876e-06	-9.540052e-10	-1.581820e+01	-6.758329e+01
1.350000e-06	-2.233628e-06	-9.509013e-10	-1.551774e+01	-6.714003e+01
1.360000e-06	-2.190230e-06	-9.491605e-10	-1.521624e+01	-6.668771e+01
1.370000e-06	-2.146692e-06	-9.446917e-10	-1.491376e+01	-6.622645e+01
1.380000e-06	-2.103063e-06	-9.379572e-10	-1.461066e+01	-6.575640e+01
1.390000e-06	-2.059342e-06	-9.290311e-10	-1.430692e+01	-6.527772e+01
1.400000e-06	-2.015558e-06	-9.147667e-10	-1.400274e+01	-6.479058e+01
1.410000e-06	-1.971720e-06	-9.014599e-10	-1.369818e+01	-6.429514e+01
1.420000e-06	-1.927791e-06	-8.921056e-10	-1.339299e+01	-6.379159e+01
1.430000e-06	-1.883794e-06	-8.851724e-10	-1.308733e+01	-6.328007e+01
1.440000e-06	-1.839690e-06	-8.801744e-10	-1.278093e+01	-6.276073e+01
1.450000e-06	-1.795455e-06	-8.764445e-10	-1.247361e+01	-6.223368e+01
1.460000e-06	-1.751113e-06	-8.712941e-10	-1.216555e+01	-6.169900e+01
1.470000e-06	-1.706627e-06	-8.623239e-10	-1.185649e+01	-6.115674e+01
1.480000e-06	-1.661974e-06	-8.518061e-10	-1.154628e+01	-6.060691e+01
1.490000e-06	-1.617168e-06	-8.408333e-10	-1.123499e+01	-6.004945e+01
1.500000e-06	-1.572216e-06	-8.268388e-10	-1.092269e+01	-5.948426e+01
1.510000e-06	-1.527108e-06	-8.141181e-10	-1.060931e+01	-5.891116e+01
1.520000e-06	-1.481871e-06	-8.066045e-10	-1.029504e+01	-5.832991e+01
1.530000e-06	-1.436522e-06	-8.000383e-10	-9.979984e+00	-5.774021e+01
1.540000e-06	-1.391074e-06	-7.912248e-10	-9.664246e+00	-5.714165e+01
1.550000e-06	-1.345573e-06	-7.803851e-10	-9.348134e+00	-5.653377e+01
1.560000e-06	-1.300074e-06	-7.679897e-10	-9.032035e+00	-5.591600e+01
1.570000e-06	-1.254532e-06	-7.525122e-10	-8.715644e+00	-5.528771e+01
1.580000e-06	-1.208861e-06	-7.366748e-10	-8.398351e+00	-5.464817e+01
1.590000e-06	-1.163102e-06	-7.224779e-10	-8.080450e+00	-5.399656e+01
1.600000e-06	-1.117272e-06	-7.091725e-10	-7.762051e+00	-5.333200e+01
1.610000e-06	-1.071350e-06	-6.965907e-10	-7.443014e+00	-5.265348e+01
1.620000e-06	-1.025343e-06	-6.863100e-10	-7.123389e+00	-5.195997e+01
1.630000e-06	-9.792558e-07	-6.762193e-10	-6.803209e+00	-5.125032e+01
1.640000e-06	-9.331339e-07	-6.650887e-10	-6.482785e+00	-5.052333e+01
1.650000e-06	-8.869105e-07	-6.543669e-10	-6.161655e+00	-4.977773e+01
1.660000e-06	-8.405752e-07	-6.444657e-10	-5.839749e+00	-4.901220e+01
1.670000e-06	-7.942304e-07	-6.312838e-10	-5.517777e+00	-4.822537e+01
1.680000e-06	-7.478588e-07	-6.158347e-10	-5.195618e+00	-4.741583e+01
1.690000e-06	-7.013606e-07	-6.015761e-10	-4.872580e+00	-4.658213e+01
1.700000e-06	-6.547784e-07	-5.864431e-10	-4.548958e+00	-4.572283e+01
1.710000e-06	-6.081784e-07	-5.686774e-10	-4.225213e+00	-4.483646e+01
1.720000e-06	-5.614948e-07	-5.521183e-10	-3.900887e+00	-4.392155e+01
1.730000e-06	-5.147245e-07	-5.365314e-10	-3.575959e+00	-4.297667e+01
1.740000e-06	-4.678893e-07	-5.219375e-10	-3.250579e+00	-4.200040e+01
1.750000e-06	-4.211092e-07	-5.085365e-10	-2.925582e+00	-4.099136e+01
1.760000e-06	-3.743577e-07	-4.937728e-10	-2.600785e+00	-3.994824e+01
1.770000e-06	-3.275071e-07	-4.767351e-10	-2.275299e+00	-3.886978e+01
1.780000e-06	-2.806419e-07	-4.589717e-10	-1.949710e+00	-3.775483e+01
1.790000e-06	-2.338349e-07	-4.423450e-10	-1.624527e+00	-3.660229e+01
1.800000e-06	-1.870195e-07	-4.267160e-10	-1.299285e+00	-3.541120e+01
1.810000e-06	-1.401444e-07	-4.106386e-10	-9.736287e-01	-3.418070e+01
1.820000e-06	-9.325991e-08	-3.931766e-10	-6.479069e-01	-3.291006e+01
1.830000e-06	-4.635533e-08	-3.728165e-10	-3.220455e-01	-3.159869e+01
1.840000e-06	5.824403e-10	-3.506866e-10	4.046402e-03	-3.024615e+01
1.850000e-06	4.749265e-08	-3.317159e-10	3.299469e-01	-2.885215e+01
1.860000e-06	9.441074e-08	-3.139225e-10	6.559021e-01	-2.741657e+01
1.870000e-06	1.413074e-07	-2.952964e-10	9.817087e-01	-2.593946e+01
1.880000e-06	1.881522e-07	-2.764576e-10	1.307155e+00	-2.442103e+01
1.890000e-06	2.350278e-07	-2.559761e-10	1.632815e+00	-2.286170e+01
1.900000e-06	2.818651e-07	-2.329824e-10	1.958209e+00	-2.126203e+01
1.910000e-06	3.286258e-07	-2.084279e-10	2.283070e+00	-1.962280e+01
1.920000e-06	3.754014e-07	-1.837515e-10	2.608036e+00	-1.794496e+01
1.930000e-06	4.222005e-07	-1.610610e-10	2.933164e+00	-1.622965e+01
1.940000e-06	4.689360e-07	-1.403643e-10	3.257851e+00	-1.447817e+01
1.950000e-06	5.155767e-07	-1.200713e-10	3.581879e+00	-1.269201e+01
1.960000e-06	5.621571e-07	-9.852237e-11	3.905488e+00	-1.087284e+01
1.970000e-06	6.086832e-07	-7.517992e-11	4.228720e+00	-9.022469e+00
1.980000e-06	6.551339e-07	-5.021526e-11	4.551428e+00	-7.142877e+00
1.990000e-06	7.015924e-07	-2.200554e-11	4.874191e+00	-5.236188e+00
2.000000e-06	7.480642e-07	8.280766e-12	5.197045e+00	-3.304659e+00
2.010000e-06	7.944486e-07	3.677876e-11	5.519293e+00	-1.350673e+00
2.020000e-06	8.406956e-07	6.412927e-11	5.840586e+00	6.232753e-01
2.030000e-06	8.869103e-07	9.089715e-11	6.161654e+00	2.614593e+00
2.040000e-06	9.331120e-07	1.162729e-10	6.482632e+00	4.620603e+00
2.050000e-06	9.791843e-07	1.402357e-10	6.802711e+00	6.638556e+00
2.060000e-06	1.025176e-06	1.655767e-10	7.122234e+00	8.665652e+00
2.070000e-06	1.071060e-06	1.934019e-10	7.441001e+00	1.069905e+01
2.080000e-06	1.116816e-06	2.216743e-10	7.758882e+00	1.273588e+01
2.090000e-06	1.162492e-06	2.501928e-10	8.076213e+00	1.477327e+01
2.100000e-06	1.208131e-06	2.804204e-10	8.393282e+00	1.680836e+01
2.110000e-06	1.253764e-06	3.098833e-10	8.710309e+00	1.883831e+01
2.120000e-06	1.299296e-06	3.356752e-10	9.026629e+00	2.086031e+01
2.130000e-06	1.344744e-06	3.606506e-10	9.342375e+00	2.287162e+01
2.140000e-06	1.390157e-06	3.850124e-10	9.657873e+00	2.486956e+01
2.150000e-06	1.435437e-06	4.076855e-10	9.972449e+00	2.685154e+01
2.160000e-06	1.480588e-06	4.309330e-10	1.028612e+01	2.881505e+01
2.170000e-06	1.525624e-06	4.563197e-10	1.059900e+01	3.075771e+01
2.180000e-06	1.570570e-06	4.837123e-10	1.091126e+01	3.267724e+01
2.190000e-06	1.615460e-06	5.125640e-10	1.122313e+01	3.457151e+01
2.200000e-06	1.660234e-06	5.413368e-10	1.153419e+01	3.643850e+01
2.210000e-06	1.704797e-06	5.675746e-10	1.184378e+01	3.827636e+01
2.220000e-06	1.749209e-06	5.912452e-10	1.215233e+01	4.008340e+01
2.230000e-06	1.793543e-06	6.123507e-10	1.246032e+01	4.185805e+01
2.240000e-06	1.837769e-06	6.306742e-10	1.276758e+01	4.359894e+01
2.250000e-06	1.881849e-06	6.489767e-10	1.307382e+01	4.530485e+01
2.260000e-06	1.925792e-06	6.700808e-10	1.337910e+01	4.697474e+01
2.270000e-06	1.969622e-06	6.945471e-10	1.368361e+01	4.860771e+01
2.280000e-06	2.013374e-06	7.192561e-10	1.398756e+01	5.020305e+01
2.290000e-06	2.057124e-06	7.418122e-10	1.429151e+01	5.176020e+01
2.300000e-06	2.100814e-06	7.633397e-10	1.459504e+01	5.327877e+01
2.310000e-06	2.144397e-06	7.819651e-10	1.489783e+01	5.475852e+01
2.320000e-06	2.187888e-06	7.987513e-10	1.519997e+01	5.619936e+01
2.330000e-06	2.231274e-06	8.160943e-10	1.550139e+01	5.760134e+01
2.340000e-06	2.274473e-06	8.339818e-10	1.580150e+01	5.896464e+01
2.350000e-06	2.317477e-06	8.527409e-10	1.610027e+01	6.028958e+01
2.360000e-06	2.360341e-06	8.696696e-10	1.639806e+01	6.157658e+01
2.370000e-06	2.402975e-06	8.862783e-10	1.669425e+01	6.282618e+01
2.380000e-06	2.445297e-06	9.018204e-10	1.698828e+01	6.403902e+01
2.390000e-06	2.487360e-06	9.162351e-10	1.728050e+01	6.521581e+01
2.400000e-06	2.529180e-06	9.304340e-10	1.757104e+01	6.635734e+01
2.410000e-06	2.570670e-06	9.470173e-10	1.785928e+01	6.746447e+01
2.420000e-06	2.611833e-06	9.645820e-10	1.814525e+01	6.853810e+01
2.430000e-06	2.652748e-06	9.810409e-10	1.842951e+01	6.957920e+01
2.440000e-06	2.693379e-06	9.966717e-10	1.871178e+01	7.058873e+01
2.450000e-06	2.733714e-06	1.009598e-09	1.899200e+01	7.156770e+01
2.460000e-06	2.773906e-06	1.023055e-09	1.927123e+01	7.251712e+01
2.470000e-06	2.813928e-06	1.036360e-09	1.954927e+01	7.343799e+01
2.480000e-06	2.853700e-06	1.049594e-09	1.982559e+01	7.433132e+01
2.490000e-06	2.893336e-06	1.062766e-09	2.010094e+01	7.519809e+01
2.500000e-06	2.932873e-06	1.074958e-09	2.037562e+01	7.603925e+01
2.510000e-06	2.972296e-06	1.088320e-09	2.064950e+01	7.685572e+01
2.520000e-06	3.011578e-06	1.099974e-09	2.092241e+01	7.764838e+01
2.530000e-06	3.050637e-06	1.112468e-09	2.119377e+01	7.841808e+01
2.540000e-06	3.089451e-06	1.125363e-09	2.146342e+01	7.916560e+01
2.550000e-06	3.128068e-06	1.134672e-09	2.173170e+01	7.989168e+01
2.560000e-06	3.166450e-06	1.141134e-09	2.199836e+01	8.059699e+01
2.570000e-06	3.204603e-06	1.145451e-09	2.226342e+01	8.128217e+01
2.580000e-06	3.242581e-06	1.150735e-09	2.252727e+01	8.194776e+01
2.590000e-06	3.280383e-06	1.157206e-09	2.278989e+01	8.259428e+01
2.600000e-06	3.317988e-06	1.169118e-09	2.305114e+01	8.322217e+01
2.610000e-06	3.355263e-06	1.185280e-09	2.331010e+01	8.383183e+01
2.620000e-06	3.392230e-06	1.199837e-09	2.356693e+01	8.442360e+01
2.630000e-06	3.429048e-06	1.208899e-09	2.382271e+01	8.499776e+01
2.640000e-06	3.465610e-06	1.213417e-09	2.407672e+01	8.555455e+01
2.650000e-06	3.501869e-06	1.217110e-09	2.432862e+01	8.609417e+01
2.660000e-06	3.537922e-06	1.220164e-09	2.457909e+01	8.661678e+01
2.670000e-06	3.573762e-06	1.222733e-09	2.482809e+01	8.712251e+01
2.680000e-06	3.609428e-06	1.227821e-09	2.507587e+01	8.761147e+01
2.690000e-06	3.645010e-06	1.237878e-09	2.532307e+01	8.808372e+01
2.700000e-06	3.680492e-06	1.248359e-09	2.556957e+01	8.853934e+01
2.710000e-06	3.715767e-06	1.254844e-09	2.581464e+01	8.897837e+01
2.720000e-06	3.750756e-06	1.258634e-09	2.605772e+01	8.940087e+01
2.730000e-06	3.785384e-06	1.258851e-09	2.629829e+01	8.980689e+01
2.740000e-06	3.819508e-06	1.258310e-09	2.653537e+01	9.019649e+01
2.750000e-06	3.853233e-06	1.260406e-09	2.676966e+01	9.056973e+01
2.760000e-06	3.886674e-06	1.266812e-09	2.700199e+01	9.092672e+01
2.770000e-06	3.919725e-06	1.275365e-09	2.723160e+01	9.126755e+01
2.780000e-06	3.952308e-06	1.283258e-09	2.745797e+01	9.159237e+01
2.790000e-06	3.984457e-06	1.290035e-09	2.768132e+01	9.190134e+01
2.800000e-06	4.016318e-06	1.295138e-09	2.790267e+01	9.219466e+01
2.810000e-06	4.047992e-06	1.299516e-09	2.812272e+01	9.247257e+01
2.820000e-06	4.079497e-06	1.303190e-09	2.834159e+01	9.273535e+01
2.830000e-06	4.110835e-06	1.306799e-09	2.855931e+01	9.298330e+01
2.840000e-06	4.141981e-06	1.310317e-09	2.877569e+01	9.321677e+01
2.850000e-06	4.172883e-06	1.314438e-09	2.899037e+01	9.343616e+01
2.860000e-06	4.203447e-06	1.319669e-09	2.920271e+01	9.364189e+01
2.870000e-06	4.233672e-06	1.324928e-09	2.941270e+01	9.383443e+01
2.880000e-06	4.263641e-06	1.327716e-09	2.962090e+01	9.401428e+01
2.890000e-06	4.293354e-06	1.330266e-09	2.982733e+01	9.418196e+01
2.900000e-06	4.322825e-06	1.334293e-09	3.003207e+01	9.433805e+01
