# Temperatura_=_11.9
# Concentracion g/m^3_=_1620.0
# C_Vs_to_Am_M_A/Vsm_=_65563218390.804596
# pendiente_HvsI_1/m_=_3716.3
# ordenada_HvsI_A/m_=_1297.0
# frecuencia_Hz_=_135105.93677572953

Tiempo_(s)	Campo_(V.s)	Magnetizacion_(V.s)	Campo_(kA/m)	Magnetizacion_(A/m)
0.000000e+00	-5.536344e-06	-1.738683e-09	-3.838230e+01	-1.135137e+02
1.000000e-08	-5.536487e-06	-1.738374e-09	-3.838328e+01	-1.134748e+02
2.000000e-08	-5.536329e-06	-1.739781e-09	-3.838219e+01	-1.134332e+02
3.000000e-08	-5.535728e-06	-1.741462e-09	-3.837802e+01	-1.133886e+02
4.000000e-08	-5.534567e-06	-1.742359e-09	-3.836997e+01	-1.133407e+02
5.000000e-08	-5.532780e-06	-1.736675e-09	-3.835759e+01	-1.132891e+02
6.000000e-08	-5.530356e-06	-1.731423e-09	-3.834078e+01	-1.132334e+02
7.000000e-08	-5.527424e-06	-1.749797e-09	-3.832045e+01	-1.131733e+02
8.000000e-08	-5.524049e-06	-1.750341e-09	-3.829705e+01	-1.131086e+02
9.000000e-08	-5.520207e-06	-1.713212e-09	-3.827042e+01	-1.130387e+02
1.000000e-07	-5.515962e-06	-1.729112e-09	-3.824099e+01	-1.129636e+02
1.100000e-07	-5.511432e-06	-1.770624e-09	-3.820958e+01	-1.128827e+02
1.200000e-07	-5.506672e-06	-1.729875e-09	-3.817658e+01	-1.127960e+02
1.300000e-07	-5.501683e-06	-1.667364e-09	-3.814199e+01	-1.127031e+02
1.400000e-07	-5.496381e-06	-1.673162e-09	-3.810524e+01	-1.126038e+02
1.500000e-07	-5.490634e-06	-1.773199e-09	-3.806539e+01	-1.124980e+02
1.600000e-07	-5.484438e-06	-1.763638e-09	-3.802244e+01	-1.123855e+02
1.700000e-07	-5.477836e-06	-1.695335e-09	-3.797667e+01	-1.122662e+02
1.800000e-07	-5.470869e-06	-1.678016e-09	-3.792837e+01	-1.121400e+02
1.900000e-07	-5.463578e-06	-1.747801e-09	-3.787782e+01	-1.120070e+02
2.000000e-07	-5.455999e-06	-1.738219e-09	-3.782528e+01	-1.118671e+02
2.100000e-07	-5.448241e-06	-1.684932e-09	-3.777149e+01	-1.117204e+02
2.200000e-07	-5.440207e-06	-1.676671e-09	-3.771579e+01	-1.115669e+02
2.300000e-07	-5.431705e-06	-1.732490e-09	-3.765686e+01	-1.114069e+02
2.400000e-07	-5.422621e-06	-1.740891e-09	-3.759388e+01	-1.112405e+02
2.500000e-07	-5.412912e-06	-1.692192e-09	-3.752656e+01	-1.110679e+02
2.600000e-07	-5.402516e-06	-1.668452e-09	-3.745449e+01	-1.108894e+02
2.700000e-07	-5.391541e-06	-1.683582e-09	-3.737840e+01	-1.107053e+02
2.800000e-07	-5.380141e-06	-1.695498e-09	-3.729937e+01	-1.105158e+02
2.900000e-07	-5.368345e-06	-1.668326e-09	-3.721759e+01	-1.103213e+02
3.000000e-07	-5.356186e-06	-1.661655e-09	-3.713330e+01	-1.101222e+02
3.100000e-07	-5.343621e-06	-1.669080e-09	-3.704618e+01	-1.099188e+02
3.200000e-07	-5.330683e-06	-1.690568e-09	-3.695649e+01	-1.097116e+02
3.300000e-07	-5.317374e-06	-1.647614e-09	-3.686422e+01	-1.095008e+02
3.400000e-07	-5.303546e-06	-1.632525e-09	-3.676836e+01	-1.092870e+02
3.500000e-07	-5.289248e-06	-1.653631e-09	-3.666923e+01	-1.090705e+02
3.600000e-07	-5.274559e-06	-1.674253e-09	-3.656739e+01	-1.088517e+02
3.700000e-07	-5.259309e-06	-1.635831e-09	-3.646167e+01	-1.086311e+02
3.800000e-07	-5.243572e-06	-1.665065e-09	-3.635256e+01	-1.084089e+02
3.900000e-07	-5.227519e-06	-1.683364e-09	-3.624128e+01	-1.081855e+02
4.000000e-07	-5.210998e-06	-1.621795e-09	-3.612674e+01	-1.079613e+02
4.100000e-07	-5.194087e-06	-1.589371e-09	-3.600950e+01	-1.077366e+02
4.200000e-07	-5.176957e-06	-1.665653e-09	-3.589074e+01	-1.075116e+02
4.300000e-07	-5.159442e-06	-1.649833e-09	-3.576931e+01	-1.072866e+02
4.400000e-07	-5.141609e-06	-1.585487e-09	-3.564568e+01	-1.070618e+02
4.500000e-07	-5.123488e-06	-1.643208e-09	-3.552005e+01	-1.068373e+02
4.600000e-07	-5.104939e-06	-1.688996e-09	-3.539146e+01	-1.066133e+02
4.700000e-07	-5.085900e-06	-1.592466e-09	-3.525946e+01	-1.063899e+02
4.800000e-07	-5.066505e-06	-1.585625e-09	-3.512500e+01	-1.061672e+02
4.900000e-07	-5.046905e-06	-1.658473e-09	-3.498912e+01	-1.059450e+02
5.000000e-07	-5.027070e-06	-1.596096e-09	-3.485161e+01	-1.057235e+02
5.100000e-07	-5.006925e-06	-1.543430e-09	-3.471194e+01	-1.055024e+02
5.200000e-07	-4.986433e-06	-1.633340e-09	-3.456987e+01	-1.052818e+02
5.300000e-07	-4.965608e-06	-1.636970e-09	-3.442550e+01	-1.050614e+02
5.400000e-07	-4.944384e-06	-1.555584e-09	-3.427836e+01	-1.048411e+02
5.500000e-07	-4.922822e-06	-1.604528e-09	-3.412888e+01	-1.046206e+02
5.600000e-07	-4.900961e-06	-1.638883e-09	-3.397732e+01	-1.043998e+02
5.700000e-07	-4.878757e-06	-1.554782e-09	-3.382338e+01	-1.041783e+02
5.800000e-07	-4.856247e-06	-1.554090e-09	-3.366733e+01	-1.039558e+02
5.900000e-07	-4.833407e-06	-1.617740e-09	-3.350898e+01	-1.037320e+02
6.000000e-07	-4.810193e-06	-1.562342e-09	-3.334805e+01	-1.035066e+02
6.100000e-07	-4.786673e-06	-1.528470e-09	-3.318498e+01	-1.032793e+02
6.200000e-07	-4.762964e-06	-1.577910e-09	-3.302062e+01	-1.030497e+02
6.300000e-07	-4.739074e-06	-1.565734e-09	-3.285499e+01	-1.028174e+02
6.400000e-07	-4.714847e-06	-1.523719e-09	-3.268703e+01	-1.025822e+02
6.500000e-07	-4.690138e-06	-1.565090e-09	-3.251573e+01	-1.023437e+02
6.600000e-07	-4.664993e-06	-1.568590e-09	-3.234140e+01	-1.021016e+02
6.700000e-07	-4.639431e-06	-1.529522e-09	-3.216419e+01	-1.018556e+02
6.800000e-07	-4.613233e-06	-1.540650e-09	-3.198256e+01	-1.016054e+02
6.900000e-07	-4.586493e-06	-1.557460e-09	-3.179718e+01	-1.013507e+02
7.000000e-07	-4.559462e-06	-1.520184e-09	-3.160978e+01	-1.010914e+02
7.100000e-07	-4.532109e-06	-1.518387e-09	-3.142015e+01	-1.008272e+02
7.200000e-07	-4.504511e-06	-1.538079e-09	-3.122882e+01	-1.005579e+02
7.300000e-07	-4.476748e-06	-1.526581e-09	-3.103634e+01	-1.002835e+02
7.400000e-07	-4.448739e-06	-1.516669e-09	-3.084216e+01	-1.000038e+02
7.500000e-07	-4.420447e-06	-1.527609e-09	-3.064602e+01	-9.971870e+01
7.600000e-07	-4.391915e-06	-1.512858e-09	-3.044821e+01	-9.942825e+01
7.700000e-07	-4.363075e-06	-1.497397e-09	-3.024827e+01	-9.913243e+01
7.800000e-07	-4.333903e-06	-1.500073e-09	-3.004603e+01	-9.883128e+01
7.900000e-07	-4.304445e-06	-1.492110e-09	-2.984180e+01	-9.852489e+01
8.000000e-07	-4.274580e-06	-1.475596e-09	-2.963475e+01	-9.821335e+01
8.100000e-07	-4.244399e-06	-1.478829e-09	-2.942551e+01	-9.789680e+01
8.200000e-07	-4.214023e-06	-1.477905e-09	-2.921493e+01	-9.757542e+01
8.300000e-07	-4.183351e-06	-1.461470e-09	-2.900228e+01	-9.724938e+01
8.400000e-07	-4.152409e-06	-1.462809e-09	-2.878777e+01	-9.691891e+01
8.500000e-07	-4.121262e-06	-1.472073e-09	-2.857183e+01	-9.658422e+01
8.600000e-07	-4.089877e-06	-1.463598e-09	-2.835425e+01	-9.624556e+01
8.700000e-07	-4.058221e-06	-1.449970e-09	-2.813478e+01	-9.590319e+01
8.800000e-07	-4.026379e-06	-1.448499e-09	-2.791403e+01	-9.555735e+01
8.900000e-07	-3.994370e-06	-1.434067e-09	-2.769212e+01	-9.520829e+01
9.000000e-07	-3.962119e-06	-1.417962e-09	-2.746853e+01	-9.485628e+01
9.100000e-07	-3.929547e-06	-1.414664e-09	-2.724271e+01	-9.450156e+01
9.200000e-07	-3.896505e-06	-1.412367e-09	-2.701364e+01	-9.414434e+01
9.300000e-07	-3.862993e-06	-1.398305e-09	-2.678131e+01	-9.378485e+01
9.400000e-07	-3.829083e-06	-1.397055e-09	-2.654622e+01	-9.342328e+01
9.500000e-07	-3.794835e-06	-1.397108e-09	-2.630878e+01	-9.305978e+01
9.600000e-07	-3.760174e-06	-1.383163e-09	-2.606849e+01	-9.269451e+01
9.700000e-07	-3.725151e-06	-1.369378e-09	-2.582568e+01	-9.232756e+01
9.800000e-07	-3.689947e-06	-1.371361e-09	-2.558162e+01	-9.195901e+01
9.900000e-07	-3.654560e-06	-1.365610e-09	-2.533628e+01	-9.158889e+01
1.000000e-06	-3.618954e-06	-1.356000e-09	-2.508944e+01	-9.121721e+01
1.010000e-06	-3.583122e-06	-1.352334e-09	-2.484102e+01	-9.084390e+01
1.020000e-06	-3.547088e-06	-1.346649e-09	-2.459121e+01	-9.046890e+01
1.030000e-06	-3.510834e-06	-1.332315e-09	-2.433986e+01	-9.009209e+01
1.040000e-06	-3.474398e-06	-1.327424e-09	-2.408726e+01	-8.971329e+01
1.050000e-06	-3.437748e-06	-1.326337e-09	-2.383317e+01	-8.933231e+01
1.060000e-06	-3.400730e-06	-1.317047e-09	-2.357654e+01	-8.894890e+01
1.070000e-06	-3.363500e-06	-1.305445e-09	-2.331843e+01	-8.856280e+01
1.080000e-06	-3.326146e-06	-1.299483e-09	-2.305946e+01	-8.817369e+01
1.090000e-06	-3.288474e-06	-1.289202e-09	-2.279829e+01	-8.778123e+01
1.100000e-06	-3.250479e-06	-1.275249e-09	-2.253488e+01	-8.738506e+01
1.110000e-06	-3.212328e-06	-1.266793e-09	-2.227038e+01	-8.698479e+01
1.120000e-06	-3.173971e-06	-1.258043e-09	-2.200446e+01	-8.658000e+01
1.130000e-06	-3.135426e-06	-1.248208e-09	-2.173724e+01	-8.617028e+01
1.140000e-06	-3.096710e-06	-1.245105e-09	-2.146883e+01	-8.575519e+01
1.150000e-06	-3.057696e-06	-1.248713e-09	-2.119835e+01	-8.533429e+01
1.160000e-06	-3.018403e-06	-1.245747e-09	-2.092594e+01	-8.490714e+01
1.170000e-06	-2.978961e-06	-1.239421e-09	-2.065250e+01	-8.447330e+01
1.180000e-06	-2.939432e-06	-1.233379e-09	-2.037845e+01	-8.403233e+01
1.190000e-06	-2.899793e-06	-1.223658e-09	-2.010365e+01	-8.358384e+01
1.200000e-06	-2.860059e-06	-1.209321e-09	-1.982818e+01	-8.312740e+01
1.210000e-06	-2.820169e-06	-1.197908e-09	-1.955163e+01	-8.266265e+01
1.220000e-06	-2.780064e-06	-1.189218e-09	-1.927359e+01	-8.218924e+01
1.230000e-06	-2.739688e-06	-1.180673e-09	-1.899367e+01	-8.170684e+01
1.240000e-06	-2.699048e-06	-1.172123e-09	-1.871192e+01	-8.121515e+01
1.250000e-06	-2.658211e-06	-1.168427e-09	-1.842881e+01	-8.071392e+01
1.260000e-06	-2.617143e-06	-1.164538e-09	-1.814409e+01	-8.020292e+01
1.270000e-06	-2.575758e-06	-1.157656e-09	-1.785718e+01	-7.968198e+01
1.280000e-06	-2.534050e-06	-1.147917e-09	-1.756803e+01	-7.915093e+01
1.290000e-06	-2.492078e-06	-1.136755e-09	-1.727705e+01	-7.860968e+01
1.300000e-06	-2.449848e-06	-1.121802e-09	-1.698427e+01	-7.805814e+01
1.310000e-06	-2.407367e-06	-1.108326e-09	-1.668977e+01	-7.749629e+01
1.320000e-06	-2.364642e-06	-1.099103e-09	-1.639356e+01	-7.692412e+01
1.330000e-06	-2.321667e-06	-1.093410e-09	-1.609562e+01	-7.634165e+01
1.340000e-06	-2.278479e-06	-1.087192e-09	-1.579621e+01	-7.574895e+01
1.350000e-06	-2.235106e-06	-1.082293e-09	-1.549552e+01	-7.514610e+01
1.360000e-06	-2.191646e-06	-1.075650e-09	-1.519421e+01	-7.453319e+01
1.370000e-06	-2.148124e-06	-1.066989e-09	-1.489248e+01	-7.391034e+01
1.380000e-06	-2.104494e-06	-1.054316e-09	-1.459001e+01	-7.327767e+01
1.390000e-06	-2.060710e-06	-1.038486e-09	-1.428646e+01	-7.263532e+01
1.400000e-06	-2.016826e-06	-1.022559e-09	-1.398222e+01	-7.198340e+01
1.410000e-06	-1.972891e-06	-1.009505e-09	-1.367763e+01	-7.132203e+01
1.420000e-06	-1.928884e-06	-9.993036e-10	-1.337254e+01	-7.065131e+01
1.430000e-06	-1.884790e-06	-9.908787e-10	-1.306685e+01	-6.997131e+01
1.440000e-06	-1.840569e-06	-9.830450e-10	-1.276027e+01	-6.928207e+01
1.450000e-06	-1.796146e-06	-9.735821e-10	-1.245230e+01	-6.858361e+01
1.460000e-06	-1.751578e-06	-9.625215e-10	-1.214332e+01	-6.787587e+01
1.470000e-06	-1.706938e-06	-9.489839e-10	-1.183384e+01	-6.715879e+01
1.480000e-06	-1.662187e-06	-9.340053e-10	-1.152359e+01	-6.643220e+01
1.490000e-06	-1.617324e-06	-9.194898e-10	-1.121256e+01	-6.569591e+01
1.500000e-06	-1.572334e-06	-9.037572e-10	-1.090066e+01	-6.494964e+01
1.510000e-06	-1.527200e-06	-8.865522e-10	-1.058775e+01	-6.419303e+01
1.520000e-06	-1.481899e-06	-8.733084e-10	-1.027369e+01	-6.342568e+01
1.530000e-06	-1.436466e-06	-8.618085e-10	-9.958710e+00	-6.264707e+01
1.540000e-06	-1.390952e-06	-8.522962e-10	-9.643173e+00	-6.185663e+01
1.550000e-06	-1.345368e-06	-8.402394e-10	-9.327150e+00	-6.105368e+01
1.560000e-06	-1.299703e-06	-8.250352e-10	-9.010564e+00	-6.023748e+01
1.570000e-06	-1.253864e-06	-8.071556e-10	-8.692771e+00	-5.940720e+01
1.580000e-06	-1.207888e-06	-7.913716e-10	-8.374030e+00	-5.856191e+01
1.590000e-06	-1.161904e-06	-7.758854e-10	-8.055232e+00	-5.770063e+01
1.600000e-06	-1.115938e-06	-7.587905e-10	-7.736558e+00	-5.682229e+01
1.610000e-06	-1.069929e-06	-7.435667e-10	-7.417588e+00	-5.592574e+01
1.620000e-06	-1.023822e-06	-7.296305e-10	-7.097937e+00	-5.500979e+01
1.630000e-06	-9.776802e-07	-7.162632e-10	-6.778049e+00	-5.407317e+01
1.640000e-06	-9.314604e-07	-7.039745e-10	-6.457616e+00	-5.311457e+01
1.650000e-06	-8.851350e-07	-6.917607e-10	-6.136453e+00	-5.213263e+01
1.660000e-06	-8.388049e-07	-6.777301e-10	-5.815255e+00	-5.112596e+01
1.670000e-06	-7.924079e-07	-6.622402e-10	-5.493595e+00	-5.009316e+01
1.680000e-06	-7.458468e-07	-6.448435e-10	-5.170797e+00	-4.903279e+01
1.690000e-06	-6.992395e-07	-6.261883e-10	-4.847678e+00	-4.794344e+01
1.700000e-06	-6.526386e-07	-6.061832e-10	-4.524605e+00	-4.682369e+01
1.710000e-06	-6.059817e-07	-5.847762e-10	-4.201142e+00	-4.567216e+01
1.720000e-06	-5.592985e-07	-5.626354e-10	-3.877498e+00	-4.448749e+01
1.730000e-06	-5.125377e-07	-5.419395e-10	-3.553315e+00	-4.326840e+01
1.740000e-06	-4.656914e-07	-5.264858e-10	-3.228539e+00	-4.201363e+01
1.750000e-06	-4.187884e-07	-5.123354e-10	-2.903371e+00	-4.072203e+01
1.760000e-06	-3.718602e-07	-4.961277e-10	-2.578028e+00	-3.939253e+01
1.770000e-06	-3.249428e-07	-4.770501e-10	-2.252759e+00	-3.802416e+01
1.780000e-06	-2.779784e-07	-4.541364e-10	-1.927165e+00	-3.661606e+01
1.790000e-06	-2.310360e-07	-4.299881e-10	-1.601724e+00	-3.516751e+01
1.800000e-06	-1.840758e-07	-4.060096e-10	-1.276158e+00	-3.367791e+01
1.810000e-06	-1.370563e-07	-3.826704e-10	-9.501823e-01	-3.214681e+01
1.820000e-06	-9.007243e-08	-3.597184e-10	-6.244529e-01	-3.057392e+01
1.830000e-06	-4.307194e-08	-3.373710e-10	-2.986086e-01	-2.895911e+01
1.840000e-06	3.951023e-09	-3.171494e-10	2.739160e-02	-2.730243e+01
1.850000e-06	5.090913e-08	-2.980653e-10	3.529421e-01	-2.560411e+01
1.860000e-06	9.788425e-08	-2.775273e-10	6.786107e-01	-2.386454e+01
1.870000e-06	1.448932e-07	-2.551074e-10	1.004514e+00	-2.208431e+01
1.880000e-06	1.918636e-07	-2.302079e-10	1.330149e+00	-2.026420e+01
1.890000e-06	2.388275e-07	-2.012918e-10	1.655740e+00	-1.840518e+01
1.900000e-06	2.858120e-07	-1.706171e-10	1.981474e+00	-1.650840e+01
1.910000e-06	3.328023e-07	-1.419559e-10	2.307247e+00	-1.457519e+01
1.920000e-06	3.797226e-07	-1.138852e-10	2.632536e+00	-1.260709e+01
1.930000e-06	4.265399e-07	-8.786235e-11	2.957110e+00	-1.060578e+01
1.940000e-06	4.733332e-07	-6.385020e-11	3.281518e+00	-8.573136e+00
1.950000e-06	5.201019e-07	-3.932079e-11	3.605755e+00	-6.511188e+00
1.960000e-06	5.667863e-07	-1.263088e-11	3.929409e+00	-4.422120e+00
1.970000e-06	6.134017e-07	1.589952e-11	4.252584e+00	-2.308261e+00
1.980000e-06	6.599892e-07	4.715168e-11	4.575565e+00	-1.720700e-01
1.990000e-06	7.065331e-07	7.991372e-11	4.898244e+00	1.983872e+00
2.000000e-06	7.529997e-07	1.117261e-10	5.220387e+00	4.156881e+00
2.010000e-06	7.994914e-07	1.436372e-10	5.542704e+00	6.344178e+00
2.020000e-06	8.459802e-07	1.763988e-10	5.865000e+00	8.542910e+00
2.030000e-06	8.923409e-07	2.088406e-10	6.186409e+00	1.075016e+01
2.040000e-06	9.385629e-07	2.397850e-10	6.506856e+00	1.296297e+01
2.050000e-06	9.847408e-07	2.687680e-10	6.826998e+00	1.517836e+01
2.060000e-06	1.030913e-06	2.951718e-10	7.147101e+00	1.739331e+01
2.070000e-06	1.076956e-06	3.224979e-10	7.466303e+00	1.960484e+01
2.080000e-06	1.122856e-06	3.506173e-10	7.784523e+00	2.180997e+01
2.090000e-06	1.168706e-06	3.820783e-10	8.102390e+00	2.400577e+01
2.100000e-06	1.214461e-06	4.160620e-10	8.419602e+00	2.618936e+01
2.110000e-06	1.260045e-06	4.493416e-10	8.735627e+00	2.835792e+01
2.120000e-06	1.305535e-06	4.798201e-10	9.050996e+00	3.050872e+01
2.130000e-06	1.351010e-06	5.081212e-10	9.366267e+00	3.263915e+01
2.140000e-06	1.396431e-06	5.345995e-10	9.681156e+00	3.474668e+01
2.150000e-06	1.441778e-06	5.591368e-10	9.995537e+00	3.682893e+01
2.160000e-06	1.487066e-06	5.843527e-10	1.030951e+01	3.888363e+01
2.170000e-06	1.532259e-06	6.121696e-10	1.062282e+01	4.090868e+01
2.180000e-06	1.577326e-06	6.416717e-10	1.093526e+01	4.290213e+01
2.190000e-06	1.622281e-06	6.708031e-10	1.124693e+01	4.486218e+01
2.200000e-06	1.667106e-06	6.987907e-10	1.155769e+01	4.678721e+01
2.210000e-06	1.711751e-06	7.258694e-10	1.186720e+01	4.867578e+01
2.220000e-06	1.756286e-06	7.519402e-10	1.217595e+01	5.052661e+01
2.230000e-06	1.800702e-06	7.754863e-10	1.248388e+01	5.233862e+01
2.240000e-06	1.844987e-06	7.971258e-10	1.279090e+01	5.411089e+01
2.250000e-06	1.889142e-06	8.156211e-10	1.309702e+01	5.584269e+01
2.260000e-06	1.933147e-06	8.345530e-10	1.340209e+01	5.753347e+01
2.270000e-06	1.977082e-06	8.559600e-10	1.370669e+01	5.918285e+01
2.280000e-06	2.020951e-06	8.787861e-10	1.401083e+01	6.079063e+01
2.290000e-06	2.064725e-06	9.025808e-10	1.431430e+01	6.235675e+01
2.300000e-06	2.108402e-06	9.276950e-10	1.461710e+01	6.388133e+01
2.310000e-06	2.152046e-06	9.509905e-10	1.491968e+01	6.536464e+01
2.320000e-06	2.195658e-06	9.700650e-10	1.522203e+01	6.680707e+01
2.330000e-06	2.239169e-06	9.865295e-10	1.552368e+01	6.820915e+01
2.340000e-06	2.282536e-06	1.002151e-09	1.582434e+01	6.957155e+01
2.350000e-06	2.325747e-06	1.018043e-09	1.612391e+01	7.089501e+01
2.360000e-06	2.368793e-06	1.034060e-09	1.642234e+01	7.218039e+01
2.370000e-06	2.411570e-06	1.050160e-09	1.671890e+01	7.342865e+01
2.380000e-06	2.454057e-06	1.066338e-09	1.701345e+01	7.464080e+01
2.390000e-06	2.496214e-06	1.080824e-09	1.730572e+01	7.581791e+01
2.400000e-06	2.538097e-06	1.096615e-09	1.759609e+01	7.696111e+01
2.410000e-06	2.579661e-06	1.113968e-09	1.788424e+01	7.807157e+01
2.420000e-06	2.620812e-06	1.129604e-09	1.816953e+01	7.915047e+01
2.430000e-06	2.661629e-06	1.146886e-09	1.845251e+01	8.019900e+01
2.440000e-06	2.702165e-06	1.163554e-09	1.873354e+01	8.121838e+01
2.450000e-06	2.742489e-06	1.177249e-09	1.901309e+01	8.220979e+01
2.460000e-06	2.782629e-06	1.187930e-09	1.929138e+01	8.317441e+01
2.470000e-06	2.822564e-06	1.197176e-09	1.956823e+01	8.411338e+01
2.480000e-06	2.862346e-06	1.207179e-09	1.984404e+01	8.502780e+01
2.490000e-06	2.902055e-06	1.220118e-09	2.011933e+01	8.591874e+01
2.500000e-06	2.941652e-06	1.234499e-09	2.039385e+01	8.678721e+01
2.510000e-06	2.981168e-06	1.250439e-09	2.066780e+01	8.763416e+01
2.520000e-06	3.020558e-06	1.265576e-09	2.094089e+01	8.846050e+01
2.530000e-06	3.059731e-06	1.279678e-09	2.121246e+01	8.926703e+01
2.540000e-06	3.098621e-06	1.292966e-09	2.148208e+01	9.005452e+01
2.550000e-06	3.137272e-06	1.300409e-09	2.175004e+01	9.082366e+01
2.560000e-06	3.175732e-06	1.305168e-09	2.201667e+01	9.157506e+01
2.570000e-06	3.213941e-06	1.311769e-09	2.228157e+01	9.230927e+01
2.580000e-06	3.251879e-06	1.320521e-09	2.254458e+01	9.302676e+01
2.590000e-06	3.289594e-06	1.331517e-09	2.280606e+01	9.372793e+01
2.600000e-06	3.327145e-06	1.346904e-09	2.306639e+01	9.441313e+01
2.610000e-06	3.364492e-06	1.363628e-09	2.332531e+01	9.508264e+01
2.620000e-06	3.401554e-06	1.377696e-09	2.358225e+01	9.573667e+01
2.630000e-06	3.438333e-06	1.385381e-09	2.383723e+01	9.637539e+01
2.640000e-06	3.474844e-06	1.389659e-09	2.409036e+01	9.699892e+01
2.650000e-06	3.511117e-06	1.393183e-09	2.434183e+01	9.760734e+01
2.660000e-06	3.547212e-06	1.398851e-09	2.459207e+01	9.820068e+01
2.670000e-06	3.583087e-06	1.406283e-09	2.484078e+01	9.877896e+01
2.680000e-06	3.618826e-06	1.416071e-09	2.508855e+01	9.934216e+01
2.690000e-06	3.654492e-06	1.427250e-09	2.533582e+01	9.989025e+01
2.700000e-06	3.690000e-06	1.433651e-09	2.558198e+01	1.004232e+02
2.710000e-06	3.725370e-06	1.435626e-09	2.582719e+01	1.009409e+02
2.720000e-06	3.760593e-06	1.438745e-09	2.607139e+01	1.014435e+02
2.730000e-06	3.795462e-06	1.446018e-09	2.631313e+01	1.019307e+02
2.740000e-06	3.829885e-06	1.455030e-09	2.655178e+01	1.024027e+02
2.750000e-06	3.863881e-06	1.465209e-09	2.678746e+01	1.028593e+02
2.760000e-06	3.897380e-06	1.475532e-09	2.701971e+01	1.033007e+02
2.770000e-06	3.930306e-06	1.483041e-09	2.724798e+01	1.037269e+02
2.780000e-06	3.962767e-06	1.485301e-09	2.747302e+01	1.041380e+02
2.790000e-06	3.994949e-06	1.485696e-09	2.769613e+01	1.045341e+02
2.800000e-06	4.026905e-06	1.487814e-09	2.791767e+01	1.049153e+02
2.810000e-06	4.058669e-06	1.493727e-09	2.813789e+01	1.052818e+02
2.820000e-06	4.090305e-06	1.504067e-09	2.835722e+01	1.056340e+02
2.830000e-06	4.121815e-06	1.517596e-09	2.857566e+01	1.059720e+02
2.840000e-06	4.153117e-06	1.528949e-09	2.879268e+01	1.062961e+02
2.850000e-06	4.184180e-06	1.534603e-09	2.900803e+01	1.066069e+02
2.860000e-06	4.214863e-06	1.536728e-09	2.922075e+01	1.069045e+02
2.870000e-06	4.245090e-06	1.538223e-09	2.943030e+01	1.071896e+02
2.880000e-06	4.275027e-06	1.539197e-09	2.963785e+01	1.074625e+02
2.890000e-06	4.304778e-06	1.541928e-09	2.984411e+01	1.077237e+02
2.900000e-06	4.334249e-06	1.547736e-09	3.004843e+01	1.079738e+02
