# Temperatura_=_-0.61
# Concentracion g/m^3_=_1620.0
# C_Vs_to_Am_M_A/Vsm_=_65563218390.804596
# pendiente_HvsI_1/m_=_3716.3
# ordenada_HvsI_A/m_=_1297.0
# frecuencia_Hz_=_135109.95080578528

Tiempo_(s)	Campo_(V.s)	Magnetizacion_(V.s)	Campo_(kA/m)	Magnetizacion_(A/m)
0.000000e+00	-5.513728e-06	-1.375360e-09	-3.835857e+01	-9.064995e+01
1.000000e-08	-5.513902e-06	-1.375414e-09	-3.835978e+01	-9.063292e+01
2.000000e-08	-5.513783e-06	-1.378628e-09	-3.835895e+01	-9.061789e+01
3.000000e-08	-5.513199e-06	-1.383323e-09	-3.835489e+01	-9.060477e+01
4.000000e-08	-5.512032e-06	-1.384407e-09	-3.834676e+01	-9.059339e+01
5.000000e-08	-5.510253e-06	-1.377463e-09	-3.833439e+01	-9.058356e+01
6.000000e-08	-5.507880e-06	-1.361875e-09	-3.831788e+01	-9.057505e+01
7.000000e-08	-5.504937e-06	-1.357517e-09	-3.829741e+01	-9.056761e+01
8.000000e-08	-5.501544e-06	-1.403905e-09	-3.827380e+01	-9.056094e+01
9.000000e-08	-5.497755e-06	-1.458702e-09	-3.824744e+01	-9.055474e+01
1.000000e-07	-5.493540e-06	-1.429488e-09	-3.821811e+01	-9.054865e+01
1.100000e-07	-5.489086e-06	-1.333094e-09	-3.818713e+01	-9.054233e+01
1.200000e-07	-5.484522e-06	-1.329091e-09	-3.815538e+01	-9.053540e+01
1.300000e-07	-5.479640e-06	-1.366758e-09	-3.812142e+01	-9.052746e+01
1.400000e-07	-5.474311e-06	-1.407263e-09	-3.808434e+01	-9.051814e+01
1.500000e-07	-5.468612e-06	-1.340829e-09	-3.804469e+01	-9.050702e+01
1.600000e-07	-5.462584e-06	-1.344022e-09	-3.800276e+01	-9.049370e+01
1.700000e-07	-5.456100e-06	-1.375671e-09	-3.795765e+01	-9.047780e+01
1.800000e-07	-5.449149e-06	-1.403435e-09	-3.790929e+01	-9.045893e+01
1.900000e-07	-5.441847e-06	-1.365489e-09	-3.785849e+01	-9.043671e+01
2.000000e-07	-5.434359e-06	-1.335957e-09	-3.780640e+01	-9.041079e+01
2.100000e-07	-5.426652e-06	-1.372650e-09	-3.775279e+01	-9.038083e+01
2.200000e-07	-5.418621e-06	-1.414621e-09	-3.769691e+01	-9.034652e+01
2.300000e-07	-5.410182e-06	-1.426797e-09	-3.763820e+01	-9.030756e+01
2.400000e-07	-5.401203e-06	-1.398120e-09	-3.757574e+01	-9.026372e+01
2.500000e-07	-5.391472e-06	-1.406900e-09	-3.750804e+01	-9.021476e+01
2.600000e-07	-5.380984e-06	-1.393942e-09	-3.743507e+01	-9.016048e+01
2.700000e-07	-5.370060e-06	-1.391871e-09	-3.735908e+01	-9.010075e+01
2.800000e-07	-5.358734e-06	-1.371106e-09	-3.728029e+01	-9.003543e+01
2.900000e-07	-5.346986e-06	-1.399585e-09	-3.719855e+01	-8.996445e+01
3.000000e-07	-5.334855e-06	-1.385086e-09	-3.711416e+01	-8.988777e+01
3.100000e-07	-5.322292e-06	-1.381212e-09	-3.702676e+01	-8.980539e+01
3.200000e-07	-5.309290e-06	-1.358546e-09	-3.693631e+01	-8.971734e+01
3.300000e-07	-5.295957e-06	-1.383658e-09	-3.684355e+01	-8.962370e+01
3.400000e-07	-5.282356e-06	-1.371793e-09	-3.674893e+01	-8.952456e+01
3.500000e-07	-5.268355e-06	-1.368116e-09	-3.665152e+01	-8.942008e+01
3.600000e-07	-5.253867e-06	-1.366525e-09	-3.655073e+01	-8.931042e+01
3.700000e-07	-5.238916e-06	-1.390892e-09	-3.644672e+01	-8.919579e+01
3.800000e-07	-5.223335e-06	-1.365340e-09	-3.633833e+01	-8.907641e+01
3.900000e-07	-5.207158e-06	-1.357349e-09	-3.622578e+01	-8.895255e+01
4.000000e-07	-5.190697e-06	-1.373341e-09	-3.611126e+01	-8.882446e+01
4.100000e-07	-5.173978e-06	-1.362671e-09	-3.599495e+01	-8.869245e+01
4.200000e-07	-5.156877e-06	-1.332270e-09	-3.587598e+01	-8.855680e+01
4.300000e-07	-5.139510e-06	-1.354580e-09	-3.575516e+01	-8.841784e+01
4.400000e-07	-5.121825e-06	-1.386585e-09	-3.563213e+01	-8.827589e+01
4.500000e-07	-5.103604e-06	-1.355392e-09	-3.550536e+01	-8.813125e+01
4.600000e-07	-5.084900e-06	-1.349415e-09	-3.537524e+01	-8.798425e+01
4.700000e-07	-5.065843e-06	-1.366799e-09	-3.524266e+01	-8.783520e+01
4.800000e-07	-5.046565e-06	-1.355746e-09	-3.510855e+01	-8.768440e+01
4.900000e-07	-5.027076e-06	-1.328009e-09	-3.497297e+01	-8.753215e+01
5.000000e-07	-5.007354e-06	-1.351962e-09	-3.483576e+01	-8.737871e+01
5.100000e-07	-4.987456e-06	-1.335006e-09	-3.469733e+01	-8.722435e+01
5.200000e-07	-4.967209e-06	-1.312440e-09	-3.455648e+01	-8.706929e+01
5.300000e-07	-4.946482e-06	-1.334365e-09	-3.441228e+01	-8.691375e+01
5.400000e-07	-4.925364e-06	-1.362164e-09	-3.426536e+01	-8.675791e+01
5.500000e-07	-4.903924e-06	-1.321003e-09	-3.411620e+01	-8.660194e+01
5.600000e-07	-4.882121e-06	-1.318345e-09	-3.396452e+01	-8.644595e+01
5.700000e-07	-4.860038e-06	-1.330870e-09	-3.381090e+01	-8.629005e+01
5.800000e-07	-4.837669e-06	-1.316578e-09	-3.365528e+01	-8.613432e+01
5.900000e-07	-4.814936e-06	-1.299055e-09	-3.349712e+01	-8.597878e+01
6.000000e-07	-4.791888e-06	-1.323017e-09	-3.333678e+01	-8.582344e+01
6.100000e-07	-4.768488e-06	-1.310626e-09	-3.317399e+01	-8.566829e+01
6.200000e-07	-4.744843e-06	-1.296709e-09	-3.300950e+01	-8.551328e+01
6.300000e-07	-4.721027e-06	-1.306156e-09	-3.284380e+01	-8.535833e+01
6.400000e-07	-4.696971e-06	-1.311430e-09	-3.267645e+01	-8.520333e+01
6.500000e-07	-4.672517e-06	-1.294524e-09	-3.250633e+01	-8.504817e+01
6.600000e-07	-4.647539e-06	-1.302170e-09	-3.233255e+01	-8.489270e+01
6.700000e-07	-4.622100e-06	-1.303634e-09	-3.215558e+01	-8.473674e+01
6.800000e-07	-4.596040e-06	-1.287323e-09	-3.197428e+01	-8.458012e+01
6.900000e-07	-4.569427e-06	-1.282121e-09	-3.178914e+01	-8.442264e+01
7.000000e-07	-4.542426e-06	-1.284364e-09	-3.160129e+01	-8.426409e+01
7.100000e-07	-4.515050e-06	-1.272463e-09	-3.141084e+01	-8.410427e+01
7.200000e-07	-4.487516e-06	-1.269479e-09	-3.121929e+01	-8.394294e+01
7.300000e-07	-4.459872e-06	-1.278605e-09	-3.102697e+01	-8.377990e+01
7.400000e-07	-4.432040e-06	-1.273591e-09	-3.083335e+01	-8.361491e+01
7.500000e-07	-4.403931e-06	-1.269625e-09	-3.063779e+01	-8.344777e+01
7.600000e-07	-4.375440e-06	-1.271201e-09	-3.043958e+01	-8.327827e+01
7.700000e-07	-4.346634e-06	-1.268907e-09	-3.023918e+01	-8.310620e+01
7.800000e-07	-4.317581e-06	-1.257955e-09	-3.003706e+01	-8.293139e+01
7.900000e-07	-4.288196e-06	-1.261460e-09	-2.983264e+01	-8.275366e+01
8.000000e-07	-4.258472e-06	-1.255875e-09	-2.962585e+01	-8.257285e+01
8.100000e-07	-4.228441e-06	-1.246364e-09	-2.941692e+01	-8.238883e+01
8.200000e-07	-4.198084e-06	-1.239952e-09	-2.920573e+01	-8.220149e+01
8.300000e-07	-4.167450e-06	-1.244003e-09	-2.899262e+01	-8.201071e+01
8.400000e-07	-4.136591e-06	-1.236228e-09	-2.877793e+01	-8.181643e+01
8.500000e-07	-4.105491e-06	-1.236617e-09	-2.856157e+01	-8.161858e+01
8.600000e-07	-4.074134e-06	-1.238615e-09	-2.834342e+01	-8.141715e+01
8.700000e-07	-4.042605e-06	-1.234870e-09	-2.812408e+01	-8.121211e+01
8.800000e-07	-4.010987e-06	-1.221218e-09	-2.790412e+01	-8.100347e+01
8.900000e-07	-3.979207e-06	-1.219034e-09	-2.768303e+01	-8.079126e+01
9.000000e-07	-3.947194e-06	-1.211135e-09	-2.746031e+01	-8.057553e+01
9.100000e-07	-3.914871e-06	-1.202121e-09	-2.723544e+01	-8.035634e+01
9.200000e-07	-3.882132e-06	-1.200347e-09	-2.700768e+01	-8.013378e+01
9.300000e-07	-3.848871e-06	-1.206170e-09	-2.677629e+01	-7.990794e+01
9.400000e-07	-3.815063e-06	-1.203591e-09	-2.654109e+01	-7.967891e+01
9.500000e-07	-3.780679e-06	-1.200858e-09	-2.630188e+01	-7.944682e+01
9.600000e-07	-3.745852e-06	-1.198988e-09	-2.605959e+01	-7.921178e+01
9.700000e-07	-3.710781e-06	-1.191503e-09	-2.581560e+01	-7.897392e+01
9.800000e-07	-3.675462e-06	-1.181320e-09	-2.556990e+01	-7.873336e+01
9.900000e-07	-3.639961e-06	-1.178746e-09	-2.532292e+01	-7.849023e+01
1.000000e-06	-3.604343e-06	-1.176498e-09	-2.507512e+01	-7.824465e+01
1.010000e-06	-3.568612e-06	-1.169127e-09	-2.482655e+01	-7.799672e+01
1.020000e-06	-3.532759e-06	-1.166075e-09	-2.457712e+01	-7.774655e+01
1.030000e-06	-3.496789e-06	-1.163580e-09	-2.432688e+01	-7.749424e+01
1.040000e-06	-3.460530e-06	-1.159552e-09	-2.407463e+01	-7.723986e+01
1.050000e-06	-3.423868e-06	-1.155750e-09	-2.381958e+01	-7.698347e+01
1.060000e-06	-3.386944e-06	-1.155668e-09	-2.356270e+01	-7.672511e+01
1.070000e-06	-3.349811e-06	-1.149710e-09	-2.330437e+01	-7.646482e+01
1.080000e-06	-3.312460e-06	-1.142870e-09	-2.304452e+01	-7.620259e+01
1.090000e-06	-3.274908e-06	-1.136531e-09	-2.278327e+01	-7.593841e+01
1.100000e-06	-3.237182e-06	-1.129956e-09	-2.252082e+01	-7.567223e+01
1.110000e-06	-3.199242e-06	-1.118128e-09	-2.225687e+01	-7.540399e+01
1.120000e-06	-3.161059e-06	-1.110981e-09	-2.199123e+01	-7.513360e+01
1.130000e-06	-3.122613e-06	-1.105497e-09	-2.172377e+01	-7.486095e+01
1.140000e-06	-3.083918e-06	-1.103635e-09	-2.145457e+01	-7.458592e+01
1.150000e-06	-3.045027e-06	-1.103344e-09	-2.118401e+01	-7.430833e+01
1.160000e-06	-3.005971e-06	-1.104279e-09	-2.091230e+01	-7.402802e+01
1.170000e-06	-2.966760e-06	-1.099487e-09	-2.063951e+01	-7.374479e+01
1.180000e-06	-2.927366e-06	-1.094032e-09	-2.036545e+01	-7.345842e+01
1.190000e-06	-2.887846e-06	-1.087509e-09	-2.009051e+01	-7.316867e+01
1.200000e-06	-2.848215e-06	-1.079173e-09	-1.981481e+01	-7.287531e+01
1.210000e-06	-2.808424e-06	-1.068845e-09	-1.953798e+01	-7.257806e+01
1.220000e-06	-2.768459e-06	-1.064454e-09	-1.925994e+01	-7.227666e+01
1.230000e-06	-2.728309e-06	-1.061833e-09	-1.898063e+01	-7.197083e+01
1.240000e-06	-2.688034e-06	-1.059157e-09	-1.870044e+01	-7.166026e+01
1.250000e-06	-2.647567e-06	-1.057215e-09	-1.841891e+01	-7.134467e+01
1.260000e-06	-2.606796e-06	-1.054657e-09	-1.813527e+01	-7.102376e+01
1.270000e-06	-2.565705e-06	-1.048502e-09	-1.784940e+01	-7.069723e+01
1.280000e-06	-2.524340e-06	-1.039071e-09	-1.756163e+01	-7.036479e+01
1.290000e-06	-2.482816e-06	-1.030415e-09	-1.727275e+01	-7.002613e+01
1.300000e-06	-2.440993e-06	-1.021377e-09	-1.698179e+01	-6.968096e+01
1.310000e-06	-2.398773e-06	-1.012663e-09	-1.668807e+01	-6.932901e+01
1.320000e-06	-2.356215e-06	-1.004485e-09	-1.639200e+01	-6.896997e+01
1.330000e-06	-2.313384e-06	-9.984068e-10	-1.609403e+01	-6.860359e+01
1.340000e-06	-2.270388e-06	-9.939868e-10	-1.579490e+01	-6.822960e+01
1.350000e-06	-2.227192e-06	-9.909036e-10	-1.549440e+01	-6.784773e+01
1.360000e-06	-2.183761e-06	-9.863510e-10	-1.519225e+01	-6.745773e+01
1.370000e-06	-2.140216e-06	-9.806221e-10	-1.488931e+01	-6.705935e+01
1.380000e-06	-2.096622e-06	-9.718716e-10	-1.458603e+01	-6.665236e+01
1.390000e-06	-2.052962e-06	-9.602209e-10	-1.428229e+01	-6.623650e+01
1.400000e-06	-2.009231e-06	-9.467364e-10	-1.397806e+01	-6.581156e+01
1.410000e-06	-1.965473e-06	-9.348355e-10	-1.367364e+01	-6.537729e+01
1.420000e-06	-1.921657e-06	-9.242471e-10	-1.336881e+01	-6.493345e+01
1.430000e-06	-1.877764e-06	-9.163219e-10	-1.306346e+01	-6.447981e+01
1.440000e-06	-1.833759e-06	-9.106377e-10	-1.275732e+01	-6.401611e+01
1.450000e-06	-1.789636e-06	-9.083352e-10	-1.245036e+01	-6.354210e+01
1.460000e-06	-1.745389e-06	-9.039136e-10	-1.214253e+01	-6.305750e+01
1.470000e-06	-1.700952e-06	-8.958580e-10	-1.183339e+01	-6.256203e+01
1.480000e-06	-1.656418e-06	-8.854399e-10	-1.152357e+01	-6.205537e+01
1.490000e-06	-1.611772e-06	-8.723213e-10	-1.121297e+01	-6.153720e+01
1.500000e-06	-1.566874e-06	-8.558478e-10	-1.090061e+01	-6.100716e+01
1.510000e-06	-1.521811e-06	-8.416240e-10	-1.058712e+01	-6.046486e+01
1.520000e-06	-1.476682e-06	-8.316908e-10	-1.027316e+01	-5.990990e+01
1.530000e-06	-1.431418e-06	-8.238115e-10	-9.958260e+00	-5.934180e+01
1.540000e-06	-1.386043e-06	-8.166882e-10	-9.642591e+00	-5.876009e+01
1.550000e-06	-1.340604e-06	-8.104386e-10	-9.326475e+00	-5.816423e+01
1.560000e-06	-1.295120e-06	-8.027323e-10	-9.010043e+00	-5.755365e+01
1.570000e-06	-1.249542e-06	-7.920270e-10	-8.692965e+00	-5.692773e+01
1.580000e-06	-1.203855e-06	-7.784417e-10	-8.375126e+00	-5.628583e+01
1.590000e-06	-1.158127e-06	-7.624713e-10	-8.056998e+00	-5.562724e+01
1.600000e-06	-1.112325e-06	-7.459180e-10	-7.738354e+00	-5.495120e+01
1.610000e-06	-1.066439e-06	-7.331851e-10	-7.419130e+00	-5.425694e+01
1.620000e-06	-1.020515e-06	-7.251369e-10	-7.099639e+00	-5.354362e+01
1.630000e-06	-9.745031e-07	-7.161034e-10	-6.779540e+00	-5.281038e+01
1.640000e-06	-9.283696e-07	-7.060573e-10	-6.458593e+00	-5.205630e+01
1.650000e-06	-8.821517e-07	-6.950020e-10	-6.137059e+00	-5.128044e+01
1.660000e-06	-8.358636e-07	-6.834741e-10	-5.815036e+00	-5.048184e+01
1.670000e-06	-7.894862e-07	-6.708166e-10	-5.492392e+00	-4.965950e+01
1.680000e-06	-7.431076e-07	-6.577228e-10	-5.169740e+00	-4.881240e+01
1.690000e-06	-6.967224e-07	-6.451280e-10	-4.847042e+00	-4.793952e+01
1.700000e-06	-6.502615e-07	-6.295665e-10	-4.523817e+00	-4.703982e+01
1.710000e-06	-6.037588e-07	-6.105194e-10	-4.200302e+00	-4.611226e+01
1.720000e-06	-5.572998e-07	-5.921731e-10	-3.877090e+00	-4.515582e+01
1.730000e-06	-5.108664e-07	-5.759929e-10	-3.554056e+00	-4.416948e+01
1.740000e-06	-4.643041e-07	-5.626703e-10	-3.230126e+00	-4.315225e+01
1.750000e-06	-4.175720e-07	-5.491321e-10	-2.905015e+00	-4.210318e+01
1.760000e-06	-3.707941e-07	-5.332037e-10	-2.579585e+00	-4.102136e+01
1.770000e-06	-3.239687e-07	-5.163526e-10	-2.253824e+00	-3.990590e+01
1.780000e-06	-2.770325e-07	-5.007345e-10	-1.927293e+00	-3.875602e+01
1.790000e-06	-2.301729e-07	-4.855571e-10	-1.601294e+00	-3.757098e+01
1.800000e-06	-1.834695e-07	-4.685949e-10	-1.276383e+00	-3.635011e+01
1.810000e-06	-1.367419e-07	-4.491878e-10	-9.513021e-01	-3.509285e+01
1.820000e-06	-8.999813e-08	-4.292877e-10	-6.261098e-01	-3.379872e+01
1.830000e-06	-4.334560e-08	-4.094433e-10	-3.015518e-01	-3.246736e+01
1.840000e-06	3.315794e-09	-3.908849e-10	2.306771e-02	-3.109850e+01
1.850000e-06	5.008512e-08	-3.731690e-10	3.484381e-01	-2.969201e+01
1.860000e-06	9.681848e-08	-3.558822e-10	6.735584e-01	-2.824788e+01
1.870000e-06	1.435476e-07	-3.378095e-10	9.986489e-01	-2.676623e+01
1.880000e-06	1.903075e-07	-3.181166e-10	1.323954e+00	-2.524731e+01
1.890000e-06	2.369794e-07	-2.964983e-10	1.648647e+00	-2.369154e+01
1.900000e-06	2.836856e-07	-2.716891e-10	1.973578e+00	-2.209945e+01
1.910000e-06	3.304030e-07	-2.458837e-10	2.298587e+00	-2.047175e+01
1.920000e-06	3.770555e-07	-2.195601e-10	2.623145e+00	-1.880929e+01
1.930000e-06	4.236739e-07	-1.943592e-10	2.947465e+00	-1.711307e+01
1.940000e-06	4.702403e-07	-1.712166e-10	3.271424e+00	-1.538424e+01
1.950000e-06	5.168067e-07	-1.484670e-10	3.595382e+00	-1.362410e+01
1.960000e-06	5.632902e-07	-1.259471e-10	3.918765e+00	-1.183411e+01
1.970000e-06	6.096502e-07	-1.031704e-10	4.241288e+00	-1.001585e+01
1.980000e-06	6.560464e-07	-7.861918e-11	4.564062e+00	-8.171059e+00
1.990000e-06	7.025387e-07	-5.093321e-11	4.887505e+00	-6.301603e+00
2.000000e-06	7.489082e-07	-2.125748e-11	5.210094e+00	-4.409475e+00
2.010000e-06	7.951282e-07	8.250530e-12	5.531643e+00	-2.496785e+00
2.020000e-06	8.413127e-07	3.865482e-11	5.852945e+00	-5.657542e-01
2.030000e-06	8.873858e-07	6.818661e-11	6.173472e+00	1.381296e+00
2.040000e-06	9.333791e-07	9.683428e-11	6.493443e+00	3.341953e+00
2.050000e-06	9.793939e-07	1.239784e-10	6.813565e+00	5.313729e+00
2.060000e-06	1.025426e-06	1.485478e-10	7.133806e+00	7.294066e+00
2.070000e-06	1.071351e-06	1.718674e-10	7.453302e+00	9.280353e+00
2.080000e-06	1.117177e-06	1.969300e-10	7.772111e+00	1.126994e+01
2.090000e-06	1.162927e-06	2.262676e-10	8.090390e+00	1.326014e+01
2.100000e-06	1.208565e-06	2.589051e-10	8.407889e+00	1.524827e+01
2.110000e-06	1.254121e-06	2.917980e-10	8.724816e+00	1.723163e+01
2.120000e-06	1.299610e-06	3.216103e-10	9.041285e+00	1.920753e+01
2.130000e-06	1.344971e-06	3.485029e-10	9.356855e+00	2.117333e+01
2.140000e-06	1.390185e-06	3.737416e-10	9.671408e+00	2.312640e+01
2.150000e-06	1.435349e-06	3.963306e-10	9.985611e+00	2.506420e+01
2.160000e-06	1.480474e-06	4.172013e-10	1.029954e+01	2.698422e+01
2.170000e-06	1.525521e-06	4.400612e-10	1.061293e+01	2.888405e+01
2.180000e-06	1.570402e-06	4.674887e-10	1.092516e+01	3.076137e+01
2.190000e-06	1.615090e-06	4.972091e-10	1.123605e+01	3.261397e+01
2.200000e-06	1.659679e-06	5.269829e-10	1.154626e+01	3.443973e+01
2.210000e-06	1.704116e-06	5.554888e-10	1.185540e+01	3.623668e+01
2.220000e-06	1.748381e-06	5.814602e-10	1.216335e+01	3.800296e+01
2.230000e-06	1.792583e-06	6.048196e-10	1.247085e+01	3.973686e+01
2.240000e-06	1.836690e-06	6.245592e-10	1.277771e+01	4.143681e+01
2.250000e-06	1.880646e-06	6.421905e-10	1.308351e+01	4.310140e+01
2.260000e-06	1.924542e-06	6.608481e-10	1.338889e+01	4.472937e+01
2.270000e-06	1.968383e-06	6.815396e-10	1.369388e+01	4.631962e+01
2.280000e-06	2.012129e-06	7.035761e-10	1.399822e+01	4.787121e+01
2.290000e-06	2.055824e-06	7.258420e-10	1.430221e+01	4.938336e+01
2.300000e-06	2.099475e-06	7.486649e-10	1.460588e+01	5.085546e+01
2.310000e-06	2.143030e-06	7.707311e-10	1.490889e+01	5.228706e+01
2.320000e-06	2.186480e-06	7.884804e-10	1.521116e+01	5.367786e+01
2.330000e-06	2.229853e-06	8.025163e-10	1.551291e+01	5.502772e+01
2.340000e-06	2.273081e-06	8.157588e-10	1.581364e+01	5.633665e+01
2.350000e-06	2.316091e-06	8.297280e-10	1.611286e+01	5.760480e+01
2.360000e-06	2.358907e-06	8.438880e-10	1.641073e+01	5.883245e+01
2.370000e-06	2.401531e-06	8.594763e-10	1.670726e+01	6.002004e+01
2.380000e-06	2.443825e-06	8.763370e-10	1.700150e+01	6.116811e+01
2.390000e-06	2.485739e-06	8.930027e-10	1.729308e+01	6.227730e+01
2.400000e-06	2.527311e-06	9.090049e-10	1.758230e+01	6.334839e+01
2.410000e-06	2.568577e-06	9.245097e-10	1.786939e+01	6.438223e+01
2.420000e-06	2.609621e-06	9.370546e-10	1.815492e+01	6.537975e+01
2.430000e-06	2.650387e-06	9.501789e-10	1.843853e+01	6.634197e+01
2.440000e-06	2.690807e-06	9.628061e-10	1.871973e+01	6.726995e+01
2.450000e-06	2.731013e-06	9.734208e-10	1.899944e+01	6.816484e+01
2.460000e-06	2.771006e-06	9.847523e-10	1.927767e+01	6.902778e+01
2.470000e-06	2.810807e-06	9.954940e-10	1.955456e+01	6.985998e+01
2.480000e-06	2.850530e-06	1.006719e-09	1.983091e+01	7.066265e+01
2.490000e-06	2.890145e-06	1.017165e-09	2.010651e+01	7.143702e+01
2.500000e-06	2.929696e-06	1.028960e-09	2.038166e+01	7.218431e+01
2.510000e-06	2.969153e-06	1.042577e-09	2.065616e+01	7.290573e+01
2.520000e-06	3.008335e-06	1.053849e-09	2.092875e+01	7.360247e+01
2.530000e-06	3.047277e-06	1.063370e-09	2.119966e+01	7.427571e+01
2.540000e-06	3.086055e-06	1.075245e-09	2.146944e+01	7.492657e+01
2.550000e-06	3.124616e-06	1.084435e-09	2.173770e+01	7.555614e+01
2.560000e-06	3.162950e-06	1.090347e-09	2.200439e+01	7.616547e+01
2.570000e-06	3.201017e-06	1.097069e-09	2.226922e+01	7.675554e+01
2.580000e-06	3.238873e-06	1.104517e-09	2.253258e+01	7.732729e+01
2.590000e-06	3.276601e-06	1.112556e-09	2.279505e+01	7.788158e+01
2.600000e-06	3.314117e-06	1.122432e-09	2.305605e+01	7.841923e+01
2.610000e-06	3.351353e-06	1.133619e-09	2.331509e+01	7.894098e+01
2.620000e-06	3.388357e-06	1.146125e-09	2.357253e+01	7.944749e+01
2.630000e-06	3.425107e-06	1.156577e-09	2.382819e+01	7.993939e+01
2.640000e-06	3.461536e-06	1.163833e-09	2.408163e+01	8.041721e+01
2.650000e-06	3.497684e-06	1.168895e-09	2.433311e+01	8.088143e+01
2.660000e-06	3.533674e-06	1.173902e-09	2.458349e+01	8.133246e+01
2.670000e-06	3.569552e-06	1.179045e-09	2.483309e+01	8.177067e+01
2.680000e-06	3.605302e-06	1.184492e-09	2.508180e+01	8.219635e+01
2.690000e-06	3.640934e-06	1.190987e-09	2.532969e+01	8.260975e+01
2.700000e-06	3.676410e-06	1.196553e-09	2.557649e+01	8.301107e+01
2.710000e-06	3.711740e-06	1.201075e-09	2.582227e+01	8.340046e+01
2.720000e-06	3.746832e-06	1.206136e-09	2.606641e+01	8.377805e+01
2.730000e-06	3.781555e-06	1.212466e-09	2.630798e+01	8.414391e+01
2.740000e-06	3.815852e-06	1.218116e-09	2.654658e+01	8.449811e+01
2.750000e-06	3.849589e-06	1.222834e-09	2.678128e+01	8.484069e+01
2.760000e-06	3.882779e-06	1.227227e-09	2.701218e+01	8.517167e+01
2.770000e-06	3.915639e-06	1.232206e-09	2.724079e+01	8.549105e+01
2.780000e-06	3.948111e-06	1.235837e-09	2.746669e+01	8.579885e+01
2.790000e-06	3.980191e-06	1.238499e-09	2.768987e+01	8.609507e+01
2.800000e-06	4.012088e-06	1.242509e-09	2.791178e+01	8.637973e+01
2.810000e-06	4.043847e-06	1.248232e-09	2.813272e+01	8.665285e+01
2.820000e-06	4.075435e-06	1.254949e-09	2.835248e+01	8.691447e+01
2.830000e-06	4.106830e-06	1.263474e-09	2.857088e+01	8.716466e+01
2.840000e-06	4.137959e-06	1.271737e-09	2.878745e+01	8.740349e+01
2.850000e-06	4.168755e-06	1.276882e-09	2.900170e+01	8.763107e+01
2.860000e-06	4.199270e-06	1.279559e-09	2.921399e+01	8.784753e+01
2.870000e-06	4.229482e-06	1.282275e-09	2.942417e+01	8.805305e+01
2.880000e-06	4.259337e-06	1.283660e-09	2.963187e+01	8.824782e+01
2.890000e-06	4.288894e-06	1.284707e-09	2.983749e+01	8.843206e+01
2.900000e-06	4.318222e-06	1.288579e-09	3.004152e+01	8.860605e+01
