# Temperatura_=_10.3
# Concentracion g/m^3_=_1620.0
# C_Vs_to_Am_M_A/Vsm_=_65563218390.804596
# pendiente_HvsI_1/m_=_3716.3
# ordenada_HvsI_A/m_=_1297.0
# frecuencia_Hz_=_135108.12507323388

Tiempo_(s)	Campo_(V.s)	Magnetizacion_(V.s)	Campo_(kA/m)	Magnetizacion_(A/m)
0.000000e+00	-5.535105e-06	-1.691019e-09	-3.837066e+01	-1.113722e+02
1.000000e-08	-5.535396e-06	-1.685382e-09	-3.837267e+01	-1.113185e+02
2.000000e-08	-5.535439e-06	-1.682058e-09	-3.837297e+01	-1.112644e+02
3.000000e-08	-5.535193e-06	-1.680945e-09	-3.837127e+01	-1.112100e+02
4.000000e-08	-5.534599e-06	-1.681838e-09	-3.836715e+01	-1.111551e+02
5.000000e-08	-5.533399e-06	-1.680862e-09	-3.835883e+01	-1.110998e+02
6.000000e-08	-5.531510e-06	-1.672635e-09	-3.834573e+01	-1.110440e+02
7.000000e-08	-5.529066e-06	-1.666309e-09	-3.832879e+01	-1.109876e+02
8.000000e-08	-5.526174e-06	-1.682276e-09	-3.830874e+01	-1.109306e+02
9.000000e-08	-5.522827e-06	-1.711855e-09	-3.828554e+01	-1.108727e+02
1.000000e-07	-5.518967e-06	-1.718458e-09	-3.825879e+01	-1.108138e+02
1.100000e-07	-5.514640e-06	-1.678986e-09	-3.822879e+01	-1.107537e+02
1.200000e-07	-5.510065e-06	-1.620677e-09	-3.819707e+01	-1.106924e+02
1.300000e-07	-5.505390e-06	-1.661139e-09	-3.816466e+01	-1.106294e+02
1.400000e-07	-5.500408e-06	-1.699167e-09	-3.813013e+01	-1.105648e+02
1.500000e-07	-5.494858e-06	-1.688796e-09	-3.809166e+01	-1.104981e+02
1.600000e-07	-5.488915e-06	-1.647250e-09	-3.805046e+01	-1.104292e+02
1.700000e-07	-5.482766e-06	-1.656809e-09	-3.800783e+01	-1.103580e+02
1.800000e-07	-5.476193e-06	-1.701616e-09	-3.796226e+01	-1.102841e+02
1.900000e-07	-5.469042e-06	-1.669085e-09	-3.791269e+01	-1.102073e+02
2.000000e-07	-5.461625e-06	-1.648660e-09	-3.786127e+01	-1.101275e+02
2.100000e-07	-5.454072e-06	-1.651665e-09	-3.780891e+01	-1.100444e+02
2.200000e-07	-5.446185e-06	-1.709564e-09	-3.775424e+01	-1.099579e+02
2.300000e-07	-5.437967e-06	-1.704420e-09	-3.769727e+01	-1.098677e+02
2.400000e-07	-5.429364e-06	-1.696048e-09	-3.763764e+01	-1.097737e+02
2.500000e-07	-5.420173e-06	-1.672779e-09	-3.757392e+01	-1.096758e+02
2.600000e-07	-5.410285e-06	-1.692037e-09	-3.750538e+01	-1.095738e+02
2.700000e-07	-5.399775e-06	-1.694254e-09	-3.743251e+01	-1.094677e+02
2.800000e-07	-5.388799e-06	-1.692764e-09	-3.735643e+01	-1.093573e+02
2.900000e-07	-5.377427e-06	-1.685156e-09	-3.727760e+01	-1.092425e+02
3.000000e-07	-5.365697e-06	-1.692237e-09	-3.719628e+01	-1.091234e+02
3.100000e-07	-5.353636e-06	-1.686671e-09	-3.711267e+01	-1.089999e+02
3.200000e-07	-5.341118e-06	-1.665717e-09	-3.702589e+01	-1.088720e+02
3.300000e-07	-5.328052e-06	-1.661800e-09	-3.693531e+01	-1.087396e+02
3.400000e-07	-5.314666e-06	-1.666072e-09	-3.684252e+01	-1.086029e+02
3.500000e-07	-5.300936e-06	-1.674264e-09	-3.674734e+01	-1.084618e+02
3.600000e-07	-5.286631e-06	-1.656765e-09	-3.664818e+01	-1.083164e+02
3.700000e-07	-5.271889e-06	-1.662301e-09	-3.654598e+01	-1.081668e+02
3.800000e-07	-5.256826e-06	-1.666613e-09	-3.644156e+01	-1.080131e+02
3.900000e-07	-5.241212e-06	-1.659147e-09	-3.633332e+01	-1.078553e+02
4.000000e-07	-5.224990e-06	-1.639271e-09	-3.622086e+01	-1.076936e+02
4.100000e-07	-5.208416e-06	-1.657494e-09	-3.610597e+01	-1.075280e+02
4.200000e-07	-5.191527e-06	-1.647136e-09	-3.598889e+01	-1.073586e+02
4.300000e-07	-5.174275e-06	-1.627594e-09	-3.586930e+01	-1.071856e+02
4.400000e-07	-5.156690e-06	-1.640027e-09	-3.574739e+01	-1.070090e+02
4.500000e-07	-5.138712e-06	-1.675835e-09	-3.562277e+01	-1.068289e+02
4.600000e-07	-5.120316e-06	-1.637918e-09	-3.549524e+01	-1.066455e+02
4.700000e-07	-5.101485e-06	-1.621189e-09	-3.536470e+01	-1.064588e+02
4.800000e-07	-5.082305e-06	-1.654062e-09	-3.523174e+01	-1.062689e+02
4.900000e-07	-5.062962e-06	-1.656178e-09	-3.509765e+01	-1.060758e+02
5.000000e-07	-5.043411e-06	-1.605013e-09	-3.496212e+01	-1.058796e+02
5.100000e-07	-5.023621e-06	-1.620624e-09	-3.482493e+01	-1.056803e+02
5.200000e-07	-5.003564e-06	-1.634558e-09	-3.468589e+01	-1.054781e+02
5.300000e-07	-4.983158e-06	-1.599110e-09	-3.454443e+01	-1.052728e+02
5.400000e-07	-4.962304e-06	-1.594315e-09	-3.439987e+01	-1.050645e+02
5.500000e-07	-4.941018e-06	-1.630736e-09	-3.425230e+01	-1.048531e+02
5.600000e-07	-4.919351e-06	-1.603303e-09	-3.410210e+01	-1.046387e+02
5.700000e-07	-4.897356e-06	-1.580666e-09	-3.394963e+01	-1.044212e+02
5.800000e-07	-4.875166e-06	-1.614837e-09	-3.379580e+01	-1.042006e+02
5.900000e-07	-4.852736e-06	-1.612288e-09	-3.364031e+01	-1.039767e+02
6.000000e-07	-4.829904e-06	-1.575979e-09	-3.348204e+01	-1.037496e+02
6.100000e-07	-4.806712e-06	-1.589125e-09	-3.332126e+01	-1.035191e+02
6.200000e-07	-4.783237e-06	-1.594462e-09	-3.315853e+01	-1.032851e+02
6.300000e-07	-4.759532e-06	-1.556982e-09	-3.299420e+01	-1.030475e+02
6.400000e-07	-4.735651e-06	-1.561019e-09	-3.282865e+01	-1.028064e+02
6.500000e-07	-4.711430e-06	-1.579404e-09	-3.266075e+01	-1.025614e+02
6.600000e-07	-4.686771e-06	-1.562887e-09	-3.248980e+01	-1.023126e+02
6.700000e-07	-4.661639e-06	-1.556195e-09	-3.231558e+01	-1.020599e+02
6.800000e-07	-4.635912e-06	-1.569821e-09	-3.213724e+01	-1.018032e+02
6.900000e-07	-4.609633e-06	-1.549820e-09	-3.195507e+01	-1.015423e+02
7.000000e-07	-4.582895e-06	-1.535661e-09	-3.176971e+01	-1.012772e+02
7.100000e-07	-4.555837e-06	-1.539387e-09	-3.158214e+01	-1.010079e+02
7.200000e-07	-4.528545e-06	-1.533702e-09	-3.139294e+01	-1.007342e+02
7.300000e-07	-4.500984e-06	-1.521362e-09	-3.120188e+01	-1.004562e+02
7.400000e-07	-4.473214e-06	-1.532040e-09	-3.100938e+01	-1.001738e+02
7.500000e-07	-4.445203e-06	-1.524907e-09	-3.081520e+01	-9.988693e+01
7.600000e-07	-4.416892e-06	-1.513906e-09	-3.061894e+01	-9.959569e+01
7.700000e-07	-4.388299e-06	-1.516845e-09	-3.042073e+01	-9.930005e+01
7.800000e-07	-4.359429e-06	-1.517625e-09	-3.022059e+01	-9.900005e+01
7.900000e-07	-4.330211e-06	-1.501731e-09	-3.001805e+01	-9.869574e+01
8.000000e-07	-4.300662e-06	-1.505337e-09	-2.981321e+01	-9.838718e+01
8.100000e-07	-4.270872e-06	-1.505421e-09	-2.960669e+01	-9.807445e+01
8.200000e-07	-4.240784e-06	-1.491321e-09	-2.939812e+01	-9.775764e+01
8.300000e-07	-4.210336e-06	-1.481862e-09	-2.918704e+01	-9.743685e+01
8.400000e-07	-4.179619e-06	-1.485991e-09	-2.897411e+01	-9.711221e+01
8.500000e-07	-4.148665e-06	-1.481143e-09	-2.875953e+01	-9.678384e+01
8.600000e-07	-4.117430e-06	-1.479572e-09	-2.854300e+01	-9.645187e+01
8.700000e-07	-4.085989e-06	-1.486057e-09	-2.832504e+01	-9.611644e+01
8.800000e-07	-4.054379e-06	-1.482077e-09	-2.810591e+01	-9.577769e+01
8.900000e-07	-4.022573e-06	-1.469650e-09	-2.788543e+01	-9.543577e+01
9.000000e-07	-3.990595e-06	-1.465567e-09	-2.766375e+01	-9.509082e+01
9.100000e-07	-3.958312e-06	-1.461495e-09	-2.743996e+01	-9.474297e+01
9.200000e-07	-3.925520e-06	-1.448805e-09	-2.721263e+01	-9.439234e+01
9.300000e-07	-3.892308e-06	-1.443083e-09	-2.698240e+01	-9.403906e+01
9.400000e-07	-3.858751e-06	-1.442616e-09	-2.674978e+01	-9.368324e+01
9.500000e-07	-3.824731e-06	-1.434248e-09	-2.651394e+01	-9.332496e+01
9.600000e-07	-3.790248e-06	-1.421762e-09	-2.627490e+01	-9.296430e+01
9.700000e-07	-3.755463e-06	-1.418205e-09	-2.603376e+01	-9.260131e+01
9.800000e-07	-3.720401e-06	-1.407589e-09	-2.579070e+01	-9.223602e+01
9.900000e-07	-3.685036e-06	-1.394782e-09	-2.554554e+01	-9.186844e+01
1.000000e-06	-3.649399e-06	-1.389573e-09	-2.529849e+01	-9.149855e+01
1.010000e-06	-3.613598e-06	-1.388137e-09	-2.505031e+01	-9.112631e+01
1.020000e-06	-3.577755e-06	-1.376491e-09	-2.480185e+01	-9.075165e+01
1.030000e-06	-3.541743e-06	-1.368823e-09	-2.455220e+01	-9.037446e+01
1.040000e-06	-3.505439e-06	-1.363015e-09	-2.430053e+01	-8.999463e+01
1.050000e-06	-3.468881e-06	-1.355238e-09	-2.404710e+01	-8.961199e+01
1.060000e-06	-3.432092e-06	-1.346265e-09	-2.379207e+01	-8.922636e+01
1.070000e-06	-3.395108e-06	-1.341900e-09	-2.353569e+01	-8.883753e+01
1.080000e-06	-3.357903e-06	-1.335231e-09	-2.327778e+01	-8.844526e+01
1.090000e-06	-3.320393e-06	-1.327487e-09	-2.301775e+01	-8.804930e+01
1.100000e-06	-3.282625e-06	-1.320356e-09	-2.275593e+01	-8.764935e+01
1.110000e-06	-3.244672e-06	-1.312074e-09	-2.249283e+01	-8.724512e+01
1.120000e-06	-3.206474e-06	-1.295660e-09	-2.222803e+01	-8.683628e+01
1.130000e-06	-3.167955e-06	-1.279598e-09	-2.196101e+01	-8.642249e+01
1.140000e-06	-3.129161e-06	-1.268260e-09	-2.169209e+01	-8.600342e+01
1.150000e-06	-3.090169e-06	-1.261521e-09	-2.142178e+01	-8.557869e+01
1.160000e-06	-3.051089e-06	-1.258601e-09	-2.115087e+01	-8.514795e+01
1.170000e-06	-3.011895e-06	-1.258067e-09	-2.087917e+01	-8.471083e+01
1.180000e-06	-2.972523e-06	-1.253366e-09	-2.060623e+01	-8.426697e+01
1.190000e-06	-2.933007e-06	-1.242753e-09	-2.033230e+01	-8.381601e+01
1.200000e-06	-2.893354e-06	-1.231650e-09	-2.005741e+01	-8.335759e+01
1.210000e-06	-2.853536e-06	-1.219814e-09	-1.978139e+01	-8.289138e+01
1.220000e-06	-2.813532e-06	-1.207549e-09	-1.950407e+01	-8.241704e+01
1.230000e-06	-2.773385e-06	-1.198169e-09	-1.922576e+01	-8.193428e+01
1.240000e-06	-2.733094e-06	-1.190922e-09	-1.894645e+01	-8.144281e+01
1.250000e-06	-2.692558e-06	-1.181489e-09	-1.866545e+01	-8.094235e+01
1.260000e-06	-2.651726e-06	-1.175348e-09	-1.838239e+01	-8.043268e+01
1.270000e-06	-2.610599e-06	-1.169740e-09	-1.809729e+01	-7.991356e+01
1.280000e-06	-2.569268e-06	-1.159239e-09	-1.781077e+01	-7.938483e+01
1.290000e-06	-2.527730e-06	-1.144227e-09	-1.752282e+01	-7.884633e+01
1.300000e-06	-2.485808e-06	-1.130202e-09	-1.723221e+01	-7.829791e+01
1.310000e-06	-2.443541e-06	-1.116702e-09	-1.693921e+01	-7.773950e+01
1.320000e-06	-2.400985e-06	-1.105103e-09	-1.664420e+01	-7.717101e+01
1.330000e-06	-2.358110e-06	-1.095012e-09	-1.634697e+01	-7.659239e+01
1.340000e-06	-2.315016e-06	-1.085724e-09	-1.604824e+01	-7.600364e+01
1.350000e-06	-2.271819e-06	-1.077812e-09	-1.574879e+01	-7.540476e+01
1.360000e-06	-2.228515e-06	-1.072609e-09	-1.544859e+01	-7.479576e+01
1.370000e-06	-2.185065e-06	-1.065609e-09	-1.514739e+01	-7.417669e+01
1.380000e-06	-2.141462e-06	-1.056310e-09	-1.484512e+01	-7.354761e+01
1.390000e-06	-2.097717e-06	-1.043506e-09	-1.454187e+01	-7.290857e+01
1.400000e-06	-2.053874e-06	-1.029195e-09	-1.423794e+01	-7.225965e+01
1.410000e-06	-2.009959e-06	-1.014193e-09	-1.393351e+01	-7.160091e+01
1.420000e-06	-1.965965e-06	-1.000476e-09	-1.362854e+01	-7.093241e+01
1.430000e-06	-1.921887e-06	-9.873115e-10	-1.332297e+01	-7.025421e+01
1.440000e-06	-1.877756e-06	-9.768429e-10	-1.301705e+01	-6.956633e+01
1.450000e-06	-1.833496e-06	-9.675064e-10	-1.271023e+01	-6.886879e+01
1.460000e-06	-1.789029e-06	-9.582275e-10	-1.240197e+01	-6.816157e+01
1.470000e-06	-1.744502e-06	-9.474451e-10	-1.209330e+01	-6.744462e+01
1.480000e-06	-1.699904e-06	-9.349183e-10	-1.178414e+01	-6.671785e+01
1.490000e-06	-1.655171e-06	-9.224424e-10	-1.147403e+01	-6.598112e+01
1.500000e-06	-1.610273e-06	-9.089028e-10	-1.116279e+01	-6.523425e+01
1.510000e-06	-1.565251e-06	-8.956862e-10	-1.085069e+01	-6.447699e+01
1.520000e-06	-1.520112e-06	-8.839844e-10	-1.053778e+01	-6.370905e+01
1.530000e-06	-1.474765e-06	-8.730090e-10	-1.022342e+01	-6.293006e+01
1.540000e-06	-1.429324e-06	-8.595591e-10	-9.908413e+00	-6.213959e+01
1.550000e-06	-1.383875e-06	-8.474894e-10	-9.593346e+00	-6.133714e+01
1.560000e-06	-1.338350e-06	-8.346708e-10	-9.277760e+00	-6.052214e+01
1.570000e-06	-1.292696e-06	-8.189130e-10	-8.961277e+00	-5.969395e+01
1.580000e-06	-1.246935e-06	-8.034542e-10	-8.644047e+00	-5.885185e+01
1.590000e-06	-1.201081e-06	-7.900755e-10	-8.326174e+00	-5.799505e+01
1.600000e-06	-1.155133e-06	-7.734990e-10	-8.007653e+00	-5.712270e+01
1.610000e-06	-1.109141e-06	-7.535167e-10	-7.688829e+00	-5.623386e+01
1.620000e-06	-1.063037e-06	-7.343379e-10	-7.369224e+00	-5.532753e+01
1.630000e-06	-1.016801e-06	-7.197148e-10	-7.048702e+00	-5.440267e+01
1.640000e-06	-9.705422e-07	-7.069036e-10	-6.728028e+00	-5.345815e+01
1.650000e-06	-9.242483e-07	-6.952842e-10	-6.407108e+00	-5.249281e+01
1.660000e-06	-8.779229e-07	-6.849293e-10	-6.085969e+00	-5.150543e+01
1.670000e-06	-8.315346e-07	-6.728786e-10	-5.764395e+00	-5.049478e+01
1.680000e-06	-7.849876e-07	-6.569952e-10	-5.441719e+00	-4.945956e+01
1.690000e-06	-7.383811e-07	-6.361809e-10	-5.118632e+00	-4.839849e+01
1.700000e-06	-6.917418e-07	-6.163295e-10	-4.795317e+00	-4.731025e+01
1.710000e-06	-6.450626e-07	-5.971144e-10	-4.471726e+00	-4.619354e+01
1.720000e-06	-5.983106e-07	-5.792893e-10	-4.147630e+00	-4.504705e+01
1.730000e-06	-5.514494e-07	-5.617700e-10	-3.822777e+00	-4.386951e+01
1.740000e-06	-5.046484e-07	-5.418976e-10	-3.498342e+00	-4.265968e+01
1.750000e-06	-4.578884e-07	-5.226054e-10	-3.174190e+00	-4.141636e+01
1.760000e-06	-4.110823e-07	-5.006551e-10	-2.849720e+00	-4.013842e+01
1.770000e-06	-3.642234e-07	-4.788290e-10	-2.524883e+00	-3.882477e+01
1.780000e-06	-3.173234e-07	-4.602109e-10	-2.199760e+00	-3.747444e+01
1.790000e-06	-2.703763e-07	-4.431683e-10	-1.874312e+00	-3.608652e+01
1.800000e-06	-2.234151e-07	-4.273116e-10	-1.548766e+00	-3.466022e+01
1.810000e-06	-1.765043e-07	-4.090847e-10	-1.223570e+00	-3.319487e+01
1.820000e-06	-1.295980e-07	-3.865674e-10	-8.984037e-01	-3.168992e+01
1.830000e-06	-8.265188e-08	-3.618701e-10	-5.729624e-01	-3.014495e+01
1.840000e-06	-3.568713e-08	-3.361406e-10	-2.473916e-01	-2.855970e+01
1.850000e-06	1.129498e-08	-3.116781e-10	7.829948e-02	-2.693404e+01
1.860000e-06	5.829803e-08	-2.914009e-10	4.041357e-01	-2.526803e+01
1.870000e-06	1.052425e-07	-2.726935e-10	7.295661e-01	-2.356187e+01
1.880000e-06	1.521546e-07	-2.526073e-10	1.054772e+00	-2.181595e+01
1.890000e-06	1.991311e-07	-2.296134e-10	1.380424e+00	-2.003083e+01
1.900000e-06	2.461368e-07	-2.019641e-10	1.706279e+00	-1.820724e+01
1.910000e-06	2.930940e-07	-1.728117e-10	2.031797e+00	-1.634611e+01
1.920000e-06	3.399594e-07	-1.434718e-10	2.356679e+00	-1.444853e+01
1.930000e-06	3.867688e-07	-1.143488e-10	2.681172e+00	-1.251578e+01
1.940000e-06	4.335729e-07	-8.862407e-11	3.005630e+00	-1.054933e+01
1.950000e-06	4.803271e-07	-6.406232e-11	3.329741e+00	-8.550800e+00
1.960000e-06	5.270564e-07	-3.967831e-11	3.653680e+00	-6.521985e+00
1.970000e-06	5.738260e-07	-1.353991e-11	3.977898e+00	-4.464847e+00
1.980000e-06	6.205120e-07	1.247773e-11	4.301536e+00	-2.381500e+00
1.990000e-06	6.670432e-07	4.045060e-11	4.624101e+00	-2.742003e-01
2.000000e-06	7.135053e-07	7.188347e-11	4.946187e+00	1.854658e+00
2.010000e-06	7.599484e-07	1.043900e-10	5.268142e+00	4.002559e+00
2.020000e-06	8.063646e-07	1.362081e-10	5.589910e+00	6.166877e+00
2.030000e-06	8.527288e-07	1.698377e-10	5.911318e+00	8.344884e+00
2.040000e-06	8.990059e-07	2.044620e-10	6.232121e+00	1.053377e+01
2.050000e-06	9.451608e-07	2.347061e-10	6.552078e+00	1.273067e+01
2.060000e-06	9.912271e-07	2.622482e-10	6.871420e+00	1.493263e+01
2.070000e-06	1.037307e-06	2.894739e-10	7.190860e+00	1.713670e+01
2.080000e-06	1.083384e-06	3.175078e-10	7.510274e+00	1.933987e+01
2.090000e-06	1.129384e-06	3.479038e-10	7.829156e+00	2.153916e+01
2.100000e-06	1.175321e-06	3.808391e-10	8.147600e+00	2.373157e+01
2.110000e-06	1.221156e-06	4.140085e-10	8.465345e+00	2.591414e+01
2.120000e-06	1.266823e-06	4.449970e-10	8.781918e+00	2.808397e+01
2.130000e-06	1.312345e-06	4.741029e-10	9.097485e+00	3.023819e+01
2.140000e-06	1.357843e-06	5.023224e-10	9.412890e+00	3.237402e+01
2.150000e-06	1.403317e-06	5.271618e-10	9.728126e+00	3.448876e+01
2.160000e-06	1.448732e-06	5.508865e-10	1.004295e+01	3.657984e+01
2.170000e-06	1.494022e-06	5.744708e-10	1.035692e+01	3.864478e+01
2.180000e-06	1.539157e-06	5.999793e-10	1.066980e+01	4.068124e+01
2.190000e-06	1.584167e-06	6.275252e-10	1.098182e+01	4.268701e+01
2.200000e-06	1.629004e-06	6.563878e-10	1.129264e+01	4.466004e+01
2.210000e-06	1.673651e-06	6.864194e-10	1.160214e+01	4.659845e+01
2.220000e-06	1.718202e-06	7.153994e-10	1.191098e+01	4.850051e+01
2.230000e-06	1.762706e-06	7.414198e-10	1.221949e+01	5.036468e+01
2.240000e-06	1.807092e-06	7.644771e-10	1.252719e+01	5.218959e+01
2.250000e-06	1.851330e-06	7.835228e-10	1.283386e+01	5.397404e+01
2.260000e-06	1.895449e-06	8.004500e-10	1.313970e+01	5.571705e+01
2.270000e-06	1.939433e-06	8.189875e-10	1.344461e+01	5.741780e+01
2.280000e-06	1.983312e-06	8.395962e-10	1.374879e+01	5.907566e+01
2.290000e-06	2.027142e-06	8.630622e-10	1.405263e+01	6.069019e+01
2.300000e-06	2.070906e-06	8.881020e-10	1.435601e+01	6.226114e+01
2.310000e-06	2.114661e-06	9.124369e-10	1.465933e+01	6.378840e+01
2.320000e-06	2.158381e-06	9.331906e-10	1.496241e+01	6.527208e+01
2.330000e-06	2.202005e-06	9.498065e-10	1.526482e+01	6.671242e+01
2.340000e-06	2.245498e-06	9.663345e-10	1.556632e+01	6.810982e+01
2.350000e-06	2.288892e-06	9.855045e-10	1.586714e+01	6.946484e+01
2.360000e-06	2.332173e-06	1.005611e-09	1.616718e+01	7.077817e+01
2.370000e-06	2.375280e-06	1.025036e-09	1.646600e+01	7.205063e+01
2.380000e-06	2.418096e-06	1.043205e-09	1.676281e+01	7.328314e+01
2.390000e-06	2.460559e-06	1.059706e-09	1.705718e+01	7.447673e+01
2.400000e-06	2.502780e-06	1.073683e-09	1.734986e+01	7.563254e+01
2.410000e-06	2.544657e-06	1.086289e-09	1.764016e+01	7.675177e+01
2.420000e-06	2.586136e-06	1.098772e-09	1.792771e+01	7.783567e+01
2.430000e-06	2.627310e-06	1.112372e-09	1.821313e+01	7.888556e+01
2.440000e-06	2.668161e-06	1.128475e-09	1.849632e+01	7.990281e+01
2.450000e-06	2.708762e-06	1.145715e-09	1.877778e+01	8.088878e+01
2.460000e-06	2.749220e-06	1.161985e-09	1.905825e+01	8.184488e+01
2.470000e-06	2.789456e-06	1.177251e-09	1.933717e+01	8.277249e+01
2.480000e-06	2.829490e-06	1.189956e-09	1.961469e+01	8.367300e+01
2.490000e-06	2.869391e-06	1.201364e-09	1.989129e+01	8.454777e+01
2.500000e-06	2.909130e-06	1.212049e-09	2.016678e+01	8.539812e+01
2.510000e-06	2.948737e-06	1.223630e-09	2.044134e+01	8.622534e+01
2.520000e-06	2.988205e-06	1.237718e-09	2.071494e+01	8.703065e+01
2.530000e-06	3.027537e-06	1.252002e-09	2.098760e+01	8.781523e+01
2.540000e-06	3.066729e-06	1.267442e-09	2.125929e+01	8.858018e+01
2.550000e-06	3.105659e-06	1.282501e-09	2.152916e+01	8.932654e+01
2.560000e-06	3.144252e-06	1.294201e-09	2.179670e+01	9.005526e+01
2.570000e-06	3.182561e-06	1.301206e-09	2.206226e+01	9.076720e+01
2.580000e-06	3.220618e-06	1.306351e-09	2.232609e+01	9.146317e+01
2.590000e-06	3.258489e-06	1.312141e-09	2.258861e+01	9.214386e+01
2.600000e-06	3.296250e-06	1.320096e-09	2.285038e+01	9.280988e+01
2.610000e-06	3.333941e-06	1.332712e-09	2.311167e+01	9.346177e+01
2.620000e-06	3.371475e-06	1.347676e-09	2.337186e+01	9.409996e+01
2.630000e-06	3.408709e-06	1.362078e-09	2.362997e+01	9.472482e+01
2.640000e-06	3.445558e-06	1.372324e-09	2.388542e+01	9.533662e+01
2.650000e-06	3.482048e-06	1.379182e-09	2.413838e+01	9.593557e+01
2.660000e-06	3.518318e-06	1.385431e-09	2.438981e+01	9.652180e+01
2.670000e-06	3.554410e-06	1.390694e-09	2.464001e+01	9.709537e+01
2.680000e-06	3.590348e-06	1.397114e-09	2.488914e+01	9.765630e+01
2.690000e-06	3.626143e-06	1.404057e-09	2.513728e+01	9.820453e+01
2.700000e-06	3.661804e-06	1.412450e-09	2.538449e+01	9.873998e+01
2.710000e-06	3.697320e-06	1.422259e-09	2.563070e+01	9.926251e+01
2.720000e-06	3.732633e-06	1.428530e-09	2.587549e+01	9.977196e+01
2.730000e-06	3.767662e-06	1.432957e-09	2.611832e+01	1.002681e+02
2.740000e-06	3.802359e-06	1.436769e-09	2.635885e+01	1.007509e+02
2.750000e-06	3.836704e-06	1.440720e-09	2.659694e+01	1.012199e+02
2.760000e-06	3.870533e-06	1.444221e-09	2.683145e+01	1.016750e+02
2.770000e-06	3.903751e-06	1.450999e-09	2.706172e+01	1.021161e+02
2.780000e-06	3.936535e-06	1.461039e-09	2.728899e+01	1.025429e+02
2.790000e-06	3.968969e-06	1.470119e-09	2.751383e+01	1.029552e+02
2.800000e-06	4.001159e-06	1.477806e-09	2.773698e+01	1.033529e+02
2.810000e-06	4.033189e-06	1.483166e-09	2.795902e+01	1.037360e+02
2.820000e-06	4.064984e-06	1.486512e-09	2.817943e+01	1.041042e+02
2.830000e-06	4.096577e-06	1.491662e-09	2.839844e+01	1.044576e+02
2.840000e-06	4.127996e-06	1.498696e-09	2.861625e+01	1.047963e+02
2.850000e-06	4.159153e-06	1.504390e-09	2.883223e+01	1.051202e+02
2.860000e-06	4.189988e-06	1.509309e-09	2.904598e+01	1.054295e+02
2.870000e-06	4.220508e-06	1.515242e-09	2.925756e+01	1.057244e+02
2.880000e-06	4.250768e-06	1.521686e-09	2.946733e+01	1.060050e+02
2.890000e-06	4.280749e-06	1.526052e-09	2.967516e+01	1.062717e+02
2.900000e-06	4.310423e-06	1.529710e-09	2.988087e+01	1.065247e+02
