# Temperatura_=_12.2
# Concentracion g/m^3_=_1620.0
# C_Vs_to_Am_M_A/Vsm_=_65563218390.804596
# pendiente_HvsI_1/m_=_3716.3
# ordenada_HvsI_A/m_=_1297.0
# frecuencia_Hz_=_135108.79756506262

Tiempo_(s)	Campo_(V.s)	Magnetizacion_(V.s)	Campo_(kA/m)	Magnetizacion_(A/m)
0.000000e+00	-5.502618e-06	-1.748980e-09	-3.836271e+01	-1.146203e+02
1.000000e-08	-5.502807e-06	-1.748057e-09	-3.836403e+01	-1.145760e+02
2.000000e-08	-5.502747e-06	-1.750158e-09	-3.836361e+01	-1.145300e+02
3.000000e-08	-5.502320e-06	-1.753020e-09	-3.836064e+01	-1.144822e+02
4.000000e-08	-5.501333e-06	-1.753477e-09	-3.835376e+01	-1.144324e+02
5.000000e-08	-5.499830e-06	-1.748192e-09	-3.834327e+01	-1.143805e+02
6.000000e-08	-5.497745e-06	-1.739487e-09	-3.832873e+01	-1.143262e+02
7.000000e-08	-5.495059e-06	-1.755903e-09	-3.831001e+01	-1.142693e+02
8.000000e-08	-5.491938e-06	-1.810798e-09	-3.828826e+01	-1.142097e+02
9.000000e-08	-5.488307e-06	-1.793016e-09	-3.826294e+01	-1.141470e+02
1.000000e-07	-5.484229e-06	-1.663175e-09	-3.823451e+01	-1.140810e+02
1.100000e-07	-5.479943e-06	-1.646484e-09	-3.820463e+01	-1.140115e+02
1.200000e-07	-5.475447e-06	-1.788918e-09	-3.817328e+01	-1.139383e+02
1.300000e-07	-5.470530e-06	-1.807100e-09	-3.813900e+01	-1.138611e+02
1.400000e-07	-5.465214e-06	-1.704219e-09	-3.810194e+01	-1.137798e+02
1.500000e-07	-5.459585e-06	-1.650553e-09	-3.806270e+01	-1.136940e+02
1.600000e-07	-5.453660e-06	-1.803966e-09	-3.802139e+01	-1.136037e+02
1.700000e-07	-5.447321e-06	-1.834112e-09	-3.797720e+01	-1.135087e+02
1.800000e-07	-5.440566e-06	-1.698635e-09	-3.793010e+01	-1.134088e+02
1.900000e-07	-5.433531e-06	-1.662187e-09	-3.788106e+01	-1.133040e+02
2.000000e-07	-5.426146e-06	-1.744264e-09	-3.782957e+01	-1.131941e+02
2.100000e-07	-5.418457e-06	-1.820525e-09	-3.777596e+01	-1.130791e+02
2.200000e-07	-5.410511e-06	-1.734694e-09	-3.772057e+01	-1.129589e+02
2.300000e-07	-5.402196e-06	-1.714075e-09	-3.766260e+01	-1.128337e+02
2.400000e-07	-5.393440e-06	-1.740667e-09	-3.760155e+01	-1.127033e+02
2.500000e-07	-5.384081e-06	-1.785557e-09	-3.753630e+01	-1.125678e+02
2.600000e-07	-5.374042e-06	-1.711254e-09	-3.746632e+01	-1.124274e+02
2.700000e-07	-5.363459e-06	-1.693545e-09	-3.739254e+01	-1.122821e+02
2.800000e-07	-5.352346e-06	-1.713017e-09	-3.731506e+01	-1.121321e+02
2.900000e-07	-5.340839e-06	-1.748956e-09	-3.723483e+01	-1.119776e+02
3.000000e-07	-5.328993e-06	-1.697559e-09	-3.715225e+01	-1.118187e+02
3.100000e-07	-5.316653e-06	-1.673093e-09	-3.706622e+01	-1.116556e+02
3.200000e-07	-5.303828e-06	-1.702448e-09	-3.697680e+01	-1.114886e+02
3.300000e-07	-5.290657e-06	-1.728665e-09	-3.688498e+01	-1.113180e+02
3.400000e-07	-5.277134e-06	-1.684499e-09	-3.679070e+01	-1.111439e+02
3.500000e-07	-5.263230e-06	-1.650244e-09	-3.669376e+01	-1.109666e+02
3.600000e-07	-5.248954e-06	-1.709669e-09	-3.659423e+01	-1.107864e+02
3.700000e-07	-5.234240e-06	-1.707473e-09	-3.649165e+01	-1.106035e+02
3.800000e-07	-5.218959e-06	-1.651100e-09	-3.638512e+01	-1.104183e+02
3.900000e-07	-5.203175e-06	-1.674493e-09	-3.627508e+01	-1.102308e+02
4.000000e-07	-5.186985e-06	-1.736049e-09	-3.616221e+01	-1.100415e+02
4.100000e-07	-5.170395e-06	-1.643851e-09	-3.604654e+01	-1.098505e+02
4.200000e-07	-5.153410e-06	-1.618499e-09	-3.592813e+01	-1.096580e+02
4.300000e-07	-5.136058e-06	-1.723351e-09	-3.580716e+01	-1.094643e+02
4.400000e-07	-5.118395e-06	-1.719459e-09	-3.568402e+01	-1.092694e+02
4.500000e-07	-5.100375e-06	-1.592142e-09	-3.555839e+01	-1.090735e+02
4.600000e-07	-5.081990e-06	-1.668699e-09	-3.543021e+01	-1.088768e+02
4.700000e-07	-5.063187e-06	-1.730610e-09	-3.529912e+01	-1.086793e+02
4.800000e-07	-5.043990e-06	-1.625756e-09	-3.516528e+01	-1.084812e+02
4.900000e-07	-5.024472e-06	-1.599330e-09	-3.502921e+01	-1.082823e+02
5.000000e-07	-5.004743e-06	-1.707401e-09	-3.489167e+01	-1.080827e+02
5.100000e-07	-4.984868e-06	-1.625607e-09	-3.475310e+01	-1.078824e+02
5.200000e-07	-4.964690e-06	-1.568931e-09	-3.461243e+01	-1.076813e+02
5.300000e-07	-4.944119e-06	-1.679456e-09	-3.446901e+01	-1.074793e+02
5.400000e-07	-4.923222e-06	-1.675682e-09	-3.432332e+01	-1.072762e+02
5.500000e-07	-4.901909e-06	-1.547120e-09	-3.417474e+01	-1.070720e+02
5.600000e-07	-4.880296e-06	-1.621409e-09	-3.402406e+01	-1.068664e+02
5.700000e-07	-4.858475e-06	-1.682937e-09	-3.387192e+01	-1.066592e+02
5.800000e-07	-4.836298e-06	-1.575970e-09	-3.371731e+01	-1.064502e+02
5.900000e-07	-4.813702e-06	-1.569049e-09	-3.355978e+01	-1.062391e+02
6.000000e-07	-4.790772e-06	-1.654141e-09	-3.339992e+01	-1.060256e+02
6.100000e-07	-4.767529e-06	-1.585212e-09	-3.323787e+01	-1.058096e+02
6.200000e-07	-4.743993e-06	-1.536684e-09	-3.307379e+01	-1.055906e+02
6.300000e-07	-4.720253e-06	-1.610080e-09	-3.290828e+01	-1.053685e+02
6.400000e-07	-4.696294e-06	-1.594947e-09	-3.274125e+01	-1.051428e+02
6.500000e-07	-4.672079e-06	-1.544186e-09	-3.257243e+01	-1.049133e+02
6.600000e-07	-4.647494e-06	-1.590468e-09	-3.240103e+01	-1.046798e+02
6.700000e-07	-4.622309e-06	-1.599124e-09	-3.222545e+01	-1.044418e+02
6.800000e-07	-4.596426e-06	-1.535793e-09	-3.204499e+01	-1.041993e+02
6.900000e-07	-4.570045e-06	-1.555154e-09	-3.186107e+01	-1.039518e+02
7.000000e-07	-4.543257e-06	-1.573477e-09	-3.167432e+01	-1.036992e+02
7.100000e-07	-4.516046e-06	-1.536262e-09	-3.148461e+01	-1.034412e+02
7.200000e-07	-4.488567e-06	-1.534104e-09	-3.129303e+01	-1.031777e+02
7.300000e-07	-4.460922e-06	-1.570147e-09	-3.110030e+01	-1.029085e+02
7.400000e-07	-4.433084e-06	-1.544402e-09	-3.090622e+01	-1.026335e+02
7.500000e-07	-4.405022e-06	-1.534345e-09	-3.071058e+01	-1.023525e+02
7.600000e-07	-4.376743e-06	-1.548446e-09	-3.051342e+01	-1.020654e+02
7.700000e-07	-4.348148e-06	-1.538952e-09	-3.031407e+01	-1.017723e+02
7.800000e-07	-4.319160e-06	-1.516462e-09	-3.011197e+01	-1.014730e+02
7.900000e-07	-4.289849e-06	-1.532426e-09	-2.990763e+01	-1.011677e+02
8.000000e-07	-4.260261e-06	-1.520953e-09	-2.970134e+01	-1.008563e+02
8.100000e-07	-4.230419e-06	-1.497229e-09	-2.949329e+01	-1.005388e+02
8.200000e-07	-4.200279e-06	-1.498682e-09	-2.928317e+01	-1.002155e+02
8.300000e-07	-4.169862e-06	-1.505068e-09	-2.907111e+01	-9.988642e+01
8.400000e-07	-4.139227e-06	-1.481286e-09	-2.885753e+01	-9.955166e+01
8.500000e-07	-4.108317e-06	-1.485722e-09	-2.864204e+01	-9.921141e+01
8.600000e-07	-4.077117e-06	-1.501411e-09	-2.842452e+01	-9.886586e+01
8.700000e-07	-4.045611e-06	-1.487065e-09	-2.820486e+01	-9.851518e+01
8.800000e-07	-4.013899e-06	-1.468862e-09	-2.798378e+01	-9.815959e+01
8.900000e-07	-3.982113e-06	-1.472333e-09	-2.776218e+01	-9.779927e+01
9.000000e-07	-3.950092e-06	-1.457616e-09	-2.753894e+01	-9.743446e+01
9.100000e-07	-3.917756e-06	-1.436647e-09	-2.731350e+01	-9.706534e+01
9.200000e-07	-3.885162e-06	-1.444712e-09	-2.708626e+01	-9.669214e+01
9.300000e-07	-3.852267e-06	-1.447397e-09	-2.685693e+01	-9.631504e+01
9.400000e-07	-3.818955e-06	-1.430309e-09	-2.662468e+01	-9.593423e+01
9.500000e-07	-3.785192e-06	-1.426898e-09	-2.638930e+01	-9.554987e+01
9.600000e-07	-3.751056e-06	-1.428944e-09	-2.615131e+01	-9.516212e+01
9.700000e-07	-3.716535e-06	-1.404698e-09	-2.591064e+01	-9.477111e+01
9.800000e-07	-3.681583e-06	-1.390510e-09	-2.566697e+01	-9.437693e+01
9.900000e-07	-3.646273e-06	-1.393448e-09	-2.542080e+01	-9.397967e+01
1.000000e-06	-3.610710e-06	-1.387368e-09	-2.517286e+01	-9.357937e+01
1.010000e-06	-3.574980e-06	-1.368466e-09	-2.492376e+01	-9.317606e+01
1.020000e-06	-3.539063e-06	-1.371469e-09	-2.467335e+01	-9.276971e+01
1.030000e-06	-3.502962e-06	-1.369649e-09	-2.442167e+01	-9.236027e+01
1.040000e-06	-3.466714e-06	-1.356803e-09	-2.416896e+01	-9.194768e+01
1.050000e-06	-3.430243e-06	-1.349533e-09	-2.391470e+01	-9.153181e+01
1.060000e-06	-3.393546e-06	-1.349116e-09	-2.365886e+01	-9.111252e+01
1.070000e-06	-3.356573e-06	-1.331032e-09	-2.340109e+01	-9.068962e+01
1.080000e-06	-3.319344e-06	-1.318278e-09	-2.314154e+01	-9.026292e+01
1.090000e-06	-3.281901e-06	-1.313533e-09	-2.288049e+01	-8.983218e+01
1.100000e-06	-3.244182e-06	-1.304599e-09	-2.261753e+01	-8.939713e+01
1.110000e-06	-3.206232e-06	-1.288767e-09	-2.235295e+01	-8.895750e+01
1.120000e-06	-3.168095e-06	-1.281920e-09	-2.208707e+01	-8.851296e+01
1.130000e-06	-3.129817e-06	-1.270863e-09	-2.182021e+01	-8.806321e+01
1.140000e-06	-3.091295e-06	-1.256366e-09	-2.155164e+01	-8.760791e+01
1.150000e-06	-3.052593e-06	-1.251242e-09	-2.128182e+01	-8.714670e+01
1.160000e-06	-3.013731e-06	-1.250613e-09	-2.101089e+01	-8.667925e+01
1.170000e-06	-2.974540e-06	-1.240737e-09	-2.073766e+01	-8.620518e+01
1.180000e-06	-2.935159e-06	-1.232248e-09	-2.046311e+01	-8.572417e+01
1.190000e-06	-2.895655e-06	-1.226689e-09	-2.018770e+01	-8.523585e+01
1.200000e-06	-2.855967e-06	-1.215878e-09	-1.991100e+01	-8.473989e+01
1.210000e-06	-2.816135e-06	-1.203925e-09	-1.963330e+01	-8.423597e+01
1.220000e-06	-2.776228e-06	-1.196264e-09	-1.935508e+01	-8.372379e+01
1.230000e-06	-2.736238e-06	-1.188297e-09	-1.907628e+01	-8.320306e+01
1.240000e-06	-2.696119e-06	-1.176644e-09	-1.879658e+01	-8.267351e+01
1.250000e-06	-2.655819e-06	-1.171746e-09	-1.851562e+01	-8.213492e+01
1.260000e-06	-2.615346e-06	-1.167940e-09	-1.823346e+01	-8.158707e+01
1.270000e-06	-2.574617e-06	-1.161802e-09	-1.794951e+01	-8.102979e+01
1.280000e-06	-2.533601e-06	-1.148059e-09	-1.766356e+01	-8.046292e+01
1.290000e-06	-2.492423e-06	-1.134212e-09	-1.737648e+01	-7.988635e+01
1.300000e-06	-2.450969e-06	-1.118281e-09	-1.708747e+01	-7.930000e+01
1.310000e-06	-2.409091e-06	-1.105057e-09	-1.679551e+01	-7.870380e+01
1.320000e-06	-2.366887e-06	-1.097970e-09	-1.650128e+01	-7.809773e+01
1.330000e-06	-2.324490e-06	-1.093416e-09	-1.620570e+01	-7.748178e+01
1.340000e-06	-2.281787e-06	-1.085754e-09	-1.590798e+01	-7.685599e+01
1.350000e-06	-2.238741e-06	-1.080184e-09	-1.560787e+01	-7.622040e+01
1.360000e-06	-2.195466e-06	-1.075256e-09	-1.530617e+01	-7.557508e+01
1.370000e-06	-2.151955e-06	-1.066864e-09	-1.500283e+01	-7.492010e+01
1.380000e-06	-2.108276e-06	-1.052822e-09	-1.469831e+01	-7.425557e+01
1.390000e-06	-2.064528e-06	-1.038478e-09	-1.439331e+01	-7.358156e+01
1.400000e-06	-2.020721e-06	-1.020603e-09	-1.408790e+01	-7.289818e+01
1.410000e-06	-1.976870e-06	-1.005119e-09	-1.378218e+01	-7.220551e+01
1.420000e-06	-1.932960e-06	-9.922384e-10	-1.347605e+01	-7.150364e+01
1.430000e-06	-1.888993e-06	-9.825808e-10	-1.316953e+01	-7.079263e+01
1.440000e-06	-1.844973e-06	-9.721157e-10	-1.286264e+01	-7.007250e+01
1.450000e-06	-1.800855e-06	-9.612491e-10	-1.255506e+01	-6.934326e+01
1.460000e-06	-1.756615e-06	-9.523474e-10	-1.224663e+01	-6.860488e+01
1.470000e-06	-1.712220e-06	-9.430954e-10	-1.193712e+01	-6.785729e+01
1.480000e-06	-1.667733e-06	-9.304945e-10	-1.162697e+01	-6.710037e+01
1.490000e-06	-1.623175e-06	-9.128900e-10	-1.131632e+01	-6.633393e+01
1.500000e-06	-1.578508e-06	-8.929056e-10	-1.100491e+01	-6.555774e+01
1.510000e-06	-1.533686e-06	-8.752336e-10	-1.069243e+01	-6.477150e+01
1.520000e-06	-1.488658e-06	-8.628446e-10	-1.037851e+01	-6.397484e+01
1.530000e-06	-1.443544e-06	-8.533572e-10	-1.006398e+01	-6.316733e+01
1.540000e-06	-1.398336e-06	-8.444268e-10	-9.748806e+00	-6.234846e+01
1.550000e-06	-1.353028e-06	-8.347197e-10	-9.432930e+00	-6.151762e+01
1.560000e-06	-1.307667e-06	-8.234240e-10	-9.116689e+00	-6.067417e+01
1.570000e-06	-1.262190e-06	-8.062686e-10	-8.799634e+00	-5.981734e+01
1.580000e-06	-1.216597e-06	-7.866461e-10	-8.481773e+00	-5.894633e+01
1.590000e-06	-1.170946e-06	-7.666594e-10	-8.163509e+00	-5.806024e+01
1.600000e-06	-1.125273e-06	-7.482931e-10	-7.845085e+00	-5.715809e+01
1.610000e-06	-1.079488e-06	-7.335853e-10	-7.525888e+00	-5.623885e+01
1.620000e-06	-1.033542e-06	-7.222406e-10	-7.205563e+00	-5.530141e+01
1.630000e-06	-9.875326e-07	-7.090622e-10	-6.884800e+00	-5.434461e+01
1.640000e-06	-9.415317e-07	-6.964551e-10	-6.564095e+00	-5.336724e+01
1.650000e-06	-8.955375e-07	-6.816513e-10	-6.243437e+00	-5.236802e+01
1.660000e-06	-8.495218e-07	-6.660384e-10	-5.922628e+00	-5.134566e+01
1.670000e-06	-8.033851e-07	-6.522247e-10	-5.600976e+00	-5.029882e+01
1.680000e-06	-7.571471e-07	-6.388889e-10	-5.278617e+00	-4.922616e+01
1.690000e-06	-7.108811e-07	-6.219811e-10	-4.956064e+00	-4.812632e+01
1.700000e-06	-6.645863e-07	-6.012307e-10	-4.633309e+00	-4.699794e+01
1.710000e-06	-6.181960e-07	-5.781380e-10	-4.309889e+00	-4.583967e+01
1.720000e-06	-5.717655e-07	-5.547531e-10	-3.986189e+00	-4.465020e+01
1.730000e-06	-5.254037e-07	-5.330332e-10	-3.662967e+00	-4.342824e+01
1.740000e-06	-4.789454e-07	-5.148365e-10	-3.339073e+00	-4.217257e+01
1.750000e-06	-4.323415e-07	-4.996620e-10	-3.014163e+00	-4.088202e+01
1.760000e-06	-3.857471e-07	-4.842165e-10	-2.689320e+00	-3.955549e+01
1.770000e-06	-3.392005e-07	-4.663236e-10	-2.364811e+00	-3.819198e+01
1.780000e-06	-2.925873e-07	-4.467795e-10	-2.039837e+00	-3.679058e+01
1.790000e-06	-2.459179e-07	-4.260612e-10	-1.714471e+00	-3.535050e+01
1.800000e-06	-1.992117e-07	-4.040826e-10	-1.388848e+00	-3.387106e+01
1.810000e-06	-1.525684e-07	-3.824013e-10	-1.063664e+00	-3.235173e+01
1.820000e-06	-1.060256e-07	-3.608737e-10	-7.391809e-01	-3.079210e+01
1.830000e-06	-5.937646e-08	-3.407409e-10	-4.139560e-01	-2.919193e+01
1.840000e-06	-1.261580e-08	-3.221937e-10	-8.795380e-02	-2.755114e+01
1.850000e-06	3.409172e-08	-3.034830e-10	2.376780e-01	-2.586981e+01
1.860000e-06	8.069428e-08	-2.819399e-10	5.625779e-01	-2.414819e+01
1.870000e-06	1.272397e-07	-2.574770e-10	8.870794e-01	-2.238671e+01
1.880000e-06	1.737687e-07	-2.321425e-10	1.211467e+00	-2.058599e+01
1.890000e-06	2.203535e-07	-2.048880e-10	1.536243e+00	-1.874683e+01
1.900000e-06	2.669736e-07	-1.747104e-10	1.861265e+00	-1.687020e+01
1.910000e-06	3.135904e-07	-1.456897e-10	2.186265e+00	-1.495727e+01
1.920000e-06	3.602388e-07	-1.182287e-10	2.511484e+00	-1.300939e+01
1.930000e-06	4.068162e-07	-9.290333e-11	2.836209e+00	-1.102807e+01
1.940000e-06	4.532588e-07	-6.794459e-11	3.159993e+00	-9.015017e+00
1.950000e-06	4.996341e-07	-4.218322e-11	3.483309e+00	-6.972096e+00
1.960000e-06	5.459758e-07	-1.597648e-11	3.806390e+00	-4.901330e+00
1.970000e-06	5.923156e-07	1.181353e-11	4.129458e+00	-2.804894e+00
1.980000e-06	6.386165e-07	4.097269e-11	4.452255e+00	-6.851065e-01
1.990000e-06	6.848839e-07	7.211626e-11	4.774818e+00	1.455586e+00
2.000000e-06	7.311591e-07	1.046976e-10	5.097436e+00	3.614619e+00
2.010000e-06	7.773414e-07	1.357051e-10	5.419406e+00	5.789322e+00
2.020000e-06	8.234738e-07	1.687323e-10	5.741028e+00	7.976933e+00
2.030000e-06	8.695953e-07	2.024131e-10	6.062575e+00	1.017462e+01
2.040000e-06	9.156646e-07	2.335996e-10	6.383757e+00	1.237947e+01
2.050000e-06	9.616852e-07	2.618330e-10	6.704600e+00	1.458856e+01
2.060000e-06	1.007624e-06	2.873629e-10	7.024869e+00	1.679891e+01
2.070000e-06	1.053470e-06	3.144100e-10	7.344498e+00	1.900753e+01
2.080000e-06	1.099233e-06	3.423938e-10	7.663542e+00	2.121145e+01
2.090000e-06	1.144995e-06	3.734165e-10	7.982582e+00	2.340771e+01
2.100000e-06	1.190635e-06	4.059936e-10	8.300773e+00	2.559339e+01
2.110000e-06	1.236103e-06	4.389214e-10	8.617766e+00	2.776561e+01
2.120000e-06	1.281533e-06	4.685731e-10	8.934492e+00	2.992160e+01
2.130000e-06	1.326862e-06	4.948281e-10	9.250513e+00	3.205862e+01
2.140000e-06	1.372077e-06	5.204375e-10	9.565736e+00	3.417407e+01
2.150000e-06	1.417230e-06	5.446247e-10	9.880531e+00	3.626544e+01
2.160000e-06	1.462345e-06	5.681608e-10	1.019506e+01	3.833035e+01
2.170000e-06	1.507405e-06	5.924032e-10	1.050920e+01	4.036657e+01
2.180000e-06	1.552272e-06	6.184616e-10	1.082201e+01	4.237200e+01
2.190000e-06	1.596950e-06	6.470669e-10	1.113349e+01	4.434469e+01
2.200000e-06	1.641585e-06	6.765646e-10	1.144467e+01	4.628288e+01
2.210000e-06	1.686128e-06	7.064689e-10	1.175521e+01	4.818496e+01
2.220000e-06	1.730519e-06	7.347482e-10	1.206470e+01	5.004950e+01
2.230000e-06	1.774804e-06	7.587148e-10	1.237344e+01	5.187526e+01
2.240000e-06	1.818991e-06	7.789282e-10	1.268150e+01	5.366116e+01
2.250000e-06	1.863070e-06	7.956434e-10	1.298880e+01	5.540634e+01
2.260000e-06	1.907030e-06	8.129392e-10	1.329528e+01	5.711008e+01
2.270000e-06	1.950940e-06	8.338283e-10	1.360141e+01	5.877188e+01
2.280000e-06	1.994836e-06	8.575888e-10	1.390744e+01	6.039138e+01
2.290000e-06	2.038656e-06	8.826060e-10	1.421294e+01	6.196844e+01
2.300000e-06	2.082353e-06	9.081724e-10	1.451758e+01	6.350305e+01
2.310000e-06	2.125947e-06	9.314030e-10	1.482151e+01	6.499538e+01
2.320000e-06	2.169489e-06	9.515423e-10	1.512507e+01	6.644574e+01
2.330000e-06	2.212906e-06	9.672075e-10	1.542776e+01	6.785461e+01
2.340000e-06	2.256051e-06	9.803206e-10	1.572856e+01	6.922258e+01
2.350000e-06	2.298904e-06	9.953645e-10	1.602731e+01	7.055038e+01
2.360000e-06	2.341457e-06	1.013242e-09	1.632399e+01	7.183885e+01
2.370000e-06	2.383714e-06	1.032888e-09	1.661859e+01	7.308891e+01
2.380000e-06	2.425777e-06	1.052700e-09	1.691184e+01	7.430161e+01
2.390000e-06	2.467707e-06	1.070174e-09	1.720416e+01	7.547805e+01
2.400000e-06	2.509331e-06	1.085863e-09	1.749435e+01	7.661940e+01
2.410000e-06	2.550553e-06	1.101439e-09	1.778174e+01	7.772688e+01
2.420000e-06	2.591450e-06	1.116493e-09	1.806686e+01	7.880176e+01
2.430000e-06	2.632105e-06	1.130746e-09	1.835030e+01	7.984531e+01
2.440000e-06	2.672593e-06	1.145234e-09	1.863257e+01	8.085884e+01
2.450000e-06	2.712887e-06	1.160558e-09	1.891349e+01	8.184364e+01
2.460000e-06	2.752983e-06	1.175596e-09	1.919303e+01	8.280102e+01
2.470000e-06	2.792924e-06	1.188145e-09	1.947148e+01	8.373224e+01
2.480000e-06	2.832747e-06	1.199946e-09	1.974912e+01	8.463855e+01
2.490000e-06	2.872459e-06	1.212344e-09	2.002598e+01	8.552115e+01
2.500000e-06	2.912038e-06	1.223701e-09	2.030191e+01	8.638119e+01
2.510000e-06	2.951466e-06	1.237601e-09	2.057680e+01	8.721978e+01
2.520000e-06	2.990637e-06	1.252160e-09	2.084988e+01	8.803794e+01
2.530000e-06	3.029526e-06	1.265563e-09	2.112101e+01	8.883666e+01
2.540000e-06	3.068251e-06	1.278830e-09	2.139098e+01	8.961682e+01
2.550000e-06	3.106808e-06	1.290499e-09	2.165980e+01	9.037925e+01
2.560000e-06	3.145161e-06	1.298649e-09	2.192718e+01	9.112470e+01
2.570000e-06	3.183322e-06	1.303789e-09	2.219323e+01	9.185383e+01
2.580000e-06	3.221309e-06	1.308915e-09	2.245806e+01	9.256722e+01
2.590000e-06	3.259084e-06	1.316097e-09	2.272142e+01	9.326538e+01
2.600000e-06	3.296547e-06	1.328875e-09	2.298260e+01	9.394873e+01
2.610000e-06	3.333698e-06	1.345523e-09	2.324161e+01	9.461765e+01
2.620000e-06	3.370616e-06	1.361183e-09	2.349899e+01	9.527239e+01
2.630000e-06	3.407266e-06	1.371199e-09	2.375451e+01	9.591318e+01
2.640000e-06	3.443701e-06	1.377177e-09	2.400852e+01	9.654017e+01
2.650000e-06	3.480007e-06	1.381808e-09	2.426164e+01	9.715346e+01
2.660000e-06	3.516148e-06	1.384297e-09	2.451360e+01	9.775308e+01
2.670000e-06	3.552091e-06	1.387986e-09	2.476418e+01	9.833903e+01
2.680000e-06	3.587856e-06	1.394774e-09	2.501352e+01	9.891126e+01
2.690000e-06	3.623440e-06	1.404957e-09	2.526161e+01	9.946972e+01
2.700000e-06	3.658863e-06	1.416826e-09	2.550857e+01	1.000143e+02
2.710000e-06	3.694139e-06	1.426330e-09	2.575450e+01	1.005449e+02
2.720000e-06	3.729134e-06	1.432896e-09	2.599848e+01	1.010613e+02
2.730000e-06	3.763726e-06	1.436753e-09	2.623964e+01	1.015635e+02
2.740000e-06	3.797847e-06	1.440146e-09	2.647752e+01	1.020514e+02
2.750000e-06	3.831521e-06	1.445206e-09	2.671229e+01	1.025248e+02
2.760000e-06	3.864650e-06	1.452236e-09	2.694326e+01	1.029835e+02
2.770000e-06	3.897284e-06	1.460948e-09	2.717077e+01	1.034277e+02
2.780000e-06	3.929709e-06	1.468471e-09	2.739683e+01	1.038571e+02
2.790000e-06	3.961959e-06	1.474317e-09	2.762167e+01	1.042719e+02
2.800000e-06	3.994029e-06	1.479534e-09	2.784525e+01	1.046720e+02
2.810000e-06	4.025867e-06	1.483652e-09	2.806722e+01	1.050575e+02
2.820000e-06	4.057471e-06	1.488260e-09	2.828755e+01	1.054285e+02
2.830000e-06	4.088859e-06	1.495507e-09	2.850638e+01	1.057851e+02
2.840000e-06	4.119991e-06	1.503355e-09	2.872342e+01	1.061276e+02
2.850000e-06	4.150868e-06	1.509694e-09	2.893869e+01	1.064563e+02
2.860000e-06	4.181436e-06	1.515317e-09	2.915180e+01	1.067713e+02
2.870000e-06	4.211685e-06	1.521479e-09	2.936269e+01	1.070731e+02
2.880000e-06	4.241616e-06	1.526046e-09	2.957136e+01	1.073621e+02
2.890000e-06	4.271231e-06	1.529283e-09	2.977782e+01	1.076387e+02
2.900000e-06	4.300579e-06	1.535430e-09	2.998243e+01	1.079033e+02
