# Temperatura_=_15.3
# Concentracion g/m^3_=_1620.0
# C_Vs_to_Am_M_A/Vsm_=_65563218390.804596
# pendiente_HvsI_1/m_=_3716.3
# ordenada_HvsI_A/m_=_1297.0
# frecuencia_Hz_=_135106.23367685202

Tiempo_(s)	Campo_(V.s)	Magnetizacion_(V.s)	Campo_(kA/m)	Magnetizacion_(A/m)
0.000000e+00	-5.525287e-06	-1.802065e-09	-3.836583e+01	-1.173462e+02
1.000000e-08	-5.525553e-06	-1.801843e-09	-3.836768e+01	-1.173586e+02
2.000000e-08	-5.525610e-06	-1.804911e-09	-3.836807e+01	-1.173738e+02
3.000000e-08	-5.525321e-06	-1.807470e-09	-3.836606e+01	-1.173916e+02
4.000000e-08	-5.524542e-06	-1.806657e-09	-3.836065e+01	-1.174119e+02
5.000000e-08	-5.523329e-06	-1.803478e-09	-3.835224e+01	-1.174343e+02
6.000000e-08	-5.521566e-06	-1.792245e-09	-3.833999e+01	-1.174586e+02
7.000000e-08	-5.519130e-06	-1.780495e-09	-3.832308e+01	-1.174844e+02
8.000000e-08	-5.516146e-06	-1.794093e-09	-3.830236e+01	-1.175112e+02
9.000000e-08	-5.512695e-06	-1.806115e-09	-3.827840e+01	-1.175386e+02
1.000000e-07	-5.508835e-06	-1.813280e-09	-3.825160e+01	-1.175661e+02
1.100000e-07	-5.504642e-06	-1.841375e-09	-3.822248e+01	-1.175931e+02
1.200000e-07	-5.500157e-06	-1.795531e-09	-3.819134e+01	-1.176192e+02
1.300000e-07	-5.495426e-06	-1.747857e-09	-3.815849e+01	-1.176436e+02
1.400000e-07	-5.490425e-06	-1.749678e-09	-3.812376e+01	-1.176659e+02
1.500000e-07	-5.485041e-06	-1.793500e-09	-3.808638e+01	-1.176854e+02
1.600000e-07	-5.479249e-06	-1.827389e-09	-3.804616e+01	-1.177015e+02
1.700000e-07	-5.473041e-06	-1.761164e-09	-3.800305e+01	-1.177137e+02
1.800000e-07	-5.466423e-06	-1.791273e-09	-3.795710e+01	-1.177213e+02
1.900000e-07	-5.459390e-06	-1.817070e-09	-3.790826e+01	-1.177238e+02
2.000000e-07	-5.452009e-06	-1.845308e-09	-3.785701e+01	-1.177206e+02
2.100000e-07	-5.444388e-06	-1.779729e-09	-3.780409e+01	-1.177112e+02
2.200000e-07	-5.436522e-06	-1.806914e-09	-3.774948e+01	-1.176952e+02
2.300000e-07	-5.428349e-06	-1.843670e-09	-3.769273e+01	-1.176722e+02
2.400000e-07	-5.419854e-06	-1.880670e-09	-3.763374e+01	-1.176416e+02
2.500000e-07	-5.410857e-06	-1.835884e-09	-3.757126e+01	-1.176032e+02
2.600000e-07	-5.401143e-06	-1.817175e-09	-3.750382e+01	-1.175568e+02
2.700000e-07	-5.390730e-06	-1.823691e-09	-3.743151e+01	-1.175019e+02
2.800000e-07	-5.379753e-06	-1.829548e-09	-3.735529e+01	-1.174385e+02
2.900000e-07	-5.368383e-06	-1.822166e-09	-3.727634e+01	-1.173664e+02
3.000000e-07	-5.356619e-06	-1.808958e-09	-3.719466e+01	-1.172855e+02
3.100000e-07	-5.344463e-06	-1.826126e-09	-3.711025e+01	-1.171959e+02
3.200000e-07	-5.331955e-06	-1.809850e-09	-3.702340e+01	-1.170975e+02
3.300000e-07	-5.318979e-06	-1.811486e-09	-3.693329e+01	-1.169904e+02
3.400000e-07	-5.305527e-06	-1.776125e-09	-3.683989e+01	-1.168747e+02
3.500000e-07	-5.291652e-06	-1.800413e-09	-3.674354e+01	-1.167507e+02
3.600000e-07	-5.277363e-06	-1.795679e-09	-3.664433e+01	-1.166186e+02
3.700000e-07	-5.262734e-06	-1.797778e-09	-3.654274e+01	-1.164785e+02
3.800000e-07	-5.247703e-06	-1.780590e-09	-3.643838e+01	-1.163309e+02
3.900000e-07	-5.232123e-06	-1.823324e-09	-3.633019e+01	-1.161761e+02
4.000000e-07	-5.215882e-06	-1.791662e-09	-3.621742e+01	-1.160144e+02
4.100000e-07	-5.199233e-06	-1.762099e-09	-3.610182e+01	-1.158462e+02
4.200000e-07	-5.182290e-06	-1.774161e-09	-3.598417e+01	-1.156718e+02
4.300000e-07	-5.164972e-06	-1.804517e-09	-3.586392e+01	-1.154919e+02
4.400000e-07	-5.147430e-06	-1.744867e-09	-3.574211e+01	-1.153066e+02
4.500000e-07	-5.129635e-06	-1.760703e-09	-3.561855e+01	-1.151165e+02
4.600000e-07	-5.111382e-06	-1.811624e-09	-3.549181e+01	-1.149219e+02
4.700000e-07	-5.092663e-06	-1.780386e-09	-3.536183e+01	-1.147234e+02
4.800000e-07	-5.073544e-06	-1.727113e-09	-3.522907e+01	-1.145211e+02
4.900000e-07	-5.054128e-06	-1.784012e-09	-3.509425e+01	-1.143156e+02
5.000000e-07	-5.034522e-06	-1.773266e-09	-3.495811e+01	-1.141072e+02
5.100000e-07	-5.014726e-06	-1.698740e-09	-3.482066e+01	-1.138961e+02
5.200000e-07	-4.994684e-06	-1.721783e-09	-3.468149e+01	-1.136827e+02
5.300000e-07	-4.974295e-06	-1.767957e-09	-3.453992e+01	-1.134672e+02
5.400000e-07	-4.953494e-06	-1.716456e-09	-3.439548e+01	-1.132498e+02
5.500000e-07	-4.932287e-06	-1.718607e-09	-3.424823e+01	-1.130307e+02
5.600000e-07	-4.910755e-06	-1.775549e-09	-3.409871e+01	-1.128100e+02
5.700000e-07	-4.888908e-06	-1.728427e-09	-3.394702e+01	-1.125879e+02
5.800000e-07	-4.866762e-06	-1.685452e-09	-3.379324e+01	-1.123642e+02
5.900000e-07	-4.844266e-06	-1.729058e-09	-3.363704e+01	-1.121392e+02
6.000000e-07	-4.821337e-06	-1.724260e-09	-3.347783e+01	-1.119126e+02
6.100000e-07	-4.798120e-06	-1.668622e-09	-3.331661e+01	-1.116845e+02
6.200000e-07	-4.774650e-06	-1.701626e-09	-3.315365e+01	-1.114547e+02
6.300000e-07	-4.750915e-06	-1.715792e-09	-3.298884e+01	-1.112231e+02
6.400000e-07	-4.726999e-06	-1.677682e-09	-3.282277e+01	-1.109895e+02
6.500000e-07	-4.702793e-06	-1.677862e-09	-3.265470e+01	-1.107536e+02
6.600000e-07	-4.678189e-06	-1.708879e-09	-3.248385e+01	-1.105153e+02
6.700000e-07	-4.653104e-06	-1.672767e-09	-3.230967e+01	-1.102743e+02
6.800000e-07	-4.627510e-06	-1.662940e-09	-3.213196e+01	-1.100303e+02
6.900000e-07	-4.601382e-06	-1.676850e-09	-3.195053e+01	-1.097830e+02
7.000000e-07	-4.574693e-06	-1.665678e-09	-3.176521e+01	-1.095321e+02
7.100000e-07	-4.547558e-06	-1.640159e-09	-3.157679e+01	-1.092773e+02
7.200000e-07	-4.520138e-06	-1.659767e-09	-3.138640e+01	-1.090183e+02
7.300000e-07	-4.492508e-06	-1.656664e-09	-3.119454e+01	-1.087548e+02
7.400000e-07	-4.464684e-06	-1.642797e-09	-3.100134e+01	-1.084864e+02
7.500000e-07	-4.436707e-06	-1.640904e-09	-3.080708e+01	-1.082130e+02
7.600000e-07	-4.408549e-06	-1.642511e-09	-3.061156e+01	-1.079342e+02
7.700000e-07	-4.380083e-06	-1.621172e-09	-3.041390e+01	-1.076497e+02
7.800000e-07	-4.351219e-06	-1.618363e-09	-3.021348e+01	-1.073595e+02
7.900000e-07	-4.321946e-06	-1.618170e-09	-3.001021e+01	-1.070631e+02
8.000000e-07	-4.292320e-06	-1.608132e-09	-2.980450e+01	-1.067605e+02
8.100000e-07	-4.262445e-06	-1.601379e-09	-2.959706e+01	-1.064516e+02
8.200000e-07	-4.232370e-06	-1.603828e-09	-2.938823e+01	-1.061362e+02
8.300000e-07	-4.202070e-06	-1.592907e-09	-2.917783e+01	-1.058141e+02
8.400000e-07	-4.171504e-06	-1.581699e-09	-2.896559e+01	-1.054855e+02
8.500000e-07	-4.140594e-06	-1.585810e-09	-2.875096e+01	-1.051502e+02
8.600000e-07	-4.109336e-06	-1.584033e-09	-2.853392e+01	-1.048083e+02
8.700000e-07	-4.077829e-06	-1.575229e-09	-2.831514e+01	-1.044598e+02
8.800000e-07	-4.046169e-06	-1.571946e-09	-2.809531e+01	-1.041049e+02
8.900000e-07	-4.014438e-06	-1.570156e-09	-2.787497e+01	-1.037435e+02
9.000000e-07	-3.982520e-06	-1.552976e-09	-2.765335e+01	-1.033758e+02
9.100000e-07	-3.950272e-06	-1.546622e-09	-2.742943e+01	-1.030021e+02
9.200000e-07	-3.917766e-06	-1.542826e-09	-2.720372e+01	-1.026224e+02
9.300000e-07	-3.884892e-06	-1.534748e-09	-2.697545e+01	-1.022370e+02
9.400000e-07	-3.851476e-06	-1.524558e-09	-2.674342e+01	-1.018460e+02
9.500000e-07	-3.817599e-06	-1.526573e-09	-2.650819e+01	-1.014497e+02
9.600000e-07	-3.783232e-06	-1.516613e-09	-2.626956e+01	-1.010482e+02
9.700000e-07	-3.748347e-06	-1.505824e-09	-2.602733e+01	-1.006419e+02
9.800000e-07	-3.713130e-06	-1.499819e-09	-2.578279e+01	-1.002309e+02
9.900000e-07	-3.677763e-06	-1.497080e-09	-2.553721e+01	-9.981549e+01
1.000000e-06	-3.642214e-06	-1.483160e-09	-2.529037e+01	-9.939579e+01
1.010000e-06	-3.606462e-06	-1.476452e-09	-2.504212e+01	-9.897202e+01
1.020000e-06	-3.570599e-06	-1.468826e-09	-2.479310e+01	-9.854435e+01
1.030000e-06	-3.534619e-06	-1.458652e-09	-2.454327e+01	-9.811294e+01
1.040000e-06	-3.498479e-06	-1.449647e-09	-2.429232e+01	-9.767790e+01
1.050000e-06	-3.462152e-06	-1.450893e-09	-2.404008e+01	-9.723935e+01
1.060000e-06	-3.425557e-06	-1.444988e-09	-2.378598e+01	-9.679734e+01
1.070000e-06	-3.388619e-06	-1.436588e-09	-2.352949e+01	-9.635193e+01
1.080000e-06	-3.351355e-06	-1.430144e-09	-2.327074e+01	-9.590311e+01
1.090000e-06	-3.313879e-06	-1.421243e-09	-2.301052e+01	-9.545087e+01
1.100000e-06	-3.276187e-06	-1.405797e-09	-2.274880e+01	-9.499514e+01
1.110000e-06	-3.238303e-06	-1.394860e-09	-2.248574e+01	-9.453583e+01
1.120000e-06	-3.200210e-06	-1.386918e-09	-2.222124e+01	-9.407282e+01
1.130000e-06	-3.161803e-06	-1.374941e-09	-2.195455e+01	-9.360595e+01
1.140000e-06	-3.123139e-06	-1.366931e-09	-2.168608e+01	-9.313502e+01
1.150000e-06	-3.084296e-06	-1.364778e-09	-2.141637e+01	-9.265982e+01
1.160000e-06	-3.045250e-06	-1.360434e-09	-2.114525e+01	-9.218010e+01
1.170000e-06	-3.005991e-06	-1.349807e-09	-2.087265e+01	-9.169559e+01
1.180000e-06	-2.966609e-06	-1.340547e-09	-2.059919e+01	-9.120599e+01
1.190000e-06	-2.927045e-06	-1.329213e-09	-2.032447e+01	-9.071100e+01
1.200000e-06	-2.887271e-06	-1.317938e-09	-2.004829e+01	-9.021027e+01
1.210000e-06	-2.847445e-06	-1.305535e-09	-1.977175e+01	-8.970347e+01
1.220000e-06	-2.807542e-06	-1.296064e-09	-1.949467e+01	-8.919024e+01
1.230000e-06	-2.767445e-06	-1.284468e-09	-1.921625e+01	-8.867023e+01
1.240000e-06	-2.727188e-06	-1.274801e-09	-1.893672e+01	-8.814308e+01
1.250000e-06	-2.686766e-06	-1.265088e-09	-1.865604e+01	-8.760843e+01
1.260000e-06	-2.646083e-06	-1.259090e-09	-1.837356e+01	-8.706593e+01
1.270000e-06	-2.605178e-06	-1.251523e-09	-1.808953e+01	-8.651524e+01
1.280000e-06	-2.564097e-06	-1.241995e-09	-1.780427e+01	-8.595602e+01
1.290000e-06	-2.522647e-06	-1.230078e-09	-1.751646e+01	-8.538795e+01
1.300000e-06	-2.480836e-06	-1.219438e-09	-1.722613e+01	-8.481074e+01
1.310000e-06	-2.438821e-06	-1.207841e-09	-1.693440e+01	-8.422409e+01
1.320000e-06	-2.396543e-06	-1.197348e-09	-1.664083e+01	-8.362775e+01
1.330000e-06	-2.353876e-06	-1.185903e-09	-1.634456e+01	-8.302146e+01
1.340000e-06	-2.310874e-06	-1.175629e-09	-1.604597e+01	-8.240501e+01
1.350000e-06	-2.267712e-06	-1.167154e-09	-1.574627e+01	-8.177819e+01
1.360000e-06	-2.224413e-06	-1.161004e-09	-1.544561e+01	-8.114082e+01
1.370000e-06	-2.180923e-06	-1.154025e-09	-1.514363e+01	-8.049274e+01
1.380000e-06	-2.137273e-06	-1.146851e-09	-1.484054e+01	-7.983381e+01
1.390000e-06	-2.093575e-06	-1.137098e-09	-1.453711e+01	-7.916390e+01
1.400000e-06	-2.049798e-06	-1.122559e-09	-1.423315e+01	-7.848288e+01
1.410000e-06	-2.005915e-06	-1.106228e-09	-1.392844e+01	-7.779067e+01
1.420000e-06	-1.962030e-06	-1.090378e-09	-1.362371e+01	-7.708714e+01
1.430000e-06	-1.918117e-06	-1.075029e-09	-1.331879e+01	-7.637222e+01
1.440000e-06	-1.874080e-06	-1.063243e-09	-1.301301e+01	-7.564579e+01
1.450000e-06	-1.829939e-06	-1.055348e-09	-1.270651e+01	-7.490776e+01
1.460000e-06	-1.785688e-06	-1.047025e-09	-1.239925e+01	-7.415799e+01
1.470000e-06	-1.741201e-06	-1.036402e-09	-1.209034e+01	-7.339636e+01
1.480000e-06	-1.696551e-06	-1.023540e-09	-1.178031e+01	-7.262271e+01
1.490000e-06	-1.651784e-06	-1.010724e-09	-1.146946e+01	-7.183685e+01
1.500000e-06	-1.606872e-06	-9.955890e-10	-1.115760e+01	-7.103856e+01
1.510000e-06	-1.561918e-06	-9.784911e-10	-1.084546e+01	-7.022758e+01
1.520000e-06	-1.516858e-06	-9.613264e-10	-1.053257e+01	-6.940362e+01
1.530000e-06	-1.471630e-06	-9.464480e-10	-1.021853e+01	-6.856633e+01
1.540000e-06	-1.426280e-06	-9.335920e-10	-9.903630e+00	-6.771532e+01
1.550000e-06	-1.380847e-06	-9.237630e-10	-9.588160e+00	-6.685013e+01
1.560000e-06	-1.335326e-06	-9.120023e-10	-9.272079e+00	-6.597025e+01
1.570000e-06	-1.289697e-06	-8.961608e-10	-8.955247e+00	-6.507511e+01
1.580000e-06	-1.244033e-06	-8.768221e-10	-8.638166e+00	-6.416409e+01
1.590000e-06	-1.198306e-06	-8.578172e-10	-8.320655e+00	-6.323649e+01
1.600000e-06	-1.152499e-06	-8.373202e-10	-8.002589e+00	-6.229155e+01
1.610000e-06	-1.106603e-06	-8.191700e-10	-7.683898e+00	-6.132845e+01
1.620000e-06	-1.060538e-06	-8.051767e-10	-7.364035e+00	-6.034632e+01
1.630000e-06	-1.014383e-06	-7.944225e-10	-7.043553e+00	-5.934421e+01
1.640000e-06	-9.681766e-07	-7.833688e-10	-6.722709e+00	-5.832114e+01
1.650000e-06	-9.218794e-07	-7.701148e-10	-6.401237e+00	-5.727605e+01
1.660000e-06	-8.755609e-07	-7.547667e-10	-6.079615e+00	-5.620787e+01
1.670000e-06	-8.292458e-07	-7.384262e-10	-5.758018e+00	-5.511546e+01
1.680000e-06	-7.828257e-07	-7.219687e-10	-5.435692e+00	-5.399766e+01
1.690000e-06	-7.362579e-07	-7.053711e-10	-5.112340e+00	-5.285329e+01
1.700000e-06	-6.897146e-07	-6.874377e-10	-4.789158e+00	-5.168115e+01
1.710000e-06	-6.431935e-07	-6.659643e-10	-4.466130e+00	-5.048003e+01
1.720000e-06	-5.965997e-07	-6.417325e-10	-4.142598e+00	-4.924873e+01
1.730000e-06	-5.500087e-07	-6.190420e-10	-3.819085e+00	-4.798606e+01
1.740000e-06	-5.033594e-07	-6.001706e-10	-3.495167e+00	-4.669087e+01
1.750000e-06	-4.566333e-07	-5.836888e-10	-3.170716e+00	-4.536202e+01
1.760000e-06	-4.098634e-07	-5.660227e-10	-2.845961e+00	-4.399845e+01
1.770000e-06	-3.630953e-07	-5.444872e-10	-2.521218e+00	-4.259915e+01
1.780000e-06	-3.163086e-07	-5.214507e-10	-2.196346e+00	-4.116316e+01
1.790000e-06	-2.694712e-07	-4.992789e-10	-1.871122e+00	-3.968965e+01
1.800000e-06	-2.226697e-07	-4.790139e-10	-1.546148e+00	-3.817785e+01
1.810000e-06	-1.758669e-07	-4.574102e-10	-1.221164e+00	-3.662712e+01
1.820000e-06	-1.290131e-07	-4.351432e-10	-8.958256e-01	-3.503692e+01
1.830000e-06	-8.214956e-08	-4.131210e-10	-5.704203e-01	-3.340688e+01
1.840000e-06	-3.532774e-08	-3.902944e-10	-2.453045e-01	-3.173672e+01
1.850000e-06	1.149076e-08	-3.667193e-10	7.978818e-02	-3.002636e+01
1.860000e-06	5.839675e-08	-3.451775e-10	4.054884e-01	-2.827583e+01
1.870000e-06	1.052858e-07	-3.243432e-10	7.310709e-01	-2.648537e+01
1.880000e-06	1.520581e-07	-3.012409e-10	1.055843e+00	-2.465537e+01
1.890000e-06	1.988832e-07	-2.754763e-10	1.380981e+00	-2.278639e+01
1.900000e-06	2.458163e-07	-2.486176e-10	1.706870e+00	-2.087919e+01
1.910000e-06	2.927199e-07	-2.202653e-10	2.032553e+00	-1.893471e+01
1.920000e-06	3.395773e-07	-1.905023e-10	2.357916e+00	-1.695406e+01
1.930000e-06	3.863537e-07	-1.605406e-10	2.682717e+00	-1.493855e+01
1.940000e-06	4.330687e-07	-1.337821e-10	3.007091e+00	-1.288966e+01
1.950000e-06	4.797824e-07	-1.079075e-10	3.331456e+00	-1.080906e+01
1.960000e-06	5.263491e-07	-8.083156e-11	3.654800e+00	-8.698601e+00
1.970000e-06	5.728533e-07	-5.197214e-11	3.977711e+00	-6.560284e+00
1.980000e-06	6.193800e-07	-2.094946e-11	4.300777e+00	-4.396282e+00
1.990000e-06	6.658617e-07	1.075870e-11	4.623531e+00	-2.208921e+00
2.000000e-06	7.122873e-07	4.370769e-11	4.945896e+00	-6.686587e-04
2.010000e-06	7.586314e-07	7.719129e-11	5.267694e+00	2.225878e+00
2.020000e-06	8.049056e-07	1.108023e-10	5.589008e+00	4.468004e+00
2.030000e-06	8.511786e-07	1.455949e-10	5.910312e+00	6.722887e+00
2.040000e-06	8.974496e-07	1.804882e-10	6.231603e+00	8.987617e+00
2.050000e-06	9.436493e-07	2.131401e-10	6.552399e+00	1.125921e+01
2.060000e-06	9.897327e-07	2.441599e-10	6.872388e+00	1.353462e+01
2.070000e-06	1.035684e-06	2.746292e-10	7.191462e+00	1.581076e+01
2.080000e-06	1.081607e-06	3.047969e-10	7.510336e+00	1.808453e+01
2.090000e-06	1.127517e-06	3.341308e-10	7.829116e+00	2.035281e+01
2.100000e-06	1.173332e-06	3.657581e-10	8.147245e+00	2.261250e+01
2.110000e-06	1.219066e-06	4.017222e-10	8.464809e+00	2.486051e+01
2.120000e-06	1.264715e-06	4.383719e-10	8.781780e+00	2.709383e+01
2.130000e-06	1.310285e-06	4.724331e-10	9.098198e+00	2.930949e+01
2.140000e-06	1.355768e-06	5.036291e-10	9.414022e+00	3.150460e+01
2.150000e-06	1.401211e-06	5.291530e-10	9.729564e+00	3.367637e+01
2.160000e-06	1.446579e-06	5.512587e-10	1.004459e+01	3.582215e+01
2.170000e-06	1.491698e-06	5.745027e-10	1.035788e+01	3.793936e+01
2.180000e-06	1.536657e-06	6.005471e-10	1.067005e+01	4.002563e+01
2.190000e-06	1.581582e-06	6.296582e-10	1.098200e+01	4.207868e+01
2.200000e-06	1.626442e-06	6.611468e-10	1.129349e+01	4.409643e+01
2.210000e-06	1.671147e-06	6.929758e-10	1.160391e+01	4.607698e+01
2.220000e-06	1.715614e-06	7.228082e-10	1.191268e+01	4.801859e+01
2.230000e-06	1.759920e-06	7.482678e-10	1.222033e+01	4.991973e+01
2.240000e-06	1.804144e-06	7.706908e-10	1.252740e+01	5.177905e+01
2.250000e-06	1.848249e-06	7.902845e-10	1.283365e+01	5.359543e+01
2.260000e-06	1.892253e-06	8.075456e-10	1.313920e+01	5.536791e+01
2.270000e-06	1.936192e-06	8.282518e-10	1.344430e+01	5.709577e+01
2.280000e-06	1.980026e-06	8.524626e-10	1.374867e+01	5.877847e+01
2.290000e-06	2.023764e-06	8.756170e-10	1.405237e+01	6.041570e+01
2.300000e-06	2.067460e-06	8.986065e-10	1.435578e+01	6.200732e+01
2.310000e-06	2.111132e-06	9.230471e-10	1.465903e+01	6.355339e+01
2.320000e-06	2.154763e-06	9.469923e-10	1.496199e+01	6.505416e+01
2.330000e-06	2.198330e-06	9.674382e-10	1.526450e+01	6.651005e+01
2.340000e-06	2.241790e-06	9.835632e-10	1.556627e+01	6.792166e+01
2.350000e-06	2.285160e-06	9.985807e-10	1.586742e+01	6.928973e+01
2.360000e-06	2.328302e-06	1.014410e-09	1.616699e+01	7.061517e+01
2.370000e-06	2.371128e-06	1.031516e-09	1.646436e+01	7.189899e+01
2.380000e-06	2.413792e-06	1.049899e-09	1.676060e+01	7.314236e+01
2.390000e-06	2.456205e-06	1.067668e-09	1.705510e+01	7.434653e+01
2.400000e-06	2.498172e-06	1.083878e-09	1.734651e+01	7.551285e+01
2.410000e-06	2.539768e-06	1.099820e-09	1.763534e+01	7.664273e+01
2.420000e-06	2.580997e-06	1.114920e-09	1.792162e+01	7.773769e+01
2.430000e-06	2.621897e-06	1.128683e-09	1.820561e+01	7.879924e+01
2.440000e-06	2.662517e-06	1.142219e-09	1.848767e+01	7.982895e+01
2.450000e-06	2.702938e-06	1.156256e-09	1.876834e+01	8.082842e+01
2.460000e-06	2.743215e-06	1.171053e-09	1.904801e+01	8.179922e+01
2.470000e-06	2.783288e-06	1.185897e-09	1.932626e+01	8.274295e+01
2.480000e-06	2.823211e-06	1.199314e-09	1.960348e+01	8.366114e+01
2.490000e-06	2.862989e-06	1.212332e-09	1.987968e+01	8.455531e+01
2.500000e-06	2.902662e-06	1.225010e-09	2.015516e+01	8.542693e+01
2.510000e-06	2.942293e-06	1.238735e-09	2.043035e+01	8.627742e+01
2.520000e-06	2.981790e-06	1.254079e-09	2.070460e+01	8.710809e+01
2.530000e-06	3.021019e-06	1.268162e-09	2.097699e+01	8.792021e+01
2.540000e-06	3.060060e-06	1.282677e-09	2.124808e+01	8.871496e+01
2.550000e-06	3.098988e-06	1.297736e-09	2.151838e+01	8.949341e+01
2.560000e-06	3.137615e-06	1.309440e-09	2.178660e+01	9.025654e+01
2.570000e-06	3.175854e-06	1.317092e-09	2.205212e+01	9.100524e+01
2.580000e-06	3.213872e-06	1.324524e-09	2.231611e+01	9.174028e+01
2.590000e-06	3.251706e-06	1.333193e-09	2.257881e+01	9.246233e+01
2.600000e-06	3.289427e-06	1.343656e-09	2.284073e+01	9.317195e+01
2.610000e-06	3.326998e-06	1.357606e-09	2.310161e+01	9.386962e+01
2.620000e-06	3.364337e-06	1.375368e-09	2.336088e+01	9.455569e+01
2.630000e-06	3.401432e-06	1.392963e-09	2.361846e+01	9.523042e+01
2.640000e-06	3.438184e-06	1.404476e-09	2.387365e+01	9.589397e+01
2.650000e-06	3.474619e-06	1.411023e-09	2.412664e+01	9.654644e+01
2.660000e-06	3.510875e-06	1.415777e-09	2.437840e+01	9.718782e+01
2.670000e-06	3.547005e-06	1.419689e-09	2.462927e+01	9.781803e+01
2.680000e-06	3.582958e-06	1.423882e-09	2.487892e+01	9.843694e+01
2.690000e-06	3.618794e-06	1.430942e-09	2.512775e+01	9.904434e+01
2.700000e-06	3.654509e-06	1.442254e-09	2.537575e+01	9.963998e+01
2.710000e-06	3.689999e-06	1.454434e-09	2.562217e+01	1.002236e+02
2.720000e-06	3.725265e-06	1.464469e-09	2.586705e+01	1.007948e+02
2.730000e-06	3.760284e-06	1.472154e-09	2.611022e+01	1.013534e+02
2.740000e-06	3.794958e-06	1.477547e-09	2.635098e+01	1.018989e+02
2.750000e-06	3.829212e-06	1.481819e-09	2.658882e+01	1.024309e+02
2.760000e-06	3.862932e-06	1.486687e-09	2.682297e+01	1.029493e+02
2.770000e-06	3.896158e-06	1.494645e-09	2.705368e+01	1.034536e+02
2.780000e-06	3.929012e-06	1.504240e-09	2.728180e+01	1.039435e+02
2.790000e-06	3.961447e-06	1.513845e-09	2.750702e+01	1.044187e+02
2.800000e-06	3.993588e-06	1.524163e-09	2.773020e+01	1.048791e+02
2.810000e-06	4.025557e-06	1.533127e-09	2.795218e+01	1.053245e+02
2.820000e-06	4.057341e-06	1.539643e-09	2.817288e+01	1.057546e+02
2.830000e-06	4.088944e-06	1.544133e-09	2.839232e+01	1.061696e+02
2.840000e-06	4.120344e-06	1.548105e-09	2.861035e+01	1.065692e+02
2.850000e-06	4.151485e-06	1.552192e-09	2.882659e+01	1.069536e+02
2.860000e-06	4.182329e-06	1.556608e-09	2.904076e+01	1.073230e+02
2.870000e-06	4.212871e-06	1.562623e-09	2.925284e+01	1.076774e+02
2.880000e-06	4.243115e-06	1.569061e-09	2.946284e+01	1.080172e+02
2.890000e-06	4.273046e-06	1.573749e-09	2.967067e+01	1.083426e+02
2.900000e-06	4.302632e-06	1.577673e-09	2.987611e+01	1.086540e+02
