# Temperatura_=_-11.38
# Concentracion g/m^3_=_1620.0
# C_Vs_to_Am_M_A/Vsm_=_65563218390.804596
# pendiente_HvsI_1/m_=_3716.3
# ordenada_HvsI_A/m_=_1297.0
# frecuencia_Hz_=_135104.13896230128

Tiempo_(s)	Campo_(V.s)	Magnetizacion_(V.s)	Campo_(kA/m)	Magnetizacion_(A/m)
0.000000e+00	-5.518522e-06	-1.302447e-09	-3.837148e+01	-8.624400e+01
1.000000e-08	-5.518811e-06	-1.300206e-09	-3.837349e+01	-8.622932e+01
2.000000e-08	-5.518872e-06	-1.304844e-09	-3.837391e+01	-8.621512e+01
3.000000e-08	-5.518703e-06	-1.312423e-09	-3.837274e+01	-8.620141e+01
4.000000e-08	-5.518150e-06	-1.316555e-09	-3.836889e+01	-8.618815e+01
5.000000e-08	-5.516982e-06	-1.314525e-09	-3.836077e+01	-8.617532e+01
6.000000e-08	-5.515160e-06	-1.300364e-09	-3.834811e+01	-8.616282e+01
7.000000e-08	-5.512742e-06	-1.276461e-09	-3.833129e+01	-8.615056e+01
8.000000e-08	-5.509721e-06	-1.281254e-09	-3.831028e+01	-8.613842e+01
9.000000e-08	-5.506244e-06	-1.322603e-09	-3.828610e+01	-8.612625e+01
1.000000e-07	-5.502283e-06	-1.364586e-09	-3.825857e+01	-8.611389e+01
1.100000e-07	-5.497872e-06	-1.345435e-09	-3.822790e+01	-8.610115e+01
1.200000e-07	-5.493319e-06	-1.262987e-09	-3.819624e+01	-8.608783e+01
1.300000e-07	-5.488682e-06	-1.229084e-09	-3.816400e+01	-8.607373e+01
1.400000e-07	-5.483767e-06	-1.298165e-09	-3.812982e+01	-8.605861e+01
1.500000e-07	-5.478385e-06	-1.333485e-09	-3.809240e+01	-8.604225e+01
1.600000e-07	-5.472606e-06	-1.301848e-09	-3.805222e+01	-8.602440e+01
1.700000e-07	-5.466461e-06	-1.242331e-09	-3.800949e+01	-8.600483e+01
1.800000e-07	-5.459842e-06	-1.296681e-09	-3.796346e+01	-8.598331e+01
1.900000e-07	-5.452757e-06	-1.333096e-09	-3.791420e+01	-8.595960e+01
2.000000e-07	-5.445382e-06	-1.308492e-09	-3.786292e+01	-8.593347e+01
2.100000e-07	-5.437745e-06	-1.248155e-09	-3.780982e+01	-8.590470e+01
2.200000e-07	-5.429860e-06	-1.283919e-09	-3.775499e+01	-8.587310e+01
2.300000e-07	-5.421747e-06	-1.337445e-09	-3.769858e+01	-8.583848e+01
2.400000e-07	-5.413228e-06	-1.342567e-09	-3.763935e+01	-8.580067e+01
2.500000e-07	-5.404101e-06	-1.301328e-09	-3.757588e+01	-8.575952e+01
2.600000e-07	-5.394264e-06	-1.301966e-09	-3.750749e+01	-8.571489e+01
2.700000e-07	-5.383777e-06	-1.324397e-09	-3.743457e+01	-8.566670e+01
2.800000e-07	-5.372797e-06	-1.309130e-09	-3.735822e+01	-8.561485e+01
2.900000e-07	-5.361410e-06	-1.299433e-09	-3.727905e+01	-8.555930e+01
3.000000e-07	-5.349604e-06	-1.308616e-09	-3.719695e+01	-8.550001e+01
3.100000e-07	-5.337461e-06	-1.327892e-09	-3.711252e+01	-8.543700e+01
3.200000e-07	-5.324879e-06	-1.301591e-09	-3.702503e+01	-8.537028e+01
3.300000e-07	-5.311744e-06	-1.305312e-09	-3.693371e+01	-8.529990e+01
3.400000e-07	-5.298259e-06	-1.305867e-09	-3.683994e+01	-8.522595e+01
3.500000e-07	-5.284499e-06	-1.326943e-09	-3.674427e+01	-8.514854e+01
3.600000e-07	-5.270282e-06	-1.310289e-09	-3.664541e+01	-8.506777e+01
3.700000e-07	-5.255631e-06	-1.315149e-09	-3.654354e+01	-8.498381e+01
3.800000e-07	-5.240520e-06	-1.306962e-09	-3.643847e+01	-8.489682e+01
3.900000e-07	-5.224796e-06	-1.318241e-09	-3.632914e+01	-8.480699e+01
4.000000e-07	-5.208489e-06	-1.295596e-09	-3.621575e+01	-8.471451e+01
4.100000e-07	-5.191773e-06	-1.292808e-09	-3.609952e+01	-8.461959e+01
4.200000e-07	-5.174865e-06	-1.299464e-09	-3.598196e+01	-8.452246e+01
4.300000e-07	-5.157677e-06	-1.302997e-09	-3.586244e+01	-8.442334e+01
4.400000e-07	-5.140137e-06	-1.283554e-09	-3.574048e+01	-8.432247e+01
4.500000e-07	-5.122300e-06	-1.309426e-09	-3.561646e+01	-8.422007e+01
4.600000e-07	-5.104015e-06	-1.325486e-09	-3.548932e+01	-8.411637e+01
4.700000e-07	-5.085248e-06	-1.291478e-09	-3.535883e+01	-8.401161e+01
4.800000e-07	-5.066111e-06	-1.274186e-09	-3.522577e+01	-8.390598e+01
4.900000e-07	-5.046678e-06	-1.308901e-09	-3.509064e+01	-8.379970e+01
5.000000e-07	-5.027012e-06	-1.294097e-09	-3.495390e+01	-8.369296e+01
5.100000e-07	-5.007144e-06	-1.256754e-09	-3.481576e+01	-8.358592e+01
5.200000e-07	-4.987060e-06	-1.280965e-09	-3.467611e+01	-8.347875e+01
5.300000e-07	-4.966611e-06	-1.298638e-09	-3.453392e+01	-8.337159e+01
5.400000e-07	-4.945733e-06	-1.276143e-09	-3.438875e+01	-8.326454e+01
5.500000e-07	-4.924526e-06	-1.292491e-09	-3.424130e+01	-8.315769e+01
5.600000e-07	-4.902985e-06	-1.315922e-09	-3.409151e+01	-8.305111e+01
5.700000e-07	-4.881093e-06	-1.270815e-09	-3.393930e+01	-8.294484e+01
5.800000e-07	-4.858882e-06	-1.261158e-09	-3.378486e+01	-8.283889e+01
5.900000e-07	-4.836364e-06	-1.293478e-09	-3.362829e+01	-8.273324e+01
6.000000e-07	-4.813538e-06	-1.277661e-09	-3.346957e+01	-8.262787e+01
6.100000e-07	-4.790253e-06	-1.244634e-09	-3.330767e+01	-8.252271e+01
6.200000e-07	-4.766553e-06	-1.270022e-09	-3.314287e+01	-8.241766e+01
6.300000e-07	-4.742703e-06	-1.268884e-09	-3.297704e+01	-8.231262e+01
6.400000e-07	-4.718747e-06	-1.244730e-09	-3.281047e+01	-8.220745e+01
6.500000e-07	-4.694520e-06	-1.258617e-09	-3.264202e+01	-8.210200e+01
6.600000e-07	-4.669826e-06	-1.281432e-09	-3.247031e+01	-8.199610e+01
6.700000e-07	-4.644595e-06	-1.253340e-09	-3.229488e+01	-8.188956e+01
6.800000e-07	-4.618882e-06	-1.250229e-09	-3.211609e+01	-8.178218e+01
6.900000e-07	-4.592638e-06	-1.259371e-09	-3.193360e+01	-8.167374e+01
7.000000e-07	-4.565784e-06	-1.241464e-09	-3.174688e+01	-8.156403e+01
7.100000e-07	-4.538547e-06	-1.223373e-09	-3.155750e+01	-8.145281e+01
7.200000e-07	-4.511096e-06	-1.242304e-09	-3.136663e+01	-8.133987e+01
7.300000e-07	-4.483430e-06	-1.243629e-09	-3.117426e+01	-8.122497e+01
7.400000e-07	-4.455646e-06	-1.237953e-09	-3.098107e+01	-8.110787e+01
7.500000e-07	-4.427698e-06	-1.246191e-09	-3.078674e+01	-8.098838e+01
7.600000e-07	-4.399438e-06	-1.245846e-09	-3.059025e+01	-8.086626e+01
7.700000e-07	-4.370945e-06	-1.225020e-09	-3.039213e+01	-8.074131e+01
7.800000e-07	-4.342201e-06	-1.220216e-09	-3.019226e+01	-8.061336e+01
7.900000e-07	-4.313083e-06	-1.224971e-09	-2.998980e+01	-8.048222e+01
8.000000e-07	-4.283622e-06	-1.222830e-09	-2.978495e+01	-8.034773e+01
8.100000e-07	-4.253831e-06	-1.221932e-09	-2.957781e+01	-8.020975e+01
8.200000e-07	-4.223817e-06	-1.224796e-09	-2.936911e+01	-8.006817e+01
8.300000e-07	-4.193530e-06	-1.217852e-09	-2.915852e+01	-7.992289e+01
8.400000e-07	-4.162760e-06	-1.208684e-09	-2.894457e+01	-7.977382e+01
8.500000e-07	-4.131620e-06	-1.212445e-09	-2.872805e+01	-7.962092e+01
8.600000e-07	-4.100223e-06	-1.212516e-09	-2.850974e+01	-7.946414e+01
8.700000e-07	-4.068675e-06	-1.208484e-09	-2.829038e+01	-7.930348e+01
8.800000e-07	-4.037051e-06	-1.206400e-09	-2.807049e+01	-7.913894e+01
8.900000e-07	-4.005240e-06	-1.203043e-09	-2.784930e+01	-7.897056e+01
9.000000e-07	-3.973256e-06	-1.191046e-09	-2.762691e+01	-7.879839e+01
9.100000e-07	-3.941062e-06	-1.184694e-09	-2.740306e+01	-7.862248e+01
9.200000e-07	-3.908560e-06	-1.178667e-09	-2.717706e+01	-7.844292e+01
9.300000e-07	-3.875690e-06	-1.175402e-09	-2.694851e+01	-7.825982e+01
9.400000e-07	-3.842409e-06	-1.175002e-09	-2.671710e+01	-7.807327e+01
9.500000e-07	-3.808643e-06	-1.180880e-09	-2.648232e+01	-7.788340e+01
9.600000e-07	-3.774351e-06	-1.177237e-09	-2.624388e+01	-7.769033e+01
9.700000e-07	-3.739627e-06	-1.171759e-09	-2.600244e+01	-7.749419e+01
9.800000e-07	-3.704593e-06	-1.165113e-09	-2.575884e+01	-7.729512e+01
9.900000e-07	-3.669271e-06	-1.158625e-09	-2.551323e+01	-7.709325e+01
1.000000e-06	-3.633749e-06	-1.149309e-09	-2.526624e+01	-7.688871e+01
1.010000e-06	-3.598134e-06	-1.147565e-09	-2.501861e+01	-7.668162e+01
1.020000e-06	-3.562357e-06	-1.144864e-09	-2.476984e+01	-7.647209e+01
1.030000e-06	-3.526382e-06	-1.139325e-09	-2.451970e+01	-7.626023e+01
1.040000e-06	-3.490275e-06	-1.137501e-09	-2.426864e+01	-7.604614e+01
1.050000e-06	-3.453975e-06	-1.142537e-09	-2.401623e+01	-7.582987e+01
1.060000e-06	-3.417332e-06	-1.141521e-09	-2.376145e+01	-7.561150e+01
1.070000e-06	-3.380349e-06	-1.133204e-09	-2.350430e+01	-7.539106e+01
1.080000e-06	-3.343125e-06	-1.124263e-09	-2.324547e+01	-7.516857e+01
1.090000e-06	-3.305662e-06	-1.115656e-09	-2.298498e+01	-7.494404e+01
1.100000e-06	-3.267962e-06	-1.106181e-09	-2.272285e+01	-7.471742e+01
1.110000e-06	-3.230022e-06	-1.100666e-09	-2.245904e+01	-7.448868e+01
1.120000e-06	-3.191942e-06	-1.096244e-09	-2.219427e+01	-7.425775e+01
1.130000e-06	-3.153735e-06	-1.089204e-09	-2.192860e+01	-7.402453e+01
1.140000e-06	-3.115187e-06	-1.087447e-09	-2.166057e+01	-7.378891e+01
1.150000e-06	-3.076306e-06	-1.089163e-09	-2.139022e+01	-7.355075e+01
1.160000e-06	-3.037206e-06	-1.088433e-09	-2.111835e+01	-7.330988e+01
1.170000e-06	-2.997967e-06	-1.085108e-09	-2.084552e+01	-7.306614e+01
1.180000e-06	-2.958593e-06	-1.082974e-09	-2.057174e+01	-7.281932e+01
1.190000e-06	-2.919061e-06	-1.077008e-09	-2.029686e+01	-7.256922e+01
1.200000e-06	-2.879364e-06	-1.069119e-09	-2.002084e+01	-7.231560e+01
1.210000e-06	-2.839564e-06	-1.059891e-09	-1.974410e+01	-7.205823e+01
1.220000e-06	-2.799682e-06	-1.053153e-09	-1.946679e+01	-7.179685e+01
1.230000e-06	-2.759697e-06	-1.046548e-09	-1.918877e+01	-7.153122e+01
1.240000e-06	-2.719551e-06	-1.042453e-09	-1.890963e+01	-7.126106e+01
1.250000e-06	-2.679236e-06	-1.039086e-09	-1.862931e+01	-7.098611e+01
1.260000e-06	-2.638701e-06	-1.038647e-09	-1.834746e+01	-7.070610e+01
1.270000e-06	-2.597850e-06	-1.037209e-09	-1.806341e+01	-7.042078e+01
1.280000e-06	-2.556798e-06	-1.031283e-09	-1.777797e+01	-7.012988e+01
1.290000e-06	-2.515435e-06	-1.019168e-09	-1.749036e+01	-6.983314e+01
1.300000e-06	-2.473698e-06	-1.006988e-09	-1.720016e+01	-6.953033e+01
1.310000e-06	-2.431691e-06	-9.965137e-10	-1.690807e+01	-6.922120e+01
1.320000e-06	-2.389356e-06	-9.873565e-10	-1.661371e+01	-6.890552e+01
1.330000e-06	-2.346755e-06	-9.798143e-10	-1.631750e+01	-6.858308e+01
1.340000e-06	-2.303849e-06	-9.779189e-10	-1.601916e+01	-6.825368e+01
1.350000e-06	-2.260559e-06	-9.787689e-10	-1.571816e+01	-6.791713e+01
1.360000e-06	-2.217138e-06	-9.787444e-10	-1.541624e+01	-6.757325e+01
1.370000e-06	-2.173664e-06	-9.759233e-10	-1.511395e+01	-6.722188e+01
1.380000e-06	-2.130072e-06	-9.686083e-10	-1.481085e+01	-6.686287e+01
1.390000e-06	-2.086368e-06	-9.560359e-10	-1.450697e+01	-6.649606e+01
1.400000e-06	-2.042600e-06	-9.402472e-10	-1.420264e+01	-6.612134e+01
1.410000e-06	-1.998815e-06	-9.258933e-10	-1.389819e+01	-6.573856e+01
1.420000e-06	-1.954952e-06	-9.143200e-10	-1.359320e+01	-6.534762e+01
1.430000e-06	-1.911023e-06	-9.071270e-10	-1.328776e+01	-6.494839e+01
1.440000e-06	-1.867032e-06	-9.044382e-10	-1.298188e+01	-6.454074e+01
1.450000e-06	-1.822945e-06	-9.039713e-10	-1.267533e+01	-6.412455e+01
1.460000e-06	-1.778627e-06	-9.007375e-10	-1.236718e+01	-6.369969e+01
1.470000e-06	-1.734156e-06	-8.939345e-10	-1.205797e+01	-6.326602e+01
1.480000e-06	-1.689631e-06	-8.848578e-10	-1.174837e+01	-6.282336e+01
1.490000e-06	-1.644951e-06	-8.743171e-10	-1.143770e+01	-6.237154e+01
1.500000e-06	-1.600132e-06	-8.598427e-10	-1.112606e+01	-6.191036e+01
1.510000e-06	-1.555217e-06	-8.446123e-10	-1.081376e+01	-6.143958e+01
1.520000e-06	-1.510126e-06	-8.326375e-10	-1.050023e+01	-6.095893e+01
1.530000e-06	-1.464848e-06	-8.257900e-10	-1.018541e+01	-6.046813e+01
1.540000e-06	-1.419526e-06	-8.241021e-10	-9.870272e+00	-5.996682e+01
1.550000e-06	-1.374158e-06	-8.222392e-10	-9.554821e+00	-5.945463e+01
1.560000e-06	-1.328679e-06	-8.148461e-10	-9.238594e+00	-5.893112e+01
1.570000e-06	-1.283076e-06	-8.006089e-10	-8.921507e+00	-5.839583e+01
1.580000e-06	-1.237439e-06	-7.834306e-10	-8.604179e+00	-5.784822e+01
1.590000e-06	-1.191693e-06	-7.687242e-10	-8.286103e+00	-5.728771e+01
1.600000e-06	-1.145802e-06	-7.535073e-10	-7.967007e+00	-5.671367e+01
1.610000e-06	-1.099880e-06	-7.410698e-10	-7.647704e+00	-5.612541e+01
1.620000e-06	-1.053901e-06	-7.343846e-10	-7.327999e+00	-5.552217e+01
1.630000e-06	-1.007828e-06	-7.308830e-10	-7.007649e+00	-5.490317e+01
1.640000e-06	-9.616411e-07	-7.250876e-10	-6.686499e+00	-5.426755e+01
1.650000e-06	-9.153738e-07	-7.165429e-10	-6.364792e+00	-5.361440e+01
1.660000e-06	-8.691397e-07	-7.057120e-10	-6.043316e+00	-5.294278e+01
1.670000e-06	-8.228640e-07	-6.923315e-10	-5.721552e+00	-5.225168e+01
1.680000e-06	-7.764467e-07	-6.781320e-10	-5.398802e+00	-5.154007e+01
1.690000e-06	-7.299966e-07	-6.654589e-10	-5.075825e+00	-5.080687e+01
1.700000e-06	-6.835373e-07	-6.550517e-10	-4.752783e+00	-5.005097e+01
1.710000e-06	-6.370017e-07	-6.425610e-10	-4.429211e+00	-4.927125e+01
1.720000e-06	-5.904174e-07	-6.265803e-10	-4.105300e+00	-4.846656e+01
1.730000e-06	-5.438622e-07	-6.100710e-10	-3.781591e+00	-4.763574e+01
1.740000e-06	-4.973398e-07	-5.948876e-10	-3.458112e+00	-4.677764e+01
1.750000e-06	-4.507835e-07	-5.832931e-10	-3.134395e+00	-4.589110e+01
1.760000e-06	-4.040582e-07	-5.721810e-10	-2.809504e+00	-4.497499e+01
1.770000e-06	-3.571814e-07	-5.582488e-10	-2.483560e+00	-4.402819e+01
1.780000e-06	-3.103425e-07	-5.431398e-10	-2.157879e+00	-4.304965e+01
1.790000e-06	-2.635183e-07	-5.280618e-10	-1.832300e+00	-4.203832e+01
1.800000e-06	-2.166450e-07	-5.129054e-10	-1.506379e+00	-4.099324e+01
1.810000e-06	-1.698307e-07	-4.966877e-10	-1.180869e+00	-3.991349e+01
1.820000e-06	-1.230686e-07	-4.791384e-10	-8.557228e-01	-3.879824e+01
1.830000e-06	-7.628613e-08	-4.605130e-10	-5.304340e-01	-3.764675e+01
1.840000e-06	-2.948736e-08	-4.456507e-10	-2.050320e-01	-3.645837e+01
1.850000e-06	1.737749e-08	-4.340142e-10	1.208295e-01	-3.523254e+01
1.860000e-06	6.429807e-08	-4.220665e-10	4.470784e-01	-3.396883e+01
1.870000e-06	1.111934e-07	-4.079516e-10	7.731517e-01	-3.266693e+01
1.880000e-06	1.580898e-07	-3.918240e-10	1.099233e+00	-3.132666e+01
1.890000e-06	2.049333e-07	-3.724057e-10	1.424946e+00	-2.994796e+01
1.900000e-06	2.516601e-07	-3.479699e-10	1.749847e+00	-2.853093e+01
1.910000e-06	2.984426e-07	-3.229789e-10	2.075136e+00	-2.707581e+01
1.920000e-06	3.452359e-07	-2.991217e-10	2.400500e+00	-2.558301e+01
1.930000e-06	3.920091e-07	-2.758207e-10	2.725724e+00	-2.405306e+01
1.940000e-06	4.388014e-07	-2.538940e-10	3.051081e+00	-2.248667e+01
1.950000e-06	4.855023e-07	-2.350603e-10	3.375803e+00	-2.088472e+01
1.960000e-06	5.321135e-07	-2.174386e-10	3.699901e+00	-1.924823e+01
1.970000e-06	5.786855e-07	-1.969573e-10	4.023726e+00	-1.757839e+01
1.980000e-06	6.252232e-07	-1.749659e-10	4.347313e+00	-1.587653e+01
1.990000e-06	6.716630e-07	-1.513143e-10	4.670218e+00	-1.414416e+01
2.000000e-06	7.180468e-07	-1.255474e-10	4.992735e+00	-1.238292e+01
2.010000e-06	7.644123e-07	-9.845664e-11	5.315124e+00	-1.059460e+01
2.020000e-06	8.107603e-07	-7.064926e-11	5.637392e+00	-8.781125e+00
2.030000e-06	8.570406e-07	-4.196386e-11	5.959189e+00	-6.944544e+00
2.040000e-06	9.031529e-07	-1.426358e-11	6.279818e+00	-5.087034e+00
2.050000e-06	9.492018e-07	9.243064e-12	6.600005e+00	-3.210880e+00
2.060000e-06	9.952235e-07	3.090664e-11	6.920004e+00	-1.318466e+00
2.070000e-06	1.041195e-06	5.471667e-11	7.239655e+00	5.877341e-01
2.080000e-06	1.087143e-06	8.058896e-11	7.559139e+00	2.505170e+00
2.090000e-06	1.132997e-06	1.093777e-10	7.877972e+00	4.431229e+00
2.100000e-06	1.178748e-06	1.406542e-10	8.196092e+00	6.363246e+00
2.110000e-06	1.224383e-06	1.734043e-10	8.513398e+00	8.298521e+00
2.120000e-06	1.269968e-06	2.037768e-10	8.830363e+00	1.023433e+01
2.130000e-06	1.315545e-06	2.310816e-10	9.147272e+00	1.216794e+01
2.140000e-06	1.361098e-06	2.554465e-10	9.464011e+00	1.409663e+01
2.150000e-06	1.406533e-06	2.769763e-10	9.779927e+00	1.601769e+01
2.160000e-06	1.451733e-06	2.979695e-10	1.009422e+01	1.792845e+01
2.170000e-06	1.496812e-06	3.182937e-10	1.040766e+01	1.982629e+01
2.180000e-06	1.541856e-06	3.408613e-10	1.072086e+01	2.170865e+01
2.190000e-06	1.586806e-06	3.676187e-10	1.103341e+01	2.357305e+01
2.200000e-06	1.631508e-06	3.984061e-10	1.134423e+01	2.541708e+01
2.210000e-06	1.675989e-06	4.312853e-10	1.165351e+01	2.723846e+01
2.220000e-06	1.720430e-06	4.610518e-10	1.196253e+01	2.903499e+01
2.230000e-06	1.764738e-06	4.859630e-10	1.227060e+01	3.080461e+01
2.240000e-06	1.808923e-06	5.045879e-10	1.257784e+01	3.254540e+01
2.250000e-06	1.853089e-06	5.173961e-10	1.288493e+01	3.425554e+01
2.260000e-06	1.897146e-06	5.282488e-10	1.319127e+01	3.593341e+01
2.270000e-06	1.941042e-06	5.452654e-10	1.349648e+01	3.757749e+01
2.280000e-06	1.984856e-06	5.707236e-10	1.380113e+01	3.918646e+01
2.290000e-06	2.028663e-06	5.981864e-10	1.410573e+01	4.075913e+01
2.300000e-06	2.072406e-06	6.248938e-10	1.440989e+01	4.229450e+01
2.310000e-06	2.116092e-06	6.481221e-10	1.471365e+01	4.379171e+01
2.320000e-06	2.159736e-06	6.661886e-10	1.501711e+01	4.525008e+01
2.330000e-06	2.203335e-06	6.778492e-10	1.532026e+01	4.666909e+01
2.340000e-06	2.246835e-06	6.887481e-10	1.562273e+01	4.804840e+01
2.350000e-06	2.290158e-06	7.030457e-10	1.592397e+01	4.938779e+01
2.360000e-06	2.333289e-06	7.203784e-10	1.622386e+01	5.068723e+01
2.370000e-06	2.376088e-06	7.395437e-10	1.652146e+01	5.194683e+01
2.380000e-06	2.418494e-06	7.591077e-10	1.681631e+01	5.316682e+01
2.390000e-06	2.460578e-06	7.768969e-10	1.710893e+01	5.434761e+01
2.400000e-06	2.502412e-06	7.920561e-10	1.739981e+01	5.548968e+01
2.410000e-06	2.543961e-06	8.059207e-10	1.768871e+01	5.659369e+01
2.420000e-06	2.585176e-06	8.191172e-10	1.797529e+01	5.766035e+01
2.430000e-06	2.626051e-06	8.313239e-10	1.825950e+01	5.869051e+01
2.440000e-06	2.666601e-06	8.456900e-10	1.854145e+01	5.968508e+01
2.450000e-06	2.706915e-06	8.607838e-10	1.882176e+01	6.064508e+01
2.460000e-06	2.747006e-06	8.745531e-10	1.910053e+01	6.157156e+01
2.470000e-06	2.786990e-06	8.867846e-10	1.937854e+01	6.246564e+01
2.480000e-06	2.826916e-06	8.974972e-10	1.965616e+01	6.332848e+01
2.490000e-06	2.866730e-06	9.083806e-10	1.993300e+01	6.416129e+01
2.500000e-06	2.906410e-06	9.181977e-10	2.020890e+01	6.496528e+01
2.510000e-06	2.945951e-06	9.285327e-10	2.048383e+01	6.574167e+01
2.520000e-06	2.985314e-06	9.398732e-10	2.075754e+01	6.649169e+01
2.530000e-06	3.024464e-06	9.516886e-10	2.102976e+01	6.721656e+01
2.540000e-06	3.063416e-06	9.667151e-10	2.130060e+01	6.791748e+01
2.550000e-06	3.102185e-06	9.823797e-10	2.157017e+01	6.859561e+01
2.560000e-06	3.140706e-06	9.924284e-10	2.183801e+01	6.925210e+01
2.570000e-06	3.178994e-06	9.980040e-10	2.210423e+01	6.988802e+01
2.580000e-06	3.217037e-06	1.002509e-09	2.236876e+01	7.050443e+01
2.590000e-06	3.254813e-06	1.006196e-09	2.263142e+01	7.110230e+01
2.600000e-06	3.292439e-06	1.012122e-09	2.289304e+01	7.168257e+01
2.610000e-06	3.329840e-06	1.024042e-09	2.315310e+01	7.224609e+01
2.620000e-06	3.366969e-06	1.039256e-09	2.341126e+01	7.279366e+01
2.630000e-06	3.403880e-06	1.054473e-09	2.366791e+01	7.332600e+01
2.640000e-06	3.440539e-06	1.066910e-09	2.392281e+01	7.384377e+01
2.650000e-06	3.476905e-06	1.075687e-09	2.417567e+01	7.434755e+01
2.660000e-06	3.513073e-06	1.079131e-09	2.442716e+01	7.483785e+01
2.670000e-06	3.549080e-06	1.078402e-09	2.467752e+01	7.531513e+01
2.680000e-06	3.584910e-06	1.076878e-09	2.492665e+01	7.577975e+01
2.690000e-06	3.620630e-06	1.078952e-09	2.517503e+01	7.623202e+01
2.700000e-06	3.656212e-06	1.087479e-09	2.542243e+01	7.667221e+01
2.710000e-06	3.691595e-06	1.100263e-09	2.566846e+01	7.710050e+01
2.720000e-06	3.726845e-06	1.112592e-09	2.591356e+01	7.751704e+01
2.730000e-06	3.761823e-06	1.122007e-09	2.615677e+01	7.792192e+01
2.740000e-06	3.796250e-06	1.128629e-09	2.639615e+01	7.831520e+01
2.750000e-06	3.830239e-06	1.130580e-09	2.663248e+01	7.869690e+01
2.760000e-06	3.863764e-06	1.129379e-09	2.686559e+01	7.906699e+01
2.770000e-06	3.896724e-06	1.128734e-09	2.709476e+01	7.942546e+01
2.780000e-06	3.929336e-06	1.129675e-09	2.732152e+01	7.977224e+01
2.790000e-06	3.961634e-06	1.134762e-09	2.754610e+01	8.010727e+01
2.800000e-06	3.993641e-06	1.145765e-09	2.776865e+01	8.043047e+01
2.810000e-06	4.025522e-06	1.159581e-09	2.799032e+01	8.074179e+01
2.820000e-06	4.057290e-06	1.171328e-09	2.821121e+01	8.104115e+01
2.830000e-06	4.088851e-06	1.178702e-09	2.843067e+01	8.132850e+01
2.840000e-06	4.120179e-06	1.181173e-09	2.864850e+01	8.160380e+01
2.850000e-06	4.151258e-06	1.179960e-09	2.886460e+01	8.186705e+01
2.860000e-06	4.181985e-06	1.177901e-09	2.907824e+01	8.211825e+01
2.870000e-06	4.212434e-06	1.179085e-09	2.928997e+01	8.235744e+01
2.880000e-06	4.242597e-06	1.185644e-09	2.949970e+01	8.258469e+01
2.890000e-06	4.272455e-06	1.193387e-09	2.970730e+01	8.280011e+01
2.900000e-06	4.302079e-06	1.201019e-09	2.991328e+01	8.300385e+01
