# Temperatura_=_-55.61
# Concentracion g/m^3_=_1620.0
# C_Vs_to_Am_M_A/Vsm_=_65563218390.804596
# pendiente_HvsI_1/m_=_3716.3
# ordenada_HvsI_A/m_=_1297.0
# frecuencia_Hz_=_135091.8829935367

Tiempo_(s)	Campo_(V.s)	Magnetizacion_(V.s)	Campo_(kA/m)	Magnetizacion_(A/m)
0.000000e+00	-5.523618e-06	-2.354921e-09	-3.838375e+01	-1.505891e+02
1.000000e-08	-5.523962e-06	-2.355140e-09	-3.838614e+01	-1.506369e+02
2.000000e-08	-5.524050e-06	-2.358840e-09	-3.838676e+01	-1.506810e+02
3.000000e-08	-5.523786e-06	-2.363557e-09	-3.838492e+01	-1.507215e+02
4.000000e-08	-5.522984e-06	-2.365520e-09	-3.837934e+01	-1.507585e+02
5.000000e-08	-5.521608e-06	-2.361403e-09	-3.836979e+01	-1.507918e+02
6.000000e-08	-5.519630e-06	-2.348160e-09	-3.835604e+01	-1.508216e+02
7.000000e-08	-5.517087e-06	-2.336920e-09	-3.833837e+01	-1.508476e+02
8.000000e-08	-5.514101e-06	-2.364964e-09	-3.831762e+01	-1.508697e+02
9.000000e-08	-5.510580e-06	-2.397771e-09	-3.829315e+01	-1.508878e+02
1.000000e-07	-5.506534e-06	-2.352409e-09	-3.826504e+01	-1.509016e+02
1.100000e-07	-5.502094e-06	-2.289906e-09	-3.823418e+01	-1.509109e+02
1.200000e-07	-5.497490e-06	-2.291533e-09	-3.820219e+01	-1.509155e+02
1.300000e-07	-5.492705e-06	-2.372550e-09	-3.816894e+01	-1.509149e+02
1.400000e-07	-5.487527e-06	-2.350233e-09	-3.813295e+01	-1.509089e+02
1.500000e-07	-5.481984e-06	-2.289939e-09	-3.809443e+01	-1.508971e+02
1.600000e-07	-5.476193e-06	-2.314240e-09	-3.805420e+01	-1.508791e+02
1.700000e-07	-5.470007e-06	-2.394306e-09	-3.801120e+01	-1.508545e+02
1.800000e-07	-5.463286e-06	-2.359389e-09	-3.796450e+01	-1.508230e+02
1.900000e-07	-5.456196e-06	-2.283771e-09	-3.791524e+01	-1.507841e+02
2.000000e-07	-5.448838e-06	-2.286395e-09	-3.786411e+01	-1.507374e+02
2.100000e-07	-5.441196e-06	-2.343691e-09	-3.781100e+01	-1.506824e+02
2.200000e-07	-5.433223e-06	-2.360791e-09	-3.775559e+01	-1.506187e+02
2.300000e-07	-5.424917e-06	-2.331158e-09	-3.769788e+01	-1.505460e+02
2.400000e-07	-5.416278e-06	-2.330367e-09	-3.763784e+01	-1.504639e+02
2.500000e-07	-5.407057e-06	-2.337713e-09	-3.757376e+01	-1.503718e+02
2.600000e-07	-5.397037e-06	-2.335482e-09	-3.750414e+01	-1.502695e+02
2.700000e-07	-5.386441e-06	-2.305643e-09	-3.743051e+01	-1.501567e+02
2.800000e-07	-5.375447e-06	-2.299693e-09	-3.735411e+01	-1.500330e+02
2.900000e-07	-5.363986e-06	-2.315847e-09	-3.727446e+01	-1.498980e+02
3.000000e-07	-5.352183e-06	-2.329042e-09	-3.719244e+01	-1.497516e+02
3.100000e-07	-5.339928e-06	-2.298616e-09	-3.710728e+01	-1.495935e+02
3.200000e-07	-5.327180e-06	-2.292335e-09	-3.701870e+01	-1.494236e+02
3.300000e-07	-5.314116e-06	-2.301823e-09	-3.692792e+01	-1.492415e+02
3.400000e-07	-5.300675e-06	-2.303211e-09	-3.683452e+01	-1.490473e+02
3.500000e-07	-5.286729e-06	-2.258578e-09	-3.673761e+01	-1.488407e+02
3.600000e-07	-5.272274e-06	-2.276832e-09	-3.663715e+01	-1.486218e+02
3.700000e-07	-5.257388e-06	-2.306602e-09	-3.653371e+01	-1.483906e+02
3.800000e-07	-5.242068e-06	-2.296436e-09	-3.642726e+01	-1.481469e+02
3.900000e-07	-5.226245e-06	-2.261344e-09	-3.631730e+01	-1.478909e+02
4.000000e-07	-5.209886e-06	-2.293426e-09	-3.620362e+01	-1.476227e+02
4.100000e-07	-5.193224e-06	-2.282243e-09	-3.608784e+01	-1.473424e+02
4.200000e-07	-5.176213e-06	-2.227122e-09	-3.596963e+01	-1.470500e+02
4.300000e-07	-5.158869e-06	-2.244767e-09	-3.584911e+01	-1.467458e+02
4.400000e-07	-5.141337e-06	-2.288758e-09	-3.572727e+01	-1.464299e+02
4.500000e-07	-5.123346e-06	-2.245612e-09	-3.560225e+01	-1.461026e+02
4.600000e-07	-5.104875e-06	-2.211323e-09	-3.547389e+01	-1.457640e+02
4.700000e-07	-5.086112e-06	-2.253574e-09	-3.534351e+01	-1.454145e+02
4.800000e-07	-5.067036e-06	-2.239608e-09	-3.521095e+01	-1.450542e+02
4.900000e-07	-5.047601e-06	-2.191410e-09	-3.507590e+01	-1.446834e+02
5.000000e-07	-5.027933e-06	-2.202521e-09	-3.493923e+01	-1.443024e+02
5.100000e-07	-5.008121e-06	-2.210515e-09	-3.480155e+01	-1.439114e+02
5.200000e-07	-4.988023e-06	-2.161364e-09	-3.466189e+01	-1.435108e+02
5.300000e-07	-4.967524e-06	-2.176409e-09	-3.451944e+01	-1.431007e+02
5.400000e-07	-4.946650e-06	-2.207478e-09	-3.437439e+01	-1.426814e+02
5.500000e-07	-4.925388e-06	-2.168209e-09	-3.422664e+01	-1.422531e+02
5.600000e-07	-4.903746e-06	-2.139420e-09	-3.407624e+01	-1.418161e+02
5.700000e-07	-4.881835e-06	-2.176680e-09	-3.392399e+01	-1.413706e+02
5.800000e-07	-4.859653e-06	-2.159719e-09	-3.376985e+01	-1.409167e+02
5.900000e-07	-4.837093e-06	-2.121947e-09	-3.361307e+01	-1.404547e+02
6.000000e-07	-4.814119e-06	-2.129173e-09	-3.345343e+01	-1.399847e+02
6.100000e-07	-4.790892e-06	-2.129879e-09	-3.329202e+01	-1.395067e+02
6.200000e-07	-4.767454e-06	-2.090992e-09	-3.312915e+01	-1.390211e+02
6.300000e-07	-4.743794e-06	-2.092593e-09	-3.296474e+01	-1.385277e+02
6.400000e-07	-4.719955e-06	-2.101026e-09	-3.279908e+01	-1.380267e+02
6.500000e-07	-4.695743e-06	-2.079023e-09	-3.263083e+01	-1.375181e+02
6.600000e-07	-4.671057e-06	-2.066258e-09	-3.245928e+01	-1.370019e+02
6.700000e-07	-4.645805e-06	-2.077132e-09	-3.228381e+01	-1.364781e+02
6.800000e-07	-4.620041e-06	-2.056598e-09	-3.210478e+01	-1.359467e+02
6.900000e-07	-4.593845e-06	-2.032159e-09	-3.192274e+01	-1.354077e+02
7.000000e-07	-4.567161e-06	-2.031477e-09	-3.173731e+01	-1.348609e+02
7.100000e-07	-4.540056e-06	-2.025152e-09	-3.154895e+01	-1.343064e+02
7.200000e-07	-4.512679e-06	-2.003884e-09	-3.135871e+01	-1.337439e+02
7.300000e-07	-4.485134e-06	-2.001909e-09	-3.116730e+01	-1.331734e+02
7.400000e-07	-4.457426e-06	-2.002771e-09	-3.097476e+01	-1.325949e+02
7.500000e-07	-4.429507e-06	-1.982918e-09	-3.078075e+01	-1.320081e+02
7.600000e-07	-4.401303e-06	-1.967748e-09	-3.058476e+01	-1.314130e+02
7.700000e-07	-4.372782e-06	-1.962383e-09	-3.038656e+01	-1.308094e+02
7.800000e-07	-4.343934e-06	-1.946141e-09	-3.018610e+01	-1.301973e+02
7.900000e-07	-4.314730e-06	-1.927905e-09	-2.998316e+01	-1.295766e+02
8.000000e-07	-4.285150e-06	-1.925489e-09	-2.977761e+01	-1.289470e+02
8.100000e-07	-4.255315e-06	-1.914382e-09	-2.957028e+01	-1.283086e+02
8.200000e-07	-4.225269e-06	-1.896965e-09	-2.936149e+01	-1.276613e+02
8.300000e-07	-4.194973e-06	-1.888880e-09	-2.915097e+01	-1.270050e+02
8.400000e-07	-4.164365e-06	-1.883466e-09	-2.893827e+01	-1.263397e+02
8.500000e-07	-4.133345e-06	-1.868056e-09	-2.872272e+01	-1.256653e+02
8.600000e-07	-4.102129e-06	-1.864324e-09	-2.850579e+01	-1.249819e+02
8.700000e-07	-4.070786e-06	-1.860860e-09	-2.828799e+01	-1.242895e+02
8.800000e-07	-4.039163e-06	-1.849483e-09	-2.806824e+01	-1.235880e+02
8.900000e-07	-4.007340e-06	-1.834301e-09	-2.784710e+01	-1.228777e+02
9.000000e-07	-3.975338e-06	-1.824979e-09	-2.762472e+01	-1.221585e+02
9.100000e-07	-3.943068e-06	-1.807424e-09	-2.740047e+01	-1.214306e+02
9.200000e-07	-3.910420e-06	-1.793792e-09	-2.717360e+01	-1.206941e+02
9.300000e-07	-3.877420e-06	-1.787242e-09	-2.694428e+01	-1.199492e+02
9.400000e-07	-3.843973e-06	-1.779010e-09	-2.671186e+01	-1.191960e+02
9.500000e-07	-3.809935e-06	-1.765100e-09	-2.647533e+01	-1.184348e+02
9.600000e-07	-3.775439e-06	-1.754642e-09	-2.623562e+01	-1.176657e+02
9.700000e-07	-3.740680e-06	-1.739771e-09	-2.599407e+01	-1.168889e+02
9.800000e-07	-3.705631e-06	-1.721402e-09	-2.575052e+01	-1.161047e+02
9.900000e-07	-3.670249e-06	-1.707174e-09	-2.550465e+01	-1.153134e+02
1.000000e-06	-3.634658e-06	-1.700829e-09	-2.525732e+01	-1.145152e+02
1.010000e-06	-3.598957e-06	-1.689218e-09	-2.500924e+01	-1.137103e+02
1.020000e-06	-3.563139e-06	-1.674818e-09	-2.476034e+01	-1.128990e+02
1.030000e-06	-3.527188e-06	-1.664972e-09	-2.451051e+01	-1.120816e+02
1.040000e-06	-3.491048e-06	-1.652787e-09	-2.425938e+01	-1.112583e+02
1.050000e-06	-3.454639e-06	-1.636586e-09	-2.400637e+01	-1.104293e+02
1.060000e-06	-3.417921e-06	-1.622852e-09	-2.375121e+01	-1.095949e+02
1.070000e-06	-3.380936e-06	-1.608734e-09	-2.349420e+01	-1.087553e+02
1.080000e-06	-3.343667e-06	-1.589830e-09	-2.323522e+01	-1.079107e+02
1.090000e-06	-3.306179e-06	-1.576111e-09	-2.297471e+01	-1.070613e+02
1.100000e-06	-3.268474e-06	-1.563714e-09	-2.271270e+01	-1.062073e+02
1.110000e-06	-3.230486e-06	-1.547675e-09	-2.244873e+01	-1.053487e+02
1.120000e-06	-3.192311e-06	-1.527936e-09	-2.218345e+01	-1.044857e+02
1.130000e-06	-3.153934e-06	-1.510115e-09	-2.191676e+01	-1.036184e+02
1.140000e-06	-3.115368e-06	-1.493280e-09	-2.164877e+01	-1.027467e+02
1.150000e-06	-3.076630e-06	-1.479931e-09	-2.137957e+01	-1.018709e+02
1.160000e-06	-3.037705e-06	-1.470399e-09	-2.110908e+01	-1.009908e+02
1.170000e-06	-2.998584e-06	-1.462512e-09	-2.083723e+01	-1.001063e+02
1.180000e-06	-2.959241e-06	-1.448262e-09	-2.056384e+01	-9.921757e+01
1.190000e-06	-2.919752e-06	-1.433153e-09	-2.028943e+01	-9.832434e+01
1.200000e-06	-2.880159e-06	-1.416116e-09	-2.001429e+01	-9.742652e+01
1.210000e-06	-2.840364e-06	-1.396208e-09	-1.973775e+01	-9.652396e+01
1.220000e-06	-2.800427e-06	-1.375799e-09	-1.946023e+01	-9.561648e+01
1.230000e-06	-2.760294e-06	-1.360762e-09	-1.918135e+01	-9.470388e+01
1.240000e-06	-2.719963e-06	-1.346706e-09	-1.890109e+01	-9.378592e+01
1.250000e-06	-2.679457e-06	-1.331225e-09	-1.861961e+01	-9.286237e+01
1.260000e-06	-2.638654e-06	-1.318564e-09	-1.833607e+01	-9.193296e+01
1.270000e-06	-2.597671e-06	-1.307142e-09	-1.805128e+01	-9.099740e+01
1.280000e-06	-2.556536e-06	-1.291282e-09	-1.776543e+01	-9.005542e+01
1.290000e-06	-2.515047e-06	-1.272947e-09	-1.747712e+01	-8.910670e+01
1.300000e-06	-2.473147e-06	-1.254148e-09	-1.718596e+01	-8.815097e+01
1.310000e-06	-2.430967e-06	-1.233514e-09	-1.689285e+01	-8.718790e+01
1.320000e-06	-2.388640e-06	-1.212933e-09	-1.659871e+01	-8.621720e+01
1.330000e-06	-2.346123e-06	-1.197678e-09	-1.630326e+01	-8.523858e+01
1.340000e-06	-2.303245e-06	-1.186998e-09	-1.600530e+01	-8.425176e+01
1.350000e-06	-2.260090e-06	-1.178423e-09	-1.570542e+01	-8.325647e+01
1.360000e-06	-2.216785e-06	-1.168451e-09	-1.540449e+01	-8.225245e+01
1.370000e-06	-2.173248e-06	-1.155416e-09	-1.510195e+01	-8.123946e+01
1.380000e-06	-2.129590e-06	-1.136216e-09	-1.479857e+01	-8.021730e+01
1.390000e-06	-2.085902e-06	-1.111519e-09	-1.449499e+01	-7.918577e+01
1.400000e-06	-2.042136e-06	-1.085065e-09	-1.419085e+01	-7.814471e+01
1.410000e-06	-1.998334e-06	-1.061304e-09	-1.388647e+01	-7.709400e+01
1.420000e-06	-1.954477e-06	-1.042514e-09	-1.358171e+01	-7.603352e+01
1.430000e-06	-1.910531e-06	-1.026649e-09	-1.327633e+01	-7.496321e+01
1.440000e-06	-1.866471e-06	-1.014250e-09	-1.297015e+01	-7.388301e+01
1.450000e-06	-1.822371e-06	-1.000752e-09	-1.266370e+01	-7.279293e+01
1.460000e-06	-1.778143e-06	-9.837182e-10	-1.235636e+01	-7.169299e+01
1.470000e-06	-1.733683e-06	-9.618997e-10	-1.204741e+01	-7.058325e+01
1.480000e-06	-1.689049e-06	-9.393016e-10	-1.173724e+01	-6.946378e+01
1.490000e-06	-1.644320e-06	-9.197187e-10	-1.142642e+01	-6.833471e+01
1.500000e-06	-1.599531e-06	-9.009676e-10	-1.111518e+01	-6.719618e+01
1.510000e-06	-1.554563e-06	-8.826472e-10	-1.080270e+01	-6.604835e+01
1.520000e-06	-1.509411e-06	-8.671535e-10	-1.048893e+01	-6.489143e+01
1.530000e-06	-1.464187e-06	-8.502881e-10	-1.017467e+01	-6.372563e+01
1.540000e-06	-1.418869e-06	-8.325567e-10	-9.859753e+00	-6.255117e+01
1.550000e-06	-1.373332e-06	-8.148765e-10	-9.543318e+00	-6.136830e+01
1.560000e-06	-1.327726e-06	-7.967395e-10	-9.226401e+00	-6.017728e+01
1.570000e-06	-1.282159e-06	-7.758737e-10	-8.909751e+00	-5.897838e+01
1.580000e-06	-1.236505e-06	-7.543395e-10	-8.592499e+00	-5.777185e+01
1.590000e-06	-1.190787e-06	-7.334483e-10	-8.274810e+00	-5.655798e+01
1.600000e-06	-1.145006e-06	-7.111002e-10	-7.956672e+00	-5.533702e+01
1.610000e-06	-1.099103e-06	-6.876947e-10	-7.637694e+00	-5.410923e+01
1.620000e-06	-1.053148e-06	-6.692228e-10	-7.318350e+00	-5.287485e+01
1.630000e-06	-1.007132e-06	-6.533978e-10	-6.998581e+00	-5.163411e+01
1.640000e-06	-9.609643e-07	-6.355847e-10	-6.677764e+00	-5.038722e+01
1.650000e-06	-9.147258e-07	-6.197849e-10	-6.356451e+00	-4.913437e+01
1.660000e-06	-8.684853e-07	-6.047884e-10	-6.035125e+00	-4.787571e+01
1.670000e-06	-8.222308e-07	-5.879708e-10	-5.713701e+00	-4.661139e+01
1.680000e-06	-7.758877e-07	-5.710068e-10	-5.391662e+00	-4.534150e+01
1.690000e-06	-7.295042e-07	-5.527156e-10	-5.069342e+00	-4.406612e+01
1.700000e-06	-6.831173e-07	-5.325372e-10	-4.746998e+00	-4.278527e+01
1.710000e-06	-6.366701e-07	-5.099932e-10	-4.424235e+00	-4.149897e+01
1.720000e-06	-5.902079e-07	-4.867628e-10	-4.101369e+00	-4.020718e+01
1.730000e-06	-5.436444e-07	-4.641754e-10	-3.777798e+00	-3.890981e+01
1.740000e-06	-4.970401e-07	-4.439549e-10	-3.453943e+00	-3.760678e+01
1.750000e-06	-4.504059e-07	-4.280160e-10	-3.129881e+00	-3.629792e+01
1.760000e-06	-4.037394e-07	-4.119453e-10	-2.805595e+00	-3.498307e+01
1.770000e-06	-3.570340e-07	-3.933396e-10	-2.481038e+00	-3.366200e+01
1.780000e-06	-3.102629e-07	-3.732964e-10	-2.156025e+00	-3.233448e+01
1.790000e-06	-2.635121e-07	-3.530449e-10	-1.831152e+00	-3.100024e+01
1.800000e-06	-2.166447e-07	-3.326160e-10	-1.505469e+00	-2.965897e+01
1.810000e-06	-1.696751e-07	-3.134854e-10	-1.179076e+00	-2.831037e+01
1.820000e-06	-1.228005e-07	-2.950115e-10	-8.533433e-01	-2.695409e+01
1.830000e-06	-7.606382e-08	-2.771501e-10	-5.285693e-01	-2.558979e+01
1.840000e-06	-2.929391e-08	-2.597605e-10	-2.035641e-01	-2.421710e+01
1.850000e-06	1.747184e-08	-2.414480e-10	1.214122e-01	-2.283565e+01
1.860000e-06	6.422927e-08	-2.225330e-10	4.463307e-01	-2.144510e+01
1.870000e-06	1.111073e-07	-2.044875e-10	7.720875e-01	-2.004506e+01
1.880000e-06	1.579971e-07	-1.845917e-10	1.097926e+00	-1.863520e+01
1.890000e-06	2.048825e-07	-1.627976e-10	1.423733e+00	-1.721518e+01
1.900000e-06	2.517176e-07	-1.399189e-10	1.749192e+00	-1.578468e+01
1.910000e-06	2.984565e-07	-1.168227e-10	2.073981e+00	-1.434341e+01
1.920000e-06	3.452173e-07	-9.564905e-11	2.398923e+00	-1.289112e+01
1.930000e-06	3.919384e-07	-7.641395e-11	2.723589e+00	-1.142758e+01
1.940000e-06	4.385994e-07	-5.688249e-11	3.047838e+00	-9.952599e+00
1.950000e-06	4.852473e-07	-3.613342e-11	3.371995e+00	-8.466044e+00
1.960000e-06	5.318137e-07	-1.505455e-11	3.695586e+00	-6.967818e+00
1.970000e-06	5.784756e-07	5.595439e-12	4.019841e+00	-5.457879e+00
1.980000e-06	6.251578e-07	2.634035e-11	4.344236e+00	-3.936239e+00
1.990000e-06	6.717738e-07	4.891558e-11	4.668172e+00	-2.402967e+00
2.000000e-06	7.182634e-07	7.272838e-11	4.991230e+00	-8.581900e-01
2.010000e-06	7.644931e-07	9.599004e-11	5.312481e+00	6.979032e-01
2.020000e-06	8.107191e-07	1.194052e-10	5.633706e+00	2.265063e+00
2.030000e-06	8.570045e-07	1.439454e-10	5.955344e+00	3.842976e+00
2.040000e-06	9.031955e-07	1.678624e-10	6.276327e+00	5.431267e+00
2.050000e-06	9.492547e-07	1.903638e-10	6.596393e+00	7.029502e+00
2.060000e-06	9.952321e-07	2.113574e-10	6.915892e+00	8.637182e+00
2.070000e-06	1.041164e-06	2.320609e-10	7.235072e+00	1.025375e+01
2.080000e-06	1.087015e-06	2.539279e-10	7.553694e+00	1.187860e+01
2.090000e-06	1.132804e-06	2.762748e-10	7.871882e+00	1.351106e+01
2.100000e-06	1.178536e-06	3.020201e-10	8.189676e+00	1.515041e+01
2.110000e-06	1.224223e-06	3.261076e-10	8.507156e+00	1.679590e+01
2.120000e-06	1.269847e-06	3.482903e-10	8.824197e+00	1.844672e+01
2.130000e-06	1.315317e-06	3.703704e-10	9.140171e+00	2.010201e+01
2.140000e-06	1.360671e-06	3.949597e-10	9.455337e+00	2.176092e+01
2.150000e-06	1.406003e-06	4.178050e-10	9.770347e+00	2.342253e+01
2.160000e-06	1.451298e-06	4.377327e-10	1.008510e+01	2.508591e+01
2.170000e-06	1.496460e-06	4.577934e-10	1.039893e+01	2.675013e+01
2.180000e-06	1.541551e-06	4.775885e-10	1.071227e+01	2.841424e+01
2.190000e-06	1.586519e-06	5.022882e-10	1.102476e+01	3.007726e+01
2.200000e-06	1.631257e-06	5.277754e-10	1.133565e+01	3.173825e+01
2.210000e-06	1.675827e-06	5.547239e-10	1.164536e+01	3.339625e+01
2.220000e-06	1.720237e-06	5.837777e-10	1.195397e+01	3.505033e+01
2.230000e-06	1.764479e-06	6.092753e-10	1.226141e+01	3.669957e+01
2.240000e-06	1.808613e-06	6.300279e-10	1.256809e+01	3.834307e+01
2.250000e-06	1.852617e-06	6.456339e-10	1.287388e+01	3.997996e+01
2.260000e-06	1.896527e-06	6.588936e-10	1.317901e+01	4.160941e+01
2.270000e-06	1.940405e-06	6.755457e-10	1.348392e+01	4.323062e+01
2.280000e-06	1.984194e-06	6.963421e-10	1.378821e+01	4.484284e+01
2.290000e-06	2.027903e-06	7.207854e-10	1.409195e+01	4.644536e+01
2.300000e-06	2.071566e-06	7.450832e-10	1.439536e+01	4.803753e+01
2.310000e-06	2.115198e-06	7.708590e-10	1.469856e+01	4.961872e+01
2.320000e-06	2.158797e-06	7.932974e-10	1.500153e+01	5.118840e+01
2.330000e-06	2.202304e-06	8.124836e-10	1.530386e+01	5.274605e+01
2.340000e-06	2.245653e-06	8.297897e-10	1.560509e+01	5.429123e+01
2.350000e-06	2.288836e-06	8.466968e-10	1.590518e+01	5.582356e+01
2.360000e-06	2.331833e-06	8.643926e-10	1.620396e+01	5.734271e+01
2.370000e-06	2.374583e-06	8.829965e-10	1.650103e+01	5.884840e+01
2.380000e-06	2.417102e-06	9.045303e-10	1.679650e+01	6.034041e+01
2.390000e-06	2.459302e-06	9.265010e-10	1.708975e+01	6.181858e+01
2.400000e-06	2.501145e-06	9.479930e-10	1.738052e+01	6.328278e+01
2.410000e-06	2.542650e-06	9.696050e-10	1.766894e+01	6.473296e+01
2.420000e-06	2.583935e-06	9.903869e-10	1.795583e+01	6.616909e+01
2.430000e-06	2.624984e-06	1.010258e-09	1.824107e+01	6.759118e+01
2.440000e-06	2.665655e-06	1.026430e-09	1.852370e+01	6.899931e+01
2.450000e-06	2.706025e-06	1.044047e-09	1.880423e+01	7.039356e+01
2.460000e-06	2.746177e-06	1.062726e-09	1.908325e+01	7.177406e+01
2.470000e-06	2.786160e-06	1.085815e-09	1.936109e+01	7.314095e+01
2.480000e-06	2.825980e-06	1.109111e-09	1.963780e+01	7.449442e+01
2.490000e-06	2.865733e-06	1.130961e-09	1.991405e+01	7.583464e+01
2.500000e-06	2.905372e-06	1.151349e-09	2.018950e+01	7.716182e+01
2.510000e-06	2.944836e-06	1.168073e-09	2.046374e+01	7.847617e+01
2.520000e-06	2.984199e-06	1.184720e-09	2.073727e+01	7.977789e+01
2.530000e-06	3.023491e-06	1.202133e-09	2.101031e+01	8.106721e+01
2.540000e-06	3.062568e-06	1.225576e-09	2.128185e+01	8.234432e+01
2.550000e-06	3.101283e-06	1.248734e-09	2.155089e+01	8.360942e+01
2.560000e-06	3.139797e-06	1.266800e-09	2.181852e+01	8.486269e+01
2.570000e-06	3.178086e-06	1.280805e-09	2.208459e+01	8.610431e+01
2.580000e-06	3.216085e-06	1.293459e-09	2.234865e+01	8.733442e+01
2.590000e-06	3.253911e-06	1.304876e-09	2.261151e+01	8.855314e+01
2.600000e-06	3.291607e-06	1.320270e-09	2.287346e+01	8.976058e+01
2.610000e-06	3.329139e-06	1.341161e-09	2.313426e+01	9.095681e+01
2.620000e-06	3.366444e-06	1.366916e-09	2.339350e+01	9.214188e+01
2.630000e-06	3.403458e-06	1.390173e-09	2.365071e+01	9.331582e+01
2.640000e-06	3.440149e-06	1.407170e-09	2.390568e+01	9.447860e+01
2.650000e-06	3.476521e-06	1.419979e-09	2.415843e+01	9.563021e+01
2.660000e-06	3.512589e-06	1.432003e-09	2.440907e+01	9.677056e+01
2.670000e-06	3.548487e-06	1.442970e-09	2.465852e+01	9.789957e+01
2.680000e-06	3.584311e-06	1.454734e-09	2.490746e+01	9.901712e+01
2.690000e-06	3.620069e-06	1.472225e-09	2.515595e+01	1.001231e+02
2.700000e-06	3.655657e-06	1.494359e-09	2.540325e+01	1.012172e+02
2.710000e-06	3.691045e-06	1.514480e-09	2.564916e+01	1.022994e+02
2.720000e-06	3.726296e-06	1.530611e-09	2.589412e+01	1.033695e+02
2.730000e-06	3.761386e-06	1.543288e-09	2.613796e+01	1.044272e+02
2.740000e-06	3.796099e-06	1.554490e-09	2.637918e+01	1.054722e+02
2.750000e-06	3.830264e-06	1.564000e-09	2.661660e+01	1.065044e+02
2.760000e-06	3.863805e-06	1.574611e-09	2.684967e+01	1.075235e+02
2.770000e-06	3.896883e-06	1.589849e-09	2.707953e+01	1.085293e+02
2.780000e-06	3.929569e-06	1.607357e-09	2.730667e+01	1.095215e+02
2.790000e-06	3.961888e-06	1.624597e-09	2.753125e+01	1.104999e+02
2.800000e-06	3.994012e-06	1.640974e-09	2.775448e+01	1.114643e+02
2.810000e-06	4.025866e-06	1.656954e-09	2.797584e+01	1.124144e+02
2.820000e-06	4.057515e-06	1.670766e-09	2.819577e+01	1.133501e+02
2.830000e-06	4.089054e-06	1.682324e-09	2.841493e+01	1.142712e+02
2.840000e-06	4.120398e-06	1.692772e-09	2.863275e+01	1.151774e+02
2.850000e-06	4.151440e-06	1.703464e-09	2.884846e+01	1.160688e+02
2.860000e-06	4.182217e-06	1.715901e-09	2.906232e+01	1.169451e+02
2.870000e-06	4.212635e-06	1.732653e-09	2.927370e+01	1.178064e+02
2.880000e-06	4.242671e-06	1.748096e-09	2.948242e+01	1.186526e+02
2.890000e-06	4.272450e-06	1.758741e-09	2.968935e+01	1.194835e+02
2.900000e-06	4.301964e-06	1.768811e-09	2.989445e+01	1.202994e+02
