# Temperatura_=_-26.97
# Concentracion g/m^3_=_1620.0
# C_Vs_to_Am_M_A/Vsm_=_65563218390.804596
# pendiente_HvsI_1/m_=_3716.3
# ordenada_HvsI_A/m_=_1297.0
# frecuencia_Hz_=_135092.10192651875

Tiempo_(s)	Campo_(V.s)	Magnetizacion_(V.s)	Campo_(kA/m)	Magnetizacion_(A/m)
0.000000e+00	-5.517107e-06	-1.122258e-09	-3.838546e+01	-7.142495e+01
1.000000e-08	-5.517280e-06	-1.123689e-09	-3.838666e+01	-7.143546e+01
2.000000e-08	-5.517235e-06	-1.127914e-09	-3.838635e+01	-7.144833e+01
3.000000e-08	-5.516782e-06	-1.131542e-09	-3.838319e+01	-7.146357e+01
4.000000e-08	-5.515785e-06	-1.131356e-09	-3.837625e+01	-7.148118e+01
5.000000e-08	-5.514226e-06	-1.125650e-09	-3.836541e+01	-7.150110e+01
6.000000e-08	-5.512196e-06	-1.110874e-09	-3.835128e+01	-7.152327e+01
7.000000e-08	-5.509625e-06	-1.102689e-09	-3.833340e+01	-7.154757e+01
8.000000e-08	-5.506476e-06	-1.133302e-09	-3.831149e+01	-7.157390e+01
9.000000e-08	-5.502778e-06	-1.173660e-09	-3.828576e+01	-7.160209e+01
1.000000e-07	-5.498514e-06	-1.173136e-09	-3.825609e+01	-7.163199e+01
1.100000e-07	-5.494001e-06	-1.118896e-09	-3.822469e+01	-7.166339e+01
1.200000e-07	-5.489398e-06	-1.088447e-09	-3.819267e+01	-7.169610e+01
1.300000e-07	-5.484581e-06	-1.116152e-09	-3.815915e+01	-7.172990e+01
1.400000e-07	-5.479351e-06	-1.140660e-09	-3.812276e+01	-7.176455e+01
1.500000e-07	-5.473719e-06	-1.122677e-09	-3.808358e+01	-7.179980e+01
1.600000e-07	-5.467824e-06	-1.105690e-09	-3.804256e+01	-7.183543e+01
1.700000e-07	-5.461474e-06	-1.125779e-09	-3.799838e+01	-7.187116e+01
1.800000e-07	-5.454603e-06	-1.162457e-09	-3.795058e+01	-7.190676e+01
1.900000e-07	-5.447373e-06	-1.145654e-09	-3.790028e+01	-7.194198e+01
2.000000e-07	-5.439852e-06	-1.107939e-09	-3.784795e+01	-7.197656e+01
2.100000e-07	-5.432035e-06	-1.090570e-09	-3.779356e+01	-7.201028e+01
2.200000e-07	-5.423985e-06	-1.125387e-09	-3.773755e+01	-7.204292e+01
2.300000e-07	-5.415695e-06	-1.152684e-09	-3.767988e+01	-7.207425e+01
2.400000e-07	-5.407045e-06	-1.146782e-09	-3.761969e+01	-7.210409e+01
2.500000e-07	-5.397734e-06	-1.138571e-09	-3.755491e+01	-7.213224e+01
2.600000e-07	-5.387543e-06	-1.138322e-09	-3.748401e+01	-7.215857e+01
2.700000e-07	-5.376792e-06	-1.130153e-09	-3.740921e+01	-7.218291e+01
2.800000e-07	-5.365657e-06	-1.107814e-09	-3.733174e+01	-7.220516e+01
2.900000e-07	-5.354045e-06	-1.113556e-09	-3.725094e+01	-7.222521e+01
3.000000e-07	-5.342002e-06	-1.131438e-09	-3.716716e+01	-7.224300e+01
3.100000e-07	-5.329571e-06	-1.130443e-09	-3.708067e+01	-7.225847e+01
3.200000e-07	-5.316737e-06	-1.110001e-09	-3.699137e+01	-7.227159e+01
3.300000e-07	-5.303523e-06	-1.117195e-09	-3.689944e+01	-7.228237e+01
3.400000e-07	-5.290020e-06	-1.121194e-09	-3.680549e+01	-7.229082e+01
3.500000e-07	-5.276163e-06	-1.111192e-09	-3.670908e+01	-7.229698e+01
3.600000e-07	-5.261870e-06	-1.101384e-09	-3.660964e+01	-7.230091e+01
3.700000e-07	-5.247127e-06	-1.118778e-09	-3.650706e+01	-7.230270e+01
3.800000e-07	-5.231805e-06	-1.122562e-09	-3.640046e+01	-7.230243e+01
3.900000e-07	-5.215873e-06	-1.122530e-09	-3.628961e+01	-7.230024e+01
4.000000e-07	-5.199434e-06	-1.126433e-09	-3.617523e+01	-7.229624e+01
4.100000e-07	-5.182647e-06	-1.114663e-09	-3.605844e+01	-7.229058e+01
4.200000e-07	-5.165518e-06	-1.092570e-09	-3.593926e+01	-7.228340e+01
4.300000e-07	-5.148082e-06	-1.103261e-09	-3.581795e+01	-7.227488e+01
4.400000e-07	-5.130368e-06	-1.126661e-09	-3.569471e+01	-7.226517e+01
4.500000e-07	-5.112322e-06	-1.122464e-09	-3.556915e+01	-7.225445e+01
4.600000e-07	-5.093814e-06	-1.117709e-09	-3.544038e+01	-7.224288e+01
4.700000e-07	-5.074810e-06	-1.129287e-09	-3.530816e+01	-7.223063e+01
4.800000e-07	-5.055517e-06	-1.122114e-09	-3.517393e+01	-7.221787e+01
4.900000e-07	-5.035992e-06	-1.108030e-09	-3.503808e+01	-7.220476e+01
5.000000e-07	-5.016239e-06	-1.112330e-09	-3.490065e+01	-7.219145e+01
5.100000e-07	-4.996271e-06	-1.108052e-09	-3.476172e+01	-7.217808e+01
5.200000e-07	-4.976061e-06	-1.094649e-09	-3.462111e+01	-7.216479e+01
5.300000e-07	-4.955533e-06	-1.109815e-09	-3.447828e+01	-7.215170e+01
5.400000e-07	-4.934587e-06	-1.130093e-09	-3.433255e+01	-7.213891e+01
5.500000e-07	-4.913282e-06	-1.120124e-09	-3.418432e+01	-7.212652e+01
5.600000e-07	-4.891670e-06	-1.106636e-09	-3.403395e+01	-7.211460e+01
5.700000e-07	-4.869683e-06	-1.108835e-09	-3.388098e+01	-7.210322e+01
5.800000e-07	-4.847388e-06	-1.113176e-09	-3.372586e+01	-7.209242e+01
5.900000e-07	-4.824753e-06	-1.113555e-09	-3.356838e+01	-7.208223e+01
6.000000e-07	-4.801693e-06	-1.116903e-09	-3.340794e+01	-7.207266e+01
6.100000e-07	-4.778357e-06	-1.110862e-09	-3.324558e+01	-7.206370e+01
6.200000e-07	-4.754752e-06	-1.103320e-09	-3.308135e+01	-7.205534e+01
6.300000e-07	-4.730894e-06	-1.101401e-09	-3.291535e+01	-7.204754e+01
6.400000e-07	-4.706819e-06	-1.102951e-09	-3.274785e+01	-7.204025e+01
6.500000e-07	-4.682378e-06	-1.107427e-09	-3.257780e+01	-7.203341e+01
6.600000e-07	-4.657517e-06	-1.116108e-09	-3.240483e+01	-7.202695e+01
6.700000e-07	-4.632224e-06	-1.115091e-09	-3.222885e+01	-7.202078e+01
6.800000e-07	-4.606473e-06	-1.110510e-09	-3.204969e+01	-7.201482e+01
6.900000e-07	-4.580055e-06	-1.107129e-09	-3.186589e+01	-7.200896e+01
7.000000e-07	-4.553057e-06	-1.102682e-09	-3.167804e+01	-7.200311e+01
7.100000e-07	-4.525761e-06	-1.098504e-09	-3.148813e+01	-7.199714e+01
7.200000e-07	-4.498249e-06	-1.102499e-09	-3.129672e+01	-7.199095e+01
7.300000e-07	-4.470578e-06	-1.105793e-09	-3.110419e+01	-7.198443e+01
7.400000e-07	-4.442764e-06	-1.107622e-09	-3.091068e+01	-7.197747e+01
7.500000e-07	-4.414681e-06	-1.111226e-09	-3.071529e+01	-7.196996e+01
7.600000e-07	-4.386226e-06	-1.113829e-09	-3.051731e+01	-7.196178e+01
7.700000e-07	-4.357471e-06	-1.107370e-09	-3.031725e+01	-7.195285e+01
7.800000e-07	-4.328437e-06	-1.099812e-09	-3.011524e+01	-7.194307e+01
7.900000e-07	-4.299121e-06	-1.100098e-09	-2.991127e+01	-7.193234e+01
8.000000e-07	-4.269524e-06	-1.100358e-09	-2.970535e+01	-7.192058e+01
8.100000e-07	-4.239707e-06	-1.095868e-09	-2.949790e+01	-7.190773e+01
8.200000e-07	-4.209631e-06	-1.094379e-09	-2.928864e+01	-7.189371e+01
8.300000e-07	-4.179168e-06	-1.097203e-09	-2.907670e+01	-7.187848e+01
8.400000e-07	-4.148294e-06	-1.097305e-09	-2.886189e+01	-7.186197e+01
8.500000e-07	-4.117087e-06	-1.099157e-09	-2.864477e+01	-7.184416e+01
8.600000e-07	-4.085774e-06	-1.104152e-09	-2.842691e+01	-7.182500e+01
8.700000e-07	-4.054300e-06	-1.103094e-09	-2.820792e+01	-7.180447e+01
8.800000e-07	-4.022594e-06	-1.096035e-09	-2.798733e+01	-7.178256e+01
8.900000e-07	-3.990804e-06	-1.092104e-09	-2.776615e+01	-7.175925e+01
9.000000e-07	-3.958774e-06	-1.088674e-09	-2.754330e+01	-7.173452e+01
9.100000e-07	-3.926375e-06	-1.083760e-09	-2.731788e+01	-7.170838e+01
9.200000e-07	-3.893597e-06	-1.083206e-09	-2.708983e+01	-7.168081e+01
9.300000e-07	-3.860498e-06	-1.088803e-09	-2.685954e+01	-7.165182e+01
9.400000e-07	-3.827010e-06	-1.088139e-09	-2.662655e+01	-7.162139e+01
9.500000e-07	-3.792896e-06	-1.082933e-09	-2.638920e+01	-7.158952e+01
9.600000e-07	-3.758320e-06	-1.078890e-09	-2.614863e+01	-7.155620e+01
9.700000e-07	-3.723493e-06	-1.074024e-09	-2.590633e+01	-7.152140e+01
9.800000e-07	-3.688351e-06	-1.067537e-09	-2.566182e+01	-7.148510e+01
9.900000e-07	-3.652944e-06	-1.067372e-09	-2.541548e+01	-7.144727e+01
1.000000e-06	-3.617372e-06	-1.069289e-09	-2.516799e+01	-7.140786e+01
1.010000e-06	-3.581641e-06	-1.066661e-09	-2.491939e+01	-7.136683e+01
1.020000e-06	-3.545786e-06	-1.063967e-09	-2.466992e+01	-7.132409e+01
1.030000e-06	-3.509750e-06	-1.063285e-09	-2.441920e+01	-7.127958e+01
1.040000e-06	-3.473485e-06	-1.060722e-09	-2.416688e+01	-7.123320e+01
1.050000e-06	-3.436947e-06	-1.058184e-09	-2.391268e+01	-7.118484e+01
1.060000e-06	-3.400149e-06	-1.057119e-09	-2.365665e+01	-7.113439e+01
1.070000e-06	-3.363080e-06	-1.054568e-09	-2.339874e+01	-7.108171e+01
1.080000e-06	-3.325754e-06	-1.049265e-09	-2.313905e+01	-7.102665e+01
1.090000e-06	-3.288219e-06	-1.046889e-09	-2.287790e+01	-7.096906e+01
1.100000e-06	-3.250487e-06	-1.045293e-09	-2.261537e+01	-7.090875e+01
1.110000e-06	-3.212575e-06	-1.039718e-09	-2.235160e+01	-7.084555e+01
1.120000e-06	-3.174413e-06	-1.032029e-09	-2.208609e+01	-7.077926e+01
1.130000e-06	-3.136010e-06	-1.027222e-09	-2.181889e+01	-7.070966e+01
1.140000e-06	-3.097439e-06	-1.026988e-09	-2.155054e+01	-7.063656e+01
1.150000e-06	-3.058666e-06	-1.028577e-09	-2.128077e+01	-7.055972e+01
1.160000e-06	-3.019653e-06	-1.029276e-09	-2.100934e+01	-7.047893e+01
1.170000e-06	-2.980387e-06	-1.029796e-09	-2.073614e+01	-7.039396e+01
1.180000e-06	-2.940865e-06	-1.030101e-09	-2.046117e+01	-7.030458e+01
1.190000e-06	-2.901258e-06	-1.027896e-09	-2.018560e+01	-7.021056e+01
1.200000e-06	-2.861601e-06	-1.023349e-09	-1.990969e+01	-7.011169e+01
1.210000e-06	-2.821762e-06	-1.014902e-09	-1.963250e+01	-7.000775e+01
1.220000e-06	-2.781783e-06	-1.009237e-09	-1.935435e+01	-6.989853e+01
1.230000e-06	-2.741692e-06	-1.008796e-09	-1.907541e+01	-6.978383e+01
1.240000e-06	-2.701424e-06	-1.008154e-09	-1.879525e+01	-6.966346e+01
1.250000e-06	-2.660980e-06	-1.007060e-09	-1.851386e+01	-6.953725e+01
1.260000e-06	-2.620251e-06	-1.008152e-09	-1.823048e+01	-6.940505e+01
1.270000e-06	-2.579263e-06	-1.007731e-09	-1.794531e+01	-6.926669e+01
1.280000e-06	-2.538042e-06	-1.001662e-09	-1.765851e+01	-6.912207e+01
1.290000e-06	-2.496616e-06	-9.945151e-10	-1.737029e+01	-6.897106e+01
1.300000e-06	-2.454963e-06	-9.903782e-10	-1.708049e+01	-6.881359e+01
1.310000e-06	-2.412897e-06	-9.864683e-10	-1.678781e+01	-6.864956e+01
1.320000e-06	-2.370386e-06	-9.839865e-10	-1.649204e+01	-6.847893e+01
1.330000e-06	-2.327630e-06	-9.827953e-10	-1.619457e+01	-6.830165e+01
1.340000e-06	-2.284750e-06	-9.805223e-10	-1.589622e+01	-6.811770e+01
1.350000e-06	-2.241526e-06	-9.776896e-10	-1.559549e+01	-6.792708e+01
1.360000e-06	-2.198055e-06	-9.773838e-10	-1.529304e+01	-6.772979e+01
1.370000e-06	-2.154545e-06	-9.775524e-10	-1.499032e+01	-6.752583e+01
1.380000e-06	-2.110926e-06	-9.746127e-10	-1.468684e+01	-6.731524e+01
1.390000e-06	-2.067220e-06	-9.685603e-10	-1.438275e+01	-6.709803e+01
1.400000e-06	-2.023478e-06	-9.604182e-10	-1.407842e+01	-6.687424e+01
1.410000e-06	-1.979673e-06	-9.513928e-10	-1.377364e+01	-6.664390e+01
1.420000e-06	-1.935759e-06	-9.418597e-10	-1.346811e+01	-6.640702e+01
1.430000e-06	-1.891740e-06	-9.367479e-10	-1.316184e+01	-6.616363e+01
1.440000e-06	-1.847650e-06	-9.361760e-10	-1.285509e+01	-6.591371e+01
1.450000e-06	-1.803504e-06	-9.382467e-10	-1.254794e+01	-6.565725e+01
1.460000e-06	-1.759273e-06	-9.393560e-10	-1.224020e+01	-6.539421e+01
1.470000e-06	-1.714844e-06	-9.353546e-10	-1.193108e+01	-6.512451e+01
1.480000e-06	-1.670184e-06	-9.293801e-10	-1.162036e+01	-6.484807e+01
1.490000e-06	-1.625462e-06	-9.229079e-10	-1.130921e+01	-6.456473e+01
1.500000e-06	-1.580624e-06	-9.123190e-10	-1.099724e+01	-6.427433e+01
1.510000e-06	-1.535544e-06	-9.014124e-10	-1.068360e+01	-6.397665e+01
1.520000e-06	-1.490308e-06	-8.952896e-10	-1.036887e+01	-6.367140e+01
1.530000e-06	-1.445065e-06	-8.913760e-10	-1.005409e+01	-6.335828e+01
1.540000e-06	-1.399806e-06	-8.873532e-10	-9.739196e+00	-6.303691e+01
1.550000e-06	-1.354374e-06	-8.835133e-10	-9.423105e+00	-6.270684e+01
1.560000e-06	-1.308755e-06	-8.776072e-10	-9.105709e+00	-6.236759e+01
1.570000e-06	-1.263141e-06	-8.681037e-10	-8.788343e+00	-6.201859e+01
1.580000e-06	-1.217504e-06	-8.567590e-10	-8.470824e+00	-6.165923e+01
1.590000e-06	-1.171669e-06	-8.460471e-10	-8.151923e+00	-6.128880e+01
1.600000e-06	-1.125743e-06	-8.360972e-10	-7.832392e+00	-6.090657e+01
1.610000e-06	-1.079813e-06	-8.278100e-10	-7.512832e+00	-6.051172e+01
1.620000e-06	-1.033846e-06	-8.206358e-10	-7.193015e+00	-6.010336e+01
1.630000e-06	-9.878236e-07	-8.127608e-10	-6.872816e+00	-5.968056e+01
1.640000e-06	-9.417107e-07	-8.053814e-10	-6.551983e+00	-5.924232e+01
1.650000e-06	-8.954983e-07	-7.986645e-10	-6.230459e+00	-5.878758e+01
1.660000e-06	-8.491928e-07	-7.926964e-10	-5.908287e+00	-5.831523e+01
1.670000e-06	-8.028050e-07	-7.849841e-10	-5.585542e+00	-5.782414e+01
1.680000e-06	-7.564379e-07	-7.772784e-10	-5.262941e+00	-5.731310e+01
1.690000e-06	-7.100950e-07	-7.694566e-10	-4.940510e+00	-5.678089e+01
1.700000e-06	-6.636894e-07	-7.581431e-10	-4.617641e+00	-5.622626e+01
1.710000e-06	-6.172301e-07	-7.414663e-10	-4.294399e+00	-5.564793e+01
1.720000e-06	-5.706585e-07	-7.245862e-10	-3.970376e+00	-5.504463e+01
1.730000e-06	-5.239682e-07	-7.128563e-10	-3.645526e+00	-5.441506e+01
1.740000e-06	-4.773142e-07	-7.048556e-10	-3.320929e+00	-5.375794e+01
1.750000e-06	-4.306680e-07	-6.990609e-10	-2.996387e+00	-5.307200e+01
1.760000e-06	-3.840170e-07	-6.913681e-10	-2.671811e+00	-5.235601e+01
1.770000e-06	-3.373456e-07	-6.790227e-10	-2.347093e+00	-5.160874e+01
1.780000e-06	-2.905441e-07	-6.651319e-10	-2.021470e+00	-5.082905e+01
1.790000e-06	-2.437112e-07	-6.518397e-10	-1.695629e+00	-5.001581e+01
1.800000e-06	-1.968919e-07	-6.385084e-10	-1.369882e+00	-4.916798e+01
1.810000e-06	-1.500338e-07	-6.253252e-10	-1.043865e+00	-4.828459e+01
1.820000e-06	-1.032799e-07	-6.130019e-10	-7.185736e-01	-4.736474e+01
1.830000e-06	-5.653293e-08	-6.011426e-10	-3.933297e-01	-4.640766e+01
1.840000e-06	-9.732287e-09	-5.886573e-10	-6.771271e-02	-4.541263e+01
1.850000e-06	3.698588e-08	-5.753879e-10	2.573305e-01	-4.437908e+01
1.860000e-06	8.364784e-08	-5.620912e-10	5.819826e-01	-4.330654e+01
1.870000e-06	1.303899e-07	-5.483664e-10	9.071921e-01	-4.219467e+01
1.880000e-06	1.771616e-07	-5.338755e-10	1.232608e+00	-4.104327e+01
1.890000e-06	2.239422e-07	-5.180345e-10	1.558085e+00	-3.985227e+01
1.900000e-06	2.707204e-07	-4.997961e-10	1.883546e+00	-3.862174e+01
1.910000e-06	3.174264e-07	-4.809406e-10	2.208504e+00	-3.735190e+01
1.920000e-06	3.641118e-07	-4.611023e-10	2.533320e+00	-3.604312e+01
1.930000e-06	4.108316e-07	-4.407953e-10	2.858375e+00	-3.469593e+01
1.940000e-06	4.574680e-07	-4.222458e-10	3.182849e+00	-3.331101e+01
1.950000e-06	5.039713e-07	-4.066652e-10	3.506397e+00	-3.188918e+01
1.960000e-06	5.504287e-07	-3.908574e-10	3.829626e+00	-3.043143e+01
1.970000e-06	5.969081e-07	-3.733102e-10	4.153008e+00	-2.893889e+01
1.980000e-06	6.434700e-07	-3.556480e-10	4.476964e+00	-2.741285e+01
1.990000e-06	6.898915e-07	-3.349950e-10	4.799943e+00	-2.585472e+01
2.000000e-06	7.361373e-07	-3.092308e-10	5.121700e+00	-2.426608e+01
2.010000e-06	7.823457e-07	-2.834695e-10	5.443196e+00	-2.264861e+01
2.020000e-06	8.285080e-07	-2.595225e-10	5.764372e+00	-2.100414e+01
2.030000e-06	8.746643e-07	-2.347377e-10	6.085506e+00	-1.933459e+01
2.040000e-06	9.208337e-07	-2.113087e-10	6.406731e+00	-1.764202e+01
2.050000e-06	9.669032e-07	-1.911780e-10	6.727261e+00	-1.592857e+01
2.060000e-06	1.012831e-06	-1.711080e-10	7.046807e+00	-1.419646e+01
2.070000e-06	1.058730e-06	-1.493958e-10	7.366152e+00	-1.244800e+01
2.080000e-06	1.104590e-06	-1.281000e-10	7.685223e+00	-1.068556e+01
2.090000e-06	1.150361e-06	-1.044077e-10	8.003676e+00	-8.911573e+00
2.100000e-06	1.196042e-06	-7.636207e-11	8.321503e+00	-7.128493e+00
2.110000e-06	1.241673e-06	-4.936437e-11	8.638978e+00	-5.338817e+00
2.120000e-06	1.287228e-06	-2.473184e-11	8.955932e+00	-3.545055e+00
2.130000e-06	1.332631e-06	1.113463e-12	9.271825e+00	-1.749718e+00
2.140000e-06	1.378013e-06	2.539149e-11	9.587571e+00	4.469427e-02
2.150000e-06	1.423350e-06	4.651874e-11	9.903006e+00	1.835702e+00
2.160000e-06	1.468556e-06	6.912618e-11	1.021753e+01	3.620863e+00
2.170000e-06	1.513581e-06	9.096877e-11	1.053079e+01	5.397781e+00
2.180000e-06	1.558374e-06	1.137920e-10	1.084244e+01	7.164119e+00
2.190000e-06	1.603041e-06	1.393204e-10	1.115321e+01	8.917611e+00
2.200000e-06	1.647675e-06	1.661867e-10	1.146375e+01	1.065607e+01
2.210000e-06	1.692248e-06	1.950960e-10	1.177387e+01	1.237740e+01
2.220000e-06	1.736644e-06	2.233466e-10	1.208276e+01	1.407960e+01
2.230000e-06	1.780910e-06	2.483678e-10	1.239074e+01	1.576079e+01
2.240000e-06	1.825099e-06	2.684858e-10	1.269818e+01	1.741918e+01
2.250000e-06	1.869169e-06	2.834297e-10	1.300481e+01	1.905313e+01
2.260000e-06	1.913100e-06	2.970133e-10	1.331046e+01	2.066111e+01
2.270000e-06	1.956930e-06	3.145665e-10	1.361540e+01	2.224172e+01
2.280000e-06	2.000729e-06	3.359951e-10	1.392014e+01	2.379370e+01
2.290000e-06	2.044492e-06	3.609788e-10	1.422462e+01	2.531592e+01
2.300000e-06	2.088178e-06	3.880376e-10	1.452857e+01	2.680740e+01
2.310000e-06	2.131851e-06	4.142542e-10	1.483243e+01	2.826730e+01
2.320000e-06	2.175505e-06	4.351681e-10	1.513614e+01	2.969489e+01
2.330000e-06	2.219028e-06	4.509499e-10	1.543896e+01	3.108960e+01
2.340000e-06	2.262371e-06	4.639793e-10	1.574052e+01	3.245100e+01
2.350000e-06	2.305548e-06	4.777045e-10	1.604093e+01	3.377877e+01
2.360000e-06	2.348531e-06	4.934917e-10	1.633998e+01	3.507272e+01
2.370000e-06	2.391092e-06	5.112681e-10	1.663610e+01	3.633280e+01
2.380000e-06	2.433279e-06	5.311206e-10	1.692962e+01	3.755905e+01
2.390000e-06	2.475186e-06	5.511418e-10	1.722119e+01	3.875162e+01
2.400000e-06	2.516741e-06	5.680344e-10	1.751031e+01	3.991078e+01
2.410000e-06	2.557946e-06	5.831833e-10	1.779700e+01	4.103687e+01
2.420000e-06	2.598948e-06	5.958346e-10	1.808227e+01	4.213034e+01
2.430000e-06	2.639661e-06	6.073090e-10	1.836553e+01	4.319169e+01
2.440000e-06	2.680035e-06	6.213753e-10	1.864643e+01	4.422151e+01
2.450000e-06	2.720252e-06	6.360802e-10	1.892625e+01	4.522044e+01
2.460000e-06	2.760335e-06	6.513406e-10	1.920512e+01	4.618917e+01
2.470000e-06	2.800247e-06	6.654967e-10	1.948281e+01	4.712844e+01
2.480000e-06	2.840038e-06	6.796138e-10	1.975966e+01	4.803901e+01
2.490000e-06	2.879793e-06	6.922755e-10	2.003625e+01	4.892167e+01
2.500000e-06	2.919363e-06	7.012744e-10	2.031156e+01	4.977723e+01
2.510000e-06	2.958809e-06	7.121226e-10	2.058601e+01	5.060650e+01
2.520000e-06	2.998131e-06	7.244859e-10	2.085960e+01	5.141031e+01
2.530000e-06	3.037202e-06	7.380769e-10	2.113143e+01	5.218947e+01
2.540000e-06	3.076034e-06	7.532765e-10	2.140161e+01	5.294476e+01
2.550000e-06	3.114617e-06	7.654282e-10	2.167005e+01	5.367697e+01
2.560000e-06	3.152957e-06	7.729073e-10	2.193680e+01	5.438686e+01
2.570000e-06	3.191115e-06	7.777640e-10	2.220229e+01	5.507515e+01
2.580000e-06	3.229121e-06	7.832749e-10	2.246672e+01	5.574253e+01
2.590000e-06	3.266871e-06	7.880931e-10	2.272936e+01	5.638965e+01
2.600000e-06	3.304359e-06	7.973061e-10	2.299018e+01	5.701714e+01
2.610000e-06	3.341676e-06	8.127101e-10	2.324982e+01	5.762558e+01
2.620000e-06	3.378747e-06	8.304153e-10	2.350774e+01	5.821548e+01
2.630000e-06	3.415507e-06	8.450409e-10	2.376350e+01	5.878735e+01
2.640000e-06	3.452028e-06	8.532341e-10	2.401760e+01	5.934163e+01
2.650000e-06	3.488334e-06	8.560809e-10	2.427020e+01	5.987873e+01
2.660000e-06	3.524457e-06	8.545544e-10	2.452152e+01	6.039901e+01
2.670000e-06	3.560356e-06	8.536914e-10	2.477129e+01	6.090280e+01
2.680000e-06	3.596132e-06	8.571182e-10	2.502021e+01	6.139037e+01
2.690000e-06	3.631828e-06	8.672348e-10	2.526856e+01	6.186200e+01
2.700000e-06	3.667359e-06	8.815546e-10	2.551577e+01	6.231789e+01
2.710000e-06	3.702778e-06	8.929760e-10	2.576220e+01	6.275825e+01
2.720000e-06	3.737976e-06	9.009061e-10	2.600709e+01	6.318325e+01
2.730000e-06	3.772784e-06	9.030056e-10	2.624927e+01	6.359304e+01
2.740000e-06	3.807197e-06	9.006430e-10	2.648870e+01	6.398776e+01
2.750000e-06	3.841137e-06	8.963403e-10	2.672484e+01	6.436754e+01
2.760000e-06	3.874460e-06	8.962760e-10	2.695668e+01	6.473249e+01
2.770000e-06	3.907280e-06	9.047112e-10	2.718503e+01	6.508274e+01
2.780000e-06	3.939773e-06	9.166316e-10	2.741110e+01	6.541841e+01
2.790000e-06	3.972049e-06	9.281533e-10	2.763567e+01	6.573963e+01
2.800000e-06	4.004093e-06	9.374063e-10	2.785861e+01	6.604653e+01
2.810000e-06	4.035951e-06	9.413462e-10	2.808026e+01	6.633927e+01
2.820000e-06	4.067670e-06	9.406937e-10	2.830095e+01	6.661801e+01
2.830000e-06	4.099181e-06	9.415024e-10	2.852018e+01	6.688295e+01
2.840000e-06	4.130446e-06	9.434486e-10	2.873771e+01	6.713430e+01
2.850000e-06	4.161380e-06	9.460536e-10	2.895294e+01	6.737229e+01
2.860000e-06	4.191914e-06	9.533232e-10	2.916538e+01	6.759719e+01
2.870000e-06	4.222144e-06	9.635896e-10	2.937571e+01	6.780930e+01
2.880000e-06	4.252146e-06	9.696376e-10	2.958445e+01	6.800893e+01
2.890000e-06	4.281901e-06	9.711932e-10	2.979147e+01	6.819643e+01
2.900000e-06	4.311427e-06	9.705711e-10	2.999690e+01	6.837219e+01
