# Temperatura_=_-15.13
# Concentracion g/m^3_=_1620.0
# C_Vs_to_Am_M_A/Vsm_=_65563218390.804596
# pendiente_HvsI_1/m_=_3716.3
# ordenada_HvsI_A/m_=_1297.0
# frecuencia_Hz_=_135098.19562555852

Tiempo_(s)	Campo_(V.s)	Magnetizacion_(V.s)	Campo_(kA/m)	Magnetizacion_(A/m)
0.000000e+00	-5.511364e-06	-1.289468e-09	-3.837009e+01	-8.246864e+01
1.000000e-08	-5.511503e-06	-1.289002e-09	-3.837105e+01	-8.245642e+01
2.000000e-08	-5.511386e-06	-1.290089e-09	-3.837024e+01	-8.244387e+01
3.000000e-08	-5.510949e-06	-1.288079e-09	-3.836719e+01	-8.243098e+01
4.000000e-08	-5.510073e-06	-1.284005e-09	-3.836110e+01	-8.241774e+01
5.000000e-08	-5.508631e-06	-1.277210e-09	-3.835106e+01	-8.240413e+01
6.000000e-08	-5.506589e-06	-1.269214e-09	-3.833684e+01	-8.239011e+01
7.000000e-08	-5.503946e-06	-1.276495e-09	-3.831844e+01	-8.237565e+01
8.000000e-08	-5.500730e-06	-1.303464e-09	-3.829605e+01	-8.236067e+01
9.000000e-08	-5.497003e-06	-1.285196e-09	-3.827011e+01	-8.234511e+01
1.000000e-07	-5.492880e-06	-1.244115e-09	-3.824140e+01	-8.232889e+01
1.100000e-07	-5.488500e-06	-1.247874e-09	-3.821091e+01	-8.231193e+01
1.200000e-07	-5.483960e-06	-1.286880e-09	-3.817930e+01	-8.229414e+01
1.300000e-07	-5.479124e-06	-1.276794e-09	-3.814563e+01	-8.227543e+01
1.400000e-07	-5.473871e-06	-1.226607e-09	-3.810906e+01	-8.225569e+01
1.500000e-07	-5.468300e-06	-1.243490e-09	-3.807028e+01	-8.223482e+01
1.600000e-07	-5.462325e-06	-1.309513e-09	-3.802868e+01	-8.221273e+01
1.700000e-07	-5.455882e-06	-1.273773e-09	-3.798382e+01	-8.218933e+01
1.800000e-07	-5.449013e-06	-1.205430e-09	-3.793600e+01	-8.216451e+01
1.900000e-07	-5.441751e-06	-1.216668e-09	-3.788544e+01	-8.213819e+01
2.000000e-07	-5.434247e-06	-1.280219e-09	-3.783320e+01	-8.211030e+01
2.100000e-07	-5.426536e-06	-1.259495e-09	-3.777952e+01	-8.208076e+01
2.200000e-07	-5.418492e-06	-1.204820e-09	-3.772351e+01	-8.204952e+01
2.300000e-07	-5.410160e-06	-1.212412e-09	-3.766551e+01	-8.201652e+01
2.400000e-07	-5.401411e-06	-1.244222e-09	-3.760460e+01	-8.198174e+01
2.500000e-07	-5.391992e-06	-1.225681e-09	-3.753902e+01	-8.194514e+01
2.600000e-07	-5.381924e-06	-1.198492e-09	-3.746893e+01	-8.190673e+01
2.700000e-07	-5.371269e-06	-1.215026e-09	-3.739475e+01	-8.186652e+01
2.800000e-07	-5.360083e-06	-1.229485e-09	-3.731687e+01	-8.182453e+01
2.900000e-07	-5.348482e-06	-1.219739e-09	-3.723611e+01	-8.178080e+01
3.000000e-07	-5.336561e-06	-1.200978e-09	-3.715311e+01	-8.173539e+01
3.100000e-07	-5.324246e-06	-1.217837e-09	-3.706737e+01	-8.168838e+01
3.200000e-07	-5.311449e-06	-1.223035e-09	-3.697828e+01	-8.163985e+01
3.300000e-07	-5.298209e-06	-1.220767e-09	-3.688611e+01	-8.158991e+01
3.400000e-07	-5.284670e-06	-1.202197e-09	-3.679185e+01	-8.153866e+01
3.500000e-07	-5.270806e-06	-1.212780e-09	-3.669532e+01	-8.148625e+01
3.600000e-07	-5.256442e-06	-1.227745e-09	-3.659532e+01	-8.143281e+01
3.700000e-07	-5.241516e-06	-1.217242e-09	-3.649141e+01	-8.137848e+01
3.800000e-07	-5.225919e-06	-1.196830e-09	-3.638282e+01	-8.132343e+01
3.900000e-07	-5.209821e-06	-1.222239e-09	-3.627075e+01	-8.126782e+01
4.000000e-07	-5.193485e-06	-1.233344e-09	-3.615701e+01	-8.121181e+01
4.100000e-07	-5.176822e-06	-1.194552e-09	-3.604101e+01	-8.115557e+01
4.200000e-07	-5.159771e-06	-1.199069e-09	-3.592230e+01	-8.109927e+01
4.300000e-07	-5.142401e-06	-1.251275e-09	-3.580137e+01	-8.104307e+01
4.400000e-07	-5.124782e-06	-1.226573e-09	-3.567871e+01	-8.098713e+01
4.500000e-07	-5.106742e-06	-1.184870e-09	-3.555311e+01	-8.093161e+01
4.600000e-07	-5.088172e-06	-1.227631e-09	-3.542382e+01	-8.087664e+01
4.700000e-07	-5.069214e-06	-1.245155e-09	-3.529184e+01	-8.082235e+01
4.800000e-07	-5.049909e-06	-1.189546e-09	-3.515744e+01	-8.076887e+01
4.900000e-07	-5.030396e-06	-1.198704e-09	-3.502159e+01	-8.071629e+01
5.000000e-07	-5.010711e-06	-1.237654e-09	-3.488454e+01	-8.066471e+01
5.100000e-07	-4.990825e-06	-1.198499e-09	-3.474610e+01	-8.061419e+01
5.200000e-07	-4.970657e-06	-1.188874e-09	-3.460569e+01	-8.056477e+01
5.300000e-07	-4.950076e-06	-1.239819e-09	-3.446240e+01	-8.051649e+01
5.400000e-07	-4.929085e-06	-1.217516e-09	-3.431626e+01	-8.046934e+01
5.500000e-07	-4.907714e-06	-1.175523e-09	-3.416748e+01	-8.042332e+01
5.600000e-07	-4.886047e-06	-1.220534e-09	-3.401663e+01	-8.037837e+01
5.700000e-07	-4.864095e-06	-1.231655e-09	-3.386381e+01	-8.033444e+01
5.800000e-07	-4.841724e-06	-1.182954e-09	-3.370805e+01	-8.029144e+01
5.900000e-07	-4.818923e-06	-1.197862e-09	-3.354932e+01	-8.024925e+01
6.000000e-07	-4.795896e-06	-1.229231e-09	-3.338900e+01	-8.020776e+01
6.100000e-07	-4.772661e-06	-1.190998e-09	-3.322724e+01	-8.016680e+01
6.200000e-07	-4.749092e-06	-1.182116e-09	-3.306315e+01	-8.012620e+01
6.300000e-07	-4.725308e-06	-1.215547e-09	-3.289757e+01	-8.008578e+01
6.400000e-07	-4.701335e-06	-1.204834e-09	-3.273067e+01	-8.004533e+01
6.500000e-07	-4.677040e-06	-1.185998e-09	-3.256152e+01	-8.000463e+01
6.600000e-07	-4.652346e-06	-1.208438e-09	-3.238961e+01	-7.996344e+01
6.700000e-07	-4.627091e-06	-1.204462e-09	-3.221378e+01	-7.992152e+01
6.800000e-07	-4.601144e-06	-1.180762e-09	-3.203314e+01	-7.987862e+01
6.900000e-07	-4.574667e-06	-1.187215e-09	-3.184881e+01	-7.983447e+01
7.000000e-07	-4.547800e-06	-1.197045e-09	-3.166176e+01	-7.978882e+01
7.100000e-07	-4.520566e-06	-1.184976e-09	-3.147216e+01	-7.974140e+01
7.200000e-07	-4.493086e-06	-1.190917e-09	-3.128084e+01	-7.969194e+01
7.300000e-07	-4.465430e-06	-1.201447e-09	-3.108830e+01	-7.964020e+01
7.400000e-07	-4.437585e-06	-1.189809e-09	-3.089444e+01	-7.958592e+01
7.500000e-07	-4.409551e-06	-1.181022e-09	-3.069927e+01	-7.952886e+01
7.600000e-07	-4.381204e-06	-1.187830e-09	-3.050192e+01	-7.946879e+01
7.700000e-07	-4.352521e-06	-1.184587e-09	-3.030223e+01	-7.940549e+01
7.800000e-07	-4.323569e-06	-1.177439e-09	-3.010067e+01	-7.933875e+01
7.900000e-07	-4.294275e-06	-1.180766e-09	-2.989672e+01	-7.926839e+01
8.000000e-07	-4.264641e-06	-1.178325e-09	-2.969041e+01	-7.919425e+01
8.100000e-07	-4.234693e-06	-1.168874e-09	-2.948191e+01	-7.911618e+01
8.200000e-07	-4.204528e-06	-1.168901e-09	-2.927190e+01	-7.903404e+01
8.300000e-07	-4.174175e-06	-1.169832e-09	-2.906058e+01	-7.894775e+01
8.400000e-07	-4.143494e-06	-1.163532e-09	-2.884698e+01	-7.885721e+01
8.500000e-07	-4.112446e-06	-1.168086e-09	-2.863083e+01	-7.876237e+01
8.600000e-07	-4.081190e-06	-1.174918e-09	-2.841322e+01	-7.866319e+01
8.700000e-07	-4.049721e-06	-1.166191e-09	-2.819413e+01	-7.855965e+01
8.800000e-07	-4.018045e-06	-1.155540e-09	-2.797361e+01	-7.845177e+01
8.900000e-07	-3.986265e-06	-1.153342e-09	-2.775235e+01	-7.833957e+01
9.000000e-07	-3.954229e-06	-1.146873e-09	-2.752932e+01	-7.822310e+01
9.100000e-07	-3.921818e-06	-1.142794e-09	-2.730368e+01	-7.810243e+01
9.200000e-07	-3.889044e-06	-1.147265e-09	-2.707550e+01	-7.797765e+01
9.300000e-07	-3.855869e-06	-1.149351e-09	-2.684454e+01	-7.784884e+01
9.400000e-07	-3.822166e-06	-1.142618e-09	-2.660990e+01	-7.771613e+01
9.500000e-07	-3.787997e-06	-1.140736e-09	-2.637202e+01	-7.757964e+01
9.600000e-07	-3.753516e-06	-1.137903e-09	-2.613196e+01	-7.743950e+01
9.700000e-07	-3.718711e-06	-1.129128e-09	-2.588965e+01	-7.729584e+01
9.800000e-07	-3.683561e-06	-1.124414e-09	-2.564493e+01	-7.714882e+01
9.900000e-07	-3.648211e-06	-1.129308e-09	-2.539882e+01	-7.699857e+01
1.000000e-06	-3.612732e-06	-1.131033e-09	-2.515182e+01	-7.684525e+01
1.010000e-06	-3.576981e-06	-1.127370e-09	-2.490293e+01	-7.668898e+01
1.020000e-06	-3.541019e-06	-1.127512e-09	-2.465256e+01	-7.652991e+01
1.030000e-06	-3.504912e-06	-1.126403e-09	-2.440118e+01	-7.636816e+01
1.040000e-06	-3.468650e-06	-1.118673e-09	-2.414872e+01	-7.620384e+01
1.050000e-06	-3.432168e-06	-1.114146e-09	-2.389473e+01	-7.603706e+01
1.060000e-06	-3.395463e-06	-1.112252e-09	-2.363919e+01	-7.586791e+01
1.070000e-06	-3.358483e-06	-1.105348e-09	-2.338174e+01	-7.569646e+01
1.080000e-06	-3.321195e-06	-1.099937e-09	-2.312214e+01	-7.552277e+01
1.090000e-06	-3.283718e-06	-1.099424e-09	-2.286122e+01	-7.534687e+01
1.100000e-06	-3.246078e-06	-1.097318e-09	-2.259918e+01	-7.516877e+01
1.110000e-06	-3.208158e-06	-1.093286e-09	-2.233518e+01	-7.498848e+01
1.120000e-06	-3.169884e-06	-1.089096e-09	-2.206871e+01	-7.480596e+01
1.130000e-06	-3.131426e-06	-1.082334e-09	-2.180097e+01	-7.462117e+01
1.140000e-06	-3.092772e-06	-1.075358e-09	-2.153186e+01	-7.443404e+01
1.150000e-06	-3.053898e-06	-1.074330e-09	-2.126123e+01	-7.424447e+01
1.160000e-06	-3.014857e-06	-1.075621e-09	-2.098942e+01	-7.405235e+01
1.170000e-06	-2.975649e-06	-1.073265e-09	-2.071646e+01	-7.385755e+01
1.180000e-06	-2.936269e-06	-1.070430e-09	-2.044229e+01	-7.365992e+01
1.190000e-06	-2.896663e-06	-1.069005e-09	-2.016655e+01	-7.345928e+01
1.200000e-06	-2.856888e-06	-1.064410e-09	-1.988964e+01	-7.325544e+01
1.210000e-06	-2.817050e-06	-1.056212e-09	-1.961229e+01	-7.304820e+01
1.220000e-06	-2.777098e-06	-1.050267e-09	-1.933414e+01	-7.283735e+01
1.230000e-06	-2.736990e-06	-1.046235e-09	-1.905491e+01	-7.262264e+01
1.240000e-06	-2.696670e-06	-1.043415e-09	-1.877421e+01	-7.240385e+01
1.250000e-06	-2.656199e-06	-1.042018e-09	-1.849244e+01	-7.218071e+01
1.260000e-06	-2.615582e-06	-1.041530e-09	-1.820967e+01	-7.195297e+01
1.270000e-06	-2.574701e-06	-1.036414e-09	-1.792505e+01	-7.172037e+01
1.280000e-06	-2.533522e-06	-1.026619e-09	-1.763837e+01	-7.148264e+01
1.290000e-06	-2.492006e-06	-1.020444e-09	-1.734934e+01	-7.123951e+01
1.300000e-06	-2.450157e-06	-1.018453e-09	-1.705798e+01	-7.099072e+01
1.310000e-06	-2.407999e-06	-1.014700e-09	-1.676448e+01	-7.073599e+01
1.320000e-06	-2.365567e-06	-1.010547e-09	-1.646906e+01	-7.047507e+01
1.330000e-06	-2.322923e-06	-1.006698e-09	-1.617218e+01	-7.020768e+01
1.340000e-06	-2.280035e-06	-1.001674e-09	-1.587359e+01	-6.993358e+01
1.350000e-06	-2.236867e-06	-9.975094e-10	-1.557306e+01	-6.965250e+01
1.360000e-06	-2.193561e-06	-9.957237e-10	-1.527156e+01	-6.936420e+01
1.370000e-06	-2.150109e-06	-9.924450e-10	-1.496905e+01	-6.906844e+01
1.380000e-06	-2.106508e-06	-9.863929e-10	-1.466550e+01	-6.876497e+01
1.390000e-06	-2.062850e-06	-9.792886e-10	-1.436155e+01	-6.845356e+01
1.400000e-06	-2.019113e-06	-9.725311e-10	-1.405705e+01	-6.813397e+01
1.410000e-06	-1.975261e-06	-9.653429e-10	-1.375176e+01	-6.780597e+01
1.420000e-06	-1.931379e-06	-9.574812e-10	-1.344625e+01	-6.746933e+01
1.430000e-06	-1.887457e-06	-9.505426e-10	-1.314047e+01	-6.712381e+01
1.440000e-06	-1.843397e-06	-9.436414e-10	-1.283372e+01	-6.676918e+01
1.450000e-06	-1.799172e-06	-9.381257e-10	-1.252583e+01	-6.640519e+01
1.460000e-06	-1.754768e-06	-9.337303e-10	-1.221668e+01	-6.603159e+01
1.470000e-06	-1.710291e-06	-9.266738e-10	-1.190704e+01	-6.564812e+01
1.480000e-06	-1.665740e-06	-9.176420e-10	-1.159687e+01	-6.525449e+01
1.490000e-06	-1.621081e-06	-9.098577e-10	-1.128596e+01	-6.485042e+01
1.500000e-06	-1.576286e-06	-9.005671e-10	-1.097410e+01	-6.443558e+01
1.510000e-06	-1.531371e-06	-8.896770e-10	-1.066139e+01	-6.400965e+01
1.520000e-06	-1.486349e-06	-8.822824e-10	-1.034795e+01	-6.357227e+01
1.530000e-06	-1.441210e-06	-8.790017e-10	-1.003370e+01	-6.312304e+01
1.540000e-06	-1.395951e-06	-8.757086e-10	-9.718605e+00	-6.266155e+01
1.550000e-06	-1.350536e-06	-8.709866e-10	-9.402428e+00	-6.218734e+01
1.560000e-06	-1.305037e-06	-8.604315e-10	-9.085659e+00	-6.169992e+01
1.570000e-06	-1.259460e-06	-8.451821e-10	-8.768355e+00	-6.119878e+01
1.580000e-06	-1.213795e-06	-8.322525e-10	-8.450436e+00	-6.068335e+01
1.590000e-06	-1.168037e-06	-8.194250e-10	-8.131867e+00	-6.015303e+01
1.600000e-06	-1.122113e-06	-8.068533e-10	-7.812148e+00	-5.960717e+01
1.610000e-06	-1.076151e-06	-7.980663e-10	-7.492156e+00	-5.904510e+01
1.620000e-06	-1.030152e-06	-7.912614e-10	-7.171915e+00	-5.846609e+01
1.630000e-06	-9.841419e-07	-7.840711e-10	-6.851591e+00	-5.786937e+01
1.640000e-06	-9.381396e-07	-7.747394e-10	-6.531323e+00	-5.725415e+01
1.650000e-06	-8.919416e-07	-7.632118e-10	-6.209693e+00	-5.661959e+01
1.660000e-06	-8.457088e-07	-7.497643e-10	-5.887821e+00	-5.596480e+01
1.670000e-06	-7.994397e-07	-7.354077e-10	-5.565695e+00	-5.528890e+01
1.680000e-06	-7.530842e-07	-7.241403e-10	-5.242968e+00	-5.459094e+01
1.690000e-06	-7.066876e-07	-7.160031e-10	-4.919955e+00	-5.386996e+01
1.700000e-06	-6.602045e-07	-7.056362e-10	-4.596340e+00	-5.312500e+01
1.710000e-06	-6.137043e-07	-6.914519e-10	-4.272606e+00	-5.235507e+01
1.720000e-06	-5.671803e-07	-6.768344e-10	-3.948706e+00	-5.155916e+01
1.730000e-06	-5.206342e-07	-6.634449e-10	-3.624653e+00	-5.073627e+01
1.740000e-06	-4.740066e-07	-6.531094e-10	-3.300032e+00	-4.988542e+01
1.750000e-06	-4.273787e-07	-6.439812e-10	-2.975408e+00	-4.900561e+01
1.760000e-06	-3.807474e-07	-6.309249e-10	-2.650762e+00	-4.809589e+01
1.770000e-06	-3.340111e-07	-6.155212e-10	-2.325384e+00	-4.715531e+01
1.780000e-06	-2.872623e-07	-6.020247e-10	-1.999918e+00	-4.618298e+01
1.790000e-06	-2.405124e-07	-5.905378e-10	-1.674446e+00	-4.517803e+01
1.800000e-06	-1.937574e-07	-5.780744e-10	-1.348938e+00	-4.413967e+01
1.810000e-06	-1.470031e-07	-5.640839e-10	-1.023435e+00	-4.306714e+01
1.820000e-06	-1.002773e-07	-5.491609e-10	-6.981300e-01	-4.195976e+01
1.830000e-06	-5.360699e-08	-5.343713e-10	-3.732116e-01	-4.081695e+01
1.840000e-06	-6.931620e-09	-5.186287e-10	-4.825790e-02	-3.963817e+01
1.850000e-06	3.984377e-08	-5.012847e-10	2.773921e-01	-3.842300e+01
1.860000e-06	8.663124e-08	-4.859837e-10	6.031262e-01	-3.717112e+01
1.870000e-06	1.332768e-07	-4.708421e-10	9.278724e-01	-3.588232e+01
1.880000e-06	1.798918e-07	-4.544848e-10	1.252406e+00	-3.455648e+01
1.890000e-06	2.266033e-07	-4.356127e-10	1.577611e+00	-3.319363e+01
1.900000e-06	2.733097e-07	-4.125045e-10	1.902781e+00	-3.179390e+01
1.910000e-06	3.199724e-07	-3.891350e-10	2.227647e+00	-3.035757e+01
1.920000e-06	3.666885e-07	-3.669505e-10	2.552884e+00	-2.888504e+01
1.930000e-06	4.134000e-07	-3.466813e-10	2.878089e+00	-2.737684e+01
1.940000e-06	4.600528e-07	-3.281682e-10	3.202885e+00	-2.583366e+01
1.950000e-06	5.066140e-07	-3.104159e-10	3.527044e+00	-2.425631e+01
1.960000e-06	5.531160e-07	-2.896672e-10	3.850791e+00	-2.264576e+01
1.970000e-06	5.995754e-07	-2.647929e-10	4.174241e+00	-2.100310e+01
1.980000e-06	6.459453e-07	-2.388056e-10	4.497068e+00	-1.932957e+01
1.990000e-06	6.922664e-07	-2.106571e-10	4.819555e+00	-1.762655e+01
2.000000e-06	7.385431e-07	-1.830964e-10	5.141734e+00	-1.589555e+01
2.010000e-06	7.847557e-07	-1.584489e-10	5.463465e+00	-1.413820e+01
2.020000e-06	8.309541e-07	-1.353318e-10	5.785098e+00	-1.235626e+01
2.030000e-06	8.771148e-07	-1.106588e-10	6.106469e+00	-1.055160e+01
2.040000e-06	9.231190e-07	-8.216454e-11	6.426750e+00	-8.726227e+00
2.050000e-06	9.690735e-07	-5.663226e-11	6.746685e+00	-6.882213e+00
2.060000e-06	1.014970e-06	-3.041299e-11	7.066213e+00	-5.021745e+00
2.070000e-06	1.060835e-06	-3.505294e-12	7.385531e+00	-3.147092e+00
2.080000e-06	1.106701e-06	2.162060e-11	7.704846e+00	-1.260593e+00
2.090000e-06	1.152502e-06	4.644374e-11	8.023711e+00	6.353478e-01
2.100000e-06	1.198209e-06	7.347253e-11	8.341923e+00	2.538273e+00
2.110000e-06	1.243745e-06	1.037420e-10	8.658949e+00	4.445686e+00
2.120000e-06	1.289205e-06	1.321881e-10	8.975440e+00	6.355061e+00
2.130000e-06	1.334594e-06	1.603199e-10	9.291434e+00	8.263857e+00
2.140000e-06	1.379864e-06	1.854850e-10	9.606605e+00	1.016953e+01
2.150000e-06	1.424995e-06	2.089251e-10	9.920808e+00	1.206953e+01
2.160000e-06	1.470067e-06	2.332230e-10	1.023460e+01	1.396136e+01
2.170000e-06	1.515123e-06	2.574977e-10	1.054828e+01	1.584252e+01
2.180000e-06	1.560023e-06	2.841747e-10	1.086087e+01	1.771058e+01
2.190000e-06	1.604794e-06	3.127159e-10	1.117257e+01	1.956316e+01
2.200000e-06	1.649469e-06	3.395648e-10	1.148359e+01	2.139794e+01
2.210000e-06	1.693980e-06	3.649945e-10	1.179348e+01	2.321269e+01
2.220000e-06	1.738331e-06	3.882945e-10	1.210225e+01	2.500526e+01
2.230000e-06	1.782547e-06	4.103984e-10	1.241008e+01	2.677362e+01
2.240000e-06	1.826632e-06	4.289814e-10	1.271700e+01	2.851582e+01
2.250000e-06	1.870654e-06	4.470995e-10	1.302349e+01	3.023005e+01
2.260000e-06	1.914561e-06	4.659998e-10	1.332916e+01	3.191460e+01
2.270000e-06	1.958324e-06	4.870131e-10	1.363384e+01	3.356791e+01
2.280000e-06	2.002055e-06	5.096450e-10	1.393830e+01	3.518856e+01
2.290000e-06	2.045742e-06	5.334134e-10	1.424245e+01	3.677525e+01
2.300000e-06	2.089357e-06	5.565876e-10	1.454609e+01	3.832683e+01
2.310000e-06	2.132931e-06	5.781779e-10	1.484945e+01	3.984230e+01
2.320000e-06	2.176427e-06	5.963668e-10	1.515227e+01	4.132082e+01
2.330000e-06	2.219799e-06	6.092808e-10	1.545423e+01	4.276168e+01
2.340000e-06	2.262986e-06	6.230808e-10	1.575490e+01	4.416431e+01
2.350000e-06	2.305952e-06	6.410184e-10	1.605402e+01	4.552831e+01
2.360000e-06	2.348704e-06	6.612935e-10	1.635166e+01	4.685342e+01
2.370000e-06	2.391249e-06	6.807177e-10	1.664786e+01	4.813951e+01
2.380000e-06	2.433508e-06	7.000410e-10	1.694207e+01	4.938658e+01
2.390000e-06	2.475442e-06	7.171001e-10	1.723401e+01	5.059479e+01
2.400000e-06	2.517059e-06	7.326630e-10	1.752375e+01	5.176438e+01
2.410000e-06	2.558345e-06	7.471700e-10	1.781118e+01	5.289576e+01
2.420000e-06	2.599375e-06	7.582989e-10	1.809684e+01	5.398941e+01
2.430000e-06	2.640091e-06	7.692885e-10	1.838030e+01	5.504593e+01
2.440000e-06	2.680528e-06	7.835153e-10	1.866182e+01	5.606602e+01
2.450000e-06	2.720761e-06	8.004768e-10	1.894192e+01	5.705046e+01
2.460000e-06	2.760806e-06	8.182476e-10	1.922071e+01	5.800010e+01
2.470000e-06	2.800754e-06	8.336298e-10	1.949883e+01	5.891586e+01
2.480000e-06	2.840587e-06	8.467154e-10	1.977616e+01	5.979874e+01
2.490000e-06	2.880283e-06	8.584012e-10	2.005251e+01	6.064977e+01
2.500000e-06	2.919960e-06	8.681849e-10	2.032875e+01	6.147001e+01
2.510000e-06	2.959561e-06	8.767064e-10	2.060445e+01	6.226057e+01
2.520000e-06	2.998866e-06	8.857295e-10	2.087809e+01	6.302257e+01
2.530000e-06	3.037899e-06	8.960905e-10	2.114984e+01	6.375714e+01
2.540000e-06	3.076704e-06	9.128588e-10	2.142000e+01	6.446543e+01
2.550000e-06	3.115199e-06	9.275206e-10	2.168800e+01	6.514856e+01
2.560000e-06	3.153456e-06	9.361929e-10	2.195434e+01	6.580765e+01
2.570000e-06	3.191561e-06	9.407871e-10	2.221963e+01	6.644380e+01
2.580000e-06	3.229493e-06	9.430600e-10	2.248371e+01	6.705808e+01
2.590000e-06	3.267212e-06	9.445699e-10	2.274631e+01	6.765153e+01
2.600000e-06	3.304722e-06	9.519528e-10	2.300746e+01	6.822515e+01
2.610000e-06	3.342027e-06	9.669758e-10	2.326717e+01	6.877989e+01
2.620000e-06	3.379083e-06	9.853975e-10	2.352516e+01	6.931666e+01
2.630000e-06	3.415921e-06	9.984029e-10	2.378162e+01	6.983632e+01
2.640000e-06	3.452457e-06	1.007516e-09	2.403599e+01	7.033966e+01
2.650000e-06	3.488626e-06	1.015081e-09	2.428780e+01	7.082744e+01
2.660000e-06	3.524578e-06	1.016396e-09	2.453809e+01	7.130034e+01
2.670000e-06	3.560414e-06	1.015991e-09	2.478758e+01	7.175898e+01
2.680000e-06	3.596180e-06	1.017191e-09	2.503658e+01	7.220396e+01
2.690000e-06	3.631871e-06	1.025574e-09	2.528506e+01	7.263577e+01
2.700000e-06	3.667379e-06	1.037948e-09	2.553227e+01	7.305489e+01
2.710000e-06	3.702610e-06	1.049017e-09	2.577755e+01	7.346170e+01
2.720000e-06	3.737604e-06	1.057255e-09	2.602118e+01	7.385658e+01
2.730000e-06	3.772301e-06	1.060764e-09	2.626274e+01	7.423982e+01
2.740000e-06	3.806573e-06	1.060258e-09	2.650134e+01	7.461169e+01
2.750000e-06	3.840358e-06	1.058662e-09	2.673655e+01	7.497239e+01
2.760000e-06	3.873649e-06	1.059805e-09	2.696833e+01	7.532212e+01
2.770000e-06	3.906539e-06	1.067692e-09	2.719730e+01	7.566102e+01
2.780000e-06	3.939009e-06	1.078783e-09	2.742336e+01	7.598920e+01
2.790000e-06	3.971117e-06	1.090711e-09	2.764690e+01	7.630675e+01
2.800000e-06	4.003016e-06	1.100958e-09	2.786897e+01	7.661376e+01
2.810000e-06	4.034777e-06	1.107160e-09	2.809010e+01	7.691028e+01
2.820000e-06	4.066393e-06	1.106421e-09	2.831021e+01	7.719635e+01
2.830000e-06	4.097752e-06	1.104584e-09	2.852853e+01	7.747202e+01
2.840000e-06	4.128895e-06	1.104757e-09	2.874535e+01	7.773731e+01
2.850000e-06	4.159817e-06	1.108358e-09	2.896062e+01	7.799228e+01
2.860000e-06	4.190315e-06	1.115728e-09	2.917295e+01	7.823697e+01
2.870000e-06	4.220437e-06	1.124603e-09	2.938266e+01	7.847142e+01
2.880000e-06	4.250369e-06	1.130973e-09	2.959105e+01	7.869572e+01
2.890000e-06	4.280067e-06	1.133354e-09	2.979780e+01	7.890994e+01
2.900000e-06	4.309523e-06	1.134655e-09	3.000288e+01	7.911419e+01
