# Temperatura_=_6.55
# Concentracion g/m^3_=_1620.0
# C_Vs_to_Am_M_A/Vsm_=_65563218390.804596
# pendiente_HvsI_1/m_=_3716.3
# ordenada_HvsI_A/m_=_1297.0
# frecuencia_Hz_=_135108.77426034558

Tiempo_(s)	Campo_(V.s)	Magnetizacion_(V.s)	Campo_(kA/m)	Magnetizacion_(A/m)
0.000000e+00	-5.531698e-06	-1.620347e-09	-3.836328e+01	-1.060051e+02
1.000000e-08	-5.531868e-06	-1.618926e-09	-3.836446e+01	-1.059942e+02
2.000000e-08	-5.531775e-06	-1.617829e-09	-3.836381e+01	-1.059846e+02
3.000000e-08	-5.531232e-06	-1.618677e-09	-3.836004e+01	-1.059761e+02
4.000000e-08	-5.530120e-06	-1.618803e-09	-3.835233e+01	-1.059683e+02
5.000000e-08	-5.528476e-06	-1.613364e-09	-3.834093e+01	-1.059608e+02
6.000000e-08	-5.526257e-06	-1.604282e-09	-3.832554e+01	-1.059533e+02
7.000000e-08	-5.523496e-06	-1.608645e-09	-3.830639e+01	-1.059453e+02
8.000000e-08	-5.520264e-06	-1.648733e-09	-3.828398e+01	-1.059364e+02
9.000000e-08	-5.516570e-06	-1.656477e-09	-3.825836e+01	-1.059261e+02
1.000000e-07	-5.512471e-06	-1.599714e-09	-3.822993e+01	-1.059140e+02
1.100000e-07	-5.508061e-06	-1.571215e-09	-3.819935e+01	-1.058997e+02
1.200000e-07	-5.503425e-06	-1.616677e-09	-3.816720e+01	-1.058826e+02
1.300000e-07	-5.498443e-06	-1.619838e-09	-3.813265e+01	-1.058623e+02
1.400000e-07	-5.493132e-06	-1.595868e-09	-3.809581e+01	-1.058383e+02
1.500000e-07	-5.487520e-06	-1.581067e-09	-3.805689e+01	-1.058102e+02
1.600000e-07	-5.481546e-06	-1.656956e-09	-3.801546e+01	-1.057776e+02
1.700000e-07	-5.475051e-06	-1.611673e-09	-3.797042e+01	-1.057401e+02
1.800000e-07	-5.468107e-06	-1.546687e-09	-3.792226e+01	-1.056974e+02
1.900000e-07	-5.460901e-06	-1.532287e-09	-3.787229e+01	-1.056490e+02
2.000000e-07	-5.453421e-06	-1.610110e-09	-3.782041e+01	-1.055948e+02
2.100000e-07	-5.445597e-06	-1.625281e-09	-3.776615e+01	-1.055343e+02
2.200000e-07	-5.437386e-06	-1.600581e-09	-3.770921e+01	-1.054675e+02
2.300000e-07	-5.428865e-06	-1.594081e-09	-3.765011e+01	-1.053941e+02
2.400000e-07	-5.419996e-06	-1.609560e-09	-3.758861e+01	-1.053140e+02
2.500000e-07	-5.410474e-06	-1.606347e-09	-3.752257e+01	-1.052270e+02
2.600000e-07	-5.400294e-06	-1.575601e-09	-3.745197e+01	-1.051332e+02
2.700000e-07	-5.389614e-06	-1.580477e-09	-3.737790e+01	-1.050325e+02
2.800000e-07	-5.378404e-06	-1.591187e-09	-3.730016e+01	-1.049250e+02
2.900000e-07	-5.366743e-06	-1.604966e-09	-3.721929e+01	-1.048107e+02
3.000000e-07	-5.354720e-06	-1.561742e-09	-3.713590e+01	-1.046898e+02
3.100000e-07	-5.342302e-06	-1.573323e-09	-3.704978e+01	-1.045623e+02
3.200000e-07	-5.329357e-06	-1.574747e-09	-3.696001e+01	-1.044286e+02
3.300000e-07	-5.315987e-06	-1.592365e-09	-3.686729e+01	-1.042888e+02
3.400000e-07	-5.302367e-06	-1.539215e-09	-3.677283e+01	-1.041431e+02
3.500000e-07	-5.288425e-06	-1.549511e-09	-3.667613e+01	-1.039919e+02
3.600000e-07	-5.274041e-06	-1.570821e-09	-3.657638e+01	-1.038355e+02
3.700000e-07	-5.259141e-06	-1.579071e-09	-3.647305e+01	-1.036742e+02
3.800000e-07	-5.243614e-06	-1.526352e-09	-3.636536e+01	-1.035082e+02
3.900000e-07	-5.227520e-06	-1.554037e-09	-3.625375e+01	-1.033381e+02
4.000000e-07	-5.211027e-06	-1.575129e-09	-3.613937e+01	-1.031640e+02
4.100000e-07	-5.194239e-06	-1.534867e-09	-3.602294e+01	-1.029865e+02
4.200000e-07	-5.177022e-06	-1.515342e-09	-3.590354e+01	-1.028058e+02
4.300000e-07	-5.159402e-06	-1.574487e-09	-3.578134e+01	-1.026223e+02
4.400000e-07	-5.141534e-06	-1.553842e-09	-3.565742e+01	-1.024363e+02
4.500000e-07	-5.123246e-06	-1.499748e-09	-3.553059e+01	-1.022481e+02
4.600000e-07	-5.104525e-06	-1.545284e-09	-3.540076e+01	-1.020581e+02
4.700000e-07	-5.085518e-06	-1.571939e-09	-3.526894e+01	-1.018665e+02
4.800000e-07	-5.066239e-06	-1.509202e-09	-3.513524e+01	-1.016736e+02
4.900000e-07	-5.046747e-06	-1.510948e-09	-3.500006e+01	-1.014797e+02
5.000000e-07	-5.027099e-06	-1.558243e-09	-3.486379e+01	-1.012848e+02
5.100000e-07	-5.007224e-06	-1.503809e-09	-3.472596e+01	-1.010893e+02
5.200000e-07	-4.986954e-06	-1.487544e-09	-3.458538e+01	-1.008932e+02
5.300000e-07	-4.966245e-06	-1.554040e-09	-3.444176e+01	-1.006967e+02
5.400000e-07	-4.945165e-06	-1.540851e-09	-3.429557e+01	-1.004997e+02
5.500000e-07	-4.923725e-06	-1.477384e-09	-3.414688e+01	-1.003025e+02
5.600000e-07	-4.901909e-06	-1.532454e-09	-3.399558e+01	-1.001048e+02
5.700000e-07	-4.879843e-06	-1.549307e-09	-3.384255e+01	-9.990684e+01
5.800000e-07	-4.857509e-06	-1.485227e-09	-3.368766e+01	-9.970840e+01
5.900000e-07	-4.834733e-06	-1.486104e-09	-3.352971e+01	-9.950942e+01
6.000000e-07	-4.811587e-06	-1.531088e-09	-3.336918e+01	-9.930978e+01
6.100000e-07	-4.788124e-06	-1.480980e-09	-3.320647e+01	-9.910932e+01
6.200000e-07	-4.764476e-06	-1.468607e-09	-3.304246e+01	-9.890786e+01
6.300000e-07	-4.740650e-06	-1.508723e-09	-3.287722e+01	-9.870521e+01
6.400000e-07	-4.716515e-06	-1.499106e-09	-3.270984e+01	-9.850113e+01
6.500000e-07	-4.692059e-06	-1.466385e-09	-3.254023e+01	-9.829540e+01
6.600000e-07	-4.667075e-06	-1.494282e-09	-3.236697e+01	-9.808775e+01
6.700000e-07	-4.641451e-06	-1.485821e-09	-3.218926e+01	-9.787794e+01
6.800000e-07	-4.615319e-06	-1.453394e-09	-3.200803e+01	-9.766570e+01
6.900000e-07	-4.588712e-06	-1.456170e-09	-3.182351e+01	-9.745074e+01
7.000000e-07	-4.561691e-06	-1.464400e-09	-3.163611e+01	-9.723280e+01
7.100000e-07	-4.534345e-06	-1.441873e-09	-3.144646e+01	-9.701162e+01
7.200000e-07	-4.506798e-06	-1.450620e-09	-3.125542e+01	-9.678693e+01
7.300000e-07	-4.479100e-06	-1.466914e-09	-3.106333e+01	-9.655847e+01
7.400000e-07	-4.451158e-06	-1.453696e-09	-3.086955e+01	-9.632601e+01
7.500000e-07	-4.422954e-06	-1.438964e-09	-3.067395e+01	-9.608932e+01
7.600000e-07	-4.394449e-06	-1.441749e-09	-3.047626e+01	-9.584819e+01
7.700000e-07	-4.365637e-06	-1.431711e-09	-3.027644e+01	-9.560244e+01
7.800000e-07	-4.336563e-06	-1.415867e-09	-3.007481e+01	-9.535188e+01
7.900000e-07	-4.307250e-06	-1.420614e-09	-2.987152e+01	-9.509637e+01
8.000000e-07	-4.277693e-06	-1.419558e-09	-2.966653e+01	-9.483579e+01
8.100000e-07	-4.247806e-06	-1.410905e-09	-2.945927e+01	-9.457003e+01
8.200000e-07	-4.217585e-06	-1.408840e-09	-2.924968e+01	-9.429901e+01
8.300000e-07	-4.187032e-06	-1.409389e-09	-2.903779e+01	-9.402268e+01
8.400000e-07	-4.156184e-06	-1.394191e-09	-2.882385e+01	-9.374100e+01
8.500000e-07	-4.125056e-06	-1.394174e-09	-2.860797e+01	-9.345397e+01
8.600000e-07	-4.093664e-06	-1.398370e-09	-2.839027e+01	-9.316159e+01
8.700000e-07	-4.062076e-06	-1.389148e-09	-2.817119e+01	-9.286390e+01
8.800000e-07	-4.030310e-06	-1.373530e-09	-2.795089e+01	-9.256095e+01
8.900000e-07	-3.998429e-06	-1.374159e-09	-2.772979e+01	-9.225280e+01
9.000000e-07	-3.966363e-06	-1.363225e-09	-2.750741e+01	-9.193954e+01
9.100000e-07	-3.933945e-06	-1.352249e-09	-2.728259e+01	-9.162127e+01
9.200000e-07	-3.901116e-06	-1.350833e-09	-2.705491e+01	-9.129808e+01
9.300000e-07	-3.867873e-06	-1.350666e-09	-2.682436e+01	-9.097010e+01
9.400000e-07	-3.834184e-06	-1.337442e-09	-2.659073e+01	-9.063743e+01
9.500000e-07	-3.800035e-06	-1.336316e-09	-2.635389e+01	-9.030020e+01
9.600000e-07	-3.765432e-06	-1.333088e-09	-2.611392e+01	-8.995854e+01
9.700000e-07	-3.730441e-06	-1.319877e-09	-2.587125e+01	-8.961257e+01
9.800000e-07	-3.695169e-06	-1.308763e-09	-2.562664e+01	-8.926239e+01
9.900000e-07	-3.659704e-06	-1.309667e-09	-2.538067e+01	-8.890812e+01
1.000000e-06	-3.624101e-06	-1.302294e-09	-2.513377e+01	-8.854987e+01
1.010000e-06	-3.588343e-06	-1.292533e-09	-2.488577e+01	-8.818771e+01
1.020000e-06	-3.552443e-06	-1.291369e-09	-2.463681e+01	-8.782174e+01
1.030000e-06	-3.516359e-06	-1.286623e-09	-2.438656e+01	-8.745202e+01
1.040000e-06	-3.479996e-06	-1.274989e-09	-2.413437e+01	-8.707859e+01
1.050000e-06	-3.443363e-06	-1.270874e-09	-2.388032e+01	-8.670150e+01
1.060000e-06	-3.406451e-06	-1.268091e-09	-2.362432e+01	-8.632076e+01
1.070000e-06	-3.369305e-06	-1.256164e-09	-2.336671e+01	-8.593638e+01
1.080000e-06	-3.331923e-06	-1.246677e-09	-2.310746e+01	-8.554834e+01
1.090000e-06	-3.294318e-06	-1.240337e-09	-2.284666e+01	-8.515661e+01
1.100000e-06	-3.256536e-06	-1.230396e-09	-2.258463e+01	-8.476115e+01
1.110000e-06	-3.218470e-06	-1.218271e-09	-2.232064e+01	-8.436190e+01
1.120000e-06	-3.180113e-06	-1.213914e-09	-2.205463e+01	-8.395879e+01
1.130000e-06	-3.141571e-06	-1.207801e-09	-2.178734e+01	-8.355172e+01
1.140000e-06	-3.102887e-06	-1.202666e-09	-2.151906e+01	-8.314060e+01
1.150000e-06	-3.063977e-06	-1.202254e-09	-2.124921e+01	-8.272531e+01
1.160000e-06	-3.024867e-06	-1.201144e-09	-2.097797e+01	-8.230575e+01
1.170000e-06	-2.985556e-06	-1.188596e-09	-2.070534e+01	-8.188179e+01
1.180000e-06	-2.946036e-06	-1.179613e-09	-2.043127e+01	-8.145330e+01
1.190000e-06	-2.906371e-06	-1.174409e-09	-2.015618e+01	-8.102015e+01
1.200000e-06	-2.866573e-06	-1.166746e-09	-1.988018e+01	-8.058221e+01
1.210000e-06	-2.826662e-06	-1.156373e-09	-1.960338e+01	-8.013934e+01
1.220000e-06	-2.786630e-06	-1.152841e-09	-1.932576e+01	-7.969142e+01
1.230000e-06	-2.746429e-06	-1.148246e-09	-1.904696e+01	-7.923832e+01
1.240000e-06	-2.706013e-06	-1.138858e-09	-1.876666e+01	-7.877992e+01
1.250000e-06	-2.665365e-06	-1.128952e-09	-1.848476e+01	-7.831610e+01
1.260000e-06	-2.624404e-06	-1.123352e-09	-1.820070e+01	-7.784677e+01
1.270000e-06	-2.583192e-06	-1.117116e-09	-1.791488e+01	-7.737180e+01
1.280000e-06	-2.541665e-06	-1.109928e-09	-1.762688e+01	-7.689112e+01
1.290000e-06	-2.499755e-06	-1.102876e-09	-1.733623e+01	-7.640463e+01
1.300000e-06	-2.457644e-06	-1.094731e-09	-1.704419e+01	-7.591225e+01
1.310000e-06	-2.415291e-06	-1.084434e-09	-1.675046e+01	-7.541392e+01
1.320000e-06	-2.372645e-06	-1.074789e-09	-1.645470e+01	-7.490955e+01
1.330000e-06	-2.329765e-06	-1.065538e-09	-1.615732e+01	-7.439909e+01
1.340000e-06	-2.286615e-06	-1.057894e-09	-1.585807e+01	-7.388246e+01
1.350000e-06	-2.243310e-06	-1.053774e-09	-1.555774e+01	-7.335960e+01
1.360000e-06	-2.199914e-06	-1.050736e-09	-1.525679e+01	-7.283044e+01
1.370000e-06	-2.156350e-06	-1.044563e-09	-1.495466e+01	-7.229490e+01
1.380000e-06	-2.112632e-06	-1.034662e-09	-1.465147e+01	-7.175289e+01
1.390000e-06	-2.068868e-06	-1.023359e-09	-1.434796e+01	-7.120430e+01
1.400000e-06	-2.025092e-06	-1.009147e-09	-1.404436e+01	-7.064902e+01
1.410000e-06	-1.981220e-06	-9.957257e-10	-1.374010e+01	-7.008690e+01
1.420000e-06	-1.937236e-06	-9.861683e-10	-1.343506e+01	-6.951778e+01
1.430000e-06	-1.893176e-06	-9.792790e-10	-1.312950e+01	-6.894145e+01
1.440000e-06	-1.849017e-06	-9.727173e-10	-1.282325e+01	-6.835768e+01
1.450000e-06	-1.804724e-06	-9.659113e-10	-1.251607e+01	-6.776621e+01
1.460000e-06	-1.760236e-06	-9.559136e-10	-1.220754e+01	-6.716672e+01
1.470000e-06	-1.715601e-06	-9.429761e-10	-1.189799e+01	-6.655885e+01
1.480000e-06	-1.670897e-06	-9.284425e-10	-1.158796e+01	-6.594220e+01
1.490000e-06	-1.626055e-06	-9.161959e-10	-1.127697e+01	-6.531630e+01
1.500000e-06	-1.581047e-06	-9.029162e-10	-1.096484e+01	-6.468065e+01
1.510000e-06	-1.535901e-06	-8.873129e-10	-1.065174e+01	-6.403466e+01
1.520000e-06	-1.490567e-06	-8.729425e-10	-1.033734e+01	-6.337770e+01
1.530000e-06	-1.445071e-06	-8.609851e-10	-1.002182e+01	-6.270909e+01
1.540000e-06	-1.399560e-06	-8.508843e-10	-9.706188e+00	-6.202806e+01
1.550000e-06	-1.354007e-06	-8.465593e-10	-9.390268e+00	-6.133379e+01
1.560000e-06	-1.308381e-06	-8.410171e-10	-9.073847e+00	-6.062540e+01
1.570000e-06	-1.262711e-06	-8.293705e-10	-8.757115e+00	-5.990195e+01
1.580000e-06	-1.216975e-06	-8.116817e-10	-8.439934e+00	-5.916244e+01
1.590000e-06	-1.171150e-06	-7.901711e-10	-8.122125e+00	-5.840581e+01
1.600000e-06	-1.125245e-06	-7.667335e-10	-7.803765e+00	-5.763095e+01
1.610000e-06	-1.079255e-06	-7.503328e-10	-7.484818e+00	-5.683669e+01
1.620000e-06	-1.033213e-06	-7.415250e-10	-7.165509e+00	-5.602184e+01
1.630000e-06	-9.871190e-07	-7.359724e-10	-6.845840e+00	-5.518516e+01
1.640000e-06	-9.408790e-07	-7.305218e-10	-6.525158e+00	-5.432536e+01
1.650000e-06	-8.945877e-07	-7.199031e-10	-6.204120e+00	-5.344115e+01
1.660000e-06	-8.482744e-07	-7.054922e-10	-5.882929e+00	-5.253121e+01
1.670000e-06	-8.018237e-07	-6.873318e-10	-5.560785e+00	-5.159421e+01
1.680000e-06	-7.551853e-07	-6.659671e-10	-5.237340e+00	-5.062884e+01
1.690000e-06	-7.085238e-07	-6.467238e-10	-4.913734e+00	-4.963378e+01
1.700000e-06	-6.619282e-07	-6.305235e-10	-4.590586e+00	-4.860772e+01
1.710000e-06	-6.153207e-07	-6.153681e-10	-4.267355e+00	-4.754940e+01
1.720000e-06	-5.686558e-07	-6.010704e-10	-3.943726e+00	-4.645760e+01
1.730000e-06	-5.219438e-07	-5.864544e-10	-3.619770e+00	-4.533113e+01
1.740000e-06	-4.751613e-07	-5.722751e-10	-3.295325e+00	-4.416889e+01
1.750000e-06	-4.283146e-07	-5.549658e-10	-2.970436e+00	-4.296982e+01
1.760000e-06	-3.815782e-07	-5.325037e-10	-2.646310e+00	-4.173296e+01
1.770000e-06	-3.347921e-07	-5.071597e-10	-2.321841e+00	-4.045746e+01
1.780000e-06	-2.878903e-07	-4.840303e-10	-1.996569e+00	-3.914253e+01
1.790000e-06	-2.409891e-07	-4.660394e-10	-1.671301e+00	-3.778753e+01
1.800000e-06	-1.940513e-07	-4.526825e-10	-1.345779e+00	-3.639192e+01
1.810000e-06	-1.470396e-07	-4.390966e-10	-1.019745e+00	-3.495530e+01
1.820000e-06	-1.000489e-07	-4.228551e-10	-6.938566e-01	-3.347742e+01
1.830000e-06	-5.310468e-08	-4.019212e-10	-3.682901e-01	-3.195814e+01
1.840000e-06	-6.103800e-09	-3.778213e-10	-4.233090e-02	-3.039751e+01
1.850000e-06	4.090611e-08	-3.537140e-10	2.836909e-01	-2.879572e+01
1.860000e-06	8.784932e-08	-3.317304e-10	6.092501e-01	-2.715312e+01
1.870000e-06	1.347707e-07	-3.113199e-10	9.346576e-01	-2.547022e+01
1.880000e-06	1.817161e-07	-2.919356e-10	1.260233e+00	-2.374771e+01
1.890000e-06	2.286833e-07	-2.716161e-10	1.585958e+00	-2.198645e+01
1.900000e-06	2.756333e-07	-2.497101e-10	1.911564e+00	-2.018745e+01
1.910000e-06	3.225250e-07	-2.247210e-10	2.236766e+00	-1.835190e+01
1.920000e-06	3.693895e-07	-1.963901e-10	2.561779e+00	-1.648115e+01
1.930000e-06	4.162532e-07	-1.680300e-10	2.886788e+00	-1.457672e+01
1.940000e-06	4.631128e-07	-1.417832e-10	3.211767e+00	-1.264027e+01
1.950000e-06	5.098680e-07	-1.170834e-10	3.536022e+00	-1.067362e+01
1.960000e-06	5.565427e-07	-9.178990e-11	3.859719e+00	-8.678746e+00
1.970000e-06	6.031943e-07	-6.679225e-11	4.183256e+00	-6.657731e+00
1.980000e-06	6.497750e-07	-4.102433e-11	4.506301e+00	-4.612803e+00
1.990000e-06	6.962810e-07	-1.030152e-11	4.828828e+00	-2.546299e+00
2.000000e-06	7.427484e-07	2.427488e-11	5.151088e+00	-4.606633e-01
2.010000e-06	7.891579e-07	5.764557e-11	5.472946e+00	1.641569e+00
2.020000e-06	8.355295e-07	9.075431e-11	5.794540e+00	3.757783e+00
2.030000e-06	8.818523e-07	1.233360e-10	6.115798e+00	5.885294e+00
2.040000e-06	9.280969e-07	1.529961e-10	6.436512e+00	8.021367e+00
2.050000e-06	9.743271e-07	1.801128e-10	6.757126e+00	1.016323e+01
2.060000e-06	1.020528e-06	2.065496e-10	7.077540e+00	1.230807e+01
2.070000e-06	1.066611e-06	2.331907e-10	7.397133e+00	1.445309e+01
2.080000e-06	1.112548e-06	2.616336e-10	7.715715e+00	1.659548e+01
2.090000e-06	1.158360e-06	2.939670e-10	8.033428e+00	1.873245e+01
2.100000e-06	1.204106e-06	3.287611e-10	8.350685e+00	2.086124e+01
2.110000e-06	1.249784e-06	3.622935e-10	8.667469e+00	2.297915e+01
2.120000e-06	1.295381e-06	3.930171e-10	8.983687e+00	2.508354e+01
2.130000e-06	1.340891e-06	4.212476e-10	9.299307e+00	2.717182e+01
2.140000e-06	1.386291e-06	4.468855e-10	9.614169e+00	2.924151e+01
2.150000e-06	1.431671e-06	4.686964e-10	9.928885e+00	3.129023e+01
2.160000e-06	1.477013e-06	4.902158e-10	1.024334e+01	3.331570e+01
2.170000e-06	1.522223e-06	5.157878e-10	1.055688e+01	3.531576e+01
2.180000e-06	1.567283e-06	5.454890e-10	1.086937e+01	3.728837e+01
2.190000e-06	1.612316e-06	5.761695e-10	1.118169e+01	3.923164e+01
2.200000e-06	1.657236e-06	6.071692e-10	1.149322e+01	4.114383e+01
2.210000e-06	1.701888e-06	6.366083e-10	1.180289e+01	4.302333e+01
2.220000e-06	1.746373e-06	6.616482e-10	1.211140e+01	4.486870e+01
2.230000e-06	1.790669e-06	6.825095e-10	1.241860e+01	4.667864e+01
2.240000e-06	1.834792e-06	7.004239e-10	1.272459e+01	4.845204e+01
2.250000e-06	1.878852e-06	7.181721e-10	1.303016e+01	5.018792e+01
2.260000e-06	1.922841e-06	7.395975e-10	1.333523e+01	5.188548e+01
2.270000e-06	1.966751e-06	7.639584e-10	1.363976e+01	5.354407e+01
2.280000e-06	2.010615e-06	7.893348e-10	1.394396e+01	5.516321e+01
2.290000e-06	2.054394e-06	8.145863e-10	1.424758e+01	5.674256e+01
2.300000e-06	2.098079e-06	8.380582e-10	1.455054e+01	5.828194e+01
2.310000e-06	2.141701e-06	8.576604e-10	1.485306e+01	5.978130e+01
2.320000e-06	2.185271e-06	8.736036e-10	1.515523e+01	6.124074e+01
2.330000e-06	2.228806e-06	8.884153e-10	1.545715e+01	6.266050e+01
2.340000e-06	2.272321e-06	9.031487e-10	1.575894e+01	6.404092e+01
2.350000e-06	2.315670e-06	9.194164e-10	1.605957e+01	6.538246e+01
2.360000e-06	2.358789e-06	9.371157e-10	1.635860e+01	6.668569e+01
2.370000e-06	2.401760e-06	9.565352e-10	1.665662e+01	6.795127e+01
2.380000e-06	2.444437e-06	9.764994e-10	1.695259e+01	6.917995e+01
2.390000e-06	2.486685e-06	9.948379e-10	1.724559e+01	7.037254e+01
2.400000e-06	2.528566e-06	1.010348e-09	1.753604e+01	7.152994e+01
2.410000e-06	2.570129e-06	1.024493e-09	1.782429e+01	7.265308e+01
2.420000e-06	2.611377e-06	1.038146e-09	1.811035e+01	7.374293e+01
2.430000e-06	2.652338e-06	1.051978e-09	1.839442e+01	7.480050e+01
2.440000e-06	2.692935e-06	1.067044e-09	1.867596e+01	7.582684e+01
2.450000e-06	2.733221e-06	1.084016e-09	1.895536e+01	7.682298e+01
2.460000e-06	2.773329e-06	1.100631e-09	1.923351e+01	7.778997e+01
2.470000e-06	2.813283e-06	1.113480e-09	1.951060e+01	7.872885e+01
2.480000e-06	2.853136e-06	1.125049e-09	1.978699e+01	7.964065e+01
2.490000e-06	2.892899e-06	1.135858e-09	2.006275e+01	8.052637e+01
2.500000e-06	2.932563e-06	1.145709e-09	2.033783e+01	8.138699e+01
2.510000e-06	2.972154e-06	1.159015e-09	2.061240e+01	8.222344e+01
2.520000e-06	3.011590e-06	1.170965e-09	2.088589e+01	8.303662e+01
2.530000e-06	3.050821e-06	1.182866e-09	2.115797e+01	8.382740e+01
2.540000e-06	3.089812e-06	1.196478e-09	2.142838e+01	8.459656e+01
2.550000e-06	3.128531e-06	1.207083e-09	2.169690e+01	8.534487e+01
2.560000e-06	3.166975e-06	1.213825e-09	2.196351e+01	8.607303e+01
2.570000e-06	3.205139e-06	1.218266e-09	2.222819e+01	8.678167e+01
2.580000e-06	3.243111e-06	1.224132e-09	2.249153e+01	8.747138e+01
2.590000e-06	3.280920e-06	1.232650e-09	2.275374e+01	8.814269e+01
2.600000e-06	3.318555e-06	1.246070e-09	2.301475e+01	8.879608e+01
2.610000e-06	3.355962e-06	1.262217e-09	2.327417e+01	8.943198e+01
2.620000e-06	3.393165e-06	1.278074e-09	2.353218e+01	9.005076e+01
2.630000e-06	3.430215e-06	1.288345e-09	2.378913e+01	9.065274e+01
2.640000e-06	3.466968e-06	1.292655e-09	2.404402e+01	9.123821e+01
2.650000e-06	3.503356e-06	1.295257e-09	2.429638e+01	9.180742e+01
2.660000e-06	3.539492e-06	1.298498e-09	2.454699e+01	9.236058e+01
2.670000e-06	3.575431e-06	1.304051e-09	2.479623e+01	9.289786e+01
2.680000e-06	3.611248e-06	1.311612e-09	2.504462e+01	9.341941e+01
2.690000e-06	3.646973e-06	1.322101e-09	2.529239e+01	9.392539e+01
2.700000e-06	3.682574e-06	1.333783e-09	2.553928e+01	9.441590e+01
2.710000e-06	3.717987e-06	1.341530e-09	2.578488e+01	9.489106e+01
2.720000e-06	3.753200e-06	1.346745e-09	2.602908e+01	9.535097e+01
2.730000e-06	3.788167e-06	1.350429e-09	2.627159e+01	9.579575e+01
2.740000e-06	3.822701e-06	1.352982e-09	2.651109e+01	9.622551e+01
2.750000e-06	3.856723e-06	1.356349e-09	2.674704e+01	9.664037e+01
2.760000e-06	3.890256e-06	1.362852e-09	2.697960e+01	9.704048e+01
2.770000e-06	3.923188e-06	1.371969e-09	2.720799e+01	9.742600e+01
2.780000e-06	3.955623e-06	1.381583e-09	2.743293e+01	9.779711e+01
2.790000e-06	3.987806e-06	1.390792e-09	2.765612e+01	9.815401e+01
2.800000e-06	4.019737e-06	1.398623e-09	2.787757e+01	9.849695e+01
2.810000e-06	4.051493e-06	1.404211e-09	2.809780e+01	9.882618e+01
2.820000e-06	4.083157e-06	1.408108e-09	2.831739e+01	9.914201e+01
2.830000e-06	4.114688e-06	1.412432e-09	2.853607e+01	9.944476e+01
2.840000e-06	4.146019e-06	1.416065e-09	2.875336e+01	9.973480e+01
2.850000e-06	4.177031e-06	1.420180e-09	2.896843e+01	1.000125e+02
2.860000e-06	4.207710e-06	1.428172e-09	2.918119e+01	1.002783e+02
2.870000e-06	4.238050e-06	1.438288e-09	2.939161e+01	1.005326e+02
2.880000e-06	4.268050e-06	1.445075e-09	2.959966e+01	1.007760e+02
2.890000e-06	4.297789e-06	1.449268e-09	2.980591e+01	1.010089e+02
2.900000e-06	4.327263e-06	1.453914e-09	3.001031e+01	1.012318e+02
