# Temperatura_=_-8.52
# Concentracion g/m^3_=_1620.0
# C_Vs_to_Am_M_A/Vsm_=_65563218390.804596
# pendiente_HvsI_1/m_=_3716.3
# ordenada_HvsI_A/m_=_1297.0
# frecuencia_Hz_=_135108.9979483102

Tiempo_(s)	Campo_(V.s)	Magnetizacion_(V.s)	Campo_(kA/m)	Magnetizacion_(A/m)
0.000000e+00	-5.514730e-06	-1.379911e-09	-3.836600e+01	-8.939606e+01
1.000000e-08	-5.514859e-06	-1.379958e-09	-3.836689e+01	-8.934715e+01
2.000000e-08	-5.514667e-06	-1.383374e-09	-3.836556e+01	-8.929754e+01
3.000000e-08	-5.514042e-06	-1.386161e-09	-3.836121e+01	-8.924688e+01
4.000000e-08	-5.512937e-06	-1.386600e-09	-3.835353e+01	-8.919485e+01
5.000000e-08	-5.511305e-06	-1.380124e-09	-3.834217e+01	-8.914109e+01
6.000000e-08	-5.509054e-06	-1.368185e-09	-3.832651e+01	-8.908525e+01
7.000000e-08	-5.506202e-06	-1.383894e-09	-3.830667e+01	-8.902697e+01
8.000000e-08	-5.502834e-06	-1.418193e-09	-3.828323e+01	-8.896590e+01
9.000000e-08	-5.498963e-06	-1.394152e-09	-3.825631e+01	-8.890170e+01
1.000000e-07	-5.494698e-06	-1.333067e-09	-3.822664e+01	-8.883404e+01
1.100000e-07	-5.490220e-06	-1.333407e-09	-3.819548e+01	-8.876262e+01
1.200000e-07	-5.485535e-06	-1.378065e-09	-3.816288e+01	-8.868715e+01
1.300000e-07	-5.480558e-06	-1.383475e-09	-3.812826e+01	-8.860736e+01
1.400000e-07	-5.475186e-06	-1.326007e-09	-3.809089e+01	-8.852303e+01
1.500000e-07	-5.469488e-06	-1.343796e-09	-3.805125e+01	-8.843395e+01
1.600000e-07	-5.463520e-06	-1.404230e-09	-3.800972e+01	-8.833996e+01
1.700000e-07	-5.457098e-06	-1.385961e-09	-3.796505e+01	-8.824094e+01
1.800000e-07	-5.450202e-06	-1.303267e-09	-3.791707e+01	-8.813681e+01
1.900000e-07	-5.442992e-06	-1.296720e-09	-3.786692e+01	-8.802751e+01
2.000000e-07	-5.435487e-06	-1.372254e-09	-3.781470e+01	-8.791306e+01
2.100000e-07	-5.427619e-06	-1.387731e-09	-3.775997e+01	-8.779350e+01
2.200000e-07	-5.419516e-06	-1.351391e-09	-3.770359e+01	-8.766892e+01
2.300000e-07	-5.411184e-06	-1.335691e-09	-3.764562e+01	-8.753945e+01
2.400000e-07	-5.402296e-06	-1.355400e-09	-3.758379e+01	-8.740527e+01
2.500000e-07	-5.392663e-06	-1.332283e-09	-3.751677e+01	-8.726660e+01
2.600000e-07	-5.382365e-06	-1.304416e-09	-3.744513e+01	-8.712370e+01
2.700000e-07	-5.371549e-06	-1.304941e-09	-3.736989e+01	-8.697685e+01
2.800000e-07	-5.360297e-06	-1.328928e-09	-3.729160e+01	-8.682640e+01
2.900000e-07	-5.348669e-06	-1.319519e-09	-3.721071e+01	-8.667269e+01
3.000000e-07	-5.336699e-06	-1.293003e-09	-3.712744e+01	-8.651613e+01
3.100000e-07	-5.324249e-06	-1.275658e-09	-3.704082e+01	-8.635712e+01
3.200000e-07	-5.311317e-06	-1.287640e-09	-3.695085e+01	-8.619608e+01
3.300000e-07	-5.298054e-06	-1.287512e-09	-3.685858e+01	-8.603347e+01
3.400000e-07	-5.284400e-06	-1.264799e-09	-3.676359e+01	-8.586974e+01
3.500000e-07	-5.270259e-06	-1.272728e-09	-3.666521e+01	-8.570535e+01
3.600000e-07	-5.255673e-06	-1.314048e-09	-3.656374e+01	-8.554075e+01
3.700000e-07	-5.240550e-06	-1.313117e-09	-3.645852e+01	-8.537641e+01
3.800000e-07	-5.224943e-06	-1.281449e-09	-3.634995e+01	-8.521275e+01
3.900000e-07	-5.208873e-06	-1.293114e-09	-3.623815e+01	-8.505022e+01
4.000000e-07	-5.192411e-06	-1.294535e-09	-3.612362e+01	-8.488921e+01
4.100000e-07	-5.175652e-06	-1.250267e-09	-3.600703e+01	-8.473011e+01
4.200000e-07	-5.158436e-06	-1.257013e-09	-3.588726e+01	-8.457327e+01
4.300000e-07	-5.140937e-06	-1.312907e-09	-3.576551e+01	-8.441901e+01
4.400000e-07	-5.123147e-06	-1.289160e-09	-3.564175e+01	-8.426761e+01
4.500000e-07	-5.104906e-06	-1.252000e-09	-3.551485e+01	-8.411931e+01
4.600000e-07	-5.086271e-06	-1.290553e-09	-3.538521e+01	-8.397432e+01
4.700000e-07	-5.067329e-06	-1.303923e-09	-3.525342e+01	-8.383279e+01
4.800000e-07	-5.048081e-06	-1.252250e-09	-3.511952e+01	-8.369482e+01
4.900000e-07	-5.028533e-06	-1.256355e-09	-3.498352e+01	-8.356048e+01
5.000000e-07	-5.008776e-06	-1.274630e-09	-3.484607e+01	-8.342976e+01
5.100000e-07	-4.988845e-06	-1.238693e-09	-3.470741e+01	-8.330264e+01
5.200000e-07	-4.968557e-06	-1.238506e-09	-3.456627e+01	-8.317902e+01
5.300000e-07	-4.947853e-06	-1.286463e-09	-3.442223e+01	-8.305877e+01
5.400000e-07	-4.926866e-06	-1.263012e-09	-3.427623e+01	-8.294169e+01
5.500000e-07	-4.905551e-06	-1.234203e-09	-3.412793e+01	-8.282756e+01
5.600000e-07	-4.883910e-06	-1.272874e-09	-3.397738e+01	-8.271611e+01
5.700000e-07	-4.861968e-06	-1.283624e-09	-3.382473e+01	-8.260702e+01
5.800000e-07	-4.839607e-06	-1.244299e-09	-3.366916e+01	-8.249995e+01
5.900000e-07	-4.816776e-06	-1.250386e-09	-3.351033e+01	-8.239452e+01
6.000000e-07	-4.793600e-06	-1.261477e-09	-3.334909e+01	-8.229032e+01
6.100000e-07	-4.770191e-06	-1.230221e-09	-3.318623e+01	-8.218692e+01
6.200000e-07	-4.746548e-06	-1.225216e-09	-3.302175e+01	-8.208386e+01
6.300000e-07	-4.722653e-06	-1.250260e-09	-3.285552e+01	-8.198068e+01
6.400000e-07	-4.698499e-06	-1.245939e-09	-3.268747e+01	-8.187691e+01
6.500000e-07	-4.674062e-06	-1.242133e-09	-3.251747e+01	-8.177206e+01
6.600000e-07	-4.649257e-06	-1.257536e-09	-3.234490e+01	-8.166566e+01
6.700000e-07	-4.623896e-06	-1.249274e-09	-3.216846e+01	-8.155724e+01
6.800000e-07	-4.597856e-06	-1.228797e-09	-3.198730e+01	-8.144634e+01
6.900000e-07	-4.571290e-06	-1.227148e-09	-3.180248e+01	-8.133251e+01
7.000000e-07	-4.544360e-06	-1.223940e-09	-3.161513e+01	-8.121532e+01
7.100000e-07	-4.517054e-06	-1.214716e-09	-3.142516e+01	-8.109437e+01
7.200000e-07	-4.489481e-06	-1.223998e-09	-3.123333e+01	-8.096930e+01
7.300000e-07	-4.461762e-06	-1.232079e-09	-3.104050e+01	-8.083975e+01
7.400000e-07	-4.433845e-06	-1.224611e-09	-3.084628e+01	-8.070544e+01
7.500000e-07	-4.405716e-06	-1.217856e-09	-3.065058e+01	-8.056608e+01
7.600000e-07	-4.377272e-06	-1.219744e-09	-3.045270e+01	-8.042146e+01
7.700000e-07	-4.348442e-06	-1.213876e-09	-3.025213e+01	-8.027138e+01
7.800000e-07	-4.319273e-06	-1.208897e-09	-3.004920e+01	-8.011570e+01
7.900000e-07	-4.289799e-06	-1.208885e-09	-2.984415e+01	-7.995434e+01
8.000000e-07	-4.260090e-06	-1.203106e-09	-2.963746e+01	-7.978722e+01
8.100000e-07	-4.230097e-06	-1.192461e-09	-2.942880e+01	-7.961434e+01
8.200000e-07	-4.199849e-06	-1.191525e-09	-2.921836e+01	-7.943574e+01
8.300000e-07	-4.169269e-06	-1.188595e-09	-2.900562e+01	-7.925147e+01
8.400000e-07	-4.138308e-06	-1.182920e-09	-2.879022e+01	-7.906166e+01
8.500000e-07	-4.107068e-06	-1.187284e-09	-2.857289e+01	-7.886645e+01
8.600000e-07	-4.075621e-06	-1.195955e-09	-2.835411e+01	-7.866602e+01
8.700000e-07	-4.044040e-06	-1.189860e-09	-2.813440e+01	-7.846058e+01
8.800000e-07	-4.012327e-06	-1.181170e-09	-2.791377e+01	-7.825037e+01
8.900000e-07	-3.980473e-06	-1.175603e-09	-2.769216e+01	-7.803565e+01
9.000000e-07	-3.948379e-06	-1.164195e-09	-2.746889e+01	-7.781669e+01
9.100000e-07	-3.915932e-06	-1.152925e-09	-2.724315e+01	-7.759380e+01
9.200000e-07	-3.883058e-06	-1.152107e-09	-2.701445e+01	-7.736726e+01
9.300000e-07	-3.849727e-06	-1.150292e-09	-2.678256e+01	-7.713739e+01
9.400000e-07	-3.816016e-06	-1.144074e-09	-2.654804e+01	-7.690449e+01
9.500000e-07	-3.781914e-06	-1.142877e-09	-2.631079e+01	-7.666887e+01
9.600000e-07	-3.747399e-06	-1.140577e-09	-2.607067e+01	-7.643081e+01
9.700000e-07	-3.712492e-06	-1.130617e-09	-2.582782e+01	-7.619060e+01
9.800000e-07	-3.677265e-06	-1.122976e-09	-2.558275e+01	-7.594850e+01
9.900000e-07	-3.641840e-06	-1.120528e-09	-2.533630e+01	-7.570474e+01
1.000000e-06	-3.606191e-06	-1.113579e-09	-2.508829e+01	-7.545953e+01
1.010000e-06	-3.570363e-06	-1.105540e-09	-2.483903e+01	-7.521307e+01
1.020000e-06	-3.534436e-06	-1.101873e-09	-2.458908e+01	-7.496551e+01
1.030000e-06	-3.498374e-06	-1.097401e-09	-2.433820e+01	-7.471696e+01
1.040000e-06	-3.462088e-06	-1.090383e-09	-2.408576e+01	-7.446750e+01
1.050000e-06	-3.425510e-06	-1.089703e-09	-2.383128e+01	-7.421719e+01
1.060000e-06	-3.388656e-06	-1.088816e-09	-2.357489e+01	-7.396603e+01
1.070000e-06	-3.351543e-06	-1.081473e-09	-2.331670e+01	-7.371398e+01
1.080000e-06	-3.314188e-06	-1.073820e-09	-2.305682e+01	-7.346098e+01
1.090000e-06	-3.276582e-06	-1.068024e-09	-2.279519e+01	-7.320691e+01
1.100000e-06	-3.238763e-06	-1.059155e-09	-2.253208e+01	-7.295162e+01
1.110000e-06	-3.200798e-06	-1.050159e-09	-2.226796e+01	-7.269494e+01
1.120000e-06	-3.162653e-06	-1.042506e-09	-2.200259e+01	-7.243663e+01
1.130000e-06	-3.124232e-06	-1.037283e-09	-2.173529e+01	-7.217645e+01
1.140000e-06	-3.085457e-06	-1.033674e-09	-2.146553e+01	-7.191413e+01
1.150000e-06	-3.046397e-06	-1.035633e-09	-2.119379e+01	-7.164934e+01
1.160000e-06	-3.007327e-06	-1.039191e-09	-2.092198e+01	-7.138177e+01
1.170000e-06	-2.968163e-06	-1.040001e-09	-2.064952e+01	-7.111106e+01
1.180000e-06	-2.928713e-06	-1.036326e-09	-2.037507e+01	-7.083685e+01
1.190000e-06	-2.889080e-06	-1.028970e-09	-2.009934e+01	-7.055877e+01
1.200000e-06	-2.849370e-06	-1.017707e-09	-1.982308e+01	-7.027644e+01
1.210000e-06	-2.809547e-06	-1.006129e-09	-1.954603e+01	-6.998946e+01
1.220000e-06	-2.769585e-06	-9.976988e-10	-1.926801e+01	-6.969746e+01
1.230000e-06	-2.729489e-06	-9.915691e-10	-1.898907e+01	-6.940006e+01
1.240000e-06	-2.689133e-06	-9.866027e-10	-1.870831e+01	-6.909688e+01
1.250000e-06	-2.648517e-06	-9.842956e-10	-1.842574e+01	-6.878757e+01
1.260000e-06	-2.607723e-06	-9.860849e-10	-1.814194e+01	-6.847178e+01
1.270000e-06	-2.566688e-06	-9.838635e-10	-1.785646e+01	-6.814919e+01
1.280000e-06	-2.525426e-06	-9.761571e-10	-1.756940e+01	-6.781949e+01
1.290000e-06	-2.483997e-06	-9.658750e-10	-1.728118e+01	-6.748241e+01
1.300000e-06	-2.442237e-06	-9.539208e-10	-1.699065e+01	-6.713768e+01
1.310000e-06	-2.400038e-06	-9.422107e-10	-1.669707e+01	-6.678508e+01
1.320000e-06	-2.357534e-06	-9.335258e-10	-1.640137e+01	-6.642441e+01
1.330000e-06	-2.314778e-06	-9.296261e-10	-1.610392e+01	-6.605548e+01
1.340000e-06	-2.271744e-06	-9.290808e-10	-1.580453e+01	-6.567814e+01
1.350000e-06	-2.228499e-06	-9.305136e-10	-1.550367e+01	-6.529227e+01
1.360000e-06	-2.185078e-06	-9.311041e-10	-1.520160e+01	-6.489776e+01
1.370000e-06	-2.141516e-06	-9.280434e-10	-1.489853e+01	-6.449452e+01
1.380000e-06	-2.097854e-06	-9.195345e-10	-1.459478e+01	-6.408251e+01
1.390000e-06	-2.054118e-06	-9.053063e-10	-1.429051e+01	-6.366166e+01
1.400000e-06	-2.010318e-06	-8.880048e-10	-1.398579e+01	-6.323194e+01
1.410000e-06	-1.966476e-06	-8.721689e-10	-1.368078e+01	-6.279332e+01
1.420000e-06	-1.922549e-06	-8.637191e-10	-1.337518e+01	-6.234577e+01
1.430000e-06	-1.878520e-06	-8.600981e-10	-1.306887e+01	-6.188927e+01
1.440000e-06	-1.834406e-06	-8.588503e-10	-1.276197e+01	-6.142378e+01
1.450000e-06	-1.790201e-06	-8.571178e-10	-1.245444e+01	-6.094924e+01
1.460000e-06	-1.745900e-06	-8.506947e-10	-1.214624e+01	-6.046561e+01
1.470000e-06	-1.701494e-06	-8.376609e-10	-1.183730e+01	-5.997278e+01
1.480000e-06	-1.656981e-06	-8.244020e-10	-1.152762e+01	-5.947064e+01
1.490000e-06	-1.612311e-06	-8.135459e-10	-1.121685e+01	-5.895905e+01
1.500000e-06	-1.567463e-06	-7.995588e-10	-1.090485e+01	-5.843782e+01
1.510000e-06	-1.522415e-06	-7.857653e-10	-1.059145e+01	-5.790671e+01
1.520000e-06	-1.477183e-06	-7.756095e-10	-1.027677e+01	-5.736544e+01
1.530000e-06	-1.431853e-06	-7.671629e-10	-9.961405e+00	-5.681368e+01
1.540000e-06	-1.386471e-06	-7.602262e-10	-9.645681e+00	-5.625104e+01
1.550000e-06	-1.340955e-06	-7.515224e-10	-9.329027e+00	-5.567708e+01
1.560000e-06	-1.295434e-06	-7.396425e-10	-9.012338e+00	-5.509129e+01
1.570000e-06	-1.249969e-06	-7.255329e-10	-8.696041e+00	-5.449308e+01
1.580000e-06	-1.204379e-06	-7.123365e-10	-8.378871e+00	-5.388183e+01
1.590000e-06	-1.158665e-06	-6.996367e-10	-8.060833e+00	-5.325683e+01
1.600000e-06	-1.112889e-06	-6.848622e-10	-7.742370e+00	-5.261731e+01
1.610000e-06	-1.067013e-06	-6.703058e-10	-7.423216e+00	-5.196244e+01
1.620000e-06	-1.021000e-06	-6.578829e-10	-7.103102e+00	-5.129133e+01
1.630000e-06	-9.749021e-07	-6.470855e-10	-6.782397e+00	-5.060302e+01
1.640000e-06	-9.287202e-07	-6.385266e-10	-6.461109e+00	-4.989651e+01
1.650000e-06	-8.824913e-07	-6.314348e-10	-6.139495e+00	-4.917073e+01
1.660000e-06	-8.362351e-07	-6.230664e-10	-5.817691e+00	-4.842459e+01
1.670000e-06	-7.899054e-07	-6.134870e-10	-5.495375e+00	-4.765694e+01
1.680000e-06	-7.435478e-07	-6.018284e-10	-5.172864e+00	-4.686661e+01
1.690000e-06	-6.971634e-07	-5.887145e-10	-4.850168e+00	-4.605240e+01
1.700000e-06	-6.507333e-07	-5.712884e-10	-4.527154e+00	-4.521311e+01
1.710000e-06	-6.043328e-07	-5.508064e-10	-4.204346e+00	-4.434750e+01
1.720000e-06	-5.578758e-07	-5.321327e-10	-3.881144e+00	-4.345437e+01
1.730000e-06	-5.113195e-07	-5.171527e-10	-3.557251e+00	-4.253250e+01
1.740000e-06	-4.646717e-07	-5.060473e-10	-3.232722e+00	-4.158072e+01
1.750000e-06	-4.179405e-07	-4.964234e-10	-2.907614e+00	-4.059787e+01
1.760000e-06	-3.712557e-07	-4.847791e-10	-2.582827e+00	-3.958287e+01
1.770000e-06	-3.245321e-07	-4.699437e-10	-2.257771e+00	-3.853464e+01
1.780000e-06	-2.776875e-07	-4.528531e-10	-1.931873e+00	-3.745222e+01
1.790000e-06	-2.308438e-07	-4.366542e-10	-1.605981e+00	-3.633470e+01
1.800000e-06	-1.840716e-07	-4.216348e-10	-1.280586e+00	-3.518126e+01
1.810000e-06	-1.372981e-07	-4.055264e-10	-9.551835e-01	-3.399117e+01
1.820000e-06	-9.050715e-08	-3.892862e-10	-6.296586e-01	-3.276383e+01
1.830000e-06	-4.376704e-08	-3.729381e-10	-3.044875e-01	-3.149873e+01
1.840000e-06	2.950756e-09	-3.560067e-10	2.052842e-02	-3.019550e+01
1.850000e-06	4.961589e-08	-3.395478e-10	3.451779e-01	-2.885389e+01
1.860000e-06	9.627507e-08	-3.234944e-10	6.697860e-01	-2.747381e+01
1.870000e-06	1.430038e-07	-3.062702e-10	9.948778e-01	-2.605529e+01
1.880000e-06	1.897429e-07	-2.877238e-10	1.320042e+00	-2.459853e+01
1.890000e-06	2.365040e-07	-2.661256e-10	1.645359e+00	-2.310388e+01
1.900000e-06	2.833038e-07	-2.408520e-10	1.970946e+00	-2.157184e+01
1.910000e-06	3.300746e-07	-2.148531e-10	2.296330e+00	-2.000308e+01
1.920000e-06	3.767758e-07	-1.887003e-10	2.621231e+00	-1.839842e+01
1.930000e-06	4.234905e-07	-1.654877e-10	2.946225e+00	-1.675884e+01
1.940000e-06	4.701372e-07	-1.446184e-10	3.270746e+00	-1.508550e+01
1.950000e-06	5.167832e-07	-1.263460e-10	3.595263e+00	-1.337968e+01
1.960000e-06	5.634424e-07	-1.099740e-10	3.919871e+00	-1.164285e+01
1.970000e-06	6.098691e-07	-8.989355e-11	4.242861e+00	-9.876594e+00
1.980000e-06	6.562475e-07	-6.573183e-11	4.565516e+00	-8.082658e+00
1.990000e-06	7.026756e-07	-3.571046e-11	4.888517e+00	-6.262914e+00
2.000000e-06	7.490170e-07	-3.837314e-12	5.210914e+00	-4.419357e+00
2.010000e-06	7.952388e-07	2.787740e-11	5.532479e+00	-2.554102e+00
2.020000e-06	8.413736e-07	5.767628e-11	5.853439e+00	-6.693666e-01
2.030000e-06	8.875322e-07	8.522578e-11	6.174565e+00	1.232535e+00
2.040000e-06	9.336936e-07	1.093603e-10	6.495710e+00	3.149205e+00
2.050000e-06	9.797924e-07	1.312234e-10	6.816419e+00	5.078177e+00
2.060000e-06	1.025727e-06	1.540537e-10	7.135989e+00	7.016923e+00
2.070000e-06	1.071521e-06	1.797883e-10	7.454573e+00	8.962873e+00
2.080000e-06	1.117279e-06	2.085447e-10	7.772914e+00	1.091342e+01
2.090000e-06	1.162986e-06	2.393563e-10	8.090900e+00	1.286596e+01
2.100000e-06	1.208689e-06	2.709095e-10	8.408854e+00	1.481784e+01
2.110000e-06	1.254377e-06	2.994446e-10	8.726702e+00	1.676647e+01
2.120000e-06	1.299944e-06	3.255825e-10	9.043717e+00	1.870925e+01
2.130000e-06	1.345368e-06	3.515011e-10	9.359733e+00	2.064362e+01
2.140000e-06	1.390711e-06	3.761078e-10	9.675178e+00	2.256709e+01
2.150000e-06	1.435894e-06	3.995012e-10	9.989520e+00	2.447720e+01
2.160000e-06	1.480929e-06	4.222107e-10	1.030283e+01	2.637158e+01
2.170000e-06	1.525889e-06	4.444641e-10	1.061562e+01	2.824796e+01
2.180000e-06	1.570825e-06	4.691881e-10	1.092824e+01	3.010415e+01
2.190000e-06	1.615679e-06	4.973685e-10	1.124028e+01	3.193806e+01
2.200000e-06	1.660364e-06	5.266127e-10	1.155116e+01	3.374772e+01
2.210000e-06	1.704875e-06	5.561095e-10	1.186082e+01	3.553130e+01
2.220000e-06	1.749236e-06	5.840561e-10	1.216944e+01	3.728707e+01
2.230000e-06	1.793479e-06	6.073416e-10	1.247724e+01	3.901344e+01
2.240000e-06	1.837528e-06	6.268226e-10	1.278369e+01	4.070899e+01
2.250000e-06	1.881487e-06	6.450058e-10	1.308951e+01	4.237240e+01
2.260000e-06	1.925471e-06	6.642688e-10	1.339551e+01	4.400253e+01
2.270000e-06	1.969418e-06	6.838101e-10	1.370125e+01	4.559836e+01
2.280000e-06	2.013283e-06	7.046550e-10	1.400642e+01	4.715904e+01
2.290000e-06	2.057089e-06	7.256487e-10	1.431117e+01	4.868384e+01
2.300000e-06	2.100783e-06	7.478628e-10	1.461515e+01	5.017221e+01
2.310000e-06	2.144337e-06	7.697420e-10	1.491816e+01	5.162371e+01
2.320000e-06	2.187780e-06	7.907275e-10	1.522039e+01	5.303805e+01
2.330000e-06	2.231090e-06	8.097156e-10	1.552170e+01	5.441508e+01
2.340000e-06	2.274268e-06	8.267853e-10	1.582209e+01	5.575475e+01
2.350000e-06	2.317290e-06	8.432140e-10	1.612140e+01	5.705717e+01
2.360000e-06	2.360099e-06	8.575533e-10	1.641922e+01	5.832253e+01
2.370000e-06	2.402621e-06	8.714592e-10	1.671504e+01	5.955115e+01
2.380000e-06	2.444752e-06	8.856341e-10	1.700815e+01	6.074343e+01
2.390000e-06	2.486545e-06	9.003306e-10	1.729890e+01	6.189987e+01
2.400000e-06	2.528074e-06	9.178980e-10	1.758782e+01	6.302105e+01
2.410000e-06	2.569309e-06	9.358565e-10	1.787469e+01	6.410762e+01
2.420000e-06	2.610267e-06	9.527518e-10	1.815964e+01	6.516030e+01
2.430000e-06	2.650995e-06	9.674045e-10	1.844298e+01	6.617984e+01
2.440000e-06	2.691491e-06	9.800285e-10	1.872471e+01	6.716706e+01
2.450000e-06	2.731799e-06	9.910714e-10	1.900513e+01	6.812280e+01
2.460000e-06	2.771915e-06	1.000931e-09	1.928422e+01	6.904794e+01
2.470000e-06	2.811852e-06	1.011363e-09	1.956206e+01	6.994335e+01
2.480000e-06	2.851684e-06	1.023461e-09	1.983918e+01	7.080994e+01
2.490000e-06	2.891374e-06	1.037816e-09	2.011530e+01	7.164861e+01
2.500000e-06	2.930931e-06	1.051162e-09	2.039050e+01	7.246025e+01
2.510000e-06	2.970362e-06	1.063962e-09	2.066482e+01	7.324573e+01
2.520000e-06	3.009604e-06	1.074599e-09	2.093783e+01	7.400593e+01
2.530000e-06	3.048610e-06	1.086100e-09	2.120919e+01	7.474168e+01
2.540000e-06	3.087385e-06	1.097432e-09	2.147895e+01	7.545378e+01
2.550000e-06	3.125850e-06	1.104393e-09	2.174655e+01	7.614302e+01
2.560000e-06	3.164042e-06	1.108487e-09	2.201225e+01	7.681014e+01
2.570000e-06	3.202116e-06	1.112278e-09	2.227713e+01	7.745583e+01
2.580000e-06	3.240025e-06	1.117301e-09	2.254087e+01	7.808077e+01
2.590000e-06	3.277769e-06	1.123571e-09	2.280345e+01	7.868557e+01
2.600000e-06	3.315333e-06	1.133958e-09	2.306478e+01	7.927081e+01
2.610000e-06	3.352612e-06	1.148506e-09	2.332413e+01	7.983704e+01
2.620000e-06	3.389629e-06	1.162709e-09	2.358166e+01	8.038473e+01
2.630000e-06	3.426385e-06	1.173408e-09	2.383737e+01	8.091436e+01
2.640000e-06	3.462847e-06	1.181385e-09	2.409104e+01	8.142633e+01
2.650000e-06	3.499024e-06	1.187891e-09	2.434272e+01	8.192103e+01
2.660000e-06	3.535006e-06	1.192575e-09	2.459305e+01	8.239881e+01
2.670000e-06	3.570936e-06	1.195343e-09	2.484301e+01	8.286000e+01
2.680000e-06	3.606763e-06	1.199540e-09	2.509226e+01	8.330487e+01
2.690000e-06	3.642429e-06	1.207081e-09	2.534039e+01	8.373371e+01
2.700000e-06	3.677950e-06	1.215094e-09	2.558751e+01	8.414677e+01
2.710000e-06	3.713234e-06	1.220742e-09	2.583298e+01	8.454427e+01
2.720000e-06	3.748270e-06	1.225973e-09	2.607673e+01	8.492646e+01
2.730000e-06	3.782889e-06	1.231153e-09	2.631757e+01	8.529355e+01
2.740000e-06	3.816983e-06	1.234775e-09	2.655477e+01	8.564575e+01
2.750000e-06	3.850727e-06	1.236494e-09	2.678952e+01	8.598328e+01
2.760000e-06	3.884069e-06	1.237767e-09	2.702148e+01	8.630637e+01
2.770000e-06	3.916963e-06	1.240420e-09	2.725033e+01	8.661523e+01
2.780000e-06	3.949479e-06	1.244145e-09	2.747654e+01	8.691011e+01
2.790000e-06	3.981681e-06	1.249521e-09	2.770057e+01	8.719127e+01
2.800000e-06	4.013644e-06	1.254214e-09	2.792294e+01	8.745895e+01
2.810000e-06	4.045430e-06	1.257882e-09	2.814407e+01	8.771346e+01
2.820000e-06	4.076993e-06	1.264122e-09	2.836366e+01	8.795508e+01
2.830000e-06	4.108299e-06	1.270582e-09	2.858145e+01	8.818415e+01
2.840000e-06	4.139369e-06	1.274268e-09	2.879760e+01	8.840100e+01
2.850000e-06	4.170143e-06	1.276073e-09	2.901170e+01	8.860599e+01
2.860000e-06	4.200619e-06	1.278193e-09	2.922372e+01	8.879950e+01
2.870000e-06	4.230792e-06	1.279790e-09	2.943363e+01	8.898193e+01
2.880000e-06	4.260682e-06	1.276893e-09	2.964158e+01	8.915371e+01
2.890000e-06	4.290375e-06	1.274144e-09	2.984816e+01	8.931525e+01
2.900000e-06	4.319828e-06	1.275575e-09	3.005306e+01	8.946702e+01
