# Temperatura_=_9.48
# Concentracion g/m^3_=_1620.0
# C_Vs_to_Am_M_A/Vsm_=_65563218390.804596
# pendiente_HvsI_1/m_=_3716.3
# ordenada_HvsI_A/m_=_1297.0
# frecuencia_Hz_=_135108.5848967267

Tiempo_(s)	Campo_(V.s)	Magnetizacion_(V.s)	Campo_(kA/m)	Magnetizacion_(A/m)
0.000000e+00	-5.518599e-06	-1.672548e-09	-3.836868e+01	-1.092257e+02
1.000000e-08	-5.518731e-06	-1.672224e-09	-3.836960e+01	-1.091601e+02
2.000000e-08	-5.518503e-06	-1.673316e-09	-3.836802e+01	-1.090925e+02
3.000000e-08	-5.517851e-06	-1.673606e-09	-3.836348e+01	-1.090231e+02
4.000000e-08	-5.516696e-06	-1.672218e-09	-3.835546e+01	-1.089517e+02
5.000000e-08	-5.514901e-06	-1.671847e-09	-3.834297e+01	-1.088782e+02
6.000000e-08	-5.512621e-06	-1.682423e-09	-3.832712e+01	-1.088026e+02
7.000000e-08	-5.509890e-06	-1.705635e-09	-3.830813e+01	-1.087247e+02
8.000000e-08	-5.506555e-06	-1.690114e-09	-3.828495e+01	-1.086446e+02
9.000000e-08	-5.502754e-06	-1.609264e-09	-3.825852e+01	-1.085620e+02
1.000000e-07	-5.498653e-06	-1.595357e-09	-3.823001e+01	-1.084769e+02
1.100000e-07	-5.494303e-06	-1.707152e-09	-3.819976e+01	-1.083891e+02
1.200000e-07	-5.489663e-06	-1.745769e-09	-3.816750e+01	-1.082986e+02
1.300000e-07	-5.484729e-06	-1.655775e-09	-3.813320e+01	-1.082053e+02
1.400000e-07	-5.479466e-06	-1.602373e-09	-3.809661e+01	-1.081091e+02
1.500000e-07	-5.473785e-06	-1.681704e-09	-3.805711e+01	-1.080098e+02
1.600000e-07	-5.467696e-06	-1.747105e-09	-3.801477e+01	-1.079075e+02
1.700000e-07	-5.461263e-06	-1.635121e-09	-3.797005e+01	-1.078021e+02
1.800000e-07	-5.454477e-06	-1.587060e-09	-3.792287e+01	-1.076935e+02
1.900000e-07	-5.447298e-06	-1.646817e-09	-3.787296e+01	-1.075818e+02
2.000000e-07	-5.439839e-06	-1.718655e-09	-3.782110e+01	-1.074668e+02
2.100000e-07	-5.432123e-06	-1.673408e-09	-3.776745e+01	-1.073487e+02
2.200000e-07	-5.424099e-06	-1.642760e-09	-3.771166e+01	-1.072274e+02
2.300000e-07	-5.415625e-06	-1.678622e-09	-3.765275e+01	-1.071031e+02
2.400000e-07	-5.406627e-06	-1.699370e-09	-3.759019e+01	-1.069757e+02
2.500000e-07	-5.397076e-06	-1.666700e-09	-3.752378e+01	-1.068453e+02
2.600000e-07	-5.386884e-06	-1.635360e-09	-3.745292e+01	-1.067120e+02
2.700000e-07	-5.376088e-06	-1.650964e-09	-3.737786e+01	-1.065760e+02
2.800000e-07	-5.364793e-06	-1.658366e-09	-3.729933e+01	-1.064374e+02
2.900000e-07	-5.353157e-06	-1.647873e-09	-3.721843e+01	-1.062963e+02
3.000000e-07	-5.341129e-06	-1.622931e-09	-3.713480e+01	-1.061527e+02
3.100000e-07	-5.328701e-06	-1.640490e-09	-3.704840e+01	-1.060070e+02
3.200000e-07	-5.315903e-06	-1.649093e-09	-3.695942e+01	-1.058592e+02
3.300000e-07	-5.302659e-06	-1.631552e-09	-3.686734e+01	-1.057095e+02
3.400000e-07	-5.289053e-06	-1.590410e-09	-3.677274e+01	-1.055580e+02
3.500000e-07	-5.275028e-06	-1.617342e-09	-3.667523e+01	-1.054049e+02
3.600000e-07	-5.260477e-06	-1.631222e-09	-3.657406e+01	-1.052504e+02
3.700000e-07	-5.245452e-06	-1.602190e-09	-3.646960e+01	-1.050945e+02
3.800000e-07	-5.229909e-06	-1.606822e-09	-3.636153e+01	-1.049374e+02
3.900000e-07	-5.213909e-06	-1.659601e-09	-3.625029e+01	-1.047791e+02
4.000000e-07	-5.197475e-06	-1.607611e-09	-3.613604e+01	-1.046199e+02
4.100000e-07	-5.180728e-06	-1.549596e-09	-3.601960e+01	-1.044597e+02
4.200000e-07	-5.163758e-06	-1.618891e-09	-3.590161e+01	-1.042986e+02
4.300000e-07	-5.146389e-06	-1.653261e-09	-3.578085e+01	-1.041367e+02
4.400000e-07	-5.128610e-06	-1.557598e-09	-3.565724e+01	-1.039739e+02
4.500000e-07	-5.110414e-06	-1.574425e-09	-3.553073e+01	-1.038102e+02
4.600000e-07	-5.091842e-06	-1.661196e-09	-3.540161e+01	-1.036456e+02
4.700000e-07	-5.072928e-06	-1.595457e-09	-3.527011e+01	-1.034801e+02
4.800000e-07	-5.053670e-06	-1.533596e-09	-3.513621e+01	-1.033134e+02
4.900000e-07	-5.034158e-06	-1.611904e-09	-3.500055e+01	-1.031456e+02
5.000000e-07	-5.014401e-06	-1.599803e-09	-3.486319e+01	-1.029764e+02
5.100000e-07	-4.994362e-06	-1.514964e-09	-3.472387e+01	-1.028057e+02
5.200000e-07	-4.974019e-06	-1.578458e-09	-3.458243e+01	-1.026333e+02
5.300000e-07	-4.953345e-06	-1.618860e-09	-3.443869e+01	-1.024590e+02
5.400000e-07	-4.932298e-06	-1.525397e-09	-3.429236e+01	-1.022826e+02
5.500000e-07	-4.910866e-06	-1.532164e-09	-3.414335e+01	-1.021037e+02
5.600000e-07	-4.889110e-06	-1.610932e-09	-3.399209e+01	-1.019222e+02
5.700000e-07	-4.867112e-06	-1.548889e-09	-3.383914e+01	-1.017378e+02
5.800000e-07	-4.844767e-06	-1.509698e-09	-3.368379e+01	-1.015502e+02
5.900000e-07	-4.822022e-06	-1.577329e-09	-3.352565e+01	-1.013591e+02
6.000000e-07	-4.799020e-06	-1.559914e-09	-3.336573e+01	-1.011643e+02
6.100000e-07	-4.775801e-06	-1.494480e-09	-3.320429e+01	-1.009654e+02
6.200000e-07	-4.752314e-06	-1.536251e-09	-3.304100e+01	-1.007622e+02
6.300000e-07	-4.728448e-06	-1.552571e-09	-3.287507e+01	-1.005544e+02
6.400000e-07	-4.704191e-06	-1.507703e-09	-3.270642e+01	-1.003417e+02
6.500000e-07	-4.679586e-06	-1.522272e-09	-3.253535e+01	-1.001240e+02
6.600000e-07	-4.654484e-06	-1.551147e-09	-3.236083e+01	-9.990101e+01
6.700000e-07	-4.628874e-06	-1.508366e-09	-3.218277e+01	-9.967251e+01
6.800000e-07	-4.602850e-06	-1.495349e-09	-3.200184e+01	-9.943835e+01
6.900000e-07	-4.576349e-06	-1.516023e-09	-3.181758e+01	-9.919839e+01
7.000000e-07	-4.549348e-06	-1.499549e-09	-3.162986e+01	-9.895251e+01
7.100000e-07	-4.522003e-06	-1.482836e-09	-3.143974e+01	-9.870063e+01
7.200000e-07	-4.494506e-06	-1.502783e-09	-3.124856e+01	-9.844271e+01
7.300000e-07	-4.466849e-06	-1.502086e-09	-3.105627e+01	-9.817872e+01
7.400000e-07	-4.438938e-06	-1.488438e-09	-3.086222e+01	-9.790869e+01
7.500000e-07	-4.410827e-06	-1.490290e-09	-3.066678e+01	-9.763266e+01
7.600000e-07	-4.382489e-06	-1.486900e-09	-3.046975e+01	-9.735072e+01
7.700000e-07	-4.353841e-06	-1.471126e-09	-3.027057e+01	-9.706300e+01
7.800000e-07	-4.324874e-06	-1.466812e-09	-3.006917e+01	-9.676964e+01
7.900000e-07	-4.295551e-06	-1.464610e-09	-2.986531e+01	-9.647082e+01
8.000000e-07	-4.265951e-06	-1.453547e-09	-2.965951e+01	-9.616675e+01
8.100000e-07	-4.236091e-06	-1.450923e-09	-2.945190e+01	-9.585767e+01
8.200000e-07	-4.205883e-06	-1.453157e-09	-2.924188e+01	-9.554384e+01
8.300000e-07	-4.175246e-06	-1.445232e-09	-2.902887e+01	-9.522553e+01
8.400000e-07	-4.144277e-06	-1.439489e-09	-2.881355e+01	-9.490302e+01
8.500000e-07	-4.113090e-06	-1.447699e-09	-2.859673e+01	-9.457664e+01
8.600000e-07	-4.081686e-06	-1.445588e-09	-2.837838e+01	-9.424668e+01
8.700000e-07	-4.050141e-06	-1.433204e-09	-2.815906e+01	-9.391347e+01
8.800000e-07	-4.018477e-06	-1.426017e-09	-2.793891e+01	-9.357731e+01
8.900000e-07	-3.986595e-06	-1.419174e-09	-2.771726e+01	-9.323852e+01
9.000000e-07	-3.954417e-06	-1.403810e-09	-2.749353e+01	-9.289739e+01
9.100000e-07	-3.921946e-06	-1.401971e-09	-2.726777e+01	-9.255422e+01
9.200000e-07	-3.889106e-06	-1.404995e-09	-2.703945e+01	-9.220927e+01
9.300000e-07	-3.855848e-06	-1.397436e-09	-2.680822e+01	-9.186277e+01
9.400000e-07	-3.822108e-06	-1.389688e-09	-2.657364e+01	-9.151496e+01
9.500000e-07	-3.787873e-06	-1.390906e-09	-2.633561e+01	-9.116602e+01
9.600000e-07	-3.753259e-06	-1.377772e-09	-2.609495e+01	-9.081610e+01
9.700000e-07	-3.718281e-06	-1.358727e-09	-2.585177e+01	-9.046533e+01
9.800000e-07	-3.683012e-06	-1.351613e-09	-2.560656e+01	-9.011377e+01
9.900000e-07	-3.647587e-06	-1.351909e-09	-2.536026e+01	-8.976148e+01
1.000000e-06	-3.611991e-06	-1.346508e-09	-2.511277e+01	-8.940844e+01
1.010000e-06	-3.576232e-06	-1.344002e-09	-2.486416e+01	-8.905460e+01
1.020000e-06	-3.540405e-06	-1.343347e-09	-2.461506e+01	-8.869987e+01
1.030000e-06	-3.504407e-06	-1.334348e-09	-2.436479e+01	-8.834412e+01
1.040000e-06	-3.468154e-06	-1.323167e-09	-2.411274e+01	-8.798717e+01
1.050000e-06	-3.431627e-06	-1.318997e-09	-2.385878e+01	-8.762877e+01
1.060000e-06	-3.394828e-06	-1.312020e-09	-2.360293e+01	-8.726868e+01
1.070000e-06	-3.357738e-06	-1.301263e-09	-2.334505e+01	-8.690657e+01
1.080000e-06	-3.320353e-06	-1.295411e-09	-2.308513e+01	-8.654211e+01
1.090000e-06	-3.282762e-06	-1.290617e-09	-2.282378e+01	-8.617492e+01
1.100000e-06	-3.244953e-06	-1.280578e-09	-2.256090e+01	-8.580459e+01
1.110000e-06	-3.206921e-06	-1.269778e-09	-2.229648e+01	-8.543068e+01
1.120000e-06	-3.168691e-06	-1.260951e-09	-2.203068e+01	-8.505273e+01
1.130000e-06	-3.130244e-06	-1.249316e-09	-2.176338e+01	-8.467026e+01
1.140000e-06	-3.091501e-06	-1.241216e-09	-2.149401e+01	-8.428279e+01
1.150000e-06	-3.052553e-06	-1.240733e-09	-2.122322e+01	-8.388981e+01
1.160000e-06	-3.013476e-06	-1.238576e-09	-2.095153e+01	-8.349082e+01
1.170000e-06	-2.974191e-06	-1.229260e-09	-2.067840e+01	-8.308532e+01
1.180000e-06	-2.934779e-06	-1.219122e-09	-2.040438e+01	-8.267281e+01
1.190000e-06	-2.895248e-06	-1.207451e-09	-2.012954e+01	-8.225281e+01
1.200000e-06	-2.855581e-06	-1.193368e-09	-1.985375e+01	-8.182486e+01
1.210000e-06	-2.815785e-06	-1.182611e-09	-1.957706e+01	-8.138850e+01
1.220000e-06	-2.775815e-06	-1.177885e-09	-1.929917e+01	-8.094332e+01
1.230000e-06	-2.735660e-06	-1.170651e-09	-1.901999e+01	-8.048892e+01
1.240000e-06	-2.695292e-06	-1.162357e-09	-1.873932e+01	-8.002495e+01
1.250000e-06	-2.654654e-06	-1.156994e-09	-1.845678e+01	-7.955107e+01
1.260000e-06	-2.613728e-06	-1.152844e-09	-1.817224e+01	-7.906702e+01
1.270000e-06	-2.572566e-06	-1.143321e-09	-1.788606e+01	-7.857254e+01
1.280000e-06	-2.531159e-06	-1.131488e-09	-1.759817e+01	-7.806743e+01
1.290000e-06	-2.489385e-06	-1.120604e-09	-1.730773e+01	-7.755153e+01
1.300000e-06	-2.447207e-06	-1.109238e-09	-1.701449e+01	-7.702473e+01
1.310000e-06	-2.404776e-06	-1.097131e-09	-1.671948e+01	-7.648694e+01
1.320000e-06	-2.362125e-06	-1.088130e-09	-1.642294e+01	-7.593813e+01
1.330000e-06	-2.319198e-06	-1.081002e-09	-1.612448e+01	-7.537831e+01
1.340000e-06	-2.276088e-06	-1.074032e-09	-1.582476e+01	-7.480751e+01
1.350000e-06	-2.232850e-06	-1.067792e-09	-1.552414e+01	-7.422581e+01
1.360000e-06	-2.189455e-06	-1.060985e-09	-1.522244e+01	-7.363331e+01
1.370000e-06	-2.145927e-06	-1.050077e-09	-1.491980e+01	-7.303012e+01
1.380000e-06	-2.102327e-06	-1.037668e-09	-1.461667e+01	-7.241639e+01
1.390000e-06	-2.058647e-06	-1.024797e-09	-1.431297e+01	-7.179228e+01
1.400000e-06	-2.014895e-06	-1.010104e-09	-1.400879e+01	-7.115795e+01
1.410000e-06	-1.971088e-06	-9.966681e-10	-1.370421e+01	-7.051356e+01
1.420000e-06	-1.927171e-06	-9.861077e-10	-1.339888e+01	-6.985927e+01
1.430000e-06	-1.883155e-06	-9.768432e-10	-1.309285e+01	-6.919522e+01
1.440000e-06	-1.838990e-06	-9.676993e-10	-1.278579e+01	-6.852154e+01
1.450000e-06	-1.794695e-06	-9.590453e-10	-1.247782e+01	-6.783832e+01
1.460000e-06	-1.750352e-06	-9.496949e-10	-1.216952e+01	-6.714562e+01
1.470000e-06	-1.705933e-06	-9.375449e-10	-1.186069e+01	-6.644346e+01
1.480000e-06	-1.661361e-06	-9.241895e-10	-1.155080e+01	-6.573182e+01
1.490000e-06	-1.616590e-06	-9.114771e-10	-1.123952e+01	-6.501061e+01
1.500000e-06	-1.571674e-06	-8.963325e-10	-1.092724e+01	-6.427968e+01
1.510000e-06	-1.526656e-06	-8.814549e-10	-1.061425e+01	-6.353884e+01
1.520000e-06	-1.481549e-06	-8.695627e-10	-1.030063e+01	-6.278779e+01
1.530000e-06	-1.436300e-06	-8.588601e-10	-9.986041e+00	-6.202618e+01
1.540000e-06	-1.390885e-06	-8.485155e-10	-9.670283e+00	-6.125358e+01
1.550000e-06	-1.345392e-06	-8.382312e-10	-9.353993e+00	-6.046946e+01
1.560000e-06	-1.299887e-06	-8.256152e-10	-9.037609e+00	-5.967324e+01
1.570000e-06	-1.254305e-06	-8.107480e-10	-8.720697e+00	-5.886423e+01
1.580000e-06	-1.208645e-06	-7.954822e-10	-8.403244e+00	-5.804165e+01
1.590000e-06	-1.162936e-06	-7.807216e-10	-8.085441e+00	-5.720466e+01
1.600000e-06	-1.117154e-06	-7.640469e-10	-7.767143e+00	-5.635232e+01
1.610000e-06	-1.071254e-06	-7.470508e-10	-7.448017e+00	-5.548364e+01
1.620000e-06	-1.025208e-06	-7.318220e-10	-7.127872e+00	-5.459752e+01
1.630000e-06	-9.790917e-07	-7.193638e-10	-6.807246e+00	-5.369281e+01
1.640000e-06	-9.329608e-07	-7.090534e-10	-6.486516e+00	-5.276831e+01
1.650000e-06	-8.868055e-07	-6.992383e-10	-6.165615e+00	-5.182274e+01
1.660000e-06	-8.405441e-07	-6.875837e-10	-5.843978e+00	-5.085479e+01
1.670000e-06	-7.941815e-07	-6.720073e-10	-5.521637e+00	-4.986312e+01
1.680000e-06	-7.478251e-07	-6.527066e-10	-5.199339e+00	-4.884635e+01
1.690000e-06	-7.015053e-07	-6.316830e-10	-4.877295e+00	-4.780307e+01
1.700000e-06	-6.550572e-07	-6.089002e-10	-4.554359e+00	-4.673190e+01
1.710000e-06	-6.085099e-07	-5.869601e-10	-4.230734e+00	-4.563143e+01
1.720000e-06	-5.619699e-07	-5.679823e-10	-3.907159e+00	-4.450030e+01
1.730000e-06	-5.153562e-07	-5.517410e-10	-3.583073e+00	-4.333716e+01
1.740000e-06	-4.687034e-07	-5.373417e-10	-3.258714e+00	-4.214072e+01
1.750000e-06	-4.220217e-07	-5.211005e-10	-2.934154e+00	-4.090973e+01
1.760000e-06	-3.752804e-07	-5.013074e-10	-2.609179e+00	-3.964302e+01
1.770000e-06	-3.284343e-07	-4.789150e-10	-2.283476e+00	-3.833951e+01
1.780000e-06	-2.815703e-07	-4.556669e-10	-1.957650e+00	-3.699822e+01
1.790000e-06	-2.347496e-07	-4.320605e-10	-1.632123e+00	-3.561825e+01
1.800000e-06	-1.878701e-07	-4.095380e-10	-1.306188e+00	-3.419885e+01
1.810000e-06	-1.410525e-07	-3.906416e-10	-9.806833e-01	-3.273939e+01
1.820000e-06	-9.428351e-08	-3.745120e-10	-6.555168e-01	-3.123938e+01
1.830000e-06	-4.746820e-08	-3.575144e-10	-3.300280e-01	-2.969849e+01
1.840000e-06	-6.827047e-10	-3.396200e-10	-4.746582e-03	-2.811655e+01
1.850000e-06	4.610379e-08	-3.198701e-10	3.205418e-01	-2.649355e+01
1.860000e-06	9.294896e-08	-2.972580e-10	6.462382e-01	-2.482966e+01
1.870000e-06	1.398318e-07	-2.717462e-10	9.721963e-01	-2.312522e+01
1.880000e-06	1.866087e-07	-2.450457e-10	1.297418e+00	-2.138078e+01
1.890000e-06	2.332943e-07	-2.187695e-10	1.622005e+00	-1.959704e+01
1.900000e-06	2.800048e-07	-1.945569e-10	1.946765e+00	-1.777492e+01
1.910000e-06	3.267290e-07	-1.723541e-10	2.271621e+00	-1.591552e+01
1.920000e-06	3.734482e-07	-1.493225e-10	2.596441e+00	-1.402011e+01
1.930000e-06	4.201412e-07	-1.244545e-10	2.921079e+00	-1.209016e+01
1.940000e-06	4.668945e-07	-9.914429e-11	3.246137e+00	-1.012730e+01
1.950000e-06	5.136222e-07	-7.051230e-11	3.571016e+00	-8.133371e+00
1.960000e-06	5.602410e-07	-3.870578e-11	3.895139e+00	-6.110337e+00
1.970000e-06	6.067943e-07	-8.150695e-12	4.218806e+00	-4.060340e+00
1.980000e-06	6.532755e-07	2.015529e-11	4.541972e+00	-1.985666e+00
1.990000e-06	6.997401e-07	4.849626e-11	4.865022e+00	1.112635e-01
2.000000e-06	7.461477e-07	7.698542e-11	5.187676e+00	2.227902e+00
2.010000e-06	7.924377e-07	1.043339e-10	5.509513e+00	4.361593e+00
2.020000e-06	8.386241e-07	1.340854e-10	5.830629e+00	6.509583e+00
2.030000e-06	8.847619e-07	1.667140e-10	6.151407e+00	8.669036e+00
2.040000e-06	9.308479e-07	1.984039e-10	6.471825e+00	1.083705e+01
2.050000e-06	9.768894e-07	2.274722e-10	6.791934e+00	1.301067e+01
2.060000e-06	1.022884e-06	2.552083e-10	7.111717e+00	1.518692e+01
2.070000e-06	1.068797e-06	2.822616e-10	7.430932e+00	1.736278e+01
2.080000e-06	1.114638e-06	3.098627e-10	7.749646e+00	1.953526e+01
2.090000e-06	1.160411e-06	3.402675e-10	8.067890e+00	2.170137e+01
2.100000e-06	1.206131e-06	3.728567e-10	8.385762e+00	2.385815e+01
2.110000e-06	1.251809e-06	4.054457e-10	8.703342e+00	2.600269e+01
2.120000e-06	1.297394e-06	4.372291e-10	9.020276e+00	2.813217e+01
2.130000e-06	1.342800e-06	4.671400e-10	9.335972e+00	3.024381e+01
2.140000e-06	1.388047e-06	4.937595e-10	9.650557e+00	3.233496e+01
2.150000e-06	1.433259e-06	5.174603e-10	9.964897e+00	3.440307e+01
2.160000e-06	1.478423e-06	5.402540e-10	1.027890e+01	3.644570e+01
2.170000e-06	1.523493e-06	5.638297e-10	1.059226e+01	3.846056e+01
2.180000e-06	1.568475e-06	5.906333e-10	1.090500e+01	4.044549e+01
2.190000e-06	1.613278e-06	6.202901e-10	1.121650e+01	4.239851e+01
2.200000e-06	1.657910e-06	6.512764e-10	1.152681e+01	4.431777e+01
2.210000e-06	1.702418e-06	6.814233e-10	1.183625e+01	4.620162e+01
2.220000e-06	1.746813e-06	7.080634e-10	1.214491e+01	4.804857e+01
2.230000e-06	1.791128e-06	7.302259e-10	1.245302e+01	4.985732e+01
2.240000e-06	1.835327e-06	7.480926e-10	1.276032e+01	5.162674e+01
2.250000e-06	1.879447e-06	7.637355e-10	1.306707e+01	5.335589e+01
2.260000e-06	1.923467e-06	7.814807e-10	1.337312e+01	5.504403e+01
2.270000e-06	1.967330e-06	8.036709e-10	1.367809e+01	5.669057e+01
2.280000e-06	2.011109e-06	8.282310e-10	1.398247e+01	5.829513e+01
2.290000e-06	2.054821e-06	8.541290e-10	1.428637e+01	5.985750e+01
2.300000e-06	2.098459e-06	8.807430e-10	1.458977e+01	6.137763e+01
2.310000e-06	2.142024e-06	9.049553e-10	1.489266e+01	6.285563e+01
2.320000e-06	2.185510e-06	9.230170e-10	1.519501e+01	6.429179e+01
2.330000e-06	2.228955e-06	9.343398e-10	1.549706e+01	6.568653e+01
2.340000e-06	2.272307e-06	9.446667e-10	1.579847e+01	6.704041e+01
2.350000e-06	2.315424e-06	9.589297e-10	1.609824e+01	6.835412e+01
2.360000e-06	2.358293e-06	9.784835e-10	1.639630e+01	6.962846e+01
2.370000e-06	2.400918e-06	1.001785e-09	1.669265e+01	7.086434e+01
2.380000e-06	2.443265e-06	1.025238e-09	1.698707e+01	7.206276e+01
2.390000e-06	2.485344e-06	1.045318e-09	1.727964e+01	7.322481e+01
2.400000e-06	2.527126e-06	1.060066e-09	1.757013e+01	7.435163e+01
2.410000e-06	2.568547e-06	1.071909e-09	1.785811e+01	7.544442e+01
2.420000e-06	2.609616e-06	1.082138e-09	1.814365e+01	7.650442e+01
2.430000e-06	2.650354e-06	1.092798e-09	1.842689e+01	7.753291e+01
2.440000e-06	2.690796e-06	1.107629e-09	1.870807e+01	7.853117e+01
2.450000e-06	2.731040e-06	1.124376e-09	1.898787e+01	7.950049e+01
2.460000e-06	2.771132e-06	1.142320e-09	1.926661e+01	8.044216e+01
2.470000e-06	2.811093e-06	1.159673e-09	1.954444e+01	8.135744e+01
2.480000e-06	2.850894e-06	1.174317e-09	1.982116e+01	8.224756e+01
2.490000e-06	2.890520e-06	1.185636e-09	2.009667e+01	8.311373e+01
2.500000e-06	2.930033e-06	1.193974e-09	2.037139e+01	8.395709e+01
2.510000e-06	2.969365e-06	1.204978e-09	2.064485e+01	8.477873e+01
2.520000e-06	3.008524e-06	1.217740e-09	2.091711e+01	8.557971e+01
2.530000e-06	3.047589e-06	1.233650e-09	2.118871e+01	8.636098e+01
2.540000e-06	3.086442e-06	1.250304e-09	2.145884e+01	8.712343e+01
2.550000e-06	3.124995e-06	1.262535e-09	2.172688e+01	8.786790e+01
2.560000e-06	3.163345e-06	1.269796e-09	2.199351e+01	8.859512e+01
2.570000e-06	3.201558e-06	1.274934e-09	2.225919e+01	8.930575e+01
2.580000e-06	3.239507e-06	1.280988e-09	2.252304e+01	9.000039e+01
2.590000e-06	3.277233e-06	1.289198e-09	2.278533e+01	9.067952e+01
2.600000e-06	3.314764e-06	1.302117e-09	2.304627e+01	9.134358e+01
2.610000e-06	3.352059e-06	1.318025e-09	2.330557e+01	9.199291e+01
2.620000e-06	3.389073e-06	1.335238e-09	2.356291e+01	9.262780e+01
2.630000e-06	3.425755e-06	1.347647e-09	2.381795e+01	9.324843e+01
2.640000e-06	3.462211e-06	1.353489e-09	2.407142e+01	9.385497e+01
2.650000e-06	3.498492e-06	1.357972e-09	2.432366e+01	9.444749e+01
2.660000e-06	3.534573e-06	1.361554e-09	2.457452e+01	9.502603e+01
2.670000e-06	3.570500e-06	1.366262e-09	2.482430e+01	9.559056e+01
2.680000e-06	3.606284e-06	1.373506e-09	2.507309e+01	9.614103e+01
2.690000e-06	3.641903e-06	1.384496e-09	2.532074e+01	9.667735e+01
2.700000e-06	3.677367e-06	1.396824e-09	2.556731e+01	9.719942e+01
2.710000e-06	3.712587e-06	1.404086e-09	2.581218e+01	9.770709e+01
2.720000e-06	3.747561e-06	1.408494e-09	2.605534e+01	9.820022e+01
2.730000e-06	3.782320e-06	1.410685e-09	2.629700e+01	9.867867e+01
2.740000e-06	3.816706e-06	1.413782e-09	2.653608e+01	9.914229e+01
2.750000e-06	3.850524e-06	1.417344e-09	2.677120e+01	9.959096e+01
2.760000e-06	3.883813e-06	1.421027e-09	2.700265e+01	1.000245e+02
2.770000e-06	3.916806e-06	1.426285e-09	2.723204e+01	1.004430e+02
2.780000e-06	3.949449e-06	1.433883e-09	2.745899e+01	1.008462e+02
2.790000e-06	3.981663e-06	1.443057e-09	2.768296e+01	1.012341e+02
2.800000e-06	4.013600e-06	1.450818e-09	2.790501e+01	1.016067e+02
2.810000e-06	4.045295e-06	1.456071e-09	2.812537e+01	1.019642e+02
2.820000e-06	4.076803e-06	1.460325e-09	2.834443e+01	1.023065e+02
2.830000e-06	4.108150e-06	1.464816e-09	2.856238e+01	1.026339e+02
2.840000e-06	4.139311e-06	1.467597e-09	2.877903e+01	1.029464e+02
2.850000e-06	4.170242e-06	1.470589e-09	2.899408e+01	1.032444e+02
2.860000e-06	4.200863e-06	1.475418e-09	2.920697e+01	1.035282e+02
2.870000e-06	4.231172e-06	1.481493e-09	2.941770e+01	1.037980e+02
2.880000e-06	4.261204e-06	1.487360e-09	2.962650e+01	1.040542e+02
2.890000e-06	4.290909e-06	1.492353e-09	2.983303e+01	1.042974e+02
2.900000e-06	4.320298e-06	1.497884e-09	3.003736e+01	1.045279e+02
