# Temperatura_=_12.5
# Concentracion g/m^3_=_1620.0
# C_Vs_to_Am_M_A/Vsm_=_65563218390.804596
# pendiente_HvsI_1/m_=_3716.3
# ordenada_HvsI_A/m_=_1297.0
# frecuencia_Hz_=_135108.13290538473

Tiempo_(s)	Campo_(V.s)	Magnetizacion_(V.s)	Campo_(kA/m)	Magnetizacion_(A/m)
0.000000e+00	-5.527055e-06	-1.803019e-09	-3.837705e+01	-1.161243e+02
1.000000e-08	-5.527251e-06	-1.805267e-09	-3.837842e+01	-1.161157e+02
2.000000e-08	-5.527165e-06	-1.811071e-09	-3.837782e+01	-1.161056e+02
3.000000e-08	-5.526741e-06	-1.813065e-09	-3.837488e+01	-1.160934e+02
4.000000e-08	-5.525821e-06	-1.810496e-09	-3.836849e+01	-1.160788e+02
5.000000e-08	-5.524313e-06	-1.805440e-09	-3.835802e+01	-1.160611e+02
6.000000e-08	-5.522243e-06	-1.803709e-09	-3.834365e+01	-1.160400e+02
7.000000e-08	-5.519550e-06	-1.826557e-09	-3.832495e+01	-1.160149e+02
8.000000e-08	-5.516266e-06	-1.822330e-09	-3.830214e+01	-1.159852e+02
9.000000e-08	-5.512557e-06	-1.743352e-09	-3.827639e+01	-1.159505e+02
1.000000e-07	-5.508488e-06	-1.719230e-09	-3.824814e+01	-1.159103e+02
1.100000e-07	-5.504107e-06	-1.808612e-09	-3.821772e+01	-1.158642e+02
1.200000e-07	-5.499487e-06	-1.855548e-09	-3.818564e+01	-1.158116e+02
1.300000e-07	-5.494636e-06	-1.761904e-09	-3.815195e+01	-1.157522e+02
1.400000e-07	-5.489495e-06	-1.684896e-09	-3.811626e+01	-1.156856e+02
1.500000e-07	-5.483961e-06	-1.799123e-09	-3.807784e+01	-1.156114e+02
1.600000e-07	-5.477928e-06	-1.869684e-09	-3.803594e+01	-1.155294e+02
1.700000e-07	-5.471490e-06	-1.786746e-09	-3.799124e+01	-1.154393e+02
1.800000e-07	-5.464684e-06	-1.668467e-09	-3.794398e+01	-1.153409e+02
1.900000e-07	-5.457508e-06	-1.750895e-09	-3.789416e+01	-1.152340e+02
2.000000e-07	-5.450010e-06	-1.820180e-09	-3.784209e+01	-1.151187e+02
2.100000e-07	-5.442277e-06	-1.777792e-09	-3.778840e+01	-1.149947e+02
2.200000e-07	-5.434282e-06	-1.693563e-09	-3.773289e+01	-1.148622e+02
2.300000e-07	-5.425914e-06	-1.730763e-09	-3.767478e+01	-1.147211e+02
2.400000e-07	-5.417111e-06	-1.775189e-09	-3.761366e+01	-1.145717e+02
2.500000e-07	-5.407766e-06	-1.744508e-09	-3.754878e+01	-1.144141e+02
2.600000e-07	-5.397730e-06	-1.692883e-09	-3.747909e+01	-1.142486e+02
2.700000e-07	-5.387097e-06	-1.706771e-09	-3.740526e+01	-1.140753e+02
2.800000e-07	-5.375995e-06	-1.746187e-09	-3.732817e+01	-1.138947e+02
2.900000e-07	-5.364390e-06	-1.721775e-09	-3.724760e+01	-1.137071e+02
3.000000e-07	-5.352307e-06	-1.692573e-09	-3.716370e+01	-1.135129e+02
3.100000e-07	-5.339811e-06	-1.690028e-09	-3.707693e+01	-1.133125e+02
3.200000e-07	-5.326994e-06	-1.734127e-09	-3.698793e+01	-1.131064e+02
3.300000e-07	-5.313829e-06	-1.703453e-09	-3.689652e+01	-1.128951e+02
3.400000e-07	-5.300243e-06	-1.680656e-09	-3.680219e+01	-1.126791e+02
3.500000e-07	-5.286228e-06	-1.696139e-09	-3.670488e+01	-1.124589e+02
3.600000e-07	-5.271891e-06	-1.739965e-09	-3.660533e+01	-1.122350e+02
3.700000e-07	-5.257083e-06	-1.688454e-09	-3.650251e+01	-1.120080e+02
3.800000e-07	-5.241750e-06	-1.685726e-09	-3.639605e+01	-1.117784e+02
3.900000e-07	-5.225876e-06	-1.720848e-09	-3.628582e+01	-1.115467e+02
4.000000e-07	-5.209441e-06	-1.698195e-09	-3.617171e+01	-1.113133e+02
4.100000e-07	-5.192664e-06	-1.634998e-09	-3.605521e+01	-1.110788e+02
4.200000e-07	-5.175594e-06	-1.706387e-09	-3.593669e+01	-1.108436e+02
4.300000e-07	-5.158231e-06	-1.744528e-09	-3.581613e+01	-1.106080e+02
4.400000e-07	-5.140569e-06	-1.662639e-09	-3.569350e+01	-1.103725e+02
4.500000e-07	-5.122462e-06	-1.650721e-09	-3.556777e+01	-1.101374e+02
4.600000e-07	-5.103950e-06	-1.739737e-09	-3.543923e+01	-1.099030e+02
4.700000e-07	-5.085126e-06	-1.690036e-09	-3.530853e+01	-1.096694e+02
4.800000e-07	-5.065877e-06	-1.620289e-09	-3.517487e+01	-1.094370e+02
4.900000e-07	-5.046278e-06	-1.684968e-09	-3.503879e+01	-1.092058e+02
5.000000e-07	-5.026512e-06	-1.697927e-09	-3.490154e+01	-1.089759e+02
5.100000e-07	-5.006517e-06	-1.613745e-09	-3.476271e+01	-1.087474e+02
5.200000e-07	-4.986238e-06	-1.651401e-09	-3.462190e+01	-1.085203e+02
5.300000e-07	-4.965681e-06	-1.709040e-09	-3.447916e+01	-1.082943e+02
5.400000e-07	-4.944711e-06	-1.628145e-09	-3.433356e+01	-1.080695e+02
5.500000e-07	-4.923339e-06	-1.611258e-09	-3.418516e+01	-1.078457e+02
5.600000e-07	-4.901619e-06	-1.690444e-09	-3.403435e+01	-1.076226e+02
5.700000e-07	-4.879553e-06	-1.658102e-09	-3.388113e+01	-1.074000e+02
5.800000e-07	-4.857182e-06	-1.594207e-09	-3.372580e+01	-1.071775e+02
5.900000e-07	-4.834477e-06	-1.649023e-09	-3.356815e+01	-1.069549e+02
6.000000e-07	-4.811430e-06	-1.654202e-09	-3.340812e+01	-1.067318e+02
6.100000e-07	-4.788094e-06	-1.591551e-09	-3.324609e+01	-1.065077e+02
6.200000e-07	-4.764506e-06	-1.603289e-09	-3.308230e+01	-1.062822e+02
6.300000e-07	-4.740659e-06	-1.640670e-09	-3.291673e+01	-1.060550e+02
6.400000e-07	-4.716529e-06	-1.597907e-09	-3.274918e+01	-1.058255e+02
6.500000e-07	-4.691993e-06	-1.595242e-09	-3.257881e+01	-1.055933e+02
6.600000e-07	-4.666936e-06	-1.625871e-09	-3.240483e+01	-1.053579e+02
6.700000e-07	-4.641419e-06	-1.604959e-09	-3.222765e+01	-1.051190e+02
6.800000e-07	-4.615394e-06	-1.570713e-09	-3.204695e+01	-1.048760e+02
6.900000e-07	-4.588887e-06	-1.592189e-09	-3.186289e+01	-1.046286e+02
7.000000e-07	-4.561992e-06	-1.585051e-09	-3.167615e+01	-1.043763e+02
7.100000e-07	-4.534778e-06	-1.559443e-09	-3.148719e+01	-1.041187e+02
7.200000e-07	-4.507297e-06	-1.568082e-09	-3.129638e+01	-1.038556e+02
7.300000e-07	-4.479581e-06	-1.584595e-09	-3.110393e+01	-1.035865e+02
7.400000e-07	-4.451718e-06	-1.564104e-09	-3.091046e+01	-1.033113e+02
7.500000e-07	-4.423654e-06	-1.557413e-09	-3.071560e+01	-1.030297e+02
7.600000e-07	-4.395236e-06	-1.561180e-09	-3.051828e+01	-1.027415e+02
7.700000e-07	-4.366433e-06	-1.549126e-09	-3.031829e+01	-1.024464e+02
7.800000e-07	-4.337367e-06	-1.532194e-09	-3.011647e+01	-1.021446e+02
7.900000e-07	-4.308065e-06	-1.531866e-09	-2.991301e+01	-1.018357e+02
8.000000e-07	-4.278440e-06	-1.522855e-09	-2.970731e+01	-1.015199e+02
8.100000e-07	-4.248500e-06	-1.512196e-09	-2.949942e+01	-1.011972e+02
8.200000e-07	-4.218241e-06	-1.513388e-09	-2.928932e+01	-1.008676e+02
8.300000e-07	-4.187679e-06	-1.505545e-09	-2.907711e+01	-1.005312e+02
8.400000e-07	-4.156869e-06	-1.490847e-09	-2.886318e+01	-1.001883e+02
8.500000e-07	-4.125809e-06	-1.489395e-09	-2.864752e+01	-9.983889e+01
8.600000e-07	-4.094440e-06	-1.490421e-09	-2.842971e+01	-9.948330e+01
8.700000e-07	-4.062807e-06	-1.475243e-09	-2.821006e+01	-9.912174e+01
8.800000e-07	-4.031060e-06	-1.468890e-09	-2.798963e+01	-9.875450e+01
8.900000e-07	-3.999128e-06	-1.465870e-09	-2.776791e+01	-9.838187e+01
9.000000e-07	-3.966911e-06	-1.454939e-09	-2.754421e+01	-9.800415e+01
9.100000e-07	-3.934459e-06	-1.444783e-09	-2.731888e+01	-9.762167e+01
9.200000e-07	-3.901647e-06	-1.447328e-09	-2.709105e+01	-9.723475e+01
9.300000e-07	-3.868419e-06	-1.438183e-09	-2.686033e+01	-9.684372e+01
9.400000e-07	-3.834772e-06	-1.429769e-09	-2.662670e+01	-9.644890e+01
9.500000e-07	-3.800603e-06	-1.430800e-09	-2.638945e+01	-9.605061e+01
9.600000e-07	-3.766066e-06	-1.427779e-09	-2.614965e+01	-9.564914e+01
9.700000e-07	-3.731219e-06	-1.408654e-09	-2.590769e+01	-9.524477e+01
9.800000e-07	-3.696016e-06	-1.401680e-09	-2.566325e+01	-9.483777e+01
9.900000e-07	-3.660528e-06	-1.399296e-09	-2.541684e+01	-9.442837e+01
1.000000e-06	-3.624827e-06	-1.390653e-09	-2.516895e+01	-9.401676e+01
1.010000e-06	-3.588963e-06	-1.380658e-09	-2.491993e+01	-9.360312e+01
1.020000e-06	-3.552998e-06	-1.381670e-09	-2.467021e+01	-9.318756e+01
1.030000e-06	-3.516923e-06	-1.375862e-09	-2.441972e+01	-9.277018e+01
1.040000e-06	-3.480660e-06	-1.367862e-09	-2.416793e+01	-9.235103e+01
1.050000e-06	-3.444125e-06	-1.366201e-09	-2.391425e+01	-9.193010e+01
1.060000e-06	-3.407381e-06	-1.364041e-09	-2.365912e+01	-9.150737e+01
1.070000e-06	-3.370385e-06	-1.352495e-09	-2.340223e+01	-9.108274e+01
1.080000e-06	-3.333018e-06	-1.345565e-09	-2.314278e+01	-9.065610e+01
1.090000e-06	-3.295447e-06	-1.339248e-09	-2.288191e+01	-9.022727e+01
1.100000e-06	-3.257667e-06	-1.324743e-09	-2.261958e+01	-8.979605e+01
1.110000e-06	-3.219641e-06	-1.309510e-09	-2.235555e+01	-8.936218e+01
1.120000e-06	-3.181379e-06	-1.298421e-09	-2.208987e+01	-8.892539e+01
1.130000e-06	-3.142855e-06	-1.288352e-09	-2.182239e+01	-8.848535e+01
1.140000e-06	-3.104086e-06	-1.279173e-09	-2.155319e+01	-8.804172e+01
1.150000e-06	-3.065164e-06	-1.280843e-09	-2.128294e+01	-8.759412e+01
1.160000e-06	-3.026111e-06	-1.281701e-09	-2.101178e+01	-8.714216e+01
1.170000e-06	-2.986823e-06	-1.274898e-09	-2.073898e+01	-8.668542e+01
1.180000e-06	-2.947343e-06	-1.263004e-09	-2.046485e+01	-8.622347e+01
1.190000e-06	-2.907720e-06	-1.252487e-09	-2.018973e+01	-8.575588e+01
1.200000e-06	-2.867941e-06	-1.237944e-09	-1.991352e+01	-8.528221e+01
1.210000e-06	-2.827997e-06	-1.226491e-09	-1.963617e+01	-8.480201e+01
1.220000e-06	-2.787918e-06	-1.221460e-09	-1.935788e+01	-8.431485e+01
1.230000e-06	-2.747695e-06	-1.216665e-09	-1.907859e+01	-8.382030e+01
1.240000e-06	-2.707401e-06	-1.206211e-09	-1.879881e+01	-8.331794e+01
1.250000e-06	-2.666887e-06	-1.198817e-09	-1.851751e+01	-8.280738e+01
1.260000e-06	-2.625943e-06	-1.192065e-09	-1.823321e+01	-8.228824e+01
1.270000e-06	-2.584712e-06	-1.182290e-09	-1.794692e+01	-8.176016e+01
1.280000e-06	-2.543283e-06	-1.168352e-09	-1.765926e+01	-8.122282e+01
1.290000e-06	-2.501643e-06	-1.159421e-09	-1.737013e+01	-8.067591e+01
1.300000e-06	-2.459701e-06	-1.147967e-09	-1.707891e+01	-8.011917e+01
1.310000e-06	-2.417372e-06	-1.133955e-09	-1.678500e+01	-7.955236e+01
1.320000e-06	-2.374696e-06	-1.124415e-09	-1.648868e+01	-7.897526e+01
1.330000e-06	-2.331799e-06	-1.115654e-09	-1.619083e+01	-7.838769e+01
1.340000e-06	-2.288758e-06	-1.105269e-09	-1.589197e+01	-7.778950e+01
1.350000e-06	-2.245536e-06	-1.099749e-09	-1.559186e+01	-7.718058e+01
1.360000e-06	-2.202159e-06	-1.097180e-09	-1.529067e+01	-7.656082e+01
1.370000e-06	-2.158617e-06	-1.090750e-09	-1.498834e+01	-7.593014e+01
1.380000e-06	-2.114885e-06	-1.079578e-09	-1.468468e+01	-7.528850e+01
1.390000e-06	-2.071047e-06	-1.065853e-09	-1.438030e+01	-7.463586e+01
1.400000e-06	-2.027139e-06	-1.047084e-09	-1.407542e+01	-7.397218e+01
1.410000e-06	-1.983170e-06	-1.029020e-09	-1.377013e+01	-7.329744e+01
1.420000e-06	-1.939141e-06	-1.016671e-09	-1.346441e+01	-7.261162e+01
1.430000e-06	-1.895002e-06	-1.006055e-09	-1.315793e+01	-7.191471e+01
1.440000e-06	-1.850765e-06	-9.953752e-10	-1.285077e+01	-7.120665e+01
1.450000e-06	-1.806470e-06	-9.851035e-10	-1.254321e+01	-7.048740e+01
1.460000e-06	-1.762125e-06	-9.737902e-10	-1.223530e+01	-6.975688e+01
1.470000e-06	-1.717651e-06	-9.580091e-10	-1.192650e+01	-6.901500e+01
1.480000e-06	-1.672996e-06	-9.438514e-10	-1.161643e+01	-6.826161e+01
1.490000e-06	-1.628173e-06	-9.320334e-10	-1.130521e+01	-6.749654e+01
1.500000e-06	-1.583250e-06	-9.193377e-10	-1.099328e+01	-6.671956e+01
1.510000e-06	-1.538221e-06	-9.035915e-10	-1.068062e+01	-6.593041e+01
1.520000e-06	-1.493052e-06	-8.895441e-10	-1.036699e+01	-6.512876e+01
1.530000e-06	-1.447809e-06	-8.760436e-10	-1.005285e+01	-6.431422e+01
1.540000e-06	-1.402474e-06	-8.631614e-10	-9.738063e+00	-6.348634e+01
1.550000e-06	-1.357050e-06	-8.521690e-10	-9.422663e+00	-6.264461e+01
1.560000e-06	-1.311559e-06	-8.409385e-10	-9.106797e+00	-6.178843e+01
1.570000e-06	-1.266006e-06	-8.251368e-10	-8.790500e+00	-6.091717e+01
1.580000e-06	-1.220352e-06	-8.092504e-10	-8.473504e+00	-6.003009e+01
1.590000e-06	-1.174554e-06	-7.909505e-10	-8.155502e+00	-5.912641e+01
1.600000e-06	-1.128622e-06	-7.715741e-10	-7.836578e+00	-5.820527e+01
1.610000e-06	-1.082635e-06	-7.538996e-10	-7.517263e+00	-5.726573e+01
1.620000e-06	-1.036571e-06	-7.375727e-10	-7.197421e+00	-5.630682e+01
1.630000e-06	-9.904414e-07	-7.233840e-10	-6.877121e+00	-5.532748e+01
1.640000e-06	-9.443055e-07	-7.125493e-10	-6.556776e+00	-5.432662e+01
1.650000e-06	-8.981459e-07	-7.022906e-10	-6.236268e+00	-5.330309e+01
1.660000e-06	-8.519256e-07	-6.902771e-10	-5.915338e+00	-5.225570e+01
1.670000e-06	-8.055939e-07	-6.754627e-10	-5.593634e+00	-5.118324e+01
1.680000e-06	-7.592011e-07	-6.566292e-10	-5.271506e+00	-5.008445e+01
1.690000e-06	-7.127265e-07	-6.371831e-10	-4.948810e+00	-4.895809e+01
1.700000e-06	-6.661684e-07	-6.155574e-10	-4.625534e+00	-4.780290e+01
1.710000e-06	-6.195225e-07	-5.921597e-10	-4.301649e+00	-4.661761e+01
1.720000e-06	-5.727886e-07	-5.688188e-10	-3.977153e+00	-4.540100e+01
1.730000e-06	-5.260971e-07	-5.480153e-10	-3.652950e+00	-4.415185e+01
1.740000e-06	-4.794292e-07	-5.324126e-10	-3.328913e+00	-4.286900e+01
1.750000e-06	-4.326753e-07	-5.190231e-10	-3.004277e+00	-4.155133e+01
1.760000e-06	-3.858530e-07	-5.015628e-10	-2.679167e+00	-4.019781e+01
1.770000e-06	-3.389949e-07	-4.792734e-10	-2.353808e+00	-3.880746e+01
1.780000e-06	-2.921018e-07	-4.533332e-10	-2.028206e+00	-3.737939e+01
1.790000e-06	-2.451763e-07	-4.296715e-10	-1.702380e+00	-3.591284e+01
1.800000e-06	-1.982315e-07	-4.106001e-10	-1.376418e+00	-3.440714e+01
1.810000e-06	-1.513020e-07	-3.922090e-10	-1.050564e+00	-3.286174e+01
1.820000e-06	-1.043847e-07	-3.738130e-10	-7.247940e-01	-3.127623e+01
1.830000e-06	-5.746680e-08	-3.552421e-10	-3.990202e-01	-2.965035e+01
1.840000e-06	-1.060282e-08	-3.339854e-10	-7.362059e-02	-2.798399e+01
1.850000e-06	3.618944e-08	-3.122219e-10	2.512810e-01	-2.627718e+01
1.860000e-06	8.299722e-08	-2.909490e-10	5.762904e-01	-2.453014e+01
1.870000e-06	1.298489e-07	-2.668574e-10	9.016046e-01	-2.274324e+01
1.880000e-06	1.767010e-07	-2.407090e-10	1.226922e+00	-2.091705e+01
1.890000e-06	2.235419e-07	-2.144034e-10	1.552161e+00	-1.905229e+01
1.900000e-06	2.703950e-07	-1.856146e-10	1.877485e+00	-1.714988e+01
1.910000e-06	3.172739e-07	-1.546749e-10	2.202989e+00	-1.521091e+01
1.920000e-06	3.641425e-07	-1.230392e-10	2.528420e+00	-1.323666e+01
1.930000e-06	4.109819e-07	-9.418859e-11	2.853649e+00	-1.122857e+01
1.940000e-06	4.578061e-07	-6.908223e-11	3.178773e+00	-9.188272e+00
1.950000e-06	5.045579e-07	-4.482161e-11	3.503394e+00	-7.117548e+00
1.960000e-06	5.511883e-07	-1.802728e-11	3.827171e+00	-5.018354e+00
1.970000e-06	5.977474e-07	1.254660e-11	4.150454e+00	-2.892794e+00
1.980000e-06	6.442832e-07	4.404375e-11	4.473574e+00	-7.431186e-01
1.990000e-06	6.908252e-07	7.733935e-11	4.796738e+00	1.428288e+00
2.000000e-06	7.373724e-07	1.102405e-10	5.119939e+00	3.618917e+00
2.010000e-06	7.838541e-07	1.404341e-10	5.442684e+00	5.826151e+00
2.020000e-06	8.301948e-07	1.722416e-10	5.764450e+00	8.047275e+00
2.030000e-06	8.764040e-07	2.060923e-10	6.085303e+00	1.027949e+01
2.040000e-06	9.225848e-07	2.392105e-10	6.405959e+00	1.251992e+01
2.050000e-06	9.687275e-07	2.711945e-10	6.726351e+00	1.476565e+01
2.060000e-06	1.014833e-06	3.028636e-10	7.046484e+00	1.701373e+01
2.070000e-06	1.060908e-06	3.347928e-10	7.366405e+00	1.926116e+01
2.080000e-06	1.106982e-06	3.641465e-10	7.686318e+00	2.150496e+01
2.090000e-06	1.152938e-06	3.937810e-10	8.005415e+00	2.374216e+01
2.100000e-06	1.198683e-06	4.251361e-10	8.323042e+00	2.596980e+01
2.110000e-06	1.244344e-06	4.571707e-10	8.640093e+00	2.818499e+01
2.120000e-06	1.289917e-06	4.891356e-10	8.956530e+00	3.038488e+01
2.130000e-06	1.335458e-06	5.207571e-10	9.272738e+00	3.256669e+01
2.140000e-06	1.380952e-06	5.510714e-10	9.588630e+00	3.472774e+01
2.150000e-06	1.426313e-06	5.781356e-10	9.903594e+00	3.686545e+01
2.160000e-06	1.471525e-06	6.030018e-10	1.021752e+01	3.897735e+01
2.170000e-06	1.516593e-06	6.268752e-10	1.053045e+01	4.106111e+01
2.180000e-06	1.561574e-06	6.528973e-10	1.084277e+01	4.311452e+01
2.190000e-06	1.606492e-06	6.827143e-10	1.115466e+01	4.513554e+01
2.200000e-06	1.651321e-06	7.150574e-10	1.146593e+01	4.712227e+01
2.210000e-06	1.696001e-06	7.486165e-10	1.177617e+01	4.907298e+01
2.220000e-06	1.740479e-06	7.804396e-10	1.208500e+01	5.098611e+01
2.230000e-06	1.784789e-06	8.080079e-10	1.239266e+01	5.286028e+01
2.240000e-06	1.829066e-06	8.305902e-10	1.270011e+01	5.469428e+01
2.250000e-06	1.873269e-06	8.487211e-10	1.300703e+01	5.648709e+01
2.260000e-06	1.917258e-06	8.657660e-10	1.331247e+01	5.823786e+01
2.270000e-06	1.961113e-06	8.850915e-10	1.361697e+01	5.994593e+01
2.280000e-06	2.004916e-06	9.062963e-10	1.392112e+01	6.161081e+01
2.290000e-06	2.048688e-06	9.272315e-10	1.422505e+01	6.323221e+01
2.300000e-06	2.092392e-06	9.504315e-10	1.452851e+01	6.480997e+01
2.310000e-06	2.136031e-06	9.752448e-10	1.483151e+01	6.634414e+01
2.320000e-06	2.179620e-06	9.974764e-10	1.513417e+01	6.783489e+01
2.330000e-06	2.223098e-06	1.016204e-09	1.543606e+01	6.928255e+01
2.340000e-06	2.266372e-06	1.033133e-09	1.573653e+01	7.068761e+01
2.350000e-06	2.309471e-06	1.049405e-09	1.603579e+01	7.205068e+01
2.360000e-06	2.352461e-06	1.064663e-09	1.633429e+01	7.337249e+01
2.370000e-06	2.395262e-06	1.082090e-09	1.663148e+01	7.465387e+01
2.380000e-06	2.437703e-06	1.102334e-09	1.692617e+01	7.589578e+01
2.390000e-06	2.479875e-06	1.121885e-09	1.721899e+01	7.709923e+01
2.400000e-06	2.521835e-06	1.139867e-09	1.751034e+01	7.826534e+01
2.410000e-06	2.563458e-06	1.156283e-09	1.779935e+01	7.939527e+01
2.420000e-06	2.604889e-06	1.170049e-09	1.808702e+01	8.049024e+01
2.430000e-06	2.646052e-06	1.183132e-09	1.837284e+01	8.155151e+01
2.440000e-06	2.686848e-06	1.197408e-09	1.865610e+01	8.258036e+01
2.450000e-06	2.727346e-06	1.212622e-09	1.893730e+01	8.357811e+01
2.460000e-06	2.767579e-06	1.228448e-09	1.921666e+01	8.454604e+01
2.470000e-06	2.807621e-06	1.241666e-09	1.949469e+01	8.548547e+01
2.480000e-06	2.847524e-06	1.252540e-09	1.977176e+01	8.639767e+01
2.490000e-06	2.887314e-06	1.263837e-09	2.004804e+01	8.728391e+01
2.500000e-06	2.926991e-06	1.276387e-09	2.032353e+01	8.814541e+01
2.510000e-06	2.966526e-06	1.292315e-09	2.059805e+01	8.898335e+01
2.520000e-06	3.005858e-06	1.306943e-09	2.087115e+01	8.979887e+01
2.530000e-06	3.045018e-06	1.321006e-09	2.114305e+01	9.059305e+01
2.540000e-06	3.084001e-06	1.335115e-09	2.141373e+01	9.136691e+01
2.550000e-06	3.122697e-06	1.345392e-09	2.168242e+01	9.212140e+01
2.560000e-06	3.161101e-06	1.353132e-09	2.194908e+01	9.285741e+01
2.570000e-06	3.199244e-06	1.359698e-09	2.221392e+01	9.357576e+01
2.580000e-06	3.237140e-06	1.365215e-09	2.247705e+01	9.427720e+01
2.590000e-06	3.274897e-06	1.371091e-09	2.273922e+01	9.496242e+01
2.600000e-06	3.312541e-06	1.381913e-09	2.300060e+01	9.563201e+01
2.610000e-06	3.349960e-06	1.396838e-09	2.326042e+01	9.628651e+01
2.620000e-06	3.387139e-06	1.414546e-09	2.351857e+01	9.692640e+01
2.630000e-06	3.424114e-06	1.428433e-09	2.377531e+01	9.755208e+01
2.640000e-06	3.460725e-06	1.436267e-09	2.402951e+01	9.816391e+01
2.650000e-06	3.496964e-06	1.442445e-09	2.428114e+01	9.876216e+01
2.660000e-06	3.533030e-06	1.449003e-09	2.453156e+01	9.934708e+01
2.670000e-06	3.568964e-06	1.455061e-09	2.478107e+01	9.991885e+01
2.680000e-06	3.604770e-06	1.461785e-09	2.502969e+01	1.004776e+02
2.690000e-06	3.640417e-06	1.472612e-09	2.527720e+01	1.010235e+02
2.700000e-06	3.675870e-06	1.484753e-09	2.552337e+01	1.015566e+02
2.710000e-06	3.711142e-06	1.493351e-09	2.576828e+01	1.020770e+02
2.720000e-06	3.746221e-06	1.499230e-09	2.601185e+01	1.025846e+02
2.730000e-06	3.781083e-06	1.503633e-09	2.625391e+01	1.030796e+02
2.740000e-06	3.815528e-06	1.506499e-09	2.649308e+01	1.035619e+02
2.750000e-06	3.849498e-06	1.508541e-09	2.672896e+01	1.040316e+02
2.760000e-06	3.883035e-06	1.511498e-09	2.696182e+01	1.044886e+02
2.770000e-06	3.916039e-06	1.517713e-09	2.719098e+01	1.049331e+02
2.780000e-06	3.948628e-06	1.526714e-09	2.741727e+01	1.053650e+02
2.790000e-06	3.980906e-06	1.536101e-09	2.764139e+01	1.057844e+02
2.800000e-06	4.012908e-06	1.544581e-09	2.786359e+01	1.061914e+02
2.810000e-06	4.044678e-06	1.550829e-09	2.808418e+01	1.065861e+02
2.820000e-06	4.076290e-06	1.555674e-09	2.830368e+01	1.069686e+02
2.830000e-06	4.107758e-06	1.562179e-09	2.852218e+01	1.073390e+02
2.840000e-06	4.139013e-06	1.569443e-09	2.873920e+01	1.076976e+02
2.850000e-06	4.170033e-06	1.576523e-09	2.895459e+01	1.080445e+02
2.860000e-06	4.200698e-06	1.583346e-09	2.916751e+01	1.083801e+02
2.870000e-06	4.231019e-06	1.590224e-09	2.937804e+01	1.087044e+02
2.880000e-06	4.261047e-06	1.595099e-09	2.958654e+01	1.090180e+02
2.890000e-06	4.290765e-06	1.598097e-09	2.979289e+01	1.093209e+02
2.900000e-06	4.320238e-06	1.601493e-09	2.999754e+01	1.096137e+02
