# Temperatura_=_-20.2
# Concentracion g/m^3_=_1620.0
# C_Vs_to_Am_M_A/Vsm_=_65563218390.804596
# pendiente_HvsI_1/m_=_3716.3
# ordenada_HvsI_A/m_=_1297.0
# frecuencia_Hz_=_135094.92103072375

Tiempo_(s)	Campo_(V.s)	Magnetizacion_(V.s)	Campo_(kA/m)	Magnetizacion_(A/m)
0.000000e+00	-5.513488e-06	-1.154558e-09	-3.837610e+01	-7.412865e+01
1.000000e-08	-5.513553e-06	-1.152364e-09	-3.837655e+01	-7.411982e+01
2.000000e-08	-5.513443e-06	-1.153245e-09	-3.837579e+01	-7.411296e+01
3.000000e-08	-5.512942e-06	-1.154362e-09	-3.837230e+01	-7.410801e+01
4.000000e-08	-5.512010e-06	-1.152976e-09	-3.836582e+01	-7.410488e+01
5.000000e-08	-5.510538e-06	-1.149274e-09	-3.835557e+01	-7.410347e+01
6.000000e-08	-5.508418e-06	-1.141356e-09	-3.834082e+01	-7.410362e+01
7.000000e-08	-5.505697e-06	-1.136633e-09	-3.832187e+01	-7.410520e+01
8.000000e-08	-5.502426e-06	-1.146504e-09	-3.829910e+01	-7.410802e+01
9.000000e-08	-5.498733e-06	-1.179894e-09	-3.827340e+01	-7.411190e+01
1.000000e-07	-5.494570e-06	-1.218296e-09	-3.824442e+01	-7.411664e+01
1.100000e-07	-5.490033e-06	-1.137763e-09	-3.821284e+01	-7.412203e+01
1.200000e-07	-5.485372e-06	-1.102938e-09	-3.818041e+01	-7.412786e+01
1.300000e-07	-5.480502e-06	-1.112580e-09	-3.814650e+01	-7.413391e+01
1.400000e-07	-5.475154e-06	-1.171771e-09	-3.810928e+01	-7.413997e+01
1.500000e-07	-5.469386e-06	-1.162130e-09	-3.806913e+01	-7.414582e+01
1.600000e-07	-5.463308e-06	-1.121977e-09	-3.802683e+01	-7.415125e+01
1.700000e-07	-5.456889e-06	-1.160949e-09	-3.798215e+01	-7.415608e+01
1.800000e-07	-5.449969e-06	-1.142385e-09	-3.793398e+01	-7.416011e+01
1.900000e-07	-5.442634e-06	-1.156724e-09	-3.788293e+01	-7.416319e+01
2.000000e-07	-5.435125e-06	-1.110343e-09	-3.783067e+01	-7.416516e+01
2.100000e-07	-5.427378e-06	-1.168013e-09	-3.777674e+01	-7.416589e+01
2.200000e-07	-5.419323e-06	-1.161934e-09	-3.772068e+01	-7.416526e+01
2.300000e-07	-5.411067e-06	-1.192634e-09	-3.766321e+01	-7.416320e+01
2.400000e-07	-5.402496e-06	-1.148795e-09	-3.760356e+01	-7.415964e+01
2.500000e-07	-5.393204e-06	-1.155665e-09	-3.753888e+01	-7.415453e+01
2.600000e-07	-5.382981e-06	-1.142567e-09	-3.746772e+01	-7.414787e+01
2.700000e-07	-5.372250e-06	-1.158942e-09	-3.739303e+01	-7.413966e+01
2.800000e-07	-5.361160e-06	-1.147890e-09	-3.731583e+01	-7.412993e+01
2.900000e-07	-5.349557e-06	-1.159822e-09	-3.723508e+01	-7.411875e+01
3.000000e-07	-5.337611e-06	-1.163797e-09	-3.715193e+01	-7.410618e+01
3.100000e-07	-5.325273e-06	-1.151677e-09	-3.706605e+01	-7.409234e+01
3.200000e-07	-5.312417e-06	-1.140404e-09	-3.697656e+01	-7.407734e+01
3.300000e-07	-5.299164e-06	-1.119504e-09	-3.688432e+01	-7.406132e+01
3.400000e-07	-5.285634e-06	-1.140696e-09	-3.679015e+01	-7.404442e+01
3.500000e-07	-5.271727e-06	-1.123600e-09	-3.669335e+01	-7.402681e+01
3.600000e-07	-5.257359e-06	-1.137736e-09	-3.659334e+01	-7.400867e+01
3.700000e-07	-5.242592e-06	-1.149160e-09	-3.649056e+01	-7.399016e+01
3.800000e-07	-5.227401e-06	-1.174014e-09	-3.638482e+01	-7.397148e+01
3.900000e-07	-5.211466e-06	-1.119476e-09	-3.627391e+01	-7.395281e+01
4.000000e-07	-5.194990e-06	-1.127322e-09	-3.615923e+01	-7.393432e+01
4.100000e-07	-5.178224e-06	-1.146074e-09	-3.604253e+01	-7.391620e+01
4.200000e-07	-5.161032e-06	-1.149027e-09	-3.592287e+01	-7.389861e+01
4.300000e-07	-5.143460e-06	-1.109069e-09	-3.580056e+01	-7.388170e+01
4.400000e-07	-5.125676e-06	-1.165665e-09	-3.567677e+01	-7.386563e+01
4.500000e-07	-5.107565e-06	-1.165015e-09	-3.555071e+01	-7.385051e+01
4.600000e-07	-5.088969e-06	-1.127875e-09	-3.542128e+01	-7.383644e+01
4.700000e-07	-5.070005e-06	-1.116064e-09	-3.528928e+01	-7.382353e+01
4.800000e-07	-5.050785e-06	-1.168527e-09	-3.515550e+01	-7.381182e+01
4.900000e-07	-5.031281e-06	-1.125200e-09	-3.501974e+01	-7.380136e+01
5.000000e-07	-5.011502e-06	-1.110521e-09	-3.488208e+01	-7.379217e+01
5.100000e-07	-4.991525e-06	-1.135230e-09	-3.474303e+01	-7.378422e+01
5.200000e-07	-4.971291e-06	-1.136904e-09	-3.460219e+01	-7.377749e+01
5.300000e-07	-4.950629e-06	-1.102774e-09	-3.445837e+01	-7.377190e+01
5.400000e-07	-4.929630e-06	-1.144011e-09	-3.431221e+01	-7.376737e+01
5.500000e-07	-4.908335e-06	-1.149115e-09	-3.416399e+01	-7.376378e+01
5.600000e-07	-4.886648e-06	-1.110435e-09	-3.401305e+01	-7.376099e+01
5.700000e-07	-4.864668e-06	-1.123232e-09	-3.386006e+01	-7.375883e+01
5.800000e-07	-4.842425e-06	-1.155737e-09	-3.370523e+01	-7.375714e+01
5.900000e-07	-4.819777e-06	-1.124157e-09	-3.354760e+01	-7.375569e+01
6.000000e-07	-4.796718e-06	-1.110961e-09	-3.338709e+01	-7.375428e+01
6.100000e-07	-4.773325e-06	-1.137928e-09	-3.322427e+01	-7.375266e+01
6.200000e-07	-4.749675e-06	-1.119006e-09	-3.305966e+01	-7.375060e+01
6.300000e-07	-4.725816e-06	-1.105465e-09	-3.289359e+01	-7.374784e+01
6.400000e-07	-4.701743e-06	-1.124960e-09	-3.272603e+01	-7.374413e+01
6.500000e-07	-4.677412e-06	-1.131903e-09	-3.255667e+01	-7.373920e+01
6.600000e-07	-4.652640e-06	-1.109421e-09	-3.238425e+01	-7.373281e+01
6.700000e-07	-4.627458e-06	-1.129050e-09	-3.220897e+01	-7.372469e+01
6.800000e-07	-4.601782e-06	-1.129338e-09	-3.203026e+01	-7.371461e+01
6.900000e-07	-4.575401e-06	-1.119625e-09	-3.184664e+01	-7.370232e+01
7.000000e-07	-4.548536e-06	-1.113911e-09	-3.165964e+01	-7.368761e+01
7.100000e-07	-4.521409e-06	-1.127809e-09	-3.147083e+01	-7.367029e+01
7.200000e-07	-4.493931e-06	-1.113825e-09	-3.127957e+01	-7.365016e+01
7.300000e-07	-4.466155e-06	-1.126179e-09	-3.108624e+01	-7.362707e+01
7.400000e-07	-4.438222e-06	-1.130962e-09	-3.089182e+01	-7.360087e+01
7.500000e-07	-4.410118e-06	-1.127432e-09	-3.069620e+01	-7.357147e+01
7.600000e-07	-4.381690e-06	-1.117087e-09	-3.049833e+01	-7.353878e+01
7.700000e-07	-4.352938e-06	-1.128891e-09	-3.029820e+01	-7.350274e+01
7.800000e-07	-4.324002e-06	-1.117177e-09	-3.009680e+01	-7.346332e+01
7.900000e-07	-4.294798e-06	-1.116448e-09	-2.989353e+01	-7.342054e+01
8.000000e-07	-4.265239e-06	-1.122074e-09	-2.968779e+01	-7.337441e+01
8.100000e-07	-4.235345e-06	-1.124493e-09	-2.947971e+01	-7.332501e+01
8.200000e-07	-4.205181e-06	-1.110442e-09	-2.926976e+01	-7.327241e+01
8.300000e-07	-4.174778e-06	-1.115231e-09	-2.905814e+01	-7.321673e+01
8.400000e-07	-4.143996e-06	-1.117437e-09	-2.884389e+01	-7.315811e+01
8.500000e-07	-4.112870e-06	-1.116232e-09	-2.862724e+01	-7.309670e+01
8.600000e-07	-4.081566e-06	-1.121272e-09	-2.840934e+01	-7.303268e+01
8.700000e-07	-4.050075e-06	-1.125598e-09	-2.819016e+01	-7.296624e+01
8.800000e-07	-4.018375e-06	-1.116450e-09	-2.796951e+01	-7.289759e+01
8.900000e-07	-3.986540e-06	-1.109899e-09	-2.774793e+01	-7.282694e+01
9.000000e-07	-3.954519e-06	-1.113864e-09	-2.752505e+01	-7.275452e+01
9.100000e-07	-3.922225e-06	-1.106445e-09	-2.730027e+01	-7.268054e+01
9.200000e-07	-3.889665e-06	-1.099526e-09	-2.707364e+01	-7.260522e+01
9.300000e-07	-3.856624e-06	-1.101354e-09	-2.684366e+01	-7.252879e+01
9.400000e-07	-3.823020e-06	-1.105459e-09	-2.660976e+01	-7.245144e+01
9.500000e-07	-3.788935e-06	-1.096177e-09	-2.637251e+01	-7.237337e+01
9.600000e-07	-3.754475e-06	-1.095868e-09	-2.613266e+01	-7.229476e+01
9.700000e-07	-3.719626e-06	-1.091193e-09	-2.589010e+01	-7.221576e+01
9.800000e-07	-3.684363e-06	-1.086179e-09	-2.564465e+01	-7.213650e+01
9.900000e-07	-3.648919e-06	-1.081265e-09	-2.539795e+01	-7.205709e+01
1.000000e-06	-3.613319e-06	-1.088992e-09	-2.515016e+01	-7.197759e+01
1.010000e-06	-3.577549e-06	-1.081425e-09	-2.490119e+01	-7.189806e+01
1.020000e-06	-3.541620e-06	-1.076931e-09	-2.465110e+01	-7.181849e+01
1.030000e-06	-3.505583e-06	-1.072428e-09	-2.440027e+01	-7.173887e+01
1.040000e-06	-3.469437e-06	-1.071789e-09	-2.414868e+01	-7.165911e+01
1.050000e-06	-3.433067e-06	-1.065899e-09	-2.389553e+01	-7.157913e+01
1.060000e-06	-3.396363e-06	-1.069920e-09	-2.364006e+01	-7.149878e+01
1.070000e-06	-3.359280e-06	-1.069563e-09	-2.338195e+01	-7.141787e+01
1.080000e-06	-3.321980e-06	-1.067488e-09	-2.312232e+01	-7.133619e+01
1.090000e-06	-3.284508e-06	-1.063190e-09	-2.286150e+01	-7.125349e+01
1.100000e-06	-3.246821e-06	-1.060335e-09	-2.259919e+01	-7.116947e+01
1.110000e-06	-3.208952e-06	-1.050971e-09	-2.233560e+01	-7.108383e+01
1.120000e-06	-3.170886e-06	-1.043307e-09	-2.207064e+01	-7.099620e+01
1.130000e-06	-3.132606e-06	-1.037652e-09	-2.180421e+01	-7.090621e+01
1.140000e-06	-3.093966e-06	-1.034034e-09	-2.153525e+01	-7.081347e+01
1.150000e-06	-3.055070e-06	-1.034422e-09	-2.126452e+01	-7.071755e+01
1.160000e-06	-3.016145e-06	-1.037800e-09	-2.099358e+01	-7.061801e+01
1.170000e-06	-2.977014e-06	-1.036919e-09	-2.072122e+01	-7.051442e+01
1.180000e-06	-2.937568e-06	-1.031004e-09	-2.044666e+01	-7.040631e+01
1.190000e-06	-2.897947e-06	-1.027335e-09	-2.017088e+01	-7.029323e+01
1.200000e-06	-2.858219e-06	-1.020569e-09	-1.989436e+01	-7.017474e+01
1.210000e-06	-2.818388e-06	-1.012129e-09	-1.961712e+01	-7.005038e+01
1.220000e-06	-2.778414e-06	-1.007774e-09	-1.933888e+01	-6.991972e+01
1.230000e-06	-2.738338e-06	-1.008570e-09	-1.905994e+01	-6.978234e+01
1.240000e-06	-2.698167e-06	-1.003748e-09	-1.878033e+01	-6.963785e+01
1.250000e-06	-2.657849e-06	-1.003189e-09	-1.849971e+01	-6.948587e+01
1.260000e-06	-2.617337e-06	-1.002538e-09	-1.821772e+01	-6.932605e+01
1.270000e-06	-2.576568e-06	-1.000327e-09	-1.793395e+01	-6.915808e+01
1.280000e-06	-2.535484e-06	-9.908710e-10	-1.764799e+01	-6.898168e+01
1.290000e-06	-2.494049e-06	-9.854815e-10	-1.735959e+01	-6.879660e+01
1.300000e-06	-2.452319e-06	-9.800482e-10	-1.706913e+01	-6.860264e+01
1.310000e-06	-2.410218e-06	-9.745981e-10	-1.677609e+01	-6.839964e+01
1.320000e-06	-2.367761e-06	-9.681795e-10	-1.648057e+01	-6.818747e+01
1.330000e-06	-2.325122e-06	-9.646453e-10	-1.618379e+01	-6.796604e+01
1.340000e-06	-2.282269e-06	-9.597280e-10	-1.588551e+01	-6.773531e+01
1.350000e-06	-2.239220e-06	-9.585769e-10	-1.558587e+01	-6.749527e+01
1.360000e-06	-2.196001e-06	-9.579460e-10	-1.528505e+01	-6.724596e+01
1.370000e-06	-2.152542e-06	-9.572354e-10	-1.498256e+01	-6.698743e+01
1.380000e-06	-2.108880e-06	-9.544028e-10	-1.467866e+01	-6.671979e+01
1.390000e-06	-2.065120e-06	-9.497634e-10	-1.437407e+01	-6.644316e+01
1.400000e-06	-2.021289e-06	-9.411593e-10	-1.406899e+01	-6.615769e+01
1.410000e-06	-1.977389e-06	-9.321415e-10	-1.376343e+01	-6.586354e+01
1.420000e-06	-1.933464e-06	-9.255942e-10	-1.345769e+01	-6.556089e+01
1.430000e-06	-1.889476e-06	-9.222392e-10	-1.315151e+01	-6.524993e+01
1.440000e-06	-1.845391e-06	-9.182813e-10	-1.284466e+01	-6.493084e+01
1.450000e-06	-1.801246e-06	-9.141446e-10	-1.253740e+01	-6.460382e+01
1.460000e-06	-1.757009e-06	-9.105817e-10	-1.222949e+01	-6.426901e+01
1.470000e-06	-1.712584e-06	-9.024934e-10	-1.192027e+01	-6.392659e+01
1.480000e-06	-1.667977e-06	-8.946793e-10	-1.160979e+01	-6.357666e+01
1.490000e-06	-1.623261e-06	-8.870555e-10	-1.129855e+01	-6.321933e+01
1.500000e-06	-1.578496e-06	-8.778746e-10	-1.098697e+01	-6.285465e+01
1.510000e-06	-1.533585e-06	-8.681099e-10	-1.067437e+01	-6.248261e+01
1.520000e-06	-1.488500e-06	-8.597584e-10	-1.036056e+01	-6.210319e+01
1.530000e-06	-1.443239e-06	-8.532428e-10	-1.004553e+01	-6.171625e+01
1.540000e-06	-1.397863e-06	-8.465410e-10	-9.729694e+00	-6.132165e+01
1.550000e-06	-1.352506e-06	-8.398348e-10	-9.413986e+00	-6.091913e+01
1.560000e-06	-1.307061e-06	-8.299375e-10	-9.097671e+00	-6.050839e+01
1.570000e-06	-1.261499e-06	-8.164693e-10	-8.780543e+00	-6.008902e+01
1.580000e-06	-1.215915e-06	-8.055944e-10	-8.463260e+00	-5.966056e+01
1.590000e-06	-1.170234e-06	-7.970026e-10	-8.145301e+00	-5.922245e+01
1.600000e-06	-1.124344e-06	-7.901198e-10	-7.825889e+00	-5.877405e+01
1.610000e-06	-1.078358e-06	-7.801459e-10	-7.505809e+00	-5.831462e+01
1.620000e-06	-1.032402e-06	-7.729904e-10	-7.185936e+00	-5.784336e+01
1.630000e-06	-9.864529e-07	-7.623295e-10	-6.866110e+00	-5.735936e+01
1.640000e-06	-9.404118e-07	-7.527793e-10	-6.545646e+00	-5.686166e+01
1.650000e-06	-8.942281e-07	-7.438292e-10	-6.224188e+00	-5.634920e+01
1.660000e-06	-8.480419e-07	-7.378835e-10	-5.902714e+00	-5.582085e+01
1.670000e-06	-8.018088e-07	-7.313218e-10	-5.580913e+00	-5.527541e+01
1.680000e-06	-7.555247e-07	-7.245063e-10	-5.258757e+00	-5.471163e+01
1.690000e-06	-7.092350e-07	-7.159638e-10	-4.936562e+00	-5.412819e+01
1.700000e-06	-6.628884e-07	-7.043741e-10	-4.613971e+00	-5.352373e+01
1.710000e-06	-6.166255e-07	-6.888945e-10	-4.291963e+00	-5.289686e+01
1.720000e-06	-5.702508e-07	-6.743304e-10	-3.969176e+00	-5.224616e+01
1.730000e-06	-5.236388e-07	-6.626889e-10	-3.644737e+00	-5.157017e+01
1.740000e-06	-4.770799e-07	-6.532508e-10	-3.320668e+00	-5.086747e+01
1.750000e-06	-4.305457e-07	-6.456493e-10	-2.996772e+00	-5.013659e+01
1.760000e-06	-3.839722e-07	-6.348458e-10	-2.672601e+00	-4.937612e+01
1.770000e-06	-3.373432e-07	-6.205583e-10	-2.348044e+00	-4.858466e+01
1.780000e-06	-2.906121e-07	-6.046579e-10	-2.022777e+00	-4.776085e+01
1.790000e-06	-2.438833e-07	-5.907781e-10	-1.697527e+00	-4.690340e+01
1.800000e-06	-1.971021e-07	-5.798730e-10	-1.371910e+00	-4.601107e+01
1.810000e-06	-1.501680e-07	-5.691048e-10	-1.045230e+00	-4.508270e+01
1.820000e-06	-1.032804e-07	-5.550668e-10	-7.188731e-01	-4.411724e+01
1.830000e-06	-5.646847e-08	-5.413385e-10	-3.930434e-01	-4.311371e+01
1.840000e-06	-9.672127e-09	-5.272662e-10	-6.732191e-02	-4.207128e+01
1.850000e-06	3.711931e-08	-5.147927e-10	2.583654e-01	-4.098922e+01
1.860000e-06	8.388681e-08	-5.033141e-10	5.838861e-01	-3.986695e+01
1.870000e-06	1.305665e-07	-4.924391e-10	9.087954e-01	-3.870401e+01
1.880000e-06	1.773486e-07	-4.785467e-10	1.234418e+00	-3.750012e+01
1.890000e-06	2.240988e-07	-4.626149e-10	1.559818e+00	-3.625514e+01
1.900000e-06	2.707311e-07	-4.425900e-10	1.884398e+00	-3.496911e+01
1.910000e-06	3.174398e-07	-4.209724e-10	2.209509e+00	-3.364222e+01
1.920000e-06	3.640615e-07	-3.974456e-10	2.534015e+00	-3.227486e+01
1.930000e-06	4.105814e-07	-3.751336e-10	2.857812e+00	-3.086757e+01
1.940000e-06	4.570842e-07	-3.564637e-10	3.181490e+00	-2.942108e+01
1.950000e-06	5.036326e-07	-3.412841e-10	3.505486e+00	-2.793631e+01
1.960000e-06	5.502084e-07	-3.254617e-10	3.829673e+00	-2.641434e+01
1.970000e-06	5.967519e-07	-3.068624e-10	4.153634e+00	-2.485642e+01
1.980000e-06	6.431696e-07	-2.845698e-10	4.476720e+00	-2.326398e+01
1.990000e-06	6.893963e-07	-2.582381e-10	4.798477e+00	-2.163862e+01
2.000000e-06	7.356856e-07	-2.299353e-10	5.120669e+00	-1.998208e+01
2.010000e-06	7.819593e-07	-2.052828e-10	5.442753e+00	-1.829626e+01
2.020000e-06	8.281608e-07	-1.824795e-10	5.764333e+00	-1.658321e+01
2.030000e-06	8.743179e-07	-1.612384e-10	6.085605e+00	-1.484510e+01
2.040000e-06	9.204347e-07	-1.405511e-10	6.406597e+00	-1.308421e+01
2.050000e-06	9.665158e-07	-1.195159e-10	6.727340e+00	-1.130295e+01
2.060000e-06	1.012506e-06	-9.788620e-11	7.047451e+00	-9.503812e+00
2.070000e-06	1.058389e-06	-7.358519e-11	7.366813e+00	-7.689372e+00
2.080000e-06	1.104184e-06	-4.927404e-11	7.685565e+00	-5.862276e+00
2.090000e-06	1.149890e-06	-2.307057e-11	8.003697e+00	-4.025220e+00
2.100000e-06	1.195532e-06	4.488130e-12	8.321384e+00	-2.180942e+00
2.110000e-06	1.241134e-06	3.084911e-11	8.638792e+00	-3.321997e-01
2.120000e-06	1.286630e-06	5.423144e-11	8.955462e+00	1.518239e+00
2.130000e-06	1.332051e-06	7.825400e-11	9.271613e+00	3.367615e+00
2.140000e-06	1.377350e-06	1.026235e-10	9.586915e+00	5.213190e+00
2.150000e-06	1.422530e-06	1.273784e-10	9.901382e+00	7.052263e+00
2.160000e-06	1.467675e-06	1.532047e-10	1.021561e+01	8.882187e+00
2.170000e-06	1.512711e-06	1.769941e-10	1.052908e+01	1.070038e+01
2.180000e-06	1.557566e-06	1.990774e-10	1.084129e+01	1.250433e+01
2.190000e-06	1.602246e-06	2.229173e-10	1.115228e+01	1.429163e+01
2.200000e-06	1.646711e-06	2.473348e-10	1.146178e+01	1.605997e+01
2.210000e-06	1.691065e-06	2.732038e-10	1.177049e+01	1.780715e+01
2.220000e-06	1.735350e-06	2.997121e-10	1.207873e+01	1.953110e+01
2.230000e-06	1.779548e-06	3.233977e-10	1.238637e+01	2.122988e+01
2.240000e-06	1.823654e-06	3.427059e-10	1.269337e+01	2.290168e+01
2.250000e-06	1.867714e-06	3.611014e-10	1.300004e+01	2.454486e+01
2.260000e-06	1.911726e-06	3.804961e-10	1.330639e+01	2.615791e+01
2.270000e-06	1.955672e-06	4.010580e-10	1.361226e+01	2.773948e+01
2.280000e-06	1.999568e-06	4.199616e-10	1.391780e+01	2.928839e+01
2.290000e-06	2.043378e-06	4.391007e-10	1.422274e+01	3.080360e+01
2.300000e-06	2.087143e-06	4.601047e-10	1.452736e+01	3.228425e+01
2.310000e-06	2.130812e-06	4.825978e-10	1.483131e+01	3.372963e+01
2.320000e-06	2.174366e-06	5.035826e-10	1.513447e+01	3.513918e+01
2.330000e-06	2.217801e-06	5.216846e-10	1.543679e+01	3.651251e+01
2.340000e-06	2.261054e-06	5.394470e-10	1.573785e+01	3.784936e+01
2.350000e-06	2.304042e-06	5.553567e-10	1.603706e+01	3.914963e+01
2.360000e-06	2.346789e-06	5.709782e-10	1.633460e+01	4.041335e+01
2.370000e-06	2.389249e-06	5.836578e-10	1.663014e+01	4.164068e+01
2.380000e-06	2.431399e-06	5.972999e-10	1.692352e+01	4.283190e+01
2.390000e-06	2.473248e-06	6.117970e-10	1.721480e+01	4.398741e+01
2.400000e-06	2.514749e-06	6.275358e-10	1.750367e+01	4.510772e+01
2.410000e-06	2.555997e-06	6.448516e-10	1.779077e+01	4.619341e+01
2.420000e-06	2.596960e-06	6.620287e-10	1.807589e+01	4.724517e+01
2.430000e-06	2.637579e-06	6.776147e-10	1.835862e+01	4.826374e+01
2.440000e-06	2.677923e-06	6.905737e-10	1.863943e+01	4.924996e+01
2.450000e-06	2.718104e-06	7.028473e-10	1.891910e+01	5.020468e+01
2.460000e-06	2.758172e-06	7.152174e-10	1.919799e+01	5.112883e+01
2.470000e-06	2.798134e-06	7.270078e-10	1.947614e+01	5.202333e+01
2.480000e-06	2.837994e-06	7.413645e-10	1.975358e+01	5.288917e+01
2.490000e-06	2.877717e-06	7.553863e-10	2.003007e+01	5.372731e+01
2.500000e-06	2.917300e-06	7.666312e-10	2.030559e+01	5.453873e+01
2.510000e-06	2.956767e-06	7.804148e-10	2.058029e+01	5.532442e+01
2.520000e-06	2.996075e-06	7.910282e-10	2.085389e+01	5.608532e+01
2.530000e-06	3.035207e-06	8.011535e-10	2.112627e+01	5.682238e+01
2.540000e-06	3.074059e-06	8.148227e-10	2.139669e+01	5.753649e+01
2.550000e-06	3.112610e-06	8.284619e-10	2.166503e+01	5.822854e+01
2.560000e-06	3.150926e-06	8.370817e-10	2.193171e+01	5.889936e+01
2.570000e-06	3.189017e-06	8.433779e-10	2.219685e+01	5.954972e+01
2.580000e-06	3.226970e-06	8.495670e-10	2.246101e+01	6.018037e+01
2.590000e-06	3.264772e-06	8.547651e-10	2.272413e+01	6.079199e+01
2.600000e-06	3.302406e-06	8.631658e-10	2.298608e+01	6.138522e+01
2.610000e-06	3.339814e-06	8.759287e-10	2.324646e+01	6.196063e+01
2.620000e-06	3.376868e-06	8.919204e-10	2.350436e+01	6.251874e+01
2.630000e-06	3.413565e-06	9.052210e-10	2.375979e+01	6.306002e+01
2.640000e-06	3.450016e-06	9.126489e-10	2.401350e+01	6.358489e+01
2.650000e-06	3.486277e-06	9.162093e-10	2.426590e+01	6.409370e+01
2.660000e-06	3.522360e-06	9.170818e-10	2.451705e+01	6.458678e+01
2.670000e-06	3.558325e-06	9.189719e-10	2.476738e+01	6.506438e+01
2.680000e-06	3.594158e-06	9.223518e-10	2.501679e+01	6.552674e+01
2.690000e-06	3.629869e-06	9.298605e-10	2.526535e+01	6.597405e+01
2.700000e-06	3.665409e-06	9.405024e-10	2.551273e+01	6.640645e+01
2.710000e-06	3.700631e-06	9.494036e-10	2.575789e+01	6.682409e+01
2.720000e-06	3.735569e-06	9.543181e-10	2.600106e+01	6.722705e+01
2.730000e-06	3.770238e-06	9.553172e-10	2.624238e+01	6.761543e+01
2.740000e-06	3.804409e-06	9.569389e-10	2.648022e+01	6.798930e+01
2.750000e-06	3.837952e-06	9.602030e-10	2.671369e+01	6.834874e+01
2.760000e-06	3.871065e-06	9.647367e-10	2.694417e+01	6.869379e+01
2.770000e-06	3.903886e-06	9.701553e-10	2.717262e+01	6.902454e+01
2.780000e-06	3.936364e-06	9.763572e-10	2.739868e+01	6.934106e+01
2.790000e-06	3.968544e-06	9.826785e-10	2.762267e+01	6.964344e+01
2.800000e-06	4.000553e-06	9.883732e-10	2.784546e+01	6.993178e+01
2.810000e-06	4.032398e-06	9.941367e-10	2.806712e+01	7.020622e+01
2.820000e-06	4.064078e-06	9.985562e-10	2.828763e+01	7.046691e+01
2.830000e-06	4.095627e-06	1.002603e-09	2.850722e+01	7.071403e+01
2.840000e-06	4.127001e-06	1.006905e-09	2.872559e+01	7.094779e+01
2.850000e-06	4.158015e-06	1.009867e-09	2.894146e+01	7.116844e+01
2.860000e-06	4.188613e-06	1.013711e-09	2.915444e+01	7.137624e+01
2.870000e-06	4.218920e-06	1.018721e-09	2.936538e+01	7.157152e+01
2.880000e-06	4.248924e-06	1.021040e-09	2.957422e+01	7.175461e+01
2.890000e-06	4.278621e-06	1.019573e-09	2.978093e+01	7.192590e+01
2.900000e-06	4.308056e-06	1.021216e-09	2.998581e+01	7.208580e+01
