# Temperatura_=_-15.59
# Concentracion g/m^3_=_1620.0
# C_Vs_to_Am_M_A/Vsm_=_65563218390.804596
# pendiente_HvsI_1/m_=_3716.3
# ordenada_HvsI_A/m_=_1297.0
# frecuencia_Hz_=_135094.8691394113

Tiempo_(s)	Campo_(V.s)	Magnetizacion_(V.s)	Campo_(kA/m)	Magnetizacion_(A/m)
0.000000e+00	-5.548365e-06	-1.238448e-09	-3.837504e+01	-8.044399e+01
1.000000e-08	-5.548580e-06	-1.233139e-09	-3.837653e+01	-8.043307e+01
2.000000e-08	-5.548579e-06	-1.231499e-09	-3.837653e+01	-8.042371e+01
3.000000e-08	-5.548255e-06	-1.231582e-09	-3.837428e+01	-8.041575e+01
4.000000e-08	-5.547425e-06	-1.232634e-09	-3.836854e+01	-8.040901e+01
5.000000e-08	-5.546012e-06	-1.234310e-09	-3.835877e+01	-8.040328e+01
6.000000e-08	-5.543990e-06	-1.233663e-09	-3.834478e+01	-8.039832e+01
7.000000e-08	-5.541417e-06	-1.228784e-09	-3.832699e+01	-8.039387e+01
8.000000e-08	-5.538331e-06	-1.222156e-09	-3.830565e+01	-8.038965e+01
9.000000e-08	-5.534747e-06	-1.214177e-09	-3.828086e+01	-8.038537e+01
1.000000e-07	-5.530707e-06	-1.256316e-09	-3.825292e+01	-8.038073e+01
1.100000e-07	-5.526314e-06	-1.282793e-09	-3.822253e+01	-8.037540e+01
1.200000e-07	-5.521765e-06	-1.235157e-09	-3.819107e+01	-8.036908e+01
1.300000e-07	-5.516991e-06	-1.158315e-09	-3.815805e+01	-8.036145e+01
1.400000e-07	-5.511929e-06	-1.183134e-09	-3.812304e+01	-8.035221e+01
1.500000e-07	-5.506430e-06	-1.255795e-09	-3.808500e+01	-8.034106e+01
1.600000e-07	-5.500493e-06	-1.263651e-09	-3.804394e+01	-8.032773e+01
1.700000e-07	-5.494252e-06	-1.194527e-09	-3.800078e+01	-8.031196e+01
1.800000e-07	-5.487576e-06	-1.197952e-09	-3.795460e+01	-8.029350e+01
1.900000e-07	-5.480434e-06	-1.259252e-09	-3.790521e+01	-8.027215e+01
2.000000e-07	-5.472898e-06	-1.252028e-09	-3.785308e+01	-8.024773e+01
2.100000e-07	-5.465047e-06	-1.189975e-09	-3.779878e+01	-8.022009e+01
2.200000e-07	-5.456952e-06	-1.181960e-09	-3.774279e+01	-8.018910e+01
2.300000e-07	-5.448668e-06	-1.246890e-09	-3.768550e+01	-8.015471e+01
2.400000e-07	-5.440088e-06	-1.259919e-09	-3.762615e+01	-8.011685e+01
2.500000e-07	-5.430848e-06	-1.226410e-09	-3.756224e+01	-8.007554e+01
2.600000e-07	-5.420833e-06	-1.199039e-09	-3.749297e+01	-8.003080e+01
2.700000e-07	-5.410181e-06	-1.221819e-09	-3.741930e+01	-7.998271e+01
2.800000e-07	-5.399050e-06	-1.216717e-09	-3.734232e+01	-7.993138e+01
2.900000e-07	-5.387491e-06	-1.205155e-09	-3.726236e+01	-7.987696e+01
3.000000e-07	-5.375528e-06	-1.194776e-09	-3.717962e+01	-7.981964e+01
3.100000e-07	-5.363243e-06	-1.216870e-09	-3.709465e+01	-7.975963e+01
3.200000e-07	-5.350594e-06	-1.216966e-09	-3.700717e+01	-7.969717e+01
3.300000e-07	-5.337528e-06	-1.204457e-09	-3.691680e+01	-7.963254e+01
3.400000e-07	-5.323980e-06	-1.189386e-09	-3.682310e+01	-7.956604e+01
3.500000e-07	-5.310051e-06	-1.206817e-09	-3.672676e+01	-7.949799e+01
3.600000e-07	-5.295690e-06	-1.204798e-09	-3.662743e+01	-7.942871e+01
3.700000e-07	-5.280792e-06	-1.185242e-09	-3.652439e+01	-7.935855e+01
3.800000e-07	-5.265449e-06	-1.200101e-09	-3.641827e+01	-7.928787e+01
3.900000e-07	-5.249628e-06	-1.224947e-09	-3.630884e+01	-7.921701e+01
4.000000e-07	-5.233203e-06	-1.193412e-09	-3.619524e+01	-7.914634e+01
4.100000e-07	-5.216304e-06	-1.173903e-09	-3.607836e+01	-7.907620e+01
4.200000e-07	-5.199114e-06	-1.221194e-09	-3.595947e+01	-7.900692e+01
4.300000e-07	-5.181655e-06	-1.223418e-09	-3.583871e+01	-7.893883e+01
4.400000e-07	-5.163884e-06	-1.174916e-09	-3.571580e+01	-7.887222e+01
4.500000e-07	-5.145782e-06	-1.200834e-09	-3.559060e+01	-7.880738e+01
4.600000e-07	-5.127276e-06	-1.248900e-09	-3.546260e+01	-7.874456e+01
4.700000e-07	-5.108305e-06	-1.192394e-09	-3.533139e+01	-7.868396e+01
4.800000e-07	-5.088971e-06	-1.172459e-09	-3.519766e+01	-7.862578e+01
4.900000e-07	-5.069412e-06	-1.227993e-09	-3.506239e+01	-7.857017e+01
5.000000e-07	-5.049696e-06	-1.216806e-09	-3.492602e+01	-7.851724e+01
5.100000e-07	-5.029744e-06	-1.159011e-09	-3.478802e+01	-7.846705e+01
5.200000e-07	-5.009448e-06	-1.200295e-09	-3.464765e+01	-7.841964e+01
5.300000e-07	-4.988838e-06	-1.220542e-09	-3.450510e+01	-7.837499e+01
5.400000e-07	-4.967878e-06	-1.177272e-09	-3.436013e+01	-7.833303e+01
5.500000e-07	-4.946569e-06	-1.192504e-09	-3.421274e+01	-7.829368e+01
5.600000e-07	-4.924959e-06	-1.235074e-09	-3.406328e+01	-7.825679e+01
5.700000e-07	-4.903071e-06	-1.190162e-09	-3.391190e+01	-7.822217e+01
5.800000e-07	-4.880848e-06	-1.174278e-09	-3.375819e+01	-7.818962e+01
5.900000e-07	-4.858234e-06	-1.216991e-09	-3.360178e+01	-7.815886e+01
6.000000e-07	-4.835193e-06	-1.204055e-09	-3.344242e+01	-7.812962e+01
6.100000e-07	-4.811716e-06	-1.166094e-09	-3.328004e+01	-7.810158e+01
6.200000e-07	-4.788044e-06	-1.191860e-09	-3.311632e+01	-7.807438e+01
6.300000e-07	-4.764265e-06	-1.199693e-09	-3.295185e+01	-7.804766e+01
6.400000e-07	-4.740237e-06	-1.177292e-09	-3.278566e+01	-7.802104e+01
6.500000e-07	-4.715807e-06	-1.191257e-09	-3.261669e+01	-7.799411e+01
6.600000e-07	-4.690901e-06	-1.208227e-09	-3.244443e+01	-7.796646e+01
6.700000e-07	-4.665493e-06	-1.185041e-09	-3.226870e+01	-7.793768e+01
6.800000e-07	-4.639605e-06	-1.176286e-09	-3.208965e+01	-7.790735e+01
6.900000e-07	-4.613190e-06	-1.185787e-09	-3.190695e+01	-7.787506e+01
7.000000e-07	-4.586206e-06	-1.174834e-09	-3.172031e+01	-7.784041e+01
7.100000e-07	-4.558865e-06	-1.168665e-09	-3.153121e+01	-7.780300e+01
7.200000e-07	-4.531296e-06	-1.177727e-09	-3.134053e+01	-7.776248e+01
7.300000e-07	-4.503507e-06	-1.181514e-09	-3.114832e+01	-7.771848e+01
7.400000e-07	-4.475566e-06	-1.179345e-09	-3.095507e+01	-7.767069e+01
7.500000e-07	-4.447480e-06	-1.183247e-09	-3.076082e+01	-7.761881e+01
7.600000e-07	-4.419154e-06	-1.180205e-09	-3.056490e+01	-7.756258e+01
7.700000e-07	-4.390484e-06	-1.175982e-09	-3.036661e+01	-7.750177e+01
7.800000e-07	-4.361382e-06	-1.171778e-09	-3.016532e+01	-7.743619e+01
7.900000e-07	-4.331911e-06	-1.169411e-09	-2.996149e+01	-7.736569e+01
8.000000e-07	-4.302202e-06	-1.165652e-09	-2.975601e+01	-7.729016e+01
8.100000e-07	-4.272205e-06	-1.168308e-09	-2.954854e+01	-7.720952e+01
8.200000e-07	-4.241925e-06	-1.165026e-09	-2.933910e+01	-7.712373e+01
8.300000e-07	-4.211388e-06	-1.160934e-09	-2.912790e+01	-7.703282e+01
8.400000e-07	-4.180609e-06	-1.160693e-09	-2.891501e+01	-7.693682e+01
8.500000e-07	-4.149558e-06	-1.167363e-09	-2.870025e+01	-7.683582e+01
8.600000e-07	-4.118182e-06	-1.166595e-09	-2.848324e+01	-7.672994e+01
8.700000e-07	-4.086574e-06	-1.162851e-09	-2.826463e+01	-7.661933e+01
8.800000e-07	-4.054835e-06	-1.157721e-09	-2.804510e+01	-7.650418e+01
8.900000e-07	-4.022896e-06	-1.152323e-09	-2.782420e+01	-7.638469e+01
9.000000e-07	-3.990720e-06	-1.145811e-09	-2.760165e+01	-7.626110e+01
9.100000e-07	-3.958341e-06	-1.145568e-09	-2.737770e+01	-7.613365e+01
9.200000e-07	-3.925563e-06	-1.142982e-09	-2.715100e+01	-7.600263e+01
9.300000e-07	-3.892201e-06	-1.138945e-09	-2.692025e+01	-7.586830e+01
9.400000e-07	-3.858373e-06	-1.140052e-09	-2.668628e+01	-7.573095e+01
9.500000e-07	-3.824115e-06	-1.142653e-09	-2.644934e+01	-7.559086e+01
9.600000e-07	-3.789393e-06	-1.137371e-09	-2.620919e+01	-7.544833e+01
9.700000e-07	-3.754363e-06	-1.129217e-09	-2.596690e+01	-7.530362e+01
9.800000e-07	-3.719025e-06	-1.127044e-09	-2.572249e+01	-7.515700e+01
9.900000e-07	-3.683416e-06	-1.124113e-09	-2.547620e+01	-7.500872e+01
1.000000e-06	-3.647689e-06	-1.121267e-09	-2.522910e+01	-7.485900e+01
1.010000e-06	-3.611879e-06	-1.119866e-09	-2.498142e+01	-7.470805e+01
1.020000e-06	-3.575980e-06	-1.116256e-09	-2.473312e+01	-7.455603e+01
1.030000e-06	-3.539854e-06	-1.109380e-09	-2.448326e+01	-7.440310e+01
1.040000e-06	-3.503440e-06	-1.108954e-09	-2.423141e+01	-7.424936e+01
1.050000e-06	-3.466762e-06	-1.110992e-09	-2.397772e+01	-7.409489e+01
1.060000e-06	-3.429875e-06	-1.111064e-09	-2.372260e+01	-7.393972e+01
1.070000e-06	-3.392693e-06	-1.106408e-09	-2.346543e+01	-7.378384e+01
1.080000e-06	-3.355221e-06	-1.102955e-09	-2.320626e+01	-7.362722e+01
1.090000e-06	-3.317510e-06	-1.098717e-09	-2.294543e+01	-7.346977e+01
1.100000e-06	-3.279568e-06	-1.094754e-09	-2.268300e+01	-7.331136e+01
1.110000e-06	-3.241431e-06	-1.089362e-09	-2.241923e+01	-7.315184e+01
1.120000e-06	-3.203088e-06	-1.082989e-09	-2.215403e+01	-7.299100e+01
1.130000e-06	-3.164491e-06	-1.072653e-09	-2.188708e+01	-7.282861e+01
1.140000e-06	-3.125624e-06	-1.066209e-09	-2.161825e+01	-7.266440e+01
1.150000e-06	-3.086590e-06	-1.068958e-09	-2.134828e+01	-7.249806e+01
1.160000e-06	-3.047373e-06	-1.074261e-09	-2.107703e+01	-7.232928e+01
1.170000e-06	-3.007985e-06	-1.073987e-09	-2.080460e+01	-7.215770e+01
1.180000e-06	-2.968499e-06	-1.071204e-09	-2.053151e+01	-7.198294e+01
1.190000e-06	-2.928891e-06	-1.067360e-09	-2.025756e+01	-7.180463e+01
1.200000e-06	-2.889107e-06	-1.060374e-09	-1.998239e+01	-7.162236e+01
1.210000e-06	-2.849217e-06	-1.050189e-09	-1.970650e+01	-7.143572e+01
1.220000e-06	-2.809251e-06	-1.042101e-09	-1.943008e+01	-7.124432e+01
1.230000e-06	-2.769003e-06	-1.036104e-09	-1.915170e+01	-7.104774e+01
1.240000e-06	-2.728388e-06	-1.033352e-09	-1.887079e+01	-7.084558e+01
1.250000e-06	-2.687621e-06	-1.035098e-09	-1.858882e+01	-7.063746e+01
1.260000e-06	-2.646690e-06	-1.038587e-09	-1.830573e+01	-7.042300e+01
1.270000e-06	-2.605527e-06	-1.038646e-09	-1.802103e+01	-7.020184e+01
1.280000e-06	-2.564109e-06	-1.032002e-09	-1.773456e+01	-6.997366e+01
1.290000e-06	-2.522365e-06	-1.021904e-09	-1.744584e+01	-6.973814e+01
1.300000e-06	-2.480277e-06	-1.008696e-09	-1.715474e+01	-6.949501e+01
1.310000e-06	-2.437769e-06	-9.985958e-10	-1.686073e+01	-6.924401e+01
1.320000e-06	-2.394862e-06	-9.900673e-10	-1.656397e+01	-6.898494e+01
1.330000e-06	-2.351716e-06	-9.851328e-10	-1.626555e+01	-6.871760e+01
1.340000e-06	-2.308405e-06	-9.836342e-10	-1.596599e+01	-6.844185e+01
1.350000e-06	-2.264971e-06	-9.861248e-10	-1.566558e+01	-6.815756e+01
1.360000e-06	-2.221409e-06	-9.901905e-10	-1.536429e+01	-6.786467e+01
1.370000e-06	-2.177684e-06	-9.902516e-10	-1.506187e+01	-6.756310e+01
1.380000e-06	-2.133891e-06	-9.858851e-10	-1.475897e+01	-6.725285e+01
1.390000e-06	-2.090039e-06	-9.733379e-10	-1.445567e+01	-6.693391e+01
1.400000e-06	-2.046118e-06	-9.587240e-10	-1.415189e+01	-6.660631e+01
1.410000e-06	-2.002164e-06	-9.483507e-10	-1.384789e+01	-6.627010e+01
1.420000e-06	-1.958169e-06	-9.433279e-10	-1.354359e+01	-6.592533e+01
1.430000e-06	-1.914099e-06	-9.406829e-10	-1.323879e+01	-6.557209e+01
1.440000e-06	-1.869919e-06	-9.400162e-10	-1.293322e+01	-6.521045e+01
1.450000e-06	-1.825453e-06	-9.388481e-10	-1.262567e+01	-6.484047e+01
1.460000e-06	-1.780814e-06	-9.349308e-10	-1.231693e+01	-6.446225e+01
1.470000e-06	-1.736177e-06	-9.256960e-10	-1.200820e+01	-6.407582e+01
1.480000e-06	-1.691341e-06	-9.136254e-10	-1.169809e+01	-6.368123e+01
1.490000e-06	-1.646321e-06	-9.060677e-10	-1.138671e+01	-6.327849e+01
1.500000e-06	-1.601185e-06	-8.975172e-10	-1.107453e+01	-6.286758e+01
1.510000e-06	-1.555903e-06	-8.894011e-10	-1.076134e+01	-6.244844e+01
1.520000e-06	-1.510497e-06	-8.806663e-10	-1.044729e+01	-6.202096e+01
1.530000e-06	-1.464934e-06	-8.748172e-10	-1.013216e+01	-6.158500e+01
1.540000e-06	-1.419309e-06	-8.649678e-10	-9.816591e+00	-6.114033e+01
1.550000e-06	-1.373649e-06	-8.534174e-10	-9.500788e+00	-6.068669e+01
1.560000e-06	-1.327916e-06	-8.441444e-10	-9.184475e+00	-6.022374e+01
1.570000e-06	-1.282111e-06	-8.352459e-10	-8.867668e+00	-5.975107e+01
1.580000e-06	-1.236223e-06	-8.253320e-10	-8.550290e+00	-5.926820e+01
1.590000e-06	-1.190301e-06	-8.152118e-10	-8.232666e+00	-5.877456e+01
1.600000e-06	-1.144318e-06	-8.074388e-10	-7.914628e+00	-5.826953e+01
1.610000e-06	-1.098261e-06	-7.963160e-10	-7.596079e+00	-5.775239e+01
1.620000e-06	-1.052052e-06	-7.853326e-10	-7.276475e+00	-5.722234e+01
1.630000e-06	-1.005755e-06	-7.740681e-10	-6.956262e+00	-5.667852e+01
1.640000e-06	-9.593956e-07	-7.644229e-10	-6.635621e+00	-5.611998e+01
1.650000e-06	-9.130191e-07	-7.564032e-10	-6.314860e+00	-5.554571e+01
1.660000e-06	-8.665127e-07	-7.495442e-10	-5.993201e+00	-5.495460e+01
1.670000e-06	-8.198441e-07	-7.423293e-10	-5.670419e+00	-5.434551e+01
1.680000e-06	-7.732002e-07	-7.363298e-10	-5.347808e+00	-5.371724e+01
1.690000e-06	-7.264653e-07	-7.296899e-10	-5.024568e+00	-5.306851e+01
1.700000e-06	-6.796843e-07	-7.171179e-10	-4.701010e+00	-5.239802e+01
1.710000e-06	-6.328489e-07	-6.973551e-10	-4.377074e+00	-5.170443e+01
1.720000e-06	-5.859009e-07	-6.766133e-10	-4.052360e+00	-5.098638e+01
1.730000e-06	-5.390950e-07	-6.598997e-10	-3.728629e+00	-5.024247e+01
1.740000e-06	-4.924004e-07	-6.481736e-10	-3.405668e+00	-4.947132e+01
1.750000e-06	-4.455502e-07	-6.408019e-10	-3.081630e+00	-4.867154e+01
1.760000e-06	-3.985455e-07	-6.345425e-10	-2.756524e+00	-4.784177e+01
1.770000e-06	-3.514578e-07	-6.249876e-10	-2.430844e+00	-4.698067e+01
1.780000e-06	-3.043725e-07	-6.101846e-10	-2.105180e+00	-4.608693e+01
1.790000e-06	-2.572945e-07	-5.939616e-10	-1.779567e+00	-4.515932e+01
1.800000e-06	-2.101573e-07	-5.780991e-10	-1.453545e+00	-4.419665e+01
1.810000e-06	-1.630537e-07	-5.625455e-10	-1.127754e+00	-4.319783e+01
1.820000e-06	-1.160006e-07	-5.469650e-10	-8.023135e-01	-4.216184e+01
1.830000e-06	-6.894329e-08	-5.311710e-10	-4.768435e-01	-4.108778e+01
1.840000e-06	-2.176882e-08	-5.171514e-10	-1.505632e-01	-3.997484e+01
1.850000e-06	2.551868e-08	-5.036051e-10	1.764989e-01	-3.882236e+01
1.860000e-06	7.267142e-08	-4.896599e-10	5.026289e-01	-3.762980e+01
1.870000e-06	1.197659e-07	-4.749122e-10	8.283564e-01	-3.639675e+01
1.880000e-06	1.668592e-07	-4.575168e-10	1.154075e+00	-3.512298e+01
1.890000e-06	2.139301e-07	-4.382728e-10	1.479639e+00	-3.380839e+01
1.900000e-06	2.610537e-07	-4.143843e-10	1.805568e+00	-3.245306e+01
1.910000e-06	3.080958e-07	-3.920597e-10	2.130932e+00	-3.105723e+01
1.920000e-06	3.550795e-07	-3.728771e-10	2.455893e+00	-2.962133e+01
1.930000e-06	4.021188e-07	-3.541619e-10	2.781238e+00	-2.814595e+01
1.940000e-06	4.491566e-07	-3.361967e-10	3.106574e+00	-2.663186e+01
1.950000e-06	4.961417e-07	-3.183047e-10	3.431544e+00	-2.508001e+01
1.960000e-06	5.431088e-07	-2.982293e-10	3.756390e+00	-2.349153e+01
1.970000e-06	5.900387e-07	-2.772110e-10	4.080979e+00	-2.186772e+01
1.980000e-06	6.368804e-07	-2.541575e-10	4.404958e+00	-2.021004e+01
1.990000e-06	6.836516e-07	-2.303575e-10	4.728449e+00	-1.852013e+01
2.000000e-06	7.303219e-07	-2.056553e-10	5.051242e+00	-1.679978e+01
2.010000e-06	7.769299e-07	-1.813250e-10	5.373605e+00	-1.505093e+01
2.020000e-06	8.236173e-07	-1.556010e-10	5.696516e+00	-1.327566e+01
2.030000e-06	8.702201e-07	-1.252805e-10	6.018843e+00	-1.147619e+01
2.040000e-06	9.166912e-07	-9.483527e-11	6.340258e+00	-9.654845e+00
2.050000e-06	9.630856e-07	-6.691224e-11	6.661143e+00	-7.814071e+00
2.060000e-06	1.009350e-06	-4.325327e-11	6.981130e+00	-5.956400e+00
2.070000e-06	1.055492e-06	-2.182447e-11	7.300270e+00	-4.084447e+00
2.080000e-06	1.101569e-06	-2.002873e-12	7.618958e+00	-2.200898e+00
2.090000e-06	1.147569e-06	2.327415e-11	7.937114e+00	-3.084851e-01
2.100000e-06	1.193412e-06	5.309621e-11	8.254189e+00	1.590018e+00
2.110000e-06	1.239189e-06	8.409861e-11	8.570802e+00	3.491817e+00
2.120000e-06	1.284912e-06	1.149418e-10	8.887040e+00	5.394112e+00
2.130000e-06	1.330599e-06	1.444002e-10	9.203036e+00	7.294113e+00
2.140000e-06	1.376214e-06	1.711862e-10	9.518527e+00	9.189052e+00
2.150000e-06	1.421735e-06	1.928717e-10	9.833373e+00	1.107620e+01
2.160000e-06	1.467227e-06	2.113146e-10	1.014802e+01	1.295290e+01
2.170000e-06	1.512685e-06	2.303215e-10	1.046243e+01	1.481652e+01
2.180000e-06	1.557949e-06	2.527824e-10	1.077549e+01	1.666456e+01
2.190000e-06	1.603066e-06	2.807751e-10	1.108754e+01	1.849459e+01
2.200000e-06	1.648071e-06	3.127922e-10	1.139882e+01	2.030428e+01
2.210000e-06	1.692816e-06	3.471981e-10	1.170829e+01	2.209143e+01
2.220000e-06	1.737347e-06	3.782652e-10	1.201629e+01	2.385396e+01
2.230000e-06	1.781721e-06	4.033346e-10	1.232320e+01	2.558994e+01
2.240000e-06	1.825980e-06	4.209501e-10	1.262932e+01	2.729756e+01
2.250000e-06	1.870205e-06	4.329364e-10	1.293520e+01	2.897519e+01
2.260000e-06	1.914342e-06	4.461734e-10	1.324047e+01	3.062132e+01
2.270000e-06	1.958380e-06	4.637339e-10	1.354506e+01	3.223463e+01
2.280000e-06	2.002358e-06	4.856707e-10	1.384923e+01	3.381395e+01
2.290000e-06	2.046243e-06	5.113855e-10	1.415275e+01	3.535827e+01
2.300000e-06	2.090082e-06	5.405077e-10	1.445597e+01	3.686676e+01
2.310000e-06	2.133868e-06	5.663522e-10	1.475881e+01	3.833872e+01
2.320000e-06	2.177570e-06	5.858508e-10	1.506108e+01	3.977364e+01
2.330000e-06	2.221239e-06	5.996764e-10	1.536311e+01	4.117115e+01
2.340000e-06	2.264804e-06	6.107256e-10	1.566443e+01	4.253105e+01
2.350000e-06	2.308217e-06	6.224502e-10	1.596469e+01	4.385326e+01
2.360000e-06	2.351540e-06	6.386443e-10	1.626433e+01	4.513786e+01
2.370000e-06	2.394635e-06	6.590703e-10	1.656240e+01	4.638506e+01
2.380000e-06	2.437464e-06	6.816464e-10	1.685862e+01	4.759517e+01
2.390000e-06	2.480103e-06	7.010524e-10	1.715353e+01	4.876865e+01
2.400000e-06	2.522347e-06	7.149952e-10	1.744571e+01	4.990604e+01
2.410000e-06	2.564071e-06	7.272835e-10	1.773429e+01	5.100798e+01
2.420000e-06	2.605413e-06	7.399481e-10	1.802024e+01	5.207519e+01
2.430000e-06	2.646558e-06	7.527352e-10	1.830482e+01	5.310848e+01
2.440000e-06	2.687463e-06	7.674326e-10	1.858773e+01	5.410871e+01
2.450000e-06	2.728067e-06	7.836691e-10	1.886857e+01	5.507679e+01
2.460000e-06	2.768491e-06	7.997188e-10	1.914816e+01	5.601367e+01
2.470000e-06	2.808653e-06	8.129650e-10	1.942593e+01	5.692034e+01
2.480000e-06	2.848590e-06	8.229384e-10	1.970216e+01	5.779779e+01
2.490000e-06	2.888442e-06	8.323766e-10	1.997780e+01	5.864705e+01
2.500000e-06	2.928191e-06	8.429831e-10	2.025272e+01	5.946913e+01
2.510000e-06	2.967807e-06	8.566086e-10	2.052672e+01	6.026503e+01
2.520000e-06	3.007287e-06	8.709500e-10	2.079978e+01	6.103573e+01
2.530000e-06	3.046644e-06	8.846895e-10	2.107199e+01	6.178221e+01
2.540000e-06	3.085753e-06	8.979996e-10	2.134249e+01	6.250538e+01
2.550000e-06	3.124636e-06	9.083166e-10	2.161142e+01	6.320615e+01
2.560000e-06	3.163287e-06	9.149177e-10	2.187875e+01	6.388537e+01
2.570000e-06	3.201603e-06	9.197706e-10	2.214376e+01	6.454384e+01
2.580000e-06	3.239746e-06	9.249581e-10	2.240758e+01	6.518230e+01
2.590000e-06	3.277706e-06	9.317430e-10	2.267013e+01	6.580146e+01
2.600000e-06	3.315475e-06	9.417118e-10	2.293135e+01	6.640197e+01
2.610000e-06	3.353020e-06	9.540925e-10	2.319103e+01	6.698441e+01
2.620000e-06	3.390332e-06	9.678490e-10	2.344909e+01	6.754932e+01
2.630000e-06	3.427432e-06	9.813338e-10	2.370570e+01	6.809716e+01
2.640000e-06	3.464266e-06	9.908165e-10	2.396046e+01	6.862836e+01
2.650000e-06	3.500855e-06	9.961756e-10	2.421352e+01	6.914331e+01
2.660000e-06	3.537153e-06	9.985889e-10	2.446458e+01	6.964231e+01
2.670000e-06	3.573206e-06	1.000042e-09	2.471393e+01	7.012564e+01
2.680000e-06	3.609128e-06	1.001730e-09	2.496239e+01	7.059356e+01
2.690000e-06	3.644940e-06	1.007140e-09	2.521008e+01	7.104625e+01
2.700000e-06	3.680675e-06	1.016359e-09	2.545724e+01	7.148389e+01
2.710000e-06	3.716259e-06	1.024326e-09	2.570336e+01	7.190662e+01
2.720000e-06	3.751573e-06	1.029667e-09	2.594760e+01	7.231457e+01
2.730000e-06	3.786581e-06	1.033228e-09	2.618973e+01	7.270784e+01
2.740000e-06	3.821260e-06	1.035708e-09	2.642959e+01	7.308654e+01
2.750000e-06	3.855460e-06	1.037265e-09	2.666614e+01	7.345076e+01
2.760000e-06	3.889163e-06	1.039088e-09	2.689924e+01	7.380058e+01
2.770000e-06	3.922442e-06	1.044427e-09	2.712941e+01	7.413613e+01
2.780000e-06	3.955204e-06	1.051089e-09	2.735601e+01	7.445751e+01
2.790000e-06	3.987544e-06	1.057185e-09	2.757969e+01	7.476484e+01
2.800000e-06	4.019610e-06	1.063495e-09	2.780147e+01	7.505828e+01
2.810000e-06	4.051531e-06	1.068723e-09	2.802225e+01	7.533801e+01
2.820000e-06	4.083372e-06	1.072239e-09	2.824248e+01	7.560422e+01
2.830000e-06	4.115059e-06	1.075244e-09	2.846164e+01	7.585715e+01
2.840000e-06	4.146508e-06	1.079017e-09	2.867916e+01	7.609705e+01
2.850000e-06	4.177699e-06	1.082891e-09	2.889489e+01	7.632422e+01
2.860000e-06	4.208658e-06	1.086826e-09	2.910901e+01	7.653900e+01
2.870000e-06	4.239302e-06	1.091029e-09	2.932096e+01	7.674175e+01
2.880000e-06	4.269535e-06	1.094372e-09	2.953007e+01	7.693287e+01
2.890000e-06	4.299401e-06	1.095419e-09	2.973663e+01	7.711279e+01
2.900000e-06	4.329005e-06	1.096057e-09	2.994139e+01	7.728198e+01
