# Temperatura_=_-18.63
# Concentracion g/m^3_=_1620.0
# C_Vs_to_Am_M_A/Vsm_=_65563218390.804596
# pendiente_HvsI_1/m_=_3716.3
# ordenada_HvsI_A/m_=_1297.0
# frecuencia_Hz_=_135095.21523621472

Tiempo_(s)	Campo_(V.s)	Magnetizacion_(V.s)	Campo_(kA/m)	Magnetizacion_(A/m)
0.000000e+00	-5.517906e-06	-1.178651e-09	-3.836967e+01	-7.584842e+01
1.000000e-08	-5.518154e-06	-1.179384e-09	-3.837140e+01	-7.587581e+01
2.000000e-08	-5.518119e-06	-1.182329e-09	-3.837115e+01	-7.590359e+01
3.000000e-08	-5.517802e-06	-1.186200e-09	-3.836895e+01	-7.593166e+01
4.000000e-08	-5.517067e-06	-1.186066e-09	-3.836384e+01	-7.595990e+01
5.000000e-08	-5.515725e-06	-1.183620e-09	-3.835450e+01	-7.598819e+01
6.000000e-08	-5.513778e-06	-1.179758e-09	-3.834096e+01	-7.601636e+01
7.000000e-08	-5.511331e-06	-1.188735e-09	-3.832395e+01	-7.604427e+01
8.000000e-08	-5.508391e-06	-1.218889e-09	-3.830351e+01	-7.607173e+01
9.000000e-08	-5.504886e-06	-1.200634e-09	-3.827913e+01	-7.609857e+01
1.000000e-07	-5.500858e-06	-1.126990e-09	-3.825113e+01	-7.612459e+01
1.100000e-07	-5.496586e-06	-1.148206e-09	-3.822142e+01	-7.614961e+01
1.200000e-07	-5.492139e-06	-1.231031e-09	-3.819050e+01	-7.617343e+01
1.300000e-07	-5.487294e-06	-1.204611e-09	-3.815680e+01	-7.619586e+01
1.400000e-07	-5.482145e-06	-1.108907e-09	-3.812100e+01	-7.621670e+01
1.500000e-07	-5.476707e-06	-1.111405e-09	-3.808319e+01	-7.623577e+01
1.600000e-07	-5.470884e-06	-1.238541e-09	-3.804269e+01	-7.625290e+01
1.700000e-07	-5.464608e-06	-1.243573e-09	-3.799906e+01	-7.626791e+01
1.800000e-07	-5.457945e-06	-1.136786e-09	-3.795272e+01	-7.628066e+01
1.900000e-07	-5.451006e-06	-1.126222e-09	-3.790447e+01	-7.629101e+01
2.000000e-07	-5.443672e-06	-1.208701e-09	-3.785347e+01	-7.629883e+01
2.100000e-07	-5.436001e-06	-1.204115e-09	-3.780013e+01	-7.630404e+01
2.200000e-07	-5.428081e-06	-1.127950e-09	-3.774506e+01	-7.630654e+01
2.300000e-07	-5.419872e-06	-1.130818e-09	-3.768797e+01	-7.630628e+01
2.400000e-07	-5.411274e-06	-1.209951e-09	-3.762819e+01	-7.630323e+01
2.500000e-07	-5.402114e-06	-1.220648e-09	-3.756449e+01	-7.629738e+01
2.600000e-07	-5.392348e-06	-1.161329e-09	-3.749658e+01	-7.628874e+01
2.700000e-07	-5.382059e-06	-1.139490e-09	-3.742503e+01	-7.627736e+01
2.800000e-07	-5.371104e-06	-1.168347e-09	-3.734886e+01	-7.626329e+01
2.900000e-07	-5.359590e-06	-1.182364e-09	-3.726879e+01	-7.624663e+01
3.000000e-07	-5.347776e-06	-1.152822e-09	-3.718664e+01	-7.622749e+01
3.100000e-07	-5.335548e-06	-1.144029e-09	-3.710162e+01	-7.620601e+01
3.200000e-07	-5.322867e-06	-1.175174e-09	-3.701344e+01	-7.618233e+01
3.300000e-07	-5.309835e-06	-1.193674e-09	-3.692282e+01	-7.615664e+01
3.400000e-07	-5.296453e-06	-1.148275e-09	-3.682976e+01	-7.612913e+01
3.500000e-07	-5.282609e-06	-1.130711e-09	-3.673349e+01	-7.610000e+01
3.600000e-07	-5.268259e-06	-1.174222e-09	-3.663371e+01	-7.606947e+01
3.700000e-07	-5.253499e-06	-1.181248e-09	-3.653107e+01	-7.603778e+01
3.800000e-07	-5.238291e-06	-1.133665e-09	-3.642532e+01	-7.600515e+01
3.900000e-07	-5.222532e-06	-1.175995e-09	-3.631574e+01	-7.597183e+01
4.000000e-07	-5.206301e-06	-1.213830e-09	-3.620287e+01	-7.593806e+01
4.100000e-07	-5.189711e-06	-1.132023e-09	-3.608751e+01	-7.590408e+01
4.200000e-07	-5.172786e-06	-1.104726e-09	-3.596982e+01	-7.587011e+01
4.300000e-07	-5.155527e-06	-1.205576e-09	-3.584981e+01	-7.583640e+01
4.400000e-07	-5.137934e-06	-1.185770e-09	-3.572748e+01	-7.580314e+01
4.500000e-07	-5.119938e-06	-1.098761e-09	-3.560233e+01	-7.577054e+01
4.600000e-07	-5.101552e-06	-1.179295e-09	-3.547448e+01	-7.573879e+01
4.700000e-07	-5.082806e-06	-1.238300e-09	-3.534413e+01	-7.570805e+01
4.800000e-07	-5.063716e-06	-1.125449e-09	-3.521139e+01	-7.567846e+01
4.900000e-07	-5.044397e-06	-1.118517e-09	-3.507705e+01	-7.565014e+01
5.000000e-07	-5.024855e-06	-1.206249e-09	-3.494116e+01	-7.562319e+01
5.100000e-07	-5.005076e-06	-1.132962e-09	-3.480362e+01	-7.559767e+01
5.200000e-07	-4.985024e-06	-1.083185e-09	-3.466419e+01	-7.557362e+01
5.300000e-07	-4.964600e-06	-1.194415e-09	-3.452216e+01	-7.555106e+01
5.400000e-07	-4.943815e-06	-1.186675e-09	-3.437764e+01	-7.552996e+01
5.500000e-07	-4.922686e-06	-1.092884e-09	-3.423071e+01	-7.551028e+01
5.600000e-07	-4.901206e-06	-1.164223e-09	-3.408135e+01	-7.549194e+01
5.700000e-07	-4.879476e-06	-1.209246e-09	-3.393024e+01	-7.547485e+01
5.800000e-07	-4.857321e-06	-1.108898e-09	-3.377619e+01	-7.545886e+01
5.900000e-07	-4.834758e-06	-1.113109e-09	-3.361929e+01	-7.544382e+01
6.000000e-07	-4.811957e-06	-1.184619e-09	-3.346074e+01	-7.542955e+01
6.100000e-07	-4.788838e-06	-1.126860e-09	-3.329998e+01	-7.541586e+01
6.200000e-07	-4.765443e-06	-1.100183e-09	-3.313730e+01	-7.540251e+01
6.300000e-07	-4.741786e-06	-1.165904e-09	-3.297279e+01	-7.538927e+01
6.400000e-07	-4.717815e-06	-1.153395e-09	-3.280610e+01	-7.537589e+01
6.500000e-07	-4.693575e-06	-1.112736e-09	-3.263755e+01	-7.536210e+01
6.600000e-07	-4.668981e-06	-1.152187e-09	-3.246653e+01	-7.534763e+01
6.700000e-07	-4.643948e-06	-1.152180e-09	-3.229246e+01	-7.533221e+01
6.800000e-07	-4.618353e-06	-1.109435e-09	-3.211448e+01	-7.531556e+01
6.900000e-07	-4.592136e-06	-1.124592e-09	-3.193218e+01	-7.529740e+01
7.000000e-07	-4.565454e-06	-1.141102e-09	-3.174664e+01	-7.527746e+01
7.100000e-07	-4.538414e-06	-1.112211e-09	-3.155861e+01	-7.525549e+01
7.200000e-07	-4.511027e-06	-1.119796e-09	-3.136817e+01	-7.523123e+01
7.300000e-07	-4.483349e-06	-1.141341e-09	-3.117571e+01	-7.520445e+01
7.400000e-07	-4.455534e-06	-1.126494e-09	-3.098229e+01	-7.517494e+01
7.500000e-07	-4.427551e-06	-1.119851e-09	-3.078771e+01	-7.514251e+01
7.600000e-07	-4.399305e-06	-1.131590e-09	-3.059129e+01	-7.510697e+01
7.700000e-07	-4.370754e-06	-1.120547e-09	-3.039276e+01	-7.506818e+01
7.800000e-07	-4.341897e-06	-1.114172e-09	-3.019210e+01	-7.502603e+01
7.900000e-07	-4.312765e-06	-1.126207e-09	-2.998952e+01	-7.498043e+01
8.000000e-07	-4.283337e-06	-1.118928e-09	-2.978489e+01	-7.493130e+01
8.100000e-07	-4.253576e-06	-1.105043e-09	-2.957794e+01	-7.487862e+01
8.200000e-07	-4.223518e-06	-1.113171e-09	-2.936893e+01	-7.482240e+01
8.300000e-07	-4.193210e-06	-1.114548e-09	-2.915818e+01	-7.476264e+01
8.400000e-07	-4.162533e-06	-1.100312e-09	-2.894486e+01	-7.469943e+01
8.500000e-07	-4.131472e-06	-1.106850e-09	-2.872887e+01	-7.463284e+01
8.600000e-07	-4.100225e-06	-1.119225e-09	-2.851159e+01	-7.456298e+01
8.700000e-07	-4.068782e-06	-1.109363e-09	-2.829295e+01	-7.448999e+01
8.800000e-07	-4.037163e-06	-1.101717e-09	-2.807308e+01	-7.441405e+01
8.900000e-07	-4.005430e-06	-1.107916e-09	-2.785242e+01	-7.433532e+01
9.000000e-07	-3.973462e-06	-1.097720e-09	-2.763013e+01	-7.425401e+01
9.100000e-07	-3.941235e-06	-1.086421e-09	-2.740603e+01	-7.417034e+01
9.200000e-07	-3.908692e-06	-1.094517e-09	-2.717973e+01	-7.408454e+01
9.300000e-07	-3.875652e-06	-1.096245e-09	-2.694999e+01	-7.399683e+01
9.400000e-07	-3.842143e-06	-1.085791e-09	-2.671697e+01	-7.390747e+01
9.500000e-07	-3.808194e-06	-1.093173e-09	-2.648091e+01	-7.381668e+01
9.600000e-07	-3.773766e-06	-1.099447e-09	-2.624151e+01	-7.372471e+01
9.700000e-07	-3.739003e-06	-1.088045e-09	-2.599978e+01	-7.363178e+01
9.800000e-07	-3.703909e-06	-1.081621e-09	-2.575574e+01	-7.353812e+01
9.900000e-07	-3.668506e-06	-1.087897e-09	-2.550957e+01	-7.344392e+01
1.000000e-06	-3.632926e-06	-1.082949e-09	-2.526215e+01	-7.334937e+01
1.010000e-06	-3.597236e-06	-1.074140e-09	-2.501397e+01	-7.325465e+01
1.020000e-06	-3.561440e-06	-1.078435e-09	-2.476506e+01	-7.315987e+01
1.030000e-06	-3.525461e-06	-1.081421e-09	-2.451488e+01	-7.306516e+01
1.040000e-06	-3.489298e-06	-1.077176e-09	-2.426341e+01	-7.297060e+01
1.050000e-06	-3.452960e-06	-1.082328e-09	-2.401073e+01	-7.287622e+01
1.060000e-06	-3.416338e-06	-1.085996e-09	-2.375607e+01	-7.278204e+01
1.070000e-06	-3.379367e-06	-1.076825e-09	-2.349899e+01	-7.268805e+01
1.080000e-06	-3.342182e-06	-1.070162e-09	-2.324042e+01	-7.259416e+01
1.090000e-06	-3.304815e-06	-1.070576e-09	-2.298058e+01	-7.250029e+01
1.100000e-06	-3.267185e-06	-1.063658e-09	-2.271891e+01	-7.240629e+01
1.110000e-06	-3.229306e-06	-1.055228e-09	-2.245551e+01	-7.231199e+01
1.120000e-06	-3.191204e-06	-1.056141e-09	-2.219056e+01	-7.221717e+01
1.130000e-06	-3.152944e-06	-1.054819e-09	-2.192452e+01	-7.212159e+01
1.140000e-06	-3.114509e-06	-1.050585e-09	-2.165725e+01	-7.202495e+01
1.150000e-06	-3.075809e-06	-1.052150e-09	-2.138815e+01	-7.192693e+01
1.160000e-06	-3.036786e-06	-1.055318e-09	-2.111679e+01	-7.182720e+01
1.170000e-06	-2.997560e-06	-1.051515e-09	-2.084403e+01	-7.172536e+01
1.180000e-06	-2.958306e-06	-1.048610e-09	-2.057107e+01	-7.162103e+01
1.190000e-06	-2.918914e-06	-1.049326e-09	-2.029715e+01	-7.151379e+01
1.200000e-06	-2.879303e-06	-1.045977e-09	-2.002171e+01	-7.140318e+01
1.210000e-06	-2.839599e-06	-1.039427e-09	-1.974562e+01	-7.128876e+01
1.220000e-06	-2.799813e-06	-1.036093e-09	-1.946896e+01	-7.117008e+01
1.230000e-06	-2.759784e-06	-1.031090e-09	-1.919061e+01	-7.104666e+01
1.240000e-06	-2.719551e-06	-1.026126e-09	-1.891084e+01	-7.091804e+01
1.250000e-06	-2.679180e-06	-1.023868e-09	-1.863012e+01	-7.078374e+01
1.260000e-06	-2.638468e-06	-1.023745e-09	-1.834702e+01	-7.064332e+01
1.270000e-06	-2.597430e-06	-1.021661e-09	-1.806166e+01	-7.049633e+01
1.280000e-06	-2.556151e-06	-1.018361e-09	-1.777462e+01	-7.034234e+01
1.290000e-06	-2.514605e-06	-1.014732e-09	-1.748572e+01	-7.018093e+01
1.300000e-06	-2.472860e-06	-1.006970e-09	-1.719544e+01	-7.001171e+01
1.310000e-06	-2.430863e-06	-9.980488e-10	-1.690341e+01	-6.983431e+01
1.320000e-06	-2.388540e-06	-9.933867e-10	-1.660911e+01	-6.964839e+01
1.330000e-06	-2.345856e-06	-9.910464e-10	-1.631230e+01	-6.945364e+01
1.340000e-06	-2.302955e-06	-9.882235e-10	-1.601398e+01	-6.924977e+01
1.350000e-06	-2.259903e-06	-9.867255e-10	-1.571461e+01	-6.903653e+01
1.360000e-06	-2.216635e-06	-9.880704e-10	-1.541374e+01	-6.881371e+01
1.370000e-06	-2.173153e-06	-9.873883e-10	-1.511138e+01	-6.858110e+01
1.380000e-06	-2.129560e-06	-9.828380e-10	-1.480825e+01	-6.833856e+01
1.390000e-06	-2.085903e-06	-9.756512e-10	-1.450467e+01	-6.808596e+01
1.400000e-06	-2.042131e-06	-9.657749e-10	-1.420029e+01	-6.782319e+01
1.410000e-06	-1.998303e-06	-9.562465e-10	-1.389553e+01	-6.755018e+01
1.420000e-06	-1.954449e-06	-9.485635e-10	-1.359059e+01	-6.726688e+01
1.430000e-06	-1.910487e-06	-9.424811e-10	-1.328488e+01	-6.697326e+01
1.440000e-06	-1.866411e-06	-9.392625e-10	-1.297840e+01	-6.666929e+01
1.450000e-06	-1.822208e-06	-9.375541e-10	-1.267103e+01	-6.635499e+01
1.460000e-06	-1.777885e-06	-9.349622e-10	-1.236282e+01	-6.603034e+01
1.470000e-06	-1.733493e-06	-9.304792e-10	-1.205413e+01	-6.569535e+01
1.480000e-06	-1.689011e-06	-9.218651e-10	-1.174482e+01	-6.535004e+01
1.490000e-06	-1.644380e-06	-9.138269e-10	-1.143447e+01	-6.499438e+01
1.500000e-06	-1.599550e-06	-9.054659e-10	-1.112273e+01	-6.462836e+01
1.510000e-06	-1.554563e-06	-8.951626e-10	-1.080991e+01	-6.425193e+01
1.520000e-06	-1.509505e-06	-8.880663e-10	-1.049660e+01	-6.386504e+01
1.530000e-06	-1.464317e-06	-8.851290e-10	-1.018237e+01	-6.346759e+01
1.540000e-06	-1.418962e-06	-8.834784e-10	-9.866985e+00	-6.305944e+01
1.550000e-06	-1.373540e-06	-8.802062e-10	-9.551140e+00	-6.264042e+01
1.560000e-06	-1.328028e-06	-8.724727e-10	-9.234664e+00	-6.221031e+01
1.570000e-06	-1.282419e-06	-8.633979e-10	-8.917511e+00	-6.176884e+01
1.580000e-06	-1.236767e-06	-8.527607e-10	-8.600064e+00	-6.131569e+01
1.590000e-06	-1.191105e-06	-8.424511e-10	-8.282546e+00	-6.085048e+01
1.600000e-06	-1.145377e-06	-8.339318e-10	-7.964569e+00	-6.037275e+01
1.610000e-06	-1.099502e-06	-8.252027e-10	-7.645571e+00	-5.988200e+01
1.620000e-06	-1.053512e-06	-8.142890e-10	-7.325770e+00	-5.937765e+01
1.630000e-06	-1.007542e-06	-8.033948e-10	-7.006109e+00	-5.885908e+01
1.640000e-06	-9.615296e-07	-7.953761e-10	-6.686155e+00	-5.832557e+01
1.650000e-06	-9.153205e-07	-7.884955e-10	-6.364833e+00	-5.777635e+01
1.660000e-06	-8.690175e-07	-7.837408e-10	-6.042857e+00	-5.721060e+01
1.670000e-06	-8.227190e-07	-7.791259e-10	-5.720912e+00	-5.662741e+01
1.680000e-06	-7.764276e-07	-7.719038e-10	-5.399017e+00	-5.602583e+01
1.690000e-06	-7.300735e-07	-7.606695e-10	-5.076687e+00	-5.540486e+01
1.700000e-06	-6.835584e-07	-7.462102e-10	-4.753236e+00	-5.476344e+01
1.710000e-06	-6.369427e-07	-7.302675e-10	-4.429087e+00	-5.410047e+01
1.720000e-06	-5.903502e-07	-7.154904e-10	-4.105098e+00	-5.341483e+01
1.730000e-06	-5.437462e-07	-7.039638e-10	-3.781029e+00	-5.270533e+01
1.740000e-06	-4.970753e-07	-6.947829e-10	-3.456495e+00	-5.197081e+01
1.750000e-06	-4.505028e-07	-6.884886e-10	-3.132646e+00	-5.121007e+01
1.760000e-06	-4.039411e-07	-6.828061e-10	-2.808871e+00	-5.042190e+01
1.770000e-06	-3.572754e-07	-6.715475e-10	-2.484374e+00	-4.960511e+01
1.780000e-06	-3.105632e-07	-6.570413e-10	-2.159553e+00	-4.875854e+01
1.790000e-06	-2.638313e-07	-6.431850e-10	-1.834594e+00	-4.788103e+01
1.800000e-06	-2.171196e-07	-6.307392e-10	-1.509777e+00	-4.697147e+01
1.810000e-06	-1.703162e-07	-6.185479e-10	-1.184322e+00	-4.602881e+01
1.820000e-06	-1.234821e-07	-6.062591e-10	-8.586534e-01	-4.505204e+01
1.830000e-06	-7.675470e-08	-5.942905e-10	-5.337265e-01	-4.404024e+01
1.840000e-06	-3.001028e-08	-5.812214e-10	-2.086814e-01	-4.299257e+01
1.850000e-06	1.677607e-08	-5.652829e-10	1.166552e-01	-4.190827e+01
1.860000e-06	6.355452e-08	-5.490051e-10	4.419369e-01	-4.078669e+01
1.870000e-06	1.103693e-07	-5.342594e-10	7.674710e-01	-3.962730e+01
1.880000e-06	1.571778e-07	-5.189301e-10	1.092962e+00	-3.842967e+01
1.890000e-06	2.040075e-07	-5.007553e-10	1.418600e+00	-3.719353e+01
1.900000e-06	2.508499e-07	-4.820886e-10	1.744326e+00	-3.591873e+01
1.910000e-06	2.975541e-07	-4.632268e-10	2.069092e+00	-3.460525e+01
1.920000e-06	3.441430e-07	-4.419907e-10	2.393055e+00	-3.325325e+01
1.930000e-06	3.908103e-07	-4.208501e-10	2.717564e+00	-3.186303e+01
1.940000e-06	4.376263e-07	-4.016261e-10	3.043106e+00	-3.043505e+01
1.950000e-06	4.843975e-07	-3.847497e-10	3.368338e+00	-2.896993e+01
1.960000e-06	5.310423e-07	-3.671553e-10	3.692691e+00	-2.746846e+01
1.970000e-06	5.776060e-07	-3.464480e-10	4.016478e+00	-2.593159e+01
1.980000e-06	6.240635e-07	-3.236508e-10	4.339529e+00	-2.436042e+01
1.990000e-06	6.703816e-07	-2.994527e-10	4.661609e+00	-2.275624e+01
2.000000e-06	7.166566e-07	-2.737100e-10	4.983390e+00	-2.112046e+01
2.010000e-06	7.629442e-07	-2.483212e-10	5.305259e+00	-1.945469e+01
2.020000e-06	8.091688e-07	-2.235501e-10	5.626689e+00	-1.776064e+01
2.030000e-06	8.553062e-07	-1.991040e-10	5.947513e+00	-1.604020e+01
2.040000e-06	9.013663e-07	-1.754888e-10	6.267799e+00	-1.429537e+01
2.050000e-06	9.474027e-07	-1.525717e-10	6.587921e+00	-1.252828e+01
2.060000e-06	9.934008e-07	-1.301808e-10	6.907777e+00	-1.074117e+01
2.070000e-06	1.039389e-06	-1.074903e-10	7.227563e+00	-8.936403e+00
2.080000e-06	1.085270e-06	-8.425006e-11	7.546605e+00	-7.116407e+00
2.090000e-06	1.131005e-06	-6.076163e-11	7.864629e+00	-5.283707e+00
2.100000e-06	1.176684e-06	-3.379530e-11	8.182268e+00	-3.440891e+00
2.110000e-06	1.222330e-06	-4.026790e-12	8.499675e+00	-1.590598e+00
2.120000e-06	1.267940e-06	2.387528e-11	8.816830e+00	2.644893e-01
2.130000e-06	1.313510e-06	5.147871e-11	9.133707e+00	2.121668e+00
2.140000e-06	1.358981e-06	7.758986e-11	9.449897e+00	3.978221e+00
2.150000e-06	1.404217e-06	9.993197e-11	9.764454e+00	5.831436e+00
2.160000e-06	1.449376e-06	1.212631e-10	1.007847e+01	7.678621e+00
2.170000e-06	1.494508e-06	1.425352e-10	1.039231e+01	9.517114e+00
2.180000e-06	1.539476e-06	1.651467e-10	1.070500e+01	1.134430e+01
2.190000e-06	1.584353e-06	1.914101e-10	1.101706e+01	1.315763e+01
2.200000e-06	1.629198e-06	2.199104e-10	1.132890e+01	1.495461e+01
2.210000e-06	1.673846e-06	2.483307e-10	1.163937e+01	1.673286e+01
2.220000e-06	1.718277e-06	2.765426e-10	1.194832e+01	1.849008e+01
2.230000e-06	1.762588e-06	3.024079e-10	1.225645e+01	2.022408e+01
2.240000e-06	1.806753e-06	3.226951e-10	1.256356e+01	2.193279e+01
2.250000e-06	1.850793e-06	3.390151e-10	1.286980e+01	2.361428e+01
2.260000e-06	1.894725e-06	3.547601e-10	1.317529e+01	2.526673e+01
2.270000e-06	1.938598e-06	3.731616e-10	1.348036e+01	2.688849e+01
2.280000e-06	1.982417e-06	3.934934e-10	1.378506e+01	2.847806e+01
2.290000e-06	2.026153e-06	4.161448e-10	1.408919e+01	3.003406e+01
2.300000e-06	2.069844e-06	4.405421e-10	1.439300e+01	3.155532e+01
2.310000e-06	2.113516e-06	4.647320e-10	1.469668e+01	3.304078e+01
2.320000e-06	2.157111e-06	4.850732e-10	1.499983e+01	3.448958e+01
2.330000e-06	2.200650e-06	4.997026e-10	1.530259e+01	3.590100e+01
2.340000e-06	2.244104e-06	5.111055e-10	1.560475e+01	3.727450e+01
2.350000e-06	2.287364e-06	5.237009e-10	1.590556e+01	3.860968e+01
2.360000e-06	2.330390e-06	5.408145e-10	1.620475e+01	3.990630e+01
2.370000e-06	2.373115e-06	5.592948e-10	1.650185e+01	4.116428e+01
2.380000e-06	2.415541e-06	5.774911e-10	1.679686e+01	4.238368e+01
2.390000e-06	2.457679e-06	5.957439e-10	1.708987e+01	4.356469e+01
2.400000e-06	2.499512e-06	6.130592e-10	1.738077e+01	4.470764e+01
2.410000e-06	2.541083e-06	6.280235e-10	1.766984e+01	4.581300e+01
2.420000e-06	2.582284e-06	6.408699e-10	1.795634e+01	4.688133e+01
2.430000e-06	2.623232e-06	6.525779e-10	1.824108e+01	4.791330e+01
2.440000e-06	2.663948e-06	6.655623e-10	1.852420e+01	4.890970e+01
2.450000e-06	2.704317e-06	6.805979e-10	1.880492e+01	4.987136e+01
2.460000e-06	2.744485e-06	6.959969e-10	1.908423e+01	5.079924e+01
2.470000e-06	2.784488e-06	7.109205e-10	1.936240e+01	5.169433e+01
2.480000e-06	2.824378e-06	7.248785e-10	1.963978e+01	5.255769e+01
2.490000e-06	2.864142e-06	7.377431e-10	1.991628e+01	5.339040e+01
2.500000e-06	2.903776e-06	7.477609e-10	2.019189e+01	5.419360e+01
2.510000e-06	2.943301e-06	7.565896e-10	2.046673e+01	5.496845e+01
2.520000e-06	2.982622e-06	7.682465e-10	2.074015e+01	5.571609e+01
2.530000e-06	3.021707e-06	7.813981e-10	2.101194e+01	5.643772e+01
2.540000e-06	3.060559e-06	7.972245e-10	2.128210e+01	5.713447e+01
2.550000e-06	3.099279e-06	8.115228e-10	2.155135e+01	5.780750e+01
2.560000e-06	3.137801e-06	8.203395e-10	2.181922e+01	5.845792e+01
2.570000e-06	3.176021e-06	8.255954e-10	2.208498e+01	5.908683e+01
2.580000e-06	3.214077e-06	8.315766e-10	2.234961e+01	5.969527e+01
2.590000e-06	3.251978e-06	8.369180e-10	2.261317e+01	6.028425e+01
2.600000e-06	3.289677e-06	8.444246e-10	2.287531e+01	6.085473e+01
2.610000e-06	3.327094e-06	8.573520e-10	2.313550e+01	6.140761e+01
2.620000e-06	3.364226e-06	8.747710e-10	2.339370e+01	6.194374e+01
2.630000e-06	3.401097e-06	8.908155e-10	2.365009e+01	6.246389e+01
2.640000e-06	3.437711e-06	8.985910e-10	2.390469e+01	6.296879e+01
2.650000e-06	3.474084e-06	9.035176e-10	2.415762e+01	6.345910e+01
2.660000e-06	3.510241e-06	9.060329e-10	2.440904e+01	6.393541e+01
2.670000e-06	3.546195e-06	9.097269e-10	2.465905e+01	6.439825e+01
2.680000e-06	3.582026e-06	9.140838e-10	2.490821e+01	6.484809e+01
2.690000e-06	3.617766e-06	9.226102e-10	2.515673e+01	6.528534e+01
2.700000e-06	3.653395e-06	9.331774e-10	2.540448e+01	6.571034e+01
2.710000e-06	3.688862e-06	9.400615e-10	2.565111e+01	6.612339e+01
2.720000e-06	3.724109e-06	9.437179e-10	2.589621e+01	6.652473e+01
2.730000e-06	3.759074e-06	9.465097e-10	2.613934e+01	6.691455e+01
2.740000e-06	3.793689e-06	9.495547e-10	2.638004e+01	6.729301e+01
2.750000e-06	3.827850e-06	9.524665e-10	2.661759e+01	6.766021e+01
2.760000e-06	3.861535e-06	9.552288e-10	2.685182e+01	6.801625e+01
2.770000e-06	3.894801e-06	9.599766e-10	2.708314e+01	6.836116e+01
2.780000e-06	3.927582e-06	9.671388e-10	2.731109e+01	6.869497e+01
2.790000e-06	3.959924e-06	9.734096e-10	2.753598e+01	6.901771e+01
2.800000e-06	3.991969e-06	9.802510e-10	2.775881e+01	6.932937e+01
2.810000e-06	4.023850e-06	9.881473e-10	2.798050e+01	6.962993e+01
2.820000e-06	4.055585e-06	9.944515e-10	2.820118e+01	6.991940e+01
2.830000e-06	4.087134e-06	9.980168e-10	2.842056e+01	7.019776e+01
2.840000e-06	4.118420e-06	9.998123e-10	2.863812e+01	7.046502e+01
2.850000e-06	4.149451e-06	1.002216e-09	2.885389e+01	7.072119e+01
2.860000e-06	4.180203e-06	1.005075e-09	2.906773e+01	7.096631e+01
2.870000e-06	4.210637e-06	1.009723e-09	2.927936e+01	7.120041e+01
2.880000e-06	4.240759e-06	1.016819e-09	2.948882e+01	7.142358e+01
2.890000e-06	4.270593e-06	1.021258e-09	2.969628e+01	7.163590e+01
2.900000e-06	4.300224e-06	1.025221e-09	2.990232e+01	7.183751e+01
