# Temperatura_=_8.45
# Concentracion g/m^3_=_1620.0
# C_Vs_to_Am_M_A/Vsm_=_65563218390.804596
# pendiente_HvsI_1/m_=_3716.3
# ordenada_HvsI_A/m_=_1297.0
# frecuencia_Hz_=_135107.48304482375

Tiempo_(s)	Campo_(V.s)	Magnetizacion_(V.s)	Campo_(kA/m)	Magnetizacion_(A/m)
0.000000e+00	-5.518740e-06	-1.697200e-09	-3.837142e+01	-1.102561e+02
1.000000e-08	-5.518967e-06	-1.701889e-09	-3.837300e+01	-1.102167e+02
2.000000e-08	-5.518918e-06	-1.709564e-09	-3.837265e+01	-1.101762e+02
3.000000e-08	-5.518356e-06	-1.714868e-09	-3.836875e+01	-1.101344e+02
4.000000e-08	-5.517266e-06	-1.713927e-09	-3.836117e+01	-1.100910e+02
5.000000e-08	-5.515670e-06	-1.701908e-09	-3.835007e+01	-1.100460e+02
6.000000e-08	-5.513504e-06	-1.676832e-09	-3.833501e+01	-1.099991e+02
7.000000e-08	-5.510770e-06	-1.668597e-09	-3.831600e+01	-1.099501e+02
8.000000e-08	-5.507508e-06	-1.725292e-09	-3.829332e+01	-1.098987e+02
9.000000e-08	-5.503726e-06	-1.802657e-09	-3.826703e+01	-1.098447e+02
1.000000e-07	-5.499457e-06	-1.765814e-09	-3.823735e+01	-1.097879e+02
1.100000e-07	-5.494944e-06	-1.646257e-09	-3.820597e+01	-1.097280e+02
1.200000e-07	-5.490383e-06	-1.627848e-09	-3.817425e+01	-1.096649e+02
1.300000e-07	-5.485597e-06	-1.689446e-09	-3.814098e+01	-1.095982e+02
1.400000e-07	-5.480328e-06	-1.714585e-09	-3.810434e+01	-1.095278e+02
1.500000e-07	-5.474645e-06	-1.650844e-09	-3.806483e+01	-1.094534e+02
1.600000e-07	-5.468632e-06	-1.672286e-09	-3.802302e+01	-1.093749e+02
1.700000e-07	-5.462158e-06	-1.744705e-09	-3.797801e+01	-1.092921e+02
1.800000e-07	-5.455177e-06	-1.723925e-09	-3.792947e+01	-1.092048e+02
1.900000e-07	-5.447893e-06	-1.662528e-09	-3.787882e+01	-1.091130e+02
2.000000e-07	-5.440386e-06	-1.636037e-09	-3.782662e+01	-1.090164e+02
2.100000e-07	-5.432621e-06	-1.698576e-09	-3.777264e+01	-1.089151e+02
2.200000e-07	-5.424638e-06	-1.706005e-09	-3.771713e+01	-1.088090e+02
2.300000e-07	-5.416387e-06	-1.705641e-09	-3.765977e+01	-1.086980e+02
2.400000e-07	-5.407581e-06	-1.686492e-09	-3.759854e+01	-1.085822e+02
2.500000e-07	-5.398027e-06	-1.694268e-09	-3.753211e+01	-1.084615e+02
2.600000e-07	-5.387769e-06	-1.665676e-09	-3.746078e+01	-1.083361e+02
2.700000e-07	-5.376941e-06	-1.651710e-09	-3.738550e+01	-1.082059e+02
2.800000e-07	-5.365667e-06	-1.650061e-09	-3.730711e+01	-1.080712e+02
2.900000e-07	-5.353994e-06	-1.677155e-09	-3.722595e+01	-1.079319e+02
3.000000e-07	-5.342012e-06	-1.671373e-09	-3.714264e+01	-1.077883e+02
3.100000e-07	-5.329640e-06	-1.645556e-09	-3.705662e+01	-1.076405e+02
3.200000e-07	-5.316761e-06	-1.641317e-09	-3.696707e+01	-1.074887e+02
3.300000e-07	-5.303514e-06	-1.655140e-09	-3.687496e+01	-1.073331e+02
3.400000e-07	-5.290014e-06	-1.650608e-09	-3.678110e+01	-1.071738e+02
3.500000e-07	-5.276134e-06	-1.618033e-09	-3.668459e+01	-1.070110e+02
3.600000e-07	-5.261688e-06	-1.644908e-09	-3.658415e+01	-1.068450e+02
3.700000e-07	-5.246747e-06	-1.673940e-09	-3.648027e+01	-1.066760e+02
3.800000e-07	-5.231242e-06	-1.646065e-09	-3.637247e+01	-1.065042e+02
3.900000e-07	-5.215059e-06	-1.609846e-09	-3.625995e+01	-1.063297e+02
4.000000e-07	-5.198499e-06	-1.651976e-09	-3.614481e+01	-1.061527e+02
4.100000e-07	-5.181702e-06	-1.637834e-09	-3.602802e+01	-1.059735e+02
4.200000e-07	-5.164532e-06	-1.587008e-09	-3.590864e+01	-1.057921e+02
4.300000e-07	-5.146966e-06	-1.613776e-09	-3.578650e+01	-1.056088e+02
4.400000e-07	-5.129193e-06	-1.672786e-09	-3.566293e+01	-1.054237e+02
4.500000e-07	-5.111170e-06	-1.615433e-09	-3.553761e+01	-1.052368e+02
4.600000e-07	-5.092623e-06	-1.592794e-09	-3.540866e+01	-1.050483e+02
4.700000e-07	-5.073623e-06	-1.635491e-09	-3.527655e+01	-1.048583e+02
4.800000e-07	-5.054359e-06	-1.618351e-09	-3.514261e+01	-1.046667e+02
4.900000e-07	-5.034876e-06	-1.560170e-09	-3.500714e+01	-1.044735e+02
5.000000e-07	-5.015216e-06	-1.597333e-09	-3.487045e+01	-1.042789e+02
5.100000e-07	-4.995329e-06	-1.594567e-09	-3.473218e+01	-1.040826e+02
5.200000e-07	-4.975038e-06	-1.545026e-09	-3.459110e+01	-1.038848e+02
5.300000e-07	-4.954276e-06	-1.576916e-09	-3.444674e+01	-1.036852e+02
5.400000e-07	-4.933180e-06	-1.620233e-09	-3.430006e+01	-1.034838e+02
5.500000e-07	-4.911756e-06	-1.554847e-09	-3.415110e+01	-1.032805e+02
5.600000e-07	-4.890003e-06	-1.541989e-09	-3.399986e+01	-1.030751e+02
5.700000e-07	-4.868050e-06	-1.592114e-09	-3.384721e+01	-1.028675e+02
5.800000e-07	-4.845776e-06	-1.565287e-09	-3.369234e+01	-1.026574e+02
5.900000e-07	-4.823043e-06	-1.526862e-09	-3.353428e+01	-1.024447e+02
6.000000e-07	-4.799892e-06	-1.562483e-09	-3.337331e+01	-1.022293e+02
6.100000e-07	-4.776434e-06	-1.552521e-09	-3.321021e+01	-1.020108e+02
6.200000e-07	-4.752839e-06	-1.504780e-09	-3.304616e+01	-1.017891e+02
6.300000e-07	-4.729122e-06	-1.526677e-09	-3.288126e+01	-1.015640e+02
6.400000e-07	-4.705124e-06	-1.542420e-09	-3.271440e+01	-1.013353e+02
6.500000e-07	-4.680681e-06	-1.514992e-09	-3.254445e+01	-1.011028e+02
6.600000e-07	-4.655757e-06	-1.523495e-09	-3.237116e+01	-1.008663e+02
6.700000e-07	-4.630318e-06	-1.543022e-09	-3.219428e+01	-1.006257e+02
6.800000e-07	-4.604318e-06	-1.506586e-09	-3.201350e+01	-1.003807e+02
6.900000e-07	-4.577795e-06	-1.495844e-09	-3.182909e+01	-1.001312e+02
7.000000e-07	-4.550791e-06	-1.509868e-09	-3.164134e+01	-9.987724e+01
7.100000e-07	-4.523439e-06	-1.496135e-09	-3.145116e+01	-9.961857e+01
7.200000e-07	-4.495879e-06	-1.484691e-09	-3.125953e+01	-9.935515e+01
7.300000e-07	-4.468165e-06	-1.510874e-09	-3.106684e+01	-9.908693e+01
7.400000e-07	-4.440304e-06	-1.504838e-09	-3.087312e+01	-9.881389e+01
7.500000e-07	-4.412260e-06	-1.486181e-09	-3.067814e+01	-9.853604e+01
7.600000e-07	-4.383908e-06	-1.489650e-09	-3.048101e+01	-9.825341e+01
7.700000e-07	-4.355151e-06	-1.489375e-09	-3.028106e+01	-9.796604e+01
7.800000e-07	-4.326103e-06	-1.463975e-09	-3.007909e+01	-9.767403e+01
7.900000e-07	-4.296819e-06	-1.467093e-09	-2.987549e+01	-9.737747e+01
8.000000e-07	-4.267241e-06	-1.471545e-09	-2.966983e+01	-9.707650e+01
8.100000e-07	-4.237322e-06	-1.453023e-09	-2.946181e+01	-9.677126e+01
8.200000e-07	-4.207038e-06	-1.443116e-09	-2.925125e+01	-9.646193e+01
8.300000e-07	-4.176496e-06	-1.455021e-09	-2.903889e+01	-9.614869e+01
8.400000e-07	-4.145680e-06	-1.445075e-09	-2.882463e+01	-9.583174e+01
8.500000e-07	-4.114512e-06	-1.436310e-09	-2.860792e+01	-9.551128e+01
8.600000e-07	-4.083112e-06	-1.447166e-09	-2.838959e+01	-9.518754e+01
8.700000e-07	-4.051588e-06	-1.442176e-09	-2.817041e+01	-9.486073e+01
8.800000e-07	-4.019978e-06	-1.420453e-09	-2.795063e+01	-9.453107e+01
8.900000e-07	-3.988200e-06	-1.416297e-09	-2.772968e+01	-9.419878e+01
9.000000e-07	-3.956133e-06	-1.411740e-09	-2.750672e+01	-9.386406e+01
9.100000e-07	-3.923768e-06	-1.392170e-09	-2.728169e+01	-9.352712e+01
9.200000e-07	-3.890999e-06	-1.389178e-09	-2.705385e+01	-9.318812e+01
9.300000e-07	-3.857736e-06	-1.396665e-09	-2.682258e+01	-9.284723e+01
9.400000e-07	-3.824035e-06	-1.388587e-09	-2.658825e+01	-9.250459e+01
9.500000e-07	-3.789795e-06	-1.378335e-09	-2.635019e+01	-9.216031e+01
9.600000e-07	-3.755119e-06	-1.379513e-09	-2.610908e+01	-9.181447e+01
9.700000e-07	-3.720130e-06	-1.364924e-09	-2.586581e+01	-9.146714e+01
9.800000e-07	-3.684844e-06	-1.347112e-09	-2.562047e+01	-9.111832e+01
9.900000e-07	-3.649380e-06	-1.344896e-09	-2.537389e+01	-9.076800e+01
1.000000e-06	-3.613759e-06	-1.345100e-09	-2.512622e+01	-9.041612e+01
1.010000e-06	-3.578021e-06	-1.331847e-09	-2.487773e+01	-9.006260e+01
1.020000e-06	-3.542192e-06	-1.329269e-09	-2.462862e+01	-8.970731e+01
1.030000e-06	-3.506192e-06	-1.327705e-09	-2.437831e+01	-8.935006e+01
1.040000e-06	-3.469920e-06	-1.316596e-09	-2.412611e+01	-8.899066e+01
1.050000e-06	-3.433318e-06	-1.306154e-09	-2.387162e+01	-8.862886e+01
1.060000e-06	-3.396435e-06	-1.303502e-09	-2.361518e+01	-8.826438e+01
1.070000e-06	-3.359247e-06	-1.289613e-09	-2.335661e+01	-8.789689e+01
1.080000e-06	-3.321792e-06	-1.275528e-09	-2.309619e+01	-8.752606e+01
1.090000e-06	-3.284160e-06	-1.270141e-09	-2.283454e+01	-8.715151e+01
1.100000e-06	-3.246328e-06	-1.263447e-09	-2.257149e+01	-8.677283e+01
1.110000e-06	-3.208347e-06	-1.249258e-09	-2.230741e+01	-8.638960e+01
1.120000e-06	-3.170199e-06	-1.241604e-09	-2.204218e+01	-8.600138e+01
1.130000e-06	-3.131788e-06	-1.234484e-09	-2.177511e+01	-8.560771e+01
1.140000e-06	-3.093111e-06	-1.223123e-09	-2.150619e+01	-8.520812e+01
1.150000e-06	-3.054155e-06	-1.217697e-09	-2.123533e+01	-8.480214e+01
1.160000e-06	-3.014981e-06	-1.216504e-09	-2.096295e+01	-8.438930e+01
1.170000e-06	-2.975674e-06	-1.209145e-09	-2.068966e+01	-8.396914e+01
1.180000e-06	-2.936220e-06	-1.201184e-09	-2.041533e+01	-8.354119e+01
1.190000e-06	-2.896657e-06	-1.197063e-09	-2.014026e+01	-8.310501e+01
1.200000e-06	-2.857017e-06	-1.186052e-09	-1.986465e+01	-8.266019e+01
1.210000e-06	-2.817236e-06	-1.170913e-09	-1.958805e+01	-8.220631e+01
1.220000e-06	-2.777297e-06	-1.161088e-09	-1.931035e+01	-8.174301e+01
1.230000e-06	-2.737238e-06	-1.153012e-09	-1.903183e+01	-8.126994e+01
1.240000e-06	-2.696934e-06	-1.141170e-09	-1.875160e+01	-8.078680e+01
1.250000e-06	-2.656334e-06	-1.135306e-09	-1.846931e+01	-8.029330e+01
1.260000e-06	-2.615527e-06	-1.132183e-09	-1.818558e+01	-7.978923e+01
1.270000e-06	-2.574506e-06	-1.124558e-09	-1.790036e+01	-7.927438e+01
1.280000e-06	-2.533077e-06	-1.113069e-09	-1.761231e+01	-7.874862e+01
1.290000e-06	-2.491284e-06	-1.103096e-09	-1.732173e+01	-7.821183e+01
1.300000e-06	-2.449179e-06	-1.089952e-09	-1.702898e+01	-7.766396e+01
1.310000e-06	-2.406789e-06	-1.074997e-09	-1.673424e+01	-7.710499e+01
1.320000e-06	-2.364260e-06	-1.063259e-09	-1.643854e+01	-7.653493e+01
1.330000e-06	-2.321517e-06	-1.056996e-09	-1.614135e+01	-7.595386e+01
1.340000e-06	-2.278440e-06	-1.051295e-09	-1.584184e+01	-7.536186e+01
1.350000e-06	-2.235087e-06	-1.047242e-09	-1.554040e+01	-7.475907e+01
1.360000e-06	-2.191654e-06	-1.042361e-09	-1.523842e+01	-7.414565e+01
1.370000e-06	-2.148140e-06	-1.033107e-09	-1.493587e+01	-7.352179e+01
1.380000e-06	-2.104551e-06	-1.019704e-09	-1.463279e+01	-7.288767e+01
1.390000e-06	-2.060923e-06	-1.004802e-09	-1.432945e+01	-7.224353e+01
1.400000e-06	-2.017217e-06	-9.878885e-10	-1.402557e+01	-7.158959e+01
1.410000e-06	-1.973438e-06	-9.729617e-10	-1.372118e+01	-7.092606e+01
1.420000e-06	-1.929536e-06	-9.613582e-10	-1.341593e+01	-7.025318e+01
1.430000e-06	-1.885499e-06	-9.524931e-10	-1.310975e+01	-6.957113e+01
1.440000e-06	-1.841380e-06	-9.444248e-10	-1.280299e+01	-6.888012e+01
1.450000e-06	-1.797161e-06	-9.375973e-10	-1.249553e+01	-6.818029e+01
1.460000e-06	-1.752812e-06	-9.301433e-10	-1.218718e+01	-6.747178e+01
1.470000e-06	-1.708328e-06	-9.179668e-10	-1.187789e+01	-6.675465e+01
1.480000e-06	-1.663640e-06	-9.040360e-10	-1.156717e+01	-6.602895e+01
1.490000e-06	-1.618769e-06	-8.914945e-10	-1.125519e+01	-6.529465e+01
1.500000e-06	-1.573802e-06	-8.761948e-10	-1.094253e+01	-6.455166e+01
1.510000e-06	-1.528683e-06	-8.604061e-10	-1.062883e+01	-6.379984e+01
1.520000e-06	-1.483484e-06	-8.492586e-10	-1.031456e+01	-6.303895e+01
1.530000e-06	-1.438240e-06	-8.397054e-10	-9.999981e+00	-6.226870e+01
1.540000e-06	-1.392913e-06	-8.295880e-10	-9.684828e+00	-6.148869e+01
1.550000e-06	-1.347558e-06	-8.184589e-10	-9.369478e+00	-6.069847e+01
1.560000e-06	-1.302105e-06	-8.056096e-10	-9.053448e+00	-5.989748e+01
1.570000e-06	-1.256506e-06	-7.894809e-10	-8.736401e+00	-5.908508e+01
1.580000e-06	-1.210785e-06	-7.748389e-10	-8.418506e+00	-5.826053e+01
1.590000e-06	-1.164918e-06	-7.604298e-10	-8.099595e+00	-5.742302e+01
1.600000e-06	-1.118992e-06	-7.440997e-10	-7.780271e+00	-5.657165e+01
1.610000e-06	-1.073114e-06	-7.294614e-10	-7.461289e+00	-5.570544e+01
1.620000e-06	-1.027189e-06	-7.183059e-10	-7.141975e+00	-5.482331e+01
1.630000e-06	-9.811542e-07	-7.061047e-10	-6.821898e+00	-5.392413e+01
1.640000e-06	-9.349814e-07	-6.937853e-10	-6.500861e+00	-5.300671e+01
1.650000e-06	-8.886957e-07	-6.821625e-10	-6.179040e+00	-5.206976e+01
1.660000e-06	-8.423727e-07	-6.699213e-10	-5.856959e+00	-5.111197e+01
1.670000e-06	-7.960431e-07	-6.558546e-10	-5.534833e+00	-5.013198e+01
1.680000e-06	-7.497235e-07	-6.401724e-10	-5.212776e+00	-4.912839e+01
1.690000e-06	-7.033674e-07	-6.240526e-10	-4.890465e+00	-4.809977e+01
1.700000e-06	-6.569603e-07	-6.049696e-10	-4.567799e+00	-4.704470e+01
1.710000e-06	-6.105078e-07	-5.833212e-10	-4.244818e+00	-4.596172e+01
1.720000e-06	-5.639698e-07	-5.627462e-10	-3.921243e+00	-4.484942e+01
1.730000e-06	-5.173874e-07	-5.442575e-10	-3.597359e+00	-4.370640e+01
1.740000e-06	-4.707727e-07	-5.290530e-10	-3.273250e+00	-4.253128e+01
1.750000e-06	-4.241065e-07	-5.149350e-10	-2.948783e+00	-4.132276e+01
1.760000e-06	-3.774035e-07	-4.993267e-10	-2.624061e+00	-4.007958e+01
1.770000e-06	-3.306292e-07	-4.825631e-10	-2.298842e+00	-3.880056e+01
1.780000e-06	-2.837940e-07	-4.646509e-10	-1.973200e+00	-3.748462e+01
1.790000e-06	-2.369745e-07	-4.447136e-10	-1.647667e+00	-3.613078e+01
1.800000e-06	-1.901386e-07	-4.235544e-10	-1.322020e+00	-3.473816e+01
1.810000e-06	-1.432224e-07	-4.033890e-10	-9.958153e-01	-3.330602e+01
1.820000e-06	-9.637094e-08	-3.842886e-10	-6.700605e-01	-3.183375e+01
1.830000e-06	-4.960181e-08	-3.656841e-10	-3.448779e-01	-3.032090e+01
1.840000e-06	-2.822593e-09	-3.474064e-10	-1.962529e-02	-2.876716e+01
1.850000e-06	4.398136e-08	-3.289890e-10	3.057993e-01	-2.717240e+01
1.860000e-06	9.085604e-08	-3.094470e-10	6.317158e-01	-2.553665e+01
1.870000e-06	1.377141e-07	-2.885242e-10	9.575164e-01	-2.386013e+01
1.880000e-06	1.845240e-07	-2.651633e-10	1.282982e+00	-2.214322e+01
1.890000e-06	2.313353e-07	-2.393451e-10	1.608458e+00	-2.038653e+01
1.900000e-06	2.781397e-07	-2.116865e-10	1.933886e+00	-1.859081e+01
1.910000e-06	3.249304e-07	-1.829786e-10	2.259219e+00	-1.675704e+01
1.920000e-06	3.715924e-07	-1.551337e-10	2.583656e+00	-1.488636e+01
1.930000e-06	4.182421e-07	-1.275270e-10	2.908009e+00	-1.298011e+01
1.940000e-06	4.650154e-07	-1.031724e-10	3.233220e+00	-1.103983e+01
1.950000e-06	5.116522e-07	-8.114935e-11	3.557482e+00	-9.067197e+00
1.960000e-06	5.581174e-07	-5.625775e-11	3.880552e+00	-7.064098e+00
1.970000e-06	6.045972e-07	-2.803727e-11	4.203723e+00	-5.032567e+00
1.980000e-06	6.510574e-07	1.462957e-12	4.526757e+00	-2.974798e+00
1.990000e-06	6.974133e-07	3.119912e-11	4.849067e+00	-8.931269e-01
2.000000e-06	7.437441e-07	6.320796e-11	5.171201e+00	1.209974e+00
2.010000e-06	7.900736e-07	9.522389e-11	5.493327e+00	3.331913e+00
2.020000e-06	8.363512e-07	1.266850e-10	5.815092e+00	5.469991e+00
2.030000e-06	8.825896e-07	1.581341e-10	6.136584e+00	7.621415e+00
2.040000e-06	9.287289e-07	1.877529e-10	6.457388e+00	9.783313e+00
2.050000e-06	9.747496e-07	2.153748e-10	6.777366e+00	1.195275e+01
2.060000e-06	1.020740e-06	2.420448e-10	7.097137e+00	1.412676e+01
2.070000e-06	1.066711e-06	2.683226e-10	7.416771e+00	1.630232e+01
2.080000e-06	1.112584e-06	2.962316e-10	7.735718e+00	1.847641e+01
2.090000e-06	1.158357e-06	3.276113e-10	8.053977e+00	2.064602e+01
2.100000e-06	1.204029e-06	3.604283e-10	8.371533e+00	2.280815e+01
2.110000e-06	1.249569e-06	3.921465e-10	8.688164e+00	2.495985e+01
2.120000e-06	1.295027e-06	4.240594e-10	9.004231e+00	2.709821e+01
2.130000e-06	1.340455e-06	4.552792e-10	9.320093e+00	2.922041e+01
2.140000e-06	1.385841e-06	4.826472e-10	9.635659e+00	3.132368e+01
2.150000e-06	1.431156e-06	5.062668e-10	9.950729e+00	3.340538e+01
2.160000e-06	1.476379e-06	5.296126e-10	1.026516e+01	3.546299e+01
2.170000e-06	1.521525e-06	5.540196e-10	1.057906e+01	3.749408e+01
2.180000e-06	1.566546e-06	5.803661e-10	1.089209e+01	3.949640e+01
2.190000e-06	1.611373e-06	6.092720e-10	1.120376e+01	4.146781e+01
2.200000e-06	1.656027e-06	6.402523e-10	1.151424e+01	4.340637e+01
2.210000e-06	1.700565e-06	6.713085e-10	1.182391e+01	4.531025e+01
2.220000e-06	1.745022e-06	6.999620e-10	1.213302e+01	4.717785e+01
2.230000e-06	1.789350e-06	7.246692e-10	1.244123e+01	4.900772e+01
2.240000e-06	1.833533e-06	7.439790e-10	1.274843e+01	5.079858e+01
2.250000e-06	1.877591e-06	7.589877e-10	1.305476e+01	5.254936e+01
2.260000e-06	1.921522e-06	7.747741e-10	1.336021e+01	5.425915e+01
2.270000e-06	1.965394e-06	7.949120e-10	1.366525e+01	5.592726e+01
2.280000e-06	2.009203e-06	8.186882e-10	1.396985e+01	5.755315e+01
2.290000e-06	2.052915e-06	8.450871e-10	1.427378e+01	5.913648e+01
2.300000e-06	2.096565e-06	8.713082e-10	1.457727e+01	6.067706e+01
2.310000e-06	2.140151e-06	8.940208e-10	1.488032e+01	6.217491e+01
2.320000e-06	2.183636e-06	9.138427e-10	1.518267e+01	6.363019e+01
2.330000e-06	2.227077e-06	9.314659e-10	1.548471e+01	6.504320e+01
2.340000e-06	2.270394e-06	9.464521e-10	1.578589e+01	6.641442e+01
2.350000e-06	2.313405e-06	9.614701e-10	1.608494e+01	6.774446e+01
2.360000e-06	2.356235e-06	9.785786e-10	1.638274e+01	6.903403e+01
2.370000e-06	2.398855e-06	9.985486e-10	1.667907e+01	7.028399e+01
2.380000e-06	2.441176e-06	1.019222e-09	1.697333e+01	7.149527e+01
2.390000e-06	2.483161e-06	1.037695e-09	1.726524e+01	7.266893e+01
2.400000e-06	2.524792e-06	1.054116e-09	1.755471e+01	7.380608e+01
2.410000e-06	2.566162e-06	1.068908e-09	1.784235e+01	7.490791e+01
2.420000e-06	2.607260e-06	1.082546e-09	1.812810e+01	7.597565e+01
2.430000e-06	2.648037e-06	1.097306e-09	1.841162e+01	7.701059e+01
2.440000e-06	2.688496e-06	1.112861e-09	1.869293e+01	7.801404e+01
2.450000e-06	2.728704e-06	1.128207e-09	1.897249e+01	7.898732e+01
2.460000e-06	2.768707e-06	1.143297e-09	1.925063e+01	7.993176e+01
2.470000e-06	2.808588e-06	1.157932e-09	1.952792e+01	8.084868e+01
2.480000e-06	2.848378e-06	1.172077e-09	1.980457e+01	8.173939e+01
2.490000e-06	2.888041e-06	1.184619e-09	2.008035e+01	8.260518e+01
2.500000e-06	2.927577e-06	1.196180e-09	2.035524e+01	8.344727e+01
2.510000e-06	2.966980e-06	1.211436e-09	2.062921e+01	8.426687e+01
2.520000e-06	3.006236e-06	1.225460e-09	2.090215e+01	8.506512e+01
2.530000e-06	3.045323e-06	1.239841e-09	2.117392e+01	8.584311e+01
2.540000e-06	3.084121e-06	1.255795e-09	2.144368e+01	8.660185e+01
2.550000e-06	3.122643e-06	1.267229e-09	2.171152e+01	8.734228e+01
2.560000e-06	3.161045e-06	1.273424e-09	2.197852e+01	8.806530e+01
2.570000e-06	3.199241e-06	1.276429e-09	2.224410e+01	8.877169e+01
2.580000e-06	3.237126e-06	1.280281e-09	2.250751e+01	8.946217e+01
2.590000e-06	3.274803e-06	1.286424e-09	2.276948e+01	9.013740e+01
2.600000e-06	3.312378e-06	1.298205e-09	2.303073e+01	9.079792e+01
2.610000e-06	3.349776e-06	1.313677e-09	2.329076e+01	9.144424e+01
2.620000e-06	3.386919e-06	1.329001e-09	2.354902e+01	9.207675e+01
2.630000e-06	3.423851e-06	1.340387e-09	2.380580e+01	9.269581e+01
2.640000e-06	3.460417e-06	1.348162e-09	2.406004e+01	9.330168e+01
2.650000e-06	3.496590e-06	1.352857e-09	2.431155e+01	9.389457e+01
2.660000e-06	3.532587e-06	1.355568e-09	2.456183e+01	9.447463e+01
2.670000e-06	3.568432e-06	1.358513e-09	2.481106e+01	9.504196e+01
2.680000e-06	3.604142e-06	1.363559e-09	2.505935e+01	9.559659e+01
2.690000e-06	3.639782e-06	1.373425e-09	2.530716e+01	9.613854e+01
2.700000e-06	3.675341e-06	1.385112e-09	2.555439e+01	9.666777e+01
2.710000e-06	3.710731e-06	1.393220e-09	2.580046e+01	9.718423e+01
2.720000e-06	3.745808e-06	1.398859e-09	2.604434e+01	9.768783e+01
2.730000e-06	3.780476e-06	1.402848e-09	2.628539e+01	9.817849e+01
2.740000e-06	3.814811e-06	1.406394e-09	2.652412e+01	9.865610e+01
2.750000e-06	3.848734e-06	1.409867e-09	2.675998e+01	9.912056e+01
2.760000e-06	3.882070e-06	1.414733e-09	2.699176e+01	9.957176e+01
2.770000e-06	3.914937e-06	1.421840e-09	2.722029e+01	1.000096e+02
2.780000e-06	3.947401e-06	1.429876e-09	2.744601e+01	1.004341e+02
2.790000e-06	3.979518e-06	1.438217e-09	2.766931e+01	1.008450e+02
2.800000e-06	4.011457e-06	1.446001e-09	2.789139e+01	1.012425e+02
2.810000e-06	4.043252e-06	1.452751e-09	2.811245e+01	1.016265e+02
2.820000e-06	4.074875e-06	1.458209e-09	2.833233e+01	1.019971e+02
2.830000e-06	4.106294e-06	1.464605e-09	2.855078e+01	1.023542e+02
2.840000e-06	4.137493e-06	1.470491e-09	2.876770e+01	1.026981e+02
2.850000e-06	4.168459e-06	1.475933e-09	2.898300e+01	1.030289e+02
2.860000e-06	4.199072e-06	1.482237e-09	2.919586e+01	1.033468e+02
2.870000e-06	4.229290e-06	1.488754e-09	2.940596e+01	1.036520e+02
2.880000e-06	4.259146e-06	1.493656e-09	2.961355e+01	1.039447e+02
2.890000e-06	4.288717e-06	1.497837e-09	2.981915e+01	1.042254e+02
2.900000e-06	4.318101e-06	1.502338e-09	3.002346e+01	1.044943e+02
