# Temperatura_=_-10.72
# Concentracion g/m^3_=_1620.0
# C_Vs_to_Am_M_A/Vsm_=_65563218390.804596
# pendiente_HvsI_1/m_=_3716.3
# ordenada_HvsI_A/m_=_1297.0
# frecuencia_Hz_=_135106.93864070566

Tiempo_(s)	Campo_(V.s)	Magnetizacion_(V.s)	Campo_(kA/m)	Magnetizacion_(A/m)
0.000000e+00	-5.536708e-06	-1.335866e-09	-3.836969e+01	-8.579119e+01
1.000000e-08	-5.536889e-06	-1.336725e-09	-3.837095e+01	-8.573483e+01
2.000000e-08	-5.536842e-06	-1.341810e-09	-3.837062e+01	-8.567930e+01
3.000000e-08	-5.536573e-06	-1.346752e-09	-3.836876e+01	-8.562459e+01
4.000000e-08	-5.535878e-06	-1.347865e-09	-3.836394e+01	-8.557063e+01
5.000000e-08	-5.534635e-06	-1.341159e-09	-3.835533e+01	-8.551735e+01
6.000000e-08	-5.532846e-06	-1.322956e-09	-3.834293e+01	-8.546463e+01
7.000000e-08	-5.530440e-06	-1.315808e-09	-3.832626e+01	-8.541234e+01
8.000000e-08	-5.527393e-06	-1.346409e-09	-3.830514e+01	-8.536034e+01
9.000000e-08	-5.523753e-06	-1.373443e-09	-3.827991e+01	-8.530844e+01
1.000000e-07	-5.519612e-06	-1.340423e-09	-3.825121e+01	-8.525646e+01
1.100000e-07	-5.515191e-06	-1.296116e-09	-3.822058e+01	-8.520420e+01
1.200000e-07	-5.510693e-06	-1.291341e-09	-3.818941e+01	-8.515145e+01
1.300000e-07	-5.505955e-06	-1.330929e-09	-3.815657e+01	-8.509798e+01
1.400000e-07	-5.500731e-06	-1.325895e-09	-3.812037e+01	-8.504357e+01
1.500000e-07	-5.495067e-06	-1.288832e-09	-3.808112e+01	-8.498799e+01
1.600000e-07	-5.489132e-06	-1.305042e-09	-3.803999e+01	-8.493101e+01
1.700000e-07	-5.482889e-06	-1.342800e-09	-3.799673e+01	-8.487240e+01
1.800000e-07	-5.476158e-06	-1.324520e-09	-3.795008e+01	-8.481195e+01
1.900000e-07	-5.468956e-06	-1.284902e-09	-3.790017e+01	-8.474946e+01
2.000000e-07	-5.461435e-06	-1.278310e-09	-3.784805e+01	-8.468473e+01
2.100000e-07	-5.453687e-06	-1.317492e-09	-3.779435e+01	-8.461757e+01
2.200000e-07	-5.445713e-06	-1.322487e-09	-3.773909e+01	-8.454783e+01
2.300000e-07	-5.437451e-06	-1.306866e-09	-3.768183e+01	-8.447536e+01
2.400000e-07	-5.428763e-06	-1.286474e-09	-3.762163e+01	-8.440004e+01
2.500000e-07	-5.419421e-06	-1.285446e-09	-3.755689e+01	-8.432177e+01
2.600000e-07	-5.409259e-06	-1.270973e-09	-3.748646e+01	-8.424046e+01
2.700000e-07	-5.398521e-06	-1.260786e-09	-3.741205e+01	-8.415607e+01
2.800000e-07	-5.387475e-06	-1.268800e-09	-3.733550e+01	-8.406857e+01
2.900000e-07	-5.376018e-06	-1.289275e-09	-3.725610e+01	-8.397794e+01
3.000000e-07	-5.364135e-06	-1.283239e-09	-3.717375e+01	-8.388422e+01
3.100000e-07	-5.351857e-06	-1.256885e-09	-3.708867e+01	-8.378745e+01
3.200000e-07	-5.339105e-06	-1.255447e-09	-3.700030e+01	-8.368770e+01
3.300000e-07	-5.325887e-06	-1.262968e-09	-3.690869e+01	-8.358504e+01
3.400000e-07	-5.312360e-06	-1.254093e-09	-3.681495e+01	-8.347961e+01
3.500000e-07	-5.298466e-06	-1.229449e-09	-3.671866e+01	-8.337153e+01
3.600000e-07	-5.284104e-06	-1.253618e-09	-3.661914e+01	-8.326094e+01
3.700000e-07	-5.269331e-06	-1.269507e-09	-3.651675e+01	-8.314802e+01
3.800000e-07	-5.254107e-06	-1.260883e-09	-3.641125e+01	-8.303293e+01
3.900000e-07	-5.238297e-06	-1.249611e-09	-3.630169e+01	-8.291588e+01
4.000000e-07	-5.221897e-06	-1.262902e-09	-3.618803e+01	-8.279705e+01
4.100000e-07	-5.205170e-06	-1.238552e-09	-3.607212e+01	-8.267665e+01
4.200000e-07	-5.188127e-06	-1.224883e-09	-3.595401e+01	-8.255489e+01
4.300000e-07	-5.170659e-06	-1.252201e-09	-3.583296e+01	-8.243197e+01
4.400000e-07	-5.152942e-06	-1.270910e-09	-3.571018e+01	-8.230810e+01
4.500000e-07	-5.134949e-06	-1.247878e-09	-3.558548e+01	-8.218348e+01
4.600000e-07	-5.116439e-06	-1.252950e-09	-3.545721e+01	-8.205831e+01
4.700000e-07	-5.097467e-06	-1.258230e-09	-3.532573e+01	-8.193278e+01
4.800000e-07	-5.078186e-06	-1.238561e-09	-3.519211e+01	-8.180704e+01
4.900000e-07	-5.058678e-06	-1.229506e-09	-3.505692e+01	-8.168128e+01
5.000000e-07	-5.038965e-06	-1.239095e-09	-3.492030e+01	-8.155563e+01
5.100000e-07	-5.018938e-06	-1.215637e-09	-3.478152e+01	-8.143022e+01
5.200000e-07	-4.998572e-06	-1.212185e-09	-3.464038e+01	-8.130516e+01
5.300000e-07	-4.977896e-06	-1.245438e-09	-3.449710e+01	-8.118055e+01
5.400000e-07	-4.956975e-06	-1.245407e-09	-3.435211e+01	-8.105646e+01
5.500000e-07	-4.935702e-06	-1.215541e-09	-3.420469e+01	-8.093294e+01
5.600000e-07	-4.913942e-06	-1.219727e-09	-3.405389e+01	-8.081002e+01
5.700000e-07	-4.891828e-06	-1.225842e-09	-3.390064e+01	-8.068771e+01
5.800000e-07	-4.869398e-06	-1.208241e-09	-3.374520e+01	-8.056601e+01
5.900000e-07	-4.846566e-06	-1.210552e-09	-3.358697e+01	-8.044487e+01
6.000000e-07	-4.823354e-06	-1.217862e-09	-3.342611e+01	-8.032426e+01
6.100000e-07	-4.799902e-06	-1.202236e-09	-3.326359e+01	-8.020410e+01
6.200000e-07	-4.776296e-06	-1.196921e-09	-3.309999e+01	-8.008431e+01
6.300000e-07	-4.752471e-06	-1.206873e-09	-3.293488e+01	-7.996479e+01
6.400000e-07	-4.728358e-06	-1.199538e-09	-3.276778e+01	-7.984543e+01
6.500000e-07	-4.703904e-06	-1.199957e-09	-3.259832e+01	-7.972610e+01
6.600000e-07	-4.679044e-06	-1.207657e-09	-3.242603e+01	-7.960666e+01
6.700000e-07	-4.653772e-06	-1.200458e-09	-3.225090e+01	-7.948697e+01
6.800000e-07	-4.627983e-06	-1.188299e-09	-3.207218e+01	-7.936688e+01
6.900000e-07	-4.601524e-06	-1.194085e-09	-3.188881e+01	-7.924624e+01
7.000000e-07	-4.574533e-06	-1.188081e-09	-3.170177e+01	-7.912488e+01
7.100000e-07	-4.547291e-06	-1.180768e-09	-3.151298e+01	-7.900264e+01
7.200000e-07	-4.519776e-06	-1.187922e-09	-3.132229e+01	-7.887938e+01
7.300000e-07	-4.491967e-06	-1.196914e-09	-3.112958e+01	-7.875494e+01
7.400000e-07	-4.463979e-06	-1.187847e-09	-3.093562e+01	-7.862917e+01
7.500000e-07	-4.435806e-06	-1.183398e-09	-3.074038e+01	-7.850193e+01
7.600000e-07	-4.407347e-06	-1.180820e-09	-3.054316e+01	-7.837308e+01
7.700000e-07	-4.378549e-06	-1.174215e-09	-3.034359e+01	-7.824250e+01
7.800000e-07	-4.349445e-06	-1.169440e-09	-3.014189e+01	-7.811009e+01
7.900000e-07	-4.320034e-06	-1.176919e-09	-2.993807e+01	-7.797573e+01
8.000000e-07	-4.290380e-06	-1.175073e-09	-2.973257e+01	-7.783934e+01
8.100000e-07	-4.260522e-06	-1.166490e-09	-2.952566e+01	-7.770084e+01
8.200000e-07	-4.230342e-06	-1.164091e-09	-2.931651e+01	-7.756016e+01
8.300000e-07	-4.199759e-06	-1.161721e-09	-2.910456e+01	-7.741725e+01
8.400000e-07	-4.168842e-06	-1.151101e-09	-2.889031e+01	-7.727206e+01
8.500000e-07	-4.137697e-06	-1.150981e-09	-2.867447e+01	-7.712456e+01
8.600000e-07	-4.106306e-06	-1.160564e-09	-2.845693e+01	-7.697474e+01
8.700000e-07	-4.074683e-06	-1.158406e-09	-2.823778e+01	-7.682258e+01
8.800000e-07	-4.042942e-06	-1.153680e-09	-2.801781e+01	-7.666807e+01
8.900000e-07	-4.011060e-06	-1.154010e-09	-2.779686e+01	-7.651121e+01
9.000000e-07	-3.978927e-06	-1.145577e-09	-2.757418e+01	-7.635202e+01
9.100000e-07	-3.946480e-06	-1.131557e-09	-2.734933e+01	-7.619051e+01
9.200000e-07	-3.913705e-06	-1.129784e-09	-2.712219e+01	-7.602667e+01
9.300000e-07	-3.880602e-06	-1.129789e-09	-2.689279e+01	-7.586054e+01
9.400000e-07	-3.847127e-06	-1.125395e-09	-2.666081e+01	-7.569212e+01
9.500000e-07	-3.813096e-06	-1.124694e-09	-2.642497e+01	-7.552141e+01
9.600000e-07	-3.778520e-06	-1.125901e-09	-2.618536e+01	-7.534841e+01
9.700000e-07	-3.743570e-06	-1.117080e-09	-2.594315e+01	-7.517313e+01
9.800000e-07	-3.708322e-06	-1.110087e-09	-2.569887e+01	-7.499553e+01
9.900000e-07	-3.672803e-06	-1.106947e-09	-2.545273e+01	-7.481561e+01
1.000000e-06	-3.637079e-06	-1.102497e-09	-2.520516e+01	-7.463333e+01
1.010000e-06	-3.601243e-06	-1.094770e-09	-2.495682e+01	-7.444862e+01
1.020000e-06	-3.565294e-06	-1.093552e-09	-2.470768e+01	-7.426144e+01
1.030000e-06	-3.529157e-06	-1.091111e-09	-2.445725e+01	-7.407171e+01
1.040000e-06	-3.492760e-06	-1.087051e-09	-2.420502e+01	-7.387933e+01
1.050000e-06	-3.456092e-06	-1.085680e-09	-2.395091e+01	-7.368419e+01
1.060000e-06	-3.419170e-06	-1.083813e-09	-2.369504e+01	-7.348618e+01
1.070000e-06	-3.382004e-06	-1.073535e-09	-2.343748e+01	-7.328516e+01
1.080000e-06	-3.344608e-06	-1.067067e-09	-2.317832e+01	-7.308098e+01
1.090000e-06	-3.306963e-06	-1.064587e-09	-2.291743e+01	-7.287347e+01
1.100000e-06	-3.269072e-06	-1.058574e-09	-2.265485e+01	-7.266245e+01
1.110000e-06	-3.230976e-06	-1.050907e-09	-2.239084e+01	-7.244775e+01
1.120000e-06	-3.192646e-06	-1.044771e-09	-2.212521e+01	-7.222915e+01
1.130000e-06	-3.154053e-06	-1.037665e-09	-2.185776e+01	-7.200646e+01
1.140000e-06	-3.115292e-06	-1.030000e-09	-2.158914e+01	-7.177946e+01
1.150000e-06	-3.076415e-06	-1.028520e-09	-2.131972e+01	-7.154794e+01
1.160000e-06	-3.037301e-06	-1.029249e-09	-2.104866e+01	-7.131167e+01
1.170000e-06	-2.997943e-06	-1.027344e-09	-2.077591e+01	-7.107044e+01
1.180000e-06	-2.958455e-06	-1.024104e-09	-2.050226e+01	-7.082404e+01
1.190000e-06	-2.918796e-06	-1.020191e-09	-2.022742e+01	-7.057224e+01
1.200000e-06	-2.878956e-06	-1.011758e-09	-1.995133e+01	-7.031485e+01
1.210000e-06	-2.839009e-06	-1.001640e-09	-1.967449e+01	-7.005167e+01
1.220000e-06	-2.798915e-06	-9.939062e-10	-1.939663e+01	-6.978251e+01
1.230000e-06	-2.758672e-06	-9.890407e-10	-1.911775e+01	-6.950720e+01
1.240000e-06	-2.718284e-06	-9.854088e-10	-1.883786e+01	-6.922558e+01
1.250000e-06	-2.677649e-06	-9.857774e-10	-1.855625e+01	-6.893752e+01
1.260000e-06	-2.636754e-06	-9.854138e-10	-1.827285e+01	-6.864289e+01
1.270000e-06	-2.595614e-06	-9.807590e-10	-1.798775e+01	-6.834159e+01
1.280000e-06	-2.554206e-06	-9.731164e-10	-1.770079e+01	-6.803352e+01
1.290000e-06	-2.512516e-06	-9.664755e-10	-1.741188e+01	-6.771862e+01
1.300000e-06	-2.470476e-06	-9.569698e-10	-1.712053e+01	-6.739684e+01
1.310000e-06	-2.428076e-06	-9.467318e-10	-1.682670e+01	-6.706816e+01
1.320000e-06	-2.385432e-06	-9.397261e-10	-1.653117e+01	-6.673255e+01
1.330000e-06	-2.342612e-06	-9.357618e-10	-1.623443e+01	-6.639004e+01
1.340000e-06	-2.299530e-06	-9.349214e-10	-1.593587e+01	-6.604063e+01
1.350000e-06	-2.256148e-06	-9.371702e-10	-1.563523e+01	-6.568437e+01
1.360000e-06	-2.212581e-06	-9.355132e-10	-1.533331e+01	-6.532129e+01
1.370000e-06	-2.168901e-06	-9.284665e-10	-1.503060e+01	-6.495144e+01
1.380000e-06	-2.125121e-06	-9.193219e-10	-1.472720e+01	-6.457488e+01
1.390000e-06	-2.081269e-06	-9.083337e-10	-1.442331e+01	-6.419166e+01
1.400000e-06	-2.037381e-06	-8.972413e-10	-1.411916e+01	-6.380184e+01
1.410000e-06	-1.993446e-06	-8.891772e-10	-1.381469e+01	-6.340546e+01
1.420000e-06	-1.949393e-06	-8.830142e-10	-1.350940e+01	-6.300254e+01
1.430000e-06	-1.905230e-06	-8.772075e-10	-1.320335e+01	-6.259311e+01
1.440000e-06	-1.860988e-06	-8.728785e-10	-1.289675e+01	-6.217716e+01
1.450000e-06	-1.816635e-06	-8.686195e-10	-1.258938e+01	-6.175464e+01
1.460000e-06	-1.772161e-06	-8.627359e-10	-1.228117e+01	-6.132551e+01
1.470000e-06	-1.727560e-06	-8.554333e-10	-1.197209e+01	-6.088965e+01
1.480000e-06	-1.682827e-06	-8.488421e-10	-1.166208e+01	-6.044692e+01
1.490000e-06	-1.637965e-06	-8.419435e-10	-1.135119e+01	-5.999714e+01
1.500000e-06	-1.592908e-06	-8.333763e-10	-1.103894e+01	-5.954006e+01
1.510000e-06	-1.547686e-06	-8.244373e-10	-1.072555e+01	-5.907540e+01
1.520000e-06	-1.502393e-06	-8.160455e-10	-1.041167e+01	-5.860281e+01
1.530000e-06	-1.457047e-06	-8.075268e-10	-1.009742e+01	-5.812186e+01
1.540000e-06	-1.411658e-06	-8.012270e-10	-9.782868e+00	-5.763210e+01
1.550000e-06	-1.366094e-06	-7.952005e-10	-9.467108e+00	-5.713297e+01
1.560000e-06	-1.320399e-06	-7.854720e-10	-9.150439e+00	-5.662387e+01
1.570000e-06	-1.274626e-06	-7.728539e-10	-8.833231e+00	-5.610411e+01
1.580000e-06	-1.228724e-06	-7.628155e-10	-8.515127e+00	-5.557297e+01
1.590000e-06	-1.182802e-06	-7.526527e-10	-8.196883e+00	-5.502960e+01
1.600000e-06	-1.136829e-06	-7.401956e-10	-7.878287e+00	-5.447314e+01
1.610000e-06	-1.090817e-06	-7.297555e-10	-7.559424e+00	-5.390263e+01
1.620000e-06	-1.044731e-06	-7.208257e-10	-7.240042e+00	-5.331705e+01
1.630000e-06	-9.985633e-07	-7.105279e-10	-6.920099e+00	-5.271534e+01
1.640000e-06	-9.523653e-07	-6.994575e-10	-6.599944e+00	-5.209636e+01
1.650000e-06	-9.060334e-07	-6.895574e-10	-6.278862e+00	-5.145892e+01
1.660000e-06	-8.596457e-07	-6.816483e-10	-5.957392e+00	-5.080181e+01
1.670000e-06	-8.131963e-07	-6.727403e-10	-5.635496e+00	-5.012375e+01
1.680000e-06	-7.666427e-07	-6.609223e-10	-5.312877e+00	-4.942344e+01
1.690000e-06	-7.200392e-07	-6.478570e-10	-4.989911e+00	-4.869957e+01
1.700000e-06	-6.733855e-07	-6.333724e-10	-4.666599e+00	-4.795080e+01
1.710000e-06	-6.266691e-07	-6.180412e-10	-4.342852e+00	-4.717578e+01
1.720000e-06	-5.799209e-07	-6.016892e-10	-4.018884e+00	-4.637316e+01
1.730000e-06	-5.331899e-07	-5.845690e-10	-3.695035e+00	-4.554163e+01
1.740000e-06	-4.863836e-07	-5.690303e-10	-3.370665e+00	-4.467987e+01
1.750000e-06	-4.395265e-07	-5.561389e-10	-3.045943e+00	-4.378661e+01
1.760000e-06	-3.926862e-07	-5.439503e-10	-2.721337e+00	-4.286063e+01
1.770000e-06	-3.457474e-07	-5.301047e-10	-2.396048e+00	-4.190074e+01
1.780000e-06	-2.987488e-07	-5.152941e-10	-2.070346e+00	-4.090584e+01
1.790000e-06	-2.517095e-07	-4.981582e-10	-1.744361e+00	-3.987489e+01
1.800000e-06	-2.046166e-07	-4.835719e-10	-1.418004e+00	-3.880696e+01
1.810000e-06	-1.576439e-07	-4.704303e-10	-1.092481e+00	-3.770119e+01
1.820000e-06	-1.107561e-07	-4.550799e-10	-7.675461e-01	-3.655685e+01
1.830000e-06	-6.381607e-08	-4.380873e-10	-4.422489e-01	-3.537329e+01
1.840000e-06	-1.685097e-08	-4.206896e-10	-1.167782e-01	-3.415003e+01
1.850000e-06	3.003698e-08	-4.042625e-10	2.081580e-01	-3.288670e+01
1.860000e-06	7.690039e-08	-3.885960e-10	5.329240e-01	-3.158305e+01
1.870000e-06	1.238094e-07	-3.737452e-10	8.580060e-01	-3.023902e+01
1.880000e-06	1.707974e-07	-3.570184e-10	1.183636e+00	-2.885468e+01
1.890000e-06	2.178304e-07	-3.396265e-10	1.509577e+00	-2.743023e+01
1.900000e-06	2.648577e-07	-3.189851e-10	1.835478e+00	-2.596609e+01
1.910000e-06	3.118268e-07	-2.954507e-10	2.160977e+00	-2.446278e+01
1.920000e-06	3.587626e-07	-2.719488e-10	2.486245e+00	-2.292103e+01
1.930000e-06	4.056994e-07	-2.494534e-10	2.811519e+00	-2.134172e+01
1.940000e-06	4.526165e-07	-2.285034e-10	3.136657e+00	-1.972588e+01
1.950000e-06	4.995343e-07	-2.085737e-10	3.461800e+00	-1.807472e+01
1.960000e-06	5.463704e-07	-1.895624e-10	3.786377e+00	-1.638960e+01
1.970000e-06	5.931044e-07	-1.700483e-10	4.110246e+00	-1.467204e+01
1.980000e-06	6.397036e-07	-1.476434e-10	4.433181e+00	-1.292370e+01
1.990000e-06	6.862420e-07	-1.233002e-10	4.755695e+00	-1.114640e+01
2.000000e-06	7.327197e-07	-9.595115e-11	5.077788e+00	-9.342073e+00
2.010000e-06	7.791298e-07	-6.861367e-11	5.399412e+00	-7.512791e+00
2.020000e-06	8.254780e-07	-4.074921e-11	5.720608e+00	-5.660743e+00
2.030000e-06	8.718070e-07	-1.228231e-11	6.041671e+00	-3.788221e+00
2.040000e-06	9.181220e-07	1.512034e-11	6.362636e+00	-1.897616e+00
2.050000e-06	9.644052e-07	4.044374e-11	6.683381e+00	8.599125e-03
2.060000e-06	1.010667e-06	6.413760e-11	7.003980e+00	1.927879e+00
2.070000e-06	1.056825e-06	8.886092e-11	7.323854e+00	3.857621e+00
2.080000e-06	1.102894e-06	1.135785e-10	7.643116e+00	5.795176e+00
2.090000e-06	1.148817e-06	1.408109e-10	7.961366e+00	7.737863e+00
2.100000e-06	1.194591e-06	1.699517e-10	8.278584e+00	9.682985e+00
2.110000e-06	1.240279e-06	1.986125e-10	8.595201e+00	1.162784e+01
2.120000e-06	1.285879e-06	2.259358e-10	8.911216e+00	1.356974e+01
2.130000e-06	1.331419e-06	2.540250e-10	9.226810e+00	1.550601e+01
2.140000e-06	1.376925e-06	2.823169e-10	9.542168e+00	1.743402e+01
2.150000e-06	1.422376e-06	3.077240e-10	9.857143e+00	1.935120e+01
2.160000e-06	1.467756e-06	3.311108e-10	1.017163e+01	2.125502e+01
2.170000e-06	1.513023e-06	3.538859e-10	1.048533e+01	2.314305e+01
2.180000e-06	1.558171e-06	3.772516e-10	1.079821e+01	2.501293e+01
2.190000e-06	1.603244e-06	4.012526e-10	1.111057e+01	2.686240e+01
2.200000e-06	1.648133e-06	4.257906e-10	1.142166e+01	2.868933e+01
2.210000e-06	1.692792e-06	4.530396e-10	1.173114e+01	3.049166e+01
2.220000e-06	1.737349e-06	4.812148e-10	1.203992e+01	3.226751e+01
2.230000e-06	1.781818e-06	5.092561e-10	1.234810e+01	3.401509e+01
2.240000e-06	1.826136e-06	5.346984e-10	1.265522e+01	3.573277e+01
2.250000e-06	1.870328e-06	5.542782e-10	1.296147e+01	3.741905e+01
2.260000e-06	1.914449e-06	5.698885e-10	1.326724e+01	3.907259e+01
2.270000e-06	1.958512e-06	5.846918e-10	1.357260e+01	4.069220e+01
2.280000e-06	2.002510e-06	6.004237e-10	1.387751e+01	4.227682e+01
2.290000e-06	2.046404e-06	6.196614e-10	1.418169e+01	4.382557e+01
2.300000e-06	2.090203e-06	6.446016e-10	1.448523e+01	4.533770e+01
2.310000e-06	2.133966e-06	6.724798e-10	1.478850e+01	4.681263e+01
2.320000e-06	2.177658e-06	6.981346e-10	1.509129e+01	4.824992e+01
2.330000e-06	2.221213e-06	7.183651e-10	1.539313e+01	4.964925e+01
2.340000e-06	2.264603e-06	7.326421e-10	1.569382e+01	5.101048e+01
2.350000e-06	2.307800e-06	7.435252e-10	1.599318e+01	5.233357e+01
2.360000e-06	2.350831e-06	7.535993e-10	1.629139e+01	5.361862e+01
2.370000e-06	2.393697e-06	7.675723e-10	1.658845e+01	5.486586e+01
2.380000e-06	2.436410e-06	7.866265e-10	1.688446e+01	5.607561e+01
2.390000e-06	2.478785e-06	8.065657e-10	1.717812e+01	5.724831e+01
2.400000e-06	2.520774e-06	8.258153e-10	1.746910e+01	5.838450e+01
2.410000e-06	2.562385e-06	8.432293e-10	1.775747e+01	5.948479e+01
2.420000e-06	2.603650e-06	8.569808e-10	1.804344e+01	6.054988e+01
2.430000e-06	2.644683e-06	8.674154e-10	1.832780e+01	6.158053e+01
2.440000e-06	2.685427e-06	8.772459e-10	1.861016e+01	6.257755e+01
2.450000e-06	2.725982e-06	8.884722e-10	1.889120e+01	6.354182e+01
2.460000e-06	2.766312e-06	9.025073e-10	1.917069e+01	6.447424e+01
2.470000e-06	2.806463e-06	9.184389e-10	1.944894e+01	6.537575e+01
2.480000e-06	2.846496e-06	9.343741e-10	1.972638e+01	6.624730e+01
2.490000e-06	2.886418e-06	9.482681e-10	2.000304e+01	6.708985e+01
2.500000e-06	2.926257e-06	9.582527e-10	2.027913e+01	6.790437e+01
2.510000e-06	2.965884e-06	9.682212e-10	2.055374e+01	6.869182e+01
2.520000e-06	3.005284e-06	9.789590e-10	2.082679e+01	6.945315e+01
2.530000e-06	3.044564e-06	9.908392e-10	2.109900e+01	7.018929e+01
2.540000e-06	3.083628e-06	1.005313e-09	2.136971e+01	7.090113e+01
2.550000e-06	3.122374e-06	1.017581e-09	2.163822e+01	7.158955e+01
2.560000e-06	3.160848e-06	1.025226e-09	2.190485e+01	7.225539e+01
2.570000e-06	3.199163e-06	1.030160e-09	2.217038e+01	7.289942e+01
2.580000e-06	3.237280e-06	1.034885e-09	2.243453e+01	7.352242e+01
2.590000e-06	3.275146e-06	1.041400e-09	2.269694e+01	7.412507e+01
2.600000e-06	3.312843e-06	1.051703e-09	2.295819e+01	7.470804e+01
2.610000e-06	3.350389e-06	1.066152e-09	2.321838e+01	7.527193e+01
2.620000e-06	3.387769e-06	1.081435e-09	2.347743e+01	7.581731e+01
2.630000e-06	3.424868e-06	1.090793e-09	2.373453e+01	7.634469e+01
2.640000e-06	3.461702e-06	1.096207e-09	2.398978e+01	7.685452e+01
2.650000e-06	3.498332e-06	1.099860e-09	2.424363e+01	7.734723e+01
2.660000e-06	3.534661e-06	1.101248e-09	2.449540e+01	7.782320e+01
2.670000e-06	3.570693e-06	1.103447e-09	2.474510e+01	7.828275e+01
2.680000e-06	3.606575e-06	1.108415e-09	2.499377e+01	7.872619e+01
2.690000e-06	3.642419e-06	1.116137e-09	2.524216e+01	7.915378e+01
2.700000e-06	3.678177e-06	1.124558e-09	2.548997e+01	7.956577e+01
2.710000e-06	3.713712e-06	1.131027e-09	2.573623e+01	7.996235e+01
2.720000e-06	3.748934e-06	1.135091e-09	2.598032e+01	8.034373e+01
2.730000e-06	3.783802e-06	1.137991e-09	2.622196e+01	8.071007e+01
2.740000e-06	3.818340e-06	1.140173e-09	2.646131e+01	8.106155e+01
2.750000e-06	3.852398e-06	1.142004e-09	2.669733e+01	8.139831e+01
2.760000e-06	3.885952e-06	1.146070e-09	2.692986e+01	8.172053e+01
2.770000e-06	3.919049e-06	1.152263e-09	2.715923e+01	8.202835e+01
2.780000e-06	3.951697e-06	1.158532e-09	2.738548e+01	8.232195e+01
2.790000e-06	3.984013e-06	1.164280e-09	2.760943e+01	8.260150e+01
2.800000e-06	4.016103e-06	1.168649e-09	2.783182e+01	8.286719e+01
2.810000e-06	4.048033e-06	1.172096e-09	2.805309e+01	8.311924e+01
2.820000e-06	4.079776e-06	1.175905e-09	2.827308e+01	8.335788e+01
2.830000e-06	4.111337e-06	1.180428e-09	2.849179e+01	8.358336e+01
2.840000e-06	4.142735e-06	1.185062e-09	2.870938e+01	8.379596e+01
2.850000e-06	4.173899e-06	1.188939e-09	2.892535e+01	8.399600e+01
2.860000e-06	4.204646e-06	1.193108e-09	2.913843e+01	8.418380e+01
2.870000e-06	4.235014e-06	1.199106e-09	2.934888e+01	8.435973e+01
2.880000e-06	4.265065e-06	1.202420e-09	2.955713e+01	8.452420e+01
2.890000e-06	4.294857e-06	1.202295e-09	2.976360e+01	8.467760e+01
2.900000e-06	4.324496e-06	1.203630e-09	2.996900e+01	8.482041e+01
