# Temperatura_=_-10.55
# Concentracion g/m^3_=_1620.0
# C_Vs_to_Am_M_A/Vsm_=_65563218390.804596
# pendiente_HvsI_1/m_=_3716.3
# ordenada_HvsI_A/m_=_1297.0
# frecuencia_Hz_=_135108.1769919288

Tiempo_(s)	Campo_(V.s)	Magnetizacion_(V.s)	Campo_(kA/m)	Magnetizacion_(A/m)
0.000000e+00	-5.520420e-06	-1.309586e-09	-3.836819e+01	-8.602606e+01
1.000000e-08	-5.520550e-06	-1.304630e-09	-3.836909e+01	-8.596740e+01
2.000000e-08	-5.520468e-06	-1.303035e-09	-3.836852e+01	-8.591073e+01
3.000000e-08	-5.520030e-06	-1.304856e-09	-3.836548e+01	-8.585606e+01
4.000000e-08	-5.519180e-06	-1.305638e-09	-3.835957e+01	-8.580335e+01
5.000000e-08	-5.517930e-06	-1.301207e-09	-3.835088e+01	-8.575255e+01
6.000000e-08	-5.516124e-06	-1.285703e-09	-3.833833e+01	-8.570355e+01
7.000000e-08	-5.513646e-06	-1.268845e-09	-3.832111e+01	-8.565623e+01
8.000000e-08	-5.510581e-06	-1.309401e-09	-3.829980e+01	-8.561043e+01
9.000000e-08	-5.506978e-06	-1.372518e-09	-3.827476e+01	-8.556600e+01
1.000000e-07	-5.502856e-06	-1.342521e-09	-3.824611e+01	-8.552271e+01
1.100000e-07	-5.498436e-06	-1.249043e-09	-3.821540e+01	-8.548035e+01
1.200000e-07	-5.493958e-06	-1.272635e-09	-3.818427e+01	-8.543868e+01
1.300000e-07	-5.489237e-06	-1.297643e-09	-3.815146e+01	-8.539744e+01
1.400000e-07	-5.484049e-06	-1.307200e-09	-3.811540e+01	-8.535637e+01
1.500000e-07	-5.478452e-06	-1.224844e-09	-3.807650e+01	-8.531518e+01
1.600000e-07	-5.472577e-06	-1.274919e-09	-3.803567e+01	-8.527359e+01
1.700000e-07	-5.466280e-06	-1.330533e-09	-3.799190e+01	-8.523131e+01
1.800000e-07	-5.459454e-06	-1.311661e-09	-3.794446e+01	-8.518806e+01
1.900000e-07	-5.452259e-06	-1.242696e-09	-3.789445e+01	-8.514355e+01
2.000000e-07	-5.444758e-06	-1.231254e-09	-3.784232e+01	-8.509750e+01
2.100000e-07	-5.436991e-06	-1.286742e-09	-3.778834e+01	-8.504964e+01
2.200000e-07	-5.429003e-06	-1.296738e-09	-3.773282e+01	-8.499971e+01
2.300000e-07	-5.420728e-06	-1.289841e-09	-3.767530e+01	-8.494748e+01
2.400000e-07	-5.412085e-06	-1.271920e-09	-3.761524e+01	-8.489271e+01
2.500000e-07	-5.402786e-06	-1.298707e-09	-3.755060e+01	-8.483519e+01
2.600000e-07	-5.392785e-06	-1.272917e-09	-3.748110e+01	-8.477475e+01
2.700000e-07	-5.382227e-06	-1.267933e-09	-3.740771e+01	-8.471121e+01
2.800000e-07	-5.371036e-06	-1.254971e-09	-3.732993e+01	-8.464444e+01
2.900000e-07	-5.359396e-06	-1.302587e-09	-3.724903e+01	-8.457432e+01
3.000000e-07	-5.347471e-06	-1.292906e-09	-3.716615e+01	-8.450076e+01
3.100000e-07	-5.335214e-06	-1.275966e-09	-3.708096e+01	-8.442370e+01
3.200000e-07	-5.322459e-06	-1.242636e-09	-3.699231e+01	-8.434311e+01
3.300000e-07	-5.309251e-06	-1.282117e-09	-3.690052e+01	-8.425896e+01
3.400000e-07	-5.295796e-06	-1.266135e-09	-3.680700e+01	-8.417127e+01
3.500000e-07	-5.281968e-06	-1.241736e-09	-3.671089e+01	-8.408009e+01
3.600000e-07	-5.267613e-06	-1.254145e-09	-3.661112e+01	-8.398547e+01
3.700000e-07	-5.252825e-06	-1.306121e-09	-3.650834e+01	-8.388749e+01
3.800000e-07	-5.237544e-06	-1.265854e-09	-3.640214e+01	-8.378626e+01
3.900000e-07	-5.221606e-06	-1.246722e-09	-3.629136e+01	-8.368190e+01
4.000000e-07	-5.205188e-06	-1.286396e-09	-3.617725e+01	-8.357455e+01
4.100000e-07	-5.188555e-06	-1.263013e-09	-3.606165e+01	-8.346436e+01
4.200000e-07	-5.171594e-06	-1.204644e-09	-3.594377e+01	-8.335149e+01
4.300000e-07	-5.154213e-06	-1.257943e-09	-3.582297e+01	-8.323612e+01
4.400000e-07	-5.136520e-06	-1.311388e-09	-3.569999e+01	-8.311843e+01
4.500000e-07	-5.118458e-06	-1.232206e-09	-3.557446e+01	-8.299861e+01
4.600000e-07	-5.099888e-06	-1.230656e-09	-3.544540e+01	-8.287683e+01
4.700000e-07	-5.080925e-06	-1.294271e-09	-3.531359e+01	-8.275330e+01
4.800000e-07	-5.061716e-06	-1.253888e-09	-3.518009e+01	-8.262820e+01
4.900000e-07	-5.042251e-06	-1.193589e-09	-3.504480e+01	-8.250171e+01
5.000000e-07	-5.022559e-06	-1.269612e-09	-3.490794e+01	-8.237399e+01
5.100000e-07	-5.002668e-06	-1.253950e-09	-3.476969e+01	-8.224522e+01
5.200000e-07	-4.982444e-06	-1.180856e-09	-3.462913e+01	-8.211556e+01
5.300000e-07	-4.961787e-06	-1.231031e-09	-3.448556e+01	-8.198513e+01
5.400000e-07	-4.940799e-06	-1.294170e-09	-3.433969e+01	-8.185407e+01
5.500000e-07	-4.919491e-06	-1.205538e-09	-3.419159e+01	-8.172250e+01
5.600000e-07	-4.897834e-06	-1.203980e-09	-3.404107e+01	-8.159050e+01
5.700000e-07	-4.875865e-06	-1.270800e-09	-3.388838e+01	-8.145817e+01
5.800000e-07	-4.853566e-06	-1.235980e-09	-3.373339e+01	-8.132555e+01
5.900000e-07	-4.830905e-06	-1.189243e-09	-3.357590e+01	-8.119271e+01
6.000000e-07	-4.807899e-06	-1.251271e-09	-3.341600e+01	-8.105967e+01
6.100000e-07	-4.784604e-06	-1.233421e-09	-3.325410e+01	-8.092643e+01
6.200000e-07	-4.761044e-06	-1.175891e-09	-3.309035e+01	-8.079300e+01
6.300000e-07	-4.737218e-06	-1.205201e-09	-3.292475e+01	-8.065935e+01
6.400000e-07	-4.713083e-06	-1.231744e-09	-3.275701e+01	-8.052545e+01
6.500000e-07	-4.688564e-06	-1.189360e-09	-3.258660e+01	-8.039125e+01
6.600000e-07	-4.663762e-06	-1.207848e-09	-3.241421e+01	-8.025668e+01
6.700000e-07	-4.638649e-06	-1.236598e-09	-3.223968e+01	-8.012168e+01
6.800000e-07	-4.612984e-06	-1.200339e-09	-3.206130e+01	-7.998614e+01
6.900000e-07	-4.586687e-06	-1.188165e-09	-3.187853e+01	-7.985000e+01
7.000000e-07	-4.559871e-06	-1.217669e-09	-3.169215e+01	-7.971313e+01
7.100000e-07	-4.532635e-06	-1.203481e-09	-3.150285e+01	-7.957545e+01
7.200000e-07	-4.505063e-06	-1.183245e-09	-3.131122e+01	-7.943683e+01
7.300000e-07	-4.477326e-06	-1.209602e-09	-3.111844e+01	-7.929718e+01
7.400000e-07	-4.449475e-06	-1.210586e-09	-3.092487e+01	-7.915637e+01
7.500000e-07	-4.421381e-06	-1.189207e-09	-3.072961e+01	-7.901431e+01
7.600000e-07	-4.392970e-06	-1.193826e-09	-3.053215e+01	-7.887087e+01
7.700000e-07	-4.364251e-06	-1.201350e-09	-3.033254e+01	-7.872597e+01
7.800000e-07	-4.335205e-06	-1.179061e-09	-3.013067e+01	-7.857950e+01
7.900000e-07	-4.305866e-06	-1.184501e-09	-2.992675e+01	-7.843137e+01
8.000000e-07	-4.276236e-06	-1.193486e-09	-2.972082e+01	-7.828150e+01
8.100000e-07	-4.246331e-06	-1.178571e-09	-2.951297e+01	-7.812980e+01
8.200000e-07	-4.216177e-06	-1.163509e-09	-2.930340e+01	-7.797620e+01
8.300000e-07	-4.185841e-06	-1.175845e-09	-2.909256e+01	-7.782065e+01
8.400000e-07	-4.155218e-06	-1.165590e-09	-2.887972e+01	-7.766308e+01
8.500000e-07	-4.124143e-06	-1.159032e-09	-2.866374e+01	-7.750346e+01
8.600000e-07	-4.092707e-06	-1.171143e-09	-2.844525e+01	-7.734175e+01
8.700000e-07	-4.061156e-06	-1.174344e-09	-2.822597e+01	-7.717790e+01
8.800000e-07	-4.029496e-06	-1.153834e-09	-2.800592e+01	-7.701191e+01
8.900000e-07	-3.997677e-06	-1.154103e-09	-2.778478e+01	-7.684375e+01
9.000000e-07	-3.965672e-06	-1.151509e-09	-2.756233e+01	-7.667341e+01
9.100000e-07	-3.933382e-06	-1.134474e-09	-2.733791e+01	-7.650087e+01
9.200000e-07	-3.900784e-06	-1.127028e-09	-2.711135e+01	-7.632613e+01
9.300000e-07	-3.867798e-06	-1.136577e-09	-2.688209e+01	-7.614919e+01
9.400000e-07	-3.834349e-06	-1.129122e-09	-2.664961e+01	-7.597003e+01
9.500000e-07	-3.800373e-06	-1.122287e-09	-2.641347e+01	-7.578864e+01
9.600000e-07	-3.765992e-06	-1.127733e-09	-2.617451e+01	-7.560503e+01
9.700000e-07	-3.731258e-06	-1.120205e-09	-2.593310e+01	-7.541916e+01
9.800000e-07	-3.696130e-06	-1.101899e-09	-2.568895e+01	-7.523102e+01
9.900000e-07	-3.660724e-06	-1.102770e-09	-2.544287e+01	-7.504058e+01
1.000000e-06	-3.625076e-06	-1.110330e-09	-2.519511e+01	-7.484780e+01
1.010000e-06	-3.589264e-06	-1.099894e-09	-2.494621e+01	-7.465263e+01
1.020000e-06	-3.553340e-06	-1.095292e-09	-2.469653e+01	-7.445503e+01
1.030000e-06	-3.517258e-06	-1.097406e-09	-2.444575e+01	-7.425491e+01
1.040000e-06	-3.481003e-06	-1.090767e-09	-2.419377e+01	-7.405221e+01
1.050000e-06	-3.444533e-06	-1.082981e-09	-2.394030e+01	-7.384683e+01
1.060000e-06	-3.407800e-06	-1.087499e-09	-2.368500e+01	-7.363866e+01
1.070000e-06	-3.370816e-06	-1.081647e-09	-2.342795e+01	-7.342759e+01
1.080000e-06	-3.333589e-06	-1.070485e-09	-2.316921e+01	-7.321350e+01
1.090000e-06	-3.296050e-06	-1.067294e-09	-2.290831e+01	-7.299623e+01
1.100000e-06	-3.258227e-06	-1.067109e-09	-2.264543e+01	-7.277565e+01
1.110000e-06	-3.220204e-06	-1.054298e-09	-2.238115e+01	-7.255158e+01
1.120000e-06	-3.181937e-06	-1.047087e-09	-2.211519e+01	-7.232387e+01
1.130000e-06	-3.143445e-06	-1.043172e-09	-2.184766e+01	-7.209231e+01
1.140000e-06	-3.104828e-06	-1.037147e-09	-2.157927e+01	-7.185674e+01
1.150000e-06	-3.065985e-06	-1.034207e-09	-2.130930e+01	-7.161696e+01
1.160000e-06	-3.026816e-06	-1.041032e-09	-2.103706e+01	-7.137278e+01
1.170000e-06	-2.987471e-06	-1.040775e-09	-2.076361e+01	-7.112399e+01
1.180000e-06	-2.948013e-06	-1.036059e-09	-2.048937e+01	-7.087040e+01
1.190000e-06	-2.908373e-06	-1.032250e-09	-2.021386e+01	-7.061181e+01
1.200000e-06	-2.868624e-06	-1.025228e-09	-1.993759e+01	-7.034803e+01
1.210000e-06	-2.828775e-06	-1.011364e-09	-1.966064e+01	-7.007887e+01
1.220000e-06	-2.788774e-06	-1.004539e-09	-1.938262e+01	-6.980416e+01
1.230000e-06	-2.748633e-06	-1.001776e-09	-1.910363e+01	-6.952371e+01
1.240000e-06	-2.708339e-06	-9.960024e-10	-1.882358e+01	-6.923736e+01
1.250000e-06	-2.667869e-06	-9.914670e-10	-1.854230e+01	-6.894498e+01
1.260000e-06	-2.627263e-06	-9.915572e-10	-1.826008e+01	-6.864640e+01
1.270000e-06	-2.586417e-06	-9.892028e-10	-1.797619e+01	-6.834152e+01
1.280000e-06	-2.545227e-06	-9.790231e-10	-1.768991e+01	-6.803022e+01
1.290000e-06	-2.503804e-06	-9.702859e-10	-1.740201e+01	-6.771239e+01
1.300000e-06	-2.462146e-06	-9.631944e-10	-1.711248e+01	-6.738797e+01
1.310000e-06	-2.420140e-06	-9.551445e-10	-1.682053e+01	-6.705688e+01
1.320000e-06	-2.377812e-06	-9.485062e-10	-1.652634e+01	-6.671907e+01
1.330000e-06	-2.335144e-06	-9.448001e-10	-1.622979e+01	-6.637449e+01
1.340000e-06	-2.292145e-06	-9.394279e-10	-1.593093e+01	-6.602312e+01
1.350000e-06	-2.248967e-06	-9.357847e-10	-1.563084e+01	-6.566493e+01
1.360000e-06	-2.205620e-06	-9.355017e-10	-1.532956e+01	-6.529992e+01
1.370000e-06	-2.162068e-06	-9.345023e-10	-1.502687e+01	-6.492807e+01
1.380000e-06	-2.118399e-06	-9.289111e-10	-1.472336e+01	-6.454938e+01
1.390000e-06	-2.074645e-06	-9.215203e-10	-1.441926e+01	-6.416385e+01
1.400000e-06	-2.030833e-06	-9.110425e-10	-1.411476e+01	-6.377147e+01
1.410000e-06	-1.986958e-06	-9.004019e-10	-1.380982e+01	-6.337222e+01
1.420000e-06	-1.942957e-06	-8.905019e-10	-1.350400e+01	-6.296608e+01
1.430000e-06	-1.898894e-06	-8.846176e-10	-1.319775e+01	-6.255300e+01
1.440000e-06	-1.854783e-06	-8.796765e-10	-1.289117e+01	-6.213294e+01
1.450000e-06	-1.810532e-06	-8.757766e-10	-1.258361e+01	-6.170581e+01
1.460000e-06	-1.766197e-06	-8.727588e-10	-1.227547e+01	-6.127149e+01
1.470000e-06	-1.721760e-06	-8.682427e-10	-1.196663e+01	-6.082985e+01
1.480000e-06	-1.677123e-06	-8.609182e-10	-1.165639e+01	-6.038071e+01
1.490000e-06	-1.632352e-06	-8.520334e-10	-1.134522e+01	-5.992385e+01
1.500000e-06	-1.587505e-06	-8.394992e-10	-1.103353e+01	-5.945902e+01
1.510000e-06	-1.542507e-06	-8.251459e-10	-1.072078e+01	-5.898590e+01
1.520000e-06	-1.497380e-06	-8.132153e-10	-1.040714e+01	-5.850415e+01
1.530000e-06	-1.452195e-06	-8.037434e-10	-1.009309e+01	-5.801334e+01
1.540000e-06	-1.406856e-06	-7.947481e-10	-9.777974e+00	-5.751302e+01
1.550000e-06	-1.361377e-06	-7.879028e-10	-9.461880e+00	-5.700265e+01
1.560000e-06	-1.315844e-06	-7.797452e-10	-9.145416e+00	-5.648164e+01
1.570000e-06	-1.270235e-06	-7.678502e-10	-8.828422e+00	-5.594935e+01
1.580000e-06	-1.224577e-06	-7.562355e-10	-8.511091e+00	-5.540507e+01
1.590000e-06	-1.178824e-06	-7.475602e-10	-8.193097e+00	-5.484803e+01
1.600000e-06	-1.132950e-06	-7.366225e-10	-7.874264e+00	-5.427739e+01
1.610000e-06	-1.086998e-06	-7.236834e-10	-7.554884e+00	-5.369227e+01
1.620000e-06	-1.041066e-06	-7.126706e-10	-7.235651e+00	-5.309170e+01
1.630000e-06	-9.950667e-07	-7.006104e-10	-6.915942e+00	-5.247468e+01
1.640000e-06	-9.489211e-07	-6.892548e-10	-6.595219e+00	-5.184016e+01
1.650000e-06	-9.027899e-07	-6.789913e-10	-6.274597e+00	-5.118704e+01
1.660000e-06	-8.566383e-07	-6.698269e-10	-5.953833e+00	-5.051416e+01
1.670000e-06	-8.104203e-07	-6.589649e-10	-5.632607e+00	-4.982035e+01
1.680000e-06	-7.640572e-07	-6.474144e-10	-5.310373e+00	-4.910440e+01
1.690000e-06	-7.175916e-07	-6.359418e-10	-4.987427e+00	-4.836506e+01
1.700000e-06	-6.710625e-07	-6.218878e-10	-4.664039e+00	-4.760110e+01
1.710000e-06	-6.245143e-07	-6.035177e-10	-4.340518e+00	-4.681124e+01
1.720000e-06	-5.779556e-07	-5.850621e-10	-4.016924e+00	-4.599424e+01
1.730000e-06	-5.313286e-07	-5.690176e-10	-3.692856e+00	-4.514885e+01
1.740000e-06	-4.846841e-07	-5.572522e-10	-3.368666e+00	-4.427385e+01
1.750000e-06	-4.379768e-07	-5.484130e-10	-3.044039e+00	-4.336803e+01
1.760000e-06	-3.912121e-07	-5.385537e-10	-2.719014e+00	-4.243024e+01
1.770000e-06	-3.443910e-07	-5.249377e-10	-2.393597e+00	-4.145937e+01
1.780000e-06	-2.975222e-07	-5.087543e-10	-2.067847e+00	-4.045437e+01
1.790000e-06	-2.507257e-07	-4.927436e-10	-1.742601e+00	-3.941427e+01
1.800000e-06	-2.039299e-07	-4.770984e-10	-1.417360e+00	-3.833816e+01
1.810000e-06	-1.571149e-07	-4.617625e-10	-1.091984e+00	-3.722523e+01
1.820000e-06	-1.102694e-07	-4.461458e-10	-7.663980e-01	-3.607477e+01
1.830000e-06	-6.337326e-08	-4.298012e-10	-4.404587e-01	-3.488618e+01
1.840000e-06	-1.649736e-08	-4.146177e-10	-1.146605e-01	-3.365896e+01
1.850000e-06	3.040452e-08	-3.987447e-10	2.113184e-01	-3.239275e+01
1.860000e-06	7.725445e-08	-3.810003e-10	5.369361e-01	-3.108732e+01
1.870000e-06	1.240795e-07	-3.625595e-10	8.623812e-01	-2.974258e+01
1.880000e-06	1.709413e-07	-3.444474e-10	1.188081e+00	-2.835855e+01
1.890000e-06	2.178176e-07	-3.248752e-10	1.513883e+00	-2.693546e+01
1.900000e-06	2.646983e-07	-3.037469e-10	1.839714e+00	-2.547363e+01
1.910000e-06	3.115122e-07	-2.835354e-10	2.165082e+00	-2.397357e+01
1.920000e-06	3.582850e-07	-2.622212e-10	2.490163e+00	-2.243595e+01
1.930000e-06	4.050330e-07	-2.401654e-10	2.815072e+00	-2.086158e+01
1.940000e-06	4.517290e-07	-2.186873e-10	3.139620e+00	-1.925143e+01
1.950000e-06	4.983620e-07	-1.986617e-10	3.463730e+00	-1.760664e+01
1.960000e-06	5.448963e-07	-1.784068e-10	3.787154e+00	-1.592850e+01
1.970000e-06	5.913755e-07	-1.565925e-10	4.110196e+00	-1.421844e+01
1.980000e-06	6.378219e-07	-1.344308e-10	4.433009e+00	-1.247805e+01
1.990000e-06	6.842236e-07	-1.113295e-10	4.755511e+00	-1.070905e+01
2.000000e-06	7.305404e-07	-8.671853e-11	5.077423e+00	-8.913294e+00
2.010000e-06	7.767546e-07	-6.073238e-11	5.398623e+00	-7.092773e+00
2.020000e-06	8.229464e-07	-3.167059e-11	5.719666e+00	-5.249587e+00
2.030000e-06	8.691245e-07	-1.916517e-12	6.040615e+00	-3.385946e+00
2.040000e-06	9.152650e-07	2.535654e-11	6.361302e+00	-1.504159e+00
2.050000e-06	9.613855e-07	4.951601e-11	6.681850e+00	3.933795e-01
2.060000e-06	1.007474e-06	7.242253e-11	7.002174e+00	2.304198e+00
2.070000e-06	1.053496e-06	9.505022e-11	7.322041e+00	4.225763e+00
2.080000e-06	1.099461e-06	1.190201e-10	7.641509e+00	6.155491e+00
2.090000e-06	1.145343e-06	1.447781e-10	7.960397e+00	8.090760e+00
2.100000e-06	1.191065e-06	1.711703e-10	8.278178e+00	1.002892e+01
2.110000e-06	1.236631e-06	1.998001e-10	8.594870e+00	1.196733e+01
2.120000e-06	1.282119e-06	2.295508e-10	8.911023e+00	1.390332e+01
2.130000e-06	1.327577e-06	2.590950e-10	9.226964e+00	1.583426e+01
2.140000e-06	1.373033e-06	2.879689e-10	9.542898e+00	1.775755e+01
2.150000e-06	1.418455e-06	3.134024e-10	9.858590e+00	1.967061e+01
2.160000e-06	1.463810e-06	3.349454e-10	1.017381e+01	2.157095e+01
2.170000e-06	1.509025e-06	3.544796e-10	1.048807e+01	2.345613e+01
2.180000e-06	1.554036e-06	3.763026e-10	1.080091e+01	2.532377e+01
2.190000e-06	1.598858e-06	4.027954e-10	1.111243e+01	2.717163e+01
2.200000e-06	1.643514e-06	4.323755e-10	1.142280e+01	2.899751e+01
2.210000e-06	1.688117e-06	4.631060e-10	1.173280e+01	3.079938e+01
2.220000e-06	1.732657e-06	4.913289e-10	1.204236e+01	3.257529e+01
2.230000e-06	1.777029e-06	5.152386e-10	1.235076e+01	3.432344e+01
2.240000e-06	1.821216e-06	5.352462e-10	1.265787e+01	3.604214e+01
2.250000e-06	1.865289e-06	5.511564e-10	1.296418e+01	3.772985e+01
2.260000e-06	1.909332e-06	5.662075e-10	1.327030e+01	3.938520e+01
2.270000e-06	1.953324e-06	5.854370e-10	1.357605e+01	4.100692e+01
2.280000e-06	1.997248e-06	6.083555e-10	1.388133e+01	4.259393e+01
2.290000e-06	2.041156e-06	6.319214e-10	1.418651e+01	4.414528e+01
2.300000e-06	2.084998e-06	6.572886e-10	1.449122e+01	4.566018e+01
2.310000e-06	2.128742e-06	6.825023e-10	1.479525e+01	4.713800e+01
2.320000e-06	2.172376e-06	7.037005e-10	1.509851e+01	4.857823e+01
2.330000e-06	2.215862e-06	7.201693e-10	1.540075e+01	4.998054e+01
2.340000e-06	2.259186e-06	7.336159e-10	1.570186e+01	5.134473e+01
2.350000e-06	2.302312e-06	7.474337e-10	1.600160e+01	5.267072e+01
2.360000e-06	2.345201e-06	7.637187e-10	1.629969e+01	5.395859e+01
2.370000e-06	2.387865e-06	7.830694e-10	1.659621e+01	5.520852e+01
2.380000e-06	2.430199e-06	8.042064e-10	1.689044e+01	5.642083e+01
2.390000e-06	2.472080e-06	8.219300e-10	1.718152e+01	5.759594e+01
2.400000e-06	2.513592e-06	8.346515e-10	1.747004e+01	5.873437e+01
2.410000e-06	2.554857e-06	8.474230e-10	1.775684e+01	5.983674e+01
2.420000e-06	2.595867e-06	8.604777e-10	1.804187e+01	6.090374e+01
2.430000e-06	2.636542e-06	8.736951e-10	1.832457e+01	6.193616e+01
2.440000e-06	2.676994e-06	8.904662e-10	1.860572e+01	6.293482e+01
2.450000e-06	2.717326e-06	9.094573e-10	1.888604e+01	6.390062e+01
2.460000e-06	2.757481e-06	9.267284e-10	1.916512e+01	6.483450e+01
2.470000e-06	2.797487e-06	9.402189e-10	1.944318e+01	6.573744e+01
2.480000e-06	2.837423e-06	9.503088e-10	1.972074e+01	6.661043e+01
2.490000e-06	2.877207e-06	9.591824e-10	1.999725e+01	6.745448e+01
2.500000e-06	2.916868e-06	9.682346e-10	2.027290e+01	6.827062e+01
2.510000e-06	2.956447e-06	9.816072e-10	2.054798e+01	6.905987e+01
2.520000e-06	2.995787e-06	9.957301e-10	2.082141e+01	6.982324e+01
2.530000e-06	3.034851e-06	1.009993e-09	2.109291e+01	7.056173e+01
2.540000e-06	3.073701e-06	1.024350e-09	2.136293e+01	7.127630e+01
2.550000e-06	3.112324e-06	1.033733e-09	2.163137e+01	7.196790e+01
2.560000e-06	3.150783e-06	1.037324e-09	2.189866e+01	7.263743e+01
2.570000e-06	3.189079e-06	1.039393e-09	2.216483e+01	7.328576e+01
2.580000e-06	3.227136e-06	1.044028e-09	2.242934e+01	7.391371e+01
2.590000e-06	3.265037e-06	1.051608e-09	2.269276e+01	7.452204e+01
2.600000e-06	3.302763e-06	1.063658e-09	2.295496e+01	7.511149e+01
2.610000e-06	3.340284e-06	1.079279e-09	2.321574e+01	7.568271e+01
2.620000e-06	3.377529e-06	1.096226e-09	2.347460e+01	7.623633e+01
2.630000e-06	3.414440e-06	1.108846e-09	2.373114e+01	7.677291e+01
2.640000e-06	3.451039e-06	1.114920e-09	2.398552e+01	7.729295e+01
2.650000e-06	3.487427e-06	1.116784e-09	2.423842e+01	7.779690e+01
2.660000e-06	3.523677e-06	1.117931e-09	2.449036e+01	7.828519e+01
2.670000e-06	3.559720e-06	1.119808e-09	2.474087e+01	7.875815e+01
2.680000e-06	3.595595e-06	1.124568e-09	2.499021e+01	7.921611e+01
2.690000e-06	3.631375e-06	1.133631e-09	2.523889e+01	7.965933e+01
2.700000e-06	3.667006e-06	1.143545e-09	2.548653e+01	8.008804e+01
2.710000e-06	3.702429e-06	1.149944e-09	2.573273e+01	8.050244e+01
2.720000e-06	3.737588e-06	1.153220e-09	2.597710e+01	8.090269e+01
2.730000e-06	3.772398e-06	1.154751e-09	2.621903e+01	8.128894e+01
2.740000e-06	3.806729e-06	1.156620e-09	2.645764e+01	8.166130e+01
2.750000e-06	3.840560e-06	1.160013e-09	2.669278e+01	8.201989e+01
2.760000e-06	3.873899e-06	1.165926e-09	2.692449e+01	8.236478e+01
2.770000e-06	3.906794e-06	1.174406e-09	2.715312e+01	8.269608e+01
2.780000e-06	3.939372e-06	1.182538e-09	2.737954e+01	8.301386e+01
2.790000e-06	3.971642e-06	1.189311e-09	2.760382e+01	8.331821e+01
2.800000e-06	4.003685e-06	1.195476e-09	2.782653e+01	8.360924e+01
2.810000e-06	4.035569e-06	1.199953e-09	2.804813e+01	8.388705e+01
2.820000e-06	4.067243e-06	1.202148e-09	2.826828e+01	8.415177e+01
2.830000e-06	4.098703e-06	1.204358e-09	2.848693e+01	8.440353e+01
2.840000e-06	4.129999e-06	1.206955e-09	2.870444e+01	8.464251e+01
2.850000e-06	4.161023e-06	1.209872e-09	2.892007e+01	8.486888e+01
2.860000e-06	4.191625e-06	1.214823e-09	2.913276e+01	8.508287e+01
2.870000e-06	4.221892e-06	1.222173e-09	2.934312e+01	8.528471e+01
2.880000e-06	4.251957e-06	1.226862e-09	2.955208e+01	8.547468e+01
2.890000e-06	4.281831e-06	1.228353e-09	2.975971e+01	8.565307e+01
2.900000e-06	4.311466e-06	1.231331e-09	2.996568e+01	8.582021e+01
