# Temperatura_=_10.6
# Concentracion g/m^3_=_1620.0
# C_Vs_to_Am_M_A/Vsm_=_65563218390.804596
# pendiente_HvsI_1/m_=_3716.3
# ordenada_HvsI_A/m_=_1297.0
# frecuencia_Hz_=_135107.21757090493

Tiempo_(s)	Campo_(V.s)	Magnetizacion_(V.s)	Campo_(kA/m)	Magnetizacion_(A/m)
0.000000e+00	-5.533883e-06	-1.715579e-09	-3.838242e+01	-1.110857e+02
1.000000e-08	-5.534042e-06	-1.710861e-09	-3.838353e+01	-1.110461e+02
2.000000e-08	-5.533907e-06	-1.705811e-09	-3.838259e+01	-1.110078e+02
3.000000e-08	-5.533350e-06	-1.701527e-09	-3.837873e+01	-1.109706e+02
4.000000e-08	-5.532289e-06	-1.700937e-09	-3.837137e+01	-1.109345e+02
5.000000e-08	-5.530661e-06	-1.702575e-09	-3.836008e+01	-1.108991e+02
6.000000e-08	-5.528496e-06	-1.706412e-09	-3.834506e+01	-1.108643e+02
7.000000e-08	-5.525833e-06	-1.718788e-09	-3.832659e+01	-1.108297e+02
8.000000e-08	-5.522623e-06	-1.724863e-09	-3.830432e+01	-1.107952e+02
9.000000e-08	-5.518931e-06	-1.706710e-09	-3.827872e+01	-1.107604e+02
1.000000e-07	-5.514855e-06	-1.704110e-09	-3.825045e+01	-1.107248e+02
1.100000e-07	-5.510490e-06	-1.705518e-09	-3.822018e+01	-1.106882e+02
1.200000e-07	-5.505871e-06	-1.676742e-09	-3.818814e+01	-1.106501e+02
1.300000e-07	-5.500890e-06	-1.664999e-09	-3.815359e+01	-1.106102e+02
1.400000e-07	-5.495467e-06	-1.683511e-09	-3.811597e+01	-1.105680e+02
1.500000e-07	-5.489646e-06	-1.729122e-09	-3.807560e+01	-1.105232e+02
1.600000e-07	-5.483526e-06	-1.723850e-09	-3.803316e+01	-1.104753e+02
1.700000e-07	-5.477082e-06	-1.679823e-09	-3.798846e+01	-1.104239e+02
1.800000e-07	-5.470243e-06	-1.689381e-09	-3.794102e+01	-1.103686e+02
1.900000e-07	-5.463021e-06	-1.711238e-09	-3.789093e+01	-1.103091e+02
2.000000e-07	-5.455453e-06	-1.720372e-09	-3.783844e+01	-1.102451e+02
2.100000e-07	-5.447546e-06	-1.694018e-09	-3.778360e+01	-1.101761e+02
2.200000e-07	-5.439330e-06	-1.710071e-09	-3.772661e+01	-1.101020e+02
2.300000e-07	-5.430869e-06	-1.731268e-09	-3.766793e+01	-1.100224e+02
2.400000e-07	-5.421934e-06	-1.724525e-09	-3.760596e+01	-1.099371e+02
2.500000e-07	-5.412227e-06	-1.691172e-09	-3.753863e+01	-1.098459e+02
2.600000e-07	-5.401845e-06	-1.685689e-09	-3.746662e+01	-1.097487e+02
2.700000e-07	-5.390950e-06	-1.682135e-09	-3.739106e+01	-1.096453e+02
2.800000e-07	-5.379620e-06	-1.674720e-09	-3.731247e+01	-1.095357e+02
2.900000e-07	-5.367876e-06	-1.672344e-09	-3.723102e+01	-1.094197e+02
3.000000e-07	-5.355763e-06	-1.675137e-09	-3.714700e+01	-1.092975e+02
3.100000e-07	-5.343305e-06	-1.678609e-09	-3.706060e+01	-1.091689e+02
3.200000e-07	-5.330437e-06	-1.675729e-09	-3.697135e+01	-1.090342e+02
3.300000e-07	-5.317179e-06	-1.671849e-09	-3.687939e+01	-1.088934e+02
3.400000e-07	-5.303540e-06	-1.656366e-09	-3.678479e+01	-1.087466e+02
3.500000e-07	-5.289496e-06	-1.661938e-09	-3.668738e+01	-1.085940e+02
3.600000e-07	-5.275039e-06	-1.662904e-09	-3.658711e+01	-1.084358e+02
3.700000e-07	-5.260044e-06	-1.660971e-09	-3.648311e+01	-1.082722e+02
3.800000e-07	-5.244396e-06	-1.666632e-09	-3.637457e+01	-1.081034e+02
3.900000e-07	-5.228252e-06	-1.674319e-09	-3.626260e+01	-1.079297e+02
4.000000e-07	-5.211775e-06	-1.647028e-09	-3.614832e+01	-1.077514e+02
4.100000e-07	-5.194997e-06	-1.639283e-09	-3.603195e+01	-1.075687e+02
4.200000e-07	-5.177896e-06	-1.660059e-09	-3.591333e+01	-1.073820e+02
4.300000e-07	-5.160324e-06	-1.657726e-09	-3.579146e+01	-1.071914e+02
4.400000e-07	-5.142414e-06	-1.630464e-09	-3.566723e+01	-1.069974e+02
4.500000e-07	-5.124255e-06	-1.653152e-09	-3.554129e+01	-1.068001e+02
4.600000e-07	-5.105698e-06	-1.664904e-09	-3.541258e+01	-1.065998e+02
4.700000e-07	-5.086777e-06	-1.632381e-09	-3.528134e+01	-1.063967e+02
4.800000e-07	-5.067501e-06	-1.625610e-09	-3.514765e+01	-1.061912e+02
4.900000e-07	-5.047940e-06	-1.648871e-09	-3.501197e+01	-1.059834e+02
5.000000e-07	-5.028153e-06	-1.617474e-09	-3.487474e+01	-1.057735e+02
5.100000e-07	-5.008136e-06	-1.593678e-09	-3.473590e+01	-1.055617e+02
5.200000e-07	-4.987822e-06	-1.621684e-09	-3.459500e+01	-1.053482e+02
5.300000e-07	-4.967043e-06	-1.623129e-09	-3.445089e+01	-1.051329e+02
5.400000e-07	-4.945866e-06	-1.592077e-09	-3.430400e+01	-1.049161e+02
5.500000e-07	-4.924415e-06	-1.608763e-09	-3.415522e+01	-1.046977e+02
5.600000e-07	-4.902675e-06	-1.620297e-09	-3.400444e+01	-1.044778e+02
5.700000e-07	-4.880631e-06	-1.589139e-09	-3.385154e+01	-1.042564e+02
5.800000e-07	-4.858282e-06	-1.587164e-09	-3.369653e+01	-1.040335e+02
5.900000e-07	-4.835516e-06	-1.603438e-09	-3.353863e+01	-1.038090e+02
6.000000e-07	-4.812343e-06	-1.577306e-09	-3.337790e+01	-1.035827e+02
6.100000e-07	-4.788958e-06	-1.558806e-09	-3.321570e+01	-1.033547e+02
6.200000e-07	-4.765318e-06	-1.576423e-09	-3.305174e+01	-1.031246e+02
6.300000e-07	-4.741405e-06	-1.569181e-09	-3.288588e+01	-1.028925e+02
6.400000e-07	-4.717228e-06	-1.556150e-09	-3.271819e+01	-1.026581e+02
6.500000e-07	-4.692668e-06	-1.571946e-09	-3.254785e+01	-1.024211e+02
6.600000e-07	-4.667597e-06	-1.575522e-09	-3.237396e+01	-1.021815e+02
6.700000e-07	-4.642062e-06	-1.552027e-09	-3.219685e+01	-1.019390e+02
6.800000e-07	-4.616038e-06	-1.550531e-09	-3.201635e+01	-1.016933e+02
6.900000e-07	-4.589454e-06	-1.550292e-09	-3.183197e+01	-1.014443e+02
7.000000e-07	-4.562417e-06	-1.531492e-09	-3.164444e+01	-1.011916e+02
7.100000e-07	-4.535063e-06	-1.523589e-09	-3.145471e+01	-1.009352e+02
7.200000e-07	-4.507482e-06	-1.533993e-09	-3.126342e+01	-1.006747e+02
7.300000e-07	-4.479706e-06	-1.533102e-09	-3.107077e+01	-1.004100e+02
7.400000e-07	-4.451767e-06	-1.530727e-09	-3.087698e+01	-1.001409e+02
7.500000e-07	-4.423625e-06	-1.530558e-09	-3.068179e+01	-9.986714e+01
7.600000e-07	-4.395181e-06	-1.523870e-09	-3.048451e+01	-9.958863e+01
7.700000e-07	-4.366333e-06	-1.508851e-09	-3.028442e+01	-9.930522e+01
7.800000e-07	-4.337149e-06	-1.503831e-09	-3.008200e+01	-9.901678e+01
7.900000e-07	-4.307691e-06	-1.499929e-09	-2.987769e+01	-9.872320e+01
8.000000e-07	-4.277958e-06	-1.493749e-09	-2.967146e+01	-9.842441e+01
8.100000e-07	-4.247956e-06	-1.489416e-09	-2.946337e+01	-9.812035e+01
8.200000e-07	-4.217697e-06	-1.488117e-09	-2.925350e+01	-9.781100e+01
8.300000e-07	-4.187130e-06	-1.480299e-09	-2.904149e+01	-9.749635e+01
8.400000e-07	-4.156214e-06	-1.473591e-09	-2.882706e+01	-9.717641e+01
8.500000e-07	-4.125032e-06	-1.471577e-09	-2.861078e+01	-9.685122e+01
8.600000e-07	-4.093634e-06	-1.469658e-09	-2.839301e+01	-9.652083e+01
8.700000e-07	-4.062043e-06	-1.463085e-09	-2.817390e+01	-9.618533e+01
8.800000e-07	-4.030280e-06	-1.454748e-09	-2.795359e+01	-9.584481e+01
8.900000e-07	-3.998296e-06	-1.445945e-09	-2.773176e+01	-9.549938e+01
9.000000e-07	-3.966078e-06	-1.434550e-09	-2.750830e+01	-9.514915e+01
9.100000e-07	-3.933626e-06	-1.427968e-09	-2.728321e+01	-9.479426e+01
9.200000e-07	-3.900749e-06	-1.426343e-09	-2.705518e+01	-9.443484e+01
9.300000e-07	-3.867370e-06	-1.424469e-09	-2.682366e+01	-9.407103e+01
9.400000e-07	-3.833556e-06	-1.420089e-09	-2.658914e+01	-9.370296e+01
9.500000e-07	-3.799284e-06	-1.415473e-09	-2.635143e+01	-9.333079e+01
9.600000e-07	-3.764606e-06	-1.405367e-09	-2.611091e+01	-9.295464e+01
9.700000e-07	-3.729599e-06	-1.391209e-09	-2.586811e+01	-9.257462e+01
9.800000e-07	-3.694334e-06	-1.380391e-09	-2.562351e+01	-9.219086e+01
9.900000e-07	-3.658880e-06	-1.375573e-09	-2.537760e+01	-9.180345e+01
1.000000e-06	-3.623261e-06	-1.368463e-09	-2.513055e+01	-9.141247e+01
1.010000e-06	-3.587498e-06	-1.359969e-09	-2.488250e+01	-9.101797e+01
1.020000e-06	-3.551590e-06	-1.350271e-09	-2.463345e+01	-9.062000e+01
1.030000e-06	-3.515515e-06	-1.341822e-09	-2.438324e+01	-9.021857e+01
1.040000e-06	-3.479183e-06	-1.333540e-09	-2.413124e+01	-8.981367e+01
1.050000e-06	-3.442475e-06	-1.327527e-09	-2.387664e+01	-8.940527e+01
1.060000e-06	-3.405450e-06	-1.319257e-09	-2.361984e+01	-8.899330e+01
1.070000e-06	-3.368248e-06	-1.308736e-09	-2.336181e+01	-8.857767e+01
1.080000e-06	-3.330825e-06	-1.300624e-09	-2.310225e+01	-8.815828e+01
1.090000e-06	-3.293121e-06	-1.292999e-09	-2.284074e+01	-8.773497e+01
1.100000e-06	-3.255195e-06	-1.281736e-09	-2.257768e+01	-8.730758e+01
1.110000e-06	-3.217037e-06	-1.269940e-09	-2.231303e+01	-8.687593e+01
1.120000e-06	-3.178604e-06	-1.258380e-09	-2.204646e+01	-8.643979e+01
1.130000e-06	-3.139932e-06	-1.247352e-09	-2.177823e+01	-8.599894e+01
1.140000e-06	-3.101071e-06	-1.237767e-09	-2.150870e+01	-8.555311e+01
1.150000e-06	-3.061987e-06	-1.233730e-09	-2.123762e+01	-8.510205e+01
1.160000e-06	-3.022667e-06	-1.229506e-09	-2.096490e+01	-8.464548e+01
1.170000e-06	-2.983202e-06	-1.222353e-09	-2.069117e+01	-8.418310e+01
1.180000e-06	-2.943658e-06	-1.215475e-09	-2.041690e+01	-8.371461e+01
1.190000e-06	-2.903953e-06	-1.207770e-09	-2.014151e+01	-8.323972e+01
1.200000e-06	-2.864127e-06	-1.194608e-09	-1.986528e+01	-8.275813e+01
1.210000e-06	-2.824242e-06	-1.180531e-09	-1.958864e+01	-8.226954e+01
1.220000e-06	-2.784181e-06	-1.170740e-09	-1.931078e+01	-8.177366e+01
1.230000e-06	-2.743957e-06	-1.163813e-09	-1.903179e+01	-8.127020e+01
1.240000e-06	-2.703580e-06	-1.157994e-09	-1.875175e+01	-8.075891e+01
1.250000e-06	-2.662932e-06	-1.151242e-09	-1.846981e+01	-8.023952e+01
1.260000e-06	-2.621991e-06	-1.144495e-09	-1.818585e+01	-7.971181e+01
1.270000e-06	-2.580696e-06	-1.134466e-09	-1.789943e+01	-7.917555e+01
1.280000e-06	-2.539064e-06	-1.122406e-09	-1.761068e+01	-7.863056e+01
1.290000e-06	-2.497215e-06	-1.111543e-09	-1.732042e+01	-7.807666e+01
1.300000e-06	-2.455165e-06	-1.100191e-09	-1.702876e+01	-7.751370e+01
1.310000e-06	-2.412843e-06	-1.087852e-09	-1.673523e+01	-7.694157e+01
1.320000e-06	-2.370145e-06	-1.076396e-09	-1.643908e+01	-7.636017e+01
1.330000e-06	-2.327097e-06	-1.065591e-09	-1.614050e+01	-7.576942e+01
1.340000e-06	-2.283881e-06	-1.055535e-09	-1.584075e+01	-7.516927e+01
1.350000e-06	-2.240567e-06	-1.046668e-09	-1.554034e+01	-7.455969e+01
1.360000e-06	-2.197117e-06	-1.040012e-09	-1.523897e+01	-7.394067e+01
1.370000e-06	-2.153576e-06	-1.032448e-09	-1.493698e+01	-7.331222e+01
1.380000e-06	-2.109959e-06	-1.024582e-09	-1.463445e+01	-7.267435e+01
1.390000e-06	-2.066244e-06	-1.013965e-09	-1.433125e+01	-7.202709e+01
1.400000e-06	-2.022448e-06	-1.000489e-09	-1.402748e+01	-7.137047e+01
1.410000e-06	-1.978574e-06	-9.864515e-10	-1.372318e+01	-7.070453e+01
1.420000e-06	-1.934573e-06	-9.741942e-10	-1.341799e+01	-7.002929e+01
1.430000e-06	-1.890425e-06	-9.631697e-10	-1.311179e+01	-6.934478e+01
1.440000e-06	-1.846093e-06	-9.545628e-10	-1.280430e+01	-6.865099e+01
1.450000e-06	-1.801638e-06	-9.480487e-10	-1.249597e+01	-6.794792e+01
1.460000e-06	-1.757141e-06	-9.402526e-10	-1.218735e+01	-6.723553e+01
1.470000e-06	-1.712499e-06	-9.280873e-10	-1.187771e+01	-6.651373e+01
1.480000e-06	-1.667717e-06	-9.143774e-10	-1.156711e+01	-6.578243e+01
1.490000e-06	-1.622855e-06	-9.010630e-10	-1.125595e+01	-6.504146e+01
1.500000e-06	-1.577856e-06	-8.850219e-10	-1.094384e+01	-6.429064e+01
1.510000e-06	-1.532735e-06	-8.688516e-10	-1.063088e+01	-6.352970e+01
1.520000e-06	-1.487515e-06	-8.561880e-10	-1.031725e+01	-6.275834e+01
1.530000e-06	-1.442178e-06	-8.442003e-10	-1.000279e+01	-6.197619e+01
1.540000e-06	-1.396765e-06	-8.301472e-10	-9.687811e+00	-6.118281e+01
1.550000e-06	-1.351277e-06	-8.163929e-10	-9.372312e+00	-6.037770e+01
1.560000e-06	-1.305700e-06	-8.013923e-10	-9.056198e+00	-5.956029e+01
1.570000e-06	-1.260018e-06	-7.832736e-10	-8.739351e+00	-5.872993e+01
1.580000e-06	-1.214215e-06	-7.670555e-10	-8.421667e+00	-5.788590e+01
1.590000e-06	-1.168322e-06	-7.512218e-10	-8.103356e+00	-5.702742e+01
1.600000e-06	-1.122354e-06	-7.327701e-10	-7.784526e+00	-5.615362e+01
1.610000e-06	-1.076302e-06	-7.165724e-10	-7.465119e+00	-5.526357e+01
1.620000e-06	-1.030160e-06	-7.039782e-10	-7.145082e+00	-5.435628e+01
1.630000e-06	-9.840252e-07	-6.921495e-10	-6.825094e+00	-5.343068e+01
1.640000e-06	-9.379072e-07	-6.800038e-10	-6.505225e+00	-5.248565e+01
1.650000e-06	-8.916598e-07	-6.675942e-10	-6.184457e+00	-5.152004e+01
1.660000e-06	-8.452519e-07	-6.542889e-10	-5.862577e+00	-5.053260e+01
1.670000e-06	-7.987690e-07	-6.395403e-10	-5.540177e+00	-4.952210e+01
1.680000e-06	-7.522249e-07	-6.236087e-10	-5.217352e+00	-4.848724e+01
1.690000e-06	-7.055895e-07	-6.089379e-10	-4.893894e+00	-4.742671e+01
1.700000e-06	-6.589674e-07	-5.908434e-10	-4.570528e+00	-4.633919e+01
1.710000e-06	-6.123742e-07	-5.697369e-10	-4.247362e+00	-4.522336e+01
1.720000e-06	-5.657254e-07	-5.501628e-10	-3.923811e+00	-4.407791e+01
1.730000e-06	-5.190359e-07	-5.327158e-10	-3.599978e+00	-4.290153e+01
1.740000e-06	-4.722606e-07	-5.162341e-10	-3.275549e+00	-4.169297e+01
1.750000e-06	-4.254320e-07	-5.010853e-10	-2.950751e+00	-4.045102e+01
1.760000e-06	-3.785536e-07	-4.849288e-10	-2.625608e+00	-3.917451e+01
1.770000e-06	-3.316128e-07	-4.660991e-10	-2.300031e+00	-3.786235e+01
1.780000e-06	-2.846857e-07	-4.457828e-10	-1.974550e+00	-3.651354e+01
1.790000e-06	-2.378136e-07	-4.249997e-10	-1.649450e+00	-3.512715e+01
1.800000e-06	-1.909903e-07	-4.052620e-10	-1.324688e+00	-3.370238e+01
1.810000e-06	-1.441540e-07	-3.854430e-10	-9.998365e-01	-3.223853e+01
1.820000e-06	-9.737822e-08	-3.652398e-10	-6.754050e-01	-3.073503e+01
1.830000e-06	-5.057692e-08	-3.453650e-10	-3.507961e-01	-2.919147e+01
1.840000e-06	-3.668364e-09	-3.260620e-10	-2.544338e-02	-2.760755e+01
1.850000e-06	4.319880e-08	-3.069014e-10	2.996223e-01	-2.598315e+01
1.860000e-06	9.005992e-08	-2.873928e-10	6.246460e-01	-2.431830e+01
1.870000e-06	1.369690e-07	-2.666340e-10	9.500026e-01	-2.261323e+01
1.880000e-06	1.838305e-07	-2.437677e-10	1.275029e+00	-2.086830e+01
1.890000e-06	2.306565e-07	-2.185908e-10	1.599809e+00	-1.908409e+01
1.900000e-06	2.775489e-07	-1.915711e-10	1.925049e+00	-1.726134e+01
1.910000e-06	3.244767e-07	-1.627840e-10	2.250536e+00	-1.540098e+01
1.920000e-06	3.713436e-07	-1.352075e-10	2.575600e+00	-1.350413e+01
1.930000e-06	4.181567e-07	-1.106613e-10	2.900290e+00	-1.157210e+01
1.940000e-06	4.649170e-07	-8.704528e-11	3.224615e+00	-9.606348e+00
1.950000e-06	5.116109e-07	-6.231178e-11	3.548479e+00	-7.608553e+00
1.960000e-06	5.582934e-07	-3.646516e-11	3.872264e+00	-5.580541e+00
1.970000e-06	6.049512e-07	-1.086455e-11	4.195877e+00	-3.524310e+00
1.980000e-06	6.515341e-07	1.473528e-11	4.518972e+00	-1.442015e+00
1.990000e-06	6.980724e-07	4.413489e-11	4.841756e+00	6.640385e-01
2.000000e-06	7.445894e-07	7.704395e-11	5.164393e+00	2.791410e+00
2.010000e-06	7.910571e-07	1.101909e-10	5.486688e+00	4.937532e+00
2.020000e-06	8.374527e-07	1.427174e-10	5.808483e+00	7.099723e+00
2.030000e-06	8.837397e-07	1.729929e-10	6.129525e+00	9.275200e+00
2.040000e-06	9.299667e-07	2.011598e-10	6.450150e+00	1.146110e+01
2.050000e-06	9.761550e-07	2.297393e-10	6.770507e+00	1.365448e+01
2.060000e-06	1.022272e-06	2.589619e-10	7.090369e+00	1.585235e+01
2.070000e-06	1.068353e-06	2.895060e-10	7.409982e+00	1.805169e+01
2.080000e-06	1.114327e-06	3.208086e-10	7.728853e+00	2.024945e+01
2.090000e-06	1.160153e-06	3.523221e-10	8.046699e+00	2.244256e+01
2.100000e-06	1.205845e-06	3.845361e-10	8.363612e+00	2.462800e+01
2.110000e-06	1.251462e-06	4.157237e-10	8.680005e+00	2.680275e+01
2.120000e-06	1.297066e-06	4.445161e-10	8.996309e+00	2.896384e+01
2.130000e-06	1.342605e-06	4.725714e-10	9.312168e+00	3.110838e+01
2.140000e-06	1.388086e-06	5.001124e-10	9.627615e+00	3.323355e+01
2.150000e-06	1.433454e-06	5.254132e-10	9.942284e+00	3.533662e+01
2.160000e-06	1.478743e-06	5.499492e-10	1.025640e+01	3.741497e+01
2.170000e-06	1.523933e-06	5.744538e-10	1.056984e+01	3.946611e+01
2.180000e-06	1.568919e-06	6.005678e-10	1.088185e+01	4.148768e+01
2.190000e-06	1.613807e-06	6.291040e-10	1.119320e+01	4.347746e+01
2.200000e-06	1.658643e-06	6.592953e-10	1.150417e+01	4.543341e+01
2.210000e-06	1.703360e-06	6.890034e-10	1.181432e+01	4.735364e+01
2.220000e-06	1.747863e-06	7.170361e-10	1.212299e+01	4.923642e+01
2.230000e-06	1.792180e-06	7.418885e-10	1.243037e+01	5.108024e+01
2.240000e-06	1.836409e-06	7.620795e-10	1.273714e+01	5.288375e+01
2.250000e-06	1.880557e-06	7.790714e-10	1.304334e+01	5.464579e+01
2.260000e-06	1.924565e-06	7.965980e-10	1.334858e+01	5.636540e+01
2.270000e-06	1.968466e-06	8.172970e-10	1.365307e+01	5.804181e+01
2.280000e-06	2.012349e-06	8.404001e-10	1.395744e+01	5.967444e+01
2.290000e-06	2.056173e-06	8.644765e-10	1.426140e+01	6.126290e+01
2.300000e-06	2.099921e-06	8.898166e-10	1.456483e+01	6.280699e+01
2.310000e-06	2.143580e-06	9.138105e-10	1.486764e+01	6.430669e+01
2.320000e-06	2.187165e-06	9.329053e-10	1.516994e+01	6.576215e+01
2.330000e-06	2.230708e-06	9.477550e-10	1.547195e+01	6.717369e+01
2.340000e-06	2.274111e-06	9.628820e-10	1.577299e+01	6.854179e+01
2.350000e-06	2.317250e-06	9.803911e-10	1.607220e+01	6.986707e+01
2.360000e-06	2.360161e-06	9.979545e-10	1.636983e+01	7.115031e+01
2.370000e-06	2.402899e-06	1.016383e-09	1.666625e+01	7.239240e+01
2.380000e-06	2.445461e-06	1.035971e-09	1.696146e+01	7.359434e+01
2.390000e-06	2.487732e-06	1.053122e-09	1.725464e+01	7.475724e+01
2.400000e-06	2.529536e-06	1.068111e-09	1.754459e+01	7.588230e+01
2.410000e-06	2.571003e-06	1.083237e-09	1.783220e+01	7.697079e+01
2.420000e-06	2.612264e-06	1.097246e-09	1.811839e+01	7.802406e+01
2.430000e-06	2.653193e-06	1.111539e-09	1.840226e+01	7.904348e+01
2.440000e-06	2.693880e-06	1.126781e-09	1.868446e+01	8.003047e+01
2.450000e-06	2.734395e-06	1.141171e-09	1.896548e+01	8.098647e+01
2.460000e-06	2.774650e-06	1.154608e-09	1.924468e+01	8.191293e+01
2.470000e-06	2.814708e-06	1.165813e-09	1.952251e+01	8.281130e+01
2.480000e-06	2.854631e-06	1.176087e-09	1.979942e+01	8.368300e+01
2.490000e-06	2.894423e-06	1.187770e-09	2.007541e+01	8.452942e+01
2.500000e-06	2.934047e-06	1.199814e-09	2.035024e+01	8.535194e+01
2.510000e-06	2.973556e-06	1.213835e-09	2.062427e+01	8.615187e+01
2.520000e-06	3.012916e-06	1.226442e-09	2.089727e+01	8.693045e+01
2.530000e-06	3.052088e-06	1.239388e-09	2.116896e+01	8.768889e+01
2.540000e-06	3.091066e-06	1.253473e-09	2.143930e+01	8.842830e+01
2.550000e-06	3.129833e-06	1.265759e-09	2.170819e+01	8.914972e+01
2.560000e-06	3.168322e-06	1.274192e-09	2.197515e+01	8.985412e+01
2.570000e-06	3.206541e-06	1.280423e-09	2.224023e+01	9.054237e+01
2.580000e-06	3.244595e-06	1.287629e-09	2.250417e+01	9.121525e+01
2.590000e-06	3.282459e-06	1.294292e-09	2.276679e+01	9.187346e+01
2.600000e-06	3.320080e-06	1.304406e-09	2.302772e+01	9.251762e+01
2.610000e-06	3.357505e-06	1.319658e-09	2.328730e+01	9.314824e+01
2.620000e-06	3.394741e-06	1.335416e-09	2.354556e+01	9.376575e+01
2.630000e-06	3.431751e-06	1.345346e-09	2.380226e+01	9.437050e+01
2.640000e-06	3.468535e-06	1.352426e-09	2.405739e+01	9.496277e+01
2.650000e-06	3.505052e-06	1.359404e-09	2.431067e+01	9.554274e+01
2.660000e-06	3.541291e-06	1.365267e-09	2.456202e+01	9.611053e+01
2.670000e-06	3.577252e-06	1.370218e-09	2.481144e+01	9.666622e+01
2.680000e-06	3.613028e-06	1.375125e-09	2.505958e+01	9.720980e+01
2.690000e-06	3.648758e-06	1.382563e-09	2.530739e+01	9.774122e+01
2.700000e-06	3.684393e-06	1.392852e-09	2.555456e+01	9.826039e+01
2.710000e-06	3.719782e-06	1.401398e-09	2.580001e+01	9.876719e+01
2.720000e-06	3.754882e-06	1.408020e-09	2.604346e+01	9.926146e+01
2.730000e-06	3.789707e-06	1.413202e-09	2.628501e+01	9.974303e+01
2.740000e-06	3.824149e-06	1.418354e-09	2.652389e+01	1.002117e+02
2.750000e-06	3.858076e-06	1.424022e-09	2.675920e+01	1.006673e+02
2.760000e-06	3.891515e-06	1.430288e-09	2.699114e+01	1.011097e+02
2.770000e-06	3.924536e-06	1.437669e-09	2.722016e+01	1.015386e+02
2.780000e-06	3.957179e-06	1.445252e-09	2.744657e+01	1.019540e+02
2.790000e-06	3.989474e-06	1.452572e-09	2.767057e+01	1.023556e+02
2.800000e-06	4.021511e-06	1.459653e-09	2.789277e+01	1.027435e+02
2.810000e-06	4.053376e-06	1.467273e-09	2.811379e+01	1.031174e+02
2.820000e-06	4.085082e-06	1.474016e-09	2.833369e+01	1.034775e+02
2.830000e-06	4.116619e-06	1.479894e-09	2.855243e+01	1.038237e+02
2.840000e-06	4.147952e-06	1.486255e-09	2.876976e+01	1.041562e+02
2.850000e-06	4.178984e-06	1.492877e-09	2.898499e+01	1.044749e+02
2.860000e-06	4.209658e-06	1.500102e-09	2.919774e+01	1.047801e+02
2.870000e-06	4.239996e-06	1.509072e-09	2.940816e+01	1.050721e+02
2.880000e-06	4.270033e-06	1.514759e-09	2.961649e+01	1.053510e+02
2.890000e-06	4.299744e-06	1.515917e-09	2.982257e+01	1.056173e+02
2.900000e-06	4.329186e-06	1.516700e-09	3.002677e+01	1.058712e+02
