# Temperatura_=_14.29
# Concentracion g/m^3_=_1620.0
# C_Vs_to_Am_M_A/Vsm_=_65563218390.804596
# pendiente_HvsI_1/m_=_3716.3
# ordenada_HvsI_A/m_=_1297.0
# frecuencia_Hz_=_135104.83205722278

Tiempo_(s)	Campo_(V.s)	Magnetizacion_(V.s)	Campo_(kA/m)	Magnetizacion_(A/m)
0.000000e+00	-5.533633e-06	-1.885477e-09	-3.837650e+01	-1.222976e+02
1.000000e-08	-5.533886e-06	-1.886498e-09	-3.837826e+01	-1.222809e+02
2.000000e-08	-5.533879e-06	-1.889222e-09	-3.837821e+01	-1.222643e+02
3.000000e-08	-5.533391e-06	-1.890381e-09	-3.837483e+01	-1.222475e+02
4.000000e-08	-5.532443e-06	-1.889969e-09	-3.836825e+01	-1.222302e+02
5.000000e-08	-5.531021e-06	-1.884211e-09	-3.835839e+01	-1.222119e+02
6.000000e-08	-5.528987e-06	-1.865096e-09	-3.834428e+01	-1.221924e+02
7.000000e-08	-5.526281e-06	-1.853462e-09	-3.832551e+01	-1.221712e+02
8.000000e-08	-5.523022e-06	-1.870384e-09	-3.830291e+01	-1.221479e+02
9.000000e-08	-5.519358e-06	-1.930381e-09	-3.827750e+01	-1.221219e+02
1.000000e-07	-5.515306e-06	-1.977919e-09	-3.824940e+01	-1.220929e+02
1.100000e-07	-5.510936e-06	-1.928222e-09	-3.821910e+01	-1.220604e+02
1.200000e-07	-5.506380e-06	-1.793175e-09	-3.818750e+01	-1.220238e+02
1.300000e-07	-5.501650e-06	-1.814263e-09	-3.815470e+01	-1.219829e+02
1.400000e-07	-5.496432e-06	-1.893143e-09	-3.811851e+01	-1.219371e+02
1.500000e-07	-5.490730e-06	-1.939500e-09	-3.807896e+01	-1.218860e+02
1.600000e-07	-5.484773e-06	-1.839158e-09	-3.803765e+01	-1.218291e+02
1.700000e-07	-5.478545e-06	-1.828624e-09	-3.799446e+01	-1.217662e+02
1.800000e-07	-5.471779e-06	-1.888590e-09	-3.794753e+01	-1.216969e+02
1.900000e-07	-5.464554e-06	-1.920647e-09	-3.789743e+01	-1.216208e+02
2.000000e-07	-5.457116e-06	-1.843639e-09	-3.784584e+01	-1.215377e+02
2.100000e-07	-5.449424e-06	-1.825844e-09	-3.779250e+01	-1.214473e+02
2.200000e-07	-5.441427e-06	-1.890090e-09	-3.773704e+01	-1.213494e+02
2.300000e-07	-5.433127e-06	-1.933590e-09	-3.767948e+01	-1.212440e+02
2.400000e-07	-5.424526e-06	-1.897954e-09	-3.761983e+01	-1.211307e+02
2.500000e-07	-5.415309e-06	-1.842218e-09	-3.755591e+01	-1.210097e+02
2.600000e-07	-5.405122e-06	-1.868136e-09	-3.748526e+01	-1.208808e+02
2.700000e-07	-5.394188e-06	-1.877952e-09	-3.740943e+01	-1.207441e+02
2.800000e-07	-5.382898e-06	-1.872099e-09	-3.733114e+01	-1.205996e+02
2.900000e-07	-5.371246e-06	-1.838281e-09	-3.725032e+01	-1.204475e+02
3.000000e-07	-5.359239e-06	-1.876122e-09	-3.716705e+01	-1.202878e+02
3.100000e-07	-5.346893e-06	-1.870468e-09	-3.708143e+01	-1.201208e+02
3.200000e-07	-5.334107e-06	-1.862909e-09	-3.699276e+01	-1.199467e+02
3.300000e-07	-5.320840e-06	-1.814726e-09	-3.690075e+01	-1.197656e+02
3.400000e-07	-5.307290e-06	-1.847555e-09	-3.680678e+01	-1.195780e+02
3.500000e-07	-5.293439e-06	-1.849172e-09	-3.671073e+01	-1.193840e+02
3.600000e-07	-5.279066e-06	-1.848376e-09	-3.661105e+01	-1.191840e+02
3.700000e-07	-5.264099e-06	-1.825812e-09	-3.650725e+01	-1.189782e+02
3.800000e-07	-5.248680e-06	-1.860844e-09	-3.640031e+01	-1.187672e+02
3.900000e-07	-5.232706e-06	-1.833033e-09	-3.628953e+01	-1.185511e+02
4.000000e-07	-5.216106e-06	-1.802303e-09	-3.617441e+01	-1.183303e+02
4.100000e-07	-5.199277e-06	-1.821363e-09	-3.605770e+01	-1.181052e+02
4.200000e-07	-5.182258e-06	-1.840941e-09	-3.593967e+01	-1.178762e+02
4.300000e-07	-5.164914e-06	-1.790041e-09	-3.581939e+01	-1.176434e+02
4.400000e-07	-5.147293e-06	-1.797328e-09	-3.569718e+01	-1.174073e+02
4.500000e-07	-5.129305e-06	-1.857234e-09	-3.557243e+01	-1.171682e+02
4.600000e-07	-5.110759e-06	-1.814713e-09	-3.544381e+01	-1.169262e+02
4.700000e-07	-5.091708e-06	-1.756339e-09	-3.531169e+01	-1.166818e+02
4.800000e-07	-5.072353e-06	-1.802331e-09	-3.517746e+01	-1.164350e+02
4.900000e-07	-5.052795e-06	-1.814865e-09	-3.504182e+01	-1.161860e+02
5.000000e-07	-5.033101e-06	-1.738398e-09	-3.490525e+01	-1.159351e+02
5.100000e-07	-5.013236e-06	-1.762324e-09	-3.476748e+01	-1.156823e+02
5.200000e-07	-4.993045e-06	-1.806397e-09	-3.462745e+01	-1.154278e+02
5.300000e-07	-4.972347e-06	-1.757783e-09	-3.448390e+01	-1.151715e+02
5.400000e-07	-4.951257e-06	-1.741264e-09	-3.433765e+01	-1.149136e+02
5.500000e-07	-4.929902e-06	-1.808106e-09	-3.418954e+01	-1.146540e+02
5.600000e-07	-4.908213e-06	-1.762716e-09	-3.403913e+01	-1.143926e+02
5.700000e-07	-4.886230e-06	-1.709656e-09	-3.388668e+01	-1.141294e+02
5.800000e-07	-4.863921e-06	-1.753658e-09	-3.373196e+01	-1.138643e+02
5.900000e-07	-4.841171e-06	-1.769337e-09	-3.357418e+01	-1.135972e+02
6.000000e-07	-4.817966e-06	-1.706554e-09	-3.341325e+01	-1.133278e+02
6.100000e-07	-4.794527e-06	-1.731476e-09	-3.325070e+01	-1.130561e+02
6.200000e-07	-4.770901e-06	-1.755549e-09	-3.308685e+01	-1.127817e+02
6.300000e-07	-4.747078e-06	-1.714931e-09	-3.292163e+01	-1.125046e+02
6.400000e-07	-4.723080e-06	-1.703783e-09	-3.275521e+01	-1.122244e+02
6.500000e-07	-4.698754e-06	-1.737168e-09	-3.258650e+01	-1.119410e+02
6.600000e-07	-4.673884e-06	-1.705320e-09	-3.241403e+01	-1.116540e+02
6.700000e-07	-4.648490e-06	-1.688069e-09	-3.223792e+01	-1.113633e+02
6.800000e-07	-4.622617e-06	-1.707173e-09	-3.205848e+01	-1.110686e+02
6.900000e-07	-4.596076e-06	-1.694421e-09	-3.187442e+01	-1.107697e+02
7.000000e-07	-4.568953e-06	-1.664833e-09	-3.168631e+01	-1.104663e+02
7.100000e-07	-4.541518e-06	-1.681764e-09	-3.149605e+01	-1.101583e+02
7.200000e-07	-4.513905e-06	-1.683441e-09	-3.130455e+01	-1.098453e+02
7.300000e-07	-4.486191e-06	-1.664383e-09	-3.111235e+01	-1.095273e+02
7.400000e-07	-4.458329e-06	-1.666226e-09	-3.091912e+01	-1.092041e+02
7.500000e-07	-4.430188e-06	-1.665391e-09	-3.072396e+01	-1.088755e+02
7.600000e-07	-4.401741e-06	-1.643778e-09	-3.052668e+01	-1.085415e+02
7.700000e-07	-4.373017e-06	-1.635234e-09	-3.032747e+01	-1.082018e+02
7.800000e-07	-4.343956e-06	-1.635409e-09	-3.012593e+01	-1.078565e+02
7.900000e-07	-4.314524e-06	-1.620595e-09	-2.992182e+01	-1.075056e+02
8.000000e-07	-4.284844e-06	-1.619348e-09	-2.971598e+01	-1.071489e+02
8.100000e-07	-4.254923e-06	-1.623048e-09	-2.950848e+01	-1.067866e+02
8.200000e-07	-4.224690e-06	-1.612039e-09	-2.929880e+01	-1.064186e+02
8.300000e-07	-4.194153e-06	-1.596535e-09	-2.908702e+01	-1.060450e+02
8.400000e-07	-4.163329e-06	-1.599815e-09	-2.887326e+01	-1.056659e+02
8.500000e-07	-4.132260e-06	-1.590805e-09	-2.865779e+01	-1.052814e+02
8.600000e-07	-4.101001e-06	-1.579861e-09	-2.844100e+01	-1.048917e+02
8.700000e-07	-4.069527e-06	-1.575153e-09	-2.822273e+01	-1.044968e+02
8.800000e-07	-4.037825e-06	-1.572610e-09	-2.800287e+01	-1.040969e+02
8.900000e-07	-4.005951e-06	-1.553120e-09	-2.778182e+01	-1.036922e+02
9.000000e-07	-3.973892e-06	-1.547682e-09	-2.755948e+01	-1.032828e+02
9.100000e-07	-3.941476e-06	-1.544684e-09	-2.733467e+01	-1.028690e+02
9.200000e-07	-3.908581e-06	-1.533754e-09	-2.710654e+01	-1.024509e+02
9.300000e-07	-3.875409e-06	-1.523087e-09	-2.687649e+01	-1.020286e+02
9.400000e-07	-3.841920e-06	-1.525415e-09	-2.664424e+01	-1.016023e+02
9.500000e-07	-3.807885e-06	-1.512702e-09	-2.640821e+01	-1.011723e+02
9.600000e-07	-3.773317e-06	-1.496835e-09	-2.616847e+01	-1.007385e+02
9.700000e-07	-3.738346e-06	-1.488687e-09	-2.592594e+01	-1.003012e+02
9.800000e-07	-3.703078e-06	-1.481741e-09	-2.568135e+01	-9.986038e+01
9.900000e-07	-3.667584e-06	-1.467741e-09	-2.543520e+01	-9.941622e+01
1.000000e-06	-3.631980e-06	-1.465328e-09	-2.518828e+01	-9.896875e+01
1.010000e-06	-3.596274e-06	-1.464532e-09	-2.494065e+01	-9.851801e+01
1.020000e-06	-3.560399e-06	-1.455859e-09	-2.469186e+01	-9.806398e+01
1.030000e-06	-3.524384e-06	-1.448655e-09	-2.444209e+01	-9.760667e+01
1.040000e-06	-3.488151e-06	-1.444033e-09	-2.419080e+01	-9.714600e+01
1.050000e-06	-3.451553e-06	-1.432385e-09	-2.393699e+01	-9.668191e+01
1.060000e-06	-3.414613e-06	-1.418871e-09	-2.368081e+01	-9.621428e+01
1.070000e-06	-3.377399e-06	-1.411630e-09	-2.342273e+01	-9.574298e+01
1.080000e-06	-3.340012e-06	-1.401127e-09	-2.316344e+01	-9.526783e+01
1.090000e-06	-3.302405e-06	-1.390049e-09	-2.290263e+01	-9.478864e+01
1.100000e-06	-3.264555e-06	-1.384446e-09	-2.264013e+01	-9.430519e+01
1.110000e-06	-3.226600e-06	-1.380272e-09	-2.237691e+01	-9.381725e+01
1.120000e-06	-3.188422e-06	-1.366052e-09	-2.211214e+01	-9.332454e+01
1.130000e-06	-3.149924e-06	-1.353938e-09	-2.184515e+01	-9.282680e+01
1.140000e-06	-3.111174e-06	-1.344086e-09	-2.157642e+01	-9.232371e+01
1.150000e-06	-3.072204e-06	-1.338307e-09	-2.130616e+01	-9.181498e+01
1.160000e-06	-3.033037e-06	-1.328290e-09	-2.103453e+01	-9.130029e+01
1.170000e-06	-2.993676e-06	-1.322183e-09	-2.076155e+01	-9.077933e+01
1.180000e-06	-2.954145e-06	-1.313992e-09	-2.048740e+01	-9.025176e+01
1.190000e-06	-2.914492e-06	-1.305542e-09	-2.021240e+01	-8.971727e+01
1.200000e-06	-2.874759e-06	-1.293442e-09	-1.993685e+01	-8.917555e+01
1.210000e-06	-2.834911e-06	-1.279671e-09	-1.966049e+01	-8.862629e+01
1.220000e-06	-2.794915e-06	-1.265768e-09	-1.938312e+01	-8.806919e+01
1.230000e-06	-2.754756e-06	-1.256823e-09	-1.910461e+01	-8.750400e+01
1.240000e-06	-2.714390e-06	-1.249042e-09	-1.882466e+01	-8.693043e+01
1.250000e-06	-2.673798e-06	-1.241861e-09	-1.854315e+01	-8.634825e+01
1.260000e-06	-2.632869e-06	-1.235652e-09	-1.825931e+01	-8.575726e+01
1.270000e-06	-2.591659e-06	-1.226647e-09	-1.797351e+01	-8.515724e+01
1.280000e-06	-2.550170e-06	-1.210047e-09	-1.768578e+01	-8.454804e+01
1.290000e-06	-2.508249e-06	-1.194689e-09	-1.739505e+01	-8.392951e+01
1.300000e-06	-2.466019e-06	-1.182114e-09	-1.710218e+01	-8.330154e+01
1.310000e-06	-2.423546e-06	-1.171498e-09	-1.680762e+01	-8.266402e+01
1.320000e-06	-2.380825e-06	-1.161939e-09	-1.651135e+01	-8.201690e+01
1.330000e-06	-2.337882e-06	-1.154146e-09	-1.621353e+01	-8.136012e+01
1.340000e-06	-2.294713e-06	-1.147905e-09	-1.591415e+01	-8.069367e+01
1.350000e-06	-2.251352e-06	-1.141140e-09	-1.561344e+01	-8.001753e+01
1.360000e-06	-2.207845e-06	-1.132246e-09	-1.531171e+01	-7.933172e+01
1.370000e-06	-2.164227e-06	-1.119468e-09	-1.500921e+01	-7.863624e+01
1.380000e-06	-2.120536e-06	-1.107793e-09	-1.470621e+01	-7.793113e+01
1.390000e-06	-2.076790e-06	-1.094375e-09	-1.440282e+01	-7.721642e+01
1.400000e-06	-2.033027e-06	-1.079118e-09	-1.409932e+01	-7.649212e+01
1.410000e-06	-1.989198e-06	-1.065518e-09	-1.379536e+01	-7.575827e+01
1.420000e-06	-1.945272e-06	-1.056592e-09	-1.349073e+01	-7.501487e+01
1.430000e-06	-1.901224e-06	-1.047112e-09	-1.318525e+01	-7.426189e+01
1.440000e-06	-1.857024e-06	-1.037248e-09	-1.287872e+01	-7.349932e+01
1.450000e-06	-1.812718e-06	-1.026058e-09	-1.257145e+01	-7.272708e+01
1.460000e-06	-1.768282e-06	-1.013358e-09	-1.226328e+01	-7.194507e+01
1.470000e-06	-1.723668e-06	-9.954811e-10	-1.195388e+01	-7.115315e+01
1.480000e-06	-1.678877e-06	-9.780657e-10	-1.164324e+01	-7.035114e+01
1.490000e-06	-1.633908e-06	-9.632920e-10	-1.133138e+01	-6.953878e+01
1.500000e-06	-1.588801e-06	-9.490642e-10	-1.101855e+01	-6.871579e+01
1.510000e-06	-1.543650e-06	-9.337762e-10	-1.070543e+01	-6.788181e+01
1.520000e-06	-1.498437e-06	-9.198585e-10	-1.039186e+01	-6.703642e+01
1.530000e-06	-1.453040e-06	-9.058332e-10	-1.007703e+01	-6.617913e+01
1.540000e-06	-1.407571e-06	-8.924189e-10	-9.761700e+00	-6.530940e+01
1.550000e-06	-1.362088e-06	-8.772339e-10	-9.446269e+00	-6.442658e+01
1.560000e-06	-1.316486e-06	-8.620123e-10	-9.130009e+00	-6.352999e+01
1.570000e-06	-1.270804e-06	-8.432233e-10	-8.813203e+00	-6.261885e+01
1.580000e-06	-1.225076e-06	-8.245785e-10	-8.496071e+00	-6.169231e+01
1.590000e-06	-1.179250e-06	-8.078615e-10	-8.178258e+00	-6.074947e+01
1.600000e-06	-1.133357e-06	-7.903215e-10	-7.859986e+00	-5.978935e+01
1.610000e-06	-1.087376e-06	-7.728592e-10	-7.541103e+00	-5.881089e+01
1.620000e-06	-1.041279e-06	-7.583792e-10	-7.221415e+00	-5.781301e+01
1.630000e-06	-9.951389e-07	-7.468792e-10	-6.901424e+00	-5.679453e+01
1.640000e-06	-9.488592e-07	-7.335887e-10	-6.580468e+00	-5.575427e+01
1.650000e-06	-9.025428e-07	-7.190214e-10	-6.259258e+00	-5.469096e+01
1.660000e-06	-8.562249e-07	-7.026720e-10	-5.938037e+00	-5.360334e+01
1.670000e-06	-8.098018e-07	-6.848068e-10	-5.616086e+00	-5.249010e+01
1.680000e-06	-7.632983e-07	-6.650445e-10	-5.293578e+00	-5.134993e+01
1.690000e-06	-7.167343e-07	-6.467310e-10	-4.970651e+00	-5.018150e+01
1.700000e-06	-6.701293e-07	-6.267691e-10	-4.647438e+00	-4.898351e+01
1.710000e-06	-6.234602e-07	-6.053725e-10	-4.323781e+00	-4.775465e+01
1.720000e-06	-5.768027e-07	-5.836036e-10	-4.000206e+00	-4.649367e+01
1.730000e-06	-5.301188e-07	-5.643061e-10	-3.676446e+00	-4.519932e+01
1.740000e-06	-4.833125e-07	-5.468594e-10	-3.351838e+00	-4.387045e+01
1.750000e-06	-4.364142e-07	-5.297916e-10	-3.026592e+00	-4.250594e+01
1.760000e-06	-3.894909e-07	-5.107334e-10	-2.701172e+00	-4.110476e+01
1.770000e-06	-3.425990e-07	-4.876021e-10	-2.375971e+00	-3.966597e+01
1.780000e-06	-2.957068e-07	-4.632102e-10	-2.050767e+00	-3.818874e+01
1.790000e-06	-2.487996e-07	-4.423271e-10	-1.725459e+00	-3.667233e+01
1.800000e-06	-2.018843e-07	-4.216267e-10	-1.400095e+00	-3.511614e+01
1.810000e-06	-1.549824e-07	-3.997627e-10	-1.074824e+00	-3.351970e+01
1.820000e-06	-1.081146e-07	-3.788518e-10	-7.497896e-01	-3.188267e+01
1.830000e-06	-6.117090e-08	-3.583387e-10	-4.242285e-01	-3.020489e+01
1.840000e-06	-1.414005e-08	-3.374093e-10	-9.806316e-02	-2.848632e+01
1.850000e-06	3.288505e-08	-3.156733e-10	2.280623e-01	-2.672713e+01
1.860000e-06	7.983271e-08	-2.925561e-10	5.536508e-01	-2.492762e+01
1.870000e-06	1.267150e-07	-2.679934e-10	8.787856e-01	-2.308828e+01
1.880000e-06	1.735934e-07	-2.422832e-10	1.203894e+00	-2.120979e+01
1.890000e-06	2.204960e-07	-2.148415e-10	1.529170e+00	-1.929300e+01
1.900000e-06	2.673854e-07	-1.854275e-10	1.854355e+00	-1.733895e+01
1.910000e-06	3.142981e-07	-1.562760e-10	2.179700e+00	-1.534884e+01
1.920000e-06	3.612051e-07	-1.287765e-10	2.505007e+00	-1.332406e+01
1.930000e-06	4.080019e-07	-1.024891e-10	2.829549e+00	-1.126619e+01
1.940000e-06	4.547832e-07	-7.685102e-11	3.153984e+00	-9.176957e+00
1.950000e-06	5.015229e-07	-5.056512e-11	3.478130e+00	-7.058256e+00
1.960000e-06	5.481512e-07	-2.309087e-11	3.801504e+00	-4.912144e+00
1.970000e-06	5.947125e-07	6.257610e-12	4.124412e+00	-2.740823e+00
1.980000e-06	6.412598e-07	3.676078e-11	4.447224e+00	-5.466293e-01
1.990000e-06	6.877892e-07	6.924905e-11	4.769912e+00	1.667972e+00
2.000000e-06	7.342261e-07	1.024092e-10	5.091958e+00	3.900402e+00
2.010000e-06	7.805990e-07	1.348948e-10	5.413561e+00	6.147982e+00
2.020000e-06	8.269494e-07	1.672415e-10	5.735007e+00	8.407948e+00
2.030000e-06	8.733074e-07	2.010051e-10	6.056506e+00	1.067746e+01
2.040000e-06	9.196238e-07	2.338979e-10	6.377717e+00	1.295362e+01
2.050000e-06	9.658796e-07	2.640094e-10	6.698507e+00	1.523350e+01
2.060000e-06	1.012038e-06	2.947280e-10	7.018624e+00	1.751414e+01
2.070000e-06	1.058112e-06	3.251083e-10	7.338150e+00	1.979255e+01
2.080000e-06	1.104136e-06	3.561167e-10	7.657337e+00	2.206579e+01
2.090000e-06	1.149986e-06	3.896733e-10	7.975313e+00	2.433090e+01
2.100000e-06	1.195687e-06	4.264309e-10	8.292250e+00	2.658500e+01
2.110000e-06	1.241350e-06	4.635112e-10	8.608932e+00	2.882523e+01
2.120000e-06	1.286954e-06	4.969111e-10	8.925205e+00	3.104882e+01
2.130000e-06	1.332489e-06	5.286544e-10	9.240993e+00	3.325309e+01
2.140000e-06	1.377966e-06	5.578423e-10	9.556379e+00	3.543545e+01
2.150000e-06	1.423341e-06	5.832654e-10	9.871067e+00	3.759342e+01
2.160000e-06	1.468700e-06	6.068865e-10	1.018564e+01	3.972465e+01
2.170000e-06	1.513986e-06	6.326674e-10	1.049970e+01	4.182692e+01
2.180000e-06	1.559079e-06	6.622842e-10	1.081243e+01	4.389818e+01
2.190000e-06	1.603991e-06	6.941571e-10	1.112390e+01	4.593652e+01
2.200000e-06	1.648722e-06	7.269657e-10	1.143411e+01	4.794017e+01
2.210000e-06	1.693410e-06	7.577840e-10	1.174403e+01	4.990757e+01
2.220000e-06	1.738027e-06	7.846028e-10	1.205346e+01	5.183731e+01
2.230000e-06	1.782489e-06	8.081143e-10	1.236180e+01	5.372816e+01
2.240000e-06	1.826835e-06	8.280393e-10	1.266935e+01	5.557909e+01
2.250000e-06	1.870984e-06	8.470305e-10	1.297553e+01	5.738923e+01
2.260000e-06	1.914973e-06	8.671534e-10	1.328060e+01	5.915789e+01
2.270000e-06	1.958922e-06	8.907255e-10	1.358539e+01	6.088457e+01
2.280000e-06	2.002793e-06	9.156206e-10	1.388964e+01	6.256896e+01
2.290000e-06	2.046526e-06	9.405095e-10	1.419294e+01	6.421088e+01
2.300000e-06	2.090211e-06	9.658478e-10	1.449590e+01	6.581036e+01
2.310000e-06	2.133894e-06	9.883509e-10	1.479885e+01	6.736755e+01
2.320000e-06	2.177520e-06	1.006829e-09	1.510140e+01	6.888279e+01
2.330000e-06	2.221067e-06	1.022503e-09	1.540340e+01	7.035653e+01
2.340000e-06	2.264459e-06	1.037000e-09	1.570433e+01	7.178937e+01
2.350000e-06	2.307627e-06	1.053786e-09	1.600371e+01	7.318203e+01
2.360000e-06	2.350634e-06	1.073724e-09	1.630197e+01	7.453533e+01
2.370000e-06	2.393554e-06	1.095531e-09	1.659963e+01	7.585020e+01
2.380000e-06	2.436340e-06	1.116561e-09	1.689635e+01	7.712765e+01
2.390000e-06	2.478771e-06	1.134457e-09	1.719062e+01	7.836879e+01
2.400000e-06	2.520794e-06	1.149336e-09	1.748205e+01	7.957475e+01
2.410000e-06	2.562451e-06	1.160873e-09	1.777095e+01	8.074673e+01
2.420000e-06	2.603747e-06	1.170598e-09	1.805734e+01	8.188599e+01
2.430000e-06	2.644690e-06	1.184136e-09	1.834128e+01	8.299378e+01
2.440000e-06	2.685347e-06	1.202420e-09	1.862325e+01	8.407138e+01
2.450000e-06	2.725839e-06	1.221765e-09	1.890407e+01	8.512006e+01
2.460000e-06	2.766121e-06	1.240238e-09	1.918343e+01	8.614111e+01
2.470000e-06	2.806179e-06	1.255275e-09	1.946123e+01	8.713576e+01
2.480000e-06	2.846071e-06	1.267518e-09	1.973789e+01	8.810523e+01
2.490000e-06	2.885803e-06	1.277687e-09	2.001344e+01	8.905072e+01
2.500000e-06	2.925429e-06	1.287664e-09	2.028825e+01	8.997335e+01
2.510000e-06	2.964894e-06	1.300761e-09	2.056194e+01	9.087420e+01
2.520000e-06	3.004195e-06	1.315435e-09	2.083450e+01	9.175429e+01
2.530000e-06	3.043403e-06	1.332123e-09	2.110641e+01	9.261459e+01
2.540000e-06	3.082411e-06	1.349318e-09	2.137694e+01	9.345597e+01
2.550000e-06	3.121173e-06	1.362034e-09	2.164576e+01	9.427925e+01
2.560000e-06	3.159676e-06	1.369960e-09	2.191278e+01	9.508518e+01
2.570000e-06	3.197895e-06	1.375764e-09	2.217784e+01	9.587440e+01
2.580000e-06	3.235878e-06	1.381965e-09	2.244126e+01	9.664751e+01
2.590000e-06	3.273682e-06	1.389799e-09	2.270343e+01	9.740501e+01
2.600000e-06	3.311340e-06	1.402430e-09	2.296460e+01	9.814736e+01
2.610000e-06	3.348775e-06	1.418851e-09	2.322421e+01	9.887490e+01
2.620000e-06	3.385950e-06	1.436796e-09	2.348202e+01	9.958793e+01
2.630000e-06	3.422928e-06	1.450846e-09	2.373848e+01	1.002867e+02
2.640000e-06	3.459674e-06	1.458369e-09	2.399331e+01	1.009714e+02
2.650000e-06	3.496057e-06	1.463803e-09	2.424564e+01	1.016421e+02
2.660000e-06	3.532189e-06	1.468587e-09	2.449621e+01	1.022989e+02
2.670000e-06	3.568195e-06	1.474492e-09	2.474592e+01	1.029418e+02
2.680000e-06	3.604050e-06	1.482187e-09	2.499458e+01	1.035708e+02
2.690000e-06	3.639791e-06	1.493832e-09	2.524245e+01	1.041859e+02
2.700000e-06	3.675442e-06	1.508338e-09	2.548970e+01	1.047871e+02
2.710000e-06	3.710976e-06	1.520106e-09	2.573613e+01	1.053742e+02
2.720000e-06	3.746230e-06	1.532292e-09	2.598062e+01	1.059472e+02
2.730000e-06	3.781192e-06	1.539727e-09	2.622308e+01	1.065060e+02
2.740000e-06	3.815857e-06	1.541457e-09	2.646349e+01	1.070505e+02
2.750000e-06	3.849957e-06	1.538854e-09	2.669998e+01	1.075806e+02
2.760000e-06	3.883507e-06	1.538058e-09	2.693265e+01	1.080964e+02
2.770000e-06	3.916640e-06	1.543414e-09	2.716243e+01	1.085977e+02
2.780000e-06	3.949317e-06	1.554908e-09	2.738905e+01	1.090847e+02
2.790000e-06	3.981579e-06	1.571614e-09	2.761279e+01	1.095572e+02
2.800000e-06	4.013578e-06	1.587469e-09	2.783471e+01	1.100154e+02
2.810000e-06	4.045437e-06	1.596380e-09	2.805566e+01	1.104593e+02
2.820000e-06	4.077122e-06	1.595767e-09	2.827540e+01	1.108892e+02
2.830000e-06	4.108605e-06	1.593647e-09	2.849374e+01	1.113052e+02
2.840000e-06	4.139880e-06	1.593683e-09	2.871064e+01	1.117075e+02
2.850000e-06	4.170958e-06	1.597066e-09	2.892617e+01	1.120964e+02
2.860000e-06	4.201763e-06	1.607168e-09	2.913980e+01	1.124721e+02
2.870000e-06	4.232181e-06	1.621585e-09	2.935075e+01	1.128351e+02
2.880000e-06	4.262284e-06	1.634410e-09	2.955952e+01	1.131858e+02
2.890000e-06	4.292102e-06	1.641769e-09	2.976631e+01	1.135244e+02
2.900000e-06	4.321628e-06	1.646616e-09	2.997108e+01	1.138516e+02
