# Temperatura_=_-5.62
# Concentracion g/m^3_=_1620.0
# C_Vs_to_Am_M_A/Vsm_=_65563218390.804596
# pendiente_HvsI_1/m_=_3716.3
# ordenada_HvsI_A/m_=_1297.0
# frecuencia_Hz_=_135113.02604011813

Tiempo_(s)	Campo_(V.s)	Magnetizacion_(V.s)	Campo_(kA/m)	Magnetizacion_(A/m)
0.000000e+00	-5.524148e-06	-1.365235e-09	-3.835786e+01	-8.865865e+01
1.000000e-08	-5.524477e-06	-1.362422e-09	-3.836014e+01	-8.862767e+01
2.000000e-08	-5.524538e-06	-1.360023e-09	-3.836057e+01	-8.859854e+01
3.000000e-08	-5.524274e-06	-1.360301e-09	-3.835873e+01	-8.857106e+01
4.000000e-08	-5.523584e-06	-1.360977e-09	-3.835394e+01	-8.854503e+01
5.000000e-08	-5.522338e-06	-1.359990e-09	-3.834529e+01	-8.852020e+01
6.000000e-08	-5.520556e-06	-1.355638e-09	-3.833292e+01	-8.849629e+01
7.000000e-08	-5.518144e-06	-1.355047e-09	-3.831617e+01	-8.847301e+01
8.000000e-08	-5.515039e-06	-1.358714e-09	-3.829461e+01	-8.845003e+01
9.000000e-08	-5.511504e-06	-1.345183e-09	-3.827006e+01	-8.842701e+01
1.000000e-07	-5.507650e-06	-1.354490e-09	-3.824330e+01	-8.840360e+01
1.100000e-07	-5.503408e-06	-1.415205e-09	-3.821385e+01	-8.837942e+01
1.200000e-07	-5.498787e-06	-1.387833e-09	-3.818176e+01	-8.835411e+01
1.300000e-07	-5.493905e-06	-1.289194e-09	-3.814786e+01	-8.832729e+01
1.400000e-07	-5.488751e-06	-1.263822e-09	-3.811208e+01	-8.829858e+01
1.500000e-07	-5.483203e-06	-1.371825e-09	-3.807355e+01	-8.826761e+01
1.600000e-07	-5.477285e-06	-1.419408e-09	-3.803246e+01	-8.823401e+01
1.700000e-07	-5.471043e-06	-1.327276e-09	-3.798912e+01	-8.819744e+01
1.800000e-07	-5.464421e-06	-1.289045e-09	-3.794313e+01	-8.815756e+01
1.900000e-07	-5.457339e-06	-1.358119e-09	-3.789396e+01	-8.811405e+01
2.000000e-07	-5.449890e-06	-1.405222e-09	-3.784223e+01	-8.806664e+01
2.100000e-07	-5.442280e-06	-1.338477e-09	-3.778940e+01	-8.801504e+01
2.200000e-07	-5.434443e-06	-1.307656e-09	-3.773498e+01	-8.795902e+01
2.300000e-07	-5.426136e-06	-1.347087e-09	-3.767730e+01	-8.789838e+01
2.400000e-07	-5.417438e-06	-1.400998e-09	-3.761690e+01	-8.783295e+01
2.500000e-07	-5.408300e-06	-1.359239e-09	-3.755345e+01	-8.776258e+01
2.600000e-07	-5.398478e-06	-1.322380e-09	-3.748525e+01	-8.768717e+01
2.700000e-07	-5.387963e-06	-1.336584e-09	-3.741224e+01	-8.760665e+01
2.800000e-07	-5.376951e-06	-1.368277e-09	-3.733577e+01	-8.752100e+01
2.900000e-07	-5.365550e-06	-1.349153e-09	-3.725661e+01	-8.743020e+01
3.000000e-07	-5.353735e-06	-1.341285e-09	-3.717457e+01	-8.733431e+01
3.100000e-07	-5.341527e-06	-1.361923e-09	-3.708980e+01	-8.723339e+01
3.200000e-07	-5.328922e-06	-1.367281e-09	-3.700227e+01	-8.712755e+01
3.300000e-07	-5.315898e-06	-1.337954e-09	-3.691184e+01	-8.701692e+01
3.400000e-07	-5.302491e-06	-1.311423e-09	-3.681875e+01	-8.690167e+01
3.500000e-07	-5.288804e-06	-1.338070e-09	-3.672371e+01	-8.678198e+01
3.600000e-07	-5.274723e-06	-1.354237e-09	-3.662593e+01	-8.665808e+01
3.700000e-07	-5.260000e-06	-1.332868e-09	-3.652370e+01	-8.653019e+01
3.800000e-07	-5.244825e-06	-1.328977e-09	-3.641833e+01	-8.639856e+01
3.900000e-07	-5.229233e-06	-1.367218e-09	-3.631007e+01	-8.626346e+01
4.000000e-07	-5.213040e-06	-1.333171e-09	-3.619762e+01	-8.612517e+01
4.100000e-07	-5.196439e-06	-1.282343e-09	-3.608235e+01	-8.598395e+01
4.200000e-07	-5.179529e-06	-1.322951e-09	-3.596493e+01	-8.584010e+01
4.300000e-07	-5.162340e-06	-1.361365e-09	-3.584559e+01	-8.569390e+01
4.400000e-07	-5.144772e-06	-1.292171e-09	-3.572359e+01	-8.554562e+01
4.500000e-07	-5.126832e-06	-1.296670e-09	-3.559903e+01	-8.539554e+01
4.600000e-07	-5.108557e-06	-1.368311e-09	-3.547213e+01	-8.524392e+01
4.700000e-07	-5.089780e-06	-1.330252e-09	-3.534175e+01	-8.509100e+01
4.800000e-07	-5.070538e-06	-1.260866e-09	-3.520814e+01	-8.493701e+01
4.900000e-07	-5.051113e-06	-1.327639e-09	-3.507326e+01	-8.478217e+01
5.000000e-07	-5.031584e-06	-1.340208e-09	-3.493766e+01	-8.462666e+01
5.100000e-07	-5.011794e-06	-1.261889e-09	-3.480024e+01	-8.447065e+01
5.200000e-07	-4.991690e-06	-1.283276e-09	-3.466065e+01	-8.431429e+01
5.300000e-07	-4.971223e-06	-1.338481e-09	-3.451853e+01	-8.415767e+01
5.400000e-07	-4.950347e-06	-1.271270e-09	-3.437358e+01	-8.400090e+01
5.500000e-07	-4.929113e-06	-1.259533e-09	-3.422613e+01	-8.384404e+01
5.600000e-07	-4.907571e-06	-1.329645e-09	-3.407655e+01	-8.368711e+01
5.700000e-07	-4.885675e-06	-1.296108e-09	-3.392451e+01	-8.353013e+01
5.800000e-07	-4.863369e-06	-1.240485e-09	-3.376963e+01	-8.337307e+01
5.900000e-07	-4.840786e-06	-1.296164e-09	-3.361281e+01	-8.321589e+01
6.000000e-07	-4.817877e-06	-1.303870e-09	-3.345374e+01	-8.305852e+01
6.100000e-07	-4.794656e-06	-1.240009e-09	-3.329251e+01	-8.290087e+01
6.200000e-07	-4.771267e-06	-1.257504e-09	-3.313010e+01	-8.274283e+01
6.300000e-07	-4.747638e-06	-1.289510e-09	-3.296603e+01	-8.258426e+01
6.400000e-07	-4.723711e-06	-1.251441e-09	-3.279989e+01	-8.242502e+01
6.500000e-07	-4.699451e-06	-1.245577e-09	-3.263143e+01	-8.226496e+01
6.600000e-07	-4.674811e-06	-1.278788e-09	-3.246034e+01	-8.210389e+01
6.700000e-07	-4.649587e-06	-1.256464e-09	-3.228519e+01	-8.194166e+01
6.800000e-07	-4.623741e-06	-1.236134e-09	-3.210573e+01	-8.177807e+01
6.900000e-07	-4.597431e-06	-1.253111e-09	-3.192304e+01	-8.161295e+01
7.000000e-07	-4.570674e-06	-1.248890e-09	-3.173725e+01	-8.144611e+01
7.100000e-07	-4.543521e-06	-1.226924e-09	-3.154871e+01	-8.127738e+01
7.200000e-07	-4.516084e-06	-1.238454e-09	-3.135820e+01	-8.110660e+01
7.300000e-07	-4.488471e-06	-1.242278e-09	-3.116646e+01	-8.093359e+01
7.400000e-07	-4.460726e-06	-1.229915e-09	-3.097381e+01	-8.075822e+01
7.500000e-07	-4.432851e-06	-1.226256e-09	-3.078025e+01	-8.058036e+01
7.600000e-07	-4.404725e-06	-1.229545e-09	-3.058496e+01	-8.039988e+01
7.700000e-07	-4.376209e-06	-1.218935e-09	-3.038695e+01	-8.021670e+01
7.800000e-07	-4.347293e-06	-1.216492e-09	-3.018616e+01	-8.003073e+01
7.900000e-07	-4.318014e-06	-1.217849e-09	-2.998286e+01	-7.984191e+01
8.000000e-07	-4.288420e-06	-1.214263e-09	-2.977737e+01	-7.965021e+01
8.100000e-07	-4.258562e-06	-1.210985e-09	-2.957005e+01	-7.945562e+01
8.200000e-07	-4.228461e-06	-1.212182e-09	-2.936104e+01	-7.925814e+01
8.300000e-07	-4.198020e-06	-1.200892e-09	-2.914967e+01	-7.905779e+01
8.400000e-07	-4.167275e-06	-1.192604e-09	-2.893618e+01	-7.885463e+01
8.500000e-07	-4.136329e-06	-1.196154e-09	-2.872130e+01	-7.864872e+01
8.600000e-07	-4.105099e-06	-1.198225e-09	-2.850445e+01	-7.844015e+01
8.700000e-07	-4.073626e-06	-1.192355e-09	-2.828592e+01	-7.822901e+01
8.800000e-07	-4.042016e-06	-1.192079e-09	-2.806642e+01	-7.801542e+01
8.900000e-07	-4.010227e-06	-1.190379e-09	-2.784569e+01	-7.779950e+01
9.000000e-07	-3.978270e-06	-1.180103e-09	-2.762379e+01	-7.758140e+01
9.100000e-07	-3.946118e-06	-1.175388e-09	-2.740054e+01	-7.736124e+01
9.200000e-07	-3.913606e-06	-1.174395e-09	-2.717478e+01	-7.713918e+01
9.300000e-07	-3.880614e-06	-1.166513e-09	-2.694570e+01	-7.691536e+01
9.400000e-07	-3.847070e-06	-1.162047e-09	-2.671278e+01	-7.668991e+01
9.500000e-07	-3.812962e-06	-1.167143e-09	-2.647595e+01	-7.646299e+01
9.600000e-07	-3.778469e-06	-1.162216e-09	-2.623644e+01	-7.623471e+01
9.700000e-07	-3.743636e-06	-1.150925e-09	-2.599457e+01	-7.600520e+01
9.800000e-07	-3.708467e-06	-1.146356e-09	-2.575037e+01	-7.577454e+01
9.900000e-07	-3.673060e-06	-1.144105e-09	-2.550451e+01	-7.554284e+01
1.000000e-06	-3.637512e-06	-1.135372e-09	-2.525768e+01	-7.531015e+01
1.010000e-06	-3.601873e-06	-1.131544e-09	-2.501022e+01	-7.507652e+01
1.020000e-06	-3.566097e-06	-1.129064e-09	-2.476180e+01	-7.484196e+01
1.030000e-06	-3.530153e-06	-1.121637e-09	-2.451221e+01	-7.460648e+01
1.040000e-06	-3.494020e-06	-1.113646e-09	-2.426132e+01	-7.437002e+01
1.050000e-06	-3.457660e-06	-1.114242e-09	-2.400885e+01	-7.413255e+01
1.060000e-06	-3.420967e-06	-1.112266e-09	-2.375406e+01	-7.389395e+01
1.070000e-06	-3.383903e-06	-1.106375e-09	-2.349671e+01	-7.365412e+01
1.080000e-06	-3.346553e-06	-1.100802e-09	-2.323736e+01	-7.341290e+01
1.090000e-06	-3.309033e-06	-1.094963e-09	-2.297683e+01	-7.317012e+01
1.100000e-06	-3.271351e-06	-1.083110e-09	-2.271518e+01	-7.292557e+01
1.110000e-06	-3.233421e-06	-1.074295e-09	-2.245180e+01	-7.267902e+01
1.120000e-06	-3.195268e-06	-1.068698e-09	-2.218688e+01	-7.243022e+01
1.130000e-06	-3.157024e-06	-1.062533e-09	-2.192133e+01	-7.217889e+01
1.140000e-06	-3.118610e-06	-1.057008e-09	-2.165460e+01	-7.192473e+01
1.150000e-06	-3.079889e-06	-1.056557e-09	-2.138573e+01	-7.166742e+01
1.160000e-06	-3.040883e-06	-1.056376e-09	-2.111488e+01	-7.140663e+01
1.170000e-06	-3.001661e-06	-1.051524e-09	-2.084254e+01	-7.114202e+01
1.180000e-06	-2.962264e-06	-1.044327e-09	-2.056898e+01	-7.087323e+01
1.190000e-06	-2.922745e-06	-1.037321e-09	-2.029457e+01	-7.059992e+01
1.200000e-06	-2.883135e-06	-1.030187e-09	-2.001954e+01	-7.032172e+01
1.210000e-06	-2.843406e-06	-1.023618e-09	-1.974367e+01	-7.003828e+01
1.220000e-06	-2.803535e-06	-1.019076e-09	-1.946682e+01	-6.974924e+01
1.230000e-06	-2.763504e-06	-1.015468e-09	-1.918886e+01	-6.945426e+01
1.240000e-06	-2.723280e-06	-1.011294e-09	-1.890956e+01	-6.915300e+01
1.250000e-06	-2.682843e-06	-1.004563e-09	-1.862878e+01	-6.884516e+01
1.260000e-06	-2.642097e-06	-9.974273e-10	-1.834585e+01	-6.853044e+01
1.270000e-06	-2.601075e-06	-9.901961e-10	-1.806101e+01	-6.820855e+01
1.280000e-06	-2.559838e-06	-9.844684e-10	-1.777467e+01	-6.787923e+01
1.290000e-06	-2.518353e-06	-9.803698e-10	-1.748661e+01	-6.754226e+01
1.300000e-06	-2.476540e-06	-9.781823e-10	-1.719628e+01	-6.719743e+01
1.310000e-06	-2.434316e-06	-9.734399e-10	-1.690309e+01	-6.684455e+01
1.320000e-06	-2.391841e-06	-9.657507e-10	-1.660816e+01	-6.648347e+01
1.330000e-06	-2.349151e-06	-9.561222e-10	-1.631173e+01	-6.611406e+01
1.340000e-06	-2.306208e-06	-9.457515e-10	-1.601355e+01	-6.573622e+01
1.350000e-06	-2.263027e-06	-9.376288e-10	-1.571371e+01	-6.534988e+01
1.360000e-06	-2.219688e-06	-9.346458e-10	-1.541278e+01	-6.495498e+01
1.370000e-06	-2.176258e-06	-9.341005e-10	-1.511122e+01	-6.455148e+01
1.380000e-06	-2.132718e-06	-9.337421e-10	-1.480889e+01	-6.413938e+01
1.390000e-06	-2.089092e-06	-9.296854e-10	-1.450596e+01	-6.371867e+01
1.400000e-06	-2.045364e-06	-9.209186e-10	-1.420233e+01	-6.328937e+01
1.410000e-06	-2.001564e-06	-9.082446e-10	-1.389820e+01	-6.285149e+01
1.420000e-06	-1.957711e-06	-8.957992e-10	-1.359370e+01	-6.240508e+01
1.430000e-06	-1.913788e-06	-8.847620e-10	-1.328871e+01	-6.195014e+01
1.440000e-06	-1.869857e-06	-8.760072e-10	-1.298367e+01	-6.148669e+01
1.450000e-06	-1.825796e-06	-8.702121e-10	-1.267772e+01	-6.101474e+01
1.460000e-06	-1.781535e-06	-8.663181e-10	-1.237039e+01	-6.053428e+01
1.470000e-06	-1.737118e-06	-8.604462e-10	-1.206198e+01	-6.004527e+01
1.480000e-06	-1.692553e-06	-8.506711e-10	-1.175253e+01	-5.954765e+01
1.490000e-06	-1.647850e-06	-8.401401e-10	-1.144212e+01	-5.904132e+01
1.500000e-06	-1.602998e-06	-8.287760e-10	-1.113069e+01	-5.852616e+01
1.510000e-06	-1.558009e-06	-8.150035e-10	-1.081830e+01	-5.800196e+01
1.520000e-06	-1.512832e-06	-8.031004e-10	-1.050461e+01	-5.746852e+01
1.530000e-06	-1.467559e-06	-7.945793e-10	-1.019024e+01	-5.692555e+01
1.540000e-06	-1.422227e-06	-7.875482e-10	-9.875473e+00	-5.637269e+01
1.550000e-06	-1.376695e-06	-7.807511e-10	-9.559317e+00	-5.580957e+01
1.560000e-06	-1.331044e-06	-7.726975e-10	-9.242328e+00	-5.523569e+01
1.570000e-06	-1.285417e-06	-7.611966e-10	-8.925510e+00	-5.465054e+01
1.580000e-06	-1.239735e-06	-7.458381e-10	-8.608311e+00	-5.405351e+01
1.590000e-06	-1.193999e-06	-7.314144e-10	-8.290734e+00	-5.344392e+01
1.600000e-06	-1.148158e-06	-7.185907e-10	-7.972432e+00	-5.282103e+01
1.610000e-06	-1.102177e-06	-7.068117e-10	-7.653154e+00	-5.218404e+01
1.620000e-06	-1.056176e-06	-6.954334e-10	-7.333737e+00	-5.153205e+01
1.630000e-06	-1.010074e-06	-6.853529e-10	-7.013623e+00	-5.086412e+01
1.640000e-06	-9.638154e-07	-6.772802e-10	-6.692416e+00	-5.017924e+01
1.650000e-06	-9.175059e-07	-6.695407e-10	-6.370858e+00	-4.947634e+01
1.660000e-06	-8.712078e-07	-6.601151e-10	-6.049379e+00	-4.875431e+01
1.670000e-06	-8.248472e-07	-6.488911e-10	-5.727466e+00	-4.801196e+01
1.680000e-06	-7.784171e-07	-6.350022e-10	-5.405071e+00	-4.724808e+01
1.690000e-06	-7.320278e-07	-6.207656e-10	-5.082959e+00	-4.646143e+01
1.700000e-06	-6.855679e-07	-6.077314e-10	-4.760357e+00	-4.565074e+01
1.710000e-06	-6.390044e-07	-5.928643e-10	-4.437036e+00	-4.481471e+01
1.720000e-06	-5.924863e-07	-5.752335e-10	-4.114029e+00	-4.395205e+01
1.730000e-06	-5.459340e-07	-5.588428e-10	-3.790785e+00	-4.306146e+01
1.740000e-06	-4.992345e-07	-5.450943e-10	-3.466519e+00	-4.214166e+01
1.750000e-06	-4.524458e-07	-5.324048e-10	-3.141634e+00	-4.119138e+01
1.760000e-06	-4.056617e-07	-5.180921e-10	-2.816781e+00	-4.020940e+01
1.770000e-06	-3.588973e-07	-5.015417e-10	-2.492064e+00	-3.919455e+01
1.780000e-06	-3.120861e-07	-4.832272e-10	-2.167022e+00	-3.814570e+01
1.790000e-06	-2.652276e-07	-4.662577e-10	-1.841653e+00	-3.706179e+01
1.800000e-06	-2.183825e-07	-4.527699e-10	-1.516376e+00	-3.594187e+01
1.810000e-06	-1.715077e-07	-4.385760e-10	-1.190893e+00	-3.478504e+01
1.820000e-06	-1.246563e-07	-4.218638e-10	-8.655719e-01	-3.359053e+01
1.830000e-06	-7.781050e-08	-4.038718e-10	-5.402904e-01	-3.235768e+01
1.840000e-06	-3.093150e-08	-3.843362e-10	-2.147781e-01	-3.108593e+01
1.850000e-06	1.597252e-08	-3.644918e-10	1.109079e-01	-2.977489e+01
1.860000e-06	6.291672e-08	-3.469065e-10	4.368729e-01	-2.842429e+01
1.870000e-06	1.097455e-07	-3.305222e-10	7.620363e-01	-2.703399e+01
1.880000e-06	1.565344e-07	-3.137882e-10	1.086923e+00	-2.560404e+01
1.890000e-06	2.034001e-07	-2.946565e-10	1.412343e+00	-2.413462e+01
1.900000e-06	2.502804e-07	-2.714839e-10	1.737865e+00	-2.262610e+01
1.910000e-06	2.971330e-07	-2.457523e-10	2.063193e+00	-2.107900e+01
1.920000e-06	3.439143e-07	-2.202859e-10	2.388027e+00	-1.949402e+01
1.930000e-06	3.907047e-07	-1.970057e-10	2.712924e+00	-1.787204e+01
1.940000e-06	4.375439e-07	-1.751478e-10	3.038160e+00	-1.621408e+01
1.950000e-06	4.842924e-07	-1.517322e-10	3.362767e+00	-1.452138e+01
1.960000e-06	5.309802e-07	-1.290507e-10	3.686951e+00	-1.279530e+01
1.970000e-06	5.776363e-07	-1.042980e-10	4.010916e+00	-1.103739e+01
1.980000e-06	6.241893e-07	-8.047557e-11	4.334164e+00	-9.249365e+00
1.990000e-06	6.706964e-07	-5.719661e-11	4.657095e+00	-7.433071e+00
2.000000e-06	7.171820e-07	-3.181670e-11	4.979875e+00	-5.590514e+00
2.010000e-06	7.636083e-07	-5.428429e-12	5.302244e+00	-3.723831e+00
2.020000e-06	8.099707e-07	2.293529e-11	5.624169e+00	-1.835287e+00
2.030000e-06	8.563012e-07	5.365925e-11	5.945873e+00	7.273886e-02
2.040000e-06	9.025834e-07	8.474163e-11	6.267241e+00	1.997762e+00
2.050000e-06	9.487600e-07	1.109619e-10	6.587876e+00	3.937206e+00
2.060000e-06	9.948757e-07	1.361786e-10	6.908088e+00	5.888418e+00
2.070000e-06	1.040943e-06	1.616733e-10	7.227966e+00	7.848680e+00
2.080000e-06	1.086887e-06	1.875064e-10	7.546984e+00	9.815224e+00
2.090000e-06	1.132748e-06	2.130263e-10	7.865429e+00	1.178525e+01
2.100000e-06	1.178521e-06	2.408435e-10	8.183262e+00	1.375592e+01
2.110000e-06	1.224211e-06	2.728644e-10	8.500516e+00	1.572443e+01
2.120000e-06	1.269813e-06	3.043180e-10	8.817160e+00	1.768794e+01
2.130000e-06	1.315297e-06	3.343591e-10	9.132990e+00	1.964368e+01
2.140000e-06	1.360791e-06	3.615768e-10	9.448885e+00	2.158887e+01
2.150000e-06	1.406297e-06	3.852356e-10	9.764861e+00	2.352084e+01
2.160000e-06	1.451685e-06	4.074792e-10	1.008002e+01	2.543695e+01
2.170000e-06	1.496859e-06	4.280631e-10	1.039370e+01	2.733465e+01
2.180000e-06	1.541901e-06	4.506244e-10	1.070645e+01	2.921150e+01
2.190000e-06	1.586858e-06	4.758340e-10	1.101862e+01	3.106516e+01
2.200000e-06	1.631680e-06	5.041470e-10	1.132985e+01	3.289340e+01
2.210000e-06	1.676395e-06	5.340903e-10	1.164033e+01	3.469412e+01
2.220000e-06	1.720978e-06	5.643365e-10	1.194990e+01	3.646538e+01
2.230000e-06	1.765423e-06	5.916094e-10	1.225851e+01	3.820536e+01
2.240000e-06	1.809750e-06	6.125052e-10	1.256631e+01	3.991240e+01
2.250000e-06	1.853921e-06	6.287464e-10	1.287301e+01	4.158501e+01
2.260000e-06	1.897934e-06	6.444222e-10	1.317862e+01	4.322186e+01
2.270000e-06	1.941817e-06	6.638939e-10	1.348333e+01	4.482177e+01
2.280000e-06	1.985598e-06	6.861553e-10	1.378734e+01	4.638374e+01
2.290000e-06	2.029280e-06	7.093939e-10	1.409065e+01	4.790695e+01
2.300000e-06	2.072889e-06	7.340695e-10	1.439345e+01	4.939074e+01
2.310000e-06	2.116502e-06	7.580137e-10	1.469629e+01	5.083460e+01
2.320000e-06	2.160070e-06	7.771131e-10	1.499881e+01	5.223822e+01
2.330000e-06	2.203538e-06	7.918088e-10	1.530064e+01	5.360141e+01
2.340000e-06	2.246914e-06	8.047552e-10	1.560183e+01	5.492415e+01
2.350000e-06	2.290118e-06	8.188269e-10	1.590182e+01	5.620659e+01
2.360000e-06	2.333135e-06	8.363392e-10	1.620052e+01	5.744899e+01
2.370000e-06	2.375963e-06	8.569801e-10	1.649790e+01	5.865176e+01
2.380000e-06	2.418555e-06	8.766391e-10	1.679365e+01	5.981542e+01
2.390000e-06	2.460787e-06	8.941840e-10	1.708689e+01	6.094062e+01
2.400000e-06	2.502659e-06	9.103962e-10	1.737764e+01	6.202811e+01
2.410000e-06	2.544304e-06	9.248480e-10	1.766680e+01	6.307873e+01
2.420000e-06	2.585606e-06	9.366185e-10	1.795359e+01	6.409339e+01
2.430000e-06	2.626651e-06	9.481847e-10	1.823860e+01	6.507311e+01
2.440000e-06	2.667553e-06	9.629440e-10	1.852261e+01	6.601894e+01
2.450000e-06	2.708181e-06	9.799514e-10	1.880472e+01	6.693198e+01
2.460000e-06	2.748468e-06	9.953538e-10	1.908446e+01	6.781338e+01
2.470000e-06	2.788508e-06	1.008277e-09	1.936247e+01	6.866432e+01
2.480000e-06	2.828436e-06	1.018917e-09	1.963973e+01	6.948597e+01
2.490000e-06	2.868219e-06	1.028504e-09	1.991597e+01	7.027954e+01
2.500000e-06	2.907836e-06	1.037716e-09	2.019105e+01	7.104622e+01
2.510000e-06	2.947295e-06	1.048122e-09	2.046504e+01	7.178717e+01
2.520000e-06	2.986608e-06	1.060095e-09	2.073802e+01	7.250357e+01
2.530000e-06	3.025752e-06	1.071970e-09	2.100982e+01	7.319652e+01
2.540000e-06	3.064687e-06	1.085030e-09	2.128017e+01	7.386713e+01
2.550000e-06	3.103418e-06	1.097599e-09	2.154911e+01	7.451642e+01
2.560000e-06	3.141976e-06	1.107161e-09	2.181685e+01	7.514540e+01
2.570000e-06	3.180344e-06	1.112576e-09	2.208326e+01	7.575501e+01
2.580000e-06	3.218489e-06	1.115855e-09	2.234813e+01	7.634611e+01
2.590000e-06	3.256416e-06	1.119810e-09	2.261148e+01	7.691953e+01
2.600000e-06	3.294125e-06	1.125746e-09	2.287331e+01	7.747603e+01
2.610000e-06	3.331564e-06	1.136325e-09	2.313328e+01	7.801628e+01
2.620000e-06	3.368749e-06	1.150280e-09	2.339148e+01	7.854092e+01
2.630000e-06	3.405791e-06	1.161794e-09	2.364868e+01	7.905050e+01
2.640000e-06	3.442605e-06	1.169535e-09	2.390431e+01	7.954551e+01
2.650000e-06	3.479054e-06	1.175412e-09	2.415740e+01	8.002638e+01
2.660000e-06	3.515273e-06	1.178521e-09	2.440889e+01	8.049349e+01
2.670000e-06	3.551334e-06	1.179335e-09	2.465929e+01	8.094713e+01
2.680000e-06	3.587184e-06	1.181835e-09	2.490822e+01	8.138759e+01
2.690000e-06	3.622860e-06	1.189117e-09	2.515594e+01	8.181506e+01
2.700000e-06	3.658396e-06	1.199996e-09	2.540269e+01	8.222971e+01
2.710000e-06	3.693840e-06	1.209094e-09	2.564881e+01	8.263168e+01
2.720000e-06	3.729076e-06	1.213651e-09	2.589347e+01	8.302106e+01
2.730000e-06	3.763949e-06	1.214612e-09	2.613562e+01	8.339791e+01
2.740000e-06	3.798529e-06	1.213930e-09	2.637573e+01	8.376229e+01
2.750000e-06	3.832778e-06	1.215554e-09	2.661354e+01	8.411423e+01
2.760000e-06	3.866598e-06	1.220031e-09	2.684838e+01	8.445373e+01
2.770000e-06	3.899936e-06	1.226301e-09	2.707987e+01	8.478082e+01
2.780000e-06	3.932823e-06	1.234002e-09	2.730822e+01	8.509551e+01
2.790000e-06	3.965350e-06	1.241699e-09	2.753408e+01	8.539782e+01
2.800000e-06	3.997478e-06	1.247715e-09	2.775716e+01	8.568777e+01
2.810000e-06	4.029275e-06	1.250475e-09	2.797795e+01	8.596540e+01
2.820000e-06	4.060876e-06	1.252005e-09	2.819738e+01	8.623079e+01
2.830000e-06	4.092348e-06	1.253457e-09	2.841591e+01	8.648401e+01
2.840000e-06	4.123670e-06	1.256970e-09	2.863340e+01	8.672517e+01
2.850000e-06	4.154814e-06	1.262132e-09	2.884965e+01	8.695440e+01
2.860000e-06	4.185672e-06	1.266069e-09	2.906392e+01	8.717187e+01
2.870000e-06	4.216169e-06	1.269278e-09	2.927568e+01	8.737778e+01
2.880000e-06	4.246361e-06	1.271274e-09	2.948532e+01	8.757236e+01
2.890000e-06	4.276211e-06	1.271796e-09	2.969260e+01	8.775586e+01
2.900000e-06	4.305727e-06	1.272096e-09	2.989754e+01	8.792856e+01
