# Temperatura_=_-6.94
# Concentracion g/m^3_=_1620.0
# C_Vs_to_Am_M_A/Vsm_=_65563218390.804596
# pendiente_HvsI_1/m_=_3716.3
# ordenada_HvsI_A/m_=_1297.0
# frecuencia_Hz_=_135111.0624125395

Tiempo_(s)	Campo_(V.s)	Magnetizacion_(V.s)	Campo_(kA/m)	Magnetizacion_(A/m)
0.000000e+00	-5.525677e-06	-1.482051e-09	-3.836928e+01	-9.642987e+01
1.000000e-08	-5.525752e-06	-1.480870e-09	-3.836981e+01	-9.636178e+01
2.000000e-08	-5.525613e-06	-1.481811e-09	-3.836884e+01	-9.629575e+01
3.000000e-08	-5.525016e-06	-1.482316e-09	-3.836469e+01	-9.623167e+01
4.000000e-08	-5.523818e-06	-1.480656e-09	-3.835637e+01	-9.616941e+01
5.000000e-08	-5.522027e-06	-1.472901e-09	-3.834393e+01	-9.610879e+01
6.000000e-08	-5.519737e-06	-1.462582e-09	-3.832803e+01	-9.604958e+01
7.000000e-08	-5.516887e-06	-1.473125e-09	-3.830825e+01	-9.599155e+01
8.000000e-08	-5.513476e-06	-1.493354e-09	-3.828456e+01	-9.593442e+01
9.000000e-08	-5.509642e-06	-1.505703e-09	-3.825794e+01	-9.587788e+01
1.000000e-07	-5.505413e-06	-1.521960e-09	-3.822857e+01	-9.582160e+01
1.100000e-07	-5.500864e-06	-1.507772e-09	-3.819699e+01	-9.576526e+01
1.200000e-07	-5.496105e-06	-1.436446e-09	-3.816394e+01	-9.570848e+01
1.300000e-07	-5.491177e-06	-1.425496e-09	-3.812972e+01	-9.565091e+01
1.400000e-07	-5.485915e-06	-1.463905e-09	-3.809318e+01	-9.559216e+01
1.500000e-07	-5.480193e-06	-1.508246e-09	-3.805345e+01	-9.553187e+01
1.600000e-07	-5.474030e-06	-1.468602e-09	-3.801065e+01	-9.546967e+01
1.700000e-07	-5.467483e-06	-1.436666e-09	-3.796520e+01	-9.540518e+01
1.800000e-07	-5.460484e-06	-1.466899e-09	-3.791659e+01	-9.533806e+01
1.900000e-07	-5.453110e-06	-1.503326e-09	-3.786539e+01	-9.526796e+01
2.000000e-07	-5.445507e-06	-1.470547e-09	-3.781260e+01	-9.519457e+01
2.100000e-07	-5.437635e-06	-1.437213e-09	-3.775794e+01	-9.511758e+01
2.200000e-07	-5.429543e-06	-1.460660e-09	-3.770175e+01	-9.503673e+01
2.300000e-07	-5.421140e-06	-1.499196e-09	-3.764340e+01	-9.495176e+01
2.400000e-07	-5.412113e-06	-1.493059e-09	-3.758072e+01	-9.486246e+01
2.500000e-07	-5.402361e-06	-1.459784e-09	-3.751300e+01	-9.476865e+01
2.600000e-07	-5.391851e-06	-1.454949e-09	-3.744002e+01	-9.467018e+01
2.700000e-07	-5.380756e-06	-1.460996e-09	-3.736298e+01	-9.456693e+01
2.800000e-07	-5.369358e-06	-1.461149e-09	-3.728384e+01	-9.445882e+01
2.900000e-07	-5.357612e-06	-1.452009e-09	-3.720227e+01	-9.434582e+01
3.000000e-07	-5.345557e-06	-1.462279e-09	-3.711856e+01	-9.422791e+01
3.100000e-07	-5.333047e-06	-1.459423e-09	-3.703169e+01	-9.410513e+01
3.200000e-07	-5.320062e-06	-1.457469e-09	-3.694153e+01	-9.397753e+01
3.300000e-07	-5.306715e-06	-1.432626e-09	-3.684885e+01	-9.384522e+01
3.400000e-07	-5.292920e-06	-1.436717e-09	-3.675306e+01	-9.370831e+01
3.500000e-07	-5.278759e-06	-1.447703e-09	-3.665473e+01	-9.356697e+01
3.600000e-07	-5.264214e-06	-1.452274e-09	-3.655373e+01	-9.342137e+01
3.700000e-07	-5.249168e-06	-1.432333e-09	-3.644925e+01	-9.327173e+01
3.800000e-07	-5.233625e-06	-1.452546e-09	-3.634132e+01	-9.311826e+01
3.900000e-07	-5.217487e-06	-1.451299e-09	-3.622927e+01	-9.296121e+01
4.000000e-07	-5.200813e-06	-1.414131e-09	-3.611349e+01	-9.280085e+01
4.100000e-07	-5.183897e-06	-1.412352e-09	-3.599602e+01	-9.263742e+01
4.200000e-07	-5.166784e-06	-1.456026e-09	-3.587720e+01	-9.247122e+01
4.300000e-07	-5.149353e-06	-1.434945e-09	-3.575616e+01	-9.230251e+01
4.400000e-07	-5.131506e-06	-1.404348e-09	-3.563223e+01	-9.213158e+01
4.500000e-07	-5.113181e-06	-1.448899e-09	-3.550499e+01	-9.195868e+01
4.600000e-07	-5.094461e-06	-1.455895e-09	-3.537500e+01	-9.178410e+01
4.700000e-07	-5.075372e-06	-1.392876e-09	-3.524245e+01	-9.160807e+01
4.800000e-07	-5.055996e-06	-1.407554e-09	-3.510791e+01	-9.143084e+01
4.900000e-07	-5.036426e-06	-1.451896e-09	-3.497201e+01	-9.125262e+01
5.000000e-07	-5.016663e-06	-1.399270e-09	-3.483478e+01	-9.107363e+01
5.100000e-07	-4.996678e-06	-1.375697e-09	-3.469601e+01	-9.089403e+01
5.200000e-07	-4.976400e-06	-1.431248e-09	-3.455520e+01	-9.071398e+01
5.300000e-07	-4.955727e-06	-1.421281e-09	-3.441166e+01	-9.053360e+01
5.400000e-07	-4.934625e-06	-1.379285e-09	-3.426513e+01	-9.035300e+01
5.500000e-07	-4.913207e-06	-1.420890e-09	-3.411641e+01	-9.017224e+01
5.600000e-07	-4.891433e-06	-1.425077e-09	-3.396521e+01	-8.999138e+01
5.700000e-07	-4.869316e-06	-1.370815e-09	-3.381163e+01	-8.981041e+01
5.800000e-07	-4.846841e-06	-1.386438e-09	-3.365557e+01	-8.962932e+01
5.900000e-07	-4.823938e-06	-1.420323e-09	-3.349654e+01	-8.944808e+01
6.000000e-07	-4.800704e-06	-1.376108e-09	-3.333520e+01	-8.926660e+01
6.100000e-07	-4.777283e-06	-1.366473e-09	-3.317257e+01	-8.908478e+01
6.200000e-07	-4.753695e-06	-1.395698e-09	-3.300878e+01	-8.890250e+01
6.300000e-07	-4.729826e-06	-1.375106e-09	-3.284304e+01	-8.871962e+01
6.400000e-07	-4.705667e-06	-1.353955e-09	-3.267528e+01	-8.853597e+01
6.500000e-07	-4.681176e-06	-1.384263e-09	-3.250522e+01	-8.835136e+01
6.600000e-07	-4.656147e-06	-1.379380e-09	-3.233143e+01	-8.816559e+01
6.700000e-07	-4.630491e-06	-1.357064e-09	-3.215327e+01	-8.797844e+01
6.800000e-07	-4.604220e-06	-1.368300e-09	-3.197085e+01	-8.778971e+01
6.900000e-07	-4.577431e-06	-1.370401e-09	-3.178483e+01	-8.759915e+01
7.000000e-07	-4.550336e-06	-1.347168e-09	-3.159670e+01	-8.740653e+01
7.100000e-07	-4.522968e-06	-1.353037e-09	-3.140666e+01	-8.721162e+01
7.200000e-07	-4.495322e-06	-1.360704e-09	-3.121469e+01	-8.701420e+01
7.300000e-07	-4.467504e-06	-1.347931e-09	-3.102153e+01	-8.681403e+01
7.400000e-07	-4.439523e-06	-1.346041e-09	-3.082723e+01	-8.661090e+01
7.500000e-07	-4.411292e-06	-1.349413e-09	-3.063120e+01	-8.640461e+01
7.600000e-07	-4.382748e-06	-1.336272e-09	-3.043300e+01	-8.619496e+01
7.700000e-07	-4.353926e-06	-1.331271e-09	-3.023286e+01	-8.598179e+01
7.800000e-07	-4.324765e-06	-1.335266e-09	-3.003037e+01	-8.576494e+01
7.900000e-07	-4.295232e-06	-1.326000e-09	-2.982530e+01	-8.554427e+01
8.000000e-07	-4.265455e-06	-1.317879e-09	-2.961853e+01	-8.531967e+01
8.100000e-07	-4.235439e-06	-1.317714e-09	-2.941011e+01	-8.509105e+01
8.200000e-07	-4.205108e-06	-1.308667e-09	-2.919949e+01	-8.485834e+01
8.300000e-07	-4.174427e-06	-1.296465e-09	-2.898645e+01	-8.462149e+01
8.400000e-07	-4.143463e-06	-1.300205e-09	-2.877144e+01	-8.438049e+01
8.500000e-07	-4.112239e-06	-1.303003e-09	-2.855463e+01	-8.413534e+01
8.600000e-07	-4.080770e-06	-1.296733e-09	-2.833612e+01	-8.388607e+01
8.700000e-07	-4.049154e-06	-1.291037e-09	-2.811658e+01	-8.363273e+01
8.800000e-07	-4.017440e-06	-1.289169e-09	-2.789636e+01	-8.337538e+01
8.900000e-07	-3.985561e-06	-1.275005e-09	-2.767500e+01	-8.311411e+01
9.000000e-07	-3.953382e-06	-1.262918e-09	-2.745156e+01	-8.284903e+01
9.100000e-07	-3.920830e-06	-1.257563e-09	-2.722552e+01	-8.258026e+01
9.200000e-07	-3.887878e-06	-1.249824e-09	-2.699671e+01	-8.230793e+01
9.300000e-07	-3.854501e-06	-1.240795e-09	-2.676494e+01	-8.203219e+01
9.400000e-07	-3.820701e-06	-1.242650e-09	-2.653025e+01	-8.175319e+01
9.500000e-07	-3.786417e-06	-1.242110e-09	-2.629218e+01	-8.147109e+01
9.600000e-07	-3.751657e-06	-1.232489e-09	-2.605081e+01	-8.118604e+01
9.700000e-07	-3.716583e-06	-1.222009e-09	-2.580727e+01	-8.089820e+01
9.800000e-07	-3.681277e-06	-1.215972e-09	-2.556211e+01	-8.060773e+01
9.900000e-07	-3.645776e-06	-1.206656e-09	-2.531560e+01	-8.031478e+01
1.000000e-06	-3.610111e-06	-1.200389e-09	-2.506794e+01	-8.001948e+01
1.010000e-06	-3.574287e-06	-1.198007e-09	-2.481919e+01	-7.972195e+01
1.020000e-06	-3.538354e-06	-1.193139e-09	-2.456968e+01	-7.942232e+01
1.030000e-06	-3.502247e-06	-1.186937e-09	-2.431896e+01	-7.912067e+01
1.040000e-06	-3.465869e-06	-1.185909e-09	-2.406636e+01	-7.881708e+01
1.050000e-06	-3.429143e-06	-1.182656e-09	-2.381134e+01	-7.851161e+01
1.060000e-06	-3.392109e-06	-1.171852e-09	-2.355418e+01	-7.820429e+01
1.070000e-06	-3.354871e-06	-1.161121e-09	-2.329560e+01	-7.789513e+01
1.080000e-06	-3.317407e-06	-1.152441e-09	-2.303546e+01	-7.758412e+01
1.090000e-06	-3.279753e-06	-1.143191e-09	-2.277400e+01	-7.727122e+01
1.100000e-06	-3.241944e-06	-1.134753e-09	-2.251146e+01	-7.695637e+01
1.110000e-06	-3.203870e-06	-1.129516e-09	-2.224709e+01	-7.663947e+01
1.120000e-06	-3.165464e-06	-1.122208e-09	-2.198040e+01	-7.632043e+01
1.130000e-06	-3.126812e-06	-1.114629e-09	-2.171201e+01	-7.599909e+01
1.140000e-06	-3.087945e-06	-1.110700e-09	-2.144212e+01	-7.567531e+01
1.150000e-06	-3.048924e-06	-1.108796e-09	-2.117117e+01	-7.534891e+01
1.160000e-06	-3.009742e-06	-1.103720e-09	-2.089910e+01	-7.501967e+01
1.170000e-06	-2.970361e-06	-1.097746e-09	-2.062564e+01	-7.468739e+01
1.180000e-06	-2.930824e-06	-1.091228e-09	-2.035110e+01	-7.435183e+01
1.190000e-06	-2.891139e-06	-1.085653e-09	-2.007554e+01	-7.401275e+01
1.200000e-06	-2.851363e-06	-1.078816e-09	-1.979934e+01	-7.366988e+01
1.210000e-06	-2.811458e-06	-1.073248e-09	-1.952225e+01	-7.332296e+01
1.220000e-06	-2.771353e-06	-1.067039e-09	-1.924376e+01	-7.297171e+01
1.230000e-06	-2.731109e-06	-1.060431e-09	-1.896432e+01	-7.261586e+01
1.240000e-06	-2.690698e-06	-1.053340e-09	-1.868371e+01	-7.225512e+01
1.250000e-06	-2.650009e-06	-1.048270e-09	-1.840117e+01	-7.188921e+01
1.260000e-06	-2.609059e-06	-1.045063e-09	-1.811682e+01	-7.151785e+01
1.270000e-06	-2.567889e-06	-1.039535e-09	-1.783095e+01	-7.114078e+01
1.280000e-06	-2.526428e-06	-1.031614e-09	-1.754305e+01	-7.075773e+01
1.290000e-06	-2.484632e-06	-1.023788e-09	-1.725283e+01	-7.036843e+01
1.300000e-06	-2.442476e-06	-1.013548e-09	-1.696011e+01	-6.997265e+01
1.310000e-06	-2.400076e-06	-1.001899e-09	-1.666569e+01	-6.957013e+01
1.320000e-06	-2.357535e-06	-9.920544e-10	-1.637029e+01	-6.916066e+01
1.330000e-06	-2.314701e-06	-9.855666e-10	-1.607286e+01	-6.874403e+01
1.340000e-06	-2.271538e-06	-9.815256e-10	-1.577314e+01	-6.832001e+01
1.350000e-06	-2.228153e-06	-9.796778e-10	-1.547188e+01	-6.788843e+01
1.360000e-06	-2.184642e-06	-9.769580e-10	-1.516975e+01	-6.744911e+01
1.370000e-06	-2.141028e-06	-9.701764e-10	-1.486690e+01	-6.700185e+01
1.380000e-06	-2.097341e-06	-9.601264e-10	-1.456355e+01	-6.654651e+01
1.390000e-06	-2.053611e-06	-9.472569e-10	-1.425989e+01	-6.608292e+01
1.400000e-06	-2.009841e-06	-9.351172e-10	-1.395597e+01	-6.561092e+01
1.410000e-06	-1.966013e-06	-9.261126e-10	-1.365163e+01	-6.513035e+01
1.420000e-06	-1.922076e-06	-9.181457e-10	-1.334654e+01	-6.464105e+01
1.430000e-06	-1.878003e-06	-9.099209e-10	-1.304050e+01	-6.414286e+01
1.440000e-06	-1.833798e-06	-9.022308e-10	-1.273355e+01	-6.363559e+01
1.450000e-06	-1.789470e-06	-8.948886e-10	-1.242575e+01	-6.311907e+01
1.460000e-06	-1.745046e-06	-8.868807e-10	-1.211728e+01	-6.259308e+01
1.470000e-06	-1.700460e-06	-8.760402e-10	-1.180768e+01	-6.205740e+01
1.480000e-06	-1.655676e-06	-8.655793e-10	-1.149671e+01	-6.151177e+01
1.490000e-06	-1.610748e-06	-8.543728e-10	-1.118474e+01	-6.095592e+01
1.500000e-06	-1.565670e-06	-8.403813e-10	-1.087172e+01	-6.038952e+01
1.510000e-06	-1.520498e-06	-8.258002e-10	-1.055805e+01	-5.981225e+01
1.520000e-06	-1.475242e-06	-8.142374e-10	-1.024381e+01	-5.922369e+01
1.530000e-06	-1.429931e-06	-8.052185e-10	-9.929174e+00	-5.862344e+01
1.540000e-06	-1.384612e-06	-7.987221e-10	-9.614488e+00	-5.801100e+01
1.550000e-06	-1.339184e-06	-7.925945e-10	-9.299048e+00	-5.738585e+01
1.560000e-06	-1.293624e-06	-7.832073e-10	-8.982688e+00	-5.674743e+01
1.570000e-06	-1.247948e-06	-7.682821e-10	-8.665521e+00	-5.609511e+01
1.580000e-06	-1.202160e-06	-7.521168e-10	-8.347577e+00	-5.542821e+01
1.590000e-06	-1.156377e-06	-7.349295e-10	-8.029670e+00	-5.474600e+01
1.600000e-06	-1.110590e-06	-7.188862e-10	-7.711735e+00	-5.404770e+01
1.610000e-06	-1.064654e-06	-7.076721e-10	-7.392758e+00	-5.333249e+01
1.620000e-06	-1.018578e-06	-6.993565e-10	-7.072819e+00	-5.259947e+01
1.630000e-06	-9.724445e-07	-6.908591e-10	-6.752476e+00	-5.184773e+01
1.640000e-06	-9.262667e-07	-6.798390e-10	-6.431825e+00	-5.107629e+01
1.650000e-06	-8.800672e-07	-6.679086e-10	-6.111025e+00	-5.028414e+01
1.660000e-06	-8.337425e-07	-6.556276e-10	-5.789354e+00	-4.947023e+01
1.670000e-06	-7.872923e-07	-6.423934e-10	-5.466813e+00	-4.863349e+01
1.680000e-06	-7.408763e-07	-6.282851e-10	-5.144509e+00	-4.777282e+01
1.690000e-06	-6.944105e-07	-6.145795e-10	-4.821858e+00	-4.688710e+01
1.700000e-06	-6.478740e-07	-5.972127e-10	-4.498718e+00	-4.597520e+01
1.710000e-06	-6.013468e-07	-5.762651e-10	-4.175642e+00	-4.503600e+01
1.720000e-06	-5.547452e-07	-5.565158e-10	-3.852049e+00	-4.406836e+01
1.730000e-06	-5.080490e-07	-5.384959e-10	-3.527798e+00	-4.307118e+01
1.740000e-06	-4.613373e-07	-5.238611e-10	-3.203441e+00	-4.204337e+01
1.750000e-06	-4.145847e-07	-5.103673e-10	-2.878800e+00	-4.098388e+01
1.760000e-06	-3.677758e-07	-4.934474e-10	-2.553768e+00	-3.989170e+01
1.770000e-06	-3.209988e-07	-4.763491e-10	-2.228956e+00	-3.876586e+01
1.780000e-06	-2.741860e-07	-4.596521e-10	-1.903897e+00	-3.760548e+01
1.790000e-06	-2.273146e-07	-4.423846e-10	-1.578431e+00	-3.640972e+01
1.800000e-06	-1.803881e-07	-4.247644e-10	-1.252582e+00	-3.517784e+01
1.810000e-06	-1.334413e-07	-4.078959e-10	-9.265916e-01	-3.390919e+01
1.820000e-06	-8.656708e-08	-3.912931e-10	-6.011059e-01	-3.260323e+01
1.830000e-06	-3.968559e-08	-3.736554e-10	-2.755694e-01	-3.125949e+01
1.840000e-06	7.198974e-09	-3.556531e-10	4.998835e-02	-2.987767e+01
1.850000e-06	5.409351e-08	-3.389117e-10	3.756154e-01	-2.845755e+01
1.860000e-06	1.010333e-07	-3.226469e-10	7.015563e-01	-2.699907e+01
1.870000e-06	1.479827e-07	-3.049756e-10	1.027564e+00	-2.550229e+01
1.880000e-06	1.948791e-07	-2.858003e-10	1.353204e+00	-2.396743e+01
1.890000e-06	2.417032e-07	-2.637179e-10	1.678342e+00	-2.239484e+01
1.900000e-06	2.884815e-07	-2.387685e-10	2.003163e+00	-2.078502e+01
1.910000e-06	3.352317e-07	-2.140030e-10	2.327787e+00	-1.913865e+01
1.920000e-06	3.820188e-07	-1.910061e-10	2.652668e+00	-1.745654e+01
1.930000e-06	4.288972e-07	-1.685245e-10	2.978183e+00	-1.573966e+01
1.940000e-06	4.756635e-07	-1.442630e-10	3.302920e+00	-1.398915e+01
1.950000e-06	5.221997e-07	-1.198639e-10	3.626059e+00	-1.220628e+01
1.960000e-06	5.688093e-07	-9.668349e-11	3.949707e+00	-1.039248e+01
1.970000e-06	6.154727e-07	-7.223710e-11	4.273729e+00	-8.549327e+00
1.980000e-06	6.619597e-07	-4.645782e-11	4.596526e+00	-6.678547e+00
1.990000e-06	7.083165e-07	-1.852693e-11	4.918419e+00	-4.781990e+00
2.000000e-06	7.546209e-07	1.078514e-11	5.239949e+00	-2.861635e+00
2.010000e-06	8.009330e-07	3.882351e-11	5.561531e+00	-9.195823e-01
2.020000e-06	8.472632e-07	6.648728e-11	5.883239e+00	1.041958e+00
2.030000e-06	8.935653e-07	9.525208e-11	6.204753e+00	3.020676e+00
2.040000e-06	9.398127e-07	1.244197e-10	6.525886e+00	5.014173e+00
2.050000e-06	9.859205e-07	1.511405e-10	6.846050e+00	7.019971e+00
2.060000e-06	1.031924e-06	1.755301e-10	7.165491e+00	9.035528e+00
2.070000e-06	1.077876e-06	1.996989e-10	7.484571e+00	1.105825e+01
2.080000e-06	1.123752e-06	2.255952e-10	7.803130e+00	1.308550e+01
2.090000e-06	1.169558e-06	2.554798e-10	8.121193e+00	1.511461e+01
2.100000e-06	1.215252e-06	2.867385e-10	8.438489e+00	1.714292e+01
2.110000e-06	1.260853e-06	3.166989e-10	8.755129e+00	1.916774e+01
2.120000e-06	1.306369e-06	3.451154e-10	9.071188e+00	2.118642e+01
2.130000e-06	1.351814e-06	3.743453e-10	9.386750e+00	2.319633e+01
2.140000e-06	1.397199e-06	4.021898e-10	9.701890e+00	2.519488e+01
2.150000e-06	1.442538e-06	4.264376e-10	1.001672e+01	2.717954e+01
2.160000e-06	1.487753e-06	4.494720e-10	1.033068e+01	2.914784e+01
2.170000e-06	1.532815e-06	4.727382e-10	1.064359e+01	3.109739e+01
2.180000e-06	1.577795e-06	4.986361e-10	1.095592e+01	3.302589e+01
2.190000e-06	1.622628e-06	5.270526e-10	1.126723e+01	3.493116e+01
2.200000e-06	1.667356e-06	5.580370e-10	1.157781e+01	3.681111e+01
2.210000e-06	1.711994e-06	5.894014e-10	1.188777e+01	3.866378e+01
2.220000e-06	1.756470e-06	6.161701e-10	1.219661e+01	4.048734e+01
2.230000e-06	1.800792e-06	6.396686e-10	1.250437e+01	4.228008e+01
2.240000e-06	1.844954e-06	6.596048e-10	1.281102e+01	4.404046e+01
2.250000e-06	1.888997e-06	6.762123e-10	1.311685e+01	4.576706e+01
2.260000e-06	1.932910e-06	6.958299e-10	1.342177e+01	4.745864e+01
2.270000e-06	1.976702e-06	7.188584e-10	1.372585e+01	4.911407e+01
2.280000e-06	2.020466e-06	7.415908e-10	1.402974e+01	5.073242e+01
2.290000e-06	2.064202e-06	7.640704e-10	1.433344e+01	5.231289e+01
2.300000e-06	2.107873e-06	7.878846e-10	1.463668e+01	5.385485e+01
2.310000e-06	2.151479e-06	8.107747e-10	1.493947e+01	5.535780e+01
2.320000e-06	2.194983e-06	8.290765e-10	1.524156e+01	5.682140e+01
2.330000e-06	2.238418e-06	8.435569e-10	1.554317e+01	5.824548e+01
2.340000e-06	2.281733e-06	8.571307e-10	1.584393e+01	5.962997e+01
2.350000e-06	2.324872e-06	8.728924e-10	1.614348e+01	6.097497e+01
2.360000e-06	2.367840e-06	8.922758e-10	1.644184e+01	6.228068e+01
2.370000e-06	2.410621e-06	9.142268e-10	1.673891e+01	6.354744e+01
2.380000e-06	2.453051e-06	9.350730e-10	1.703353e+01	6.477571e+01
2.390000e-06	2.495093e-06	9.518884e-10	1.732546e+01	6.596604e+01
2.400000e-06	2.536914e-06	9.665237e-10	1.761586e+01	6.711907e+01
2.410000e-06	2.578409e-06	9.800738e-10	1.790400e+01	6.823554e+01
2.420000e-06	2.619554e-06	9.927011e-10	1.818970e+01	6.931627e+01
2.430000e-06	2.660366e-06	1.006411e-09	1.847309e+01	7.036212e+01
2.440000e-06	2.700843e-06	1.021681e-09	1.875415e+01	7.137404e+01
2.450000e-06	2.741075e-06	1.036953e-09	1.903352e+01	7.235301e+01
2.460000e-06	2.781161e-06	1.051021e-09	1.931187e+01	7.330003e+01
2.470000e-06	2.821116e-06	1.063866e-09	1.958931e+01	7.421616e+01
2.480000e-06	2.860927e-06	1.076406e-09	1.986575e+01	7.510245e+01
2.490000e-06	2.900628e-06	1.087690e-09	2.014143e+01	7.595997e+01
2.500000e-06	2.940243e-06	1.097492e-09	2.041650e+01	7.678978e+01
2.510000e-06	2.979729e-06	1.109949e-09	2.069069e+01	7.759293e+01
2.520000e-06	3.019074e-06	1.123499e-09	2.096389e+01	7.837048e+01
2.530000e-06	3.058231e-06	1.138612e-09	2.123579e+01	7.912342e+01
2.540000e-06	3.097065e-06	1.153038e-09	2.150545e+01	7.985273e+01
2.550000e-06	3.135605e-06	1.162212e-09	2.177306e+01	8.055938e+01
2.560000e-06	3.173950e-06	1.168081e-09	2.203933e+01	8.124425e+01
2.570000e-06	3.212094e-06	1.172177e-09	2.230419e+01	8.190820e+01
2.580000e-06	3.249994e-06	1.177005e-09	2.256736e+01	8.255206e+01
2.590000e-06	3.287711e-06	1.184158e-09	2.282926e+01	8.317656e+01
2.600000e-06	3.325295e-06	1.194292e-09	2.309023e+01	8.378242e+01
2.610000e-06	3.362625e-06	1.206992e-09	2.334945e+01	8.437029e+01
2.620000e-06	3.399634e-06	1.220551e-09	2.360643e+01	8.494076e+01
2.630000e-06	3.436401e-06	1.230344e-09	2.386173e+01	8.549437e+01
2.640000e-06	3.472972e-06	1.234677e-09	2.411567e+01	8.603161e+01
2.650000e-06	3.509284e-06	1.236019e-09	2.436782e+01	8.655292e+01
2.660000e-06	3.545350e-06	1.236588e-09	2.461826e+01	8.705869e+01
2.670000e-06	3.581257e-06	1.238238e-09	2.486759e+01	8.754925e+01
2.680000e-06	3.617001e-06	1.243857e-09	2.511579e+01	8.802491e+01
2.690000e-06	3.652575e-06	1.253832e-09	2.536281e+01	8.848594e+01
2.700000e-06	3.688047e-06	1.264011e-09	2.560912e+01	8.893256e+01
2.710000e-06	3.723412e-06	1.271287e-09	2.585469e+01	8.936497e+01
2.720000e-06	3.758539e-06	1.277152e-09	2.609860e+01	8.978334e+01
2.730000e-06	3.793283e-06	1.280360e-09	2.633986e+01	9.018783e+01
2.740000e-06	3.827566e-06	1.282344e-09	2.657792e+01	9.057859e+01
2.750000e-06	3.861370e-06	1.286659e-09	2.681264e+01	9.095573e+01
2.760000e-06	3.894646e-06	1.292269e-09	2.704370e+01	9.131938e+01
2.770000e-06	3.927428e-06	1.298612e-09	2.727134e+01	9.166968e+01
2.780000e-06	3.959805e-06	1.306255e-09	2.749615e+01	9.200673e+01
2.790000e-06	3.991893e-06	1.314686e-09	2.771897e+01	9.233069e+01
2.800000e-06	4.023823e-06	1.321603e-09	2.794069e+01	9.264170e+01
2.810000e-06	4.055585e-06	1.326221e-09	2.816123e+01	9.293992e+01
2.820000e-06	4.087155e-06	1.330533e-09	2.838045e+01	9.322554e+01
2.830000e-06	4.118560e-06	1.334468e-09	2.859852e+01	9.349876e+01
2.840000e-06	4.149807e-06	1.338586e-09	2.881550e+01	9.375980e+01
2.850000e-06	4.180793e-06	1.344347e-09	2.903065e+01	9.400891e+01
2.860000e-06	4.211423e-06	1.350917e-09	2.924335e+01	9.424638e+01
2.870000e-06	4.241704e-06	1.356998e-09	2.945361e+01	9.447251e+01
2.880000e-06	4.271652e-06	1.361436e-09	2.966157e+01	9.468762e+01
2.890000e-06	4.301295e-06	1.365945e-09	2.986740e+01	9.489208e+01
2.900000e-06	4.330665e-06	1.370433e-09	3.007134e+01	9.508627e+01
