# Temperatura_=_-9.27
# Concentracion g/m^3_=_1620.0
# C_Vs_to_Am_M_A/Vsm_=_65563218390.804596
# pendiente_HvsI_1/m_=_3716.3
# ordenada_HvsI_A/m_=_1297.0
# frecuencia_Hz_=_135108.5664371074

Tiempo_(s)	Campo_(V.s)	Magnetizacion_(V.s)	Campo_(kA/m)	Magnetizacion_(A/m)
0.000000e+00	-5.502652e-06	-1.387790e-09	-3.836923e+01	-8.840533e+01
1.000000e-08	-5.502785e-06	-1.385036e-09	-3.837016e+01	-8.836331e+01
2.000000e-08	-5.502567e-06	-1.386744e-09	-3.836864e+01	-8.832198e+01
3.000000e-08	-5.501891e-06	-1.390041e-09	-3.836393e+01	-8.828099e+01
4.000000e-08	-5.500756e-06	-1.390750e-09	-3.835602e+01	-8.823994e+01
5.000000e-08	-5.499118e-06	-1.384638e-09	-3.834459e+01	-8.819841e+01
6.000000e-08	-5.496894e-06	-1.379856e-09	-3.832908e+01	-8.815595e+01
7.000000e-08	-5.494054e-06	-1.399078e-09	-3.830928e+01	-8.811213e+01
8.000000e-08	-5.490759e-06	-1.419392e-09	-3.828631e+01	-8.806648e+01
9.000000e-08	-5.487041e-06	-1.391252e-09	-3.826038e+01	-8.801854e+01
1.000000e-07	-5.482876e-06	-1.355717e-09	-3.823134e+01	-8.796786e+01
1.100000e-07	-5.478494e-06	-1.365892e-09	-3.820079e+01	-8.791399e+01
1.200000e-07	-5.473905e-06	-1.388369e-09	-3.816879e+01	-8.785650e+01
1.300000e-07	-5.468940e-06	-1.375074e-09	-3.813417e+01	-8.779497e+01
1.400000e-07	-5.463527e-06	-1.333395e-09	-3.809642e+01	-8.772901e+01
1.500000e-07	-5.457675e-06	-1.365198e-09	-3.805561e+01	-8.765826e+01
1.600000e-07	-5.451463e-06	-1.396166e-09	-3.801230e+01	-8.758240e+01
1.700000e-07	-5.444893e-06	-1.381329e-09	-3.796649e+01	-8.750112e+01
1.800000e-07	-5.437962e-06	-1.343350e-09	-3.791816e+01	-8.741417e+01
1.900000e-07	-5.430745e-06	-1.358735e-09	-3.786784e+01	-8.732136e+01
2.000000e-07	-5.423175e-06	-1.377449e-09	-3.781505e+01	-8.722251e+01
2.100000e-07	-5.415285e-06	-1.361065e-09	-3.776004e+01	-8.711750e+01
2.200000e-07	-5.407187e-06	-1.344453e-09	-3.770357e+01	-8.700628e+01
2.300000e-07	-5.398760e-06	-1.353230e-09	-3.764481e+01	-8.688883e+01
2.400000e-07	-5.389764e-06	-1.370924e-09	-3.758208e+01	-8.676518e+01
2.500000e-07	-5.380090e-06	-1.357062e-09	-3.751463e+01	-8.663543e+01
2.600000e-07	-5.369756e-06	-1.338335e-09	-3.744257e+01	-8.649969e+01
2.700000e-07	-5.358919e-06	-1.322756e-09	-3.736700e+01	-8.635818e+01
2.800000e-07	-5.347682e-06	-1.326547e-09	-3.728865e+01	-8.621110e+01
2.900000e-07	-5.336040e-06	-1.316901e-09	-3.720747e+01	-8.605874e+01
3.000000e-07	-5.324032e-06	-1.305600e-09	-3.712374e+01	-8.590141e+01
3.100000e-07	-5.311550e-06	-1.291876e-09	-3.703670e+01	-8.573948e+01
3.200000e-07	-5.298554e-06	-1.302185e-09	-3.694609e+01	-8.557331e+01
3.300000e-07	-5.285151e-06	-1.295224e-09	-3.685263e+01	-8.540334e+01
3.400000e-07	-5.271417e-06	-1.281721e-09	-3.675687e+01	-8.523001e+01
3.500000e-07	-5.257342e-06	-1.281072e-09	-3.665872e+01	-8.505377e+01
3.600000e-07	-5.242836e-06	-1.296260e-09	-3.655757e+01	-8.487511e+01
3.700000e-07	-5.227791e-06	-1.279625e-09	-3.645266e+01	-8.469451e+01
3.800000e-07	-5.212240e-06	-1.275896e-09	-3.634423e+01	-8.451246e+01
3.900000e-07	-5.196181e-06	-1.291507e-09	-3.623225e+01	-8.432946e+01
4.000000e-07	-5.179784e-06	-1.276603e-09	-3.611792e+01	-8.414598e+01
4.100000e-07	-5.163006e-06	-1.242335e-09	-3.600093e+01	-8.396252e+01
4.200000e-07	-5.145778e-06	-1.269752e-09	-3.588080e+01	-8.377951e+01
4.300000e-07	-5.128308e-06	-1.298048e-09	-3.575898e+01	-8.359739e+01
4.400000e-07	-5.110468e-06	-1.266643e-09	-3.563459e+01	-8.341659e+01
4.500000e-07	-5.092180e-06	-1.264093e-09	-3.550707e+01	-8.323747e+01
4.600000e-07	-5.073568e-06	-1.299937e-09	-3.537729e+01	-8.306039e+01
4.700000e-07	-5.054610e-06	-1.281012e-09	-3.524510e+01	-8.288565e+01
4.800000e-07	-5.035254e-06	-1.248702e-09	-3.511013e+01	-8.271352e+01
4.900000e-07	-5.015639e-06	-1.274926e-09	-3.497336e+01	-8.254424e+01
5.000000e-07	-4.995862e-06	-1.270795e-09	-3.483546e+01	-8.237797e+01
5.100000e-07	-4.975843e-06	-1.231554e-09	-3.469586e+01	-8.221486e+01
5.200000e-07	-4.955516e-06	-1.249646e-09	-3.455413e+01	-8.205499e+01
5.300000e-07	-4.934871e-06	-1.284065e-09	-3.441018e+01	-8.189841e+01
5.400000e-07	-4.913853e-06	-1.257183e-09	-3.426362e+01	-8.174510e+01
5.500000e-07	-4.892491e-06	-1.253041e-09	-3.411467e+01	-8.159502e+01
5.600000e-07	-4.870837e-06	-1.277438e-09	-3.396367e+01	-8.144807e+01
5.700000e-07	-4.848823e-06	-1.259507e-09	-3.381017e+01	-8.130410e+01
5.800000e-07	-4.826405e-06	-1.233721e-09	-3.365386e+01	-8.116293e+01
5.900000e-07	-4.803645e-06	-1.250490e-09	-3.349515e+01	-8.102434e+01
6.000000e-07	-4.780621e-06	-1.242148e-09	-3.333461e+01	-8.088808e+01
6.100000e-07	-4.757361e-06	-1.216970e-09	-3.317242e+01	-8.075385e+01
6.200000e-07	-4.733799e-06	-1.223996e-09	-3.300813e+01	-8.062134e+01
6.300000e-07	-4.709951e-06	-1.237499e-09	-3.284184e+01	-8.049020e+01
6.400000e-07	-4.685840e-06	-1.227133e-09	-3.267372e+01	-8.036009e+01
6.500000e-07	-4.661369e-06	-1.230997e-09	-3.250308e+01	-8.023062e+01
6.600000e-07	-4.636438e-06	-1.235630e-09	-3.232924e+01	-8.010141e+01
6.700000e-07	-4.610862e-06	-1.219833e-09	-3.215091e+01	-7.997208e+01
6.800000e-07	-4.584760e-06	-1.206524e-09	-3.196890e+01	-7.984223e+01
6.900000e-07	-4.558271e-06	-1.207678e-09	-3.178420e+01	-7.971147e+01
7.000000e-07	-4.531282e-06	-1.202184e-09	-3.159601e+01	-7.957943e+01
7.100000e-07	-4.503882e-06	-1.198049e-09	-3.140495e+01	-7.944574e+01
7.200000e-07	-4.476260e-06	-1.202443e-09	-3.121234e+01	-7.931005e+01
7.300000e-07	-4.448528e-06	-1.203706e-09	-3.101897e+01	-7.917204e+01
7.400000e-07	-4.420659e-06	-1.199516e-09	-3.082465e+01	-7.903140e+01
7.500000e-07	-4.392561e-06	-1.195461e-09	-3.062873e+01	-7.888785e+01
7.600000e-07	-4.364189e-06	-1.188526e-09	-3.043089e+01	-7.874114e+01
7.700000e-07	-4.335544e-06	-1.179748e-09	-3.023115e+01	-7.859106e+01
7.800000e-07	-4.306551e-06	-1.175277e-09	-3.002899e+01	-7.843743e+01
7.900000e-07	-4.277198e-06	-1.170713e-09	-2.982431e+01	-7.828009e+01
8.000000e-07	-4.247527e-06	-1.167185e-09	-2.961742e+01	-7.811893e+01
8.100000e-07	-4.217584e-06	-1.161929e-09	-2.940863e+01	-7.795388e+01
8.200000e-07	-4.187341e-06	-1.158875e-09	-2.919775e+01	-7.778489e+01
8.300000e-07	-4.156829e-06	-1.157367e-09	-2.898500e+01	-7.761196e+01
8.400000e-07	-4.126075e-06	-1.159431e-09	-2.877055e+01	-7.743511e+01
8.500000e-07	-4.095002e-06	-1.162771e-09	-2.855388e+01	-7.725440e+01
8.600000e-07	-4.063668e-06	-1.163279e-09	-2.833540e+01	-7.706991e+01
8.700000e-07	-4.032186e-06	-1.157315e-09	-2.811588e+01	-7.688177e+01
8.800000e-07	-4.000583e-06	-1.151601e-09	-2.789552e+01	-7.669010e+01
8.900000e-07	-3.968754e-06	-1.143260e-09	-2.767358e+01	-7.649507e+01
9.000000e-07	-3.936617e-06	-1.135582e-09	-2.744949e+01	-7.629686e+01
9.100000e-07	-3.904225e-06	-1.130948e-09	-2.722362e+01	-7.609565e+01
9.200000e-07	-3.871510e-06	-1.131073e-09	-2.699550e+01	-7.589165e+01
9.300000e-07	-3.838271e-06	-1.128847e-09	-2.676374e+01	-7.568505e+01
9.400000e-07	-3.804544e-06	-1.125961e-09	-2.652856e+01	-7.547607e+01
9.500000e-07	-3.770418e-06	-1.124963e-09	-2.629061e+01	-7.526492e+01
9.600000e-07	-3.735895e-06	-1.122333e-09	-2.604988e+01	-7.505179e+01
9.700000e-07	-3.700983e-06	-1.114393e-09	-2.580645e+01	-7.483686e+01
9.800000e-07	-3.665697e-06	-1.109029e-09	-2.556040e+01	-7.462032e+01
9.900000e-07	-3.630180e-06	-1.106153e-09	-2.531275e+01	-7.440232e+01
1.000000e-06	-3.594587e-06	-1.099522e-09	-2.506456e+01	-7.418300e+01
1.010000e-06	-3.558893e-06	-1.090056e-09	-2.481567e+01	-7.396246e+01
1.020000e-06	-3.523043e-06	-1.085950e-09	-2.456570e+01	-7.374080e+01
1.030000e-06	-3.486957e-06	-1.083943e-09	-2.431407e+01	-7.351806e+01
1.040000e-06	-3.450618e-06	-1.080784e-09	-2.406068e+01	-7.329429e+01
1.050000e-06	-3.414063e-06	-1.079851e-09	-2.380579e+01	-7.306946e+01
1.060000e-06	-3.377292e-06	-1.075490e-09	-2.354939e+01	-7.284355e+01
1.070000e-06	-3.340310e-06	-1.065532e-09	-2.329152e+01	-7.261647e+01
1.080000e-06	-3.303074e-06	-1.056687e-09	-2.303188e+01	-7.238813e+01
1.090000e-06	-3.265553e-06	-1.051005e-09	-2.277025e+01	-7.215839e+01
1.100000e-06	-3.227779e-06	-1.043892e-09	-2.250685e+01	-7.192707e+01
1.110000e-06	-3.189785e-06	-1.036800e-09	-2.224193e+01	-7.169399e+01
1.120000e-06	-3.151595e-06	-1.031635e-09	-2.197564e+01	-7.145890e+01
1.130000e-06	-3.113233e-06	-1.026457e-09	-2.170814e+01	-7.122155e+01
1.140000e-06	-3.074655e-06	-1.021580e-09	-2.143915e+01	-7.098167e+01
1.150000e-06	-3.035882e-06	-1.021819e-09	-2.116879e+01	-7.073895e+01
1.160000e-06	-2.996898e-06	-1.021591e-09	-2.089696e+01	-7.049309e+01
1.170000e-06	-2.957670e-06	-1.017741e-09	-2.062343e+01	-7.024373e+01
1.180000e-06	-2.918281e-06	-1.012026e-09	-2.034877e+01	-6.999056e+01
1.190000e-06	-2.878792e-06	-1.006532e-09	-2.007342e+01	-6.973320e+01
1.200000e-06	-2.839176e-06	-9.955078e-10	-1.979718e+01	-6.947132e+01
1.210000e-06	-2.799342e-06	-9.846499e-10	-1.951942e+01	-6.920456e+01
1.220000e-06	-2.759372e-06	-9.780932e-10	-1.924072e+01	-6.893257e+01
1.230000e-06	-2.719325e-06	-9.744071e-10	-1.896148e+01	-6.865501e+01
1.240000e-06	-2.679142e-06	-9.715332e-10	-1.868129e+01	-6.837156e+01
1.250000e-06	-2.638745e-06	-9.686538e-10	-1.839961e+01	-6.808191e+01
1.260000e-06	-2.598169e-06	-9.666787e-10	-1.811668e+01	-6.778574e+01
1.270000e-06	-2.557388e-06	-9.612458e-10	-1.783232e+01	-6.748281e+01
1.280000e-06	-2.516200e-06	-9.546935e-10	-1.754512e+01	-6.717284e+01
1.290000e-06	-2.474660e-06	-9.502941e-10	-1.725547e+01	-6.685561e+01
1.300000e-06	-2.432809e-06	-9.434538e-10	-1.696364e+01	-6.653091e+01
1.310000e-06	-2.390691e-06	-9.334263e-10	-1.666996e+01	-6.619858e+01
1.320000e-06	-2.348331e-06	-9.241249e-10	-1.637459e+01	-6.585845e+01
1.330000e-06	-2.305672e-06	-9.183859e-10	-1.607713e+01	-6.551041e+01
1.340000e-06	-2.262765e-06	-9.155884e-10	-1.577795e+01	-6.515436e+01
1.350000e-06	-2.219581e-06	-9.161597e-10	-1.547683e+01	-6.479022e+01
1.360000e-06	-2.176223e-06	-9.179987e-10	-1.517450e+01	-6.441793e+01
1.370000e-06	-2.132799e-06	-9.153601e-10	-1.487171e+01	-6.403747e+01
1.380000e-06	-2.089221e-06	-9.067198e-10	-1.456785e+01	-6.364882e+01
1.390000e-06	-2.045494e-06	-8.928148e-10	-1.426295e+01	-6.325197e+01
1.400000e-06	-2.001704e-06	-8.781511e-10	-1.395761e+01	-6.284692e+01
1.410000e-06	-1.957873e-06	-8.648869e-10	-1.365198e+01	-6.243370e+01
1.420000e-06	-1.913947e-06	-8.555574e-10	-1.334569e+01	-6.201230e+01
1.430000e-06	-1.869926e-06	-8.520037e-10	-1.303874e+01	-6.158273e+01
1.440000e-06	-1.825870e-06	-8.493732e-10	-1.273154e+01	-6.114498e+01
1.450000e-06	-1.781779e-06	-8.445662e-10	-1.242410e+01	-6.069903e+01
1.460000e-06	-1.737528e-06	-8.354679e-10	-1.211555e+01	-6.024483e+01
1.470000e-06	-1.693074e-06	-8.244849e-10	-1.180557e+01	-5.978232e+01
1.480000e-06	-1.648491e-06	-8.136056e-10	-1.149470e+01	-5.931138e+01
1.490000e-06	-1.603768e-06	-8.015914e-10	-1.118285e+01	-5.883186e+01
1.500000e-06	-1.558875e-06	-7.887379e-10	-1.086982e+01	-5.834359e+01
1.510000e-06	-1.513853e-06	-7.744541e-10	-1.055589e+01	-5.784632e+01
1.520000e-06	-1.468721e-06	-7.636984e-10	-1.024119e+01	-5.733976e+01
1.530000e-06	-1.423492e-06	-7.537403e-10	-9.925815e+00	-5.682355e+01
1.540000e-06	-1.378235e-06	-7.458786e-10	-9.610244e+00	-5.629730e+01
1.550000e-06	-1.332905e-06	-7.376303e-10	-9.294163e+00	-5.576051e+01
1.560000e-06	-1.287492e-06	-7.282317e-10	-8.977501e+00	-5.521264e+01
1.570000e-06	-1.242086e-06	-7.172990e-10	-8.660897e+00	-5.465309e+01
1.580000e-06	-1.196598e-06	-7.060135e-10	-8.343716e+00	-5.408115e+01
1.590000e-06	-1.150955e-06	-6.933314e-10	-8.025450e+00	-5.349609e+01
1.600000e-06	-1.105221e-06	-6.780148e-10	-7.706555e+00	-5.289706e+01
1.610000e-06	-1.059389e-06	-6.630998e-10	-7.386976e+00	-5.228318e+01
1.620000e-06	-1.013443e-06	-6.497338e-10	-7.066601e+00	-5.165349e+01
1.630000e-06	-9.674680e-07	-6.390957e-10	-6.746021e+00	-5.100695e+01
1.640000e-06	-9.214425e-07	-6.312853e-10	-6.425092e+00	-5.034248e+01
1.650000e-06	-8.752659e-07	-6.254391e-10	-6.103109e+00	-4.965894e+01
1.660000e-06	-8.290144e-07	-6.193257e-10	-5.780603e+00	-4.895516e+01
1.670000e-06	-7.827838e-07	-6.118581e-10	-5.458244e+00	-4.822988e+01
1.680000e-06	-7.364559e-07	-5.991900e-10	-5.135206e+00	-4.748186e+01
1.690000e-06	-6.901089e-07	-5.842317e-10	-4.812034e+00	-4.670980e+01
1.700000e-06	-6.438432e-07	-5.651086e-10	-4.489430e+00	-4.591239e+01
1.710000e-06	-5.975650e-07	-5.462413e-10	-4.166738e+00	-4.508832e+01
1.720000e-06	-5.511759e-07	-5.312789e-10	-3.843274e+00	-4.423627e+01
1.730000e-06	-5.046309e-07	-5.210723e-10	-3.518722e+00	-4.335495e+01
1.740000e-06	-4.580685e-07	-5.170028e-10	-3.194049e+00	-4.244307e+01
1.750000e-06	-4.114793e-07	-5.124541e-10	-2.869189e+00	-4.149940e+01
1.760000e-06	-3.648852e-07	-5.023198e-10	-2.544294e+00	-4.052274e+01
1.770000e-06	-3.182654e-07	-4.854025e-10	-2.219220e+00	-3.951195e+01
1.780000e-06	-2.716551e-07	-4.635660e-10	-1.894214e+00	-3.846597e+01
1.790000e-06	-2.250991e-07	-4.416329e-10	-1.569585e+00	-3.738380e+01
1.800000e-06	-1.784478e-07	-4.215154e-10	-1.244292e+00	-3.626455e+01
1.810000e-06	-1.317180e-07	-4.056468e-10	-9.184512e-01	-3.510742e+01
1.820000e-06	-8.497505e-08	-3.924416e-10	-5.925193e-01	-3.391173e+01
1.830000e-06	-3.826534e-08	-3.794425e-10	-2.668189e-01	-3.267692e+01
1.840000e-06	8.405803e-09	-3.644379e-10	5.861250e-02	-3.140256e+01
1.850000e-06	5.504957e-08	-3.469668e-10	3.838531e-01	-3.008836e+01
1.860000e-06	1.016675e-07	-3.290958e-10	7.089135e-01	-2.873418e+01
1.870000e-06	1.483144e-07	-3.114249e-10	1.034176e+00	-2.734002e+01
1.880000e-06	1.950250e-07	-2.924882e-10	1.359882e+00	-2.590604e+01
1.890000e-06	2.417299e-07	-2.725828e-10	1.685549e+00	-2.443259e+01
1.900000e-06	2.883393e-07	-2.522195e-10	2.010551e+00	-2.292014e+01
1.910000e-06	3.348825e-07	-2.304213e-10	2.335090e+00	-2.136937e+01
1.920000e-06	3.814291e-07	-2.055852e-10	2.659652e+00	-1.978110e+01
1.930000e-06	4.279458e-07	-1.812487e-10	2.984007e+00	-1.815634e+01
1.940000e-06	4.744211e-07	-1.614716e-10	3.308073e+00	-1.649624e+01
1.950000e-06	5.208694e-07	-1.432431e-10	3.631950e+00	-1.480213e+01
1.960000e-06	5.672945e-07	-1.237305e-10	3.955666e+00	-1.307551e+01
1.970000e-06	6.137295e-07	-1.011962e-10	4.279451e+00	-1.131801e+01
1.980000e-06	6.601106e-07	-7.431870e-11	4.602860e+00	-9.531420e+00
1.990000e-06	7.063820e-07	-4.394398e-11	4.925505e+00	-7.717669e+00
2.000000e-06	7.525565e-07	-1.367134e-11	5.247473e+00	-5.878815e+00
2.010000e-06	7.986404e-07	1.418336e-11	5.568810e+00	-4.017037e+00
2.020000e-06	8.446886e-07	4.050792e-11	5.889897e+00	-2.134626e+00
2.030000e-06	8.907462e-07	6.821959e-11	6.211050e+00	-2.339714e-01
2.040000e-06	9.367407e-07	9.598448e-11	6.531764e+00	1.682452e+00
2.050000e-06	9.826169e-07	1.214008e-10	6.851652e+00	3.612095e+00
2.060000e-06	1.028456e-06	1.455475e-10	7.171281e+00	5.552348e+00
2.070000e-06	1.074273e-06	1.705161e-10	7.490756e+00	7.500554e+00
2.080000e-06	1.120027e-06	1.960366e-10	7.809793e+00	9.454027e+00
2.090000e-06	1.165717e-06	2.237172e-10	8.128385e+00	1.141006e+01
2.100000e-06	1.211360e-06	2.541467e-10	8.446648e+00	1.336595e+01
2.110000e-06	1.256938e-06	2.849568e-10	8.764452e+00	1.531898e+01
2.120000e-06	1.302347e-06	3.144217e-10	9.081088e+00	1.726650e+01
2.130000e-06	1.347692e-06	3.423442e-10	9.397270e+00	1.920587e+01
2.140000e-06	1.392963e-06	3.668624e-10	9.712936e+00	2.113451e+01
2.150000e-06	1.438089e-06	3.888262e-10	1.002760e+01	2.304990e+01
2.160000e-06	1.483140e-06	4.095793e-10	1.034173e+01	2.494961e+01
2.170000e-06	1.528098e-06	4.314815e-10	1.065522e+01	2.683130e+01
2.180000e-06	1.572936e-06	4.574057e-10	1.096786e+01	2.869271e+01
2.190000e-06	1.617603e-06	4.867874e-10	1.127932e+01	3.053173e+01
2.200000e-06	1.662106e-06	5.171137e-10	1.158964e+01	3.234632e+01
2.210000e-06	1.706421e-06	5.464247e-10	1.189864e+01	3.413462e+01
2.220000e-06	1.750600e-06	5.734449e-10	1.220669e+01	3.589486e+01
2.230000e-06	1.794702e-06	5.952839e-10	1.251421e+01	3.762545e+01
2.240000e-06	1.838693e-06	6.119829e-10	1.282095e+01	3.932492e+01
2.250000e-06	1.882595e-06	6.275346e-10	1.312708e+01	4.099196e+01
2.260000e-06	1.926426e-06	6.449728e-10	1.343271e+01	4.262540e+01
2.270000e-06	1.970177e-06	6.645720e-10	1.373777e+01	4.422423e+01
2.280000e-06	2.013894e-06	6.866714e-10	1.404260e+01	4.578761e+01
2.290000e-06	2.057620e-06	7.103929e-10	1.434750e+01	4.731483e+01
2.300000e-06	2.101321e-06	7.352647e-10	1.465222e+01	4.880532e+01
2.310000e-06	2.144872e-06	7.591533e-10	1.495589e+01	5.025869e+01
2.320000e-06	2.188286e-06	7.781564e-10	1.525861e+01	5.167467e+01
2.330000e-06	2.231548e-06	7.920236e-10	1.556028e+01	5.305312e+01
2.340000e-06	2.274565e-06	8.050137e-10	1.586023e+01	5.439404e+01
2.350000e-06	2.317370e-06	8.194795e-10	1.615871e+01	5.569757e+01
2.360000e-06	2.359914e-06	8.354476e-10	1.645535e+01	5.696393e+01
2.370000e-06	2.402134e-06	8.535257e-10	1.674975e+01	5.819348e+01
2.380000e-06	2.444068e-06	8.721829e-10	1.704215e+01	5.938665e+01
2.390000e-06	2.485648e-06	8.898771e-10	1.733208e+01	6.054399e+01
2.400000e-06	2.526842e-06	9.073647e-10	1.761932e+01	6.166612e+01
2.410000e-06	2.567806e-06	9.233934e-10	1.790496e+01	6.275371e+01
2.420000e-06	2.608612e-06	9.363205e-10	1.818949e+01	6.380751e+01
2.430000e-06	2.649216e-06	9.480570e-10	1.847262e+01	6.482832e+01
2.440000e-06	2.689532e-06	9.606626e-10	1.875374e+01	6.581699e+01
2.450000e-06	2.729608e-06	9.743184e-10	1.903318e+01	6.677438e+01
2.460000e-06	2.769590e-06	9.875701e-10	1.931197e+01	6.770138e+01
2.470000e-06	2.809518e-06	9.993397e-10	1.959038e+01	6.859890e+01
2.480000e-06	2.849351e-06	1.009637e-09	1.986813e+01	6.946786e+01
2.490000e-06	2.889046e-06	1.018556e-09	2.014492e+01	7.030915e+01
2.500000e-06	2.928540e-06	1.028433e-09	2.042031e+01	7.112369e+01
2.510000e-06	2.967888e-06	1.040750e-09	2.069468e+01	7.191235e+01
2.520000e-06	3.007074e-06	1.051320e-09	2.096791e+01	7.267599e+01
2.530000e-06	3.045915e-06	1.063269e-09	2.123875e+01	7.341543e+01
2.540000e-06	3.084529e-06	1.076589e-09	2.150799e+01	7.413148e+01
2.550000e-06	3.122945e-06	1.084869e-09	2.177586e+01	7.482489e+01
2.560000e-06	3.161060e-06	1.088816e-09	2.204163e+01	7.549638e+01
2.570000e-06	3.199006e-06	1.093213e-09	2.230623e+01	7.614664e+01
2.580000e-06	3.236831e-06	1.098391e-09	2.256997e+01	7.677628e+01
2.590000e-06	3.274518e-06	1.106159e-09	2.283276e+01	7.738590e+01
2.600000e-06	3.311991e-06	1.119891e-09	2.309406e+01	7.797605e+01
2.610000e-06	3.349177e-06	1.134531e-09	2.335335e+01	7.854721e+01
2.620000e-06	3.386050e-06	1.146965e-09	2.361046e+01	7.909985e+01
2.630000e-06	3.422632e-06	1.154202e-09	2.386554e+01	7.963437e+01
2.640000e-06	3.458974e-06	1.158181e-09	2.411895e+01	8.015117e+01
2.650000e-06	3.495067e-06	1.159641e-09	2.437062e+01	8.065057e+01
2.660000e-06	3.531027e-06	1.162864e-09	2.462136e+01	8.113288e+01
2.670000e-06	3.566896e-06	1.167862e-09	2.487148e+01	8.159839e+01
2.680000e-06	3.602623e-06	1.174638e-09	2.512059e+01	8.204735e+01
2.690000e-06	3.638201e-06	1.183632e-09	2.536867e+01	8.248000e+01
2.700000e-06	3.673565e-06	1.190748e-09	2.561526e+01	8.289655e+01
2.710000e-06	3.708694e-06	1.195357e-09	2.586021e+01	8.329722e+01
2.720000e-06	3.743603e-06	1.198579e-09	2.610363e+01	8.368221e+01
2.730000e-06	3.778066e-06	1.201647e-09	2.634393e+01	8.405171e+01
2.740000e-06	3.811984e-06	1.206203e-09	2.658044e+01	8.440592e+01
2.750000e-06	3.845401e-06	1.211007e-09	2.681345e+01	8.474507e+01
2.760000e-06	3.878337e-06	1.217467e-09	2.704311e+01	8.506935e+01
2.770000e-06	3.910903e-06	1.224772e-09	2.727019e+01	8.537901e+01
2.780000e-06	3.943173e-06	1.230322e-09	2.749520e+01	8.567428e+01
2.790000e-06	3.975213e-06	1.235165e-09	2.771861e+01	8.595544e+01
2.800000e-06	4.007075e-06	1.238727e-09	2.794078e+01	8.622277e+01
2.810000e-06	4.038807e-06	1.242138e-09	2.816205e+01	8.647659e+01
2.820000e-06	4.070392e-06	1.245728e-09	2.838228e+01	8.671722e+01
2.830000e-06	4.101750e-06	1.252679e-09	2.860094e+01	8.694504e+01
2.840000e-06	4.132852e-06	1.259870e-09	2.881780e+01	8.716041e+01
2.850000e-06	4.163606e-06	1.265438e-09	2.903225e+01	8.736376e+01
2.860000e-06	4.194009e-06	1.270525e-09	2.924425e+01	8.755552e+01
2.870000e-06	4.224173e-06	1.274933e-09	2.945458e+01	8.773614e+01
2.880000e-06	4.254093e-06	1.276465e-09	2.966320e+01	8.790612e+01
2.890000e-06	4.283741e-06	1.277529e-09	2.986993e+01	8.806593e+01
2.900000e-06	4.313058e-06	1.279504e-09	3.007436e+01	8.821611e+01
