# Temperatura_=_-53.12
# Concentracion g/m^3_=_1620.0
# C_Vs_to_Am_M_A/Vsm_=_65563218390.804596
# pendiente_HvsI_1/m_=_3716.3
# ordenada_HvsI_A/m_=_1297.0
# frecuencia_Hz_=_135090.15590086143

Tiempo_(s)	Campo_(V.s)	Magnetizacion_(V.s)	Campo_(kA/m)	Magnetizacion_(A/m)
0.000000e+00	-5.524531e-06	-1.427696e-09	-3.837536e+01	-9.156559e+01
1.000000e-08	-5.524758e-06	-1.424511e-09	-3.837694e+01	-9.158519e+01
2.000000e-08	-5.524675e-06	-1.426984e-09	-3.837636e+01	-9.160364e+01
3.000000e-08	-5.524130e-06	-1.430928e-09	-3.837258e+01	-9.162084e+01
4.000000e-08	-5.523117e-06	-1.432963e-09	-3.836554e+01	-9.163665e+01
5.000000e-08	-5.521478e-06	-1.432767e-09	-3.835415e+01	-9.165092e+01
6.000000e-08	-5.519134e-06	-1.423918e-09	-3.833787e+01	-9.166350e+01
7.000000e-08	-5.516320e-06	-1.426345e-09	-3.831833e+01	-9.167418e+01
8.000000e-08	-5.513056e-06	-1.430904e-09	-3.829566e+01	-9.168275e+01
9.000000e-08	-5.509402e-06	-1.405812e-09	-3.827027e+01	-9.168899e+01
1.000000e-07	-5.505453e-06	-1.456917e-09	-3.824284e+01	-9.169264e+01
1.100000e-07	-5.501050e-06	-1.519906e-09	-3.821226e+01	-9.169345e+01
1.200000e-07	-5.496237e-06	-1.415403e-09	-3.817882e+01	-9.169117e+01
1.300000e-07	-5.491356e-06	-1.326045e-09	-3.814492e+01	-9.168550e+01
1.400000e-07	-5.486218e-06	-1.363725e-09	-3.810923e+01	-9.167617e+01
1.500000e-07	-5.480551e-06	-1.492807e-09	-3.806986e+01	-9.166291e+01
1.600000e-07	-5.474527e-06	-1.464382e-09	-3.802802e+01	-9.164543e+01
1.700000e-07	-5.468163e-06	-1.316597e-09	-3.798381e+01	-9.162346e+01
1.800000e-07	-5.461381e-06	-1.399227e-09	-3.793670e+01	-9.159673e+01
1.900000e-07	-5.454159e-06	-1.490406e-09	-3.788653e+01	-9.156497e+01
2.000000e-07	-5.446676e-06	-1.492634e-09	-3.783456e+01	-9.152793e+01
2.100000e-07	-5.439047e-06	-1.357245e-09	-3.778156e+01	-9.148538e+01
2.200000e-07	-5.431148e-06	-1.412591e-09	-3.772669e+01	-9.143709e+01
2.300000e-07	-5.422843e-06	-1.498861e-09	-3.766900e+01	-9.138286e+01
2.400000e-07	-5.414056e-06	-1.516998e-09	-3.760797e+01	-9.132249e+01
2.500000e-07	-5.404614e-06	-1.417643e-09	-3.754238e+01	-9.125583e+01
2.600000e-07	-5.394422e-06	-1.406744e-09	-3.747158e+01	-9.118273e+01
2.700000e-07	-5.383588e-06	-1.436718e-09	-3.739632e+01	-9.110306e+01
2.800000e-07	-5.372443e-06	-1.432510e-09	-3.731891e+01	-9.101672e+01
2.900000e-07	-5.360919e-06	-1.392158e-09	-3.723886e+01	-9.092365e+01
3.000000e-07	-5.348888e-06	-1.376042e-09	-3.715528e+01	-9.082378e+01
3.100000e-07	-5.336558e-06	-1.417691e-09	-3.706964e+01	-9.071710e+01
3.200000e-07	-5.323811e-06	-1.402507e-09	-3.698109e+01	-9.060359e+01
3.300000e-07	-5.310573e-06	-1.367928e-09	-3.688913e+01	-9.048327e+01
3.400000e-07	-5.296969e-06	-1.332257e-09	-3.679463e+01	-9.035619e+01
3.500000e-07	-5.283039e-06	-1.406588e-09	-3.669787e+01	-9.022241e+01
3.600000e-07	-5.268491e-06	-1.392907e-09	-3.659682e+01	-9.008201e+01
3.700000e-07	-5.253189e-06	-1.354718e-09	-3.649053e+01	-8.993510e+01
3.800000e-07	-5.237478e-06	-1.369440e-09	-3.638139e+01	-8.978178e+01
3.900000e-07	-5.221379e-06	-1.433653e-09	-3.626956e+01	-8.962221e+01
4.000000e-07	-5.204742e-06	-1.331426e-09	-3.615400e+01	-8.945652e+01
4.100000e-07	-5.187819e-06	-1.306523e-09	-3.603644e+01	-8.928487e+01
4.200000e-07	-5.170711e-06	-1.405363e-09	-3.591760e+01	-8.910743e+01
4.300000e-07	-5.153267e-06	-1.398101e-09	-3.579643e+01	-8.892438e+01
4.400000e-07	-5.135408e-06	-1.269847e-09	-3.567238e+01	-8.873590e+01
4.500000e-07	-5.117227e-06	-1.371007e-09	-3.554608e+01	-8.854217e+01
4.600000e-07	-5.098686e-06	-1.447680e-09	-3.541729e+01	-8.834339e+01
4.700000e-07	-5.079634e-06	-1.306857e-09	-3.528495e+01	-8.813972e+01
4.800000e-07	-5.060231e-06	-1.274674e-09	-3.515017e+01	-8.793136e+01
4.900000e-07	-5.040723e-06	-1.422534e-09	-3.501466e+01	-8.771848e+01
5.000000e-07	-5.021096e-06	-1.341758e-09	-3.487832e+01	-8.750126e+01
5.100000e-07	-5.001226e-06	-1.237808e-09	-3.474030e+01	-8.727984e+01
5.200000e-07	-4.981028e-06	-1.364865e-09	-3.460000e+01	-8.705438e+01
5.300000e-07	-4.960441e-06	-1.385905e-09	-3.445699e+01	-8.682503e+01
5.400000e-07	-4.939439e-06	-1.246167e-09	-3.431110e+01	-8.659190e+01
5.500000e-07	-4.918147e-06	-1.317470e-09	-3.416320e+01	-8.635511e+01
5.600000e-07	-4.896608e-06	-1.405064e-09	-3.401359e+01	-8.611477e+01
5.700000e-07	-4.874639e-06	-1.270754e-09	-3.386098e+01	-8.587095e+01
5.800000e-07	-4.852236e-06	-1.254271e-09	-3.370536e+01	-8.562373e+01
5.900000e-07	-4.829526e-06	-1.368294e-09	-3.354761e+01	-8.537316e+01
6.000000e-07	-4.806553e-06	-1.304138e-09	-3.338803e+01	-8.511927e+01
6.100000e-07	-4.783337e-06	-1.224218e-09	-3.322676e+01	-8.486210e+01
6.200000e-07	-4.759830e-06	-1.316292e-09	-3.306348e+01	-8.460165e+01
6.300000e-07	-4.736043e-06	-1.307740e-09	-3.289824e+01	-8.433793e+01
6.400000e-07	-4.711966e-06	-1.230641e-09	-3.273100e+01	-8.407090e+01
6.500000e-07	-4.687509e-06	-1.275704e-09	-3.256111e+01	-8.380055e+01
6.600000e-07	-4.662619e-06	-1.311833e-09	-3.238822e+01	-8.352683e+01
6.700000e-07	-4.637198e-06	-1.238782e-09	-3.221163e+01	-8.324970e+01
6.800000e-07	-4.611261e-06	-1.252186e-09	-3.203147e+01	-8.296909e+01
6.900000e-07	-4.584782e-06	-1.282639e-09	-3.184753e+01	-8.268495e+01
7.000000e-07	-4.557721e-06	-1.241300e-09	-3.165956e+01	-8.239720e+01
7.100000e-07	-4.530357e-06	-1.220070e-09	-3.146947e+01	-8.210577e+01
7.200000e-07	-4.502869e-06	-1.262659e-09	-3.127854e+01	-8.181059e+01
7.300000e-07	-4.475238e-06	-1.240106e-09	-3.108660e+01	-8.151158e+01
7.400000e-07	-4.447439e-06	-1.216860e-09	-3.089350e+01	-8.120865e+01
7.500000e-07	-4.419426e-06	-1.229838e-09	-3.069891e+01	-8.090175e+01
7.600000e-07	-4.391004e-06	-1.228727e-09	-3.050148e+01	-8.059079e+01
7.700000e-07	-4.362196e-06	-1.201022e-09	-3.030137e+01	-8.027572e+01
7.800000e-07	-4.333187e-06	-1.209483e-09	-3.009986e+01	-7.995648e+01
7.900000e-07	-4.303851e-06	-1.208316e-09	-2.989608e+01	-7.963301e+01
8.000000e-07	-4.274207e-06	-1.186682e-09	-2.969016e+01	-7.930526e+01
8.100000e-07	-4.244326e-06	-1.183771e-09	-2.948260e+01	-7.897322e+01
8.200000e-07	-4.214127e-06	-1.191072e-09	-2.927283e+01	-7.863684e+01
8.300000e-07	-4.183591e-06	-1.172470e-09	-2.906071e+01	-7.829612e+01
8.400000e-07	-4.152769e-06	-1.166099e-09	-2.884661e+01	-7.795104e+01
8.500000e-07	-4.121701e-06	-1.182672e-09	-2.863080e+01	-7.760163e+01
8.600000e-07	-4.090384e-06	-1.174630e-09	-2.841326e+01	-7.724788e+01
8.700000e-07	-4.058923e-06	-1.156058e-09	-2.819473e+01	-7.688983e+01
8.800000e-07	-4.027338e-06	-1.157643e-09	-2.797533e+01	-7.652751e+01
8.900000e-07	-3.995577e-06	-1.152293e-09	-2.775470e+01	-7.616097e+01
9.000000e-07	-3.963557e-06	-1.129114e-09	-2.753228e+01	-7.579026e+01
9.100000e-07	-3.931178e-06	-1.129742e-09	-2.730736e+01	-7.541545e+01
9.200000e-07	-3.898439e-06	-1.129322e-09	-2.707995e+01	-7.503659e+01
9.300000e-07	-3.865175e-06	-1.114438e-09	-2.684889e+01	-7.465376e+01
9.400000e-07	-3.831458e-06	-1.106403e-09	-2.661467e+01	-7.426704e+01
9.500000e-07	-3.797370e-06	-1.114605e-09	-2.637789e+01	-7.387651e+01
9.600000e-07	-3.762687e-06	-1.096660e-09	-2.613697e+01	-7.348225e+01
9.700000e-07	-3.727597e-06	-1.082168e-09	-2.589322e+01	-7.308434e+01
9.800000e-07	-3.692294e-06	-1.084628e-09	-2.564799e+01	-7.268287e+01
9.900000e-07	-3.656847e-06	-1.084758e-09	-2.540176e+01	-7.227791e+01
1.000000e-06	-3.621329e-06	-1.066134e-09	-2.515504e+01	-7.186954e+01
1.010000e-06	-3.585685e-06	-1.062129e-09	-2.490745e+01	-7.145783e+01
1.020000e-06	-3.549870e-06	-1.058464e-09	-2.465866e+01	-7.104285e+01
1.030000e-06	-3.513835e-06	-1.042888e-09	-2.440835e+01	-7.062465e+01
1.040000e-06	-3.477528e-06	-1.033269e-09	-2.415615e+01	-7.020328e+01
1.050000e-06	-3.440849e-06	-1.039734e-09	-2.390137e+01	-6.977877e+01
1.060000e-06	-3.403856e-06	-1.031903e-09	-2.364440e+01	-6.935116e+01
1.070000e-06	-3.366730e-06	-1.020975e-09	-2.338650e+01	-6.892047e+01
1.080000e-06	-3.329457e-06	-1.015292e-09	-2.312760e+01	-6.848670e+01
1.090000e-06	-3.291961e-06	-1.006447e-09	-2.286714e+01	-6.804984e+01
1.100000e-06	-3.254201e-06	-9.889544e-10	-2.260484e+01	-6.760988e+01
1.110000e-06	-3.216231e-06	-9.804368e-10	-2.234109e+01	-6.716679e+01
1.120000e-06	-3.178062e-06	-9.739314e-10	-2.207595e+01	-6.672052e+01
1.130000e-06	-3.139645e-06	-9.601629e-10	-2.180909e+01	-6.627103e+01
1.140000e-06	-3.100941e-06	-9.537279e-10	-2.154024e+01	-6.581824e+01
1.150000e-06	-3.061930e-06	-9.571911e-10	-2.126926e+01	-6.536208e+01
1.160000e-06	-3.022792e-06	-9.549454e-10	-2.099739e+01	-6.490248e+01
1.170000e-06	-2.983586e-06	-9.442406e-10	-2.072505e+01	-6.443932e+01
1.180000e-06	-2.944246e-06	-9.390054e-10	-2.045178e+01	-6.397252e+01
1.190000e-06	-2.904753e-06	-9.311829e-10	-2.017745e+01	-6.350197e+01
1.200000e-06	-2.865121e-06	-9.174800e-10	-1.990215e+01	-6.302754e+01
1.210000e-06	-2.825300e-06	-9.053591e-10	-1.962554e+01	-6.254913e+01
1.220000e-06	-2.785222e-06	-8.997237e-10	-1.934715e+01	-6.206661e+01
1.230000e-06	-2.745062e-06	-8.891248e-10	-1.906818e+01	-6.157986e+01
1.240000e-06	-2.704810e-06	-8.805821e-10	-1.878858e+01	-6.108877e+01
1.250000e-06	-2.664298e-06	-8.746141e-10	-1.850716e+01	-6.059320e+01
1.260000e-06	-2.623523e-06	-8.703160e-10	-1.822393e+01	-6.009306e+01
1.270000e-06	-2.582399e-06	-8.612933e-10	-1.793827e+01	-5.958822e+01
1.280000e-06	-2.540874e-06	-8.544391e-10	-1.764982e+01	-5.907858e+01
1.290000e-06	-2.499124e-06	-8.451867e-10	-1.735981e+01	-5.856404e+01
1.300000e-06	-2.457138e-06	-8.324275e-10	-1.706816e+01	-5.804451e+01
1.310000e-06	-2.414856e-06	-8.191238e-10	-1.677445e+01	-5.751991e+01
1.320000e-06	-2.372203e-06	-8.118501e-10	-1.647817e+01	-5.699016e+01
1.330000e-06	-2.329160e-06	-8.033281e-10	-1.617917e+01	-5.645522e+01
1.340000e-06	-2.285905e-06	-7.978499e-10	-1.587871e+01	-5.591502e+01
1.350000e-06	-2.242528e-06	-7.948530e-10	-1.557740e+01	-5.536954e+01
1.360000e-06	-2.199073e-06	-7.907359e-10	-1.527554e+01	-5.481873e+01
1.370000e-06	-2.155504e-06	-7.829258e-10	-1.497290e+01	-5.426259e+01
1.380000e-06	-2.111900e-06	-7.764002e-10	-1.467001e+01	-5.370111e+01
1.390000e-06	-2.068276e-06	-7.667789e-10	-1.436698e+01	-5.313430e+01
1.400000e-06	-2.024603e-06	-7.510762e-10	-1.406361e+01	-5.256217e+01
1.410000e-06	-1.980865e-06	-7.362577e-10	-1.375980e+01	-5.198474e+01
1.420000e-06	-1.937002e-06	-7.241154e-10	-1.345511e+01	-5.140205e+01
1.430000e-06	-1.893085e-06	-7.130911e-10	-1.315005e+01	-5.081413e+01
1.440000e-06	-1.849071e-06	-7.031144e-10	-1.284431e+01	-5.022103e+01
1.450000e-06	-1.804881e-06	-6.977246e-10	-1.253735e+01	-4.962278e+01
1.460000e-06	-1.760468e-06	-6.921193e-10	-1.222884e+01	-4.901944e+01
1.470000e-06	-1.715827e-06	-6.834505e-10	-1.191874e+01	-4.841105e+01
1.480000e-06	-1.671073e-06	-6.734279e-10	-1.160787e+01	-4.779765e+01
1.490000e-06	-1.626260e-06	-6.636996e-10	-1.129658e+01	-4.717928e+01
1.500000e-06	-1.581418e-06	-6.485053e-10	-1.098509e+01	-4.655598e+01
1.510000e-06	-1.536381e-06	-6.339215e-10	-1.067225e+01	-4.592776e+01
1.520000e-06	-1.491079e-06	-6.220352e-10	-1.035757e+01	-4.529463e+01
1.530000e-06	-1.445701e-06	-6.121490e-10	-1.004235e+01	-4.465661e+01
1.540000e-06	-1.400328e-06	-6.041436e-10	-9.727176e+00	-4.401366e+01
1.550000e-06	-1.354888e-06	-5.972629e-10	-9.411537e+00	-4.336575e+01
1.560000e-06	-1.309393e-06	-5.871768e-10	-9.095509e+00	-4.271284e+01
1.570000e-06	-1.263818e-06	-5.743795e-10	-8.778932e+00	-4.205485e+01
1.580000e-06	-1.218118e-06	-5.623576e-10	-8.461482e+00	-4.139169e+01
1.590000e-06	-1.172388e-06	-5.489993e-10	-8.143825e+00	-4.072325e+01
1.600000e-06	-1.126599e-06	-5.338301e-10	-7.825758e+00	-4.004938e+01
1.610000e-06	-1.080720e-06	-5.210866e-10	-7.507070e+00	-3.936993e+01
1.620000e-06	-1.034780e-06	-5.108376e-10	-7.187954e+00	-3.868470e+01
1.630000e-06	-9.887153e-07	-5.028364e-10	-6.867969e+00	-3.799348e+01
1.640000e-06	-9.425668e-07	-4.941904e-10	-6.547405e+00	-3.729603e+01
1.650000e-06	-8.963497e-07	-4.858090e-10	-6.226365e+00	-3.659210e+01
1.660000e-06	-8.501084e-07	-4.764023e-10	-5.905157e+00	-3.588141e+01
1.670000e-06	-8.037941e-07	-4.651853e-10	-5.583440e+00	-3.516363e+01
1.680000e-06	-7.574107e-07	-4.533171e-10	-5.261245e+00	-3.443846e+01
1.690000e-06	-7.110517e-07	-4.437443e-10	-4.939219e+00	-3.370553e+01
1.700000e-06	-6.645977e-07	-4.322164e-10	-4.616533e+00	-3.296449e+01
1.710000e-06	-6.180875e-07	-4.165389e-10	-4.293456e+00	-3.221497e+01
1.720000e-06	-5.714711e-07	-3.997804e-10	-3.969642e+00	-3.145656e+01
1.730000e-06	-5.248484e-07	-3.853117e-10	-3.645784e+00	-3.068888e+01
1.740000e-06	-4.782784e-07	-3.733142e-10	-3.322293e+00	-2.991151e+01
1.750000e-06	-4.315972e-07	-3.628227e-10	-2.998028e+00	-2.912405e+01
1.760000e-06	-3.848136e-07	-3.524390e-10	-2.673052e+00	-2.832609e+01
1.770000e-06	-3.381117e-07	-3.393561e-10	-2.348644e+00	-2.751722e+01
1.780000e-06	-2.913818e-07	-3.274786e-10	-2.024042e+00	-2.669706e+01
1.790000e-06	-2.444838e-07	-3.174590e-10	-1.698272e+00	-2.586521e+01
1.800000e-06	-1.976207e-07	-3.062076e-10	-1.372744e+00	-2.502130e+01
1.810000e-06	-1.507766e-07	-2.927772e-10	-1.047348e+00	-2.416499e+01
1.820000e-06	-1.038769e-07	-2.796653e-10	-7.215658e-01	-2.329594e+01
1.830000e-06	-5.693936e-08	-2.665469e-10	-3.955211e-01	-2.241386e+01
1.840000e-06	-1.000805e-08	-2.536368e-10	-6.951949e-02	-2.151847e+01
1.850000e-06	3.688111e-08	-2.420865e-10	2.561893e-01	-2.060953e+01
1.860000e-06	8.377132e-08	-2.319956e-10	5.819055e-01	-1.968685e+01
1.870000e-06	1.307132e-07	-2.222386e-10	9.079805e-01	-1.875026e+01
1.880000e-06	1.775920e-07	-2.128916e-10	1.233618e+00	-1.779965e+01
1.890000e-06	2.243673e-07	-2.002544e-10	1.558536e+00	-1.683494e+01
1.900000e-06	2.711334e-07	-1.841611e-10	1.883389e+00	-1.585611e+01
1.910000e-06	3.179179e-07	-1.669362e-10	2.208371e+00	-1.486318e+01
1.920000e-06	3.647290e-07	-1.495240e-10	2.533538e+00	-1.385622e+01
1.930000e-06	4.115008e-07	-1.357201e-10	2.858431e+00	-1.283537e+01
1.940000e-06	4.581568e-07	-1.256367e-10	3.182520e+00	-1.180080e+01
1.950000e-06	5.047487e-07	-1.146374e-10	3.506164e+00	-1.075275e+01
1.960000e-06	5.513524e-07	-1.008789e-10	3.829891e+00	-9.691503e+00
1.970000e-06	5.978943e-07	-8.601653e-11	4.153187e+00	-8.617398e+00
1.980000e-06	6.444423e-07	-7.173464e-11	4.476526e+00	-7.530829e+00
1.990000e-06	6.909365e-07	-5.548967e-11	4.799492e+00	-6.432237e+00
2.000000e-06	7.372688e-07	-3.761129e-11	5.121332e+00	-5.322114e+00
2.010000e-06	7.835704e-07	-2.075678e-11	5.442959e+00	-4.201000e+00
2.020000e-06	8.298816e-07	-4.473820e-12	5.764654e+00	-3.069479e+00
2.030000e-06	8.761387e-07	1.289222e-11	6.085972e+00	-1.928176e+00
2.040000e-06	9.222788e-07	2.844496e-11	6.406478e+00	-7.777558e-01
2.050000e-06	9.683732e-07	4.190609e-11	6.726665e+00	3.810801e-01
2.060000e-06	1.014475e-06	5.413599e-11	7.046906e+00	1.547599e+00
2.070000e-06	1.060443e-06	6.743540e-11	7.366216e+00	2.721041e+00
2.080000e-06	1.106315e-06	8.248852e-11	7.684856e+00	3.900621e+00
2.090000e-06	1.152135e-06	9.686080e-11	8.003141e+00	5.085533e+00
2.100000e-06	1.197837e-06	1.148067e-10	8.320601e+00	6.274957e+00
2.110000e-06	1.243394e-06	1.309650e-10	8.637060e+00	7.468062e+00
2.120000e-06	1.288806e-06	1.464117e-10	8.952509e+00	8.664008e+00
2.130000e-06	1.334208e-06	1.623912e-10	9.267885e+00	9.861955e+00
2.140000e-06	1.379491e-06	1.818032e-10	9.582436e+00	1.106106e+01
2.150000e-06	1.424659e-06	1.977593e-10	9.896187e+00	1.226050e+01
2.160000e-06	1.469791e-06	2.096149e-10	1.020969e+01	1.345945e+01
2.170000e-06	1.514850e-06	2.233597e-10	1.052269e+01	1.465710e+01
2.180000e-06	1.559819e-06	2.359593e-10	1.083506e+01	1.585266e+01
2.190000e-06	1.604680e-06	2.520243e-10	1.114668e+01	1.704537e+01
2.200000e-06	1.649414e-06	2.722947e-10	1.145742e+01	1.823449e+01
2.210000e-06	1.693958e-06	2.963958e-10	1.176684e+01	1.941930e+01
2.220000e-06	1.738379e-06	3.204380e-10	1.207540e+01	2.059913e+01
2.230000e-06	1.782695e-06	3.381921e-10	1.238323e+01	2.177332e+01
2.240000e-06	1.826841e-06	3.511481e-10	1.268989e+01	2.294128e+01
2.250000e-06	1.870884e-06	3.586413e-10	1.299583e+01	2.410242e+01
2.260000e-06	1.914872e-06	3.667522e-10	1.330139e+01	2.525622e+01
2.270000e-06	1.958734e-06	3.792602e-10	1.360607e+01	2.640218e+01
2.280000e-06	2.002511e-06	3.971370e-10	1.391016e+01	2.753985e+01
2.290000e-06	2.046256e-06	4.203850e-10	1.421402e+01	2.866882e+01
2.300000e-06	2.089884e-06	4.442225e-10	1.451708e+01	2.978872e+01
2.310000e-06	2.133392e-06	4.641780e-10	1.481930e+01	3.089922e+01
2.320000e-06	2.176851e-06	4.740077e-10	1.512118e+01	3.200003e+01
2.330000e-06	2.220229e-06	4.795865e-10	1.542250e+01	3.309089e+01
2.340000e-06	2.263528e-06	4.871865e-10	1.572327e+01	3.417160e+01
2.350000e-06	2.306676e-06	5.015490e-10	1.602299e+01	3.524197e+01
2.360000e-06	2.349642e-06	5.224163e-10	1.632145e+01	3.630186e+01
2.370000e-06	2.392440e-06	5.425055e-10	1.661874e+01	3.735114e+01
2.380000e-06	2.434894e-06	5.592257e-10	1.691364e+01	3.838974e+01
2.390000e-06	2.476994e-06	5.720884e-10	1.720608e+01	3.941758e+01
2.400000e-06	2.518768e-06	5.812329e-10	1.749626e+01	4.043463e+01
2.410000e-06	2.560265e-06	5.918749e-10	1.778451e+01	4.144087e+01
2.420000e-06	2.601482e-06	6.045835e-10	1.807082e+01	4.243630e+01
2.430000e-06	2.642547e-06	6.212128e-10	1.835608e+01	4.342091e+01
2.440000e-06	2.683445e-06	6.396141e-10	1.864017e+01	4.439474e+01
2.450000e-06	2.723902e-06	6.590641e-10	1.892119e+01	4.535782e+01
2.460000e-06	2.763965e-06	6.766719e-10	1.919949e+01	4.631017e+01
2.470000e-06	2.803808e-06	6.898148e-10	1.947625e+01	4.725183e+01
2.480000e-06	2.843568e-06	6.986827e-10	1.975243e+01	4.818284e+01
2.490000e-06	2.883243e-06	7.066520e-10	2.002804e+01	4.910324e+01
2.500000e-06	2.922788e-06	7.163204e-10	2.030273e+01	5.001305e+01
2.510000e-06	2.962229e-06	7.316229e-10	2.057670e+01	5.091229e+01
2.520000e-06	3.001524e-06	7.479737e-10	2.084965e+01	5.180097e+01
2.530000e-06	3.040583e-06	7.645177e-10	2.112098e+01	5.267911e+01
2.540000e-06	3.079530e-06	7.815764e-10	2.139151e+01	5.354668e+01
2.550000e-06	3.118356e-06	7.965051e-10	2.166121e+01	5.440367e+01
2.560000e-06	3.156897e-06	8.066165e-10	2.192893e+01	5.525005e+01
2.570000e-06	3.195241e-06	8.113061e-10	2.219528e+01	5.608577e+01
2.580000e-06	3.233349e-06	8.157093e-10	2.246000e+01	5.691077e+01
2.590000e-06	3.271118e-06	8.223441e-10	2.272235e+01	5.772498e+01
2.600000e-06	3.308662e-06	8.335273e-10	2.298315e+01	5.852830e+01
2.610000e-06	3.346089e-06	8.491625e-10	2.324313e+01	5.932066e+01
2.620000e-06	3.383325e-06	8.689709e-10	2.350178e+01	6.010193e+01
2.630000e-06	3.420306e-06	8.844287e-10	2.375867e+01	6.087200e+01
2.640000e-06	3.456957e-06	8.935256e-10	2.401326e+01	6.163075e+01
2.650000e-06	3.493315e-06	9.002964e-10	2.426581e+01	6.237805e+01
2.660000e-06	3.529476e-06	9.054182e-10	2.451700e+01	6.311376e+01
2.670000e-06	3.565393e-06	9.088842e-10	2.476649e+01	6.383775e+01
2.680000e-06	3.601067e-06	9.138740e-10	2.501430e+01	6.454988e+01
2.690000e-06	3.636546e-06	9.236918e-10	2.526074e+01	6.525001e+01
2.700000e-06	3.671958e-06	9.376005e-10	2.550673e+01	6.593803e+01
2.710000e-06	3.707339e-06	9.488677e-10	2.575250e+01	6.661380e+01
2.720000e-06	3.742494e-06	9.572985e-10	2.599670e+01	6.727721e+01
2.730000e-06	3.777337e-06	9.646487e-10	2.623873e+01	6.792816e+01
2.740000e-06	3.811930e-06	9.718146e-10	2.647902e+01	6.856656e+01
2.750000e-06	3.846148e-06	9.782697e-10	2.671671e+01	6.919234e+01
2.760000e-06	3.879869e-06	9.853584e-10	2.695095e+01	6.980544e+01
2.770000e-06	3.912943e-06	9.949532e-10	2.718070e+01	7.040582e+01
2.780000e-06	3.945465e-06	1.005460e-09	2.740661e+01	7.099347e+01
2.790000e-06	3.977704e-06	1.015349e-09	2.763055e+01	7.156839e+01
2.800000e-06	4.009622e-06	1.025030e-09	2.785227e+01	7.213060e+01
2.810000e-06	4.041314e-06	1.033177e-09	2.807241e+01	7.268017e+01
2.820000e-06	4.072903e-06	1.039352e-09	2.829184e+01	7.321717e+01
2.830000e-06	4.104316e-06	1.046256e-09	2.851005e+01	7.374169e+01
2.840000e-06	4.135521e-06	1.054307e-09	2.872681e+01	7.425386e+01
2.850000e-06	4.166517e-06	1.061069e-09	2.894211e+01	7.475384e+01
2.860000e-06	4.197235e-06	1.068051e-09	2.915549e+01	7.524180e+01
2.870000e-06	4.227591e-06	1.077745e-09	2.936635e+01	7.571793e+01
2.880000e-06	4.257586e-06	1.086843e-09	2.957471e+01	7.618246e+01
2.890000e-06	4.287375e-06	1.092612e-09	2.978163e+01	7.663562e+01
2.900000e-06	4.316883e-06	1.098380e-09	2.998661e+01	7.707768e+01
