# Temperatura_=_11.51
# Concentracion g/m^3_=_1620.0
# C_Vs_to_Am_M_A/Vsm_=_65563218390.804596
# pendiente_HvsI_1/m_=_3716.3
# ordenada_HvsI_A/m_=_1297.0
# frecuencia_Hz_=_135108.88022857934

Tiempo_(s)	Campo_(V.s)	Magnetizacion_(V.s)	Campo_(kA/m)	Magnetizacion_(A/m)
0.000000e+00	-5.533227e-06	-1.700484e-09	-3.836838e+01	-1.100607e+02
1.000000e-08	-5.533341e-06	-1.704530e-09	-3.836917e+01	-1.100394e+02
2.000000e-08	-5.533196e-06	-1.711296e-09	-3.836816e+01	-1.100172e+02
3.000000e-08	-5.532604e-06	-1.713470e-09	-3.836406e+01	-1.099938e+02
4.000000e-08	-5.531398e-06	-1.709312e-09	-3.835570e+01	-1.099688e+02
5.000000e-08	-5.529632e-06	-1.699177e-09	-3.834345e+01	-1.099417e+02
6.000000e-08	-5.527344e-06	-1.683651e-09	-3.832758e+01	-1.099121e+02
7.000000e-08	-5.524429e-06	-1.685620e-09	-3.830737e+01	-1.098796e+02
8.000000e-08	-5.521025e-06	-1.733493e-09	-3.828376e+01	-1.098436e+02
9.000000e-08	-5.517236e-06	-1.775372e-09	-3.825749e+01	-1.098037e+02
1.000000e-07	-5.513065e-06	-1.744420e-09	-3.822857e+01	-1.097596e+02
1.100000e-07	-5.508652e-06	-1.678514e-09	-3.819797e+01	-1.097107e+02
1.200000e-07	-5.504023e-06	-1.664086e-09	-3.816587e+01	-1.096568e+02
1.300000e-07	-5.499102e-06	-1.683973e-09	-3.813175e+01	-1.095973e+02
1.400000e-07	-5.493800e-06	-1.704726e-09	-3.809498e+01	-1.095320e+02
1.500000e-07	-5.488115e-06	-1.680183e-09	-3.805556e+01	-1.094606e+02
1.600000e-07	-5.482048e-06	-1.703958e-09	-3.801349e+01	-1.093828e+02
1.700000e-07	-5.475539e-06	-1.707542e-09	-3.796836e+01	-1.092983e+02
1.800000e-07	-5.468556e-06	-1.715864e-09	-3.791994e+01	-1.092069e+02
1.900000e-07	-5.461228e-06	-1.692875e-09	-3.786912e+01	-1.091086e+02
2.000000e-07	-5.453707e-06	-1.675551e-09	-3.781697e+01	-1.090032e+02
2.100000e-07	-5.445901e-06	-1.678996e-09	-3.776284e+01	-1.088906e+02
2.200000e-07	-5.437800e-06	-1.696608e-09	-3.770667e+01	-1.087709e+02
2.300000e-07	-5.429384e-06	-1.711278e-09	-3.764831e+01	-1.086440e+02
2.400000e-07	-5.420488e-06	-1.694675e-09	-3.758662e+01	-1.085102e+02
2.500000e-07	-5.410883e-06	-1.684135e-09	-3.752002e+01	-1.083694e+02
2.600000e-07	-5.400502e-06	-1.666657e-09	-3.744804e+01	-1.082219e+02
2.700000e-07	-5.389507e-06	-1.665300e-09	-3.737180e+01	-1.080679e+02
2.800000e-07	-5.378091e-06	-1.652904e-09	-3.729263e+01	-1.079077e+02
2.900000e-07	-5.366335e-06	-1.668942e-09	-3.721112e+01	-1.077414e+02
3.000000e-07	-5.354214e-06	-1.660326e-09	-3.712707e+01	-1.075696e+02
3.100000e-07	-5.341674e-06	-1.655804e-09	-3.704012e+01	-1.073924e+02
3.200000e-07	-5.328690e-06	-1.638342e-09	-3.695008e+01	-1.072103e+02
3.300000e-07	-5.315354e-06	-1.649752e-09	-3.685760e+01	-1.070236e+02
3.400000e-07	-5.301691e-06	-1.627712e-09	-3.676286e+01	-1.068328e+02
3.500000e-07	-5.287578e-06	-1.619360e-09	-3.666501e+01	-1.066382e+02
3.600000e-07	-5.272952e-06	-1.629436e-09	-3.656358e+01	-1.064402e+02
3.700000e-07	-5.257862e-06	-1.641093e-09	-3.645895e+01	-1.062393e+02
3.800000e-07	-5.242148e-06	-1.620139e-09	-3.634999e+01	-1.060359e+02
3.900000e-07	-5.225838e-06	-1.625850e-09	-3.623689e+01	-1.058303e+02
4.000000e-07	-5.209172e-06	-1.632299e-09	-3.612132e+01	-1.056229e+02
4.100000e-07	-5.192263e-06	-1.604100e-09	-3.600407e+01	-1.054140e+02
4.200000e-07	-5.175100e-06	-1.589899e-09	-3.588506e+01	-1.052040e+02
4.300000e-07	-5.157622e-06	-1.622912e-09	-3.576387e+01	-1.049931e+02
4.400000e-07	-5.139838e-06	-1.621993e-09	-3.564055e+01	-1.047817e+02
4.500000e-07	-5.121601e-06	-1.591847e-09	-3.551409e+01	-1.045698e+02
4.600000e-07	-5.102875e-06	-1.608572e-09	-3.538424e+01	-1.043578e+02
4.700000e-07	-5.083744e-06	-1.612703e-09	-3.525158e+01	-1.041458e+02
4.800000e-07	-5.064330e-06	-1.578892e-09	-3.511696e+01	-1.039338e+02
4.900000e-07	-5.044725e-06	-1.578668e-09	-3.498102e+01	-1.037220e+02
5.000000e-07	-5.024912e-06	-1.601819e-09	-3.484363e+01	-1.035102e+02
5.100000e-07	-5.004846e-06	-1.565035e-09	-3.470449e+01	-1.032987e+02
5.200000e-07	-4.984421e-06	-1.556506e-09	-3.456286e+01	-1.030871e+02
5.300000e-07	-4.963595e-06	-1.594554e-09	-3.441845e+01	-1.028756e+02
5.400000e-07	-4.942454e-06	-1.589768e-09	-3.427185e+01	-1.026638e+02
5.500000e-07	-4.920988e-06	-1.551376e-09	-3.412300e+01	-1.024517e+02
5.600000e-07	-4.899198e-06	-1.571128e-09	-3.397191e+01	-1.022389e+02
5.700000e-07	-4.877107e-06	-1.575470e-09	-3.381872e+01	-1.020254e+02
5.800000e-07	-4.854671e-06	-1.547853e-09	-3.366315e+01	-1.018108e+02
5.900000e-07	-4.831873e-06	-1.551924e-09	-3.350506e+01	-1.015948e+02
6.000000e-07	-4.808736e-06	-1.566073e-09	-3.334463e+01	-1.013771e+02
6.100000e-07	-4.785310e-06	-1.532491e-09	-3.318218e+01	-1.011574e+02
6.200000e-07	-4.761645e-06	-1.525944e-09	-3.301809e+01	-1.009354e+02
6.300000e-07	-4.737789e-06	-1.541895e-09	-3.285267e+01	-1.007107e+02
6.400000e-07	-4.713688e-06	-1.533488e-09	-3.268555e+01	-1.004830e+02
6.500000e-07	-4.689162e-06	-1.524071e-09	-3.251548e+01	-1.002519e+02
6.600000e-07	-4.664149e-06	-1.541227e-09	-3.234203e+01	-1.000172e+02
6.700000e-07	-4.638585e-06	-1.532191e-09	-3.216477e+01	-9.977846e+01
6.800000e-07	-4.612359e-06	-1.513331e-09	-3.198291e+01	-9.953548e+01
6.900000e-07	-4.585585e-06	-1.513984e-09	-3.179726e+01	-9.928796e+01
7.000000e-07	-4.558427e-06	-1.511625e-09	-3.160894e+01	-9.903566e+01
7.100000e-07	-4.531027e-06	-1.499458e-09	-3.141895e+01	-9.877835e+01
7.200000e-07	-4.503441e-06	-1.506005e-09	-3.122766e+01	-9.851584e+01
7.300000e-07	-4.475689e-06	-1.513941e-09	-3.103522e+01	-9.824798e+01
7.400000e-07	-4.447804e-06	-1.504377e-09	-3.084186e+01	-9.797465e+01
7.500000e-07	-4.419661e-06	-1.496895e-09	-3.064672e+01	-9.769577e+01
7.600000e-07	-4.391149e-06	-1.491029e-09	-3.044901e+01	-9.741128e+01
7.700000e-07	-4.362311e-06	-1.479068e-09	-3.024904e+01	-9.712117e+01
7.800000e-07	-4.333160e-06	-1.471777e-09	-3.004690e+01	-9.682548e+01
7.900000e-07	-4.303738e-06	-1.476282e-09	-2.984288e+01	-9.652425e+01
8.000000e-07	-4.274027e-06	-1.470965e-09	-2.963686e+01	-9.621760e+01
8.100000e-07	-4.243971e-06	-1.462016e-09	-2.942845e+01	-9.590564e+01
8.200000e-07	-4.213619e-06	-1.457776e-09	-2.921798e+01	-9.558855e+01
8.300000e-07	-4.182940e-06	-1.451793e-09	-2.900525e+01	-9.526649e+01
8.400000e-07	-4.151910e-06	-1.436323e-09	-2.879008e+01	-9.493970e+01
8.500000e-07	-4.120560e-06	-1.435150e-09	-2.857269e+01	-9.460840e+01
8.600000e-07	-4.089055e-06	-1.436035e-09	-2.835423e+01	-9.427284e+01
8.700000e-07	-4.057498e-06	-1.427277e-09	-2.813541e+01	-9.393328e+01
8.800000e-07	-4.025769e-06	-1.416823e-09	-2.791539e+01	-9.359000e+01
8.900000e-07	-3.993785e-06	-1.413683e-09	-2.769361e+01	-9.324328e+01
9.000000e-07	-3.961512e-06	-1.399604e-09	-2.746983e+01	-9.289338e+01
9.100000e-07	-3.928897e-06	-1.385893e-09	-2.724367e+01	-9.254059e+01
9.200000e-07	-3.895944e-06	-1.380928e-09	-2.701517e+01	-9.218517e+01
9.300000e-07	-3.862619e-06	-1.376888e-09	-2.678409e+01	-9.182736e+01
9.400000e-07	-3.828802e-06	-1.366709e-09	-2.654959e+01	-9.146740e+01
9.500000e-07	-3.794410e-06	-1.362433e-09	-2.631111e+01	-9.110549e+01
9.600000e-07	-3.759624e-06	-1.355798e-09	-2.606990e+01	-9.074182e+01
9.700000e-07	-3.724524e-06	-1.343833e-09	-2.582651e+01	-9.037654e+01
9.800000e-07	-3.689125e-06	-1.335441e-09	-2.558105e+01	-9.000978e+01
9.900000e-07	-3.653581e-06	-1.334988e-09	-2.533458e+01	-8.964161e+01
1.000000e-06	-3.617884e-06	-1.330240e-09	-2.508705e+01	-8.927209e+01
1.010000e-06	-3.582073e-06	-1.320152e-09	-2.483873e+01	-8.890123e+01
1.020000e-06	-3.546158e-06	-1.313679e-09	-2.458969e+01	-8.852899e+01
1.030000e-06	-3.510035e-06	-1.306256e-09	-2.433920e+01	-8.815532e+01
1.040000e-06	-3.473647e-06	-1.297143e-09	-2.408689e+01	-8.778009e+01
1.050000e-06	-3.437010e-06	-1.291552e-09	-2.383284e+01	-8.740316e+01
1.060000e-06	-3.400095e-06	-1.287006e-09	-2.357686e+01	-8.702434e+01
1.070000e-06	-3.362867e-06	-1.275784e-09	-2.331872e+01	-8.664339e+01
1.080000e-06	-3.325383e-06	-1.266775e-09	-2.305879e+01	-8.626006e+01
1.090000e-06	-3.287684e-06	-1.259836e-09	-2.279738e+01	-8.587405e+01
1.100000e-06	-3.249794e-06	-1.251760e-09	-2.253465e+01	-8.548502e+01
1.110000e-06	-3.211645e-06	-1.241325e-09	-2.227012e+01	-8.509264e+01
1.120000e-06	-3.173242e-06	-1.232594e-09	-2.200382e+01	-8.469652e+01
1.130000e-06	-3.134619e-06	-1.223940e-09	-2.173600e+01	-8.429627e+01
1.140000e-06	-3.095773e-06	-1.217189e-09	-2.146664e+01	-8.389147e+01
1.150000e-06	-3.056826e-06	-1.213742e-09	-2.119657e+01	-8.348173e+01
1.160000e-06	-3.017746e-06	-1.209974e-09	-2.092558e+01	-8.306659e+01
1.170000e-06	-2.978479e-06	-1.201086e-09	-2.065330e+01	-8.264566e+01
1.180000e-06	-2.939050e-06	-1.194069e-09	-2.037989e+01	-8.221850e+01
1.190000e-06	-2.899452e-06	-1.185396e-09	-2.010531e+01	-8.178471e+01
1.200000e-06	-2.859678e-06	-1.173797e-09	-1.982951e+01	-8.134389e+01
1.210000e-06	-2.819732e-06	-1.161028e-09	-1.955252e+01	-8.089566e+01
1.220000e-06	-2.779624e-06	-1.152773e-09	-1.927441e+01	-8.043967e+01
1.230000e-06	-2.739390e-06	-1.145205e-09	-1.899541e+01	-7.997558e+01
1.240000e-06	-2.699010e-06	-1.136721e-09	-1.871541e+01	-7.950310e+01
1.250000e-06	-2.658354e-06	-1.129928e-09	-1.843350e+01	-7.902195e+01
1.260000e-06	-2.617297e-06	-1.124243e-09	-1.814880e+01	-7.853189e+01
1.270000e-06	-2.575914e-06	-1.116014e-09	-1.786185e+01	-7.803272e+01
1.280000e-06	-2.534392e-06	-1.105339e-09	-1.757392e+01	-7.752428e+01
1.290000e-06	-2.492578e-06	-1.097528e-09	-1.728398e+01	-7.700643e+01
1.300000e-06	-2.450448e-06	-1.091191e-09	-1.699184e+01	-7.647909e+01
1.310000e-06	-2.408029e-06	-1.083603e-09	-1.669770e+01	-7.594219e+01
1.320000e-06	-2.365280e-06	-1.074116e-09	-1.640127e+01	-7.539571e+01
1.330000e-06	-2.322289e-06	-1.064543e-09	-1.610316e+01	-7.483966e+01
1.340000e-06	-2.279065e-06	-1.055712e-09	-1.580344e+01	-7.427407e+01
1.350000e-06	-2.235731e-06	-1.049369e-09	-1.550295e+01	-7.369900e+01
1.360000e-06	-2.192305e-06	-1.045592e-09	-1.520183e+01	-7.311453e+01
1.370000e-06	-2.148751e-06	-1.039366e-09	-1.489982e+01	-7.252075e+01
1.380000e-06	-2.105117e-06	-1.028894e-09	-1.459726e+01	-7.191778e+01
1.390000e-06	-2.061396e-06	-1.014519e-09	-1.429409e+01	-7.130572e+01
1.400000e-06	-2.017541e-06	-9.968612e-10	-1.398999e+01	-7.068467e+01
1.410000e-06	-1.973553e-06	-9.833602e-10	-1.368497e+01	-7.005475e+01
1.420000e-06	-1.929479e-06	-9.740863e-10	-1.337935e+01	-6.941604e+01
1.430000e-06	-1.885349e-06	-9.669472e-10	-1.307335e+01	-6.876859e+01
1.440000e-06	-1.841128e-06	-9.600410e-10	-1.276671e+01	-6.811246e+01
1.450000e-06	-1.796758e-06	-9.510597e-10	-1.245904e+01	-6.744762e+01
1.460000e-06	-1.752272e-06	-9.375190e-10	-1.215056e+01	-6.677405e+01
1.470000e-06	-1.707687e-06	-9.215056e-10	-1.184141e+01	-6.609166e+01
1.480000e-06	-1.663006e-06	-9.080042e-10	-1.153158e+01	-6.540028e+01
1.490000e-06	-1.618115e-06	-8.973732e-10	-1.122030e+01	-6.469972e+01
1.500000e-06	-1.572971e-06	-8.839542e-10	-1.090726e+01	-6.398971e+01
1.510000e-06	-1.527702e-06	-8.692876e-10	-1.059336e+01	-6.326989e+01
1.520000e-06	-1.482399e-06	-8.558701e-10	-1.027922e+01	-6.253985e+01
1.530000e-06	-1.437078e-06	-8.438684e-10	-9.964953e+00	-6.179908e+01
1.540000e-06	-1.391699e-06	-8.338037e-10	-9.650284e+00	-6.104700e+01
1.550000e-06	-1.346189e-06	-8.244880e-10	-9.334714e+00	-6.028295e+01
1.560000e-06	-1.300559e-06	-8.112771e-10	-9.018307e+00	-5.950618e+01
1.570000e-06	-1.254874e-06	-7.963922e-10	-8.701517e+00	-5.871585e+01
1.580000e-06	-1.209075e-06	-7.823122e-10	-8.383943e+00	-5.791105e+01
1.590000e-06	-1.163153e-06	-7.657663e-10	-8.065510e+00	-5.709079e+01
1.600000e-06	-1.117144e-06	-7.461931e-10	-7.746476e+00	-5.625398e+01
1.610000e-06	-1.071032e-06	-7.293225e-10	-7.426722e+00	-5.539949e+01
1.620000e-06	-1.024874e-06	-7.179205e-10	-7.106657e+00	-5.452609e+01
1.630000e-06	-9.786581e-07	-7.073470e-10	-6.786189e+00	-5.363252e+01
1.640000e-06	-9.323507e-07	-6.956424e-10	-6.465085e+00	-5.271744e+01
1.650000e-06	-8.859747e-07	-6.836335e-10	-6.143505e+00	-5.177947e+01
1.660000e-06	-8.394782e-07	-6.703366e-10	-5.821091e+00	-5.081722e+01
1.670000e-06	-7.929183e-07	-6.525963e-10	-5.498236e+00	-4.982924e+01
1.680000e-06	-7.464534e-07	-6.350013e-10	-5.176040e+00	-4.881408e+01
1.690000e-06	-6.999536e-07	-6.190176e-10	-4.853603e+00	-4.777027e+01
1.700000e-06	-6.533344e-07	-6.007086e-10	-4.530336e+00	-4.669639e+01
1.710000e-06	-6.066993e-07	-5.810791e-10	-4.206960e+00	-4.559099e+01
1.720000e-06	-5.599568e-07	-5.619229e-10	-3.882839e+00	-4.445268e+01
1.730000e-06	-5.131120e-07	-5.424723e-10	-3.558010e+00	-4.328012e+01
1.740000e-06	-4.662232e-07	-5.252372e-10	-3.232875e+00	-4.207202e+01
1.750000e-06	-4.193322e-07	-5.094347e-10	-2.907724e+00	-4.082717e+01
1.760000e-06	-3.725343e-07	-4.923632e-10	-2.583219e+00	-3.954443e+01
1.770000e-06	-3.257717e-07	-4.751237e-10	-2.258958e+00	-3.822278e+01
1.780000e-06	-2.788907e-07	-4.577957e-10	-1.933878e+00	-3.686130e+01
1.790000e-06	-2.318554e-07	-4.379777e-10	-1.607726e+00	-3.545919e+01
1.800000e-06	-1.848747e-07	-4.172796e-10	-1.281954e+00	-3.401581e+01
1.810000e-06	-1.379879e-07	-3.972439e-10	-9.568327e-01	-3.253063e+01
1.820000e-06	-9.100079e-08	-3.769089e-10	-6.310156e-01	-3.100329e+01
1.830000e-06	-4.393750e-08	-3.554462e-10	-3.046704e-01	-2.943361e+01
1.840000e-06	3.084558e-09	-3.344359e-10	2.138887e-02	-2.782154e+01
1.850000e-06	5.011497e-08	-3.153257e-10	3.475061e-01	-2.616726e+01
1.860000e-06	9.717659e-08	-2.962213e-10	6.738397e-01	-2.447109e+01
1.870000e-06	1.441748e-07	-2.735613e-10	9.997339e-01	-2.273356e+01
1.880000e-06	1.910943e-07	-2.474546e-10	1.325082e+00	-2.095539e+01
1.890000e-06	2.379747e-07	-2.196454e-10	1.650158e+00	-1.913746e+01
1.900000e-06	2.849201e-07	-1.911329e-10	1.975687e+00	-1.728089e+01
1.910000e-06	3.319415e-07	-1.628664e-10	2.301741e+00	-1.538694e+01
1.920000e-06	3.789391e-07	-1.339475e-10	2.627631e+00	-1.345709e+01
1.930000e-06	4.258536e-07	-1.059995e-10	2.952944e+00	-1.149299e+01
1.940000e-06	4.725740e-07	-8.080074e-11	3.276912e+00	-9.496453e+00
1.950000e-06	5.191276e-07	-5.671093e-11	3.599723e+00	-7.469475e+00
1.960000e-06	5.657028e-07	-2.969339e-11	3.922684e+00	-5.414204e+00
1.970000e-06	6.122426e-07	-9.554862e-13	4.245399e+00	-3.332936e+00
1.980000e-06	6.587091e-07	2.758066e-11	4.567606e+00	-1.228104e+00
1.990000e-06	7.052131e-07	5.852642e-11	4.890072e+00	8.977324e-01
2.000000e-06	7.517569e-07	9.203954e-11	5.212816e+00	3.041904e+00
2.010000e-06	7.982855e-07	1.251323e-10	5.535453e+00	5.201643e+00
2.020000e-06	8.447206e-07	1.569195e-10	5.857442e+00	7.374099e+00
2.030000e-06	8.909632e-07	1.873549e-10	6.178097e+00	9.556358e+00
2.040000e-06	9.370925e-07	2.150849e-10	6.497965e+00	1.174545e+01
2.050000e-06	9.832263e-07	2.421291e-10	6.817865e+00	1.393838e+01
2.060000e-06	1.029288e-06	2.710212e-10	7.137266e+00	1.613212e+01
2.070000e-06	1.075263e-06	3.015688e-10	7.456067e+00	1.832366e+01
2.080000e-06	1.121140e-06	3.322236e-10	7.774185e+00	2.051000e+01
2.090000e-06	1.166945e-06	3.628159e-10	8.091806e+00	2.268816e+01
2.100000e-06	1.212733e-06	3.947237e-10	8.409308e+00	2.485523e+01
2.110000e-06	1.258445e-06	4.260069e-10	8.726282e+00	2.700836e+01
2.120000e-06	1.304018e-06	4.555899e-10	9.042291e+00	2.914477e+01
2.130000e-06	1.349517e-06	4.836554e-10	9.357788e+00	3.126178e+01
2.140000e-06	1.394950e-06	5.102272e-10	9.672833e+00	3.335682e+01
2.150000e-06	1.440250e-06	5.358487e-10	9.986950e+00	3.542745e+01
2.160000e-06	1.485407e-06	5.617129e-10	1.030008e+01	3.747136e+01
2.170000e-06	1.530512e-06	5.891601e-10	1.061284e+01	3.948636e+01
2.180000e-06	1.575639e-06	6.184100e-10	1.092576e+01	4.147044e+01
2.190000e-06	1.620658e-06	6.475139e-10	1.123793e+01	4.342174e+01
2.200000e-06	1.665521e-06	6.766822e-10	1.154902e+01	4.533858e+01
2.210000e-06	1.710229e-06	7.051134e-10	1.185903e+01	4.721944e+01
2.220000e-06	1.754768e-06	7.297082e-10	1.216788e+01	4.906298e+01
2.230000e-06	1.799137e-06	7.507610e-10	1.247554e+01	5.086803e+01
2.240000e-06	1.843353e-06	7.694450e-10	1.278214e+01	5.263363e+01
2.250000e-06	1.887400e-06	7.867683e-10	1.308757e+01	5.435896e+01
2.260000e-06	1.931321e-06	8.067185e-10	1.339212e+01	5.604342e+01
2.270000e-06	1.975190e-06	8.318076e-10	1.369632e+01	5.768654e+01
2.280000e-06	2.018996e-06	8.575793e-10	1.400008e+01	5.928807e+01
2.290000e-06	2.062738e-06	8.827412e-10	1.430339e+01	6.084788e+01
2.300000e-06	2.106408e-06	9.070700e-10	1.460620e+01	6.236603e+01
2.310000e-06	2.149972e-06	9.293293e-10	1.490829e+01	6.384273e+01
2.320000e-06	2.193452e-06	9.463042e-10	1.520978e+01	6.527830e+01
2.330000e-06	2.236936e-06	9.582366e-10	1.551131e+01	6.667324e+01
2.340000e-06	2.280340e-06	9.721291e-10	1.581229e+01	6.802813e+01
2.350000e-06	2.323556e-06	9.881010e-10	1.611195e+01	6.934369e+01
2.360000e-06	2.366540e-06	1.007731e-09	1.641001e+01	7.062072e+01
2.370000e-06	2.409241e-06	1.029207e-09	1.670611e+01	7.186014e+01
2.380000e-06	2.451604e-06	1.049528e-09	1.699985e+01	7.306290e+01
2.390000e-06	2.493692e-06	1.066965e-09	1.729170e+01	7.423005e+01
2.400000e-06	2.535606e-06	1.080822e-09	1.758234e+01	7.536268e+01
2.410000e-06	2.577260e-06	1.092737e-09	1.787118e+01	7.646192e+01
2.420000e-06	2.618547e-06	1.104716e-09	1.815747e+01	7.752893e+01
2.430000e-06	2.659472e-06	1.117290e-09	1.844125e+01	7.856487e+01
2.440000e-06	2.700101e-06	1.132964e-09	1.872298e+01	7.957094e+01
2.450000e-06	2.740555e-06	1.150264e-09	1.900350e+01	8.054829e+01
2.460000e-06	2.780823e-06	1.166894e-09	1.928272e+01	8.149809e+01
2.470000e-06	2.820848e-06	1.182482e-09	1.956026e+01	8.242146e+01
2.480000e-06	2.860683e-06	1.195813e-09	1.983649e+01	8.331951e+01
2.490000e-06	2.900421e-06	1.206613e-09	2.011203e+01	8.419329e+01
2.500000e-06	2.940038e-06	1.215218e-09	2.038674e+01	8.504381e+01
2.510000e-06	2.979499e-06	1.226795e-09	2.066038e+01	8.587203e+01
2.520000e-06	3.018883e-06	1.238762e-09	2.093347e+01	8.667883e+01
2.530000e-06	3.058063e-06	1.252507e-09	2.120515e+01	8.746506e+01
2.540000e-06	3.097041e-06	1.268394e-09	2.147543e+01	8.823147e+01
2.550000e-06	3.135820e-06	1.279686e-09	2.174433e+01	8.897878e+01
2.560000e-06	3.174292e-06	1.283810e-09	2.201110e+01	8.970762e+01
2.570000e-06	3.212465e-06	1.285956e-09	2.227580e+01	9.041854e+01
2.580000e-06	3.250378e-06	1.291164e-09	2.253870e+01	9.111206e+01
2.590000e-06	3.288139e-06	1.300413e-09	2.280054e+01	9.178860e+01
2.600000e-06	3.325767e-06	1.315272e-09	2.306146e+01	9.244853e+01
2.610000e-06	3.363188e-06	1.332881e-09	2.332094e+01	9.309216e+01
2.620000e-06	3.400293e-06	1.347219e-09	2.357823e+01	9.371976e+01
2.630000e-06	3.437103e-06	1.356282e-09	2.383348e+01	9.433153e+01
2.640000e-06	3.473688e-06	1.361323e-09	2.408717e+01	9.492762e+01
2.650000e-06	3.510002e-06	1.363851e-09	2.433897e+01	9.550818e+01
2.660000e-06	3.546151e-06	1.366593e-09	2.458964e+01	9.607327e+01
2.670000e-06	3.582178e-06	1.372409e-09	2.483946e+01	9.662297e+01
2.680000e-06	3.617985e-06	1.380261e-09	2.508775e+01	9.715731e+01
2.690000e-06	3.653614e-06	1.390233e-09	2.533481e+01	9.767633e+01
2.700000e-06	3.689086e-06	1.400903e-09	2.558078e+01	9.818004e+01
2.710000e-06	3.724372e-06	1.407794e-09	2.582546e+01	9.866845e+01
2.720000e-06	3.759447e-06	1.410937e-09	2.606867e+01	9.914160e+01
2.730000e-06	3.794241e-06	1.413860e-09	2.630994e+01	9.959950e+01
2.740000e-06	3.828619e-06	1.417677e-09	2.654833e+01	1.000422e+02
2.750000e-06	3.862513e-06	1.421505e-09	2.678335e+01	1.004698e+02
2.760000e-06	3.895942e-06	1.426938e-09	2.701515e+01	1.008823e+02
2.770000e-06	3.928894e-06	1.434750e-09	2.724365e+01	1.012800e+02
2.780000e-06	3.961418e-06	1.443283e-09	2.746918e+01	1.016628e+02
2.790000e-06	3.993616e-06	1.452121e-09	2.769244e+01	1.020311e+02
2.800000e-06	4.025558e-06	1.460455e-09	2.791394e+01	1.023850e+02
2.810000e-06	4.057346e-06	1.465522e-09	2.813435e+01	1.027249e+02
2.820000e-06	4.089040e-06	1.467250e-09	2.835413e+01	1.030509e+02
2.830000e-06	4.120538e-06	1.468876e-09	2.857254e+01	1.033635e+02
2.840000e-06	4.151795e-06	1.473351e-09	2.878928e+01	1.036630e+02
2.850000e-06	4.182796e-06	1.481196e-09	2.900425e+01	1.039499e+02
2.860000e-06	4.213483e-06	1.490829e-09	2.921704e+01	1.042245e+02
2.870000e-06	4.243835e-06	1.498944e-09	2.942750e+01	1.044874e+02
2.880000e-06	4.273889e-06	1.503623e-09	2.963591e+01	1.047391e+02
2.890000e-06	4.303634e-06	1.506445e-09	2.984216e+01	1.049801e+02
2.900000e-06	4.333060e-06	1.509854e-09	3.004621e+01	1.052110e+02
