# Temperatura_=_-1.66
# Concentracion g/m^3_=_1620.0
# C_Vs_to_Am_M_A/Vsm_=_65563218390.804596
# pendiente_HvsI_1/m_=_3716.3
# ordenada_HvsI_A/m_=_1297.0
# frecuencia_Hz_=_135111.31166101724

Tiempo_(s)	Campo_(V.s)	Magnetizacion_(V.s)	Campo_(kA/m)	Magnetizacion_(A/m)
0.000000e+00	-5.518254e-06	-1.434123e-09	-3.837175e+01	-9.250369e+01
1.000000e-08	-5.518408e-06	-1.430684e-09	-3.837282e+01	-9.249044e+01
2.000000e-08	-5.518263e-06	-1.430159e-09	-3.837181e+01	-9.247533e+01
3.000000e-08	-5.517734e-06	-1.431414e-09	-3.836814e+01	-9.245798e+01
4.000000e-08	-5.516694e-06	-1.431863e-09	-3.836090e+01	-9.243799e+01
5.000000e-08	-5.515100e-06	-1.427314e-09	-3.834982e+01	-9.241495e+01
6.000000e-08	-5.513015e-06	-1.419608e-09	-3.833532e+01	-9.238846e+01
7.000000e-08	-5.510398e-06	-1.432359e-09	-3.831712e+01	-9.235810e+01
8.000000e-08	-5.507227e-06	-1.480637e-09	-3.829508e+01	-9.232350e+01
9.000000e-08	-5.503635e-06	-1.494825e-09	-3.827010e+01	-9.228425e+01
1.000000e-07	-5.499569e-06	-1.397040e-09	-3.824182e+01	-9.224000e+01
1.100000e-07	-5.495118e-06	-1.299476e-09	-3.821088e+01	-9.219041e+01
1.200000e-07	-5.490582e-06	-1.383700e-09	-3.817933e+01	-9.213515e+01
1.300000e-07	-5.485793e-06	-1.483705e-09	-3.814603e+01	-9.207395e+01
1.400000e-07	-5.480433e-06	-1.440976e-09	-3.810876e+01	-9.200654e+01
1.500000e-07	-5.474690e-06	-1.350383e-09	-3.806883e+01	-9.193273e+01
1.600000e-07	-5.468821e-06	-1.415315e-09	-3.802801e+01	-9.185234e+01
1.700000e-07	-5.462591e-06	-1.524311e-09	-3.798469e+01	-9.176524e+01
1.800000e-07	-5.455734e-06	-1.439072e-09	-3.793701e+01	-9.167137e+01
1.900000e-07	-5.448496e-06	-1.342556e-09	-3.788668e+01	-9.157067e+01
2.000000e-07	-5.441098e-06	-1.360719e-09	-3.783524e+01	-9.146319e+01
2.100000e-07	-5.433401e-06	-1.476696e-09	-3.778172e+01	-9.134898e+01
2.200000e-07	-5.425365e-06	-1.447175e-09	-3.772584e+01	-9.122818e+01
2.300000e-07	-5.417063e-06	-1.388794e-09	-3.766811e+01	-9.110094e+01
2.400000e-07	-5.408297e-06	-1.371348e-09	-3.760715e+01	-9.096748e+01
2.500000e-07	-5.398707e-06	-1.428699e-09	-3.754047e+01	-9.082808e+01
2.600000e-07	-5.388428e-06	-1.401457e-09	-3.746899e+01	-9.068305e+01
2.700000e-07	-5.377837e-06	-1.354428e-09	-3.739535e+01	-9.053273e+01
2.800000e-07	-5.366786e-06	-1.352089e-09	-3.731850e+01	-9.037752e+01
2.900000e-07	-5.355188e-06	-1.394345e-09	-3.723785e+01	-9.021784e+01
3.000000e-07	-5.343180e-06	-1.385417e-09	-3.715436e+01	-9.005415e+01
3.100000e-07	-5.330816e-06	-1.346239e-09	-3.706838e+01	-8.988693e+01
3.200000e-07	-5.318001e-06	-1.365701e-09	-3.697927e+01	-8.971669e+01
3.300000e-07	-5.304771e-06	-1.395153e-09	-3.688728e+01	-8.954393e+01
3.400000e-07	-5.291252e-06	-1.382375e-09	-3.679327e+01	-8.936920e+01
3.500000e-07	-5.277301e-06	-1.326640e-09	-3.669626e+01	-8.919303e+01
3.600000e-07	-5.262895e-06	-1.362539e-09	-3.659609e+01	-8.901594e+01
3.700000e-07	-5.248065e-06	-1.387576e-09	-3.649297e+01	-8.883847e+01
3.800000e-07	-5.232700e-06	-1.357310e-09	-3.638612e+01	-8.866112e+01
3.900000e-07	-5.216659e-06	-1.330998e-09	-3.627458e+01	-8.848440e+01
4.000000e-07	-5.200234e-06	-1.393957e-09	-3.616037e+01	-8.830876e+01
4.100000e-07	-5.183609e-06	-1.361577e-09	-3.604476e+01	-8.813466e+01
4.200000e-07	-5.166497e-06	-1.301828e-09	-3.592577e+01	-8.796251e+01
4.300000e-07	-5.149033e-06	-1.347361e-09	-3.580433e+01	-8.779268e+01
4.400000e-07	-5.131300e-06	-1.411868e-09	-3.568103e+01	-8.762549e+01
4.500000e-07	-5.113150e-06	-1.323652e-09	-3.555482e+01	-8.746123e+01
4.600000e-07	-5.094550e-06	-1.308416e-09	-3.542548e+01	-8.730014e+01
4.700000e-07	-5.075599e-06	-1.384493e-09	-3.529370e+01	-8.714241e+01
4.800000e-07	-5.056380e-06	-1.362512e-09	-3.516006e+01	-8.698815e+01
4.900000e-07	-5.036877e-06	-1.281564e-09	-3.502445e+01	-8.683746e+01
5.000000e-07	-5.017159e-06	-1.336502e-09	-3.488734e+01	-8.669035e+01
5.100000e-07	-4.997238e-06	-1.349197e-09	-3.474881e+01	-8.654679e+01
5.200000e-07	-4.976974e-06	-1.285941e-09	-3.460791e+01	-8.640670e+01
5.300000e-07	-4.956297e-06	-1.322626e-09	-3.446413e+01	-8.626992e+01
5.400000e-07	-4.935287e-06	-1.383622e-09	-3.431803e+01	-8.613628e+01
5.500000e-07	-4.913946e-06	-1.305842e-09	-3.416963e+01	-8.600551e+01
5.600000e-07	-4.892316e-06	-1.284363e-09	-3.401923e+01	-8.587735e+01
5.700000e-07	-4.870399e-06	-1.359138e-09	-3.386682e+01	-8.575145e+01
5.800000e-07	-4.848121e-06	-1.329317e-09	-3.371191e+01	-8.562744e+01
5.900000e-07	-4.825426e-06	-1.267994e-09	-3.355410e+01	-8.550492e+01
6.000000e-07	-4.802371e-06	-1.313019e-09	-3.339379e+01	-8.538345e+01
6.100000e-07	-4.779034e-06	-1.322039e-09	-3.323151e+01	-8.526257e+01
6.200000e-07	-4.755435e-06	-1.262503e-09	-3.306741e+01	-8.514180e+01
6.300000e-07	-4.731634e-06	-1.286923e-09	-3.290191e+01	-8.502064e+01
6.400000e-07	-4.707564e-06	-1.319853e-09	-3.273453e+01	-8.489859e+01
6.500000e-07	-4.683073e-06	-1.288401e-09	-3.256423e+01	-8.477514e+01
6.600000e-07	-4.658048e-06	-1.284089e-09	-3.239022e+01	-8.464979e+01
6.700000e-07	-4.632537e-06	-1.315194e-09	-3.221282e+01	-8.452205e+01
6.800000e-07	-4.606533e-06	-1.282259e-09	-3.203201e+01	-8.439143e+01
6.900000e-07	-4.580051e-06	-1.264117e-09	-3.184786e+01	-8.425747e+01
7.000000e-07	-4.553212e-06	-1.279796e-09	-3.166123e+01	-8.411973e+01
7.100000e-07	-4.526009e-06	-1.274346e-09	-3.147207e+01	-8.397781e+01
7.200000e-07	-4.498530e-06	-1.256058e-09	-3.128100e+01	-8.383133e+01
7.300000e-07	-4.470868e-06	-1.279892e-09	-3.108864e+01	-8.367996e+01
7.400000e-07	-4.442991e-06	-1.279075e-09	-3.089480e+01	-8.352338e+01
7.500000e-07	-4.414839e-06	-1.259964e-09	-3.069904e+01	-8.336136e+01
7.600000e-07	-4.386373e-06	-1.259144e-09	-3.050110e+01	-8.319368e+01
7.700000e-07	-4.357644e-06	-1.263763e-09	-3.030133e+01	-8.302017e+01
7.800000e-07	-4.328639e-06	-1.242842e-09	-3.009964e+01	-8.284074e+01
7.900000e-07	-4.299348e-06	-1.244400e-09	-2.989596e+01	-8.265530e+01
8.000000e-07	-4.269806e-06	-1.247598e-09	-2.969054e+01	-8.246384e+01
8.100000e-07	-4.239905e-06	-1.233545e-09	-2.948262e+01	-8.226639e+01
8.200000e-07	-4.209683e-06	-1.225971e-09	-2.927247e+01	-8.206304e+01
8.300000e-07	-4.179207e-06	-1.239634e-09	-2.906055e+01	-8.185389e+01
8.400000e-07	-4.148446e-06	-1.231884e-09	-2.884665e+01	-8.163911e+01
8.500000e-07	-4.117389e-06	-1.224108e-09	-2.863069e+01	-8.141891e+01
8.600000e-07	-4.086091e-06	-1.235237e-09	-2.841306e+01	-8.119350e+01
8.700000e-07	-4.054609e-06	-1.230787e-09	-2.819414e+01	-8.096317e+01
8.800000e-07	-4.022962e-06	-1.211290e-09	-2.797408e+01	-8.072820e+01
8.900000e-07	-3.991105e-06	-1.207209e-09	-2.775256e+01	-8.048890e+01
9.000000e-07	-3.958935e-06	-1.205718e-09	-2.752886e+01	-8.024560e+01
9.100000e-07	-3.926412e-06	-1.188740e-09	-2.730271e+01	-7.999865e+01
9.200000e-07	-3.893520e-06	-1.188457e-09	-2.707400e+01	-7.974839e+01
9.300000e-07	-3.860305e-06	-1.196542e-09	-2.684303e+01	-7.949516e+01
9.400000e-07	-3.826609e-06	-1.186856e-09	-2.660872e+01	-7.923931e+01
9.500000e-07	-3.792409e-06	-1.175278e-09	-2.637091e+01	-7.898116e+01
9.600000e-07	-3.757899e-06	-1.180741e-09	-2.613094e+01	-7.872105e+01
9.700000e-07	-3.723024e-06	-1.172739e-09	-2.588843e+01	-7.845925e+01
9.800000e-07	-3.687812e-06	-1.161902e-09	-2.564358e+01	-7.819604e+01
9.900000e-07	-3.652387e-06	-1.163540e-09	-2.539725e+01	-7.793166e+01
1.000000e-06	-3.616753e-06	-1.167763e-09	-2.514947e+01	-7.766632e+01
1.010000e-06	-3.580939e-06	-1.154384e-09	-2.490043e+01	-7.740019e+01
1.020000e-06	-3.544997e-06	-1.152426e-09	-2.465051e+01	-7.713339e+01
1.030000e-06	-3.508867e-06	-1.153950e-09	-2.439927e+01	-7.686603e+01
1.040000e-06	-3.472454e-06	-1.146493e-09	-2.414607e+01	-7.659813e+01
1.050000e-06	-3.435774e-06	-1.138084e-09	-2.389101e+01	-7.632970e+01
1.060000e-06	-3.398892e-06	-1.141644e-09	-2.363455e+01	-7.606069e+01
1.070000e-06	-3.361784e-06	-1.135858e-09	-2.337651e+01	-7.579101e+01
1.080000e-06	-3.324415e-06	-1.126221e-09	-2.311667e+01	-7.552051e+01
1.090000e-06	-3.286785e-06	-1.120593e-09	-2.285500e+01	-7.524900e+01
1.100000e-06	-3.248959e-06	-1.114225e-09	-2.259198e+01	-7.497627e+01
1.110000e-06	-3.210925e-06	-1.100153e-09	-2.232750e+01	-7.470203e+01
1.120000e-06	-3.172661e-06	-1.091386e-09	-2.206143e+01	-7.442599e+01
1.130000e-06	-3.134228e-06	-1.086974e-09	-2.179418e+01	-7.414778e+01
1.140000e-06	-3.095533e-06	-1.082110e-09	-2.152511e+01	-7.386705e+01
1.150000e-06	-3.056578e-06	-1.082209e-09	-2.125423e+01	-7.358339e+01
1.160000e-06	-3.017463e-06	-1.085931e-09	-2.098224e+01	-7.329638e+01
1.170000e-06	-2.978250e-06	-1.082568e-09	-2.070957e+01	-7.300557e+01
1.180000e-06	-2.938856e-06	-1.073298e-09	-2.043564e+01	-7.271050e+01
1.190000e-06	-2.899226e-06	-1.066048e-09	-2.016007e+01	-7.241072e+01
1.200000e-06	-2.859466e-06	-1.053293e-09	-1.988359e+01	-7.210576e+01
1.210000e-06	-2.819574e-06	-1.036690e-09	-1.960620e+01	-7.179515e+01
1.220000e-06	-2.779573e-06	-1.026555e-09	-1.932805e+01	-7.147844e+01
1.230000e-06	-2.739448e-06	-1.025945e-09	-1.904904e+01	-7.115519e+01
1.240000e-06	-2.699096e-06	-1.023033e-09	-1.876844e+01	-7.082496e+01
1.250000e-06	-2.658484e-06	-1.022978e-09	-1.848605e+01	-7.048736e+01
1.260000e-06	-2.617634e-06	-1.022813e-09	-1.820199e+01	-7.014199e+01
1.270000e-06	-2.576453e-06	-1.016960e-09	-1.791564e+01	-6.978852e+01
1.280000e-06	-2.534885e-06	-1.003191e-09	-1.762659e+01	-6.942661e+01
1.290000e-06	-2.493140e-06	-9.904994e-10	-1.733631e+01	-6.905598e+01
1.300000e-06	-2.451235e-06	-9.789273e-10	-1.704492e+01	-6.867639e+01
1.310000e-06	-2.408959e-06	-9.701220e-10	-1.675095e+01	-6.828762e+01
1.320000e-06	-2.366337e-06	-9.649622e-10	-1.645457e+01	-6.788949e+01
1.330000e-06	-2.323519e-06	-9.625901e-10	-1.615683e+01	-6.748186e+01
1.340000e-06	-2.280545e-06	-9.575452e-10	-1.585801e+01	-6.706465e+01
1.350000e-06	-2.237391e-06	-9.525486e-10	-1.555793e+01	-6.663778e+01
1.360000e-06	-2.194082e-06	-9.470375e-10	-1.525678e+01	-6.620121e+01
1.370000e-06	-2.150635e-06	-9.391053e-10	-1.495467e+01	-6.575496e+01
1.380000e-06	-2.107032e-06	-9.288896e-10	-1.465146e+01	-6.529905e+01
1.390000e-06	-2.063324e-06	-9.198955e-10	-1.434754e+01	-6.483353e+01
1.400000e-06	-2.019609e-06	-9.086015e-10	-1.404356e+01	-6.435846e+01
1.410000e-06	-1.975864e-06	-8.969727e-10	-1.373938e+01	-6.387392e+01
1.420000e-06	-1.931948e-06	-8.877931e-10	-1.343400e+01	-6.338001e+01
1.430000e-06	-1.887887e-06	-8.802294e-10	-1.312762e+01	-6.287681e+01
1.440000e-06	-1.843745e-06	-8.731347e-10	-1.282067e+01	-6.236441e+01
1.450000e-06	-1.799520e-06	-8.660201e-10	-1.251315e+01	-6.184288e+01
1.460000e-06	-1.755142e-06	-8.616407e-10	-1.220456e+01	-6.131228e+01
1.470000e-06	-1.710595e-06	-8.575037e-10	-1.189480e+01	-6.077263e+01
1.480000e-06	-1.665962e-06	-8.507953e-10	-1.158444e+01	-6.022392e+01
1.490000e-06	-1.621199e-06	-8.409874e-10	-1.127317e+01	-5.966613e+01
1.500000e-06	-1.576299e-06	-8.260633e-10	-1.096096e+01	-5.909915e+01
1.510000e-06	-1.531240e-06	-8.096668e-10	-1.064764e+01	-5.852286e+01
1.520000e-06	-1.486044e-06	-7.964627e-10	-1.033336e+01	-5.793705e+01
1.530000e-06	-1.440787e-06	-7.845288e-10	-1.001866e+01	-5.734146e+01
1.540000e-06	-1.395465e-06	-7.744436e-10	-9.703510e+00	-5.673577e+01
1.550000e-06	-1.350050e-06	-7.667637e-10	-9.387712e+00	-5.611959e+01
1.560000e-06	-1.304537e-06	-7.595696e-10	-9.071230e+00	-5.549243e+01
1.570000e-06	-1.258953e-06	-7.483035e-10	-8.754260e+00	-5.485374e+01
1.580000e-06	-1.213262e-06	-7.369617e-10	-8.436544e+00	-5.420291e+01
1.590000e-06	-1.167446e-06	-7.235252e-10	-8.117960e+00	-5.353921e+01
1.600000e-06	-1.121513e-06	-7.065895e-10	-7.798556e+00	-5.286187e+01
1.610000e-06	-1.075525e-06	-6.910801e-10	-7.478773e+00	-5.217001e+01
1.620000e-06	-1.029527e-06	-6.773566e-10	-7.158922e+00	-5.146269e+01
1.630000e-06	-9.834234e-07	-6.656024e-10	-6.838336e+00	-5.073889e+01
1.640000e-06	-9.372487e-07	-6.561503e-10	-6.517256e+00	-4.999754e+01
1.650000e-06	-8.910588e-07	-6.472608e-10	-6.196070e+00	-4.923748e+01
1.660000e-06	-8.447709e-07	-6.401045e-10	-5.874202e+00	-4.845751e+01
1.670000e-06	-7.984782e-07	-6.309129e-10	-5.552301e+00	-4.765638e+01
1.680000e-06	-7.522046e-07	-6.179287e-10	-5.230533e+00	-4.683278e+01
1.690000e-06	-7.058423e-07	-6.021575e-10	-4.908147e+00	-4.598540e+01
1.700000e-06	-6.593655e-07	-5.840783e-10	-4.584967e+00	-4.511288e+01
1.710000e-06	-6.128252e-07	-5.637756e-10	-4.261344e+00	-4.421387e+01
1.720000e-06	-5.663275e-07	-5.459100e-10	-3.938017e+00	-4.328698e+01
1.730000e-06	-5.198454e-07	-5.307723e-10	-3.614799e+00	-4.233088e+01
1.740000e-06	-4.732636e-07	-5.184332e-10	-3.290887e+00	-4.134423e+01
1.750000e-06	-4.265495e-07	-5.074348e-10	-2.966056e+00	-4.032574e+01
1.760000e-06	-3.797894e-07	-4.945463e-10	-2.640905e+00	-3.927416e+01
1.770000e-06	-3.330720e-07	-4.787085e-10	-2.316051e+00	-3.818831e+01
1.780000e-06	-2.862997e-07	-4.614479e-10	-1.990815e+00	-3.706707e+01
1.790000e-06	-2.394714e-07	-4.451907e-10	-1.665189e+00	-3.590942e+01
1.800000e-06	-1.926405e-07	-4.279667e-10	-1.339546e+00	-3.471443e+01
1.810000e-06	-1.457517e-07	-4.100745e-10	-1.013499e+00	-3.348128e+01
1.820000e-06	-9.889475e-08	-3.928291e-10	-6.876749e-01	-3.220927e+01
1.830000e-06	-5.213284e-08	-3.754594e-10	-3.625111e-01	-3.089784e+01
1.840000e-06	-5.356350e-09	-3.582052e-10	-3.724593e-02	-2.954657e+01
1.850000e-06	4.141213e-08	-3.418593e-10	2.879635e-01	-2.815518e+01
1.860000e-06	8.820886e-08	-3.246228e-10	6.133695e-01	-2.672357e+01
1.870000e-06	1.350852e-07	-3.055848e-10	9.393288e-01	-2.525178e+01
1.880000e-06	1.818567e-07	-2.852113e-10	1.264560e+00	-2.374004e+01
1.890000e-06	2.285386e-07	-2.634339e-10	1.589167e+00	-2.218875e+01
1.900000e-06	2.752330e-07	-2.385742e-10	1.913861e+00	-2.059850e+01
1.910000e-06	3.219314e-07	-2.141768e-10	2.238584e+00	-1.897005e+01
1.920000e-06	3.686096e-07	-1.905623e-10	2.563165e+00	-1.730434e+01
1.930000e-06	4.153411e-07	-1.682120e-10	2.888117e+00	-1.560250e+01
1.940000e-06	4.620499e-07	-1.478102e-10	3.212912e+00	-1.386584e+01
1.950000e-06	5.086557e-07	-1.271390e-10	3.536990e+00	-1.209585e+01
1.960000e-06	5.552111e-07	-1.047577e-10	3.860718e+00	-1.029418e+01
1.970000e-06	6.016586e-07	-7.929175e-11	4.183695e+00	-8.462642e+00
1.980000e-06	6.480386e-07	-5.241426e-11	4.506204e+00	-6.603223e+00
1.990000e-06	6.944015e-07	-2.453615e-11	4.828593e+00	-4.718047e+00
2.000000e-06	7.407557e-07	4.464458e-12	5.150922e+00	-2.809377e+00
2.010000e-06	7.870641e-07	3.373335e-11	5.472932e+00	-8.796036e-01
2.020000e-06	8.333030e-07	6.549875e-11	5.794459e+00	1.068766e+00
2.030000e-06	8.794409e-07	9.646217e-11	6.115284e+00	3.033124e+00
2.040000e-06	9.254784e-07	1.251119e-10	6.435410e+00	5.010774e+00
2.050000e-06	9.715237e-07	1.502899e-10	6.755591e+00	6.998949e+00
2.060000e-06	1.017565e-06	1.734731e-10	7.075747e+00	8.994822e+00
2.070000e-06	1.063504e-06	1.971936e-10	7.395183e+00	1.099552e+01
2.080000e-06	1.109328e-06	2.224451e-10	7.713824e+00	1.299816e+01
2.090000e-06	1.155110e-06	2.500868e-10	8.032177e+00	1.499982e+01
2.100000e-06	1.200871e-06	2.803823e-10	8.350384e+00	1.699761e+01
2.110000e-06	1.246622e-06	3.122362e-10	8.668515e+00	1.898866e+01
2.120000e-06	1.292224e-06	3.435610e-10	8.985615e+00	2.097013e+01
2.130000e-06	1.337635e-06	3.733686e-10	9.301384e+00	2.293923e+01
2.140000e-06	1.382958e-06	3.982141e-10	9.616541e+00	2.489325e+01
2.150000e-06	1.428151e-06	4.185124e-10	9.930799e+00	2.682956e+01
2.160000e-06	1.473265e-06	4.368056e-10	1.024450e+01	2.874562e+01
2.170000e-06	1.518374e-06	4.577794e-10	1.055817e+01	3.063902e+01
2.180000e-06	1.563427e-06	4.833262e-10	1.087145e+01	3.250745e+01
2.190000e-06	1.608303e-06	5.117515e-10	1.118350e+01	3.434874e+01
2.200000e-06	1.652990e-06	5.435861e-10	1.149424e+01	3.616088e+01
2.210000e-06	1.697573e-06	5.759113e-10	1.180425e+01	3.794198e+01
2.220000e-06	1.742005e-06	6.038144e-10	1.211321e+01	3.969033e+01
2.230000e-06	1.786299e-06	6.273680e-10	1.242121e+01	4.140439e+01
2.240000e-06	1.830495e-06	6.452287e-10	1.272854e+01	4.308276e+01
2.250000e-06	1.874556e-06	6.579045e-10	1.303492e+01	4.472425e+01
2.260000e-06	1.918513e-06	6.719160e-10	1.334058e+01	4.632782e+01
2.270000e-06	1.962397e-06	6.919419e-10	1.364573e+01	4.789261e+01
2.280000e-06	2.006203e-06	7.169293e-10	1.395034e+01	4.941794e+01
2.290000e-06	2.049919e-06	7.437999e-10	1.425432e+01	5.090330e+01
2.300000e-06	2.093580e-06	7.705610e-10	1.455792e+01	5.234834e+01
2.310000e-06	2.137196e-06	7.930259e-10	1.486122e+01	5.375288e+01
2.320000e-06	2.180765e-06	8.081357e-10	1.516417e+01	5.511691e+01
2.330000e-06	2.224213e-06	8.198035e-10	1.546630e+01	5.644056e+01
2.340000e-06	2.267475e-06	8.322403e-10	1.576712e+01	5.772411e+01
2.350000e-06	2.310560e-06	8.484418e-10	1.606672e+01	5.896796e+01
2.360000e-06	2.353488e-06	8.668937e-10	1.636523e+01	6.017266e+01
2.370000e-06	2.396157e-06	8.847368e-10	1.666193e+01	6.133886e+01
2.380000e-06	2.438500e-06	9.011463e-10	1.695636e+01	6.246731e+01
2.390000e-06	2.480570e-06	9.152150e-10	1.724890e+01	6.355888e+01
2.400000e-06	2.522362e-06	9.286086e-10	1.753950e+01	6.461449e+01
2.410000e-06	2.563806e-06	9.422420e-10	1.782769e+01	6.563516e+01
2.420000e-06	2.604899e-06	9.553759e-10	1.811344e+01	6.662194e+01
2.430000e-06	2.645667e-06	9.691868e-10	1.839692e+01	6.757595e+01
2.440000e-06	2.686178e-06	9.834245e-10	1.867862e+01	6.849833e+01
2.450000e-06	2.726459e-06	9.974493e-10	1.895871e+01	6.939026e+01
2.460000e-06	2.766517e-06	1.010567e-09	1.923726e+01	7.025292e+01
2.470000e-06	2.806450e-06	1.020798e-09	1.951494e+01	7.108749e+01
2.480000e-06	2.846239e-06	1.031003e-09	1.979162e+01	7.189514e+01
2.490000e-06	2.885949e-06	1.041533e-09	2.006775e+01	7.267705e+01
2.500000e-06	2.925580e-06	1.051501e-09	2.034332e+01	7.343433e+01
2.510000e-06	2.965116e-06	1.065154e-09	2.061824e+01	7.416809e+01
2.520000e-06	3.004495e-06	1.078811e-09	2.089207e+01	7.487938e+01
2.530000e-06	3.043658e-06	1.091409e-09	2.116439e+01	7.556921e+01
2.540000e-06	3.082625e-06	1.104165e-09	2.143535e+01	7.623852e+01
2.550000e-06	3.121311e-06	1.114749e-09	2.170436e+01	7.688822e+01
2.560000e-06	3.159652e-06	1.120587e-09	2.197097e+01	7.751913e+01
2.570000e-06	3.197771e-06	1.123618e-09	2.223603e+01	7.813203e+01
2.580000e-06	3.235698e-06	1.126661e-09	2.249976e+01	7.872760e+01
2.590000e-06	3.273450e-06	1.132724e-09	2.276227e+01	7.930650e+01
2.600000e-06	3.311057e-06	1.143182e-09	2.302378e+01	7.986927e+01
2.610000e-06	3.348356e-06	1.156696e-09	2.328314e+01	8.041642e+01
2.620000e-06	3.385396e-06	1.174464e-09	2.354070e+01	8.094839e+01
2.630000e-06	3.422239e-06	1.188933e-09	2.379689e+01	8.146555e+01
2.640000e-06	3.458780e-06	1.197830e-09	2.405099e+01	8.196822e+01
2.650000e-06	3.495015e-06	1.201258e-09	2.430295e+01	8.245665e+01
2.660000e-06	3.531030e-06	1.202238e-09	2.455339e+01	8.293105e+01
2.670000e-06	3.566919e-06	1.201880e-09	2.480294e+01	8.339159e+01
2.680000e-06	3.602678e-06	1.203280e-09	2.505159e+01	8.383840e+01
2.690000e-06	3.638307e-06	1.210965e-09	2.529935e+01	8.427155e+01
2.700000e-06	3.673830e-06	1.223113e-09	2.554636e+01	8.469112e+01
2.710000e-06	3.709150e-06	1.232285e-09	2.579196e+01	8.509714e+01
2.720000e-06	3.744200e-06	1.237653e-09	2.603568e+01	8.548963e+01
2.730000e-06	3.778954e-06	1.240695e-09	2.627735e+01	8.586860e+01
2.740000e-06	3.813216e-06	1.241512e-09	2.651559e+01	8.623406e+01
2.750000e-06	3.846881e-06	1.241663e-09	2.674968e+01	8.658602e+01
2.760000e-06	3.880087e-06	1.243329e-09	2.698059e+01	8.692449e+01
2.770000e-06	3.912924e-06	1.248224e-09	2.720892e+01	8.724949e+01
2.780000e-06	3.945446e-06	1.255416e-09	2.743507e+01	8.756106e+01
2.790000e-06	3.977679e-06	1.263185e-09	2.765921e+01	8.785928e+01
2.800000e-06	4.009674e-06	1.269057e-09	2.788168e+01	8.814422e+01
2.810000e-06	4.041488e-06	1.271364e-09	2.810291e+01	8.841599e+01
2.820000e-06	4.073106e-06	1.273008e-09	2.832276e+01	8.867475e+01
2.830000e-06	4.104497e-06	1.276708e-09	2.854105e+01	8.892067e+01
2.840000e-06	4.135606e-06	1.280724e-09	2.875736e+01	8.915396e+01
2.850000e-06	4.166462e-06	1.285621e-09	2.897192e+01	8.937486e+01
2.860000e-06	4.197033e-06	1.291635e-09	2.918450e+01	8.958366e+01
2.870000e-06	4.227226e-06	1.296313e-09	2.939446e+01	8.978068e+01
2.880000e-06	4.257082e-06	1.295774e-09	2.960206e+01	8.996626e+01
2.890000e-06	4.286756e-06	1.293610e-09	2.980840e+01	9.014079e+01
2.900000e-06	4.316241e-06	1.294695e-09	3.001343e+01	9.030467e+01
