# Temperatura_=_14.9
# Concentracion g/m^3_=_1620.0
# C_Vs_to_Am_M_A/Vsm_=_65563218390.804596
# pendiente_HvsI_1/m_=_3716.3
# ordenada_HvsI_A/m_=_1297.0
# frecuencia_Hz_=_135105.54224158268

Tiempo_(s)	Campo_(V.s)	Magnetizacion_(V.s)	Campo_(kA/m)	Magnetizacion_(A/m)
0.000000e+00	-5.525127e-06	-1.899961e-09	-3.837738e+01	-1.230439e+02
1.000000e-08	-5.525352e-06	-1.899039e-09	-3.837895e+01	-1.229975e+02
2.000000e-08	-5.525382e-06	-1.901204e-09	-3.837915e+01	-1.229498e+02
3.000000e-08	-5.525145e-06	-1.903434e-09	-3.837751e+01	-1.229006e+02
4.000000e-08	-5.524449e-06	-1.903310e-09	-3.837268e+01	-1.228498e+02
5.000000e-08	-5.523086e-06	-1.899189e-09	-3.836320e+01	-1.227970e+02
6.000000e-08	-5.521105e-06	-1.890110e-09	-3.834945e+01	-1.227422e+02
7.000000e-08	-5.518560e-06	-1.890032e-09	-3.833177e+01	-1.226849e+02
8.000000e-08	-5.515405e-06	-1.910331e-09	-3.830985e+01	-1.226249e+02
9.000000e-08	-5.511775e-06	-1.925885e-09	-3.828464e+01	-1.225620e+02
1.000000e-07	-5.507826e-06	-1.916034e-09	-3.825721e+01	-1.224957e+02
1.100000e-07	-5.503597e-06	-1.921708e-09	-3.822784e+01	-1.224259e+02
1.200000e-07	-5.499138e-06	-1.919117e-09	-3.819687e+01	-1.223522e+02
1.300000e-07	-5.494410e-06	-1.887867e-09	-3.816402e+01	-1.222742e+02
1.400000e-07	-5.489360e-06	-1.842626e-09	-3.812894e+01	-1.221918e+02
1.500000e-07	-5.483925e-06	-1.883833e-09	-3.809119e+01	-1.221046e+02
1.600000e-07	-5.478053e-06	-1.930704e-09	-3.805041e+01	-1.220125e+02
1.700000e-07	-5.471802e-06	-1.929600e-09	-3.800699e+01	-1.219150e+02
1.800000e-07	-5.465174e-06	-1.858423e-09	-3.796095e+01	-1.218122e+02
1.900000e-07	-5.458149e-06	-1.869156e-09	-3.791216e+01	-1.217037e+02
2.000000e-07	-5.450723e-06	-1.892707e-09	-3.786057e+01	-1.215895e+02
2.100000e-07	-5.443010e-06	-1.893147e-09	-3.780700e+01	-1.214693e+02
2.200000e-07	-5.435065e-06	-1.855348e-09	-3.775181e+01	-1.213432e+02
2.300000e-07	-5.426891e-06	-1.863710e-09	-3.769504e+01	-1.212111e+02
2.400000e-07	-5.418319e-06	-1.896358e-09	-3.763550e+01	-1.210730e+02
2.500000e-07	-5.409225e-06	-1.883750e-09	-3.757233e+01	-1.209288e+02
2.600000e-07	-5.399497e-06	-1.844159e-09	-3.750476e+01	-1.207787e+02
2.700000e-07	-5.388949e-06	-1.823874e-09	-3.743150e+01	-1.206227e+02
2.800000e-07	-5.377882e-06	-1.847998e-09	-3.735462e+01	-1.204610e+02
2.900000e-07	-5.366470e-06	-1.846923e-09	-3.727536e+01	-1.202937e+02
3.000000e-07	-5.354663e-06	-1.846952e-09	-3.719335e+01	-1.201210e+02
3.100000e-07	-5.342496e-06	-1.830994e-09	-3.710883e+01	-1.199431e+02
3.200000e-07	-5.329890e-06	-1.845835e-09	-3.702127e+01	-1.197601e+02
3.300000e-07	-5.316830e-06	-1.820503e-09	-3.693056e+01	-1.195724e+02
3.400000e-07	-5.303416e-06	-1.804795e-09	-3.683738e+01	-1.193803e+02
3.500000e-07	-5.289621e-06	-1.786821e-09	-3.674156e+01	-1.191839e+02
3.600000e-07	-5.275413e-06	-1.819149e-09	-3.664288e+01	-1.189835e+02
3.700000e-07	-5.260756e-06	-1.813437e-09	-3.654107e+01	-1.187794e+02
3.800000e-07	-5.245624e-06	-1.811410e-09	-3.643596e+01	-1.185720e+02
3.900000e-07	-5.229934e-06	-1.811839e-09	-3.632698e+01	-1.183613e+02
4.000000e-07	-5.213720e-06	-1.816717e-09	-3.621436e+01	-1.181478e+02
4.100000e-07	-5.197062e-06	-1.775085e-09	-3.609865e+01	-1.179316e+02
4.200000e-07	-5.180060e-06	-1.776993e-09	-3.598056e+01	-1.177130e+02
4.300000e-07	-5.162818e-06	-1.813209e-09	-3.586079e+01	-1.174921e+02
4.400000e-07	-5.145231e-06	-1.804606e-09	-3.573864e+01	-1.172692e+02
4.500000e-07	-5.127279e-06	-1.772717e-09	-3.561394e+01	-1.170443e+02
4.600000e-07	-5.108889e-06	-1.801133e-09	-3.548620e+01	-1.168176e+02
4.700000e-07	-5.090112e-06	-1.814293e-09	-3.535578e+01	-1.165893e+02
4.800000e-07	-5.071041e-06	-1.766078e-09	-3.522331e+01	-1.163592e+02
4.900000e-07	-5.051618e-06	-1.763455e-09	-3.508840e+01	-1.161275e+02
5.000000e-07	-5.031924e-06	-1.793596e-09	-3.495161e+01	-1.158941e+02
5.100000e-07	-5.012050e-06	-1.759783e-09	-3.481356e+01	-1.156590e+02
5.200000e-07	-4.991914e-06	-1.728748e-09	-3.467370e+01	-1.154220e+02
5.300000e-07	-4.971425e-06	-1.773644e-09	-3.453138e+01	-1.151831e+02
5.400000e-07	-4.950532e-06	-1.770140e-09	-3.438626e+01	-1.149421e+02
5.500000e-07	-4.929231e-06	-1.728617e-09	-3.423830e+01	-1.146988e+02
5.600000e-07	-4.907649e-06	-1.747301e-09	-3.408840e+01	-1.144530e+02
5.700000e-07	-4.885769e-06	-1.772025e-09	-3.393642e+01	-1.142044e+02
5.800000e-07	-4.863487e-06	-1.723892e-09	-3.378165e+01	-1.139529e+02
5.900000e-07	-4.840893e-06	-1.719335e-09	-3.362471e+01	-1.136980e+02
6.000000e-07	-4.818003e-06	-1.745449e-09	-3.346572e+01	-1.134395e+02
6.100000e-07	-4.794696e-06	-1.716493e-09	-3.330383e+01	-1.131771e+02
6.200000e-07	-4.771084e-06	-1.680115e-09	-3.313982e+01	-1.129104e+02
6.300000e-07	-4.747316e-06	-1.711111e-09	-3.297473e+01	-1.126392e+02
6.400000e-07	-4.723331e-06	-1.709946e-09	-3.280813e+01	-1.123632e+02
6.500000e-07	-4.699027e-06	-1.683758e-09	-3.263931e+01	-1.120819e+02
6.600000e-07	-4.674302e-06	-1.695037e-09	-3.246758e+01	-1.117951e+02
6.700000e-07	-4.649039e-06	-1.706086e-09	-3.229210e+01	-1.115026e+02
6.800000e-07	-4.623277e-06	-1.671309e-09	-3.211315e+01	-1.112040e+02
6.900000e-07	-4.597024e-06	-1.665238e-09	-3.193080e+01	-1.108991e+02
7.000000e-07	-4.570274e-06	-1.675093e-09	-3.174500e+01	-1.105876e+02
7.100000e-07	-4.543119e-06	-1.659073e-09	-3.155638e+01	-1.102695e+02
7.200000e-07	-4.515604e-06	-1.646582e-09	-3.136526e+01	-1.099445e+02
7.300000e-07	-4.487887e-06	-1.665315e-09	-3.117274e+01	-1.096124e+02
7.400000e-07	-4.460007e-06	-1.661104e-09	-3.097909e+01	-1.092733e+02
7.500000e-07	-4.431941e-06	-1.641304e-09	-3.078414e+01	-1.089271e+02
7.600000e-07	-4.403644e-06	-1.640276e-09	-3.058759e+01	-1.085736e+02
7.700000e-07	-4.375042e-06	-1.637011e-09	-3.038892e+01	-1.082131e+02
7.800000e-07	-4.346127e-06	-1.617814e-09	-3.018808e+01	-1.078455e+02
7.900000e-07	-4.316871e-06	-1.612077e-09	-2.998487e+01	-1.074710e+02
8.000000e-07	-4.287285e-06	-1.614906e-09	-2.977937e+01	-1.070896e+02
8.100000e-07	-4.257421e-06	-1.603773e-09	-2.957193e+01	-1.067016e+02
8.200000e-07	-4.227288e-06	-1.597588e-09	-2.936263e+01	-1.063072e+02
8.300000e-07	-4.196918e-06	-1.596100e-09	-2.915168e+01	-1.059066e+02
8.400000e-07	-4.166264e-06	-1.586804e-09	-2.893876e+01	-1.055001e+02
8.500000e-07	-4.135239e-06	-1.577612e-09	-2.872326e+01	-1.050880e+02
8.600000e-07	-4.103893e-06	-1.583133e-09	-2.850553e+01	-1.046705e+02
8.700000e-07	-4.072351e-06	-1.576822e-09	-2.828644e+01	-1.042481e+02
8.800000e-07	-4.040669e-06	-1.565793e-09	-2.806638e+01	-1.038211e+02
8.900000e-07	-4.008824e-06	-1.559918e-09	-2.784518e+01	-1.033897e+02
9.000000e-07	-3.976839e-06	-1.552939e-09	-2.762301e+01	-1.029544e+02
9.100000e-07	-3.944596e-06	-1.535584e-09	-2.739906e+01	-1.025155e+02
9.200000e-07	-3.911937e-06	-1.529219e-09	-2.717221e+01	-1.020732e+02
9.300000e-07	-3.878852e-06	-1.523989e-09	-2.694240e+01	-1.016280e+02
9.400000e-07	-3.845335e-06	-1.515159e-09	-2.670959e+01	-1.011801e+02
9.500000e-07	-3.811438e-06	-1.508927e-09	-2.647414e+01	-1.007298e+02
9.600000e-07	-3.777160e-06	-1.507892e-09	-2.623605e+01	-1.002773e+02
9.700000e-07	-3.742384e-06	-1.493414e-09	-2.599450e+01	-9.982289e+01
9.800000e-07	-3.707227e-06	-1.478790e-09	-2.575030e+01	-9.936664e+01
9.900000e-07	-3.671799e-06	-1.471937e-09	-2.550422e+01	-9.890873e+01
1.000000e-06	-3.636151e-06	-1.465779e-09	-2.525661e+01	-9.844925e+01
1.010000e-06	-3.600390e-06	-1.452937e-09	-2.500821e+01	-9.798822e+01
1.020000e-06	-3.564547e-06	-1.447343e-09	-2.475925e+01	-9.752566e+01
1.030000e-06	-3.528512e-06	-1.442356e-09	-2.450895e+01	-9.706151e+01
1.040000e-06	-3.492271e-06	-1.429922e-09	-2.425722e+01	-9.659566e+01
1.050000e-06	-3.455868e-06	-1.420088e-09	-2.400436e+01	-9.612797e+01
1.060000e-06	-3.419076e-06	-1.413657e-09	-2.374881e+01	-9.565824e+01
1.070000e-06	-3.381942e-06	-1.403396e-09	-2.349088e+01	-9.518621e+01
1.080000e-06	-3.344604e-06	-1.393822e-09	-2.323153e+01	-9.471161e+01
1.090000e-06	-3.307023e-06	-1.388237e-09	-2.297049e+01	-9.423410e+01
1.100000e-06	-3.269265e-06	-1.374700e-09	-2.270822e+01	-9.375331e+01
1.110000e-06	-3.231317e-06	-1.357390e-09	-2.244464e+01	-9.326882e+01
1.120000e-06	-3.193167e-06	-1.343243e-09	-2.217965e+01	-9.278021e+01
1.130000e-06	-3.154781e-06	-1.330789e-09	-2.191303e+01	-9.228700e+01
1.140000e-06	-3.116125e-06	-1.318448e-09	-2.164452e+01	-9.178870e+01
1.150000e-06	-3.077295e-06	-1.316359e-09	-2.137481e+01	-9.128482e+01
1.160000e-06	-3.038263e-06	-1.317137e-09	-2.110369e+01	-9.077482e+01
1.170000e-06	-2.999025e-06	-1.311173e-09	-2.083115e+01	-9.025820e+01
1.180000e-06	-2.959674e-06	-1.298087e-09	-2.055781e+01	-8.973442e+01
1.190000e-06	-2.920178e-06	-1.286588e-09	-2.028348e+01	-8.920296e+01
1.200000e-06	-2.880499e-06	-1.271178e-09	-2.000786e+01	-8.866332e+01
1.210000e-06	-2.840701e-06	-1.255897e-09	-1.973143e+01	-8.811501e+01
1.220000e-06	-2.800814e-06	-1.247035e-09	-1.945438e+01	-8.755757e+01
1.230000e-06	-2.760737e-06	-1.243334e-09	-1.917601e+01	-8.699053e+01
1.240000e-06	-2.720486e-06	-1.236508e-09	-1.889642e+01	-8.641351e+01
1.250000e-06	-2.680041e-06	-1.228714e-09	-1.861549e+01	-8.582611e+01
1.260000e-06	-2.639272e-06	-1.220857e-09	-1.833231e+01	-8.522801e+01
1.270000e-06	-2.598220e-06	-1.210756e-09	-1.804716e+01	-8.461891e+01
1.280000e-06	-2.556914e-06	-1.197287e-09	-1.776025e+01	-8.399857e+01
1.290000e-06	-2.515257e-06	-1.183885e-09	-1.747091e+01	-8.336677e+01
1.300000e-06	-2.473257e-06	-1.170784e-09	-1.717917e+01	-8.272336e+01
1.310000e-06	-2.431006e-06	-1.158111e-09	-1.688570e+01	-8.206824e+01
1.320000e-06	-2.388492e-06	-1.147108e-09	-1.659040e+01	-8.140134e+01
1.330000e-06	-2.345722e-06	-1.138063e-09	-1.629332e+01	-8.072264e+01
1.340000e-06	-2.302704e-06	-1.128450e-09	-1.599452e+01	-8.003218e+01
1.350000e-06	-2.259431e-06	-1.117562e-09	-1.569394e+01	-7.933003e+01
1.360000e-06	-2.216026e-06	-1.108093e-09	-1.539246e+01	-7.861628e+01
1.370000e-06	-2.172572e-06	-1.097013e-09	-1.509062e+01	-7.789108e+01
1.380000e-06	-2.129017e-06	-1.085345e-09	-1.478809e+01	-7.715459e+01
1.390000e-06	-2.085328e-06	-1.074769e-09	-1.448463e+01	-7.640700e+01
1.400000e-06	-2.041574e-06	-1.060541e-09	-1.418071e+01	-7.564851e+01
1.410000e-06	-1.997743e-06	-1.045124e-09	-1.387627e+01	-7.487934e+01
1.420000e-06	-1.953836e-06	-1.030365e-09	-1.357129e+01	-7.409970e+01
1.430000e-06	-1.909883e-06	-1.017796e-09	-1.326599e+01	-7.330980e+01
1.440000e-06	-1.865858e-06	-1.006053e-09	-1.296020e+01	-7.250984e+01
1.450000e-06	-1.821742e-06	-9.950156e-10	-1.265377e+01	-7.169998e+01
1.460000e-06	-1.777393e-06	-9.849068e-10	-1.234573e+01	-7.088037e+01
1.470000e-06	-1.732863e-06	-9.729678e-10	-1.203642e+01	-7.005112e+01
1.480000e-06	-1.688228e-06	-9.594376e-10	-1.172638e+01	-6.921228e+01
1.490000e-06	-1.643372e-06	-9.455281e-10	-1.141481e+01	-6.836387e+01
1.500000e-06	-1.598401e-06	-9.308167e-10	-1.110245e+01	-6.750584e+01
1.510000e-06	-1.553422e-06	-9.125237e-10	-1.079003e+01	-6.663806e+01
1.520000e-06	-1.508391e-06	-8.976116e-10	-1.047724e+01	-6.576034e+01
1.530000e-06	-1.463127e-06	-8.857050e-10	-1.016284e+01	-6.487241e+01
1.540000e-06	-1.417698e-06	-8.754537e-10	-9.847291e+00	-6.397392e+01
1.550000e-06	-1.372273e-06	-8.657143e-10	-9.531773e+00	-6.306443e+01
1.560000e-06	-1.326770e-06	-8.522216e-10	-9.215712e+00	-6.214340e+01
1.570000e-06	-1.281141e-06	-8.330369e-10	-8.898768e+00	-6.121022e+01
1.580000e-06	-1.235361e-06	-8.127210e-10	-8.580786e+00	-6.026415e+01
1.590000e-06	-1.189509e-06	-7.943416e-10	-8.262298e+00	-5.930441e+01
1.600000e-06	-1.143596e-06	-7.761430e-10	-7.943385e+00	-5.833008e+01
1.610000e-06	-1.097630e-06	-7.596881e-10	-7.624108e+00	-5.734017e+01
1.620000e-06	-1.051619e-06	-7.460446e-10	-7.304514e+00	-5.633361e+01
1.630000e-06	-1.005520e-06	-7.307760e-10	-6.984314e+00	-5.530925e+01
1.640000e-06	-9.593585e-07	-7.144125e-10	-6.663678e+00	-5.426585e+01
1.650000e-06	-9.131150e-07	-6.975799e-10	-6.342472e+00	-5.320212e+01
1.660000e-06	-8.667895e-07	-6.814016e-10	-6.020697e+00	-5.211669e+01
1.670000e-06	-8.204696e-07	-6.649596e-10	-5.698960e+00	-5.100817e+01
1.680000e-06	-7.741562e-07	-6.482805e-10	-5.377268e+00	-4.987511e+01
1.690000e-06	-7.277003e-07	-6.316083e-10	-5.054586e+00	-4.871602e+01
1.700000e-06	-6.811203e-07	-6.125190e-10	-4.731043e+00	-4.752943e+01
1.710000e-06	-6.345364e-07	-5.903272e-10	-4.407472e+00	-4.631384e+01
1.720000e-06	-5.879423e-07	-5.667296e-10	-4.083831e+00	-4.506776e+01
1.730000e-06	-5.412900e-07	-5.440018e-10	-3.759785e+00	-4.378974e+01
1.740000e-06	-4.945230e-07	-5.248944e-10	-3.434943e+00	-4.247836e+01
1.750000e-06	-4.476644e-07	-5.088420e-10	-3.109465e+00	-4.113224e+01
1.760000e-06	-4.008869e-07	-4.914288e-10	-2.784549e+00	-3.975008e+01
1.770000e-06	-3.542187e-07	-4.720488e-10	-2.460394e+00	-3.833066e+01
1.780000e-06	-3.074048e-07	-4.508907e-10	-2.135225e+00	-3.687286e+01
1.790000e-06	-2.604477e-07	-4.290692e-10	-1.809063e+00	-3.537567e+01
1.800000e-06	-2.135513e-07	-4.081531e-10	-1.483322e+00	-3.383819e+01
1.810000e-06	-1.667147e-07	-3.868145e-10	-1.157996e+00	-3.225968e+01
1.820000e-06	-1.198361e-07	-3.655837e-10	-8.323782e-01	-3.063952e+01
1.830000e-06	-7.290683e-08	-3.449469e-10	-5.064089e-01	-2.897727e+01
1.840000e-06	-2.598599e-08	-3.240826e-10	-1.804979e-01	-2.727266e+01
1.850000e-06	2.081432e-08	-3.023704e-10	1.445757e-01	-2.552559e+01
1.860000e-06	6.756423e-08	-2.799788e-10	4.692993e-01	-2.373616e+01
1.870000e-06	1.144013e-07	-2.576559e-10	7.946284e-01	-2.190466e+01
1.880000e-06	1.612720e-07	-2.336660e-10	1.120191e+00	-2.003156e+01
1.890000e-06	2.082010e-07	-2.062808e-10	1.446158e+00	-1.811757e+01
1.900000e-06	2.551009e-07	-1.774862e-10	1.771924e+00	-1.616358e+01
1.910000e-06	3.019122e-07	-1.489630e-10	2.097074e+00	-1.417070e+01
1.920000e-06	3.487139e-07	-1.196890e-10	2.422158e+00	-1.214022e+01
1.930000e-06	3.954266e-07	-9.028909e-11	2.746623e+00	-1.007367e+01
1.940000e-06	4.421255e-07	-6.122666e-11	3.070992e+00	-7.972751e+00
1.950000e-06	4.888049e-07	-3.314269e-11	3.395226e+00	-5.839364e+00
1.960000e-06	5.354097e-07	-5.662971e-12	3.718941e+00	-3.675600e+00
1.970000e-06	5.819598e-07	2.311892e-11	4.042277e+00	-1.483720e+00
1.980000e-06	6.283993e-07	5.216717e-11	4.364845e+00	7.338458e-01
1.990000e-06	6.748321e-07	8.193178e-11	4.687366e+00	2.974514e+00
2.000000e-06	7.212536e-07	1.145176e-10	5.009808e+00	5.235559e+00
2.010000e-06	7.676267e-07	1.484707e-10	5.331914e+00	7.514132e+00
2.020000e-06	8.140010e-07	1.829298e-10	5.654029e+00	9.807271e+00
2.030000e-06	8.603202e-07	2.177707e-10	5.975761e+00	1.211192e+01
2.040000e-06	9.064699e-07	2.525271e-10	6.296315e+00	1.442494e+01
2.050000e-06	9.525143e-07	2.852366e-10	6.616138e+00	1.674314e+01
2.060000e-06	9.985158e-07	3.148666e-10	6.935664e+00	1.906329e+01
2.070000e-06	1.044440e-06	3.452855e-10	7.254650e+00	2.138213e+01
2.080000e-06	1.090369e-06	3.786159e-10	7.573673e+00	2.369639e+01
2.090000e-06	1.136267e-06	4.134882e-10	7.892478e+00	2.600284e+01
2.100000e-06	1.182009e-06	4.494232e-10	8.210200e+00	2.829825e+01
2.110000e-06	1.227599e-06	4.849825e-10	8.526871e+00	3.057948e+01
2.120000e-06	1.273155e-06	5.182472e-10	8.843298e+00	3.284343e+01
2.130000e-06	1.318674e-06	5.503138e-10	9.159472e+00	3.508711e+01
2.140000e-06	1.364059e-06	5.811373e-10	9.474718e+00	3.730762e+01
2.150000e-06	1.409350e-06	6.088189e-10	9.789306e+00	3.950219e+01
2.160000e-06	1.454535e-06	6.343047e-10	1.010316e+01	4.166818e+01
2.170000e-06	1.499619e-06	6.595473e-10	1.041631e+01	4.380312e+01
2.180000e-06	1.544643e-06	6.858839e-10	1.072905e+01	4.590467e+01
2.190000e-06	1.589482e-06	7.140228e-10	1.104050e+01	4.797069e+01
2.200000e-06	1.634166e-06	7.441262e-10	1.135088e+01	4.999921e+01
2.210000e-06	1.678787e-06	7.755807e-10	1.166081e+01	5.198846e+01
2.220000e-06	1.723333e-06	8.063559e-10	1.197022e+01	5.393687e+01
2.230000e-06	1.767762e-06	8.343833e-10	1.227882e+01	5.584306e+01
2.240000e-06	1.812005e-06	8.578647e-10	1.258614e+01	5.770586e+01
2.250000e-06	1.856129e-06	8.754152e-10	1.289262e+01	5.952433e+01
2.260000e-06	1.900212e-06	8.915824e-10	1.319882e+01	6.129770e+01
2.270000e-06	1.944188e-06	9.108179e-10	1.350428e+01	6.302545e+01
2.280000e-06	1.988028e-06	9.331039e-10	1.380879e+01	6.470723e+01
2.290000e-06	2.031853e-06	9.577243e-10	1.411320e+01	6.634291e+01
2.300000e-06	2.075628e-06	9.842981e-10	1.441726e+01	6.793253e+01
2.310000e-06	2.119340e-06	1.010955e-09	1.472088e+01	6.947634e+01
2.320000e-06	2.163011e-06	1.033074e-09	1.502422e+01	7.097476e+01
2.330000e-06	2.206541e-06	1.050820e-09	1.532657e+01	7.242837e+01
2.340000e-06	2.249887e-06	1.066672e-09	1.562765e+01	7.383791e+01
2.350000e-06	2.293010e-06	1.082770e-09	1.592719e+01	7.520426e+01
2.360000e-06	2.335887e-06	1.099845e-09	1.622501e+01	7.652843e+01
2.370000e-06	2.378525e-06	1.117616e-09	1.652117e+01	7.781155e+01
2.380000e-06	2.420925e-06	1.136622e-09	1.681568e+01	7.905486e+01
2.390000e-06	2.463133e-06	1.155531e-09	1.710886e+01	8.025968e+01
2.400000e-06	2.505118e-06	1.172401e-09	1.740048e+01	8.142739e+01
2.410000e-06	2.546781e-06	1.188275e-09	1.768987e+01	8.255946e+01
2.420000e-06	2.587934e-06	1.203658e-09	1.797572e+01	8.365737e+01
2.430000e-06	2.628678e-06	1.218753e-09	1.825873e+01	8.472266e+01
2.440000e-06	2.669271e-06	1.234780e-09	1.854068e+01	8.575685e+01
2.450000e-06	2.709696e-06	1.250575e-09	1.882148e+01	8.676150e+01
2.460000e-06	2.749973e-06	1.266049e-09	1.910124e+01	8.773811e+01
2.470000e-06	2.790093e-06	1.281670e-09	1.937991e+01	8.868821e+01
2.480000e-06	2.830062e-06	1.295991e-09	1.965754e+01	8.961324e+01
2.490000e-06	2.869903e-06	1.309205e-09	1.993427e+01	9.051462e+01
2.500000e-06	2.909563e-06	1.321591e-09	2.020975e+01	9.139370e+01
2.510000e-06	2.949056e-06	1.335136e-09	2.048406e+01	9.225178e+01
2.520000e-06	2.988397e-06	1.349396e-09	2.075732e+01	9.309006e+01
2.530000e-06	3.027522e-06	1.361752e-09	2.102909e+01	9.390968e+01
2.540000e-06	3.066484e-06	1.374705e-09	2.129971e+01	9.471167e+01
2.550000e-06	3.105245e-06	1.386859e-09	2.156895e+01	9.549699e+01
2.560000e-06	3.143718e-06	1.395055e-09	2.183618e+01	9.626650e+01
2.570000e-06	3.182001e-06	1.402238e-09	2.210209e+01	9.702094e+01
2.580000e-06	3.220038e-06	1.411335e-09	2.236629e+01	9.776098e+01
2.590000e-06	3.257809e-06	1.421830e-09	2.262865e+01	9.848719e+01
2.600000e-06	3.295434e-06	1.433843e-09	2.288999e+01	9.920003e+01
2.610000e-06	3.332905e-06	1.447343e-09	2.315027e+01	9.989989e+01
2.620000e-06	3.370152e-06	1.461961e-09	2.340898e+01	1.005871e+02
2.630000e-06	3.407122e-06	1.474532e-09	2.366577e+01	1.012617e+02
2.640000e-06	3.443860e-06	1.483568e-09	2.392096e+01	1.019240e+02
2.650000e-06	3.480351e-06	1.490371e-09	2.417442e+01	1.025741e+02
2.660000e-06	3.516577e-06	1.495277e-09	2.442605e+01	1.032118e+02
2.670000e-06	3.552591e-06	1.500899e-09	2.467620e+01	1.038371e+02
2.680000e-06	3.588421e-06	1.508314e-09	2.492508e+01	1.044499e+02
2.690000e-06	3.624141e-06	1.517546e-09	2.517318e+01	1.050502e+02
2.700000e-06	3.659692e-06	1.528301e-09	2.542012e+01	1.056375e+02
2.710000e-06	3.695008e-06	1.537775e-09	2.566543e+01	1.062119e+02
2.720000e-06	3.730129e-06	1.544530e-09	2.590938e+01	1.067730e+02
2.730000e-06	3.764991e-06	1.549332e-09	2.615153e+01	1.073207e+02
2.740000e-06	3.799481e-06	1.554440e-09	2.639109e+01	1.078546e+02
2.750000e-06	3.833619e-06	1.560501e-09	2.662822e+01	1.083746e+02
2.760000e-06	3.867338e-06	1.566309e-09	2.686243e+01	1.088806e+02
2.770000e-06	3.900537e-06	1.573707e-09	2.709302e+01	1.093722e+02
2.780000e-06	3.933272e-06	1.581685e-09	2.732040e+01	1.098494e+02
2.790000e-06	3.965707e-06	1.588650e-09	2.754569e+01	1.103121e+02
2.800000e-06	3.997926e-06	1.595470e-09	2.776949e+01	1.107603e+02
2.810000e-06	4.029858e-06	1.601096e-09	2.799128e+01	1.111938e+02
2.820000e-06	4.061595e-06	1.606541e-09	2.821173e+01	1.116128e+02
2.830000e-06	4.093207e-06	1.615843e-09	2.843131e+01	1.120173e+02
2.840000e-06	4.124602e-06	1.626445e-09	2.864937e+01	1.124075e+02
2.850000e-06	4.155704e-06	1.633782e-09	2.886541e+01	1.127837e+02
2.860000e-06	4.186521e-06	1.639981e-09	2.907946e+01	1.131459e+02
2.870000e-06	4.217058e-06	1.647264e-09	2.929157e+01	1.134947e+02
2.880000e-06	4.247204e-06	1.652663e-09	2.950097e+01	1.138302e+02
2.890000e-06	4.277014e-06	1.654974e-09	2.970802e+01	1.141530e+02
2.900000e-06	4.306572e-06	1.658589e-09	2.991333e+01	1.144636e+02
