# Temperatura_=_12.1
# Concentracion g/m^3_=_1620.0
# C_Vs_to_Am_M_A/Vsm_=_65563218390.804596
# pendiente_HvsI_1/m_=_3716.3
# ordenada_HvsI_A/m_=_1297.0
# frecuencia_Hz_=_135108.51447523004

Tiempo_(s)	Campo_(V.s)	Magnetizacion_(V.s)	Campo_(kA/m)	Magnetizacion_(A/m)
0.000000e+00	-5.517176e-06	-1.723489e-09	-3.837067e+01	-1.125482e+02
1.000000e-08	-5.517452e-06	-1.719392e-09	-3.837260e+01	-1.124815e+02
2.000000e-08	-5.517464e-06	-1.719726e-09	-3.837268e+01	-1.124139e+02
3.000000e-08	-5.517125e-06	-1.723009e-09	-3.837032e+01	-1.123454e+02
4.000000e-08	-5.516367e-06	-1.726395e-09	-3.836505e+01	-1.122760e+02
5.000000e-08	-5.515070e-06	-1.726768e-09	-3.835603e+01	-1.122056e+02
6.000000e-08	-5.513116e-06	-1.721307e-09	-3.834244e+01	-1.121341e+02
7.000000e-08	-5.510558e-06	-1.727013e-09	-3.832465e+01	-1.120614e+02
8.000000e-08	-5.507513e-06	-1.738395e-09	-3.830347e+01	-1.119874e+02
9.000000e-08	-5.504010e-06	-1.707968e-09	-3.827911e+01	-1.119119e+02
1.000000e-07	-5.500101e-06	-1.676830e-09	-3.825192e+01	-1.118348e+02
1.100000e-07	-5.495871e-06	-1.734468e-09	-3.822250e+01	-1.117558e+02
1.200000e-07	-5.491401e-06	-1.768318e-09	-3.819141e+01	-1.116747e+02
1.300000e-07	-5.486650e-06	-1.690051e-09	-3.815838e+01	-1.115915e+02
1.400000e-07	-5.481546e-06	-1.621132e-09	-3.812288e+01	-1.115058e+02
1.500000e-07	-5.476055e-06	-1.695471e-09	-3.808469e+01	-1.114175e+02
1.600000e-07	-5.470141e-06	-1.791499e-09	-3.804356e+01	-1.113264e+02
1.700000e-07	-5.463851e-06	-1.733703e-09	-3.799981e+01	-1.112323e+02
1.800000e-07	-5.457199e-06	-1.621431e-09	-3.795355e+01	-1.111350e+02
1.900000e-07	-5.450165e-06	-1.682431e-09	-3.790463e+01	-1.110344e+02
2.000000e-07	-5.442786e-06	-1.768415e-09	-3.785331e+01	-1.109303e+02
2.100000e-07	-5.435167e-06	-1.745995e-09	-3.780032e+01	-1.108226e+02
2.200000e-07	-5.427321e-06	-1.660366e-09	-3.774575e+01	-1.107111e+02
2.300000e-07	-5.419107e-06	-1.686588e-09	-3.768863e+01	-1.105957e+02
2.400000e-07	-5.410383e-06	-1.748997e-09	-3.762795e+01	-1.104764e+02
2.500000e-07	-5.401136e-06	-1.731785e-09	-3.756364e+01	-1.103531e+02
2.600000e-07	-5.391348e-06	-1.670633e-09	-3.749557e+01	-1.102258e+02
2.700000e-07	-5.380865e-06	-1.670447e-09	-3.742266e+01	-1.100944e+02
2.800000e-07	-5.369722e-06	-1.706312e-09	-3.734517e+01	-1.099589e+02
2.900000e-07	-5.358239e-06	-1.700922e-09	-3.726530e+01	-1.098194e+02
3.000000e-07	-5.346454e-06	-1.671670e-09	-3.718335e+01	-1.096758e+02
3.100000e-07	-5.334213e-06	-1.668206e-09	-3.709821e+01	-1.095283e+02
3.200000e-07	-5.321566e-06	-1.702801e-09	-3.701025e+01	-1.093769e+02
3.300000e-07	-5.308557e-06	-1.683115e-09	-3.691978e+01	-1.092216e+02
3.400000e-07	-5.295180e-06	-1.641363e-09	-3.682674e+01	-1.090626e+02
3.500000e-07	-5.281358e-06	-1.642143e-09	-3.673062e+01	-1.089000e+02
3.600000e-07	-5.267148e-06	-1.695205e-09	-3.663179e+01	-1.087338e+02
3.700000e-07	-5.252483e-06	-1.668388e-09	-3.652980e+01	-1.085643e+02
3.800000e-07	-5.237229e-06	-1.643776e-09	-3.642371e+01	-1.083915e+02
3.900000e-07	-5.221470e-06	-1.680917e-09	-3.631411e+01	-1.082155e+02
4.000000e-07	-5.205186e-06	-1.682164e-09	-3.620086e+01	-1.080364e+02
4.100000e-07	-5.188468e-06	-1.600214e-09	-3.608459e+01	-1.078545e+02
4.200000e-07	-5.171530e-06	-1.627315e-09	-3.596679e+01	-1.076697e+02
4.300000e-07	-5.154295e-06	-1.689134e-09	-3.584693e+01	-1.074821e+02
4.400000e-07	-5.136638e-06	-1.623664e-09	-3.572412e+01	-1.072919e+02
4.500000e-07	-5.118635e-06	-1.579133e-09	-3.559892e+01	-1.070992e+02
4.600000e-07	-5.100340e-06	-1.676312e-09	-3.547168e+01	-1.069039e+02
4.700000e-07	-5.081640e-06	-1.664587e-09	-3.534162e+01	-1.067062e+02
4.800000e-07	-5.062484e-06	-1.565450e-09	-3.520840e+01	-1.065060e+02
4.900000e-07	-5.043019e-06	-1.611082e-09	-3.507303e+01	-1.063035e+02
5.000000e-07	-5.023406e-06	-1.658509e-09	-3.493662e+01	-1.060985e+02
5.100000e-07	-5.003608e-06	-1.557253e-09	-3.479893e+01	-1.058911e+02
5.200000e-07	-4.983504e-06	-1.558276e-09	-3.465911e+01	-1.056811e+02
5.300000e-07	-4.963104e-06	-1.654047e-09	-3.451723e+01	-1.054687e+02
5.400000e-07	-4.942343e-06	-1.597237e-09	-3.437285e+01	-1.052537e+02
5.500000e-07	-4.921147e-06	-1.541264e-09	-3.422543e+01	-1.050359e+02
5.600000e-07	-4.899610e-06	-1.628953e-09	-3.407565e+01	-1.048154e+02
5.700000e-07	-4.877683e-06	-1.622467e-09	-3.392315e+01	-1.045921e+02
5.800000e-07	-4.855411e-06	-1.525954e-09	-3.376826e+01	-1.043657e+02
5.900000e-07	-4.832888e-06	-1.566556e-09	-3.361161e+01	-1.041361e+02
6.000000e-07	-4.810070e-06	-1.604611e-09	-3.345292e+01	-1.039033e+02
6.100000e-07	-4.786917e-06	-1.530675e-09	-3.329190e+01	-1.036671e+02
6.200000e-07	-4.763455e-06	-1.525876e-09	-3.312872e+01	-1.034274e+02
6.300000e-07	-4.739749e-06	-1.582131e-09	-3.296385e+01	-1.031839e+02
6.400000e-07	-4.715756e-06	-1.542863e-09	-3.279698e+01	-1.029367e+02
6.500000e-07	-4.691413e-06	-1.519808e-09	-3.262769e+01	-1.026856e+02
6.600000e-07	-4.666589e-06	-1.561084e-09	-3.245504e+01	-1.024304e+02
6.700000e-07	-4.641266e-06	-1.548070e-09	-3.227892e+01	-1.021711e+02
6.800000e-07	-4.615614e-06	-1.504986e-09	-3.210052e+01	-1.019075e+02
6.900000e-07	-4.589537e-06	-1.526142e-09	-3.191916e+01	-1.016396e+02
7.000000e-07	-4.562844e-06	-1.529296e-09	-3.173352e+01	-1.013673e+02
7.100000e-07	-4.535678e-06	-1.500334e-09	-3.154458e+01	-1.010907e+02
7.200000e-07	-4.508236e-06	-1.505668e-09	-3.135373e+01	-1.008096e+02
7.300000e-07	-4.480620e-06	-1.523716e-09	-3.116167e+01	-1.005241e+02
7.400000e-07	-4.452809e-06	-1.504313e-09	-3.096825e+01	-1.002341e+02
7.500000e-07	-4.424788e-06	-1.496001e-09	-3.077337e+01	-9.993986e+01
7.600000e-07	-4.396522e-06	-1.501510e-09	-3.057679e+01	-9.964127e+01
7.700000e-07	-4.367914e-06	-1.491290e-09	-3.037783e+01	-9.933847e+01
7.800000e-07	-4.339010e-06	-1.478673e-09	-3.017681e+01	-9.903156e+01
7.900000e-07	-4.309832e-06	-1.481315e-09	-2.997388e+01	-9.872066e+01
8.000000e-07	-4.280309e-06	-1.473916e-09	-2.976855e+01	-9.840593e+01
8.100000e-07	-4.250529e-06	-1.466066e-09	-2.956144e+01	-9.808751e+01
8.200000e-07	-4.220472e-06	-1.470358e-09	-2.935240e+01	-9.776558e+01
8.300000e-07	-4.190056e-06	-1.465450e-09	-2.914086e+01	-9.744032e+01
8.400000e-07	-4.159340e-06	-1.453346e-09	-2.892724e+01	-9.711192e+01
8.500000e-07	-4.128334e-06	-1.455968e-09	-2.871160e+01	-9.678057e+01
8.600000e-07	-4.097054e-06	-1.461466e-09	-2.849406e+01	-9.644647e+01
8.700000e-07	-4.065595e-06	-1.450034e-09	-2.827527e+01	-9.610982e+01
8.800000e-07	-4.033956e-06	-1.443165e-09	-2.805523e+01	-9.577081e+01
8.900000e-07	-4.002163e-06	-1.441088e-09	-2.783411e+01	-9.542961e+01
9.000000e-07	-3.970120e-06	-1.426861e-09	-2.761126e+01	-9.508641e+01
9.100000e-07	-3.937723e-06	-1.412075e-09	-2.738595e+01	-9.474135e+01
9.200000e-07	-3.905070e-06	-1.412854e-09	-2.715886e+01	-9.439458e+01
9.300000e-07	-3.872037e-06	-1.407683e-09	-2.692912e+01	-9.404621e+01
9.400000e-07	-3.838570e-06	-1.400790e-09	-2.669636e+01	-9.369634e+01
9.500000e-07	-3.804669e-06	-1.406872e-09	-2.646058e+01	-9.334503e+01
9.600000e-07	-3.770316e-06	-1.410014e-09	-2.622167e+01	-9.299231e+01
9.700000e-07	-3.735560e-06	-1.391225e-09	-2.597995e+01	-9.263818e+01
9.800000e-07	-3.700466e-06	-1.378998e-09	-2.573588e+01	-9.228262e+01
9.900000e-07	-3.665189e-06	-1.375021e-09	-2.549054e+01	-9.192556e+01
1.000000e-06	-3.629702e-06	-1.366675e-09	-2.524373e+01	-9.156690e+01
1.010000e-06	-3.593978e-06	-1.359078e-09	-2.499528e+01	-9.120649e+01
1.020000e-06	-3.558141e-06	-1.362778e-09	-2.474605e+01	-9.084417e+01
1.030000e-06	-3.522194e-06	-1.359353e-09	-2.449604e+01	-9.047971e+01
1.040000e-06	-3.486068e-06	-1.348199e-09	-2.424479e+01	-9.011287e+01
1.050000e-06	-3.449726e-06	-1.343986e-09	-2.399204e+01	-8.974336e+01
1.060000e-06	-3.413135e-06	-1.339017e-09	-2.373756e+01	-8.937086e+01
1.070000e-06	-3.376276e-06	-1.323768e-09	-2.348122e+01	-8.899504e+01
1.080000e-06	-3.339128e-06	-1.312879e-09	-2.322286e+01	-8.861551e+01
1.090000e-06	-3.301684e-06	-1.306558e-09	-2.296244e+01	-8.823187e+01
1.100000e-06	-3.263947e-06	-1.296504e-09	-2.269999e+01	-8.784370e+01
1.110000e-06	-3.225987e-06	-1.287390e-09	-2.243599e+01	-8.745056e+01
1.120000e-06	-3.187833e-06	-1.282845e-09	-2.217064e+01	-8.705201e+01
1.130000e-06	-3.149469e-06	-1.273805e-09	-2.190382e+01	-8.664756e+01
1.140000e-06	-3.110926e-06	-1.260779e-09	-2.163577e+01	-8.623677e+01
1.150000e-06	-3.072153e-06	-1.256138e-09	-2.136611e+01	-8.581915e+01
1.160000e-06	-3.033114e-06	-1.252826e-09	-2.109460e+01	-8.539426e+01
1.170000e-06	-2.993941e-06	-1.243952e-09	-2.082217e+01	-8.496162e+01
1.180000e-06	-2.954651e-06	-1.235484e-09	-2.054891e+01	-8.452081e+01
1.190000e-06	-2.915136e-06	-1.228593e-09	-2.027409e+01	-8.407140e+01
1.200000e-06	-2.875436e-06	-1.216687e-09	-1.999799e+01	-8.361299e+01
1.210000e-06	-2.835614e-06	-1.203323e-09	-1.972103e+01	-8.314522e+01
1.220000e-06	-2.795694e-06	-1.191653e-09	-1.944341e+01	-8.266773e+01
1.230000e-06	-2.755642e-06	-1.181112e-09	-1.916485e+01	-8.218022e+01
1.240000e-06	-2.715442e-06	-1.168921e-09	-1.888526e+01	-8.168243e+01
1.250000e-06	-2.675047e-06	-1.163302e-09	-1.860433e+01	-8.117412e+01
1.260000e-06	-2.634414e-06	-1.160443e-09	-1.832174e+01	-8.065510e+01
1.270000e-06	-2.593577e-06	-1.154334e-09	-1.803772e+01	-8.012522e+01
1.280000e-06	-2.552465e-06	-1.144278e-09	-1.775180e+01	-7.958438e+01
1.290000e-06	-2.510958e-06	-1.135006e-09	-1.746313e+01	-7.903253e+01
1.300000e-06	-2.469065e-06	-1.122550e-09	-1.717177e+01	-7.846964e+01
1.310000e-06	-2.426882e-06	-1.107182e-09	-1.687840e+01	-7.789574e+01
1.320000e-06	-2.384478e-06	-1.095930e-09	-1.658349e+01	-7.731090e+01
1.330000e-06	-2.341828e-06	-1.087817e-09	-1.628687e+01	-7.671522e+01
1.340000e-06	-2.298907e-06	-1.079231e-09	-1.598836e+01	-7.610883e+01
1.350000e-06	-2.255749e-06	-1.073821e-09	-1.568821e+01	-7.549191e+01
1.360000e-06	-2.212394e-06	-1.072223e-09	-1.538669e+01	-7.486464e+01
1.370000e-06	-2.168906e-06	-1.067073e-09	-1.508424e+01	-7.422725e+01
1.380000e-06	-2.125330e-06	-1.054771e-09	-1.478117e+01	-7.357996e+01
1.390000e-06	-2.081635e-06	-1.038690e-09	-1.447728e+01	-7.292300e+01
1.400000e-06	-2.037826e-06	-1.020248e-09	-1.417261e+01	-7.225662e+01
1.410000e-06	-1.994002e-06	-1.004975e-09	-1.386782e+01	-7.158105e+01
1.420000e-06	-1.950149e-06	-9.945919e-10	-1.356284e+01	-7.089651e+01
1.430000e-06	-1.906194e-06	-9.849652e-10	-1.325714e+01	-7.020322e+01
1.440000e-06	-1.862139e-06	-9.775008e-10	-1.295074e+01	-6.950134e+01
1.450000e-06	-1.817992e-06	-9.716450e-10	-1.264371e+01	-6.879103e+01
1.460000e-06	-1.773710e-06	-9.649053e-10	-1.233574e+01	-6.807238e+01
1.470000e-06	-1.729324e-06	-9.538711e-10	-1.202705e+01	-6.734545e+01
1.480000e-06	-1.684803e-06	-9.413730e-10	-1.171742e+01	-6.661024e+01
1.490000e-06	-1.640132e-06	-9.296884e-10	-1.140674e+01	-6.586668e+01
1.500000e-06	-1.595306e-06	-9.155895e-10	-1.109498e+01	-6.511465e+01
1.510000e-06	-1.550342e-06	-8.986621e-10	-1.078227e+01	-6.435394e+01
1.520000e-06	-1.505327e-06	-8.848042e-10	-1.046920e+01	-6.358427e+01
1.530000e-06	-1.460153e-06	-8.744017e-10	-1.015502e+01	-6.280527e+01
1.540000e-06	-1.414867e-06	-8.639155e-10	-9.840068e+00	-6.201648e+01
1.550000e-06	-1.369544e-06	-8.531030e-10	-9.524858e+00	-6.121737e+01
1.560000e-06	-1.324065e-06	-8.427157e-10	-9.208565e+00	-6.040731e+01
1.570000e-06	-1.278489e-06	-8.286932e-10	-8.891595e+00	-5.958556e+01
1.580000e-06	-1.232845e-06	-8.128391e-10	-8.574151e+00	-5.875131e+01
1.590000e-06	-1.187087e-06	-7.956991e-10	-8.255912e+00	-5.790367e+01
1.600000e-06	-1.141285e-06	-7.787544e-10	-7.937369e+00	-5.704163e+01
1.610000e-06	-1.095404e-06	-7.643608e-10	-7.618279e+00	-5.616412e+01
1.620000e-06	-1.049427e-06	-7.531643e-10	-7.298524e+00	-5.526999e+01
1.630000e-06	-1.003354e-06	-7.426184e-10	-6.978093e+00	-5.435800e+01
1.640000e-06	-9.571899e-07	-7.322584e-10	-6.657033e+00	-5.342687e+01
1.650000e-06	-9.110532e-07	-7.209858e-10	-6.336163e+00	-5.247523e+01
1.660000e-06	-8.649285e-07	-7.069476e-10	-6.015377e+00	-5.150168e+01
1.670000e-06	-8.187118e-07	-6.908449e-10	-5.693950e+00	-5.050478e+01
1.680000e-06	-7.723986e-07	-6.739648e-10	-5.371853e+00	-4.948304e+01
1.690000e-06	-7.260555e-07	-6.577059e-10	-5.049547e+00	-4.843498e+01
1.700000e-06	-6.795862e-07	-6.391596e-10	-4.726364e+00	-4.735909e+01
1.710000e-06	-6.330389e-07	-6.171730e-10	-4.402638e+00	-4.625388e+01
1.720000e-06	-5.865201e-07	-5.938985e-10	-4.079111e+00	-4.511786e+01
1.730000e-06	-5.399783e-07	-5.721102e-10	-3.755424e+00	-4.394959e+01
1.740000e-06	-4.933645e-07	-5.542568e-10	-3.431235e+00	-4.274767e+01
1.750000e-06	-4.466361e-07	-5.397030e-10	-3.106250e+00	-4.151075e+01
1.760000e-06	-3.998681e-07	-5.225284e-10	-2.780990e+00	-4.023758e+01
1.770000e-06	-3.531560e-07	-5.010855e-10	-2.456118e+00	-3.892697e+01
1.780000e-06	-3.064883e-07	-4.786828e-10	-2.131555e+00	-3.757782e+01
1.790000e-06	-2.597875e-07	-4.576348e-10	-1.806762e+00	-3.618919e+01
1.800000e-06	-2.130405e-07	-4.378086e-10	-1.481647e+00	-3.476022e+01
1.810000e-06	-1.662913e-07	-4.178968e-10	-1.156517e+00	-3.329021e+01
1.820000e-06	-1.194899e-07	-3.951348e-10	-8.310243e-01	-3.177860e+01
1.830000e-06	-7.264824e-08	-3.713251e-10	-5.052516e-01	-3.022498e+01
1.840000e-06	-2.589212e-08	-3.486195e-10	-1.800736e-01	-2.862914e+01
1.850000e-06	2.085505e-08	-3.267988e-10	1.450420e-01	-2.699101e+01
1.860000e-06	6.758453e-08	-3.054987e-10	4.700347e-01	-2.531073e+01
1.870000e-06	1.142288e-07	-2.842774e-10	7.944347e-01	-2.358860e+01
1.880000e-06	1.609428e-07	-2.616847e-10	1.119320e+00	-2.182513e+01
1.890000e-06	2.077808e-07	-2.373477e-10	1.445067e+00	-2.002104e+01
1.900000e-06	2.546121e-07	-2.104690e-10	1.770768e+00	-1.817721e+01
1.910000e-06	3.013872e-07	-1.819426e-10	2.096078e+00	-1.629475e+01
1.920000e-06	3.481150e-07	-1.535312e-10	2.421059e+00	-1.437494e+01
1.930000e-06	3.948355e-07	-1.268199e-10	2.745989e+00	-1.241928e+01
1.940000e-06	4.415315e-07	-1.024479e-10	3.070749e+00	-1.042943e+01
1.950000e-06	4.881378e-07	-7.852509e-11	3.394885e+00	-8.407248e+00
1.960000e-06	5.346536e-07	-5.339772e-11	3.718391e+00	-6.354762e+00
1.970000e-06	5.810825e-07	-2.605796e-11	4.041294e+00	-4.274164e+00
1.980000e-06	6.274348e-07	3.634681e-12	4.363663e+00	-2.167802e+00
1.990000e-06	6.737987e-07	3.420825e-11	4.686113e+00	-3.816473e-02
2.000000e-06	7.201650e-07	6.594037e-11	5.008580e+00	2.112125e+00
2.010000e-06	7.664102e-07	9.715229e-11	5.330204e+00	4.280329e+00
2.020000e-06	8.126037e-07	1.266103e-10	5.651470e+00	6.463608e+00
2.030000e-06	8.588371e-07	1.571988e-10	5.973012e+00	8.659034e+00
2.040000e-06	9.050198e-07	1.889950e-10	6.294202e+00	1.086361e+01
2.050000e-06	9.510417e-07	2.192289e-10	6.614274e+00	1.307428e+01
2.060000e-06	9.970011e-07	2.475113e-10	6.933911e+00	1.528797e+01
2.070000e-06	1.042919e-06	2.760203e-10	7.253261e+00	1.750156e+01
2.080000e-06	1.088731e-06	3.042899e-10	7.571870e+00	1.971195e+01
2.090000e-06	1.134464e-06	3.332039e-10	7.889930e+00	2.191604e+01
2.100000e-06	1.180095e-06	3.655551e-10	8.207284e+00	2.411079e+01
2.110000e-06	1.225645e-06	3.999021e-10	8.524078e+00	2.629319e+01
2.120000e-06	1.271156e-06	4.313095e-10	8.840593e+00	2.846030e+01
2.130000e-06	1.316580e-06	4.614877e-10	9.156505e+00	3.060926e+01
2.140000e-06	1.361942e-06	4.910958e-10	9.471988e+00	3.273734e+01
2.150000e-06	1.407231e-06	5.167836e-10	9.786968e+00	3.484188e+01
2.160000e-06	1.452378e-06	5.407139e-10	1.010095e+01	3.692039e+01
2.170000e-06	1.497456e-06	5.646843e-10	1.041446e+01	3.897050e+01
2.180000e-06	1.542450e-06	5.904435e-10	1.072738e+01	4.098998e+01
2.190000e-06	1.587269e-06	6.199421e-10	1.103909e+01	4.297680e+01
2.200000e-06	1.631940e-06	6.509186e-10	1.134976e+01	4.492906e+01
2.210000e-06	1.676448e-06	6.808705e-10	1.165930e+01	4.684507e+01
2.220000e-06	1.720838e-06	7.081608e-10	1.196803e+01	4.872330e+01
2.230000e-06	1.765174e-06	7.326993e-10	1.227637e+01	5.056244e+01
2.240000e-06	1.809355e-06	7.541035e-10	1.258364e+01	5.236135e+01
2.250000e-06	1.853436e-06	7.718600e-10	1.289021e+01	5.411908e+01
2.260000e-06	1.897480e-06	7.888813e-10	1.319654e+01	5.583488e+01
2.270000e-06	1.941424e-06	8.090624e-10	1.350216e+01	5.750820e+01
2.280000e-06	1.985278e-06	8.328202e-10	1.380714e+01	5.913868e+01
2.290000e-06	2.029047e-06	8.583578e-10	1.411155e+01	6.072612e+01
2.300000e-06	2.072802e-06	8.844843e-10	1.441586e+01	6.227053e+01
2.310000e-06	2.116529e-06	9.102640e-10	1.471997e+01	6.377207e+01
2.320000e-06	2.160121e-06	9.323294e-10	1.502314e+01	6.523107e+01
2.330000e-06	2.203611e-06	9.485340e-10	1.532560e+01	6.664802e+01
2.340000e-06	2.247004e-06	9.626865e-10	1.562739e+01	6.802355e+01
2.350000e-06	2.290192e-06	9.777194e-10	1.592776e+01	6.935841e+01
2.360000e-06	2.333203e-06	9.940974e-10	1.622688e+01	7.065349e+01
2.370000e-06	2.375953e-06	1.012815e-09	1.652420e+01	7.190977e+01
2.380000e-06	2.418318e-06	1.031250e-09	1.681884e+01	7.312834e+01
2.390000e-06	2.460373e-06	1.047757e-09	1.711132e+01	7.431037e+01
2.400000e-06	2.502111e-06	1.063913e-09	1.740160e+01	7.545708e+01
2.410000e-06	2.543490e-06	1.081058e-09	1.768938e+01	7.656977e+01
2.420000e-06	2.584567e-06	1.096146e-09	1.797506e+01	7.764976e+01
2.430000e-06	2.625448e-06	1.110339e-09	1.825938e+01	7.869840e+01
2.440000e-06	2.666039e-06	1.125986e-09	1.854168e+01	7.971705e+01
2.450000e-06	2.706342e-06	1.140498e-09	1.882198e+01	8.070710e+01
2.460000e-06	2.746501e-06	1.153892e-09	1.910128e+01	8.166988e+01
2.470000e-06	2.786522e-06	1.166471e-09	1.937961e+01	8.260673e+01
2.480000e-06	2.826417e-06	1.179415e-09	1.965707e+01	8.351895e+01
2.490000e-06	2.866201e-06	1.193693e-09	1.993376e+01	8.440779e+01
2.500000e-06	2.905876e-06	1.208134e-09	2.020969e+01	8.527444e+01
2.510000e-06	2.945420e-06	1.224275e-09	2.048471e+01	8.612004e+01
2.520000e-06	2.984745e-06	1.239890e-09	2.075820e+01	8.694566e+01
2.530000e-06	3.023832e-06	1.253489e-09	2.103005e+01	8.775229e+01
2.540000e-06	3.062804e-06	1.267375e-09	2.130109e+01	8.854083e+01
2.550000e-06	3.101570e-06	1.280182e-09	2.157070e+01	8.931212e+01
2.560000e-06	3.140002e-06	1.289369e-09	2.183799e+01	9.006689e+01
2.570000e-06	3.178128e-06	1.293548e-09	2.210314e+01	9.080579e+01
2.580000e-06	3.216034e-06	1.298249e-09	2.236677e+01	9.152939e+01
2.590000e-06	3.253863e-06	1.306440e-09	2.262986e+01	9.223816e+01
2.600000e-06	3.291556e-06	1.319739e-09	2.289201e+01	9.293249e+01
2.610000e-06	3.329047e-06	1.336825e-09	2.315274e+01	9.361268e+01
2.620000e-06	3.366328e-06	1.353452e-09	2.341203e+01	9.427894e+01
2.630000e-06	3.403257e-06	1.365004e-09	2.366886e+01	9.493144e+01
2.640000e-06	3.439798e-06	1.370032e-09	2.392299e+01	9.557025e+01
2.650000e-06	3.476069e-06	1.373277e-09	2.417525e+01	9.619538e+01
2.660000e-06	3.512165e-06	1.378139e-09	2.442629e+01	9.680679e+01
2.670000e-06	3.548120e-06	1.385121e-09	2.467635e+01	9.740439e+01
2.680000e-06	3.583941e-06	1.394127e-09	2.492548e+01	9.798803e+01
2.690000e-06	3.619667e-06	1.404726e-09	2.517394e+01	9.855755e+01
2.700000e-06	3.655263e-06	1.414723e-09	2.542150e+01	9.911275e+01
2.710000e-06	3.690630e-06	1.421471e-09	2.566747e+01	9.965340e+01
2.720000e-06	3.725743e-06	1.425394e-09	2.591168e+01	1.001793e+02
2.730000e-06	3.760583e-06	1.427834e-09	2.615398e+01	1.006902e+02
2.740000e-06	3.795026e-06	1.429173e-09	2.639352e+01	1.011859e+02
2.750000e-06	3.828972e-06	1.431999e-09	2.662961e+01	1.016661e+02
2.760000e-06	3.862464e-06	1.438762e-09	2.686254e+01	1.021308e+02
2.770000e-06	3.895444e-06	1.447917e-09	2.709191e+01	1.025797e+02
2.780000e-06	3.928036e-06	1.455507e-09	2.731858e+01	1.030127e+02
2.790000e-06	3.960398e-06	1.461596e-09	2.754365e+01	1.034297e+02
2.800000e-06	3.992485e-06	1.465955e-09	2.776680e+01	1.038307e+02
2.810000e-06	4.024364e-06	1.468124e-09	2.798852e+01	1.042156e+02
2.820000e-06	4.056090e-06	1.471203e-09	2.820916e+01	1.045847e+02
2.830000e-06	4.087606e-06	1.477278e-09	2.842835e+01	1.049378e+02
2.840000e-06	4.118921e-06	1.484482e-09	2.864614e+01	1.052754e+02
2.850000e-06	4.149968e-06	1.489473e-09	2.886207e+01	1.055975e+02
2.860000e-06	4.180643e-06	1.494230e-09	2.907540e+01	1.059044e+02
2.870000e-06	4.210955e-06	1.501093e-09	2.928621e+01	1.061966e+02
2.880000e-06	4.240975e-06	1.507373e-09	2.949499e+01	1.064744e+02
2.890000e-06	4.270798e-06	1.512608e-09	2.970241e+01	1.067383e+02
2.900000e-06	4.300376e-06	1.517680e-09	2.990811e+01	1.069887e+02
