# Temperatura_=_14.8
# Concentracion g/m^3_=_1620.0
# C_Vs_to_Am_M_A/Vsm_=_65563218390.804596
# pendiente_HvsI_1/m_=_3716.3
# ordenada_HvsI_A/m_=_1297.0
# frecuencia_Hz_=_135106.05925768346

Tiempo_(s)	Campo_(V.s)	Magnetizacion_(V.s)	Campo_(kA/m)	Magnetizacion_(A/m)
0.000000e+00	-5.529499e-06	-1.820612e-09	-3.836049e+01	-1.195606e+02
1.000000e-08	-5.529564e-06	-1.822431e-09	-3.836095e+01	-1.195299e+02
2.000000e-08	-5.529357e-06	-1.826809e-09	-3.835951e+01	-1.194980e+02
3.000000e-08	-5.528798e-06	-1.829312e-09	-3.835563e+01	-1.194649e+02
4.000000e-08	-5.527766e-06	-1.826946e-09	-3.834847e+01	-1.194304e+02
5.000000e-08	-5.526055e-06	-1.817475e-09	-3.833660e+01	-1.193941e+02
6.000000e-08	-5.523677e-06	-1.812593e-09	-3.832010e+01	-1.193559e+02
7.000000e-08	-5.520804e-06	-1.845871e-09	-3.830017e+01	-1.193155e+02
8.000000e-08	-5.517411e-06	-1.870304e-09	-3.827664e+01	-1.192726e+02
9.000000e-08	-5.513561e-06	-1.805310e-09	-3.824993e+01	-1.192269e+02
1.000000e-07	-5.509372e-06	-1.747525e-09	-3.822086e+01	-1.191782e+02
1.100000e-07	-5.504962e-06	-1.827601e-09	-3.819027e+01	-1.191260e+02
1.200000e-07	-5.500303e-06	-1.903761e-09	-3.815795e+01	-1.190702e+02
1.300000e-07	-5.495291e-06	-1.816248e-09	-3.812318e+01	-1.190104e+02
1.400000e-07	-5.489931e-06	-1.720879e-09	-3.808600e+01	-1.189462e+02
1.500000e-07	-5.484196e-06	-1.806306e-09	-3.804621e+01	-1.188775e+02
1.600000e-07	-5.478035e-06	-1.915513e-09	-3.800347e+01	-1.188040e+02
1.700000e-07	-5.471384e-06	-1.826610e-09	-3.795733e+01	-1.187254e+02
1.800000e-07	-5.464338e-06	-1.709915e-09	-3.790845e+01	-1.186414e+02
1.900000e-07	-5.456973e-06	-1.781752e-09	-3.785735e+01	-1.185519e+02
2.000000e-07	-5.449286e-06	-1.871965e-09	-3.780402e+01	-1.184567e+02
2.100000e-07	-5.441396e-06	-1.840766e-09	-3.774928e+01	-1.183556e+02
2.200000e-07	-5.433353e-06	-1.754854e-09	-3.769349e+01	-1.182486e+02
2.300000e-07	-5.424932e-06	-1.792908e-09	-3.763507e+01	-1.181354e+02
2.400000e-07	-5.415828e-06	-1.845026e-09	-3.757191e+01	-1.180161e+02
2.500000e-07	-5.406046e-06	-1.828160e-09	-3.750405e+01	-1.178906e+02
2.600000e-07	-5.395727e-06	-1.774037e-09	-3.743246e+01	-1.177590e+02
2.700000e-07	-5.384791e-06	-1.792745e-09	-3.735659e+01	-1.176212e+02
2.800000e-07	-5.373308e-06	-1.828180e-09	-3.727693e+01	-1.174773e+02
2.900000e-07	-5.361544e-06	-1.812467e-09	-3.719532e+01	-1.173275e+02
3.000000e-07	-5.349455e-06	-1.771751e-09	-3.711145e+01	-1.171719e+02
3.100000e-07	-5.336930e-06	-1.770982e-09	-3.702456e+01	-1.170105e+02
3.200000e-07	-5.324005e-06	-1.809130e-09	-3.693489e+01	-1.168436e+02
3.300000e-07	-5.310740e-06	-1.790286e-09	-3.684287e+01	-1.166715e+02
3.400000e-07	-5.296973e-06	-1.749454e-09	-3.674736e+01	-1.164942e+02
3.500000e-07	-5.282642e-06	-1.769138e-09	-3.664794e+01	-1.163121e+02
3.600000e-07	-5.267962e-06	-1.820390e-09	-3.654610e+01	-1.161253e+02
3.700000e-07	-5.252801e-06	-1.772335e-09	-3.644092e+01	-1.159342e+02
3.800000e-07	-5.237051e-06	-1.747977e-09	-3.633165e+01	-1.157390e+02
3.900000e-07	-5.220987e-06	-1.803316e-09	-3.622022e+01	-1.155399e+02
4.000000e-07	-5.204642e-06	-1.786821e-09	-3.610682e+01	-1.153372e+02
4.100000e-07	-5.187806e-06	-1.697856e-09	-3.599003e+01	-1.151312e+02
4.200000e-07	-5.170590e-06	-1.763128e-09	-3.587059e+01	-1.149221e+02
4.300000e-07	-5.153145e-06	-1.832615e-09	-3.574956e+01	-1.147101e+02
4.400000e-07	-5.135283e-06	-1.735019e-09	-3.562565e+01	-1.144955e+02
4.500000e-07	-5.116968e-06	-1.700605e-09	-3.549859e+01	-1.142784e+02
4.600000e-07	-5.098310e-06	-1.820481e-09	-3.536916e+01	-1.140590e+02
4.700000e-07	-5.079324e-06	-1.784227e-09	-3.523744e+01	-1.138375e+02
4.800000e-07	-5.060013e-06	-1.685042e-09	-3.510347e+01	-1.136140e+02
4.900000e-07	-5.040370e-06	-1.753876e-09	-3.496720e+01	-1.133886e+02
5.000000e-07	-5.020485e-06	-1.784705e-09	-3.482925e+01	-1.131614e+02
5.100000e-07	-5.000305e-06	-1.674135e-09	-3.468925e+01	-1.129323e+02
5.200000e-07	-4.979780e-06	-1.711699e-09	-3.454686e+01	-1.127015e+02
5.300000e-07	-4.959018e-06	-1.797260e-09	-3.440282e+01	-1.124688e+02
5.400000e-07	-4.937997e-06	-1.704930e-09	-3.425699e+01	-1.122343e+02
5.500000e-07	-4.916542e-06	-1.665053e-09	-3.410815e+01	-1.119979e+02
5.600000e-07	-4.894621e-06	-1.771368e-09	-3.395607e+01	-1.117595e+02
5.700000e-07	-4.872379e-06	-1.739924e-09	-3.380177e+01	-1.115188e+02
5.800000e-07	-4.849817e-06	-1.649852e-09	-3.364525e+01	-1.112759e+02
5.900000e-07	-4.826968e-06	-1.712143e-09	-3.348674e+01	-1.110305e+02
6.000000e-07	-4.803829e-06	-1.734539e-09	-3.332621e+01	-1.107824e+02
6.100000e-07	-4.780343e-06	-1.648587e-09	-3.316328e+01	-1.105314e+02
6.200000e-07	-4.756644e-06	-1.664539e-09	-3.299887e+01	-1.102773e+02
6.300000e-07	-4.732734e-06	-1.719848e-09	-3.283300e+01	-1.100199e+02
6.400000e-07	-4.708492e-06	-1.668751e-09	-3.266482e+01	-1.097588e+02
6.500000e-07	-4.683854e-06	-1.653047e-09	-3.249389e+01	-1.094939e+02
6.600000e-07	-4.658757e-06	-1.696120e-09	-3.231979e+01	-1.092250e+02
6.700000e-07	-4.633155e-06	-1.668542e-09	-3.214218e+01	-1.089517e+02
6.800000e-07	-4.606961e-06	-1.625625e-09	-3.196045e+01	-1.086738e+02
6.900000e-07	-4.580275e-06	-1.654328e-09	-3.177532e+01	-1.083912e+02
7.000000e-07	-4.553171e-06	-1.651084e-09	-3.158729e+01	-1.081036e+02
7.100000e-07	-4.525720e-06	-1.618907e-09	-3.139685e+01	-1.078108e+02
7.200000e-07	-4.498108e-06	-1.631331e-09	-3.120529e+01	-1.075126e+02
7.300000e-07	-4.470328e-06	-1.646715e-09	-3.101257e+01	-1.072089e+02
7.400000e-07	-4.442331e-06	-1.617532e-09	-3.081835e+01	-1.068995e+02
7.500000e-07	-4.414107e-06	-1.610147e-09	-3.062255e+01	-1.065843e+02
7.600000e-07	-4.385560e-06	-1.617247e-09	-3.042450e+01	-1.062633e+02
7.700000e-07	-4.356600e-06	-1.602104e-09	-3.022359e+01	-1.059363e+02
7.800000e-07	-4.327312e-06	-1.588969e-09	-3.002041e+01	-1.056034e+02
7.900000e-07	-4.297785e-06	-1.597123e-09	-2.981557e+01	-1.052645e+02
8.000000e-07	-4.268040e-06	-1.584681e-09	-2.960922e+01	-1.049197e+02
8.100000e-07	-4.238047e-06	-1.568573e-09	-2.940114e+01	-1.045689e+02
8.200000e-07	-4.207769e-06	-1.571901e-09	-2.919109e+01	-1.042124e+02
8.300000e-07	-4.177174e-06	-1.566381e-09	-2.897884e+01	-1.038501e+02
8.400000e-07	-4.146269e-06	-1.549604e-09	-2.876443e+01	-1.034823e+02
8.500000e-07	-4.115127e-06	-1.557366e-09	-2.854839e+01	-1.031089e+02
8.600000e-07	-4.083783e-06	-1.563003e-09	-2.833095e+01	-1.027303e+02
8.700000e-07	-4.052232e-06	-1.544920e-09	-2.811207e+01	-1.023465e+02
8.800000e-07	-4.020471e-06	-1.536331e-09	-2.789172e+01	-1.019577e+02
8.900000e-07	-3.988498e-06	-1.533497e-09	-2.766991e+01	-1.015642e+02
9.000000e-07	-3.956268e-06	-1.514512e-09	-2.744632e+01	-1.011661e+02
9.100000e-07	-3.923723e-06	-1.502546e-09	-2.722054e+01	-1.007637e+02
9.200000e-07	-3.890900e-06	-1.508736e-09	-2.699283e+01	-1.003570e+02
9.300000e-07	-3.857618e-06	-1.500226e-09	-2.676194e+01	-9.994642e+01
9.400000e-07	-3.823785e-06	-1.487971e-09	-2.652723e+01	-9.953202e+01
9.500000e-07	-3.789561e-06	-1.491947e-09	-2.628980e+01	-9.911398e+01
9.600000e-07	-3.754890e-06	-1.486757e-09	-2.604927e+01	-9.869247e+01
9.700000e-07	-3.719802e-06	-1.462710e-09	-2.580585e+01	-9.826763e+01
9.800000e-07	-3.684478e-06	-1.454991e-09	-2.556080e+01	-9.783956e+01
9.900000e-07	-3.648945e-06	-1.453663e-09	-2.531429e+01	-9.740837e+01
1.000000e-06	-3.613187e-06	-1.440269e-09	-2.506622e+01	-9.697411e+01
1.010000e-06	-3.577304e-06	-1.429561e-09	-2.481728e+01	-9.653683e+01
1.020000e-06	-3.541270e-06	-1.431824e-09	-2.456730e+01	-9.609653e+01
1.030000e-06	-3.505046e-06	-1.422914e-09	-2.431600e+01	-9.565319e+01
1.040000e-06	-3.468641e-06	-1.411763e-09	-2.406344e+01	-9.520676e+01
1.050000e-06	-3.431988e-06	-1.411490e-09	-2.380916e+01	-9.475715e+01
1.060000e-06	-3.394997e-06	-1.407125e-09	-2.355254e+01	-9.430424e+01
1.070000e-06	-3.357693e-06	-1.389554e-09	-2.329375e+01	-9.384789e+01
1.080000e-06	-3.320165e-06	-1.378525e-09	-2.303340e+01	-9.338791e+01
1.090000e-06	-3.282434e-06	-1.370327e-09	-2.277164e+01	-9.292410e+01
1.100000e-06	-3.244486e-06	-1.354619e-09	-2.250838e+01	-9.245623e+01
1.110000e-06	-3.206328e-06	-1.340662e-09	-2.224367e+01	-9.198403e+01
1.120000e-06	-3.168073e-06	-1.334913e-09	-2.197827e+01	-9.150722e+01
1.130000e-06	-3.129585e-06	-1.325818e-09	-2.171127e+01	-9.102550e+01
1.140000e-06	-3.090785e-06	-1.320017e-09	-2.144210e+01	-9.053855e+01
1.150000e-06	-3.051729e-06	-1.321950e-09	-2.117115e+01	-9.004605e+01
1.160000e-06	-3.012428e-06	-1.320077e-09	-2.089850e+01	-8.954764e+01
1.170000e-06	-2.972946e-06	-1.308360e-09	-2.062460e+01	-8.904299e+01
1.180000e-06	-2.933351e-06	-1.296039e-09	-2.034991e+01	-8.853174e+01
1.190000e-06	-2.893657e-06	-1.285837e-09	-2.007453e+01	-8.801354e+01
1.200000e-06	-2.853858e-06	-1.270741e-09	-1.979843e+01	-8.748805e+01
1.210000e-06	-2.813958e-06	-1.259827e-09	-1.952163e+01	-8.695494e+01
1.220000e-06	-2.773932e-06	-1.254891e-09	-1.924395e+01	-8.641387e+01
1.230000e-06	-2.733760e-06	-1.248143e-09	-1.896526e+01	-8.586453e+01
1.240000e-06	-2.693387e-06	-1.237419e-09	-1.868517e+01	-8.530665e+01
1.250000e-06	-2.652762e-06	-1.230125e-09	-1.840334e+01	-8.473993e+01
1.260000e-06	-2.611784e-06	-1.222280e-09	-1.811906e+01	-8.416413e+01
1.270000e-06	-2.570472e-06	-1.209297e-09	-1.783246e+01	-8.357903e+01
1.280000e-06	-2.528860e-06	-1.196550e-09	-1.754378e+01	-8.298442e+01
1.290000e-06	-2.487000e-06	-1.188281e-09	-1.725338e+01	-8.238012e+01
1.300000e-06	-2.444883e-06	-1.173961e-09	-1.696120e+01	-8.176599e+01
1.310000e-06	-2.402404e-06	-1.157132e-09	-1.666650e+01	-8.114189e+01
1.320000e-06	-2.359666e-06	-1.142508e-09	-1.637001e+01	-8.050773e+01
1.330000e-06	-2.316809e-06	-1.132749e-09	-1.607270e+01	-7.986344e+01
1.340000e-06	-2.273779e-06	-1.124600e-09	-1.577418e+01	-7.920896e+01
1.350000e-06	-2.230466e-06	-1.119045e-09	-1.547370e+01	-7.854425e+01
1.360000e-06	-2.186945e-06	-1.115312e-09	-1.517177e+01	-7.786929e+01
1.370000e-06	-2.143291e-06	-1.107001e-09	-1.486892e+01	-7.718408e+01
1.380000e-06	-2.099529e-06	-1.092583e-09	-1.456533e+01	-7.648863e+01
1.390000e-06	-2.055699e-06	-1.075171e-09	-1.426126e+01	-7.578292e+01
1.400000e-06	-2.011786e-06	-1.055788e-09	-1.395662e+01	-7.506699e+01
1.410000e-06	-1.967836e-06	-1.038354e-09	-1.365172e+01	-7.434081e+01
1.420000e-06	-1.923815e-06	-1.025120e-09	-1.334633e+01	-7.360439e+01
1.430000e-06	-1.879705e-06	-1.015858e-09	-1.304031e+01	-7.285769e+01
1.440000e-06	-1.835524e-06	-1.007072e-09	-1.273381e+01	-7.210068e+01
1.450000e-06	-1.791197e-06	-9.975069e-10	-1.242630e+01	-7.133326e+01
1.460000e-06	-1.746706e-06	-9.860405e-10	-1.211764e+01	-7.055534e+01
1.470000e-06	-1.702043e-06	-9.718669e-10	-1.180780e+01	-6.976676e+01
1.480000e-06	-1.657237e-06	-9.570668e-10	-1.149696e+01	-6.896733e+01
1.490000e-06	-1.612375e-06	-9.420550e-10	-1.118574e+01	-6.815681e+01
1.500000e-06	-1.567363e-06	-9.251294e-10	-1.087347e+01	-6.733490e+01
1.510000e-06	-1.522119e-06	-9.059445e-10	-1.055959e+01	-6.650125e+01
1.520000e-06	-1.476783e-06	-8.893911e-10	-1.024507e+01	-6.565544e+01
1.530000e-06	-1.431345e-06	-8.764389e-10	-9.929854e+00	-6.479698e+01
1.540000e-06	-1.385800e-06	-8.663280e-10	-9.613886e+00	-6.392533e+01
1.550000e-06	-1.340272e-06	-8.554100e-10	-9.298037e+00	-6.303987e+01
1.560000e-06	-1.294664e-06	-8.424160e-10	-8.981635e+00	-6.213991e+01
1.570000e-06	-1.248917e-06	-8.260944e-10	-8.664269e+00	-6.122467e+01
1.580000e-06	-1.203091e-06	-8.089266e-10	-8.346355e+00	-6.029334e+01
1.590000e-06	-1.157195e-06	-7.910849e-10	-8.027957e+00	-5.934501e+01
1.600000e-06	-1.111213e-06	-7.727448e-10	-7.708961e+00	-5.837871e+01
1.610000e-06	-1.065152e-06	-7.554072e-10	-7.389416e+00	-5.739340e+01
1.620000e-06	-1.018997e-06	-7.400161e-10	-7.069217e+00	-5.638801e+01
1.630000e-06	-9.727242e-07	-7.266313e-10	-6.748203e+00	-5.536138e+01
1.640000e-06	-9.264329e-07	-7.147723e-10	-6.427060e+00	-5.431233e+01
1.650000e-06	-8.800315e-07	-7.020401e-10	-6.105154e+00	-5.323962e+01
1.660000e-06	-8.335607e-07	-6.867925e-10	-5.782766e+00	-5.214200e+01
1.670000e-06	-7.871151e-07	-6.692640e-10	-5.460554e+00	-5.101818e+01
1.680000e-06	-7.405832e-07	-6.499855e-10	-5.137742e+00	-4.986685e+01
1.690000e-06	-6.939771e-07	-6.298354e-10	-4.814415e+00	-4.868672e+01
1.700000e-06	-6.473358e-07	-6.067837e-10	-4.490845e+00	-4.747648e+01
1.710000e-06	-6.006776e-07	-5.810112e-10	-4.167157e+00	-4.623486e+01
1.720000e-06	-5.540055e-07	-5.576295e-10	-3.843372e+00	-4.496061e+01
1.730000e-06	-5.072144e-07	-5.378209e-10	-3.518763e+00	-4.365252e+01
1.740000e-06	-4.603419e-07	-5.206995e-10	-3.193588e+00	-4.230944e+01
1.750000e-06	-4.135973e-07	-5.039666e-10	-2.869301e+00	-4.093029e+01
1.760000e-06	-3.668245e-07	-4.839856e-10	-2.544818e+00	-3.951405e+01
1.770000e-06	-3.199161e-07	-4.605565e-10	-2.219395e+00	-3.805981e+01
1.780000e-06	-2.729943e-07	-4.362462e-10	-1.893878e+00	-3.656675e+01
1.790000e-06	-2.260936e-07	-4.135811e-10	-1.568508e+00	-3.503418e+01
1.800000e-06	-1.791428e-07	-3.930866e-10	-1.242790e+00	-3.346151e+01
1.810000e-06	-1.321374e-07	-3.724509e-10	-9.166937e-01	-3.184832e+01
1.820000e-06	-8.516555e-08	-3.513852e-10	-5.908298e-01	-3.019430e+01
1.830000e-06	-3.826637e-08	-3.294215e-10	-2.654702e-01	-2.849931e+01
1.840000e-06	8.647069e-09	-3.068500e-10	5.998840e-02	-2.676338e+01
1.850000e-06	5.563098e-08	-2.843567e-10	3.859358e-01	-2.498669e+01
1.860000e-06	1.025575e-07	-2.607587e-10	7.114848e-01	-2.316962e+01
1.870000e-06	1.493889e-07	-2.364435e-10	1.036374e+00	-2.131270e+01
1.880000e-06	1.962569e-07	-2.117614e-10	1.361518e+00	-1.941667e+01
1.890000e-06	2.431816e-07	-1.849475e-10	1.687055e+00	-1.748243e+01
1.900000e-06	2.900227e-07	-1.555196e-10	2.012011e+00	-1.551108e+01
1.910000e-06	3.368768e-07	-1.253564e-10	2.337058e+00	-1.350390e+01
1.920000e-06	3.837649e-07	-9.510177e-11	2.662341e+00	-1.146236e+01
1.930000e-06	4.305233e-07	-6.508312e-11	2.986724e+00	-9.388095e+00
1.940000e-06	4.771735e-07	-3.633122e-11	3.310356e+00	-7.282925e+00
1.950000e-06	5.238301e-07	-8.977139e-12	3.634033e+00	-5.148835e+00
1.960000e-06	5.705035e-07	2.044958e-11	3.957826e+00	-2.987966e+00
1.970000e-06	6.170962e-07	5.177185e-11	4.281060e+00	-8.026145e-01
1.980000e-06	6.636268e-07	8.438189e-11	4.603862e+00	1.404784e+00
1.990000e-06	7.101369e-07	1.187848e-10	4.926523e+00	3.631665e+00
2.000000e-06	7.565664e-07	1.543283e-10	5.248624e+00	5.875347e+00
2.010000e-06	8.029784e-07	1.885193e-10	5.570604e+00	8.133044e+00
2.020000e-06	8.494205e-07	2.232092e-10	5.892792e+00	1.040188e+01
2.030000e-06	8.957461e-07	2.582088e-10	6.214173e+00	1.267891e+01
2.040000e-06	9.419003e-07	2.898094e-10	6.534364e+00	1.496113e+01
2.050000e-06	9.879703e-07	3.188681e-10	6.853972e+00	1.724549e+01
2.060000e-06	1.033999e-06	3.473952e-10	7.173294e+00	1.952892e+01
2.070000e-06	1.079998e-06	3.786603e-10	7.492405e+00	2.180833e+01
2.080000e-06	1.125909e-06	4.095894e-10	7.810914e+00	2.408066e+01
2.090000e-06	1.171720e-06	4.433113e-10	8.128719e+00	2.634285e+01
2.100000e-06	1.217466e-06	4.797054e-10	8.446078e+00	2.859191e+01
2.110000e-06	1.263113e-06	5.158666e-10	8.762755e+00	3.082490e+01
2.120000e-06	1.308665e-06	5.486744e-10	9.078764e+00	3.303894e+01
2.130000e-06	1.354138e-06	5.763121e-10	9.394236e+00	3.523126e+01
2.140000e-06	1.399582e-06	6.026338e-10	9.709497e+00	3.739919e+01
2.150000e-06	1.444946e-06	6.265102e-10	1.002421e+01	3.954019e+01
2.160000e-06	1.490170e-06	6.512244e-10	1.033795e+01	4.165183e+01
2.170000e-06	1.535270e-06	6.775150e-10	1.065082e+01	4.373186e+01
2.180000e-06	1.580233e-06	7.098941e-10	1.096275e+01	4.577814e+01
2.190000e-06	1.625168e-06	7.440669e-10	1.127449e+01	4.778874e+01
2.200000e-06	1.670014e-06	7.754209e-10	1.158560e+01	4.976189e+01
2.210000e-06	1.714614e-06	8.033413e-10	1.189501e+01	5.169599e+01
2.220000e-06	1.759036e-06	8.278726e-10	1.220319e+01	5.358963e+01
2.230000e-06	1.803363e-06	8.498891e-10	1.251070e+01	5.544160e+01
2.240000e-06	1.847550e-06	8.693984e-10	1.281724e+01	5.725088e+01
2.250000e-06	1.891602e-06	8.872450e-10	1.312285e+01	5.901665e+01
2.260000e-06	1.935577e-06	9.086717e-10	1.342793e+01	6.073826e+01
2.270000e-06	1.979475e-06	9.319435e-10	1.373247e+01	6.241529e+01
2.280000e-06	2.023333e-06	9.519798e-10	1.403672e+01	6.404748e+01
2.290000e-06	2.067122e-06	9.710632e-10	1.434051e+01	6.563477e+01
2.300000e-06	2.110835e-06	9.925893e-10	1.464376e+01	6.717727e+01
2.310000e-06	2.154491e-06	1.014584e-09	1.494662e+01	6.867526e+01
2.320000e-06	2.198064e-06	1.033952e-09	1.524891e+01	7.012919e+01
2.330000e-06	2.241536e-06	1.052135e-09	1.555049e+01	7.153967e+01
2.340000e-06	2.284881e-06	1.068840e-09	1.585120e+01	7.290743e+01
2.350000e-06	2.328015e-06	1.083976e-09	1.615044e+01	7.423337e+01
2.360000e-06	2.370893e-06	1.096938e-09	1.644790e+01	7.551846e+01
2.370000e-06	2.413503e-06	1.112814e-09	1.674350e+01	7.676383e+01
2.380000e-06	2.455882e-06	1.131844e-09	1.703750e+01	7.797066e+01
2.390000e-06	2.497977e-06	1.152445e-09	1.732953e+01	7.914024e+01
2.400000e-06	2.539674e-06	1.172265e-09	1.761881e+01	8.027392e+01
2.410000e-06	2.581097e-06	1.189324e-09	1.790617e+01	8.137310e+01
2.420000e-06	2.622307e-06	1.202892e-09	1.819206e+01	8.243922e+01
2.430000e-06	2.663226e-06	1.215680e-09	1.847593e+01	8.347375e+01
2.440000e-06	2.703790e-06	1.227673e-09	1.875734e+01	8.447817e+01
2.450000e-06	2.744190e-06	1.239054e-09	1.903762e+01	8.545396e+01
2.460000e-06	2.784459e-06	1.250413e-09	1.931698e+01	8.640258e+01
2.470000e-06	2.824484e-06	1.263379e-09	1.959465e+01	8.732548e+01
2.480000e-06	2.864305e-06	1.277272e-09	1.987091e+01	8.822407e+01
2.490000e-06	2.903979e-06	1.289635e-09	2.014614e+01	8.909971e+01
2.500000e-06	2.943521e-06	1.300568e-09	2.042046e+01	8.995370e+01
2.510000e-06	2.982915e-06	1.313536e-09	2.069375e+01	9.078729e+01
2.520000e-06	3.022205e-06	1.325728e-09	2.096632e+01	9.160165e+01
2.530000e-06	3.061341e-06	1.338788e-09	2.123783e+01	9.239787e+01
2.540000e-06	3.100219e-06	1.352603e-09	2.150754e+01	9.317697e+01
2.550000e-06	3.138823e-06	1.362350e-09	2.177535e+01	9.393987e+01
2.560000e-06	3.177178e-06	1.369181e-09	2.204144e+01	9.468740e+01
2.570000e-06	3.215321e-06	1.375586e-09	2.230605e+01	9.542030e+01
2.580000e-06	3.253296e-06	1.383255e-09	2.256951e+01	9.613924e+01
2.590000e-06	3.291052e-06	1.392805e-09	2.283143e+01	9.684475e+01
2.600000e-06	3.328579e-06	1.406075e-09	2.309178e+01	9.753732e+01
2.610000e-06	3.365935e-06	1.421434e-09	2.335092e+01	9.821731e+01
2.620000e-06	3.403066e-06	1.437319e-09	2.360852e+01	9.888502e+01
2.630000e-06	3.439850e-06	1.449449e-09	2.386371e+01	9.954065e+01
2.640000e-06	3.476352e-06	1.457419e-09	2.411694e+01	1.001844e+02
2.650000e-06	3.512685e-06	1.463129e-09	2.436900e+01	1.008162e+02
2.660000e-06	3.548779e-06	1.467478e-09	2.461939e+01	1.014361e+02
2.670000e-06	3.584701e-06	1.472436e-09	2.486860e+01	1.020442e+02
2.680000e-06	3.620521e-06	1.480744e-09	2.511710e+01	1.026401e+02
2.690000e-06	3.656145e-06	1.491328e-09	2.536424e+01	1.032239e+02
2.700000e-06	3.691570e-06	1.501904e-09	2.560999e+01	1.037954e+02
2.710000e-06	3.726829e-06	1.509766e-09	2.585460e+01	1.043542e+02
2.720000e-06	3.761839e-06	1.516847e-09	2.609748e+01	1.049002e+02
2.730000e-06	3.796496e-06	1.522004e-09	2.633791e+01	1.054331e+02
2.740000e-06	3.830695e-06	1.525771e-09	2.657517e+01	1.059528e+02
2.750000e-06	3.864428e-06	1.530154e-09	2.680919e+01	1.064589e+02
2.760000e-06	3.897804e-06	1.535464e-09	2.704073e+01	1.069512e+02
2.770000e-06	3.930733e-06	1.542957e-09	2.726917e+01	1.074295e+02
2.780000e-06	3.963276e-06	1.551512e-09	2.749494e+01	1.078937e+02
2.790000e-06	3.995593e-06	1.559999e-09	2.771914e+01	1.083436e+02
2.800000e-06	4.027654e-06	1.567735e-09	2.794155e+01	1.087791e+02
2.810000e-06	4.059472e-06	1.574001e-09	2.816229e+01	1.092001e+02
2.820000e-06	4.091058e-06	1.580415e-09	2.838141e+01	1.096065e+02
2.830000e-06	4.122427e-06	1.587422e-09	2.859903e+01	1.099985e+02
2.840000e-06	4.153520e-06	1.594114e-09	2.881474e+01	1.103760e+02
2.850000e-06	4.184371e-06	1.600122e-09	2.902877e+01	1.107393e+02
2.860000e-06	4.214966e-06	1.606461e-09	2.924102e+01	1.110884e+02
2.870000e-06	4.245201e-06	1.613463e-09	2.945077e+01	1.114236e+02
2.880000e-06	4.275204e-06	1.618698e-09	2.965891e+01	1.117452e+02
2.890000e-06	4.304927e-06	1.622861e-09	2.986511e+01	1.120535e+02
2.900000e-06	4.334333e-06	1.627031e-09	3.006912e+01	1.123490e+02
