# Temperatura_=_-14.79
# Concentracion g/m^3_=_1620.0
# C_Vs_to_Am_M_A/Vsm_=_65563218390.804596
# pendiente_HvsI_1/m_=_3716.3
# ordenada_HvsI_A/m_=_1297.0
# frecuencia_Hz_=_135097.9028768835

Tiempo_(s)	Campo_(V.s)	Magnetizacion_(V.s)	Campo_(kA/m)	Magnetizacion_(A/m)
0.000000e+00	-5.521934e-06	-1.277520e-09	-3.836851e+01	-8.199511e+01
1.000000e-08	-5.522199e-06	-1.275422e-09	-3.837035e+01	-8.196986e+01
2.000000e-08	-5.522254e-06	-1.276791e-09	-3.837074e+01	-8.194290e+01
3.000000e-08	-5.521967e-06	-1.280278e-09	-3.836874e+01	-8.191410e+01
4.000000e-08	-5.521264e-06	-1.282300e-09	-3.836385e+01	-8.188335e+01
5.000000e-08	-5.520147e-06	-1.279364e-09	-3.835610e+01	-8.185051e+01
6.000000e-08	-5.518442e-06	-1.266089e-09	-3.834425e+01	-8.181544e+01
7.000000e-08	-5.516121e-06	-1.243124e-09	-3.832812e+01	-8.177803e+01
8.000000e-08	-5.513248e-06	-1.253881e-09	-3.830815e+01	-8.173816e+01
9.000000e-08	-5.509857e-06	-1.325961e-09	-3.828459e+01	-8.169573e+01
1.000000e-07	-5.505977e-06	-1.356376e-09	-3.825764e+01	-8.165063e+01
1.100000e-07	-5.501681e-06	-1.269759e-09	-3.822778e+01	-8.160279e+01
1.200000e-07	-5.497236e-06	-1.218002e-09	-3.819690e+01	-8.155215e+01
1.300000e-07	-5.492632e-06	-1.247307e-09	-3.816491e+01	-8.149865e+01
1.400000e-07	-5.487686e-06	-1.310831e-09	-3.813054e+01	-8.144228e+01
1.500000e-07	-5.482264e-06	-1.258317e-09	-3.809287e+01	-8.138305e+01
1.600000e-07	-5.476414e-06	-1.223505e-09	-3.805222e+01	-8.132096e+01
1.700000e-07	-5.470202e-06	-1.288739e-09	-3.800906e+01	-8.125608e+01
1.800000e-07	-5.463457e-06	-1.307669e-09	-3.796219e+01	-8.118848e+01
1.900000e-07	-5.456293e-06	-1.251550e-09	-3.791241e+01	-8.111827e+01
2.000000e-07	-5.448902e-06	-1.187524e-09	-3.786106e+01	-8.104557e+01
2.100000e-07	-5.441205e-06	-1.236188e-09	-3.780758e+01	-8.097055e+01
2.200000e-07	-5.433280e-06	-1.261222e-09	-3.775251e+01	-8.089339e+01
2.300000e-07	-5.425220e-06	-1.257952e-09	-3.769650e+01	-8.081430e+01
2.400000e-07	-5.416911e-06	-1.227905e-09	-3.763877e+01	-8.073351e+01
2.500000e-07	-5.407950e-06	-1.227664e-09	-3.757650e+01	-8.065127e+01
2.600000e-07	-5.398063e-06	-1.209234e-09	-3.750781e+01	-8.056787e+01
2.700000e-07	-5.387519e-06	-1.214894e-09	-3.743455e+01	-8.048359e+01
2.800000e-07	-5.376605e-06	-1.216242e-09	-3.735871e+01	-8.039874e+01
2.900000e-07	-5.365266e-06	-1.228180e-09	-3.727992e+01	-8.031364e+01
3.000000e-07	-5.353398e-06	-1.228521e-09	-3.719746e+01	-8.022862e+01
3.100000e-07	-5.341147e-06	-1.225208e-09	-3.711233e+01	-8.014401e+01
3.200000e-07	-5.328548e-06	-1.208534e-09	-3.702479e+01	-8.006013e+01
3.300000e-07	-5.315461e-06	-1.193572e-09	-3.693386e+01	-7.997733e+01
3.400000e-07	-5.302064e-06	-1.207693e-09	-3.684077e+01	-7.989591e+01
3.500000e-07	-5.288418e-06	-1.203109e-09	-3.674595e+01	-7.981620e+01
3.600000e-07	-5.274330e-06	-1.193065e-09	-3.664806e+01	-7.973850e+01
3.700000e-07	-5.259670e-06	-1.210159e-09	-3.654620e+01	-7.966308e+01
3.800000e-07	-5.244344e-06	-1.218284e-09	-3.643971e+01	-7.959019e+01
3.900000e-07	-5.228486e-06	-1.183789e-09	-3.632952e+01	-7.952008e+01
4.000000e-07	-5.212245e-06	-1.189618e-09	-3.621667e+01	-7.945294e+01
4.100000e-07	-5.195649e-06	-1.213754e-09	-3.610136e+01	-7.938894e+01
4.200000e-07	-5.178705e-06	-1.189933e-09	-3.598362e+01	-7.932823e+01
4.300000e-07	-5.161447e-06	-1.171887e-09	-3.586371e+01	-7.927089e+01
4.400000e-07	-5.143938e-06	-1.233877e-09	-3.574205e+01	-7.921698e+01
4.500000e-07	-5.126116e-06	-1.222224e-09	-3.561821e+01	-7.916653e+01
4.600000e-07	-5.107774e-06	-1.168587e-09	-3.549077e+01	-7.911950e+01
4.700000e-07	-5.088881e-06	-1.187787e-09	-3.535949e+01	-7.907584e+01
4.800000e-07	-5.069698e-06	-1.226145e-09	-3.522620e+01	-7.903543e+01
4.900000e-07	-5.050282e-06	-1.176117e-09	-3.509129e+01	-7.899811e+01
5.000000e-07	-5.030614e-06	-1.182142e-09	-3.495463e+01	-7.896368e+01
5.100000e-07	-5.010790e-06	-1.220994e-09	-3.481689e+01	-7.893192e+01
5.200000e-07	-4.990735e-06	-1.185908e-09	-3.467754e+01	-7.890254e+01
5.300000e-07	-4.970341e-06	-1.155460e-09	-3.453583e+01	-7.887523e+01
5.400000e-07	-4.949598e-06	-1.215700e-09	-3.439170e+01	-7.884964e+01
5.500000e-07	-4.928477e-06	-1.205805e-09	-3.424494e+01	-7.882538e+01
5.600000e-07	-4.906955e-06	-1.153833e-09	-3.409540e+01	-7.880205e+01
5.700000e-07	-4.885079e-06	-1.186759e-09	-3.394340e+01	-7.877922e+01
5.800000e-07	-4.862943e-06	-1.214702e-09	-3.378959e+01	-7.875643e+01
5.900000e-07	-4.840403e-06	-1.166542e-09	-3.363297e+01	-7.873322e+01
6.000000e-07	-4.817455e-06	-1.172225e-09	-3.347352e+01	-7.870910e+01
6.100000e-07	-4.794191e-06	-1.201049e-09	-3.331187e+01	-7.868358e+01
6.200000e-07	-4.770618e-06	-1.165912e-09	-3.314808e+01	-7.865619e+01
6.300000e-07	-4.746870e-06	-1.151146e-09	-3.298307e+01	-7.862643e+01
6.400000e-07	-4.722953e-06	-1.182170e-09	-3.281689e+01	-7.859383e+01
6.500000e-07	-4.698782e-06	-1.174691e-09	-3.264894e+01	-7.855793e+01
6.600000e-07	-4.674269e-06	-1.156532e-09	-3.247861e+01	-7.851829e+01
6.700000e-07	-4.649295e-06	-1.180349e-09	-3.230508e+01	-7.847450e+01
6.800000e-07	-4.623725e-06	-1.174856e-09	-3.212741e+01	-7.842615e+01
6.900000e-07	-4.597520e-06	-1.150584e-09	-3.194533e+01	-7.837289e+01
7.000000e-07	-4.570854e-06	-1.155517e-09	-3.176004e+01	-7.831440e+01
7.100000e-07	-4.543772e-06	-1.166677e-09	-3.157187e+01	-7.825040e+01
7.200000e-07	-4.516269e-06	-1.154824e-09	-3.138076e+01	-7.818064e+01
7.300000e-07	-4.488564e-06	-1.164971e-09	-3.118826e+01	-7.810494e+01
7.400000e-07	-4.460762e-06	-1.175560e-09	-3.099508e+01	-7.802313e+01
7.500000e-07	-4.432792e-06	-1.166770e-09	-3.080073e+01	-7.793512e+01
7.600000e-07	-4.404556e-06	-1.155758e-09	-3.060454e+01	-7.784086e+01
7.700000e-07	-4.376067e-06	-1.159421e-09	-3.040659e+01	-7.774035e+01
7.800000e-07	-4.347277e-06	-1.150162e-09	-3.020654e+01	-7.763364e+01
7.900000e-07	-4.318152e-06	-1.145986e-09	-3.000417e+01	-7.752082e+01
8.000000e-07	-4.288736e-06	-1.154186e-09	-2.979978e+01	-7.740204e+01
8.100000e-07	-4.259002e-06	-1.159224e-09	-2.959317e+01	-7.727749e+01
8.200000e-07	-4.228860e-06	-1.149996e-09	-2.938373e+01	-7.714740e+01
8.300000e-07	-4.198357e-06	-1.154354e-09	-2.917179e+01	-7.701206e+01
8.400000e-07	-4.167608e-06	-1.154043e-09	-2.895814e+01	-7.687175e+01
8.500000e-07	-4.136580e-06	-1.146794e-09	-2.874254e+01	-7.672684e+01
8.600000e-07	-4.105325e-06	-1.145865e-09	-2.852537e+01	-7.657769e+01
8.700000e-07	-4.073915e-06	-1.151018e-09	-2.830712e+01	-7.642470e+01
8.800000e-07	-4.042308e-06	-1.142561e-09	-2.808750e+01	-7.626827e+01
8.900000e-07	-4.010496e-06	-1.134580e-09	-2.786646e+01	-7.610884e+01
9.000000e-07	-3.978549e-06	-1.137216e-09	-2.764448e+01	-7.594683e+01
9.100000e-07	-3.946383e-06	-1.135002e-09	-2.742098e+01	-7.578270e+01
9.200000e-07	-3.913786e-06	-1.127908e-09	-2.719448e+01	-7.561686e+01
9.300000e-07	-3.880756e-06	-1.129046e-09	-2.696498e+01	-7.544974e+01
9.400000e-07	-3.847332e-06	-1.128670e-09	-2.673274e+01	-7.528175e+01
9.500000e-07	-3.813455e-06	-1.117251e-09	-2.649734e+01	-7.511328e+01
9.600000e-07	-3.779119e-06	-1.115285e-09	-2.625877e+01	-7.494470e+01
9.700000e-07	-3.744309e-06	-1.117976e-09	-2.601689e+01	-7.477634e+01
9.800000e-07	-3.709095e-06	-1.113116e-09	-2.577221e+01	-7.460849e+01
9.900000e-07	-3.673619e-06	-1.109573e-09	-2.552571e+01	-7.444142e+01
1.000000e-06	-3.637974e-06	-1.116479e-09	-2.527803e+01	-7.427535e+01
1.010000e-06	-3.602260e-06	-1.112767e-09	-2.502988e+01	-7.411045e+01
1.020000e-06	-3.566455e-06	-1.102614e-09	-2.478109e+01	-7.394684e+01
1.030000e-06	-3.530480e-06	-1.097771e-09	-2.453113e+01	-7.378460e+01
1.040000e-06	-3.494269e-06	-1.096951e-09	-2.427952e+01	-7.362374e+01
1.050000e-06	-3.457805e-06	-1.091762e-09	-2.402615e+01	-7.346424e+01
1.060000e-06	-3.421070e-06	-1.093576e-09	-2.377090e+01	-7.330602e+01
1.070000e-06	-3.384070e-06	-1.093798e-09	-2.351381e+01	-7.314892e+01
1.080000e-06	-3.346903e-06	-1.088186e-09	-2.325556e+01	-7.299277e+01
1.090000e-06	-3.309547e-06	-1.080377e-09	-2.299600e+01	-7.283732e+01
1.100000e-06	-3.271913e-06	-1.077103e-09	-2.273450e+01	-7.268228e+01
1.110000e-06	-3.234007e-06	-1.068593e-09	-2.247112e+01	-7.252732e+01
1.120000e-06	-3.195891e-06	-1.058801e-09	-2.220627e+01	-7.237207e+01
1.130000e-06	-3.157596e-06	-1.051980e-09	-2.194019e+01	-7.221610e+01
1.140000e-06	-3.119128e-06	-1.049138e-09	-2.167290e+01	-7.205897e+01
1.150000e-06	-3.080360e-06	-1.047921e-09	-2.140352e+01	-7.190020e+01
1.160000e-06	-3.041339e-06	-1.051907e-09	-2.113239e+01	-7.173928e+01
1.170000e-06	-3.002136e-06	-1.053275e-09	-2.085999e+01	-7.157569e+01
1.180000e-06	-2.962723e-06	-1.047775e-09	-2.058614e+01	-7.140891e+01
1.190000e-06	-2.923205e-06	-1.040472e-09	-2.031155e+01	-7.123837e+01
1.200000e-06	-2.883574e-06	-1.034507e-09	-2.003617e+01	-7.106354e+01
1.210000e-06	-2.843788e-06	-1.028146e-09	-1.975973e+01	-7.088387e+01
1.220000e-06	-2.803919e-06	-1.022479e-09	-1.948270e+01	-7.069883e+01
1.230000e-06	-2.763962e-06	-1.021218e-09	-1.920506e+01	-7.050790e+01
1.240000e-06	-2.723890e-06	-1.018944e-09	-1.892663e+01	-7.031057e+01
1.250000e-06	-2.683674e-06	-1.015237e-09	-1.864719e+01	-7.010637e+01
1.260000e-06	-2.643126e-06	-1.011745e-09	-1.836545e+01	-6.989485e+01
1.270000e-06	-2.602198e-06	-1.008745e-09	-1.808107e+01	-6.967559e+01
1.280000e-06	-2.560987e-06	-1.000723e-09	-1.779472e+01	-6.944822e+01
1.290000e-06	-2.519436e-06	-9.922623e-10	-1.750601e+01	-6.921240e+01
1.300000e-06	-2.477675e-06	-9.874958e-10	-1.721584e+01	-6.896783e+01
1.310000e-06	-2.435697e-06	-9.845403e-10	-1.692415e+01	-6.871426e+01
1.320000e-06	-2.393337e-06	-9.793552e-10	-1.662982e+01	-6.845147e+01
1.330000e-06	-2.350642e-06	-9.760257e-10	-1.633316e+01	-6.817930e+01
1.340000e-06	-2.307671e-06	-9.729287e-10	-1.603458e+01	-6.789763e+01
1.350000e-06	-2.264449e-06	-9.705647e-10	-1.573426e+01	-6.760639e+01
1.360000e-06	-2.221052e-06	-9.680615e-10	-1.543272e+01	-6.730554e+01
1.370000e-06	-2.177522e-06	-9.648831e-10	-1.513025e+01	-6.699508e+01
1.380000e-06	-2.133858e-06	-9.588757e-10	-1.482686e+01	-6.667506e+01
1.390000e-06	-2.090110e-06	-9.512695e-10	-1.452289e+01	-6.634555e+01
1.400000e-06	-2.046321e-06	-9.422959e-10	-1.421862e+01	-6.600664e+01
1.410000e-06	-2.002512e-06	-9.347233e-10	-1.391422e+01	-6.565846e+01
1.420000e-06	-1.958612e-06	-9.273308e-10	-1.360919e+01	-6.530114e+01
1.430000e-06	-1.914628e-06	-9.205647e-10	-1.330357e+01	-6.493484e+01
1.440000e-06	-1.870582e-06	-9.160889e-10	-1.299752e+01	-6.455971e+01
1.450000e-06	-1.826465e-06	-9.098370e-10	-1.269098e+01	-6.417589e+01
1.460000e-06	-1.782200e-06	-9.014061e-10	-1.238340e+01	-6.378353e+01
1.470000e-06	-1.737759e-06	-8.944701e-10	-1.207462e+01	-6.338274e+01
1.480000e-06	-1.693185e-06	-8.871819e-10	-1.176490e+01	-6.297364e+01
1.490000e-06	-1.648501e-06	-8.809637e-10	-1.145442e+01	-6.255627e+01
1.500000e-06	-1.603756e-06	-8.735886e-10	-1.114351e+01	-6.213067e+01
1.510000e-06	-1.558784e-06	-8.649600e-10	-1.083103e+01	-6.169682e+01
1.520000e-06	-1.513618e-06	-8.547802e-10	-1.051720e+01	-6.125465e+01
1.530000e-06	-1.468448e-06	-8.461903e-10	-1.020334e+01	-6.080402e+01
1.540000e-06	-1.423180e-06	-8.399469e-10	-9.888796e+00	-6.034475e+01
1.550000e-06	-1.377755e-06	-8.337113e-10	-9.573172e+00	-5.987655e+01
1.560000e-06	-1.332269e-06	-8.269446e-10	-9.257113e+00	-5.939911e+01
1.570000e-06	-1.286714e-06	-8.185087e-10	-8.940578e+00	-5.891199e+01
1.580000e-06	-1.241044e-06	-8.082933e-10	-8.623249e+00	-5.841470e+01
1.590000e-06	-1.195304e-06	-7.959385e-10	-8.305430e+00	-5.790665e+01
1.600000e-06	-1.149495e-06	-7.828160e-10	-7.987134e+00	-5.738719e+01
1.610000e-06	-1.103653e-06	-7.704944e-10	-7.668601e+00	-5.685555e+01
1.620000e-06	-1.057754e-06	-7.597060e-10	-7.349682e+00	-5.631091e+01
1.630000e-06	-1.011754e-06	-7.500346e-10	-7.030057e+00	-5.575235e+01
1.640000e-06	-9.656466e-07	-7.445489e-10	-6.709682e+00	-5.517886e+01
1.650000e-06	-9.194205e-07	-7.392187e-10	-6.388485e+00	-5.458939e+01
1.660000e-06	-8.730879e-07	-7.349219e-10	-6.066549e+00	-5.398278e+01
1.670000e-06	-8.266440e-07	-7.272982e-10	-5.743839e+00	-5.335783e+01
1.680000e-06	-7.801732e-07	-7.170231e-10	-5.420942e+00	-5.271328e+01
1.690000e-06	-7.337066e-07	-7.045489e-10	-5.098074e+00	-5.204780e+01
1.700000e-06	-6.872104e-07	-6.900192e-10	-4.775001e+00	-5.136004e+01
1.710000e-06	-6.407307e-07	-6.743468e-10	-4.452042e+00	-5.064862e+01
1.720000e-06	-5.942857e-07	-6.599207e-10	-4.129324e+00	-4.991212e+01
1.730000e-06	-5.478173e-07	-6.488108e-10	-3.806444e+00	-4.914912e+01
1.740000e-06	-5.011859e-07	-6.406131e-10	-3.482432e+00	-4.835820e+01
1.750000e-06	-4.544223e-07	-6.297707e-10	-3.157500e+00	-4.753794e+01
1.760000e-06	-4.075554e-07	-6.153002e-10	-2.831851e+00	-4.668697e+01
1.770000e-06	-3.605881e-07	-5.993376e-10	-2.505504e+00	-4.580392e+01
1.780000e-06	-3.137405e-07	-5.828442e-10	-2.179989e+00	-4.488752e+01
1.790000e-06	-2.669811e-07	-5.660121e-10	-1.855087e+00	-4.393651e+01
1.800000e-06	-2.202013e-07	-5.510537e-10	-1.530043e+00	-4.294973e+01
1.810000e-06	-1.733324e-07	-5.391164e-10	-1.204380e+00	-4.192611e+01
1.820000e-06	-1.263911e-07	-5.302552e-10	-8.782136e-01	-4.086466e+01
1.830000e-06	-7.955114e-08	-5.206925e-10	-5.527518e-01	-3.976453e+01
1.840000e-06	-3.274416e-08	-5.062562e-10	-2.275190e-01	-3.862497e+01
1.850000e-06	1.415366e-08	-4.885087e-10	9.834502e-02	-3.744536e+01
1.860000e-06	6.108661e-08	-4.698282e-10	4.244532e-01	-3.622522e+01
1.870000e-06	1.080273e-07	-4.522570e-10	7.506148e-01	-3.496424e+01
1.880000e-06	1.549808e-07	-4.355861e-10	1.076866e+00	-3.366225e+01
1.890000e-06	2.019310e-07	-4.199662e-10	1.403094e+00	-3.231924e+01
1.900000e-06	2.488713e-07	-4.019045e-10	1.729253e+00	-3.093537e+01
1.910000e-06	2.957153e-07	-3.822042e-10	2.054743e+00	-2.951100e+01
1.920000e-06	3.424445e-07	-3.627675e-10	2.379435e+00	-2.804663e+01
1.930000e-06	3.892411e-07	-3.426280e-10	2.704596e+00	-2.654296e+01
1.940000e-06	4.360180e-07	-3.217951e-10	3.029620e+00	-2.500085e+01
1.950000e-06	4.826160e-07	-3.006188e-10	3.353401e+00	-2.342136e+01
1.960000e-06	5.291567e-07	-2.789138e-10	3.676783e+00	-2.180572e+01
1.970000e-06	5.756426e-07	-2.574727e-10	3.999785e+00	-2.015531e+01
1.980000e-06	6.221011e-07	-2.344517e-10	4.322596e+00	-1.847170e+01
1.990000e-06	6.685401e-07	-2.118843e-10	4.645273e+00	-1.675661e+01
2.000000e-06	7.148953e-07	-1.876506e-10	4.967366e+00	-1.501191e+01
2.010000e-06	7.611885e-07	-1.614225e-10	5.289029e+00	-1.323964e+01
2.020000e-06	8.075040e-07	-1.348931e-10	5.610847e+00	-1.144193e+01
2.030000e-06	8.538076e-07	-1.075161e-10	5.932582e+00	-9.621062e+00
2.040000e-06	9.000263e-07	-8.063549e-11	6.253727e+00	-7.779432e+00
2.050000e-06	9.461611e-07	-5.583288e-11	6.574289e+00	-5.919525e+00
2.060000e-06	9.922294e-07	-3.322046e-11	6.894389e+00	-4.043915e+00
2.070000e-06	1.038220e-06	-1.014234e-11	7.213948e+00	-2.155247e+00
2.080000e-06	1.084155e-06	1.386209e-11	7.533122e+00	-2.562264e-01
2.090000e-06	1.130067e-06	3.891791e-11	7.852136e+00	1.650401e+00
2.100000e-06	1.175905e-06	6.665002e-11	8.170638e+00	3.561861e+00
2.110000e-06	1.221610e-06	9.455849e-11	8.488216e+00	5.475368e+00
2.120000e-06	1.267248e-06	1.219919e-10	8.805324e+00	7.388137e+00
2.130000e-06	1.312811e-06	1.494379e-10	9.121912e+00	9.297403e+00
2.140000e-06	1.358234e-06	1.750703e-10	9.437526e+00	1.120043e+01
2.150000e-06	1.403567e-06	1.984437e-10	9.752524e+00	1.309454e+01
2.160000e-06	1.448782e-06	2.194625e-10	1.006669e+01	1.497711e+01
2.170000e-06	1.493881e-06	2.404284e-10	1.038005e+01	1.684558e+01
2.180000e-06	1.538932e-06	2.636301e-10	1.069309e+01	1.869750e+01
2.190000e-06	1.583945e-06	2.895288e-10	1.100586e+01	2.053050e+01
2.200000e-06	1.628802e-06	3.162534e-10	1.131754e+01	2.234234e+01
2.210000e-06	1.673493e-06	3.430977e-10	1.162807e+01	2.413088e+01
2.220000e-06	1.718092e-06	3.697008e-10	1.193796e+01	2.589413e+01
2.230000e-06	1.762496e-06	3.942170e-10	1.224650e+01	2.763022e+01
2.240000e-06	1.806685e-06	4.155811e-10	1.255354e+01	2.933744e+01
2.250000e-06	1.850778e-06	4.334862e-10	1.285992e+01	3.101422e+01
2.260000e-06	1.894784e-06	4.490044e-10	1.316568e+01	3.265915e+01
2.270000e-06	1.938751e-06	4.654117e-10	1.347118e+01	3.427098e+01
2.280000e-06	1.982689e-06	4.854051e-10	1.377648e+01	3.584860e+01
2.290000e-06	2.026522e-06	5.091509e-10	1.408105e+01	3.739109e+01
2.300000e-06	2.070265e-06	5.339138e-10	1.438499e+01	3.889768e+01
2.310000e-06	2.113929e-06	5.586207e-10	1.468839e+01	4.036773e+01
2.320000e-06	2.157555e-06	5.809893e-10	1.499152e+01	4.180081e+01
2.330000e-06	2.201118e-06	5.979013e-10	1.529421e+01	4.319658e+01
2.340000e-06	2.244499e-06	6.110747e-10	1.559564e+01	4.455489e+01
2.350000e-06	2.287725e-06	6.251399e-10	1.589599e+01	4.587572e+01
2.360000e-06	2.330795e-06	6.424769e-10	1.619525e+01	4.715916e+01
2.370000e-06	2.373622e-06	6.613330e-10	1.649283e+01	4.840546e+01
2.380000e-06	2.416200e-06	6.815607e-10	1.678868e+01	4.961497e+01
2.390000e-06	2.458371e-06	7.009485e-10	1.708170e+01	5.078815e+01
2.400000e-06	2.500173e-06	7.169616e-10	1.737216e+01	5.192555e+01
2.410000e-06	2.541687e-06	7.311549e-10	1.766061e+01	5.302782e+01
2.420000e-06	2.582885e-06	7.438469e-10	1.794687e+01	5.409569e+01
2.430000e-06	2.623898e-06	7.555336e-10	1.823185e+01	5.512995e+01
2.440000e-06	2.664653e-06	7.682747e-10	1.851503e+01	5.613144e+01
2.450000e-06	2.705081e-06	7.826734e-10	1.879594e+01	5.710108e+01
2.460000e-06	2.745335e-06	7.990984e-10	1.907564e+01	5.803980e+01
2.470000e-06	2.785425e-06	8.144341e-10	1.935420e+01	5.894856e+01
2.480000e-06	2.825375e-06	8.279253e-10	1.963179e+01	5.982833e+01
2.490000e-06	2.865219e-06	8.411413e-10	1.990864e+01	6.068011e+01
2.500000e-06	2.904896e-06	8.526902e-10	2.018433e+01	6.150489e+01
2.510000e-06	2.944484e-06	8.644118e-10	2.045940e+01	6.230364e+01
2.520000e-06	2.983892e-06	8.777153e-10	2.073322e+01	6.307732e+01
2.530000e-06	3.023036e-06	8.902175e-10	2.100521e+01	6.382686e+01
2.540000e-06	3.061945e-06	9.022467e-10	2.127556e+01	6.455317e+01
2.550000e-06	3.100605e-06	9.133688e-10	2.154419e+01	6.525713e+01
2.560000e-06	3.139142e-06	9.228650e-10	2.181196e+01	6.593954e+01
2.570000e-06	3.177406e-06	9.305588e-10	2.207783e+01	6.660121e+01
2.580000e-06	3.215366e-06	9.373452e-10	2.234159e+01	6.724285e+01
2.590000e-06	3.253255e-06	9.449885e-10	2.260486e+01	6.786516e+01
2.600000e-06	3.291021e-06	9.541393e-10	2.286727e+01	6.846876e+01
2.610000e-06	3.328552e-06	9.652391e-10	2.312805e+01	6.905423e+01
2.620000e-06	3.365808e-06	9.781691e-10	2.338692e+01	6.962209e+01
2.630000e-06	3.402789e-06	9.904705e-10	2.364388e+01	7.017281e+01
2.640000e-06	3.439498e-06	9.996096e-10	2.389895e+01	7.070681e+01
2.650000e-06	3.475999e-06	1.006486e-09	2.415257e+01	7.122447e+01
2.660000e-06	3.512291e-06	1.009799e-09	2.440474e+01	7.172611e+01
2.670000e-06	3.548354e-06	1.011850e-09	2.465532e+01	7.221200e+01
2.680000e-06	3.584224e-06	1.015182e-09	2.490456e+01	7.268240e+01
2.690000e-06	3.619975e-06	1.020355e-09	2.515297e+01	7.313751e+01
2.700000e-06	3.655611e-06	1.029009e-09	2.540058e+01	7.357750e+01
2.710000e-06	3.691141e-06	1.037197e-09	2.564746e+01	7.400253e+01
2.720000e-06	3.726498e-06	1.040314e-09	2.589313e+01	7.441272e+01
2.730000e-06	3.761464e-06	1.042407e-09	2.613609e+01	7.480819e+01
2.740000e-06	3.796073e-06	1.044923e-09	2.637656e+01	7.518903e+01
2.750000e-06	3.830275e-06	1.047176e-09	2.661422e+01	7.555534e+01
2.760000e-06	3.863920e-06	1.051693e-09	2.684800e+01	7.590721e+01
2.770000e-06	3.896975e-06	1.056349e-09	2.707767e+01	7.624474e+01
2.780000e-06	3.929568e-06	1.063814e-09	2.730414e+01	7.656803e+01
2.790000e-06	3.961877e-06	1.071012e-09	2.752864e+01	7.687719e+01
2.800000e-06	3.993998e-06	1.075524e-09	2.775183e+01	7.717237e+01
2.810000e-06	4.025972e-06	1.079753e-09	2.797400e+01	7.745370e+01
2.820000e-06	4.057773e-06	1.083512e-09	2.819496e+01	7.772136e+01
2.830000e-06	4.089425e-06	1.090451e-09	2.841489e+01	7.797554e+01
2.840000e-06	4.120898e-06	1.097407e-09	2.863358e+01	7.821648e+01
2.850000e-06	4.152054e-06	1.102977e-09	2.885006e+01	7.844441e+01
2.860000e-06	4.182812e-06	1.106339e-09	2.906378e+01	7.865964e+01
2.870000e-06	4.213189e-06	1.108890e-09	2.927485e+01	7.886245e+01
2.880000e-06	4.243237e-06	1.109903e-09	2.948364e+01	7.905321e+01
2.890000e-06	4.273026e-06	1.111241e-09	2.969062e+01	7.923227e+01
2.900000e-06	4.302563e-06	1.116730e-09	2.989586e+01	7.940005e+01
