# Temperatura_=_14.6
# Concentracion g/m^3_=_1620.0
# C_Vs_to_Am_M_A/Vsm_=_65563218390.804596
# pendiente_HvsI_1/m_=_3716.3
# ordenada_HvsI_A/m_=_1297.0
# frecuencia_Hz_=_135105.4385646802

Tiempo_(s)	Campo_(V.s)	Magnetizacion_(V.s)	Campo_(kA/m)	Magnetizacion_(A/m)
0.000000e+00	-5.531686e-06	-1.816507e-09	-3.836874e+01	-1.194757e+02
1.000000e-08	-5.532047e-06	-1.814289e-09	-3.837125e+01	-1.194350e+02
2.000000e-08	-5.532146e-06	-1.814446e-09	-3.837193e+01	-1.193947e+02
3.000000e-08	-5.531822e-06	-1.814762e-09	-3.836969e+01	-1.193546e+02
4.000000e-08	-5.530971e-06	-1.814007e-09	-3.836378e+01	-1.193147e+02
5.000000e-08	-5.529517e-06	-1.811441e-09	-3.835370e+01	-1.192749e+02
6.000000e-08	-5.527380e-06	-1.804997e-09	-3.833888e+01	-1.192348e+02
7.000000e-08	-5.524692e-06	-1.803493e-09	-3.832023e+01	-1.191943e+02
8.000000e-08	-5.521601e-06	-1.823847e-09	-3.829879e+01	-1.191532e+02
9.000000e-08	-5.518146e-06	-1.846501e-09	-3.827483e+01	-1.191110e+02
1.000000e-07	-5.514290e-06	-1.825589e-09	-3.824808e+01	-1.190675e+02
1.100000e-07	-5.509995e-06	-1.777268e-09	-3.821829e+01	-1.190224e+02
1.200000e-07	-5.505432e-06	-1.781003e-09	-3.818664e+01	-1.189754e+02
1.300000e-07	-5.500691e-06	-1.805266e-09	-3.815376e+01	-1.189259e+02
1.400000e-07	-5.495556e-06	-1.793063e-09	-3.811814e+01	-1.188738e+02
1.500000e-07	-5.489963e-06	-1.777410e-09	-3.807935e+01	-1.188186e+02
1.600000e-07	-5.484046e-06	-1.803593e-09	-3.803830e+01	-1.187600e+02
1.700000e-07	-5.477796e-06	-1.850275e-09	-3.799495e+01	-1.186975e+02
1.800000e-07	-5.471137e-06	-1.800202e-09	-3.794876e+01	-1.186309e+02
1.900000e-07	-5.464038e-06	-1.767341e-09	-3.789952e+01	-1.185598e+02
2.000000e-07	-5.456640e-06	-1.764755e-09	-3.784821e+01	-1.184838e+02
2.100000e-07	-5.448983e-06	-1.809403e-09	-3.779510e+01	-1.184028e+02
2.200000e-07	-5.440979e-06	-1.811948e-09	-3.773958e+01	-1.183163e+02
2.300000e-07	-5.432729e-06	-1.816023e-09	-3.768236e+01	-1.182243e+02
2.400000e-07	-5.424051e-06	-1.823146e-09	-3.762217e+01	-1.181264e+02
2.500000e-07	-5.414670e-06	-1.827860e-09	-3.755710e+01	-1.180225e+02
2.600000e-07	-5.404549e-06	-1.806016e-09	-3.748690e+01	-1.179124e+02
2.700000e-07	-5.393882e-06	-1.788620e-09	-3.741291e+01	-1.177960e+02
2.800000e-07	-5.382825e-06	-1.798740e-09	-3.733622e+01	-1.176733e+02
2.900000e-07	-5.371289e-06	-1.816595e-09	-3.725620e+01	-1.175442e+02
3.000000e-07	-5.359408e-06	-1.814755e-09	-3.717379e+01	-1.174086e+02
3.100000e-07	-5.347209e-06	-1.790342e-09	-3.708918e+01	-1.172667e+02
3.200000e-07	-5.334549e-06	-1.798435e-09	-3.700136e+01	-1.171184e+02
3.300000e-07	-5.321465e-06	-1.801699e-09	-3.691062e+01	-1.169639e+02
3.400000e-07	-5.308019e-06	-1.796987e-09	-3.681735e+01	-1.168033e+02
3.500000e-07	-5.294043e-06	-1.765540e-09	-3.672041e+01	-1.166367e+02
3.600000e-07	-5.279528e-06	-1.787811e-09	-3.661973e+01	-1.164643e+02
3.700000e-07	-5.264671e-06	-1.804511e-09	-3.651668e+01	-1.162863e+02
3.800000e-07	-5.249467e-06	-1.795695e-09	-3.641122e+01	-1.161030e+02
3.900000e-07	-5.233687e-06	-1.769691e-09	-3.630177e+01	-1.159145e+02
4.000000e-07	-5.217353e-06	-1.785192e-09	-3.618848e+01	-1.157211e+02
4.100000e-07	-5.200587e-06	-1.766243e-09	-3.607218e+01	-1.155230e+02
4.200000e-07	-5.183479e-06	-1.740515e-09	-3.595352e+01	-1.153206e+02
4.300000e-07	-5.166094e-06	-1.758450e-09	-3.583293e+01	-1.151140e+02
4.400000e-07	-5.148496e-06	-1.789921e-09	-3.571087e+01	-1.149035e+02
4.500000e-07	-5.130616e-06	-1.750679e-09	-3.558685e+01	-1.146895e+02
4.600000e-07	-5.112159e-06	-1.739972e-09	-3.545883e+01	-1.144720e+02
4.700000e-07	-5.093207e-06	-1.770208e-09	-3.532737e+01	-1.142514e+02
4.800000e-07	-5.073958e-06	-1.756581e-09	-3.519386e+01	-1.140279e+02
4.900000e-07	-5.054479e-06	-1.718153e-09	-3.505875e+01	-1.138016e+02
5.000000e-07	-5.034810e-06	-1.739667e-09	-3.492233e+01	-1.135727e+02
5.100000e-07	-5.014941e-06	-1.735154e-09	-3.478451e+01	-1.133415e+02
5.200000e-07	-4.994790e-06	-1.694397e-09	-3.464474e+01	-1.131080e+02
5.300000e-07	-4.974260e-06	-1.719638e-09	-3.450234e+01	-1.128723e+02
5.400000e-07	-4.953360e-06	-1.754852e-09	-3.435737e+01	-1.126345e+02
5.500000e-07	-4.932121e-06	-1.712100e-09	-3.421005e+01	-1.123947e+02
5.600000e-07	-4.910544e-06	-1.695566e-09	-3.406039e+01	-1.121529e+02
5.700000e-07	-4.888655e-06	-1.735796e-09	-3.390856e+01	-1.119091e+02
5.800000e-07	-4.866465e-06	-1.714724e-09	-3.375465e+01	-1.116632e+02
5.900000e-07	-4.843908e-06	-1.679613e-09	-3.359819e+01	-1.114152e+02
6.000000e-07	-4.820973e-06	-1.701539e-09	-3.343911e+01	-1.111651e+02
6.100000e-07	-4.797732e-06	-1.701431e-09	-3.327791e+01	-1.109126e+02
6.200000e-07	-4.774218e-06	-1.661425e-09	-3.311481e+01	-1.106577e+02
6.300000e-07	-4.750462e-06	-1.676500e-09	-3.295004e+01	-1.104003e+02
6.400000e-07	-4.726441e-06	-1.693020e-09	-3.278342e+01	-1.101401e+02
6.500000e-07	-4.702083e-06	-1.670935e-09	-3.261447e+01	-1.098770e+02
6.600000e-07	-4.677272e-06	-1.665878e-09	-3.244238e+01	-1.096108e+02
6.700000e-07	-4.651949e-06	-1.683236e-09	-3.226673e+01	-1.093413e+02
6.800000e-07	-4.626114e-06	-1.657664e-09	-3.208754e+01	-1.090683e+02
6.900000e-07	-4.599854e-06	-1.642098e-09	-3.190539e+01	-1.087916e+02
7.000000e-07	-4.573189e-06	-1.649130e-09	-3.172044e+01	-1.085109e+02
7.100000e-07	-4.546057e-06	-1.639033e-09	-3.153225e+01	-1.082261e+02
7.200000e-07	-4.518625e-06	-1.622053e-09	-3.134197e+01	-1.079370e+02
7.300000e-07	-4.490999e-06	-1.640762e-09	-3.115035e+01	-1.076432e+02
7.400000e-07	-4.463131e-06	-1.644397e-09	-3.095706e+01	-1.073448e+02
7.500000e-07	-4.435003e-06	-1.628133e-09	-3.076196e+01	-1.070414e+02
7.600000e-07	-4.406630e-06	-1.623778e-09	-3.056516e+01	-1.067330e+02
7.700000e-07	-4.377948e-06	-1.622899e-09	-3.036621e+01	-1.064193e+02
7.800000e-07	-4.348921e-06	-1.602975e-09	-3.016488e+01	-1.061003e+02
7.900000e-07	-4.319562e-06	-1.597433e-09	-2.996124e+01	-1.057758e+02
8.000000e-07	-4.289855e-06	-1.601408e-09	-2.975519e+01	-1.054458e+02
8.100000e-07	-4.259881e-06	-1.590717e-09	-2.954728e+01	-1.051102e+02
8.200000e-07	-4.229664e-06	-1.580754e-09	-2.933769e+01	-1.047689e+02
8.300000e-07	-4.199203e-06	-1.584239e-09	-2.912641e+01	-1.044220e+02
8.400000e-07	-4.168511e-06	-1.578993e-09	-2.891352e+01	-1.040693e+02
8.500000e-07	-4.137498e-06	-1.569867e-09	-2.869841e+01	-1.037110e+02
8.600000e-07	-4.106138e-06	-1.575600e-09	-2.848089e+01	-1.033471e+02
8.700000e-07	-4.074550e-06	-1.572661e-09	-2.826179e+01	-1.029775e+02
8.800000e-07	-4.042843e-06	-1.555956e-09	-2.804187e+01	-1.026024e+02
8.900000e-07	-4.010982e-06	-1.545840e-09	-2.782087e+01	-1.022219e+02
9.000000e-07	-3.978895e-06	-1.540191e-09	-2.759831e+01	-1.018360e+02
9.100000e-07	-3.946531e-06	-1.523081e-09	-2.737383e+01	-1.014448e+02
9.200000e-07	-3.913698e-06	-1.515816e-09	-2.714609e+01	-1.010485e+02
9.300000e-07	-3.880427e-06	-1.516960e-09	-2.691532e+01	-1.006471e+02
9.400000e-07	-3.846819e-06	-1.510079e-09	-2.668221e+01	-1.002408e+02
9.500000e-07	-3.812756e-06	-1.498004e-09	-2.644594e+01	-9.982962e+01
9.600000e-07	-3.778261e-06	-1.496297e-09	-2.620668e+01	-9.941373e+01
9.700000e-07	-3.743358e-06	-1.485356e-09	-2.596459e+01	-9.899322e+01
9.800000e-07	-3.708053e-06	-1.471363e-09	-2.571971e+01	-9.856816e+01
9.900000e-07	-3.672532e-06	-1.466769e-09	-2.547333e+01	-9.813865e+01
1.000000e-06	-3.636911e-06	-1.465229e-09	-2.522625e+01	-9.770474e+01
1.010000e-06	-3.601148e-06	-1.451006e-09	-2.497819e+01	-9.726650e+01
1.020000e-06	-3.565236e-06	-1.441444e-09	-2.472910e+01	-9.682394e+01
1.030000e-06	-3.529175e-06	-1.437369e-09	-2.447897e+01	-9.637710e+01
1.040000e-06	-3.492822e-06	-1.429975e-09	-2.422683e+01	-9.592596e+01
1.050000e-06	-3.456216e-06	-1.422589e-09	-2.397292e+01	-9.547050e+01
1.060000e-06	-3.419442e-06	-1.421054e-09	-2.371785e+01	-9.501068e+01
1.070000e-06	-3.382397e-06	-1.412098e-09	-2.346090e+01	-9.454644e+01
1.080000e-06	-3.345094e-06	-1.397840e-09	-2.320216e+01	-9.407768e+01
1.090000e-06	-3.307541e-06	-1.387408e-09	-2.294168e+01	-9.360429e+01
1.100000e-06	-3.269754e-06	-1.376961e-09	-2.267958e+01	-9.312615e+01
1.110000e-06	-3.231775e-06	-1.362401e-09	-2.241616e+01	-9.264312e+01
1.120000e-06	-3.193603e-06	-1.350882e-09	-2.215139e+01	-9.215502e+01
1.130000e-06	-3.155233e-06	-1.341432e-09	-2.188525e+01	-9.166169e+01
1.140000e-06	-3.116576e-06	-1.330107e-09	-2.161711e+01	-9.116291e+01
1.150000e-06	-3.077697e-06	-1.323383e-09	-2.134745e+01	-9.065850e+01
1.160000e-06	-3.038649e-06	-1.320819e-09	-2.107660e+01	-9.014822e+01
1.170000e-06	-2.999324e-06	-1.315090e-09	-2.080384e+01	-8.963186e+01
1.180000e-06	-2.959839e-06	-1.304371e-09	-2.052996e+01	-8.910920e+01
1.190000e-06	-2.920277e-06	-1.295303e-09	-2.025556e+01	-8.857999e+01
1.200000e-06	-2.880585e-06	-1.283571e-09	-1.998024e+01	-8.804402e+01
1.210000e-06	-2.840724e-06	-1.269585e-09	-1.970376e+01	-8.750104e+01
1.220000e-06	-2.800702e-06	-1.257901e-09	-1.942616e+01	-8.695085e+01
1.230000e-06	-2.760489e-06	-1.249729e-09	-1.914724e+01	-8.639321e+01
1.240000e-06	-2.720100e-06	-1.238459e-09	-1.886709e+01	-8.582794e+01
1.250000e-06	-2.679546e-06	-1.230162e-09	-1.858580e+01	-8.525484e+01
1.260000e-06	-2.638676e-06	-1.226259e-09	-1.830232e+01	-8.467372e+01
1.270000e-06	-2.597557e-06	-1.221131e-09	-1.801711e+01	-8.408442e+01
1.280000e-06	-2.556210e-06	-1.209327e-09	-1.773032e+01	-8.348680e+01
1.290000e-06	-2.514549e-06	-1.195481e-09	-1.744135e+01	-8.288071e+01
1.300000e-06	-2.472565e-06	-1.180919e-09	-1.715015e+01	-8.226604e+01
1.310000e-06	-2.430308e-06	-1.165418e-09	-1.685704e+01	-8.164269e+01
1.320000e-06	-2.387798e-06	-1.150143e-09	-1.656219e+01	-8.101057e+01
1.330000e-06	-2.345038e-06	-1.139410e-09	-1.626560e+01	-8.036962e+01
1.340000e-06	-2.302031e-06	-1.130514e-09	-1.596729e+01	-7.971977e+01
1.350000e-06	-2.258749e-06	-1.124854e-09	-1.566708e+01	-7.906098e+01
1.360000e-06	-2.215314e-06	-1.120598e-09	-1.536580e+01	-7.839322e+01
1.370000e-06	-2.171746e-06	-1.113453e-09	-1.506361e+01	-7.771644e+01
1.380000e-06	-2.128061e-06	-1.100944e-09	-1.476061e+01	-7.703063e+01
1.390000e-06	-2.084349e-06	-1.084776e-09	-1.445741e+01	-7.633575e+01
1.400000e-06	-2.040564e-06	-1.066670e-09	-1.415371e+01	-7.563176e+01
1.410000e-06	-1.996701e-06	-1.050110e-09	-1.384947e+01	-7.491863e+01
1.420000e-06	-1.952769e-06	-1.035594e-09	-1.354474e+01	-7.419630e+01
1.430000e-06	-1.908732e-06	-1.023157e-09	-1.323930e+01	-7.346470e+01
1.440000e-06	-1.864568e-06	-1.013874e-09	-1.293297e+01	-7.272371e+01
1.450000e-06	-1.820281e-06	-1.005218e-09	-1.262579e+01	-7.197323e+01
1.460000e-06	-1.775917e-06	-9.955189e-10	-1.231807e+01	-7.121309e+01
1.470000e-06	-1.731427e-06	-9.831374e-10	-1.200948e+01	-7.044310e+01
1.480000e-06	-1.686787e-06	-9.691088e-10	-1.169985e+01	-6.966302e+01
1.490000e-06	-1.642047e-06	-9.555583e-10	-1.138952e+01	-6.887256e+01
1.500000e-06	-1.597194e-06	-9.409928e-10	-1.107842e+01	-6.807140e+01
1.510000e-06	-1.552183e-06	-9.236518e-10	-1.076621e+01	-6.725914e+01
1.520000e-06	-1.506981e-06	-9.081098e-10	-1.045268e+01	-6.643534e+01
1.530000e-06	-1.461654e-06	-8.952282e-10	-1.013829e+01	-6.559949e+01
1.540000e-06	-1.416219e-06	-8.853038e-10	-9.823144e+00	-6.475103e+01
1.550000e-06	-1.370700e-06	-8.747230e-10	-9.507413e+00	-6.388932e+01
1.560000e-06	-1.325088e-06	-8.621661e-10	-9.191040e+00	-6.301366e+01
1.570000e-06	-1.279342e-06	-8.463193e-10	-8.873741e+00	-6.212329e+01
1.580000e-06	-1.233524e-06	-8.297381e-10	-8.555936e+00	-6.121738e+01
1.590000e-06	-1.187617e-06	-8.128197e-10	-8.237523e+00	-6.029503e+01
1.600000e-06	-1.141675e-06	-7.939504e-10	-7.918860e+00	-5.935529e+01
1.610000e-06	-1.095686e-06	-7.749198e-10	-7.599873e+00	-5.839715e+01
1.620000e-06	-1.049592e-06	-7.592986e-10	-7.280157e+00	-5.741953e+01
1.630000e-06	-1.003373e-06	-7.451673e-10	-6.959574e+00	-5.642132e+01
1.640000e-06	-9.570588e-07	-7.320696e-10	-6.638327e+00	-5.540134e+01
1.650000e-06	-9.106994e-07	-7.205345e-10	-6.316771e+00	-5.435840e+01
1.660000e-06	-8.642449e-07	-7.083305e-10	-5.994554e+00	-5.329126e+01
1.670000e-06	-8.177177e-07	-6.933424e-10	-5.671833e+00	-5.219866e+01
1.680000e-06	-7.711812e-07	-6.758699e-10	-5.349048e+00	-5.107932e+01
1.690000e-06	-7.246517e-07	-6.577204e-10	-5.026311e+00	-4.993197e+01
1.700000e-06	-6.781239e-07	-6.362466e-10	-4.703586e+00	-4.875533e+01
1.710000e-06	-6.315587e-07	-6.119023e-10	-4.380602e+00	-4.754814e+01
1.720000e-06	-5.849141e-07	-5.886674e-10	-4.057067e+00	-4.630915e+01
1.730000e-06	-5.382384e-07	-5.669650e-10	-3.733316e+00	-4.503718e+01
1.740000e-06	-4.915214e-07	-5.492832e-10	-3.409279e+00	-4.373106e+01
1.750000e-06	-4.447132e-07	-5.351236e-10	-3.084609e+00	-4.238970e+01
1.760000e-06	-3.979757e-07	-5.189474e-10	-2.760429e+00	-4.101207e+01
1.770000e-06	-3.512144e-07	-4.990098e-10	-2.436085e+00	-3.959725e+01
1.780000e-06	-3.043262e-07	-4.767434e-10	-2.110860e+00	-3.814437e+01
1.790000e-06	-2.573932e-07	-4.543343e-10	-1.785324e+00	-3.665270e+01
1.800000e-06	-2.103942e-07	-4.319516e-10	-1.459331e+00	-3.512161e+01
1.810000e-06	-1.634609e-07	-4.086916e-10	-1.133793e+00	-3.355059e+01
1.820000e-06	-1.165771e-07	-3.856921e-10	-8.085990e-01	-3.193928e+01
1.830000e-06	-6.969401e-08	-3.645256e-10	-4.834099e-01	-3.028745e+01
1.840000e-06	-2.285010e-08	-3.440778e-10	-1.584923e-01	-2.859503e+01
1.850000e-06	2.399408e-08	-3.234006e-10	1.664271e-01	-2.686212e+01
1.860000e-06	7.089649e-08	-3.012422e-10	4.917505e-01	-2.508895e+01
1.870000e-06	1.178497e-07	-2.780671e-10	8.174259e-01	-2.327596e+01
1.880000e-06	1.647810e-07	-2.537980e-10	1.142950e+00	-2.142374e+01
1.890000e-06	2.117450e-07	-2.270832e-10	1.468701e+00	-1.953307e+01
1.900000e-06	2.587509e-07	-1.976449e-10	1.794742e+00	-1.760489e+01
1.910000e-06	3.056599e-07	-1.679115e-10	2.120110e+00	-1.564035e+01
1.920000e-06	3.525396e-07	-1.394045e-10	2.445277e+00	-1.364074e+01
1.930000e-06	3.994464e-07	-1.124133e-10	2.770630e+00	-1.160754e+01
1.940000e-06	4.462700e-07	-8.601432e-11	3.095407e+00	-9.542427e+00
1.950000e-06	4.929524e-07	-5.995363e-11	3.419204e+00	-7.447204e+00
1.960000e-06	5.396423e-07	-3.349227e-11	3.743053e+00	-5.323854e+00
1.970000e-06	5.864283e-07	-4.317230e-12	4.067569e+00	-3.174511e+00
1.980000e-06	6.330879e-07	2.680542e-11	4.391209e+00	-1.001448e+00
1.990000e-06	6.796114e-07	5.936991e-11	4.713904e+00	1.192926e+00
2.000000e-06	7.261159e-07	9.349589e-11	5.036467e+00	3.406083e+00
2.010000e-06	7.725324e-07	1.276447e-10	5.358420e+00	5.635383e+00
2.020000e-06	8.188359e-07	1.605580e-10	5.679589e+00	7.878092e+00
2.030000e-06	8.651018e-07	1.952887e-10	6.000498e+00	1.013139e+01
2.040000e-06	9.112581e-07	2.278120e-10	6.320646e+00	1.239240e+01
2.050000e-06	9.573014e-07	2.559729e-10	6.640010e+00	1.465817e+01
2.060000e-06	1.003308e-06	2.829481e-10	6.959122e+00	1.692574e+01
2.070000e-06	1.049344e-06	3.099530e-10	7.278437e+00	1.919211e+01
2.080000e-06	1.095330e-06	3.401435e-10	7.597403e+00	2.145428e+01
2.090000e-06	1.141152e-06	3.717732e-10	7.915227e+00	2.370927e+01
2.100000e-06	1.186912e-06	4.075320e-10	8.232629e+00	2.595411e+01
2.110000e-06	1.232626e-06	4.427626e-10	8.549712e+00	2.818590e+01
2.120000e-06	1.278251e-06	4.748199e-10	8.866173e+00	3.040178e+01
2.130000e-06	1.323801e-06	5.045105e-10	9.182119e+00	3.259898e+01
2.140000e-06	1.369295e-06	5.306870e-10	9.497669e+00	3.477481e+01
2.150000e-06	1.414692e-06	5.556853e-10	9.812555e+00	3.692669e+01
2.160000e-06	1.460027e-06	5.820408e-10	1.012700e+01	3.905216e+01
2.170000e-06	1.505312e-06	6.105912e-10	1.044111e+01	4.114889e+01
2.180000e-06	1.550471e-06	6.389065e-10	1.075434e+01	4.321470e+01
2.190000e-06	1.595455e-06	6.691337e-10	1.106635e+01	4.524753e+01
2.200000e-06	1.640263e-06	6.997520e-10	1.137715e+01	4.724553e+01
2.210000e-06	1.684947e-06	7.293523e-10	1.168709e+01	4.920699e+01
2.220000e-06	1.729513e-06	7.573704e-10	1.199620e+01	5.113037e+01
2.230000e-06	1.774008e-06	7.849113e-10	1.230483e+01	5.301433e+01
2.240000e-06	1.818380e-06	8.095624e-10	1.261260e+01	5.485770e+01
2.250000e-06	1.862529e-06	8.285136e-10	1.291883e+01	5.665951e+01
2.260000e-06	1.906590e-06	8.458347e-10	1.322445e+01	5.841897e+01
2.270000e-06	1.950596e-06	8.660862e-10	1.352968e+01	6.013548e+01
2.280000e-06	1.994476e-06	8.899915e-10	1.383404e+01	6.180861e+01
2.290000e-06	2.038257e-06	9.165885e-10	1.413770e+01	6.343814e+01
2.300000e-06	2.081987e-06	9.442061e-10	1.444102e+01	6.502400e+01
2.310000e-06	2.125685e-06	9.709109e-10	1.474412e+01	6.656631e+01
2.320000e-06	2.169315e-06	9.927541e-10	1.504675e+01	6.806535e+01
2.330000e-06	2.212860e-06	1.008931e-09	1.534879e+01	6.952154e+01
2.340000e-06	2.256294e-06	1.022238e-09	1.565005e+01	7.093547e+01
2.350000e-06	2.299554e-06	1.035986e-09	1.595011e+01	7.230786e+01
2.360000e-06	2.342616e-06	1.052861e-09	1.624880e+01	7.363954e+01
2.370000e-06	2.385451e-06	1.072919e-09	1.654590e+01	7.493147e+01
2.380000e-06	2.427989e-06	1.093625e-09	1.684096e+01	7.618471e+01
2.390000e-06	2.470317e-06	1.112939e-09	1.713455e+01	7.740041e+01
2.400000e-06	2.512401e-06	1.130290e-09	1.742646e+01	7.857979e+01
2.410000e-06	2.554146e-06	1.145396e-09	1.771601e+01	7.972413e+01
2.420000e-06	2.595613e-06	1.159799e-09	1.800363e+01	8.083477e+01
2.430000e-06	2.636677e-06	1.173829e-09	1.828846e+01	8.191308e+01
2.440000e-06	2.677349e-06	1.188450e-09	1.857057e+01	8.296045e+01
2.450000e-06	2.717766e-06	1.204500e-09	1.885090e+01	8.397829e+01
2.460000e-06	2.757977e-06	1.221352e-09	1.912982e+01	8.496800e+01
2.470000e-06	2.798012e-06	1.236632e-09	1.940750e+01	8.593097e+01
2.480000e-06	2.837875e-06	1.249620e-09	1.968400e+01	8.686856e+01
2.490000e-06	2.877611e-06	1.259439e-09	1.995962e+01	8.778210e+01
2.500000e-06	2.917272e-06	1.267660e-09	2.023471e+01	8.867287e+01
2.510000e-06	2.956843e-06	1.280291e-09	2.050918e+01	8.954210e+01
2.520000e-06	2.996272e-06	1.296397e-09	2.078267e+01	9.039095e+01
2.530000e-06	3.035546e-06	1.312360e-09	2.105508e+01	9.122052e+01
2.540000e-06	3.074522e-06	1.328314e-09	2.132542e+01	9.203183e+01
2.550000e-06	3.113197e-06	1.341591e-09	2.159368e+01	9.282582e+01
2.560000e-06	3.151672e-06	1.349792e-09	2.186055e+01	9.360334e+01
2.570000e-06	3.189937e-06	1.354438e-09	2.212596e+01	9.436517e+01
2.580000e-06	3.228038e-06	1.360234e-09	2.239024e+01	9.511199e+01
2.590000e-06	3.265945e-06	1.369177e-09	2.265317e+01	9.584439e+01
2.600000e-06	3.303650e-06	1.382016e-09	2.291470e+01	9.656288e+01
2.610000e-06	3.341225e-06	1.399261e-09	2.317532e+01	9.726788e+01
2.620000e-06	3.378594e-06	1.418806e-09	2.343452e+01	9.795972e+01
2.630000e-06	3.415621e-06	1.434257e-09	2.369135e+01	9.863866e+01
2.640000e-06	3.452317e-06	1.443714e-09	2.394587e+01	9.930489e+01
2.650000e-06	3.488760e-06	1.449869e-09	2.419865e+01	9.995850e+01
2.660000e-06	3.524947e-06	1.453579e-09	2.444965e+01	1.005996e+02
2.670000e-06	3.560916e-06	1.457749e-09	2.469914e+01	1.012280e+02
2.680000e-06	3.596746e-06	1.463685e-09	2.494766e+01	1.018438e+02
2.690000e-06	3.632440e-06	1.472345e-09	2.519524e+01	1.024469e+02
2.700000e-06	3.668024e-06	1.483426e-09	2.544206e+01	1.030371e+02
2.710000e-06	3.703469e-06	1.493281e-09	2.568791e+01	1.036142e+02
2.720000e-06	3.738670e-06	1.500766e-09	2.593207e+01	1.041780e+02
2.730000e-06	3.773622e-06	1.507232e-09	2.617450e+01	1.047283e+02
2.740000e-06	3.808282e-06	1.512699e-09	2.641491e+01	1.052649e+02
2.750000e-06	3.842517e-06	1.516815e-09	2.665237e+01	1.057877e+02
2.760000e-06	3.876248e-06	1.521076e-09	2.688633e+01	1.062962e+02
2.770000e-06	3.909408e-06	1.528194e-09	2.711634e+01	1.067905e+02
2.780000e-06	3.942079e-06	1.537919e-09	2.734295e+01	1.072704e+02
2.790000e-06	3.974388e-06	1.548465e-09	2.756705e+01	1.077356e+02
2.800000e-06	4.006429e-06	1.557893e-09	2.778930e+01	1.081861e+02
2.810000e-06	4.038303e-06	1.564354e-09	2.801038e+01	1.086218e+02
2.820000e-06	4.070040e-06	1.569914e-09	2.823051e+01	1.090428e+02
2.830000e-06	4.101677e-06	1.576751e-09	2.844995e+01	1.094490e+02
2.840000e-06	4.133150e-06	1.583182e-09	2.866826e+01	1.098406e+02
2.850000e-06	4.164310e-06	1.588942e-09	2.888438e+01	1.102176e+02
2.860000e-06	4.195105e-06	1.594903e-09	2.909798e+01	1.105803e+02
2.870000e-06	4.225582e-06	1.601149e-09	2.930938e+01	1.109289e+02
2.880000e-06	4.255788e-06	1.606916e-09	2.951889e+01	1.112636e+02
2.890000e-06	4.285680e-06	1.611599e-09	2.972623e+01	1.115849e+02
2.900000e-06	4.315258e-06	1.616645e-09	2.993138e+01	1.118932e+02
