# Temperatura_=_-9.1
# Concentracion g/m^3_=_1620.0
# C_Vs_to_Am_M_A/Vsm_=_65563218390.804596
# pendiente_HvsI_1/m_=_3716.3
# ordenada_HvsI_A/m_=_1297.0
# frecuencia_Hz_=_135108.02710941678

Tiempo_(s)	Campo_(V.s)	Magnetizacion_(V.s)	Campo_(kA/m)	Magnetizacion_(A/m)
0.000000e+00	-5.526904e-06	-1.416741e-09	-3.837216e+01	-9.188475e+01
1.000000e-08	-5.527082e-06	-1.414405e-09	-3.837340e+01	-9.181712e+01
2.000000e-08	-5.527027e-06	-1.414193e-09	-3.837302e+01	-9.174970e+01
3.000000e-08	-5.526671e-06	-1.412881e-09	-3.837055e+01	-9.168248e+01
4.000000e-08	-5.525934e-06	-1.411110e-09	-3.836543e+01	-9.161547e+01
5.000000e-08	-5.524723e-06	-1.408912e-09	-3.835702e+01	-9.154861e+01
6.000000e-08	-5.522849e-06	-1.401519e-09	-3.834401e+01	-9.148184e+01
7.000000e-08	-5.520354e-06	-1.398817e-09	-3.832669e+01	-9.141509e+01
8.000000e-08	-5.517342e-06	-1.400374e-09	-3.830578e+01	-9.134824e+01
9.000000e-08	-5.513805e-06	-1.395103e-09	-3.828122e+01	-9.128119e+01
1.000000e-07	-5.509872e-06	-1.416949e-09	-3.825392e+01	-9.121379e+01
1.100000e-07	-5.505640e-06	-1.453642e-09	-3.822453e+01	-9.114589e+01
1.200000e-07	-5.501131e-06	-1.414850e-09	-3.819323e+01	-9.107734e+01
1.300000e-07	-5.496339e-06	-1.345443e-09	-3.815996e+01	-9.100797e+01
1.400000e-07	-5.491231e-06	-1.340916e-09	-3.812450e+01	-9.093758e+01
1.500000e-07	-5.485735e-06	-1.418557e-09	-3.808634e+01	-9.086602e+01
1.600000e-07	-5.479797e-06	-1.433620e-09	-3.804511e+01	-9.079309e+01
1.700000e-07	-5.473429e-06	-1.372757e-09	-3.800090e+01	-9.071862e+01
1.800000e-07	-5.466646e-06	-1.353639e-09	-3.795381e+01	-9.064242e+01
1.900000e-07	-5.459530e-06	-1.407421e-09	-3.790441e+01	-9.056433e+01
2.000000e-07	-5.452119e-06	-1.424475e-09	-3.785295e+01	-9.048417e+01
2.100000e-07	-5.444446e-06	-1.367470e-09	-3.779968e+01	-9.040180e+01
2.200000e-07	-5.436580e-06	-1.347606e-09	-3.774507e+01	-9.031708e+01
2.300000e-07	-5.428403e-06	-1.397832e-09	-3.768830e+01	-9.022988e+01
2.400000e-07	-5.419787e-06	-1.436282e-09	-3.762847e+01	-9.014007e+01
2.500000e-07	-5.410690e-06	-1.404190e-09	-3.756531e+01	-9.004758e+01
2.600000e-07	-5.400864e-06	-1.374188e-09	-3.749709e+01	-8.995231e+01
2.700000e-07	-5.390196e-06	-1.377346e-09	-3.742303e+01	-8.985421e+01
2.800000e-07	-5.378967e-06	-1.389938e-09	-3.734507e+01	-8.975323e+01
2.900000e-07	-5.367394e-06	-1.373758e-09	-3.726472e+01	-8.964935e+01
3.000000e-07	-5.355513e-06	-1.369198e-09	-3.718224e+01	-8.954257e+01
3.100000e-07	-5.343260e-06	-1.378136e-09	-3.709717e+01	-8.943291e+01
3.200000e-07	-5.330650e-06	-1.386668e-09	-3.700962e+01	-8.932038e+01
3.300000e-07	-5.317695e-06	-1.367112e-09	-3.691967e+01	-8.920504e+01
3.400000e-07	-5.304323e-06	-1.349017e-09	-3.682683e+01	-8.908696e+01
3.500000e-07	-5.290497e-06	-1.361323e-09	-3.673084e+01	-8.896622e+01
3.600000e-07	-5.276205e-06	-1.376753e-09	-3.663161e+01	-8.884291e+01
3.700000e-07	-5.261491e-06	-1.359370e-09	-3.652945e+01	-8.871713e+01
3.800000e-07	-5.246299e-06	-1.363173e-09	-3.642398e+01	-8.858900e+01
3.900000e-07	-5.230525e-06	-1.389420e-09	-3.631447e+01	-8.845864e+01
4.000000e-07	-5.214151e-06	-1.366359e-09	-3.620078e+01	-8.832618e+01
4.100000e-07	-5.197381e-06	-1.330936e-09	-3.608436e+01	-8.819175e+01
4.200000e-07	-5.180315e-06	-1.368069e-09	-3.596587e+01	-8.805550e+01
4.300000e-07	-5.162985e-06	-1.388531e-09	-3.584555e+01	-8.791754e+01
4.400000e-07	-5.145393e-06	-1.337917e-09	-3.572341e+01	-8.777803e+01
4.500000e-07	-5.127453e-06	-1.349818e-09	-3.559886e+01	-8.763709e+01
4.600000e-07	-5.109165e-06	-1.406225e-09	-3.547189e+01	-8.749483e+01
4.700000e-07	-5.090435e-06	-1.364591e-09	-3.534185e+01	-8.735139e+01
4.800000e-07	-5.071290e-06	-1.315720e-09	-3.520893e+01	-8.720686e+01
4.900000e-07	-5.051857e-06	-1.369934e-09	-3.507401e+01	-8.706134e+01
5.000000e-07	-5.032159e-06	-1.370107e-09	-3.493726e+01	-8.691492e+01
5.100000e-07	-5.012168e-06	-1.306214e-09	-3.479846e+01	-8.676767e+01
5.200000e-07	-4.991938e-06	-1.331869e-09	-3.465800e+01	-8.661965e+01
5.300000e-07	-4.971440e-06	-1.370082e-09	-3.451569e+01	-8.647090e+01
5.400000e-07	-4.950618e-06	-1.315269e-09	-3.437113e+01	-8.632146e+01
5.500000e-07	-4.929399e-06	-1.315521e-09	-3.422381e+01	-8.617134e+01
5.600000e-07	-4.907759e-06	-1.365156e-09	-3.407357e+01	-8.602054e+01
5.700000e-07	-4.885702e-06	-1.328057e-09	-3.392043e+01	-8.586905e+01
5.800000e-07	-4.863321e-06	-1.291160e-09	-3.376504e+01	-8.571684e+01
5.900000e-07	-4.840738e-06	-1.338363e-09	-3.360825e+01	-8.556387e+01
6.000000e-07	-4.817777e-06	-1.333757e-09	-3.344884e+01	-8.541009e+01
6.100000e-07	-4.794461e-06	-1.287817e-09	-3.328697e+01	-8.525543e+01
6.200000e-07	-4.770939e-06	-1.307848e-09	-3.312365e+01	-8.509983e+01
6.300000e-07	-4.747157e-06	-1.324253e-09	-3.295854e+01	-8.494320e+01
6.400000e-07	-4.723107e-06	-1.288657e-09	-3.279157e+01	-8.478545e+01
6.500000e-07	-4.698842e-06	-1.295407e-09	-3.262310e+01	-8.462649e+01
6.600000e-07	-4.674257e-06	-1.320520e-09	-3.245241e+01	-8.446623e+01
6.700000e-07	-4.649211e-06	-1.297300e-09	-3.227853e+01	-8.430457e+01
6.800000e-07	-4.623559e-06	-1.282677e-09	-3.210043e+01	-8.414141e+01
6.900000e-07	-4.597349e-06	-1.295734e-09	-3.191845e+01	-8.397665e+01
7.000000e-07	-4.570694e-06	-1.282054e-09	-3.173339e+01	-8.381020e+01
7.100000e-07	-4.543585e-06	-1.268630e-09	-3.154518e+01	-8.364198e+01
7.200000e-07	-4.516107e-06	-1.283190e-09	-3.135441e+01	-8.347190e+01
7.300000e-07	-4.488366e-06	-1.282941e-09	-3.116181e+01	-8.329990e+01
7.400000e-07	-4.460480e-06	-1.272663e-09	-3.096820e+01	-8.312590e+01
7.500000e-07	-4.432461e-06	-1.277682e-09	-3.077367e+01	-8.294986e+01
7.600000e-07	-4.404197e-06	-1.275968e-09	-3.057744e+01	-8.277174e+01
7.700000e-07	-4.375620e-06	-1.261690e-09	-3.037903e+01	-8.259149e+01
7.800000e-07	-4.346729e-06	-1.259280e-09	-3.017845e+01	-8.240911e+01
7.900000e-07	-4.317481e-06	-1.256615e-09	-2.997539e+01	-8.222459e+01
8.000000e-07	-4.287891e-06	-1.248359e-09	-2.976995e+01	-8.203793e+01
8.100000e-07	-4.257981e-06	-1.249021e-09	-2.956229e+01	-8.184916e+01
8.200000e-07	-4.227826e-06	-1.250775e-09	-2.935293e+01	-8.165829e+01
8.300000e-07	-4.197396e-06	-1.238856e-09	-2.914166e+01	-8.146537e+01
8.400000e-07	-4.166638e-06	-1.232375e-09	-2.892812e+01	-8.127046e+01
8.500000e-07	-4.135579e-06	-1.236521e-09	-2.871248e+01	-8.107359e+01
8.600000e-07	-4.104206e-06	-1.235882e-09	-2.849466e+01	-8.087485e+01
8.700000e-07	-4.072619e-06	-1.228596e-09	-2.827536e+01	-8.067429e+01
8.800000e-07	-4.040898e-06	-1.227430e-09	-2.805513e+01	-8.047200e+01
8.900000e-07	-4.009072e-06	-1.220940e-09	-2.783417e+01	-8.026804e+01
9.000000e-07	-3.977081e-06	-1.208681e-09	-2.761206e+01	-8.006249e+01
9.100000e-07	-3.944812e-06	-1.204322e-09	-2.738802e+01	-7.985542e+01
9.200000e-07	-3.912203e-06	-1.204816e-09	-2.716163e+01	-7.964689e+01
9.300000e-07	-3.879166e-06	-1.197269e-09	-2.693226e+01	-7.943697e+01
9.400000e-07	-3.845702e-06	-1.193043e-09	-2.669993e+01	-7.922570e+01
9.500000e-07	-3.811807e-06	-1.194595e-09	-2.646460e+01	-7.901313e+01
9.600000e-07	-3.777444e-06	-1.188450e-09	-2.622602e+01	-7.879928e+01
9.700000e-07	-3.742640e-06	-1.176827e-09	-2.598438e+01	-7.858416e+01
9.800000e-07	-3.707400e-06	-1.171370e-09	-2.573972e+01	-7.836778e+01
9.900000e-07	-3.671906e-06	-1.167602e-09	-2.549329e+01	-7.815010e+01
1.000000e-06	-3.636314e-06	-1.162618e-09	-2.524619e+01	-7.793108e+01
1.010000e-06	-3.600581e-06	-1.159763e-09	-2.499810e+01	-7.771066e+01
1.020000e-06	-3.564715e-06	-1.156446e-09	-2.474909e+01	-7.748876e+01
1.030000e-06	-3.528680e-06	-1.148417e-09	-2.449891e+01	-7.726526e+01
1.040000e-06	-3.492420e-06	-1.141595e-09	-2.424716e+01	-7.704004e+01
1.050000e-06	-3.455925e-06	-1.140411e-09	-2.399378e+01	-7.681295e+01
1.060000e-06	-3.419175e-06	-1.136292e-09	-2.373864e+01	-7.658382e+01
1.070000e-06	-3.382125e-06	-1.129017e-09	-2.348140e+01	-7.635244e+01
1.080000e-06	-3.344770e-06	-1.125241e-09	-2.322206e+01	-7.611860e+01
1.090000e-06	-3.307244e-06	-1.123473e-09	-2.296152e+01	-7.588207e+01
1.100000e-06	-3.269534e-06	-1.116773e-09	-2.269971e+01	-7.564258e+01
1.110000e-06	-3.231587e-06	-1.109199e-09	-2.243625e+01	-7.539987e+01
1.120000e-06	-3.193436e-06	-1.101744e-09	-2.217138e+01	-7.515366e+01
1.130000e-06	-3.155032e-06	-1.094504e-09	-2.190474e+01	-7.490364e+01
1.140000e-06	-3.116377e-06	-1.089234e-09	-2.163637e+01	-7.464951e+01
1.150000e-06	-3.077533e-06	-1.089083e-09	-2.136668e+01	-7.439095e+01
1.160000e-06	-3.038459e-06	-1.089369e-09	-2.109540e+01	-7.412765e+01
1.170000e-06	-2.999238e-06	-1.087712e-09	-2.082309e+01	-7.385927e+01
1.180000e-06	-2.959886e-06	-1.082893e-09	-2.054989e+01	-7.358550e+01
1.190000e-06	-2.920331e-06	-1.076795e-09	-2.027526e+01	-7.330603e+01
1.200000e-06	-2.880603e-06	-1.069023e-09	-1.999944e+01	-7.302053e+01
1.210000e-06	-2.840718e-06	-1.060735e-09	-1.972252e+01	-7.272872e+01
1.220000e-06	-2.800688e-06	-1.052906e-09	-1.944460e+01	-7.243030e+01
1.230000e-06	-2.760508e-06	-1.045538e-09	-1.916565e+01	-7.212500e+01
1.240000e-06	-2.720127e-06	-1.038152e-09	-1.888529e+01	-7.181256e+01
1.250000e-06	-2.679477e-06	-1.032140e-09	-1.860306e+01	-7.149275e+01
1.260000e-06	-2.638759e-06	-1.027066e-09	-1.832036e+01	-7.116534e+01
1.270000e-06	-2.597970e-06	-1.020845e-09	-1.803717e+01	-7.083014e+01
1.280000e-06	-2.556869e-06	-1.012810e-09	-1.775182e+01	-7.048698e+01
1.290000e-06	-2.515431e-06	-1.005229e-09	-1.746412e+01	-7.013572e+01
1.300000e-06	-2.473650e-06	-9.974159e-10	-1.717405e+01	-6.977622e+01
1.310000e-06	-2.431622e-06	-9.878790e-10	-1.688226e+01	-6.940840e+01
1.320000e-06	-2.389317e-06	-9.794529e-10	-1.658854e+01	-6.903218e+01
1.330000e-06	-2.346647e-06	-9.725120e-10	-1.629229e+01	-6.864750e+01
1.340000e-06	-2.303655e-06	-9.654869e-10	-1.599380e+01	-6.825435e+01
1.350000e-06	-2.260441e-06	-9.599781e-10	-1.569378e+01	-6.785270e+01
1.360000e-06	-2.217102e-06	-9.584670e-10	-1.539289e+01	-6.744257e+01
1.370000e-06	-2.173585e-06	-9.559210e-10	-1.509076e+01	-6.702398e+01
1.380000e-06	-2.129849e-06	-9.495598e-10	-1.478710e+01	-6.659697e+01
1.390000e-06	-2.086025e-06	-9.405486e-10	-1.448284e+01	-6.616157e+01
1.400000e-06	-2.042180e-06	-9.292689e-10	-1.417844e+01	-6.571784e+01
1.410000e-06	-1.998289e-06	-9.189275e-10	-1.387371e+01	-6.526582e+01
1.420000e-06	-1.954291e-06	-9.115541e-10	-1.356824e+01	-6.480555e+01
1.430000e-06	-1.910177e-06	-9.036699e-10	-1.326197e+01	-6.433706e+01
1.440000e-06	-1.866024e-06	-8.959375e-10	-1.295542e+01	-6.386038e+01
1.450000e-06	-1.821811e-06	-8.885772e-10	-1.264846e+01	-6.337550e+01
1.460000e-06	-1.777428e-06	-8.811412e-10	-1.234032e+01	-6.288240e+01
1.470000e-06	-1.732892e-06	-8.725222e-10	-1.203112e+01	-6.238102e+01
1.480000e-06	-1.688245e-06	-8.633036e-10	-1.172114e+01	-6.187127e+01
1.490000e-06	-1.643522e-06	-8.550867e-10	-1.141063e+01	-6.135303e+01
1.500000e-06	-1.598694e-06	-8.453699e-10	-1.109941e+01	-6.082611e+01
1.510000e-06	-1.553709e-06	-8.329355e-10	-1.078708e+01	-6.029031e+01
1.520000e-06	-1.508635e-06	-8.215303e-10	-1.047415e+01	-5.974534e+01
1.530000e-06	-1.463400e-06	-8.110484e-10	-1.016009e+01	-5.919088e+01
1.540000e-06	-1.418015e-06	-8.017655e-10	-9.844989e+00	-5.862653e+01
1.550000e-06	-1.372555e-06	-7.931040e-10	-9.529368e+00	-5.805184e+01
1.560000e-06	-1.327028e-06	-7.816811e-10	-9.213284e+00	-5.746630e+01
1.570000e-06	-1.281376e-06	-7.671463e-10	-8.896329e+00	-5.686932e+01
1.580000e-06	-1.235588e-06	-7.529852e-10	-8.578437e+00	-5.626025e+01
1.590000e-06	-1.189755e-06	-7.400026e-10	-8.260229e+00	-5.563838e+01
1.600000e-06	-1.143876e-06	-7.266755e-10	-7.941696e+00	-5.500292e+01
1.610000e-06	-1.097939e-06	-7.129829e-10	-7.622767e+00	-5.435301e+01
1.620000e-06	-1.051920e-06	-6.998446e-10	-7.303263e+00	-5.368776e+01
1.630000e-06	-1.005826e-06	-6.878989e-10	-6.983244e+00	-5.300619e+01
1.640000e-06	-9.596534e-07	-6.772506e-10	-6.662678e+00	-5.230726e+01
1.650000e-06	-9.133760e-07	-6.679367e-10	-6.341383e+00	-5.158989e+01
1.660000e-06	-8.670425e-07	-6.593918e-10	-6.019699e+00	-5.085297e+01
1.670000e-06	-8.206343e-07	-6.505519e-10	-5.697496e+00	-5.009531e+01
1.680000e-06	-7.741145e-07	-6.395841e-10	-5.374519e+00	-4.931572e+01
1.690000e-06	-7.275581e-07	-6.268087e-10	-5.051288e+00	-4.851297e+01
1.700000e-06	-6.809463e-07	-6.134896e-10	-4.727671e+00	-4.768581e+01
1.710000e-06	-6.343058e-07	-5.980781e-10	-4.403856e+00	-4.683298e+01
1.720000e-06	-5.876946e-07	-5.795971e-10	-4.080244e+00	-4.595322e+01
1.730000e-06	-5.410398e-07	-5.618546e-10	-3.756329e+00	-4.504528e+01
1.740000e-06	-4.943080e-07	-5.472986e-10	-3.431880e+00	-4.410794e+01
1.750000e-06	-4.475473e-07	-5.356150e-10	-3.107229e+00	-4.313999e+01
1.760000e-06	-4.007520e-07	-5.231509e-10	-2.782339e+00	-4.214028e+01
1.770000e-06	-3.538857e-07	-5.076900e-10	-2.456956e+00	-4.110768e+01
1.780000e-06	-3.070155e-07	-4.913854e-10	-2.131546e+00	-4.004116e+01
1.790000e-06	-2.601427e-07	-4.759220e-10	-1.806118e+00	-3.893972e+01
1.800000e-06	-2.132432e-07	-4.596873e-10	-1.480504e+00	-3.780248e+01
1.810000e-06	-1.663099e-07	-4.425897e-10	-1.154656e+00	-3.662863e+01
1.820000e-06	-1.193507e-07	-4.255197e-10	-8.286273e-01	-3.541747e+01
1.830000e-06	-7.237535e-08	-4.089195e-10	-5.024872e-01	-3.416840e+01
1.840000e-06	-2.539490e-08	-3.914775e-10	-1.763116e-01	-3.288096e+01
1.850000e-06	2.151801e-08	-3.736758e-10	1.493951e-01	-3.155480e+01
1.860000e-06	6.832271e-08	-3.570853e-10	4.743506e-01	-3.018971e+01
1.870000e-06	1.151474e-07	-3.401851e-10	7.994448e-01	-2.878562e+01
1.880000e-06	1.620048e-07	-3.221447e-10	1.124767e+00	-2.734261e+01
1.890000e-06	2.088483e-07	-3.024735e-10	1.449991e+00	-2.586093e+01
1.900000e-06	2.557232e-07	-2.799089e-10	1.775434e+00	-2.434095e+01
1.910000e-06	3.025979e-07	-2.557180e-10	2.100876e+00	-2.278323e+01
1.920000e-06	3.493554e-07	-2.308522e-10	2.425503e+00	-2.118846e+01
1.930000e-06	3.960491e-07	-2.065160e-10	2.749688e+00	-1.955754e+01
1.940000e-06	4.427779e-07	-1.845604e-10	3.074116e+00	-1.789147e+01
1.950000e-06	4.894482e-07	-1.632519e-10	3.398139e+00	-1.619145e+01
1.960000e-06	5.360864e-07	-1.411992e-10	3.721938e+00	-1.445883e+01
1.970000e-06	5.826865e-07	-1.181990e-10	4.045474e+00	-1.269510e+01
1.980000e-06	6.292335e-07	-9.473468e-11	4.368640e+00	-1.090190e+01
1.990000e-06	6.757334e-07	-6.965556e-11	4.691479e+00	-9.081017e+00
2.000000e-06	7.221515e-07	-4.316577e-11	5.013750e+00	-7.234358e+00
2.010000e-06	7.685336e-07	-1.619419e-11	5.335772e+00	-5.363965e+00
2.020000e-06	8.148665e-07	1.128740e-11	5.657452e+00	-3.471992e+00
2.030000e-06	8.610979e-07	3.948498e-11	5.978427e+00	-1.560698e+00
2.040000e-06	9.072744e-07	6.854391e-11	6.299021e+00	3.675664e-01
2.050000e-06	9.534303e-07	9.591163e-11	6.619472e+00	2.310365e+00
2.060000e-06	9.995349e-07	1.200853e-10	6.939567e+00	4.265195e+00
2.070000e-06	1.045589e-06	1.430722e-10	7.259313e+00	6.229493e+00
2.080000e-06	1.091590e-06	1.659978e-10	7.578685e+00	8.200655e+00
2.090000e-06	1.137492e-06	1.913012e-10	7.897375e+00	1.017604e+01
2.100000e-06	1.183306e-06	2.207036e-10	8.215454e+00	1.215301e+01
2.110000e-06	1.229041e-06	2.510442e-10	8.532978e+00	1.412890e+01
2.120000e-06	1.274692e-06	2.794542e-10	8.849926e+00	1.610106e+01
2.130000e-06	1.320272e-06	3.074309e-10	9.166376e+00	1.806688e+01
2.140000e-06	1.365668e-06	3.347055e-10	9.481557e+00	2.002378e+01
2.150000e-06	1.410919e-06	3.590167e-10	9.795726e+00	2.196923e+01
2.160000e-06	1.456159e-06	3.820237e-10	1.010982e+01	2.390076e+01
2.170000e-06	1.501352e-06	4.052719e-10	1.042358e+01	2.581599e+01
2.180000e-06	1.546469e-06	4.303348e-10	1.073682e+01	2.771262e+01
2.190000e-06	1.591469e-06	4.582571e-10	1.104924e+01	2.958844e+01
2.200000e-06	1.636306e-06	4.877667e-10	1.136054e+01	3.144136e+01
2.210000e-06	1.680979e-06	5.177593e-10	1.167070e+01	3.326941e+01
2.220000e-06	1.725500e-06	5.469145e-10	1.197979e+01	3.507073e+01
2.230000e-06	1.769911e-06	5.733477e-10	1.228813e+01	3.684361e+01
2.240000e-06	1.814171e-06	5.947032e-10	1.259542e+01	3.858648e+01
2.250000e-06	1.858284e-06	6.126087e-10	1.290169e+01	4.029789e+01
2.260000e-06	1.902285e-06	6.312196e-10	1.320718e+01	4.197656e+01
2.270000e-06	1.946205e-06	6.505147e-10	1.351210e+01	4.362136e+01
2.280000e-06	1.990067e-06	6.703634e-10	1.381663e+01	4.523129e+01
2.290000e-06	2.033874e-06	6.928953e-10	1.412077e+01	4.680554e+01
2.300000e-06	2.077642e-06	7.174772e-10	1.442464e+01	4.834341e+01
2.310000e-06	2.121379e-06	7.408655e-10	1.472830e+01	4.984438e+01
2.320000e-06	2.165072e-06	7.600208e-10	1.503165e+01	5.130807e+01
2.330000e-06	2.208682e-06	7.747808e-10	1.533443e+01	5.273423e+01
2.340000e-06	2.252144e-06	7.882607e-10	1.563617e+01	5.412277e+01
2.350000e-06	2.295347e-06	8.037873e-10	1.593612e+01	5.547372e+01
2.360000e-06	2.338379e-06	8.223084e-10	1.623489e+01	5.678722e+01
2.370000e-06	2.381235e-06	8.423442e-10	1.653243e+01	5.806357e+01
2.380000e-06	2.423777e-06	8.623894e-10	1.682779e+01	5.930315e+01
2.390000e-06	2.466082e-06	8.805925e-10	1.712150e+01	6.050644e+01
2.400000e-06	2.508030e-06	8.954693e-10	1.741274e+01	6.167403e+01
2.410000e-06	2.549542e-06	9.087866e-10	1.770095e+01	6.280658e+01
2.420000e-06	2.590683e-06	9.214920e-10	1.798658e+01	6.390485e+01
2.430000e-06	2.631501e-06	9.348994e-10	1.826997e+01	6.496962e+01
2.440000e-06	2.672068e-06	9.500901e-10	1.855162e+01	6.600177e+01
2.450000e-06	2.712428e-06	9.655757e-10	1.883183e+01	6.700220e+01
2.460000e-06	2.752612e-06	9.809607e-10	1.911082e+01	6.797184e+01
2.470000e-06	2.792632e-06	9.938886e-10	1.938867e+01	6.891166e+01
2.480000e-06	2.832575e-06	1.004562e-09	1.966599e+01	6.982264e+01
2.490000e-06	2.872428e-06	1.014247e-09	1.994268e+01	7.070576e+01
2.500000e-06	2.912200e-06	1.023095e-09	2.021881e+01	7.156200e+01
2.510000e-06	2.951860e-06	1.035516e-09	2.049416e+01	7.239233e+01
2.520000e-06	2.991341e-06	1.050851e-09	2.076827e+01	7.319771e+01
2.530000e-06	3.030629e-06	1.065715e-09	2.104104e+01	7.397905e+01
2.540000e-06	3.069720e-06	1.080211e-09	2.131244e+01	7.473726e+01
2.550000e-06	3.108547e-06	1.093504e-09	2.158201e+01	7.547320e+01
2.560000e-06	3.147119e-06	1.102742e-09	2.184980e+01	7.618766e+01
2.570000e-06	3.185527e-06	1.107877e-09	2.211647e+01	7.688143e+01
2.580000e-06	3.223713e-06	1.112507e-09	2.238158e+01	7.755522e+01
2.590000e-06	3.261667e-06	1.117320e-09	2.264509e+01	7.820969e+01
2.600000e-06	3.299455e-06	1.124931e-09	2.290744e+01	7.884547e+01
2.610000e-06	3.337054e-06	1.138430e-09	2.316848e+01	7.946309e+01
2.620000e-06	3.374389e-06	1.154003e-09	2.342770e+01	8.006308e+01
2.630000e-06	3.411375e-06	1.165524e-09	2.368448e+01	8.064587e+01
2.640000e-06	3.448019e-06	1.172201e-09	2.393890e+01	8.121186e+01
2.650000e-06	3.484442e-06	1.176699e-09	2.419177e+01	8.176140e+01
2.660000e-06	3.520706e-06	1.180758e-09	2.444355e+01	8.229477e+01
2.670000e-06	3.556786e-06	1.184726e-09	2.469404e+01	8.281223e+01
2.680000e-06	3.592685e-06	1.188999e-09	2.494328e+01	8.331399e+01
2.690000e-06	3.628496e-06	1.196957e-09	2.519191e+01	8.380021e+01
2.700000e-06	3.664214e-06	1.206929e-09	2.543989e+01	8.427104e+01
2.710000e-06	3.699755e-06	1.214737e-09	2.568665e+01	8.472659e+01
2.720000e-06	3.735072e-06	1.220267e-09	2.593184e+01	8.516694e+01
2.730000e-06	3.770106e-06	1.223360e-09	2.617508e+01	8.559215e+01
2.740000e-06	3.804665e-06	1.226150e-09	2.641501e+01	8.600229e+01
2.750000e-06	3.838640e-06	1.230343e-09	2.665090e+01	8.639739e+01
2.760000e-06	3.872073e-06	1.235440e-09	2.688301e+01	8.677752e+01
2.770000e-06	3.905090e-06	1.241871e-09	2.711224e+01	8.714270e+01
2.780000e-06	3.937727e-06	1.249642e-09	2.733884e+01	8.749300e+01
2.790000e-06	3.969983e-06	1.256107e-09	2.756278e+01	8.782848e+01
2.800000e-06	4.002050e-06	1.261247e-09	2.778541e+01	8.814924e+01
2.810000e-06	4.034004e-06	1.265970e-09	2.800727e+01	8.845536e+01
2.820000e-06	4.065815e-06	1.269945e-09	2.822812e+01	8.874698e+01
2.830000e-06	4.097453e-06	1.274198e-09	2.844778e+01	8.902425e+01
2.840000e-06	4.128853e-06	1.278797e-09	2.866578e+01	8.928736e+01
2.850000e-06	4.159998e-06	1.283192e-09	2.888201e+01	8.953653e+01
2.860000e-06	4.190794e-06	1.288020e-09	2.909583e+01	8.977199e+01
2.870000e-06	4.221196e-06	1.293577e-09	2.930690e+01	8.999404e+01
2.880000e-06	4.251305e-06	1.296400e-09	2.951594e+01	9.020300e+01
2.890000e-06	4.281143e-06	1.296748e-09	2.972310e+01	9.039921e+01
2.900000e-06	4.310732e-06	1.299448e-09	2.992853e+01	9.058307e+01
