# Temperatura_=_-8.5
# Concentracion g/m^3_=_1620.0
# C_Vs_to_Am_M_A/Vsm_=_65563218390.804596
# pendiente_HvsI_1/m_=_3716.3
# ordenada_HvsI_A/m_=_1297.0
# frecuencia_Hz_=_135109.54417641595

Tiempo_(s)	Campo_(V.s)	Magnetizacion_(V.s)	Campo_(kA/m)	Magnetizacion_(A/m)
0.000000e+00	-5.512165e-06	-1.393773e-09	-3.836447e+01	-9.166352e+01
1.000000e-08	-5.512291e-06	-1.393748e-09	-3.836534e+01	-9.158080e+01
2.000000e-08	-5.512119e-06	-1.394823e-09	-3.836414e+01	-9.149745e+01
3.000000e-08	-5.511533e-06	-1.395480e-09	-3.836007e+01	-9.141343e+01
4.000000e-08	-5.510476e-06	-1.395570e-09	-3.835271e+01	-9.132873e+01
5.000000e-08	-5.508857e-06	-1.390514e-09	-3.834145e+01	-9.124330e+01
6.000000e-08	-5.506536e-06	-1.385055e-09	-3.832529e+01	-9.115710e+01
7.000000e-08	-5.503636e-06	-1.401703e-09	-3.830511e+01	-9.107004e+01
8.000000e-08	-5.500218e-06	-1.412893e-09	-3.828132e+01	-9.098207e+01
9.000000e-08	-5.496313e-06	-1.378326e-09	-3.825414e+01	-9.089309e+01
1.000000e-07	-5.492106e-06	-1.379937e-09	-3.822486e+01	-9.080302e+01
1.100000e-07	-5.487661e-06	-1.451488e-09	-3.819392e+01	-9.071176e+01
1.200000e-07	-5.482955e-06	-1.438433e-09	-3.816117e+01	-9.061923e+01
1.300000e-07	-5.477967e-06	-1.352070e-09	-3.812645e+01	-9.052532e+01
1.400000e-07	-5.472668e-06	-1.330926e-09	-3.808957e+01	-9.042996e+01
1.500000e-07	-5.466966e-06	-1.433296e-09	-3.804988e+01	-9.033305e+01
1.600000e-07	-5.460828e-06	-1.468901e-09	-3.800716e+01	-9.023451e+01
1.700000e-07	-5.454312e-06	-1.363891e-09	-3.796181e+01	-9.013428e+01
1.800000e-07	-5.447438e-06	-1.336943e-09	-3.791397e+01	-9.003229e+01
1.900000e-07	-5.440208e-06	-1.415386e-09	-3.786365e+01	-8.992849e+01
2.000000e-07	-5.432643e-06	-1.448269e-09	-3.781099e+01	-8.982284e+01
2.100000e-07	-5.424799e-06	-1.380994e-09	-3.775640e+01	-8.971532e+01
2.200000e-07	-5.416690e-06	-1.365242e-09	-3.769997e+01	-8.960592e+01
2.300000e-07	-5.408301e-06	-1.430726e-09	-3.764158e+01	-8.949464e+01
2.400000e-07	-5.399481e-06	-1.449263e-09	-3.758019e+01	-8.938149e+01
2.500000e-07	-5.390024e-06	-1.381734e-09	-3.751437e+01	-8.926650e+01
2.600000e-07	-5.379871e-06	-1.347506e-09	-3.744370e+01	-8.914973e+01
2.700000e-07	-5.369106e-06	-1.378731e-09	-3.736878e+01	-8.903122e+01
2.800000e-07	-5.357876e-06	-1.403146e-09	-3.729062e+01	-8.891105e+01
2.900000e-07	-5.346208e-06	-1.385308e-09	-3.720941e+01	-8.878930e+01
3.000000e-07	-5.334116e-06	-1.367216e-09	-3.712525e+01	-8.866605e+01
3.100000e-07	-5.321650e-06	-1.382340e-09	-3.703849e+01	-8.854141e+01
3.200000e-07	-5.308896e-06	-1.390273e-09	-3.694972e+01	-8.841548e+01
3.300000e-07	-5.295748e-06	-1.354700e-09	-3.685821e+01	-8.828837e+01
3.400000e-07	-5.282101e-06	-1.322430e-09	-3.676323e+01	-8.816020e+01
3.500000e-07	-5.268025e-06	-1.352189e-09	-3.666526e+01	-8.803106e+01
3.600000e-07	-5.253561e-06	-1.377244e-09	-3.656460e+01	-8.790108e+01
3.700000e-07	-5.238633e-06	-1.349321e-09	-3.646070e+01	-8.777036e+01
3.800000e-07	-5.223139e-06	-1.355048e-09	-3.635286e+01	-8.763899e+01
3.900000e-07	-5.207155e-06	-1.390692e-09	-3.624161e+01	-8.750707e+01
4.000000e-07	-5.190669e-06	-1.343780e-09	-3.612687e+01	-8.737469e+01
4.100000e-07	-5.173778e-06	-1.296737e-09	-3.600931e+01	-8.724190e+01
4.200000e-07	-5.156653e-06	-1.360914e-09	-3.589012e+01	-8.710876e+01
4.300000e-07	-5.139260e-06	-1.381371e-09	-3.576906e+01	-8.697531e+01
4.400000e-07	-5.121530e-06	-1.298983e-09	-3.564566e+01	-8.684156e+01
4.500000e-07	-5.103437e-06	-1.324525e-09	-3.551974e+01	-8.670753e+01
4.600000e-07	-5.084946e-06	-1.400639e-09	-3.539104e+01	-8.657319e+01
4.700000e-07	-5.066015e-06	-1.331402e-09	-3.525928e+01	-8.643851e+01
4.800000e-07	-5.046704e-06	-1.279456e-09	-3.512487e+01	-8.630342e+01
4.900000e-07	-5.027137e-06	-1.357658e-09	-3.498869e+01	-8.616786e+01
5.000000e-07	-5.007368e-06	-1.340617e-09	-3.485110e+01	-8.603171e+01
5.100000e-07	-4.987389e-06	-1.257893e-09	-3.471204e+01	-8.589486e+01
5.200000e-07	-4.967138e-06	-1.319888e-09	-3.457110e+01	-8.575718e+01
5.300000e-07	-4.946546e-06	-1.364017e-09	-3.442778e+01	-8.561851e+01
5.400000e-07	-4.925581e-06	-1.271873e-09	-3.428187e+01	-8.547868e+01
5.500000e-07	-4.904218e-06	-1.277906e-09	-3.413318e+01	-8.533750e+01
5.600000e-07	-4.882467e-06	-1.355753e-09	-3.398179e+01	-8.519477e+01
5.700000e-07	-4.860358e-06	-1.297709e-09	-3.382792e+01	-8.505030e+01
5.800000e-07	-4.837952e-06	-1.253859e-09	-3.367197e+01	-8.490387e+01
5.900000e-07	-4.815287e-06	-1.327348e-09	-3.351422e+01	-8.475525e+01
6.000000e-07	-4.792237e-06	-1.317087e-09	-3.335380e+01	-8.460423e+01
6.100000e-07	-4.768808e-06	-1.247894e-09	-3.319073e+01	-8.445059e+01
6.200000e-07	-4.745159e-06	-1.284582e-09	-3.302613e+01	-8.429411e+01
6.300000e-07	-4.721281e-06	-1.309875e-09	-3.285994e+01	-8.413459e+01
6.400000e-07	-4.697112e-06	-1.257375e-09	-3.269173e+01	-8.397182e+01
6.500000e-07	-4.672569e-06	-1.266055e-09	-3.252091e+01	-8.380562e+01
6.600000e-07	-4.647596e-06	-1.301597e-09	-3.234710e+01	-8.363583e+01
6.700000e-07	-4.622196e-06	-1.265006e-09	-3.217031e+01	-8.346228e+01
6.800000e-07	-4.596228e-06	-1.248535e-09	-3.198958e+01	-8.328486e+01
6.900000e-07	-4.569785e-06	-1.276688e-09	-3.180554e+01	-8.310346e+01
7.000000e-07	-4.542968e-06	-1.259415e-09	-3.161889e+01	-8.291799e+01
7.100000e-07	-4.515735e-06	-1.236367e-09	-3.142935e+01	-8.272840e+01
7.200000e-07	-4.488248e-06	-1.262092e-09	-3.123804e+01	-8.253468e+01
7.300000e-07	-4.460542e-06	-1.267658e-09	-3.104521e+01	-8.233681e+01
7.400000e-07	-4.432620e-06	-1.243953e-09	-3.085087e+01	-8.213485e+01
7.500000e-07	-4.404495e-06	-1.244351e-09	-3.065512e+01	-8.192886e+01
7.600000e-07	-4.376128e-06	-1.247168e-09	-3.045769e+01	-8.171893e+01
7.700000e-07	-4.347458e-06	-1.228548e-09	-3.025815e+01	-8.150519e+01
7.800000e-07	-4.318391e-06	-1.224861e-09	-3.005585e+01	-8.128780e+01
7.900000e-07	-4.288962e-06	-1.231365e-09	-2.985102e+01	-8.106694e+01
8.000000e-07	-4.259290e-06	-1.220793e-09	-2.964450e+01	-8.084282e+01
8.100000e-07	-4.229343e-06	-1.214696e-09	-2.943607e+01	-8.061568e+01
8.200000e-07	-4.199100e-06	-1.218953e-09	-2.922558e+01	-8.038576e+01
8.300000e-07	-4.168542e-06	-1.209515e-09	-2.901290e+01	-8.015335e+01
8.400000e-07	-4.137711e-06	-1.201989e-09	-2.879832e+01	-7.991873e+01
8.500000e-07	-4.106661e-06	-1.212166e-09	-2.858221e+01	-7.968220e+01
8.600000e-07	-4.075357e-06	-1.212829e-09	-2.836433e+01	-7.944406e+01
8.700000e-07	-4.043840e-06	-1.200522e-09	-2.814498e+01	-7.920463e+01
8.800000e-07	-4.012101e-06	-1.199251e-09	-2.792408e+01	-7.896422e+01
8.900000e-07	-3.980130e-06	-1.196205e-09	-2.770156e+01	-7.872314e+01
9.000000e-07	-3.947929e-06	-1.182057e-09	-2.747744e+01	-7.848167e+01
9.100000e-07	-3.915477e-06	-1.178033e-09	-2.725158e+01	-7.824011e+01
9.200000e-07	-3.882730e-06	-1.181903e-09	-2.702366e+01	-7.799871e+01
9.300000e-07	-3.849575e-06	-1.174449e-09	-2.679290e+01	-7.775774e+01
9.400000e-07	-3.815908e-06	-1.168755e-09	-2.655858e+01	-7.751739e+01
9.500000e-07	-3.781772e-06	-1.173287e-09	-2.632099e+01	-7.727787e+01
9.600000e-07	-3.747210e-06	-1.166308e-09	-2.608044e+01	-7.703932e+01
9.700000e-07	-3.712267e-06	-1.153449e-09	-2.583724e+01	-7.680187e+01
9.800000e-07	-3.677094e-06	-1.154016e-09	-2.559244e+01	-7.656560e+01
9.900000e-07	-3.641717e-06	-1.155187e-09	-2.534622e+01	-7.633055e+01
1.000000e-06	-3.606172e-06	-1.147055e-09	-2.509883e+01	-7.609671e+01
1.010000e-06	-3.570519e-06	-1.144543e-09	-2.485068e+01	-7.586404e+01
1.020000e-06	-3.534655e-06	-1.144238e-09	-2.460107e+01	-7.563243e+01
1.030000e-06	-3.498552e-06	-1.132899e-09	-2.434979e+01	-7.540175e+01
1.040000e-06	-3.462271e-06	-1.124180e-09	-2.409728e+01	-7.517180e+01
1.050000e-06	-3.425681e-06	-1.126803e-09	-2.384261e+01	-7.494236e+01
1.060000e-06	-3.388775e-06	-1.123629e-09	-2.358575e+01	-7.471313e+01
1.070000e-06	-3.351656e-06	-1.114553e-09	-2.332740e+01	-7.448380e+01
1.080000e-06	-3.314231e-06	-1.111661e-09	-2.306693e+01	-7.425400e+01
1.090000e-06	-3.276552e-06	-1.106413e-09	-2.280469e+01	-7.402333e+01
1.100000e-06	-3.238710e-06	-1.093942e-09	-2.254130e+01	-7.379135e+01
1.110000e-06	-3.200626e-06	-1.084897e-09	-2.227624e+01	-7.355757e+01
1.120000e-06	-3.162318e-06	-1.076878e-09	-2.200962e+01	-7.332151e+01
1.130000e-06	-3.123818e-06	-1.064804e-09	-2.174166e+01	-7.308265e+01
1.140000e-06	-3.085140e-06	-1.058179e-09	-2.147246e+01	-7.284043e+01
1.150000e-06	-3.046270e-06	-1.061052e-09	-2.120193e+01	-7.259430e+01
1.160000e-06	-3.007200e-06	-1.060522e-09	-2.093000e+01	-7.234369e+01
1.170000e-06	-2.968015e-06	-1.053694e-09	-2.065728e+01	-7.208804e+01
1.180000e-06	-2.928694e-06	-1.049692e-09	-2.038361e+01	-7.182678e+01
1.190000e-06	-2.889179e-06	-1.044318e-09	-2.010858e+01	-7.155935e+01
1.200000e-06	-2.849455e-06	-1.032236e-09	-1.983210e+01	-7.128520e+01
1.210000e-06	-2.809572e-06	-1.021764e-09	-1.955452e+01	-7.100379e+01
1.220000e-06	-2.769579e-06	-1.016180e-09	-1.927617e+01	-7.071463e+01
1.230000e-06	-2.729452e-06	-1.010515e-09	-1.899689e+01	-7.041722e+01
1.240000e-06	-2.689206e-06	-1.004565e-09	-1.871678e+01	-7.011112e+01
1.250000e-06	-2.648817e-06	-1.000857e-09	-1.843567e+01	-6.979592e+01
1.260000e-06	-2.608136e-06	-9.965544e-10	-1.815253e+01	-6.947124e+01
1.270000e-06	-2.567130e-06	-9.889955e-10	-1.786713e+01	-6.913675e+01
1.280000e-06	-2.525869e-06	-9.809047e-10	-1.757996e+01	-6.879215e+01
1.290000e-06	-2.484301e-06	-9.740206e-10	-1.729064e+01	-6.843722e+01
1.300000e-06	-2.442419e-06	-9.655856e-10	-1.699914e+01	-6.807174e+01
1.310000e-06	-2.400283e-06	-9.562369e-10	-1.670588e+01	-6.769559e+01
1.320000e-06	-2.357911e-06	-9.483064e-10	-1.641098e+01	-6.730865e+01
1.330000e-06	-2.315175e-06	-9.415910e-10	-1.611353e+01	-6.691087e+01
1.340000e-06	-2.272115e-06	-9.363450e-10	-1.581384e+01	-6.650226e+01
1.350000e-06	-2.228911e-06	-9.326064e-10	-1.551314e+01	-6.608284e+01
1.360000e-06	-2.185542e-06	-9.295166e-10	-1.521129e+01	-6.565270e+01
1.370000e-06	-2.142078e-06	-9.257129e-10	-1.490879e+01	-6.521194e+01
1.380000e-06	-2.098536e-06	-9.201040e-10	-1.460574e+01	-6.476071e+01
1.390000e-06	-2.054851e-06	-9.115581e-10	-1.430169e+01	-6.429918e+01
1.400000e-06	-2.011041e-06	-8.997518e-10	-1.399677e+01	-6.382756e+01
1.410000e-06	-1.967157e-06	-8.875996e-10	-1.369134e+01	-6.334603e+01
1.420000e-06	-1.923199e-06	-8.763828e-10	-1.338539e+01	-6.285484e+01
1.430000e-06	-1.879104e-06	-8.688868e-10	-1.307849e+01	-6.235418e+01
1.440000e-06	-1.834899e-06	-8.653327e-10	-1.277083e+01	-6.184430e+01
1.450000e-06	-1.790569e-06	-8.619489e-10	-1.246229e+01	-6.132537e+01
1.460000e-06	-1.746125e-06	-8.564804e-10	-1.215297e+01	-6.079760e+01
1.470000e-06	-1.701624e-06	-8.467064e-10	-1.184324e+01	-6.026114e+01
1.480000e-06	-1.657026e-06	-8.357142e-10	-1.153284e+01	-5.971610e+01
1.490000e-06	-1.612325e-06	-8.243871e-10	-1.122173e+01	-5.916259e+01
1.500000e-06	-1.567551e-06	-8.115077e-10	-1.091010e+01	-5.860061e+01
1.510000e-06	-1.522619e-06	-8.002789e-10	-1.059737e+01	-5.803016e+01
1.520000e-06	-1.477440e-06	-7.919995e-10	-1.028293e+01	-5.745114e+01
1.530000e-06	-1.432131e-06	-7.845064e-10	-9.967582e+00	-5.686341e+01
1.540000e-06	-1.386807e-06	-7.765590e-10	-9.652125e+00	-5.626674e+01
1.550000e-06	-1.341475e-06	-7.674873e-10	-9.336616e+00	-5.566081e+01
1.560000e-06	-1.296080e-06	-7.568007e-10	-9.020668e+00	-5.504526e+01
1.570000e-06	-1.250594e-06	-7.428183e-10	-8.704087e+00	-5.441960e+01
1.580000e-06	-1.205007e-06	-7.298696e-10	-8.386804e+00	-5.378328e+01
1.590000e-06	-1.159321e-06	-7.197924e-10	-8.068833e+00	-5.313567e+01
1.600000e-06	-1.113555e-06	-7.090422e-10	-7.750302e+00	-5.247601e+01
1.610000e-06	-1.067666e-06	-6.967362e-10	-7.430918e+00	-5.180350e+01
1.620000e-06	-1.021587e-06	-6.846193e-10	-7.110211e+00	-5.111723e+01
1.630000e-06	-9.754187e-07	-6.738872e-10	-6.788879e+00	-5.041621e+01
1.640000e-06	-9.292526e-07	-6.643082e-10	-6.467564e+00	-4.969938e+01
1.650000e-06	-8.830371e-07	-6.550300e-10	-6.145906e+00	-4.896560e+01
1.660000e-06	-8.368069e-07	-6.459026e-10	-5.824146e+00	-4.821366e+01
1.670000e-06	-7.904746e-07	-6.349597e-10	-5.501675e+00	-4.744230e+01
1.680000e-06	-7.441052e-07	-6.203452e-10	-5.178945e+00	-4.665019e+01
1.690000e-06	-6.977692e-07	-6.062885e-10	-4.856448e+00	-4.583597e+01
1.700000e-06	-6.513702e-07	-5.899296e-10	-4.533513e+00	-4.499826e+01
1.710000e-06	-6.049389e-07	-5.709491e-10	-4.210352e+00	-4.413561e+01
1.720000e-06	-5.584999e-07	-5.528733e-10	-3.887139e+00	-4.324662e+01
1.730000e-06	-5.120339e-07	-5.357702e-10	-3.563738e+00	-4.232983e+01
1.740000e-06	-4.654877e-07	-5.210888e-10	-3.239777e+00	-4.138384e+01
1.750000e-06	-4.188749e-07	-5.080137e-10	-2.915354e+00	-4.040724e+01
1.760000e-06	-3.722224e-07	-4.951530e-10	-2.590654e+00	-3.939869e+01
1.770000e-06	-3.255006e-07	-4.797576e-10	-2.265472e+00	-3.835685e+01
1.780000e-06	-2.787648e-07	-4.633687e-10	-1.940193e+00	-3.728051e+01
1.790000e-06	-2.320232e-07	-4.469030e-10	-1.614873e+00	-3.616848e+01
1.800000e-06	-1.852443e-07	-4.289439e-10	-1.289294e+00	-3.501968e+01
1.810000e-06	-1.384826e-07	-4.123215e-10	-9.638339e-01	-3.383314e+01
1.820000e-06	-9.172437e-08	-3.939442e-10	-6.383983e-01	-3.260800e+01
1.830000e-06	-4.497169e-08	-3.774741e-10	-3.130013e-01	-3.134352e+01
1.840000e-06	1.783701e-09	-3.625964e-10	1.241450e-02	-3.003909e+01
1.850000e-06	4.858182e-08	-3.471339e-10	3.381277e-01	-2.869426e+01
1.860000e-06	9.534525e-08	-3.326548e-10	6.635995e-01	-2.730873e+01
1.870000e-06	1.420749e-07	-3.141089e-10	9.888363e-01	-2.588236e+01
1.880000e-06	1.888542e-07	-2.922729e-10	1.314419e+00	-2.441518e+01
1.890000e-06	2.356729e-07	-2.673658e-10	1.640275e+00	-2.290740e+01
1.900000e-06	2.824010e-07	-2.421119e-10	1.965501e+00	-2.135940e+01
1.910000e-06	3.290132e-07	-2.185500e-10	2.289920e+00	-1.977176e+01
1.920000e-06	3.756084e-07	-1.969143e-10	2.614221e+00	-1.814523e+01
1.930000e-06	4.222126e-07	-1.771016e-10	2.938584e+00	-1.648076e+01
1.940000e-06	4.687645e-07	-1.566964e-10	3.262584e+00	-1.477947e+01
1.950000e-06	5.153276e-07	-1.338631e-10	3.586661e+00	-1.304266e+01
1.960000e-06	5.619391e-07	-1.092164e-10	3.911076e+00	-1.127184e+01
1.970000e-06	6.084333e-07	-8.316402e-11	4.234674e+00	-9.468663e+00
1.980000e-06	6.548042e-07	-5.490165e-11	4.557414e+00	-7.634956e+00
1.990000e-06	7.011291e-07	-2.609443e-11	4.879833e+00	-5.772709e+00
2.000000e-06	7.474562e-07	6.155571e-13	5.202268e+00	-3.884063e+00
2.010000e-06	7.937759e-07	2.746193e-11	5.524651e+00	-1.971298e+00
2.020000e-06	8.400283e-07	5.515147e-11	5.846566e+00	-3.682315e-02
2.030000e-06	8.861577e-07	8.434565e-11	6.167626e+00	1.916836e+00
2.040000e-06	9.321558e-07	1.132710e-10	6.487771e+00	3.887051e+00
2.050000e-06	9.780870e-07	1.409705e-10	6.807450e+00	5.871102e+00
2.060000e-06	1.023984e-06	1.687292e-10	7.126892e+00	7.866198e+00
2.070000e-06	1.069815e-06	1.959036e-10	7.445872e+00	9.869487e+00
2.080000e-06	1.115549e-06	2.222357e-10	7.764179e+00	1.187807e+01
2.090000e-06	1.161248e-06	2.483712e-10	8.082246e+00	1.388904e+01
2.100000e-06	1.206938e-06	2.766892e-10	8.400245e+00	1.589944e+01
2.110000e-06	1.252542e-06	3.044717e-10	8.717644e+00	1.790636e+01
2.120000e-06	1.298039e-06	3.313810e-10	9.034302e+00	1.990690e+01
2.130000e-06	1.343442e-06	3.590758e-10	9.350309e+00	2.189818e+01
2.140000e-06	1.388780e-06	3.855209e-10	9.665860e+00	2.387739e+01
2.150000e-06	1.433996e-06	4.101683e-10	9.980559e+00	2.584178e+01
2.160000e-06	1.479052e-06	4.331996e-10	1.029414e+01	2.778871e+01
2.170000e-06	1.523999e-06	4.556205e-10	1.060698e+01	2.971559e+01
2.180000e-06	1.568779e-06	4.798761e-10	1.091865e+01	3.161999e+01
2.190000e-06	1.613450e-06	5.064414e-10	1.122955e+01	3.349956e+01
2.200000e-06	1.658035e-06	5.340901e-10	1.153987e+01	3.535212e+01
2.210000e-06	1.702480e-06	5.617907e-10	1.184920e+01	3.717561e+01
2.220000e-06	1.746803e-06	5.894933e-10	1.215768e+01	3.896813e+01
2.230000e-06	1.791009e-06	6.141498e-10	1.246536e+01	4.072793e+01
2.240000e-06	1.835104e-06	6.350512e-10	1.277225e+01	4.245345e+01
2.250000e-06	1.879068e-06	6.529904e-10	1.307824e+01	4.414328e+01
2.260000e-06	1.922967e-06	6.714345e-10	1.338378e+01	4.579619e+01
2.270000e-06	1.966883e-06	6.919504e-10	1.368943e+01	4.741113e+01
2.280000e-06	2.010747e-06	7.131252e-10	1.399472e+01	4.898722e+01
2.290000e-06	2.054490e-06	7.352820e-10	1.429917e+01	5.052376e+01
2.300000e-06	2.098091e-06	7.594774e-10	1.460264e+01	5.202022e+01
2.310000e-06	2.141595e-06	7.828581e-10	1.490543e+01	5.347626e+01
2.320000e-06	2.185063e-06	8.031894e-10	1.520796e+01	5.489169e+01
2.330000e-06	2.228417e-06	8.205382e-10	1.550970e+01	5.626648e+01
2.340000e-06	2.271604e-06	8.354801e-10	1.581028e+01	5.760077e+01
2.350000e-06	2.314592e-06	8.502640e-10	1.610947e+01	5.889483e+01
2.360000e-06	2.357316e-06	8.670469e-10	1.640683e+01	6.014907e+01
2.370000e-06	2.399741e-06	8.860892e-10	1.670211e+01	6.136404e+01
2.380000e-06	2.441898e-06	9.054634e-10	1.699552e+01	6.254041e+01
2.390000e-06	2.483779e-06	9.226206e-10	1.728701e+01	6.367895e+01
2.400000e-06	2.525319e-06	9.368348e-10	1.757613e+01	6.478052e+01
2.410000e-06	2.566615e-06	9.491335e-10	1.786355e+01	6.584607e+01
2.420000e-06	2.607673e-06	9.599107e-10	1.814931e+01	6.687664e+01
2.430000e-06	2.648366e-06	9.718144e-10	1.843253e+01	6.787331e+01
2.440000e-06	2.688787e-06	9.852589e-10	1.871386e+01	6.883721e+01
2.450000e-06	2.729073e-06	1.000012e-09	1.899425e+01	6.976952e+01
2.460000e-06	2.769183e-06	1.016218e-09	1.927341e+01	7.067143e+01
2.470000e-06	2.809123e-06	1.031457e-09	1.955139e+01	7.154415e+01
2.480000e-06	2.848903e-06	1.044716e-09	1.982826e+01	7.238890e+01
2.490000e-06	2.888564e-06	1.056242e-09	2.010430e+01	7.320688e+01
2.500000e-06	2.928159e-06	1.066260e-09	2.037988e+01	7.399928e+01
2.510000e-06	2.967615e-06	1.078029e-09	2.065449e+01	7.476724e+01
2.520000e-06	3.006876e-06	1.090746e-09	2.092775e+01	7.551190e+01
2.530000e-06	3.045888e-06	1.105668e-09	2.119927e+01	7.623432e+01
2.540000e-06	3.084645e-06	1.122254e-09	2.146902e+01	7.693555e+01
2.550000e-06	3.123143e-06	1.134951e-09	2.173696e+01	7.761653e+01
2.560000e-06	3.161433e-06	1.140103e-09	2.200346e+01	7.827819e+01
2.570000e-06	3.199578e-06	1.142549e-09	2.226895e+01	7.892135e+01
2.580000e-06	3.237529e-06	1.146589e-09	2.253309e+01	7.954680e+01
2.590000e-06	3.275267e-06	1.153738e-09	2.279574e+01	8.015522e+01
2.600000e-06	3.312801e-06	1.165224e-09	2.305698e+01	8.074725e+01
2.610000e-06	3.350043e-06	1.179547e-09	2.331617e+01	8.132344e+01
2.620000e-06	3.387004e-06	1.194389e-09	2.357343e+01	8.188427e+01
2.630000e-06	3.423744e-06	1.204257e-09	2.382914e+01	8.243014e+01
2.640000e-06	3.460275e-06	1.209348e-09	2.408339e+01	8.296141e+01
2.650000e-06	3.496608e-06	1.211552e-09	2.433627e+01	8.347834e+01
2.660000e-06	3.532666e-06	1.213335e-09	2.458722e+01	8.398115e+01
2.670000e-06	3.568538e-06	1.217509e-09	2.483690e+01	8.447000e+01
2.680000e-06	3.604320e-06	1.225971e-09	2.508593e+01	8.494499e+01
2.690000e-06	3.639936e-06	1.237893e-09	2.533382e+01	8.540619e+01
2.700000e-06	3.675361e-06	1.247594e-09	2.558038e+01	8.585360e+01
2.710000e-06	3.710597e-06	1.249867e-09	2.582562e+01	8.628722e+01
2.720000e-06	3.745548e-06	1.248439e-09	2.606888e+01	8.670699e+01
2.730000e-06	3.780143e-06	1.248988e-09	2.630966e+01	8.711286e+01
2.740000e-06	3.814351e-06	1.252181e-09	2.654774e+01	8.750474e+01
2.750000e-06	3.848040e-06	1.255467e-09	2.678222e+01	8.788255e+01
2.760000e-06	3.881194e-06	1.260516e-09	2.701297e+01	8.824619e+01
2.770000e-06	3.913896e-06	1.269423e-09	2.724057e+01	8.859557e+01
2.780000e-06	3.946253e-06	1.278570e-09	2.746578e+01	8.893063e+01
2.790000e-06	3.978330e-06	1.284237e-09	2.768903e+01	8.925130e+01
2.800000e-06	4.010184e-06	1.287036e-09	2.791073e+01	8.955754e+01
2.810000e-06	4.041895e-06	1.288600e-09	2.813144e+01	8.984934e+01
2.820000e-06	4.073434e-06	1.290433e-09	2.835095e+01	9.012673e+01
2.830000e-06	4.104791e-06	1.293372e-09	2.856920e+01	9.038975e+01
2.840000e-06	4.135921e-06	1.297607e-09	2.878586e+01	9.063850e+01
2.850000e-06	4.166733e-06	1.304123e-09	2.900031e+01	9.087310e+01
2.860000e-06	4.197209e-06	1.312076e-09	2.921242e+01	9.109374e+01
2.870000e-06	4.227334e-06	1.317601e-09	2.942209e+01	9.130061e+01
2.880000e-06	4.257157e-06	1.318245e-09	2.962965e+01	9.149399e+01
2.890000e-06	4.286748e-06	1.317125e-09	2.983561e+01	9.167417e+01
2.900000e-06	4.316070e-06	1.317811e-09	3.003969e+01	9.184151e+01
