# Temperatura_=_9.13
# Concentracion g/m^3_=_1620.0
# C_Vs_to_Am_M_A/Vsm_=_65563218390.804596
# pendiente_HvsI_1/m_=_3716.3
# ordenada_HvsI_A/m_=_1297.0
# frecuencia_Hz_=_135109.34720384446

Tiempo_(s)	Campo_(V.s)	Magnetizacion_(V.s)	Campo_(kA/m)	Magnetizacion_(A/m)
0.000000e+00	-5.524571e-06	-1.221649e-09	-3.836451e+01	-8.148318e+01
1.000000e-08	-5.524720e-06	-1.224811e-09	-3.836554e+01	-8.146516e+01
2.000000e-08	-5.524623e-06	-1.226610e-09	-3.836486e+01	-8.144636e+01
3.000000e-08	-5.524164e-06	-1.223563e-09	-3.836168e+01	-8.142671e+01
4.000000e-08	-5.523232e-06	-1.216402e-09	-3.835521e+01	-8.140611e+01
5.000000e-08	-5.521694e-06	-1.208374e-09	-3.834453e+01	-8.138445e+01
6.000000e-08	-5.519518e-06	-1.198502e-09	-3.832941e+01	-8.136162e+01
7.000000e-08	-5.516721e-06	-1.208143e-09	-3.830999e+01	-8.133747e+01
8.000000e-08	-5.513357e-06	-1.222788e-09	-3.828663e+01	-8.131185e+01
9.000000e-08	-5.509566e-06	-1.220964e-09	-3.826030e+01	-8.128461e+01
1.000000e-07	-5.505468e-06	-1.214351e-09	-3.823185e+01	-8.125558e+01
1.100000e-07	-5.501114e-06	-1.229508e-09	-3.820161e+01	-8.122457e+01
1.200000e-07	-5.496528e-06	-1.206279e-09	-3.816976e+01	-8.119141e+01
1.300000e-07	-5.491698e-06	-1.240825e-09	-3.813622e+01	-8.115590e+01
1.400000e-07	-5.486485e-06	-1.206727e-09	-3.810002e+01	-8.111786e+01
1.500000e-07	-5.480820e-06	-1.212934e-09	-3.806068e+01	-8.107708e+01
1.600000e-07	-5.474811e-06	-1.185329e-09	-3.801895e+01	-8.103337e+01
1.700000e-07	-5.468421e-06	-1.214416e-09	-3.797458e+01	-8.098654e+01
1.800000e-07	-5.461488e-06	-1.227761e-09	-3.792644e+01	-8.093639e+01
1.900000e-07	-5.454176e-06	-1.206703e-09	-3.787566e+01	-8.088275e+01
2.000000e-07	-5.446643e-06	-1.213018e-09	-3.782335e+01	-8.082542e+01
2.100000e-07	-5.438866e-06	-1.241875e-09	-3.776934e+01	-8.076423e+01
2.200000e-07	-5.430849e-06	-1.272057e-09	-3.771367e+01	-8.069903e+01
2.300000e-07	-5.422509e-06	-1.230863e-09	-3.765575e+01	-8.062965e+01
2.400000e-07	-5.413665e-06	-1.221774e-09	-3.759434e+01	-8.055595e+01
2.500000e-07	-5.404099e-06	-1.217892e-09	-3.752791e+01	-8.047780e+01
2.600000e-07	-5.393820e-06	-1.254097e-09	-3.745652e+01	-8.039509e+01
2.700000e-07	-5.383063e-06	-1.225920e-09	-3.738182e+01	-8.030769e+01
2.800000e-07	-5.371878e-06	-1.225009e-09	-3.730415e+01	-8.021553e+01
2.900000e-07	-5.360221e-06	-1.217230e-09	-3.722320e+01	-8.011853e+01
3.000000e-07	-5.348173e-06	-1.248178e-09	-3.713954e+01	-8.001663e+01
3.100000e-07	-5.335713e-06	-1.222532e-09	-3.705301e+01	-7.990978e+01
3.200000e-07	-5.322813e-06	-1.230613e-09	-3.696343e+01	-7.979795e+01
3.300000e-07	-5.309493e-06	-1.225878e-09	-3.687093e+01	-7.968112e+01
3.400000e-07	-5.295867e-06	-1.239907e-09	-3.677631e+01	-7.955931e+01
3.500000e-07	-5.281848e-06	-1.218683e-09	-3.667896e+01	-7.943251e+01
3.600000e-07	-5.267276e-06	-1.212913e-09	-3.657776e+01	-7.930078e+01
3.700000e-07	-5.252251e-06	-1.204050e-09	-3.647342e+01	-7.916413e+01
3.800000e-07	-5.236840e-06	-1.224262e-09	-3.636641e+01	-7.902265e+01
3.900000e-07	-5.220895e-06	-1.218281e-09	-3.625568e+01	-7.887638e+01
4.000000e-07	-5.204478e-06	-1.195174e-09	-3.614167e+01	-7.872543e+01
4.100000e-07	-5.187752e-06	-1.203294e-09	-3.602552e+01	-7.856986e+01
4.200000e-07	-5.170676e-06	-1.217534e-09	-3.590694e+01	-7.840980e+01
4.300000e-07	-5.153205e-06	-1.199847e-09	-3.578561e+01	-7.824534e+01
4.400000e-07	-5.135378e-06	-1.189194e-09	-3.566182e+01	-7.807660e+01
4.500000e-07	-5.117267e-06	-1.221051e-09	-3.553605e+01	-7.790370e+01
4.600000e-07	-5.098727e-06	-1.197961e-09	-3.540730e+01	-7.772677e+01
4.700000e-07	-5.079719e-06	-1.172558e-09	-3.527530e+01	-7.754594e+01
4.800000e-07	-5.060416e-06	-1.193532e-09	-3.514125e+01	-7.736135e+01
4.900000e-07	-5.040872e-06	-1.209534e-09	-3.500554e+01	-7.717311e+01
5.000000e-07	-5.021077e-06	-1.162855e-09	-3.486807e+01	-7.698136e+01
5.100000e-07	-5.001018e-06	-1.178720e-09	-3.472877e+01	-7.678624e+01
5.200000e-07	-4.980647e-06	-1.197109e-09	-3.458731e+01	-7.658787e+01
5.300000e-07	-4.959956e-06	-1.171200e-09	-3.444363e+01	-7.638636e+01
5.400000e-07	-4.938936e-06	-1.155930e-09	-3.429766e+01	-7.618185e+01
5.500000e-07	-4.917584e-06	-1.189503e-09	-3.414938e+01	-7.597443e+01
5.600000e-07	-4.895885e-06	-1.153594e-09	-3.399870e+01	-7.576421e+01
5.700000e-07	-4.873828e-06	-1.134099e-09	-3.384552e+01	-7.555130e+01
5.800000e-07	-4.851401e-06	-1.164386e-09	-3.368978e+01	-7.533576e+01
5.900000e-07	-4.828556e-06	-1.168834e-09	-3.353114e+01	-7.511768e+01
6.000000e-07	-4.805395e-06	-1.136697e-09	-3.337030e+01	-7.489713e+01
6.100000e-07	-4.782008e-06	-1.167417e-09	-3.320790e+01	-7.467417e+01
6.200000e-07	-4.758374e-06	-1.173872e-09	-3.304377e+01	-7.444883e+01
6.300000e-07	-4.734560e-06	-1.142166e-09	-3.287840e+01	-7.422115e+01
6.400000e-07	-4.710481e-06	-1.141119e-09	-3.271119e+01	-7.399115e+01
6.500000e-07	-4.686028e-06	-1.152955e-09	-3.254138e+01	-7.375885e+01
6.600000e-07	-4.661064e-06	-1.121805e-09	-3.236802e+01	-7.352425e+01
6.700000e-07	-4.635620e-06	-1.116821e-09	-3.219132e+01	-7.328733e+01
6.800000e-07	-4.609755e-06	-1.132215e-09	-3.201171e+01	-7.304807e+01
6.900000e-07	-4.583295e-06	-1.119537e-09	-3.182796e+01	-7.280644e+01
7.000000e-07	-4.556317e-06	-1.111961e-09	-3.164062e+01	-7.256240e+01
7.100000e-07	-4.528993e-06	-1.122481e-09	-3.145087e+01	-7.231589e+01
7.200000e-07	-4.501446e-06	-1.111586e-09	-3.125957e+01	-7.206685e+01
7.300000e-07	-4.473728e-06	-1.097754e-09	-3.106709e+01	-7.181522e+01
7.400000e-07	-4.445795e-06	-1.107409e-09	-3.087312e+01	-7.156091e+01
7.500000e-07	-4.417606e-06	-1.098634e-09	-3.067736e+01	-7.130385e+01
7.600000e-07	-4.389112e-06	-1.085560e-09	-3.047949e+01	-7.104394e+01
7.700000e-07	-4.360387e-06	-1.083871e-09	-3.028001e+01	-7.078109e+01
7.800000e-07	-4.331350e-06	-1.080665e-09	-3.007837e+01	-7.051520e+01
7.900000e-07	-4.301953e-06	-1.065476e-09	-2.987423e+01	-7.024617e+01
8.000000e-07	-4.272302e-06	-1.069931e-09	-2.966832e+01	-6.997389e+01
8.100000e-07	-4.242405e-06	-1.063596e-09	-2.946071e+01	-6.969826e+01
8.200000e-07	-4.212170e-06	-1.049113e-09	-2.925074e+01	-6.941918e+01
8.300000e-07	-4.181541e-06	-1.039484e-09	-2.903805e+01	-6.913654e+01
8.400000e-07	-4.150591e-06	-1.040570e-09	-2.882312e+01	-6.885023e+01
8.500000e-07	-4.119379e-06	-1.025444e-09	-2.860637e+01	-6.856016e+01
8.600000e-07	-4.088030e-06	-1.020417e-09	-2.838868e+01	-6.826623e+01
8.700000e-07	-4.056497e-06	-1.021549e-09	-2.816970e+01	-6.796834e+01
8.800000e-07	-4.024768e-06	-1.019264e-09	-2.794936e+01	-6.766640e+01
8.900000e-07	-3.992888e-06	-1.006718e-09	-2.772798e+01	-6.736034e+01
9.000000e-07	-3.960767e-06	-1.004121e-09	-2.750492e+01	-6.705007e+01
9.100000e-07	-3.928334e-06	-9.948430e-10	-2.727969e+01	-6.673552e+01
9.200000e-07	-3.895549e-06	-9.829485e-10	-2.705202e+01	-6.641662e+01
9.300000e-07	-3.862364e-06	-9.777290e-10	-2.682157e+01	-6.609333e+01
9.400000e-07	-3.828681e-06	-9.776821e-10	-2.658767e+01	-6.576559e+01
9.500000e-07	-3.794366e-06	-9.689383e-10	-2.634937e+01	-6.543336e+01
9.600000e-07	-3.759608e-06	-9.637862e-10	-2.610800e+01	-6.509661e+01
9.700000e-07	-3.724621e-06	-9.608886e-10	-2.586504e+01	-6.475532e+01
9.800000e-07	-3.689350e-06	-9.513778e-10	-2.562011e+01	-6.440947e+01
9.900000e-07	-3.653840e-06	-9.424532e-10	-2.537351e+01	-6.405905e+01
1.000000e-06	-3.618179e-06	-9.399983e-10	-2.512587e+01	-6.370406e+01
1.010000e-06	-3.582424e-06	-9.385159e-10	-2.487757e+01	-6.334451e+01
1.020000e-06	-3.546531e-06	-9.350664e-10	-2.462832e+01	-6.298042e+01
1.030000e-06	-3.510452e-06	-9.344516e-10	-2.437778e+01	-6.261181e+01
1.040000e-06	-3.474188e-06	-9.293800e-10	-2.412595e+01	-6.223872e+01
1.050000e-06	-3.437643e-06	-9.209372e-10	-2.387216e+01	-6.186117e+01
1.060000e-06	-3.400770e-06	-9.104698e-10	-2.361611e+01	-6.147921e+01
1.070000e-06	-3.363623e-06	-9.022364e-10	-2.335815e+01	-6.109288e+01
1.080000e-06	-3.326211e-06	-8.917844e-10	-2.309834e+01	-6.070224e+01
1.090000e-06	-3.288531e-06	-8.876779e-10	-2.283668e+01	-6.030733e+01
1.100000e-06	-3.250675e-06	-8.825042e-10	-2.257379e+01	-5.990822e+01
1.110000e-06	-3.212658e-06	-8.788691e-10	-2.230979e+01	-5.950496e+01
1.120000e-06	-3.174401e-06	-8.744838e-10	-2.204412e+01	-5.909761e+01
1.130000e-06	-3.135920e-06	-8.725865e-10	-2.177690e+01	-5.868622e+01
1.140000e-06	-3.097187e-06	-8.639035e-10	-2.150793e+01	-5.827085e+01
1.150000e-06	-3.058118e-06	-8.538202e-10	-2.123662e+01	-5.785155e+01
1.160000e-06	-3.018835e-06	-8.438959e-10	-2.096382e+01	-5.742836e+01
1.170000e-06	-2.979485e-06	-8.357889e-10	-2.069056e+01	-5.700134e+01
1.180000e-06	-2.940018e-06	-8.276810e-10	-2.041649e+01	-5.657051e+01
1.190000e-06	-2.900363e-06	-8.243704e-10	-2.014111e+01	-5.613591e+01
1.200000e-06	-2.860585e-06	-8.189196e-10	-1.986488e+01	-5.569754e+01
1.210000e-06	-2.820745e-06	-8.138409e-10	-1.958822e+01	-5.525544e+01
1.220000e-06	-2.780820e-06	-8.084313e-10	-1.931096e+01	-5.480958e+01
1.230000e-06	-2.740746e-06	-8.018641e-10	-1.903268e+01	-5.435996e+01
1.240000e-06	-2.700397e-06	-7.926228e-10	-1.875248e+01	-5.390656e+01
1.250000e-06	-2.659718e-06	-7.839915e-10	-1.846999e+01	-5.344933e+01
1.260000e-06	-2.618809e-06	-7.786203e-10	-1.818590e+01	-5.298821e+01
1.270000e-06	-2.577783e-06	-7.729036e-10	-1.790100e+01	-5.252313e+01
1.280000e-06	-2.536485e-06	-7.661038e-10	-1.761422e+01	-5.205400e+01
1.290000e-06	-2.494726e-06	-7.571881e-10	-1.732423e+01	-5.158072e+01
1.300000e-06	-2.452639e-06	-7.463898e-10	-1.703196e+01	-5.110315e+01
1.310000e-06	-2.410371e-06	-7.362218e-10	-1.673844e+01	-5.062116e+01
1.320000e-06	-2.367875e-06	-7.297389e-10	-1.644333e+01	-5.013457e+01
1.330000e-06	-2.325104e-06	-7.237052e-10	-1.614631e+01	-4.964319e+01
1.340000e-06	-2.282072e-06	-7.176283e-10	-1.584749e+01	-4.914683e+01
1.350000e-06	-2.238850e-06	-7.112013e-10	-1.554734e+01	-4.864525e+01
1.360000e-06	-2.195447e-06	-7.031747e-10	-1.524593e+01	-4.813819e+01
1.370000e-06	-2.151852e-06	-6.920586e-10	-1.494319e+01	-4.762539e+01
1.380000e-06	-2.108139e-06	-6.801602e-10	-1.463963e+01	-4.710656e+01
1.390000e-06	-2.064397e-06	-6.664437e-10	-1.433588e+01	-4.658138e+01
1.400000e-06	-2.020606e-06	-6.550292e-10	-1.403178e+01	-4.604951e+01
1.410000e-06	-1.976730e-06	-6.462709e-10	-1.372709e+01	-4.551060e+01
1.420000e-06	-1.932807e-06	-6.431398e-10	-1.342207e+01	-4.496428e+01
1.430000e-06	-1.888779e-06	-6.388852e-10	-1.311633e+01	-4.441015e+01
1.440000e-06	-1.844611e-06	-6.295761e-10	-1.280960e+01	-4.384780e+01
1.450000e-06	-1.800363e-06	-6.172032e-10	-1.250233e+01	-4.327680e+01
1.460000e-06	-1.756034e-06	-6.042937e-10	-1.219450e+01	-4.269671e+01
1.470000e-06	-1.711511e-06	-5.926971e-10	-1.188532e+01	-4.210708e+01
1.480000e-06	-1.666862e-06	-5.830808e-10	-1.157526e+01	-4.150744e+01
1.490000e-06	-1.622145e-06	-5.745979e-10	-1.126473e+01	-4.089730e+01
1.500000e-06	-1.577171e-06	-5.683615e-10	-1.095241e+01	-4.027618e+01
1.510000e-06	-1.532045e-06	-5.614101e-10	-1.063904e+01	-3.964359e+01
1.520000e-06	-1.486845e-06	-5.524208e-10	-1.032516e+01	-3.899903e+01
1.530000e-06	-1.441485e-06	-5.394071e-10	-1.001016e+01	-3.834199e+01
1.540000e-06	-1.395996e-06	-5.245414e-10	-9.694269e+00	-3.767198e+01
1.550000e-06	-1.350412e-06	-5.075931e-10	-9.377724e+00	-3.698850e+01
1.560000e-06	-1.304753e-06	-4.896710e-10	-9.060649e+00	-3.629106e+01
1.570000e-06	-1.259048e-06	-4.740090e-10	-8.743255e+00	-3.557918e+01
1.580000e-06	-1.213342e-06	-4.593631e-10	-8.425858e+00	-3.485238e+01
1.590000e-06	-1.167523e-06	-4.457903e-10	-8.107675e+00	-3.411021e+01
1.600000e-06	-1.121576e-06	-4.331291e-10	-7.788603e+00	-3.335223e+01
1.610000e-06	-1.075518e-06	-4.206322e-10	-7.468760e+00	-3.257801e+01
1.620000e-06	-1.029414e-06	-4.084224e-10	-7.148604e+00	-3.178715e+01
1.630000e-06	-9.832949e-07	-3.959850e-10	-6.828335e+00	-3.097930e+01
1.640000e-06	-9.370974e-07	-3.824083e-10	-6.507524e+00	-3.015409e+01
1.650000e-06	-8.908424e-07	-3.681761e-10	-6.186313e+00	-2.931121e+01
1.660000e-06	-8.445129e-07	-3.542152e-10	-5.864585e+00	-2.845040e+01
1.670000e-06	-7.981163e-07	-3.408714e-10	-5.542392e+00	-2.757140e+01
1.680000e-06	-7.516646e-07	-3.271081e-10	-5.219815e+00	-2.667402e+01
1.690000e-06	-7.051633e-07	-3.147865e-10	-4.896894e+00	-2.575809e+01
1.700000e-06	-6.586557e-07	-3.033739e-10	-4.573930e+00	-2.482349e+01
1.710000e-06	-6.121770e-07	-2.914822e-10	-4.251166e+00	-2.387017e+01
1.720000e-06	-5.656231e-07	-2.786995e-10	-3.927880e+00	-2.289810e+01
1.730000e-06	-5.189685e-07	-2.655609e-10	-3.603894e+00	-2.190730e+01
1.740000e-06	-4.722562e-07	-2.489166e-10	-3.279508e+00	-2.089787e+01
1.750000e-06	-4.255132e-07	-2.309105e-10	-2.954909e+00	-1.986993e+01
1.760000e-06	-3.786953e-07	-2.144470e-10	-2.629789e+00	-1.882367e+01
1.770000e-06	-3.317293e-07	-1.982431e-10	-2.303642e+00	-1.775935e+01
1.780000e-06	-2.847520e-07	-1.840584e-10	-1.977415e+00	-1.667727e+01
1.790000e-06	-2.378610e-07	-1.714251e-10	-1.651788e+00	-1.557778e+01
1.800000e-06	-1.909744e-07	-1.585017e-10	-1.326191e+00	-1.446129e+01
1.810000e-06	-1.441513e-07	-1.427891e-10	-1.001035e+00	-1.332829e+01
1.820000e-06	-9.737834e-08	-1.261357e-10	-6.762284e-01	-1.217930e+01
1.830000e-06	-5.056193e-08	-1.076030e-10	-3.511193e-01	-1.101490e+01
1.840000e-06	-3.706348e-09	-8.816067e-11	-2.573815e-02	-9.835729e+00
1.850000e-06	4.319528e-08	-7.310393e-11	2.999628e-01	-8.642479e+00
1.860000e-06	9.008945e-08	-5.998101e-11	6.256118e-01	-7.435889e+00
1.870000e-06	1.369886e-07	-4.440597e-11	9.512956e-01	-6.216751e+00
1.880000e-06	1.838823e-07	-2.704120e-11	1.276941e+00	-4.985902e+00
1.890000e-06	2.307415e-07	-9.237893e-12	1.602348e+00	-3.744222e+00
1.900000e-06	2.775851e-07	8.533594e-12	1.927646e+00	-2.492635e+00
1.910000e-06	3.244481e-07	2.498273e-11	2.253078e+00	-1.232102e+00
1.920000e-06	3.712576e-07	4.178172e-11	2.578139e+00	3.638001e-02
1.930000e-06	4.179845e-07	5.932808e-11	2.902627e+00	1.311784e+00
1.940000e-06	4.647266e-07	7.678459e-11	3.227220e+00	2.593053e+00
1.950000e-06	5.114752e-07	9.409545e-11	3.551858e+00	3.879106e+00
1.960000e-06	5.581181e-07	1.126121e-10	3.875762e+00	5.168845e+00
1.970000e-06	6.046749e-07	1.316737e-10	4.199068e+00	6.461152e+00
1.980000e-06	6.512357e-07	1.521610e-10	4.522403e+00	7.754900e+00
1.990000e-06	6.977226e-07	1.720077e-10	4.845224e+00	9.048952e+00
2.000000e-06	7.441300e-07	1.914035e-10	5.167492e+00	1.034217e+01
2.010000e-06	7.904983e-07	2.093715e-10	5.489490e+00	1.163342e+01
2.020000e-06	8.367594e-07	2.254026e-10	5.810743e+00	1.292157e+01
2.030000e-06	8.829459e-07	2.434405e-10	6.131477e+00	1.420550e+01
2.040000e-06	9.291419e-07	2.629738e-10	6.452278e+00	1.548410e+01
2.050000e-06	9.752883e-07	2.818962e-10	6.772734e+00	1.675628e+01
2.060000e-06	1.021368e-06	3.012859e-10	7.092729e+00	1.802099e+01
2.070000e-06	1.067384e-06	3.205845e-10	7.412276e+00	1.927718e+01
2.080000e-06	1.113293e-06	3.398025e-10	7.731083e+00	2.052384e+01
2.090000e-06	1.159101e-06	3.607585e-10	8.049193e+00	2.176001e+01
2.100000e-06	1.204836e-06	3.813627e-10	8.366791e+00	2.298475e+01
2.110000e-06	1.250458e-06	3.985158e-10	8.683609e+00	2.419716e+01
2.120000e-06	1.295972e-06	4.119058e-10	8.999672e+00	2.539641e+01
2.130000e-06	1.341519e-06	4.242197e-10	9.315968e+00	2.658167e+01
2.140000e-06	1.387041e-06	4.375888e-10	9.632083e+00	2.775221e+01
2.150000e-06	1.432439e-06	4.526987e-10	9.947343e+00	2.890732e+01
2.160000e-06	1.477692e-06	4.690933e-10	1.026160e+01	3.004635e+01
2.170000e-06	1.522811e-06	4.872318e-10	1.057492e+01	3.116870e+01
2.180000e-06	1.567829e-06	5.063979e-10	1.088754e+01	3.227384e+01
2.190000e-06	1.612658e-06	5.250233e-10	1.119885e+01	3.336128e+01
2.200000e-06	1.657320e-06	5.408380e-10	1.150900e+01	3.443060e+01
2.210000e-06	1.701844e-06	5.531348e-10	1.181819e+01	3.548143e+01
2.220000e-06	1.746162e-06	5.628050e-10	1.212594e+01	3.651346e+01
2.230000e-06	1.790389e-06	5.728457e-10	1.243307e+01	3.752644e+01
2.240000e-06	1.834552e-06	5.858998e-10	1.273976e+01	3.852016e+01
2.250000e-06	1.878584e-06	6.017498e-10	1.304552e+01	3.949449e+01
2.260000e-06	1.922524e-06	6.190419e-10	1.335066e+01	4.044934e+01
2.270000e-06	1.966411e-06	6.354233e-10	1.365543e+01	4.138466e+01
2.280000e-06	2.010247e-06	6.485973e-10	1.395984e+01	4.230048e+01
2.290000e-06	2.053982e-06	6.593172e-10	1.426355e+01	4.319684e+01
2.300000e-06	2.097649e-06	6.681498e-10	1.456679e+01	4.407386e+01
2.310000e-06	2.141300e-06	6.767280e-10	1.486992e+01	4.493169e+01
2.320000e-06	2.184844e-06	6.883827e-10	1.517230e+01	4.577051e+01
2.330000e-06	2.228225e-06	7.021081e-10	1.547356e+01	4.659056e+01
2.340000e-06	2.271426e-06	7.162700e-10	1.577355e+01	4.739209e+01
2.350000e-06	2.314418e-06	7.276158e-10	1.607211e+01	4.817540e+01
2.360000e-06	2.357262e-06	7.369156e-10	1.636963e+01	4.894082e+01
2.370000e-06	2.399887e-06	7.466786e-10	1.666563e+01	4.968869e+01
2.380000e-06	2.442254e-06	7.576933e-10	1.695984e+01	5.041939e+01
2.390000e-06	2.484291e-06	7.706394e-10	1.725176e+01	5.113329e+01
2.400000e-06	2.525936e-06	7.824078e-10	1.754096e+01	5.183082e+01
2.410000e-06	2.567341e-06	7.931737e-10	1.782849e+01	5.251238e+01
2.420000e-06	2.608429e-06	8.017914e-10	1.811382e+01	5.317841e+01
2.430000e-06	2.649158e-06	8.085029e-10	1.839666e+01	5.382934e+01
2.440000e-06	2.689637e-06	8.146777e-10	1.867776e+01	5.446560e+01
2.450000e-06	2.729916e-06	8.216032e-10	1.895747e+01	5.508765e+01
2.460000e-06	2.770012e-06	8.296544e-10	1.923591e+01	5.569592e+01
2.470000e-06	2.809960e-06	8.392385e-10	1.951332e+01	5.629085e+01
2.480000e-06	2.849832e-06	8.486624e-10	1.979021e+01	5.687287e+01
2.490000e-06	2.889568e-06	8.578482e-10	2.006614e+01	5.744239e+01
2.500000e-06	2.929156e-06	8.686647e-10	2.034106e+01	5.799984e+01
2.510000e-06	2.968671e-06	8.781802e-10	2.061546e+01	5.854561e+01
2.520000e-06	3.008104e-06	8.856819e-10	2.088930e+01	5.908010e+01
2.530000e-06	3.047310e-06	8.919303e-10	2.116156e+01	5.960368e+01
2.540000e-06	3.086230e-06	8.982310e-10	2.143183e+01	6.011672e+01
2.550000e-06	3.124916e-06	9.036721e-10	2.170048e+01	6.061955e+01
2.560000e-06	3.163312e-06	9.085581e-10	2.196711e+01	6.111250e+01
2.570000e-06	3.201466e-06	9.149668e-10	2.223207e+01	6.159590e+01
2.580000e-06	3.239421e-06	9.243518e-10	2.249564e+01	6.207003e+01
2.590000e-06	3.277160e-06	9.367397e-10	2.275771e+01	6.253518e+01
2.600000e-06	3.314745e-06	9.477914e-10	2.301872e+01	6.299161e+01
2.610000e-06	3.352096e-06	9.546814e-10	2.327810e+01	6.343956e+01
2.620000e-06	3.389146e-06	9.586715e-10	2.353538e+01	6.387928e+01
2.630000e-06	3.426023e-06	9.603194e-10	2.379147e+01	6.431097e+01
2.640000e-06	3.462684e-06	9.616979e-10	2.404606e+01	6.473484e+01
2.650000e-06	3.499034e-06	9.700217e-10	2.429849e+01	6.515107e+01
2.660000e-06	3.535103e-06	9.825920e-10	2.454896e+01	6.555985e+01
2.670000e-06	3.570941e-06	9.937495e-10	2.479783e+01	6.596134e+01
2.680000e-06	3.606672e-06	1.000099e-09	2.504596e+01	6.635569e+01
2.690000e-06	3.642319e-06	1.000051e-09	2.529351e+01	6.674305e+01
2.700000e-06	3.677861e-06	9.985948e-10	2.554032e+01	6.712356e+01
2.710000e-06	3.713278e-06	1.001427e-09	2.578627e+01	6.749734e+01
2.720000e-06	3.748481e-06	1.009109e-09	2.603073e+01	6.786452e+01
2.730000e-06	3.783371e-06	1.016694e-09	2.627302e+01	6.822522e+01
2.740000e-06	3.817741e-06	1.022206e-09	2.651170e+01	6.857954e+01
2.750000e-06	3.851513e-06	1.025747e-09	2.674622e+01	6.892761e+01
2.760000e-06	3.884817e-06	1.028600e-09	2.697749e+01	6.926952e+01
2.770000e-06	3.917664e-06	1.030998e-09	2.720559e+01	6.960540e+01
2.780000e-06	3.950057e-06	1.034602e-09	2.743055e+01	6.993533e+01
2.790000e-06	3.982183e-06	1.039648e-09	2.765364e+01	7.025943e+01
2.800000e-06	4.014161e-06	1.045235e-09	2.787570e+01	7.057780e+01
2.810000e-06	4.045963e-06	1.050383e-09	2.809655e+01	7.089054e+01
2.820000e-06	4.077619e-06	1.055191e-09	2.831638e+01	7.119777e+01
2.830000e-06	4.109136e-06	1.057558e-09	2.853524e+01	7.149959e+01
2.840000e-06	4.140454e-06	1.057704e-09	2.875272e+01	7.179610e+01
2.850000e-06	4.171510e-06	1.060133e-09	2.896839e+01	7.208742e+01
2.860000e-06	4.202228e-06	1.067510e-09	2.918170e+01	7.237366e+01
2.870000e-06	4.232590e-06	1.075463e-09	2.939255e+01	7.265492e+01
2.880000e-06	4.262645e-06	1.079285e-09	2.960126e+01	7.293131e+01
2.890000e-06	4.292369e-06	1.078979e-09	2.980767e+01	7.320294e+01
2.900000e-06	4.321781e-06	1.078609e-09	3.001192e+01	7.346993e+01
2.910000e-06	4.350933e-06	1.080988e-09	3.021436e+01	7.373237e+01
