# Temperatura_=_-0.4
# Concentracion g/m^3_=_1620.0
# C_Vs_to_Am_M_A/Vsm_=_65563218390.804596
# pendiente_HvsI_1/m_=_3716.3
# ordenada_HvsI_A/m_=_1297.0
# frecuencia_Hz_=_135094.2247208955

Tiempo_(s)	Campo_(V.s)	Magnetizacion_(V.s)	Campo_(kA/m)	Magnetizacion_(A/m)
0.000000e+00	-5.495250e-06	-1.689898e-09	-3.837570e+01	-1.085363e+02
1.000000e-08	-5.495503e-06	-1.686514e-09	-3.837746e+01	-1.084849e+02
2.000000e-08	-5.495442e-06	-1.685426e-09	-3.837704e+01	-1.084292e+02
3.000000e-08	-5.494956e-06	-1.686847e-09	-3.837364e+01	-1.083693e+02
4.000000e-08	-5.493872e-06	-1.688278e-09	-3.836608e+01	-1.083053e+02
5.000000e-08	-5.492306e-06	-1.685291e-09	-3.835514e+01	-1.082374e+02
6.000000e-08	-5.490281e-06	-1.677043e-09	-3.834100e+01	-1.081658e+02
7.000000e-08	-5.487650e-06	-1.671118e-09	-3.832262e+01	-1.080905e+02
8.000000e-08	-5.484537e-06	-1.701709e-09	-3.830089e+01	-1.080119e+02
9.000000e-08	-5.480923e-06	-1.749324e-09	-3.827565e+01	-1.079300e+02
1.000000e-07	-5.476725e-06	-1.714302e-09	-3.824633e+01	-1.078450e+02
1.100000e-07	-5.472202e-06	-1.592024e-09	-3.821474e+01	-1.077570e+02
1.200000e-07	-5.467647e-06	-1.622300e-09	-3.818293e+01	-1.076661e+02
1.300000e-07	-5.462923e-06	-1.716114e-09	-3.814994e+01	-1.075726e+02
1.400000e-07	-5.457713e-06	-1.749974e-09	-3.811356e+01	-1.074765e+02
1.500000e-07	-5.452049e-06	-1.625611e-09	-3.807401e+01	-1.073779e+02
1.600000e-07	-5.446198e-06	-1.649927e-09	-3.803315e+01	-1.072769e+02
1.700000e-07	-5.440016e-06	-1.750967e-09	-3.798997e+01	-1.071737e+02
1.800000e-07	-5.433247e-06	-1.737226e-09	-3.794270e+01	-1.070682e+02
1.900000e-07	-5.426055e-06	-1.603124e-09	-3.789248e+01	-1.069607e+02
2.000000e-07	-5.418686e-06	-1.566549e-09	-3.784102e+01	-1.068510e+02
2.100000e-07	-5.411038e-06	-1.671003e-09	-3.778761e+01	-1.067392e+02
2.200000e-07	-5.403034e-06	-1.689537e-09	-3.773171e+01	-1.066255e+02
2.300000e-07	-5.394797e-06	-1.639598e-09	-3.767419e+01	-1.065096e+02
2.400000e-07	-5.386252e-06	-1.582099e-09	-3.761452e+01	-1.063917e+02
2.500000e-07	-5.376926e-06	-1.617225e-09	-3.754939e+01	-1.062717e+02
2.600000e-07	-5.366727e-06	-1.595562e-09	-3.747817e+01	-1.061495e+02
2.700000e-07	-5.356038e-06	-1.590530e-09	-3.740352e+01	-1.060251e+02
2.800000e-07	-5.344946e-06	-1.566443e-09	-3.732606e+01	-1.058984e+02
2.900000e-07	-5.333387e-06	-1.588477e-09	-3.724534e+01	-1.057693e+02
3.000000e-07	-5.321469e-06	-1.581353e-09	-3.716211e+01	-1.056376e+02
3.100000e-07	-5.309281e-06	-1.591772e-09	-3.707700e+01	-1.055034e+02
3.200000e-07	-5.296612e-06	-1.558472e-09	-3.698853e+01	-1.053663e+02
3.300000e-07	-5.283486e-06	-1.566202e-09	-3.689686e+01	-1.052264e+02
3.400000e-07	-5.270158e-06	-1.572301e-09	-3.680379e+01	-1.050833e+02
3.500000e-07	-5.256514e-06	-1.569021e-09	-3.670850e+01	-1.049371e+02
3.600000e-07	-5.242163e-06	-1.540995e-09	-3.660828e+01	-1.047874e+02
3.700000e-07	-5.227343e-06	-1.557944e-09	-3.650479e+01	-1.046341e+02
3.800000e-07	-5.212201e-06	-1.554037e-09	-3.639904e+01	-1.044770e+02
3.900000e-07	-5.196424e-06	-1.526768e-09	-3.628887e+01	-1.043160e+02
4.000000e-07	-5.180178e-06	-1.542696e-09	-3.617541e+01	-1.041508e+02
4.100000e-07	-5.163648e-06	-1.562804e-09	-3.605998e+01	-1.039812e+02
4.200000e-07	-5.146723e-06	-1.524997e-09	-3.594179e+01	-1.038071e+02
4.300000e-07	-5.129427e-06	-1.507090e-09	-3.582100e+01	-1.036284e+02
4.400000e-07	-5.111827e-06	-1.560401e-09	-3.569809e+01	-1.034447e+02
4.500000e-07	-5.093903e-06	-1.529661e-09	-3.557292e+01	-1.032559e+02
4.600000e-07	-5.075578e-06	-1.481296e-09	-3.544495e+01	-1.030619e+02
4.700000e-07	-5.056771e-06	-1.511601e-09	-3.531361e+01	-1.028626e+02
4.800000e-07	-5.037619e-06	-1.548171e-09	-3.517987e+01	-1.026576e+02
4.900000e-07	-5.018206e-06	-1.490932e-09	-3.504430e+01	-1.024470e+02
5.000000e-07	-4.998617e-06	-1.500506e-09	-3.490750e+01	-1.022306e+02
5.100000e-07	-4.978894e-06	-1.524769e-09	-3.476976e+01	-1.020083e+02
5.200000e-07	-4.958857e-06	-1.490799e-09	-3.462983e+01	-1.017800e+02
5.300000e-07	-4.938390e-06	-1.468544e-09	-3.448691e+01	-1.015455e+02
5.400000e-07	-4.917528e-06	-1.522501e-09	-3.434122e+01	-1.013049e+02
5.500000e-07	-4.896275e-06	-1.489660e-09	-3.419280e+01	-1.010580e+02
5.600000e-07	-4.874728e-06	-1.448969e-09	-3.404233e+01	-1.008049e+02
5.700000e-07	-4.852951e-06	-1.483506e-09	-3.389025e+01	-1.005454e+02
5.800000e-07	-4.830818e-06	-1.502422e-09	-3.373569e+01	-1.002797e+02
5.900000e-07	-4.808117e-06	-1.447168e-09	-3.357715e+01	-1.000076e+02
6.000000e-07	-4.785023e-06	-1.455844e-09	-3.341588e+01	-9.972918e+01
6.100000e-07	-4.761761e-06	-1.480107e-09	-3.325343e+01	-9.944449e+01
6.200000e-07	-4.738310e-06	-1.452409e-09	-3.308966e+01	-9.915355e+01
6.300000e-07	-4.714702e-06	-1.437454e-09	-3.292480e+01	-9.885642e+01
6.400000e-07	-4.690868e-06	-1.463148e-09	-3.275835e+01	-9.855315e+01
6.500000e-07	-4.666645e-06	-1.447440e-09	-3.258919e+01	-9.824381e+01
6.600000e-07	-4.641932e-06	-1.425563e-09	-3.241661e+01	-9.792849e+01
6.700000e-07	-4.616670e-06	-1.435739e-09	-3.224019e+01	-9.760726e+01
6.800000e-07	-4.590837e-06	-1.428889e-09	-3.205979e+01	-9.728023e+01
6.900000e-07	-4.564466e-06	-1.403918e-09	-3.187563e+01	-9.694748e+01
7.000000e-07	-4.537623e-06	-1.404683e-09	-3.168818e+01	-9.660912e+01
7.100000e-07	-4.510417e-06	-1.410703e-09	-3.149819e+01	-9.626525e+01
7.200000e-07	-4.482974e-06	-1.393051e-09	-3.130654e+01	-9.591597e+01
7.300000e-07	-4.455374e-06	-1.391309e-09	-3.111380e+01	-9.556138e+01
7.400000e-07	-4.427644e-06	-1.395080e-09	-3.092014e+01	-9.520158e+01
7.500000e-07	-4.399725e-06	-1.388385e-09	-3.072518e+01	-9.483668e+01
7.600000e-07	-4.371509e-06	-1.372838e-09	-3.052813e+01	-9.446676e+01
7.700000e-07	-4.342981e-06	-1.371924e-09	-3.032891e+01	-9.409191e+01
7.800000e-07	-4.314187e-06	-1.358480e-09	-3.012783e+01	-9.371222e+01
7.900000e-07	-4.285073e-06	-1.348266e-09	-2.992451e+01	-9.332775e+01
8.000000e-07	-4.255609e-06	-1.342021e-09	-2.971875e+01	-9.293857e+01
8.100000e-07	-4.225858e-06	-1.336650e-09	-2.951099e+01	-9.254474e+01
8.200000e-07	-4.195845e-06	-1.321035e-09	-2.930139e+01	-9.214631e+01
8.300000e-07	-4.165447e-06	-1.322669e-09	-2.908911e+01	-9.174331e+01
8.400000e-07	-4.134666e-06	-1.320925e-09	-2.887416e+01	-9.133577e+01
8.500000e-07	-4.103690e-06	-1.312586e-09	-2.865784e+01	-9.092370e+01
8.600000e-07	-4.072517e-06	-1.302997e-09	-2.844014e+01	-9.050712e+01
8.700000e-07	-4.041187e-06	-1.302831e-09	-2.822135e+01	-9.008601e+01
8.800000e-07	-4.009727e-06	-1.290413e-09	-2.800165e+01	-8.966037e+01
8.900000e-07	-3.978090e-06	-1.282358e-09	-2.778072e+01	-8.923016e+01
9.000000e-07	-3.946252e-06	-1.276681e-09	-2.755838e+01	-8.879536e+01
9.100000e-07	-3.914089e-06	-1.267416e-09	-2.733377e+01	-8.835591e+01
9.200000e-07	-3.881468e-06	-1.258173e-09	-2.710596e+01	-8.791178e+01
9.300000e-07	-3.848499e-06	-1.258063e-09	-2.687573e+01	-8.746290e+01
9.400000e-07	-3.815199e-06	-1.253381e-09	-2.664318e+01	-8.700920e+01
9.500000e-07	-3.781500e-06	-1.243164e-09	-2.640785e+01	-8.655063e+01
9.600000e-07	-3.747263e-06	-1.235297e-09	-2.616875e+01	-8.608710e+01
9.700000e-07	-3.712604e-06	-1.228361e-09	-2.592671e+01	-8.561854e+01
9.800000e-07	-3.677663e-06	-1.214445e-09	-2.568271e+01	-8.514486e+01
9.900000e-07	-3.642369e-06	-1.205557e-09	-2.543623e+01	-8.466600e+01
1.000000e-06	-3.606919e-06	-1.207663e-09	-2.518867e+01	-8.418187e+01
1.010000e-06	-3.571416e-06	-1.203178e-09	-2.494074e+01	-8.369240e+01
1.020000e-06	-3.535797e-06	-1.197979e-09	-2.469200e+01	-8.319751e+01
1.030000e-06	-3.499992e-06	-1.192965e-09	-2.444195e+01	-8.269713e+01
1.040000e-06	-3.463970e-06	-1.185048e-09	-2.419040e+01	-8.219120e+01
1.050000e-06	-3.427607e-06	-1.169746e-09	-2.393646e+01	-8.167965e+01
1.060000e-06	-3.390982e-06	-1.163778e-09	-2.368069e+01	-8.116244e+01
1.070000e-06	-3.354052e-06	-1.157523e-09	-2.342279e+01	-8.063953e+01
1.080000e-06	-3.316839e-06	-1.149056e-09	-2.316292e+01	-8.011086e+01
1.090000e-06	-3.279513e-06	-1.139476e-09	-2.290225e+01	-7.957643e+01
1.100000e-06	-3.241948e-06	-1.133517e-09	-2.263992e+01	-7.903621e+01
1.110000e-06	-3.204176e-06	-1.120908e-09	-2.237614e+01	-7.849018e+01
1.120000e-06	-3.166121e-06	-1.111529e-09	-2.211039e+01	-7.793836e+01
1.130000e-06	-3.127783e-06	-1.106623e-09	-2.184266e+01	-7.738075e+01
1.140000e-06	-3.089359e-06	-1.102269e-09	-2.157433e+01	-7.681737e+01
1.150000e-06	-3.050798e-06	-1.090911e-09	-2.130504e+01	-7.624825e+01
1.160000e-06	-3.012008e-06	-1.082988e-09	-2.103415e+01	-7.567342e+01
1.170000e-06	-2.973015e-06	-1.074735e-09	-2.076185e+01	-7.509292e+01
1.180000e-06	-2.933781e-06	-1.066167e-09	-2.048786e+01	-7.450681e+01
1.190000e-06	-2.894343e-06	-1.058730e-09	-2.021244e+01	-7.391513e+01
1.200000e-06	-2.854822e-06	-1.053939e-09	-1.993645e+01	-7.331794e+01
1.210000e-06	-2.815202e-06	-1.045886e-09	-1.965977e+01	-7.271529e+01
1.220000e-06	-2.775433e-06	-1.036253e-09	-1.938205e+01	-7.210725e+01
1.230000e-06	-2.735507e-06	-1.025739e-09	-1.910322e+01	-7.149388e+01
1.240000e-06	-2.695434e-06	-1.012930e-09	-1.882338e+01	-7.087521e+01
1.250000e-06	-2.655207e-06	-1.001735e-09	-1.854246e+01	-7.025130e+01
1.260000e-06	-2.614695e-06	-9.932913e-10	-1.825954e+01	-6.962220e+01
1.270000e-06	-2.573856e-06	-9.876919e-10	-1.797435e+01	-6.898792e+01
1.280000e-06	-2.532840e-06	-9.804492e-10	-1.768791e+01	-6.834849e+01
1.290000e-06	-2.491480e-06	-9.686198e-10	-1.739908e+01	-6.770390e+01
1.300000e-06	-2.449781e-06	-9.533257e-10	-1.710788e+01	-6.705416e+01
1.310000e-06	-2.407818e-06	-9.381068e-10	-1.681483e+01	-6.639922e+01
1.320000e-06	-2.365467e-06	-9.236775e-10	-1.651908e+01	-6.573903e+01
1.330000e-06	-2.322846e-06	-9.130448e-10	-1.622144e+01	-6.507353e+01
1.340000e-06	-2.280091e-06	-9.055670e-10	-1.592286e+01	-6.440260e+01
1.350000e-06	-2.237092e-06	-9.002006e-10	-1.562258e+01	-6.372614e+01
1.360000e-06	-2.193837e-06	-8.917932e-10	-1.532051e+01	-6.304397e+01
1.370000e-06	-2.150478e-06	-8.806397e-10	-1.501772e+01	-6.235593e+01
1.380000e-06	-2.107052e-06	-8.658095e-10	-1.471445e+01	-6.166180e+01
1.390000e-06	-2.063548e-06	-8.515437e-10	-1.441065e+01	-6.096133e+01
1.400000e-06	-2.019919e-06	-8.366929e-10	-1.410596e+01	-6.025425e+01
1.410000e-06	-1.976167e-06	-8.250287e-10	-1.380042e+01	-5.954025e+01
1.420000e-06	-1.932324e-06	-8.160402e-10	-1.349425e+01	-5.881899e+01
1.430000e-06	-1.888477e-06	-8.099954e-10	-1.318805e+01	-5.809008e+01
1.440000e-06	-1.844620e-06	-8.013314e-10	-1.288178e+01	-5.735312e+01
1.450000e-06	-1.800639e-06	-7.903148e-10	-1.257464e+01	-5.660766e+01
1.460000e-06	-1.756550e-06	-7.761992e-10	-1.226675e+01	-5.585323e+01
1.470000e-06	-1.712355e-06	-7.624727e-10	-1.195811e+01	-5.508933e+01
1.480000e-06	-1.667961e-06	-7.491133e-10	-1.164809e+01	-5.431542e+01
1.490000e-06	-1.623392e-06	-7.387363e-10	-1.133685e+01	-5.353094e+01
1.500000e-06	-1.578672e-06	-7.298036e-10	-1.102455e+01	-5.273530e+01
1.510000e-06	-1.533848e-06	-7.200003e-10	-1.071152e+01	-5.192789e+01
1.520000e-06	-1.488944e-06	-7.077379e-10	-1.039794e+01	-5.110808e+01
1.530000e-06	-1.443912e-06	-6.950850e-10	-1.008346e+01	-5.027522e+01
1.540000e-06	-1.398708e-06	-6.829187e-10	-9.767782e+00	-4.942864e+01
1.550000e-06	-1.353480e-06	-6.703371e-10	-9.451935e+00	-4.856768e+01
1.560000e-06	-1.308256e-06	-6.567900e-10	-9.136116e+00	-4.769165e+01
1.570000e-06	-1.262920e-06	-6.437514e-10	-8.819515e+00	-4.679987e+01
1.580000e-06	-1.217511e-06	-6.306645e-10	-8.502402e+00	-4.589166e+01
1.590000e-06	-1.171989e-06	-6.148942e-10	-8.184505e+00	-4.496632e+01
1.600000e-06	-1.126350e-06	-5.992198e-10	-7.865788e+00	-4.402321e+01
1.610000e-06	-1.080651e-06	-5.828418e-10	-7.546653e+00	-4.306165e+01
1.620000e-06	-1.034873e-06	-5.662998e-10	-7.226961e+00	-4.208101e+01
1.630000e-06	-9.889799e-07	-5.498872e-10	-6.906473e+00	-4.108067e+01
1.640000e-06	-9.430579e-07	-5.346922e-10	-6.585780e+00	-4.006005e+01
1.650000e-06	-8.970638e-07	-5.201844e-10	-6.264583e+00	-3.901858e+01
1.660000e-06	-8.509653e-07	-5.065312e-10	-5.942657e+00	-3.795576e+01
1.670000e-06	-8.048164e-07	-4.919292e-10	-5.620380e+00	-3.687109e+01
1.680000e-06	-7.585855e-07	-4.757427e-10	-5.297529e+00	-3.576414e+01
1.690000e-06	-7.122837e-07	-4.563899e-10	-4.974184e+00	-3.463452e+01
1.700000e-06	-6.660182e-07	-4.354654e-10	-4.651092e+00	-3.348190e+01
1.710000e-06	-6.197327e-07	-4.138234e-10	-4.327860e+00	-3.230600e+01
1.720000e-06	-5.733719e-07	-3.942075e-10	-4.004103e+00	-3.110661e+01
1.730000e-06	-5.270160e-07	-3.754334e-10	-3.680380e+00	-2.988356e+01
1.740000e-06	-4.805991e-07	-3.586615e-10	-3.356231e+00	-2.863677e+01
1.750000e-06	-4.340978e-07	-3.401332e-10	-3.031492e+00	-2.736622e+01
1.760000e-06	-3.875161e-07	-3.208540e-10	-2.706192e+00	-2.607196e+01
1.770000e-06	-3.409321e-07	-3.014931e-10	-2.380876e+00	-2.475411e+01
1.780000e-06	-2.943544e-07	-2.796582e-10	-2.055604e+00	-2.341287e+01
1.790000e-06	-2.477735e-07	-2.579804e-10	-1.730309e+00	-2.204852e+01
1.800000e-06	-2.011712e-07	-2.381647e-10	-1.404865e+00	-2.066139e+01
1.810000e-06	-1.545164e-07	-2.182074e-10	-1.079054e+00	-1.925192e+01
1.820000e-06	-1.078859e-07	-1.993466e-10	-7.534141e-01	-1.782060e+01
1.830000e-06	-6.127329e-08	-1.808786e-10	-4.278978e-01	-1.636802e+01
1.840000e-06	-1.461507e-08	-1.594149e-10	-1.020633e-01	-1.489482e+01
1.850000e-06	3.202401e-08	-1.372821e-10	2.236375e-01	-1.340174e+01
1.860000e-06	7.864193e-08	-1.167202e-10	5.491905e-01	-1.188957e+01
1.870000e-06	1.252184e-07	-9.420357e-11	8.744538e-01	-1.035917e+01
1.880000e-06	1.717768e-07	-6.996365e-11	1.199592e+00	-8.811478e+00
1.890000e-06	2.184049e-07	-4.947318e-11	1.525216e+00	-7.247495e+00
1.900000e-06	2.650216e-07	-3.103473e-11	1.850760e+00	-5.668279e+00
1.910000e-06	3.115607e-07	-1.129337e-11	2.175763e+00	-4.074944e+00
1.920000e-06	3.580263e-07	1.152851e-11	2.500252e+00	-2.468660e+00
1.930000e-06	4.044551e-07	3.606125e-11	2.824484e+00	-8.506452e-01
1.940000e-06	4.509034e-07	6.064035e-11	3.148853e+00	7.778376e-01
1.950000e-06	4.973291e-07	8.399380e-11	3.473064e+00	2.415486e+00
1.960000e-06	5.436418e-07	1.063295e-10	3.796485e+00	4.060963e+00
1.970000e-06	5.899667e-07	1.270240e-10	4.119992e+00	5.712901e+00
1.980000e-06	6.363833e-07	1.484568e-10	4.444139e+00	7.369909e+00
1.990000e-06	6.827553e-07	1.700759e-10	4.767974e+00	9.030576e+00
2.000000e-06	7.289473e-07	1.918299e-10	5.090553e+00	1.069348e+01
2.010000e-06	7.750365e-07	2.155849e-10	5.412414e+00	1.235719e+01
2.020000e-06	8.210880e-07	2.387168e-10	5.734011e+00	1.402026e+01
2.030000e-06	8.670451e-07	2.632926e-10	6.054950e+00	1.568127e+01
2.040000e-06	9.129493e-07	2.891429e-10	6.375518e+00	1.733880e+01
2.050000e-06	9.588536e-07	3.112738e-10	6.696088e+00	1.899144e+01
2.060000e-06	1.004772e-06	3.322619e-10	7.016753e+00	2.063779e+01
2.070000e-06	1.050600e-06	3.525092e-10	7.336793e+00	2.227650e+01
2.080000e-06	1.096190e-06	3.731891e-10	7.655164e+00	2.390623e+01
2.090000e-06	1.141711e-06	3.951997e-10	7.973061e+00	2.552568e+01
2.100000e-06	1.187314e-06	4.193943e-10	8.291525e+00	2.713358e+01
2.110000e-06	1.232851e-06	4.440029e-10	8.609531e+00	2.872872e+01
2.120000e-06	1.278257e-06	4.662109e-10	8.926620e+00	3.030993e+01
2.130000e-06	1.323543e-06	4.871717e-10	9.242868e+00	3.187609e+01
2.140000e-06	1.368684e-06	5.057246e-10	9.558107e+00	3.342613e+01
2.150000e-06	1.413755e-06	5.207194e-10	9.872862e+00	3.495905e+01
2.160000e-06	1.458749e-06	5.361693e-10	1.018707e+01	3.647390e+01
2.170000e-06	1.503633e-06	5.572684e-10	1.050052e+01	3.796980e+01
2.180000e-06	1.548335e-06	5.821059e-10	1.081269e+01	3.944593e+01
2.190000e-06	1.592921e-06	6.077183e-10	1.112406e+01	4.090153e+01
2.200000e-06	1.637446e-06	6.320086e-10	1.143499e+01	4.233593e+01
2.210000e-06	1.681823e-06	6.520386e-10	1.174489e+01	4.374850e+01
2.220000e-06	1.726163e-06	6.665427e-10	1.205454e+01	4.513872e+01
2.230000e-06	1.770325e-06	6.793474e-10	1.236294e+01	4.650609e+01
2.240000e-06	1.814255e-06	6.943741e-10	1.266972e+01	4.785022e+01
2.250000e-06	1.858140e-06	7.131725e-10	1.297619e+01	4.917078e+01
2.260000e-06	1.901977e-06	7.346743e-10	1.328233e+01	5.046749e+01
2.270000e-06	1.945734e-06	7.550119e-10	1.358790e+01	5.174016e+01
2.280000e-06	1.989424e-06	7.735710e-10	1.389301e+01	5.298865e+01
2.290000e-06	2.033059e-06	7.904414e-10	1.419773e+01	5.421290e+01
2.300000e-06	2.076631e-06	8.051166e-10	1.450201e+01	5.541291e+01
2.310000e-06	2.120152e-06	8.183983e-10	1.480593e+01	5.658872e+01
2.320000e-06	2.163561e-06	8.339730e-10	1.510908e+01	5.774044e+01
2.330000e-06	2.206768e-06	8.511946e-10	1.541081e+01	5.886825e+01
2.340000e-06	2.249860e-06	8.663746e-10	1.571174e+01	5.997236e+01
2.350000e-06	2.292883e-06	8.798895e-10	1.601219e+01	6.105304e+01
2.360000e-06	2.335661e-06	8.930119e-10	1.631092e+01	6.211060e+01
2.370000e-06	2.378178e-06	9.067055e-10	1.660784e+01	6.314538e+01
2.380000e-06	2.420421e-06	9.200800e-10	1.690284e+01	6.415779e+01
2.390000e-06	2.462278e-06	9.345553e-10	1.719515e+01	6.514825e+01
2.400000e-06	2.503628e-06	9.494549e-10	1.748391e+01	6.611721e+01
2.410000e-06	2.544618e-06	9.642400e-10	1.777017e+01	6.706515e+01
2.420000e-06	2.585421e-06	9.795116e-10	1.805511e+01	6.799259e+01
2.430000e-06	2.625937e-06	9.926567e-10	1.833805e+01	6.890005e+01
2.440000e-06	2.666316e-06	1.002615e-09	1.862003e+01	6.978808e+01
2.450000e-06	2.706530e-06	1.011142e-09	1.890087e+01	7.065721e+01
2.460000e-06	2.746511e-06	1.020928e-09	1.918007e+01	7.150803e+01
2.470000e-06	2.786294e-06	1.032433e-09	1.945789e+01	7.234109e+01
2.480000e-06	2.825882e-06	1.044745e-09	1.973435e+01	7.315697e+01
2.490000e-06	2.865442e-06	1.056162e-09	2.001061e+01	7.395623e+01
2.500000e-06	2.904959e-06	1.069174e-09	2.028658e+01	7.473944e+01
2.510000e-06	2.944352e-06	1.084347e-09	2.056168e+01	7.550716e+01
2.520000e-06	2.983595e-06	1.097546e-09	2.083573e+01	7.625993e+01
2.530000e-06	3.022629e-06	1.107412e-09	2.110832e+01	7.699829e+01
2.540000e-06	3.061390e-06	1.114759e-09	2.137901e+01	7.772275e+01
2.550000e-06	3.099857e-06	1.123026e-09	2.164764e+01	7.843382e+01
2.560000e-06	3.138129e-06	1.130462e-09	2.191490e+01	7.913198e+01
2.570000e-06	3.176165e-06	1.139493e-09	2.218053e+01	7.981770e+01
2.580000e-06	3.214002e-06	1.152008e-09	2.244476e+01	8.049141e+01
2.590000e-06	3.251675e-06	1.165825e-09	2.270784e+01	8.115353e+01
2.600000e-06	3.289125e-06	1.176783e-09	2.296938e+01	8.180445e+01
2.610000e-06	3.326427e-06	1.184664e-09	2.322987e+01	8.244455e+01
2.620000e-06	3.363547e-06	1.191463e-09	2.348910e+01	8.307416e+01
2.630000e-06	3.400304e-06	1.198580e-09	2.374579e+01	8.369361e+01
2.640000e-06	3.436655e-06	1.206551e-09	2.399964e+01	8.430317e+01
2.650000e-06	3.472737e-06	1.216650e-09	2.425162e+01	8.490312e+01
2.660000e-06	3.508672e-06	1.227938e-09	2.450257e+01	8.549369e+01
2.670000e-06	3.544505e-06	1.237028e-09	2.475281e+01	8.607510e+01
2.680000e-06	3.580199e-06	1.244718e-09	2.500207e+01	8.664753e+01
2.690000e-06	3.615748e-06	1.250507e-09	2.525033e+01	8.721115e+01
2.700000e-06	3.651193e-06	1.256167e-09	2.549785e+01	8.776610e+01
2.710000e-06	3.686464e-06	1.265109e-09	2.574417e+01	8.831249e+01
2.720000e-06	3.721530e-06	1.275732e-09	2.598905e+01	8.885043e+01
2.730000e-06	3.756319e-06	1.283140e-09	2.623200e+01	8.937999e+01
2.740000e-06	3.790551e-06	1.289014e-09	2.647105e+01	8.990124e+01
2.750000e-06	3.824158e-06	1.294293e-09	2.670574e+01	9.041422e+01
2.760000e-06	3.857254e-06	1.299499e-09	2.693686e+01	9.091895e+01
2.770000e-06	3.889918e-06	1.303460e-09	2.716498e+01	9.141547e+01
2.780000e-06	3.922228e-06	1.307046e-09	2.739061e+01	9.190376e+01
2.790000e-06	3.954282e-06	1.312472e-09	2.761446e+01	9.238384e+01
2.800000e-06	3.986199e-06	1.319265e-09	2.783734e+01	9.285567e+01
2.810000e-06	4.017960e-06	1.327576e-09	2.805915e+01	9.331926e+01
2.820000e-06	4.049512e-06	1.334904e-09	2.827948e+01	9.377456e+01
2.830000e-06	4.080845e-06	1.340790e-09	2.849830e+01	9.422157e+01
2.840000e-06	4.111950e-06	1.344847e-09	2.871552e+01	9.466024e+01
2.850000e-06	4.142765e-06	1.346372e-09	2.893071e+01	9.509055e+01
2.860000e-06	4.173193e-06	1.348971e-09	2.914320e+01	9.551248e+01
2.870000e-06	4.203269e-06	1.354103e-09	2.935324e+01	9.592601e+01
2.880000e-06	4.233107e-06	1.361175e-09	2.956161e+01	9.633111e+01
2.890000e-06	4.262702e-06	1.367062e-09	2.976829e+01	9.672778e+01
2.900000e-06	4.292029e-06	1.372732e-09	2.997308e+01	9.711601e+01
