# Temperatura_=_-1.65
# Concentracion g/m^3_=_1620.0
# C_Vs_to_Am_M_A/Vsm_=_65563218390.804596
# pendiente_HvsI_1/m_=_3716.3
# ordenada_HvsI_A/m_=_1297.0
# frecuencia_Hz_=_135100.07598660036

Tiempo_(s)	Campo_(V.s)	Magnetizacion_(V.s)	Campo_(kA/m)	Magnetizacion_(A/m)
0.000000e+00	-5.531452e-06	-1.068813e-09	-3.836273e+01	-7.202266e+01
1.000000e-08	-5.531635e-06	-1.063391e-09	-3.836400e+01	-7.198773e+01
2.000000e-08	-5.531510e-06	-1.062449e-09	-3.836313e+01	-7.195129e+01
3.000000e-08	-5.530819e-06	-1.065872e-09	-3.835834e+01	-7.191322e+01
4.000000e-08	-5.529537e-06	-1.069329e-09	-3.834944e+01	-7.187336e+01
5.000000e-08	-5.527663e-06	-1.069188e-09	-3.833645e+01	-7.183158e+01
6.000000e-08	-5.525164e-06	-1.058260e-09	-3.831911e+01	-7.178770e+01
7.000000e-08	-5.522231e-06	-1.055154e-09	-3.829878e+01	-7.174158e+01
8.000000e-08	-5.518907e-06	-1.088121e-09	-3.827572e+01	-7.169304e+01
9.000000e-08	-5.515087e-06	-1.138197e-09	-3.824923e+01	-7.164193e+01
1.000000e-07	-5.510825e-06	-1.104203e-09	-3.821967e+01	-7.158808e+01
1.100000e-07	-5.506366e-06	-1.018039e-09	-3.818874e+01	-7.153134e+01
1.200000e-07	-5.501827e-06	-1.011182e-09	-3.815726e+01	-7.147155e+01
1.300000e-07	-5.496925e-06	-1.087821e-09	-3.812327e+01	-7.140857e+01
1.400000e-07	-5.491505e-06	-1.102195e-09	-3.808568e+01	-7.134226e+01
1.500000e-07	-5.485780e-06	-1.041384e-09	-3.804597e+01	-7.127250e+01
1.600000e-07	-5.479805e-06	-1.021423e-09	-3.800453e+01	-7.119917e+01
1.700000e-07	-5.473337e-06	-1.099544e-09	-3.795967e+01	-7.112218e+01
1.800000e-07	-5.466309e-06	-1.104572e-09	-3.791093e+01	-7.104143e+01
1.900000e-07	-5.458990e-06	-1.044803e-09	-3.786017e+01	-7.095686e+01
2.000000e-07	-5.451469e-06	-1.012390e-09	-3.780801e+01	-7.086843e+01
2.100000e-07	-5.443638e-06	-1.087910e-09	-3.775370e+01	-7.077609e+01
2.200000e-07	-5.435531e-06	-1.124071e-09	-3.769748e+01	-7.067982e+01
2.300000e-07	-5.427118e-06	-1.088168e-09	-3.763913e+01	-7.057965e+01
2.400000e-07	-5.418171e-06	-1.053275e-09	-3.757708e+01	-7.047558e+01
2.500000e-07	-5.408383e-06	-1.078339e-09	-3.750920e+01	-7.036765e+01
2.600000e-07	-5.397845e-06	-1.093595e-09	-3.743611e+01	-7.025593e+01
2.700000e-07	-5.386847e-06	-1.058879e-09	-3.735984e+01	-7.014050e+01
2.800000e-07	-5.375465e-06	-1.045332e-09	-3.728090e+01	-7.002145e+01
2.900000e-07	-5.363741e-06	-1.062521e-09	-3.719958e+01	-6.989890e+01
3.000000e-07	-5.351688e-06	-1.065038e-09	-3.711599e+01	-6.977296e+01
3.100000e-07	-5.339194e-06	-1.016284e-09	-3.702934e+01	-6.964379e+01
3.200000e-07	-5.326190e-06	-1.018415e-09	-3.693915e+01	-6.951154e+01
3.300000e-07	-5.312796e-06	-1.048172e-09	-3.684626e+01	-6.937637e+01
3.400000e-07	-5.299094e-06	-1.052764e-09	-3.675123e+01	-6.923847e+01
3.500000e-07	-5.284934e-06	-1.007838e-09	-3.665303e+01	-6.909801e+01
3.600000e-07	-5.270200e-06	-1.031175e-09	-3.655085e+01	-6.895519e+01
3.700000e-07	-5.255068e-06	-1.050685e-09	-3.644590e+01	-6.881019e+01
3.800000e-07	-5.239431e-06	-1.017204e-09	-3.633745e+01	-6.866323e+01
3.900000e-07	-5.223152e-06	-9.863983e-10	-3.622455e+01	-6.851448e+01
4.000000e-07	-5.206595e-06	-1.037441e-09	-3.610972e+01	-6.836416e+01
4.100000e-07	-5.189842e-06	-1.033443e-09	-3.599353e+01	-6.821244e+01
4.200000e-07	-5.172611e-06	-9.800410e-10	-3.587403e+01	-6.805951e+01
4.300000e-07	-5.155038e-06	-9.970941e-10	-3.575215e+01	-6.790555e+01
4.400000e-07	-5.137264e-06	-1.046416e-09	-3.562888e+01	-6.775073e+01
4.500000e-07	-5.119096e-06	-9.965416e-10	-3.550288e+01	-6.759519e+01
4.600000e-07	-5.100379e-06	-9.653265e-10	-3.537307e+01	-6.743908e+01
4.700000e-07	-5.081220e-06	-1.014257e-09	-3.524020e+01	-6.728253e+01
4.800000e-07	-5.061804e-06	-1.018667e-09	-3.510554e+01	-6.712564e+01
4.900000e-07	-5.042219e-06	-9.725708e-10	-3.496971e+01	-6.696852e+01
5.000000e-07	-5.022518e-06	-9.924721e-10	-3.483307e+01	-6.681123e+01
5.100000e-07	-5.002596e-06	-1.004642e-09	-3.469491e+01	-6.665383e+01
5.200000e-07	-4.982297e-06	-9.610806e-10	-3.455413e+01	-6.649636e+01
5.300000e-07	-4.961601e-06	-9.691116e-10	-3.441059e+01	-6.633883e+01
5.400000e-07	-4.940546e-06	-1.009713e-09	-3.426456e+01	-6.618125e+01
5.500000e-07	-4.919060e-06	-9.816628e-10	-3.411556e+01	-6.602358e+01
5.600000e-07	-4.897215e-06	-9.545777e-10	-3.396405e+01	-6.586579e+01
5.700000e-07	-4.875150e-06	-9.866129e-10	-3.381102e+01	-6.570780e+01
5.800000e-07	-4.852617e-06	-9.809817e-10	-3.365475e+01	-6.554955e+01
5.900000e-07	-4.829716e-06	-9.556283e-10	-3.349592e+01	-6.539092e+01
6.000000e-07	-4.806626e-06	-9.722584e-10	-3.333578e+01	-6.523181e+01
6.100000e-07	-4.783230e-06	-9.833220e-10	-3.317352e+01	-6.507208e+01
6.200000e-07	-4.759613e-06	-9.587341e-10	-3.300973e+01	-6.491158e+01
6.300000e-07	-4.735843e-06	-9.655079e-10	-3.284487e+01	-6.475015e+01
6.400000e-07	-4.711751e-06	-9.725425e-10	-3.267779e+01	-6.458763e+01
6.500000e-07	-4.687168e-06	-9.568358e-10	-3.250729e+01	-6.442382e+01
6.600000e-07	-4.662097e-06	-9.544732e-10	-3.233342e+01	-6.425855e+01
6.700000e-07	-4.636447e-06	-9.671179e-10	-3.215553e+01	-6.409162e+01
6.800000e-07	-4.610213e-06	-9.530293e-10	-3.197358e+01	-6.392282e+01
6.900000e-07	-4.583466e-06	-9.503622e-10	-3.178809e+01	-6.375197e+01
7.000000e-07	-4.556293e-06	-9.543632e-10	-3.159962e+01	-6.357884e+01
7.100000e-07	-4.528864e-06	-9.427450e-10	-3.140940e+01	-6.340326e+01
7.200000e-07	-4.501289e-06	-9.330228e-10	-3.121815e+01	-6.322501e+01
7.300000e-07	-4.473568e-06	-9.466581e-10	-3.102589e+01	-6.304391e+01
7.400000e-07	-4.445657e-06	-9.418990e-10	-3.083232e+01	-6.285977e+01
7.500000e-07	-4.417431e-06	-9.339262e-10	-3.063657e+01	-6.267241e+01
7.600000e-07	-4.388828e-06	-9.414316e-10	-3.043819e+01	-6.248167e+01
7.700000e-07	-4.359850e-06	-9.378634e-10	-3.023722e+01	-6.228739e+01
7.800000e-07	-4.330611e-06	-9.211388e-10	-3.003444e+01	-6.208943e+01
7.900000e-07	-4.301154e-06	-9.249004e-10	-2.983014e+01	-6.188766e+01
8.000000e-07	-4.271426e-06	-9.248452e-10	-2.962397e+01	-6.168196e+01
8.100000e-07	-4.241438e-06	-9.054319e-10	-2.941599e+01	-6.147223e+01
8.200000e-07	-4.211168e-06	-9.001174e-10	-2.920606e+01	-6.125838e+01
8.300000e-07	-4.180581e-06	-9.084283e-10	-2.899392e+01	-6.104035e+01
8.400000e-07	-4.149660e-06	-9.001950e-10	-2.877947e+01	-6.081808e+01
8.500000e-07	-4.118483e-06	-8.936641e-10	-2.856325e+01	-6.059152e+01
8.600000e-07	-4.087086e-06	-9.050214e-10	-2.834549e+01	-6.036067e+01
8.700000e-07	-4.055514e-06	-9.020215e-10	-2.812654e+01	-6.012551e+01
8.800000e-07	-4.023785e-06	-8.941045e-10	-2.790648e+01	-5.988605e+01
8.900000e-07	-3.991823e-06	-8.945193e-10	-2.768481e+01	-5.964231e+01
9.000000e-07	-3.959560e-06	-8.889761e-10	-2.746105e+01	-5.939432e+01
9.100000e-07	-3.926941e-06	-8.704203e-10	-2.723483e+01	-5.914213e+01
9.200000e-07	-3.893872e-06	-8.663388e-10	-2.700548e+01	-5.888580e+01
9.300000e-07	-3.860376e-06	-8.720903e-10	-2.677318e+01	-5.862540e+01
9.400000e-07	-3.826499e-06	-8.710766e-10	-2.653822e+01	-5.836100e+01
9.500000e-07	-3.792123e-06	-8.691576e-10	-2.629982e+01	-5.809269e+01
9.600000e-07	-3.757296e-06	-8.704673e-10	-2.605828e+01	-5.782054e+01
9.700000e-07	-3.722199e-06	-8.593966e-10	-2.581487e+01	-5.754467e+01
9.800000e-07	-3.686867e-06	-8.464382e-10	-2.556982e+01	-5.726515e+01
9.900000e-07	-3.651313e-06	-8.393633e-10	-2.532324e+01	-5.698209e+01
1.000000e-06	-3.615650e-06	-8.358279e-10	-2.507591e+01	-5.669558e+01
1.010000e-06	-3.579908e-06	-8.312680e-10	-2.482803e+01	-5.640571e+01
1.020000e-06	-3.543981e-06	-8.348519e-10	-2.457886e+01	-5.611258e+01
1.030000e-06	-3.507800e-06	-8.365368e-10	-2.432793e+01	-5.581628e+01
1.040000e-06	-3.471379e-06	-8.310570e-10	-2.407533e+01	-5.551687e+01
1.050000e-06	-3.434674e-06	-8.238540e-10	-2.382077e+01	-5.521443e+01
1.060000e-06	-3.397714e-06	-8.175683e-10	-2.356444e+01	-5.490902e+01
1.070000e-06	-3.360570e-06	-8.052259e-10	-2.330683e+01	-5.460071e+01
1.080000e-06	-3.323243e-06	-7.959505e-10	-2.304795e+01	-5.428952e+01
1.090000e-06	-3.285619e-06	-7.943909e-10	-2.278702e+01	-5.397549e+01
1.100000e-06	-3.247693e-06	-7.912917e-10	-2.252399e+01	-5.365864e+01
1.110000e-06	-3.209581e-06	-7.840869e-10	-2.225967e+01	-5.333898e+01
1.120000e-06	-3.171272e-06	-7.798420e-10	-2.199398e+01	-5.301649e+01
1.130000e-06	-3.132711e-06	-7.759636e-10	-2.172654e+01	-5.269116e+01
1.140000e-06	-3.093933e-06	-7.674041e-10	-2.145760e+01	-5.236296e+01
1.150000e-06	-3.054994e-06	-7.597571e-10	-2.118755e+01	-5.203183e+01
1.160000e-06	-3.015869e-06	-7.524685e-10	-2.091620e+01	-5.169772e+01
1.170000e-06	-2.976522e-06	-7.462225e-10	-2.064331e+01	-5.136055e+01
1.180000e-06	-2.937045e-06	-7.432006e-10	-2.036952e+01	-5.102022e+01
1.190000e-06	-2.897500e-06	-7.425331e-10	-2.009527e+01	-5.067665e+01
1.200000e-06	-2.857766e-06	-7.369629e-10	-1.981970e+01	-5.032970e+01
1.210000e-06	-2.817806e-06	-7.308693e-10	-1.954256e+01	-4.997927e+01
1.220000e-06	-2.777652e-06	-7.264382e-10	-1.926408e+01	-4.962520e+01
1.230000e-06	-2.737344e-06	-7.181306e-10	-1.898452e+01	-4.926736e+01
1.240000e-06	-2.696888e-06	-7.076489e-10	-1.870395e+01	-4.890558e+01
1.250000e-06	-2.656162e-06	-7.023822e-10	-1.842149e+01	-4.853969e+01
1.260000e-06	-2.615148e-06	-6.960530e-10	-1.813705e+01	-4.816951e+01
1.270000e-06	-2.573842e-06	-6.924570e-10	-1.785057e+01	-4.779487e+01
1.280000e-06	-2.532168e-06	-6.911821e-10	-1.756155e+01	-4.741555e+01
1.290000e-06	-2.490216e-06	-6.914995e-10	-1.727059e+01	-4.703137e+01
1.300000e-06	-2.447985e-06	-6.852604e-10	-1.697770e+01	-4.664212e+01
1.310000e-06	-2.405454e-06	-6.731400e-10	-1.668274e+01	-4.624757e+01
1.320000e-06	-2.362721e-06	-6.611178e-10	-1.638637e+01	-4.584752e+01
1.330000e-06	-2.319813e-06	-6.499085e-10	-1.608879e+01	-4.544173e+01
1.340000e-06	-2.276675e-06	-6.418142e-10	-1.578961e+01	-4.502998e+01
1.350000e-06	-2.233313e-06	-6.378072e-10	-1.548887e+01	-4.461204e+01
1.360000e-06	-2.189853e-06	-6.367437e-10	-1.518747e+01	-4.418766e+01
1.370000e-06	-2.146288e-06	-6.349981e-10	-1.488533e+01	-4.375661e+01
1.380000e-06	-2.102580e-06	-6.296142e-10	-1.458219e+01	-4.331864e+01
1.390000e-06	-2.058835e-06	-6.189935e-10	-1.427880e+01	-4.287350e+01
1.400000e-06	-2.015034e-06	-6.054615e-10	-1.397503e+01	-4.242094e+01
1.410000e-06	-1.971176e-06	-5.929138e-10	-1.367085e+01	-4.196069e+01
1.420000e-06	-1.927245e-06	-5.835253e-10	-1.336618e+01	-4.149251e+01
1.430000e-06	-1.883237e-06	-5.776551e-10	-1.306096e+01	-4.101613e+01
1.440000e-06	-1.839098e-06	-5.739099e-10	-1.275484e+01	-4.053127e+01
1.450000e-06	-1.794732e-06	-5.704290e-10	-1.244715e+01	-4.003766e+01
1.460000e-06	-1.750242e-06	-5.650862e-10	-1.213860e+01	-3.953504e+01
1.470000e-06	-1.705699e-06	-5.553417e-10	-1.182967e+01	-3.902310e+01
1.480000e-06	-1.661028e-06	-5.443667e-10	-1.151986e+01	-3.850158e+01
1.490000e-06	-1.616143e-06	-5.340066e-10	-1.120857e+01	-3.797018e+01
1.500000e-06	-1.571136e-06	-5.280296e-10	-1.089643e+01	-3.742860e+01
1.510000e-06	-1.526043e-06	-5.216674e-10	-1.058369e+01	-3.687654e+01
1.520000e-06	-1.480737e-06	-5.142669e-10	-1.026947e+01	-3.631370e+01
1.530000e-06	-1.435263e-06	-5.033140e-10	-9.954094e+00	-3.573977e+01
1.540000e-06	-1.389778e-06	-4.912857e-10	-9.638640e+00	-3.515444e+01
1.550000e-06	-1.344221e-06	-4.796715e-10	-9.322687e+00	-3.455740e+01
1.560000e-06	-1.298534e-06	-4.695712e-10	-9.005826e+00	-3.394832e+01
1.570000e-06	-1.252826e-06	-4.627438e-10	-8.688827e+00	-3.332689e+01
1.580000e-06	-1.207068e-06	-4.558064e-10	-8.371477e+00	-3.269278e+01
1.590000e-06	-1.161203e-06	-4.458414e-10	-8.053385e+00	-3.204568e+01
1.600000e-06	-1.115285e-06	-4.348900e-10	-7.734924e+00	-3.138527e+01
1.610000e-06	-1.069260e-06	-4.249677e-10	-7.415723e+00	-3.071124e+01
1.620000e-06	-1.023106e-06	-4.153442e-10	-7.095631e+00	-3.002327e+01
1.630000e-06	-9.768596e-07	-4.052967e-10	-6.774893e+00	-2.932106e+01
1.640000e-06	-9.305957e-07	-3.944577e-10	-6.454036e+00	-2.860431e+01
1.650000e-06	-8.841826e-07	-3.842067e-10	-6.132143e+00	-2.787274e+01
1.660000e-06	-8.376290e-07	-3.714922e-10	-5.809276e+00	-2.712607e+01
1.670000e-06	-7.911625e-07	-3.571752e-10	-5.487013e+00	-2.636405e+01
1.680000e-06	-7.447108e-07	-3.439518e-10	-5.164853e+00	-2.558642e+01
1.690000e-06	-6.982579e-07	-3.327953e-10	-4.842684e+00	-2.479297e+01
1.700000e-06	-6.517212e-07	-3.210918e-10	-4.519935e+00	-2.398350e+01
1.710000e-06	-6.050923e-07	-3.091065e-10	-4.196545e+00	-2.315782e+01
1.720000e-06	-5.584177e-07	-2.961031e-10	-3.872839e+00	-2.231579e+01
1.730000e-06	-5.116050e-07	-2.811267e-10	-3.548176e+00	-2.145729e+01
1.740000e-06	-4.646534e-07	-2.651270e-10	-3.222548e+00	-2.058221e+01
1.750000e-06	-4.176895e-07	-2.509803e-10	-2.896835e+00	-1.969052e+01
1.760000e-06	-3.708423e-07	-2.391834e-10	-2.571933e+00	-1.878219e+01
1.770000e-06	-3.240204e-07	-2.279712e-10	-2.247205e+00	-1.785724e+01
1.780000e-06	-2.771646e-07	-2.156550e-10	-1.922242e+00	-1.691573e+01
1.790000e-06	-2.302391e-07	-2.036895e-10	-1.596796e+00	-1.595778e+01
1.800000e-06	-1.832866e-07	-1.897667e-10	-1.271163e+00	-1.498352e+01
1.810000e-06	-1.363276e-07	-1.734728e-10	-9.454839e-01	-1.399317e+01
1.820000e-06	-8.938205e-08	-1.558146e-10	-6.198986e-01	-1.298696e+01
1.830000e-06	-4.247657e-08	-1.384070e-10	-2.945912e-01	-1.196519e+01
1.840000e-06	4.431161e-09	-1.216337e-10	3.073179e-02	-1.092822e+01
1.850000e-06	5.135837e-08	-1.080604e-10	3.561898e-01	-9.876429e+00
1.860000e-06	9.831305e-08	-9.550459e-11	6.818384e-01	-8.810279e+00
1.870000e-06	1.452290e-07	-8.046563e-11	1.007219e+00	-7.730271e+00
1.880000e-06	1.921357e-07	-6.582894e-11	1.332534e+00	-6.636958e+00
1.890000e-06	2.390516e-07	-5.107797e-11	1.657914e+00	-5.530945e+00
1.900000e-06	2.859834e-07	-3.447647e-11	1.983404e+00	-4.412887e+00
1.910000e-06	3.328675e-07	-1.660463e-11	2.308563e+00	-3.283487e+00
1.920000e-06	3.796906e-07	2.522280e-12	2.633299e+00	-2.143496e+00
1.930000e-06	4.265769e-07	2.141237e-11	2.958473e+00	-9.937107e-01
1.940000e-06	4.734208e-07	3.757053e-11	3.283353e+00	1.650311e-01
1.950000e-06	5.201508e-07	5.239994e-11	3.607444e+00	1.331850e+00
1.960000e-06	5.668315e-07	6.696656e-11	3.931192e+00	2.505830e+00
1.970000e-06	6.134679e-07	8.203543e-11	4.254634e+00	3.686021e+00
1.980000e-06	6.600679e-07	9.669537e-11	4.577822e+00	4.871442e+00
1.990000e-06	7.066324e-07	1.122571e-10	4.900765e+00	6.061086e+00
2.000000e-06	7.532345e-07	1.312560e-10	5.223968e+00	7.253921e+00
2.010000e-06	7.997482e-07	1.501899e-10	5.546558e+00	8.448900e+00
2.020000e-06	8.460672e-07	1.681795e-10	5.867798e+00	9.644959e+00
2.030000e-06	8.922545e-07	1.865844e-10	6.188125e+00	1.084102e+01
2.040000e-06	9.384559e-07	2.012713e-10	6.508549e+00	1.203602e+01
2.050000e-06	9.846942e-07	2.131605e-10	6.829229e+00	1.322886e+01
2.060000e-06	1.030861e-06	2.250137e-10	7.149414e+00	1.441849e+01
2.070000e-06	1.076936e-06	2.386697e-10	7.468959e+00	1.560382e+01
2.080000e-06	1.122827e-06	2.549044e-10	7.787232e+00	1.678381e+01
2.090000e-06	1.168586e-06	2.747768e-10	8.104591e+00	1.795743e+01
2.100000e-06	1.214358e-06	2.941291e-10	8.422032e+00	1.912366e+01
2.110000e-06	1.260081e-06	3.113272e-10	8.739142e+00	2.028152e+01
2.120000e-06	1.305703e-06	3.263755e-10	9.055544e+00	2.143007e+01
2.130000e-06	1.351216e-06	3.397264e-10	9.371196e+00	2.256838e+01
2.140000e-06	1.396608e-06	3.522922e-10	9.686006e+00	2.369557e+01
2.150000e-06	1.441911e-06	3.646517e-10	1.000020e+01	2.481081e+01
2.160000e-06	1.487088e-06	3.792337e-10	1.031352e+01	2.591332e+01
2.170000e-06	1.532208e-06	3.966203e-10	1.062644e+01	2.700235e+01
2.180000e-06	1.577211e-06	4.143473e-10	1.093856e+01	2.807720e+01
2.190000e-06	1.622038e-06	4.317505e-10	1.124945e+01	2.913726e+01
2.200000e-06	1.666785e-06	4.478264e-10	1.155979e+01	3.018193e+01
2.210000e-06	1.711449e-06	4.604243e-10	1.186955e+01	3.121068e+01
2.220000e-06	1.756008e-06	4.698069e-10	1.217858e+01	3.222306e+01
2.230000e-06	1.800386e-06	4.809929e-10	1.248636e+01	3.321866e+01
2.240000e-06	1.844588e-06	4.952276e-10	1.279292e+01	3.419711e+01
2.250000e-06	1.888676e-06	5.103389e-10	1.309869e+01	3.515814e+01
2.260000e-06	1.932644e-06	5.265027e-10	1.340362e+01	3.610151e+01
2.270000e-06	1.976491e-06	5.410945e-10	1.370772e+01	3.702703e+01
2.280000e-06	2.020216e-06	5.534688e-10	1.401097e+01	3.793458e+01
2.290000e-06	2.063924e-06	5.641432e-10	1.431410e+01	3.882410e+01
2.300000e-06	2.107610e-06	5.736477e-10	1.461708e+01	3.969557e+01
2.310000e-06	2.151218e-06	5.837046e-10	1.491952e+01	4.054902e+01
2.320000e-06	2.194745e-06	5.981805e-10	1.522139e+01	4.138453e+01
2.330000e-06	2.238126e-06	6.142672e-10	1.552225e+01	4.220221e+01
2.340000e-06	2.281372e-06	6.276778e-10	1.582219e+01	4.300224e+01
2.350000e-06	2.324556e-06	6.380622e-10	1.612168e+01	4.378482e+01
2.360000e-06	2.367628e-06	6.458862e-10	1.642040e+01	4.455018e+01
2.370000e-06	2.410452e-06	6.513957e-10	1.671740e+01	4.529858e+01
2.380000e-06	2.452991e-06	6.592926e-10	1.701242e+01	4.603032e+01
2.390000e-06	2.495226e-06	6.715576e-10	1.730534e+01	4.674572e+01
2.400000e-06	2.537068e-06	6.860342e-10	1.759553e+01	4.744510e+01
2.410000e-06	2.578506e-06	7.006620e-10	1.788292e+01	4.812883e+01
2.420000e-06	2.619603e-06	7.130725e-10	1.816794e+01	4.879726e+01
2.430000e-06	2.660389e-06	7.222594e-10	1.845081e+01	4.945078e+01
2.440000e-06	2.700902e-06	7.295191e-10	1.873179e+01	5.008974e+01
2.450000e-06	2.741137e-06	7.365437e-10	1.901083e+01	5.071455e+01
2.460000e-06	2.781215e-06	7.440023e-10	1.928879e+01	5.132556e+01
2.470000e-06	2.821189e-06	7.519792e-10	1.956602e+01	5.192317e+01
2.480000e-06	2.861022e-06	7.597512e-10	1.984228e+01	5.250772e+01
2.490000e-06	2.900718e-06	7.689374e-10	2.011759e+01	5.307959e+01
2.500000e-06	2.940307e-06	7.804065e-10	2.039215e+01	5.363911e+01
2.510000e-06	2.979811e-06	7.910956e-10	2.066612e+01	5.418661e+01
2.520000e-06	3.019091e-06	7.989474e-10	2.093855e+01	5.472242e+01
2.530000e-06	3.058154e-06	8.050446e-10	2.120946e+01	5.524682e+01
2.540000e-06	3.097109e-06	8.116674e-10	2.147963e+01	5.576011e+01
2.550000e-06	3.135836e-06	8.175290e-10	2.174822e+01	5.626253e+01
2.560000e-06	3.174278e-06	8.222015e-10	2.201483e+01	5.675434e+01
2.570000e-06	3.212528e-06	8.294545e-10	2.228010e+01	5.723575e+01
2.580000e-06	3.250530e-06	8.381502e-10	2.254366e+01	5.770696e+01
2.590000e-06	3.288256e-06	8.447831e-10	2.280531e+01	5.816817e+01
2.600000e-06	3.325790e-06	8.499281e-10	2.306562e+01	5.861952e+01
2.610000e-06	3.363167e-06	8.557572e-10	2.332484e+01	5.906117e+01
2.620000e-06	3.400273e-06	8.628926e-10	2.358219e+01	5.949324e+01
2.630000e-06	3.437164e-06	8.700444e-10	2.383804e+01	5.991585e+01
2.640000e-06	3.473809e-06	8.757103e-10	2.409219e+01	6.032909e+01
2.650000e-06	3.510103e-06	8.821192e-10	2.434390e+01	6.073305e+01
2.660000e-06	3.546185e-06	8.896081e-10	2.459415e+01	6.112780e+01
2.670000e-06	3.582080e-06	8.956937e-10	2.484309e+01	6.151340e+01
2.680000e-06	3.617808e-06	8.983699e-10	2.509088e+01	6.188991e+01
2.690000e-06	3.653442e-06	8.986707e-10	2.533801e+01	6.225737e+01
2.700000e-06	3.688951e-06	9.007062e-10	2.558428e+01	6.261584e+01
2.710000e-06	3.724326e-06	9.058476e-10	2.582962e+01	6.296535e+01
2.720000e-06	3.759483e-06	9.119947e-10	2.607345e+01	6.330596e+01
2.730000e-06	3.794269e-06	9.187069e-10	2.631470e+01	6.363769e+01
2.740000e-06	3.828642e-06	9.242063e-10	2.655309e+01	6.396061e+01
2.750000e-06	3.862497e-06	9.266863e-10	2.678789e+01	6.427477e+01
2.760000e-06	3.895874e-06	9.266753e-10	2.701937e+01	6.458022e+01
2.770000e-06	3.928866e-06	9.260014e-10	2.724818e+01	6.487703e+01
2.780000e-06	3.961439e-06	9.277407e-10	2.747408e+01	6.516529e+01
2.790000e-06	3.993600e-06	9.314115e-10	2.769714e+01	6.544506e+01
2.800000e-06	4.025454e-06	9.361558e-10	2.791806e+01	6.571647e+01
2.810000e-06	4.057156e-06	9.417298e-10	2.813792e+01	6.597961e+01
2.820000e-06	4.088769e-06	9.466694e-10	2.835717e+01	6.623460e+01
2.830000e-06	4.120294e-06	9.501611e-10	2.857581e+01	6.648159e+01
2.840000e-06	4.151584e-06	9.526256e-10	2.879282e+01	6.672071e+01
2.850000e-06	4.182574e-06	9.534321e-10	2.900774e+01	6.695213e+01
2.860000e-06	4.213276e-06	9.523629e-10	2.922067e+01	6.717601e+01
2.870000e-06	4.243576e-06	9.525527e-10	2.943082e+01	6.739255e+01
2.880000e-06	4.273535e-06	9.555976e-10	2.963860e+01	6.760192e+01
2.890000e-06	4.303239e-06	9.585454e-10	2.984460e+01	6.780434e+01
2.900000e-06	4.332700e-06	9.612449e-10	3.004892e+01	6.800002e+01
