# Temperatura_=_14.06
# Concentracion g/m^3_=_1620.0
# C_Vs_to_Am_M_A/Vsm_=_65563218390.804596
# pendiente_HvsI_1/m_=_3716.3
# ordenada_HvsI_A/m_=_1297.0
# frecuencia_Hz_=_135107.15015898464

Tiempo_(s)	Campo_(V.s)	Magnetizacion_(V.s)	Campo_(kA/m)	Magnetizacion_(A/m)
0.000000e+00	-5.525164e-06	-1.139661e-09	-3.836252e+01	-7.405546e+01
1.000000e-08	-5.525429e-06	-1.138326e-09	-3.836436e+01	-7.403286e+01
2.000000e-08	-5.525384e-06	-1.137706e-09	-3.836405e+01	-7.400601e+01
3.000000e-08	-5.524942e-06	-1.139366e-09	-3.836098e+01	-7.397482e+01
4.000000e-08	-5.524038e-06	-1.141664e-09	-3.835471e+01	-7.393923e+01
5.000000e-08	-5.522418e-06	-1.143208e-09	-3.834346e+01	-7.389922e+01
6.000000e-08	-5.520098e-06	-1.136656e-09	-3.832735e+01	-7.385477e+01
7.000000e-08	-5.517340e-06	-1.137466e-09	-3.830820e+01	-7.380587e+01
8.000000e-08	-5.514192e-06	-1.163208e-09	-3.828634e+01	-7.375256e+01
9.000000e-08	-5.510608e-06	-1.146078e-09	-3.826146e+01	-7.369487e+01
1.000000e-07	-5.506515e-06	-1.075343e-09	-3.823304e+01	-7.363287e+01
1.100000e-07	-5.502099e-06	-1.110497e-09	-3.820238e+01	-7.356664e+01
1.200000e-07	-5.497534e-06	-1.171877e-09	-3.817068e+01	-7.349627e+01
1.300000e-07	-5.492582e-06	-1.158076e-09	-3.813630e+01	-7.342189e+01
1.400000e-07	-5.487246e-06	-1.081185e-09	-3.809925e+01	-7.334363e+01
1.500000e-07	-5.481637e-06	-1.080292e-09	-3.806031e+01	-7.326164e+01
1.600000e-07	-5.475686e-06	-1.188641e-09	-3.801899e+01	-7.317608e+01
1.700000e-07	-5.469326e-06	-1.154600e-09	-3.797483e+01	-7.308713e+01
1.800000e-07	-5.462502e-06	-1.087277e-09	-3.792744e+01	-7.299496e+01
1.900000e-07	-5.455303e-06	-1.052174e-09	-3.787746e+01	-7.289979e+01
2.000000e-07	-5.447843e-06	-1.123762e-09	-3.782567e+01	-7.280180e+01
2.100000e-07	-5.440120e-06	-1.113571e-09	-3.777204e+01	-7.270120e+01
2.200000e-07	-5.432189e-06	-1.085136e-09	-3.771698e+01	-7.259820e+01
2.300000e-07	-5.424008e-06	-1.067743e-09	-3.766017e+01	-7.249301e+01
2.400000e-07	-5.415276e-06	-1.098576e-09	-3.759954e+01	-7.238583e+01
2.500000e-07	-5.405767e-06	-1.092698e-09	-3.753352e+01	-7.227688e+01
2.600000e-07	-5.395506e-06	-1.067920e-09	-3.746227e+01	-7.216633e+01
2.700000e-07	-5.384650e-06	-1.064823e-09	-3.738690e+01	-7.205439e+01
2.800000e-07	-5.373321e-06	-1.082133e-09	-3.730824e+01	-7.194124e+01
2.900000e-07	-5.361577e-06	-1.095854e-09	-3.722670e+01	-7.182704e+01
3.000000e-07	-5.349438e-06	-1.072674e-09	-3.714241e+01	-7.171195e+01
3.100000e-07	-5.336928e-06	-1.067232e-09	-3.705556e+01	-7.159612e+01
3.200000e-07	-5.324075e-06	-1.071205e-09	-3.696631e+01	-7.147966e+01
3.300000e-07	-5.310894e-06	-1.104806e-09	-3.687479e+01	-7.136269e+01
3.400000e-07	-5.297303e-06	-1.065524e-09	-3.678043e+01	-7.124529e+01
3.500000e-07	-5.283250e-06	-1.057634e-09	-3.668285e+01	-7.112754e+01
3.600000e-07	-5.268747e-06	-1.081791e-09	-3.658216e+01	-7.100949e+01
3.700000e-07	-5.253722e-06	-1.090681e-09	-3.647784e+01	-7.089117e+01
3.800000e-07	-5.237993e-06	-1.038808e-09	-3.636863e+01	-7.077259e+01
3.900000e-07	-5.221830e-06	-1.074939e-09	-3.625641e+01	-7.065374e+01
4.000000e-07	-5.205444e-06	-1.096196e-09	-3.614263e+01	-7.053459e+01
4.100000e-07	-5.188656e-06	-1.042509e-09	-3.602607e+01	-7.041509e+01
4.200000e-07	-5.171543e-06	-1.030955e-09	-3.590725e+01	-7.029517e+01
4.300000e-07	-5.154242e-06	-1.112313e-09	-3.578713e+01	-7.017474e+01
4.400000e-07	-5.136587e-06	-1.067126e-09	-3.566454e+01	-7.005369e+01
4.500000e-07	-5.118422e-06	-1.002268e-09	-3.553842e+01	-6.993191e+01
4.600000e-07	-5.099870e-06	-1.070797e-09	-3.540961e+01	-6.980926e+01
4.700000e-07	-5.080987e-06	-1.100671e-09	-3.527850e+01	-6.968558e+01
4.800000e-07	-5.061751e-06	-1.005284e-09	-3.514493e+01	-6.956071e+01
4.900000e-07	-5.042231e-06	-1.037010e-09	-3.500941e+01	-6.943447e+01
5.000000e-07	-5.022536e-06	-1.105325e-09	-3.487266e+01	-6.930669e+01
5.100000e-07	-5.002677e-06	-1.026338e-09	-3.473478e+01	-6.917716e+01
5.200000e-07	-4.982518e-06	-1.000715e-09	-3.459481e+01	-6.904570e+01
5.300000e-07	-4.961937e-06	-1.093603e-09	-3.445190e+01	-6.891209e+01
5.400000e-07	-4.940929e-06	-1.053772e-09	-3.430604e+01	-6.877614e+01
5.500000e-07	-4.919591e-06	-9.792618e-10	-3.415789e+01	-6.863765e+01
5.600000e-07	-4.897983e-06	-1.053581e-09	-3.400786e+01	-6.849641e+01
5.700000e-07	-4.876012e-06	-1.067970e-09	-3.385531e+01	-6.835222e+01
5.800000e-07	-4.853616e-06	-9.861241e-10	-3.369981e+01	-6.820490e+01
5.900000e-07	-4.830878e-06	-1.018446e-09	-3.354193e+01	-6.805425e+01
6.000000e-07	-4.807885e-06	-1.072167e-09	-3.338229e+01	-6.790009e+01
6.100000e-07	-4.784629e-06	-1.008002e-09	-3.322081e+01	-6.774226e+01
6.200000e-07	-4.761089e-06	-1.004137e-09	-3.305737e+01	-6.758059e+01
6.300000e-07	-4.737286e-06	-1.052159e-09	-3.289210e+01	-6.741494e+01
6.400000e-07	-4.713218e-06	-1.018018e-09	-3.272499e+01	-6.724517e+01
6.500000e-07	-4.688729e-06	-9.863276e-10	-3.255496e+01	-6.707116e+01
6.600000e-07	-4.663785e-06	-1.028891e-09	-3.238176e+01	-6.689279e+01
6.700000e-07	-4.638370e-06	-1.013185e-09	-3.220530e+01	-6.670998e+01
6.800000e-07	-4.612363e-06	-9.860488e-10	-3.202473e+01	-6.652263e+01
6.900000e-07	-4.585742e-06	-1.010776e-09	-3.183989e+01	-6.633068e+01
7.000000e-07	-4.558648e-06	-1.018106e-09	-3.165178e+01	-6.613406e+01
7.100000e-07	-4.531349e-06	-9.828165e-10	-3.146223e+01	-6.593275e+01
7.200000e-07	-4.503932e-06	-9.911234e-10	-3.127187e+01	-6.572671e+01
7.300000e-07	-4.476340e-06	-9.950567e-10	-3.108029e+01	-6.551592e+01
7.400000e-07	-4.448516e-06	-9.717791e-10	-3.088710e+01	-6.530037e+01
7.500000e-07	-4.420485e-06	-9.671701e-10	-3.069247e+01	-6.508007e+01
7.600000e-07	-4.392224e-06	-9.803697e-10	-3.049626e+01	-6.485503e+01
7.700000e-07	-4.363550e-06	-9.659243e-10	-3.029716e+01	-6.462528e+01
7.800000e-07	-4.334422e-06	-9.611922e-10	-3.009492e+01	-6.439084e+01
7.900000e-07	-4.305040e-06	-9.675696e-10	-2.989091e+01	-6.415175e+01
8.000000e-07	-4.275399e-06	-9.545737e-10	-2.968511e+01	-6.390804e+01
8.100000e-07	-4.245456e-06	-9.374297e-10	-2.947721e+01	-6.365978e+01
8.200000e-07	-4.215315e-06	-9.426098e-10	-2.926793e+01	-6.340699e+01
8.300000e-07	-4.184857e-06	-9.385453e-10	-2.905646e+01	-6.314973e+01
8.400000e-07	-4.154013e-06	-9.214114e-10	-2.884230e+01	-6.288805e+01
8.500000e-07	-4.122873e-06	-9.227588e-10	-2.862608e+01	-6.262199e+01
8.600000e-07	-4.091551e-06	-9.279410e-10	-2.840861e+01	-6.235160e+01
8.700000e-07	-4.060075e-06	-9.178293e-10	-2.819007e+01	-6.207693e+01
8.800000e-07	-4.028384e-06	-9.122561e-10	-2.797003e+01	-6.179801e+01
8.900000e-07	-3.996558e-06	-9.170566e-10	-2.774905e+01	-6.151488e+01
9.000000e-07	-3.964545e-06	-9.030554e-10	-2.752678e+01	-6.122757e+01
9.100000e-07	-3.932189e-06	-8.912861e-10	-2.730212e+01	-6.093611e+01
9.200000e-07	-3.899473e-06	-8.941520e-10	-2.707497e+01	-6.064051e+01
9.300000e-07	-3.866252e-06	-8.920057e-10	-2.684431e+01	-6.034079e+01
9.400000e-07	-3.832491e-06	-8.783490e-10	-2.660989e+01	-6.003695e+01
9.500000e-07	-3.798286e-06	-8.820514e-10	-2.637240e+01	-5.972901e+01
9.600000e-07	-3.763650e-06	-8.826549e-10	-2.613192e+01	-5.941695e+01
9.700000e-07	-3.728672e-06	-8.696835e-10	-2.588906e+01	-5.910077e+01
9.800000e-07	-3.693434e-06	-8.619659e-10	-2.564439e+01	-5.878045e+01
9.900000e-07	-3.657974e-06	-8.664511e-10	-2.539818e+01	-5.845598e+01
1.000000e-06	-3.622379e-06	-8.579612e-10	-2.515104e+01	-5.812734e+01
1.010000e-06	-3.586675e-06	-8.502815e-10	-2.490314e+01	-5.779450e+01
1.020000e-06	-3.550819e-06	-8.505929e-10	-2.465418e+01	-5.745744e+01
1.030000e-06	-3.514790e-06	-8.469597e-10	-2.440402e+01	-5.711614e+01
1.040000e-06	-3.478536e-06	-8.344402e-10	-2.415230e+01	-5.677056e+01
1.050000e-06	-3.442007e-06	-8.308551e-10	-2.389867e+01	-5.642068e+01
1.060000e-06	-3.405160e-06	-8.277528e-10	-2.364284e+01	-5.606648e+01
1.070000e-06	-3.368035e-06	-8.194331e-10	-2.338506e+01	-5.570794e+01
1.080000e-06	-3.330673e-06	-8.153400e-10	-2.312565e+01	-5.534504e+01
1.090000e-06	-3.293098e-06	-8.167114e-10	-2.286476e+01	-5.497777e+01
1.100000e-06	-3.255321e-06	-8.082829e-10	-2.260247e+01	-5.460611e+01
1.110000e-06	-3.217275e-06	-7.955957e-10	-2.233830e+01	-5.423007e+01
1.120000e-06	-3.178900e-06	-7.887398e-10	-2.207186e+01	-5.384966e+01
1.130000e-06	-3.140274e-06	-7.798564e-10	-2.180367e+01	-5.346487e+01
1.140000e-06	-3.101479e-06	-7.700445e-10	-2.153430e+01	-5.307574e+01
1.150000e-06	-3.062525e-06	-7.678505e-10	-2.126384e+01	-5.268228e+01
1.160000e-06	-3.023410e-06	-7.673151e-10	-2.099225e+01	-5.228453e+01
1.170000e-06	-2.984174e-06	-7.607549e-10	-2.071983e+01	-5.188252e+01
1.180000e-06	-2.944841e-06	-7.555233e-10	-2.044673e+01	-5.147630e+01
1.190000e-06	-2.905357e-06	-7.505574e-10	-2.017258e+01	-5.106592e+01
1.200000e-06	-2.865729e-06	-7.413490e-10	-1.989744e+01	-5.065143e+01
1.210000e-06	-2.825994e-06	-7.301884e-10	-1.962155e+01	-5.023289e+01
1.220000e-06	-2.786114e-06	-7.239046e-10	-1.934465e+01	-4.981036e+01
1.230000e-06	-2.746008e-06	-7.170784e-10	-1.906618e+01	-4.938390e+01
1.240000e-06	-2.705578e-06	-7.106628e-10	-1.878547e+01	-4.895357e+01
1.250000e-06	-2.664968e-06	-7.055421e-10	-1.850350e+01	-4.851943e+01
1.260000e-06	-2.624228e-06	-7.012237e-10	-1.822063e+01	-4.808154e+01
1.270000e-06	-2.583165e-06	-6.912410e-10	-1.793553e+01	-4.763993e+01
1.280000e-06	-2.541781e-06	-6.814846e-10	-1.764819e+01	-4.719465e+01
1.290000e-06	-2.500099e-06	-6.733299e-10	-1.735878e+01	-4.674574e+01
1.300000e-06	-2.458118e-06	-6.642886e-10	-1.706730e+01	-4.629319e+01
1.310000e-06	-2.415814e-06	-6.527006e-10	-1.677357e+01	-4.583703e+01
1.320000e-06	-2.373219e-06	-6.454700e-10	-1.647782e+01	-4.537722e+01
1.330000e-06	-2.330367e-06	-6.377502e-10	-1.618029e+01	-4.491374e+01
1.340000e-06	-2.287258e-06	-6.288331e-10	-1.588097e+01	-4.444652e+01
1.350000e-06	-2.243959e-06	-6.208795e-10	-1.558034e+01	-4.397550e+01
1.360000e-06	-2.200559e-06	-6.130089e-10	-1.527900e+01	-4.350055e+01
1.370000e-06	-2.157086e-06	-6.031910e-10	-1.497716e+01	-4.302155e+01
1.380000e-06	-2.113507e-06	-5.934131e-10	-1.467458e+01	-4.253832e+01
1.390000e-06	-2.069798e-06	-5.837367e-10	-1.437110e+01	-4.205069e+01
1.400000e-06	-2.025979e-06	-5.738459e-10	-1.406686e+01	-4.155841e+01
1.410000e-06	-1.982128e-06	-5.658333e-10	-1.376239e+01	-4.106124e+01
1.420000e-06	-1.938185e-06	-5.596370e-10	-1.345728e+01	-4.055887e+01
1.430000e-06	-1.894065e-06	-5.511713e-10	-1.315094e+01	-4.005098e+01
1.440000e-06	-1.849864e-06	-5.394839e-10	-1.284405e+01	-3.953720e+01
1.450000e-06	-1.805615e-06	-5.297856e-10	-1.253681e+01	-3.901715e+01
1.460000e-06	-1.761269e-06	-5.217225e-10	-1.222891e+01	-3.849038e+01
1.470000e-06	-1.716796e-06	-5.136445e-10	-1.192012e+01	-3.795643e+01
1.480000e-06	-1.672114e-06	-5.052009e-10	-1.160988e+01	-3.741482e+01
1.490000e-06	-1.627226e-06	-4.974468e-10	-1.129822e+01	-3.686500e+01
1.500000e-06	-1.582206e-06	-4.890900e-10	-1.098563e+01	-3.630645e+01
1.510000e-06	-1.537113e-06	-4.810648e-10	-1.067254e+01	-3.573856e+01
1.520000e-06	-1.491962e-06	-4.708772e-10	-1.035905e+01	-3.516075e+01
1.530000e-06	-1.446651e-06	-4.599844e-10	-1.004444e+01	-3.457239e+01
1.540000e-06	-1.401217e-06	-4.506925e-10	-9.728984e+00	-3.397284e+01
1.550000e-06	-1.355709e-06	-4.436239e-10	-9.413011e+00	-3.336146e+01
1.560000e-06	-1.310123e-06	-4.350957e-10	-9.096496e+00	-3.273759e+01
1.570000e-06	-1.264474e-06	-4.250771e-10	-8.779546e+00	-3.210057e+01
1.580000e-06	-1.218772e-06	-4.142188e-10	-8.462225e+00	-3.144972e+01
1.590000e-06	-1.172949e-06	-4.027879e-10	-8.144064e+00	-3.078441e+01
1.600000e-06	-1.127020e-06	-3.910639e-10	-7.825170e+00	-3.010397e+01
1.610000e-06	-1.081068e-06	-3.794895e-10	-7.506113e+00	-2.940777e+01
1.620000e-06	-1.035036e-06	-3.658368e-10	-7.186502e+00	-2.869521e+01
1.630000e-06	-9.889213e-07	-3.515022e-10	-6.866315e+00	-2.796569e+01
1.640000e-06	-9.426682e-07	-3.380805e-10	-6.545169e+00	-2.721866e+01
1.650000e-06	-8.963541e-07	-3.253864e-10	-6.223599e+00	-2.645359e+01
1.660000e-06	-8.500128e-07	-3.145947e-10	-5.901840e+00	-2.566999e+01
1.670000e-06	-8.035929e-07	-3.070868e-10	-5.579536e+00	-2.486743e+01
1.680000e-06	-7.571570e-07	-2.988681e-10	-5.257121e+00	-2.404553e+01
1.690000e-06	-7.106311e-07	-2.880187e-10	-4.934080e+00	-2.320394e+01
1.700000e-06	-6.640035e-07	-2.752977e-10	-4.610334e+00	-2.234240e+01
1.710000e-06	-6.173324e-07	-2.615644e-10	-4.286285e+00	-2.146068e+01
1.720000e-06	-5.705734e-07	-2.474076e-10	-3.961626e+00	-2.055863e+01
1.730000e-06	-5.237863e-07	-2.332627e-10	-3.636773e+00	-1.963619e+01
1.740000e-06	-4.770313e-07	-2.184282e-10	-3.312142e+00	-1.869335e+01
1.750000e-06	-4.302582e-07	-2.029881e-10	-2.987385e+00	-1.773016e+01
1.760000e-06	-3.834731e-07	-1.895587e-10	-2.662544e+00	-1.674678e+01
1.770000e-06	-3.367274e-07	-1.773229e-10	-2.337978e+00	-1.574344e+01
1.780000e-06	-2.899186e-07	-1.634038e-10	-2.012974e+00	-1.472042e+01
1.790000e-06	-2.429742e-07	-1.479557e-10	-1.687027e+00	-1.367812e+01
1.800000e-06	-1.960046e-07	-1.332158e-10	-1.360907e+00	-1.261699e+01
1.810000e-06	-1.490380e-07	-1.184418e-10	-1.034806e+00	-1.153758e+01
1.820000e-06	-1.021246e-07	-1.030793e-10	-7.090750e-01	-1.044050e+01
1.830000e-06	-5.532486e-08	-8.705806e-11	-3.841336e-01	-9.326441e+00
1.840000e-06	-8.491744e-09	-7.060588e-11	-5.896019e-02	-8.196182e+00
1.850000e-06	3.842677e-08	-5.548160e-11	2.668062e-01	-7.050558e+00
1.860000e-06	8.537308e-08	-4.109777e-11	5.927655e-01	-5.890478e+00
1.870000e-06	1.323191e-07	-2.492173e-11	9.187229e-01	-4.716916e+00
1.880000e-06	1.791747e-07	-9.615541e-12	1.244053e+00	-3.530907e+00
1.890000e-06	2.259690e-07	4.756169e-12	1.568956e+00	-2.333541e+00
1.900000e-06	2.728563e-07	1.892145e-11	1.894506e+00	-1.125963e+00
1.910000e-06	3.197591e-07	3.458709e-11	2.220163e+00	9.063991e-02
1.920000e-06	3.665283e-07	5.233829e-11	2.544893e+00	1.315036e+00
1.930000e-06	4.132409e-07	7.215651e-11	2.869230e+00	2.545959e+00
1.940000e-06	4.599201e-07	9.265742e-11	3.193334e+00	3.782114e+00
1.950000e-06	5.065931e-07	1.117059e-10	3.517396e+00	5.022182e+00
1.960000e-06	5.532831e-07	1.270470e-10	3.841576e+00	6.264829e+00
1.970000e-06	5.999364e-07	1.422334e-10	4.165501e+00	7.508707e+00
1.980000e-06	6.464937e-07	1.564616e-10	4.488759e+00	8.752466e+00
1.990000e-06	6.929999e-07	1.688842e-10	4.811663e+00	9.994758e+00
2.000000e-06	7.394862e-07	1.827795e-10	5.134428e+00	1.123424e+01
2.010000e-06	7.858282e-07	2.002388e-10	5.456192e+00	1.246960e+01
2.020000e-06	8.321639e-07	2.201701e-10	5.777911e+00	1.369952e+01
2.030000e-06	8.785222e-07	2.421150e-10	6.099788e+00	1.492273e+01
2.040000e-06	9.247774e-07	2.648344e-10	6.420949e+00	1.613798e+01
2.050000e-06	9.709862e-07	2.840663e-10	6.741787e+00	1.734407e+01
2.060000e-06	1.017124e-06	2.997600e-10	7.062136e+00	1.853983e+01
2.070000e-06	1.063141e-06	3.136912e-10	7.381642e+00	1.972415e+01
2.080000e-06	1.109053e-06	3.291670e-10	7.700416e+00	2.089596e+01
2.090000e-06	1.154892e-06	3.456626e-10	8.018691e+00	2.205427e+01
2.100000e-06	1.200628e-06	3.633781e-10	8.336242e+00	2.319811e+01
2.110000e-06	1.246321e-06	3.806972e-10	8.653503e+00	2.432661e+01
2.120000e-06	1.292031e-06	3.970137e-10	8.970877e+00	2.543894e+01
2.130000e-06	1.337617e-06	4.128686e-10	9.287394e+00	2.653437e+01
2.140000e-06	1.383077e-06	4.280163e-10	9.603034e+00	2.761220e+01
2.150000e-06	1.428482e-06	4.430663e-10	9.918291e+00	2.867182e+01
2.160000e-06	1.473799e-06	4.588658e-10	1.023294e+01	2.971270e+01
2.170000e-06	1.518988e-06	4.738586e-10	1.054669e+01	3.073437e+01
2.180000e-06	1.564040e-06	4.874188e-10	1.085950e+01	3.173644e+01
2.190000e-06	1.608942e-06	4.999189e-10	1.117127e+01	3.271859e+01
2.200000e-06	1.653708e-06	5.126684e-10	1.148208e+01	3.368055e+01
2.210000e-06	1.698341e-06	5.234645e-10	1.179199e+01	3.462215e+01
2.220000e-06	1.742826e-06	5.343663e-10	1.210085e+01	3.554327e+01
2.230000e-06	1.787205e-06	5.469132e-10	1.240899e+01	3.644385e+01
2.240000e-06	1.831453e-06	5.604675e-10	1.271621e+01	3.732392e+01
2.250000e-06	1.875527e-06	5.745350e-10	1.302223e+01	3.818353e+01
2.260000e-06	1.919486e-06	5.876128e-10	1.332745e+01	3.902282e+01
2.270000e-06	1.963370e-06	5.996236e-10	1.363214e+01	3.984197e+01
2.280000e-06	2.007165e-06	6.084181e-10	1.393622e+01	4.064120e+01
2.290000e-06	2.050910e-06	6.156487e-10	1.423996e+01	4.142079e+01
2.300000e-06	2.094596e-06	6.229632e-10	1.454328e+01	4.218105e+01
2.310000e-06	2.138195e-06	6.317310e-10	1.484599e+01	4.292235e+01
2.320000e-06	2.181694e-06	6.429797e-10	1.514802e+01	4.364507e+01
2.330000e-06	2.225113e-06	6.551571e-10	1.544949e+01	4.434964e+01
2.340000e-06	2.268456e-06	6.672621e-10	1.575042e+01	4.503649e+01
2.350000e-06	2.311639e-06	6.782387e-10	1.605026e+01	4.570609e+01
2.360000e-06	2.354569e-06	6.873750e-10	1.634833e+01	4.635894e+01
2.370000e-06	2.397221e-06	6.949338e-10	1.664447e+01	4.699552e+01
2.380000e-06	2.439654e-06	7.015337e-10	1.693910e+01	4.761636e+01
2.390000e-06	2.481819e-06	7.089630e-10	1.723185e+01	4.822197e+01
2.400000e-06	2.523654e-06	7.170033e-10	1.752233e+01	4.881287e+01
2.410000e-06	2.565277e-06	7.257843e-10	1.781132e+01	4.938957e+01
2.420000e-06	2.606639e-06	7.350809e-10	1.809851e+01	4.995261e+01
2.430000e-06	2.647640e-06	7.450211e-10	1.838319e+01	5.050249e+01
2.440000e-06	2.688402e-06	7.536629e-10	1.866621e+01	5.103973e+01
2.450000e-06	2.728956e-06	7.604343e-10	1.894779e+01	5.156480e+01
2.460000e-06	2.769181e-06	7.670139e-10	1.922708e+01	5.207821e+01
2.470000e-06	2.809106e-06	7.725534e-10	1.950429e+01	5.258041e+01
2.480000e-06	2.848915e-06	7.773443e-10	1.978069e+01	5.307186e+01
2.490000e-06	2.888613e-06	7.837019e-10	2.005632e+01	5.355300e+01
2.500000e-06	2.928150e-06	7.912840e-10	2.033084e+01	5.402425e+01
2.510000e-06	2.967529e-06	8.006673e-10	2.060426e+01	5.448600e+01
2.520000e-06	3.006712e-06	8.100286e-10	2.087631e+01	5.493864e+01
2.530000e-06	3.045781e-06	8.170745e-10	2.114758e+01	5.538253e+01
2.540000e-06	3.084706e-06	8.240057e-10	2.141785e+01	5.581801e+01
2.550000e-06	3.123310e-06	8.315041e-10	2.168588e+01	5.624539e+01
2.560000e-06	3.161635e-06	8.371377e-10	2.195198e+01	5.666499e+01
2.570000e-06	3.199886e-06	8.420337e-10	2.221757e+01	5.707708e+01
2.580000e-06	3.238028e-06	8.485350e-10	2.248240e+01	5.748192e+01
2.590000e-06	3.275906e-06	8.556483e-10	2.274539e+01	5.787977e+01
2.600000e-06	3.313446e-06	8.605014e-10	2.300604e+01	5.827084e+01
2.610000e-06	3.350758e-06	8.635667e-10	2.326511e+01	5.865534e+01
2.620000e-06	3.387909e-06	8.689603e-10	2.352306e+01	5.903348e+01
2.630000e-06	3.424759e-06	8.748559e-10	2.377891e+01	5.940542e+01
2.640000e-06	3.461316e-06	8.802224e-10	2.403274e+01	5.977133e+01
2.650000e-06	3.497622e-06	8.878892e-10	2.428482e+01	6.013137e+01
2.660000e-06	3.533738e-06	8.968325e-10	2.453558e+01	6.048567e+01
2.670000e-06	3.569658e-06	9.023435e-10	2.478498e+01	6.083435e+01
2.680000e-06	3.605347e-06	9.046891e-10	2.503278e+01	6.117753e+01
2.690000e-06	3.640880e-06	9.047989e-10	2.527949e+01	6.151532e+01
2.700000e-06	3.676346e-06	9.034204e-10	2.552574e+01	6.184782e+01
2.710000e-06	3.711705e-06	9.060410e-10	2.577125e+01	6.217510e+01
2.720000e-06	3.746792e-06	9.138073e-10	2.601487e+01	6.249726e+01
2.730000e-06	3.781601e-06	9.232856e-10	2.625655e+01	6.281436e+01
2.740000e-06	3.816139e-06	9.308916e-10	2.649636e+01	6.312648e+01
2.750000e-06	3.850211e-06	9.349956e-10	2.673293e+01	6.343366e+01
2.760000e-06	3.883694e-06	9.374122e-10	2.696541e+01	6.373598e+01
2.770000e-06	3.916701e-06	9.369298e-10	2.719458e+01	6.403347e+01
2.780000e-06	3.949354e-06	9.369116e-10	2.742130e+01	6.432618e+01
2.790000e-06	3.981642e-06	9.390764e-10	2.764549e+01	6.461415e+01
2.800000e-06	4.013563e-06	9.437531e-10	2.786712e+01	6.489742e+01
2.810000e-06	4.045285e-06	9.494609e-10	2.808737e+01	6.517602e+01
2.820000e-06	4.076885e-06	9.543862e-10	2.830678e+01	6.544997e+01
2.830000e-06	4.108324e-06	9.593484e-10	2.852507e+01	6.571930e+01
2.840000e-06	4.139578e-06	9.647937e-10	2.874207e+01	6.598402e+01
2.850000e-06	4.170560e-06	9.698997e-10	2.895719e+01	6.624414e+01
2.860000e-06	4.201223e-06	9.738266e-10	2.917009e+01	6.649969e+01
2.870000e-06	4.231535e-06	9.761207e-10	2.938055e+01	6.675065e+01
2.880000e-06	4.261570e-06	9.764567e-10	2.958909e+01	6.699704e+01
2.890000e-06	4.291346e-06	9.763720e-10	2.979583e+01	6.723885e+01
2.900000e-06	4.320773e-06	9.770473e-10	3.000015e+01	6.747607e+01
2.910000e-06	4.349926e-06	9.798512e-10	3.020257e+01	6.770870e+01
