# Temperatura_=_9.08
# Concentracion g/m^3_=_1620.0
# C_Vs_to_Am_M_A/Vsm_=_65563218390.804596
# pendiente_HvsI_1/m_=_3716.3
# ordenada_HvsI_A/m_=_1297.0
# frecuencia_Hz_=_135110.80900458258

Tiempo_(s)	Campo_(V.s)	Magnetizacion_(V.s)	Campo_(kA/m)	Magnetizacion_(A/m)
0.000000e+00	-5.520706e-06	-1.241078e-09	-3.836373e+01	-8.107440e+01
1.000000e-08	-5.520889e-06	-1.235029e-09	-3.836500e+01	-8.104011e+01
2.000000e-08	-5.520798e-06	-1.230071e-09	-3.836437e+01	-8.100307e+01
3.000000e-08	-5.520406e-06	-1.229833e-09	-3.836165e+01	-8.096324e+01
4.000000e-08	-5.519600e-06	-1.231687e-09	-3.835605e+01	-8.092055e+01
5.000000e-08	-5.518114e-06	-1.232151e-09	-3.834572e+01	-8.087497e+01
6.000000e-08	-5.515983e-06	-1.226119e-09	-3.833091e+01	-8.082644e+01
7.000000e-08	-5.513243e-06	-1.226736e-09	-3.831187e+01	-8.077490e+01
8.000000e-08	-5.509916e-06	-1.258983e-09	-3.828875e+01	-8.072032e+01
9.000000e-08	-5.506119e-06	-1.276611e-09	-3.826237e+01	-8.066266e+01
1.000000e-07	-5.501885e-06	-1.215814e-09	-3.823294e+01	-8.060186e+01
1.100000e-07	-5.497427e-06	-1.183208e-09	-3.820197e+01	-8.053791e+01
1.200000e-07	-5.492936e-06	-1.246169e-09	-3.817075e+01	-8.047076e+01
1.300000e-07	-5.488191e-06	-1.280268e-09	-3.813778e+01	-8.040041e+01
1.400000e-07	-5.482956e-06	-1.220049e-09	-3.810140e+01	-8.032682e+01
1.500000e-07	-5.477309e-06	-1.157993e-09	-3.806217e+01	-8.024998e+01
1.600000e-07	-5.471357e-06	-1.229283e-09	-3.802080e+01	-8.016989e+01
1.700000e-07	-5.464924e-06	-1.290640e-09	-3.797610e+01	-8.008655e+01
1.800000e-07	-5.457977e-06	-1.228579e-09	-3.792782e+01	-7.999995e+01
1.900000e-07	-5.450715e-06	-1.163337e-09	-3.787736e+01	-7.991010e+01
2.000000e-07	-5.443198e-06	-1.196990e-09	-3.782512e+01	-7.981702e+01
2.100000e-07	-5.435416e-06	-1.260675e-09	-3.777104e+01	-7.972072e+01
2.200000e-07	-5.427391e-06	-1.241654e-09	-3.771528e+01	-7.962122e+01
2.300000e-07	-5.419134e-06	-1.208705e-09	-3.765790e+01	-7.951855e+01
2.400000e-07	-5.410292e-06	-1.219086e-09	-3.759646e+01	-7.941273e+01
2.500000e-07	-5.400504e-06	-1.252479e-09	-3.752844e+01	-7.930380e+01
2.600000e-07	-5.390114e-06	-1.230545e-09	-3.745624e+01	-7.919178e+01
2.700000e-07	-5.379401e-06	-1.201154e-09	-3.738180e+01	-7.907671e+01
2.800000e-07	-5.368188e-06	-1.200660e-09	-3.730387e+01	-7.895862e+01
2.900000e-07	-5.356528e-06	-1.219596e-09	-3.722285e+01	-7.883754e+01
3.000000e-07	-5.344581e-06	-1.206392e-09	-3.713983e+01	-7.871351e+01
3.100000e-07	-5.332182e-06	-1.174971e-09	-3.705367e+01	-7.858655e+01
3.200000e-07	-5.319217e-06	-1.180904e-09	-3.696357e+01	-7.845669e+01
3.300000e-07	-5.305974e-06	-1.216579e-09	-3.687154e+01	-7.832397e+01
3.400000e-07	-5.292520e-06	-1.197007e-09	-3.677805e+01	-7.818839e+01
3.500000e-07	-5.278605e-06	-1.150903e-09	-3.668136e+01	-7.804997e+01
3.600000e-07	-5.264138e-06	-1.179780e-09	-3.658082e+01	-7.790874e+01
3.700000e-07	-5.249253e-06	-1.202145e-09	-3.647739e+01	-7.776470e+01
3.800000e-07	-5.233780e-06	-1.155042e-09	-3.636986e+01	-7.761785e+01
3.900000e-07	-5.217645e-06	-1.155890e-09	-3.625774e+01	-7.746819e+01
4.000000e-07	-5.201205e-06	-1.216498e-09	-3.614350e+01	-7.731571e+01
4.100000e-07	-5.184462e-06	-1.172748e-09	-3.602715e+01	-7.716040e+01
4.200000e-07	-5.167280e-06	-1.116765e-09	-3.590775e+01	-7.700225e+01
4.300000e-07	-5.149845e-06	-1.183513e-09	-3.578660e+01	-7.684123e+01
4.400000e-07	-5.132173e-06	-1.200869e-09	-3.566379e+01	-7.667730e+01
4.500000e-07	-5.114072e-06	-1.106681e-09	-3.553801e+01	-7.651045e+01
4.600000e-07	-5.095488e-06	-1.135140e-09	-3.540887e+01	-7.634063e+01
4.700000e-07	-5.076540e-06	-1.210789e-09	-3.527719e+01	-7.616780e+01
4.800000e-07	-5.057300e-06	-1.144923e-09	-3.514349e+01	-7.599191e+01
4.900000e-07	-5.037764e-06	-1.112348e-09	-3.500774e+01	-7.581292e+01
5.000000e-07	-5.018060e-06	-1.193191e-09	-3.487082e+01	-7.563077e+01
5.100000e-07	-4.998155e-06	-1.149362e-09	-3.473249e+01	-7.544542e+01
5.200000e-07	-4.977868e-06	-1.072533e-09	-3.459152e+01	-7.525681e+01
5.300000e-07	-4.957173e-06	-1.147141e-09	-3.444770e+01	-7.506489e+01
5.400000e-07	-4.936104e-06	-1.169905e-09	-3.430129e+01	-7.486960e+01
5.500000e-07	-4.914690e-06	-1.076574e-09	-3.415249e+01	-7.467089e+01
5.600000e-07	-4.892995e-06	-1.109053e-09	-3.400173e+01	-7.446872e+01
5.700000e-07	-4.870955e-06	-1.174063e-09	-3.384857e+01	-7.426303e+01
5.800000e-07	-4.848535e-06	-1.103331e-09	-3.369277e+01	-7.405378e+01
5.900000e-07	-4.825787e-06	-1.082064e-09	-3.353470e+01	-7.384094e+01
6.000000e-07	-4.802733e-06	-1.147371e-09	-3.337449e+01	-7.362446e+01
6.100000e-07	-4.779372e-06	-1.112027e-09	-3.321215e+01	-7.340431e+01
6.200000e-07	-4.755754e-06	-1.066039e-09	-3.304803e+01	-7.318047e+01
6.300000e-07	-4.731915e-06	-1.115615e-09	-3.288238e+01	-7.295292e+01
6.400000e-07	-4.707805e-06	-1.115005e-09	-3.271483e+01	-7.272165e+01
6.500000e-07	-4.683335e-06	-1.067071e-09	-3.254479e+01	-7.248664e+01
6.600000e-07	-4.658430e-06	-1.089383e-09	-3.237172e+01	-7.224789e+01
6.700000e-07	-4.632996e-06	-1.103338e-09	-3.219498e+01	-7.200542e+01
6.800000e-07	-4.606956e-06	-1.061775e-09	-3.201403e+01	-7.175922e+01
6.900000e-07	-4.580433e-06	-1.066922e-09	-3.182971e+01	-7.150933e+01
7.000000e-07	-4.553553e-06	-1.086549e-09	-3.164293e+01	-7.125574e+01
7.100000e-07	-4.526333e-06	-1.056384e-09	-3.145377e+01	-7.099851e+01
7.200000e-07	-4.498797e-06	-1.043634e-09	-3.126242e+01	-7.073765e+01
7.300000e-07	-4.471033e-06	-1.063339e-09	-3.106949e+01	-7.047319e+01
7.400000e-07	-4.443115e-06	-1.048171e-09	-3.087549e+01	-7.020519e+01
7.500000e-07	-4.414996e-06	-1.032823e-09	-3.068009e+01	-6.993368e+01
7.600000e-07	-4.386598e-06	-1.046413e-09	-3.048274e+01	-6.965870e+01
7.700000e-07	-4.357883e-06	-1.042395e-09	-3.028320e+01	-6.938030e+01
7.800000e-07	-4.328880e-06	-1.023157e-09	-3.008166e+01	-6.909851e+01
7.900000e-07	-4.299504e-06	-1.029925e-09	-2.987752e+01	-6.881339e+01
8.000000e-07	-4.269793e-06	-1.026938e-09	-2.967106e+01	-6.852497e+01
8.100000e-07	-4.239820e-06	-1.000461e-09	-2.946278e+01	-6.823330e+01
8.200000e-07	-4.209570e-06	-9.930312e-10	-2.925256e+01	-6.793839e+01
8.300000e-07	-4.179018e-06	-9.967717e-10	-2.904026e+01	-6.764029e+01
8.400000e-07	-4.148065e-06	-9.785007e-10	-2.882516e+01	-6.733902e+01
8.500000e-07	-4.116808e-06	-9.731200e-10	-2.860796e+01	-6.703459e+01
8.600000e-07	-4.085424e-06	-9.872242e-10	-2.838987e+01	-6.672702e+01
8.700000e-07	-4.053907e-06	-9.810662e-10	-2.817086e+01	-6.641631e+01
8.800000e-07	-4.022214e-06	-9.693449e-10	-2.795061e+01	-6.610245e+01
8.900000e-07	-3.990342e-06	-9.734777e-10	-2.772914e+01	-6.578543e+01
9.000000e-07	-3.958225e-06	-9.620387e-10	-2.750595e+01	-6.546523e+01
9.100000e-07	-3.925792e-06	-9.386218e-10	-2.728057e+01	-6.514181e+01
9.200000e-07	-3.892998e-06	-9.374592e-10	-2.705269e+01	-6.481513e+01
9.300000e-07	-3.859747e-06	-9.386190e-10	-2.682162e+01	-6.448514e+01
9.400000e-07	-3.825962e-06	-9.247383e-10	-2.658685e+01	-6.415179e+01
9.500000e-07	-3.791771e-06	-9.249027e-10	-2.634926e+01	-6.381500e+01
9.600000e-07	-3.757267e-06	-9.339594e-10	-2.610949e+01	-6.347469e+01
9.700000e-07	-3.722348e-06	-9.205590e-10	-2.586683e+01	-6.313078e+01
9.800000e-07	-3.687082e-06	-9.067189e-10	-2.562176e+01	-6.278318e+01
9.900000e-07	-3.651622e-06	-9.087761e-10	-2.537535e+01	-6.243179e+01
1.000000e-06	-3.615989e-06	-9.029744e-10	-2.512773e+01	-6.207650e+01
1.010000e-06	-3.580224e-06	-8.898041e-10	-2.487920e+01	-6.171720e+01
1.020000e-06	-3.544340e-06	-8.899567e-10	-2.462984e+01	-6.135379e+01
1.030000e-06	-3.508290e-06	-8.875459e-10	-2.437933e+01	-6.098614e+01
1.040000e-06	-3.472036e-06	-8.763780e-10	-2.412739e+01	-6.061414e+01
1.050000e-06	-3.435526e-06	-8.747204e-10	-2.387368e+01	-6.023767e+01
1.060000e-06	-3.398759e-06	-8.770419e-10	-2.361819e+01	-5.985662e+01
1.070000e-06	-3.361729e-06	-8.655282e-10	-2.336087e+01	-5.947087e+01
1.080000e-06	-3.324407e-06	-8.560146e-10	-2.310151e+01	-5.908032e+01
1.090000e-06	-3.286836e-06	-8.542270e-10	-2.284043e+01	-5.868486e+01
1.100000e-06	-3.249005e-06	-8.437314e-10	-2.257754e+01	-5.828438e+01
1.110000e-06	-3.210918e-06	-8.287282e-10	-2.231287e+01	-5.787881e+01
1.120000e-06	-3.172690e-06	-8.239331e-10	-2.204722e+01	-5.746806e+01
1.130000e-06	-3.134291e-06	-8.181180e-10	-2.178039e+01	-5.705205e+01
1.140000e-06	-3.095541e-06	-8.079809e-10	-2.151111e+01	-5.663072e+01
1.150000e-06	-3.056449e-06	-8.046956e-10	-2.123946e+01	-5.620402e+01
1.160000e-06	-3.017245e-06	-8.012216e-10	-2.096702e+01	-5.577190e+01
1.170000e-06	-2.977882e-06	-7.912536e-10	-2.069349e+01	-5.533433e+01
1.180000e-06	-2.938353e-06	-7.855751e-10	-2.041880e+01	-5.489129e+01
1.190000e-06	-2.898764e-06	-7.825793e-10	-2.014369e+01	-5.444277e+01
1.200000e-06	-2.859044e-06	-7.724488e-10	-1.986768e+01	-5.398878e+01
1.210000e-06	-2.819223e-06	-7.609286e-10	-1.959096e+01	-5.352932e+01
1.220000e-06	-2.779246e-06	-7.540582e-10	-1.931315e+01	-5.306441e+01
1.230000e-06	-2.739047e-06	-7.451079e-10	-1.903381e+01	-5.259410e+01
1.240000e-06	-2.698652e-06	-7.365200e-10	-1.875310e+01	-5.211840e+01
1.250000e-06	-2.658051e-06	-7.340839e-10	-1.847096e+01	-5.163738e+01
1.260000e-06	-2.617203e-06	-7.303890e-10	-1.818711e+01	-5.115107e+01
1.270000e-06	-2.576097e-06	-7.233042e-10	-1.790146e+01	-5.065954e+01
1.280000e-06	-2.534720e-06	-7.172861e-10	-1.761393e+01	-5.016283e+01
1.290000e-06	-2.493054e-06	-7.117000e-10	-1.732439e+01	-4.966100e+01
1.300000e-06	-2.451102e-06	-7.003258e-10	-1.703286e+01	-4.915410e+01
1.310000e-06	-2.408797e-06	-6.873908e-10	-1.673888e+01	-4.864218e+01
1.320000e-06	-2.366149e-06	-6.771520e-10	-1.644252e+01	-4.812527e+01
1.330000e-06	-2.323291e-06	-6.676900e-10	-1.614470e+01	-4.760341e+01
1.340000e-06	-2.280219e-06	-6.600564e-10	-1.584539e+01	-4.707661e+01
1.350000e-06	-2.236957e-06	-6.566804e-10	-1.554475e+01	-4.654487e+01
1.360000e-06	-2.193577e-06	-6.525403e-10	-1.524330e+01	-4.600819e+01
1.370000e-06	-2.150079e-06	-6.449202e-10	-1.494103e+01	-4.546653e+01
1.380000e-06	-2.106491e-06	-6.345429e-10	-1.463814e+01	-4.491984e+01
1.390000e-06	-2.062797e-06	-6.232198e-10	-1.433451e+01	-4.436804e+01
1.400000e-06	-2.019023e-06	-6.111225e-10	-1.403032e+01	-4.381103e+01
1.410000e-06	-1.975195e-06	-5.994264e-10	-1.372575e+01	-4.324867e+01
1.420000e-06	-1.931229e-06	-5.891358e-10	-1.342023e+01	-4.268082e+01
1.430000e-06	-1.887102e-06	-5.805185e-10	-1.311359e+01	-4.210728e+01
1.440000e-06	-1.842933e-06	-5.728999e-10	-1.280666e+01	-4.152783e+01
1.450000e-06	-1.798706e-06	-5.657054e-10	-1.249932e+01	-4.094222e+01
1.460000e-06	-1.754318e-06	-5.582732e-10	-1.219086e+01	-4.035017e+01
1.470000e-06	-1.709791e-06	-5.498084e-10	-1.188144e+01	-3.975136e+01
1.480000e-06	-1.665070e-06	-5.400973e-10	-1.157068e+01	-3.914543e+01
1.490000e-06	-1.620226e-06	-5.297079e-10	-1.125905e+01	-3.853201e+01
1.500000e-06	-1.575300e-06	-5.195140e-10	-1.094686e+01	-3.791067e+01
1.510000e-06	-1.530277e-06	-5.086970e-10	-1.063399e+01	-3.728098e+01
1.520000e-06	-1.485199e-06	-4.968377e-10	-1.032074e+01	-3.664245e+01
1.530000e-06	-1.439976e-06	-4.843631e-10	-1.000649e+01	-3.599459e+01
1.540000e-06	-1.394575e-06	-4.727268e-10	-9.690986e+00	-3.533687e+01
1.550000e-06	-1.349040e-06	-4.608588e-10	-9.374564e+00	-3.466874e+01
1.560000e-06	-1.303464e-06	-4.489989e-10	-9.057853e+00	-3.398963e+01
1.570000e-06	-1.257850e-06	-4.380435e-10	-8.740880e+00	-3.329895e+01
1.580000e-06	-1.212147e-06	-4.276361e-10	-8.423287e+00	-3.259612e+01
1.590000e-06	-1.166362e-06	-4.161984e-10	-8.105124e+00	-3.188053e+01
1.600000e-06	-1.120477e-06	-4.037593e-10	-7.786267e+00	-3.115156e+01
1.610000e-06	-1.074523e-06	-3.896511e-10	-7.466925e+00	-3.040862e+01
1.620000e-06	-1.028573e-06	-3.729692e-10	-7.147616e+00	-2.965109e+01
1.630000e-06	-9.825388e-07	-3.561254e-10	-6.827723e+00	-2.887838e+01
1.640000e-06	-9.363595e-07	-3.419365e-10	-6.506821e+00	-2.808992e+01
1.650000e-06	-8.901383e-07	-3.299616e-10	-6.185627e+00	-2.728514e+01
1.660000e-06	-8.437799e-07	-3.185926e-10	-5.863479e+00	-2.646352e+01
1.670000e-06	-7.973648e-07	-3.084885e-10	-5.540938e+00	-2.562454e+01
1.680000e-06	-7.510972e-07	-2.995153e-10	-5.219422e+00	-2.476774e+01
1.690000e-06	-7.048687e-07	-2.886190e-10	-4.898177e+00	-2.389268e+01
1.700000e-06	-6.585141e-07	-2.738818e-10	-4.576055e+00	-2.299900e+01
1.710000e-06	-6.120226e-07	-2.570995e-10	-4.252983e+00	-2.208634e+01
1.720000e-06	-5.655258e-07	-2.398196e-10	-3.929874e+00	-2.115443e+01
1.730000e-06	-5.189902e-07	-2.222643e-10	-3.606496e+00	-2.020306e+01
1.740000e-06	-4.723181e-07	-2.050140e-10	-3.282168e+00	-1.923205e+01
1.750000e-06	-4.255223e-07	-1.898469e-10	-2.956981e+00	-1.824131e+01
1.760000e-06	-3.787114e-07	-1.781054e-10	-2.631689e+00	-1.723083e+01
1.770000e-06	-3.319780e-07	-1.669494e-10	-2.306936e+00	-1.620065e+01
1.780000e-06	-2.852614e-07	-1.543495e-10	-1.982299e+00	-1.515088e+01
1.790000e-06	-2.384052e-07	-1.403673e-10	-1.656692e+00	-1.408174e+01
1.800000e-06	-1.915184e-07	-1.243473e-10	-1.330874e+00	-1.299349e+01
1.810000e-06	-1.446767e-07	-1.057479e-10	-1.005368e+00	-1.188648e+01
1.820000e-06	-9.772518e-08	-8.563732e-11	-6.790984e-01	-1.076117e+01
1.830000e-06	-5.074920e-08	-6.684563e-11	-3.526593e-01	-9.618044e+00
1.840000e-06	-3.897471e-09	-5.032310e-11	-2.708377e-02	-8.457710e+00
1.850000e-06	4.287873e-08	-3.530672e-11	2.979670e-01	-7.280831e+00
1.860000e-06	8.969597e-08	-2.238393e-11	6.233029e-01	-6.088151e+00
1.870000e-06	1.365155e-07	-8.662983e-12	9.486548e-01	-4.880488e+00
1.880000e-06	1.833718e-07	7.978101e-12	1.274262e+00	-3.658728e+00
1.890000e-06	2.302302e-07	2.589237e-11	1.599884e+00	-2.423826e+00
1.900000e-06	2.770815e-07	4.331871e-11	1.925457e+00	-1.176799e+00
1.910000e-06	3.238611e-07	6.070514e-11	2.250531e+00	8.127654e-02
1.920000e-06	3.705440e-07	8.088161e-11	2.574933e+00	1.349270e+00
1.930000e-06	4.172700e-07	1.021329e-10	2.899635e+00	2.626000e+00
1.940000e-06	4.639568e-07	1.217278e-10	3.224065e+00	3.910245e+00
1.950000e-06	5.105456e-07	1.397465e-10	3.547813e+00	5.200742e+00
1.960000e-06	5.570565e-07	1.567553e-10	3.871020e+00	6.496197e+00
1.970000e-06	6.036347e-07	1.732042e-10	4.194696e+00	7.795291e+00
1.980000e-06	6.502383e-07	1.894146e-10	4.518547e+00	9.096685e+00
1.990000e-06	6.966699e-07	2.048205e-10	4.841203e+00	1.039903e+01
2.000000e-06	7.429936e-07	2.216848e-10	5.163109e+00	1.170096e+01
2.010000e-06	7.893133e-07	2.403898e-10	5.484988e+00	1.300112e+01
2.020000e-06	8.356546e-07	2.595511e-10	5.807016e+00	1.429817e+01
2.030000e-06	8.819420e-07	2.812296e-10	6.128670e+00	1.559076e+01
2.040000e-06	9.281094e-07	3.031683e-10	6.449490e+00	1.687759e+01
2.050000e-06	9.742086e-07	3.220662e-10	6.769837e+00	1.815735e+01
2.060000e-06	1.020209e-06	3.372726e-10	7.089497e+00	1.942881e+01
2.070000e-06	1.066154e-06	3.499992e-10	7.408771e+00	2.069073e+01
2.080000e-06	1.112104e-06	3.641042e-10	7.728082e+00	2.194194e+01
2.090000e-06	1.158067e-06	3.815277e-10	8.047481e+00	2.318132e+01
2.100000e-06	1.203935e-06	4.000782e-10	8.366216e+00	2.440781e+01
2.110000e-06	1.249614e-06	4.182630e-10	8.683643e+00	2.562038e+01
2.120000e-06	1.295176e-06	4.361011e-10	9.000262e+00	2.681809e+01
2.130000e-06	1.340623e-06	4.542389e-10	9.316075e+00	2.800005e+01
2.140000e-06	1.385948e-06	4.710111e-10	9.631039e+00	2.916546e+01
2.150000e-06	1.431178e-06	4.845724e-10	9.945342e+00	3.031357e+01
2.160000e-06	1.476276e-06	4.984767e-10	1.025874e+01	3.144371e+01
2.170000e-06	1.521264e-06	5.119126e-10	1.057136e+01	3.255528e+01
2.180000e-06	1.566184e-06	5.256812e-10	1.088351e+01	3.364777e+01
2.190000e-06	1.611017e-06	5.413735e-10	1.119506e+01	3.472074e+01
2.200000e-06	1.655729e-06	5.572106e-10	1.150577e+01	3.577382e+01
2.210000e-06	1.700251e-06	5.716854e-10	1.181515e+01	3.680672e+01
2.220000e-06	1.744635e-06	5.842289e-10	1.212358e+01	3.781922e+01
2.230000e-06	1.788929e-06	5.964657e-10	1.243138e+01	3.881117e+01
2.240000e-06	1.833098e-06	6.095093e-10	1.273831e+01	3.978252e+01
2.250000e-06	1.877180e-06	6.241748e-10	1.304464e+01	4.073324e+01
2.260000e-06	1.921172e-06	6.385727e-10	1.335034e+01	4.166341e+01
2.270000e-06	1.965078e-06	6.508358e-10	1.365545e+01	4.257313e+01
2.280000e-06	2.008914e-06	6.613938e-10	1.396007e+01	4.346260e+01
2.290000e-06	2.052702e-06	6.729168e-10	1.426436e+01	4.433205e+01
2.300000e-06	2.096476e-06	6.836682e-10	1.456854e+01	4.518176e+01
2.310000e-06	2.140151e-06	6.942038e-10	1.487204e+01	4.601206e+01
2.320000e-06	2.183712e-06	7.075410e-10	1.517475e+01	4.682332e+01
2.330000e-06	2.227231e-06	7.216769e-10	1.547717e+01	4.761596e+01
2.340000e-06	2.270681e-06	7.342635e-10	1.577910e+01	4.839041e+01
2.350000e-06	2.313909e-06	7.457789e-10	1.607950e+01	4.914713e+01
2.360000e-06	2.356881e-06	7.554871e-10	1.637811e+01	4.988663e+01
2.370000e-06	2.399579e-06	7.630877e-10	1.667483e+01	5.060941e+01
2.380000e-06	2.441919e-06	7.713800e-10	1.696905e+01	5.131598e+01
2.390000e-06	2.483935e-06	7.799996e-10	1.726102e+01	5.200688e+01
2.400000e-06	2.525651e-06	7.878510e-10	1.755091e+01	5.268265e+01
2.410000e-06	2.566964e-06	7.982248e-10	1.783800e+01	5.334380e+01
2.420000e-06	2.607959e-06	8.110374e-10	1.812287e+01	5.399088e+01
2.430000e-06	2.648744e-06	8.239632e-10	1.840629e+01	5.462439e+01
2.440000e-06	2.689226e-06	8.340313e-10	1.868760e+01	5.524487e+01
2.450000e-06	2.729460e-06	8.410807e-10	1.896719e+01	5.585279e+01
2.460000e-06	2.769554e-06	8.462418e-10	1.924580e+01	5.644863e+01
2.470000e-06	2.809516e-06	8.498565e-10	1.952350e+01	5.703286e+01
2.480000e-06	2.849383e-06	8.547729e-10	1.980054e+01	5.760592e+01
2.490000e-06	2.889162e-06	8.612340e-10	2.007696e+01	5.816821e+01
2.500000e-06	2.928763e-06	8.696251e-10	2.035216e+01	5.872012e+01
2.510000e-06	2.968140e-06	8.785936e-10	2.062579e+01	5.926202e+01
2.520000e-06	3.007352e-06	8.876042e-10	2.089828e+01	5.979424e+01
2.530000e-06	3.046444e-06	8.971815e-10	2.116993e+01	6.031709e+01
2.540000e-06	3.085353e-06	9.078216e-10	2.144031e+01	6.083085e+01
2.550000e-06	3.124029e-06	9.159021e-10	2.170907e+01	6.133576e+01
2.560000e-06	3.162436e-06	9.190963e-10	2.197597e+01	6.183207e+01
2.570000e-06	3.200671e-06	9.221962e-10	2.224166e+01	6.231996e+01
2.580000e-06	3.238709e-06	9.284943e-10	2.250599e+01	6.279962e+01
2.590000e-06	3.276475e-06	9.354340e-10	2.276843e+01	6.327119e+01
2.600000e-06	3.314033e-06	9.421589e-10	2.302942e+01	6.373480e+01
2.610000e-06	3.351340e-06	9.481701e-10	2.328867e+01	6.419057e+01
2.620000e-06	3.388373e-06	9.545487e-10	2.354601e+01	6.463857e+01
2.630000e-06	3.425190e-06	9.606601e-10	2.380186e+01	6.507888e+01
2.640000e-06	3.461742e-06	9.695147e-10	2.405586e+01	6.551157e+01
2.650000e-06	3.498012e-06	9.804228e-10	2.430791e+01	6.593666e+01
2.660000e-06	3.534104e-06	9.901129e-10	2.455871e+01	6.635421e+01
2.670000e-06	3.570038e-06	9.953110e-10	2.480841e+01	6.676422e+01
2.680000e-06	3.605835e-06	9.951076e-10	2.505718e+01	6.716673e+01
2.690000e-06	3.641519e-06	9.925705e-10	2.530514e+01	6.756174e+01
2.700000e-06	3.677088e-06	9.913555e-10	2.555232e+01	6.794927e+01
2.710000e-06	3.712516e-06	9.957485e-10	2.579851e+01	6.832933e+01
2.720000e-06	3.747673e-06	1.004778e-09	2.604281e+01	6.870193e+01
2.730000e-06	3.782463e-06	1.015798e-09	2.628457e+01	6.906708e+01
2.740000e-06	3.816865e-06	1.025302e-09	2.652364e+01	6.942480e+01
2.750000e-06	3.850761e-06	1.030871e-09	2.675918e+01	6.977512e+01
2.760000e-06	3.883991e-06	1.032400e-09	2.699010e+01	7.011807e+01
2.770000e-06	3.916700e-06	1.030965e-09	2.721739e+01	7.045370e+01
2.780000e-06	3.949124e-06	1.028623e-09	2.744271e+01	7.078204e+01
2.790000e-06	3.981335e-06	1.029623e-09	2.766655e+01	7.110316e+01
2.800000e-06	4.013328e-06	1.035423e-09	2.788887e+01	7.141712e+01
2.810000e-06	4.045149e-06	1.044215e-09	2.811000e+01	7.172401e+01
2.820000e-06	4.076867e-06	1.051636e-09	2.833041e+01	7.202391e+01
2.830000e-06	4.108385e-06	1.058914e-09	2.854942e+01	7.231692e+01
2.840000e-06	4.139580e-06	1.064365e-09	2.876620e+01	7.260314e+01
2.850000e-06	4.170449e-06	1.067182e-09	2.898071e+01	7.288269e+01
2.860000e-06	4.201017e-06	1.068046e-09	2.919313e+01	7.315570e+01
2.870000e-06	4.231284e-06	1.065428e-09	2.940346e+01	7.342230e+01
2.880000e-06	4.261257e-06	1.062360e-09	2.961174e+01	7.368263e+01
2.890000e-06	4.290996e-06	1.063223e-09	2.981840e+01	7.393684e+01
2.900000e-06	4.320439e-06	1.067615e-09	3.002300e+01	7.418507e+01
2.910000e-06	4.349528e-06	1.073243e-09	3.022514e+01	7.442748e+01
