# Temperatura_=_-0.6
# Concentracion g/m^3_=_1620.0
# C_Vs_to_Am_M_A/Vsm_=_65563218390.804596
# pendiente_HvsI_1/m_=_3716.3
# ordenada_HvsI_A/m_=_1297.0
# frecuencia_Hz_=_135096.88616668797

Tiempo_(s)	Campo_(V.s)	Magnetizacion_(V.s)	Campo_(kA/m)	Magnetizacion_(A/m)
0.000000e+00	-5.543099e-06	-1.321783e-09	-3.837078e+01	-8.657722e+01
1.000000e-08	-5.543311e-06	-1.319709e-09	-3.837224e+01	-8.655828e+01
2.000000e-08	-5.543118e-06	-1.317651e-09	-3.837091e+01	-8.653968e+01
3.000000e-08	-5.542497e-06	-1.317774e-09	-3.836661e+01	-8.652132e+01
4.000000e-08	-5.541317e-06	-1.319767e-09	-3.835844e+01	-8.650308e+01
5.000000e-08	-5.539490e-06	-1.320518e-09	-3.834580e+01	-8.648480e+01
6.000000e-08	-5.537145e-06	-1.317445e-09	-3.832956e+01	-8.646631e+01
7.000000e-08	-5.534239e-06	-1.314275e-09	-3.830945e+01	-8.644742e+01
8.000000e-08	-5.530781e-06	-1.327556e-09	-3.828551e+01	-8.642792e+01
9.000000e-08	-5.526881e-06	-1.345543e-09	-3.825851e+01	-8.640758e+01
1.000000e-07	-5.522591e-06	-1.351419e-09	-3.822881e+01	-8.638615e+01
1.100000e-07	-5.518012e-06	-1.297672e-09	-3.819712e+01	-8.636337e+01
1.200000e-07	-5.513310e-06	-1.302141e-09	-3.816457e+01	-8.633896e+01
1.300000e-07	-5.508392e-06	-1.319886e-09	-3.813052e+01	-8.631265e+01
1.400000e-07	-5.503060e-06	-1.340103e-09	-3.809362e+01	-8.628413e+01
1.500000e-07	-5.497249e-06	-1.296439e-09	-3.805339e+01	-8.625312e+01
1.600000e-07	-5.491112e-06	-1.302009e-09	-3.801091e+01	-8.621932e+01
1.700000e-07	-5.484583e-06	-1.340526e-09	-3.796571e+01	-8.618242e+01
1.800000e-07	-5.477596e-06	-1.352577e-09	-3.791735e+01	-8.614213e+01
1.900000e-07	-5.470254e-06	-1.315625e-09	-3.786653e+01	-8.609817e+01
2.000000e-07	-5.462603e-06	-1.292528e-09	-3.781357e+01	-8.605025e+01
2.100000e-07	-5.454742e-06	-1.324498e-09	-3.775915e+01	-8.599809e+01
2.200000e-07	-5.446696e-06	-1.344326e-09	-3.770345e+01	-8.594144e+01
2.300000e-07	-5.438268e-06	-1.345074e-09	-3.764511e+01	-8.588006e+01
2.400000e-07	-5.429377e-06	-1.319519e-09	-3.758356e+01	-8.581371e+01
2.500000e-07	-5.419780e-06	-1.336606e-09	-3.751713e+01	-8.574219e+01
2.600000e-07	-5.409362e-06	-1.320127e-09	-3.744502e+01	-8.566530e+01
2.700000e-07	-5.398414e-06	-1.298009e-09	-3.736923e+01	-8.558289e+01
2.800000e-07	-5.387023e-06	-1.268152e-09	-3.729038e+01	-8.549481e+01
2.900000e-07	-5.375212e-06	-1.300623e-09	-3.720862e+01	-8.540095e+01
3.000000e-07	-5.363064e-06	-1.296053e-09	-3.712453e+01	-8.530122e+01
3.100000e-07	-5.350522e-06	-1.280653e-09	-3.703771e+01	-8.519554e+01
3.200000e-07	-5.337519e-06	-1.268194e-09	-3.694770e+01	-8.508390e+01
3.300000e-07	-5.324219e-06	-1.298940e-09	-3.685563e+01	-8.496627e+01
3.400000e-07	-5.310597e-06	-1.274230e-09	-3.676134e+01	-8.484269e+01
3.500000e-07	-5.296378e-06	-1.244747e-09	-3.666291e+01	-8.471318e+01
3.600000e-07	-5.281566e-06	-1.244360e-09	-3.656038e+01	-8.457784e+01
3.700000e-07	-5.266337e-06	-1.273632e-09	-3.645496e+01	-8.443675e+01
3.800000e-07	-5.250548e-06	-1.262005e-09	-3.634567e+01	-8.429004e+01
3.900000e-07	-5.234307e-06	-1.253242e-09	-3.623324e+01	-8.413786e+01
4.000000e-07	-5.217748e-06	-1.267684e-09	-3.611861e+01	-8.398038e+01
4.100000e-07	-5.200751e-06	-1.259816e-09	-3.600096e+01	-8.381779e+01
4.200000e-07	-5.183442e-06	-1.235250e-09	-3.588114e+01	-8.365030e+01
4.300000e-07	-5.165909e-06	-1.239245e-09	-3.575977e+01	-8.347813e+01
4.400000e-07	-5.148023e-06	-1.259710e-09	-3.563596e+01	-8.330153e+01
4.500000e-07	-5.129727e-06	-1.236782e-09	-3.550931e+01	-8.312074e+01
4.600000e-07	-5.110970e-06	-1.233030e-09	-3.537947e+01	-8.293603e+01
4.700000e-07	-5.091863e-06	-1.246749e-09	-3.524720e+01	-8.274768e+01
4.800000e-07	-5.072534e-06	-1.247712e-09	-3.511341e+01	-8.255594e+01
4.900000e-07	-5.052947e-06	-1.228201e-09	-3.497782e+01	-8.236111e+01
5.000000e-07	-5.033145e-06	-1.240103e-09	-3.484075e+01	-8.216344e+01
5.100000e-07	-5.013135e-06	-1.226595e-09	-3.470223e+01	-8.196323e+01
5.200000e-07	-4.992738e-06	-1.209866e-09	-3.456104e+01	-8.176072e+01
5.300000e-07	-4.971848e-06	-1.220055e-09	-3.441643e+01	-8.155618e+01
5.400000e-07	-4.950589e-06	-1.243005e-09	-3.426927e+01	-8.134985e+01
5.500000e-07	-4.929053e-06	-1.218036e-09	-3.412019e+01	-8.114197e+01
5.600000e-07	-4.907168e-06	-1.210756e-09	-3.396870e+01	-8.093275e+01
5.700000e-07	-4.884923e-06	-1.221950e-09	-3.381471e+01	-8.072239e+01
5.800000e-07	-4.862270e-06	-1.221810e-09	-3.365790e+01	-8.051108e+01
5.900000e-07	-4.839239e-06	-1.204270e-09	-3.349848e+01	-8.029896e+01
6.000000e-07	-4.816012e-06	-1.213121e-09	-3.333770e+01	-8.008618e+01
6.100000e-07	-4.792560e-06	-1.213126e-09	-3.317535e+01	-7.987285e+01
6.200000e-07	-4.768858e-06	-1.203902e-09	-3.301128e+01	-7.965904e+01
6.300000e-07	-4.744919e-06	-1.201295e-09	-3.284557e+01	-7.944482e+01
6.400000e-07	-4.720619e-06	-1.204661e-09	-3.267736e+01	-7.923023e+01
6.500000e-07	-4.695824e-06	-1.195213e-09	-3.250572e+01	-7.901526e+01
6.600000e-07	-4.670634e-06	-1.188892e-09	-3.233135e+01	-7.879989e+01
6.700000e-07	-4.645083e-06	-1.184916e-09	-3.215447e+01	-7.858408e+01
6.800000e-07	-4.618951e-06	-1.180337e-09	-3.197358e+01	-7.836774e+01
6.900000e-07	-4.592275e-06	-1.178053e-09	-3.178893e+01	-7.815076e+01
7.000000e-07	-4.565141e-06	-1.176981e-09	-3.160110e+01	-7.793303e+01
7.100000e-07	-4.537678e-06	-1.172384e-09	-3.141099e+01	-7.771438e+01
7.200000e-07	-4.510083e-06	-1.166222e-09	-3.121997e+01	-7.749463e+01
7.300000e-07	-4.482323e-06	-1.164643e-09	-3.102781e+01	-7.727360e+01
7.400000e-07	-4.454370e-06	-1.159158e-09	-3.083431e+01	-7.705104e+01
7.500000e-07	-4.426119e-06	-1.158113e-09	-3.063875e+01	-7.682673e+01
7.600000e-07	-4.397539e-06	-1.153452e-09	-3.044092e+01	-7.660041e+01
7.700000e-07	-4.368601e-06	-1.147684e-09	-3.024059e+01	-7.637180e+01
7.800000e-07	-4.339272e-06	-1.140249e-09	-3.003757e+01	-7.614063e+01
7.900000e-07	-4.309669e-06	-1.140374e-09	-2.983266e+01	-7.590661e+01
8.000000e-07	-4.279896e-06	-1.131245e-09	-2.962655e+01	-7.566943e+01
8.100000e-07	-4.249821e-06	-1.120702e-09	-2.941837e+01	-7.542878e+01
8.200000e-07	-4.219355e-06	-1.111817e-09	-2.920748e+01	-7.518437e+01
8.300000e-07	-4.188615e-06	-1.110830e-09	-2.899469e+01	-7.493587e+01
8.400000e-07	-4.157677e-06	-1.102944e-09	-2.878053e+01	-7.468300e+01
8.500000e-07	-4.126485e-06	-1.101744e-09	-2.856461e+01	-7.442544e+01
8.600000e-07	-4.095006e-06	-1.101582e-09	-2.834670e+01	-7.416291e+01
8.700000e-07	-4.063371e-06	-1.100798e-09	-2.812771e+01	-7.389512e+01
8.800000e-07	-4.031609e-06	-1.094160e-09	-2.790785e+01	-7.362180e+01
8.900000e-07	-3.999585e-06	-1.090207e-09	-2.768617e+01	-7.334269e+01
9.000000e-07	-3.967259e-06	-1.077567e-09	-2.746240e+01	-7.305756e+01
9.100000e-07	-3.934619e-06	-1.063021e-09	-2.723646e+01	-7.276617e+01
9.200000e-07	-3.901546e-06	-1.053457e-09	-2.700752e+01	-7.246833e+01
9.300000e-07	-3.868071e-06	-1.051137e-09	-2.677579e+01	-7.216385e+01
9.400000e-07	-3.834100e-06	-1.046347e-09	-2.654064e+01	-7.185257e+01
9.500000e-07	-3.799562e-06	-1.044992e-09	-2.630156e+01	-7.153435e+01
9.600000e-07	-3.764672e-06	-1.043690e-09	-2.606004e+01	-7.120908e+01
9.700000e-07	-3.729560e-06	-1.033517e-09	-2.581699e+01	-7.087666e+01
9.800000e-07	-3.694208e-06	-1.021245e-09	-2.557227e+01	-7.053704e+01
9.900000e-07	-3.658589e-06	-1.014628e-09	-2.532571e+01	-7.019018e+01
1.000000e-06	-3.622798e-06	-1.009197e-09	-2.507795e+01	-6.983605e+01
1.010000e-06	-3.586940e-06	-1.002661e-09	-2.482973e+01	-6.947467e+01
1.020000e-06	-3.550960e-06	-1.000378e-09	-2.458067e+01	-6.910608e+01
1.030000e-06	-3.514733e-06	-9.964895e-10	-2.432990e+01	-6.873033e+01
1.040000e-06	-3.478194e-06	-9.930434e-10	-2.407696e+01	-6.834751e+01
1.050000e-06	-3.441408e-06	-9.871621e-10	-2.382232e+01	-6.795771e+01
1.060000e-06	-3.404368e-06	-9.800996e-10	-2.356592e+01	-6.756105e+01
1.070000e-06	-3.367075e-06	-9.685267e-10	-2.330777e+01	-6.715769e+01
1.080000e-06	-3.329542e-06	-9.622162e-10	-2.304796e+01	-6.674777e+01
1.090000e-06	-3.291775e-06	-9.586419e-10	-2.278652e+01	-6.633146e+01
1.100000e-06	-3.253800e-06	-9.540155e-10	-2.252365e+01	-6.590896e+01
1.110000e-06	-3.215573e-06	-9.453839e-10	-2.225903e+01	-6.548045e+01
1.120000e-06	-3.177210e-06	-9.410385e-10	-2.199347e+01	-6.504614e+01
1.130000e-06	-3.138637e-06	-9.342602e-10	-2.172647e+01	-6.460624e+01
1.140000e-06	-3.099769e-06	-9.274626e-10	-2.145741e+01	-6.416097e+01
1.150000e-06	-3.060671e-06	-9.206415e-10	-2.118676e+01	-6.371052e+01
1.160000e-06	-3.021363e-06	-9.133921e-10	-2.091466e+01	-6.325513e+01
1.170000e-06	-2.981960e-06	-9.020191e-10	-2.064191e+01	-6.279499e+01
1.180000e-06	-2.942464e-06	-8.948123e-10	-2.036850e+01	-6.233031e+01
1.190000e-06	-2.902776e-06	-8.890037e-10	-2.009378e+01	-6.186128e+01
1.200000e-06	-2.862877e-06	-8.824280e-10	-1.981758e+01	-6.138808e+01
1.210000e-06	-2.822866e-06	-8.743985e-10	-1.954061e+01	-6.091088e+01
1.220000e-06	-2.782725e-06	-8.680387e-10	-1.926275e+01	-6.042982e+01
1.230000e-06	-2.742331e-06	-8.595595e-10	-1.898313e+01	-5.994504e+01
1.240000e-06	-2.701680e-06	-8.503768e-10	-1.870173e+01	-5.945664e+01
1.250000e-06	-2.660752e-06	-8.435629e-10	-1.841842e+01	-5.896472e+01
1.260000e-06	-2.619554e-06	-8.353806e-10	-1.813323e+01	-5.846934e+01
1.270000e-06	-2.578114e-06	-8.280239e-10	-1.784638e+01	-5.797052e+01
1.280000e-06	-2.536407e-06	-8.224032e-10	-1.755767e+01	-5.746829e+01
1.290000e-06	-2.494341e-06	-8.186468e-10	-1.726648e+01	-5.696261e+01
1.300000e-06	-2.451895e-06	-8.120882e-10	-1.697265e+01	-5.645342e+01
1.310000e-06	-2.409173e-06	-8.028635e-10	-1.667692e+01	-5.594066e+01
1.320000e-06	-2.366200e-06	-7.912731e-10	-1.637945e+01	-5.542419e+01
1.330000e-06	-2.323044e-06	-7.795831e-10	-1.608072e+01	-5.490386e+01
1.340000e-06	-2.279792e-06	-7.694410e-10	-1.578132e+01	-5.437949e+01
1.350000e-06	-2.236450e-06	-7.638793e-10	-1.548129e+01	-5.385086e+01
1.360000e-06	-2.192986e-06	-7.593902e-10	-1.518042e+01	-5.331772e+01
1.370000e-06	-2.149364e-06	-7.545055e-10	-1.487846e+01	-5.277976e+01
1.380000e-06	-2.105623e-06	-7.454696e-10	-1.457567e+01	-5.223669e+01
1.390000e-06	-2.061804e-06	-7.314512e-10	-1.427234e+01	-5.168813e+01
1.400000e-06	-2.017862e-06	-7.158143e-10	-1.396817e+01	-5.113371e+01
1.410000e-06	-1.973859e-06	-7.035364e-10	-1.366357e+01	-5.057302e+01
1.420000e-06	-1.929779e-06	-6.929386e-10	-1.335843e+01	-5.000560e+01
1.430000e-06	-1.885581e-06	-6.848649e-10	-1.305248e+01	-4.943098e+01
1.440000e-06	-1.841272e-06	-6.783257e-10	-1.274576e+01	-4.884867e+01
1.450000e-06	-1.796864e-06	-6.718332e-10	-1.243836e+01	-4.825814e+01
1.460000e-06	-1.752310e-06	-6.633286e-10	-1.212995e+01	-4.765886e+01
1.470000e-06	-1.707531e-06	-6.525646e-10	-1.181998e+01	-4.705026e+01
1.480000e-06	-1.662574e-06	-6.400862e-10	-1.150877e+01	-4.643176e+01
1.490000e-06	-1.617548e-06	-6.259304e-10	-1.119709e+01	-4.580276e+01
1.500000e-06	-1.572466e-06	-6.126757e-10	-1.088502e+01	-4.516267e+01
1.510000e-06	-1.527158e-06	-6.010335e-10	-1.057139e+01	-4.451087e+01
1.520000e-06	-1.481628e-06	-5.913750e-10	-1.025622e+01	-4.384674e+01
1.530000e-06	-1.436039e-06	-5.864352e-10	-9.940639e+00	-4.316966e+01
1.540000e-06	-1.390439e-06	-5.799073e-10	-9.624981e+00	-4.247901e+01
1.550000e-06	-1.344808e-06	-5.690916e-10	-9.309111e+00	-4.177418e+01
1.560000e-06	-1.299131e-06	-5.562776e-10	-8.992922e+00	-4.105455e+01
1.570000e-06	-1.253336e-06	-5.432070e-10	-8.675922e+00	-4.031953e+01
1.580000e-06	-1.207415e-06	-5.285581e-10	-8.358038e+00	-3.956853e+01
1.590000e-06	-1.161421e-06	-5.145694e-10	-8.039662e+00	-3.880099e+01
1.600000e-06	-1.115281e-06	-5.038289e-10	-7.720263e+00	-3.801636e+01
1.610000e-06	-1.069023e-06	-4.939269e-10	-7.400058e+00	-3.721412e+01
1.620000e-06	-1.022713e-06	-4.843231e-10	-7.079485e+00	-3.639377e+01
1.630000e-06	-9.763731e-07	-4.724437e-10	-6.758710e+00	-3.555485e+01
1.640000e-06	-9.300357e-07	-4.580247e-10	-6.437950e+00	-3.469694e+01
1.650000e-06	-8.835625e-07	-4.405572e-10	-6.116250e+00	-3.381963e+01
1.660000e-06	-8.370354e-07	-4.236826e-10	-5.794178e+00	-3.292256e+01
1.670000e-06	-7.905375e-07	-4.096997e-10	-5.472307e+00	-3.200544e+01
1.680000e-06	-7.439844e-07	-3.982136e-10	-5.150054e+00	-3.106799e+01
1.690000e-06	-6.973369e-07	-3.857419e-10	-4.827148e+00	-3.010999e+01
1.700000e-06	-6.506130e-07	-3.720469e-10	-4.503713e+00	-2.913126e+01
1.710000e-06	-6.038209e-07	-3.573943e-10	-4.179806e+00	-2.813170e+01
1.720000e-06	-5.570154e-07	-3.415025e-10	-3.855806e+00	-2.711123e+01
1.730000e-06	-5.102068e-07	-3.233404e-10	-3.531785e+00	-2.606984e+01
1.740000e-06	-4.633458e-07	-3.047337e-10	-3.207400e+00	-2.500758e+01
1.750000e-06	-4.164210e-07	-2.882180e-10	-2.882575e+00	-2.392455e+01
1.760000e-06	-3.694497e-07	-2.741173e-10	-2.557427e+00	-2.282092e+01
1.770000e-06	-3.224912e-07	-2.595978e-10	-2.232368e+00	-2.169690e+01
1.780000e-06	-2.755503e-07	-2.440085e-10	-1.907431e+00	-2.055277e+01
1.790000e-06	-2.285326e-07	-2.301816e-10	-1.581962e+00	-1.938888e+01
1.800000e-06	-1.814396e-07	-2.160040e-10	-1.255972e+00	-1.820563e+01
1.810000e-06	-1.343613e-07	-1.978517e-10	-9.300842e-01	-1.700347e+01
1.820000e-06	-8.729009e-08	-1.777234e-10	-6.042448e-01	-1.578293e+01
1.830000e-06	-4.024874e-08	-1.582701e-10	-2.786123e-01	-1.454458e+01
1.840000e-06	6.734420e-09	-1.392566e-10	4.661741e-02	-1.328906e+01
1.850000e-06	5.370748e-08	-1.228630e-10	3.717772e-01	-1.201705e+01
1.860000e-06	1.006919e-07	-1.074080e-10	6.970157e-01	-1.072930e+01
1.870000e-06	1.476419e-07	-8.935323e-11	1.022016e+00	-9.426596e+00
1.880000e-06	1.946433e-07	-7.114839e-11	1.347372e+00	-8.109786e+00
1.890000e-06	2.417023e-07	-5.356327e-11	1.673126e+00	-6.779757e+00
1.900000e-06	2.887629e-07	-3.535510e-11	1.998892e+00	-5.437443e+00
1.910000e-06	3.358380e-07	-1.628253e-11	2.324758e+00	-4.083818e+00
1.920000e-06	3.828351e-07	4.492449e-12	2.650084e+00	-2.719893e+00
1.930000e-06	4.297962e-07	2.470140e-11	2.975162e+00	-1.346714e+00
1.940000e-06	4.767253e-07	4.462961e-11	3.300017e+00	3.464152e-02
1.950000e-06	5.236012e-07	6.256445e-11	3.624504e+00	1.423069e+00
1.960000e-06	5.704175e-07	7.749127e-11	3.948579e+00	2.817441e+00
1.970000e-06	6.171466e-07	9.199756e-11	4.272050e+00	4.216611e+00
1.980000e-06	6.638221e-07	1.083409e-10	4.595150e+00	5.619416e+00
1.990000e-06	7.103790e-07	1.255133e-10	4.917429e+00	7.024683e+00
2.000000e-06	7.569063e-07	1.456923e-10	5.239503e+00	8.431232e+00
2.010000e-06	8.034113e-07	1.673728e-10	5.561423e+00	9.837879e+00
2.020000e-06	8.497825e-07	1.898276e-10	5.882416e+00	1.124344e+01
2.030000e-06	8.960755e-07	2.146678e-10	6.202868e+00	1.264675e+01
2.040000e-06	9.423732e-07	2.353896e-10	6.523353e+00	1.404663e+01
2.050000e-06	9.885902e-07	2.536913e-10	6.843279e+00	1.544193e+01
2.060000e-06	1.034769e-06	2.709223e-10	7.162939e+00	1.683153e+01
2.070000e-06	1.080937e-06	2.865736e-10	7.482530e+00	1.821430e+01
2.080000e-06	1.126975e-06	3.030581e-10	7.801214e+00	1.958916e+01
2.090000e-06	1.172859e-06	3.230056e-10	8.118834e+00	2.095507e+01
2.100000e-06	1.218621e-06	3.457383e-10	8.435614e+00	2.231098e+01
2.110000e-06	1.264415e-06	3.662453e-10	8.752614e+00	2.365593e+01
2.120000e-06	1.310185e-06	3.849338e-10	9.069443e+00	2.498896e+01
2.130000e-06	1.355793e-06	4.025916e-10	9.385154e+00	2.630916e+01
2.140000e-06	1.401306e-06	4.190211e-10	9.700207e+00	2.761569e+01
2.150000e-06	1.446770e-06	4.331720e-10	1.001492e+01	2.890772e+01
2.160000e-06	1.492157e-06	4.494056e-10	1.032910e+01	3.018449e+01
2.170000e-06	1.537389e-06	4.666990e-10	1.064221e+01	3.144530e+01
2.180000e-06	1.582468e-06	4.838238e-10	1.095426e+01	3.268948e+01
2.190000e-06	1.627455e-06	5.026762e-10	1.126567e+01	3.391644e+01
2.200000e-06	1.672246e-06	5.232598e-10	1.157572e+01	3.512562e+01
2.210000e-06	1.716888e-06	5.434837e-10	1.188474e+01	3.631653e+01
2.220000e-06	1.761509e-06	5.589069e-10	1.219363e+01	3.748874e+01
2.230000e-06	1.806000e-06	5.737507e-10	1.250161e+01	3.864186e+01
2.240000e-06	1.850293e-06	5.886915e-10	1.280821e+01	3.977557e+01
2.250000e-06	1.894403e-06	6.035882e-10	1.311355e+01	4.088961e+01
2.260000e-06	1.938392e-06	6.187073e-10	1.341806e+01	4.198374e+01
2.270000e-06	1.982280e-06	6.330886e-10	1.372186e+01	4.305783e+01
2.280000e-06	2.026065e-06	6.474427e-10	1.402495e+01	4.411174e+01
2.290000e-06	2.069810e-06	6.604175e-10	1.432776e+01	4.514543e+01
2.300000e-06	2.113522e-06	6.718134e-10	1.463035e+01	4.615889e+01
2.310000e-06	2.157199e-06	6.848249e-10	1.493270e+01	4.715214e+01
2.320000e-06	2.200789e-06	6.996460e-10	1.523444e+01	4.812528e+01
2.330000e-06	2.244276e-06	7.152506e-10	1.553546e+01	4.907841e+01
2.340000e-06	2.287631e-06	7.307210e-10	1.583558e+01	5.001171e+01
2.350000e-06	2.330843e-06	7.439083e-10	1.613471e+01	5.092536e+01
2.360000e-06	2.373934e-06	7.553851e-10	1.643299e+01	5.181960e+01
2.370000e-06	2.416916e-06	7.665317e-10	1.673052e+01	5.269469e+01
2.380000e-06	2.459676e-06	7.762674e-10	1.702652e+01	5.355091e+01
2.390000e-06	2.501992e-06	7.839578e-10	1.731944e+01	5.438857e+01
2.400000e-06	2.543970e-06	7.929382e-10	1.761003e+01	5.520801e+01
2.410000e-06	2.585781e-06	8.049921e-10	1.789945e+01	5.600959e+01
2.420000e-06	2.627141e-06	8.180697e-10	1.818575e+01	5.679365e+01
2.430000e-06	2.667994e-06	8.309670e-10	1.846855e+01	5.756059e+01
2.440000e-06	2.708593e-06	8.429382e-10	1.874958e+01	5.831079e+01
2.450000e-06	2.748922e-06	8.533117e-10	1.902876e+01	5.904464e+01
2.460000e-06	2.789048e-06	8.602953e-10	1.930652e+01	5.976255e+01
2.470000e-06	2.829017e-06	8.681261e-10	1.958320e+01	6.046490e+01
2.480000e-06	2.868789e-06	8.762699e-10	1.985850e+01	6.115209e+01
2.490000e-06	2.908458e-06	8.845458e-10	2.013311e+01	6.182452e+01
2.500000e-06	2.948067e-06	8.954730e-10	2.040729e+01	6.248258e+01
2.510000e-06	2.987597e-06	9.083253e-10	2.068093e+01	6.312664e+01
2.520000e-06	3.026975e-06	9.202010e-10	2.095351e+01	6.375707e+01
2.530000e-06	3.066150e-06	9.312111e-10	2.122469e+01	6.437423e+01
2.540000e-06	3.105177e-06	9.422482e-10	2.149485e+01	6.497847e+01
2.550000e-06	3.143961e-06	9.486648e-10	2.176332e+01	6.557012e+01
2.560000e-06	3.182452e-06	9.525897e-10	2.202976e+01	6.614949e+01
2.570000e-06	3.220688e-06	9.589943e-10	2.229444e+01	6.671690e+01
2.580000e-06	3.258689e-06	9.685219e-10	2.255750e+01	6.727263e+01
2.590000e-06	3.296489e-06	9.766128e-10	2.281916e+01	6.781696e+01
2.600000e-06	3.334035e-06	9.852683e-10	2.307906e+01	6.835013e+01
2.610000e-06	3.371393e-06	9.944382e-10	2.333766e+01	6.887240e+01
2.620000e-06	3.408604e-06	1.002406e-09	2.359525e+01	6.938399e+01
2.630000e-06	3.445528e-06	1.008814e-09	2.385084e+01	6.988510e+01
2.640000e-06	3.482186e-06	1.014663e-09	2.410460e+01	7.037594e+01
2.650000e-06	3.518580e-06	1.023195e-09	2.435653e+01	7.085670e+01
2.660000e-06	3.554647e-06	1.031703e-09	2.460620e+01	7.132754e+01
2.670000e-06	3.590492e-06	1.038853e-09	2.485432e+01	7.178861e+01
2.680000e-06	3.626271e-06	1.043742e-09	2.510199e+01	7.224009e+01
2.690000e-06	3.661979e-06	1.046488e-09	2.534918e+01	7.268209e+01
2.700000e-06	3.697553e-06	1.049971e-09	2.559542e+01	7.311476e+01
2.710000e-06	3.733030e-06	1.055464e-09	2.584101e+01	7.353822e+01
2.720000e-06	3.768276e-06	1.062672e-09	2.608499e+01	7.395259e+01
2.730000e-06	3.803221e-06	1.071574e-09	2.632689e+01	7.435799e+01
2.740000e-06	3.837818e-06	1.080235e-09	2.656638e+01	7.475452e+01
2.750000e-06	3.871905e-06	1.084210e-09	2.680234e+01	7.514231e+01
2.760000e-06	3.905431e-06	1.085293e-09	2.703441e+01	7.552145e+01
2.770000e-06	3.938357e-06	1.084922e-09	2.726234e+01	7.589205e+01
2.780000e-06	3.970758e-06	1.085696e-09	2.748662e+01	7.625424e+01
2.790000e-06	4.002801e-06	1.089811e-09	2.770843e+01	7.660812e+01
2.800000e-06	4.034670e-06	1.097193e-09	2.792904e+01	7.695380e+01
2.810000e-06	4.066433e-06	1.104509e-09	2.814891e+01	7.729141e+01
2.820000e-06	4.098092e-06	1.111440e-09	2.836806e+01	7.762106e+01
2.830000e-06	4.129635e-06	1.117905e-09	2.858641e+01	7.794289e+01
2.840000e-06	4.160979e-06	1.121341e-09	2.880338e+01	7.825703e+01
2.850000e-06	4.192060e-06	1.124280e-09	2.901854e+01	7.856362e+01
2.860000e-06	4.222824e-06	1.125979e-09	2.923149e+01	7.886279e+01
2.870000e-06	4.253155e-06	1.125408e-09	2.944145e+01	7.915469e+01
2.880000e-06	4.283099e-06	1.125813e-09	2.964873e+01	7.943947e+01
2.890000e-06	4.312799e-06	1.129399e-09	2.985432e+01	7.971729e+01
2.900000e-06	4.342315e-06	1.135559e-09	3.005864e+01	7.998830e+01
