# Temperatura_=_-0.34
# Concentracion g/m^3_=_1620.0
# C_Vs_to_Am_M_A/Vsm_=_65563218390.804596
# pendiente_HvsI_1/m_=_3716.3
# ordenada_HvsI_A/m_=_1297.0
# frecuencia_Hz_=_135092.87861390185

Tiempo_(s)	Campo_(V.s)	Magnetizacion_(V.s)	Campo_(kA/m)	Magnetizacion_(A/m)
0.000000e+00	-5.509212e-06	-1.737569e-09	-3.837307e+01	-1.108807e+02
1.000000e-08	-5.509472e-06	-1.735925e-09	-3.837489e+01	-1.108201e+02
2.000000e-08	-5.509517e-06	-1.732538e-09	-3.837520e+01	-1.107564e+02
3.000000e-08	-5.509289e-06	-1.729913e-09	-3.837361e+01	-1.106898e+02
4.000000e-08	-5.508471e-06	-1.727810e-09	-3.836791e+01	-1.106203e+02
5.000000e-08	-5.507013e-06	-1.724285e-09	-3.835776e+01	-1.105481e+02
6.000000e-08	-5.504990e-06	-1.716238e-09	-3.834367e+01	-1.104733e+02
7.000000e-08	-5.502493e-06	-1.700312e-09	-3.832628e+01	-1.103960e+02
8.000000e-08	-5.499538e-06	-1.709379e-09	-3.830569e+01	-1.103163e+02
9.000000e-08	-5.495997e-06	-1.782800e-09	-3.828103e+01	-1.102343e+02
1.000000e-07	-5.491972e-06	-1.811200e-09	-3.825300e+01	-1.101501e+02
1.100000e-07	-5.487570e-06	-1.703104e-09	-3.822233e+01	-1.100637e+02
1.200000e-07	-5.483009e-06	-1.651094e-09	-3.819056e+01	-1.099753e+02
1.300000e-07	-5.478424e-06	-1.704129e-09	-3.815863e+01	-1.098848e+02
1.400000e-07	-5.473414e-06	-1.777958e-09	-3.812373e+01	-1.097923e+02
1.500000e-07	-5.467853e-06	-1.697620e-09	-3.808500e+01	-1.096979e+02
1.600000e-07	-5.461991e-06	-1.650380e-09	-3.804417e+01	-1.096014e+02
1.700000e-07	-5.455895e-06	-1.741210e-09	-3.800171e+01	-1.095030e+02
1.800000e-07	-5.449281e-06	-1.768446e-09	-3.795564e+01	-1.094026e+02
1.900000e-07	-5.442080e-06	-1.690396e-09	-3.790548e+01	-1.093001e+02
2.000000e-07	-5.434591e-06	-1.605694e-09	-3.785332e+01	-1.091956e+02
2.100000e-07	-5.426938e-06	-1.667539e-09	-3.780001e+01	-1.090889e+02
2.200000e-07	-5.419014e-06	-1.701761e-09	-3.774483e+01	-1.089799e+02
2.300000e-07	-5.410786e-06	-1.689208e-09	-3.768751e+01	-1.088687e+02
2.400000e-07	-5.402301e-06	-1.641357e-09	-3.762841e+01	-1.087550e+02
2.500000e-07	-5.393116e-06	-1.653084e-09	-3.756444e+01	-1.086387e+02
2.600000e-07	-5.382956e-06	-1.643380e-09	-3.749367e+01	-1.085197e+02
2.700000e-07	-5.372286e-06	-1.651989e-09	-3.741935e+01	-1.083978e+02
2.800000e-07	-5.361258e-06	-1.643964e-09	-3.734254e+01	-1.082730e+02
2.900000e-07	-5.349767e-06	-1.637616e-09	-3.726250e+01	-1.081450e+02
3.000000e-07	-5.337988e-06	-1.634412e-09	-3.718046e+01	-1.080136e+02
3.100000e-07	-5.325908e-06	-1.648033e-09	-3.709631e+01	-1.078786e+02
3.200000e-07	-5.313323e-06	-1.631284e-09	-3.700866e+01	-1.077399e+02
3.300000e-07	-5.300172e-06	-1.600887e-09	-3.691705e+01	-1.075973e+02
3.400000e-07	-5.286672e-06	-1.621548e-09	-3.682302e+01	-1.074506e+02
3.500000e-07	-5.272881e-06	-1.625871e-09	-3.672697e+01	-1.072996e+02
3.600000e-07	-5.258569e-06	-1.601657e-09	-3.662729e+01	-1.071440e+02
3.700000e-07	-5.243753e-06	-1.602420e-09	-3.652409e+01	-1.069837e+02
3.800000e-07	-5.228651e-06	-1.617325e-09	-3.641890e+01	-1.068185e+02
3.900000e-07	-5.213019e-06	-1.573909e-09	-3.631001e+01	-1.066482e+02
4.000000e-07	-5.196734e-06	-1.574184e-09	-3.619659e+01	-1.064726e+02
4.100000e-07	-5.180168e-06	-1.612231e-09	-3.608120e+01	-1.062916e+02
4.200000e-07	-5.163214e-06	-1.589703e-09	-3.596311e+01	-1.061050e+02
4.300000e-07	-5.145904e-06	-1.540307e-09	-3.584254e+01	-1.059127e+02
4.400000e-07	-5.128447e-06	-1.594088e-09	-3.572095e+01	-1.057145e+02
4.500000e-07	-5.110538e-06	-1.593429e-09	-3.559621e+01	-1.055103e+02
4.600000e-07	-5.092041e-06	-1.526569e-09	-3.546737e+01	-1.053000e+02
4.700000e-07	-5.073183e-06	-1.531352e-09	-3.533602e+01	-1.050835e+02
4.800000e-07	-5.054098e-06	-1.588023e-09	-3.520309e+01	-1.048608e+02
4.900000e-07	-5.034704e-06	-1.539733e-09	-3.506800e+01	-1.046318e+02
5.000000e-07	-5.015036e-06	-1.532557e-09	-3.493101e+01	-1.043965e+02
5.100000e-07	-4.995178e-06	-1.577850e-09	-3.479269e+01	-1.041548e+02
5.200000e-07	-4.975119e-06	-1.549589e-09	-3.465298e+01	-1.039067e+02
5.300000e-07	-4.954683e-06	-1.499320e-09	-3.451064e+01	-1.036524e+02
5.400000e-07	-4.933825e-06	-1.550175e-09	-3.436536e+01	-1.033917e+02
5.500000e-07	-4.912669e-06	-1.545511e-09	-3.421800e+01	-1.031249e+02
5.600000e-07	-4.891216e-06	-1.489314e-09	-3.406857e+01	-1.028519e+02
5.700000e-07	-4.869411e-06	-1.517979e-09	-3.391670e+01	-1.025728e+02
5.800000e-07	-4.847272e-06	-1.555281e-09	-3.376249e+01	-1.022878e+02
5.900000e-07	-4.824724e-06	-1.504556e-09	-3.360544e+01	-1.019970e+02
6.000000e-07	-4.801719e-06	-1.497228e-09	-3.344520e+01	-1.017005e+02
6.100000e-07	-4.778380e-06	-1.534621e-09	-3.328264e+01	-1.013984e+02
6.200000e-07	-4.754821e-06	-1.507070e-09	-3.311855e+01	-1.010909e+02
6.300000e-07	-4.731141e-06	-1.485022e-09	-3.295361e+01	-1.007781e+02
6.400000e-07	-4.707269e-06	-1.511382e-09	-3.278734e+01	-1.004602e+02
6.500000e-07	-4.683107e-06	-1.500068e-09	-3.261904e+01	-1.001374e+02
6.600000e-07	-4.658525e-06	-1.467676e-09	-3.244782e+01	-9.980987e+01
6.700000e-07	-4.633451e-06	-1.484797e-09	-3.227317e+01	-9.947771e+01
6.800000e-07	-4.607866e-06	-1.486021e-09	-3.209497e+01	-9.914109e+01
6.900000e-07	-4.581696e-06	-1.461691e-09	-3.191269e+01	-9.880019e+01
7.000000e-07	-4.555019e-06	-1.460759e-09	-3.172688e+01	-9.845514e+01
7.100000e-07	-4.527926e-06	-1.472346e-09	-3.153817e+01	-9.810609e+01
7.200000e-07	-4.500442e-06	-1.450282e-09	-3.134673e+01	-9.775317e+01
7.300000e-07	-4.472782e-06	-1.443230e-09	-3.115408e+01	-9.739648e+01
7.400000e-07	-4.445065e-06	-1.443796e-09	-3.096102e+01	-9.703613e+01
7.500000e-07	-4.417212e-06	-1.434408e-09	-3.076702e+01	-9.667220e+01
7.600000e-07	-4.389124e-06	-1.421414e-09	-3.057137e+01	-9.630476e+01
7.700000e-07	-4.360656e-06	-1.425781e-09	-3.037309e+01	-9.593386e+01
7.800000e-07	-4.331790e-06	-1.414656e-09	-3.017203e+01	-9.555953e+01
7.900000e-07	-4.302497e-06	-1.404124e-09	-2.996799e+01	-9.518177e+01
8.000000e-07	-4.272900e-06	-1.402415e-09	-2.976185e+01	-9.480059e+01
8.100000e-07	-4.243097e-06	-1.397807e-09	-2.955426e+01	-9.441594e+01
8.200000e-07	-4.213028e-06	-1.377236e-09	-2.934482e+01	-9.402778e+01
8.300000e-07	-4.182770e-06	-1.370744e-09	-2.913407e+01	-9.363602e+01
8.400000e-07	-4.152179e-06	-1.367019e-09	-2.892099e+01	-9.324059e+01
8.500000e-07	-4.121253e-06	-1.356701e-09	-2.870558e+01	-9.284137e+01
8.600000e-07	-4.090113e-06	-1.348305e-09	-2.848868e+01	-9.243824e+01
8.700000e-07	-4.058739e-06	-1.348715e-09	-2.827016e+01	-9.203103e+01
8.800000e-07	-4.027109e-06	-1.341326e-09	-2.804985e+01	-9.161960e+01
8.900000e-07	-3.995300e-06	-1.331468e-09	-2.782829e+01	-9.120376e+01
9.000000e-07	-3.963446e-06	-1.325351e-09	-2.760642e+01	-9.078332e+01
9.100000e-07	-3.931339e-06	-1.311634e-09	-2.738278e+01	-9.035809e+01
9.200000e-07	-3.898793e-06	-1.295827e-09	-2.715610e+01	-8.992786e+01
9.300000e-07	-3.865907e-06	-1.289588e-09	-2.692704e+01	-8.949241e+01
9.400000e-07	-3.832618e-06	-1.288732e-09	-2.669517e+01	-8.905153e+01
9.500000e-07	-3.798766e-06	-1.277949e-09	-2.645938e+01	-8.860499e+01
9.600000e-07	-3.764432e-06	-1.271485e-09	-2.622023e+01	-8.815258e+01
9.700000e-07	-3.729668e-06	-1.267223e-09	-2.597809e+01	-8.769408e+01
9.800000e-07	-3.694591e-06	-1.258013e-09	-2.573377e+01	-8.722927e+01
9.900000e-07	-3.659373e-06	-1.247858e-09	-2.548847e+01	-8.675796e+01
1.000000e-06	-3.623972e-06	-1.248008e-09	-2.524189e+01	-8.627996e+01
1.010000e-06	-3.588358e-06	-1.242416e-09	-2.499384e+01	-8.579508e+01
1.020000e-06	-3.552605e-06	-1.232172e-09	-2.474481e+01	-8.530317e+01
1.030000e-06	-3.516742e-06	-1.221795e-09	-2.449501e+01	-8.480406e+01
1.040000e-06	-3.480631e-06	-1.213845e-09	-2.424349e+01	-8.429764e+01
1.050000e-06	-3.444162e-06	-1.200031e-09	-2.398947e+01	-8.378379e+01
1.060000e-06	-3.407409e-06	-1.191585e-09	-2.373348e+01	-8.326242e+01
1.070000e-06	-3.370452e-06	-1.186433e-09	-2.347606e+01	-8.273347e+01
1.080000e-06	-3.333271e-06	-1.180010e-09	-2.321709e+01	-8.219690e+01
1.090000e-06	-3.295819e-06	-1.170978e-09	-2.295623e+01	-8.165269e+01
1.100000e-06	-3.258094e-06	-1.166324e-09	-2.269346e+01	-8.110083e+01
1.110000e-06	-3.220203e-06	-1.157293e-09	-2.242954e+01	-8.054137e+01
1.120000e-06	-3.182094e-06	-1.144330e-09	-2.216410e+01	-7.997435e+01
1.130000e-06	-3.143754e-06	-1.134573e-09	-2.189705e+01	-7.939985e+01
1.140000e-06	-3.105239e-06	-1.128549e-09	-2.162879e+01	-7.881797e+01
1.150000e-06	-3.066571e-06	-1.117692e-09	-2.135945e+01	-7.822883e+01
1.160000e-06	-3.027698e-06	-1.107295e-09	-2.108869e+01	-7.763256e+01
1.170000e-06	-2.988503e-06	-1.100293e-09	-2.081569e+01	-7.702931e+01
1.180000e-06	-2.949143e-06	-1.091213e-09	-2.054154e+01	-7.641927e+01
1.190000e-06	-2.909734e-06	-1.081760e-09	-2.026705e+01	-7.580261e+01
1.200000e-06	-2.870200e-06	-1.075239e-09	-1.999168e+01	-7.517952e+01
1.210000e-06	-2.830479e-06	-1.068683e-09	-1.971501e+01	-7.455021e+01
1.220000e-06	-2.790651e-06	-1.058311e-09	-1.943760e+01	-7.391487e+01
1.230000e-06	-2.750707e-06	-1.046825e-09	-1.915938e+01	-7.327371e+01
1.240000e-06	-2.710580e-06	-1.033770e-09	-1.887989e+01	-7.262693e+01
1.250000e-06	-2.670207e-06	-1.023291e-09	-1.859868e+01	-7.197472e+01
1.260000e-06	-2.629651e-06	-1.014398e-09	-1.831620e+01	-7.131728e+01
1.270000e-06	-2.588812e-06	-1.007999e-09	-1.803174e+01	-7.065476e+01
1.280000e-06	-2.547535e-06	-1.002537e-09	-1.774424e+01	-6.998732e+01
1.290000e-06	-2.505932e-06	-9.948584e-10	-1.745446e+01	-6.931509e+01
1.300000e-06	-2.464129e-06	-9.833975e-10	-1.716329e+01	-6.863818e+01
1.310000e-06	-2.422027e-06	-9.690985e-10	-1.687004e+01	-6.795667e+01
1.320000e-06	-2.379683e-06	-9.534370e-10	-1.657510e+01	-6.727060e+01
1.330000e-06	-2.337145e-06	-9.412212e-10	-1.627882e+01	-6.657999e+01
1.340000e-06	-2.294239e-06	-9.306190e-10	-1.597996e+01	-6.588482e+01
1.350000e-06	-2.251043e-06	-9.197826e-10	-1.567909e+01	-6.518501e+01
1.360000e-06	-2.207703e-06	-9.073373e-10	-1.537722e+01	-6.448047e+01
1.370000e-06	-2.164262e-06	-8.969628e-10	-1.507464e+01	-6.377103e+01
1.380000e-06	-2.120744e-06	-8.839123e-10	-1.477152e+01	-6.305651e+01
1.390000e-06	-2.077165e-06	-8.687989e-10	-1.446799e+01	-6.233666e+01
1.400000e-06	-2.033529e-06	-8.539802e-10	-1.416405e+01	-6.161118e+01
1.410000e-06	-1.989825e-06	-8.422587e-10	-1.385964e+01	-6.087974e+01
1.420000e-06	-1.945988e-06	-8.287967e-10	-1.355430e+01	-6.014195e+01
1.430000e-06	-1.902081e-06	-8.147708e-10	-1.324848e+01	-5.939737e+01
1.440000e-06	-1.858062e-06	-8.020752e-10	-1.294188e+01	-5.864550e+01
1.450000e-06	-1.813900e-06	-7.903276e-10	-1.263428e+01	-5.788584e+01
1.460000e-06	-1.769572e-06	-7.768922e-10	-1.232552e+01	-5.711779e+01
1.470000e-06	-1.725137e-06	-7.643010e-10	-1.201602e+01	-5.634074e+01
1.480000e-06	-1.680763e-06	-7.520261e-10	-1.170695e+01	-5.555403e+01
1.490000e-06	-1.636277e-06	-7.399469e-10	-1.139709e+01	-5.475697e+01
1.500000e-06	-1.591538e-06	-7.284694e-10	-1.108547e+01	-5.394884e+01
1.510000e-06	-1.546604e-06	-7.160059e-10	-1.077249e+01	-5.312888e+01
1.520000e-06	-1.501575e-06	-7.005264e-10	-1.045885e+01	-5.229631e+01
1.530000e-06	-1.456471e-06	-6.836258e-10	-1.014469e+01	-5.145033e+01
1.540000e-06	-1.411349e-06	-6.714014e-10	-9.830405e+00	-5.059014e+01
1.550000e-06	-1.366180e-06	-6.599830e-10	-9.515793e+00	-4.971489e+01
1.560000e-06	-1.320830e-06	-6.466454e-10	-9.199920e+00	-4.882377e+01
1.570000e-06	-1.275421e-06	-6.323775e-10	-8.883636e+00	-4.791595e+01
1.580000e-06	-1.229973e-06	-6.191420e-10	-8.567080e+00	-4.699060e+01
1.590000e-06	-1.184371e-06	-6.018894e-10	-8.249445e+00	-4.604691e+01
1.600000e-06	-1.138629e-06	-5.841728e-10	-7.930843e+00	-4.508411e+01
1.610000e-06	-1.092856e-06	-5.686311e-10	-7.612022e+00	-4.410141e+01
1.620000e-06	-1.047058e-06	-5.520220e-10	-7.293030e+00	-4.309808e+01
1.630000e-06	-1.001077e-06	-5.334175e-10	-6.972759e+00	-4.207342e+01
1.640000e-06	-9.549376e-07	-5.158273e-10	-6.651385e+00	-4.102677e+01
1.650000e-06	-9.087787e-07	-4.975787e-10	-6.329877e+00	-3.995752e+01
1.660000e-06	-8.625208e-07	-4.792763e-10	-6.007679e+00	-3.886512e+01
1.670000e-06	-8.162323e-07	-4.631788e-10	-5.685267e+00	-3.774905e+01
1.680000e-06	-7.699410e-07	-4.471592e-10	-5.362837e+00	-3.660887e+01
1.690000e-06	-7.236690e-07	-4.308800e-10	-5.040540e+00	-3.544422e+01
1.700000e-06	-6.774538e-07	-4.137606e-10	-4.718639e+00	-3.425478e+01
1.710000e-06	-6.310561e-07	-3.947425e-10	-4.395468e+00	-3.304034e+01
1.720000e-06	-5.845434e-07	-3.749388e-10	-4.071495e+00	-3.180073e+01
1.730000e-06	-5.380272e-07	-3.544067e-10	-3.747497e+00	-3.053589e+01
1.740000e-06	-4.914395e-07	-3.351872e-10	-3.423002e+00	-2.924582e+01
1.750000e-06	-4.446975e-07	-3.142760e-10	-3.097432e+00	-2.793062e+01
1.760000e-06	-3.979368e-07	-2.941836e-10	-2.771732e+00	-2.659047e+01
1.770000e-06	-3.512854e-07	-2.757549e-10	-2.446793e+00	-2.522563e+01
1.780000e-06	-3.046554e-07	-2.552503e-10	-2.122003e+00	-2.383646e+01
1.790000e-06	-2.579587e-07	-2.364579e-10	-1.796749e+00	-2.242339e+01
1.800000e-06	-2.111665e-07	-2.199879e-10	-1.470829e+00	-2.098695e+01
1.810000e-06	-1.644102e-07	-2.007302e-10	-1.145159e+00	-1.952774e+01
1.820000e-06	-1.176188e-07	-1.799313e-10	-8.192450e-01	-1.804645e+01
1.830000e-06	-7.081967e-08	-1.583387e-10	-4.932772e-01	-1.654385e+01
1.840000e-06	-2.410443e-08	-1.348696e-10	-1.678936e-01	-1.502078e+01
1.850000e-06	2.252711e-08	-1.113901e-10	1.569071e-01	-1.347816e+01
1.860000e-06	6.915253e-08	-9.109663e-11	4.816651e-01	-1.191699e+01
1.870000e-06	1.158158e-07	-7.141404e-11	8.066868e-01	-1.033830e+01
1.880000e-06	1.624955e-07	-5.154464e-11	1.131823e+00	-8.743222e+00
1.890000e-06	2.091725e-07	-3.282788e-11	1.456940e+00	-7.132917e+00
1.900000e-06	2.557807e-07	-1.194990e-11	1.781579e+00	-5.508610e+00
1.910000e-06	3.024212e-07	1.029508e-11	2.106441e+00	-3.871568e+00
1.920000e-06	3.491099e-07	3.506397e-11	2.431640e+00	-2.223097e+00
1.930000e-06	3.958171e-07	6.113334e-11	2.756968e+00	-5.645395e-01
1.940000e-06	4.424944e-07	8.676617e-11	3.082087e+00	1.102734e+00
1.950000e-06	4.891117e-07	1.101357e-10	3.406789e+00	2.777330e+00
1.960000e-06	5.355589e-07	1.312630e-10	3.730305e+00	4.457839e+00
1.970000e-06	5.819028e-07	1.526754e-10	4.053102e+00	6.142842e+00
1.980000e-06	6.282419e-07	1.750435e-10	4.375866e+00	7.830913e+00
1.990000e-06	6.744910e-07	1.965746e-10	4.698002e+00	9.520628e+00
2.000000e-06	7.206854e-07	2.192649e-10	5.019759e+00	1.121057e+01
2.010000e-06	7.668975e-07	2.427362e-10	5.341638e+00	1.289934e+01
2.020000e-06	8.130524e-07	2.695060e-10	5.663118e+00	1.458555e+01
2.030000e-06	8.591717e-07	2.970755e-10	5.984351e+00	1.626783e+01
2.040000e-06	9.052319e-07	3.227878e-10	6.305172e+00	1.794485e+01
2.050000e-06	9.511889e-07	3.453636e-10	6.625275e+00	1.961532e+01
2.060000e-06	9.971254e-07	3.660213e-10	6.945234e+00	2.127797e+01
2.070000e-06	1.042951e-06	3.890343e-10	7.264421e+00	2.293157e+01
2.080000e-06	1.088664e-06	4.113983e-10	7.582826e+00	2.457494e+01
2.090000e-06	1.134374e-06	4.350414e-10	7.901205e+00	2.620697e+01
2.100000e-06	1.180106e-06	4.609221e-10	8.219738e+00	2.782658e+01
2.110000e-06	1.225756e-06	4.856368e-10	8.537708e+00	2.943273e+01
2.120000e-06	1.271294e-06	5.064253e-10	8.854889e+00	3.102447e+01
2.130000e-06	1.316764e-06	5.265546e-10	9.171601e+00	3.260088e+01
2.140000e-06	1.362170e-06	5.468275e-10	9.487866e+00	3.416111e+01
2.150000e-06	1.407377e-06	5.691104e-10	9.802741e+00	3.570439e+01
2.160000e-06	1.452388e-06	5.899128e-10	1.011626e+01	3.722997e+01
2.170000e-06	1.497360e-06	6.109679e-10	1.042950e+01	3.873720e+01
2.180000e-06	1.542267e-06	6.329670e-10	1.074228e+01	4.022546e+01
2.190000e-06	1.587065e-06	6.521639e-10	1.105432e+01	4.169422e+01
2.200000e-06	1.631706e-06	6.695693e-10	1.136525e+01	4.314299e+01
2.210000e-06	1.676134e-06	6.879075e-10	1.167470e+01	4.457135e+01
2.220000e-06	1.720499e-06	7.057301e-10	1.198371e+01	4.597892e+01
2.230000e-06	1.764787e-06	7.225321e-10	1.229219e+01	4.736540e+01
2.240000e-06	1.808936e-06	7.420611e-10	1.259971e+01	4.873054e+01
2.250000e-06	1.852926e-06	7.646915e-10	1.290610e+01	5.007413e+01
2.260000e-06	1.896759e-06	7.867751e-10	1.321141e+01	5.139601e+01
2.270000e-06	1.940585e-06	8.061166e-10	1.351667e+01	5.269608e+01
2.280000e-06	1.984379e-06	8.236209e-10	1.382171e+01	5.397428e+01
2.290000e-06	2.028083e-06	8.385594e-10	1.412612e+01	5.523060e+01
2.300000e-06	2.071751e-06	8.519385e-10	1.443028e+01	5.646505e+01
2.310000e-06	2.115396e-06	8.650485e-10	1.473428e+01	5.767769e+01
2.320000e-06	2.158988e-06	8.826596e-10	1.503790e+01	5.886863e+01
2.330000e-06	2.202457e-06	9.031406e-10	1.534068e+01	6.003798e+01
2.340000e-06	2.245742e-06	9.251584e-10	1.564217e+01	6.118590e+01
2.350000e-06	2.288914e-06	9.437595e-10	1.594287e+01	6.231257e+01
2.360000e-06	2.331971e-06	9.571246e-10	1.624277e+01	6.341820e+01
2.370000e-06	2.374674e-06	9.681159e-10	1.654021e+01	6.450301e+01
2.380000e-06	2.416892e-06	9.769068e-10	1.683427e+01	6.556724e+01
2.390000e-06	2.458825e-06	9.880421e-10	1.712635e+01	6.661117e+01
2.400000e-06	2.500434e-06	1.004411e-09	1.741617e+01	6.763505e+01
2.410000e-06	2.541641e-06	1.021948e-09	1.770318e+01	6.863918e+01
2.420000e-06	2.582630e-06	1.037746e-09	1.798868e+01	6.962386e+01
2.430000e-06	2.623455e-06	1.051824e-09	1.827304e+01	7.058938e+01
2.440000e-06	2.664067e-06	1.063817e-09	1.855591e+01	7.153605e+01
2.450000e-06	2.704378e-06	1.072519e-09	1.883669e+01	7.246419e+01
2.460000e-06	2.744483e-06	1.082118e-09	1.911603e+01	7.337412e+01
2.470000e-06	2.784435e-06	1.094026e-09	1.939431e+01	7.426615e+01
2.480000e-06	2.824291e-06	1.106905e-09	1.967191e+01	7.514060e+01
2.490000e-06	2.864010e-06	1.119018e-09	1.994857e+01	7.599779e+01
2.500000e-06	2.903526e-06	1.130810e-09	2.022380e+01	7.683803e+01
2.510000e-06	2.942996e-06	1.142673e-09	2.049872e+01	7.766165e+01
2.520000e-06	2.982304e-06	1.153316e-09	2.077251e+01	7.846894e+01
2.530000e-06	3.021453e-06	1.164325e-09	2.104520e+01	7.926023e+01
2.540000e-06	3.060415e-06	1.176374e-09	2.131657e+01	8.003582e+01
2.550000e-06	3.099069e-06	1.187261e-09	2.158581e+01	8.079600e+01
2.560000e-06	3.137457e-06	1.195885e-09	2.185319e+01	8.154108e+01
2.570000e-06	3.175586e-06	1.204873e-09	2.211877e+01	8.227135e+01
2.580000e-06	3.213505e-06	1.215076e-09	2.238289e+01	8.298709e+01
2.590000e-06	3.251276e-06	1.225806e-09	2.264597e+01	8.368860e+01
2.600000e-06	3.288898e-06	1.235550e-09	2.290802e+01	8.437615e+01
2.610000e-06	3.326301e-06	1.243847e-09	2.316854e+01	8.505002e+01
2.620000e-06	3.363494e-06	1.250840e-09	2.342760e+01	8.571048e+01
2.630000e-06	3.400376e-06	1.260512e-09	2.368449e+01	8.635780e+01
2.640000e-06	3.436891e-06	1.270045e-09	2.393882e+01	8.699224e+01
2.650000e-06	3.473185e-06	1.279839e-09	2.419162e+01	8.761407e+01
2.660000e-06	3.509308e-06	1.291369e-09	2.444323e+01	8.822353e+01
2.670000e-06	3.545252e-06	1.299181e-09	2.469359e+01	8.882090e+01
2.680000e-06	3.581046e-06	1.303941e-09	2.494290e+01	8.940640e+01
2.690000e-06	3.616709e-06	1.307096e-09	2.519131e+01	8.998030e+01
2.700000e-06	3.652242e-06	1.310358e-09	2.543880e+01	9.054284e+01
2.710000e-06	3.687565e-06	1.317148e-09	2.568484e+01	9.109424e+01
2.720000e-06	3.722676e-06	1.327623e-09	2.592939e+01	9.163476e+01
2.730000e-06	3.757531e-06	1.339286e-09	2.617217e+01	9.216462e+01
2.740000e-06	3.791931e-06	1.350571e-09	2.641177e+01	9.268406e+01
2.750000e-06	3.825887e-06	1.360206e-09	2.664828e+01	9.319329e+01
2.760000e-06	3.859314e-06	1.366705e-09	2.688111e+01	9.369255e+01
2.770000e-06	3.892118e-06	1.370466e-09	2.710960e+01	9.418205e+01
2.780000e-06	3.924587e-06	1.374793e-09	2.733576e+01	9.466199e+01
2.790000e-06	3.956864e-06	1.381783e-09	2.756057e+01	9.513260e+01
2.800000e-06	3.988865e-06	1.387659e-09	2.778347e+01	9.559408e+01
2.810000e-06	4.020639e-06	1.392668e-09	2.800478e+01	9.604662e+01
2.820000e-06	4.052253e-06	1.399577e-09	2.822498e+01	9.649042e+01
2.830000e-06	4.083822e-06	1.406108e-09	2.844487e+01	9.692567e+01
2.840000e-06	4.115273e-06	1.412046e-09	2.866393e+01	9.735256e+01
2.850000e-06	4.146298e-06	1.416666e-09	2.888003e+01	9.777126e+01
2.860000e-06	4.176950e-06	1.423455e-09	2.909353e+01	9.818194e+01
2.870000e-06	4.207282e-06	1.431493e-09	2.930480e+01	9.858477e+01
2.880000e-06	4.237284e-06	1.435210e-09	2.951377e+01	9.897991e+01
2.890000e-06	4.267066e-06	1.436607e-09	2.972121e+01	9.936751e+01
2.900000e-06	4.296544e-06	1.439024e-09	2.992653e+01	9.974771e+01
