# Temperatura_=_-0.5
# Concentracion g/m^3_=_1620.0
# C_Vs_to_Am_M_A/Vsm_=_65563218390.804596
# pendiente_HvsI_1/m_=_3716.3
# ordenada_HvsI_A/m_=_1297.0
# frecuencia_Hz_=_135095.09844448432

Tiempo_(s)	Campo_(V.s)	Magnetizacion_(V.s)	Campo_(kA/m)	Magnetizacion_(A/m)
0.000000e+00	-5.519765e-06	-1.357699e-09	-3.838001e+01	-8.971867e+01
1.000000e-08	-5.520104e-06	-1.355336e-09	-3.838236e+01	-8.968894e+01
2.000000e-08	-5.520198e-06	-1.352926e-09	-3.838302e+01	-8.965692e+01
3.000000e-08	-5.519883e-06	-1.351635e-09	-3.838083e+01	-8.962256e+01
4.000000e-08	-5.519082e-06	-1.351046e-09	-3.837526e+01	-8.958581e+01
5.000000e-08	-5.517789e-06	-1.350911e-09	-3.836627e+01	-8.954660e+01
6.000000e-08	-5.515887e-06	-1.348369e-09	-3.835305e+01	-8.950489e+01
7.000000e-08	-5.513440e-06	-1.350928e-09	-3.833603e+01	-8.946060e+01
8.000000e-08	-5.510499e-06	-1.365316e-09	-3.831558e+01	-8.941367e+01
9.000000e-08	-5.506994e-06	-1.359837e-09	-3.829121e+01	-8.936405e+01
1.000000e-07	-5.503024e-06	-1.330556e-09	-3.826361e+01	-8.931166e+01
1.100000e-07	-5.498609e-06	-1.355541e-09	-3.823291e+01	-8.925644e+01
1.200000e-07	-5.493980e-06	-1.328577e-09	-3.820072e+01	-8.919832e+01
1.300000e-07	-5.489302e-06	-1.364758e-09	-3.816819e+01	-8.913724e+01
1.400000e-07	-5.484275e-06	-1.352811e-09	-3.813324e+01	-8.907314e+01
1.500000e-07	-5.478782e-06	-1.341611e-09	-3.809504e+01	-8.900595e+01
1.600000e-07	-5.472902e-06	-1.339149e-09	-3.805416e+01	-8.893561e+01
1.700000e-07	-5.466637e-06	-1.328367e-09	-3.801060e+01	-8.886207e+01
1.800000e-07	-5.459926e-06	-1.365958e-09	-3.796394e+01	-8.878526e+01
1.900000e-07	-5.452774e-06	-1.335483e-09	-3.791421e+01	-8.870512e+01
2.000000e-07	-5.445342e-06	-1.339767e-09	-3.786253e+01	-8.862162e+01
2.100000e-07	-5.437709e-06	-1.327463e-09	-3.780946e+01	-8.853468e+01
2.200000e-07	-5.429839e-06	-1.375852e-09	-3.775473e+01	-8.844428e+01
2.300000e-07	-5.421646e-06	-1.353464e-09	-3.769777e+01	-8.835036e+01
2.400000e-07	-5.413072e-06	-1.349593e-09	-3.763815e+01	-8.825288e+01
2.500000e-07	-5.403934e-06	-1.319335e-09	-3.757461e+01	-8.815180e+01
2.600000e-07	-5.394017e-06	-1.344511e-09	-3.750566e+01	-8.804708e+01
2.700000e-07	-5.383426e-06	-1.333732e-09	-3.743202e+01	-8.793870e+01
2.800000e-07	-5.372341e-06	-1.318881e-09	-3.735494e+01	-8.782661e+01
2.900000e-07	-5.360852e-06	-1.303091e-09	-3.727506e+01	-8.771079e+01
3.000000e-07	-5.349017e-06	-1.318611e-09	-3.719277e+01	-8.759121e+01
3.100000e-07	-5.336854e-06	-1.319627e-09	-3.710820e+01	-8.746785e+01
3.200000e-07	-5.324349e-06	-1.301743e-09	-3.702124e+01	-8.734070e+01
3.300000e-07	-5.311353e-06	-1.304569e-09	-3.693088e+01	-8.720972e+01
3.400000e-07	-5.297990e-06	-1.306367e-09	-3.683796e+01	-8.707490e+01
3.500000e-07	-5.284296e-06	-1.301726e-09	-3.674274e+01	-8.693623e+01
3.600000e-07	-5.270158e-06	-1.281499e-09	-3.664444e+01	-8.679370e+01
3.700000e-07	-5.255427e-06	-1.281381e-09	-3.654202e+01	-8.664730e+01
3.800000e-07	-5.240052e-06	-1.284702e-09	-3.643511e+01	-8.649702e+01
3.900000e-07	-5.224263e-06	-1.301172e-09	-3.632533e+01	-8.634286e+01
4.000000e-07	-5.208068e-06	-1.276553e-09	-3.621272e+01	-8.618482e+01
4.100000e-07	-5.191505e-06	-1.281707e-09	-3.609755e+01	-8.602289e+01
4.200000e-07	-5.174669e-06	-1.284338e-09	-3.598049e+01	-8.585708e+01
4.300000e-07	-5.157525e-06	-1.283825e-09	-3.586128e+01	-8.568739e+01
4.400000e-07	-5.139975e-06	-1.253679e-09	-3.573926e+01	-8.551384e+01
4.500000e-07	-5.122042e-06	-1.281026e-09	-3.561456e+01	-8.533643e+01
4.600000e-07	-5.103768e-06	-1.271734e-09	-3.548750e+01	-8.515518e+01
4.700000e-07	-5.084987e-06	-1.245914e-09	-3.535691e+01	-8.497011e+01
4.800000e-07	-5.065873e-06	-1.249547e-09	-3.522401e+01	-8.478124e+01
4.900000e-07	-5.046628e-06	-1.283477e-09	-3.509019e+01	-8.458858e+01
5.000000e-07	-5.027116e-06	-1.242576e-09	-3.495453e+01	-8.439217e+01
5.100000e-07	-5.007286e-06	-1.234748e-09	-3.481664e+01	-8.419204e+01
5.200000e-07	-4.987178e-06	-1.261497e-09	-3.467682e+01	-8.398822e+01
5.300000e-07	-4.966749e-06	-1.248366e-09	-3.453478e+01	-8.378074e+01
5.400000e-07	-4.945857e-06	-1.211984e-09	-3.438951e+01	-8.356966e+01
5.500000e-07	-4.924602e-06	-1.242585e-09	-3.424173e+01	-8.335500e+01
5.600000e-07	-4.903100e-06	-1.237114e-09	-3.409221e+01	-8.313682e+01
5.700000e-07	-4.881224e-06	-1.199548e-09	-3.394011e+01	-8.291517e+01
5.800000e-07	-4.859032e-06	-1.218706e-09	-3.378580e+01	-8.269009e+01
5.900000e-07	-4.836544e-06	-1.243104e-09	-3.362944e+01	-8.246165e+01
6.000000e-07	-4.813722e-06	-1.207096e-09	-3.347075e+01	-8.222990e+01
6.100000e-07	-4.790591e-06	-1.204906e-09	-3.330992e+01	-8.199491e+01
6.200000e-07	-4.767151e-06	-1.232193e-09	-3.314694e+01	-8.175673e+01
6.300000e-07	-4.743519e-06	-1.205218e-09	-3.298262e+01	-8.151542e+01
6.400000e-07	-4.719671e-06	-1.191697e-09	-3.281680e+01	-8.127106e+01
6.500000e-07	-4.695553e-06	-1.210947e-09	-3.264910e+01	-8.102369e+01
6.600000e-07	-4.670978e-06	-1.200791e-09	-3.247823e+01	-8.077340e+01
6.700000e-07	-4.645847e-06	-1.177225e-09	-3.230348e+01	-8.052023e+01
6.800000e-07	-4.620157e-06	-1.195107e-09	-3.212486e+01	-8.026426e+01
6.900000e-07	-4.593902e-06	-1.186226e-09	-3.194230e+01	-8.000554e+01
7.000000e-07	-4.567189e-06	-1.172326e-09	-3.175656e+01	-7.974413e+01
7.100000e-07	-4.540083e-06	-1.178120e-09	-3.156809e+01	-7.948007e+01
7.200000e-07	-4.512731e-06	-1.179243e-09	-3.137791e+01	-7.921343e+01
7.300000e-07	-4.485140e-06	-1.156323e-09	-3.118606e+01	-7.894424e+01
7.400000e-07	-4.457295e-06	-1.165433e-09	-3.099245e+01	-7.867255e+01
7.500000e-07	-4.429225e-06	-1.162722e-09	-3.079727e+01	-7.839838e+01
7.600000e-07	-4.400929e-06	-1.148432e-09	-3.060052e+01	-7.812176e+01
7.700000e-07	-4.372500e-06	-1.146097e-09	-3.040285e+01	-7.784270e+01
7.800000e-07	-4.343782e-06	-1.150944e-09	-3.020317e+01	-7.756123e+01
7.900000e-07	-4.314581e-06	-1.132119e-09	-3.000013e+01	-7.727733e+01
8.000000e-07	-4.285015e-06	-1.132890e-09	-2.979455e+01	-7.699100e+01
8.100000e-07	-4.255179e-06	-1.134053e-09	-2.958709e+01	-7.670223e+01
8.200000e-07	-4.225116e-06	-1.119386e-09	-2.937806e+01	-7.641098e+01
8.300000e-07	-4.194824e-06	-1.104262e-09	-2.916743e+01	-7.611722e+01
8.400000e-07	-4.164224e-06	-1.109100e-09	-2.895467e+01	-7.582089e+01
8.500000e-07	-4.133285e-06	-1.101253e-09	-2.873954e+01	-7.552195e+01
8.600000e-07	-4.102027e-06	-1.091222e-09	-2.852220e+01	-7.522032e+01
8.700000e-07	-4.070611e-06	-1.095069e-09	-2.830376e+01	-7.491592e+01
8.800000e-07	-4.039060e-06	-1.096551e-09	-2.808438e+01	-7.460866e+01
8.900000e-07	-4.007297e-06	-1.086309e-09	-2.786352e+01	-7.429845e+01
9.000000e-07	-3.975303e-06	-1.079625e-09	-2.764106e+01	-7.398517e+01
9.100000e-07	-3.943024e-06	-1.076034e-09	-2.741662e+01	-7.366872e+01
9.200000e-07	-3.910396e-06	-1.064438e-09	-2.718975e+01	-7.334897e+01
9.300000e-07	-3.877428e-06	-1.058892e-09	-2.696052e+01	-7.302578e+01
9.400000e-07	-3.844045e-06	-1.061160e-09	-2.672840e+01	-7.269902e+01
9.500000e-07	-3.810109e-06	-1.055932e-09	-2.649243e+01	-7.236855e+01
9.600000e-07	-3.775782e-06	-1.046573e-09	-2.625375e+01	-7.203422e+01
9.700000e-07	-3.741058e-06	-1.046365e-09	-2.601231e+01	-7.169589e+01
9.800000e-07	-3.705987e-06	-1.037949e-09	-2.576846e+01	-7.135340e+01
9.900000e-07	-3.670737e-06	-1.029000e-09	-2.552336e+01	-7.100660e+01
1.000000e-06	-3.635219e-06	-1.023810e-09	-2.527639e+01	-7.065533e+01
1.010000e-06	-3.599506e-06	-1.024045e-09	-2.502807e+01	-7.029946e+01
1.020000e-06	-3.563720e-06	-1.014824e-09	-2.477924e+01	-6.993883e+01
1.030000e-06	-3.527790e-06	-1.010108e-09	-2.452941e+01	-6.957331e+01
1.040000e-06	-3.491674e-06	-1.005181e-09	-2.427829e+01	-6.920275e+01
1.050000e-06	-3.455346e-06	-1.001084e-09	-2.402570e+01	-6.882704e+01
1.060000e-06	-3.418689e-06	-9.916153e-10	-2.377082e+01	-6.844604e+01
1.070000e-06	-3.381678e-06	-9.843556e-10	-2.351347e+01	-6.805965e+01
1.080000e-06	-3.344372e-06	-9.745932e-10	-2.325407e+01	-6.766776e+01
1.090000e-06	-3.306799e-06	-9.679797e-10	-2.299282e+01	-6.727030e+01
1.100000e-06	-3.268996e-06	-9.634263e-10	-2.272997e+01	-6.686716e+01
1.110000e-06	-3.230976e-06	-9.601668e-10	-2.246561e+01	-6.645830e+01
1.120000e-06	-3.192822e-06	-9.523086e-10	-2.220032e+01	-6.604366e+01
1.130000e-06	-3.154609e-06	-9.470542e-10	-2.193461e+01	-6.562320e+01
1.140000e-06	-3.116153e-06	-9.412053e-10	-2.166722e+01	-6.519688e+01
1.150000e-06	-3.077359e-06	-9.333755e-10	-2.139748e+01	-6.476470e+01
1.160000e-06	-3.038407e-06	-9.234637e-10	-2.112664e+01	-6.432665e+01
1.170000e-06	-2.999351e-06	-9.146331e-10	-2.085508e+01	-6.388274e+01
1.180000e-06	-2.960061e-06	-9.047038e-10	-2.058188e+01	-6.343300e+01
1.190000e-06	-2.920532e-06	-8.982563e-10	-2.030703e+01	-6.297746e+01
1.200000e-06	-2.880871e-06	-8.965416e-10	-2.003126e+01	-6.251617e+01
1.210000e-06	-2.841085e-06	-8.925373e-10	-1.975462e+01	-6.204916e+01
1.220000e-06	-2.801168e-06	-8.847713e-10	-1.947707e+01	-6.157651e+01
1.230000e-06	-2.761095e-06	-8.755224e-10	-1.919843e+01	-6.109827e+01
1.240000e-06	-2.720820e-06	-8.665203e-10	-1.891840e+01	-6.061452e+01
1.250000e-06	-2.680375e-06	-8.545552e-10	-1.863717e+01	-6.012531e+01
1.260000e-06	-2.639686e-06	-8.479867e-10	-1.835426e+01	-5.963073e+01
1.270000e-06	-2.598724e-06	-8.408306e-10	-1.806944e+01	-5.913084e+01
1.280000e-06	-2.557538e-06	-8.331930e-10	-1.778307e+01	-5.862570e+01
1.290000e-06	-2.516048e-06	-8.279528e-10	-1.749458e+01	-5.811537e+01
1.300000e-06	-2.474274e-06	-8.222919e-10	-1.720411e+01	-5.759988e+01
1.310000e-06	-2.432237e-06	-8.131534e-10	-1.691182e+01	-5.707928e+01
1.320000e-06	-2.389885e-06	-8.048790e-10	-1.661734e+01	-5.655357e+01
1.330000e-06	-2.347224e-06	-7.940922e-10	-1.632071e+01	-5.602277e+01
1.340000e-06	-2.304353e-06	-7.835931e-10	-1.602262e+01	-5.548685e+01
1.350000e-06	-2.261312e-06	-7.752598e-10	-1.572334e+01	-5.494577e+01
1.360000e-06	-2.218049e-06	-7.699313e-10	-1.542253e+01	-5.439947e+01
1.370000e-06	-2.174594e-06	-7.621594e-10	-1.512038e+01	-5.384786e+01
1.380000e-06	-2.131045e-06	-7.530161e-10	-1.481757e+01	-5.329081e+01
1.390000e-06	-2.087440e-06	-7.410370e-10	-1.451438e+01	-5.272817e+01
1.400000e-06	-2.043750e-06	-7.294193e-10	-1.421060e+01	-5.215977e+01
1.410000e-06	-1.999934e-06	-7.193600e-10	-1.390593e+01	-5.158539e+01
1.420000e-06	-1.955997e-06	-7.113626e-10	-1.360043e+01	-5.100478e+01
1.430000e-06	-1.912000e-06	-7.041145e-10	-1.329451e+01	-5.041765e+01
1.440000e-06	-1.867910e-06	-6.961365e-10	-1.298795e+01	-4.982368e+01
1.450000e-06	-1.823683e-06	-6.864149e-10	-1.268042e+01	-4.922253e+01
1.460000e-06	-1.779380e-06	-6.753725e-10	-1.237238e+01	-4.861378e+01
1.470000e-06	-1.735005e-06	-6.647338e-10	-1.206383e+01	-4.799702e+01
1.480000e-06	-1.690541e-06	-6.550868e-10	-1.175467e+01	-4.737178e+01
1.490000e-06	-1.645991e-06	-6.465798e-10	-1.144490e+01	-4.673757e+01
1.500000e-06	-1.601274e-06	-6.389309e-10	-1.113397e+01	-4.609385e+01
1.510000e-06	-1.556334e-06	-6.316771e-10	-1.082150e+01	-4.544007e+01
1.520000e-06	-1.511203e-06	-6.227023e-10	-1.050769e+01	-4.477564e+01
1.530000e-06	-1.466008e-06	-6.087021e-10	-1.019344e+01	-4.409994e+01
1.540000e-06	-1.420668e-06	-5.951266e-10	-9.878185e+00	-4.341234e+01
1.550000e-06	-1.375244e-06	-5.838852e-10	-9.562341e+00	-4.271218e+01
1.560000e-06	-1.329822e-06	-5.724545e-10	-9.246513e+00	-4.199880e+01
1.570000e-06	-1.284258e-06	-5.617894e-10	-8.929699e+00	-4.127150e+01
1.580000e-06	-1.238527e-06	-5.535854e-10	-8.611720e+00	-4.052960e+01
1.590000e-06	-1.192789e-06	-5.436655e-10	-8.293696e+00	-3.977239e+01
1.600000e-06	-1.147052e-06	-5.310898e-10	-7.975679e+00	-3.899919e+01
1.610000e-06	-1.101179e-06	-5.192929e-10	-7.656711e+00	-3.820931e+01
1.620000e-06	-1.055193e-06	-5.051416e-10	-7.336965e+00	-3.740206e+01
1.630000e-06	-1.009197e-06	-4.908449e-10	-7.017145e+00	-3.657678e+01
1.640000e-06	-9.631545e-07	-4.788879e-10	-6.697002e+00	-3.573283e+01
1.650000e-06	-9.170141e-07	-4.677695e-10	-6.376179e+00	-3.486959e+01
1.660000e-06	-8.707159e-07	-4.528215e-10	-6.054259e+00	-3.398647e+01
1.670000e-06	-8.243233e-07	-4.369144e-10	-5.731682e+00	-3.308292e+01
1.680000e-06	-7.780314e-07	-4.217430e-10	-5.409805e+00	-3.215843e+01
1.690000e-06	-7.317398e-07	-4.078848e-10	-5.087931e+00	-3.121254e+01
1.700000e-06	-6.853379e-07	-3.944903e-10	-4.765289e+00	-3.024482e+01
1.710000e-06	-6.388591e-07	-3.812987e-10	-4.442113e+00	-2.925492e+01
1.720000e-06	-5.922774e-07	-3.647830e-10	-4.118221e+00	-2.824254e+01
1.730000e-06	-5.456357e-07	-3.467984e-10	-3.793912e+00	-2.720743e+01
1.740000e-06	-4.990144e-07	-3.272352e-10	-3.469745e+00	-2.614942e+01
1.750000e-06	-4.523646e-07	-3.079751e-10	-3.145380e+00	-2.506841e+01
1.760000e-06	-4.056757e-07	-2.913819e-10	-2.820743e+00	-2.396437e+01
1.770000e-06	-3.590064e-07	-2.777774e-10	-2.496242e+00	-2.283734e+01
1.780000e-06	-3.123208e-07	-2.634047e-10	-2.171628e+00	-2.168745e+01
1.790000e-06	-2.655419e-07	-2.464859e-10	-1.846365e+00	-2.051489e+01
1.800000e-06	-2.187358e-07	-2.302002e-10	-1.520913e+00	-1.931994e+01
1.810000e-06	-1.718800e-07	-2.105705e-10	-1.195115e+00	-1.810297e+01
1.820000e-06	-1.249669e-07	-1.886138e-10	-8.689194e-01	-1.686442e+01
1.830000e-06	-7.812998e-08	-1.690287e-10	-5.432531e-01	-1.560480e+01
1.840000e-06	-3.135326e-08	-1.514167e-10	-2.180054e-01	-1.432473e+01
1.850000e-06	1.542494e-08	-1.347269e-10	1.072527e-01	-1.302487e+01
1.860000e-06	6.215672e-08	-1.181305e-10	4.321879e-01	-1.170599e+01
1.870000e-06	1.089310e-07	-9.927062e-11	7.574187e-01	-1.036893e+01
1.880000e-06	1.556685e-07	-7.818821e-11	1.082393e+00	-9.014567e+00
1.890000e-06	2.023653e-07	-5.750669e-11	1.407085e+00	-7.643888e+00
1.900000e-06	2.490707e-07	-3.860566e-11	1.731838e+00	-6.257924e+00
1.910000e-06	2.957069e-07	-2.041201e-11	2.056108e+00	-4.857769e+00
1.920000e-06	3.423922e-07	-1.472045e-12	2.380720e+00	-3.444575e+00
1.930000e-06	3.891182e-07	2.029841e-11	2.705615e+00	-2.019542e+00
1.940000e-06	4.358989e-07	4.289682e-11	3.030891e+00	-5.839195e-01
1.950000e-06	4.826101e-07	6.346166e-11	3.355683e+00	8.610052e-01
1.960000e-06	5.291335e-07	8.095724e-11	3.679169e+00	2.313909e+00
1.970000e-06	5.755908e-07	9.713652e-11	4.002196e+00	3.773440e+00
1.980000e-06	6.220685e-07	1.153952e-10	4.325364e+00	5.238223e+00
1.990000e-06	6.684806e-07	1.359227e-10	4.648077e+00	6.706866e+00
2.000000e-06	7.148235e-07	1.549757e-10	4.970308e+00	8.177967e+00
2.010000e-06	7.610821e-07	1.755598e-10	5.291953e+00	9.650119e+00
2.020000e-06	8.072728e-07	1.945651e-10	5.613127e+00	1.112192e+01
2.030000e-06	8.534484e-07	2.148402e-10	5.934194e+00	1.259196e+01
2.040000e-06	8.995012e-07	2.387727e-10	6.254408e+00	1.405887e+01
2.050000e-06	9.455520e-07	2.600252e-10	6.574609e+00	1.552129e+01
2.060000e-06	9.916444e-07	2.789295e-10	6.895098e+00	1.697787e+01
2.070000e-06	1.037647e-06	2.974666e-10	7.214961e+00	1.842730e+01
2.080000e-06	1.083554e-06	3.160149e-10	7.534165e+00	1.986832e+01
2.090000e-06	1.129448e-06	3.343841e-10	7.853274e+00	2.129970e+01
2.100000e-06	1.175211e-06	3.550086e-10	8.171471e+00	2.272026e+01
2.110000e-06	1.220780e-06	3.742339e-10	8.488321e+00	2.412885e+01
2.120000e-06	1.266263e-06	3.929259e-10	8.804575e+00	2.552441e+01
2.130000e-06	1.311691e-06	4.119097e-10	9.120447e+00	2.690590e+01
2.140000e-06	1.357073e-06	4.300165e-10	9.435998e+00	2.827237e+01
2.150000e-06	1.402299e-06	4.481309e-10	9.750458e+00	2.962291e+01
2.160000e-06	1.447429e-06	4.650380e-10	1.006426e+01	3.095670e+01
2.170000e-06	1.492564e-06	4.821489e-10	1.037809e+01	3.227296e+01
2.180000e-06	1.537622e-06	5.006868e-10	1.069138e+01	3.357099e+01
2.190000e-06	1.582537e-06	5.209226e-10	1.100369e+01	3.485017e+01
2.200000e-06	1.627319e-06	5.416136e-10	1.131507e+01	3.610994e+01
2.210000e-06	1.671983e-06	5.581712e-10	1.162563e+01	3.734979e+01
2.220000e-06	1.716459e-06	5.709055e-10	1.193488e+01	3.856931e+01
2.230000e-06	1.760752e-06	5.830855e-10	1.224285e+01	3.976815e+01
2.240000e-06	1.804884e-06	5.984198e-10	1.254971e+01	4.094600e+01
2.250000e-06	1.848879e-06	6.168717e-10	1.285562e+01	4.210265e+01
2.260000e-06	1.892830e-06	6.374004e-10	1.316122e+01	4.323794e+01
2.270000e-06	1.936756e-06	6.557653e-10	1.346664e+01	4.435176e+01
2.280000e-06	1.980604e-06	6.708496e-10	1.377153e+01	4.544407e+01
2.290000e-06	2.024369e-06	6.844420e-10	1.407583e+01	4.651487e+01
2.300000e-06	2.068094e-06	6.948520e-10	1.437986e+01	4.756424e+01
2.310000e-06	2.111781e-06	7.044332e-10	1.468363e+01	4.859227e+01
2.320000e-06	2.155388e-06	7.161586e-10	1.498684e+01	4.959914e+01
2.330000e-06	2.198908e-06	7.313743e-10	1.528944e+01	5.058502e+01
2.340000e-06	2.242329e-06	7.495353e-10	1.559136e+01	5.155016e+01
2.350000e-06	2.285613e-06	7.677518e-10	1.589231e+01	5.249483e+01
2.360000e-06	2.328666e-06	7.828871e-10	1.619167e+01	5.341932e+01
2.370000e-06	2.371454e-06	7.950333e-10	1.648918e+01	5.432395e+01
2.380000e-06	2.414018e-06	8.056619e-10	1.678514e+01	5.520907e+01
2.390000e-06	2.456335e-06	8.163020e-10	1.707938e+01	5.607504e+01
2.400000e-06	2.498377e-06	8.262004e-10	1.737171e+01	5.692225e+01
2.410000e-06	2.540036e-06	8.375229e-10	1.766137e+01	5.775108e+01
2.420000e-06	2.581181e-06	8.499973e-10	1.794746e+01	5.856193e+01
2.430000e-06	2.621952e-06	8.622667e-10	1.823095e+01	5.935521e+01
2.440000e-06	2.662533e-06	8.740103e-10	1.851311e+01	6.013132e+01
2.450000e-06	2.702914e-06	8.840065e-10	1.879389e+01	6.089067e+01
2.460000e-06	2.743084e-06	8.933277e-10	1.907320e+01	6.163366e+01
2.470000e-06	2.783076e-06	9.032913e-10	1.935127e+01	6.236068e+01
2.480000e-06	2.822950e-06	9.134395e-10	1.962853e+01	6.307213e+01
2.490000e-06	2.862700e-06	9.228342e-10	1.990492e+01	6.376839e+01
2.500000e-06	2.902335e-06	9.326133e-10	2.018050e+01	6.444981e+01
2.510000e-06	2.941862e-06	9.447108e-10	2.045535e+01	6.511677e+01
2.520000e-06	2.981254e-06	9.566447e-10	2.072925e+01	6.576960e+01
2.530000e-06	3.020436e-06	9.662536e-10	2.100168e+01	6.640863e+01
2.540000e-06	3.059390e-06	9.759730e-10	2.127254e+01	6.703417e+01
2.550000e-06	3.098146e-06	9.855274e-10	2.154202e+01	6.764653e+01
2.560000e-06	3.136635e-06	9.920203e-10	2.180964e+01	6.824598e+01
2.570000e-06	3.174898e-06	9.982209e-10	2.207569e+01	6.883280e+01
2.580000e-06	3.213003e-06	1.007416e-09	2.234064e+01	6.940725e+01
2.590000e-06	3.250959e-06	1.017792e-09	2.260456e+01	6.996955e+01
2.600000e-06	3.288738e-06	1.025790e-09	2.286724e+01	7.051995e+01
2.610000e-06	3.326233e-06	1.031686e-09	2.312795e+01	7.105865e+01
2.620000e-06	3.363465e-06	1.035422e-09	2.338683e+01	7.158585e+01
2.630000e-06	3.400520e-06	1.039704e-09	2.364448e+01	7.210175e+01
2.640000e-06	3.437287e-06	1.046007e-09	2.390013e+01	7.260653e+01
2.650000e-06	3.473706e-06	1.053063e-09	2.415336e+01	7.310036e+01
2.660000e-06	3.509921e-06	1.064407e-09	2.440517e+01	7.358340e+01
2.670000e-06	3.545994e-06	1.076826e-09	2.465599e+01	7.405582e+01
2.680000e-06	3.581876e-06	1.085169e-09	2.490549e+01	7.451777e+01
2.690000e-06	3.617619e-06	1.088194e-09	2.515402e+01	7.496940e+01
2.700000e-06	3.653276e-06	1.089490e-09	2.540194e+01	7.541085e+01
2.710000e-06	3.688818e-06	1.093845e-09	2.564908e+01	7.584227e+01
2.720000e-06	3.724151e-06	1.101018e-09	2.589475e+01	7.626382e+01
2.730000e-06	3.759147e-06	1.107293e-09	2.613809e+01	7.667562e+01
2.740000e-06	3.793689e-06	1.114090e-09	2.637827e+01	7.707783e+01
2.750000e-06	3.827752e-06	1.120649e-09	2.661511e+01	7.747060e+01
2.760000e-06	3.861293e-06	1.126058e-09	2.684833e+01	7.785407e+01
2.770000e-06	3.894427e-06	1.129700e-09	2.707872e+01	7.822841e+01
2.780000e-06	3.927129e-06	1.132044e-09	2.730610e+01	7.859376e+01
2.790000e-06	3.959478e-06	1.136663e-09	2.753103e+01	7.895030e+01
2.800000e-06	3.991637e-06	1.141093e-09	2.775464e+01	7.929818e+01
2.810000e-06	4.023519e-06	1.145185e-09	2.797631e+01	7.963757e+01
2.820000e-06	4.055207e-06	1.149283e-09	2.819665e+01	7.996865e+01
2.830000e-06	4.086778e-06	1.153162e-09	2.841617e+01	8.029160e+01
2.840000e-06	4.118197e-06	1.158449e-09	2.863463e+01	8.060658e+01
2.850000e-06	4.149293e-06	1.163284e-09	2.885085e+01	8.091380e+01
2.860000e-06	4.179950e-06	1.165950e-09	2.906401e+01	8.121343e+01
2.870000e-06	4.210297e-06	1.168561e-09	2.927502e+01	8.150565e+01
2.880000e-06	4.240375e-06	1.172736e-09	2.948416e+01	8.179067e+01
2.890000e-06	4.270151e-06	1.175520e-09	2.969120e+01	8.206866e+01
2.900000e-06	4.299740e-06	1.177597e-09	2.989693e+01	8.233983e+01
