# Temperatura_=_7.8
# Concentracion g/m^3_=_1620.0
# C_Vs_to_Am_M_A/Vsm_=_65563218390.804596
# pendiente_HvsI_1/m_=_3716.3
# ordenada_HvsI_A/m_=_1297.0
# frecuencia_Hz_=_135106.79668656085

Tiempo_(s)	Campo_(V.s)	Magnetizacion_(V.s)	Campo_(kA/m)	Magnetizacion_(A/m)
0.000000e+00	-5.524172e-06	-1.249115e-09	-3.836353e+01	-8.211835e+01
1.000000e-08	-5.524333e-06	-1.245216e-09	-3.836465e+01	-8.212032e+01
2.000000e-08	-5.524340e-06	-1.246235e-09	-3.836470e+01	-8.212186e+01
3.000000e-08	-5.524040e-06	-1.249577e-09	-3.836262e+01	-8.212282e+01
4.000000e-08	-5.523187e-06	-1.252041e-09	-3.835670e+01	-8.212301e+01
5.000000e-08	-5.521765e-06	-1.251846e-09	-3.834682e+01	-8.212223e+01
6.000000e-08	-5.519794e-06	-1.249984e-09	-3.833313e+01	-8.212025e+01
7.000000e-08	-5.517233e-06	-1.255279e-09	-3.831535e+01	-8.211682e+01
8.000000e-08	-5.514232e-06	-1.255485e-09	-3.829451e+01	-8.211170e+01
9.000000e-08	-5.510841e-06	-1.229559e-09	-3.827096e+01	-8.210460e+01
1.000000e-07	-5.506954e-06	-1.213802e-09	-3.824397e+01	-8.209525e+01
1.100000e-07	-5.502672e-06	-1.251707e-09	-3.821422e+01	-8.208335e+01
1.200000e-07	-5.498145e-06	-1.284596e-09	-3.818279e+01	-8.206862e+01
1.300000e-07	-5.493402e-06	-1.291741e-09	-3.814985e+01	-8.205075e+01
1.400000e-07	-5.488268e-06	-1.221955e-09	-3.811420e+01	-8.202945e+01
1.500000e-07	-5.482683e-06	-1.219480e-09	-3.807541e+01	-8.200443e+01
1.600000e-07	-5.476703e-06	-1.241936e-09	-3.803388e+01	-8.197539e+01
1.700000e-07	-5.470392e-06	-1.248479e-09	-3.799005e+01	-8.194207e+01
1.800000e-07	-5.463697e-06	-1.231585e-09	-3.794356e+01	-8.190420e+01
1.900000e-07	-5.456593e-06	-1.221961e-09	-3.789422e+01	-8.186153e+01
2.000000e-07	-5.449159e-06	-1.277696e-09	-3.784260e+01	-8.181381e+01
2.100000e-07	-5.441494e-06	-1.289805e-09	-3.778936e+01	-8.176082e+01
2.200000e-07	-5.433566e-06	-1.276957e-09	-3.773431e+01	-8.170237e+01
2.300000e-07	-5.425298e-06	-1.234343e-09	-3.767689e+01	-8.163828e+01
2.400000e-07	-5.416703e-06	-1.251985e-09	-3.761720e+01	-8.156838e+01
2.500000e-07	-5.407608e-06	-1.260941e-09	-3.755404e+01	-8.149255e+01
2.600000e-07	-5.397763e-06	-1.270733e-09	-3.748567e+01	-8.141066e+01
2.700000e-07	-5.387272e-06	-1.239297e-09	-3.741281e+01	-8.132264e+01
2.800000e-07	-5.376291e-06	-1.239237e-09	-3.733656e+01	-8.122842e+01
2.900000e-07	-5.364781e-06	-1.226714e-09	-3.725662e+01	-8.112796e+01
3.000000e-07	-5.352836e-06	-1.221501e-09	-3.717367e+01	-8.102125e+01
3.100000e-07	-5.340602e-06	-1.211333e-09	-3.708870e+01	-8.090830e+01
3.200000e-07	-5.328025e-06	-1.225701e-09	-3.700136e+01	-8.078915e+01
3.300000e-07	-5.314943e-06	-1.229849e-09	-3.691051e+01	-8.066385e+01
3.400000e-07	-5.301429e-06	-1.214069e-09	-3.681666e+01	-8.053248e+01
3.500000e-07	-5.287561e-06	-1.198653e-09	-3.672035e+01	-8.039513e+01
3.600000e-07	-5.273295e-06	-1.192384e-09	-3.662128e+01	-8.025192e+01
3.700000e-07	-5.258493e-06	-1.194120e-09	-3.651849e+01	-8.010299e+01
3.800000e-07	-5.243278e-06	-1.188738e-09	-3.641282e+01	-7.994848e+01
3.900000e-07	-5.227561e-06	-1.196502e-09	-3.630367e+01	-7.978856e+01
4.000000e-07	-5.211263e-06	-1.194495e-09	-3.619049e+01	-7.962339e+01
4.100000e-07	-5.194544e-06	-1.197095e-09	-3.607438e+01	-7.945316e+01
4.200000e-07	-5.177490e-06	-1.188758e-09	-3.595594e+01	-7.927805e+01
4.300000e-07	-5.160128e-06	-1.190794e-09	-3.583537e+01	-7.909825e+01
4.400000e-07	-5.142472e-06	-1.176856e-09	-3.571276e+01	-7.891397e+01
4.500000e-07	-5.124560e-06	-1.174075e-09	-3.558836e+01	-7.872540e+01
4.600000e-07	-5.106227e-06	-1.164364e-09	-3.546105e+01	-7.853274e+01
4.700000e-07	-5.087418e-06	-1.173491e-09	-3.533043e+01	-7.833617e+01
4.800000e-07	-5.068211e-06	-1.169850e-09	-3.519704e+01	-7.813589e+01
4.900000e-07	-5.048724e-06	-1.171653e-09	-3.506171e+01	-7.793207e+01
5.000000e-07	-5.029019e-06	-1.160065e-09	-3.492486e+01	-7.772489e+01
5.100000e-07	-5.009095e-06	-1.161703e-09	-3.478650e+01	-7.751452e+01
5.200000e-07	-4.988928e-06	-1.153773e-09	-3.464644e+01	-7.730110e+01
5.300000e-07	-4.968408e-06	-1.156163e-09	-3.450394e+01	-7.708477e+01
5.400000e-07	-4.947541e-06	-1.148272e-09	-3.435902e+01	-7.686567e+01
5.500000e-07	-4.926368e-06	-1.144010e-09	-3.421199e+01	-7.664390e+01
5.600000e-07	-4.904818e-06	-1.139187e-09	-3.406233e+01	-7.641956e+01
5.700000e-07	-4.882953e-06	-1.146905e-09	-3.391048e+01	-7.619275e+01
5.800000e-07	-4.860701e-06	-1.140271e-09	-3.375595e+01	-7.596353e+01
5.900000e-07	-4.838013e-06	-1.134649e-09	-3.359839e+01	-7.573195e+01
6.000000e-07	-4.814993e-06	-1.138332e-09	-3.343853e+01	-7.549806e+01
6.100000e-07	-4.791754e-06	-1.139642e-09	-3.327714e+01	-7.526187e+01
6.200000e-07	-4.768302e-06	-1.127182e-09	-3.311427e+01	-7.502341e+01
6.300000e-07	-4.744568e-06	-1.124492e-09	-3.294945e+01	-7.478267e+01
6.400000e-07	-4.720575e-06	-1.125524e-09	-3.278282e+01	-7.453964e+01
6.500000e-07	-4.696308e-06	-1.113866e-09	-3.261429e+01	-7.429428e+01
6.600000e-07	-4.671626e-06	-1.111417e-09	-3.244289e+01	-7.404657e+01
6.700000e-07	-4.646451e-06	-1.112166e-09	-3.226806e+01	-7.379645e+01
6.800000e-07	-4.620743e-06	-1.104012e-09	-3.208952e+01	-7.354386e+01
6.900000e-07	-4.594444e-06	-1.096137e-09	-3.190689e+01	-7.328874e+01
7.000000e-07	-4.567641e-06	-1.102631e-09	-3.172074e+01	-7.303102e+01
7.100000e-07	-4.540402e-06	-1.093182e-09	-3.153158e+01	-7.277063e+01
7.200000e-07	-4.512868e-06	-1.086287e-09	-3.134036e+01	-7.250748e+01
7.300000e-07	-4.485167e-06	-1.088587e-09	-3.114799e+01	-7.224148e+01
7.400000e-07	-4.457303e-06	-1.087189e-09	-3.095448e+01	-7.197255e+01
7.500000e-07	-4.429231e-06	-1.070233e-09	-3.075954e+01	-7.170060e+01
7.600000e-07	-4.400874e-06	-1.072248e-09	-3.056261e+01	-7.142555e+01
7.700000e-07	-4.372200e-06	-1.070492e-09	-3.036347e+01	-7.114731e+01
7.800000e-07	-4.343214e-06	-1.059548e-09	-3.016217e+01	-7.086579e+01
7.900000e-07	-4.313898e-06	-1.051415e-09	-2.995859e+01	-7.058091e+01
8.000000e-07	-4.284257e-06	-1.055090e-09	-2.975274e+01	-7.029259e+01
8.100000e-07	-4.254313e-06	-1.043473e-09	-2.954479e+01	-7.000077e+01
8.200000e-07	-4.224088e-06	-1.037229e-09	-2.933489e+01	-6.970536e+01
8.300000e-07	-4.193589e-06	-1.038111e-09	-2.912308e+01	-6.940631e+01
8.400000e-07	-4.162817e-06	-1.033589e-09	-2.890938e+01	-6.910355e+01
8.500000e-07	-4.131739e-06	-1.021307e-09	-2.869355e+01	-6.879704e+01
8.600000e-07	-4.100341e-06	-1.021818e-09	-2.847551e+01	-6.848672e+01
8.700000e-07	-4.068762e-06	-1.019742e-09	-2.825620e+01	-6.817254e+01
8.800000e-07	-4.037090e-06	-1.012233e-09	-2.803625e+01	-6.785449e+01
8.900000e-07	-4.005243e-06	-1.009063e-09	-2.781508e+01	-6.753251e+01
9.000000e-07	-3.973119e-06	-1.006651e-09	-2.759199e+01	-6.720658e+01
9.100000e-07	-3.940732e-06	-9.953976e-10	-2.736707e+01	-6.687669e+01
9.200000e-07	-3.907995e-06	-9.876076e-10	-2.713972e+01	-6.654281e+01
9.300000e-07	-3.874838e-06	-9.848324e-10	-2.690946e+01	-6.620493e+01
9.400000e-07	-3.841269e-06	-9.767168e-10	-2.667633e+01	-6.586304e+01
9.500000e-07	-3.807275e-06	-9.696149e-10	-2.644026e+01	-6.551713e+01
9.600000e-07	-3.772875e-06	-9.685129e-10	-2.620136e+01	-6.516720e+01
9.700000e-07	-3.738055e-06	-9.632228e-10	-2.595955e+01	-6.481324e+01
9.800000e-07	-3.702915e-06	-9.508315e-10	-2.571551e+01	-6.445524e+01
9.900000e-07	-3.667548e-06	-9.467219e-10	-2.546990e+01	-6.409322e+01
1.000000e-06	-3.631994e-06	-9.412436e-10	-2.522299e+01	-6.372716e+01
1.010000e-06	-3.596257e-06	-9.352217e-10	-2.497481e+01	-6.335706e+01
1.020000e-06	-3.560316e-06	-9.322476e-10	-2.472521e+01	-6.298293e+01
1.030000e-06	-3.524201e-06	-9.320631e-10	-2.447440e+01	-6.260476e+01
1.040000e-06	-3.487888e-06	-9.222743e-10	-2.422222e+01	-6.222254e+01
1.050000e-06	-3.451342e-06	-9.148112e-10	-2.396842e+01	-6.183627e+01
1.060000e-06	-3.414602e-06	-9.063851e-10	-2.371327e+01	-6.144594e+01
1.070000e-06	-3.377550e-06	-8.953872e-10	-2.345596e+01	-6.105155e+01
1.080000e-06	-3.340185e-06	-8.848612e-10	-2.319648e+01	-6.065308e+01
1.090000e-06	-3.302675e-06	-8.822247e-10	-2.293598e+01	-6.025051e+01
1.100000e-06	-3.264987e-06	-8.755794e-10	-2.267425e+01	-5.984383e+01
1.110000e-06	-3.227010e-06	-8.682386e-10	-2.241051e+01	-5.943302e+01
1.120000e-06	-3.188765e-06	-8.640249e-10	-2.214491e+01	-5.901806e+01
1.130000e-06	-3.150443e-06	-8.597973e-10	-2.187878e+01	-5.859893e+01
1.140000e-06	-3.111945e-06	-8.495687e-10	-2.161142e+01	-5.817560e+01
1.150000e-06	-3.073058e-06	-8.403286e-10	-2.134136e+01	-5.774805e+01
1.160000e-06	-3.033925e-06	-8.327835e-10	-2.106960e+01	-5.731624e+01
1.170000e-06	-2.994716e-06	-8.253704e-10	-2.079730e+01	-5.688015e+01
1.180000e-06	-2.955344e-06	-8.192777e-10	-2.052388e+01	-5.643975e+01
1.190000e-06	-2.915716e-06	-8.168143e-10	-2.024868e+01	-5.599499e+01
1.200000e-06	-2.875894e-06	-8.121052e-10	-1.997213e+01	-5.554586e+01
1.210000e-06	-2.835969e-06	-8.053115e-10	-1.969486e+01	-5.509230e+01
1.220000e-06	-2.795961e-06	-7.981918e-10	-1.941702e+01	-5.463428e+01
1.230000e-06	-2.755832e-06	-7.874387e-10	-1.913833e+01	-5.417177e+01
1.240000e-06	-2.715570e-06	-7.746233e-10	-1.885873e+01	-5.370472e+01
1.250000e-06	-2.675098e-06	-7.670579e-10	-1.857767e+01	-5.323308e+01
1.260000e-06	-2.634385e-06	-7.640805e-10	-1.829493e+01	-5.275681e+01
1.270000e-06	-2.593417e-06	-7.570701e-10	-1.801042e+01	-5.227586e+01
1.280000e-06	-2.552157e-06	-7.518118e-10	-1.772388e+01	-5.179018e+01
1.290000e-06	-2.510674e-06	-7.466805e-10	-1.743580e+01	-5.129971e+01
1.300000e-06	-2.468941e-06	-7.395995e-10	-1.714597e+01	-5.080437e+01
1.310000e-06	-2.426918e-06	-7.293621e-10	-1.685414e+01	-5.030412e+01
1.320000e-06	-2.384577e-06	-7.209772e-10	-1.656009e+01	-4.979886e+01
1.330000e-06	-2.341820e-06	-7.121794e-10	-1.626316e+01	-4.928852e+01
1.340000e-06	-2.298724e-06	-7.036821e-10	-1.596387e+01	-4.877300e+01
1.350000e-06	-2.255404e-06	-6.983469e-10	-1.566303e+01	-4.825219e+01
1.360000e-06	-2.211905e-06	-6.949753e-10	-1.536095e+01	-4.772599e+01
1.370000e-06	-2.168313e-06	-6.878046e-10	-1.505821e+01	-4.719427e+01
1.380000e-06	-2.124644e-06	-6.787526e-10	-1.475495e+01	-4.665688e+01
1.390000e-06	-2.080904e-06	-6.685527e-10	-1.445119e+01	-4.611367e+01
1.400000e-06	-2.037095e-06	-6.594112e-10	-1.414695e+01	-4.556447e+01
1.410000e-06	-1.993155e-06	-6.504368e-10	-1.384180e+01	-4.500909e+01
1.420000e-06	-1.949086e-06	-6.420943e-10	-1.353575e+01	-4.444732e+01
1.430000e-06	-1.904994e-06	-6.325273e-10	-1.322955e+01	-4.387894e+01
1.440000e-06	-1.860897e-06	-6.238191e-10	-1.292331e+01	-4.330370e+01
1.450000e-06	-1.816712e-06	-6.160729e-10	-1.261646e+01	-4.272133e+01
1.460000e-06	-1.772386e-06	-6.074646e-10	-1.230863e+01	-4.213154e+01
1.470000e-06	-1.727899e-06	-5.969084e-10	-1.199969e+01	-4.153403e+01
1.480000e-06	-1.683268e-06	-5.856617e-10	-1.168974e+01	-4.092846e+01
1.490000e-06	-1.638498e-06	-5.759689e-10	-1.137883e+01	-4.031447e+01
1.500000e-06	-1.593568e-06	-5.669100e-10	-1.106680e+01	-3.969170e+01
1.510000e-06	-1.548484e-06	-5.583890e-10	-1.075371e+01	-3.905973e+01
1.520000e-06	-1.503266e-06	-5.510753e-10	-1.043968e+01	-3.841816e+01
1.530000e-06	-1.458009e-06	-5.427464e-10	-1.012539e+01	-3.776655e+01
1.540000e-06	-1.412710e-06	-5.325569e-10	-9.810801e+00	-3.710443e+01
1.550000e-06	-1.367266e-06	-5.207450e-10	-9.495204e+00	-3.643134e+01
1.560000e-06	-1.321722e-06	-5.067547e-10	-9.178920e+00	-3.574679e+01
1.570000e-06	-1.276164e-06	-4.917105e-10	-8.862536e+00	-3.505027e+01
1.580000e-06	-1.230533e-06	-4.778650e-10	-8.545640e+00	-3.434128e+01
1.590000e-06	-1.184792e-06	-4.658588e-10	-8.227984e+00	-3.361929e+01
1.600000e-06	-1.138983e-06	-4.547809e-10	-7.909855e+00	-3.288378e+01
1.610000e-06	-1.093119e-06	-4.449778e-10	-7.591348e+00	-3.213422e+01
1.620000e-06	-1.047180e-06	-4.329525e-10	-7.272318e+00	-3.137010e+01
1.630000e-06	-1.001129e-06	-4.183235e-10	-6.952506e+00	-3.059089e+01
1.640000e-06	-9.549975e-07	-4.020435e-10	-6.632140e+00	-2.979609e+01
1.650000e-06	-9.087828e-07	-3.882725e-10	-6.311194e+00	-2.898520e+01
1.660000e-06	-8.625421e-07	-3.749228e-10	-5.990068e+00	-2.815774e+01
1.670000e-06	-8.162184e-07	-3.620920e-10	-5.668366e+00	-2.731326e+01
1.680000e-06	-7.698456e-07	-3.509990e-10	-5.346322e+00	-2.645132e+01
1.690000e-06	-7.234485e-07	-3.394825e-10	-5.024109e+00	-2.557155e+01
1.700000e-06	-6.768715e-07	-3.257315e-10	-4.700647e+00	-2.467356e+01
1.710000e-06	-6.302767e-07	-3.113008e-10	-4.377062e+00	-2.375704e+01
1.720000e-06	-5.837487e-07	-2.957165e-10	-4.053940e+00	-2.282171e+01
1.730000e-06	-5.371297e-07	-2.807187e-10	-3.730187e+00	-2.186735e+01
1.740000e-06	-4.904771e-07	-2.656871e-10	-3.406201e+00	-2.089377e+01
1.750000e-06	-4.438436e-07	-2.506291e-10	-3.082346e+00	-1.990085e+01
1.760000e-06	-3.970731e-07	-2.319436e-10	-2.757541e+00	-1.888854e+01
1.770000e-06	-3.502318e-07	-2.154846e-10	-2.432243e+00	-1.785684e+01
1.780000e-06	-3.034538e-07	-2.022106e-10	-2.107386e+00	-1.680581e+01
1.790000e-06	-2.566427e-07	-1.883896e-10	-1.782298e+00	-1.573560e+01
1.800000e-06	-2.097896e-07	-1.747427e-10	-1.456919e+00	-1.464641e+01
1.810000e-06	-1.629786e-07	-1.606762e-10	-1.131832e+00	-1.353853e+01
1.820000e-06	-1.161273e-07	-1.435697e-10	-8.064654e-01	-1.241231e+01
1.830000e-06	-6.924863e-08	-1.233537e-10	-4.809087e-01	-1.126819e+01
1.840000e-06	-2.243357e-08	-1.027106e-10	-1.557937e-01	-1.010667e+01
1.850000e-06	2.431280e-08	-8.396038e-11	1.688443e-01	-8.928348e+00
1.860000e-06	7.106035e-08	-6.884817e-11	4.934905e-01	-7.733875e+00
1.870000e-06	1.178439e-07	-5.290191e-11	8.183865e-01	-6.523987e+00
1.880000e-06	1.646466e-07	-3.618888e-11	1.143416e+00	-5.299491e+00
1.890000e-06	2.115494e-07	-2.056429e-11	1.469140e+00	-4.061264e+00
1.900000e-06	2.584412e-07	-5.633066e-12	1.794788e+00	-2.810252e+00
1.910000e-06	3.052639e-07	9.919168e-12	2.119956e+00	-1.547463e+00
1.920000e-06	3.520813e-07	2.718645e-11	2.445088e+00	-2.739676e-01
1.930000e-06	3.988065e-07	4.737622e-11	2.769578e+00	1.009108e+00
1.940000e-06	4.455460e-07	6.662549e-11	3.094169e+00	2.300586e+00
1.950000e-06	4.922636e-07	8.710037e-11	3.418607e+00	3.599242e+00
1.960000e-06	5.388637e-07	1.059866e-10	3.742229e+00	4.903810e+00
1.970000e-06	5.853971e-07	1.224612e-10	4.065388e+00	6.212989e+00
1.980000e-06	6.318943e-07	1.386154e-10	4.388296e+00	7.525449e+00
1.990000e-06	6.783808e-07	1.554465e-10	4.711129e+00	8.839837e+00
2.000000e-06	7.247863e-07	1.716853e-10	5.033399e+00	1.015478e+01
2.010000e-06	7.711483e-07	1.900272e-10	5.355368e+00	1.146892e+01
2.020000e-06	8.174434e-07	2.087394e-10	5.676873e+00	1.278085e+01
2.030000e-06	8.636064e-07	2.288109e-10	5.997459e+00	1.408921e+01
2.040000e-06	9.097326e-07	2.500441e-10	6.317790e+00	1.539263e+01
2.050000e-06	9.558588e-07	2.680401e-10	6.638121e+00	1.668978e+01
2.060000e-06	1.001929e-06	2.841634e-10	6.958064e+00	1.797932e+01
2.070000e-06	1.047947e-06	2.992001e-10	7.277642e+00	1.925998e+01
2.080000e-06	1.093856e-06	3.137435e-10	7.596465e+00	2.053051e+01
2.090000e-06	1.139565e-06	3.307881e-10	7.913900e+00	2.178970e+01
2.100000e-06	1.185203e-06	3.509691e-10	8.230842e+00	2.303641e+01
2.110000e-06	1.230844e-06	3.699542e-10	8.547803e+00	2.426953e+01
2.120000e-06	1.276436e-06	3.872555e-10	8.864420e+00	2.548804e+01
2.130000e-06	1.321927e-06	4.028195e-10	9.180346e+00	2.669097e+01
2.140000e-06	1.367337e-06	4.180332e-10	9.495703e+00	2.787742e+01
2.150000e-06	1.412724e-06	4.327328e-10	9.810896e+00	2.904657e+01
2.160000e-06	1.457984e-06	4.465809e-10	1.012521e+01	3.019768e+01
2.170000e-06	1.503119e-06	4.613705e-10	1.043866e+01	3.133007e+01
2.180000e-06	1.548140e-06	4.782348e-10	1.075132e+01	3.244317e+01
2.190000e-06	1.593036e-06	4.949574e-10	1.106311e+01	3.353647e+01
2.200000e-06	1.637823e-06	5.109436e-10	1.137413e+01	3.460956e+01
2.210000e-06	1.682403e-06	5.247642e-10	1.168373e+01	3.566211e+01
2.220000e-06	1.726859e-06	5.361995e-10	1.199246e+01	3.669385e+01
2.230000e-06	1.771244e-06	5.468175e-10	1.230070e+01	3.770463e+01
2.240000e-06	1.815510e-06	5.599569e-10	1.260811e+01	3.869436e+01
2.250000e-06	1.859649e-06	5.748921e-10	1.291464e+01	3.966303e+01
2.260000e-06	1.903653e-06	5.907255e-10	1.322024e+01	4.061070e+01
2.270000e-06	1.947608e-06	6.066200e-10	1.352549e+01	4.153751e+01
2.280000e-06	1.991525e-06	6.202546e-10	1.383048e+01	4.244367e+01
2.290000e-06	2.035349e-06	6.314665e-10	1.413482e+01	4.332944e+01
2.300000e-06	2.079103e-06	6.419406e-10	1.443868e+01	4.419516e+01
2.310000e-06	2.122810e-06	6.522985e-10	1.474221e+01	4.504121e+01
2.320000e-06	2.166424e-06	6.632802e-10	1.504509e+01	4.586802e+01
2.330000e-06	2.209916e-06	6.758368e-10	1.534713e+01	4.667607e+01
2.340000e-06	2.253286e-06	6.897891e-10	1.564832e+01	4.746588e+01
2.350000e-06	2.296512e-06	7.046269e-10	1.594851e+01	4.823798e+01
2.360000e-06	2.339541e-06	7.172464e-10	1.624733e+01	4.899295e+01
2.370000e-06	2.382227e-06	7.274478e-10	1.654378e+01	4.973138e+01
2.380000e-06	2.424580e-06	7.365185e-10	1.683790e+01	5.045389e+01
2.390000e-06	2.466672e-06	7.455699e-10	1.713022e+01	5.116107e+01
2.400000e-06	2.508419e-06	7.549261e-10	1.742013e+01	5.185356e+01
2.410000e-06	2.549847e-06	7.655859e-10	1.770784e+01	5.253196e+01
2.420000e-06	2.590974e-06	7.766411e-10	1.799345e+01	5.319688e+01
2.430000e-06	2.631818e-06	7.857175e-10	1.827710e+01	5.384891e+01
2.440000e-06	2.672429e-06	7.933754e-10	1.855913e+01	5.448863e+01
2.450000e-06	2.712794e-06	8.009630e-10	1.883945e+01	5.511659e+01
2.460000e-06	2.752990e-06	8.087617e-10	1.911860e+01	5.573331e+01
2.470000e-06	2.793111e-06	8.184946e-10	1.939722e+01	5.633930e+01
2.480000e-06	2.833134e-06	8.295441e-10	1.967517e+01	5.693501e+01
2.490000e-06	2.872985e-06	8.402353e-10	1.995193e+01	5.752088e+01
2.500000e-06	2.912670e-06	8.481791e-10	2.022753e+01	5.809730e+01
2.510000e-06	2.952214e-06	8.559218e-10	2.050215e+01	5.866461e+01
2.520000e-06	2.991619e-06	8.640533e-10	2.077580e+01	5.922313e+01
2.530000e-06	3.030819e-06	8.692414e-10	2.104803e+01	5.977314e+01
2.540000e-06	3.069772e-06	8.763393e-10	2.131854e+01	6.031485e+01
2.550000e-06	3.108515e-06	8.852448e-10	2.158760e+01	6.084848e+01
2.560000e-06	3.147101e-06	8.941222e-10	2.185557e+01	6.137415e+01
2.570000e-06	3.185488e-06	9.020246e-10	2.212215e+01	6.189199e+01
2.580000e-06	3.223557e-06	9.116576e-10	2.238653e+01	6.240208e+01
2.590000e-06	3.261410e-06	9.209301e-10	2.264941e+01	6.290445e+01
2.600000e-06	3.299056e-06	9.267009e-10	2.291085e+01	6.339911e+01
2.610000e-06	3.336404e-06	9.307339e-10	2.317022e+01	6.388605e+01
2.620000e-06	3.373543e-06	9.353553e-10	2.342813e+01	6.436522e+01
2.630000e-06	3.410562e-06	9.425318e-10	2.368522e+01	6.483655e+01
2.640000e-06	3.447348e-06	9.512378e-10	2.394069e+01	6.529995e+01
2.650000e-06	3.483804e-06	9.600723e-10	2.419386e+01	6.575533e+01
2.660000e-06	3.520018e-06	9.689731e-10	2.444535e+01	6.620256e+01
2.670000e-06	3.556091e-06	9.753803e-10	2.469587e+01	6.664152e+01
2.680000e-06	3.592030e-06	9.789348e-10	2.494545e+01	6.707209e+01
2.690000e-06	3.627815e-06	9.811775e-10	2.519397e+01	6.749413e+01
2.700000e-06	3.663455e-06	9.822430e-10	2.544148e+01	6.790753e+01
2.710000e-06	3.698897e-06	9.876209e-10	2.568761e+01	6.831216e+01
2.720000e-06	3.734040e-06	9.953264e-10	2.593166e+01	6.870791e+01
2.730000e-06	3.768824e-06	1.003941e-09	2.617323e+01	6.909469e+01
2.740000e-06	3.803279e-06	1.012738e-09	2.641251e+01	6.947242e+01
2.750000e-06	3.837364e-06	1.019411e-09	2.664921e+01	6.984104e+01
2.760000e-06	3.870955e-06	1.022115e-09	2.688250e+01	7.020052e+01
2.770000e-06	3.904018e-06	1.023144e-09	2.711211e+01	7.055082e+01
2.780000e-06	3.936692e-06	1.025412e-09	2.733901e+01	7.089197e+01
2.790000e-06	3.969099e-06	1.029080e-09	2.756407e+01	7.122400e+01
2.800000e-06	4.001237e-06	1.033905e-09	2.778726e+01	7.154698e+01
2.810000e-06	4.033186e-06	1.039684e-09	2.800914e+01	7.186098e+01
2.820000e-06	4.065000e-06	1.044326e-09	2.823007e+01	7.216614e+01
2.830000e-06	4.096607e-06	1.048486e-09	2.844957e+01	7.246259e+01
2.840000e-06	4.127956e-06	1.052544e-09	2.866728e+01	7.275051e+01
2.850000e-06	4.159036e-06	1.055438e-09	2.888312e+01	7.303011e+01
2.860000e-06	4.189815e-06	1.059041e-09	2.909687e+01	7.330159e+01
2.870000e-06	4.220281e-06	1.063781e-09	2.930845e+01	7.356522e+01
2.880000e-06	4.250381e-06	1.068293e-09	2.951748e+01	7.382127e+01
2.890000e-06	4.280167e-06	1.071136e-09	2.972434e+01	7.407001e+01
2.900000e-06	4.309752e-06	1.073302e-09	2.992979e+01	7.431176e+01
2.910000e-06	4.339069e-06	1.076904e-09	3.013339e+01	7.454684e+01
