# Temperatura_=_-0.9
# Concentracion g/m^3_=_1620.0
# C_Vs_to_Am_M_A/Vsm_=_65563218390.804596
# pendiente_HvsI_1/m_=_3716.3
# ordenada_HvsI_A/m_=_1297.0
# frecuencia_Hz_=_135095.8200379278

Tiempo_(s)	Campo_(V.s)	Magnetizacion_(V.s)	Campo_(kA/m)	Magnetizacion_(A/m)
0.000000e+00	-5.517895e-06	-1.146450e-09	-3.838395e+01	-7.539542e+01
1.000000e-08	-5.517960e-06	-1.142128e-09	-3.838441e+01	-7.538939e+01
2.000000e-08	-5.517780e-06	-1.140075e-09	-3.838316e+01	-7.537931e+01
3.000000e-08	-5.517232e-06	-1.140424e-09	-3.837934e+01	-7.536480e+01
4.000000e-08	-5.516128e-06	-1.142775e-09	-3.837166e+01	-7.534547e+01
5.000000e-08	-5.514517e-06	-1.145266e-09	-3.836046e+01	-7.532099e+01
6.000000e-08	-5.512315e-06	-1.150008e-09	-3.834514e+01	-7.529099e+01
7.000000e-08	-5.509369e-06	-1.149768e-09	-3.832464e+01	-7.525517e+01
8.000000e-08	-5.505896e-06	-1.118596e-09	-3.830049e+01	-7.521324e+01
9.000000e-08	-5.502096e-06	-1.122638e-09	-3.827405e+01	-7.516494e+01
1.000000e-07	-5.497900e-06	-1.209075e-09	-3.824486e+01	-7.511003e+01
1.100000e-07	-5.493324e-06	-1.185401e-09	-3.821303e+01	-7.504831e+01
1.200000e-07	-5.488671e-06	-1.103692e-09	-3.818066e+01	-7.497963e+01
1.300000e-07	-5.483896e-06	-1.089067e-09	-3.814745e+01	-7.490386e+01
1.400000e-07	-5.478593e-06	-1.168961e-09	-3.811056e+01	-7.482091e+01
1.500000e-07	-5.472752e-06	-1.210187e-09	-3.806993e+01	-7.473073e+01
1.600000e-07	-5.466611e-06	-1.101779e-09	-3.802721e+01	-7.463333e+01
1.700000e-07	-5.460166e-06	-1.114451e-09	-3.798238e+01	-7.452874e+01
1.800000e-07	-5.453256e-06	-1.171978e-09	-3.793431e+01	-7.441702e+01
1.900000e-07	-5.445929e-06	-1.194026e-09	-3.788334e+01	-7.429831e+01
2.000000e-07	-5.438352e-06	-1.092863e-09	-3.783063e+01	-7.417274e+01
2.100000e-07	-5.430591e-06	-1.104148e-09	-3.777665e+01	-7.404052e+01
2.200000e-07	-5.422541e-06	-1.169859e-09	-3.772065e+01	-7.390187e+01
2.300000e-07	-5.414121e-06	-1.196449e-09	-3.766208e+01	-7.375705e+01
2.400000e-07	-5.405281e-06	-1.132653e-09	-3.760058e+01	-7.360636e+01
2.500000e-07	-5.395745e-06	-1.117797e-09	-3.753424e+01	-7.345011e+01
2.600000e-07	-5.385360e-06	-1.136405e-09	-3.746201e+01	-7.328866e+01
2.700000e-07	-5.374468e-06	-1.119317e-09	-3.738624e+01	-7.312238e+01
2.800000e-07	-5.363183e-06	-1.082197e-09	-3.730773e+01	-7.295166e+01
2.900000e-07	-5.351392e-06	-1.081399e-09	-3.722571e+01	-7.277690e+01
3.000000e-07	-5.339187e-06	-1.115024e-09	-3.714081e+01	-7.259852e+01
3.100000e-07	-5.326647e-06	-1.093607e-09	-3.705359e+01	-7.241696e+01
3.200000e-07	-5.313769e-06	-1.076284e-09	-3.696400e+01	-7.223265e+01
3.300000e-07	-5.300434e-06	-1.058728e-09	-3.687124e+01	-7.204603e+01
3.400000e-07	-5.286722e-06	-1.091325e-09	-3.677586e+01	-7.185752e+01
3.500000e-07	-5.272706e-06	-1.069114e-09	-3.667835e+01	-7.166756e+01
3.600000e-07	-5.258227e-06	-1.041410e-09	-3.657764e+01	-7.147656e+01
3.700000e-07	-5.243283e-06	-1.052316e-09	-3.647368e+01	-7.128493e+01
3.800000e-07	-5.227918e-06	-1.113700e-09	-3.636680e+01	-7.109306e+01
3.900000e-07	-5.211866e-06	-1.056306e-09	-3.625513e+01	-7.090132e+01
4.000000e-07	-5.195194e-06	-1.014958e-09	-3.613916e+01	-7.071006e+01
4.100000e-07	-5.178288e-06	-1.078537e-09	-3.602156e+01	-7.051960e+01
4.200000e-07	-5.161142e-06	-1.104136e-09	-3.590229e+01	-7.033024e+01
4.300000e-07	-5.143559e-06	-9.948268e-10	-3.577997e+01	-7.014225e+01
4.400000e-07	-5.125664e-06	-1.026081e-09	-3.565549e+01	-6.995586e+01
4.500000e-07	-5.107517e-06	-1.114206e-09	-3.552925e+01	-6.977129e+01
4.600000e-07	-5.088935e-06	-1.042659e-09	-3.539999e+01	-6.958869e+01
4.700000e-07	-5.069909e-06	-9.734270e-10	-3.526764e+01	-6.940822e+01
4.800000e-07	-5.050552e-06	-1.083201e-09	-3.513299e+01	-6.922998e+01
4.900000e-07	-5.030928e-06	-1.079429e-09	-3.499649e+01	-6.905404e+01
5.000000e-07	-5.011029e-06	-9.746327e-10	-3.485806e+01	-6.888043e+01
5.100000e-07	-4.990942e-06	-1.025163e-09	-3.471833e+01	-6.870916e+01
5.200000e-07	-4.970577e-06	-1.084251e-09	-3.457667e+01	-6.854020e+01
5.300000e-07	-4.949778e-06	-9.891110e-10	-3.443198e+01	-6.837348e+01
5.400000e-07	-4.928579e-06	-9.966232e-10	-3.428452e+01	-6.820892e+01
5.500000e-07	-4.907111e-06	-1.086250e-09	-3.413518e+01	-6.804639e+01
5.600000e-07	-4.885376e-06	-1.019024e-09	-3.398399e+01	-6.788576e+01
5.700000e-07	-4.863312e-06	-9.691782e-10	-3.383050e+01	-6.772684e+01
5.800000e-07	-4.841014e-06	-1.052733e-09	-3.367539e+01	-6.756944e+01
5.900000e-07	-4.818331e-06	-1.046546e-09	-3.351760e+01	-6.741335e+01
6.000000e-07	-4.795243e-06	-9.734463e-10	-3.335699e+01	-6.725834e+01
6.100000e-07	-4.771838e-06	-1.022568e-09	-3.319418e+01	-6.710416e+01
6.200000e-07	-4.748110e-06	-1.042844e-09	-3.302913e+01	-6.695055e+01
6.300000e-07	-4.724160e-06	-9.894458e-10	-3.286252e+01	-6.679724e+01
6.400000e-07	-4.699955e-06	-9.990903e-10	-3.269414e+01	-6.664396e+01
6.500000e-07	-4.675479e-06	-1.034511e-09	-3.252388e+01	-6.649042e+01
6.600000e-07	-4.650600e-06	-9.894905e-10	-3.235082e+01	-6.633635e+01
6.700000e-07	-4.625202e-06	-9.830740e-10	-3.217414e+01	-6.618144e+01
6.800000e-07	-4.599220e-06	-1.004402e-09	-3.199340e+01	-6.602543e+01
6.900000e-07	-4.572680e-06	-9.892268e-10	-3.180879e+01	-6.586803e+01
7.000000e-07	-4.545710e-06	-9.720838e-10	-3.162118e+01	-6.570897e+01
7.100000e-07	-4.518377e-06	-9.914576e-10	-3.143104e+01	-6.554799e+01
7.200000e-07	-4.490775e-06	-9.799245e-10	-3.123904e+01	-6.538484e+01
7.300000e-07	-4.462958e-06	-9.739263e-10	-3.104553e+01	-6.521926e+01
7.400000e-07	-4.434984e-06	-9.816947e-10	-3.085094e+01	-6.505104e+01
7.500000e-07	-4.406813e-06	-9.773239e-10	-3.065497e+01	-6.487994e+01
7.600000e-07	-4.378359e-06	-9.634953e-10	-3.045704e+01	-6.470577e+01
7.700000e-07	-4.349694e-06	-9.712124e-10	-3.025764e+01	-6.452834e+01
7.800000e-07	-4.320667e-06	-9.636981e-10	-3.005572e+01	-6.434747e+01
7.900000e-07	-4.291232e-06	-9.509977e-10	-2.985096e+01	-6.416299e+01
8.000000e-07	-4.261541e-06	-9.520498e-10	-2.964442e+01	-6.397477e+01
8.100000e-07	-4.231587e-06	-9.497979e-10	-2.943605e+01	-6.378267e+01
8.200000e-07	-4.201357e-06	-9.307009e-10	-2.922576e+01	-6.358658e+01
8.300000e-07	-4.170840e-06	-9.269238e-10	-2.901348e+01	-6.338639e+01
8.400000e-07	-4.139994e-06	-9.344135e-10	-2.879891e+01	-6.318201e+01
8.500000e-07	-4.108830e-06	-9.262762e-10	-2.858212e+01	-6.297335e+01
8.600000e-07	-4.077369e-06	-9.221803e-10	-2.836327e+01	-6.276036e+01
8.700000e-07	-4.045706e-06	-9.288561e-10	-2.814301e+01	-6.254297e+01
8.800000e-07	-4.013891e-06	-9.245346e-10	-2.792170e+01	-6.232114e+01
8.900000e-07	-3.981864e-06	-9.073163e-10	-2.769891e+01	-6.209482e+01
9.000000e-07	-3.949642e-06	-9.051242e-10	-2.747477e+01	-6.186397e+01
9.100000e-07	-3.917159e-06	-9.002489e-10	-2.724880e+01	-6.162857e+01
9.200000e-07	-3.884262e-06	-8.900312e-10	-2.701997e+01	-6.138859e+01
9.300000e-07	-3.851013e-06	-8.886867e-10	-2.678868e+01	-6.114401e+01
9.400000e-07	-3.817395e-06	-8.973232e-10	-2.655482e+01	-6.089480e+01
9.500000e-07	-3.783132e-06	-8.885690e-10	-2.631648e+01	-6.064095e+01
9.600000e-07	-3.748452e-06	-8.797565e-10	-2.607524e+01	-6.038243e+01
9.700000e-07	-3.713564e-06	-8.752931e-10	-2.583255e+01	-6.011923e+01
9.800000e-07	-3.678319e-06	-8.709830e-10	-2.558737e+01	-5.985133e+01
9.900000e-07	-3.642823e-06	-8.601242e-10	-2.534045e+01	-5.957871e+01
1.000000e-06	-3.607160e-06	-8.616553e-10	-2.509237e+01	-5.930133e+01
1.010000e-06	-3.571317e-06	-8.629063e-10	-2.484304e+01	-5.901917e+01
1.020000e-06	-3.535321e-06	-8.581479e-10	-2.459264e+01	-5.873220e+01
1.030000e-06	-3.499166e-06	-8.511588e-10	-2.434114e+01	-5.844039e+01
1.040000e-06	-3.462878e-06	-8.512112e-10	-2.408871e+01	-5.814370e+01
1.050000e-06	-3.426360e-06	-8.450197e-10	-2.383468e+01	-5.784210e+01
1.060000e-06	-3.389535e-06	-8.398722e-10	-2.357851e+01	-5.753554e+01
1.070000e-06	-3.352442e-06	-8.374201e-10	-2.332048e+01	-5.722398e+01
1.080000e-06	-3.315036e-06	-8.330329e-10	-2.306028e+01	-5.690738e+01
1.090000e-06	-3.277375e-06	-8.233598e-10	-2.279830e+01	-5.658570e+01
1.100000e-06	-3.239526e-06	-8.148548e-10	-2.253501e+01	-5.625888e+01
1.110000e-06	-3.201462e-06	-8.095459e-10	-2.227022e+01	-5.592690e+01
1.120000e-06	-3.163152e-06	-8.045382e-10	-2.200374e+01	-5.558969e+01
1.130000e-06	-3.124649e-06	-8.016875e-10	-2.173590e+01	-5.524723e+01
1.140000e-06	-3.085947e-06	-7.998463e-10	-2.146668e+01	-5.489946e+01
1.150000e-06	-3.047017e-06	-7.968448e-10	-2.119586e+01	-5.454636e+01
1.160000e-06	-3.007899e-06	-7.917810e-10	-2.092375e+01	-5.418790e+01
1.170000e-06	-2.968595e-06	-7.865794e-10	-2.065034e+01	-5.382403e+01
1.180000e-06	-2.929139e-06	-7.797998e-10	-2.037588e+01	-5.345473e+01
1.190000e-06	-2.889567e-06	-7.746697e-10	-2.010061e+01	-5.307999e+01
1.200000e-06	-2.849904e-06	-7.680581e-10	-1.982469e+01	-5.269978e+01
1.210000e-06	-2.810066e-06	-7.632067e-10	-1.954757e+01	-5.231409e+01
1.220000e-06	-2.769988e-06	-7.573558e-10	-1.926878e+01	-5.192292e+01
1.230000e-06	-2.729751e-06	-7.518937e-10	-1.898888e+01	-5.152624e+01
1.240000e-06	-2.689333e-06	-7.437673e-10	-1.870772e+01	-5.112407e+01
1.250000e-06	-2.648680e-06	-7.382968e-10	-1.842493e+01	-5.071640e+01
1.260000e-06	-2.607895e-06	-7.323426e-10	-1.814122e+01	-5.030323e+01
1.270000e-06	-2.566835e-06	-7.261309e-10	-1.785559e+01	-4.988456e+01
1.280000e-06	-2.525405e-06	-7.185938e-10	-1.756740e+01	-4.946039e+01
1.290000e-06	-2.483740e-06	-7.103075e-10	-1.727756e+01	-4.903073e+01
1.300000e-06	-2.441791e-06	-6.991923e-10	-1.698575e+01	-4.859556e+01
1.310000e-06	-2.399526e-06	-6.909793e-10	-1.669174e+01	-4.815489e+01
1.320000e-06	-2.356933e-06	-6.856191e-10	-1.639546e+01	-4.770868e+01
1.330000e-06	-2.314104e-06	-6.816307e-10	-1.609752e+01	-4.725693e+01
1.340000e-06	-2.271135e-06	-6.765829e-10	-1.579863e+01	-4.679958e+01
1.350000e-06	-2.227892e-06	-6.717855e-10	-1.549781e+01	-4.633661e+01
1.360000e-06	-2.184453e-06	-6.648963e-10	-1.519564e+01	-4.586794e+01
1.370000e-06	-2.140962e-06	-6.562353e-10	-1.489310e+01	-4.539351e+01
1.380000e-06	-2.097316e-06	-6.461513e-10	-1.458949e+01	-4.491321e+01
1.390000e-06	-2.053551e-06	-6.349373e-10	-1.428505e+01	-4.442693e+01
1.400000e-06	-2.009720e-06	-6.235627e-10	-1.398015e+01	-4.393455e+01
1.410000e-06	-1.965787e-06	-6.151880e-10	-1.367454e+01	-4.343589e+01
1.420000e-06	-1.921771e-06	-6.090279e-10	-1.336835e+01	-4.293078e+01
1.430000e-06	-1.877722e-06	-6.019111e-10	-1.306193e+01	-4.241902e+01
1.440000e-06	-1.833624e-06	-5.941198e-10	-1.275518e+01	-4.190036e+01
1.450000e-06	-1.789408e-06	-5.869978e-10	-1.244760e+01	-4.137455e+01
1.460000e-06	-1.745034e-06	-5.807318e-10	-1.213892e+01	-4.084130e+01
1.470000e-06	-1.700516e-06	-5.717840e-10	-1.182924e+01	-4.030028e+01
1.480000e-06	-1.655939e-06	-5.629930e-10	-1.151915e+01	-3.975116e+01
1.490000e-06	-1.611264e-06	-5.541665e-10	-1.120839e+01	-3.919356e+01
1.500000e-06	-1.566335e-06	-5.468366e-10	-1.089584e+01	-3.862707e+01
1.510000e-06	-1.521209e-06	-5.393375e-10	-1.058193e+01	-3.805127e+01
1.520000e-06	-1.476001e-06	-5.296011e-10	-1.026746e+01	-3.746571e+01
1.530000e-06	-1.430736e-06	-5.207796e-10	-9.952580e+00	-3.686991e+01
1.540000e-06	-1.385347e-06	-5.117373e-10	-9.636843e+00	-3.626336e+01
1.550000e-06	-1.339850e-06	-5.005584e-10	-9.320353e+00	-3.564556e+01
1.560000e-06	-1.294301e-06	-4.911302e-10	-9.003507e+00	-3.501597e+01
1.570000e-06	-1.248676e-06	-4.811661e-10	-8.686125e+00	-3.437403e+01
1.580000e-06	-1.202967e-06	-4.700963e-10	-8.368157e+00	-3.371920e+01
1.590000e-06	-1.157175e-06	-4.584515e-10	-8.049621e+00	-3.305091e+01
1.600000e-06	-1.111295e-06	-4.473693e-10	-7.730468e+00	-3.236860e+01
1.610000e-06	-1.065302e-06	-4.360260e-10	-7.410527e+00	-3.167169e+01
1.620000e-06	-1.019193e-06	-4.245814e-10	-7.089776e+00	-3.095962e+01
1.630000e-06	-9.729941e-07	-4.132258e-10	-6.768408e+00	-3.023185e+01
1.640000e-06	-9.267638e-07	-4.034179e-10	-6.446817e+00	-2.948785e+01
1.650000e-06	-8.805464e-07	-3.920930e-10	-6.125317e+00	-2.872709e+01
1.660000e-06	-8.343013e-07	-3.800216e-10	-5.803624e+00	-2.794908e+01
1.670000e-06	-7.879796e-07	-3.667713e-10	-5.481397e+00	-2.715337e+01
1.680000e-06	-7.416171e-07	-3.528889e-10	-5.158887e+00	-2.633953e+01
1.690000e-06	-6.952682e-07	-3.400450e-10	-4.836472e+00	-2.550715e+01
1.700000e-06	-6.488895e-07	-3.272078e-10	-4.513849e+00	-2.465591e+01
1.710000e-06	-6.024132e-07	-3.125711e-10	-4.190548e+00	-2.378550e+01
1.720000e-06	-5.558746e-07	-2.974181e-10	-3.866813e+00	-2.289567e+01
1.730000e-06	-5.092877e-07	-2.833641e-10	-3.542741e+00	-2.198622e+01
1.740000e-06	-4.626300e-07	-2.696754e-10	-3.218178e+00	-2.105704e+01
1.750000e-06	-4.159423e-07	-2.563166e-10	-2.893406e+00	-2.010804e+01
1.760000e-06	-3.692525e-07	-2.434339e-10	-2.568619e+00	-1.913922e+01
1.770000e-06	-3.225843e-07	-2.304599e-10	-2.243983e+00	-1.815065e+01
1.780000e-06	-2.759478e-07	-2.161641e-10	-1.919567e+00	-1.714246e+01
1.790000e-06	-2.291951e-07	-2.040406e-10	-1.594343e+00	-1.611486e+01
1.800000e-06	-1.824165e-07	-1.907794e-10	-1.268938e+00	-1.506813e+01
1.810000e-06	-1.357271e-07	-1.727238e-10	-9.441538e-01	-1.400261e+01
1.820000e-06	-8.910334e-08	-1.529962e-10	-6.198267e-01	-1.291874e+01
1.830000e-06	-4.249599e-08	-1.358883e-10	-2.956135e-01	-1.181702e+01
1.840000e-06	4.296938e-09	-1.222728e-10	2.989065e-02	-1.069802e+01
1.850000e-06	5.117168e-08	-1.103515e-10	3.559639e-01	-9.562389e+00
1.860000e-06	9.795572e-08	-9.670474e-11	6.814062e-01	-8.410843e+00
1.870000e-06	1.447057e-07	-7.629975e-11	1.006611e+00	-7.244163e+00
1.880000e-06	1.914210e-07	-5.464164e-11	1.331576e+00	-6.063197e+00
1.890000e-06	2.381578e-07	-3.523970e-11	1.656689e+00	-4.868854e+00
1.900000e-06	2.849198e-07	-1.914371e-11	1.981978e+00	-3.662099e+00
1.910000e-06	3.316570e-07	-6.209885e-12	2.307095e+00	-2.443950e+00
1.920000e-06	3.783841e-07	8.819548e-12	2.632141e+00	-1.215474e+00
1.930000e-06	4.250847e-07	2.479087e-11	2.957003e+00	2.221861e-02
1.940000e-06	4.717585e-07	4.183447e-11	3.281678e+00	1.267980e+00
1.950000e-06	5.183513e-07	6.062096e-11	3.605790e+00	2.520629e+00
1.960000e-06	5.648889e-07	8.069305e-11	3.929518e+00	3.778960e+00
1.970000e-06	6.113890e-07	1.006806e-10	4.252986e+00	5.041743e+00
1.980000e-06	6.578351e-07	1.192058e-10	4.576077e+00	6.307737e+00
1.990000e-06	7.041631e-07	1.340072e-10	4.898347e+00	7.575690e+00
2.000000e-06	7.503764e-07	1.489336e-10	5.219819e+00	8.844350e+00
2.010000e-06	7.965954e-07	1.646514e-10	5.541331e+00	1.011247e+01
2.020000e-06	8.427990e-07	1.834201e-10	5.862735e+00	1.137880e+01
2.030000e-06	8.889492e-07	2.065731e-10	6.183769e+00	1.264213e+01
2.040000e-06	9.350385e-07	2.294947e-10	6.504378e+00	1.390126e+01
2.050000e-06	9.810633e-07	2.496368e-10	6.824539e+00	1.515501e+01
2.060000e-06	1.027050e-06	2.679479e-10	7.144435e+00	1.640223e+01
2.070000e-06	1.072956e-06	2.827388e-10	7.463767e+00	1.764184e+01
2.080000e-06	1.118776e-06	2.959575e-10	7.782508e+00	1.887275e+01
2.090000e-06	1.164557e-06	3.108173e-10	8.100973e+00	2.009397e+01
2.100000e-06	1.210235e-06	3.259480e-10	8.418718e+00	2.130453e+01
2.110000e-06	1.255817e-06	3.433512e-10	8.735801e+00	2.250351e+01
2.120000e-06	1.301308e-06	3.626899e-10	9.052245e+00	2.369006e+01
2.130000e-06	1.346702e-06	3.814800e-10	9.368021e+00	2.486340e+01
2.140000e-06	1.392011e-06	3.989837e-10	9.683198e+00	2.602278e+01
2.150000e-06	1.437217e-06	4.157284e-10	9.997663e+00	2.716753e+01
2.160000e-06	1.482292e-06	4.295221e-10	1.031122e+01	2.829706e+01
2.170000e-06	1.527244e-06	4.419482e-10	1.062392e+01	2.941081e+01
2.180000e-06	1.572151e-06	4.540743e-10	1.093631e+01	3.050830e+01
2.190000e-06	1.616922e-06	4.685277e-10	1.124774e+01	3.158913e+01
2.200000e-06	1.661574e-06	4.847618e-10	1.155836e+01	3.265293e+01
2.210000e-06	1.706095e-06	5.013814e-10	1.186805e+01	3.369942e+01
2.220000e-06	1.750427e-06	5.170631e-10	1.217644e+01	3.472837e+01
2.230000e-06	1.794658e-06	5.326703e-10	1.248412e+01	3.573959e+01
2.240000e-06	1.838718e-06	5.479688e-10	1.279061e+01	3.673297e+01
2.250000e-06	1.882650e-06	5.624569e-10	1.309622e+01	3.770843e+01
2.260000e-06	1.926561e-06	5.755859e-10	1.340167e+01	3.866596e+01
2.270000e-06	1.970438e-06	5.873294e-10	1.370689e+01	3.960557e+01
2.280000e-06	2.014288e-06	5.991108e-10	1.401193e+01	4.052733e+01
2.290000e-06	2.058082e-06	6.129775e-10	1.431657e+01	4.143135e+01
2.300000e-06	2.101785e-06	6.278103e-10	1.462058e+01	4.231774e+01
2.310000e-06	2.145432e-06	6.418721e-10	1.492420e+01	4.318669e+01
2.320000e-06	2.189025e-06	6.567786e-10	1.522744e+01	4.403837e+01
2.330000e-06	2.232507e-06	6.716068e-10	1.552992e+01	4.487300e+01
2.340000e-06	2.275802e-06	6.846573e-10	1.583109e+01	4.569081e+01
2.350000e-06	2.318896e-06	6.942738e-10	1.613086e+01	4.649203e+01
2.360000e-06	2.361821e-06	7.016947e-10	1.642946e+01	4.727691e+01
2.370000e-06	2.404404e-06	7.078744e-10	1.672568e+01	4.804572e+01
2.380000e-06	2.446568e-06	7.183917e-10	1.701898e+01	4.879871e+01
2.390000e-06	2.488438e-06	7.335456e-10	1.731024e+01	4.953614e+01
2.400000e-06	2.529865e-06	7.493089e-10	1.759842e+01	5.025828e+01
2.410000e-06	2.570892e-06	7.623652e-10	1.788382e+01	5.096537e+01
2.420000e-06	2.611657e-06	7.718634e-10	1.816739e+01	5.165765e+01
2.430000e-06	2.652152e-06	7.784949e-10	1.844908e+01	5.233536e+01
2.440000e-06	2.692480e-06	7.830367e-10	1.872961e+01	5.299872e+01
2.450000e-06	2.732614e-06	7.902453e-10	1.900880e+01	5.364795e+01
2.460000e-06	2.772577e-06	8.007228e-10	1.928679e+01	5.428325e+01
2.470000e-06	2.812499e-06	8.097662e-10	1.956450e+01	5.490479e+01
2.480000e-06	2.852332e-06	8.186643e-10	1.984159e+01	5.551275e+01
2.490000e-06	2.892029e-06	8.285946e-10	2.011773e+01	5.610729e+01
2.500000e-06	2.931600e-06	8.374272e-10	2.039300e+01	5.668855e+01
2.510000e-06	2.970951e-06	8.452178e-10	2.066673e+01	5.725666e+01
2.520000e-06	3.010110e-06	8.527491e-10	2.093913e+01	5.781174e+01
2.530000e-06	3.049104e-06	8.594574e-10	2.121038e+01	5.835390e+01
2.540000e-06	3.087866e-06	8.671365e-10	2.148003e+01	5.888325e+01
2.550000e-06	3.126422e-06	8.753040e-10	2.174823e+01	5.939987e+01
2.560000e-06	3.164737e-06	8.807567e-10	2.201476e+01	5.990386e+01
2.570000e-06	3.202814e-06	8.845765e-10	2.227963e+01	6.039530e+01
2.580000e-06	3.240727e-06	8.913804e-10	2.254337e+01	6.087426e+01
2.590000e-06	3.278440e-06	8.985862e-10	2.280571e+01	6.134085e+01
2.600000e-06	3.315924e-06	9.043918e-10	2.306645e+01	6.179514e+01
2.610000e-06	3.353253e-06	9.115075e-10	2.332613e+01	6.223722e+01
2.620000e-06	3.390237e-06	9.198208e-10	2.358340e+01	6.266720e+01
2.630000e-06	3.426870e-06	9.279640e-10	2.383822e+01	6.308517e+01
2.640000e-06	3.463286e-06	9.348894e-10	2.409154e+01	6.349126e+01
2.650000e-06	3.499430e-06	9.424117e-10	2.434297e+01	6.388559e+01
2.660000e-06	3.535402e-06	9.479358e-10	2.459321e+01	6.426830e+01
2.670000e-06	3.571284e-06	9.505084e-10	2.484281e+01	6.463955e+01
2.680000e-06	3.607090e-06	9.524906e-10	2.509189e+01	6.499951e+01
2.690000e-06	3.642796e-06	9.548955e-10	2.534026e+01	6.534838e+01
2.700000e-06	3.678374e-06	9.579741e-10	2.558775e+01	6.568634e+01
2.710000e-06	3.713779e-06	9.627364e-10	2.583404e+01	6.601363e+01
2.720000e-06	3.748977e-06	9.683031e-10	2.607889e+01	6.633049e+01
2.730000e-06	3.783746e-06	9.745996e-10	2.632075e+01	6.663717e+01
2.740000e-06	3.817977e-06	9.801541e-10	2.655887e+01	6.693395e+01
2.750000e-06	3.851728e-06	9.844121e-10	2.679365e+01	6.722111e+01
2.760000e-06	3.884928e-06	9.867072e-10	2.702460e+01	6.749896e+01
2.770000e-06	3.917551e-06	9.859908e-10	2.725153e+01	6.776782e+01
2.780000e-06	3.949773e-06	9.880759e-10	2.747568e+01	6.802801e+01
2.790000e-06	3.981811e-06	9.922088e-10	2.769854e+01	6.827987e+01
2.800000e-06	4.013722e-06	9.972922e-10	2.792053e+01	6.852375e+01
2.810000e-06	4.045517e-06	1.004471e-09	2.814170e+01	6.876001e+01
2.820000e-06	4.077182e-06	1.012051e-09	2.836197e+01	6.898901e+01
2.830000e-06	4.108722e-06	1.017141e-09	2.858137e+01	6.921109e+01
2.840000e-06	4.139983e-06	1.018357e-09	2.879883e+01	6.942662e+01
2.850000e-06	4.170872e-06	1.017357e-09	2.901370e+01	6.963595e+01
2.860000e-06	4.201385e-06	1.016122e-09	2.922596e+01	6.983944e+01
2.870000e-06	4.231578e-06	1.016696e-09	2.943599e+01	7.003742e+01
2.880000e-06	4.261485e-06	1.016758e-09	2.964403e+01	7.023023e+01
2.890000e-06	4.291104e-06	1.014730e-09	2.985007e+01	7.041817e+01
2.900000e-06	4.320545e-06	1.015898e-09	3.005487e+01	7.060156e+01
2.910000e-06	4.349704e-06	1.020942e-09	3.025771e+01	7.078067e+01
