# Temperatura_=_-0.8
# Concentracion g/m^3_=_1620.0
# C_Vs_to_Am_M_A/Vsm_=_65563218390.804596
# pendiente_HvsI_1/m_=_3716.3
# ordenada_HvsI_A/m_=_1297.0
# frecuencia_Hz_=_135096.78203294272

Tiempo_(s)	Campo_(V.s)	Magnetizacion_(V.s)	Campo_(kA/m)	Magnetizacion_(A/m)
0.000000e+00	-5.524531e-06	-1.285475e-09	-3.836151e+01	-8.460100e+01
1.000000e-08	-5.524815e-06	-1.282055e-09	-3.836348e+01	-8.457922e+01
2.000000e-08	-5.524917e-06	-1.278311e-09	-3.836419e+01	-8.455537e+01
3.000000e-08	-5.524660e-06	-1.277525e-09	-3.836240e+01	-8.452920e+01
4.000000e-08	-5.523928e-06	-1.276150e-09	-3.835732e+01	-8.450043e+01
5.000000e-08	-5.522692e-06	-1.276070e-09	-3.834874e+01	-8.446880e+01
6.000000e-08	-5.520920e-06	-1.279774e-09	-3.833643e+01	-8.443403e+01
7.000000e-08	-5.518456e-06	-1.287547e-09	-3.831932e+01	-8.439586e+01
8.000000e-08	-5.515347e-06	-1.307664e-09	-3.829774e+01	-8.435402e+01
9.000000e-08	-5.511734e-06	-1.294711e-09	-3.827264e+01	-8.430826e+01
1.000000e-07	-5.507631e-06	-1.245665e-09	-3.824416e+01	-8.425834e+01
1.100000e-07	-5.503297e-06	-1.235899e-09	-3.821406e+01	-8.420403e+01
1.200000e-07	-5.498839e-06	-1.301057e-09	-3.818311e+01	-8.414512e+01
1.300000e-07	-5.494070e-06	-1.310591e-09	-3.814999e+01	-8.408140e+01
1.400000e-07	-5.488884e-06	-1.265350e-09	-3.811398e+01	-8.401272e+01
1.500000e-07	-5.483295e-06	-1.226235e-09	-3.807517e+01	-8.393890e+01
1.600000e-07	-5.477454e-06	-1.302089e-09	-3.803461e+01	-8.385981e+01
1.700000e-07	-5.471244e-06	-1.308328e-09	-3.799149e+01	-8.377534e+01
1.800000e-07	-5.464544e-06	-1.249817e-09	-3.794496e+01	-8.368540e+01
1.900000e-07	-5.457456e-06	-1.205560e-09	-3.789575e+01	-8.358992e+01
2.000000e-07	-5.450011e-06	-1.273400e-09	-3.784405e+01	-8.348888e+01
2.100000e-07	-5.442259e-06	-1.314460e-09	-3.779022e+01	-8.338224e+01
2.200000e-07	-5.434228e-06	-1.290180e-09	-3.773445e+01	-8.327004e+01
2.300000e-07	-5.425991e-06	-1.245650e-09	-3.767726e+01	-8.315229e+01
2.400000e-07	-5.417532e-06	-1.254055e-09	-3.761852e+01	-8.302907e+01
2.500000e-07	-5.408485e-06	-1.279187e-09	-3.755570e+01	-8.290045e+01
2.600000e-07	-5.398646e-06	-1.261081e-09	-3.748738e+01	-8.276655e+01
2.700000e-07	-5.388228e-06	-1.242396e-09	-3.741504e+01	-8.262749e+01
2.800000e-07	-5.377343e-06	-1.240398e-09	-3.733946e+01	-8.248342e+01
2.900000e-07	-5.365986e-06	-1.263791e-09	-3.726060e+01	-8.233452e+01
3.000000e-07	-5.354125e-06	-1.235065e-09	-3.717823e+01	-8.218096e+01
3.100000e-07	-5.341847e-06	-1.218806e-09	-3.709297e+01	-8.202295e+01
3.200000e-07	-5.329213e-06	-1.208038e-09	-3.700525e+01	-8.186070e+01
3.300000e-07	-5.316156e-06	-1.243036e-09	-3.691458e+01	-8.169445e+01
3.400000e-07	-5.302708e-06	-1.212344e-09	-3.682120e+01	-8.152442e+01
3.500000e-07	-5.288814e-06	-1.198844e-09	-3.672472e+01	-8.135086e+01
3.600000e-07	-5.274466e-06	-1.209144e-09	-3.662509e+01	-8.117403e+01
3.700000e-07	-5.259802e-06	-1.240102e-09	-3.652327e+01	-8.099418e+01
3.800000e-07	-5.244603e-06	-1.192085e-09	-3.641773e+01	-8.081155e+01
3.900000e-07	-5.228715e-06	-1.189248e-09	-3.630741e+01	-8.062642e+01
4.000000e-07	-5.212414e-06	-1.212053e-09	-3.619421e+01	-8.043902e+01
4.100000e-07	-5.195771e-06	-1.195404e-09	-3.607865e+01	-8.024960e+01
4.200000e-07	-5.178771e-06	-1.158581e-09	-3.596060e+01	-8.005841e+01
4.300000e-07	-5.161494e-06	-1.205805e-09	-3.584063e+01	-7.986568e+01
4.400000e-07	-5.143921e-06	-1.215676e-09	-3.571861e+01	-7.967162e+01
4.500000e-07	-5.125979e-06	-1.153888e-09	-3.559402e+01	-7.947645e+01
4.600000e-07	-5.107581e-06	-1.156443e-09	-3.546627e+01	-7.928036e+01
4.700000e-07	-5.088709e-06	-1.205458e-09	-3.533522e+01	-7.908353e+01
4.800000e-07	-5.069470e-06	-1.165353e-09	-3.520163e+01	-7.888613e+01
4.900000e-07	-5.049964e-06	-1.134177e-09	-3.506618e+01	-7.868831e+01
5.000000e-07	-5.030264e-06	-1.188380e-09	-3.492939e+01	-7.849019e+01
5.100000e-07	-5.010399e-06	-1.178240e-09	-3.479145e+01	-7.829189e+01
5.200000e-07	-4.990291e-06	-1.130839e-09	-3.465182e+01	-7.809351e+01
5.300000e-07	-4.969826e-06	-1.166876e-09	-3.450972e+01	-7.789511e+01
5.400000e-07	-4.949034e-06	-1.185054e-09	-3.436534e+01	-7.769675e+01
5.500000e-07	-4.927894e-06	-1.115121e-09	-3.421855e+01	-7.749846e+01
5.600000e-07	-4.906364e-06	-1.130466e-09	-3.406905e+01	-7.730027e+01
5.700000e-07	-4.884528e-06	-1.181008e-09	-3.391742e+01	-7.710217e+01
5.800000e-07	-4.862307e-06	-1.145052e-09	-3.376312e+01	-7.690414e+01
5.900000e-07	-4.839690e-06	-1.119037e-09	-3.360607e+01	-7.670613e+01
6.000000e-07	-4.816788e-06	-1.169613e-09	-3.344705e+01	-7.650810e+01
6.100000e-07	-4.793570e-06	-1.150435e-09	-3.328583e+01	-7.630996e+01
6.200000e-07	-4.770024e-06	-1.114326e-09	-3.312232e+01	-7.611162e+01
6.300000e-07	-4.746232e-06	-1.142154e-09	-3.295711e+01	-7.591299e+01
6.400000e-07	-4.722245e-06	-1.157562e-09	-3.279055e+01	-7.571394e+01
6.500000e-07	-4.698013e-06	-1.117802e-09	-3.262229e+01	-7.551435e+01
6.600000e-07	-4.673415e-06	-1.132694e-09	-3.245148e+01	-7.531406e+01
6.700000e-07	-4.648356e-06	-1.145411e-09	-3.227748e+01	-7.511293e+01
6.800000e-07	-4.622725e-06	-1.114991e-09	-3.209950e+01	-7.491079e+01
6.900000e-07	-4.596430e-06	-1.106510e-09	-3.191691e+01	-7.470747e+01
7.000000e-07	-4.569620e-06	-1.130138e-09	-3.173075e+01	-7.450279e+01
7.100000e-07	-4.542428e-06	-1.109902e-09	-3.154193e+01	-7.429658e+01
7.200000e-07	-4.514930e-06	-1.097608e-09	-3.135099e+01	-7.408864e+01
7.300000e-07	-4.487298e-06	-1.116405e-09	-3.115912e+01	-7.387878e+01
7.400000e-07	-4.459536e-06	-1.111759e-09	-3.096634e+01	-7.366681e+01
7.500000e-07	-4.431547e-06	-1.087345e-09	-3.077199e+01	-7.345253e+01
7.600000e-07	-4.403267e-06	-1.094767e-09	-3.057562e+01	-7.323574e+01
7.700000e-07	-4.374665e-06	-1.096982e-09	-3.037701e+01	-7.301626e+01
7.800000e-07	-4.345660e-06	-1.076997e-09	-3.017561e+01	-7.279389e+01
7.900000e-07	-4.316302e-06	-1.078113e-09	-2.997175e+01	-7.256843e+01
8.000000e-07	-4.286721e-06	-1.084332e-09	-2.976634e+01	-7.233971e+01
8.100000e-07	-4.256856e-06	-1.065725e-09	-2.955896e+01	-7.210753e+01
8.200000e-07	-4.226744e-06	-1.052834e-09	-2.934987e+01	-7.187173e+01
8.300000e-07	-4.196438e-06	-1.058032e-09	-2.913943e+01	-7.163211e+01
8.400000e-07	-4.165815e-06	-1.043906e-09	-2.892679e+01	-7.138852e+01
8.500000e-07	-4.134843e-06	-1.033771e-09	-2.871173e+01	-7.114080e+01
8.600000e-07	-4.103565e-06	-1.042430e-09	-2.849453e+01	-7.088878e+01
8.700000e-07	-4.072068e-06	-1.042859e-09	-2.827582e+01	-7.063232e+01
8.800000e-07	-4.040478e-06	-1.026258e-09	-2.805647e+01	-7.037127e+01
8.900000e-07	-4.008711e-06	-1.029656e-09	-2.783588e+01	-7.010551e+01
9.000000e-07	-3.976661e-06	-1.025812e-09	-2.761333e+01	-6.983489e+01
9.100000e-07	-3.944294e-06	-1.008664e-09	-2.738858e+01	-6.955932e+01
9.200000e-07	-3.911642e-06	-1.003654e-09	-2.716185e+01	-6.927866e+01
9.300000e-07	-3.878628e-06	-1.009994e-09	-2.693261e+01	-6.899283e+01
9.400000e-07	-3.845155e-06	-9.976756e-10	-2.670018e+01	-6.870171e+01
9.500000e-07	-3.811219e-06	-9.923879e-10	-2.646453e+01	-6.840523e+01
9.600000e-07	-3.776799e-06	-9.966383e-10	-2.622552e+01	-6.810331e+01
9.700000e-07	-3.741944e-06	-9.914700e-10	-2.598349e+01	-6.779587e+01
9.800000e-07	-3.706732e-06	-9.767353e-10	-2.573898e+01	-6.748285e+01
9.900000e-07	-3.671315e-06	-9.788885e-10	-2.549306e+01	-6.716419e+01
1.000000e-06	-3.635756e-06	-9.762181e-10	-2.524614e+01	-6.683985e+01
1.010000e-06	-3.600044e-06	-9.660569e-10	-2.499816e+01	-6.650978e+01
1.020000e-06	-3.564132e-06	-9.680719e-10	-2.474879e+01	-6.617396e+01
1.030000e-06	-3.528052e-06	-9.719505e-10	-2.449826e+01	-6.583236e+01
1.040000e-06	-3.491884e-06	-9.613091e-10	-2.424711e+01	-6.548496e+01
1.050000e-06	-3.455525e-06	-9.537819e-10	-2.399464e+01	-6.513175e+01
1.060000e-06	-3.418865e-06	-9.543008e-10	-2.374008e+01	-6.477273e+01
1.070000e-06	-3.381887e-06	-9.465733e-10	-2.348331e+01	-6.440790e+01
1.080000e-06	-3.344567e-06	-9.357028e-10	-2.322416e+01	-6.403728e+01
1.090000e-06	-3.306990e-06	-9.324401e-10	-2.296323e+01	-6.366089e+01
1.100000e-06	-3.269193e-06	-9.267343e-10	-2.270078e+01	-6.327873e+01
1.110000e-06	-3.231135e-06	-9.154625e-10	-2.243651e+01	-6.289086e+01
1.120000e-06	-3.192941e-06	-9.125582e-10	-2.217130e+01	-6.249729e+01
1.130000e-06	-3.154563e-06	-9.091380e-10	-2.190480e+01	-6.209807e+01
1.140000e-06	-3.115884e-06	-9.008828e-10	-2.163623e+01	-6.169324e+01
1.150000e-06	-3.077079e-06	-8.938150e-10	-2.136677e+01	-6.128285e+01
1.160000e-06	-3.038069e-06	-8.920884e-10	-2.109589e+01	-6.086694e+01
1.170000e-06	-2.998784e-06	-8.826467e-10	-2.082310e+01	-6.044558e+01
1.180000e-06	-2.959397e-06	-8.734375e-10	-2.054960e+01	-6.001880e+01
1.190000e-06	-2.919934e-06	-8.675007e-10	-2.027558e+01	-5.958666e+01
1.200000e-06	-2.880279e-06	-8.582636e-10	-2.000022e+01	-5.914922e+01
1.210000e-06	-2.840409e-06	-8.467098e-10	-1.972337e+01	-5.870653e+01
1.220000e-06	-2.800465e-06	-8.423156e-10	-1.944600e+01	-5.825862e+01
1.230000e-06	-2.760470e-06	-8.369947e-10	-1.916829e+01	-5.780555e+01
1.240000e-06	-2.720305e-06	-8.285547e-10	-1.888939e+01	-5.734736e+01
1.250000e-06	-2.679873e-06	-8.215804e-10	-1.860863e+01	-5.688406e+01
1.260000e-06	-2.639192e-06	-8.176172e-10	-1.832615e+01	-5.641569e+01
1.270000e-06	-2.598221e-06	-8.084795e-10	-1.804165e+01	-5.594226e+01
1.280000e-06	-2.556862e-06	-8.003442e-10	-1.775446e+01	-5.546377e+01
1.290000e-06	-2.515187e-06	-7.946389e-10	-1.746508e+01	-5.498021e+01
1.300000e-06	-2.473253e-06	-7.865947e-10	-1.717390e+01	-5.449155e+01
1.310000e-06	-2.431050e-06	-7.761703e-10	-1.688084e+01	-5.399776e+01
1.320000e-06	-2.388590e-06	-7.680999e-10	-1.658600e+01	-5.349879e+01
1.330000e-06	-2.345861e-06	-7.610522e-10	-1.628930e+01	-5.299456e+01
1.340000e-06	-2.302869e-06	-7.521602e-10	-1.599077e+01	-5.248497e+01
1.350000e-06	-2.259666e-06	-7.437050e-10	-1.569078e+01	-5.196991e+01
1.360000e-06	-2.216309e-06	-7.377960e-10	-1.538971e+01	-5.144925e+01
1.370000e-06	-2.172826e-06	-7.319469e-10	-1.508777e+01	-5.092284e+01
1.380000e-06	-2.129254e-06	-7.233213e-10	-1.478522e+01	-5.039048e+01
1.390000e-06	-2.085577e-06	-7.131827e-10	-1.448193e+01	-4.985198e+01
1.400000e-06	-2.041739e-06	-7.011851e-10	-1.417752e+01	-4.930710e+01
1.410000e-06	-1.997866e-06	-6.891930e-10	-1.387288e+01	-4.875559e+01
1.420000e-06	-1.954021e-06	-6.797626e-10	-1.356842e+01	-4.819717e+01
1.430000e-06	-1.910075e-06	-6.744973e-10	-1.326327e+01	-4.763153e+01
1.440000e-06	-1.865998e-06	-6.690309e-10	-1.295721e+01	-4.705833e+01
1.450000e-06	-1.821745e-06	-6.615484e-10	-1.264992e+01	-4.647721e+01
1.460000e-06	-1.777388e-06	-6.515752e-10	-1.234191e+01	-4.588780e+01
1.470000e-06	-1.732916e-06	-6.396279e-10	-1.203311e+01	-4.528969e+01
1.480000e-06	-1.688238e-06	-6.259320e-10	-1.172287e+01	-4.468244e+01
1.490000e-06	-1.643404e-06	-6.146519e-10	-1.141154e+01	-4.406559e+01
1.500000e-06	-1.598459e-06	-6.042147e-10	-1.109946e+01	-4.343869e+01
1.510000e-06	-1.553372e-06	-5.956422e-10	-1.078638e+01	-4.280123e+01
1.520000e-06	-1.508158e-06	-5.869539e-10	-1.047242e+01	-4.215272e+01
1.530000e-06	-1.462894e-06	-5.765945e-10	-1.015811e+01	-4.149261e+01
1.540000e-06	-1.417525e-06	-5.652030e-10	-9.843080e+00	-4.082039e+01
1.550000e-06	-1.372132e-06	-5.543233e-10	-9.527875e+00	-4.013551e+01
1.560000e-06	-1.326666e-06	-5.419423e-10	-9.212166e+00	-3.943742e+01
1.570000e-06	-1.281033e-06	-5.308199e-10	-8.895296e+00	-3.872557e+01
1.580000e-06	-1.235306e-06	-5.205427e-10	-8.577775e+00	-3.799940e+01
1.590000e-06	-1.189535e-06	-5.084566e-10	-8.259953e+00	-3.725837e+01
1.600000e-06	-1.143732e-06	-4.961142e-10	-7.941900e+00	-3.650193e+01
1.610000e-06	-1.097833e-06	-4.865972e-10	-7.623188e+00	-3.572956e+01
1.620000e-06	-1.051837e-06	-4.760210e-10	-7.303796e+00	-3.494074e+01
1.630000e-06	-1.005739e-06	-4.614849e-10	-6.983698e+00	-3.413497e+01
1.640000e-06	-9.595349e-07	-4.468810e-10	-6.662865e+00	-3.331178e+01
1.650000e-06	-9.132767e-07	-4.315483e-10	-6.341655e+00	-3.247071e+01
1.660000e-06	-8.669701e-07	-4.188834e-10	-6.020109e+00	-3.161135e+01
1.670000e-06	-8.205679e-07	-4.063562e-10	-5.697899e+00	-3.073331e+01
1.680000e-06	-7.741241e-07	-3.926711e-10	-5.375401e+00	-2.983624e+01
1.690000e-06	-7.276695e-07	-3.784415e-10	-5.052827e+00	-2.891983e+01
1.700000e-06	-6.812477e-07	-3.638776e-10	-4.730480e+00	-2.798382e+01
1.710000e-06	-6.348191e-07	-3.487267e-10	-4.408088e+00	-2.702798e+01
1.720000e-06	-5.882320e-07	-3.342603e-10	-4.084594e+00	-2.605217e+01
1.730000e-06	-5.415843e-07	-3.204869e-10	-3.760679e+00	-2.505625e+01
1.740000e-06	-4.949090e-07	-3.059994e-10	-3.436573e+00	-2.404017e+01
1.750000e-06	-4.482050e-07	-2.903957e-10	-3.112267e+00	-2.300393e+01
1.760000e-06	-4.015145e-07	-2.755733e-10	-2.788056e+00	-2.194759e+01
1.770000e-06	-3.547356e-07	-2.620370e-10	-2.463230e+00	-2.087128e+01
1.780000e-06	-3.078418e-07	-2.481198e-10	-2.137606e+00	-1.977516e+01
1.790000e-06	-2.609872e-07	-2.329840e-10	-1.812255e+00	-1.865949e+01
1.800000e-06	-2.141776e-07	-2.172119e-10	-1.487217e+00	-1.752458e+01
1.810000e-06	-1.673165e-07	-2.018858e-10	-1.161821e+00	-1.637080e+01
1.820000e-06	-1.204476e-07	-1.855457e-10	-8.363697e-01	-1.519859e+01
1.830000e-06	-7.360858e-08	-1.663314e-10	-5.111268e-01	-1.400845e+01
1.840000e-06	-2.679314e-08	-1.466195e-10	-1.860475e-01	-1.280094e+01
1.850000e-06	2.001192e-08	-1.293654e-10	1.389597e-01	-1.157669e+01
1.860000e-06	6.683572e-08	-1.142950e-10	4.640971e-01	-1.033638e+01
1.870000e-06	1.137337e-07	-9.777977e-11	7.897496e-01	-9.080741e+00
1.880000e-06	1.606747e-07	-7.980251e-11	1.115701e+00	-7.810577e+00
1.890000e-06	2.075608e-07	-6.317961e-11	1.441271e+00	-6.526728e+00
1.900000e-06	2.544589e-07	-4.629802e-11	1.766924e+00	-5.230088e+00
1.910000e-06	3.013545e-07	-2.973133e-11	2.092560e+00	-3.921595e+00
1.920000e-06	3.482007e-07	-1.132372e-11	2.417853e+00	-2.602228e+00
1.930000e-06	3.949987e-07	9.626819e-12	2.742811e+00	-1.273002e+00
1.940000e-06	4.417087e-07	2.949415e-11	3.067158e+00	6.503211e-02
1.950000e-06	4.883424e-07	4.748811e-11	3.390975e+00	1.410798e+00
1.960000e-06	5.349095e-07	6.469531e-11	3.714330e+00	2.763192e+00
1.970000e-06	5.814627e-07	8.193436e-11	4.037589e+00	4.121095e+00
1.980000e-06	6.280451e-07	9.910539e-11	4.361050e+00	5.483369e+00
1.990000e-06	6.746105e-07	1.158628e-10	4.684393e+00	6.848868e+00
2.000000e-06	7.210559e-07	1.344736e-10	5.006903e+00	8.216442e+00
2.010000e-06	7.674555e-07	1.560004e-10	5.329094e+00	9.584938e+00
2.020000e-06	8.138627e-07	1.759093e-10	5.651339e+00	1.095321e+01
2.030000e-06	8.601994e-07	1.968936e-10	5.973094e+00	1.232012e+01
2.040000e-06	9.063897e-07	2.195828e-10	6.293832e+00	1.368453e+01
2.050000e-06	9.524806e-07	2.389945e-10	6.613881e+00	1.504535e+01
2.060000e-06	9.985991e-07	2.578854e-10	6.934121e+00	1.640149e+01
2.070000e-06	1.044661e-06	2.756039e-10	7.253967e+00	1.775188e+01
2.080000e-06	1.090572e-06	2.924949e-10	7.572763e+00	1.909550e+01
2.090000e-06	1.136395e-06	3.101426e-10	7.890954e+00	2.043135e+01
2.100000e-06	1.182163e-06	3.302421e-10	8.208761e+00	2.175847e+01
2.110000e-06	1.227869e-06	3.502691e-10	8.526133e+00	2.307592e+01
2.120000e-06	1.273534e-06	3.694686e-10	8.843225e+00	2.438285e+01
2.130000e-06	1.319072e-06	3.875323e-10	9.159439e+00	2.567839e+01
2.140000e-06	1.364458e-06	4.049122e-10	9.474588e+00	2.696177e+01
2.150000e-06	1.409684e-06	4.213318e-10	9.788635e+00	2.823224e+01
2.160000e-06	1.454820e-06	4.361624e-10	1.010205e+01	2.948911e+01
2.170000e-06	1.499994e-06	4.525390e-10	1.041573e+01	3.073172e+01
2.180000e-06	1.545036e-06	4.692620e-10	1.072850e+01	3.195948e+01
2.190000e-06	1.589989e-06	4.868302e-10	1.104064e+01	3.317184e+01
2.200000e-06	1.634874e-06	5.060053e-10	1.135232e+01	3.436830e+01
2.210000e-06	1.679532e-06	5.229992e-10	1.166242e+01	3.554842e+01
2.220000e-06	1.723927e-06	5.357773e-10	1.197069e+01	3.671180e+01
2.230000e-06	1.768263e-06	5.469294e-10	1.227855e+01	3.785808e+01
2.240000e-06	1.812542e-06	5.605388e-10	1.258601e+01	3.898696e+01
2.250000e-06	1.856710e-06	5.770401e-10	1.289271e+01	4.009818e+01
2.260000e-06	1.900839e-06	5.957189e-10	1.319914e+01	4.119152e+01
2.270000e-06	1.944830e-06	6.130142e-10	1.350461e+01	4.226680e+01
2.280000e-06	1.988697e-06	6.271094e-10	1.380921e+01	4.332389e+01
2.290000e-06	2.032478e-06	6.402380e-10	1.411322e+01	4.436269e+01
2.300000e-06	2.076236e-06	6.520283e-10	1.441707e+01	4.538313e+01
2.310000e-06	2.119908e-06	6.613539e-10	1.472032e+01	4.638517e+01
2.320000e-06	2.163467e-06	6.729757e-10	1.502279e+01	4.736882e+01
2.330000e-06	2.206958e-06	6.895513e-10	1.532478e+01	4.833409e+01
2.340000e-06	2.250359e-06	7.069943e-10	1.562615e+01	4.928104e+01
2.350000e-06	2.293617e-06	7.218974e-10	1.592653e+01	5.020973e+01
2.360000e-06	2.336657e-06	7.336034e-10	1.622539e+01	5.112026e+01
2.370000e-06	2.379423e-06	7.443799e-10	1.652235e+01	5.201273e+01
2.380000e-06	2.421919e-06	7.546345e-10	1.681744e+01	5.288726e+01
2.390000e-06	2.464102e-06	7.670424e-10	1.711035e+01	5.374399e+01
2.400000e-06	2.505991e-06	7.804839e-10	1.740122e+01	5.458308e+01
2.410000e-06	2.547483e-06	7.939000e-10	1.768933e+01	5.540468e+01
2.420000e-06	2.588696e-06	8.070165e-10	1.797551e+01	5.620894e+01
2.430000e-06	2.629735e-06	8.189445e-10	1.826048e+01	5.699606e+01
2.440000e-06	2.670461e-06	8.292991e-10	1.854328e+01	5.776619e+01
2.450000e-06	2.710882e-06	8.388354e-10	1.882395e+01	5.851953e+01
2.460000e-06	2.751077e-06	8.477383e-10	1.910306e+01	5.925626e+01
2.470000e-06	2.791112e-06	8.569034e-10	1.938106e+01	5.997657e+01
2.480000e-06	2.830978e-06	8.665592e-10	1.965788e+01	6.068063e+01
2.490000e-06	2.870719e-06	8.761306e-10	1.993384e+01	6.136865e+01
2.500000e-06	2.910356e-06	8.862876e-10	2.020907e+01	6.204081e+01
2.510000e-06	2.949886e-06	8.969657e-10	2.048356e+01	6.269731e+01
2.520000e-06	2.989196e-06	9.079885e-10	2.075652e+01	6.333833e+01
2.530000e-06	3.028321e-06	9.188830e-10	2.102820e+01	6.396408e+01
2.540000e-06	3.067274e-06	9.286017e-10	2.129869e+01	6.457474e+01
2.550000e-06	3.105954e-06	9.361482e-10	2.156727e+01	6.517052e+01
2.560000e-06	3.144487e-06	9.417364e-10	2.183484e+01	6.575163e+01
2.570000e-06	3.182870e-06	9.471053e-10	2.210137e+01	6.631825e+01
2.580000e-06	3.221047e-06	9.547178e-10	2.236646e+01	6.687061e+01
2.590000e-06	3.258978e-06	9.653919e-10	2.262985e+01	6.740891e+01
2.600000e-06	3.296642e-06	9.766017e-10	2.289138e+01	6.793338e+01
2.610000e-06	3.334126e-06	9.858833e-10	2.315166e+01	6.844423e+01
2.620000e-06	3.371315e-06	9.937882e-10	2.340990e+01	6.894171e+01
2.630000e-06	3.408224e-06	1.000955e-09	2.366619e+01	6.942605e+01
2.640000e-06	3.444933e-06	1.005042e-09	2.392109e+01	6.989749e+01
2.650000e-06	3.481348e-06	1.007779e-09	2.417396e+01	7.035630e+01
2.660000e-06	3.517537e-06	1.015008e-09	2.442525e+01	7.080273e+01
2.670000e-06	3.553592e-06	1.023852e-09	2.467561e+01	7.123706e+01
2.680000e-06	3.589500e-06	1.031834e-09	2.492495e+01	7.165957e+01
2.690000e-06	3.625257e-06	1.038230e-09	2.517323e+01	7.207054e+01
2.700000e-06	3.660910e-06	1.041956e-09	2.542080e+01	7.247029e+01
2.710000e-06	3.696470e-06	1.046344e-09	2.566773e+01	7.285911e+01
2.720000e-06	3.731829e-06	1.051997e-09	2.591326e+01	7.323732e+01
2.730000e-06	3.766779e-06	1.056370e-09	2.615595e+01	7.360525e+01
2.740000e-06	3.801242e-06	1.059830e-09	2.639525e+01	7.396321e+01
2.750000e-06	3.835290e-06	1.062568e-09	2.663168e+01	7.431156e+01
2.760000e-06	3.868912e-06	1.065250e-09	2.686514e+01	7.465062e+01
2.770000e-06	3.902132e-06	1.068334e-09	2.709581e+01	7.498074e+01
2.780000e-06	3.934909e-06	1.073343e-09	2.732341e+01	7.530227e+01
2.790000e-06	3.967249e-06	1.082029e-09	2.754798e+01	7.561554e+01
2.800000e-06	3.999313e-06	1.088123e-09	2.777062e+01	7.592091e+01
2.810000e-06	4.031230e-06	1.089991e-09	2.799225e+01	7.621871e+01
2.820000e-06	4.062987e-06	1.091781e-09	2.821277e+01	7.650929e+01
2.830000e-06	4.094530e-06	1.094414e-09	2.843180e+01	7.679298e+01
2.840000e-06	4.125831e-06	1.098964e-09	2.864914e+01	7.707009e+01
2.850000e-06	4.156902e-06	1.104739e-09	2.886490e+01	7.734095e+01
2.860000e-06	4.187749e-06	1.111023e-09	2.907909e+01	7.760587e+01
2.870000e-06	4.218252e-06	1.118052e-09	2.929090e+01	7.786512e+01
2.880000e-06	4.248368e-06	1.122892e-09	2.950002e+01	7.811899e+01
2.890000e-06	4.278222e-06	1.124233e-09	2.970732e+01	7.836774e+01
2.900000e-06	4.307852e-06	1.124077e-09	2.991307e+01	7.861161e+01
