# Temperatura_=_-0.7
# Concentracion g/m^3_=_1620.0
# C_Vs_to_Am_M_A/Vsm_=_65563218390.804596
# pendiente_HvsI_1/m_=_3716.3
# ordenada_HvsI_A/m_=_1297.0
# frecuencia_Hz_=_135097.2431582879

Tiempo_(s)	Campo_(V.s)	Magnetizacion_(V.s)	Campo_(kA/m)	Magnetizacion_(A/m)
0.000000e+00	-5.544882e-06	-1.317620e-09	-3.837975e+01	-8.542364e+01
1.000000e-08	-5.545043e-06	-1.316203e-09	-3.838086e+01	-8.539706e+01
2.000000e-08	-5.544875e-06	-1.316445e-09	-3.837970e+01	-8.536820e+01
3.000000e-08	-5.544285e-06	-1.317202e-09	-3.837561e+01	-8.533698e+01
4.000000e-08	-5.543209e-06	-1.314326e-09	-3.836817e+01	-8.530332e+01
5.000000e-08	-5.541620e-06	-1.307606e-09	-3.835717e+01	-8.526715e+01
6.000000e-08	-5.539538e-06	-1.294244e-09	-3.834276e+01	-8.522836e+01
7.000000e-08	-5.536812e-06	-1.300269e-09	-3.832389e+01	-8.518687e+01
8.000000e-08	-5.533517e-06	-1.348064e-09	-3.830108e+01	-8.514256e+01
9.000000e-08	-5.529798e-06	-1.362549e-09	-3.827534e+01	-8.509534e+01
1.000000e-07	-5.525656e-06	-1.276805e-09	-3.824667e+01	-8.504508e+01
1.100000e-07	-5.521204e-06	-1.254863e-09	-3.821586e+01	-8.499168e+01
1.200000e-07	-5.516617e-06	-1.299217e-09	-3.818411e+01	-8.493502e+01
1.300000e-07	-5.511712e-06	-1.365199e-09	-3.815015e+01	-8.487499e+01
1.400000e-07	-5.506282e-06	-1.277910e-09	-3.811257e+01	-8.481147e+01
1.500000e-07	-5.500587e-06	-1.237079e-09	-3.807315e+01	-8.474435e+01
1.600000e-07	-5.494589e-06	-1.313579e-09	-3.803164e+01	-8.467353e+01
1.700000e-07	-5.488050e-06	-1.372763e-09	-3.798637e+01	-8.459889e+01
1.800000e-07	-5.481086e-06	-1.302613e-09	-3.793817e+01	-8.452035e+01
1.900000e-07	-5.473780e-06	-1.211327e-09	-3.788760e+01	-8.443781e+01
2.000000e-07	-5.466159e-06	-1.257489e-09	-3.783485e+01	-8.435119e+01
2.100000e-07	-5.458392e-06	-1.318458e-09	-3.778109e+01	-8.426041e+01
2.200000e-07	-5.450415e-06	-1.310985e-09	-3.772588e+01	-8.416541e+01
2.300000e-07	-5.442038e-06	-1.245475e-09	-3.766789e+01	-8.406613e+01
2.400000e-07	-5.433088e-06	-1.260691e-09	-3.760594e+01	-8.396254e+01
2.500000e-07	-5.423342e-06	-1.275207e-09	-3.753849e+01	-8.385461e+01
2.600000e-07	-5.412880e-06	-1.269267e-09	-3.746608e+01	-8.374232e+01
2.700000e-07	-5.401920e-06	-1.214596e-09	-3.739021e+01	-8.362566e+01
2.800000e-07	-5.390500e-06	-1.229968e-09	-3.731117e+01	-8.350466e+01
2.900000e-07	-5.378699e-06	-1.251385e-09	-3.722948e+01	-8.337933e+01
3.000000e-07	-5.366556e-06	-1.244282e-09	-3.714543e+01	-8.324972e+01
3.100000e-07	-5.353951e-06	-1.193944e-09	-3.705819e+01	-8.311588e+01
3.200000e-07	-5.340895e-06	-1.215762e-09	-3.696782e+01	-8.297787e+01
3.300000e-07	-5.327510e-06	-1.242772e-09	-3.687517e+01	-8.283579e+01
3.400000e-07	-5.313818e-06	-1.210341e-09	-3.678040e+01	-8.268973e+01
3.500000e-07	-5.299664e-06	-1.163845e-09	-3.668243e+01	-8.253979e+01
3.600000e-07	-5.284961e-06	-1.215933e-09	-3.658066e+01	-8.238609e+01
3.700000e-07	-5.269819e-06	-1.231548e-09	-3.647585e+01	-8.222877e+01
3.800000e-07	-5.254083e-06	-1.180437e-09	-3.636694e+01	-8.206796e+01
3.900000e-07	-5.237799e-06	-1.188204e-09	-3.625422e+01	-8.190382e+01
4.000000e-07	-5.221250e-06	-1.233648e-09	-3.613968e+01	-8.173649e+01
4.100000e-07	-5.204309e-06	-1.182680e-09	-3.602242e+01	-8.156615e+01
4.200000e-07	-5.186971e-06	-1.146568e-09	-3.590241e+01	-8.139295e+01
4.300000e-07	-5.169469e-06	-1.229177e-09	-3.578127e+01	-8.121708e+01
4.400000e-07	-5.151631e-06	-1.222086e-09	-3.565780e+01	-8.103869e+01
4.500000e-07	-5.133267e-06	-1.143709e-09	-3.553069e+01	-8.085795e+01
4.600000e-07	-5.114448e-06	-1.171799e-09	-3.540043e+01	-8.067505e+01
4.700000e-07	-5.095266e-06	-1.228456e-09	-3.526766e+01	-8.049014e+01
4.800000e-07	-5.075846e-06	-1.151233e-09	-3.513324e+01	-8.030338e+01
4.900000e-07	-5.056230e-06	-1.149949e-09	-3.499747e+01	-8.011493e+01
5.000000e-07	-5.036372e-06	-1.210388e-09	-3.486001e+01	-7.992494e+01
5.100000e-07	-5.016272e-06	-1.168685e-09	-3.472089e+01	-7.973353e+01
5.200000e-07	-4.995779e-06	-1.119078e-09	-3.457904e+01	-7.954083e+01
5.300000e-07	-4.974893e-06	-1.202954e-09	-3.443448e+01	-7.934696e+01
5.400000e-07	-4.953810e-06	-1.191749e-09	-3.428855e+01	-7.915201e+01
5.500000e-07	-4.932375e-06	-1.110700e-09	-3.414019e+01	-7.895606e+01
5.600000e-07	-4.910524e-06	-1.143127e-09	-3.398894e+01	-7.875919e+01
5.700000e-07	-4.888342e-06	-1.194211e-09	-3.383541e+01	-7.856143e+01
5.800000e-07	-4.865788e-06	-1.132740e-09	-3.367930e+01	-7.836283e+01
5.900000e-07	-4.842871e-06	-1.138340e-09	-3.352067e+01	-7.816340e+01
6.000000e-07	-4.819625e-06	-1.186250e-09	-3.335977e+01	-7.796313e+01
6.100000e-07	-4.796099e-06	-1.151528e-09	-3.319693e+01	-7.776200e+01
6.200000e-07	-4.772404e-06	-1.120059e-09	-3.303292e+01	-7.755997e+01
6.300000e-07	-4.748512e-06	-1.158934e-09	-3.286755e+01	-7.735697e+01
6.400000e-07	-4.724324e-06	-1.145578e-09	-3.270013e+01	-7.715294e+01
6.500000e-07	-4.699710e-06	-1.114197e-09	-3.252976e+01	-7.694777e+01
6.600000e-07	-4.674502e-06	-1.138571e-09	-3.235528e+01	-7.674135e+01
6.700000e-07	-4.648741e-06	-1.140711e-09	-3.217697e+01	-7.653354e+01
6.800000e-07	-4.622485e-06	-1.111212e-09	-3.199523e+01	-7.632420e+01
6.900000e-07	-4.595750e-06	-1.121468e-09	-3.181019e+01	-7.611318e+01
7.000000e-07	-4.568638e-06	-1.131163e-09	-3.162252e+01	-7.590029e+01
7.100000e-07	-4.541173e-06	-1.103007e-09	-3.143242e+01	-7.568536e+01
7.200000e-07	-4.513440e-06	-1.103892e-09	-3.124047e+01	-7.546818e+01
7.300000e-07	-4.485578e-06	-1.116942e-09	-3.104762e+01	-7.524854e+01
7.400000e-07	-4.457555e-06	-1.102459e-09	-3.085365e+01	-7.502625e+01
7.500000e-07	-4.429284e-06	-1.090003e-09	-3.065796e+01	-7.480108e+01
7.600000e-07	-4.400690e-06	-1.104359e-09	-3.046004e+01	-7.457281e+01
7.700000e-07	-4.371717e-06	-1.092939e-09	-3.025951e+01	-7.434121e+01
7.800000e-07	-4.342400e-06	-1.083435e-09	-3.005659e+01	-7.410607e+01
7.900000e-07	-4.312799e-06	-1.086888e-09	-2.985170e+01	-7.386715e+01
8.000000e-07	-4.282945e-06	-1.078477e-09	-2.964506e+01	-7.362426e+01
8.100000e-07	-4.252808e-06	-1.051517e-09	-2.943646e+01	-7.337716e+01
8.200000e-07	-4.222367e-06	-1.053942e-09	-2.922576e+01	-7.312567e+01
8.300000e-07	-4.191659e-06	-1.057148e-09	-2.901321e+01	-7.286957e+01
8.400000e-07	-4.160677e-06	-1.046934e-09	-2.879876e+01	-7.260869e+01
8.500000e-07	-4.129406e-06	-1.045692e-09	-2.858232e+01	-7.234285e+01
8.600000e-07	-4.097918e-06	-1.056701e-09	-2.836437e+01	-7.207189e+01
8.700000e-07	-4.066271e-06	-1.041694e-09	-2.814532e+01	-7.179566e+01
8.800000e-07	-4.034460e-06	-1.031433e-09	-2.792513e+01	-7.151403e+01
8.900000e-07	-4.002478e-06	-1.032634e-09	-2.770376e+01	-7.122689e+01
9.000000e-07	-3.970197e-06	-1.020243e-09	-2.748033e+01	-7.093414e+01
9.100000e-07	-3.937520e-06	-1.004843e-09	-2.725415e+01	-7.063569e+01
9.200000e-07	-3.904554e-06	-1.012749e-09	-2.702596e+01	-7.033148e+01
9.300000e-07	-3.871148e-06	-1.015372e-09	-2.679474e+01	-7.002148e+01
9.400000e-07	-3.837196e-06	-9.997771e-10	-2.655974e+01	-6.970565e+01
9.500000e-07	-3.802786e-06	-9.948838e-10	-2.632156e+01	-6.938399e+01
9.600000e-07	-3.767958e-06	-9.948272e-10	-2.608050e+01	-6.905650e+01
9.700000e-07	-3.732712e-06	-9.800579e-10	-2.583653e+01	-6.872322e+01
9.800000e-07	-3.697169e-06	-9.732023e-10	-2.559052e+01	-6.838420e+01
9.900000e-07	-3.661512e-06	-9.822327e-10	-2.534371e+01	-6.803948e+01
1.000000e-06	-3.625742e-06	-9.775758e-10	-2.509612e+01	-6.768915e+01
1.010000e-06	-3.589883e-06	-9.702765e-10	-2.484792e+01	-6.733330e+01
1.020000e-06	-3.553924e-06	-9.712888e-10	-2.459903e+01	-6.697203e+01
1.030000e-06	-3.517668e-06	-9.663455e-10	-2.434808e+01	-6.660545e+01
1.040000e-06	-3.481159e-06	-9.506204e-10	-2.409538e+01	-6.623370e+01
1.050000e-06	-3.444478e-06	-9.462614e-10	-2.384148e+01	-6.585689e+01
1.060000e-06	-3.407470e-06	-9.429805e-10	-2.358532e+01	-6.547517e+01
1.070000e-06	-3.370142e-06	-9.329032e-10	-2.332696e+01	-6.508869e+01
1.080000e-06	-3.332597e-06	-9.274855e-10	-2.306708e+01	-6.469758e+01
1.090000e-06	-3.294859e-06	-9.301105e-10	-2.280587e+01	-6.430200e+01
1.100000e-06	-3.256912e-06	-9.201861e-10	-2.254321e+01	-6.390208e+01
1.110000e-06	-3.218868e-06	-9.095443e-10	-2.227989e+01	-6.349798e+01
1.120000e-06	-3.180607e-06	-9.046101e-10	-2.201506e+01	-6.308983e+01
1.130000e-06	-3.142012e-06	-8.989167e-10	-2.174792e+01	-6.267775e+01
1.140000e-06	-3.103105e-06	-8.889552e-10	-2.147862e+01	-6.226188e+01
1.150000e-06	-3.063959e-06	-8.871780e-10	-2.120766e+01	-6.184232e+01
1.160000e-06	-3.024649e-06	-8.845109e-10	-2.093557e+01	-6.141917e+01
1.170000e-06	-2.985129e-06	-8.771142e-10	-2.066203e+01	-6.099251e+01
1.180000e-06	-2.945501e-06	-8.704620e-10	-2.038774e+01	-6.056242e+01
1.190000e-06	-2.905772e-06	-8.660970e-10	-2.011275e+01	-6.012893e+01
1.200000e-06	-2.865913e-06	-8.558847e-10	-1.983686e+01	-5.969209e+01
1.210000e-06	-2.825925e-06	-8.464254e-10	-1.956007e+01	-5.925190e+01
1.220000e-06	-2.785842e-06	-8.416407e-10	-1.928263e+01	-5.880836e+01
1.230000e-06	-2.745650e-06	-8.352793e-10	-1.900443e+01	-5.836143e+01
1.240000e-06	-2.705157e-06	-8.286016e-10	-1.872416e+01	-5.791106e+01
1.250000e-06	-2.664338e-06	-8.230085e-10	-1.844162e+01	-5.745716e+01
1.260000e-06	-2.623278e-06	-8.159290e-10	-1.815742e+01	-5.699963e+01
1.270000e-06	-2.581941e-06	-8.068930e-10	-1.787130e+01	-5.653835e+01
1.280000e-06	-2.540241e-06	-7.998785e-10	-1.758267e+01	-5.607315e+01
1.290000e-06	-2.498204e-06	-7.929037e-10	-1.729170e+01	-5.560385e+01
1.300000e-06	-2.455873e-06	-7.826393e-10	-1.699870e+01	-5.513025e+01
1.310000e-06	-2.413149e-06	-7.726112e-10	-1.670298e+01	-5.465212e+01
1.320000e-06	-2.370216e-06	-7.655191e-10	-1.640581e+01	-5.416919e+01
1.330000e-06	-2.327143e-06	-7.557897e-10	-1.610768e+01	-5.368120e+01
1.340000e-06	-2.283935e-06	-7.454712e-10	-1.580861e+01	-5.318782e+01
1.350000e-06	-2.240625e-06	-7.364480e-10	-1.550883e+01	-5.268874e+01
1.360000e-06	-2.197110e-06	-7.280992e-10	-1.520763e+01	-5.218360e+01
1.370000e-06	-2.153458e-06	-7.165162e-10	-1.490549e+01	-5.167203e+01
1.380000e-06	-2.109704e-06	-7.062148e-10	-1.460264e+01	-5.115364e+01
1.390000e-06	-2.065872e-06	-6.953656e-10	-1.429925e+01	-5.062802e+01
1.400000e-06	-2.022003e-06	-6.847158e-10	-1.399560e+01	-5.009474e+01
1.410000e-06	-1.978097e-06	-6.748811e-10	-1.369170e+01	-4.955336e+01
1.420000e-06	-1.934118e-06	-6.687545e-10	-1.338729e+01	-4.900342e+01
1.430000e-06	-1.890033e-06	-6.627532e-10	-1.308215e+01	-4.844444e+01
1.440000e-06	-1.845762e-06	-6.562379e-10	-1.277572e+01	-4.787596e+01
1.450000e-06	-1.801323e-06	-6.473824e-10	-1.246813e+01	-4.729747e+01
1.460000e-06	-1.756782e-06	-6.367490e-10	-1.215984e+01	-4.670849e+01
1.470000e-06	-1.712093e-06	-6.246895e-10	-1.185051e+01	-4.610851e+01
1.480000e-06	-1.667295e-06	-6.135399e-10	-1.154044e+01	-4.549702e+01
1.490000e-06	-1.622405e-06	-6.031690e-10	-1.122972e+01	-4.487352e+01
1.500000e-06	-1.577333e-06	-5.945945e-10	-1.091775e+01	-4.423751e+01
1.510000e-06	-1.532025e-06	-5.866292e-10	-1.060414e+01	-4.358847e+01
1.520000e-06	-1.486701e-06	-5.779706e-10	-1.029043e+01	-4.292592e+01
1.530000e-06	-1.441367e-06	-5.694568e-10	-9.976640e+00	-4.224936e+01
1.540000e-06	-1.395876e-06	-5.596684e-10	-9.661770e+00	-4.155831e+01
1.550000e-06	-1.350341e-06	-5.473165e-10	-9.346591e+00	-4.085230e+01
1.560000e-06	-1.304702e-06	-5.342268e-10	-9.030695e+00	-4.013087e+01
1.570000e-06	-1.258897e-06	-5.212998e-10	-8.713648e+00	-3.939358e+01
1.580000e-06	-1.212942e-06	-5.075164e-10	-8.395565e+00	-3.864002e+01
1.590000e-06	-1.166892e-06	-4.938585e-10	-8.076823e+00	-3.786976e+01
1.600000e-06	-1.120845e-06	-4.824145e-10	-7.758097e+00	-3.708243e+01
1.610000e-06	-1.074746e-06	-4.713360e-10	-7.439016e+00	-3.627767e+01
1.620000e-06	-1.028583e-06	-4.566226e-10	-7.119495e+00	-3.545513e+01
1.630000e-06	-9.823868e-07	-4.426944e-10	-6.799740e+00	-3.461452e+01
1.640000e-06	-9.360475e-07	-4.300485e-10	-6.478996e+00	-3.375554e+01
1.650000e-06	-8.896441e-07	-4.177179e-10	-6.157807e+00	-3.287796e+01
1.660000e-06	-8.431999e-07	-4.040075e-10	-5.836337e+00	-3.198155e+01
1.670000e-06	-7.966768e-07	-3.912130e-10	-5.514320e+00	-3.106612e+01
1.680000e-06	-7.500819e-07	-3.780512e-10	-5.191807e+00	-3.013152e+01
1.690000e-06	-7.034124e-07	-3.639138e-10	-4.868776e+00	-2.917765e+01
1.700000e-06	-6.567686e-07	-3.495206e-10	-4.545924e+00	-2.820442e+01
1.710000e-06	-6.100809e-07	-3.361586e-10	-4.222768e+00	-2.721180e+01
1.720000e-06	-5.633679e-07	-3.225668e-10	-3.899437e+00	-2.619979e+01
1.730000e-06	-5.165521e-07	-3.087126e-10	-3.575394e+00	-2.516843e+01
1.740000e-06	-4.695680e-07	-2.929433e-10	-3.250187e+00	-2.411781e+01
1.750000e-06	-4.226363e-07	-2.761144e-10	-2.925341e+00	-2.304807e+01
1.760000e-06	-3.757397e-07	-2.599724e-10	-2.600740e+00	-2.195937e+01
1.770000e-06	-3.286917e-07	-2.424266e-10	-2.275090e+00	-2.085192e+01
1.780000e-06	-2.815480e-07	-2.240543e-10	-1.948777e+00	-1.972601e+01
1.790000e-06	-2.345178e-07	-2.097576e-10	-1.623251e+00	-1.858192e+01
1.800000e-06	-1.874901e-07	-1.974644e-10	-1.297742e+00	-1.742002e+01
1.810000e-06	-1.404201e-07	-1.843566e-10	-9.719392e-01	-1.624070e+01
1.820000e-06	-9.340589e-08	-1.694356e-10	-6.465231e-01	-1.504441e+01
1.830000e-06	-4.640449e-08	-1.497856e-10	-3.211958e-01	-1.383163e+01
1.840000e-06	6.301727e-10	-1.274221e-10	4.361836e-03	-1.260290e+01
1.850000e-06	4.769331e-08	-1.076578e-10	3.301165e-01	-1.135880e+01
1.860000e-06	9.473134e-08	-9.046230e-11	6.556974e-01	-1.009994e+01
1.870000e-06	1.417243e-07	-7.383660e-11	9.809667e-01	-8.827002e+00
1.880000e-06	1.887003e-07	-5.903810e-11	1.306118e+00	-7.540675e+00
1.890000e-06	2.357574e-07	-4.379403e-11	1.631831e+00	-6.241710e+00
1.900000e-06	2.828224e-07	-2.659589e-11	1.957599e+00	-4.930888e+00
1.910000e-06	3.298040e-07	-7.344827e-12	2.282789e+00	-3.609032e+00
1.920000e-06	3.767363e-07	1.474546e-11	2.607637e+00	-2.276997e+00
1.930000e-06	4.236902e-07	3.753484e-11	2.932637e+00	-9.356706e-01
1.940000e-06	4.706671e-07	5.651129e-11	3.257794e+00	4.140264e-01
1.950000e-06	5.175857e-07	7.233622e-11	3.582549e+00	1.771146e+00
1.960000e-06	5.643897e-07	8.842751e-11	3.906509e+00	3.134713e+00
1.970000e-06	6.110411e-07	1.060690e-10	4.229414e+00	4.503730e+00
1.980000e-06	6.576395e-07	1.243948e-10	4.551952e+00	5.877177e+00
1.990000e-06	7.042733e-07	1.435950e-10	4.874735e+00	7.254017e+00
2.000000e-06	7.508908e-07	1.633045e-10	5.197405e+00	8.633198e+00
2.010000e-06	7.975425e-07	1.824831e-10	5.520312e+00	1.001366e+01
2.020000e-06	8.441010e-07	2.028867e-10	5.842574e+00	1.139432e+01
2.030000e-06	8.904451e-07	2.252236e-10	6.163351e+00	1.277411e+01
2.040000e-06	9.367805e-07	2.462840e-10	6.484069e+00	1.415196e+01
2.050000e-06	9.830875e-07	2.659705e-10	6.804590e+00	1.552677e+01
2.060000e-06	1.029309e-06	2.839769e-10	7.124521e+00	1.689748e+01
2.070000e-06	1.075544e-06	3.011440e-10	7.444540e+00	1.826303e+01
2.080000e-06	1.121615e-06	3.185593e-10	7.763430e+00	1.962236e+01
2.090000e-06	1.167509e-06	3.379976e-10	8.081091e+00	2.097443e+01
2.100000e-06	1.213356e-06	3.578544e-10	8.398432e+00	2.231824e+01
2.110000e-06	1.259100e-06	3.766149e-10	8.715054e+00	2.365278e+01
2.120000e-06	1.304814e-06	3.951252e-10	9.031469e+00	2.497708e+01
2.130000e-06	1.350504e-06	4.140685e-10	9.347722e+00	2.629021e+01
2.140000e-06	1.396045e-06	4.321140e-10	9.662940e+00	2.759125e+01
2.150000e-06	1.441400e-06	4.491399e-10	9.976872e+00	2.887933e+01
2.160000e-06	1.486692e-06	4.658846e-10	1.029036e+01	3.015361e+01
2.170000e-06	1.531927e-06	4.821184e-10	1.060347e+01	3.141330e+01
2.180000e-06	1.577020e-06	4.996444e-10	1.091558e+01	3.265764e+01
2.190000e-06	1.622049e-06	5.177848e-10	1.122726e+01	3.388592e+01
2.200000e-06	1.667068e-06	5.346221e-10	1.153887e+01	3.509748e+01
2.210000e-06	1.711895e-06	5.505028e-10	1.184914e+01	3.629171e+01
2.220000e-06	1.756468e-06	5.650280e-10	1.215766e+01	3.746803e+01
2.230000e-06	1.800875e-06	5.787535e-10	1.246503e+01	3.862593e+01
2.240000e-06	1.845155e-06	5.937229e-10	1.277152e+01	3.976496e+01
2.250000e-06	1.889329e-06	6.105032e-10	1.307728e+01	4.088470e+01
2.260000e-06	1.933374e-06	6.269450e-10	1.338215e+01	4.198480e+01
2.270000e-06	1.977356e-06	6.401661e-10	1.368657e+01	4.306495e+01
2.280000e-06	2.021297e-06	6.525786e-10	1.399072e+01	4.412491e+01
2.290000e-06	2.065160e-06	6.656909e-10	1.429432e+01	4.516447e+01
2.300000e-06	2.108923e-06	6.777866e-10	1.459723e+01	4.618350e+01
2.310000e-06	2.152623e-06	6.899790e-10	1.489971e+01	4.718189e+01
2.320000e-06	2.196297e-06	7.054244e-10	1.520200e+01	4.815961e+01
2.330000e-06	2.239922e-06	7.218873e-10	1.550396e+01	4.911666e+01
2.340000e-06	2.283395e-06	7.370213e-10	1.580486e+01	5.005309e+01
2.350000e-06	2.326581e-06	7.502239e-10	1.610379e+01	5.096900e+01
2.360000e-06	2.369507e-06	7.621941e-10	1.640091e+01	5.186453e+01
2.370000e-06	2.412293e-06	7.731511e-10	1.669705e+01	5.273985e+01
2.380000e-06	2.454924e-06	7.836478e-10	1.699213e+01	5.359520e+01
2.390000e-06	2.497237e-06	7.938908e-10	1.728501e+01	5.443081e+01
2.400000e-06	2.539069e-06	8.042529e-10	1.757455e+01	5.524698e+01
2.410000e-06	2.580564e-06	8.145919e-10	1.786177e+01	5.604403e+01
2.420000e-06	2.621791e-06	8.244174e-10	1.814713e+01	5.682229e+01
2.430000e-06	2.662725e-06	8.345174e-10	1.843046e+01	5.758214e+01
2.440000e-06	2.703428e-06	8.436156e-10	1.871219e+01	5.832397e+01
2.450000e-06	2.743851e-06	8.523618e-10	1.899199e+01	5.904817e+01
2.460000e-06	2.784053e-06	8.631049e-10	1.927025e+01	5.975517e+01
2.470000e-06	2.824154e-06	8.738990e-10	1.954781e+01	6.044541e+01
2.480000e-06	2.864139e-06	8.821610e-10	1.982458e+01	6.111932e+01
2.490000e-06	2.903982e-06	8.893503e-10	2.010036e+01	6.177735e+01
2.500000e-06	2.943698e-06	8.969587e-10	2.037525e+01	6.241994e+01
2.510000e-06	2.983269e-06	9.047965e-10	2.064915e+01	6.304756e+01
2.520000e-06	3.022689e-06	9.125116e-10	2.092200e+01	6.366064e+01
2.530000e-06	3.061867e-06	9.223371e-10	2.119318e+01	6.425962e+01
2.540000e-06	3.100831e-06	9.341979e-10	2.146287e+01	6.484494e+01
2.550000e-06	3.139607e-06	9.443669e-10	2.173127e+01	6.541703e+01
2.560000e-06	3.178179e-06	9.517543e-10	2.199825e+01	6.597629e+01
2.570000e-06	3.216479e-06	9.589313e-10	2.226335e+01	6.652312e+01
2.580000e-06	3.254514e-06	9.666689e-10	2.252661e+01	6.705792e+01
2.590000e-06	3.292382e-06	9.729614e-10	2.278872e+01	6.758104e+01
2.600000e-06	3.330009e-06	9.773181e-10	2.304917e+01	6.809284e+01
2.610000e-06	3.367453e-06	9.817232e-10	2.330834e+01	6.859365e+01
2.620000e-06	3.404693e-06	9.904210e-10	2.356610e+01	6.908378e+01
2.630000e-06	3.441609e-06	1.003119e-09	2.382162e+01	6.956352e+01
2.640000e-06	3.478273e-06	1.013909e-09	2.407540e+01	7.003316e+01
2.650000e-06	3.514642e-06	1.022610e-09	2.432713e+01	7.049294e+01
2.660000e-06	3.550789e-06	1.028746e-09	2.457733e+01	7.094309e+01
2.670000e-06	3.586846e-06	1.030424e-09	2.482690e+01	7.138384e+01
2.680000e-06	3.622754e-06	1.030587e-09	2.507544e+01	7.181538e+01
2.690000e-06	3.658515e-06	1.032744e-09	2.532297e+01	7.223789e+01
2.700000e-06	3.694175e-06	1.039668e-09	2.556979e+01	7.265152e+01
2.710000e-06	3.729618e-06	1.050591e-09	2.581512e+01	7.305642e+01
2.720000e-06	3.764773e-06	1.061555e-09	2.605845e+01	7.345272e+01
2.730000e-06	3.799620e-06	1.070270e-09	2.629965e+01	7.384053e+01
2.740000e-06	3.834080e-06	1.075150e-09	2.653817e+01	7.421996e+01
2.750000e-06	3.868080e-06	1.076017e-09	2.677351e+01	7.459110e+01
2.760000e-06	3.901526e-06	1.075415e-09	2.700501e+01	7.495402e+01
2.770000e-06	3.934507e-06	1.075936e-09	2.723329e+01	7.530880e+01
2.780000e-06	3.967111e-06	1.080118e-09	2.745896e+01	7.565550e+01
2.790000e-06	3.999401e-06	1.088675e-09	2.768247e+01	7.599419e+01
2.800000e-06	4.031461e-06	1.097987e-09	2.790437e+01	7.632492e+01
2.810000e-06	4.063308e-06	1.106170e-09	2.812481e+01	7.664773e+01
2.820000e-06	4.095049e-06	1.111835e-09	2.834451e+01	7.696270e+01
2.830000e-06	4.126653e-06	1.114737e-09	2.856326e+01	7.726985e+01
2.840000e-06	4.157998e-06	1.115745e-09	2.878022e+01	7.756926e+01
2.850000e-06	4.189092e-06	1.116673e-09	2.899544e+01	7.786097e+01
2.860000e-06	4.219852e-06	1.119394e-09	2.920835e+01	7.814504e+01
2.870000e-06	4.250236e-06	1.123270e-09	2.941866e+01	7.842154e+01
2.880000e-06	4.280267e-06	1.128052e-09	2.962652e+01	7.869054e+01
2.890000e-06	4.310030e-06	1.132906e-09	2.983253e+01	7.895210e+01
2.900000e-06	4.339548e-06	1.138213e-09	3.003685e+01	7.920633e+01
2.910000e-06	4.368728e-06	1.142471e-09	3.023882e+01	7.945330e+01
