# Temperatura_=_-0.5
# Concentracion g/m^3_=_1620.0
# C_Vs_to_Am_M_A/Vsm_=_65563218390.804596
# pendiente_HvsI_1/m_=_3716.3
# ordenada_HvsI_A/m_=_1297.0
# frecuencia_Hz_=_135096.4808106873

Tiempo_(s)	Campo_(V.s)	Magnetizacion_(V.s)	Campo_(kA/m)	Magnetizacion_(A/m)
0.000000e+00	-5.537518e-06	-1.377154e-09	-3.837350e+01	-9.148009e+01
1.000000e-08	-5.537799e-06	-1.371415e-09	-3.837544e+01	-9.146579e+01
2.000000e-08	-5.537848e-06	-1.364415e-09	-3.837578e+01	-9.144911e+01
3.000000e-08	-5.537534e-06	-1.361540e-09	-3.837361e+01	-9.142982e+01
4.000000e-08	-5.536858e-06	-1.363800e-09	-3.836892e+01	-9.140768e+01
5.000000e-08	-5.535743e-06	-1.367673e-09	-3.836120e+01	-9.138242e+01
6.000000e-08	-5.533884e-06	-1.367315e-09	-3.834832e+01	-9.135381e+01
7.000000e-08	-5.531351e-06	-1.359790e-09	-3.833076e+01	-9.132158e+01
8.000000e-08	-5.528314e-06	-1.372047e-09	-3.830972e+01	-9.128550e+01
9.000000e-08	-5.524757e-06	-1.371832e-09	-3.828507e+01	-9.124534e+01
1.000000e-07	-5.520752e-06	-1.364546e-09	-3.825731e+01	-9.120085e+01
1.100000e-07	-5.516385e-06	-1.392745e-09	-3.822705e+01	-9.115184e+01
1.200000e-07	-5.511778e-06	-1.369111e-09	-3.819513e+01	-9.109808e+01
1.300000e-07	-5.507019e-06	-1.338434e-09	-3.816215e+01	-9.103941e+01
1.400000e-07	-5.501998e-06	-1.348886e-09	-3.812735e+01	-9.097566e+01
1.500000e-07	-5.496463e-06	-1.357028e-09	-3.808900e+01	-9.090667e+01
1.600000e-07	-5.490508e-06	-1.390505e-09	-3.804773e+01	-9.083231e+01
1.700000e-07	-5.484329e-06	-1.312170e-09	-3.800491e+01	-9.075250e+01
1.800000e-07	-5.477717e-06	-1.346431e-09	-3.795909e+01	-9.066714e+01
1.900000e-07	-5.470569e-06	-1.354593e-09	-3.790956e+01	-9.057619e+01
2.000000e-07	-5.463084e-06	-1.397007e-09	-3.785769e+01	-9.047960e+01
2.100000e-07	-5.455388e-06	-1.352782e-09	-3.780436e+01	-9.037738e+01
2.200000e-07	-5.447479e-06	-1.369170e-09	-3.774955e+01	-9.026955e+01
2.300000e-07	-5.439317e-06	-1.373199e-09	-3.769299e+01	-9.015615e+01
2.400000e-07	-5.430838e-06	-1.382227e-09	-3.763424e+01	-9.003725e+01
2.500000e-07	-5.421821e-06	-1.352730e-09	-3.757175e+01	-8.991295e+01
2.600000e-07	-5.412103e-06	-1.353428e-09	-3.750441e+01	-8.978337e+01
2.700000e-07	-5.401546e-06	-1.375715e-09	-3.743125e+01	-8.964863e+01
2.800000e-07	-5.390377e-06	-1.356431e-09	-3.735385e+01	-8.950890e+01
2.900000e-07	-5.378913e-06	-1.340137e-09	-3.727441e+01	-8.936435e+01
3.000000e-07	-5.367068e-06	-1.319880e-09	-3.719233e+01	-8.921519e+01
3.100000e-07	-5.354856e-06	-1.351751e-09	-3.710770e+01	-8.906160e+01
3.200000e-07	-5.342227e-06	-1.319837e-09	-3.702018e+01	-8.890382e+01
3.300000e-07	-5.329102e-06	-1.335112e-09	-3.692923e+01	-8.874208e+01
3.400000e-07	-5.315611e-06	-1.311978e-09	-3.683574e+01	-8.857660e+01
3.500000e-07	-5.301849e-06	-1.339708e-09	-3.674038e+01	-8.840763e+01
3.600000e-07	-5.287645e-06	-1.311606e-09	-3.664195e+01	-8.823542e+01
3.700000e-07	-5.272869e-06	-1.316634e-09	-3.653955e+01	-8.806021e+01
3.800000e-07	-5.257484e-06	-1.292987e-09	-3.643294e+01	-8.788224e+01
3.900000e-07	-5.241639e-06	-1.331898e-09	-3.632314e+01	-8.770175e+01
4.000000e-07	-5.225330e-06	-1.312653e-09	-3.621012e+01	-8.751897e+01
4.100000e-07	-5.208568e-06	-1.304682e-09	-3.609396e+01	-8.733412e+01
4.200000e-07	-5.191572e-06	-1.305547e-09	-3.597619e+01	-8.714741e+01
4.300000e-07	-5.174269e-06	-1.328374e-09	-3.585628e+01	-8.695903e+01
4.400000e-07	-5.156577e-06	-1.277663e-09	-3.573368e+01	-8.676918e+01
4.500000e-07	-5.138536e-06	-1.279972e-09	-3.560866e+01	-8.657800e+01
4.600000e-07	-5.120135e-06	-1.312023e-09	-3.548115e+01	-8.638565e+01
4.700000e-07	-5.101333e-06	-1.297677e-09	-3.535085e+01	-8.619224e+01
4.800000e-07	-5.082116e-06	-1.261034e-09	-3.521768e+01	-8.599789e+01
4.900000e-07	-5.062648e-06	-1.304914e-09	-3.508278e+01	-8.580267e+01
5.000000e-07	-5.043019e-06	-1.310423e-09	-3.494675e+01	-8.560665e+01
5.100000e-07	-5.023165e-06	-1.258294e-09	-3.480917e+01	-8.540986e+01
5.200000e-07	-5.003010e-06	-1.269103e-09	-3.466950e+01	-8.521232e+01
5.300000e-07	-4.982479e-06	-1.295251e-09	-3.452723e+01	-8.501401e+01
5.400000e-07	-4.961592e-06	-1.255586e-09	-3.438248e+01	-8.481491e+01
5.500000e-07	-4.940346e-06	-1.247102e-09	-3.423526e+01	-8.461497e+01
5.600000e-07	-4.918777e-06	-1.293791e-09	-3.408579e+01	-8.441410e+01
5.700000e-07	-4.896951e-06	-1.263091e-09	-3.393454e+01	-8.421221e+01
5.800000e-07	-4.874824e-06	-1.234413e-09	-3.378121e+01	-8.400920e+01
5.900000e-07	-4.852190e-06	-1.265480e-09	-3.362436e+01	-8.380493e+01
6.000000e-07	-4.829120e-06	-1.272513e-09	-3.346449e+01	-8.359925e+01
6.100000e-07	-4.805808e-06	-1.231867e-09	-3.330295e+01	-8.339201e+01
6.200000e-07	-4.782263e-06	-1.256947e-09	-3.313979e+01	-8.318302e+01
6.300000e-07	-4.758514e-06	-1.261798e-09	-3.297521e+01	-8.297210e+01
6.400000e-07	-4.734616e-06	-1.235384e-09	-3.280960e+01	-8.275905e+01
6.500000e-07	-4.710393e-06	-1.225268e-09	-3.264174e+01	-8.254368e+01
6.600000e-07	-4.685724e-06	-1.248569e-09	-3.247079e+01	-8.232578e+01
6.700000e-07	-4.660571e-06	-1.227166e-09	-3.229649e+01	-8.210513e+01
6.800000e-07	-4.634814e-06	-1.228693e-09	-3.211800e+01	-8.188152e+01
6.900000e-07	-4.608489e-06	-1.233275e-09	-3.193558e+01	-8.165474e+01
7.000000e-07	-4.581666e-06	-1.228426e-09	-3.174970e+01	-8.142459e+01
7.100000e-07	-4.554403e-06	-1.210017e-09	-3.156078e+01	-8.119085e+01
7.200000e-07	-4.526876e-06	-1.214920e-09	-3.137002e+01	-8.095332e+01
7.300000e-07	-4.499219e-06	-1.202846e-09	-3.117836e+01	-8.071182e+01
7.400000e-07	-4.471439e-06	-1.198328e-09	-3.098586e+01	-8.046616e+01
7.500000e-07	-4.443471e-06	-1.195374e-09	-3.079205e+01	-8.021616e+01
7.600000e-07	-4.415220e-06	-1.196386e-09	-3.059628e+01	-7.996167e+01
7.700000e-07	-4.386673e-06	-1.189696e-09	-3.039845e+01	-7.970253e+01
7.800000e-07	-4.357765e-06	-1.187340e-09	-3.019813e+01	-7.943860e+01
7.900000e-07	-4.328491e-06	-1.177891e-09	-2.999527e+01	-7.916977e+01
8.000000e-07	-4.298898e-06	-1.171089e-09	-2.979019e+01	-7.889592e+01
8.100000e-07	-4.269008e-06	-1.165289e-09	-2.958306e+01	-7.861696e+01
8.200000e-07	-4.238835e-06	-1.154371e-09	-2.937398e+01	-7.833280e+01
8.300000e-07	-4.208423e-06	-1.144836e-09	-2.916323e+01	-7.804338e+01
8.400000e-07	-4.177702e-06	-1.138053e-09	-2.895034e+01	-7.774864e+01
8.500000e-07	-4.146648e-06	-1.135515e-09	-2.873515e+01	-7.744856e+01
8.600000e-07	-4.115349e-06	-1.128389e-09	-2.851826e+01	-7.714309e+01
8.700000e-07	-4.083832e-06	-1.127685e-09	-2.829985e+01	-7.683223e+01
8.800000e-07	-4.052168e-06	-1.123194e-09	-2.808043e+01	-7.651599e+01
8.900000e-07	-4.020385e-06	-1.121274e-09	-2.786018e+01	-7.619436e+01
9.000000e-07	-3.988414e-06	-1.110133e-09	-2.763862e+01	-7.586737e+01
9.100000e-07	-3.956167e-06	-1.105318e-09	-2.741517e+01	-7.553505e+01
9.200000e-07	-3.923516e-06	-1.095227e-09	-2.718890e+01	-7.519743e+01
9.300000e-07	-3.890375e-06	-1.088660e-09	-2.695924e+01	-7.485457e+01
9.400000e-07	-3.856830e-06	-1.081233e-09	-2.672679e+01	-7.450651e+01
9.500000e-07	-3.822806e-06	-1.081283e-09	-2.649101e+01	-7.415331e+01
9.600000e-07	-3.788220e-06	-1.073151e-09	-2.625133e+01	-7.379502e+01
9.700000e-07	-3.753129e-06	-1.069101e-09	-2.600816e+01	-7.343170e+01
9.800000e-07	-3.717734e-06	-1.061606e-09	-2.576289e+01	-7.306343e+01
9.900000e-07	-3.682244e-06	-1.057083e-09	-2.551696e+01	-7.269025e+01
1.000000e-06	-3.646636e-06	-1.045743e-09	-2.527020e+01	-7.231223e+01
1.010000e-06	-3.610902e-06	-1.042812e-09	-2.502257e+01	-7.192944e+01
1.020000e-06	-3.575061e-06	-1.040293e-09	-2.477420e+01	-7.154192e+01
1.030000e-06	-3.539090e-06	-1.037935e-09	-2.452494e+01	-7.114973e+01
1.040000e-06	-3.502860e-06	-1.030684e-09	-2.427387e+01	-7.075292e+01
1.050000e-06	-3.466295e-06	-1.029156e-09	-2.402048e+01	-7.035153e+01
1.060000e-06	-3.429519e-06	-1.023961e-09	-2.376563e+01	-6.994560e+01
1.070000e-06	-3.392524e-06	-1.015701e-09	-2.350927e+01	-6.953516e+01
1.080000e-06	-3.355262e-06	-1.006141e-09	-2.325106e+01	-6.912024e+01
1.090000e-06	-3.317740e-06	-9.994922e-10	-2.299104e+01	-6.870087e+01
1.100000e-06	-3.279887e-06	-9.948707e-10	-2.272872e+01	-6.827704e+01
1.110000e-06	-3.241782e-06	-9.898065e-10	-2.246467e+01	-6.784878e+01
1.120000e-06	-3.203553e-06	-9.857324e-10	-2.219976e+01	-6.741607e+01
1.130000e-06	-3.165132e-06	-9.783279e-10	-2.193351e+01	-6.697892e+01
1.140000e-06	-3.126505e-06	-9.687837e-10	-2.166583e+01	-6.653730e+01
1.150000e-06	-3.087653e-06	-9.566881e-10	-2.139660e+01	-6.609121e+01
1.160000e-06	-3.048554e-06	-9.464926e-10	-2.112565e+01	-6.564060e+01
1.170000e-06	-3.009190e-06	-9.363350e-10	-2.085287e+01	-6.518545e+01
1.180000e-06	-2.969662e-06	-9.312225e-10	-2.057895e+01	-6.472572e+01
1.190000e-06	-2.930068e-06	-9.278262e-10	-2.030458e+01	-6.426137e+01
1.200000e-06	-2.890376e-06	-9.252655e-10	-2.002952e+01	-6.379233e+01
1.210000e-06	-2.850547e-06	-9.164878e-10	-1.975352e+01	-6.331856e+01
1.220000e-06	-2.810490e-06	-9.076433e-10	-1.947593e+01	-6.283998e+01
1.230000e-06	-2.770271e-06	-8.956404e-10	-1.919723e+01	-6.235654e+01
1.240000e-06	-2.729950e-06	-8.857509e-10	-1.891781e+01	-6.186815e+01
1.250000e-06	-2.689410e-06	-8.753804e-10	-1.863688e+01	-6.137473e+01
1.260000e-06	-2.648528e-06	-8.697526e-10	-1.835358e+01	-6.087620e+01
1.270000e-06	-2.607482e-06	-8.643470e-10	-1.806914e+01	-6.037245e+01
1.280000e-06	-2.566250e-06	-8.597804e-10	-1.778342e+01	-5.986338e+01
1.290000e-06	-2.524606e-06	-8.522100e-10	-1.749483e+01	-5.934890e+01
1.300000e-06	-2.482570e-06	-8.436955e-10	-1.720354e+01	-5.882887e+01
1.310000e-06	-2.440152e-06	-8.318671e-10	-1.690959e+01	-5.830316e+01
1.320000e-06	-2.397492e-06	-8.206392e-10	-1.661397e+01	-5.777166e+01
1.330000e-06	-2.354647e-06	-8.083304e-10	-1.631706e+01	-5.723419e+01
1.340000e-06	-2.311542e-06	-7.970279e-10	-1.601836e+01	-5.669061e+01
1.350000e-06	-2.268290e-06	-7.871888e-10	-1.571864e+01	-5.614075e+01
1.360000e-06	-2.224881e-06	-7.806957e-10	-1.541782e+01	-5.558442e+01
1.370000e-06	-2.181262e-06	-7.742433e-10	-1.511555e+01	-5.502143e+01
1.380000e-06	-2.137558e-06	-7.668869e-10	-1.481270e+01	-5.445155e+01
1.390000e-06	-2.093817e-06	-7.565025e-10	-1.450958e+01	-5.387457e+01
1.400000e-06	-2.049954e-06	-7.447901e-10	-1.420562e+01	-5.329024e+01
1.410000e-06	-2.006044e-06	-7.334812e-10	-1.390134e+01	-5.269830e+01
1.420000e-06	-1.962124e-06	-7.231901e-10	-1.359699e+01	-5.209846e+01
1.430000e-06	-1.918063e-06	-7.141486e-10	-1.329165e+01	-5.149043e+01
1.440000e-06	-1.873876e-06	-7.052295e-10	-1.298545e+01	-5.087389e+01
1.450000e-06	-1.829602e-06	-6.963092e-10	-1.267865e+01	-5.024849e+01
1.460000e-06	-1.785219e-06	-6.851488e-10	-1.237108e+01	-4.961389e+01
1.470000e-06	-1.740758e-06	-6.737022e-10	-1.206298e+01	-4.896969e+01
1.480000e-06	-1.696157e-06	-6.615296e-10	-1.175391e+01	-4.831551e+01
1.490000e-06	-1.651373e-06	-6.513468e-10	-1.144356e+01	-4.765091e+01
1.500000e-06	-1.606467e-06	-6.417696e-10	-1.113238e+01	-4.697547e+01
1.510000e-06	-1.561381e-06	-6.337124e-10	-1.081994e+01	-4.628872e+01
1.520000e-06	-1.516120e-06	-6.259745e-10	-1.050630e+01	-4.559020e+01
1.530000e-06	-1.470737e-06	-6.183692e-10	-1.019181e+01	-4.487940e+01
1.540000e-06	-1.425239e-06	-6.078321e-10	-9.876517e+00	-4.415583e+01
1.550000e-06	-1.379661e-06	-5.959843e-10	-9.560676e+00	-4.341896e+01
1.560000e-06	-1.333989e-06	-5.809983e-10	-9.244180e+00	-4.266827e+01
1.570000e-06	-1.288240e-06	-5.674934e-10	-8.927156e+00	-4.190322e+01
1.580000e-06	-1.242442e-06	-5.547101e-10	-8.609786e+00	-4.112327e+01
1.590000e-06	-1.196568e-06	-5.417065e-10	-8.291891e+00	-4.032785e+01
1.600000e-06	-1.150614e-06	-5.309086e-10	-7.973446e+00	-3.951644e+01
1.610000e-06	-1.104557e-06	-5.210286e-10	-7.654279e+00	-3.868849e+01
1.620000e-06	-1.058477e-06	-5.074793e-10	-7.334955e+00	-3.784345e+01
1.630000e-06	-1.012366e-06	-4.931247e-10	-7.015421e+00	-3.698080e+01
1.640000e-06	-9.661229e-07	-4.782744e-10	-6.694970e+00	-3.610003e+01
1.650000e-06	-9.198364e-07	-4.630096e-10	-6.374217e+00	-3.520064e+01
1.660000e-06	-8.734612e-07	-4.469496e-10	-6.052849e+00	-3.428216e+01
1.670000e-06	-8.269850e-07	-4.329104e-10	-5.730781e+00	-3.334415e+01
1.680000e-06	-7.804614e-07	-4.220619e-10	-5.408386e+00	-3.238619e+01
1.690000e-06	-7.339862e-07	-4.113914e-10	-5.086325e+00	-3.140789e+01
1.700000e-06	-6.875548e-07	-4.001949e-10	-4.764568e+00	-3.040892e+01
1.710000e-06	-6.410721e-07	-3.865735e-10	-4.442456e+00	-2.938897e+01
1.720000e-06	-5.945092e-07	-3.681538e-10	-4.119788e+00	-2.834780e+01
1.730000e-06	-5.477257e-07	-3.496072e-10	-3.795590e+00	-2.728520e+01
1.740000e-06	-5.008655e-07	-3.301681e-10	-3.470862e+00	-2.620103e+01
1.750000e-06	-4.540660e-07	-3.111786e-10	-3.146554e+00	-2.509520e+01
1.760000e-06	-4.072311e-07	-2.961304e-10	-2.822001e+00	-2.396767e+01
1.770000e-06	-3.604135e-07	-2.832080e-10	-2.497568e+00	-2.281850e+01
1.780000e-06	-3.134988e-07	-2.679012e-10	-2.172462e+00	-2.164777e+01
1.790000e-06	-2.664319e-07	-2.492071e-10	-1.846301e+00	-2.045566e+01
1.800000e-06	-2.194140e-07	-2.307910e-10	-1.520479e+00	-1.924242e+01
1.810000e-06	-1.723396e-07	-2.115062e-10	-1.194267e+00	-1.800836e+01
1.820000e-06	-1.252961e-07	-1.940230e-10	-8.682678e-01	-1.675387e+01
1.830000e-06	-7.835865e-08	-1.764263e-10	-5.430042e-01	-1.547941e+01
1.840000e-06	-3.138784e-08	-1.586484e-10	-2.175092e-01	-1.418551e+01
1.850000e-06	1.563926e-08	-1.396458e-10	1.083758e-01	-1.287280e+01
1.860000e-06	6.269462e-08	-1.216964e-10	4.344567e-01	-1.154194e+01
1.870000e-06	1.097937e-07	-1.008818e-10	7.608408e-01	-1.019370e+01
1.880000e-06	1.568658e-07	-7.971969e-11	1.087037e+00	-8.828903e+00
1.890000e-06	2.037956e-07	-6.093595e-11	1.412248e+00	-7.448434e+00
1.900000e-06	2.507400e-07	-4.429723e-11	1.737560e+00	-6.053253e+00
1.910000e-06	2.977537e-07	-2.751043e-11	2.063352e+00	-4.644378e+00
1.920000e-06	3.447578e-07	-7.350415e-12	2.389078e+00	-3.222884e+00
1.930000e-06	3.916873e-07	1.620224e-11	2.714287e+00	-1.789901e+00
1.940000e-06	4.386005e-07	3.923355e-11	3.039382e+00	-3.466073e-01
1.950000e-06	4.854785e-07	6.202396e-11	3.364234e+00	1.105773e+00
1.960000e-06	5.322521e-07	8.425940e-11	3.688363e+00	2.565978e+00
1.970000e-06	5.789691e-07	1.028136e-10	4.012099e+00	4.032711e+00
1.980000e-06	6.256269e-07	1.200971e-10	4.335425e+00	5.504646e+00
1.990000e-06	6.722515e-07	1.384090e-10	4.658521e+00	6.980438e+00
2.000000e-06	7.187983e-07	1.572417e-10	4.981077e+00	8.458722e+00
2.010000e-06	7.652967e-07	1.782860e-10	5.303299e+00	9.938125e+00
2.020000e-06	8.117239e-07	1.995133e-10	5.625026e+00	1.141727e+01
2.030000e-06	8.580473e-07	2.221857e-10	5.946035e+00	1.289478e+01
2.040000e-06	9.044038e-07	2.491596e-10	6.267273e+00	1.436930e+01
2.050000e-06	9.506904e-07	2.731861e-10	6.588026e+00	1.583947e+01
2.060000e-06	9.968066e-07	2.937609e-10	6.907599e+00	1.730395e+01
2.070000e-06	1.042908e-06	3.120628e-10	7.227069e+00	1.876146e+01
2.080000e-06	1.088976e-06	3.308022e-10	7.546311e+00	2.021071e+01
2.090000e-06	1.134942e-06	3.498557e-10	7.864842e+00	2.165049e+01
2.100000e-06	1.180852e-06	3.724408e-10	8.182984e+00	2.307959e+01
2.110000e-06	1.226658e-06	3.962233e-10	8.500409e+00	2.449688e+01
2.120000e-06	1.272293e-06	4.172977e-10	8.816648e+00	2.590127e+01
2.130000e-06	1.317832e-06	4.357703e-10	9.132215e+00	2.729173e+01
2.140000e-06	1.363321e-06	4.544846e-10	9.447443e+00	2.866729e+01
2.150000e-06	1.408750e-06	4.715079e-10	9.762258e+00	3.002705e+01
2.160000e-06	1.454108e-06	4.872727e-10	1.007658e+01	3.137016e+01
2.170000e-06	1.499338e-06	5.046315e-10	1.039000e+01	3.269585e+01
2.180000e-06	1.544525e-06	5.225936e-10	1.070314e+01	3.400342e+01
2.190000e-06	1.589642e-06	5.398254e-10	1.101579e+01	3.529225e+01
2.200000e-06	1.634592e-06	5.588965e-10	1.132728e+01	3.656176e+01
2.210000e-06	1.679373e-06	5.777643e-10	1.163760e+01	3.781149e+01
2.220000e-06	1.723998e-06	5.937217e-10	1.194684e+01	3.904100e+01
2.230000e-06	1.768463e-06	6.076841e-10	1.225497e+01	4.024998e+01
2.240000e-06	1.812758e-06	6.230214e-10	1.256192e+01	4.143813e+01
2.250000e-06	1.856972e-06	6.389512e-10	1.286831e+01	4.260526e+01
2.260000e-06	1.901094e-06	6.549836e-10	1.317406e+01	4.375123e+01
2.270000e-06	1.945095e-06	6.726157e-10	1.347898e+01	4.487596e+01
2.280000e-06	1.989025e-06	6.890309e-10	1.378340e+01	4.597946e+01
2.290000e-06	2.032859e-06	7.019913e-10	1.408716e+01	4.706175e+01
2.300000e-06	2.076621e-06	7.119842e-10	1.439042e+01	4.812294e+01
2.310000e-06	2.120348e-06	7.208989e-10	1.469344e+01	4.916318e+01
2.320000e-06	2.163996e-06	7.306317e-10	1.499591e+01	5.018266e+01
2.330000e-06	2.207574e-06	7.448273e-10	1.529789e+01	5.118162e+01
2.340000e-06	2.251076e-06	7.624161e-10	1.559934e+01	5.216034e+01
2.350000e-06	2.294434e-06	7.791453e-10	1.589981e+01	5.311912e+01
2.360000e-06	2.337570e-06	7.931088e-10	1.619873e+01	5.405831e+01
2.370000e-06	2.380560e-06	8.060885e-10	1.649664e+01	5.497826e+01
2.380000e-06	2.423359e-06	8.161519e-10	1.679322e+01	5.587935e+01
2.390000e-06	2.465822e-06	8.265243e-10	1.708748e+01	5.676198e+01
2.400000e-06	2.507987e-06	8.378050e-10	1.737967e+01	5.762656e+01
2.410000e-06	2.549812e-06	8.503153e-10	1.766951e+01	5.847350e+01
2.420000e-06	2.591229e-06	8.626243e-10	1.795652e+01	5.930323e+01
2.430000e-06	2.632324e-06	8.747200e-10	1.824129e+01	6.011615e+01
2.440000e-06	2.673179e-06	8.863786e-10	1.852440e+01	6.091268e+01
2.450000e-06	2.713720e-06	8.958392e-10	1.880534e+01	6.169323e+01
2.460000e-06	2.753946e-06	9.046966e-10	1.908410e+01	6.245819e+01
2.470000e-06	2.793986e-06	9.144679e-10	1.936156e+01	6.320794e+01
2.480000e-06	2.833931e-06	9.239560e-10	1.963837e+01	6.394287e+01
2.490000e-06	2.873810e-06	9.323128e-10	1.991472e+01	6.466330e+01
2.500000e-06	2.913587e-06	9.419280e-10	2.019037e+01	6.536959e+01
2.510000e-06	2.953256e-06	9.545861e-10	2.046526e+01	6.606204e+01
2.520000e-06	2.992763e-06	9.674661e-10	2.073903e+01	6.674095e+01
2.530000e-06	3.032087e-06	9.793853e-10	2.101154e+01	6.740659e+01
2.540000e-06	3.071197e-06	9.900172e-10	2.128256e+01	6.805920e+01
2.550000e-06	3.109986e-06	9.986511e-10	2.155136e+01	6.869903e+01
2.560000e-06	3.148462e-06	1.006568e-09	2.181799e+01	6.932628e+01
2.570000e-06	3.186735e-06	1.013201e-09	2.208321e+01	6.994115e+01
2.580000e-06	3.224835e-06	1.022561e-09	2.234723e+01	7.054380e+01
2.590000e-06	3.262778e-06	1.035295e-09	2.261016e+01	7.113438e+01
2.600000e-06	3.300580e-06	1.046702e-09	2.287213e+01	7.171305e+01
2.610000e-06	3.338192e-06	1.053027e-09	2.313277e+01	7.227991e+01
2.620000e-06	3.375561e-06	1.056119e-09	2.339172e+01	7.283509e+01
2.630000e-06	3.412673e-06	1.060375e-09	2.364890e+01	7.337868e+01
2.640000e-06	3.449456e-06	1.066668e-09	2.390380e+01	7.391077e+01
2.650000e-06	3.485935e-06	1.074125e-09	2.415659e+01	7.443146e+01
2.660000e-06	3.522230e-06	1.085759e-09	2.440810e+01	7.494082e+01
2.670000e-06	3.558359e-06	1.098902e-09	2.465846e+01	7.543893e+01
2.680000e-06	3.594345e-06	1.109785e-09	2.490784e+01	7.592587e+01
2.690000e-06	3.630161e-06	1.115660e-09	2.515603e+01	7.640171e+01
2.700000e-06	3.665837e-06	1.115858e-09	2.540326e+01	7.686655e+01
2.710000e-06	3.701385e-06	1.116168e-09	2.564959e+01	7.732047e+01
2.720000e-06	3.736727e-06	1.120566e-09	2.589450e+01	7.776356e+01
2.730000e-06	3.771822e-06	1.127771e-09	2.613770e+01	7.819593e+01
2.740000e-06	3.806569e-06	1.136059e-09	2.637849e+01	7.861770e+01
2.750000e-06	3.840958e-06	1.143891e-09	2.661680e+01	7.902898e+01
2.760000e-06	3.874869e-06	1.150566e-09	2.685179e+01	7.942991e+01
2.770000e-06	3.908159e-06	1.154151e-09	2.708248e+01	7.982065e+01
2.780000e-06	3.940913e-06	1.155203e-09	2.730946e+01	8.020134e+01
2.790000e-06	3.973319e-06	1.157281e-09	2.753403e+01	8.057217e+01
2.800000e-06	4.005452e-06	1.160632e-09	2.775669e+01	8.093331e+01
2.810000e-06	4.037339e-06	1.164498e-09	2.797766e+01	8.128497e+01
2.820000e-06	4.069115e-06	1.168539e-09	2.819786e+01	8.162736e+01
2.830000e-06	4.100793e-06	1.173190e-09	2.841738e+01	8.196070e+01
2.840000e-06	4.132297e-06	1.178077e-09	2.863570e+01	8.228522e+01
2.850000e-06	4.163553e-06	1.181514e-09	2.885229e+01	8.260115e+01
2.860000e-06	4.194470e-06	1.183118e-09	2.906654e+01	8.290875e+01
2.870000e-06	4.225061e-06	1.185456e-09	2.927853e+01	8.320828e+01
2.880000e-06	4.255288e-06	1.188888e-09	2.948799e+01	8.349998e+01
2.890000e-06	4.285147e-06	1.192354e-09	2.969491e+01	8.378413e+01
2.900000e-06	4.314751e-06	1.194880e-09	2.990005e+01	8.406098e+01
