# Temperatura_=_-0.5
# Concentracion g/m^3_=_1620.0
# C_Vs_to_Am_M_A/Vsm_=_65563218390.804596
# pendiente_HvsI_1/m_=_3716.3
# ordenada_HvsI_A/m_=_1297.0
# frecuencia_Hz_=_135094.61583056094

Tiempo_(s)	Campo_(V.s)	Magnetizacion_(V.s)	Campo_(kA/m)	Magnetizacion_(A/m)
0.000000e+00	-5.504504e-06	-1.374182e-09	-3.838197e+01	-9.036704e+01
1.000000e-08	-5.504660e-06	-1.371585e-09	-3.838306e+01	-9.032373e+01
2.000000e-08	-5.504522e-06	-1.369437e-09	-3.838210e+01	-9.027516e+01
3.000000e-08	-5.503954e-06	-1.369023e-09	-3.837814e+01	-9.022139e+01
4.000000e-08	-5.502735e-06	-1.368153e-09	-3.836964e+01	-9.016252e+01
5.000000e-08	-5.500970e-06	-1.367905e-09	-3.835733e+01	-9.009865e+01
6.000000e-08	-5.498723e-06	-1.371811e-09	-3.834167e+01	-9.002990e+01
7.000000e-08	-5.495917e-06	-1.393893e-09	-3.832210e+01	-8.995641e+01
8.000000e-08	-5.492598e-06	-1.394829e-09	-3.829895e+01	-8.987834e+01
9.000000e-08	-5.488868e-06	-1.338992e-09	-3.827294e+01	-8.979587e+01
1.000000e-07	-5.484782e-06	-1.320451e-09	-3.824446e+01	-8.970917e+01
1.100000e-07	-5.480418e-06	-1.396270e-09	-3.821403e+01	-8.961845e+01
1.200000e-07	-5.475719e-06	-1.426503e-09	-3.818126e+01	-8.952391e+01
1.300000e-07	-5.470690e-06	-1.354742e-09	-3.814620e+01	-8.942578e+01
1.400000e-07	-5.465314e-06	-1.301959e-09	-3.810871e+01	-8.932428e+01
1.500000e-07	-5.459586e-06	-1.386497e-09	-3.806877e+01	-8.921965e+01
1.600000e-07	-5.453523e-06	-1.436156e-09	-3.802649e+01	-8.911211e+01
1.700000e-07	-5.446992e-06	-1.374094e-09	-3.798095e+01	-8.900191e+01
1.800000e-07	-5.440036e-06	-1.297356e-09	-3.793245e+01	-8.888929e+01
1.900000e-07	-5.432783e-06	-1.342553e-09	-3.788188e+01	-8.877448e+01
2.000000e-07	-5.425230e-06	-1.369540e-09	-3.782921e+01	-8.865772e+01
2.100000e-07	-5.417374e-06	-1.347007e-09	-3.777443e+01	-8.853922e+01
2.200000e-07	-5.409249e-06	-1.311566e-09	-3.771778e+01	-8.841920e+01
2.300000e-07	-5.400736e-06	-1.331628e-09	-3.765842e+01	-8.829788e+01
2.400000e-07	-5.391711e-06	-1.344701e-09	-3.759549e+01	-8.817545e+01
2.500000e-07	-5.382143e-06	-1.315317e-09	-3.752877e+01	-8.805208e+01
2.600000e-07	-5.371872e-06	-1.284919e-09	-3.745715e+01	-8.792795e+01
2.700000e-07	-5.360922e-06	-1.291349e-09	-3.738080e+01	-8.780320e+01
2.800000e-07	-5.349553e-06	-1.305462e-09	-3.730153e+01	-8.767797e+01
2.900000e-07	-5.337858e-06	-1.294233e-09	-3.721998e+01	-8.755236e+01
3.000000e-07	-5.325850e-06	-1.290573e-09	-3.713625e+01	-8.742648e+01
3.100000e-07	-5.313459e-06	-1.290520e-09	-3.704985e+01	-8.730038e+01
3.200000e-07	-5.300640e-06	-1.316418e-09	-3.696047e+01	-8.717411e+01
3.300000e-07	-5.287395e-06	-1.293512e-09	-3.686811e+01	-8.704771e+01
3.400000e-07	-5.273660e-06	-1.270676e-09	-3.677234e+01	-8.692117e+01
3.500000e-07	-5.259510e-06	-1.274685e-09	-3.667367e+01	-8.679448e+01
3.600000e-07	-5.244899e-06	-1.301683e-09	-3.657179e+01	-8.666759e+01
3.700000e-07	-5.229753e-06	-1.269489e-09	-3.646618e+01	-8.654044e+01
3.800000e-07	-5.214112e-06	-1.274338e-09	-3.635712e+01	-8.641294e+01
3.900000e-07	-5.198139e-06	-1.306746e-09	-3.624575e+01	-8.628498e+01
4.000000e-07	-5.181860e-06	-1.281091e-09	-3.613223e+01	-8.615644e+01
4.100000e-07	-5.165134e-06	-1.235156e-09	-3.601561e+01	-8.602717e+01
4.200000e-07	-5.148049e-06	-1.294048e-09	-3.589647e+01	-8.589700e+01
4.300000e-07	-5.130682e-06	-1.309180e-09	-3.577537e+01	-8.576575e+01
4.400000e-07	-5.113003e-06	-1.236749e-09	-3.565211e+01	-8.563323e+01
4.500000e-07	-5.094865e-06	-1.241409e-09	-3.552563e+01	-8.549923e+01
4.600000e-07	-5.076264e-06	-1.310199e-09	-3.539593e+01	-8.536353e+01
4.700000e-07	-5.057242e-06	-1.255873e-09	-3.526329e+01	-8.522590e+01
4.800000e-07	-5.037896e-06	-1.218664e-09	-3.512840e+01	-8.508610e+01
4.900000e-07	-5.018356e-06	-1.285268e-09	-3.499215e+01	-8.494390e+01
5.000000e-07	-4.998599e-06	-1.279191e-09	-3.485438e+01	-8.479904e+01
5.100000e-07	-4.978591e-06	-1.210197e-09	-3.471487e+01	-8.465128e+01
5.200000e-07	-4.958282e-06	-1.258097e-09	-3.457326e+01	-8.450038e+01
5.300000e-07	-4.937636e-06	-1.286982e-09	-3.442930e+01	-8.434610e+01
5.400000e-07	-4.916668e-06	-1.209363e-09	-3.428309e+01	-8.418820e+01
5.500000e-07	-4.895344e-06	-1.210411e-09	-3.413440e+01	-8.402646e+01
5.600000e-07	-4.873648e-06	-1.271476e-09	-3.398312e+01	-8.386064e+01
5.700000e-07	-4.851564e-06	-1.229802e-09	-3.382914e+01	-8.369056e+01
5.800000e-07	-4.829141e-06	-1.194509e-09	-3.367278e+01	-8.351600e+01
5.900000e-07	-4.806425e-06	-1.249963e-09	-3.351439e+01	-8.333680e+01
6.000000e-07	-4.783426e-06	-1.239308e-09	-3.335402e+01	-8.315278e+01
6.100000e-07	-4.760048e-06	-1.196255e-09	-3.319101e+01	-8.296379e+01
6.200000e-07	-4.736384e-06	-1.226574e-09	-3.302601e+01	-8.276972e+01
6.300000e-07	-4.712535e-06	-1.247348e-09	-3.285971e+01	-8.257043e+01
6.400000e-07	-4.688363e-06	-1.205383e-09	-3.269116e+01	-8.236584e+01
6.500000e-07	-4.663887e-06	-1.207558e-09	-3.252049e+01	-8.215588e+01
6.600000e-07	-4.639167e-06	-1.218774e-09	-3.234812e+01	-8.194049e+01
6.700000e-07	-4.613960e-06	-1.189015e-09	-3.217236e+01	-8.171964e+01
6.800000e-07	-4.588077e-06	-1.176048e-09	-3.199189e+01	-8.149332e+01
6.900000e-07	-4.561612e-06	-1.201358e-09	-3.180735e+01	-8.126153e+01
7.000000e-07	-4.534669e-06	-1.193639e-09	-3.161948e+01	-8.102430e+01
7.100000e-07	-4.507414e-06	-1.182884e-09	-3.142944e+01	-8.078167e+01
7.200000e-07	-4.479936e-06	-1.191364e-09	-3.123783e+01	-8.053369e+01
7.300000e-07	-4.452227e-06	-1.190836e-09	-3.104462e+01	-8.028045e+01
7.400000e-07	-4.424286e-06	-1.167394e-09	-3.084980e+01	-8.002204e+01
7.500000e-07	-4.396138e-06	-1.163324e-09	-3.065353e+01	-7.975856e+01
7.600000e-07	-4.367778e-06	-1.162990e-09	-3.045578e+01	-7.949012e+01
7.700000e-07	-4.339138e-06	-1.155138e-09	-3.025608e+01	-7.921685e+01
7.800000e-07	-4.310144e-06	-1.155242e-09	-3.005390e+01	-7.893889e+01
7.900000e-07	-4.280829e-06	-1.161615e-09	-2.984950e+01	-7.865637e+01
8.000000e-07	-4.251223e-06	-1.152955e-09	-2.964306e+01	-7.836944e+01
8.100000e-07	-4.221319e-06	-1.141134e-09	-2.943454e+01	-7.807825e+01
8.200000e-07	-4.191063e-06	-1.135804e-09	-2.922357e+01	-7.778294e+01
8.300000e-07	-4.160575e-06	-1.124494e-09	-2.901098e+01	-7.748366e+01
8.400000e-07	-4.129839e-06	-1.113860e-09	-2.879667e+01	-7.718056e+01
8.500000e-07	-4.098754e-06	-1.118350e-09	-2.857992e+01	-7.687378e+01
8.600000e-07	-4.067413e-06	-1.120783e-09	-2.836138e+01	-7.656344e+01
8.700000e-07	-4.035817e-06	-1.113417e-09	-2.814107e+01	-7.624968e+01
8.800000e-07	-4.004017e-06	-1.113301e-09	-2.791933e+01	-7.593260e+01
8.900000e-07	-3.972112e-06	-1.107933e-09	-2.769686e+01	-7.561231e+01
9.000000e-07	-3.940017e-06	-1.090814e-09	-2.747307e+01	-7.528890e+01
9.100000e-07	-3.907594e-06	-1.078820e-09	-2.724699e+01	-7.496245e+01
9.200000e-07	-3.874799e-06	-1.077761e-09	-2.701832e+01	-7.463302e+01
9.300000e-07	-3.841665e-06	-1.067940e-09	-2.678728e+01	-7.430066e+01
9.400000e-07	-3.808150e-06	-1.063487e-09	-2.655359e+01	-7.396540e+01
9.500000e-07	-3.774071e-06	-1.068469e-09	-2.631596e+01	-7.362725e+01
9.600000e-07	-3.739489e-06	-1.067551e-09	-2.607482e+01	-7.328621e+01
9.700000e-07	-3.704594e-06	-1.056106e-09	-2.583150e+01	-7.294226e+01
9.800000e-07	-3.669452e-06	-1.052190e-09	-2.558647e+01	-7.259537e+01
9.900000e-07	-3.634023e-06	-1.045301e-09	-2.533943e+01	-7.224549e+01
1.000000e-06	-3.598374e-06	-1.033009e-09	-2.509086e+01	-7.189254e+01
1.010000e-06	-3.562651e-06	-1.027665e-09	-2.484177e+01	-7.153645e+01
1.020000e-06	-3.526818e-06	-1.031643e-09	-2.459191e+01	-7.117711e+01
1.030000e-06	-3.490797e-06	-1.026065e-09	-2.434073e+01	-7.081442e+01
1.040000e-06	-3.454626e-06	-1.021267e-09	-2.408852e+01	-7.044825e+01
1.050000e-06	-3.418218e-06	-1.019978e-09	-2.383465e+01	-7.007846e+01
1.060000e-06	-3.381532e-06	-1.012034e-09	-2.357885e+01	-6.970491e+01
1.070000e-06	-3.344610e-06	-9.975780e-10	-2.332140e+01	-6.932745e+01
1.080000e-06	-3.307426e-06	-9.916719e-10	-2.306212e+01	-6.894591e+01
1.090000e-06	-3.270002e-06	-9.880271e-10	-2.280117e+01	-6.856013e+01
1.100000e-06	-3.232282e-06	-9.804053e-10	-2.253816e+01	-6.816993e+01
1.110000e-06	-3.194332e-06	-9.767893e-10	-2.227354e+01	-6.777513e+01
1.120000e-06	-3.156212e-06	-9.750769e-10	-2.200773e+01	-6.737557e+01
1.130000e-06	-3.117854e-06	-9.675844e-10	-2.174027e+01	-6.697106e+01
1.140000e-06	-3.079224e-06	-9.589385e-10	-2.147091e+01	-6.656143e+01
1.150000e-06	-3.040369e-06	-9.520836e-10	-2.119998e+01	-6.614651e+01
1.160000e-06	-3.001383e-06	-9.419917e-10	-2.092814e+01	-6.572611e+01
1.170000e-06	-2.962246e-06	-9.313841e-10	-2.065524e+01	-6.530008e+01
1.180000e-06	-2.922920e-06	-9.231990e-10	-2.038103e+01	-6.486825e+01
1.190000e-06	-2.883344e-06	-9.168994e-10	-2.010507e+01	-6.443048e+01
1.200000e-06	-2.843620e-06	-9.069409e-10	-1.982808e+01	-6.398660e+01
1.210000e-06	-2.803838e-06	-9.000982e-10	-1.955069e+01	-6.353649e+01
1.220000e-06	-2.763927e-06	-8.962476e-10	-1.927240e+01	-6.307999e+01
1.230000e-06	-2.723909e-06	-8.880559e-10	-1.899336e+01	-6.261700e+01
1.240000e-06	-2.683702e-06	-8.761884e-10	-1.871300e+01	-6.214739e+01
1.250000e-06	-2.643221e-06	-8.676289e-10	-1.843073e+01	-6.167103e+01
1.260000e-06	-2.602512e-06	-8.577274e-10	-1.814687e+01	-6.118784e+01
1.270000e-06	-2.561603e-06	-8.462661e-10	-1.786162e+01	-6.069770e+01
1.280000e-06	-2.520421e-06	-8.388155e-10	-1.757447e+01	-6.020052e+01
1.290000e-06	-2.479039e-06	-8.345986e-10	-1.728592e+01	-5.969621e+01
1.300000e-06	-2.437368e-06	-8.274733e-10	-1.699535e+01	-5.918467e+01
1.310000e-06	-2.395270e-06	-8.201903e-10	-1.670181e+01	-5.866582e+01
1.320000e-06	-2.352842e-06	-8.113352e-10	-1.640597e+01	-5.813956e+01
1.330000e-06	-2.310088e-06	-8.007347e-10	-1.610785e+01	-5.760581e+01
1.340000e-06	-2.267036e-06	-7.873023e-10	-1.580766e+01	-5.706447e+01
1.350000e-06	-2.223774e-06	-7.761557e-10	-1.550600e+01	-5.651543e+01
1.360000e-06	-2.180410e-06	-7.687062e-10	-1.520363e+01	-5.595860e+01
1.370000e-06	-2.136975e-06	-7.623923e-10	-1.490077e+01	-5.539385e+01
1.380000e-06	-2.093404e-06	-7.555596e-10	-1.459695e+01	-5.482107e+01
1.390000e-06	-2.049769e-06	-7.473959e-10	-1.429269e+01	-5.424010e+01
1.400000e-06	-2.006076e-06	-7.376633e-10	-1.398803e+01	-5.365081e+01
1.410000e-06	-1.962318e-06	-7.288493e-10	-1.368291e+01	-5.305301e+01
1.420000e-06	-1.918463e-06	-7.210095e-10	-1.337712e+01	-5.244653e+01
1.430000e-06	-1.874472e-06	-7.115814e-10	-1.307037e+01	-5.183117e+01
1.440000e-06	-1.830431e-06	-6.998298e-10	-1.276329e+01	-5.120669e+01
1.450000e-06	-1.786289e-06	-6.888891e-10	-1.245549e+01	-5.057287e+01
1.460000e-06	-1.742035e-06	-6.796569e-10	-1.214692e+01	-4.992943e+01
1.470000e-06	-1.697678e-06	-6.694639e-10	-1.183762e+01	-4.927609e+01
1.480000e-06	-1.653172e-06	-6.600299e-10	-1.152729e+01	-4.861254e+01
1.490000e-06	-1.608585e-06	-6.511305e-10	-1.121639e+01	-4.793845e+01
1.500000e-06	-1.563937e-06	-6.419676e-10	-1.090506e+01	-4.725346e+01
1.510000e-06	-1.519063e-06	-6.317054e-10	-1.059217e+01	-4.655721e+01
1.520000e-06	-1.473980e-06	-6.201868e-10	-1.027781e+01	-4.584929e+01
1.530000e-06	-1.428829e-06	-6.086974e-10	-9.962983e+00	-4.512930e+01
1.540000e-06	-1.383576e-06	-5.994165e-10	-9.647443e+00	-4.439679e+01
1.550000e-06	-1.338203e-06	-5.897729e-10	-9.331061e+00	-4.365132e+01
1.560000e-06	-1.292691e-06	-5.786908e-10	-9.013715e+00	-4.289241e+01
1.570000e-06	-1.247147e-06	-5.677081e-10	-8.696144e+00	-4.211960e+01
1.580000e-06	-1.201614e-06	-5.565030e-10	-8.378654e+00	-4.133238e+01
1.590000e-06	-1.156069e-06	-5.430873e-10	-8.061072e+00	-4.053027e+01
1.600000e-06	-1.110409e-06	-5.303459e-10	-7.742692e+00	-3.971275e+01
1.610000e-06	-1.064542e-06	-5.177286e-10	-7.422874e+00	-3.887933e+01
1.620000e-06	-1.018616e-06	-5.059636e-10	-7.102639e+00	-3.802949e+01
1.630000e-06	-9.727405e-07	-4.945980e-10	-6.782755e+00	-3.716275e+01
1.640000e-06	-9.267474e-07	-4.823472e-10	-6.462052e+00	-3.627862e+01
1.650000e-06	-8.805693e-07	-4.684769e-10	-6.140060e+00	-3.537661e+01
1.660000e-06	-8.343832e-07	-4.527014e-10	-5.818013e+00	-3.445628e+01
1.670000e-06	-7.881467e-07	-4.373358e-10	-5.495614e+00	-3.351718e+01
1.680000e-06	-7.418647e-07	-4.230219e-10	-5.172897e+00	-3.255891e+01
1.690000e-06	-6.955716e-07	-4.089244e-10	-4.850103e+00	-3.158107e+01
1.700000e-06	-6.492675e-07	-3.947033e-10	-4.527232e+00	-3.058333e+01
1.710000e-06	-6.028921e-07	-3.791602e-10	-4.203864e+00	-2.956536e+01
1.720000e-06	-5.564891e-07	-3.626668e-10	-3.880304e+00	-2.852691e+01
1.730000e-06	-5.101531e-07	-3.460678e-10	-3.557211e+00	-2.746775e+01
1.740000e-06	-4.637842e-07	-3.276640e-10	-3.233889e+00	-2.638769e+01
1.750000e-06	-4.172254e-07	-3.089643e-10	-2.909242e+00	-2.528662e+01
1.760000e-06	-3.705800e-07	-2.921670e-10	-2.583992e+00	-2.416447e+01
1.770000e-06	-3.239242e-07	-2.750663e-10	-2.258668e+00	-2.302122e+01
1.780000e-06	-2.772018e-07	-2.579443e-10	-1.932881e+00	-2.185694e+01
1.790000e-06	-2.304947e-07	-2.420921e-10	-1.607201e+00	-2.067174e+01
1.800000e-06	-1.837600e-07	-2.260379e-10	-1.281327e+00	-1.946579e+01
1.810000e-06	-1.369717e-07	-2.098900e-10	-9.550803e-01	-1.823935e+01
1.820000e-06	-9.023379e-08	-1.928878e-10	-6.291849e-01	-1.699273e+01
1.830000e-06	-4.358572e-08	-1.741343e-10	-3.039158e-01	-1.572633e+01
1.840000e-06	3.079998e-09	-1.547383e-10	2.147631e-02	-1.444058e+01
1.850000e-06	4.981390e-08	-1.358848e-10	3.473439e-01	-1.313603e+01
1.860000e-06	9.653930e-08	-1.163475e-10	6.731522e-01	-1.181327e+01
1.870000e-06	1.432009e-07	-9.776906e-11	9.985157e-01	-1.047296e+01
1.880000e-06	1.898558e-07	-8.027434e-11	1.323832e+00	-9.115837e+00
1.890000e-06	2.365329e-07	-6.213775e-11	1.649304e+00	-7.742695e+00
1.900000e-06	2.831163e-07	-4.430629e-11	1.974122e+00	-6.354397e+00
1.910000e-06	3.296901e-07	-2.582623e-11	2.298873e+00	-4.951868e+00
1.920000e-06	3.762607e-07	-3.700528e-12	2.623602e+00	-3.536089e+00
1.930000e-06	4.227129e-07	2.051022e-11	2.947506e+00	-2.108097e+00
1.940000e-06	4.691976e-07	4.252751e-11	3.271636e+00	-6.689815e-01
1.950000e-06	5.156893e-07	6.202266e-11	3.595814e+00	7.801207e-01
1.960000e-06	5.620619e-07	8.190194e-11	3.919163e+00	2.238029e+00
1.970000e-06	6.084065e-07	1.022261e-10	4.242316e+00	3.703525e+00
1.980000e-06	6.547637e-07	1.224900e-10	4.565556e+00	5.175353e+00
1.990000e-06	7.010098e-07	1.423928e-10	4.888023e+00	6.652232e+00
2.000000e-06	7.471679e-07	1.620893e-10	5.209875e+00	8.132853e+00
2.010000e-06	7.932780e-07	1.813358e-10	5.531393e+00	9.615890e+00
2.020000e-06	8.392876e-07	2.032001e-10	5.852210e+00	1.110000e+01
2.030000e-06	8.852163e-07	2.281408e-10	6.172463e+00	1.258385e+01
2.040000e-06	9.310590e-07	2.516108e-10	6.492116e+00	1.406607e+01
2.050000e-06	9.768813e-07	2.718336e-10	6.811628e+00	1.554532e+01
2.060000e-06	1.022703e-06	2.894177e-10	7.131132e+00	1.702027e+01
2.070000e-06	1.068491e-06	3.073551e-10	7.450405e+00	1.848959e+01
2.080000e-06	1.114315e-06	3.259451e-10	7.769933e+00	1.995197e+01
2.090000e-06	1.160061e-06	3.463447e-10	8.088911e+00	2.140613e+01
2.100000e-06	1.205641e-06	3.673760e-10	8.406729e+00	2.285082e+01
2.110000e-06	1.251109e-06	3.874488e-10	8.723769e+00	2.428483e+01
2.120000e-06	1.296530e-06	4.051773e-10	9.040485e+00	2.570697e+01
2.130000e-06	1.341850e-06	4.222410e-10	9.356496e+00	2.711611e+01
2.140000e-06	1.387060e-06	4.393763e-10	9.671735e+00	2.851117e+01
2.150000e-06	1.432210e-06	4.544425e-10	9.986555e+00	2.989110e+01
2.160000e-06	1.477291e-06	4.707452e-10	1.030090e+01	3.125492e+01
2.170000e-06	1.522291e-06	4.897534e-10	1.061468e+01	3.260171e+01
2.180000e-06	1.567130e-06	5.096281e-10	1.092733e+01	3.393060e+01
2.190000e-06	1.611829e-06	5.295037e-10	1.123901e+01	3.524079e+01
2.200000e-06	1.656441e-06	5.467824e-10	1.155008e+01	3.653153e+01
2.210000e-06	1.700908e-06	5.597703e-10	1.186014e+01	3.780215e+01
2.220000e-06	1.745123e-06	5.708837e-10	1.216844e+01	3.905204e+01
2.230000e-06	1.789153e-06	5.840397e-10	1.247546e+01	4.028067e+01
2.240000e-06	1.833138e-06	5.999800e-10	1.278216e+01	4.148755e+01
2.250000e-06	1.877021e-06	6.185034e-10	1.308815e+01	4.267229e+01
2.260000e-06	1.920773e-06	6.382741e-10	1.339322e+01	4.383455e+01
2.270000e-06	1.964487e-06	6.559228e-10	1.369803e+01	4.497405e+01
2.280000e-06	2.008182e-06	6.696929e-10	1.400271e+01	4.609058e+01
2.290000e-06	2.051845e-06	6.808991e-10	1.430717e+01	4.718402e+01
2.300000e-06	2.095443e-06	6.894587e-10	1.461117e+01	4.825426e+01
2.310000e-06	2.138980e-06	6.967747e-10	1.491474e+01	4.930130e+01
2.320000e-06	2.182478e-06	7.095866e-10	1.521805e+01	5.032517e+01
2.330000e-06	2.225858e-06	7.280826e-10	1.552053e+01	5.132597e+01
2.340000e-06	2.268983e-06	7.479999e-10	1.582123e+01	5.230384e+01
2.350000e-06	2.311879e-06	7.660608e-10	1.612034e+01	5.325897e+01
2.360000e-06	2.354598e-06	7.803061e-10	1.641821e+01	5.419160e+01
2.370000e-06	2.397108e-06	7.894518e-10	1.671463e+01	5.510203e+01
2.380000e-06	2.439368e-06	7.951300e-10	1.700930e+01	5.599057e+01
2.390000e-06	2.481343e-06	8.024008e-10	1.730198e+01	5.685758e+01
2.400000e-06	2.523008e-06	8.137861e-10	1.759250e+01	5.770345e+01
2.410000e-06	2.564209e-06	8.289438e-10	1.787980e+01	5.852861e+01
2.420000e-06	2.604969e-06	8.463947e-10	1.816400e+01	5.933350e+01
2.430000e-06	2.645520e-06	8.609825e-10	1.844677e+01	6.011859e+01
2.440000e-06	2.685884e-06	8.698132e-10	1.872821e+01	6.088437e+01
2.450000e-06	2.726000e-06	8.757116e-10	1.900794e+01	6.163134e+01
2.460000e-06	2.765940e-06	8.822456e-10	1.928643e+01	6.236001e+01
2.470000e-06	2.805780e-06	8.910463e-10	1.956423e+01	6.307090e+01
2.480000e-06	2.845494e-06	9.016104e-10	1.984115e+01	6.376453e+01
2.490000e-06	2.885085e-06	9.134605e-10	2.011721e+01	6.444145e+01
2.500000e-06	2.924570e-06	9.278075e-10	2.039253e+01	6.510216e+01
2.510000e-06	2.963920e-06	9.422403e-10	2.066691e+01	6.574719e+01
2.520000e-06	3.003101e-06	9.532406e-10	2.094011e+01	6.637707e+01
2.530000e-06	3.042015e-06	9.627197e-10	2.121145e+01	6.699229e+01
2.540000e-06	3.080615e-06	9.730952e-10	2.148061e+01	6.759336e+01
2.550000e-06	3.118998e-06	9.817470e-10	2.174825e+01	6.818075e+01
2.560000e-06	3.157207e-06	9.870980e-10	2.201467e+01	6.875494e+01
2.570000e-06	3.195248e-06	9.928767e-10	2.227993e+01	6.931637e+01
2.580000e-06	3.233049e-06	1.002015e-09	2.254350e+01	6.986550e+01
2.590000e-06	3.270621e-06	1.013297e-09	2.280548e+01	7.040272e+01
2.600000e-06	3.307991e-06	1.022597e-09	2.306606e+01	7.092845e+01
2.610000e-06	3.345138e-06	1.028606e-09	2.332508e+01	7.144304e+01
2.620000e-06	3.382111e-06	1.034543e-09	2.358288e+01	7.194688e+01
2.630000e-06	3.418872e-06	1.040379e-09	2.383922e+01	7.244028e+01
2.640000e-06	3.455365e-06	1.046736e-09	2.409367e+01	7.292356e+01
2.650000e-06	3.491526e-06	1.055446e-09	2.434582e+01	7.339701e+01
2.660000e-06	3.527455e-06	1.064300e-09	2.459634e+01	7.386092e+01
2.670000e-06	3.563266e-06	1.072402e-09	2.484605e+01	7.431551e+01
2.680000e-06	3.598961e-06	1.078519e-09	2.509495e+01	7.476104e+01
2.690000e-06	3.634499e-06	1.080927e-09	2.534274e+01	7.519770e+01
2.700000e-06	3.669907e-06	1.082105e-09	2.558964e+01	7.562569e+01
2.710000e-06	3.705172e-06	1.086006e-09	2.583553e+01	7.604519e+01
2.720000e-06	3.740169e-06	1.091828e-09	2.607956e+01	7.645634e+01
2.730000e-06	3.774754e-06	1.097880e-09	2.632072e+01	7.685930e+01
2.740000e-06	3.808817e-06	1.103492e-09	2.655824e+01	7.725418e+01
2.750000e-06	3.842385e-06	1.109483e-09	2.679230e+01	7.764109e+01
2.760000e-06	3.875407e-06	1.113572e-09	2.702255e+01	7.802014e+01
2.770000e-06	3.907916e-06	1.115517e-09	2.724924e+01	7.839141e+01
2.780000e-06	3.940130e-06	1.119407e-09	2.747386e+01	7.875498e+01
2.790000e-06	3.972144e-06	1.123002e-09	2.769709e+01	7.911092e+01
2.800000e-06	4.004013e-06	1.127240e-09	2.791931e+01	7.945927e+01
2.810000e-06	4.035748e-06	1.131546e-09	2.814059e+01	7.980011e+01
2.820000e-06	4.067286e-06	1.135155e-09	2.836050e+01	8.013347e+01
2.830000e-06	4.098636e-06	1.139933e-09	2.857909e+01	8.045940e+01
2.840000e-06	4.129792e-06	1.148285e-09	2.879634e+01	8.077794e+01
2.850000e-06	4.160618e-06	1.153147e-09	2.901128e+01	8.108913e+01
2.860000e-06	4.191029e-06	1.156953e-09	2.922334e+01	8.139300e+01
2.870000e-06	4.221078e-06	1.158747e-09	2.943286e+01	8.168960e+01
2.880000e-06	4.250853e-06	1.157430e-09	2.964048e+01	8.197897e+01
2.890000e-06	4.280382e-06	1.155358e-09	2.984638e+01	8.226115e+01
2.900000e-06	4.309729e-06	1.156241e-09	3.005101e+01	8.253618e+01
