# Temperatura_=_-1.8
# Concentracion g/m^3_=_1620.0
# C_Vs_to_Am_M_A/Vsm_=_65563218390.804596
# pendiente_HvsI_1/m_=_3716.3
# ordenada_HvsI_A/m_=_1297.0
# frecuencia_Hz_=_135099.83845805292

Tiempo_(s)	Campo_(V.s)	Magnetizacion_(V.s)	Campo_(kA/m)	Magnetizacion_(A/m)
0.000000e+00	-5.521441e-06	-1.105658e-09	-3.838276e+01	-7.269787e+01
1.000000e-08	-5.521635e-06	-1.100962e-09	-3.838411e+01	-7.267821e+01
2.000000e-08	-5.521402e-06	-1.097794e-09	-3.838249e+01	-7.265538e+01
3.000000e-08	-5.520767e-06	-1.097743e-09	-3.837808e+01	-7.262917e+01
4.000000e-08	-5.519679e-06	-1.101066e-09	-3.837052e+01	-7.259934e+01
5.000000e-08	-5.517969e-06	-1.110521e-09	-3.835863e+01	-7.256570e+01
6.000000e-08	-5.515680e-06	-1.133893e-09	-3.834272e+01	-7.252805e+01
7.000000e-08	-5.512877e-06	-1.130609e-09	-3.832323e+01	-7.248619e+01
8.000000e-08	-5.509561e-06	-1.065216e-09	-3.830018e+01	-7.243998e+01
9.000000e-08	-5.505818e-06	-1.020624e-09	-3.827416e+01	-7.238925e+01
1.000000e-07	-5.501655e-06	-1.109149e-09	-3.824522e+01	-7.233388e+01
1.100000e-07	-5.497177e-06	-1.190065e-09	-3.821409e+01	-7.227377e+01
1.200000e-07	-5.492475e-06	-1.145231e-09	-3.818140e+01	-7.220883e+01
1.300000e-07	-5.487452e-06	-1.015310e-09	-3.814649e+01	-7.213900e+01
1.400000e-07	-5.482124e-06	-1.084408e-09	-3.810944e+01	-7.206425e+01
1.500000e-07	-5.476463e-06	-1.168100e-09	-3.807010e+01	-7.198456e+01
1.600000e-07	-5.470394e-06	-1.150052e-09	-3.802790e+01	-7.189996e+01
1.700000e-07	-5.463919e-06	-1.028812e-09	-3.798289e+01	-7.181048e+01
1.800000e-07	-5.457134e-06	-1.070370e-09	-3.793572e+01	-7.171620e+01
1.900000e-07	-5.449991e-06	-1.155368e-09	-3.788607e+01	-7.161720e+01
2.000000e-07	-5.442484e-06	-1.145543e-09	-3.783388e+01	-7.151362e+01
2.100000e-07	-5.434774e-06	-1.069324e-09	-3.778029e+01	-7.140558e+01
2.200000e-07	-5.426795e-06	-1.068040e-09	-3.772482e+01	-7.129326e+01
2.300000e-07	-5.418329e-06	-1.125177e-09	-3.766597e+01	-7.117684e+01
2.400000e-07	-5.409297e-06	-1.110002e-09	-3.760319e+01	-7.105654e+01
2.500000e-07	-5.399687e-06	-1.074428e-09	-3.753638e+01	-7.093257e+01
2.600000e-07	-5.389493e-06	-1.050874e-09	-3.746552e+01	-7.080519e+01
2.700000e-07	-5.378668e-06	-1.079070e-09	-3.739026e+01	-7.067465e+01
2.800000e-07	-5.367359e-06	-1.048222e-09	-3.731165e+01	-7.054123e+01
2.900000e-07	-5.355748e-06	-1.041728e-09	-3.723093e+01	-7.040521e+01
3.000000e-07	-5.343760e-06	-1.032412e-09	-3.714760e+01	-7.026688e+01
3.100000e-07	-5.331408e-06	-1.069245e-09	-3.706173e+01	-7.012653e+01
3.200000e-07	-5.318613e-06	-1.032108e-09	-3.697279e+01	-6.998446e+01
3.300000e-07	-5.305334e-06	-1.023500e-09	-3.688047e+01	-6.984098e+01
3.400000e-07	-5.291702e-06	-1.014174e-09	-3.678571e+01	-6.969638e+01
3.500000e-07	-5.277655e-06	-1.042745e-09	-3.668807e+01	-6.955094e+01
3.600000e-07	-5.263134e-06	-1.006888e-09	-3.658712e+01	-6.940497e+01
3.700000e-07	-5.248259e-06	-1.018629e-09	-3.648372e+01	-6.925873e+01
3.800000e-07	-5.232850e-06	-1.045734e-09	-3.637660e+01	-6.911249e+01
3.900000e-07	-5.216918e-06	-1.041762e-09	-3.626585e+01	-6.896649e+01
4.000000e-07	-5.200584e-06	-9.830414e-10	-3.615230e+01	-6.882098e+01
4.100000e-07	-5.183838e-06	-1.013596e-09	-3.603589e+01	-6.867615e+01
4.200000e-07	-5.166800e-06	-1.056592e-09	-3.591745e+01	-6.853221e+01
4.300000e-07	-5.149431e-06	-1.004313e-09	-3.579670e+01	-6.838933e+01
4.400000e-07	-5.131604e-06	-9.685137e-10	-3.567278e+01	-6.824765e+01
4.500000e-07	-5.113364e-06	-1.030176e-09	-3.554598e+01	-6.810730e+01
4.600000e-07	-5.094804e-06	-1.042747e-09	-3.541696e+01	-6.796837e+01
4.700000e-07	-5.075881e-06	-9.782872e-10	-3.528541e+01	-6.783094e+01
4.800000e-07	-5.056673e-06	-1.002659e-09	-3.515189e+01	-6.769504e+01
4.900000e-07	-5.037253e-06	-1.040170e-09	-3.501689e+01	-6.756070e+01
5.000000e-07	-5.017569e-06	-9.990864e-10	-3.488006e+01	-6.742789e+01
5.100000e-07	-4.997649e-06	-9.777361e-10	-3.474158e+01	-6.729658e+01
5.200000e-07	-4.977485e-06	-1.029718e-09	-3.460141e+01	-6.716670e+01
5.300000e-07	-4.956876e-06	-9.987295e-10	-3.445814e+01	-6.703815e+01
5.400000e-07	-4.935729e-06	-9.638177e-10	-3.431114e+01	-6.691082e+01
5.500000e-07	-4.914239e-06	-1.003814e-09	-3.416174e+01	-6.678455e+01
5.600000e-07	-4.892498e-06	-1.031126e-09	-3.401061e+01	-6.665918e+01
5.700000e-07	-4.870498e-06	-9.775366e-10	-3.385768e+01	-6.653452e+01
5.800000e-07	-4.848230e-06	-9.910089e-10	-3.370288e+01	-6.641034e+01
5.900000e-07	-4.825578e-06	-1.018563e-09	-3.354541e+01	-6.628643e+01
6.000000e-07	-4.802556e-06	-9.939523e-10	-3.338537e+01	-6.616253e+01
6.100000e-07	-4.779269e-06	-9.706757e-10	-3.322349e+01	-6.603837e+01
6.200000e-07	-4.755736e-06	-1.005124e-09	-3.305990e+01	-6.591369e+01
6.300000e-07	-4.731890e-06	-9.936058e-10	-3.289413e+01	-6.578818e+01
6.400000e-07	-4.707750e-06	-9.746756e-10	-3.272632e+01	-6.566156e+01
6.500000e-07	-4.683279e-06	-9.891058e-10	-3.255621e+01	-6.553351e+01
6.600000e-07	-4.658285e-06	-9.973701e-10	-3.238246e+01	-6.540375e+01
6.700000e-07	-4.632722e-06	-9.721100e-10	-3.220476e+01	-6.527194e+01
6.800000e-07	-4.606604e-06	-9.804762e-10	-3.202320e+01	-6.513780e+01
6.900000e-07	-4.579977e-06	-9.880723e-10	-3.183809e+01	-6.500101e+01
7.000000e-07	-4.552940e-06	-9.727586e-10	-3.165015e+01	-6.486127e+01
7.100000e-07	-4.525607e-06	-9.649288e-10	-3.146014e+01	-6.471829e+01
7.200000e-07	-4.498076e-06	-9.733685e-10	-3.126875e+01	-6.457178e+01
7.300000e-07	-4.470402e-06	-9.651838e-10	-3.107637e+01	-6.442148e+01
7.400000e-07	-4.442554e-06	-9.559559e-10	-3.088279e+01	-6.426713e+01
7.500000e-07	-4.414412e-06	-9.600264e-10	-3.068716e+01	-6.410847e+01
7.600000e-07	-4.385966e-06	-9.573020e-10	-3.048941e+01	-6.394529e+01
7.700000e-07	-4.357187e-06	-9.537626e-10	-3.028935e+01	-6.377737e+01
7.800000e-07	-4.328062e-06	-9.514905e-10	-3.008689e+01	-6.360451e+01
7.900000e-07	-4.298648e-06	-9.455537e-10	-2.988241e+01	-6.342655e+01
8.000000e-07	-4.269006e-06	-9.330500e-10	-2.967636e+01	-6.324333e+01
8.100000e-07	-4.239103e-06	-9.322239e-10	-2.946848e+01	-6.305472e+01
8.200000e-07	-4.208883e-06	-9.231608e-10	-2.925840e+01	-6.286061e+01
8.300000e-07	-4.178338e-06	-9.147583e-10	-2.904607e+01	-6.266091e+01
8.400000e-07	-4.147465e-06	-9.119637e-10	-2.883145e+01	-6.245555e+01
8.500000e-07	-4.116402e-06	-9.177761e-10	-2.861552e+01	-6.224448e+01
8.600000e-07	-4.085153e-06	-9.112693e-10	-2.839828e+01	-6.202767e+01
8.700000e-07	-4.053651e-06	-9.136374e-10	-2.817929e+01	-6.180513e+01
8.800000e-07	-4.021933e-06	-9.127691e-10	-2.795881e+01	-6.157686e+01
8.900000e-07	-3.989954e-06	-9.066109e-10	-2.773650e+01	-6.134290e+01
9.000000e-07	-3.957727e-06	-8.917173e-10	-2.751247e+01	-6.110330e+01
9.100000e-07	-3.925269e-06	-8.880075e-10	-2.728684e+01	-6.085813e+01
9.200000e-07	-3.892442e-06	-8.787977e-10	-2.705864e+01	-6.060746e+01
9.300000e-07	-3.859172e-06	-8.712123e-10	-2.682736e+01	-6.035140e+01
9.400000e-07	-3.825386e-06	-8.689272e-10	-2.659249e+01	-6.009006e+01
9.500000e-07	-3.791123e-06	-8.711923e-10	-2.635431e+01	-5.982355e+01
9.600000e-07	-3.756485e-06	-8.636371e-10	-2.611352e+01	-5.955201e+01
9.700000e-07	-3.721433e-06	-8.592772e-10	-2.586986e+01	-5.927558e+01
9.800000e-07	-3.686114e-06	-8.588433e-10	-2.562433e+01	-5.899440e+01
9.900000e-07	-3.650704e-06	-8.549527e-10	-2.537818e+01	-5.870862e+01
1.000000e-06	-3.615123e-06	-8.504318e-10	-2.513083e+01	-5.841840e+01
1.010000e-06	-3.579341e-06	-8.501548e-10	-2.488209e+01	-5.812388e+01
1.020000e-06	-3.543418e-06	-8.470914e-10	-2.463237e+01	-5.782523e+01
1.030000e-06	-3.507364e-06	-8.361069e-10	-2.438174e+01	-5.752259e+01
1.040000e-06	-3.471092e-06	-8.289773e-10	-2.412959e+01	-5.721612e+01
1.050000e-06	-3.434500e-06	-8.249770e-10	-2.387521e+01	-5.690595e+01
1.060000e-06	-3.397652e-06	-8.207633e-10	-2.361907e+01	-5.659223e+01
1.070000e-06	-3.360583e-06	-8.196206e-10	-2.336138e+01	-5.627508e+01
1.080000e-06	-3.323207e-06	-8.220304e-10	-2.310156e+01	-5.595463e+01
1.090000e-06	-3.285534e-06	-8.152889e-10	-2.283967e+01	-5.563098e+01
1.100000e-06	-3.247692e-06	-8.058865e-10	-2.257661e+01	-5.530423e+01
1.110000e-06	-3.209645e-06	-7.971172e-10	-2.231212e+01	-5.497446e+01
1.120000e-06	-3.171380e-06	-7.922329e-10	-2.204612e+01	-5.464176e+01
1.130000e-06	-3.132970e-06	-7.822790e-10	-2.177910e+01	-5.430617e+01
1.140000e-06	-3.094373e-06	-7.771685e-10	-2.151080e+01	-5.396775e+01
1.150000e-06	-3.055495e-06	-7.754990e-10	-2.124053e+01	-5.362650e+01
1.160000e-06	-3.016410e-06	-7.735935e-10	-2.096883e+01	-5.328246e+01
1.170000e-06	-2.977197e-06	-7.684802e-10	-2.069624e+01	-5.293560e+01
1.180000e-06	-2.937836e-06	-7.648174e-10	-2.042262e+01	-5.258592e+01
1.190000e-06	-2.898374e-06	-7.589620e-10	-2.014829e+01	-5.223336e+01
1.200000e-06	-2.858722e-06	-7.512575e-10	-1.987265e+01	-5.187786e+01
1.210000e-06	-2.818896e-06	-7.400122e-10	-1.959579e+01	-5.151936e+01
1.220000e-06	-2.778968e-06	-7.318189e-10	-1.931823e+01	-5.115777e+01
1.230000e-06	-2.738870e-06	-7.236076e-10	-1.903948e+01	-5.079296e+01
1.240000e-06	-2.698502e-06	-7.185399e-10	-1.875886e+01	-5.042481e+01
1.250000e-06	-2.657795e-06	-7.157202e-10	-1.847588e+01	-5.005318e+01
1.260000e-06	-2.616844e-06	-7.117068e-10	-1.819121e+01	-4.967790e+01
1.270000e-06	-2.575660e-06	-7.082162e-10	-1.790492e+01	-4.929881e+01
1.280000e-06	-2.534219e-06	-7.046293e-10	-1.761684e+01	-4.891569e+01
1.290000e-06	-2.492514e-06	-6.977772e-10	-1.732692e+01	-4.852834e+01
1.300000e-06	-2.450427e-06	-6.873746e-10	-1.703435e+01	-4.813655e+01
1.310000e-06	-2.408028e-06	-6.771705e-10	-1.673961e+01	-4.774006e+01
1.320000e-06	-2.365406e-06	-6.680943e-10	-1.644332e+01	-4.733863e+01
1.330000e-06	-2.322534e-06	-6.618090e-10	-1.614529e+01	-4.693198e+01
1.340000e-06	-2.279435e-06	-6.573741e-10	-1.584568e+01	-4.651984e+01
1.350000e-06	-2.236170e-06	-6.520541e-10	-1.554492e+01	-4.610191e+01
1.360000e-06	-2.192778e-06	-6.438503e-10	-1.524328e+01	-4.567790e+01
1.370000e-06	-2.149258e-06	-6.366620e-10	-1.494075e+01	-4.524748e+01
1.380000e-06	-2.105662e-06	-6.289011e-10	-1.463769e+01	-4.481034e+01
1.390000e-06	-2.062037e-06	-6.198532e-10	-1.433442e+01	-4.436613e+01
1.400000e-06	-2.018270e-06	-6.106208e-10	-1.403017e+01	-4.391452e+01
1.410000e-06	-1.974351e-06	-6.027332e-10	-1.372487e+01	-4.345516e+01
1.420000e-06	-1.930377e-06	-5.939603e-10	-1.341918e+01	-4.298769e+01
1.430000e-06	-1.886349e-06	-5.853210e-10	-1.311312e+01	-4.251175e+01
1.440000e-06	-1.842235e-06	-5.755059e-10	-1.280645e+01	-4.202698e+01
1.450000e-06	-1.797910e-06	-5.660477e-10	-1.249832e+01	-4.153299e+01
1.460000e-06	-1.753424e-06	-5.576965e-10	-1.218908e+01	-4.102943e+01
1.470000e-06	-1.708878e-06	-5.497209e-10	-1.187941e+01	-4.051591e+01
1.480000e-06	-1.664238e-06	-5.400942e-10	-1.156909e+01	-3.999206e+01
1.490000e-06	-1.619435e-06	-5.319497e-10	-1.125764e+01	-3.945749e+01
1.500000e-06	-1.574465e-06	-5.257592e-10	-1.094503e+01	-3.891185e+01
1.510000e-06	-1.529394e-06	-5.173232e-10	-1.063171e+01	-3.835475e+01
1.520000e-06	-1.484220e-06	-5.050837e-10	-1.031768e+01	-3.778583e+01
1.530000e-06	-1.439011e-06	-4.947419e-10	-1.000341e+01	-3.720473e+01
1.540000e-06	-1.393733e-06	-4.853042e-10	-9.688654e+00	-3.661109e+01
1.550000e-06	-1.348280e-06	-4.756188e-10	-9.372683e+00	-3.600457e+01
1.560000e-06	-1.302746e-06	-4.661484e-10	-9.056146e+00	-3.538482e+01
1.570000e-06	-1.257107e-06	-4.581180e-10	-8.738885e+00	-3.475152e+01
1.580000e-06	-1.211384e-06	-4.507147e-10	-8.421040e+00	-3.410436e+01
1.590000e-06	-1.165612e-06	-4.430128e-10	-8.102849e+00	-3.344304e+01
1.600000e-06	-1.119703e-06	-4.337443e-10	-7.783713e+00	-3.276726e+01
1.610000e-06	-1.073731e-06	-4.222948e-10	-7.464129e+00	-3.207677e+01
1.620000e-06	-1.027709e-06	-4.084063e-10	-7.144209e+00	-3.137132e+01
1.630000e-06	-9.816026e-07	-3.952435e-10	-6.823693e+00	-3.065067e+01
1.640000e-06	-9.354013e-07	-3.838201e-10	-6.502521e+00	-2.991461e+01
1.650000e-06	-8.890708e-07	-3.712795e-10	-6.180451e+00	-2.916297e+01
1.660000e-06	-8.426823e-07	-3.600361e-10	-5.857977e+00	-2.839559e+01
1.670000e-06	-7.963705e-07	-3.479855e-10	-5.536036e+00	-2.761232e+01
1.680000e-06	-7.501251e-07	-3.363929e-10	-5.214558e+00	-2.681307e+01
1.690000e-06	-7.038214e-07	-3.247630e-10	-4.892674e+00	-2.599776e+01
1.700000e-06	-6.573946e-07	-3.111710e-10	-4.569934e+00	-2.516634e+01
1.710000e-06	-6.108752e-07	-2.970698e-10	-4.246551e+00	-2.431881e+01
1.720000e-06	-5.643257e-07	-2.825695e-10	-3.922957e+00	-2.345516e+01
1.730000e-06	-5.176824e-07	-2.665522e-10	-3.598713e+00	-2.257547e+01
1.740000e-06	-4.709310e-07	-2.512266e-10	-3.273717e+00	-2.167981e+01
1.750000e-06	-4.241799e-07	-2.384499e-10	-2.948722e+00	-2.076830e+01
1.760000e-06	-3.774324e-07	-2.276761e-10	-2.623753e+00	-1.984111e+01
1.770000e-06	-3.306459e-07	-2.154839e-10	-2.298513e+00	-1.889843e+01
1.780000e-06	-2.838466e-07	-2.039894e-10	-1.973184e+00	-1.794049e+01
1.790000e-06	-2.370944e-07	-1.930691e-10	-1.648181e+00	-1.696756e+01
1.800000e-06	-1.903020e-07	-1.796244e-10	-1.322900e+00	-1.597995e+01
1.810000e-06	-1.434365e-07	-1.637147e-10	-9.971106e-01	-1.497799e+01
1.820000e-06	-9.660684e-08	-1.465087e-10	-6.715706e-01	-1.396208e+01
1.830000e-06	-4.973641e-08	-1.288781e-10	-3.457468e-01	-1.293262e+01
1.840000e-06	-2.865987e-09	-1.145090e-10	-1.992315e-02	-1.189008e+01
1.850000e-06	4.390924e-08	-1.049433e-10	3.052388e-01	-1.083493e+01
1.860000e-06	9.071434e-08	-9.479376e-11	6.306084e-01	-9.767712e+00
1.870000e-06	1.375284e-07	-8.055793e-11	9.560402e-01	-8.688973e+00
1.880000e-06	1.843712e-07	-6.544530e-11	1.281672e+00	-7.599304e+00
1.890000e-06	2.312482e-07	-5.082161e-11	1.607541e+00	-6.499323e+00
1.900000e-06	2.780888e-07	-3.716770e-11	1.933158e+00	-5.389680e+00
1.910000e-06	3.249219e-07	-2.306000e-11	2.258722e+00	-4.271050e+00
1.920000e-06	3.717585e-07	-7.045073e-12	2.584310e+00	-3.144134e+00
1.930000e-06	4.185617e-07	1.059814e-11	2.909667e+00	-2.009657e+00
1.940000e-06	4.653352e-07	2.975852e-11	3.234817e+00	-8.683648e-01
1.950000e-06	5.120134e-07	4.687512e-11	3.559304e+00	2.789783e-01
1.960000e-06	5.585916e-07	6.106560e-11	3.883097e+00	1.431590e+00
1.970000e-06	6.050870e-07	7.472712e-11	4.206313e+00	2.588675e+00
1.980000e-06	6.515846e-07	8.817713e-11	4.529545e+00	3.749425e+00
1.990000e-06	6.981108e-07	1.004119e-10	4.852976e+00	4.913023e+00
2.000000e-06	7.445316e-07	1.163130e-10	5.175674e+00	6.078645e+00
2.010000e-06	7.908352e-07	1.346640e-10	5.497558e+00	7.245461e+00
2.020000e-06	8.371165e-07	1.533626e-10	5.819286e+00	8.412643e+00
2.030000e-06	8.833937e-07	1.744462e-10	6.140986e+00	9.579361e+00
2.040000e-06	9.295156e-07	1.951792e-10	6.461606e+00	1.074479e+01
2.050000e-06	9.755330e-07	2.128486e-10	6.781500e+00	1.190811e+01
2.060000e-06	1.021524e-06	2.278561e-10	7.101211e+00	1.306851e+01
2.070000e-06	1.067425e-06	2.409625e-10	7.420294e+00	1.422518e+01
2.080000e-06	1.113303e-06	2.538504e-10	7.739220e+00	1.537735e+01
2.090000e-06	1.159191e-06	2.692236e-10	8.058215e+00	1.652424e+01
2.100000e-06	1.204997e-06	2.869688e-10	8.376641e+00	1.766509e+01
2.110000e-06	1.250659e-06	3.040422e-10	8.694063e+00	1.879917e+01
2.120000e-06	1.296155e-06	3.209024e-10	9.010330e+00	1.992576e+01
2.130000e-06	1.341539e-06	3.377068e-10	9.325825e+00	2.104417e+01
2.140000e-06	1.386854e-06	3.524875e-10	9.640829e+00	2.215373e+01
2.150000e-06	1.432088e-06	3.667786e-10	9.955280e+00	2.325381e+01
2.160000e-06	1.477193e-06	3.813252e-10	1.026883e+01	2.434378e+01
2.170000e-06	1.522232e-06	3.947866e-10	1.058192e+01	2.542307e+01
2.180000e-06	1.567241e-06	4.083756e-10	1.089481e+01	2.649110e+01
2.190000e-06	1.612130e-06	4.232963e-10	1.120686e+01	2.754736e+01
2.200000e-06	1.656916e-06	4.386987e-10	1.151819e+01	2.859134e+01
2.210000e-06	1.701585e-06	4.524084e-10	1.182871e+01	2.962258e+01
2.220000e-06	1.746070e-06	4.642780e-10	1.213795e+01	3.064065e+01
2.230000e-06	1.790339e-06	4.774970e-10	1.244569e+01	3.164513e+01
2.240000e-06	1.834436e-06	4.923475e-10	1.275224e+01	3.263566e+01
2.250000e-06	1.878487e-06	5.080121e-10	1.305846e+01	3.361189e+01
2.260000e-06	1.922426e-06	5.231842e-10	1.336391e+01	3.457351e+01
2.270000e-06	1.966204e-06	5.362399e-10	1.366823e+01	3.552025e+01
2.280000e-06	2.009940e-06	5.475567e-10	1.397227e+01	3.645184e+01
2.290000e-06	2.053607e-06	5.576962e-10	1.427582e+01	3.736808e+01
2.300000e-06	2.097184e-06	5.672674e-10	1.457875e+01	3.826875e+01
2.310000e-06	2.140694e-06	5.781180e-10	1.488122e+01	3.915372e+01
2.320000e-06	2.184110e-06	5.915433e-10	1.518303e+01	4.002282e+01
2.330000e-06	2.227410e-06	6.065005e-10	1.548403e+01	4.087596e+01
2.340000e-06	2.270618e-06	6.199129e-10	1.578439e+01	4.171305e+01
2.350000e-06	2.313721e-06	6.305582e-10	1.608402e+01	4.253403e+01
2.360000e-06	2.356623e-06	6.391507e-10	1.638226e+01	4.333885e+01
2.370000e-06	2.399271e-06	6.466349e-10	1.667873e+01	4.412751e+01
2.380000e-06	2.441690e-06	6.545687e-10	1.697361e+01	4.490001e+01
2.390000e-06	2.483784e-06	6.629565e-10	1.726624e+01	4.565639e+01
2.400000e-06	2.525539e-06	6.711270e-10	1.755650e+01	4.639667e+01
2.410000e-06	2.567024e-06	6.810846e-10	1.784489e+01	4.712094e+01
2.420000e-06	2.608094e-06	6.930821e-10	1.813039e+01	4.782927e+01
2.430000e-06	2.648852e-06	7.047988e-10	1.841372e+01	4.852177e+01
2.440000e-06	2.689366e-06	7.154816e-10	1.869535e+01	4.919854e+01
2.450000e-06	2.729621e-06	7.255136e-10	1.897519e+01	4.985973e+01
2.460000e-06	2.769702e-06	7.341686e-10	1.925382e+01	5.050547e+01
2.470000e-06	2.809614e-06	7.405508e-10	1.953127e+01	5.113592e+01
2.480000e-06	2.849367e-06	7.452714e-10	1.980762e+01	5.175125e+01
2.490000e-06	2.888974e-06	7.503125e-10	2.008295e+01	5.235166e+01
2.500000e-06	2.928480e-06	7.589373e-10	2.035757e+01	5.293732e+01
2.510000e-06	2.967896e-06	7.710160e-10	2.063158e+01	5.350846e+01
2.520000e-06	3.007174e-06	7.841692e-10	2.090463e+01	5.406527e+01
2.530000e-06	3.046190e-06	7.950669e-10	2.117585e+01	5.460800e+01
2.540000e-06	3.084983e-06	8.028477e-10	2.144552e+01	5.513687e+01
2.550000e-06	3.123580e-06	8.078317e-10	2.171383e+01	5.565213e+01
2.560000e-06	3.161877e-06	8.095452e-10	2.198006e+01	5.615403e+01
2.570000e-06	3.199960e-06	8.135689e-10	2.224479e+01	5.664283e+01
2.580000e-06	3.237897e-06	8.228180e-10	2.250851e+01	5.711880e+01
2.590000e-06	3.275625e-06	8.338645e-10	2.277078e+01	5.758221e+01
2.600000e-06	3.313084e-06	8.433951e-10	2.303118e+01	5.803334e+01
2.610000e-06	3.350370e-06	8.494365e-10	2.329038e+01	5.847248e+01
2.620000e-06	3.387473e-06	8.535888e-10	2.354830e+01	5.889993e+01
2.630000e-06	3.424295e-06	8.565623e-10	2.380428e+01	5.931598e+01
2.640000e-06	3.460875e-06	8.609792e-10	2.405857e+01	5.972092e+01
2.650000e-06	3.497211e-06	8.693202e-10	2.431116e+01	6.011508e+01
2.660000e-06	3.533292e-06	8.798096e-10	2.456198e+01	6.049875e+01
2.670000e-06	3.569178e-06	8.882385e-10	2.481145e+01	6.087225e+01
2.680000e-06	3.604906e-06	8.937589e-10	2.505981e+01	6.123588e+01
2.690000e-06	3.640480e-06	8.956633e-10	2.530710e+01	6.158998e+01
2.700000e-06	3.675915e-06	8.953897e-10	2.555343e+01	6.193484e+01
2.710000e-06	3.711157e-06	8.977227e-10	2.579842e+01	6.227078e+01
2.720000e-06	3.746126e-06	9.035562e-10	2.604151e+01	6.259812e+01
2.730000e-06	3.780780e-06	9.114906e-10	2.628241e+01	6.291717e+01
2.740000e-06	3.815051e-06	9.194903e-10	2.652065e+01	6.322822e+01
2.750000e-06	3.848884e-06	9.250617e-10	2.675584e+01	6.353159e+01
2.760000e-06	3.882286e-06	9.275478e-10	2.698804e+01	6.382758e+01
2.770000e-06	3.915272e-06	9.293069e-10	2.721734e+01	6.411646e+01
2.780000e-06	3.947878e-06	9.317599e-10	2.744401e+01	6.439853e+01
2.790000e-06	3.980115e-06	9.349417e-10	2.766811e+01	6.467407e+01
2.800000e-06	4.011978e-06	9.381601e-10	2.788960e+01	6.494333e+01
2.810000e-06	4.043574e-06	9.424539e-10	2.810924e+01	6.520658e+01
2.820000e-06	4.075045e-06	9.468834e-10	2.832802e+01	6.546407e+01
2.830000e-06	4.106416e-06	9.519385e-10	2.854610e+01	6.571601e+01
2.840000e-06	4.137561e-06	9.578715e-10	2.876261e+01	6.596264e+01
2.850000e-06	4.168433e-06	9.621038e-10	2.897721e+01	6.620417e+01
2.860000e-06	4.199040e-06	9.639468e-10	2.918998e+01	6.644077e+01
2.870000e-06	4.229293e-06	9.663547e-10	2.940029e+01	6.667264e+01
2.880000e-06	4.259224e-06	9.688665e-10	2.960836e+01	6.689994e+01
2.890000e-06	4.288872e-06	9.703724e-10	2.981446e+01	6.712281e+01
2.900000e-06	4.318257e-06	9.722739e-10	3.001873e+01	6.734137e+01
