# Temperatura_=_8.53
# Concentracion g/m^3_=_1620.0
# C_Vs_to_Am_M_A/Vsm_=_65563218390.804596
# pendiente_HvsI_1/m_=_3716.3
# ordenada_HvsI_A/m_=_1297.0
# frecuencia_Hz_=_135111.23471298243

Tiempo_(s)	Campo_(V.s)	Magnetizacion_(V.s)	Campo_(kA/m)	Magnetizacion_(A/m)
0.000000e+00	-5.521015e-06	-1.258866e-09	-3.837189e+01	-8.077760e+01
1.000000e-08	-5.521299e-06	-1.255413e-09	-3.837386e+01	-8.075009e+01
2.000000e-08	-5.521229e-06	-1.249231e-09	-3.837337e+01	-8.072177e+01
3.000000e-08	-5.520706e-06	-1.244412e-09	-3.836974e+01	-8.069259e+01
4.000000e-08	-5.519792e-06	-1.242763e-09	-3.836339e+01	-8.066247e+01
5.000000e-08	-5.518309e-06	-1.241825e-09	-3.835308e+01	-8.063131e+01
6.000000e-08	-5.516179e-06	-1.238438e-09	-3.833828e+01	-8.059901e+01
7.000000e-08	-5.513556e-06	-1.234778e-09	-3.832005e+01	-8.056541e+01
8.000000e-08	-5.510451e-06	-1.247860e-09	-3.829846e+01	-8.053037e+01
9.000000e-08	-5.506837e-06	-1.290583e-09	-3.827335e+01	-8.049372e+01
1.000000e-07	-5.502711e-06	-1.282668e-09	-3.824467e+01	-8.045530e+01
1.100000e-07	-5.498234e-06	-1.211622e-09	-3.821355e+01	-8.041490e+01
1.200000e-07	-5.493604e-06	-1.205735e-09	-3.818137e+01	-8.037235e+01
1.300000e-07	-5.488750e-06	-1.265824e-09	-3.814764e+01	-8.032742e+01
1.400000e-07	-5.483513e-06	-1.284627e-09	-3.811125e+01	-8.027993e+01
1.500000e-07	-5.477946e-06	-1.197342e-09	-3.807255e+01	-8.022967e+01
1.600000e-07	-5.472087e-06	-1.172074e-09	-3.803183e+01	-8.017642e+01
1.700000e-07	-5.465813e-06	-1.270273e-09	-3.798823e+01	-8.012000e+01
1.800000e-07	-5.459010e-06	-1.290664e-09	-3.794095e+01	-8.006021e+01
1.900000e-07	-5.451808e-06	-1.256741e-09	-3.789089e+01	-7.999685e+01
2.000000e-07	-5.444401e-06	-1.198444e-09	-3.783941e+01	-7.992975e+01
2.100000e-07	-5.436714e-06	-1.259216e-09	-3.778598e+01	-7.985874e+01
2.200000e-07	-5.428655e-06	-1.252664e-09	-3.772997e+01	-7.978367e+01
2.300000e-07	-5.420314e-06	-1.236694e-09	-3.767200e+01	-7.970439e+01
2.400000e-07	-5.411629e-06	-1.206978e-09	-3.761164e+01	-7.962077e+01
2.500000e-07	-5.402163e-06	-1.242023e-09	-3.754585e+01	-7.953270e+01
2.600000e-07	-5.391809e-06	-1.252640e-09	-3.747389e+01	-7.944008e+01
2.700000e-07	-5.381037e-06	-1.233303e-09	-3.739902e+01	-7.934284e+01
2.800000e-07	-5.369938e-06	-1.200384e-09	-3.732188e+01	-7.924092e+01
2.900000e-07	-5.358365e-06	-1.217496e-09	-3.724145e+01	-7.913426e+01
3.000000e-07	-5.346421e-06	-1.236425e-09	-3.715843e+01	-7.902284e+01
3.100000e-07	-5.334145e-06	-1.205383e-09	-3.707311e+01	-7.890666e+01
3.200000e-07	-5.321359e-06	-1.190959e-09	-3.698425e+01	-7.878570e+01
3.300000e-07	-5.308081e-06	-1.202133e-09	-3.689196e+01	-7.866000e+01
3.400000e-07	-5.294480e-06	-1.235860e-09	-3.679744e+01	-7.852959e+01
3.500000e-07	-5.280447e-06	-1.183480e-09	-3.669990e+01	-7.839452e+01
3.600000e-07	-5.265827e-06	-1.175792e-09	-3.659829e+01	-7.825483e+01
3.700000e-07	-5.250770e-06	-1.195978e-09	-3.649365e+01	-7.811062e+01
3.800000e-07	-5.235309e-06	-1.209892e-09	-3.638619e+01	-7.796194e+01
3.900000e-07	-5.219315e-06	-1.167475e-09	-3.627502e+01	-7.780890e+01
4.000000e-07	-5.202872e-06	-1.207018e-09	-3.616075e+01	-7.765158e+01
4.100000e-07	-5.186091e-06	-1.224841e-09	-3.604411e+01	-7.749007e+01
4.200000e-07	-5.168975e-06	-1.173070e-09	-3.592516e+01	-7.732449e+01
4.300000e-07	-5.151555e-06	-1.144979e-09	-3.580408e+01	-7.715493e+01
4.400000e-07	-5.133933e-06	-1.217440e-09	-3.568161e+01	-7.698149e+01
4.500000e-07	-5.115959e-06	-1.185435e-09	-3.555669e+01	-7.680426e+01
4.600000e-07	-5.097457e-06	-1.125491e-09	-3.542810e+01	-7.662335e+01
4.700000e-07	-5.078530e-06	-1.162098e-09	-3.529655e+01	-7.643884e+01
4.800000e-07	-5.059379e-06	-1.206123e-09	-3.516345e+01	-7.625081e+01
4.900000e-07	-5.040010e-06	-1.130876e-09	-3.502883e+01	-7.605934e+01
5.000000e-07	-5.020408e-06	-1.136351e-09	-3.489260e+01	-7.586450e+01
5.100000e-07	-5.000589e-06	-1.184668e-09	-3.475485e+01	-7.566635e+01
5.200000e-07	-4.980416e-06	-1.138400e-09	-3.461465e+01	-7.546494e+01
5.300000e-07	-4.959786e-06	-1.097287e-09	-3.447126e+01	-7.526029e+01
5.400000e-07	-4.938825e-06	-1.164464e-09	-3.432558e+01	-7.505245e+01
5.500000e-07	-4.917560e-06	-1.149908e-09	-3.417778e+01	-7.484143e+01
5.600000e-07	-4.895932e-06	-1.083627e-09	-3.402747e+01	-7.462722e+01
5.700000e-07	-4.873980e-06	-1.123064e-09	-3.387490e+01	-7.440984e+01
5.800000e-07	-4.851703e-06	-1.154025e-09	-3.372007e+01	-7.418926e+01
5.900000e-07	-4.828969e-06	-1.095643e-09	-3.356206e+01	-7.396545e+01
6.000000e-07	-4.805877e-06	-1.099646e-09	-3.340157e+01	-7.373839e+01
6.100000e-07	-4.782612e-06	-1.145499e-09	-3.323988e+01	-7.350802e+01
6.200000e-07	-4.759093e-06	-1.102528e-09	-3.307641e+01	-7.327431e+01
6.300000e-07	-4.735367e-06	-1.079010e-09	-3.291151e+01	-7.303719e+01
6.400000e-07	-4.711448e-06	-1.108376e-09	-3.274528e+01	-7.279660e+01
6.500000e-07	-4.687188e-06	-1.097243e-09	-3.257666e+01	-7.255248e+01
6.600000e-07	-4.662363e-06	-1.063391e-09	-3.240413e+01	-7.230475e+01
6.700000e-07	-4.637109e-06	-1.090784e-09	-3.222861e+01	-7.205335e+01
6.800000e-07	-4.611421e-06	-1.088141e-09	-3.205007e+01	-7.179821e+01
6.900000e-07	-4.585038e-06	-1.066863e-09	-3.186671e+01	-7.153926e+01
7.000000e-07	-4.558103e-06	-1.073217e-09	-3.167951e+01	-7.127642e+01
7.100000e-07	-4.530838e-06	-1.084002e-09	-3.149001e+01	-7.100964e+01
7.200000e-07	-4.503401e-06	-1.050836e-09	-3.129932e+01	-7.073887e+01
7.300000e-07	-4.475829e-06	-1.048691e-09	-3.110769e+01	-7.046403e+01
7.400000e-07	-4.448058e-06	-1.052074e-09	-3.091468e+01	-7.018510e+01
7.500000e-07	-4.420087e-06	-1.039090e-09	-3.072027e+01	-6.990203e+01
7.600000e-07	-4.391811e-06	-1.028972e-09	-3.052375e+01	-6.961479e+01
7.700000e-07	-4.363160e-06	-1.041011e-09	-3.032462e+01	-6.932337e+01
7.800000e-07	-4.334189e-06	-1.027590e-09	-3.012327e+01	-6.902774e+01
7.900000e-07	-4.304911e-06	-1.020907e-09	-2.991978e+01	-6.872792e+01
8.000000e-07	-4.275353e-06	-1.025739e-09	-2.971435e+01	-6.842390e+01
8.100000e-07	-4.245466e-06	-1.017276e-09	-2.950663e+01	-6.811571e+01
8.200000e-07	-4.215284e-06	-9.972046e-10	-2.929686e+01	-6.780338e+01
8.300000e-07	-4.184798e-06	-9.998641e-10	-2.908498e+01	-6.748694e+01
8.400000e-07	-4.153988e-06	-9.964089e-10	-2.887084e+01	-6.716645e+01
8.500000e-07	-4.122907e-06	-9.799598e-10	-2.865483e+01	-6.684196e+01
8.600000e-07	-4.091544e-06	-9.798669e-10	-2.843685e+01	-6.651353e+01
8.700000e-07	-4.060046e-06	-9.855444e-10	-2.821793e+01	-6.618125e+01
8.800000e-07	-4.028417e-06	-9.747180e-10	-2.799810e+01	-6.584518e+01
8.900000e-07	-3.996586e-06	-9.690786e-10	-2.777688e+01	-6.550541e+01
9.000000e-07	-3.964523e-06	-9.751444e-10	-2.755404e+01	-6.516202e+01
9.100000e-07	-3.932168e-06	-9.604868e-10	-2.732916e+01	-6.481511e+01
9.200000e-07	-3.899401e-06	-9.446715e-10	-2.710143e+01	-6.446476e+01
9.300000e-07	-3.866154e-06	-9.415474e-10	-2.687036e+01	-6.411107e+01
9.400000e-07	-3.832557e-06	-9.364724e-10	-2.663685e+01	-6.375413e+01
9.500000e-07	-3.798549e-06	-9.181427e-10	-2.640049e+01	-6.339402e+01
9.600000e-07	-3.764022e-06	-9.179153e-10	-2.616052e+01	-6.303083e+01
9.700000e-07	-3.729072e-06	-9.182033e-10	-2.591761e+01	-6.266463e+01
9.800000e-07	-3.693847e-06	-9.118825e-10	-2.567280e+01	-6.229550e+01
9.900000e-07	-3.658454e-06	-9.105255e-10	-2.542681e+01	-6.192349e+01
1.000000e-06	-3.622920e-06	-9.187445e-10	-2.517984e+01	-6.154867e+01
1.010000e-06	-3.587233e-06	-9.097241e-10	-2.493181e+01	-6.117108e+01
1.020000e-06	-3.551408e-06	-8.997441e-10	-2.468282e+01	-6.079075e+01
1.030000e-06	-3.515388e-06	-8.929394e-10	-2.443248e+01	-6.040771e+01
1.040000e-06	-3.479133e-06	-8.835460e-10	-2.418050e+01	-6.002198e+01
1.050000e-06	-3.442606e-06	-8.682315e-10	-2.392663e+01	-5.963354e+01
1.060000e-06	-3.405824e-06	-8.654914e-10	-2.367099e+01	-5.924240e+01
1.070000e-06	-3.368803e-06	-8.631231e-10	-2.341369e+01	-5.884852e+01
1.080000e-06	-3.331511e-06	-8.561155e-10	-2.315450e+01	-5.845187e+01
1.090000e-06	-3.293979e-06	-8.501797e-10	-2.289365e+01	-5.805240e+01
1.100000e-06	-3.256188e-06	-8.457749e-10	-2.263100e+01	-5.765005e+01
1.110000e-06	-3.218183e-06	-8.328356e-10	-2.236686e+01	-5.724474e+01
1.120000e-06	-3.179947e-06	-8.224016e-10	-2.210111e+01	-5.683640e+01
1.130000e-06	-3.141460e-06	-8.164286e-10	-2.183362e+01	-5.642493e+01
1.140000e-06	-3.102805e-06	-8.085657e-10	-2.156496e+01	-5.601023e+01
1.150000e-06	-3.063972e-06	-7.997817e-10	-2.129507e+01	-5.559217e+01
1.160000e-06	-3.024955e-06	-7.956995e-10	-2.102389e+01	-5.517066e+01
1.170000e-06	-2.985746e-06	-7.917917e-10	-2.075138e+01	-5.474555e+01
1.180000e-06	-2.946329e-06	-7.839143e-10	-2.047743e+01	-5.431672e+01
1.190000e-06	-2.906806e-06	-7.789323e-10	-2.020274e+01	-5.388403e+01
1.200000e-06	-2.867215e-06	-7.734610e-10	-1.992758e+01	-5.344735e+01
1.210000e-06	-2.827496e-06	-7.635577e-10	-1.965153e+01	-5.300652e+01
1.220000e-06	-2.787559e-06	-7.509919e-10	-1.937396e+01	-5.256141e+01
1.230000e-06	-2.747452e-06	-7.435093e-10	-1.909521e+01	-5.211187e+01
1.240000e-06	-2.707226e-06	-7.327677e-10	-1.881563e+01	-5.165775e+01
1.250000e-06	-2.666757e-06	-7.244106e-10	-1.853436e+01	-5.119892e+01
1.260000e-06	-2.625971e-06	-7.187264e-10	-1.825090e+01	-5.073524e+01
1.270000e-06	-2.584877e-06	-7.170228e-10	-1.796529e+01	-5.026656e+01
1.280000e-06	-2.543431e-06	-7.106813e-10	-1.767723e+01	-4.979274e+01
1.290000e-06	-2.501688e-06	-7.038655e-10	-1.738711e+01	-4.931366e+01
1.300000e-06	-2.459711e-06	-6.955882e-10	-1.709537e+01	-4.882919e+01
1.310000e-06	-2.417493e-06	-6.849101e-10	-1.680194e+01	-4.833918e+01
1.320000e-06	-2.375071e-06	-6.744887e-10	-1.650710e+01	-4.784352e+01
1.330000e-06	-2.332288e-06	-6.673477e-10	-1.620975e+01	-4.734208e+01
1.340000e-06	-2.289223e-06	-6.589083e-10	-1.591045e+01	-4.683475e+01
1.350000e-06	-2.246026e-06	-6.507643e-10	-1.561022e+01	-4.632139e+01
1.360000e-06	-2.202658e-06	-6.419240e-10	-1.530880e+01	-4.580188e+01
1.370000e-06	-2.159178e-06	-6.332737e-10	-1.500661e+01	-4.527610e+01
1.380000e-06	-2.115615e-06	-6.244090e-10	-1.470384e+01	-4.474392e+01
1.390000e-06	-2.072021e-06	-6.166288e-10	-1.440086e+01	-4.420521e+01
1.400000e-06	-2.028325e-06	-6.079209e-10	-1.409717e+01	-4.365983e+01
1.410000e-06	-1.984477e-06	-5.985051e-10	-1.379242e+01	-4.310765e+01
1.420000e-06	-1.940552e-06	-5.914502e-10	-1.348713e+01	-4.254850e+01
1.430000e-06	-1.896547e-06	-5.866948e-10	-1.318129e+01	-4.198222e+01
1.440000e-06	-1.852481e-06	-5.800838e-10	-1.287502e+01	-4.140865e+01
1.450000e-06	-1.808250e-06	-5.702121e-10	-1.256761e+01	-4.082759e+01
1.460000e-06	-1.763845e-06	-5.603030e-10	-1.225899e+01	-4.023884e+01
1.470000e-06	-1.719358e-06	-5.495793e-10	-1.194980e+01	-3.964220e+01
1.480000e-06	-1.674730e-06	-5.396343e-10	-1.163963e+01	-3.903742e+01
1.490000e-06	-1.629971e-06	-5.314508e-10	-1.132854e+01	-3.842425e+01
1.500000e-06	-1.585139e-06	-5.251755e-10	-1.101696e+01	-3.780242e+01
1.510000e-06	-1.540211e-06	-5.163562e-10	-1.070470e+01	-3.717165e+01
1.520000e-06	-1.495106e-06	-5.065043e-10	-1.039122e+01	-3.653162e+01
1.530000e-06	-1.449902e-06	-4.959671e-10	-1.007704e+01	-3.588200e+01
1.540000e-06	-1.404659e-06	-4.849947e-10	-9.762593e+00	-3.522245e+01
1.550000e-06	-1.359281e-06	-4.723112e-10	-9.447211e+00	-3.455259e+01
1.560000e-06	-1.313764e-06	-4.589258e-10	-9.130858e+00	-3.387203e+01
1.570000e-06	-1.268096e-06	-4.479350e-10	-8.813457e+00	-3.318038e+01
1.580000e-06	-1.222307e-06	-4.382721e-10	-8.495218e+00	-3.247719e+01
1.590000e-06	-1.176508e-06	-4.291817e-10	-8.176907e+00	-3.176203e+01
1.600000e-06	-1.130688e-06	-4.214993e-10	-7.858453e+00	-3.103446e+01
1.610000e-06	-1.084778e-06	-4.119814e-10	-7.539369e+00	-3.029400e+01
1.620000e-06	-1.038761e-06	-3.993668e-10	-7.219546e+00	-2.954019e+01
1.630000e-06	-9.926708e-07	-3.837505e-10	-6.899212e+00	-2.877254e+01
1.640000e-06	-9.464949e-07	-3.683310e-10	-6.578283e+00	-2.799059e+01
1.650000e-06	-9.002227e-07	-3.538847e-10	-6.256684e+00	-2.719384e+01
1.660000e-06	-8.538794e-07	-3.408837e-10	-5.934591e+00	-2.638184e+01
1.670000e-06	-8.075336e-07	-3.283835e-10	-5.612480e+00	-2.555412e+01
1.680000e-06	-7.612419e-07	-3.174116e-10	-5.290747e+00	-2.471023e+01
1.690000e-06	-7.148888e-07	-3.061703e-10	-4.968585e+00	-2.384974e+01
1.700000e-06	-6.683492e-07	-2.945530e-10	-4.645128e+00	-2.297224e+01
1.710000e-06	-6.218145e-07	-2.816863e-10	-4.321704e+00	-2.207737e+01
1.720000e-06	-5.752938e-07	-2.663862e-10	-3.998379e+00	-2.116476e+01
1.730000e-06	-5.286423e-07	-2.497790e-10	-3.674144e+00	-2.023411e+01
1.740000e-06	-4.819620e-07	-2.340480e-10	-3.349709e+00	-1.928515e+01
1.750000e-06	-4.352590e-07	-2.186026e-10	-3.025116e+00	-1.831767e+01
1.760000e-06	-3.885222e-07	-2.032902e-10	-2.700288e+00	-1.733149e+01
1.770000e-06	-3.417411e-07	-1.899400e-10	-2.375152e+00	-1.632649e+01
1.780000e-06	-2.948654e-07	-1.774792e-10	-2.049359e+00	-1.530263e+01
1.790000e-06	-2.479717e-07	-1.649912e-10	-1.723441e+00	-1.425991e+01
1.800000e-06	-2.010965e-07	-1.519597e-10	-1.397651e+00	-1.319840e+01
1.810000e-06	-1.542487e-07	-1.369872e-10	-1.072052e+00	-1.211825e+01
1.820000e-06	-1.074575e-07	-1.187954e-10	-7.468455e-01	-1.101968e+01
1.830000e-06	-6.066304e-08	-1.001534e-10	-4.216173e-01	-9.902983e+00
1.840000e-06	-1.381759e-08	-8.203208e-11	-9.603431e-02	-8.768523e+00
1.850000e-06	3.308643e-08	-6.613193e-11	2.299557e-01	-7.616750e+00
1.860000e-06	8.000174e-08	-4.943885e-11	5.560242e-01	-6.448191e+00
1.870000e-06	1.269123e-07	-3.174127e-11	8.820599e-01	-5.263451e+00
1.880000e-06	1.738304e-07	-1.501906e-11	1.208148e+00	-4.063215e+00
1.890000e-06	2.207559e-07	9.731512e-13	1.534287e+00	-2.848245e+00
1.900000e-06	2.676800e-07	1.752723e-11	1.860416e+00	-1.619380e+00
1.910000e-06	3.145587e-07	3.452485e-11	2.186231e+00	-3.775324e-01
1.920000e-06	3.614072e-07	5.298526e-11	2.511835e+00	8.763132e-01
1.930000e-06	4.082250e-07	7.443212e-11	2.837225e+00	2.141104e+00
1.940000e-06	4.549901e-07	9.698787e-11	3.162250e+00	3.415724e+00
1.950000e-06	5.017122e-07	1.177509e-10	3.486976e+00	4.698995e+00
1.960000e-06	5.483444e-07	1.361028e-10	3.811077e+00	5.989687e+00
1.970000e-06	5.948814e-07	1.519240e-10	4.134516e+00	7.286518e+00
1.980000e-06	6.413910e-07	1.669763e-10	4.457764e+00	8.588163e+00
1.990000e-06	6.878516e-07	1.825151e-10	4.780673e+00	9.893259e+00
2.000000e-06	7.341969e-07	1.992176e-10	5.102779e+00	1.120041e+01
2.010000e-06	7.804662e-07	2.175667e-10	5.424358e+00	1.250821e+01
2.020000e-06	8.267482e-07	2.365928e-10	5.746025e+00	1.381522e+01
2.030000e-06	8.729541e-07	2.580677e-10	6.067163e+00	1.511999e+01
2.040000e-06	9.190345e-07	2.812764e-10	6.387429e+00	1.642108e+01
2.050000e-06	9.650683e-07	3.018347e-10	6.707371e+00	1.771705e+01
2.060000e-06	1.011045e-06	3.181622e-10	7.026918e+00	1.900649e+01
2.070000e-06	1.056975e-06	3.324615e-10	7.346133e+00	2.028798e+01
2.080000e-06	1.102852e-06	3.473375e-10	7.664989e+00	2.156015e+01
2.090000e-06	1.148657e-06	3.637134e-10	7.983339e+00	2.282167e+01
2.100000e-06	1.194352e-06	3.819335e-10	8.300923e+00	2.407123e+01
2.110000e-06	1.239988e-06	3.996289e-10	8.618107e+00	2.530760e+01
2.120000e-06	1.285603e-06	4.161938e-10	8.935137e+00	2.652959e+01
2.130000e-06	1.331111e-06	4.327503e-10	9.251419e+00	2.773606e+01
2.140000e-06	1.376509e-06	4.493636e-10	9.566949e+00	2.892598e+01
2.150000e-06	1.421802e-06	4.649359e-10	9.881739e+00	3.009834e+01
2.160000e-06	1.466971e-06	4.794677e-10	1.019567e+01	3.125225e+01
2.170000e-06	1.512054e-06	4.930268e-10	1.050901e+01	3.238689e+01
2.180000e-06	1.557008e-06	5.045315e-10	1.082144e+01	3.350151e+01
2.190000e-06	1.601854e-06	5.166602e-10	1.113313e+01	3.459547e+01
2.200000e-06	1.646640e-06	5.310081e-10	1.144440e+01	3.566821e+01
2.210000e-06	1.691318e-06	5.456569e-10	1.175492e+01	3.671925e+01
2.220000e-06	1.735841e-06	5.591126e-10	1.206436e+01	3.774824e+01
2.230000e-06	1.780186e-06	5.730323e-10	1.237256e+01	3.875487e+01
2.240000e-06	1.824351e-06	5.864409e-10	1.267952e+01	3.973897e+01
2.250000e-06	1.868365e-06	5.984733e-10	1.298542e+01	4.070043e+01
2.260000e-06	1.912237e-06	6.101697e-10	1.329033e+01	4.163924e+01
2.270000e-06	1.955951e-06	6.219275e-10	1.359416e+01	4.255547e+01
2.280000e-06	1.999615e-06	6.339209e-10	1.389762e+01	4.344929e+01
2.290000e-06	2.043307e-06	6.461334e-10	1.420129e+01	4.432092e+01
2.300000e-06	2.086965e-06	6.570910e-10	1.450472e+01	4.517067e+01
2.310000e-06	2.130533e-06	6.665337e-10	1.480753e+01	4.599892e+01
2.320000e-06	2.174042e-06	6.765907e-10	1.510992e+01	4.680612e+01
2.330000e-06	2.217489e-06	6.876541e-10	1.541189e+01	4.759277e+01
2.340000e-06	2.260831e-06	6.975772e-10	1.571312e+01	4.835942e+01
2.350000e-06	2.304084e-06	7.089868e-10	1.601373e+01	4.910667e+01
2.360000e-06	2.347187e-06	7.231531e-10	1.631331e+01	4.983517e+01
2.370000e-06	2.390012e-06	7.367155e-10	1.661095e+01	5.054558e+01
2.380000e-06	2.432527e-06	7.474250e-10	1.690643e+01	5.123860e+01
2.390000e-06	2.474691e-06	7.555150e-10	1.719948e+01	5.191496e+01
2.400000e-06	2.516464e-06	7.630069e-10	1.748981e+01	5.257538e+01
2.410000e-06	2.557854e-06	7.705573e-10	1.777747e+01	5.322060e+01
2.420000e-06	2.598921e-06	7.779939e-10	1.806290e+01	5.385137e+01
2.430000e-06	2.639752e-06	7.869169e-10	1.834668e+01	5.446840e+01
2.440000e-06	2.680373e-06	7.995728e-10	1.862900e+01	5.507242e+01
2.450000e-06	2.720802e-06	8.125892e-10	1.890998e+01	5.566414e+01
2.460000e-06	2.761011e-06	8.235064e-10	1.918944e+01	5.624421e+01
2.470000e-06	2.800984e-06	8.328805e-10	1.946726e+01	5.681330e+01
2.480000e-06	2.840783e-06	8.400985e-10	1.974387e+01	5.737201e+01
2.490000e-06	2.880478e-06	8.444854e-10	2.001976e+01	5.792093e+01
2.500000e-06	2.920069e-06	8.490530e-10	2.029492e+01	5.846059e+01
2.510000e-06	2.959528e-06	8.564506e-10	2.056917e+01	5.899149e+01
2.520000e-06	2.998807e-06	8.662157e-10	2.084216e+01	5.951407e+01
2.530000e-06	3.037908e-06	8.769775e-10	2.111392e+01	6.002873e+01
2.540000e-06	3.076939e-06	8.887647e-10	2.138519e+01	6.053583e+01
2.550000e-06	3.115748e-06	9.000887e-10	2.165492e+01	6.103567e+01
2.560000e-06	3.154187e-06	9.076936e-10	2.192208e+01	6.152851e+01
2.570000e-06	3.192365e-06	9.127608e-10	2.218742e+01	6.201455e+01
2.580000e-06	3.230331e-06	9.175885e-10	2.245129e+01	6.249394e+01
2.590000e-06	3.268151e-06	9.234203e-10	2.271415e+01	6.296680e+01
2.600000e-06	3.305780e-06	9.311717e-10	2.297567e+01	6.343320e+01
2.610000e-06	3.343166e-06	9.389821e-10	2.323551e+01	6.389316e+01
2.620000e-06	3.380339e-06	9.460848e-10	2.349387e+01	6.434667e+01
2.630000e-06	3.417212e-06	9.535240e-10	2.375014e+01	6.479367e+01
2.640000e-06	3.453784e-06	9.619027e-10	2.400432e+01	6.523410e+01
2.650000e-06	3.490130e-06	9.707976e-10	2.425693e+01	6.566783e+01
2.660000e-06	3.526227e-06	9.793685e-10	2.450781e+01	6.609473e+01
2.670000e-06	3.562069e-06	9.852603e-10	2.475692e+01	6.651465e+01
2.680000e-06	3.597731e-06	9.892035e-10	2.500477e+01	6.692743e+01
2.690000e-06	3.633341e-06	9.906715e-10	2.525227e+01	6.733288e+01
2.700000e-06	3.668950e-06	9.913210e-10	2.549976e+01	6.773081e+01
2.710000e-06	3.704401e-06	9.960019e-10	2.574614e+01	6.812103e+01
2.720000e-06	3.739586e-06	1.003056e-09	2.599069e+01	6.850336e+01
2.730000e-06	3.774425e-06	1.011216e-09	2.623282e+01	6.887762e+01
2.740000e-06	3.808827e-06	1.018282e-09	2.647192e+01	6.924363e+01
2.750000e-06	3.842815e-06	1.022306e-09	2.670815e+01	6.960124e+01
2.760000e-06	3.876361e-06	1.024690e-09	2.694129e+01	6.995032e+01
2.770000e-06	3.909354e-06	1.027838e-09	2.717060e+01	7.029073e+01
2.780000e-06	3.941869e-06	1.031963e-09	2.739658e+01	7.062239e+01
2.790000e-06	3.974016e-06	1.036650e-09	2.762001e+01	7.094523e+01
2.800000e-06	4.005874e-06	1.039822e-09	2.784143e+01	7.125920e+01
2.810000e-06	4.037598e-06	1.042123e-09	2.806191e+01	7.156430e+01
2.820000e-06	4.069243e-06	1.044735e-09	2.828186e+01	7.186056e+01
2.830000e-06	4.100729e-06	1.046636e-09	2.850069e+01	7.214801e+01
2.840000e-06	4.131954e-06	1.048535e-09	2.871770e+01	7.242674e+01
2.850000e-06	4.162861e-06	1.050325e-09	2.893252e+01	7.269688e+01
2.860000e-06	4.193487e-06	1.052887e-09	2.914537e+01	7.295857e+01
2.870000e-06	4.223850e-06	1.057684e-09	2.935640e+01	7.321200e+01
2.880000e-06	4.253851e-06	1.061978e-09	2.956490e+01	7.345737e+01
2.890000e-06	4.283490e-06	1.063472e-09	2.977090e+01	7.369492e+01
2.900000e-06	4.312907e-06	1.062675e-09	2.997536e+01	7.392492e+01
2.910000e-06	4.342128e-06	1.063956e-09	3.017844e+01	7.414766e+01
