# Temperatura_=_-2.6
# Concentracion g/m^3_=_1620.0
# C_Vs_to_Am_M_A/Vsm_=_65563218390.804596
# pendiente_HvsI_1/m_=_3716.3
# ordenada_HvsI_A/m_=_1297.0
# frecuencia_Hz_=_135100.92419365165

Tiempo_(s)	Campo_(V.s)	Magnetizacion_(V.s)	Campo_(kA/m)	Magnetizacion_(A/m)
0.000000e+00	-5.512241e-06	-1.035294e-09	-3.836982e+01	-6.828326e+01
1.000000e-08	-5.512600e-06	-1.034094e-09	-3.837233e+01	-6.825898e+01
2.000000e-08	-5.512639e-06	-1.033064e-09	-3.837260e+01	-6.823243e+01
3.000000e-08	-5.512344e-06	-1.033362e-09	-3.837055e+01	-6.820332e+01
4.000000e-08	-5.511575e-06	-1.034102e-09	-3.836519e+01	-6.817137e+01
5.000000e-08	-5.510213e-06	-1.034907e-09	-3.835571e+01	-6.813634e+01
6.000000e-08	-5.508392e-06	-1.033648e-09	-3.834304e+01	-6.809795e+01
7.000000e-08	-5.506014e-06	-1.028075e-09	-3.832648e+01	-6.805596e+01
8.000000e-08	-5.503058e-06	-1.035069e-09	-3.830590e+01	-6.801013e+01
9.000000e-08	-5.499613e-06	-1.048709e-09	-3.828192e+01	-6.796025e+01
1.000000e-07	-5.495705e-06	-1.054609e-09	-3.825472e+01	-6.790612e+01
1.100000e-07	-5.491429e-06	-1.054866e-09	-3.822496e+01	-6.784755e+01
1.200000e-07	-5.486923e-06	-1.032658e-09	-3.819359e+01	-6.778439e+01
1.300000e-07	-5.482284e-06	-1.027056e-09	-3.816130e+01	-6.771649e+01
1.400000e-07	-5.477402e-06	-1.046668e-09	-3.812732e+01	-6.764375e+01
1.500000e-07	-5.472093e-06	-1.035997e-09	-3.809036e+01	-6.756609e+01
1.600000e-07	-5.466362e-06	-1.028965e-09	-3.805047e+01	-6.748343e+01
1.700000e-07	-5.460280e-06	-1.019549e-09	-3.800813e+01	-6.739576e+01
1.800000e-07	-5.453751e-06	-1.069781e-09	-3.796269e+01	-6.730307e+01
1.900000e-07	-5.446723e-06	-1.060979e-09	-3.791376e+01	-6.720538e+01
2.000000e-07	-5.439329e-06	-1.033261e-09	-3.786230e+01	-6.710274e+01
2.100000e-07	-5.431782e-06	-1.005988e-09	-3.780977e+01	-6.699523e+01
2.200000e-07	-5.424049e-06	-1.051951e-09	-3.775594e+01	-6.688297e+01
2.300000e-07	-5.415951e-06	-1.066569e-09	-3.769957e+01	-6.676606e+01
2.400000e-07	-5.407483e-06	-1.049338e-09	-3.764063e+01	-6.664468e+01
2.500000e-07	-5.398475e-06	-1.024600e-09	-3.757792e+01	-6.651900e+01
2.600000e-07	-5.388679e-06	-1.029364e-09	-3.750973e+01	-6.638920e+01
2.700000e-07	-5.378139e-06	-1.019670e-09	-3.743636e+01	-6.625551e+01
2.800000e-07	-5.367029e-06	-9.822504e-10	-3.735903e+01	-6.611816e+01
2.900000e-07	-5.355547e-06	-9.767222e-10	-3.727910e+01	-6.597740e+01
3.000000e-07	-5.343800e-06	-9.843794e-10	-3.719733e+01	-6.583347e+01
3.100000e-07	-5.331734e-06	-9.883730e-10	-3.711334e+01	-6.568665e+01
3.200000e-07	-5.319239e-06	-9.611726e-10	-3.702637e+01	-6.553721e+01
3.300000e-07	-5.306277e-06	-9.824559e-10	-3.693615e+01	-6.538543e+01
3.400000e-07	-5.292956e-06	-9.836255e-10	-3.684342e+01	-6.523159e+01
3.500000e-07	-5.279249e-06	-9.712410e-10	-3.674801e+01	-6.507596e+01
3.600000e-07	-5.265073e-06	-9.398292e-10	-3.664933e+01	-6.491882e+01
3.700000e-07	-5.250456e-06	-9.596651e-10	-3.654758e+01	-6.476045e+01
3.800000e-07	-5.235391e-06	-9.603207e-10	-3.644272e+01	-6.460109e+01
3.900000e-07	-5.219754e-06	-9.664291e-10	-3.633387e+01	-6.444101e+01
4.000000e-07	-5.203574e-06	-9.567867e-10	-3.622124e+01	-6.428044e+01
4.100000e-07	-5.187034e-06	-9.616852e-10	-3.610611e+01	-6.411960e+01
4.200000e-07	-5.170211e-06	-9.484862e-10	-3.598901e+01	-6.395870e+01
4.300000e-07	-5.153014e-06	-9.497947e-10	-3.586930e+01	-6.379793e+01
4.400000e-07	-5.135469e-06	-9.423128e-10	-3.574718e+01	-6.363747e+01
4.500000e-07	-5.117589e-06	-9.446601e-10	-3.562272e+01	-6.347745e+01
4.600000e-07	-5.099246e-06	-9.407387e-10	-3.549503e+01	-6.331802e+01
4.700000e-07	-5.080440e-06	-9.386370e-10	-3.536413e+01	-6.315927e+01
4.800000e-07	-5.061375e-06	-9.311206e-10	-3.523142e+01	-6.300130e+01
4.900000e-07	-5.042106e-06	-9.404729e-10	-3.509729e+01	-6.284417e+01
5.000000e-07	-5.022579e-06	-9.454270e-10	-3.496137e+01	-6.268791e+01
5.100000e-07	-5.002852e-06	-9.326634e-10	-3.482405e+01	-6.253255e+01
5.200000e-07	-4.982862e-06	-9.158256e-10	-3.468491e+01	-6.237808e+01
5.300000e-07	-4.962521e-06	-9.166440e-10	-3.454332e+01	-6.222447e+01
5.400000e-07	-4.941797e-06	-9.199425e-10	-3.439905e+01	-6.207169e+01
5.500000e-07	-4.920719e-06	-9.152721e-10	-3.425234e+01	-6.191966e+01
5.600000e-07	-4.899258e-06	-9.152847e-10	-3.410295e+01	-6.176832e+01
5.700000e-07	-4.877475e-06	-9.126530e-10	-3.395132e+01	-6.161755e+01
5.800000e-07	-4.855399e-06	-9.113782e-10	-3.379765e+01	-6.146725e+01
5.900000e-07	-4.832955e-06	-9.078621e-10	-3.364142e+01	-6.131729e+01
6.000000e-07	-4.810147e-06	-9.106180e-10	-3.348266e+01	-6.116753e+01
6.100000e-07	-4.787022e-06	-9.037357e-10	-3.332169e+01	-6.101782e+01
6.200000e-07	-4.763625e-06	-9.037631e-10	-3.315883e+01	-6.086801e+01
6.300000e-07	-4.740019e-06	-9.003261e-10	-3.299451e+01	-6.071792e+01
6.400000e-07	-4.716243e-06	-9.039334e-10	-3.282901e+01	-6.056740e+01
6.500000e-07	-4.692101e-06	-8.984154e-10	-3.266096e+01	-6.041627e+01
6.600000e-07	-4.667496e-06	-8.998753e-10	-3.248969e+01	-6.026436e+01
6.700000e-07	-4.642406e-06	-8.952645e-10	-3.231505e+01	-6.011149e+01
6.800000e-07	-4.616874e-06	-8.914676e-10	-3.213732e+01	-5.995749e+01
6.900000e-07	-4.590892e-06	-8.826648e-10	-3.195646e+01	-5.980220e+01
7.000000e-07	-4.564315e-06	-8.891047e-10	-3.177146e+01	-5.964545e+01
7.100000e-07	-4.537254e-06	-8.860792e-10	-3.158310e+01	-5.948707e+01
7.200000e-07	-4.509909e-06	-8.793526e-10	-3.139276e+01	-5.932692e+01
7.300000e-07	-4.482348e-06	-8.748981e-10	-3.120091e+01	-5.916485e+01
7.400000e-07	-4.454622e-06	-8.812684e-10	-3.100791e+01	-5.900072e+01
7.500000e-07	-4.426703e-06	-8.726615e-10	-3.081357e+01	-5.883441e+01
7.600000e-07	-4.398517e-06	-8.675141e-10	-3.061737e+01	-5.866579e+01
7.700000e-07	-4.370045e-06	-8.686051e-10	-3.041918e+01	-5.849476e+01
7.800000e-07	-4.341216e-06	-8.623099e-10	-3.021851e+01	-5.832120e+01
7.900000e-07	-4.312108e-06	-8.527637e-10	-3.001589e+01	-5.814504e+01
8.000000e-07	-4.282801e-06	-8.553635e-10	-2.981189e+01	-5.796618e+01
8.100000e-07	-4.253207e-06	-8.512883e-10	-2.960589e+01	-5.778455e+01
8.200000e-07	-4.223230e-06	-8.381829e-10	-2.939723e+01	-5.760008e+01
8.300000e-07	-4.192890e-06	-8.362028e-10	-2.918604e+01	-5.741272e+01
8.400000e-07	-4.162306e-06	-8.353539e-10	-2.897315e+01	-5.722241e+01
8.500000e-07	-4.131465e-06	-8.281015e-10	-2.875847e+01	-5.702910e+01
8.600000e-07	-4.100360e-06	-8.257772e-10	-2.854195e+01	-5.683276e+01
8.700000e-07	-4.069072e-06	-8.313611e-10	-2.832416e+01	-5.663335e+01
8.800000e-07	-4.037625e-06	-8.273873e-10	-2.810526e+01	-5.643084e+01
8.900000e-07	-4.005973e-06	-8.241868e-10	-2.788493e+01	-5.622519e+01
9.000000e-07	-3.974053e-06	-8.210195e-10	-2.766275e+01	-5.601638e+01
9.100000e-07	-3.941818e-06	-8.124629e-10	-2.743836e+01	-5.580438e+01
9.200000e-07	-3.909243e-06	-7.992027e-10	-2.721161e+01	-5.558916e+01
9.300000e-07	-3.876307e-06	-7.985568e-10	-2.698236e+01	-5.537070e+01
9.400000e-07	-3.842932e-06	-7.969772e-10	-2.675003e+01	-5.514896e+01
9.500000e-07	-3.809085e-06	-7.943811e-10	-2.651443e+01	-5.492391e+01
9.600000e-07	-3.774743e-06	-7.945571e-10	-2.627538e+01	-5.469551e+01
9.700000e-07	-3.739949e-06	-7.961041e-10	-2.603319e+01	-5.446373e+01
9.800000e-07	-3.704845e-06	-7.857100e-10	-2.578883e+01	-5.422852e+01
9.900000e-07	-3.669528e-06	-7.809683e-10	-2.554299e+01	-5.398984e+01
1.000000e-06	-3.634032e-06	-7.791359e-10	-2.529591e+01	-5.374764e+01
1.010000e-06	-3.598396e-06	-7.754433e-10	-2.504786e+01	-5.350185e+01
1.020000e-06	-3.562619e-06	-7.721693e-10	-2.479882e+01	-5.325242e+01
1.030000e-06	-3.526701e-06	-7.747192e-10	-2.454880e+01	-5.299929e+01
1.040000e-06	-3.490641e-06	-7.717406e-10	-2.429779e+01	-5.274238e+01
1.050000e-06	-3.454362e-06	-7.681015e-10	-2.404526e+01	-5.248163e+01
1.060000e-06	-3.417796e-06	-7.659705e-10	-2.379073e+01	-5.221695e+01
1.070000e-06	-3.380927e-06	-7.608829e-10	-2.353409e+01	-5.194828e+01
1.080000e-06	-3.343802e-06	-7.501693e-10	-2.327567e+01	-5.167553e+01
1.090000e-06	-3.306449e-06	-7.452571e-10	-2.301566e+01	-5.139862e+01
1.100000e-06	-3.268823e-06	-7.430395e-10	-2.275376e+01	-5.111747e+01
1.110000e-06	-3.230944e-06	-7.354748e-10	-2.249008e+01	-5.083200e+01
1.120000e-06	-3.192781e-06	-7.307956e-10	-2.222444e+01	-5.054212e+01
1.130000e-06	-3.154367e-06	-7.288911e-10	-2.195704e+01	-5.024776e+01
1.140000e-06	-3.115860e-06	-7.228425e-10	-2.168901e+01	-4.994884e+01
1.150000e-06	-3.077166e-06	-7.149000e-10	-2.141966e+01	-4.964529e+01
1.160000e-06	-3.038234e-06	-7.120189e-10	-2.114866e+01	-4.933702e+01
1.170000e-06	-2.999125e-06	-7.087355e-10	-2.087643e+01	-4.902399e+01
1.180000e-06	-2.959818e-06	-7.027855e-10	-2.060282e+01	-4.870612e+01
1.190000e-06	-2.920370e-06	-6.989346e-10	-2.032823e+01	-4.838335e+01
1.200000e-06	-2.880802e-06	-6.957302e-10	-2.005280e+01	-4.805564e+01
1.210000e-06	-2.841092e-06	-6.875055e-10	-1.977639e+01	-4.772294e+01
1.220000e-06	-2.801204e-06	-6.807197e-10	-1.949874e+01	-4.738519e+01
1.230000e-06	-2.761227e-06	-6.742056e-10	-1.922046e+01	-4.704237e+01
1.240000e-06	-2.721159e-06	-6.674024e-10	-1.894155e+01	-4.669444e+01
1.250000e-06	-2.680823e-06	-6.601608e-10	-1.866078e+01	-4.634137e+01
1.260000e-06	-2.640342e-06	-6.595501e-10	-1.837900e+01	-4.598314e+01
1.270000e-06	-2.599701e-06	-6.571038e-10	-1.809610e+01	-4.561971e+01
1.280000e-06	-2.558641e-06	-6.518699e-10	-1.781029e+01	-4.525108e+01
1.290000e-06	-2.517246e-06	-6.466202e-10	-1.752214e+01	-4.487721e+01
1.300000e-06	-2.475629e-06	-6.406375e-10	-1.723246e+01	-4.449809e+01
1.310000e-06	-2.433666e-06	-6.316216e-10	-1.694036e+01	-4.411369e+01
1.320000e-06	-2.391290e-06	-6.249502e-10	-1.664539e+01	-4.372398e+01
1.330000e-06	-2.348597e-06	-6.184511e-10	-1.634821e+01	-4.332893e+01
1.340000e-06	-2.305698e-06	-6.117223e-10	-1.604959e+01	-4.292851e+01
1.350000e-06	-2.262599e-06	-6.073309e-10	-1.574959e+01	-4.252265e+01
1.360000e-06	-2.219298e-06	-6.049348e-10	-1.544818e+01	-4.211131e+01
1.370000e-06	-2.175837e-06	-6.006056e-10	-1.514565e+01	-4.169442e+01
1.380000e-06	-2.132290e-06	-5.945831e-10	-1.484253e+01	-4.127189e+01
1.390000e-06	-2.088698e-06	-5.862402e-10	-1.453909e+01	-4.084362e+01
1.400000e-06	-2.045036e-06	-5.756663e-10	-1.423517e+01	-4.040950e+01
1.410000e-06	-2.001303e-06	-5.665275e-10	-1.393075e+01	-3.996940e+01
1.420000e-06	-1.957537e-06	-5.597686e-10	-1.362610e+01	-3.952316e+01
1.430000e-06	-1.913698e-06	-5.527665e-10	-1.332094e+01	-3.907061e+01
1.440000e-06	-1.869757e-06	-5.456755e-10	-1.301508e+01	-3.861156e+01
1.450000e-06	-1.825683e-06	-5.405557e-10	-1.270829e+01	-3.814577e+01
1.460000e-06	-1.781494e-06	-5.343194e-10	-1.240070e+01	-3.767303e+01
1.470000e-06	-1.737261e-06	-5.264330e-10	-1.209280e+01	-3.719304e+01
1.480000e-06	-1.692875e-06	-5.169133e-10	-1.178383e+01	-3.670554e+01
1.490000e-06	-1.648240e-06	-5.054779e-10	-1.147313e+01	-3.621019e+01
1.500000e-06	-1.603460e-06	-4.959251e-10	-1.116143e+01	-3.570667e+01
1.510000e-06	-1.558588e-06	-4.881344e-10	-1.084908e+01	-3.519462e+01
1.520000e-06	-1.513641e-06	-4.826881e-10	-1.053621e+01	-3.467364e+01
1.530000e-06	-1.468590e-06	-4.803842e-10	-1.022262e+01	-3.414334e+01
1.540000e-06	-1.423389e-06	-4.767733e-10	-9.907983e+00	-3.360329e+01
1.550000e-06	-1.378095e-06	-4.712444e-10	-9.592700e+00	-3.305305e+01
1.560000e-06	-1.332704e-06	-4.602108e-10	-9.276740e+00	-3.249217e+01
1.570000e-06	-1.287250e-06	-4.485945e-10	-8.960339e+00	-3.192017e+01
1.580000e-06	-1.241715e-06	-4.379850e-10	-8.643381e+00	-3.133659e+01
1.590000e-06	-1.196082e-06	-4.282204e-10	-8.325735e+00	-3.074093e+01
1.600000e-06	-1.150380e-06	-4.197328e-10	-8.007610e+00	-3.013270e+01
1.610000e-06	-1.104548e-06	-4.138150e-10	-7.688584e+00	-2.951142e+01
1.620000e-06	-1.058643e-06	-4.059683e-10	-7.369046e+00	-2.887659e+01
1.630000e-06	-1.012671e-06	-3.938226e-10	-7.049038e+00	-2.822775e+01
1.640000e-06	-9.666271e-07	-3.796101e-10	-6.728536e+00	-2.756442e+01
1.650000e-06	-9.205417e-07	-3.669062e-10	-6.407743e+00	-2.688616e+01
1.660000e-06	-8.743064e-07	-3.543592e-10	-6.085907e+00	-2.619252e+01
1.670000e-06	-8.280107e-07	-3.412347e-10	-5.763650e+00	-2.548311e+01
1.680000e-06	-7.816973e-07	-3.305343e-10	-5.441270e+00	-2.475754e+01
1.690000e-06	-7.353594e-07	-3.226548e-10	-5.118719e+00	-2.401546e+01
1.700000e-06	-6.889062e-07	-3.128535e-10	-4.795366e+00	-2.325657e+01
1.710000e-06	-6.424182e-07	-3.005750e-10	-4.471770e+00	-2.248059e+01
1.720000e-06	-5.960416e-07	-2.852217e-10	-4.148950e+00	-2.168729e+01
1.730000e-06	-5.496112e-07	-2.696560e-10	-3.825755e+00	-2.087650e+01
1.740000e-06	-5.030939e-07	-2.559841e-10	-3.501956e+00	-2.004808e+01
1.750000e-06	-4.564313e-07	-2.425738e-10	-3.177145e+00	-1.920196e+01
1.760000e-06	-4.096424e-07	-2.295158e-10	-2.851455e+00	-1.833812e+01
1.770000e-06	-3.628528e-07	-2.172885e-10	-2.525760e+00	-1.745660e+01
1.780000e-06	-3.160350e-07	-2.055742e-10	-2.199869e+00	-1.655751e+01
1.790000e-06	-2.692022e-07	-1.919961e-10	-1.873874e+00	-1.564100e+01
1.800000e-06	-2.224067e-07	-1.791287e-10	-1.548137e+00	-1.470731e+01
1.810000e-06	-1.755954e-07	-1.651673e-10	-1.222292e+00	-1.375673e+01
1.820000e-06	-1.287617e-07	-1.500337e-10	-8.962897e-01	-1.278961e+01
1.830000e-06	-8.197074e-08	-1.356850e-10	-5.705852e-01	-1.180638e+01
1.840000e-06	-3.521603e-08	-1.212738e-10	-2.451332e-01	-1.080752e+01
1.850000e-06	1.156458e-08	-1.061216e-10	8.049919e-02	-9.793599e+00
1.860000e-06	5.834687e-08	-9.409504e-11	4.061432e-01	-8.765211e+00
1.870000e-06	1.051099e-07	-8.156101e-11	7.316534e-01	-7.723035e+00
1.880000e-06	1.518414e-07	-6.575106e-11	1.056944e+00	-6.667801e+00
1.890000e-06	1.986316e-07	-4.850075e-11	1.382643e+00	-5.600290e+00
1.900000e-06	2.453938e-07	-3.348803e-11	1.708147e+00	-4.521340e+00
1.910000e-06	2.919863e-07	-2.049294e-11	2.032470e+00	-3.431834e+00
1.920000e-06	3.386399e-07	-7.564088e-12	2.357218e+00	-2.332696e+00
1.930000e-06	3.853653e-07	7.618519e-12	2.682466e+00	-1.224893e+00
1.940000e-06	4.320678e-07	2.408730e-11	3.007555e+00	-1.094250e-01
1.950000e-06	4.787530e-07	4.118019e-11	3.332523e+00	1.012679e+00
1.960000e-06	5.253181e-07	5.664202e-11	3.656655e+00	2.140363e+00
1.970000e-06	5.717766e-07	7.021697e-11	3.980045e+00	3.272556e+00
1.980000e-06	6.181649e-07	8.419334e-11	4.302947e+00	4.408170e+00
1.990000e-06	6.646216e-07	9.828316e-11	4.626325e+00	5.546110e+00
2.000000e-06	7.111591e-07	1.118207e-10	4.950264e+00	6.685277e+00
2.010000e-06	7.575353e-07	1.283741e-10	5.273082e+00	7.824577e+00
2.020000e-06	8.037177e-07	1.453278e-10	5.594550e+00	8.962922e+00
2.030000e-06	8.498688e-07	1.620870e-10	5.915800e+00	1.009924e+01
2.040000e-06	8.959445e-07	1.816927e-10	6.236526e+00	1.123248e+01
2.050000e-06	9.418450e-07	2.000197e-10	6.556032e+00	1.236160e+01
2.060000e-06	9.877050e-07	2.157417e-10	6.875256e+00	1.348561e+01
2.070000e-06	1.033565e-06	2.293302e-10	7.194484e+00	1.460354e+01
2.080000e-06	1.079349e-06	2.432636e-10	7.513176e+00	1.571446e+01
2.090000e-06	1.125098e-06	2.577768e-10	7.831626e+00	1.681748e+01
2.100000e-06	1.170790e-06	2.749759e-10	8.149682e+00	1.791176e+01
2.110000e-06	1.216341e-06	2.924329e-10	8.466752e+00	1.899650e+01
2.120000e-06	1.261809e-06	3.093205e-10	8.783252e+00	2.007096e+01
2.130000e-06	1.307225e-06	3.225393e-10	9.099386e+00	2.113445e+01
2.140000e-06	1.352582e-06	3.331798e-10	9.415106e+00	2.218632e+01
2.150000e-06	1.397919e-06	3.454714e-10	9.730691e+00	2.322601e+01
2.160000e-06	1.443072e-06	3.584562e-10	1.004500e+01	2.425299e+01
2.170000e-06	1.488015e-06	3.711659e-10	1.035784e+01	2.526679e+01
2.180000e-06	1.532919e-06	3.853376e-10	1.067041e+01	2.626701e+01
2.190000e-06	1.577713e-06	4.008204e-10	1.098220e+01	2.725330e+01
2.200000e-06	1.622342e-06	4.172097e-10	1.129286e+01	2.822536e+01
2.210000e-06	1.666859e-06	4.322896e-10	1.160274e+01	2.918297e+01
2.220000e-06	1.711286e-06	4.444801e-10	1.191199e+01	3.012593e+01
2.230000e-06	1.755600e-06	4.546260e-10	1.222045e+01	3.105410e+01
2.240000e-06	1.799776e-06	4.656052e-10	1.252795e+01	3.196741e+01
2.250000e-06	1.843818e-06	4.795999e-10	1.283452e+01	3.286582e+01
2.260000e-06	1.887769e-06	4.975920e-10	1.314046e+01	3.374933e+01
2.270000e-06	1.931604e-06	5.149728e-10	1.344558e+01	3.461798e+01
2.280000e-06	1.975323e-06	5.285790e-10	1.374990e+01	3.547186e+01
2.290000e-06	2.018983e-06	5.374936e-10	1.405382e+01	3.631107e+01
2.300000e-06	2.062635e-06	5.451670e-10	1.435767e+01	3.713575e+01
2.310000e-06	2.106267e-06	5.525154e-10	1.466138e+01	3.794607e+01
2.320000e-06	2.149804e-06	5.611776e-10	1.496444e+01	3.874222e+01
2.330000e-06	2.193228e-06	5.751037e-10	1.526671e+01	3.952440e+01
2.340000e-06	2.236554e-06	5.903638e-10	1.556829e+01	4.029283e+01
2.350000e-06	2.279765e-06	6.044556e-10	1.586908e+01	4.104772e+01
2.360000e-06	2.322707e-06	6.154722e-10	1.616799e+01	4.178931e+01
2.370000e-06	2.365437e-06	6.242799e-10	1.646543e+01	4.251784e+01
2.380000e-06	2.408041e-06	6.296459e-10	1.676199e+01	4.323352e+01
2.390000e-06	2.450278e-06	6.371577e-10	1.705600e+01	4.393660e+01
2.400000e-06	2.492010e-06	6.464692e-10	1.734648e+01	4.462729e+01
2.410000e-06	2.533348e-06	6.558592e-10	1.763423e+01	4.530580e+01
2.420000e-06	2.574397e-06	6.659756e-10	1.791997e+01	4.597232e+01
2.430000e-06	2.615266e-06	6.762101e-10	1.820444e+01	4.662705e+01
2.440000e-06	2.655943e-06	6.848943e-10	1.848759e+01	4.727015e+01
2.450000e-06	2.696358e-06	6.924641e-10	1.876891e+01	4.790176e+01
2.460000e-06	2.736520e-06	7.018359e-10	1.904848e+01	4.852204e+01
2.470000e-06	2.776450e-06	7.118714e-10	1.932642e+01	4.913108e+01
2.480000e-06	2.816218e-06	7.190829e-10	1.960324e+01	4.972899e+01
2.490000e-06	2.855915e-06	7.236016e-10	1.987957e+01	5.031585e+01
2.500000e-06	2.895519e-06	7.277756e-10	2.015524e+01	5.089171e+01
2.510000e-06	2.935042e-06	7.347997e-10	2.043036e+01	5.145662e+01
2.520000e-06	2.974462e-06	7.439327e-10	2.070475e+01	5.201060e+01
2.530000e-06	3.013671e-06	7.543343e-10	2.097768e+01	5.255367e+01
2.540000e-06	3.052697e-06	7.654734e-10	2.124934e+01	5.308582e+01
2.550000e-06	3.091515e-06	7.751550e-10	2.151954e+01	5.360704e+01
2.560000e-06	3.130003e-06	7.797307e-10	2.178745e+01	5.411731e+01
2.570000e-06	3.168170e-06	7.811687e-10	2.205313e+01	5.461658e+01
2.580000e-06	3.206153e-06	7.849756e-10	2.231751e+01	5.510483e+01
2.590000e-06	3.243971e-06	7.916102e-10	2.258077e+01	5.558201e+01
2.600000e-06	3.281597e-06	7.997474e-10	2.284267e+01	5.604808e+01
2.610000e-06	3.318995e-06	8.075716e-10	2.310299e+01	5.650300e+01
2.620000e-06	3.356170e-06	8.144543e-10	2.336176e+01	5.694674e+01
2.630000e-06	3.393138e-06	8.205193e-10	2.361909e+01	5.737925e+01
2.640000e-06	3.429791e-06	8.247270e-10	2.387423e+01	5.780052e+01
2.650000e-06	3.466189e-06	8.275862e-10	2.412759e+01	5.821054e+01
2.660000e-06	3.502364e-06	8.333989e-10	2.437939e+01	5.860931e+01
2.670000e-06	3.538317e-06	8.396955e-10	2.462966e+01	5.899685e+01
2.680000e-06	3.574141e-06	8.454424e-10	2.487902e+01	5.937318e+01
2.690000e-06	3.609810e-06	8.508020e-10	2.512731e+01	5.973835e+01
2.700000e-06	3.645347e-06	8.548937e-10	2.537468e+01	6.009244e+01
2.710000e-06	3.680754e-06	8.596988e-10	2.562114e+01	6.043553e+01
2.720000e-06	3.716061e-06	8.666431e-10	2.586691e+01	6.076773e+01
2.730000e-06	3.751081e-06	8.727466e-10	2.611068e+01	6.108917e+01
2.740000e-06	3.785663e-06	8.770359e-10	2.635139e+01	6.140000e+01
2.750000e-06	3.819890e-06	8.794751e-10	2.658964e+01	6.170040e+01
2.760000e-06	3.853625e-06	8.810906e-10	2.682447e+01	6.199055e+01
2.770000e-06	3.886788e-06	8.829987e-10	2.705531e+01	6.227067e+01
2.780000e-06	3.919500e-06	8.863585e-10	2.728301e+01	6.254099e+01
2.790000e-06	3.951863e-06	8.919162e-10	2.750828e+01	6.280176e+01
2.800000e-06	3.983941e-06	8.976027e-10	2.773158e+01	6.305326e+01
2.810000e-06	4.015784e-06	9.013177e-10	2.795323e+01	6.329576e+01
2.820000e-06	4.047466e-06	9.030423e-10	2.817376e+01	6.352955e+01
2.830000e-06	4.079026e-06	9.052484e-10	2.839345e+01	6.375495e+01
2.840000e-06	4.110362e-06	9.093232e-10	2.861157e+01	6.397228e+01
2.850000e-06	4.141411e-06	9.140323e-10	2.882770e+01	6.418185e+01
2.860000e-06	4.172261e-06	9.182841e-10	2.904244e+01	6.438400e+01
2.870000e-06	4.202842e-06	9.215464e-10	2.925531e+01	6.457905e+01
2.880000e-06	4.233033e-06	9.235569e-10	2.946546e+01	6.476733e+01
2.890000e-06	4.262825e-06	9.238912e-10	2.967284e+01	6.494918e+01
2.900000e-06	4.292355e-06	9.243760e-10	2.987839e+01	6.512491e+01
