# Temperatura_=_-0.3
# Concentracion g/m^3_=_1620.0
# C_Vs_to_Am_M_A/Vsm_=_65563218390.804596
# pendiente_HvsI_1/m_=_3716.3
# ordenada_HvsI_A/m_=_1297.0
# frecuencia_Hz_=_135106.2096840472

Tiempo_(s)	Campo_(V.s)	Magnetizacion_(V.s)	Campo_(kA/m)	Magnetizacion_(A/m)
0.000000e+00	-5.515102e-06	-1.461035e-09	-3.837247e+01	-9.434687e+01
1.000000e-08	-5.515247e-06	-1.457937e-09	-3.837348e+01	-9.431254e+01
2.000000e-08	-5.515179e-06	-1.457314e-09	-3.837300e+01	-9.427582e+01
3.000000e-08	-5.514728e-06	-1.459142e-09	-3.836986e+01	-9.423661e+01
4.000000e-08	-5.513707e-06	-1.460261e-09	-3.836277e+01	-9.419480e+01
5.000000e-08	-5.512019e-06	-1.456833e-09	-3.835102e+01	-9.415028e+01
6.000000e-08	-5.509654e-06	-1.445371e-09	-3.833456e+01	-9.410293e+01
7.000000e-08	-5.506708e-06	-1.447982e-09	-3.831407e+01	-9.405265e+01
8.000000e-08	-5.503365e-06	-1.477056e-09	-3.829080e+01	-9.399931e+01
9.000000e-08	-5.499619e-06	-1.506026e-09	-3.826475e+01	-9.394279e+01
1.000000e-07	-5.495483e-06	-1.473899e-09	-3.823597e+01	-9.388299e+01
1.100000e-07	-5.491046e-06	-1.413849e-09	-3.820509e+01	-9.381979e+01
1.200000e-07	-5.486402e-06	-1.407936e-09	-3.817278e+01	-9.375309e+01
1.300000e-07	-5.481498e-06	-1.498972e-09	-3.813866e+01	-9.368278e+01
1.400000e-07	-5.476160e-06	-1.487772e-09	-3.810152e+01	-9.360876e+01
1.500000e-07	-5.470439e-06	-1.424008e-09	-3.806172e+01	-9.353095e+01
1.600000e-07	-5.464473e-06	-1.398308e-09	-3.802021e+01	-9.344926e+01
1.700000e-07	-5.458065e-06	-1.489646e-09	-3.797562e+01	-9.336361e+01
1.800000e-07	-5.451070e-06	-1.510733e-09	-3.792695e+01	-9.327394e+01
1.900000e-07	-5.443697e-06	-1.428635e-09	-3.787565e+01	-9.318019e+01
2.000000e-07	-5.436150e-06	-1.392715e-09	-3.782314e+01	-9.308231e+01
2.100000e-07	-5.428406e-06	-1.453435e-09	-3.776926e+01	-9.298025e+01
2.200000e-07	-5.420314e-06	-1.497711e-09	-3.771296e+01	-9.287399e+01
2.300000e-07	-5.411849e-06	-1.444660e-09	-3.765406e+01	-9.276349e+01
2.400000e-07	-5.402946e-06	-1.414494e-09	-3.759212e+01	-9.264874e+01
2.500000e-07	-5.393317e-06	-1.431550e-09	-3.752512e+01	-9.252974e+01
2.600000e-07	-5.382964e-06	-1.466332e-09	-3.745309e+01	-9.240648e+01
2.700000e-07	-5.372080e-06	-1.416034e-09	-3.737736e+01	-9.227896e+01
2.800000e-07	-5.360702e-06	-1.392229e-09	-3.729820e+01	-9.214722e+01
2.900000e-07	-5.348976e-06	-1.402635e-09	-3.721662e+01	-9.201125e+01
3.000000e-07	-5.336957e-06	-1.425400e-09	-3.713299e+01	-9.187110e+01
3.100000e-07	-5.324530e-06	-1.373822e-09	-3.704653e+01	-9.172678e+01
3.200000e-07	-5.311603e-06	-1.362326e-09	-3.695658e+01	-9.157834e+01
3.300000e-07	-5.298258e-06	-1.388117e-09	-3.686373e+01	-9.142582e+01
3.400000e-07	-5.284690e-06	-1.404850e-09	-3.676933e+01	-9.126926e+01
3.500000e-07	-5.270829e-06	-1.357528e-09	-3.667289e+01	-9.110869e+01
3.600000e-07	-5.256403e-06	-1.351679e-09	-3.657252e+01	-9.094418e+01
3.700000e-07	-5.241356e-06	-1.373859e-09	-3.646783e+01	-9.077575e+01
3.800000e-07	-5.225782e-06	-1.367974e-09	-3.635947e+01	-9.060346e+01
3.900000e-07	-5.209697e-06	-1.339832e-09	-3.624755e+01	-9.042736e+01
4.000000e-07	-5.193240e-06	-1.363448e-09	-3.613305e+01	-9.024748e+01
4.100000e-07	-5.176520e-06	-1.379139e-09	-3.601671e+01	-9.006387e+01
4.200000e-07	-5.159430e-06	-1.339787e-09	-3.589781e+01	-8.987656e+01
4.300000e-07	-5.141930e-06	-1.338700e-09	-3.577604e+01	-8.968559e+01
4.400000e-07	-5.124199e-06	-1.379772e-09	-3.565268e+01	-8.949100e+01
4.500000e-07	-5.106072e-06	-1.362943e-09	-3.552656e+01	-8.929281e+01
4.600000e-07	-5.087380e-06	-1.312743e-09	-3.539650e+01	-8.909105e+01
4.700000e-07	-5.068369e-06	-1.345222e-09	-3.526423e+01	-8.888573e+01
4.800000e-07	-5.049129e-06	-1.367773e-09	-3.513037e+01	-8.867687e+01
4.900000e-07	-5.029655e-06	-1.332375e-09	-3.499487e+01	-8.846448e+01
5.000000e-07	-5.009942e-06	-1.322200e-09	-3.485771e+01	-8.824857e+01
5.100000e-07	-4.990034e-06	-1.350529e-09	-3.471920e+01	-8.802913e+01
5.200000e-07	-4.969795e-06	-1.315803e-09	-3.457838e+01	-8.780617e+01
5.300000e-07	-4.949096e-06	-1.302308e-09	-3.443436e+01	-8.757967e+01
5.400000e-07	-4.928024e-06	-1.337903e-09	-3.428775e+01	-8.734962e+01
5.500000e-07	-4.906640e-06	-1.331918e-09	-3.413897e+01	-8.711601e+01
5.600000e-07	-4.884873e-06	-1.283852e-09	-3.398752e+01	-8.687881e+01
5.700000e-07	-4.862734e-06	-1.312193e-09	-3.383348e+01	-8.663800e+01
5.800000e-07	-4.840318e-06	-1.332494e-09	-3.367752e+01	-8.639355e+01
5.900000e-07	-4.817567e-06	-1.297784e-09	-3.351922e+01	-8.614544e+01
6.000000e-07	-4.794499e-06	-1.290196e-09	-3.335873e+01	-8.589362e+01
6.100000e-07	-4.771212e-06	-1.316943e-09	-3.319670e+01	-8.563807e+01
6.200000e-07	-4.747662e-06	-1.288373e-09	-3.303285e+01	-8.537874e+01
6.300000e-07	-4.723880e-06	-1.270218e-09	-3.286737e+01	-8.511560e+01
6.400000e-07	-4.699762e-06	-1.289487e-09	-3.269957e+01	-8.484860e+01
6.500000e-07	-4.675238e-06	-1.284876e-09	-3.252894e+01	-8.457772e+01
6.600000e-07	-4.650356e-06	-1.264871e-09	-3.235582e+01	-8.430289e+01
6.700000e-07	-4.624915e-06	-1.274568e-09	-3.217880e+01	-8.402410e+01
6.800000e-07	-4.598814e-06	-1.266149e-09	-3.199721e+01	-8.374128e+01
6.900000e-07	-4.572140e-06	-1.244356e-09	-3.181161e+01	-8.345441e+01
7.000000e-07	-4.545052e-06	-1.250356e-09	-3.162314e+01	-8.316343e+01
7.100000e-07	-4.517680e-06	-1.251576e-09	-3.143270e+01	-8.286831e+01
7.200000e-07	-4.490130e-06	-1.232772e-09	-3.124101e+01	-8.256900e+01
7.300000e-07	-4.462461e-06	-1.233004e-09	-3.104850e+01	-8.226547e+01
7.400000e-07	-4.434633e-06	-1.238612e-09	-3.085488e+01	-8.195768e+01
7.500000e-07	-4.406573e-06	-1.222678e-09	-3.065965e+01	-8.164559e+01
7.600000e-07	-4.378203e-06	-1.221603e-09	-3.046226e+01	-8.132915e+01
7.700000e-07	-4.349493e-06	-1.222845e-09	-3.026250e+01	-8.100833e+01
7.800000e-07	-4.320433e-06	-1.208418e-09	-3.006031e+01	-8.068308e+01
7.900000e-07	-4.291057e-06	-1.199179e-09	-2.985592e+01	-8.035338e+01
8.000000e-07	-4.261419e-06	-1.202299e-09	-2.964971e+01	-8.001918e+01
8.100000e-07	-4.231489e-06	-1.182460e-09	-2.944147e+01	-7.968044e+01
8.200000e-07	-4.201244e-06	-1.166856e-09	-2.923103e+01	-7.933712e+01
8.300000e-07	-4.170703e-06	-1.168528e-09	-2.901853e+01	-7.898918e+01
8.400000e-07	-4.139901e-06	-1.165277e-09	-2.880422e+01	-7.863658e+01
8.500000e-07	-4.108843e-06	-1.151065e-09	-2.858813e+01	-7.827928e+01
8.600000e-07	-4.077527e-06	-1.156005e-09	-2.837024e+01	-7.791723e+01
8.700000e-07	-4.046031e-06	-1.154534e-09	-2.815110e+01	-7.755039e+01
8.800000e-07	-4.014416e-06	-1.139163e-09	-2.793114e+01	-7.717871e+01
8.900000e-07	-3.982644e-06	-1.128249e-09	-2.771008e+01	-7.680215e+01
9.000000e-07	-3.950586e-06	-1.124679e-09	-2.748702e+01	-7.642065e+01
9.100000e-07	-3.918157e-06	-1.107384e-09	-2.726139e+01	-7.603418e+01
9.200000e-07	-3.885308e-06	-1.096490e-09	-2.703284e+01	-7.564267e+01
9.300000e-07	-3.851952e-06	-1.099711e-09	-2.680076e+01	-7.524608e+01
9.400000e-07	-3.818125e-06	-1.097007e-09	-2.656540e+01	-7.484435e+01
9.500000e-07	-3.783933e-06	-1.086639e-09	-2.632750e+01	-7.443743e+01
9.600000e-07	-3.749418e-06	-1.086252e-09	-2.608735e+01	-7.402528e+01
9.700000e-07	-3.714535e-06	-1.079729e-09	-2.584465e+01	-7.360783e+01
9.800000e-07	-3.679259e-06	-1.062648e-09	-2.559921e+01	-7.318503e+01
9.900000e-07	-3.643755e-06	-1.055128e-09	-2.535219e+01	-7.275684e+01
1.000000e-06	-3.608159e-06	-1.053122e-09	-2.510452e+01	-7.232320e+01
1.010000e-06	-3.572468e-06	-1.044213e-09	-2.485619e+01	-7.188407e+01
1.020000e-06	-3.536603e-06	-1.036857e-09	-2.460665e+01	-7.143940e+01
1.030000e-06	-3.500532e-06	-1.035856e-09	-2.435568e+01	-7.098914e+01
1.040000e-06	-3.464285e-06	-1.028478e-09	-2.410348e+01	-7.053326e+01
1.050000e-06	-3.427837e-06	-1.020120e-09	-2.384989e+01	-7.007173e+01
1.060000e-06	-3.391094e-06	-1.014159e-09	-2.359424e+01	-6.960451e+01
1.070000e-06	-3.353950e-06	-1.005344e-09	-2.333580e+01	-6.913157e+01
1.080000e-06	-3.316483e-06	-9.929482e-10	-2.307512e+01	-6.865290e+01
1.090000e-06	-3.278848e-06	-9.878516e-10	-2.281327e+01	-6.816847e+01
1.100000e-06	-3.241030e-06	-9.807445e-10	-2.255014e+01	-6.767827e+01
1.110000e-06	-3.203012e-06	-9.698102e-10	-2.228562e+01	-6.718231e+01
1.120000e-06	-3.164811e-06	-9.597488e-10	-2.201983e+01	-6.668058e+01
1.130000e-06	-3.126369e-06	-9.530836e-10	-2.175236e+01	-6.617309e+01
1.140000e-06	-3.087635e-06	-9.423544e-10	-2.148287e+01	-6.565985e+01
1.150000e-06	-3.048629e-06	-9.346072e-10	-2.121147e+01	-6.514088e+01
1.160000e-06	-3.009537e-06	-9.290870e-10	-2.093948e+01	-6.461621e+01
1.170000e-06	-2.970323e-06	-9.213797e-10	-2.066664e+01	-6.408586e+01
1.180000e-06	-2.930902e-06	-9.125688e-10	-2.039236e+01	-6.354988e+01
1.190000e-06	-2.891339e-06	-9.050684e-10	-2.011709e+01	-6.300829e+01
1.200000e-06	-2.851648e-06	-8.935703e-10	-1.984093e+01	-6.246114e+01
1.210000e-06	-2.811832e-06	-8.814090e-10	-1.956391e+01	-6.190848e+01
1.220000e-06	-2.771911e-06	-8.742399e-10	-1.928615e+01	-6.135034e+01
1.230000e-06	-2.731814e-06	-8.671102e-10	-1.900717e+01	-6.078678e+01
1.240000e-06	-2.691471e-06	-8.554483e-10	-1.872647e+01	-6.021784e+01
1.250000e-06	-2.650902e-06	-8.456223e-10	-1.844420e+01	-5.964356e+01
1.260000e-06	-2.610012e-06	-8.385839e-10	-1.815970e+01	-5.906398e+01
1.270000e-06	-2.568783e-06	-8.297532e-10	-1.787284e+01	-5.847914e+01
1.280000e-06	-2.527386e-06	-8.197745e-10	-1.758481e+01	-5.788905e+01
1.290000e-06	-2.485856e-06	-8.099418e-10	-1.729586e+01	-5.729374e+01
1.300000e-06	-2.443993e-06	-7.967409e-10	-1.700459e+01	-5.669322e+01
1.310000e-06	-2.401727e-06	-7.823378e-10	-1.671052e+01	-5.608747e+01
1.320000e-06	-2.359102e-06	-7.696546e-10	-1.641394e+01	-5.547649e+01
1.330000e-06	-2.316204e-06	-7.583036e-10	-1.611547e+01	-5.486024e+01
1.340000e-06	-2.273214e-06	-7.499760e-10	-1.581636e+01	-5.423866e+01
1.350000e-06	-2.230079e-06	-7.429180e-10	-1.551624e+01	-5.361169e+01
1.360000e-06	-2.186684e-06	-7.352062e-10	-1.521431e+01	-5.297925e+01
1.370000e-06	-2.143151e-06	-7.239800e-10	-1.491142e+01	-5.234121e+01
1.380000e-06	-2.099574e-06	-7.099078e-10	-1.460822e+01	-5.169744e+01
1.390000e-06	-2.055930e-06	-6.934980e-10	-1.430456e+01	-5.104778e+01
1.400000e-06	-2.012200e-06	-6.761304e-10	-1.400030e+01	-5.039206e+01
1.410000e-06	-1.968377e-06	-6.620292e-10	-1.369539e+01	-4.973005e+01
1.420000e-06	-1.924509e-06	-6.525853e-10	-1.339017e+01	-4.906152e+01
1.430000e-06	-1.880573e-06	-6.453809e-10	-1.308447e+01	-4.838621e+01
1.440000e-06	-1.836502e-06	-6.379909e-10	-1.277785e+01	-4.770381e+01
1.450000e-06	-1.792314e-06	-6.268259e-10	-1.247040e+01	-4.701402e+01
1.460000e-06	-1.747967e-06	-6.136761e-10	-1.216184e+01	-4.631648e+01
1.470000e-06	-1.703447e-06	-5.987634e-10	-1.185208e+01	-4.561082e+01
1.480000e-06	-1.658806e-06	-5.846802e-10	-1.154149e+01	-4.489663e+01
1.490000e-06	-1.614032e-06	-5.725959e-10	-1.122997e+01	-4.417349e+01
1.500000e-06	-1.569102e-06	-5.621124e-10	-1.091736e+01	-4.344094e+01
1.510000e-06	-1.524001e-06	-5.523435e-10	-1.060355e+01	-4.269852e+01
1.520000e-06	-1.478833e-06	-5.426685e-10	-1.028929e+01	-4.194573e+01
1.530000e-06	-1.433641e-06	-5.328140e-10	-9.974853e+00	-4.118206e+01
1.540000e-06	-1.388376e-06	-5.232636e-10	-9.659917e+00	-4.040698e+01
1.550000e-06	-1.343019e-06	-5.117200e-10	-9.344331e+00	-3.961995e+01
1.560000e-06	-1.297547e-06	-4.994058e-10	-9.027955e+00	-3.882042e+01
1.570000e-06	-1.252032e-06	-4.862776e-10	-8.711269e+00	-3.800785e+01
1.580000e-06	-1.206418e-06	-4.724057e-10	-8.393906e+00	-3.718165e+01
1.590000e-06	-1.160651e-06	-4.580409e-10	-8.075471e+00	-3.634129e+01
1.600000e-06	-1.114807e-06	-4.440290e-10	-7.756504e+00	-3.548620e+01
1.610000e-06	-1.068933e-06	-4.302936e-10	-7.437323e+00	-3.461584e+01
1.620000e-06	-1.022988e-06	-4.171480e-10	-7.117652e+00	-3.372968e+01
1.630000e-06	-9.769342e-07	-4.036244e-10	-6.797223e+00	-3.282719e+01
1.640000e-06	-9.308607e-07	-3.891621e-10	-6.476657e+00	-3.190788e+01
1.650000e-06	-8.847112e-07	-3.747532e-10	-6.155562e+00	-3.097129e+01
1.660000e-06	-8.383923e-07	-3.590919e-10	-5.833289e+00	-3.001697e+01
1.670000e-06	-7.920259e-07	-3.429058e-10	-5.510685e+00	-2.904450e+01
1.680000e-06	-7.456819e-07	-3.266417e-10	-5.188237e+00	-2.805353e+01
1.690000e-06	-6.993212e-07	-3.118297e-10	-4.865673e+00	-2.704373e+01
1.700000e-06	-6.528310e-07	-2.967250e-10	-4.542207e+00	-2.601480e+01
1.710000e-06	-6.062936e-07	-2.798411e-10	-4.218414e+00	-2.496653e+01
1.720000e-06	-5.597553e-07	-2.617769e-10	-3.894614e+00	-2.389872e+01
1.730000e-06	-5.131866e-07	-2.427800e-10	-3.570602e+00	-2.281126e+01
1.740000e-06	-4.666083e-07	-2.239191e-10	-3.246524e+00	-2.170408e+01
1.750000e-06	-4.199672e-07	-2.067822e-10	-2.922009e+00	-2.057718e+01
1.760000e-06	-3.732732e-07	-1.919612e-10	-2.597126e+00	-1.943062e+01
1.770000e-06	-3.265908e-07	-1.784633e-10	-2.272323e+00	-1.826453e+01
1.780000e-06	-2.798649e-07	-1.634557e-10	-1.947218e+00	-1.707910e+01
1.790000e-06	-2.329721e-07	-1.487773e-10	-1.620952e+00	-1.587461e+01
1.800000e-06	-1.860410e-07	-1.314412e-10	-1.294419e+00	-1.465138e+01
1.810000e-06	-1.391729e-07	-1.115226e-10	-9.683244e-01	-1.340982e+01
1.820000e-06	-9.231933e-08	-9.177760e-11	-6.423309e-01	-1.215041e+01
1.830000e-06	-4.551317e-08	-7.075941e-11	-3.166673e-01	-1.087370e+01
1.840000e-06	1.234055e-09	-5.112075e-11	8.586197e-03	-9.580289e+00
1.850000e-06	4.803451e-08	-3.589212e-11	3.342101e-01	-8.270875e+00
1.860000e-06	9.487632e-08	-2.191277e-11	6.601217e-01	-6.946202e+00
1.870000e-06	1.416937e-07	-5.631655e-12	9.858632e-01	-5.607083e+00
1.880000e-06	1.885416e-07	1.343321e-11	1.311818e+00	-4.254389e+00
1.890000e-06	2.353791e-07	3.428266e-11	1.637699e+00	-2.889054e+00
1.900000e-06	2.822030e-07	5.497027e-11	1.963486e+00	-1.512062e+00
1.910000e-06	3.290573e-07	7.613247e-11	2.289485e+00	-1.244501e-01
1.920000e-06	3.758615e-07	9.811340e-11	2.615135e+00	1.272699e+00
1.930000e-06	4.225570e-07	1.174809e-10	2.940028e+00	2.678259e+00
1.940000e-06	4.691497e-07	1.340393e-10	3.264207e+00	4.091069e+00
1.950000e-06	5.156938e-07	1.513600e-10	3.588046e+00	5.509932e+00
1.960000e-06	5.621858e-07	1.703553e-10	3.911524e+00	6.933626e+00
1.970000e-06	6.086269e-07	1.914855e-10	4.234648e+00	8.360907e+00
1.980000e-06	6.550459e-07	2.125955e-10	4.557618e+00	9.790512e+00
1.990000e-06	7.013765e-07	2.297755e-10	4.879973e+00	1.122117e+01
2.000000e-06	7.476305e-07	2.467950e-10	5.201795e+00	1.265160e+01
2.010000e-06	7.938452e-07	2.660031e-10	5.523343e+00	1.408054e+01
2.020000e-06	8.400173e-07	2.870229e-10	5.844595e+00	1.550669e+01
2.030000e-06	8.861908e-07	3.116037e-10	6.165857e+00	1.692882e+01
2.040000e-06	9.323040e-07	3.354069e-10	6.486699e+00	1.834566e+01
2.050000e-06	9.782758e-07	3.547939e-10	6.806557e+00	1.975601e+01
2.060000e-06	1.024154e-06	3.713079e-10	7.125762e+00	2.115866e+01
2.070000e-06	1.070006e-06	3.867263e-10	7.444788e+00	2.255246e+01
2.080000e-06	1.115823e-06	4.018191e-10	7.763568e+00	2.393628e+01
2.090000e-06	1.161623e-06	4.206842e-10	8.082234e+00	2.530904e+01
2.100000e-06	1.207325e-06	4.438086e-10	8.400212e+00	2.666969e+01
2.110000e-06	1.252855e-06	4.672451e-10	8.716999e+00	2.801725e+01
2.120000e-06	1.298225e-06	4.878699e-10	9.032669e+00	2.935079e+01
2.130000e-06	1.343480e-06	5.060086e-10	9.347544e+00	3.066941e+01
2.140000e-06	1.388701e-06	5.211352e-10	9.662179e+00	3.197230e+01
2.150000e-06	1.433855e-06	5.329220e-10	9.976346e+00	3.325869e+01
2.160000e-06	1.478903e-06	5.468380e-10	1.028977e+01	3.452788e+01
2.170000e-06	1.523858e-06	5.655278e-10	1.060256e+01	3.577924e+01
2.180000e-06	1.568752e-06	5.852493e-10	1.091492e+01	3.701219e+01
2.190000e-06	1.613575e-06	6.055608e-10	1.122679e+01	3.822622e+01
2.200000e-06	1.658249e-06	6.240991e-10	1.153762e+01	3.942088e+01
2.210000e-06	1.702733e-06	6.380362e-10	1.184712e+01	4.059581e+01
2.220000e-06	1.747105e-06	6.491903e-10	1.215585e+01	4.175069e+01
2.230000e-06	1.791360e-06	6.607249e-10	1.246376e+01	4.288527e+01
2.240000e-06	1.835444e-06	6.740842e-10	1.277048e+01	4.399935e+01
2.250000e-06	1.879379e-06	6.904620e-10	1.307617e+01	4.509282e+01
2.260000e-06	1.923212e-06	7.080648e-10	1.338115e+01	4.616560e+01
2.270000e-06	1.966960e-06	7.231186e-10	1.368553e+01	4.721768e+01
2.280000e-06	2.010631e-06	7.359236e-10	1.398938e+01	4.824909e+01
2.290000e-06	2.054223e-06	7.476293e-10	1.429268e+01	4.925993e+01
2.300000e-06	2.097760e-06	7.581792e-10	1.459560e+01	5.025034e+01
2.310000e-06	2.141225e-06	7.694792e-10	1.489802e+01	5.122050e+01
2.320000e-06	2.184642e-06	7.853170e-10	1.520010e+01	5.217062e+01
2.330000e-06	2.228037e-06	8.025634e-10	1.550203e+01	5.310098e+01
2.340000e-06	2.271349e-06	8.175851e-10	1.580338e+01	5.401186e+01
2.350000e-06	2.314504e-06	8.307721e-10	1.610365e+01	5.490359e+01
2.360000e-06	2.357427e-06	8.420183e-10	1.640229e+01	5.577652e+01
2.370000e-06	2.400041e-06	8.511574e-10	1.669879e+01	5.663103e+01
2.380000e-06	2.442349e-06	8.602075e-10	1.699315e+01	5.746750e+01
2.390000e-06	2.484380e-06	8.707038e-10	1.728559e+01	5.828636e+01
2.400000e-06	2.525998e-06	8.817248e-10	1.757516e+01	5.908802e+01
2.410000e-06	2.567237e-06	8.929139e-10	1.786208e+01	5.987292e+01
2.420000e-06	2.608213e-06	9.052828e-10	1.814718e+01	6.064149e+01
2.430000e-06	2.648880e-06	9.171268e-10	1.843013e+01	6.139419e+01
2.440000e-06	2.689303e-06	9.266290e-10	1.871138e+01	6.213144e+01
2.450000e-06	2.729565e-06	9.337520e-10	1.899151e+01	6.285370e+01
2.460000e-06	2.769656e-06	9.397732e-10	1.927046e+01	6.356140e+01
2.470000e-06	2.809557e-06	9.466123e-10	1.954808e+01	6.425498e+01
2.480000e-06	2.849292e-06	9.558172e-10	1.982454e+01	6.493485e+01
2.490000e-06	2.888915e-06	9.666090e-10	2.010023e+01	6.560143e+01
2.500000e-06	2.928436e-06	9.788075e-10	2.037520e+01	6.625512e+01
2.510000e-06	2.967803e-06	9.920840e-10	2.064911e+01	6.689631e+01
2.520000e-06	3.006968e-06	1.004185e-09	2.092160e+01	6.752537e+01
2.530000e-06	3.045986e-06	1.013698e-09	2.119308e+01	6.814267e+01
2.540000e-06	3.084846e-06	1.021493e-09	2.146346e+01	6.874856e+01
2.550000e-06	3.123461e-06	1.026686e-09	2.173213e+01	6.934336e+01
2.560000e-06	3.161751e-06	1.029605e-09	2.199854e+01	6.992738e+01
2.570000e-06	3.199807e-06	1.033782e-09	2.226333e+01	7.050094e+01
2.580000e-06	3.237709e-06	1.042449e-09	2.252703e+01	7.106431e+01
2.590000e-06	3.275415e-06	1.055139e-09	2.278938e+01	7.161777e+01
2.600000e-06	3.312978e-06	1.067268e-09	2.305074e+01	7.216157e+01
2.610000e-06	3.350340e-06	1.077339e-09	2.331069e+01	7.269596e+01
2.620000e-06	3.387381e-06	1.087095e-09	2.356841e+01	7.322116e+01
2.630000e-06	3.424130e-06	1.094923e-09	2.382410e+01	7.373739e+01
2.640000e-06	3.460617e-06	1.099684e-09	2.407796e+01	7.424486e+01
2.650000e-06	3.496826e-06	1.106643e-09	2.432989e+01	7.474376e+01
2.660000e-06	3.532825e-06	1.115638e-09	2.458037e+01	7.523428e+01
2.670000e-06	3.568631e-06	1.124662e-09	2.482949e+01	7.571660e+01
2.680000e-06	3.604290e-06	1.131956e-09	2.507760e+01	7.619089e+01
2.690000e-06	3.639877e-06	1.136242e-09	2.532520e+01	7.665730e+01
2.700000e-06	3.675352e-06	1.140117e-09	2.557203e+01	7.711600e+01
2.710000e-06	3.710583e-06	1.145213e-09	2.581715e+01	7.756714e+01
2.720000e-06	3.745535e-06	1.151474e-09	2.606034e+01	7.801087e+01
2.730000e-06	3.780160e-06	1.158900e-09	2.630125e+01	7.844733e+01
2.740000e-06	3.814341e-06	1.166705e-09	2.653907e+01	7.887665e+01
2.750000e-06	3.848096e-06	1.172540e-09	2.677393e+01	7.929898e+01
2.760000e-06	3.881447e-06	1.175518e-09	2.700597e+01	7.971445e+01
2.770000e-06	3.914357e-06	1.177759e-09	2.723495e+01	8.012319e+01
2.780000e-06	3.946823e-06	1.183160e-09	2.746084e+01	8.052534e+01
2.790000e-06	3.978934e-06	1.191251e-09	2.768426e+01	8.092101e+01
2.800000e-06	4.010824e-06	1.199035e-09	2.790614e+01	8.131034e+01
2.810000e-06	4.042530e-06	1.205472e-09	2.812674e+01	8.169345e+01
2.820000e-06	4.074045e-06	1.211030e-09	2.834601e+01	8.207045e+01
2.830000e-06	4.105449e-06	1.215910e-09	2.856451e+01	8.244147e+01
2.840000e-06	4.136671e-06	1.219422e-09	2.878175e+01	8.280663e+01
2.850000e-06	4.167538e-06	1.222479e-09	2.899651e+01	8.316602e+01
2.860000e-06	4.198035e-06	1.225918e-09	2.920870e+01	8.351976e+01
2.870000e-06	4.228216e-06	1.229630e-09	2.941869e+01	8.386796e+01
2.880000e-06	4.258091e-06	1.232897e-09	2.962655e+01	8.421069e+01
2.890000e-06	4.287701e-06	1.234814e-09	2.983257e+01	8.454807e+01
2.900000e-06	4.317119e-06	1.237176e-09	3.003726e+01	8.488016e+01
2.910000e-06	4.346239e-06	1.241130e-09	3.023986e+01	8.520705e+01
