# Temperatura_=_-1.07
# Concentracion g/m^3_=_1620.0
# C_Vs_to_Am_M_A/Vsm_=_65563218390.804596
# pendiente_HvsI_1/m_=_3716.3
# ordenada_HvsI_A/m_=_1297.0
# frecuencia_Hz_=_135096.75760901996

Tiempo_(s)	Campo_(V.s)	Magnetizacion_(V.s)	Campo_(kA/m)	Magnetizacion_(A/m)
0.000000e+00	-5.532826e-06	-1.284905e-09	-3.837466e+01	-8.326481e+01
1.000000e-08	-5.532931e-06	-1.283420e-09	-3.837539e+01	-8.325458e+01
2.000000e-08	-5.532849e-06	-1.282118e-09	-3.837482e+01	-8.324113e+01
3.000000e-08	-5.532425e-06	-1.281930e-09	-3.837188e+01	-8.322415e+01
4.000000e-08	-5.531599e-06	-1.282514e-09	-3.836615e+01	-8.320333e+01
5.000000e-08	-5.530210e-06	-1.282807e-09	-3.835651e+01	-8.317835e+01
6.000000e-08	-5.528233e-06	-1.286787e-09	-3.834280e+01	-8.314894e+01
7.000000e-08	-5.525751e-06	-1.277248e-09	-3.832559e+01	-8.311480e+01
8.000000e-08	-5.522721e-06	-1.269425e-09	-3.830457e+01	-8.307567e+01
9.000000e-08	-5.519141e-06	-1.277008e-09	-3.827974e+01	-8.303130e+01
1.000000e-07	-5.515105e-06	-1.294408e-09	-3.825175e+01	-8.298144e+01
1.100000e-07	-5.510757e-06	-1.297230e-09	-3.822159e+01	-8.292591e+01
1.200000e-07	-5.506201e-06	-1.263809e-09	-3.819000e+01	-8.286450e+01
1.300000e-07	-5.501465e-06	-1.239548e-09	-3.815714e+01	-8.279707e+01
1.400000e-07	-5.496346e-06	-1.270273e-09	-3.812164e+01	-8.272348e+01
1.500000e-07	-5.490696e-06	-1.267770e-09	-3.808245e+01	-8.264363e+01
1.600000e-07	-5.484665e-06	-1.283460e-09	-3.804062e+01	-8.255745e+01
1.700000e-07	-5.478296e-06	-1.246680e-09	-3.799645e+01	-8.246489e+01
1.800000e-07	-5.471546e-06	-1.271962e-09	-3.794963e+01	-8.236595e+01
1.900000e-07	-5.464437e-06	-1.260985e-09	-3.790032e+01	-8.226066e+01
2.000000e-07	-5.456943e-06	-1.269910e-09	-3.784835e+01	-8.214905e+01
2.100000e-07	-5.449159e-06	-1.256711e-09	-3.779436e+01	-8.203123e+01
2.200000e-07	-5.441117e-06	-1.271120e-09	-3.773858e+01	-8.190731e+01
2.300000e-07	-5.432739e-06	-1.273584e-09	-3.768047e+01	-8.177743e+01
2.400000e-07	-5.424109e-06	-1.267052e-09	-3.762062e+01	-8.164177e+01
2.500000e-07	-5.414985e-06	-1.253776e-09	-3.755734e+01	-8.150052e+01
2.600000e-07	-5.405068e-06	-1.243964e-09	-3.748855e+01	-8.135392e+01
2.700000e-07	-5.394421e-06	-1.246549e-09	-3.741471e+01	-8.120220e+01
2.800000e-07	-5.383221e-06	-1.227613e-09	-3.733702e+01	-8.104563e+01
2.900000e-07	-5.371590e-06	-1.234030e-09	-3.725636e+01	-8.088451e+01
3.000000e-07	-5.359578e-06	-1.212164e-09	-3.717304e+01	-8.071912e+01
3.100000e-07	-5.347221e-06	-1.218307e-09	-3.708734e+01	-8.054979e+01
3.200000e-07	-5.334460e-06	-1.193043e-09	-3.699883e+01	-8.037683e+01
3.300000e-07	-5.321311e-06	-1.213264e-09	-3.690763e+01	-8.020057e+01
3.400000e-07	-5.307793e-06	-1.201673e-09	-3.681387e+01	-8.002134e+01
3.500000e-07	-5.293901e-06	-1.208707e-09	-3.671752e+01	-7.983946e+01
3.600000e-07	-5.279537e-06	-1.195439e-09	-3.661789e+01	-7.965528e+01
3.700000e-07	-5.264731e-06	-1.219420e-09	-3.651520e+01	-7.946911e+01
3.800000e-07	-5.249443e-06	-1.205563e-09	-3.640917e+01	-7.928126e+01
3.900000e-07	-5.233489e-06	-1.195338e-09	-3.629851e+01	-7.909203e+01
4.000000e-07	-5.216917e-06	-1.186097e-09	-3.618358e+01	-7.890171e+01
4.100000e-07	-5.200087e-06	-1.206938e-09	-3.606685e+01	-7.871056e+01
4.200000e-07	-5.182975e-06	-1.194630e-09	-3.594815e+01	-7.851884e+01
4.300000e-07	-5.165467e-06	-1.187473e-09	-3.582673e+01	-7.832678e+01
4.400000e-07	-5.147758e-06	-1.188336e-09	-3.570390e+01	-7.813457e+01
4.500000e-07	-5.129784e-06	-1.195624e-09	-3.557923e+01	-7.794240e+01
4.600000e-07	-5.111306e-06	-1.184259e-09	-3.545107e+01	-7.775041e+01
4.700000e-07	-5.092332e-06	-1.183506e-09	-3.531948e+01	-7.755874e+01
4.800000e-07	-5.073081e-06	-1.186769e-09	-3.518595e+01	-7.736746e+01
4.900000e-07	-5.053509e-06	-1.184107e-09	-3.505020e+01	-7.717667e+01
5.000000e-07	-5.033657e-06	-1.175513e-09	-3.491252e+01	-7.698637e+01
5.100000e-07	-5.013630e-06	-1.169428e-09	-3.477361e+01	-7.679659e+01
5.200000e-07	-4.993290e-06	-1.170349e-09	-3.463253e+01	-7.660730e+01
5.300000e-07	-4.972578e-06	-1.166579e-09	-3.448889e+01	-7.641845e+01
5.400000e-07	-4.951635e-06	-1.162974e-09	-3.434363e+01	-7.622996e+01
5.500000e-07	-4.930418e-06	-1.157424e-09	-3.419647e+01	-7.604171e+01
5.600000e-07	-4.908762e-06	-1.162966e-09	-3.404627e+01	-7.585359e+01
5.700000e-07	-4.886715e-06	-1.156665e-09	-3.389335e+01	-7.566543e+01
5.800000e-07	-4.864351e-06	-1.152096e-09	-3.373824e+01	-7.547706e+01
5.900000e-07	-4.841678e-06	-1.147982e-09	-3.358099e+01	-7.528827e+01
6.000000e-07	-4.818650e-06	-1.150441e-09	-3.342126e+01	-7.509886e+01
6.100000e-07	-4.795263e-06	-1.137175e-09	-3.325906e+01	-7.490859e+01
6.200000e-07	-4.771559e-06	-1.140644e-09	-3.309465e+01	-7.471722e+01
6.300000e-07	-4.747587e-06	-1.139541e-09	-3.292838e+01	-7.452450e+01
6.400000e-07	-4.723432e-06	-1.136361e-09	-3.276085e+01	-7.433016e+01
6.500000e-07	-4.698954e-06	-1.125690e-09	-3.259108e+01	-7.413393e+01
6.600000e-07	-4.674139e-06	-1.130774e-09	-3.241897e+01	-7.393555e+01
6.700000e-07	-4.648929e-06	-1.122157e-09	-3.224411e+01	-7.373475e+01
6.800000e-07	-4.623232e-06	-1.119357e-09	-3.206588e+01	-7.353126e+01
6.900000e-07	-4.596989e-06	-1.116504e-09	-3.188387e+01	-7.332482e+01
7.000000e-07	-4.570207e-06	-1.113993e-09	-3.169811e+01	-7.311517e+01
7.100000e-07	-4.542963e-06	-1.099777e-09	-3.150915e+01	-7.290207e+01
7.200000e-07	-4.515319e-06	-1.099468e-09	-3.131742e+01	-7.268528e+01
7.300000e-07	-4.487457e-06	-1.098458e-09	-3.112417e+01	-7.246459e+01
7.400000e-07	-4.459471e-06	-1.093026e-09	-3.093007e+01	-7.223980e+01
7.500000e-07	-4.431333e-06	-1.084796e-09	-3.073491e+01	-7.201071e+01
7.600000e-07	-4.402968e-06	-1.086920e-09	-3.053817e+01	-7.177716e+01
7.700000e-07	-4.374387e-06	-1.083228e-09	-3.033994e+01	-7.153900e+01
7.800000e-07	-4.345472e-06	-1.075498e-09	-3.013939e+01	-7.129610e+01
7.900000e-07	-4.316102e-06	-1.071595e-09	-2.993569e+01	-7.104835e+01
8.000000e-07	-4.286366e-06	-1.066257e-09	-2.972944e+01	-7.079566e+01
8.100000e-07	-4.256361e-06	-1.055898e-09	-2.952133e+01	-7.053798e+01
8.200000e-07	-4.226100e-06	-1.046199e-09	-2.931145e+01	-7.027525e+01
8.300000e-07	-4.195538e-06	-1.042887e-09	-2.909947e+01	-7.000745e+01
8.400000e-07	-4.164674e-06	-1.038059e-09	-2.888541e+01	-6.973459e+01
8.500000e-07	-4.133527e-06	-1.036781e-09	-2.866938e+01	-6.945667e+01
8.600000e-07	-4.102146e-06	-1.034175e-09	-2.845173e+01	-6.917373e+01
8.700000e-07	-4.070561e-06	-1.030788e-09	-2.823266e+01	-6.888583e+01
8.800000e-07	-4.038716e-06	-1.019549e-09	-2.801179e+01	-6.859302e+01
8.900000e-07	-4.006645e-06	-1.014229e-09	-2.778935e+01	-6.829541e+01
9.000000e-07	-3.974426e-06	-1.004770e-09	-2.756588e+01	-6.799307e+01
9.100000e-07	-3.942063e-06	-9.956987e-10	-2.734142e+01	-6.768612e+01
9.200000e-07	-3.909396e-06	-9.866147e-10	-2.711485e+01	-6.737468e+01
9.300000e-07	-3.876198e-06	-9.840311e-10	-2.688459e+01	-6.705886e+01
9.400000e-07	-3.842517e-06	-9.788925e-10	-2.665099e+01	-6.673880e+01
9.500000e-07	-3.808457e-06	-9.766997e-10	-2.641475e+01	-6.641462e+01
9.600000e-07	-3.773829e-06	-9.704153e-10	-2.617458e+01	-6.608647e+01
9.700000e-07	-3.738692e-06	-9.646562e-10	-2.593088e+01	-6.575446e+01
9.800000e-07	-3.703290e-06	-9.561718e-10	-2.568534e+01	-6.541874e+01
9.900000e-07	-3.667697e-06	-9.530612e-10	-2.543847e+01	-6.507943e+01
1.000000e-06	-3.631946e-06	-9.427592e-10	-2.519050e+01	-6.473664e+01
1.010000e-06	-3.596067e-06	-9.364291e-10	-2.494166e+01	-6.439049e+01
1.020000e-06	-3.560020e-06	-9.328661e-10	-2.469164e+01	-6.404109e+01
1.030000e-06	-3.523790e-06	-9.282462e-10	-2.444036e+01	-6.368851e+01
1.040000e-06	-3.487447e-06	-9.236867e-10	-2.418829e+01	-6.333285e+01
1.050000e-06	-3.450853e-06	-9.222386e-10	-2.393448e+01	-6.297416e+01
1.060000e-06	-3.413982e-06	-9.164301e-10	-2.367875e+01	-6.261249e+01
1.070000e-06	-3.376901e-06	-9.058895e-10	-2.342156e+01	-6.224789e+01
1.080000e-06	-3.339549e-06	-8.970652e-10	-2.316249e+01	-6.188037e+01
1.090000e-06	-3.301941e-06	-8.930093e-10	-2.290166e+01	-6.150994e+01
1.100000e-06	-3.264111e-06	-8.899531e-10	-2.263927e+01	-6.113658e+01
1.110000e-06	-3.226063e-06	-8.851499e-10	-2.237537e+01	-6.076026e+01
1.120000e-06	-3.187801e-06	-8.812595e-10	-2.211000e+01	-6.038094e+01
1.130000e-06	-3.149327e-06	-8.719032e-10	-2.184315e+01	-5.999854e+01
1.140000e-06	-3.110634e-06	-8.624610e-10	-2.157478e+01	-5.961300e+01
1.150000e-06	-3.071640e-06	-8.539211e-10	-2.130433e+01	-5.922422e+01
1.160000e-06	-3.032403e-06	-8.470687e-10	-2.103219e+01	-5.883207e+01
1.170000e-06	-2.993045e-06	-8.412567e-10	-2.075921e+01	-5.843644e+01
1.180000e-06	-2.953521e-06	-8.405887e-10	-2.048507e+01	-5.803719e+01
1.190000e-06	-2.913843e-06	-8.375690e-10	-2.020987e+01	-5.763415e+01
1.200000e-06	-2.874004e-06	-8.313064e-10	-1.993356e+01	-5.722717e+01
1.210000e-06	-2.834004e-06	-8.213199e-10	-1.965613e+01	-5.681606e+01
1.220000e-06	-2.793871e-06	-8.127368e-10	-1.937778e+01	-5.640064e+01
1.230000e-06	-2.753654e-06	-8.021033e-10	-1.909884e+01	-5.598071e+01
1.240000e-06	-2.713306e-06	-7.959966e-10	-1.881899e+01	-5.555606e+01
1.250000e-06	-2.672757e-06	-7.912289e-10	-1.853775e+01	-5.512648e+01
1.260000e-06	-2.631996e-06	-7.859728e-10	-1.825504e+01	-5.469173e+01
1.270000e-06	-2.590929e-06	-7.779590e-10	-1.797020e+01	-5.425161e+01
1.280000e-06	-2.549564e-06	-7.706032e-10	-1.768331e+01	-5.380586e+01
1.290000e-06	-2.507995e-06	-7.633436e-10	-1.739499e+01	-5.335427e+01
1.300000e-06	-2.466105e-06	-7.546681e-10	-1.710445e+01	-5.289658e+01
1.310000e-06	-2.423855e-06	-7.435970e-10	-1.681141e+01	-5.243255e+01
1.320000e-06	-2.381436e-06	-7.330985e-10	-1.651720e+01	-5.196194e+01
1.330000e-06	-2.338751e-06	-7.228091e-10	-1.622115e+01	-5.148450e+01
1.340000e-06	-2.295722e-06	-7.129624e-10	-1.592271e+01	-5.099998e+01
1.350000e-06	-2.252469e-06	-7.049990e-10	-1.562271e+01	-5.050812e+01
1.360000e-06	-2.208956e-06	-6.995653e-10	-1.532091e+01	-5.000868e+01
1.370000e-06	-2.165274e-06	-6.956664e-10	-1.501794e+01	-4.950140e+01
1.380000e-06	-2.121493e-06	-6.911830e-10	-1.471428e+01	-4.898602e+01
1.390000e-06	-2.077601e-06	-6.815481e-10	-1.440985e+01	-4.846229e+01
1.400000e-06	-2.033682e-06	-6.681809e-10	-1.410524e+01	-4.792995e+01
1.410000e-06	-1.989727e-06	-6.563404e-10	-1.380038e+01	-4.738874e+01
1.420000e-06	-1.945648e-06	-6.465447e-10	-1.349465e+01	-4.683840e+01
1.430000e-06	-1.901420e-06	-6.383988e-10	-1.318790e+01	-4.627866e+01
1.440000e-06	-1.857084e-06	-6.314942e-10	-1.288039e+01	-4.570926e+01
1.450000e-06	-1.812646e-06	-6.256536e-10	-1.257218e+01	-4.512992e+01
1.460000e-06	-1.768184e-06	-6.164796e-10	-1.226380e+01	-4.454038e+01
1.470000e-06	-1.723630e-06	-6.057267e-10	-1.195478e+01	-4.394036e+01
1.480000e-06	-1.678899e-06	-5.931390e-10	-1.164453e+01	-4.332957e+01
1.490000e-06	-1.634074e-06	-5.822518e-10	-1.133363e+01	-4.270774e+01
1.500000e-06	-1.589100e-06	-5.742245e-10	-1.102170e+01	-4.207458e+01
1.510000e-06	-1.543885e-06	-5.670707e-10	-1.070810e+01	-4.142980e+01
1.520000e-06	-1.498560e-06	-5.583293e-10	-1.039374e+01	-4.077311e+01
1.530000e-06	-1.453186e-06	-5.499135e-10	-1.007903e+01	-4.010420e+01
1.540000e-06	-1.407822e-06	-5.386356e-10	-9.764392e+00	-3.942279e+01
1.550000e-06	-1.362408e-06	-5.250330e-10	-9.449412e+00	-3.872857e+01
1.560000e-06	-1.316852e-06	-5.114449e-10	-9.133444e+00	-3.802123e+01
1.570000e-06	-1.271220e-06	-4.987140e-10	-8.816948e+00	-3.730048e+01
1.580000e-06	-1.225431e-06	-4.862570e-10	-8.499365e+00	-3.656600e+01
1.590000e-06	-1.179552e-06	-4.757871e-10	-8.181155e+00	-3.581752e+01
1.600000e-06	-1.133649e-06	-4.662005e-10	-7.862781e+00	-3.505471e+01
1.610000e-06	-1.087629e-06	-4.529675e-10	-7.543591e+00	-3.427730e+01
1.620000e-06	-1.041500e-06	-4.363751e-10	-7.223649e+00	-3.348500e+01
1.630000e-06	-9.953185e-07	-4.205803e-10	-6.903345e+00	-3.267752e+01
1.640000e-06	-9.490534e-07	-4.067354e-10	-6.582459e+00	-3.185461e+01
1.650000e-06	-9.026777e-07	-3.950627e-10	-6.260806e+00	-3.101601e+01
1.660000e-06	-8.563052e-07	-3.840214e-10	-5.939174e+00	-3.016148e+01
1.670000e-06	-8.098605e-07	-3.738143e-10	-5.617043e+00	-2.929079e+01
1.680000e-06	-7.633178e-07	-3.628278e-10	-5.294231e+00	-2.840374e+01
1.690000e-06	-7.167367e-07	-3.511906e-10	-4.971153e+00	-2.750016e+01
1.700000e-06	-6.701598e-07	-3.389267e-10	-4.648105e+00	-2.657987e+01
1.710000e-06	-6.236250e-07	-3.241858e-10	-4.325348e+00	-2.564276e+01
1.720000e-06	-5.770310e-07	-3.083932e-10	-4.002180e+00	-2.468872e+01
1.730000e-06	-5.304082e-07	-2.933565e-10	-3.678813e+00	-2.371768e+01
1.740000e-06	-4.837716e-07	-2.793990e-10	-3.355350e+00	-2.272960e+01
1.750000e-06	-4.370686e-07	-2.648560e-10	-3.031427e+00	-2.172449e+01
1.760000e-06	-3.903181e-07	-2.505283e-10	-2.707174e+00	-2.070238e+01
1.770000e-06	-3.434713e-07	-2.375448e-10	-2.382254e+00	-1.966336e+01
1.780000e-06	-2.964851e-07	-2.243195e-10	-2.056366e+00	-1.860755e+01
1.790000e-06	-2.494491e-07	-2.099796e-10	-1.730133e+00	-1.753511e+01
1.800000e-06	-2.024389e-07	-1.962356e-10	-1.404079e+00	-1.644625e+01
1.810000e-06	-1.554730e-07	-1.786527e-10	-1.078332e+00	-1.534125e+01
1.820000e-06	-1.084590e-07	-1.591598e-10	-7.522515e-01	-1.422040e+01
1.830000e-06	-6.148998e-08	-1.396484e-10	-4.264831e-01	-1.308406e+01
1.840000e-06	-1.462962e-08	-1.213331e-10	-1.014683e-01	-1.193263e+01
1.850000e-06	3.222682e-08	-1.060588e-10	2.235193e-01	-1.076658e+01
1.860000e-06	7.925695e-08	-9.316889e-11	5.497115e-01	-9.586412e+00
1.870000e-06	1.263687e-07	-7.687249e-11	8.764702e-01	-8.392673e+00
1.880000e-06	1.733772e-07	-5.950352e-11	1.202512e+00	-7.185968e+00
1.890000e-06	2.203785e-07	-4.135638e-11	1.528505e+00	-5.966947e+00
1.900000e-06	2.673408e-07	-2.235622e-11	1.854226e+00	-4.736305e+00
1.910000e-06	3.142889e-07	-4.783497e-12	2.179850e+00	-3.494782e+00
1.920000e-06	3.611705e-07	1.260242e-11	2.505012e+00	-2.243158e+00
1.930000e-06	4.079321e-07	3.106228e-11	2.829342e+00	-9.822536e-01
1.940000e-06	4.546257e-07	4.967502e-11	3.153200e+00	2.870721e-01
1.950000e-06	5.012777e-07	6.776119e-11	3.476769e+00	1.563927e+00
1.960000e-06	5.478569e-07	8.511256e-11	3.799834e+00	2.847389e+00
1.970000e-06	5.945072e-07	1.034708e-10	4.123392e+00	4.136505e+00
1.980000e-06	6.412531e-07	1.223930e-10	4.447613e+00	5.430301e+00
1.990000e-06	6.878482e-07	1.383126e-10	4.770788e+00	6.727782e+00
2.000000e-06	7.342672e-07	1.528882e-10	5.092741e+00	8.027935e+00
2.010000e-06	7.807280e-07	1.696502e-10	5.414985e+00	9.329734e+00
2.020000e-06	8.272538e-07	1.886760e-10	5.737679e+00	1.063215e+01
2.030000e-06	8.736444e-07	2.100736e-10	6.059436e+00	1.193414e+01
2.040000e-06	9.199359e-07	2.333993e-10	6.380506e+00	1.323467e+01
2.050000e-06	9.662008e-07	2.541684e-10	6.701390e+00	1.453271e+01
2.060000e-06	1.012339e-06	2.728547e-10	7.021398e+00	1.582723e+01
2.070000e-06	1.058373e-06	2.888953e-10	7.340678e+00	1.711723e+01
2.080000e-06	1.104383e-06	3.053167e-10	7.659795e+00	1.840170e+01
2.090000e-06	1.150285e-06	3.225096e-10	7.978165e+00	1.967967e+01
2.100000e-06	1.196113e-06	3.421872e-10	8.296019e+00	2.095020e+01
2.110000e-06	1.241872e-06	3.613931e-10	8.613398e+00	2.221235e+01
2.120000e-06	1.287434e-06	3.782377e-10	8.929407e+00	2.346525e+01
2.130000e-06	1.332894e-06	3.953141e-10	9.244708e+00	2.470803e+01
2.140000e-06	1.378383e-06	4.145535e-10	9.560207e+00	2.593988e+01
2.150000e-06	1.423778e-06	4.331480e-10	9.875058e+00	2.716002e+01
2.160000e-06	1.469055e-06	4.489855e-10	1.018909e+01	2.836771e+01
2.170000e-06	1.514219e-06	4.647875e-10	1.050234e+01	2.956226e+01
2.180000e-06	1.559292e-06	4.822701e-10	1.081496e+01	3.074302e+01
2.190000e-06	1.604312e-06	4.994826e-10	1.112721e+01	3.190940e+01
2.200000e-06	1.649176e-06	5.149574e-10	1.143838e+01	3.306085e+01
2.210000e-06	1.693823e-06	5.295650e-10	1.174805e+01	3.419687e+01
2.220000e-06	1.738266e-06	5.439752e-10	1.205629e+01	3.531700e+01
2.230000e-06	1.782641e-06	5.581921e-10	1.236407e+01	3.642085e+01
2.240000e-06	1.826939e-06	5.740605e-10	1.267131e+01	3.750807e+01
2.250000e-06	1.871108e-06	5.906124e-10	1.297766e+01	3.857835e+01
2.260000e-06	1.915204e-06	6.063805e-10	1.328350e+01	3.963144e+01
2.270000e-06	1.959250e-06	6.211191e-10	1.358900e+01	4.066714e+01
2.280000e-06	2.003228e-06	6.348338e-10	1.389402e+01	4.168527e+01
2.290000e-06	2.047127e-06	6.486228e-10	1.419849e+01	4.268573e+01
2.300000e-06	2.090988e-06	6.612655e-10	1.450270e+01	4.366844e+01
2.310000e-06	2.134828e-06	6.719810e-10	1.480677e+01	4.463336e+01
2.320000e-06	2.178618e-06	6.842483e-10	1.511049e+01	4.558050e+01
2.330000e-06	2.222260e-06	6.989717e-10	1.541318e+01	4.650990e+01
2.340000e-06	2.265708e-06	7.139713e-10	1.571453e+01	4.742162e+01
2.350000e-06	2.308968e-06	7.275989e-10	1.601457e+01	4.831577e+01
2.360000e-06	2.351934e-06	7.387000e-10	1.631258e+01	4.919248e+01
2.370000e-06	2.394553e-06	7.498220e-10	1.660818e+01	5.005189e+01
2.380000e-06	2.436897e-06	7.594490e-10	1.690186e+01	5.089420e+01
2.390000e-06	2.478909e-06	7.700248e-10	1.719326e+01	5.171959e+01
2.400000e-06	2.520578e-06	7.815632e-10	1.748226e+01	5.252827e+01
2.410000e-06	2.562039e-06	7.940701e-10	1.776983e+01	5.332048e+01
2.420000e-06	2.603303e-06	8.067268e-10	1.805603e+01	5.409646e+01
2.430000e-06	2.644241e-06	8.196132e-10	1.833997e+01	5.485645e+01
2.440000e-06	2.684879e-06	8.320154e-10	1.862182e+01	5.560070e+01
2.450000e-06	2.725314e-06	8.420724e-10	1.890227e+01	5.632949e+01
2.460000e-06	2.765626e-06	8.522603e-10	1.918187e+01	5.704308e+01
2.470000e-06	2.805805e-06	8.620565e-10	1.946054e+01	5.774173e+01
2.480000e-06	2.845800e-06	8.702750e-10	1.973794e+01	5.842570e+01
2.490000e-06	2.885697e-06	8.783794e-10	2.001466e+01	5.909526e+01
2.500000e-06	2.925480e-06	8.878403e-10	2.029059e+01	5.975068e+01
2.510000e-06	2.965045e-06	8.981532e-10	2.056500e+01	6.039221e+01
2.520000e-06	3.004422e-06	9.077130e-10	2.083812e+01	6.102010e+01
2.530000e-06	3.043611e-06	9.179555e-10	2.110992e+01	6.163459e+01
2.540000e-06	3.082546e-06	9.287859e-10	2.137997e+01	6.223594e+01
2.550000e-06	3.121288e-06	9.389735e-10	2.164868e+01	6.282436e+01
2.560000e-06	3.159911e-06	9.463294e-10	2.191656e+01	6.340010e+01
2.570000e-06	3.198333e-06	9.515892e-10	2.218304e+01	6.396337e+01
2.580000e-06	3.236541e-06	9.595470e-10	2.244805e+01	6.451439e+01
2.590000e-06	3.274506e-06	9.689229e-10	2.271137e+01	6.505336e+01
2.600000e-06	3.312210e-06	9.774399e-10	2.297288e+01	6.558050e+01
2.610000e-06	3.349677e-06	9.851100e-10	2.323274e+01	6.609599e+01
2.620000e-06	3.386817e-06	9.924552e-10	2.349033e+01	6.660003e+01
2.630000e-06	3.423679e-06	9.990826e-10	2.374601e+01	6.709281e+01
2.640000e-06	3.460357e-06	1.004165e-09	2.400040e+01	6.757453e+01
2.650000e-06	3.496793e-06	1.010239e-09	2.425311e+01	6.804536e+01
2.660000e-06	3.533007e-06	1.018398e-09	2.450428e+01	6.850548e+01
2.670000e-06	3.569091e-06	1.026332e-09	2.475456e+01	6.895508e+01
2.680000e-06	3.605012e-06	1.034155e-09	2.500370e+01	6.939434e+01
2.690000e-06	3.640813e-06	1.040690e-09	2.525201e+01	6.982344e+01
2.700000e-06	3.676501e-06	1.044581e-09	2.549953e+01	7.024256e+01
2.710000e-06	3.711940e-06	1.047624e-09	2.574533e+01	7.065189e+01
2.720000e-06	3.747023e-06	1.052522e-09	2.598866e+01	7.105162e+01
2.730000e-06	3.781771e-06	1.058600e-09	2.622966e+01	7.144192e+01
2.740000e-06	3.816124e-06	1.064641e-09	2.646793e+01	7.182299e+01
2.750000e-06	3.849981e-06	1.071504e-09	2.670276e+01	7.219502e+01
2.760000e-06	3.883384e-06	1.078132e-09	2.693443e+01	7.255820e+01
2.770000e-06	3.916332e-06	1.081385e-09	2.716296e+01	7.291274e+01
2.780000e-06	3.948903e-06	1.083672e-09	2.738886e+01	7.325883e+01
2.790000e-06	3.981209e-06	1.084789e-09	2.761293e+01	7.359667e+01
2.800000e-06	4.013332e-06	1.083902e-09	2.783573e+01	7.392646e+01
2.810000e-06	4.045287e-06	1.085442e-09	2.805736e+01	7.424841e+01
2.820000e-06	4.077091e-06	1.091268e-09	2.827795e+01	7.456271e+01
2.830000e-06	4.108705e-06	1.099034e-09	2.849722e+01	7.486957e+01
2.840000e-06	4.140022e-06	1.106211e-09	2.871443e+01	7.516919e+01
2.850000e-06	4.171117e-06	1.110921e-09	2.893010e+01	7.546176e+01
2.860000e-06	4.201975e-06	1.113161e-09	2.914412e+01	7.574749e+01
2.870000e-06	4.232473e-06	1.114552e-09	2.935565e+01	7.602655e+01
2.880000e-06	4.262578e-06	1.115750e-09	2.956445e+01	7.629913e+01
2.890000e-06	4.292327e-06	1.116552e-09	2.977078e+01	7.656542e+01
2.900000e-06	4.321872e-06	1.118058e-09	2.997571e+01	7.682557e+01
