# Temperatura_=_0.06
# Concentracion g/m^3_=_1620.0
# C_Vs_to_Am_M_A/Vsm_=_65563218390.804596
# pendiente_HvsI_1/m_=_3716.3
# ordenada_HvsI_A/m_=_1297.0
# frecuencia_Hz_=_135108.05949941874

Tiempo_(s)	Campo_(V.s)	Magnetizacion_(V.s)	Campo_(kA/m)	Magnetizacion_(A/m)
0.000000e+00	-5.519644e-06	-1.429385e-09	-3.836964e+01	-9.209369e+01
1.000000e-08	-5.519841e-06	-1.426199e-09	-3.837101e+01	-9.206765e+01
2.000000e-08	-5.519854e-06	-1.423958e-09	-3.837110e+01	-9.203758e+01
3.000000e-08	-5.519452e-06	-1.424499e-09	-3.836830e+01	-9.200346e+01
4.000000e-08	-5.518439e-06	-1.425341e-09	-3.836126e+01	-9.196522e+01
5.000000e-08	-5.516883e-06	-1.425296e-09	-3.835044e+01	-9.192282e+01
6.000000e-08	-5.514770e-06	-1.428706e-09	-3.833576e+01	-9.187624e+01
7.000000e-08	-5.512077e-06	-1.425437e-09	-3.831704e+01	-9.182544e+01
8.000000e-08	-5.508959e-06	-1.415026e-09	-3.829537e+01	-9.177037e+01
9.000000e-08	-5.505426e-06	-1.402485e-09	-3.827081e+01	-9.171103e+01
1.000000e-07	-5.501423e-06	-1.410351e-09	-3.824298e+01	-9.164739e+01
1.100000e-07	-5.497025e-06	-1.433579e-09	-3.821240e+01	-9.157943e+01
1.200000e-07	-5.492345e-06	-1.450047e-09	-3.817987e+01	-9.150714e+01
1.300000e-07	-5.487474e-06	-1.393737e-09	-3.814601e+01	-9.143053e+01
1.400000e-07	-5.482354e-06	-1.393291e-09	-3.811042e+01	-9.134959e+01
1.500000e-07	-5.476861e-06	-1.402038e-09	-3.807224e+01	-9.126435e+01
1.600000e-07	-5.470953e-06	-1.438492e-09	-3.803117e+01	-9.117480e+01
1.700000e-07	-5.464695e-06	-1.391504e-09	-3.798766e+01	-9.108098e+01
1.800000e-07	-5.458082e-06	-1.391724e-09	-3.794170e+01	-9.098292e+01
1.900000e-07	-5.450944e-06	-1.420496e-09	-3.789208e+01	-9.088065e+01
2.000000e-07	-5.443421e-06	-1.445854e-09	-3.783978e+01	-9.077421e+01
2.100000e-07	-5.435705e-06	-1.398016e-09	-3.778614e+01	-9.066365e+01
2.200000e-07	-5.427709e-06	-1.370920e-09	-3.773056e+01	-9.054901e+01
2.300000e-07	-5.419393e-06	-1.391006e-09	-3.767275e+01	-9.043036e+01
2.400000e-07	-5.410732e-06	-1.406326e-09	-3.761254e+01	-9.030774e+01
2.500000e-07	-5.401395e-06	-1.398911e-09	-3.754764e+01	-9.018122e+01
2.600000e-07	-5.391298e-06	-1.372867e-09	-3.747745e+01	-9.005086e+01
2.700000e-07	-5.380583e-06	-1.387986e-09	-3.740296e+01	-8.991672e+01
2.800000e-07	-5.369359e-06	-1.369017e-09	-3.732494e+01	-8.977886e+01
2.900000e-07	-5.357765e-06	-1.362398e-09	-3.724434e+01	-8.963735e+01
3.000000e-07	-5.345834e-06	-1.345983e-09	-3.716140e+01	-8.949225e+01
3.100000e-07	-5.333563e-06	-1.373644e-09	-3.707610e+01	-8.934362e+01
3.200000e-07	-5.320906e-06	-1.353302e-09	-3.698812e+01	-8.919151e+01
3.300000e-07	-5.307824e-06	-1.364086e-09	-3.689718e+01	-8.903598e+01
3.400000e-07	-5.294248e-06	-1.352786e-09	-3.680280e+01	-8.887708e+01
3.500000e-07	-5.280274e-06	-1.363930e-09	-3.670566e+01	-8.871486e+01
3.600000e-07	-5.265807e-06	-1.333084e-09	-3.660510e+01	-8.854934e+01
3.700000e-07	-5.250871e-06	-1.337109e-09	-3.650127e+01	-8.838057e+01
3.800000e-07	-5.235528e-06	-1.327147e-09	-3.639462e+01	-8.820857e+01
3.900000e-07	-5.219633e-06	-1.349973e-09	-3.628412e+01	-8.803337e+01
4.000000e-07	-5.203353e-06	-1.347156e-09	-3.617095e+01	-8.785497e+01
4.100000e-07	-5.186723e-06	-1.337022e-09	-3.605535e+01	-8.767338e+01
4.200000e-07	-5.169702e-06	-1.326158e-09	-3.593703e+01	-8.748861e+01
4.300000e-07	-5.152397e-06	-1.335250e-09	-3.581673e+01	-8.730064e+01
4.400000e-07	-5.134861e-06	-1.314896e-09	-3.569483e+01	-8.710947e+01
4.500000e-07	-5.116943e-06	-1.290362e-09	-3.557027e+01	-8.691506e+01
4.600000e-07	-5.098502e-06	-1.308502e-09	-3.544208e+01	-8.671740e+01
4.700000e-07	-5.079648e-06	-1.320966e-09	-3.531102e+01	-8.651644e+01
4.800000e-07	-5.060448e-06	-1.296605e-09	-3.517755e+01	-8.631216e+01
4.900000e-07	-5.040986e-06	-1.294360e-09	-3.504226e+01	-8.610450e+01
5.000000e-07	-5.021303e-06	-1.323083e-09	-3.490544e+01	-8.589341e+01
5.100000e-07	-5.001388e-06	-1.300065e-09	-3.476700e+01	-8.567885e+01
5.200000e-07	-4.981254e-06	-1.276341e-09	-3.462704e+01	-8.546075e+01
5.300000e-07	-4.960787e-06	-1.283543e-09	-3.448476e+01	-8.523906e+01
5.400000e-07	-4.939894e-06	-1.281522e-09	-3.433952e+01	-8.501372e+01
5.500000e-07	-4.918666e-06	-1.252850e-09	-3.419196e+01	-8.478466e+01
5.600000e-07	-4.897148e-06	-1.274938e-09	-3.404238e+01	-8.455182e+01
5.700000e-07	-4.875304e-06	-1.284624e-09	-3.389053e+01	-8.431515e+01
5.800000e-07	-4.853095e-06	-1.267000e-09	-3.373614e+01	-8.407457e+01
5.900000e-07	-4.830434e-06	-1.263872e-09	-3.357861e+01	-8.383004e+01
6.000000e-07	-4.807377e-06	-1.284488e-09	-3.341834e+01	-8.358150e+01
6.100000e-07	-4.784066e-06	-1.253599e-09	-3.325629e+01	-8.332889e+01
6.200000e-07	-4.760585e-06	-1.235607e-09	-3.309306e+01	-8.307216e+01
6.300000e-07	-4.736895e-06	-1.242268e-09	-3.292838e+01	-8.281129e+01
6.400000e-07	-4.712936e-06	-1.241061e-09	-3.276183e+01	-8.254621e+01
6.500000e-07	-4.688669e-06	-1.221404e-09	-3.259314e+01	-8.227691e+01
6.600000e-07	-4.664000e-06	-1.237232e-09	-3.242166e+01	-8.200336e+01
6.700000e-07	-4.638785e-06	-1.240434e-09	-3.224637e+01	-8.172553e+01
6.800000e-07	-4.612992e-06	-1.225491e-09	-3.206708e+01	-8.144340e+01
6.900000e-07	-4.586599e-06	-1.218273e-09	-3.188361e+01	-8.115697e+01
7.000000e-07	-4.559672e-06	-1.224019e-09	-3.169642e+01	-8.086624e+01
7.100000e-07	-4.532446e-06	-1.206503e-09	-3.150716e+01	-8.057119e+01
7.200000e-07	-4.505017e-06	-1.195891e-09	-3.131649e+01	-8.027185e+01
7.300000e-07	-4.477376e-06	-1.200004e-09	-3.112435e+01	-7.996822e+01
7.400000e-07	-4.449553e-06	-1.199790e-09	-3.093094e+01	-7.966032e+01
7.500000e-07	-4.421497e-06	-1.191775e-09	-3.073591e+01	-7.934817e+01
7.600000e-07	-4.393144e-06	-1.192827e-09	-3.053881e+01	-7.903179e+01
7.700000e-07	-4.364597e-06	-1.190985e-09	-3.034037e+01	-7.871121e+01
7.800000e-07	-4.335758e-06	-1.175483e-09	-3.013989e+01	-7.838645e+01
7.900000e-07	-4.306517e-06	-1.166578e-09	-2.993663e+01	-7.805755e+01
8.000000e-07	-4.276949e-06	-1.162598e-09	-2.973108e+01	-7.772453e+01
8.100000e-07	-4.247130e-06	-1.155427e-09	-2.952379e+01	-7.738744e+01
8.200000e-07	-4.216989e-06	-1.144967e-09	-2.931427e+01	-7.704628e+01
8.300000e-07	-4.186491e-06	-1.143064e-09	-2.910227e+01	-7.670110e+01
8.400000e-07	-4.155749e-06	-1.133308e-09	-2.888856e+01	-7.635191e+01
8.500000e-07	-4.124798e-06	-1.126162e-09	-2.867341e+01	-7.599874e+01
8.600000e-07	-4.093589e-06	-1.122187e-09	-2.845646e+01	-7.564160e+01
8.700000e-07	-4.062132e-06	-1.121782e-09	-2.823779e+01	-7.528050e+01
8.800000e-07	-4.030525e-06	-1.112611e-09	-2.801807e+01	-7.491545e+01
8.900000e-07	-3.998717e-06	-1.112097e-09	-2.779696e+01	-7.454645e+01
9.000000e-07	-3.966660e-06	-1.107018e-09	-2.757412e+01	-7.417350e+01
9.100000e-07	-3.934388e-06	-1.098381e-09	-2.734978e+01	-7.379658e+01
9.200000e-07	-3.901716e-06	-1.087727e-09	-2.712266e+01	-7.341567e+01
9.300000e-07	-3.868557e-06	-1.085042e-09	-2.689216e+01	-7.303075e+01
9.400000e-07	-3.834949e-06	-1.076098e-09	-2.665853e+01	-7.264179e+01
9.500000e-07	-3.800866e-06	-1.070434e-09	-2.642161e+01	-7.224874e+01
9.600000e-07	-3.766313e-06	-1.066910e-09	-2.618141e+01	-7.185156e+01
9.700000e-07	-3.731323e-06	-1.062553e-09	-2.593818e+01	-7.145020e+01
9.800000e-07	-3.696074e-06	-1.051715e-09	-2.569315e+01	-7.104459e+01
9.900000e-07	-3.660684e-06	-1.046861e-09	-2.544714e+01	-7.063468e+01
1.000000e-06	-3.625149e-06	-1.042831e-09	-2.520012e+01	-7.022040e+01
1.010000e-06	-3.589499e-06	-1.036331e-09	-2.495230e+01	-6.980168e+01
1.020000e-06	-3.553704e-06	-1.030280e-09	-2.470347e+01	-6.937844e+01
1.030000e-06	-3.517757e-06	-1.024712e-09	-2.445359e+01	-6.895061e+01
1.040000e-06	-3.481713e-06	-1.012507e-09	-2.420302e+01	-6.851811e+01
1.050000e-06	-3.445364e-06	-1.000954e-09	-2.395034e+01	-6.808086e+01
1.060000e-06	-3.408605e-06	-9.948457e-10	-2.369481e+01	-6.763878e+01
1.070000e-06	-3.371516e-06	-9.880613e-10	-2.343700e+01	-6.719181e+01
1.080000e-06	-3.334139e-06	-9.806553e-10	-2.317716e+01	-6.673987e+01
1.090000e-06	-3.296588e-06	-9.757732e-10	-2.291613e+01	-6.628289e+01
1.100000e-06	-3.258853e-06	-9.710309e-10	-2.265382e+01	-6.582081e+01
1.110000e-06	-3.220878e-06	-9.597593e-10	-2.238983e+01	-6.535357e+01
1.120000e-06	-3.182648e-06	-9.524029e-10	-2.212408e+01	-6.488113e+01
1.130000e-06	-3.144212e-06	-9.435057e-10	-2.185689e+01	-6.440344e+01
1.140000e-06	-3.105594e-06	-9.336412e-10	-2.158844e+01	-6.392047e+01
1.150000e-06	-3.066692e-06	-9.246477e-10	-2.131802e+01	-6.343219e+01
1.160000e-06	-3.027565e-06	-9.201291e-10	-2.104603e+01	-6.293858e+01
1.170000e-06	-2.988328e-06	-9.126626e-10	-2.077327e+01	-6.243963e+01
1.180000e-06	-2.948955e-06	-9.053606e-10	-2.049957e+01	-6.193536e+01
1.190000e-06	-2.909398e-06	-8.961759e-10	-2.022459e+01	-6.142576e+01
1.200000e-06	-2.869722e-06	-8.866606e-10	-1.994878e+01	-6.091085e+01
1.210000e-06	-2.829969e-06	-8.757023e-10	-1.967244e+01	-6.039067e+01
1.220000e-06	-2.790087e-06	-8.683548e-10	-1.939520e+01	-5.986525e+01
1.230000e-06	-2.750071e-06	-8.593181e-10	-1.911703e+01	-5.933463e+01
1.240000e-06	-2.709909e-06	-8.471898e-10	-1.883785e+01	-5.879885e+01
1.250000e-06	-2.669541e-06	-8.334726e-10	-1.855724e+01	-5.825797e+01
1.260000e-06	-2.628832e-06	-8.244410e-10	-1.827425e+01	-5.771204e+01
1.270000e-06	-2.587763e-06	-8.182976e-10	-1.798876e+01	-5.716113e+01
1.280000e-06	-2.546401e-06	-8.148472e-10	-1.770123e+01	-5.660527e+01
1.290000e-06	-2.504713e-06	-8.114442e-10	-1.741144e+01	-5.604454e+01
1.300000e-06	-2.462725e-06	-8.031781e-10	-1.711956e+01	-5.547897e+01
1.310000e-06	-2.420477e-06	-7.884747e-10	-1.682588e+01	-5.490860e+01
1.320000e-06	-2.378028e-06	-7.739884e-10	-1.653079e+01	-5.433348e+01
1.330000e-06	-2.335374e-06	-7.619190e-10	-1.623428e+01	-5.375363e+01
1.340000e-06	-2.292487e-06	-7.511363e-10	-1.593615e+01	-5.316905e+01
1.350000e-06	-2.249399e-06	-7.442953e-10	-1.563663e+01	-5.257975e+01
1.360000e-06	-2.206120e-06	-7.403998e-10	-1.533577e+01	-5.198569e+01
1.370000e-06	-2.162683e-06	-7.353561e-10	-1.503382e+01	-5.138683e+01
1.380000e-06	-2.119097e-06	-7.254807e-10	-1.473084e+01	-5.078312e+01
1.390000e-06	-2.075451e-06	-7.120901e-10	-1.442744e+01	-5.017445e+01
1.400000e-06	-2.031765e-06	-6.963168e-10	-1.412375e+01	-4.956072e+01
1.410000e-06	-1.987956e-06	-6.818057e-10	-1.381921e+01	-4.894177e+01
1.420000e-06	-1.944033e-06	-6.705034e-10	-1.351389e+01	-4.831744e+01
1.430000e-06	-1.900035e-06	-6.635734e-10	-1.320804e+01	-4.768751e+01
1.440000e-06	-1.855954e-06	-6.561935e-10	-1.290161e+01	-4.705176e+01
1.450000e-06	-1.811812e-06	-6.469868e-10	-1.259476e+01	-4.640991e+01
1.460000e-06	-1.767547e-06	-6.352173e-10	-1.228705e+01	-4.576165e+01
1.470000e-06	-1.723072e-06	-6.226700e-10	-1.197788e+01	-4.510665e+01
1.480000e-06	-1.678495e-06	-6.098082e-10	-1.166801e+01	-4.444453e+01
1.490000e-06	-1.633731e-06	-5.997396e-10	-1.135684e+01	-4.377489e+01
1.500000e-06	-1.588779e-06	-5.925654e-10	-1.104435e+01	-4.309728e+01
1.510000e-06	-1.543731e-06	-5.857087e-10	-1.073120e+01	-4.241125e+01
1.520000e-06	-1.498530e-06	-5.760077e-10	-1.041699e+01	-4.171627e+01
1.530000e-06	-1.453241e-06	-5.659806e-10	-1.010216e+01	-4.101183e+01
1.540000e-06	-1.407896e-06	-5.540670e-10	-9.786950e+00	-4.029735e+01
1.550000e-06	-1.362471e-06	-5.399483e-10	-9.471174e+00	-3.957228e+01
1.560000e-06	-1.316969e-06	-5.251496e-10	-9.154873e+00	-3.883598e+01
1.570000e-06	-1.271428e-06	-5.144992e-10	-8.838294e+00	-3.808786e+01
1.580000e-06	-1.225878e-06	-5.065843e-10	-8.521652e+00	-3.732727e+01
1.590000e-06	-1.180231e-06	-4.977286e-10	-8.204344e+00	-3.655357e+01
1.600000e-06	-1.134408e-06	-4.876009e-10	-7.885802e+00	-3.576611e+01
1.610000e-06	-1.088468e-06	-4.764783e-10	-7.566453e+00	-3.496423e+01
1.620000e-06	-1.042507e-06	-4.635223e-10	-7.246956e+00	-3.414728e+01
1.630000e-06	-9.964820e-07	-4.489090e-10	-6.927015e+00	-3.331462e+01
1.640000e-06	-9.502975e-07	-4.357183e-10	-6.605964e+00	-3.246561e+01
1.650000e-06	-9.040521e-07	-4.233536e-10	-6.284491e+00	-3.159965e+01
1.660000e-06	-8.578424e-07	-4.095236e-10	-5.963266e+00	-3.071615e+01
1.670000e-06	-8.115744e-07	-3.952617e-10	-5.641635e+00	-2.981454e+01
1.680000e-06	-7.651641e-07	-3.827487e-10	-5.319015e+00	-2.889429e+01
1.690000e-06	-7.186972e-07	-3.695495e-10	-4.996002e+00	-2.795492e+01
1.700000e-06	-6.722703e-07	-3.548677e-10	-4.673267e+00	-2.699598e+01
1.710000e-06	-6.257302e-07	-3.393515e-10	-4.349744e+00	-2.601707e+01
1.720000e-06	-5.790952e-07	-3.220094e-10	-4.025563e+00	-2.501784e+01
1.730000e-06	-5.324654e-07	-3.030544e-10	-3.701417e+00	-2.399801e+01
1.740000e-06	-4.858558e-07	-2.840926e-10	-3.377412e+00	-2.295735e+01
1.750000e-06	-4.392272e-07	-2.658512e-10	-3.053275e+00	-2.189571e+01
1.760000e-06	-3.924620e-07	-2.490906e-10	-2.728188e+00	-2.081299e+01
1.770000e-06	-3.456315e-07	-2.341390e-10	-2.402647e+00	-1.970918e+01
1.780000e-06	-2.987901e-07	-2.214143e-10	-2.077030e+00	-1.858433e+01
1.790000e-06	-2.519673e-07	-2.082850e-10	-1.751543e+00	-1.743860e+01
1.800000e-06	-2.051704e-07	-1.931996e-10	-1.426236e+00	-1.627218e+01
1.810000e-06	-1.583844e-07	-1.748349e-10	-1.101005e+00	-1.508538e+01
1.820000e-06	-1.116224e-07	-1.551050e-10	-7.759397e-01	-1.387857e+01
1.830000e-06	-6.479120e-08	-1.348962e-10	-4.503941e-01	-1.265223e+01
1.840000e-06	-1.789246e-08	-1.159325e-10	-1.243789e-01	-1.140690e+01
1.850000e-06	2.894970e-08	-9.826563e-11	2.012430e-01	-1.014319e+01
1.860000e-06	7.573823e-08	-8.087673e-11	5.264920e-01	-8.861826e+00
1.870000e-06	1.225095e-07	-6.160221e-11	8.516215e-01	-7.563582e+00
1.880000e-06	1.692970e-07	-4.244083e-11	1.176863e+00	-6.249321e+00
1.890000e-06	2.160844e-07	-2.488749e-11	1.502104e+00	-4.919976e+00
1.900000e-06	2.628528e-07	-8.134880e-12	1.827214e+00	-3.576549e+00
1.910000e-06	3.096273e-07	9.461386e-12	2.152365e+00	-2.220109e+00
1.920000e-06	3.564324e-07	2.972935e-11	2.477729e+00	-8.517853e-01
1.930000e-06	4.031984e-07	5.162606e-11	2.802822e+00	5.272359e-01
1.940000e-06	4.498906e-07	7.293910e-11	3.127401e+00	1.915718e+00
1.950000e-06	4.965777e-07	9.319102e-11	3.451945e+00	3.312378e+00
1.960000e-06	5.431754e-07	1.129952e-10	3.775868e+00	4.715893e+00
1.970000e-06	5.896821e-07	1.311608e-10	4.099158e+00	6.124909e+00
1.980000e-06	6.361539e-07	1.492888e-10	4.422204e+00	7.538042e+00
1.990000e-06	6.825873e-07	1.674420e-10	4.744985e+00	8.953890e+00
2.000000e-06	7.289271e-07	1.854022e-10	5.067115e+00	1.037103e+01
2.010000e-06	7.751931e-07	2.056875e-10	5.388732e+00	1.178805e+01
2.020000e-06	8.214473e-07	2.266810e-10	5.710266e+00	1.320352e+01
2.030000e-06	8.677356e-07	2.498061e-10	6.032038e+00	1.461602e+01
2.040000e-06	9.139806e-07	2.743057e-10	6.353509e+00	1.602415e+01
2.050000e-06	9.600450e-07	2.964161e-10	6.673724e+00	1.742653e+01
2.060000e-06	1.005984e-06	3.175302e-10	6.993069e+00	1.882179e+01
2.070000e-06	1.051865e-06	3.351702e-10	7.312011e+00	2.020863e+01
2.080000e-06	1.097708e-06	3.500113e-10	7.630681e+00	2.158574e+01
2.090000e-06	1.143474e-06	3.661709e-10	7.948828e+00	2.295191e+01
2.100000e-06	1.189194e-06	3.858730e-10	8.266645e+00	2.430592e+01
2.110000e-06	1.234828e-06	4.053138e-10	8.583870e+00	2.564666e+01
2.120000e-06	1.280361e-06	4.244665e-10	8.900394e+00	2.697305e+01
2.130000e-06	1.325814e-06	4.424900e-10	9.216353e+00	2.828408e+01
2.140000e-06	1.371106e-06	4.582565e-10	9.531203e+00	2.957880e+01
2.150000e-06	1.416327e-06	4.733113e-10	9.845557e+00	3.085635e+01
2.160000e-06	1.461515e-06	4.892140e-10	1.015968e+01	3.211592e+01
2.170000e-06	1.506583e-06	5.060709e-10	1.047296e+01	3.335681e+01
2.180000e-06	1.551539e-06	5.237915e-10	1.078548e+01	3.457835e+01
2.190000e-06	1.596389e-06	5.419642e-10	1.109725e+01	3.577999e+01
2.200000e-06	1.641110e-06	5.577794e-10	1.140812e+01	3.696123e+01
2.210000e-06	1.685704e-06	5.695918e-10	1.171812e+01	3.812168e+01
2.220000e-06	1.730184e-06	5.804254e-10	1.202732e+01	3.926099e+01
2.230000e-06	1.774477e-06	5.931882e-10	1.233522e+01	4.037892e+01
2.240000e-06	1.818603e-06	6.093594e-10	1.264196e+01	4.147528e+01
2.250000e-06	1.862655e-06	6.281784e-10	1.294819e+01	4.254998e+01
2.260000e-06	1.906582e-06	6.470171e-10	1.325355e+01	4.360298e+01
2.270000e-06	1.950422e-06	6.624088e-10	1.355830e+01	4.463433e+01
2.280000e-06	1.994244e-06	6.744794e-10	1.386293e+01	4.564411e+01
2.290000e-06	2.037982e-06	6.844495e-10	1.416697e+01	4.663250e+01
2.300000e-06	2.081638e-06	6.918450e-10	1.447044e+01	4.759972e+01
2.310000e-06	2.125235e-06	7.001539e-10	1.477351e+01	4.854604e+01
2.320000e-06	2.168790e-06	7.148181e-10	1.507628e+01	4.947179e+01
2.330000e-06	2.212279e-06	7.342363e-10	1.537859e+01	5.037734e+01
2.340000e-06	2.255654e-06	7.527218e-10	1.568011e+01	5.126310e+01
2.350000e-06	2.298889e-06	7.675341e-10	1.598066e+01	5.212951e+01
2.360000e-06	2.342001e-06	7.785301e-10	1.628035e+01	5.297706e+01
2.370000e-06	2.384863e-06	7.868899e-10	1.657830e+01	5.380624e+01
2.380000e-06	2.427309e-06	7.935973e-10	1.687337e+01	5.461757e+01
2.390000e-06	2.469407e-06	8.015689e-10	1.716601e+01	5.541160e+01
2.400000e-06	2.511247e-06	8.114606e-10	1.745686e+01	5.618888e+01
2.410000e-06	2.552724e-06	8.235003e-10	1.774518e+01	5.694995e+01
2.420000e-06	2.593822e-06	8.378705e-10	1.803087e+01	5.769539e+01
2.430000e-06	2.634670e-06	8.514944e-10	1.831483e+01	5.842575e+01
2.440000e-06	2.675236e-06	8.623925e-10	1.859683e+01	5.914158e+01
2.450000e-06	2.715587e-06	8.722440e-10	1.887732e+01	5.984342e+01
2.460000e-06	2.755765e-06	8.805446e-10	1.915662e+01	6.053181e+01
2.470000e-06	2.795750e-06	8.884069e-10	1.943457e+01	6.120726e+01
2.480000e-06	2.835594e-06	8.951956e-10	1.971155e+01	6.187026e+01
2.490000e-06	2.875308e-06	9.035914e-10	1.998762e+01	6.252129e+01
2.500000e-06	2.914936e-06	9.134373e-10	2.026309e+01	6.316081e+01
2.510000e-06	2.954481e-06	9.241114e-10	2.053798e+01	6.378924e+01
2.520000e-06	2.993853e-06	9.349907e-10	2.081168e+01	6.440698e+01
2.530000e-06	3.033003e-06	9.438166e-10	2.108383e+01	6.501441e+01
2.540000e-06	3.071892e-06	9.532952e-10	2.135417e+01	6.561187e+01
2.550000e-06	3.110547e-06	9.639316e-10	2.162287e+01	6.619968e+01
2.560000e-06	3.149014e-06	9.723544e-10	2.189028e+01	6.677814e+01
2.570000e-06	3.187316e-06	9.784045e-10	2.215653e+01	6.734750e+01
2.580000e-06	3.225375e-06	9.852986e-10	2.242110e+01	6.790801e+01
2.590000e-06	3.263244e-06	9.952527e-10	2.268434e+01	6.845986e+01
2.600000e-06	3.300929e-06	1.003877e-09	2.294631e+01	6.900325e+01
2.610000e-06	3.338350e-06	1.011052e-09	2.320644e+01	6.953832e+01
2.620000e-06	3.375522e-06	1.018208e-09	2.346484e+01	7.006523e+01
2.630000e-06	3.412364e-06	1.024396e-09	2.372095e+01	7.058407e+01
2.640000e-06	3.448897e-06	1.032064e-09	2.397490e+01	7.109496e+01
2.650000e-06	3.485192e-06	1.042793e-09	2.422721e+01	7.159795e+01
2.660000e-06	3.521288e-06	1.056497e-09	2.447813e+01	7.209313e+01
2.670000e-06	3.557218e-06	1.064895e-09	2.472790e+01	7.258052e+01
2.680000e-06	3.592947e-06	1.068189e-09	2.497626e+01	7.306019e+01
2.690000e-06	3.628528e-06	1.069070e-09	2.522360e+01	7.353214e+01
2.700000e-06	3.664005e-06	1.069494e-09	2.547022e+01	7.399640e+01
2.710000e-06	3.699292e-06	1.074237e-09	2.571552e+01	7.445299e+01
2.720000e-06	3.734405e-06	1.083338e-09	2.595961e+01	7.490192e+01
2.730000e-06	3.769293e-06	1.093860e-09	2.620213e+01	7.534320e+01
2.740000e-06	3.803781e-06	1.102299e-09	2.644187e+01	7.577683e+01
2.750000e-06	3.837733e-06	1.107708e-09	2.667789e+01	7.620285e+01
2.760000e-06	3.871222e-06	1.111692e-09	2.691068e+01	7.662125e+01
2.770000e-06	3.904377e-06	1.114657e-09	2.714116e+01	7.703206e+01
2.780000e-06	3.937068e-06	1.118679e-09	2.736841e+01	7.743530e+01
2.790000e-06	3.969281e-06	1.124885e-09	2.759233e+01	7.783102e+01
2.800000e-06	4.001255e-06	1.132190e-09	2.781461e+01	7.821925e+01
2.810000e-06	4.033052e-06	1.139361e-09	2.803564e+01	7.860004e+01
2.820000e-06	4.064690e-06	1.144038e-09	2.825557e+01	7.897345e+01
2.830000e-06	4.096187e-06	1.145454e-09	2.847452e+01	7.933955e+01
2.840000e-06	4.127473e-06	1.147384e-09	2.869200e+01	7.969841e+01
2.850000e-06	4.158516e-06	1.151796e-09	2.890780e+01	8.005012e+01
2.860000e-06	4.189250e-06	1.155288e-09	2.912145e+01	8.039477e+01
2.870000e-06	4.219631e-06	1.158722e-09	2.933264e+01	8.073247e+01
2.880000e-06	4.249733e-06	1.163257e-09	2.954189e+01	8.106333e+01
2.890000e-06	4.279544e-06	1.168513e-09	2.974912e+01	8.138746e+01
2.900000e-06	4.309083e-06	1.172971e-09	2.995446e+01	8.170499e+01
