# Temperatura_=_8.07
# Concentracion g/m^3_=_1620.0
# C_Vs_to_Am_M_A/Vsm_=_65563218390.804596
# pendiente_HvsI_1/m_=_3716.3
# ordenada_HvsI_A/m_=_1297.0
# frecuencia_Hz_=_135109.16949250636

Tiempo_(s)	Campo_(V.s)	Magnetizacion_(V.s)	Campo_(kA/m)	Magnetizacion_(A/m)
0.000000e+00	-5.510835e-06	-1.327182e-09	-3.836828e+01	-8.603283e+01
1.000000e-08	-5.510998e-06	-1.321735e-09	-3.836941e+01	-8.601431e+01
2.000000e-08	-5.510986e-06	-1.316258e-09	-3.836933e+01	-8.599433e+01
3.000000e-08	-5.510696e-06	-1.314388e-09	-3.836732e+01	-8.597281e+01
4.000000e-08	-5.509984e-06	-1.315590e-09	-3.836235e+01	-8.594966e+01
5.000000e-08	-5.508685e-06	-1.316772e-09	-3.835331e+01	-8.592480e+01
6.000000e-08	-5.506809e-06	-1.309939e-09	-3.834025e+01	-8.589809e+01
7.000000e-08	-5.504375e-06	-1.296151e-09	-3.832330e+01	-8.586942e+01
8.000000e-08	-5.501368e-06	-1.297347e-09	-3.830237e+01	-8.583866e+01
9.000000e-08	-5.497788e-06	-1.322886e-09	-3.827745e+01	-8.580564e+01
1.000000e-07	-5.493676e-06	-1.378620e-09	-3.824881e+01	-8.577022e+01
1.100000e-07	-5.489202e-06	-1.383775e-09	-3.821766e+01	-8.573222e+01
1.200000e-07	-5.484573e-06	-1.281822e-09	-3.818543e+01	-8.569147e+01
1.300000e-07	-5.479865e-06	-1.243990e-09	-3.815266e+01	-8.564780e+01
1.400000e-07	-5.474873e-06	-1.324924e-09	-3.811790e+01	-8.560100e+01
1.500000e-07	-5.469384e-06	-1.359564e-09	-3.807968e+01	-8.555091e+01
1.600000e-07	-5.463461e-06	-1.297030e-09	-3.803845e+01	-8.549732e+01
1.700000e-07	-5.457216e-06	-1.215552e-09	-3.799496e+01	-8.544004e+01
1.800000e-07	-5.450532e-06	-1.347800e-09	-3.794843e+01	-8.537889e+01
1.900000e-07	-5.443356e-06	-1.377757e-09	-3.789847e+01	-8.531368e+01
2.000000e-07	-5.435877e-06	-1.323418e-09	-3.784640e+01	-8.524423e+01
2.100000e-07	-5.428201e-06	-1.224231e-09	-3.779295e+01	-8.517036e+01
2.200000e-07	-5.420230e-06	-1.303822e-09	-3.773746e+01	-8.509189e+01
2.300000e-07	-5.411936e-06	-1.330603e-09	-3.767971e+01	-8.500867e+01
2.400000e-07	-5.403360e-06	-1.300932e-09	-3.762000e+01	-8.492055e+01
2.500000e-07	-5.394280e-06	-1.252131e-09	-3.755678e+01	-8.482738e+01
2.600000e-07	-5.384439e-06	-1.282568e-09	-3.748827e+01	-8.472902e+01
2.700000e-07	-5.373796e-06	-1.304988e-09	-3.741417e+01	-8.462537e+01
2.800000e-07	-5.362594e-06	-1.264939e-09	-3.733618e+01	-8.451631e+01
2.900000e-07	-5.351020e-06	-1.245342e-09	-3.725560e+01	-8.440175e+01
3.000000e-07	-5.339122e-06	-1.261684e-09	-3.717276e+01	-8.428162e+01
3.100000e-07	-5.326936e-06	-1.295332e-09	-3.708791e+01	-8.415585e+01
3.200000e-07	-5.314356e-06	-1.241750e-09	-3.700033e+01	-8.402440e+01
3.300000e-07	-5.301280e-06	-1.244006e-09	-3.690928e+01	-8.388723e+01
3.400000e-07	-5.287803e-06	-1.242260e-09	-3.681545e+01	-8.374434e+01
3.500000e-07	-5.274009e-06	-1.285114e-09	-3.671942e+01	-8.359571e+01
3.600000e-07	-5.259710e-06	-1.229068e-09	-3.661986e+01	-8.344137e+01
3.700000e-07	-5.244839e-06	-1.230893e-09	-3.651633e+01	-8.328136e+01
3.800000e-07	-5.229562e-06	-1.238476e-09	-3.640996e+01	-8.311571e+01
3.900000e-07	-5.213821e-06	-1.266336e-09	-3.630037e+01	-8.294449e+01
4.000000e-07	-5.197391e-06	-1.205311e-09	-3.618598e+01	-8.276777e+01
4.100000e-07	-5.180622e-06	-1.230977e-09	-3.606923e+01	-8.258566e+01
4.200000e-07	-5.163644e-06	-1.258933e-09	-3.595102e+01	-8.239824e+01
4.300000e-07	-5.146266e-06	-1.225276e-09	-3.583003e+01	-8.220564e+01
4.400000e-07	-5.128616e-06	-1.173287e-09	-3.570714e+01	-8.200798e+01
4.500000e-07	-5.110791e-06	-1.248251e-09	-3.558304e+01	-8.180540e+01
4.600000e-07	-5.092557e-06	-1.245896e-09	-3.545609e+01	-8.159804e+01
4.700000e-07	-5.073765e-06	-1.170302e-09	-3.532525e+01	-8.138605e+01
4.800000e-07	-5.054656e-06	-1.185598e-09	-3.519221e+01	-8.116959e+01
4.900000e-07	-5.035328e-06	-1.253401e-09	-3.505764e+01	-8.094883e+01
5.000000e-07	-5.015730e-06	-1.192818e-09	-3.492119e+01	-8.072393e+01
5.100000e-07	-4.995872e-06	-1.165734e-09	-3.478293e+01	-8.049507e+01
5.200000e-07	-4.975791e-06	-1.224391e-09	-3.464312e+01	-8.026242e+01
5.300000e-07	-4.955351e-06	-1.196247e-09	-3.450081e+01	-8.002615e+01
5.400000e-07	-4.934443e-06	-1.145249e-09	-3.435524e+01	-7.978642e+01
5.500000e-07	-4.913175e-06	-1.203465e-09	-3.420717e+01	-7.954342e+01
5.600000e-07	-4.891592e-06	-1.214844e-09	-3.405690e+01	-7.929729e+01
5.700000e-07	-4.869711e-06	-1.132503e-09	-3.390456e+01	-7.904820e+01
5.800000e-07	-4.847512e-06	-1.162200e-09	-3.375000e+01	-7.879631e+01
5.900000e-07	-4.824946e-06	-1.206904e-09	-3.359289e+01	-7.854175e+01
6.000000e-07	-4.802045e-06	-1.156669e-09	-3.343345e+01	-7.828466e+01
6.100000e-07	-4.778804e-06	-1.139716e-09	-3.327164e+01	-7.802517e+01
6.200000e-07	-4.755233e-06	-1.196517e-09	-3.310753e+01	-7.776339e+01
6.300000e-07	-4.731420e-06	-1.158320e-09	-3.294173e+01	-7.749943e+01
6.400000e-07	-4.707374e-06	-1.129230e-09	-3.277432e+01	-7.723338e+01
6.500000e-07	-4.683047e-06	-1.155185e-09	-3.260494e+01	-7.696532e+01
6.600000e-07	-4.658329e-06	-1.155337e-09	-3.243285e+01	-7.669531e+01
6.700000e-07	-4.633185e-06	-1.113683e-09	-3.225779e+01	-7.642340e+01
6.800000e-07	-4.607569e-06	-1.140826e-09	-3.207944e+01	-7.614963e+01
6.900000e-07	-4.581338e-06	-1.141457e-09	-3.189681e+01	-7.587402e+01
7.000000e-07	-4.554533e-06	-1.120507e-09	-3.171018e+01	-7.559657e+01
7.100000e-07	-4.527369e-06	-1.120850e-09	-3.152106e+01	-7.531728e+01
7.200000e-07	-4.499928e-06	-1.134285e-09	-3.133001e+01	-7.503613e+01
7.300000e-07	-4.472276e-06	-1.105850e-09	-3.113749e+01	-7.475307e+01
7.400000e-07	-4.444528e-06	-1.106233e-09	-3.094429e+01	-7.446806e+01
7.500000e-07	-4.416614e-06	-1.109620e-09	-3.074994e+01	-7.418102e+01
7.600000e-07	-4.388383e-06	-1.099195e-09	-3.055339e+01	-7.389188e+01
7.700000e-07	-4.359737e-06	-1.089971e-09	-3.035395e+01	-7.360053e+01
7.800000e-07	-4.330752e-06	-1.094431e-09	-3.015215e+01	-7.330689e+01
7.900000e-07	-4.301475e-06	-1.080093e-09	-2.994831e+01	-7.301082e+01
8.000000e-07	-4.271932e-06	-1.074967e-09	-2.974262e+01	-7.271220e+01
8.100000e-07	-4.242164e-06	-1.077879e-09	-2.953537e+01	-7.241090e+01
8.200000e-07	-4.212169e-06	-1.065116e-09	-2.932653e+01	-7.210676e+01
8.300000e-07	-4.181861e-06	-1.047368e-09	-2.911551e+01	-7.179964e+01
8.400000e-07	-4.151177e-06	-1.046074e-09	-2.890189e+01	-7.148937e+01
8.500000e-07	-4.120162e-06	-1.041933e-09	-2.868595e+01	-7.117578e+01
8.600000e-07	-4.088903e-06	-1.024006e-09	-2.846831e+01	-7.085872e+01
8.700000e-07	-4.057469e-06	-1.023736e-09	-2.824946e+01	-7.053801e+01
8.800000e-07	-4.025849e-06	-1.022548e-09	-2.802931e+01	-7.021347e+01
8.900000e-07	-3.994063e-06	-1.012931e-09	-2.780801e+01	-6.988494e+01
9.000000e-07	-3.962119e-06	-1.001021e-09	-2.758560e+01	-6.955224e+01
9.100000e-07	-3.929942e-06	-1.002315e-09	-2.736158e+01	-6.921521e+01
9.200000e-07	-3.897475e-06	-9.877312e-10	-2.713553e+01	-6.887369e+01
9.300000e-07	-3.864563e-06	-9.793178e-10	-2.690638e+01	-6.852751e+01
9.400000e-07	-3.831136e-06	-9.800632e-10	-2.667365e+01	-6.817653e+01
9.500000e-07	-3.797266e-06	-9.817126e-10	-2.643783e+01	-6.782061e+01
9.600000e-07	-3.762911e-06	-9.683625e-10	-2.619865e+01	-6.745961e+01
9.700000e-07	-3.728159e-06	-9.676381e-10	-2.595669e+01	-6.709340e+01
9.800000e-07	-3.693123e-06	-9.601620e-10	-2.571276e+01	-6.672189e+01
9.900000e-07	-3.657854e-06	-9.497158e-10	-2.546720e+01	-6.634496e+01
1.000000e-06	-3.622362e-06	-9.398271e-10	-2.522010e+01	-6.596253e+01
1.010000e-06	-3.586649e-06	-9.420994e-10	-2.497145e+01	-6.557454e+01
1.020000e-06	-3.550825e-06	-9.351368e-10	-2.472203e+01	-6.518092e+01
1.030000e-06	-3.514904e-06	-9.315460e-10	-2.447194e+01	-6.478162e+01
1.040000e-06	-3.478782e-06	-9.290692e-10	-2.422045e+01	-6.437663e+01
1.050000e-06	-3.442390e-06	-9.245161e-10	-2.396707e+01	-6.396592e+01
1.060000e-06	-3.405717e-06	-9.122965e-10	-2.371174e+01	-6.354950e+01
1.070000e-06	-3.368797e-06	-9.062791e-10	-2.345469e+01	-6.312738e+01
1.080000e-06	-3.331608e-06	-8.986283e-10	-2.319577e+01	-6.269960e+01
1.090000e-06	-3.294158e-06	-8.908418e-10	-2.293503e+01	-6.226621e+01
1.100000e-06	-3.256442e-06	-8.882274e-10	-2.267244e+01	-6.182725e+01
1.110000e-06	-3.218544e-06	-8.856527e-10	-2.240858e+01	-6.138281e+01
1.120000e-06	-3.180527e-06	-8.789659e-10	-2.214390e+01	-6.093297e+01
1.130000e-06	-3.142210e-06	-8.710604e-10	-2.187712e+01	-6.047782e+01
1.140000e-06	-3.103573e-06	-8.642055e-10	-2.160811e+01	-6.001747e+01
1.150000e-06	-3.064731e-06	-8.547112e-10	-2.133768e+01	-5.955204e+01
1.160000e-06	-3.025717e-06	-8.482023e-10	-2.106605e+01	-5.908163e+01
1.170000e-06	-2.986499e-06	-8.420356e-10	-2.079301e+01	-5.860638e+01
1.180000e-06	-2.947118e-06	-8.375146e-10	-2.051882e+01	-5.812642e+01
1.190000e-06	-2.907609e-06	-8.305290e-10	-2.024375e+01	-5.764187e+01
1.200000e-06	-2.867975e-06	-8.257882e-10	-1.996781e+01	-5.715287e+01
1.210000e-06	-2.828225e-06	-8.152791e-10	-1.969105e+01	-5.665955e+01
1.220000e-06	-2.788294e-06	-8.035544e-10	-1.941304e+01	-5.616202e+01
1.230000e-06	-2.748264e-06	-7.904592e-10	-1.913433e+01	-5.566041e+01
1.240000e-06	-2.708167e-06	-7.826490e-10	-1.885517e+01	-5.515482e+01
1.250000e-06	-2.667819e-06	-7.730583e-10	-1.857425e+01	-5.464534e+01
1.260000e-06	-2.627155e-06	-7.680075e-10	-1.829113e+01	-5.413208e+01
1.270000e-06	-2.586242e-06	-7.606262e-10	-1.800629e+01	-5.361508e+01
1.280000e-06	-2.545117e-06	-7.559276e-10	-1.771996e+01	-5.309441e+01
1.290000e-06	-2.503681e-06	-7.508388e-10	-1.743147e+01	-5.257009e+01
1.300000e-06	-2.461868e-06	-7.457529e-10	-1.714035e+01	-5.204214e+01
1.310000e-06	-2.419825e-06	-7.338311e-10	-1.684763e+01	-5.151055e+01
1.320000e-06	-2.377657e-06	-7.199078e-10	-1.655405e+01	-5.097527e+01
1.330000e-06	-2.335194e-06	-7.083010e-10	-1.625840e+01	-5.043625e+01
1.340000e-06	-2.292308e-06	-6.983747e-10	-1.595982e+01	-4.989338e+01
1.350000e-06	-2.249135e-06	-6.898618e-10	-1.565923e+01	-4.934655e+01
1.360000e-06	-2.205745e-06	-6.853907e-10	-1.535714e+01	-4.879560e+01
1.370000e-06	-2.162236e-06	-6.802128e-10	-1.505421e+01	-4.824035e+01
1.380000e-06	-2.118680e-06	-6.714231e-10	-1.475096e+01	-4.768059e+01
1.390000e-06	-2.075032e-06	-6.600725e-10	-1.444707e+01	-4.711606e+01
1.400000e-06	-2.031309e-06	-6.487402e-10	-1.414266e+01	-4.654647e+01
1.410000e-06	-1.987517e-06	-6.384140e-10	-1.383776e+01	-4.597152e+01
1.420000e-06	-1.943627e-06	-6.292114e-10	-1.353218e+01	-4.539086e+01
1.430000e-06	-1.899599e-06	-6.227870e-10	-1.322564e+01	-4.480410e+01
1.440000e-06	-1.855452e-06	-6.156282e-10	-1.291828e+01	-4.421083e+01
1.450000e-06	-1.811294e-06	-6.081285e-10	-1.261083e+01	-4.361061e+01
1.460000e-06	-1.767078e-06	-5.975192e-10	-1.230299e+01	-4.300298e+01
1.470000e-06	-1.722671e-06	-5.831395e-10	-1.199381e+01	-4.238742e+01
1.480000e-06	-1.678134e-06	-5.686065e-10	-1.168373e+01	-4.176342e+01
1.490000e-06	-1.633509e-06	-5.576702e-10	-1.137304e+01	-4.113042e+01
1.500000e-06	-1.588728e-06	-5.492881e-10	-1.106125e+01	-4.048787e+01
1.510000e-06	-1.543769e-06	-5.449062e-10	-1.074824e+01	-3.983518e+01
1.520000e-06	-1.498675e-06	-5.378390e-10	-1.043428e+01	-3.917175e+01
1.530000e-06	-1.453544e-06	-5.263181e-10	-1.012006e+01	-3.849696e+01
1.540000e-06	-1.408374e-06	-5.104139e-10	-9.805570e+00	-3.781020e+01
1.550000e-06	-1.363070e-06	-4.942019e-10	-9.490153e+00	-3.711084e+01
1.560000e-06	-1.317671e-06	-4.756765e-10	-9.174067e+00	-3.639826e+01
1.570000e-06	-1.272166e-06	-4.599056e-10	-8.857247e+00	-3.567184e+01
1.580000e-06	-1.226564e-06	-4.485501e-10	-8.539750e+00	-3.493095e+01
1.590000e-06	-1.180885e-06	-4.393022e-10	-8.221721e+00	-3.417500e+01
1.600000e-06	-1.135104e-06	-4.296886e-10	-7.902977e+00	-3.340340e+01
1.610000e-06	-1.089321e-06	-4.186995e-10	-7.584219e+00	-3.261557e+01
1.620000e-06	-1.043518e-06	-4.056651e-10	-7.265323e+00	-3.181098e+01
1.630000e-06	-9.975687e-07	-3.915483e-10	-6.945407e+00	-3.098909e+01
1.640000e-06	-9.515268e-07	-3.778230e-10	-6.624848e+00	-3.014944e+01
1.650000e-06	-9.053869e-07	-3.643369e-10	-6.303607e+00	-2.929157e+01
1.660000e-06	-8.591461e-07	-3.484310e-10	-5.981663e+00	-2.841508e+01
1.670000e-06	-8.128616e-07	-3.327147e-10	-5.659415e+00	-2.751958e+01
1.680000e-06	-7.665894e-07	-3.165998e-10	-5.337252e+00	-2.660478e+01
1.690000e-06	-7.203134e-07	-3.030786e-10	-5.015063e+00	-2.567041e+01
1.700000e-06	-6.739623e-07	-2.922987e-10	-4.692352e+00	-2.471625e+01
1.710000e-06	-6.275557e-07	-2.826125e-10	-4.369253e+00	-2.374215e+01
1.720000e-06	-5.811288e-07	-2.702481e-10	-4.046013e+00	-2.274801e+01
1.730000e-06	-5.346150e-07	-2.538905e-10	-3.722169e+00	-2.173382e+01
1.740000e-06	-4.879857e-07	-2.370872e-10	-3.397520e+00	-2.069959e+01
1.750000e-06	-4.413874e-07	-2.188180e-10	-3.073087e+00	-1.964544e+01
1.760000e-06	-3.947808e-07	-2.004791e-10	-2.748596e+00	-1.857152e+01
1.770000e-06	-3.480946e-07	-1.848762e-10	-2.423551e+00	-1.747808e+01
1.780000e-06	-3.012993e-07	-1.718222e-10	-2.097747e+00	-1.636543e+01
1.790000e-06	-2.545074e-07	-1.577292e-10	-1.771966e+00	-1.523393e+01
1.800000e-06	-2.077661e-07	-1.432465e-10	-1.446538e+00	-1.408404e+01
1.810000e-06	-1.610179e-07	-1.271109e-10	-1.121061e+00	-1.291627e+01
1.820000e-06	-1.142795e-07	-1.100461e-10	-7.956518e-01	-1.173120e+01
1.830000e-06	-6.751441e-08	-9.005158e-11	-4.700579e-01	-1.052949e+01
1.840000e-06	-2.068794e-08	-6.812354e-11	-1.440364e-01	-9.311835e+00
1.850000e-06	2.613456e-08	-4.819799e-11	1.819576e-01	-8.079025e+00
1.860000e-06	7.285904e-08	-3.207927e-11	5.072690e-01	-6.831892e+00
1.870000e-06	1.195319e-07	-1.472577e-11	8.322211e-01	-5.571330e+00
1.880000e-06	1.662449e-07	2.232186e-12	1.157453e+00	-4.298284e+00
1.890000e-06	2.130032e-07	1.762066e-11	1.483000e+00	-3.013753e+00
1.900000e-06	2.597143e-07	3.184766e-11	1.808218e+00	-1.718777e+00
1.910000e-06	3.063887e-07	4.732926e-11	2.133181e+00	-4.144428e-01
1.920000e-06	3.531167e-07	6.599508e-11	2.458517e+00	8.981288e-01
1.930000e-06	3.998437e-07	8.808865e-11	2.783845e+00	2.217783e+00
1.940000e-06	4.464802e-07	1.101338e-10	3.108545e+00	3.543337e+00
1.950000e-06	4.930735e-07	1.298060e-10	3.432943e+00	4.873586e+00
1.960000e-06	5.396249e-07	1.466878e-10	3.757049e+00	6.207307e+00
1.970000e-06	5.861025e-07	1.628715e-10	4.080642e+00	7.543265e+00
1.980000e-06	6.324704e-07	1.804004e-10	4.403471e+00	8.880219e+00
1.990000e-06	6.787472e-07	1.985662e-10	4.725665e+00	1.021692e+01
2.000000e-06	7.250169e-07	2.179383e-10	5.047811e+00	1.155214e+01
2.010000e-06	7.712741e-07	2.378843e-10	5.369868e+00	1.288464e+01
2.020000e-06	8.175248e-07	2.564128e-10	5.691882e+00	1.421321e+01
2.030000e-06	8.637251e-07	2.757236e-10	6.013544e+00	1.553665e+01
2.040000e-06	9.098131e-07	2.963016e-10	6.334424e+00	1.685378e+01
2.050000e-06	9.559249e-07	3.136671e-10	6.655470e+00	1.816346e+01
2.060000e-06	1.002070e-06	3.311611e-10	6.976750e+00	1.946460e+01
2.070000e-06	1.048052e-06	3.496917e-10	7.296892e+00	2.075610e+01
2.080000e-06	1.093931e-06	3.685667e-10	7.616317e+00	2.203695e+01
2.090000e-06	1.139776e-06	3.877324e-10	7.935499e+00	2.330616e+01
2.100000e-06	1.185452e-06	4.064964e-10	8.253515e+00	2.456280e+01
2.110000e-06	1.231030e-06	4.223248e-10	8.570845e+00	2.580599e+01
2.120000e-06	1.276593e-06	4.373522e-10	8.888066e+00	2.703489e+01
2.130000e-06	1.322037e-06	4.530330e-10	9.204468e+00	2.824875e+01
2.140000e-06	1.367379e-06	4.696194e-10	9.520154e+00	2.944684e+01
2.150000e-06	1.412660e-06	4.855386e-10	9.835411e+00	3.062853e+01
2.160000e-06	1.457781e-06	5.025766e-10	1.014956e+01	3.179323e+01
2.170000e-06	1.502651e-06	5.208160e-10	1.046196e+01	3.294040e+01
2.180000e-06	1.547408e-06	5.370629e-10	1.077357e+01	3.406960e+01
2.190000e-06	1.592147e-06	5.524022e-10	1.108506e+01	3.518043e+01
2.200000e-06	1.636750e-06	5.670189e-10	1.139560e+01	3.627255e+01
2.210000e-06	1.681177e-06	5.802919e-10	1.170492e+01	3.734569e+01
2.220000e-06	1.725511e-06	5.940550e-10	1.201359e+01	3.839964e+01
2.230000e-06	1.769774e-06	6.072242e-10	1.232176e+01	3.943426e+01
2.240000e-06	1.813891e-06	6.215081e-10	1.262891e+01	4.044944e+01
2.250000e-06	1.857901e-06	6.348383e-10	1.293533e+01	4.144517e+01
2.260000e-06	1.901820e-06	6.475889e-10	1.324111e+01	4.242144e+01
2.270000e-06	1.945659e-06	6.609760e-10	1.354633e+01	4.337834e+01
2.280000e-06	1.989439e-06	6.737484e-10	1.385114e+01	4.431597e+01
2.290000e-06	2.033157e-06	6.869802e-10	1.415552e+01	4.523450e+01
2.300000e-06	2.076856e-06	6.976944e-10	1.445976e+01	4.613414e+01
2.310000e-06	2.120498e-06	7.069320e-10	1.476362e+01	4.701512e+01
2.320000e-06	2.164064e-06	7.162883e-10	1.506694e+01	4.787772e+01
2.330000e-06	2.207547e-06	7.278247e-10	1.536968e+01	4.872226e+01
2.340000e-06	2.250847e-06	7.397233e-10	1.567115e+01	4.954905e+01
2.350000e-06	2.293935e-06	7.526988e-10	1.597114e+01	5.035848e+01
2.360000e-06	2.336839e-06	7.653368e-10	1.626985e+01	5.115091e+01
2.370000e-06	2.379555e-06	7.768160e-10	1.656726e+01	5.192675e+01
2.380000e-06	2.422089e-06	7.862107e-10	1.686339e+01	5.268640e+01
2.390000e-06	2.464231e-06	7.935582e-10	1.715680e+01	5.343028e+01
2.400000e-06	2.505894e-06	8.003163e-10	1.744687e+01	5.415882e+01
2.410000e-06	2.547151e-06	8.083383e-10	1.773412e+01	5.487246e+01
2.420000e-06	2.588044e-06	8.187747e-10	1.801883e+01	5.557161e+01
2.430000e-06	2.628700e-06	8.312525e-10	1.830189e+01	5.625670e+01
2.440000e-06	2.669131e-06	8.429111e-10	1.858339e+01	5.692816e+01
2.450000e-06	2.709419e-06	8.526193e-10	1.886388e+01	5.758640e+01
2.460000e-06	2.749607e-06	8.605208e-10	1.914369e+01	5.823182e+01
2.470000e-06	2.789648e-06	8.677273e-10	1.942246e+01	5.886482e+01
2.480000e-06	2.829522e-06	8.745252e-10	1.970008e+01	5.948576e+01
2.490000e-06	2.869211e-06	8.814073e-10	1.997641e+01	6.009501e+01
2.500000e-06	2.908767e-06	8.903318e-10	2.025181e+01	6.069292e+01
2.510000e-06	2.948183e-06	8.990027e-10	2.052623e+01	6.127980e+01
2.520000e-06	2.987445e-06	9.067637e-10	2.079960e+01	6.185598e+01
2.530000e-06	3.026559e-06	9.149754e-10	2.107192e+01	6.242173e+01
2.540000e-06	3.065445e-06	9.234115e-10	2.134266e+01	6.297733e+01
2.550000e-06	3.104109e-06	9.320543e-10	2.161184e+01	6.352303e+01
2.560000e-06	3.142498e-06	9.402436e-10	2.187913e+01	6.405905e+01
2.570000e-06	3.180590e-06	9.473055e-10	2.214433e+01	6.458562e+01
2.580000e-06	3.218478e-06	9.547955e-10	2.240812e+01	6.510293e+01
2.590000e-06	3.256185e-06	9.616550e-10	2.267065e+01	6.561115e+01
2.600000e-06	3.293731e-06	9.669487e-10	2.293206e+01	6.611044e+01
2.610000e-06	3.331144e-06	9.716516e-10	2.319254e+01	6.660096e+01
2.620000e-06	3.368285e-06	9.775550e-10	2.345113e+01	6.708283e+01
2.630000e-06	3.405105e-06	9.848994e-10	2.370748e+01	6.755618e+01
2.640000e-06	3.441683e-06	9.935362e-10	2.396215e+01	6.802110e+01
2.650000e-06	3.477994e-06	1.002858e-09	2.421496e+01	6.847771e+01
2.660000e-06	3.514100e-06	1.013484e-09	2.446634e+01	6.892608e+01
2.670000e-06	3.550048e-06	1.021854e-09	2.471662e+01	6.936631e+01
2.680000e-06	3.585823e-06	1.026239e-09	2.496570e+01	6.979847e+01
2.690000e-06	3.621489e-06	1.027210e-09	2.521402e+01	7.022263e+01
2.700000e-06	3.657055e-06	1.026375e-09	2.546164e+01	7.063886e+01
2.710000e-06	3.692432e-06	1.028966e-09	2.570795e+01	7.104724e+01
2.720000e-06	3.727539e-06	1.035430e-09	2.595238e+01	7.144784e+01
2.730000e-06	3.762343e-06	1.042985e-09	2.619469e+01	7.184072e+01
2.740000e-06	3.796678e-06	1.050683e-09	2.643374e+01	7.222597e+01
2.750000e-06	3.830525e-06	1.057377e-09	2.666940e+01	7.260366e+01
2.760000e-06	3.863948e-06	1.062819e-09	2.690210e+01	7.297387e+01
2.770000e-06	3.896883e-06	1.067426e-09	2.713141e+01	7.333669e+01
2.780000e-06	3.929389e-06	1.071314e-09	2.735772e+01	7.369223e+01
2.790000e-06	3.961582e-06	1.075798e-09	2.758186e+01	7.404057e+01
2.800000e-06	3.993573e-06	1.078703e-09	2.780460e+01	7.438182e+01
2.810000e-06	4.025396e-06	1.082054e-09	2.802615e+01	7.471610e+01
2.820000e-06	4.057059e-06	1.087920e-09	2.824661e+01	7.504353e+01
2.830000e-06	4.088548e-06	1.093278e-09	2.846584e+01	7.536424e+01
2.840000e-06	4.119781e-06	1.099429e-09	2.868329e+01	7.567836e+01
2.850000e-06	4.150713e-06	1.105070e-09	2.889865e+01	7.598603e+01
2.860000e-06	4.181389e-06	1.109847e-09	2.911223e+01	7.628740e+01
2.870000e-06	4.211747e-06	1.114200e-09	2.932359e+01	7.658261e+01
2.880000e-06	4.241741e-06	1.116423e-09	2.953242e+01	7.687183e+01
2.890000e-06	4.271474e-06	1.115352e-09	2.973943e+01	7.715520e+01
2.900000e-06	4.301004e-06	1.113260e-09	2.994503e+01	7.743290e+01
2.910000e-06	4.330218e-06	1.115119e-09	3.014843e+01	7.770507e+01
