# Temperatura_=_-0.3
# Concentracion g/m^3_=_1620.0
# C_Vs_to_Am_M_A/Vsm_=_65563218390.804596
# pendiente_HvsI_1/m_=_3716.3
# ordenada_HvsI_A/m_=_1297.0
# frecuencia_Hz_=_135103.66375774788

Tiempo_(s)	Campo_(V.s)	Magnetizacion_(V.s)	Campo_(kA/m)	Magnetizacion_(A/m)
0.000000e+00	-5.505831e-06	-1.477882e-09	-3.836252e+01	-9.614433e+01
1.000000e-08	-5.506066e-06	-1.478864e-09	-3.836415e+01	-9.614817e+01
2.000000e-08	-5.506030e-06	-1.478687e-09	-3.836390e+01	-9.615078e+01
3.000000e-08	-5.505610e-06	-1.477702e-09	-3.836098e+01	-9.615194e+01
4.000000e-08	-5.504846e-06	-1.474854e-09	-3.835565e+01	-9.615141e+01
5.000000e-08	-5.503520e-06	-1.470609e-09	-3.834641e+01	-9.614895e+01
6.000000e-08	-5.501512e-06	-1.466341e-09	-3.833242e+01	-9.614428e+01
7.000000e-08	-5.498966e-06	-1.477907e-09	-3.831468e+01	-9.613713e+01
8.000000e-08	-5.495931e-06	-1.498202e-09	-3.829354e+01	-9.612722e+01
9.000000e-08	-5.492420e-06	-1.461994e-09	-3.826907e+01	-9.611424e+01
1.000000e-07	-5.488439e-06	-1.388889e-09	-3.824133e+01	-9.609791e+01
1.100000e-07	-5.484130e-06	-1.455438e-09	-3.821131e+01	-9.607793e+01
1.200000e-07	-5.479591e-06	-1.551675e-09	-3.817969e+01	-9.605399e+01
1.300000e-07	-5.474804e-06	-1.513075e-09	-3.814633e+01	-9.602582e+01
1.400000e-07	-5.469659e-06	-1.395656e-09	-3.811048e+01	-9.599312e+01
1.500000e-07	-5.464154e-06	-1.406840e-09	-3.807212e+01	-9.595560e+01
1.600000e-07	-5.458280e-06	-1.537095e-09	-3.803120e+01	-9.591301e+01
1.700000e-07	-5.451965e-06	-1.517360e-09	-3.798720e+01	-9.586509e+01
1.800000e-07	-5.445275e-06	-1.411097e-09	-3.794058e+01	-9.581159e+01
1.900000e-07	-5.438226e-06	-1.399032e-09	-3.789147e+01	-9.575230e+01
2.000000e-07	-5.430870e-06	-1.485668e-09	-3.784022e+01	-9.568699e+01
2.100000e-07	-5.423266e-06	-1.510776e-09	-3.778723e+01	-9.561549e+01
2.200000e-07	-5.415346e-06	-1.456866e-09	-3.773205e+01	-9.553763e+01
2.300000e-07	-5.407079e-06	-1.434509e-09	-3.767445e+01	-9.545325e+01
2.400000e-07	-5.398370e-06	-1.465056e-09	-3.761377e+01	-9.536225e+01
2.500000e-07	-5.389099e-06	-1.470525e-09	-3.754917e+01	-9.526451e+01
2.600000e-07	-5.379206e-06	-1.433297e-09	-3.748024e+01	-9.515995e+01
2.700000e-07	-5.368691e-06	-1.415505e-09	-3.740698e+01	-9.504854e+01
2.800000e-07	-5.357634e-06	-1.437780e-09	-3.732994e+01	-9.493024e+01
2.900000e-07	-5.346142e-06	-1.447932e-09	-3.724986e+01	-9.480503e+01
3.000000e-07	-5.334280e-06	-1.415396e-09	-3.716722e+01	-9.467295e+01
3.100000e-07	-5.322015e-06	-1.396431e-09	-3.708176e+01	-9.453403e+01
3.200000e-07	-5.309431e-06	-1.423837e-09	-3.699408e+01	-9.438833e+01
3.300000e-07	-5.296526e-06	-1.438990e-09	-3.690416e+01	-9.423593e+01
3.400000e-07	-5.283184e-06	-1.390939e-09	-3.681120e+01	-9.407694e+01
3.500000e-07	-5.269357e-06	-1.364920e-09	-3.671485e+01	-9.391147e+01
3.600000e-07	-5.255083e-06	-1.407918e-09	-3.661540e+01	-9.373967e+01
3.700000e-07	-5.240329e-06	-1.404587e-09	-3.651260e+01	-9.356168e+01
3.800000e-07	-5.225129e-06	-1.362501e-09	-3.640669e+01	-9.337768e+01
3.900000e-07	-5.209476e-06	-1.396589e-09	-3.629763e+01	-9.318783e+01
4.000000e-07	-5.193354e-06	-1.415782e-09	-3.618530e+01	-9.299232e+01
4.100000e-07	-5.176806e-06	-1.341723e-09	-3.607000e+01	-9.279135e+01
4.200000e-07	-5.159912e-06	-1.345777e-09	-3.595229e+01	-9.258512e+01
4.300000e-07	-5.142799e-06	-1.430541e-09	-3.583305e+01	-9.237384e+01
4.400000e-07	-5.125305e-06	-1.373242e-09	-3.571115e+01	-9.215771e+01
4.500000e-07	-5.107344e-06	-1.294481e-09	-3.558601e+01	-9.193693e+01
4.600000e-07	-5.088947e-06	-1.380505e-09	-3.545782e+01	-9.171172e+01
4.700000e-07	-5.070156e-06	-1.408996e-09	-3.532690e+01	-9.148228e+01
4.800000e-07	-5.051058e-06	-1.306247e-09	-3.519383e+01	-9.124880e+01
4.900000e-07	-5.031674e-06	-1.342013e-09	-3.505877e+01	-9.101147e+01
5.000000e-07	-5.012051e-06	-1.423992e-09	-3.492204e+01	-9.077047e+01
5.100000e-07	-4.992202e-06	-1.334765e-09	-3.478374e+01	-9.052598e+01
5.200000e-07	-4.972084e-06	-1.300798e-09	-3.464357e+01	-9.027816e+01
5.300000e-07	-4.951655e-06	-1.400905e-09	-3.450123e+01	-9.002715e+01
5.400000e-07	-4.930902e-06	-1.355461e-09	-3.435663e+01	-8.977308e+01
5.500000e-07	-4.909783e-06	-1.262584e-09	-3.420948e+01	-8.951609e+01
5.600000e-07	-4.888297e-06	-1.342979e-09	-3.405977e+01	-8.925626e+01
5.700000e-07	-4.866454e-06	-1.375388e-09	-3.390758e+01	-8.899370e+01
5.800000e-07	-4.844314e-06	-1.281335e-09	-3.375332e+01	-8.872847e+01
5.900000e-07	-4.821892e-06	-1.304809e-09	-3.359709e+01	-8.846063e+01
6.000000e-07	-4.799053e-06	-1.365817e-09	-3.343796e+01	-8.819021e+01
6.100000e-07	-4.775851e-06	-1.298399e-09	-3.327630e+01	-8.791725e+01
6.200000e-07	-4.752369e-06	-1.276051e-09	-3.311268e+01	-8.764173e+01
6.300000e-07	-4.728593e-06	-1.334677e-09	-3.294702e+01	-8.736366e+01
6.400000e-07	-4.704504e-06	-1.306818e-09	-3.277917e+01	-8.708300e+01
6.500000e-07	-4.680134e-06	-1.266068e-09	-3.260937e+01	-8.679972e+01
6.600000e-07	-4.655491e-06	-1.305283e-09	-3.243767e+01	-8.651374e+01
6.700000e-07	-4.630443e-06	-1.299703e-09	-3.226315e+01	-8.622501e+01
6.800000e-07	-4.604837e-06	-1.256204e-09	-3.208473e+01	-8.593343e+01
6.900000e-07	-4.578745e-06	-1.276718e-09	-3.190293e+01	-8.563890e+01
7.000000e-07	-4.552144e-06	-1.291578e-09	-3.171759e+01	-8.534132e+01
7.100000e-07	-4.525027e-06	-1.254586e-09	-3.152865e+01	-8.504056e+01
7.200000e-07	-4.497600e-06	-1.250900e-09	-3.133755e+01	-8.473649e+01
7.300000e-07	-4.469983e-06	-1.268437e-09	-3.114512e+01	-8.442898e+01
7.400000e-07	-4.442231e-06	-1.248573e-09	-3.095176e+01	-8.411788e+01
7.500000e-07	-4.414282e-06	-1.230878e-09	-3.075702e+01	-8.380303e+01
7.600000e-07	-4.386094e-06	-1.239380e-09	-3.056061e+01	-8.348428e+01
7.700000e-07	-4.357641e-06	-1.231362e-09	-3.036237e+01	-8.316148e+01
7.800000e-07	-4.328858e-06	-1.220057e-09	-3.016182e+01	-8.283445e+01
7.900000e-07	-4.299758e-06	-1.226990e-09	-2.995906e+01	-8.250305e+01
8.000000e-07	-4.270356e-06	-1.221369e-09	-2.975420e+01	-8.216710e+01
8.100000e-07	-4.240669e-06	-1.201137e-09	-2.954735e+01	-8.182644e+01
8.200000e-07	-4.210747e-06	-1.197391e-09	-2.933887e+01	-8.148092e+01
8.300000e-07	-4.180515e-06	-1.193316e-09	-2.912822e+01	-8.113038e+01
8.400000e-07	-4.149875e-06	-1.173487e-09	-2.891474e+01	-8.077467e+01
8.500000e-07	-4.118915e-06	-1.169637e-09	-2.869902e+01	-8.041364e+01
8.600000e-07	-4.087777e-06	-1.176728e-09	-2.848206e+01	-8.004717e+01
8.700000e-07	-4.056435e-06	-1.164524e-09	-2.826368e+01	-7.967512e+01
8.800000e-07	-4.024843e-06	-1.152914e-09	-2.804356e+01	-7.929736e+01
8.900000e-07	-3.993027e-06	-1.155892e-09	-2.782187e+01	-7.891379e+01
9.000000e-07	-3.961031e-06	-1.143983e-09	-2.759894e+01	-7.852430e+01
9.100000e-07	-3.928815e-06	-1.125556e-09	-2.737447e+01	-7.812879e+01
9.200000e-07	-3.896233e-06	-1.126460e-09	-2.714746e+01	-7.772720e+01
9.300000e-07	-3.863214e-06	-1.122218e-09	-2.691739e+01	-7.731943e+01
9.400000e-07	-3.829774e-06	-1.103801e-09	-2.668439e+01	-7.690544e+01
9.500000e-07	-3.795905e-06	-1.099555e-09	-2.644840e+01	-7.648517e+01
9.600000e-07	-3.761634e-06	-1.100181e-09	-2.620962e+01	-7.605860e+01
9.700000e-07	-3.727004e-06	-1.084475e-09	-2.596833e+01	-7.562568e+01
9.800000e-07	-3.692043e-06	-1.073760e-09	-2.572474e+01	-7.518642e+01
9.900000e-07	-3.656779e-06	-1.077570e-09	-2.547903e+01	-7.474082e+01
1.000000e-06	-3.621310e-06	-1.068273e-09	-2.523190e+01	-7.428888e+01
1.010000e-06	-3.585697e-06	-1.054118e-09	-2.498376e+01	-7.383063e+01
1.020000e-06	-3.549875e-06	-1.055470e-09	-2.473417e+01	-7.336610e+01
1.030000e-06	-3.513872e-06	-1.052195e-09	-2.448331e+01	-7.289535e+01
1.040000e-06	-3.477703e-06	-1.036415e-09	-2.423130e+01	-7.241842e+01
1.050000e-06	-3.441315e-06	-1.032810e-09	-2.397776e+01	-7.193539e+01
1.060000e-06	-3.404742e-06	-1.033947e-09	-2.372294e+01	-7.144634e+01
1.070000e-06	-3.367937e-06	-1.021917e-09	-2.346649e+01	-7.095135e+01
1.080000e-06	-3.330801e-06	-1.010860e-09	-2.320774e+01	-7.045051e+01
1.090000e-06	-3.293452e-06	-1.009434e-09	-2.294751e+01	-6.994394e+01
1.100000e-06	-3.255903e-06	-1.000945e-09	-2.268588e+01	-6.943174e+01
1.110000e-06	-3.218093e-06	-9.896332e-10	-2.242243e+01	-6.891403e+01
1.120000e-06	-3.180073e-06	-9.884422e-10	-2.215753e+01	-6.839093e+01
1.130000e-06	-3.141821e-06	-9.831796e-10	-2.189100e+01	-6.786256e+01
1.140000e-06	-3.103282e-06	-9.686936e-10	-2.162247e+01	-6.732906e+01
1.150000e-06	-3.064517e-06	-9.594729e-10	-2.135238e+01	-6.679055e+01
1.160000e-06	-3.025621e-06	-9.525786e-10	-2.108137e+01	-6.624717e+01
1.170000e-06	-2.986588e-06	-9.404707e-10	-2.080939e+01	-6.569904e+01
1.180000e-06	-2.947353e-06	-9.313208e-10	-2.053602e+01	-6.514630e+01
1.190000e-06	-2.907896e-06	-9.277594e-10	-2.026110e+01	-6.458906e+01
1.200000e-06	-2.868282e-06	-9.210187e-10	-1.998509e+01	-6.402746e+01
1.210000e-06	-2.828518e-06	-9.127096e-10	-1.970803e+01	-6.346159e+01
1.220000e-06	-2.788552e-06	-9.060833e-10	-1.942956e+01	-6.289158e+01
1.230000e-06	-2.748467e-06	-8.947847e-10	-1.915026e+01	-6.231750e+01
1.240000e-06	-2.708256e-06	-8.778982e-10	-1.887009e+01	-6.173946e+01
1.250000e-06	-2.667832e-06	-8.653222e-10	-1.858843e+01	-6.115751e+01
1.260000e-06	-2.627185e-06	-8.592517e-10	-1.830522e+01	-6.057173e+01
1.270000e-06	-2.586207e-06	-8.532712e-10	-1.801970e+01	-5.998214e+01
1.280000e-06	-2.544953e-06	-8.497826e-10	-1.773225e+01	-5.938878e+01
1.290000e-06	-2.503507e-06	-8.476209e-10	-1.744348e+01	-5.879165e+01
1.300000e-06	-2.461838e-06	-8.400746e-10	-1.715314e+01	-5.819075e+01
1.310000e-06	-2.419861e-06	-8.249845e-10	-1.686066e+01	-5.758602e+01
1.320000e-06	-2.377519e-06	-8.099390e-10	-1.656564e+01	-5.697742e+01
1.330000e-06	-2.334995e-06	-7.970216e-10	-1.626935e+01	-5.636485e+01
1.340000e-06	-2.292299e-06	-7.847429e-10	-1.597186e+01	-5.574822e+01
1.350000e-06	-2.249330e-06	-7.755382e-10	-1.567247e+01	-5.512738e+01
1.360000e-06	-2.206170e-06	-7.696664e-10	-1.537174e+01	-5.450217e+01
1.370000e-06	-2.162795e-06	-7.639313e-10	-1.506952e+01	-5.387240e+01
1.380000e-06	-2.119241e-06	-7.562777e-10	-1.476606e+01	-5.323785e+01
1.390000e-06	-2.075635e-06	-7.462730e-10	-1.446222e+01	-5.259826e+01
1.400000e-06	-2.031996e-06	-7.327750e-10	-1.415817e+01	-5.195336e+01
1.410000e-06	-1.988274e-06	-7.180198e-10	-1.385353e+01	-5.130283e+01
1.420000e-06	-1.944428e-06	-7.055456e-10	-1.354803e+01	-5.064634e+01
1.430000e-06	-1.900541e-06	-6.972873e-10	-1.324224e+01	-4.998351e+01
1.440000e-06	-1.856587e-06	-6.896327e-10	-1.293598e+01	-4.931394e+01
1.450000e-06	-1.812477e-06	-6.793049e-10	-1.262865e+01	-4.863720e+01
1.460000e-06	-1.768274e-06	-6.663867e-10	-1.232066e+01	-4.795284e+01
1.470000e-06	-1.723948e-06	-6.532297e-10	-1.201181e+01	-4.726038e+01
1.480000e-06	-1.679450e-06	-6.383523e-10	-1.170176e+01	-4.655930e+01
1.490000e-06	-1.634856e-06	-6.238265e-10	-1.139104e+01	-4.584908e+01
1.500000e-06	-1.590216e-06	-6.133415e-10	-1.108002e+01	-4.512917e+01
1.510000e-06	-1.545433e-06	-6.040511e-10	-1.076798e+01	-4.439899e+01
1.520000e-06	-1.500540e-06	-5.937993e-10	-1.045518e+01	-4.365796e+01
1.530000e-06	-1.455526e-06	-5.834015e-10	-1.014154e+01	-4.290548e+01
1.540000e-06	-1.410323e-06	-5.746374e-10	-9.826587e+00	-4.214094e+01
1.550000e-06	-1.365035e-06	-5.634174e-10	-9.511039e+00	-4.136371e+01
1.560000e-06	-1.319631e-06	-5.484695e-10	-9.194684e+00	-4.057317e+01
1.570000e-06	-1.274138e-06	-5.316133e-10	-8.877704e+00	-3.976871e+01
1.580000e-06	-1.228585e-06	-5.149524e-10	-8.560305e+00	-3.894969e+01
1.590000e-06	-1.182894e-06	-5.012750e-10	-8.241950e+00	-3.811550e+01
1.600000e-06	-1.137099e-06	-4.910806e-10	-7.922872e+00	-3.726553e+01
1.610000e-06	-1.091223e-06	-4.809365e-10	-7.603220e+00	-3.639921e+01
1.620000e-06	-1.045232e-06	-4.688554e-10	-7.282773e+00	-3.551594e+01
1.630000e-06	-9.992054e-07	-4.564044e-10	-6.962079e+00	-3.461519e+01
1.640000e-06	-9.531390e-07	-4.435617e-10	-6.641107e+00	-3.369643e+01
1.650000e-06	-9.069984e-07	-4.286743e-10	-6.319616e+00	-3.275918e+01
1.660000e-06	-8.608794e-07	-4.109087e-10	-5.998277e+00	-3.180296e+01
1.670000e-06	-8.147403e-07	-3.929384e-10	-5.676797e+00	-3.082738e+01
1.680000e-06	-7.684906e-07	-3.766444e-10	-5.354547e+00	-2.983204e+01
1.690000e-06	-7.221454e-07	-3.637090e-10	-5.031632e+00	-2.881663e+01
1.700000e-06	-6.756781e-07	-3.515630e-10	-4.707866e+00	-2.778088e+01
1.710000e-06	-6.291725e-07	-3.373903e-10	-4.383832e+00	-2.672454e+01
1.720000e-06	-5.827121e-07	-3.208259e-10	-4.060114e+00	-2.564747e+01
1.730000e-06	-5.362248e-07	-3.018938e-10	-3.736208e+00	-2.454956e+01
1.740000e-06	-4.896752e-07	-2.815419e-10	-3.411869e+00	-2.343076e+01
1.750000e-06	-4.431314e-07	-2.612505e-10	-3.087569e+00	-2.229109e+01
1.760000e-06	-3.965849e-07	-2.429627e-10	-2.763251e+00	-2.113065e+01
1.770000e-06	-3.499567e-07	-2.257982e-10	-2.438363e+00	-1.994959e+01
1.780000e-06	-3.032939e-07	-2.086662e-10	-2.113236e+00	-1.874814e+01
1.790000e-06	-2.565426e-07	-1.931678e-10	-1.787490e+00	-1.752661e+01
1.800000e-06	-2.097156e-07	-1.804036e-10	-1.461218e+00	-1.628536e+01
1.810000e-06	-1.629341e-07	-1.665837e-10	-1.135262e+00	-1.502483e+01
1.820000e-06	-1.162414e-07	-1.482477e-10	-8.099256e-01	-1.374554e+01
1.830000e-06	-6.961251e-08	-1.270245e-10	-4.850332e-01	-1.244807e+01
1.840000e-06	-2.297942e-08	-1.056711e-10	-1.601118e-01	-1.113308e+01
1.850000e-06	2.365798e-08	-8.512286e-11	1.648397e-01	-9.801284e+00
1.860000e-06	7.033235e-08	-6.750884e-11	4.900488e-01	-8.453473e+00
1.870000e-06	1.170268e-07	-5.015575e-11	8.153974e-01	-7.090495e+00
1.880000e-06	1.636820e-07	-3.290040e-11	1.140473e+00	-5.713261e+00
1.890000e-06	2.103349e-07	-1.766819e-11	1.465533e+00	-4.322737e+00
1.900000e-06	2.570252e-07	-1.761587e-12	1.790853e+00	-2.919945e+00
1.910000e-06	3.037277e-07	1.595087e-11	2.116258e+00	-1.505953e+00
1.920000e-06	3.503721e-07	3.538060e-11	2.441258e+00	-8.187675e-02
1.930000e-06	3.969211e-07	5.764333e-11	2.765594e+00	1.351128e+00
1.940000e-06	4.433919e-07	8.156725e-11	3.089385e+00	2.791869e+00
1.950000e-06	4.898158e-07	1.028730e-10	3.412848e+00	4.239126e+00
1.960000e-06	5.362353e-07	1.211802e-10	3.736282e+00	5.691651e+00
1.970000e-06	5.827099e-07	1.389415e-10	4.060099e+00	7.148175e+00
1.980000e-06	6.291902e-07	1.578677e-10	4.383955e+00	8.607418e+00
1.990000e-06	6.755393e-07	1.773115e-10	4.706898e+00	1.006809e+01
2.000000e-06	7.217597e-07	1.963419e-10	5.028944e+00	1.152889e+01
2.010000e-06	7.678841e-07	2.168498e-10	5.350321e+00	1.298854e+01
2.020000e-06	8.140093e-07	2.364254e-10	5.671704e+00	1.444574e+01
2.030000e-06	8.601756e-07	2.576546e-10	5.993373e+00	1.589924e+01
2.040000e-06	9.062558e-07	2.823036e-10	6.314442e+00	1.734777e+01
2.050000e-06	9.521768e-07	3.047985e-10	6.634402e+00	1.879011e+01
2.060000e-06	9.980324e-07	3.254889e-10	6.953906e+00	2.022507e+01
2.070000e-06	1.043916e-06	3.447772e-10	7.273606e+00	2.165148e+01
2.080000e-06	1.089768e-06	3.627309e-10	7.593083e+00	2.306822e+01
2.090000e-06	1.135514e-06	3.806685e-10	7.911822e+00	2.447421e+01
2.100000e-06	1.181089e-06	4.009510e-10	8.229375e+00	2.586842e+01
2.110000e-06	1.226505e-06	4.208395e-10	8.545816e+00	2.724986e+01
2.120000e-06	1.271936e-06	4.395893e-10	8.862363e+00	2.861760e+01
2.130000e-06	1.317388e-06	4.587791e-10	9.179057e+00	2.997078e+01
2.140000e-06	1.362729e-06	4.780012e-10	9.494970e+00	3.130858e+01
2.150000e-06	1.407949e-06	4.965920e-10	9.810046e+00	3.263024e+01
2.160000e-06	1.453049e-06	5.149184e-10	1.012429e+01	3.393509e+01
2.170000e-06	1.498073e-06	5.333830e-10	1.043799e+01	3.522250e+01
2.180000e-06	1.543027e-06	5.518313e-10	1.075122e+01	3.649191e+01
2.190000e-06	1.587856e-06	5.700903e-10	1.106357e+01	3.774283e+01
2.200000e-06	1.632506e-06	5.875311e-10	1.137467e+01	3.897482e+01
2.210000e-06	1.676947e-06	6.015486e-10	1.168432e+01	4.018753e+01
2.220000e-06	1.721193e-06	6.129234e-10	1.199261e+01	4.138066e+01
2.230000e-06	1.765367e-06	6.253053e-10	1.230040e+01	4.255397e+01
2.240000e-06	1.809516e-06	6.418781e-10	1.260801e+01	4.370727e+01
2.250000e-06	1.853524e-06	6.616002e-10	1.291464e+01	4.484046e+01
2.260000e-06	1.897391e-06	6.811600e-10	1.322029e+01	4.595348e+01
2.270000e-06	1.941195e-06	6.995641e-10	1.352550e+01	4.704630e+01
2.280000e-06	1.984944e-06	7.146262e-10	1.383033e+01	4.811898e+01
2.290000e-06	2.028622e-06	7.258915e-10	1.413466e+01	4.917161e+01
2.300000e-06	2.072235e-06	7.354604e-10	1.443854e+01	5.020432e+01
2.310000e-06	2.115808e-06	7.444090e-10	1.474214e+01	5.121728e+01
2.320000e-06	2.159356e-06	7.552300e-10	1.504556e+01	5.221071e+01
2.330000e-06	2.202768e-06	7.697453e-10	1.534804e+01	5.318485e+01
2.340000e-06	2.246039e-06	7.836873e-10	1.564954e+01	5.413997e+01
2.350000e-06	2.289143e-06	7.962322e-10	1.594987e+01	5.507639e+01
2.360000e-06	2.332048e-06	8.093888e-10	1.624881e+01	5.599441e+01
2.370000e-06	2.374740e-06	8.230390e-10	1.654628e+01	5.689439e+01
2.380000e-06	2.417053e-06	8.344446e-10	1.684109e+01	5.777667e+01
2.390000e-06	2.458991e-06	8.446063e-10	1.713331e+01	5.864162e+01
2.400000e-06	2.500611e-06	8.540508e-10	1.742330e+01	5.948961e+01
2.410000e-06	2.541959e-06	8.637073e-10	1.771139e+01	6.032102e+01
2.420000e-06	2.583073e-06	8.742376e-10	1.799786e+01	6.113624e+01
2.430000e-06	2.623821e-06	8.867803e-10	1.828178e+01	6.193562e+01
2.440000e-06	2.664237e-06	9.002601e-10	1.856338e+01	6.271956e+01
2.450000e-06	2.704504e-06	9.125396e-10	1.884395e+01	6.348840e+01
2.460000e-06	2.744573e-06	9.238218e-10	1.912313e+01	6.424252e+01
2.470000e-06	2.784398e-06	9.332105e-10	1.940062e+01	6.498224e+01
2.480000e-06	2.824141e-06	9.395889e-10	1.967753e+01	6.570792e+01
2.490000e-06	2.863843e-06	9.430422e-10	1.995416e+01	6.641985e+01
2.500000e-06	2.903430e-06	9.473204e-10	2.022998e+01	6.711836e+01
2.510000e-06	2.942930e-06	9.560305e-10	2.050521e+01	6.780372e+01
2.520000e-06	2.982301e-06	9.685867e-10	2.077953e+01	6.847622e+01
2.530000e-06	3.021405e-06	9.824490e-10	2.105199e+01	6.913610e+01
2.540000e-06	3.060238e-06	9.965487e-10	2.132256e+01	6.978362e+01
2.550000e-06	3.098814e-06	1.008275e-09	2.159135e+01	7.041899e+01
2.560000e-06	3.137139e-06	1.014936e-09	2.185838e+01	7.104242e+01
2.570000e-06	3.175228e-06	1.019446e-09	2.212377e+01	7.165412e+01
2.580000e-06	3.213122e-06	1.025755e-09	2.238780e+01	7.225426e+01
2.590000e-06	3.250884e-06	1.033335e-09	2.265091e+01	7.284302e+01
2.600000e-06	3.288495e-06	1.042416e-09	2.291297e+01	7.342055e+01
2.610000e-06	3.325899e-06	1.050994e-09	2.317359e+01	7.398701e+01
2.620000e-06	3.363022e-06	1.058704e-09	2.343224e+01	7.454253e+01
2.630000e-06	3.399840e-06	1.067480e-09	2.368878e+01	7.508726e+01
2.640000e-06	3.436456e-06	1.074989e-09	2.394390e+01	7.562132e+01
2.650000e-06	3.472834e-06	1.081530e-09	2.419737e+01	7.614484e+01
2.660000e-06	3.508866e-06	1.088938e-09	2.444843e+01	7.665795e+01
2.670000e-06	3.544665e-06	1.095366e-09	2.469787e+01	7.716076e+01
2.680000e-06	3.580355e-06	1.102336e-09	2.494654e+01	7.765342e+01
2.690000e-06	3.615974e-06	1.110588e-09	2.519472e+01	7.813604e+01
2.700000e-06	3.651505e-06	1.116933e-09	2.544228e+01	7.860875e+01
2.710000e-06	3.686873e-06	1.123252e-09	2.568872e+01	7.907170e+01
2.720000e-06	3.722031e-06	1.130712e-09	2.593368e+01	7.952504e+01
2.730000e-06	3.756906e-06	1.135242e-09	2.617668e+01	7.996890e+01
2.740000e-06	3.791362e-06	1.137809e-09	2.641675e+01	8.040345e+01
2.750000e-06	3.825310e-06	1.142845e-09	2.665329e+01	8.082885e+01
2.760000e-06	3.858822e-06	1.150542e-09	2.688679e+01	8.124529e+01
2.770000e-06	3.891880e-06	1.158258e-09	2.711713e+01	8.165294e+01
2.780000e-06	3.924409e-06	1.164698e-09	2.734377e+01	8.205199e+01
2.790000e-06	3.956555e-06	1.171952e-09	2.756775e+01	8.244265e+01
2.800000e-06	3.988523e-06	1.178717e-09	2.779050e+01	8.282512e+01
2.810000e-06	4.020318e-06	1.183344e-09	2.801203e+01	8.319962e+01
2.820000e-06	4.051914e-06	1.187651e-09	2.823218e+01	8.356638e+01
2.830000e-06	4.083343e-06	1.192379e-09	2.845117e+01	8.392561e+01
2.840000e-06	4.114516e-06	1.198776e-09	2.866837e+01	8.427756e+01
2.850000e-06	4.145436e-06	1.206331e-09	2.888380e+01	8.462246e+01
2.860000e-06	4.176108e-06	1.213632e-09	2.909751e+01	8.496054e+01
2.870000e-06	4.206449e-06	1.219680e-09	2.930892e+01	8.529204e+01
2.880000e-06	4.236495e-06	1.225183e-09	2.951827e+01	8.561720e+01
2.890000e-06	4.266249e-06	1.229668e-09	2.972558e+01	8.593625e+01
2.900000e-06	4.295711e-06	1.231666e-09	2.993086e+01	8.624943e+01
