# Temperatura_=_-0.49
# Concentracion g/m^3_=_1620.0
# C_Vs_to_Am_M_A/Vsm_=_65563218390.804596
# pendiente_HvsI_1/m_=_3716.3
# ordenada_HvsI_A/m_=_1297.0
# frecuencia_Hz_=_135095.0677804432

Tiempo_(s)	Campo_(V.s)	Magnetizacion_(V.s)	Campo_(kA/m)	Magnetizacion_(A/m)
0.000000e+00	-5.540135e-06	-1.401718e-09	-3.837579e+01	-9.362728e+01
1.000000e-08	-5.540305e-06	-1.395162e-09	-3.837697e+01	-9.359290e+01
2.000000e-08	-5.540120e-06	-1.393399e-09	-3.837568e+01	-9.355775e+01
3.000000e-08	-5.539479e-06	-1.394806e-09	-3.837125e+01	-9.352180e+01
4.000000e-08	-5.538267e-06	-1.396243e-09	-3.836285e+01	-9.348498e+01
5.000000e-08	-5.536355e-06	-1.396021e-09	-3.834961e+01	-9.344719e+01
6.000000e-08	-5.533913e-06	-1.387741e-09	-3.833269e+01	-9.340834e+01
7.000000e-08	-5.531004e-06	-1.408788e-09	-3.831254e+01	-9.336829e+01
8.000000e-08	-5.527540e-06	-1.433004e-09	-3.828854e+01	-9.332690e+01
9.000000e-08	-5.523638e-06	-1.418793e-09	-3.826151e+01	-9.328401e+01
1.000000e-07	-5.519455e-06	-1.383059e-09	-3.823254e+01	-9.323945e+01
1.100000e-07	-5.515033e-06	-1.412653e-09	-3.820191e+01	-9.319303e+01
1.200000e-07	-5.510260e-06	-1.392910e-09	-3.816885e+01	-9.314455e+01
1.300000e-07	-5.505159e-06	-1.407021e-09	-3.813352e+01	-9.309381e+01
1.400000e-07	-5.499741e-06	-1.369055e-09	-3.809598e+01	-9.304059e+01
1.500000e-07	-5.493956e-06	-1.436967e-09	-3.805591e+01	-9.298470e+01
1.600000e-07	-5.487793e-06	-1.421603e-09	-3.801322e+01	-9.292590e+01
1.700000e-07	-5.481277e-06	-1.411965e-09	-3.796809e+01	-9.286400e+01
1.800000e-07	-5.474368e-06	-1.393018e-09	-3.792023e+01	-9.279879e+01
1.900000e-07	-5.467072e-06	-1.404492e-09	-3.786969e+01	-9.273006e+01
2.000000e-07	-5.459449e-06	-1.402539e-09	-3.781689e+01	-9.265761e+01
2.100000e-07	-5.451569e-06	-1.402163e-09	-3.776230e+01	-9.258127e+01
2.200000e-07	-5.443448e-06	-1.435129e-09	-3.770605e+01	-9.250087e+01
2.300000e-07	-5.435017e-06	-1.430082e-09	-3.764765e+01	-9.241625e+01
2.400000e-07	-5.425978e-06	-1.434438e-09	-3.758504e+01	-9.232727e+01
2.500000e-07	-5.416138e-06	-1.396754e-09	-3.751688e+01	-9.223380e+01
2.600000e-07	-5.405515e-06	-1.407472e-09	-3.744329e+01	-9.213573e+01
2.700000e-07	-5.394324e-06	-1.384544e-09	-3.736577e+01	-9.203299e+01
2.800000e-07	-5.382896e-06	-1.410416e-09	-3.728661e+01	-9.192550e+01
2.900000e-07	-5.371212e-06	-1.379248e-09	-3.720568e+01	-9.181321e+01
3.000000e-07	-5.359187e-06	-1.394123e-09	-3.712238e+01	-9.169610e+01
3.100000e-07	-5.346661e-06	-1.364844e-09	-3.703562e+01	-9.157417e+01
3.200000e-07	-5.333672e-06	-1.398972e-09	-3.694564e+01	-9.144741e+01
3.300000e-07	-5.320327e-06	-1.368321e-09	-3.685320e+01	-9.131588e+01
3.400000e-07	-5.306639e-06	-1.366702e-09	-3.675839e+01	-9.117962e+01
3.500000e-07	-5.292452e-06	-1.358420e-09	-3.666012e+01	-9.103871e+01
3.600000e-07	-5.277773e-06	-1.386509e-09	-3.655844e+01	-9.089322e+01
3.700000e-07	-5.262603e-06	-1.348034e-09	-3.645336e+01	-9.074328e+01
3.800000e-07	-5.246932e-06	-1.353043e-09	-3.634481e+01	-9.058898e+01
3.900000e-07	-5.230806e-06	-1.375560e-09	-3.623311e+01	-9.043048e+01
4.000000e-07	-5.214212e-06	-1.358874e-09	-3.611816e+01	-9.026790e+01
4.100000e-07	-5.197294e-06	-1.328430e-09	-3.600097e+01	-9.010140e+01
4.200000e-07	-5.180082e-06	-1.364749e-09	-3.588175e+01	-8.993114e+01
4.300000e-07	-5.162511e-06	-1.371412e-09	-3.576003e+01	-8.975728e+01
4.400000e-07	-5.144610e-06	-1.313275e-09	-3.563603e+01	-8.957999e+01
4.500000e-07	-5.126320e-06	-1.332520e-09	-3.550935e+01	-8.939943e+01
4.600000e-07	-5.107471e-06	-1.366701e-09	-3.537878e+01	-8.921578e+01
4.700000e-07	-5.088217e-06	-1.326102e-09	-3.524541e+01	-8.902920e+01
4.800000e-07	-5.068784e-06	-1.304072e-09	-3.511080e+01	-8.883983e+01
4.900000e-07	-5.049209e-06	-1.368305e-09	-3.497521e+01	-8.864785e+01
5.000000e-07	-5.029460e-06	-1.333584e-09	-3.483841e+01	-8.845337e+01
5.100000e-07	-5.009415e-06	-1.287360e-09	-3.469956e+01	-8.825655e+01
5.200000e-07	-4.988991e-06	-1.325543e-09	-3.455808e+01	-8.805748e+01
5.300000e-07	-4.968198e-06	-1.347494e-09	-3.441405e+01	-8.785629e+01
5.400000e-07	-4.946958e-06	-1.274949e-09	-3.426693e+01	-8.765304e+01
5.500000e-07	-4.925399e-06	-1.300240e-09	-3.411759e+01	-8.744783e+01
5.600000e-07	-4.903527e-06	-1.331323e-09	-3.396609e+01	-8.724069e+01
5.700000e-07	-4.881291e-06	-1.291177e-09	-3.381206e+01	-8.703168e+01
5.800000e-07	-4.858716e-06	-1.272107e-09	-3.365569e+01	-8.682079e+01
5.900000e-07	-4.835731e-06	-1.322151e-09	-3.349647e+01	-8.660805e+01
6.000000e-07	-4.812359e-06	-1.288770e-09	-3.333458e+01	-8.639341e+01
6.100000e-07	-4.788837e-06	-1.264132e-09	-3.317165e+01	-8.617685e+01
6.200000e-07	-4.765237e-06	-1.287892e-09	-3.300817e+01	-8.595830e+01
6.300000e-07	-4.741344e-06	-1.289160e-09	-3.284266e+01	-8.573769e+01
6.400000e-07	-4.717154e-06	-1.255653e-09	-3.267510e+01	-8.551493e+01
6.500000e-07	-4.692574e-06	-1.276966e-09	-3.250484e+01	-8.528989e+01
6.600000e-07	-4.667408e-06	-1.279929e-09	-3.233052e+01	-8.506247e+01
6.700000e-07	-4.641665e-06	-1.259767e-09	-3.215220e+01	-8.483252e+01
6.800000e-07	-4.615412e-06	-1.263191e-09	-3.197035e+01	-8.459988e+01
6.900000e-07	-4.588634e-06	-1.275591e-09	-3.178487e+01	-8.436439e+01
7.000000e-07	-4.561388e-06	-1.258657e-09	-3.159614e+01	-8.412588e+01
7.100000e-07	-4.533896e-06	-1.254638e-09	-3.140570e+01	-8.388416e+01
7.200000e-07	-4.506283e-06	-1.261745e-09	-3.121443e+01	-8.363906e+01
7.300000e-07	-4.478499e-06	-1.253579e-09	-3.102197e+01	-8.339037e+01
7.400000e-07	-4.450478e-06	-1.247883e-09	-3.082788e+01	-8.313790e+01
7.500000e-07	-4.422149e-06	-1.247916e-09	-3.063164e+01	-8.288146e+01
7.600000e-07	-4.393541e-06	-1.244929e-09	-3.043348e+01	-8.262085e+01
7.700000e-07	-4.364671e-06	-1.234526e-09	-3.023350e+01	-8.235589e+01
7.800000e-07	-4.335445e-06	-1.235417e-09	-3.003106e+01	-8.208639e+01
7.900000e-07	-4.305946e-06	-1.225946e-09	-2.982672e+01	-8.181216e+01
8.000000e-07	-4.276200e-06	-1.215613e-09	-2.962067e+01	-8.153306e+01
8.100000e-07	-4.246037e-06	-1.202514e-09	-2.941174e+01	-8.124890e+01
8.200000e-07	-4.215586e-06	-1.200196e-09	-2.920081e+01	-8.095955e+01
8.300000e-07	-4.184847e-06	-1.187691e-09	-2.898788e+01	-8.066487e+01
8.400000e-07	-4.153754e-06	-1.186852e-09	-2.877251e+01	-8.036474e+01
8.500000e-07	-4.122488e-06	-1.185564e-09	-2.855593e+01	-8.005905e+01
8.600000e-07	-4.091077e-06	-1.184696e-09	-2.833835e+01	-7.974771e+01
8.700000e-07	-4.059508e-06	-1.175072e-09	-2.811968e+01	-7.943064e+01
8.800000e-07	-4.027686e-06	-1.179334e-09	-2.789925e+01	-7.910780e+01
8.900000e-07	-3.995511e-06	-1.171022e-09	-2.767638e+01	-7.877913e+01
9.000000e-07	-3.963100e-06	-1.160077e-09	-2.745187e+01	-7.844462e+01
9.100000e-07	-3.930369e-06	-1.151749e-09	-2.722515e+01	-7.810425e+01
9.200000e-07	-3.897177e-06	-1.148982e-09	-2.699523e+01	-7.775804e+01
9.300000e-07	-3.863532e-06	-1.137365e-09	-2.676218e+01	-7.740602e+01
9.400000e-07	-3.829442e-06	-1.135277e-09	-2.652604e+01	-7.704821e+01
9.500000e-07	-3.794906e-06	-1.136182e-09	-2.628682e+01	-7.668469e+01
9.600000e-07	-3.759984e-06	-1.131822e-09	-2.604491e+01	-7.631552e+01
9.700000e-07	-3.724853e-06	-1.122329e-09	-2.580157e+01	-7.594078e+01
9.800000e-07	-3.689527e-06	-1.118613e-09	-2.555687e+01	-7.556056e+01
9.900000e-07	-3.653991e-06	-1.110603e-09	-2.531071e+01	-7.517499e+01
1.000000e-06	-3.618295e-06	-1.098968e-09	-2.506346e+01	-7.478415e+01
1.010000e-06	-3.582473e-06	-1.095112e-09	-2.481532e+01	-7.438818e+01
1.020000e-06	-3.546472e-06	-1.091040e-09	-2.456594e+01	-7.398721e+01
1.030000e-06	-3.510222e-06	-1.082050e-09	-2.431485e+01	-7.358136e+01
1.040000e-06	-3.473741e-06	-1.076873e-09	-2.406215e+01	-7.317077e+01
1.050000e-06	-3.437014e-06	-1.076988e-09	-2.380774e+01	-7.275556e+01
1.060000e-06	-3.400012e-06	-1.068728e-09	-2.355144e+01	-7.233588e+01
1.070000e-06	-3.362654e-06	-1.059855e-09	-2.329266e+01	-7.191185e+01
1.080000e-06	-3.325060e-06	-1.051986e-09	-2.303225e+01	-7.148360e+01
1.090000e-06	-3.287331e-06	-1.043324e-09	-2.277091e+01	-7.105125e+01
1.100000e-06	-3.249398e-06	-1.029749e-09	-2.250815e+01	-7.061491e+01
1.110000e-06	-3.211284e-06	-1.025203e-09	-2.224414e+01	-7.017468e+01
1.120000e-06	-3.172863e-06	-1.018571e-09	-2.197801e+01	-6.973065e+01
1.130000e-06	-3.134038e-06	-1.012478e-09	-2.170907e+01	-6.928291e+01
1.140000e-06	-3.094988e-06	-1.004681e-09	-2.143857e+01	-6.883152e+01
1.150000e-06	-3.055880e-06	-9.999258e-10	-2.116768e+01	-6.837653e+01
1.160000e-06	-3.016690e-06	-9.906700e-10	-2.089622e+01	-6.791798e+01
1.170000e-06	-2.977385e-06	-9.820535e-10	-2.062396e+01	-6.745589e+01
1.180000e-06	-2.937927e-06	-9.738889e-10	-2.035063e+01	-6.699026e+01
1.190000e-06	-2.898260e-06	-9.684599e-10	-2.007587e+01	-6.652107e+01
1.200000e-06	-2.858431e-06	-9.589266e-10	-1.979998e+01	-6.604830e+01
1.210000e-06	-2.818485e-06	-9.517417e-10	-1.952327e+01	-6.557187e+01
1.220000e-06	-2.778294e-06	-9.433615e-10	-1.924488e+01	-6.509173e+01
1.230000e-06	-2.737944e-06	-9.333642e-10	-1.896538e+01	-6.460776e+01
1.240000e-06	-2.697474e-06	-9.229420e-10	-1.868505e+01	-6.411987e+01
1.250000e-06	-2.656690e-06	-9.150310e-10	-1.840254e+01	-6.362790e+01
1.260000e-06	-2.615643e-06	-9.083184e-10	-1.811821e+01	-6.313170e+01
1.270000e-06	-2.574314e-06	-9.022609e-10	-1.783193e+01	-6.263109e+01
1.280000e-06	-2.532610e-06	-8.962315e-10	-1.754306e+01	-6.212587e+01
1.290000e-06	-2.490552e-06	-8.892497e-10	-1.725173e+01	-6.161582e+01
1.300000e-06	-2.448121e-06	-8.758479e-10	-1.695781e+01	-6.110070e+01
1.310000e-06	-2.405372e-06	-8.594116e-10	-1.666170e+01	-6.058024e+01
1.320000e-06	-2.362481e-06	-8.455370e-10	-1.636459e+01	-6.005417e+01
1.330000e-06	-2.319491e-06	-8.344248e-10	-1.606681e+01	-5.952218e+01
1.340000e-06	-2.276285e-06	-8.271823e-10	-1.576753e+01	-5.898396e+01
1.350000e-06	-2.232879e-06	-8.211392e-10	-1.546686e+01	-5.843916e+01
1.360000e-06	-2.189413e-06	-8.158464e-10	-1.516577e+01	-5.788744e+01
1.370000e-06	-2.145905e-06	-8.079145e-10	-1.486440e+01	-5.732842e+01
1.380000e-06	-2.102308e-06	-7.972829e-10	-1.456241e+01	-5.676171e+01
1.390000e-06	-2.058616e-06	-7.833174e-10	-1.425976e+01	-5.618691e+01
1.400000e-06	-2.014754e-06	-7.702764e-10	-1.395594e+01	-5.560361e+01
1.410000e-06	-1.970820e-06	-7.584351e-10	-1.365161e+01	-5.501136e+01
1.420000e-06	-1.926802e-06	-7.514951e-10	-1.334670e+01	-5.440972e+01
1.430000e-06	-1.882670e-06	-7.455451e-10	-1.304101e+01	-5.379825e+01
1.440000e-06	-1.838497e-06	-7.398083e-10	-1.273503e+01	-5.317646e+01
1.450000e-06	-1.794124e-06	-7.310390e-10	-1.242766e+01	-5.254388e+01
1.460000e-06	-1.749584e-06	-7.208504e-10	-1.211914e+01	-5.190002e+01
1.470000e-06	-1.704910e-06	-7.089680e-10	-1.180968e+01	-5.124439e+01
1.480000e-06	-1.660036e-06	-6.980100e-10	-1.149885e+01	-5.057648e+01
1.490000e-06	-1.615060e-06	-6.888756e-10	-1.118731e+01	-4.989579e+01
1.500000e-06	-1.570006e-06	-6.828504e-10	-1.087522e+01	-4.920180e+01
1.510000e-06	-1.524785e-06	-6.737062e-10	-1.056198e+01	-4.849400e+01
1.520000e-06	-1.479413e-06	-6.615955e-10	-1.024770e+01	-4.777187e+01
1.530000e-06	-1.433977e-06	-6.485788e-10	-9.932970e+00	-4.703489e+01
1.540000e-06	-1.388489e-06	-6.381626e-10	-9.617884e+00	-4.628256e+01
1.550000e-06	-1.342934e-06	-6.270941e-10	-9.302328e+00	-4.551436e+01
1.560000e-06	-1.297254e-06	-6.165314e-10	-8.985909e+00	-4.472978e+01
1.570000e-06	-1.251451e-06	-6.053262e-10	-8.668635e+00	-4.392833e+01
1.580000e-06	-1.205615e-06	-5.917918e-10	-8.351133e+00	-4.310952e+01
1.590000e-06	-1.159671e-06	-5.779907e-10	-8.032892e+00	-4.227287e+01
1.600000e-06	-1.113582e-06	-5.647517e-10	-7.713635e+00	-4.141793e+01
1.610000e-06	-1.067384e-06	-5.493256e-10	-7.393630e+00	-4.054423e+01
1.620000e-06	-1.021196e-06	-5.316599e-10	-7.073687e+00	-3.965137e+01
1.630000e-06	-9.750076e-07	-5.168526e-10	-6.753749e+00	-3.873892e+01
1.640000e-06	-9.286422e-07	-5.030634e-10	-6.432582e+00	-3.780651e+01
1.650000e-06	-8.821290e-07	-4.887239e-10	-6.110391e+00	-3.685378e+01
1.660000e-06	-8.356667e-07	-4.733242e-10	-5.788553e+00	-3.588041e+01
1.670000e-06	-7.892158e-07	-4.590806e-10	-5.466794e+00	-3.488610e+01
1.680000e-06	-7.426543e-07	-4.449440e-10	-5.144269e+00	-3.387058e+01
1.690000e-06	-6.960062e-07	-4.313046e-10	-4.821143e+00	-3.283363e+01
1.700000e-06	-6.493209e-07	-4.154503e-10	-4.497760e+00	-3.177507e+01
1.710000e-06	-6.025883e-07	-3.957614e-10	-4.174050e+00	-3.069476e+01
1.720000e-06	-5.557858e-07	-3.739242e-10	-3.849855e+00	-2.959260e+01
1.730000e-06	-5.090192e-07	-3.540055e-10	-3.525909e+00	-2.846854e+01
1.740000e-06	-4.621895e-07	-3.359834e-10	-3.201526e+00	-2.732257e+01
1.750000e-06	-4.153042e-07	-3.206565e-10	-2.876758e+00	-2.615477e+01
1.760000e-06	-3.683669e-07	-3.071729e-10	-2.551629e+00	-2.496522e+01
1.770000e-06	-3.213082e-07	-2.921540e-10	-2.225660e+00	-2.375410e+01
1.780000e-06	-2.742811e-07	-2.744075e-10	-1.899909e+00	-2.252162e+01
1.790000e-06	-2.272444e-07	-2.565591e-10	-1.574092e+00	-2.126808e+01
1.800000e-06	-1.801603e-07	-2.360656e-10	-1.247946e+00	-1.999380e+01
1.810000e-06	-1.331314e-07	-2.145921e-10	-9.221835e-01	-1.869920e+01
1.820000e-06	-8.605607e-08	-1.927751e-10	-5.960991e-01	-1.738474e+01
1.830000e-06	-3.897947e-08	-1.730273e-10	-2.700057e-01	-1.605096e+01
1.840000e-06	7.986341e-09	-1.558458e-10	5.532034e-02	-1.469845e+01
1.850000e-06	5.492123e-08	-1.403278e-10	3.804321e-01	-1.332787e+01
1.860000e-06	1.019342e-07	-1.232028e-10	7.060848e-01	-1.193993e+01
1.870000e-06	1.489293e-07	-1.024638e-10	1.031614e+00	-1.053543e+01
1.880000e-06	1.958750e-07	-8.197248e-11	1.356801e+00	-9.115196e+00
1.890000e-06	2.428733e-07	-6.259022e-11	1.682351e+00	-7.680145e+00
1.900000e-06	2.899030e-07	-4.308015e-11	2.008120e+00	-6.231232e+00
1.910000e-06	3.368471e-07	-2.263794e-11	2.333296e+00	-4.769472e+00
1.920000e-06	3.836918e-07	5.229047e-13	2.657782e+00	-3.295934e+00
1.930000e-06	4.305468e-07	2.538858e-11	2.982341e+00	-1.811734e+00
1.940000e-06	4.773405e-07	4.950666e-11	3.306475e+00	-3.180344e-01
1.950000e-06	5.239995e-07	7.240206e-11	3.629676e+00	1.183960e+00
1.960000e-06	5.706201e-07	9.212083e-11	3.952610e+00	2.693005e+00
1.970000e-06	6.172482e-07	1.087392e-10	4.275597e+00	4.207825e+00
1.980000e-06	6.638301e-07	1.241941e-10	4.598264e+00	5.727114e+00
1.990000e-06	7.103278e-07	1.405361e-10	4.920347e+00	7.249542e+00
2.000000e-06	7.567593e-07	1.619534e-10	5.241972e+00	8.773759e+00
2.010000e-06	8.032313e-07	1.852481e-10	5.563878e+00	1.029840e+01
2.020000e-06	8.497412e-07	2.086418e-10	5.886045e+00	1.182210e+01
2.030000e-06	8.961590e-07	2.352769e-10	6.207576e+00	1.334347e+01
2.040000e-06	9.425038e-07	2.594842e-10	6.528600e+00	1.486115e+01
2.050000e-06	9.887660e-07	2.806577e-10	6.849052e+00	1.637377e+01
2.060000e-06	1.034840e-06	2.991291e-10	7.168198e+00	1.787998e+01
2.070000e-06	1.080817e-06	3.162664e-10	7.486681e+00	1.937845e+01
2.080000e-06	1.126691e-06	3.337036e-10	7.804441e+00	2.086788e+01
2.090000e-06	1.172482e-06	3.556668e-10	8.121628e+00	2.234698e+01
2.100000e-06	1.218253e-06	3.797330e-10	8.438675e+00	2.381452e+01
2.110000e-06	1.263989e-06	4.030862e-10	8.755483e+00	2.526931e+01
2.120000e-06	1.309744e-06	4.243995e-10	9.072426e+00	2.671018e+01
2.130000e-06	1.355341e-06	4.439844e-10	9.388271e+00	2.813604e+01
2.140000e-06	1.400840e-06	4.616761e-10	9.703437e+00	2.954583e+01
2.150000e-06	1.446276e-06	4.765276e-10	1.001816e+01	3.093858e+01
2.160000e-06	1.491538e-06	4.916164e-10	1.033169e+01	3.231336e+01
2.170000e-06	1.536736e-06	5.101869e-10	1.064477e+01	3.366930e+01
2.180000e-06	1.581776e-06	5.304431e-10	1.095675e+01	3.500562e+01
2.190000e-06	1.626661e-06	5.506288e-10	1.126766e+01	3.632159e+01
2.200000e-06	1.671409e-06	5.690946e-10	1.157763e+01	3.761657e+01
2.210000e-06	1.716095e-06	5.850090e-10	1.188716e+01	3.888998e+01
2.220000e-06	1.760699e-06	5.982561e-10	1.219613e+01	4.014133e+01
2.230000e-06	1.805140e-06	6.118361e-10	1.250397e+01	4.137020e+01
2.240000e-06	1.849437e-06	6.296442e-10	1.281080e+01	4.257624e+01
2.250000e-06	1.893525e-06	6.501579e-10	1.311620e+01	4.375917e+01
2.260000e-06	1.937488e-06	6.695835e-10	1.342072e+01	4.491881e+01
2.270000e-06	1.981376e-06	6.847468e-10	1.372473e+01	4.605504e+01
2.280000e-06	2.025121e-06	6.975729e-10	1.402775e+01	4.716779e+01
2.290000e-06	2.068777e-06	7.099789e-10	1.433015e+01	4.825710e+01
2.300000e-06	2.112439e-06	7.231311e-10	1.463259e+01	4.932304e+01
2.310000e-06	2.156047e-06	7.371260e-10	1.493465e+01	5.036577e+01
2.320000e-06	2.199561e-06	7.540284e-10	1.523607e+01	5.138549e+01
2.330000e-06	2.243028e-06	7.725398e-10	1.553716e+01	5.238247e+01
2.340000e-06	2.286366e-06	7.889842e-10	1.583736e+01	5.335703e+01
2.350000e-06	2.329549e-06	8.013159e-10	1.613648e+01	5.430953e+01
2.360000e-06	2.372615e-06	8.104895e-10	1.643480e+01	5.524038e+01
2.370000e-06	2.415516e-06	8.174934e-10	1.673196e+01	5.615003e+01
2.380000e-06	2.458120e-06	8.262398e-10	1.702707e+01	5.703897e+01
2.390000e-06	2.500350e-06	8.380156e-10	1.731960e+01	5.790770e+01
2.400000e-06	2.542282e-06	8.517549e-10	1.761005e+01	5.875676e+01
2.410000e-06	2.583952e-06	8.672832e-10	1.789870e+01	5.958671e+01
2.420000e-06	2.625217e-06	8.837397e-10	1.818453e+01	6.039812e+01
2.430000e-06	2.666154e-06	8.962104e-10	1.846810e+01	6.119158e+01
2.440000e-06	2.706948e-06	9.042460e-10	1.875067e+01	6.196766e+01
2.450000e-06	2.747480e-06	9.103068e-10	1.903143e+01	6.272695e+01
2.460000e-06	2.787765e-06	9.161100e-10	1.931048e+01	6.347004e+01
2.470000e-06	2.827821e-06	9.244033e-10	1.958794e+01	6.419751e+01
2.480000e-06	2.867603e-06	9.353316e-10	1.986351e+01	6.490991e+01
2.490000e-06	2.907227e-06	9.472620e-10	2.013798e+01	6.560780e+01
2.500000e-06	2.946779e-06	9.598747e-10	2.041195e+01	6.629171e+01
2.510000e-06	2.986250e-06	9.732408e-10	2.068536e+01	6.696214e+01
2.520000e-06	3.025625e-06	9.848148e-10	2.095811e+01	6.761959e+01
2.530000e-06	3.064780e-06	9.942448e-10	2.122933e+01	6.826450e+01
2.540000e-06	3.103715e-06	1.004366e-09	2.149903e+01	6.889732e+01
2.550000e-06	3.142485e-06	1.012819e-09	2.176758e+01	6.951845e+01
2.560000e-06	3.181069e-06	1.017513e-09	2.203484e+01	7.012825e+01
2.570000e-06	3.219378e-06	1.025085e-09	2.230021e+01	7.072707e+01
2.580000e-06	3.257346e-06	1.035992e-09	2.256321e+01	7.131522e+01
2.590000e-06	3.295075e-06	1.046198e-09	2.282455e+01	7.189298e+01
2.600000e-06	3.332611e-06	1.055473e-09	2.308456e+01	7.246058e+01
2.610000e-06	3.369989e-06	1.063954e-09	2.334347e+01	7.301826e+01
2.620000e-06	3.407183e-06	1.071696e-09	2.360111e+01	7.356620e+01
2.630000e-06	3.444100e-06	1.079391e-09	2.385683e+01	7.410456e+01
2.640000e-06	3.480754e-06	1.086752e-09	2.411073e+01	7.463347e+01
2.650000e-06	3.517126e-06	1.095448e-09	2.436267e+01	7.515305e+01
2.660000e-06	3.553210e-06	1.104159e-09	2.461262e+01	7.566338e+01
2.670000e-06	3.589118e-06	1.110397e-09	2.486135e+01	7.616454e+01
2.680000e-06	3.624909e-06	1.114802e-09	2.510927e+01	7.665657e+01
2.690000e-06	3.660555e-06	1.117086e-09	2.535618e+01	7.713951e+01
2.700000e-06	3.696043e-06	1.119991e-09	2.560200e+01	7.761340e+01
2.710000e-06	3.731356e-06	1.126792e-09	2.584661e+01	7.807823e+01
2.720000e-06	3.766422e-06	1.135438e-09	2.608951e+01	7.853403e+01
2.730000e-06	3.801212e-06	1.144672e-09	2.633049e+01	7.898079e+01
2.740000e-06	3.835637e-06	1.151989e-09	2.656895e+01	7.941853e+01
2.750000e-06	3.869655e-06	1.157078e-09	2.680459e+01	7.984725e+01
2.760000e-06	3.903229e-06	1.160617e-09	2.703716e+01	8.026695e+01
2.770000e-06	3.936292e-06	1.162876e-09	2.726618e+01	8.067765e+01
2.780000e-06	3.968747e-06	1.165811e-09	2.749099e+01	8.107937e+01
2.790000e-06	4.000806e-06	1.169064e-09	2.771306e+01	8.147214e+01
2.800000e-06	4.032758e-06	1.172950e-09	2.793438e+01	8.185602e+01
2.810000e-06	4.064540e-06	1.178917e-09	2.815453e+01	8.223104e+01
2.820000e-06	4.096138e-06	1.186714e-09	2.837341e+01	8.259729e+01
2.830000e-06	4.127618e-06	1.195642e-09	2.859146e+01	8.295485e+01
2.840000e-06	4.158939e-06	1.203543e-09	2.880843e+01	8.330382e+01
2.850000e-06	4.189924e-06	1.209450e-09	2.902305e+01	8.364432e+01
2.860000e-06	4.220612e-06	1.212649e-09	2.923562e+01	8.397648e+01
2.870000e-06	4.250950e-06	1.212723e-09	2.944577e+01	8.430045e+01
2.880000e-06	4.280925e-06	1.211913e-09	2.965341e+01	8.461640e+01
2.890000e-06	4.310655e-06	1.213336e-09	2.985934e+01	8.492450e+01
2.900000e-06	4.340110e-06	1.218695e-09	3.006337e+01	8.522494e+01
