# Temperatura_=_-4.0
# Concentracion g/m^3_=_1620.0
# C_Vs_to_Am_M_A/Vsm_=_65563218390.804596
# pendiente_HvsI_1/m_=_3716.3
# ordenada_HvsI_A/m_=_1297.0
# frecuencia_Hz_=_135099.1805617857

Tiempo_(s)	Campo_(V.s)	Magnetizacion_(V.s)	Campo_(kA/m)	Magnetizacion_(A/m)
0.000000e+00	-5.501534e-06	-9.535325e-10	-3.836694e+01	-6.094546e+01
1.000000e-08	-5.501735e-06	-9.499164e-10	-3.836834e+01	-6.091140e+01
2.000000e-08	-5.501833e-06	-9.459625e-10	-3.836902e+01	-6.087509e+01
3.000000e-08	-5.501718e-06	-9.443239e-10	-3.836822e+01	-6.083644e+01
4.000000e-08	-5.501165e-06	-9.436642e-10	-3.836437e+01	-6.079540e+01
5.000000e-08	-5.499950e-06	-9.446222e-10	-3.835589e+01	-6.075190e+01
6.000000e-08	-5.498108e-06	-9.506897e-10	-3.834305e+01	-6.070591e+01
7.000000e-08	-5.495726e-06	-9.584367e-10	-3.832643e+01	-6.065739e+01
8.000000e-08	-5.492829e-06	-9.510663e-10	-3.830623e+01	-6.060632e+01
9.000000e-08	-5.489453e-06	-9.289960e-10	-3.828269e+01	-6.055270e+01
1.000000e-07	-5.485544e-06	-9.261707e-10	-3.825543e+01	-6.049654e+01
1.100000e-07	-5.481261e-06	-9.318637e-10	-3.822556e+01	-6.043784e+01
1.200000e-07	-5.476754e-06	-9.579342e-10	-3.819413e+01	-6.037664e+01
1.300000e-07	-5.472051e-06	-9.535043e-10	-3.816133e+01	-6.031297e+01
1.400000e-07	-5.467034e-06	-9.351529e-10	-3.812634e+01	-6.024689e+01
1.500000e-07	-5.461612e-06	-9.414565e-10	-3.808853e+01	-6.017845e+01
1.600000e-07	-5.455774e-06	-9.530097e-10	-3.804781e+01	-6.010773e+01
1.700000e-07	-5.449657e-06	-9.591563e-10	-3.800515e+01	-6.003480e+01
1.800000e-07	-5.443143e-06	-9.229556e-10	-3.795973e+01	-5.995975e+01
1.900000e-07	-5.436105e-06	-9.050968e-10	-3.791064e+01	-5.988267e+01
2.000000e-07	-5.428738e-06	-9.108929e-10	-3.785927e+01	-5.980368e+01
2.100000e-07	-5.421118e-06	-9.250123e-10	-3.780613e+01	-5.972286e+01
2.200000e-07	-5.413257e-06	-9.214250e-10	-3.775131e+01	-5.964033e+01
2.300000e-07	-5.405169e-06	-9.011718e-10	-3.769490e+01	-5.955621e+01
2.400000e-07	-5.396760e-06	-8.882233e-10	-3.763626e+01	-5.947061e+01
2.500000e-07	-5.387741e-06	-8.815842e-10	-3.757336e+01	-5.938365e+01
2.600000e-07	-5.377937e-06	-8.744014e-10	-3.750499e+01	-5.929545e+01
2.700000e-07	-5.367512e-06	-8.733467e-10	-3.743228e+01	-5.920612e+01
2.800000e-07	-5.356569e-06	-8.795507e-10	-3.735597e+01	-5.911577e+01
2.900000e-07	-5.345162e-06	-8.700245e-10	-3.727642e+01	-5.902453e+01
3.000000e-07	-5.333411e-06	-8.540703e-10	-3.719447e+01	-5.893249e+01
3.100000e-07	-5.321283e-06	-8.489941e-10	-3.710989e+01	-5.883976e+01
3.200000e-07	-5.308745e-06	-8.562167e-10	-3.702245e+01	-5.874644e+01
3.300000e-07	-5.295778e-06	-8.530109e-10	-3.693202e+01	-5.865262e+01
3.400000e-07	-5.282398e-06	-8.471982e-10	-3.683871e+01	-5.855838e+01
3.500000e-07	-5.268670e-06	-8.484047e-10	-3.674297e+01	-5.846380e+01
3.600000e-07	-5.254487e-06	-8.477433e-10	-3.664406e+01	-5.836895e+01
3.700000e-07	-5.239741e-06	-8.451933e-10	-3.654123e+01	-5.827389e+01
3.800000e-07	-5.224558e-06	-8.402427e-10	-3.643535e+01	-5.817867e+01
3.900000e-07	-5.208794e-06	-8.341455e-10	-3.632541e+01	-5.808332e+01
4.000000e-07	-5.192526e-06	-8.313631e-10	-3.621196e+01	-5.798789e+01
4.100000e-07	-5.176008e-06	-8.373638e-10	-3.609676e+01	-5.789238e+01
4.200000e-07	-5.159144e-06	-8.427970e-10	-3.597916e+01	-5.779682e+01
4.300000e-07	-5.141940e-06	-8.422127e-10	-3.585918e+01	-5.770121e+01
4.400000e-07	-5.124508e-06	-8.432508e-10	-3.573761e+01	-5.760553e+01
4.500000e-07	-5.106739e-06	-8.335251e-10	-3.561369e+01	-5.750977e+01
4.600000e-07	-5.088514e-06	-8.229400e-10	-3.548659e+01	-5.741391e+01
4.700000e-07	-5.069833e-06	-8.313882e-10	-3.535631e+01	-5.731791e+01
4.800000e-07	-5.050730e-06	-8.371876e-10	-3.522310e+01	-5.722172e+01
4.900000e-07	-5.031285e-06	-8.253618e-10	-3.508749e+01	-5.712531e+01
5.000000e-07	-5.011644e-06	-8.282806e-10	-3.495051e+01	-5.702860e+01
5.100000e-07	-4.991877e-06	-8.395371e-10	-3.481266e+01	-5.693153e+01
5.200000e-07	-4.971912e-06	-8.271297e-10	-3.467343e+01	-5.683403e+01
5.300000e-07	-4.951572e-06	-8.160905e-10	-3.453158e+01	-5.673603e+01
5.400000e-07	-4.930794e-06	-8.218905e-10	-3.438668e+01	-5.663744e+01
5.500000e-07	-4.909695e-06	-8.150683e-10	-3.423954e+01	-5.653817e+01
5.600000e-07	-4.888230e-06	-8.046207e-10	-3.408984e+01	-5.643814e+01
5.700000e-07	-4.866418e-06	-8.208134e-10	-3.393772e+01	-5.633725e+01
5.800000e-07	-4.844270e-06	-8.271897e-10	-3.378327e+01	-5.623541e+01
5.900000e-07	-4.821808e-06	-8.107519e-10	-3.362662e+01	-5.613252e+01
6.000000e-07	-4.799080e-06	-8.101493e-10	-3.346812e+01	-5.602847e+01
6.100000e-07	-4.775968e-06	-8.170391e-10	-3.330694e+01	-5.592318e+01
6.200000e-07	-4.752511e-06	-8.060113e-10	-3.314336e+01	-5.581654e+01
6.300000e-07	-4.728843e-06	-8.033131e-10	-3.297830e+01	-5.570845e+01
6.400000e-07	-4.704979e-06	-8.167886e-10	-3.281187e+01	-5.559881e+01
6.500000e-07	-4.680840e-06	-8.153505e-10	-3.264353e+01	-5.548753e+01
6.600000e-07	-4.656349e-06	-8.074022e-10	-3.247273e+01	-5.537451e+01
6.700000e-07	-4.631406e-06	-8.092307e-10	-3.229878e+01	-5.525966e+01
6.800000e-07	-4.606040e-06	-8.021417e-10	-3.212188e+01	-5.514289e+01
6.900000e-07	-4.580147e-06	-7.903417e-10	-3.194131e+01	-5.502411e+01
7.000000e-07	-4.553501e-06	-7.904014e-10	-3.175549e+01	-5.490322e+01
7.100000e-07	-4.526324e-06	-7.936985e-10	-3.156596e+01	-5.478016e+01
7.200000e-07	-4.498957e-06	-7.894315e-10	-3.137510e+01	-5.465484e+01
7.300000e-07	-4.471430e-06	-7.901570e-10	-3.118313e+01	-5.452718e+01
7.400000e-07	-4.443718e-06	-7.924253e-10	-3.098988e+01	-5.439711e+01
7.500000e-07	-4.415838e-06	-7.852859e-10	-3.079544e+01	-5.426456e+01
7.600000e-07	-4.387755e-06	-7.796595e-10	-3.059960e+01	-5.412946e+01
7.700000e-07	-4.359353e-06	-7.790014e-10	-3.040152e+01	-5.399175e+01
7.800000e-07	-4.330551e-06	-7.742049e-10	-3.020066e+01	-5.385136e+01
7.900000e-07	-4.301414e-06	-7.681826e-10	-2.999747e+01	-5.370823e+01
8.000000e-07	-4.272021e-06	-7.679960e-10	-2.979248e+01	-5.356231e+01
8.100000e-07	-4.242349e-06	-7.659106e-10	-2.958555e+01	-5.341355e+01
8.200000e-07	-4.212383e-06	-7.568916e-10	-2.937658e+01	-5.326189e+01
8.300000e-07	-4.182128e-06	-7.527280e-10	-2.916558e+01	-5.310728e+01
8.400000e-07	-4.151566e-06	-7.520347e-10	-2.895245e+01	-5.294968e+01
8.500000e-07	-4.120745e-06	-7.487175e-10	-2.873750e+01	-5.278904e+01
8.600000e-07	-4.089565e-06	-7.458942e-10	-2.852006e+01	-5.262532e+01
8.700000e-07	-4.058097e-06	-7.445158e-10	-2.830061e+01	-5.245848e+01
8.800000e-07	-4.026550e-06	-7.414023e-10	-2.808060e+01	-5.228847e+01
8.900000e-07	-3.994882e-06	-7.368494e-10	-2.785975e+01	-5.211527e+01
9.000000e-07	-3.963047e-06	-7.355286e-10	-2.763774e+01	-5.193882e+01
9.100000e-07	-3.931046e-06	-7.325053e-10	-2.741457e+01	-5.175911e+01
9.200000e-07	-3.898763e-06	-7.277338e-10	-2.718943e+01	-5.157609e+01
9.300000e-07	-3.866047e-06	-7.254089e-10	-2.696128e+01	-5.138973e+01
9.400000e-07	-3.832825e-06	-7.260902e-10	-2.672960e+01	-5.120000e+01
9.500000e-07	-3.799044e-06	-7.237661e-10	-2.649401e+01	-5.100688e+01
9.600000e-07	-3.764736e-06	-7.227416e-10	-2.625475e+01	-5.081032e+01
9.700000e-07	-3.730018e-06	-7.219456e-10	-2.601263e+01	-5.061032e+01
9.800000e-07	-3.694958e-06	-7.173488e-10	-2.576813e+01	-5.040684e+01
9.900000e-07	-3.659620e-06	-7.137310e-10	-2.552169e+01	-5.019986e+01
1.000000e-06	-3.624103e-06	-7.132501e-10	-2.527399e+01	-4.998936e+01
1.010000e-06	-3.588468e-06	-7.109811e-10	-2.502548e+01	-4.977532e+01
1.020000e-06	-3.552768e-06	-7.087546e-10	-2.477652e+01	-4.955771e+01
1.030000e-06	-3.517015e-06	-7.077741e-10	-2.452717e+01	-4.933653e+01
1.040000e-06	-3.481132e-06	-7.060852e-10	-2.427694e+01	-4.911176e+01
1.050000e-06	-3.444995e-06	-7.034024e-10	-2.402492e+01	-4.888338e+01
1.060000e-06	-3.408524e-06	-6.998631e-10	-2.377057e+01	-4.865138e+01
1.070000e-06	-3.371740e-06	-6.955985e-10	-2.351405e+01	-4.841576e+01
1.080000e-06	-3.334621e-06	-6.885560e-10	-2.325519e+01	-4.817649e+01
1.090000e-06	-3.297238e-06	-6.825716e-10	-2.299448e+01	-4.793358e+01
1.100000e-06	-3.259668e-06	-6.791835e-10	-2.273247e+01	-4.768702e+01
1.110000e-06	-3.221886e-06	-6.762213e-10	-2.246899e+01	-4.743679e+01
1.120000e-06	-3.183910e-06	-6.743261e-10	-2.220415e+01	-4.718290e+01
1.130000e-06	-3.145716e-06	-6.742976e-10	-2.193779e+01	-4.692533e+01
1.140000e-06	-3.107304e-06	-6.732182e-10	-2.166991e+01	-4.666408e+01
1.150000e-06	-3.068620e-06	-6.706717e-10	-2.140013e+01	-4.639914e+01
1.160000e-06	-3.029719e-06	-6.684135e-10	-2.112884e+01	-4.613050e+01
1.170000e-06	-2.990711e-06	-6.655150e-10	-2.085681e+01	-4.585814e+01
1.180000e-06	-2.951560e-06	-6.585566e-10	-2.058377e+01	-4.558206e+01
1.190000e-06	-2.912226e-06	-6.532732e-10	-2.030947e+01	-4.530223e+01
1.200000e-06	-2.872705e-06	-6.508538e-10	-2.003385e+01	-4.501863e+01
1.210000e-06	-2.833031e-06	-6.491318e-10	-1.975717e+01	-4.473124e+01
1.220000e-06	-2.793273e-06	-6.461444e-10	-1.947990e+01	-4.444002e+01
1.230000e-06	-2.753355e-06	-6.428879e-10	-1.920152e+01	-4.414493e+01
1.240000e-06	-2.713244e-06	-6.374225e-10	-1.892179e+01	-4.384592e+01
1.250000e-06	-2.673106e-06	-6.294927e-10	-1.864187e+01	-4.354294e+01
1.260000e-06	-2.632781e-06	-6.210811e-10	-1.836065e+01	-4.323593e+01
1.270000e-06	-2.592064e-06	-6.137871e-10	-1.807669e+01	-4.292482e+01
1.280000e-06	-2.551037e-06	-6.108200e-10	-1.779058e+01	-4.260952e+01
1.290000e-06	-2.509799e-06	-6.086472e-10	-1.750299e+01	-4.228993e+01
1.300000e-06	-2.468359e-06	-6.036863e-10	-1.721399e+01	-4.196595e+01
1.310000e-06	-2.426559e-06	-5.940479e-10	-1.692249e+01	-4.163746e+01
1.320000e-06	-2.384290e-06	-5.839006e-10	-1.662771e+01	-4.130432e+01
1.330000e-06	-2.341668e-06	-5.765110e-10	-1.633047e+01	-4.096640e+01
1.340000e-06	-2.298808e-06	-5.708648e-10	-1.603157e+01	-4.062352e+01
1.350000e-06	-2.255756e-06	-5.676808e-10	-1.573133e+01	-4.027552e+01
1.360000e-06	-2.212528e-06	-5.657317e-10	-1.542987e+01	-3.992221e+01
1.370000e-06	-2.169176e-06	-5.621095e-10	-1.512753e+01	-3.956337e+01
1.380000e-06	-2.125709e-06	-5.557548e-10	-1.482440e+01	-3.919879e+01
1.390000e-06	-2.082130e-06	-5.473339e-10	-1.452049e+01	-3.882823e+01
1.400000e-06	-2.038499e-06	-5.377120e-10	-1.421621e+01	-3.845144e+01
1.410000e-06	-1.994787e-06	-5.283993e-10	-1.391137e+01	-3.806815e+01
1.420000e-06	-1.950987e-06	-5.211943e-10	-1.360591e+01	-3.767809e+01
1.430000e-06	-1.907149e-06	-5.149970e-10	-1.330019e+01	-3.728095e+01
1.440000e-06	-1.863268e-06	-5.097288e-10	-1.299418e+01	-3.687643e+01
1.450000e-06	-1.819307e-06	-5.055403e-10	-1.268759e+01	-3.646421e+01
1.460000e-06	-1.775227e-06	-5.011634e-10	-1.238019e+01	-3.604396e+01
1.470000e-06	-1.731068e-06	-4.945517e-10	-1.207223e+01	-3.561533e+01
1.480000e-06	-1.686757e-06	-4.859541e-10	-1.176321e+01	-3.517797e+01
1.490000e-06	-1.642152e-06	-4.765751e-10	-1.145214e+01	-3.473153e+01
1.500000e-06	-1.597432e-06	-4.680332e-10	-1.114027e+01	-3.427563e+01
1.510000e-06	-1.552661e-06	-4.605246e-10	-1.082805e+01	-3.380991e+01
1.520000e-06	-1.507728e-06	-4.520093e-10	-1.051468e+01	-3.333399e+01
1.530000e-06	-1.462616e-06	-4.443246e-10	-1.020008e+01	-3.284750e+01
1.540000e-06	-1.417406e-06	-4.377230e-10	-9.884792e+00	-3.235006e+01
1.550000e-06	-1.372121e-06	-4.311912e-10	-9.568982e+00	-3.184130e+01
1.560000e-06	-1.326745e-06	-4.228396e-10	-9.252535e+00	-3.132085e+01
1.570000e-06	-1.281271e-06	-4.142104e-10	-8.935409e+00	-3.078835e+01
1.580000e-06	-1.235766e-06	-4.062563e-10	-8.618058e+00	-3.024346e+01
1.590000e-06	-1.190244e-06	-3.954706e-10	-8.300595e+00	-2.968581e+01
1.600000e-06	-1.144603e-06	-3.861162e-10	-7.982306e+00	-2.911510e+01
1.610000e-06	-1.098830e-06	-3.788946e-10	-7.663092e+00	-2.853100e+01
1.620000e-06	-1.052947e-06	-3.704451e-10	-7.343106e+00	-2.793322e+01
1.630000e-06	-1.006954e-06	-3.591325e-10	-7.022356e+00	-2.732148e+01
1.640000e-06	-9.609255e-07	-3.494080e-10	-6.701362e+00	-2.669553e+01
1.650000e-06	-9.149096e-07	-3.424469e-10	-6.380453e+00	-2.605513e+01
1.660000e-06	-8.688416e-07	-3.339761e-10	-6.059181e+00	-2.540009e+01
1.670000e-06	-8.227666e-07	-3.251804e-10	-5.737861e+00	-2.473021e+01
1.680000e-06	-7.767125e-07	-3.137778e-10	-5.416686e+00	-2.404536e+01
1.690000e-06	-7.305759e-07	-3.017826e-10	-5.094935e+00	-2.334540e+01
1.700000e-06	-6.843404e-07	-2.892629e-10	-4.772496e+00	-2.263026e+01
1.710000e-06	-6.381063e-07	-2.769015e-10	-4.450065e+00	-2.189987e+01
1.720000e-06	-5.917640e-07	-2.660536e-10	-4.126881e+00	-2.115422e+01
1.730000e-06	-5.453311e-07	-2.569981e-10	-3.803064e+00	-2.039333e+01
1.740000e-06	-4.988513e-07	-2.460636e-10	-3.478920e+00	-1.961724e+01
1.750000e-06	-4.522898e-07	-2.324330e-10	-3.154207e+00	-1.882605e+01
1.760000e-06	-4.057139e-07	-2.190429e-10	-2.829393e+00	-1.801988e+01
1.770000e-06	-3.591035e-07	-2.070364e-10	-2.504338e+00	-1.719889e+01
1.780000e-06	-3.124824e-07	-1.936515e-10	-2.179209e+00	-1.636329e+01
1.790000e-06	-2.657682e-07	-1.798222e-10	-1.853431e+00	-1.551331e+01
1.800000e-06	-2.190117e-07	-1.701585e-10	-1.527357e+00	-1.464924e+01
1.810000e-06	-1.723131e-07	-1.608866e-10	-1.201688e+00	-1.377139e+01
1.820000e-06	-1.256374e-07	-1.486202e-10	-8.761775e-01	-1.288010e+01
1.830000e-06	-7.898879e-08	-1.352902e-10	-5.508569e-01	-1.197577e+01
1.840000e-06	-3.236498e-08	-1.207859e-10	-2.257089e-01	-1.105881e+01
1.850000e-06	1.432378e-08	-1.061023e-10	9.989204e-02	-1.012968e+01
1.860000e-06	6.105090e-08	-9.444953e-11	4.257606e-01	-9.188864e+00
1.870000e-06	1.077334e-07	-8.260691e-11	7.513175e-01	-8.236884e+00
1.880000e-06	1.544398e-07	-6.904429e-11	1.077042e+00	-7.274283e+00
1.890000e-06	2.011980e-07	-5.548884e-11	1.403127e+00	-6.301636e+00
1.900000e-06	2.479137e-07	-4.336305e-11	1.728916e+00	-5.319542e+00
1.910000e-06	2.944838e-07	-3.225244e-11	2.053690e+00	-4.328624e+00
1.920000e-06	3.410570e-07	-2.021850e-11	2.378485e+00	-3.329528e+00
1.930000e-06	3.875982e-07	-4.010872e-12	2.703056e+00	-2.322919e+00
1.940000e-06	4.340281e-07	1.296939e-11	3.026852e+00	-1.309478e+00
1.950000e-06	4.804602e-07	2.811921e-11	3.350663e+00	-2.899036e-01
1.960000e-06	5.268843e-07	4.258752e-11	3.674418e+00	7.350939e-01
1.970000e-06	5.732341e-07	5.641926e-11	3.997655e+00	1.764793e+00
1.980000e-06	6.195086e-07	6.815611e-11	4.320367e+00	2.798462e+00
1.990000e-06	6.657324e-07	7.803654e-11	4.642725e+00	3.835366e+00
2.000000e-06	7.119584e-07	8.787101e-11	4.965099e+00	4.874763e+00
2.010000e-06	7.581567e-07	1.030089e-10	5.287280e+00	5.915910e+00
2.020000e-06	8.042742e-07	1.201808e-10	5.608898e+00	6.958063e+00
2.030000e-06	8.503038e-07	1.388758e-10	5.929902e+00	8.000483e+00
2.040000e-06	8.962627e-07	1.595949e-10	6.250412e+00	9.042432e+00
2.050000e-06	9.422602e-07	1.761351e-10	6.571193e+00	1.008318e+01
2.060000e-06	9.882537e-07	1.891456e-10	6.891945e+00	1.112200e+01
2.070000e-06	1.034128e-06	2.002564e-10	7.211868e+00	1.215819e+01
2.080000e-06	1.079909e-06	2.117933e-10	7.531135e+00	1.319103e+01
2.090000e-06	1.125645e-06	2.259456e-10	7.850093e+00	1.421985e+01
2.100000e-06	1.171281e-06	2.445605e-10	8.168355e+00	1.524396e+01
2.110000e-06	1.216856e-06	2.633217e-10	8.486187e+00	1.626271e+01
2.120000e-06	1.262367e-06	2.799576e-10	8.803575e+00	1.727545e+01
2.130000e-06	1.307792e-06	2.951327e-10	9.120361e+00	1.828156e+01
2.140000e-06	1.353108e-06	3.083705e-10	9.436389e+00	1.928044e+01
2.150000e-06	1.398261e-06	3.196490e-10	9.751279e+00	2.027149e+01
2.160000e-06	1.443308e-06	3.309646e-10	1.006543e+01	2.125416e+01
2.170000e-06	1.488309e-06	3.442052e-10	1.037926e+01	2.222790e+01
2.180000e-06	1.533169e-06	3.576726e-10	1.069211e+01	2.319219e+01
2.190000e-06	1.577874e-06	3.713988e-10	1.100388e+01	2.414653e+01
2.200000e-06	1.622486e-06	3.865500e-10	1.131499e+01	2.509044e+01
2.210000e-06	1.666917e-06	4.009289e-10	1.162485e+01	2.602347e+01
2.220000e-06	1.711148e-06	4.125873e-10	1.193331e+01	2.694520e+01
2.230000e-06	1.755281e-06	4.226069e-10	1.224109e+01	2.785521e+01
2.240000e-06	1.799359e-06	4.339355e-10	1.254848e+01	2.875311e+01
2.250000e-06	1.843350e-06	4.464872e-10	1.285527e+01	2.963857e+01
2.260000e-06	1.887265e-06	4.595685e-10	1.316153e+01	3.051123e+01
2.270000e-06	1.931093e-06	4.722412e-10	1.346718e+01	3.137079e+01
2.280000e-06	1.974798e-06	4.820465e-10	1.377197e+01	3.221695e+01
2.290000e-06	2.018442e-06	4.905988e-10	1.407633e+01	3.304946e+01
2.300000e-06	2.062029e-06	5.000330e-10	1.438030e+01	3.386806e+01
2.310000e-06	2.105548e-06	5.080796e-10	1.468380e+01	3.467255e+01
2.320000e-06	2.148995e-06	5.172985e-10	1.498679e+01	3.546272e+01
2.330000e-06	2.192301e-06	5.302504e-10	1.528880e+01	3.623841e+01
2.340000e-06	2.235485e-06	5.442645e-10	1.558996e+01	3.699944e+01
2.350000e-06	2.278458e-06	5.560370e-10	1.588965e+01	3.774571e+01
2.360000e-06	2.321195e-06	5.646976e-10	1.618769e+01	3.847709e+01
2.370000e-06	2.363728e-06	5.709236e-10	1.648431e+01	3.919350e+01
2.380000e-06	2.406019e-06	5.761164e-10	1.677924e+01	3.989486e+01
2.390000e-06	2.447940e-06	5.849312e-10	1.707160e+01	4.058114e+01
2.400000e-06	2.489407e-06	5.963399e-10	1.736078e+01	4.125231e+01
2.410000e-06	2.530614e-06	6.073850e-10	1.764815e+01	4.190834e+01
2.420000e-06	2.571629e-06	6.174946e-10	1.793418e+01	4.254927e+01
2.430000e-06	2.612384e-06	6.276110e-10	1.821841e+01	4.317511e+01
2.440000e-06	2.652883e-06	6.333892e-10	1.850084e+01	4.378591e+01
2.450000e-06	2.693161e-06	6.373013e-10	1.878173e+01	4.438175e+01
2.460000e-06	2.733282e-06	6.405461e-10	1.906153e+01	4.496270e+01
2.470000e-06	2.773255e-06	6.465281e-10	1.934030e+01	4.552886e+01
2.480000e-06	2.813085e-06	6.549044e-10	1.961807e+01	4.608036e+01
2.490000e-06	2.852743e-06	6.621859e-10	1.989463e+01	4.661732e+01
2.500000e-06	2.892305e-06	6.692125e-10	2.017054e+01	4.713990e+01
2.510000e-06	2.931746e-06	6.780425e-10	2.044559e+01	4.764826e+01
2.520000e-06	2.971059e-06	6.882437e-10	2.071976e+01	4.814257e+01
2.530000e-06	3.010226e-06	6.966667e-10	2.099290e+01	4.862304e+01
2.540000e-06	3.049103e-06	7.039421e-10	2.126403e+01	4.908987e+01
2.550000e-06	3.087751e-06	7.113014e-10	2.153355e+01	4.954327e+01
2.560000e-06	3.126218e-06	7.164567e-10	2.180181e+01	4.998348e+01
2.570000e-06	3.164412e-06	7.197014e-10	2.206817e+01	5.041073e+01
2.580000e-06	3.202378e-06	7.251456e-10	2.233294e+01	5.082529e+01
2.590000e-06	3.240198e-06	7.324282e-10	2.259669e+01	5.122741e+01
2.600000e-06	3.277789e-06	7.410782e-10	2.285885e+01	5.161736e+01
2.610000e-06	3.315128e-06	7.474056e-10	2.311925e+01	5.199542e+01
2.620000e-06	3.352201e-06	7.519027e-10	2.337779e+01	5.236187e+01
2.630000e-06	3.389023e-06	7.561858e-10	2.363458e+01	5.271701e+01
2.640000e-06	3.425647e-06	7.602486e-10	2.388999e+01	5.306112e+01
2.650000e-06	3.462001e-06	7.635152e-10	2.414352e+01	5.339450e+01
2.660000e-06	3.498145e-06	7.686146e-10	2.439558e+01	5.371746e+01
2.670000e-06	3.534113e-06	7.744993e-10	2.464642e+01	5.403029e+01
2.680000e-06	3.569896e-06	7.791998e-10	2.489596e+01	5.433330e+01
2.690000e-06	3.605559e-06	7.816676e-10	2.514467e+01	5.462678e+01
2.700000e-06	3.641105e-06	7.828499e-10	2.539256e+01	5.491105e+01
2.710000e-06	3.676534e-06	7.864939e-10	2.563964e+01	5.518638e+01
2.720000e-06	3.711633e-06	7.945649e-10	2.588442e+01	5.545308e+01
2.730000e-06	3.746354e-06	8.017108e-10	2.612656e+01	5.571143e+01
2.740000e-06	3.780771e-06	8.054492e-10	2.636657e+01	5.596172e+01
2.750000e-06	3.814814e-06	8.070783e-10	2.660398e+01	5.620422e+01
2.760000e-06	3.848424e-06	8.087365e-10	2.683838e+01	5.643918e+01
2.770000e-06	3.881507e-06	8.092668e-10	2.706909e+01	5.666688e+01
2.780000e-06	3.914099e-06	8.105734e-10	2.729638e+01	5.688756e+01
2.790000e-06	3.946382e-06	8.145797e-10	2.752153e+01	5.710146e+01
2.800000e-06	3.978451e-06	8.216736e-10	2.774517e+01	5.730880e+01
2.810000e-06	4.010310e-06	8.275794e-10	2.796735e+01	5.750980e+01
2.820000e-06	4.042004e-06	8.299469e-10	2.818838e+01	5.770467e+01
2.830000e-06	4.073477e-06	8.327053e-10	2.840787e+01	5.789359e+01
2.840000e-06	4.104674e-06	8.335396e-10	2.862543e+01	5.807675e+01
2.850000e-06	4.135686e-06	8.358883e-10	2.884170e+01	5.825431e+01
2.860000e-06	4.166405e-06	8.375491e-10	2.905593e+01	5.842643e+01
2.870000e-06	4.196758e-06	8.394279e-10	2.926761e+01	5.859325e+01
2.880000e-06	4.226749e-06	8.397176e-10	2.947677e+01	5.875489e+01
2.890000e-06	4.256470e-06	8.382880e-10	2.968404e+01	5.891148e+01
2.900000e-06	4.286021e-06	8.369186e-10	2.989012e+01	5.906312e+01
