# Temperatura_=_-0.3
# Concentracion g/m^3_=_1620.0
# C_Vs_to_Am_M_A/Vsm_=_65563218390.804596
# pendiente_HvsI_1/m_=_3716.3
# ordenada_HvsI_A/m_=_1297.0
# frecuencia_Hz_=_135099.11847180274

Tiempo_(s)	Campo_(V.s)	Magnetizacion_(V.s)	Campo_(kA/m)	Magnetizacion_(A/m)
0.000000e+00	-5.532469e-06	-1.606253e-09	-3.837466e+01	-1.038581e+02
1.000000e-08	-5.532581e-06	-1.605041e-09	-3.837544e+01	-1.038030e+02
2.000000e-08	-5.532350e-06	-1.604716e-09	-3.837383e+01	-1.037437e+02
3.000000e-08	-5.531682e-06	-1.603986e-09	-3.836920e+01	-1.036803e+02
4.000000e-08	-5.530492e-06	-1.601680e-09	-3.836095e+01	-1.036128e+02
5.000000e-08	-5.528706e-06	-1.597793e-09	-3.834856e+01	-1.035415e+02
6.000000e-08	-5.526274e-06	-1.596013e-09	-3.833169e+01	-1.034663e+02
7.000000e-08	-5.523314e-06	-1.635183e-09	-3.831115e+01	-1.033876e+02
8.000000e-08	-5.519950e-06	-1.649240e-09	-3.828782e+01	-1.033053e+02
9.000000e-08	-5.516065e-06	-1.555600e-09	-3.826087e+01	-1.032196e+02
1.000000e-07	-5.511820e-06	-1.486032e-09	-3.823143e+01	-1.031307e+02
1.100000e-07	-5.507480e-06	-1.618815e-09	-3.820133e+01	-1.030387e+02
1.200000e-07	-5.502834e-06	-1.697653e-09	-3.816910e+01	-1.029436e+02
1.300000e-07	-5.497749e-06	-1.627426e-09	-3.813383e+01	-1.028457e+02
1.400000e-07	-5.492348e-06	-1.478022e-09	-3.809637e+01	-1.027450e+02
1.500000e-07	-5.486682e-06	-1.605766e-09	-3.805707e+01	-1.026417e+02
1.600000e-07	-5.480523e-06	-1.688435e-09	-3.801434e+01	-1.025358e+02
1.700000e-07	-5.473834e-06	-1.603964e-09	-3.796795e+01	-1.024274e+02
1.800000e-07	-5.466936e-06	-1.451124e-09	-3.792011e+01	-1.023167e+02
1.900000e-07	-5.459827e-06	-1.525317e-09	-3.787079e+01	-1.022038e+02
2.000000e-07	-5.452245e-06	-1.613631e-09	-3.781820e+01	-1.020886e+02
2.100000e-07	-5.444355e-06	-1.574468e-09	-3.776348e+01	-1.019714e+02
2.200000e-07	-5.436232e-06	-1.488927e-09	-3.770713e+01	-1.018520e+02
2.300000e-07	-5.427619e-06	-1.496280e-09	-3.764739e+01	-1.017306e+02
2.400000e-07	-5.418451e-06	-1.548176e-09	-3.758380e+01	-1.016073e+02
2.500000e-07	-5.408680e-06	-1.516717e-09	-3.751602e+01	-1.014819e+02
2.600000e-07	-5.398239e-06	-1.508163e-09	-3.744361e+01	-1.013546e+02
2.700000e-07	-5.387258e-06	-1.500756e-09	-3.736744e+01	-1.012253e+02
2.800000e-07	-5.375889e-06	-1.531229e-09	-3.728858e+01	-1.010940e+02
2.900000e-07	-5.364168e-06	-1.503627e-09	-3.720728e+01	-1.009607e+02
3.000000e-07	-5.351974e-06	-1.525329e-09	-3.712270e+01	-1.008253e+02
3.100000e-07	-5.339282e-06	-1.495076e-09	-3.703466e+01	-1.006878e+02
3.200000e-07	-5.326276e-06	-1.540912e-09	-3.694445e+01	-1.005481e+02
3.300000e-07	-5.312995e-06	-1.521015e-09	-3.685233e+01	-1.004061e+02
3.400000e-07	-5.299297e-06	-1.508995e-09	-3.675731e+01	-1.002617e+02
3.500000e-07	-5.285044e-06	-1.475982e-09	-3.665846e+01	-1.001149e+02
3.600000e-07	-5.270399e-06	-1.531377e-09	-3.655687e+01	-9.996543e+01
3.700000e-07	-5.255313e-06	-1.485886e-09	-3.645223e+01	-9.981324e+01
3.800000e-07	-5.239646e-06	-1.475031e-09	-3.634356e+01	-9.965817e+01
3.900000e-07	-5.223538e-06	-1.515177e-09	-3.623183e+01	-9.950008e+01
4.000000e-07	-5.207099e-06	-1.521711e-09	-3.611780e+01	-9.933880e+01
4.100000e-07	-5.190176e-06	-1.436665e-09	-3.600043e+01	-9.917418e+01
4.200000e-07	-5.172900e-06	-1.480384e-09	-3.588059e+01	-9.900605e+01
4.300000e-07	-5.155429e-06	-1.536604e-09	-3.575941e+01	-9.883422e+01
4.400000e-07	-5.137556e-06	-1.439758e-09	-3.563544e+01	-9.865853e+01
4.500000e-07	-5.119149e-06	-1.400920e-09	-3.550777e+01	-9.847878e+01
4.600000e-07	-5.100317e-06	-1.507213e-09	-3.537714e+01	-9.829480e+01
4.700000e-07	-5.081216e-06	-1.492141e-09	-3.524465e+01	-9.810640e+01
4.800000e-07	-5.061863e-06	-1.399564e-09	-3.511041e+01	-9.791341e+01
4.900000e-07	-5.042294e-06	-1.470632e-09	-3.497468e+01	-9.771563e+01
5.000000e-07	-5.022482e-06	-1.496774e-09	-3.483726e+01	-9.751290e+01
5.100000e-07	-5.002335e-06	-1.404958e-09	-3.469751e+01	-9.730505e+01
5.200000e-07	-4.981843e-06	-1.421899e-09	-3.455537e+01	-9.709190e+01
5.300000e-07	-4.961005e-06	-1.496991e-09	-3.441083e+01	-9.687331e+01
5.400000e-07	-4.939790e-06	-1.403500e-09	-3.426368e+01	-9.664912e+01
5.500000e-07	-4.918275e-06	-1.383821e-09	-3.411445e+01	-9.641919e+01
5.600000e-07	-4.896476e-06	-1.473219e-09	-3.396324e+01	-9.618339e+01
5.700000e-07	-4.874287e-06	-1.453903e-09	-3.380934e+01	-9.594160e+01
5.800000e-07	-4.851715e-06	-1.372254e-09	-3.365277e+01	-9.569372e+01
5.900000e-07	-4.828862e-06	-1.435641e-09	-3.349425e+01	-9.543965e+01
6.000000e-07	-4.805688e-06	-1.444202e-09	-3.333351e+01	-9.517931e+01
6.100000e-07	-4.782188e-06	-1.383066e-09	-3.317052e+01	-9.491263e+01
6.200000e-07	-4.758491e-06	-1.393202e-09	-3.300615e+01	-9.463955e+01
6.300000e-07	-4.734554e-06	-1.436428e-09	-3.284011e+01	-9.436003e+01
6.400000e-07	-4.710270e-06	-1.384266e-09	-3.267167e+01	-9.407405e+01
6.500000e-07	-4.685578e-06	-1.378787e-09	-3.250040e+01	-9.378159e+01
6.600000e-07	-4.660559e-06	-1.404197e-09	-3.232686e+01	-9.348265e+01
6.700000e-07	-4.635073e-06	-1.383469e-09	-3.215009e+01	-9.317724e+01
6.800000e-07	-4.608891e-06	-1.352655e-09	-3.196848e+01	-9.286540e+01
6.900000e-07	-4.582177e-06	-1.378557e-09	-3.178318e+01	-9.254716e+01
7.000000e-07	-4.555100e-06	-1.373706e-09	-3.159537e+01	-9.222257e+01
7.100000e-07	-4.527732e-06	-1.352392e-09	-3.140554e+01	-9.189169e+01
7.200000e-07	-4.500133e-06	-1.355608e-09	-3.121411e+01	-9.155460e+01
7.300000e-07	-4.472328e-06	-1.357579e-09	-3.102124e+01	-9.121138e+01
7.400000e-07	-4.444282e-06	-1.333465e-09	-3.082671e+01	-9.086211e+01
7.500000e-07	-4.415934e-06	-1.325964e-09	-3.063008e+01	-9.050690e+01
7.600000e-07	-4.387268e-06	-1.332446e-09	-3.043124e+01	-9.014585e+01
7.700000e-07	-4.358359e-06	-1.321809e-09	-3.023072e+01	-8.977907e+01
7.800000e-07	-4.329215e-06	-1.314225e-09	-3.002857e+01	-8.940668e+01
7.900000e-07	-4.299764e-06	-1.312959e-09	-2.982429e+01	-8.902878e+01
8.000000e-07	-4.269999e-06	-1.304383e-09	-2.961783e+01	-8.864551e+01
8.100000e-07	-4.239854e-06	-1.287497e-09	-2.940874e+01	-8.825697e+01
8.200000e-07	-4.209335e-06	-1.287473e-09	-2.919706e+01	-8.786330e+01
8.300000e-07	-4.178530e-06	-1.275700e-09	-2.898338e+01	-8.746459e+01
8.400000e-07	-4.147435e-06	-1.265594e-09	-2.876770e+01	-8.706098e+01
8.500000e-07	-4.116112e-06	-1.262940e-09	-2.855043e+01	-8.665256e+01
8.600000e-07	-4.084681e-06	-1.265957e-09	-2.833242e+01	-8.623946e+01
8.700000e-07	-4.053088e-06	-1.248384e-09	-2.811328e+01	-8.582176e+01
8.800000e-07	-4.021285e-06	-1.245308e-09	-2.789269e+01	-8.539956e+01
8.900000e-07	-3.989264e-06	-1.239454e-09	-2.767058e+01	-8.497296e+01
9.000000e-07	-3.957000e-06	-1.225621e-09	-2.744679e+01	-8.454202e+01
9.100000e-07	-3.924345e-06	-1.210687e-09	-2.722029e+01	-8.410683e+01
9.200000e-07	-3.891254e-06	-1.211822e-09	-2.699076e+01	-8.366743e+01
9.300000e-07	-3.857726e-06	-1.198466e-09	-2.675820e+01	-8.322390e+01
9.400000e-07	-3.823712e-06	-1.188308e-09	-2.652227e+01	-8.277627e+01
9.500000e-07	-3.789349e-06	-1.188391e-09	-2.628392e+01	-8.232457e+01
9.600000e-07	-3.754613e-06	-1.186593e-09	-2.604298e+01	-8.186884e+01
9.700000e-07	-3.719444e-06	-1.168323e-09	-2.579904e+01	-8.140908e+01
9.800000e-07	-3.684032e-06	-1.162966e-09	-2.555342e+01	-8.094531e+01
9.900000e-07	-3.648497e-06	-1.160319e-09	-2.530693e+01	-8.047753e+01
1.000000e-06	-3.612773e-06	-1.149860e-09	-2.505915e+01	-8.000572e+01
1.010000e-06	-3.576894e-06	-1.141474e-09	-2.481028e+01	-7.952986e+01
1.020000e-06	-3.540841e-06	-1.141400e-09	-2.456021e+01	-7.904993e+01
1.030000e-06	-3.504601e-06	-1.131387e-09	-2.430884e+01	-7.856589e+01
1.040000e-06	-3.468126e-06	-1.118367e-09	-2.405583e+01	-7.807771e+01
1.050000e-06	-3.431348e-06	-1.115929e-09	-2.380073e+01	-7.758533e+01
1.060000e-06	-3.394313e-06	-1.108939e-09	-2.354385e+01	-7.708871e+01
1.070000e-06	-3.357072e-06	-1.093503e-09	-2.328553e+01	-7.658778e+01
1.080000e-06	-3.319571e-06	-1.083760e-09	-2.302541e+01	-7.608249e+01
1.090000e-06	-3.281808e-06	-1.081495e-09	-2.276348e+01	-7.557277e+01
1.100000e-06	-3.243841e-06	-1.070817e-09	-2.250014e+01	-7.505855e+01
1.110000e-06	-3.205659e-06	-1.064435e-09	-2.223529e+01	-7.453977e+01
1.120000e-06	-3.167232e-06	-1.060595e-09	-2.196875e+01	-7.401635e+01
1.130000e-06	-3.128684e-06	-1.052559e-09	-2.170137e+01	-7.348821e+01
1.140000e-06	-3.089995e-06	-1.037555e-09	-2.143302e+01	-7.295529e+01
1.150000e-06	-3.051055e-06	-1.030950e-09	-2.116292e+01	-7.241751e+01
1.160000e-06	-3.011947e-06	-1.022246e-09	-2.089166e+01	-7.187479e+01
1.170000e-06	-2.972631e-06	-1.009984e-09	-2.061895e+01	-7.132707e+01
1.180000e-06	-2.933118e-06	-9.995116e-10	-2.034488e+01	-7.077425e+01
1.190000e-06	-2.893423e-06	-9.957614e-10	-2.006954e+01	-7.021627e+01
1.200000e-06	-2.853592e-06	-9.850259e-10	-1.979326e+01	-6.965305e+01
1.210000e-06	-2.813639e-06	-9.760278e-10	-1.951614e+01	-6.908451e+01
1.220000e-06	-2.773508e-06	-9.680551e-10	-1.923778e+01	-6.851058e+01
1.230000e-06	-2.733217e-06	-9.588389e-10	-1.895831e+01	-6.793117e+01
1.240000e-06	-2.692711e-06	-9.456863e-10	-1.867735e+01	-6.734619e+01
1.250000e-06	-2.651910e-06	-9.361687e-10	-1.839435e+01	-6.675558e+01
1.260000e-06	-2.610897e-06	-9.267209e-10	-1.810987e+01	-6.615923e+01
1.270000e-06	-2.569590e-06	-9.172172e-10	-1.782335e+01	-6.555704e+01
1.280000e-06	-2.528067e-06	-9.082120e-10	-1.753534e+01	-6.494893e+01
1.290000e-06	-2.486252e-06	-9.019056e-10	-1.724529e+01	-6.433479e+01
1.300000e-06	-2.443971e-06	-8.916494e-10	-1.695202e+01	-6.371449e+01
1.310000e-06	-2.401462e-06	-8.792300e-10	-1.665717e+01	-6.308792e+01
1.320000e-06	-2.358750e-06	-8.691817e-10	-1.636091e+01	-6.245494e+01
1.330000e-06	-2.315797e-06	-8.592630e-10	-1.606298e+01	-6.181541e+01
1.340000e-06	-2.272666e-06	-8.475816e-10	-1.576381e+01	-6.116917e+01
1.350000e-06	-2.229386e-06	-8.373504e-10	-1.546361e+01	-6.051604e+01
1.360000e-06	-2.185898e-06	-8.276373e-10	-1.516196e+01	-5.985585e+01
1.370000e-06	-2.142289e-06	-8.160429e-10	-1.485948e+01	-5.918839e+01
1.380000e-06	-2.098602e-06	-8.037116e-10	-1.455645e+01	-5.851344e+01
1.390000e-06	-2.054851e-06	-7.890763e-10	-1.425298e+01	-5.783077e+01
1.400000e-06	-2.011042e-06	-7.743500e-10	-1.394912e+01	-5.714012e+01
1.410000e-06	-1.967112e-06	-7.618312e-10	-1.364441e+01	-5.644122e+01
1.420000e-06	-1.923104e-06	-7.522581e-10	-1.333915e+01	-5.573377e+01
1.430000e-06	-1.879004e-06	-7.411665e-10	-1.303327e+01	-5.501746e+01
1.440000e-06	-1.834832e-06	-7.304870e-10	-1.272688e+01	-5.429197e+01
1.450000e-06	-1.790550e-06	-7.168179e-10	-1.241972e+01	-5.355693e+01
1.460000e-06	-1.746096e-06	-7.060642e-10	-1.211138e+01	-5.281197e+01
1.470000e-06	-1.701499e-06	-6.910341e-10	-1.180205e+01	-5.205671e+01
1.480000e-06	-1.656776e-06	-6.779170e-10	-1.149183e+01	-5.129073e+01
1.490000e-06	-1.611923e-06	-6.689632e-10	-1.118072e+01	-5.051360e+01
1.500000e-06	-1.566875e-06	-6.604839e-10	-1.086826e+01	-4.972487e+01
1.510000e-06	-1.521688e-06	-6.497323e-10	-1.055483e+01	-4.892410e+01
1.520000e-06	-1.476421e-06	-6.384964e-10	-1.024084e+01	-4.811079e+01
1.530000e-06	-1.430987e-06	-6.256655e-10	-9.925705e+00	-4.728448e+01
1.540000e-06	-1.385490e-06	-6.111710e-10	-9.610122e+00	-4.644465e+01
1.550000e-06	-1.339943e-06	-5.967366e-10	-9.294199e+00	-4.559082e+01
1.560000e-06	-1.294261e-06	-5.844467e-10	-8.977335e+00	-4.472246e+01
1.570000e-06	-1.248492e-06	-5.734804e-10	-8.659871e+00	-4.383908e+01
1.580000e-06	-1.202658e-06	-5.609432e-10	-8.341953e+00	-4.294015e+01
1.590000e-06	-1.156800e-06	-5.458984e-10	-8.023865e+00	-4.202517e+01
1.600000e-06	-1.110844e-06	-5.315000e-10	-7.705105e+00	-4.109365e+01
1.610000e-06	-1.064792e-06	-5.158065e-10	-7.385674e+00	-4.014508e+01
1.620000e-06	-1.018753e-06	-4.982972e-10	-7.066340e+00	-3.917900e+01
1.630000e-06	-9.726229e-07	-4.832794e-10	-6.746368e+00	-3.819495e+01
1.640000e-06	-9.262790e-07	-4.709358e-10	-6.424914e+00	-3.719248e+01
1.650000e-06	-8.798261e-07	-4.570473e-10	-6.102705e+00	-3.617117e+01
1.660000e-06	-8.333256e-07	-4.390743e-10	-5.780166e+00	-3.513066e+01
1.670000e-06	-7.867558e-07	-4.230464e-10	-5.457145e+00	-3.407056e+01
1.680000e-06	-7.401696e-07	-4.086063e-10	-5.134011e+00	-3.299057e+01
1.690000e-06	-6.935766e-07	-3.954235e-10	-4.810830e+00	-3.189041e+01
1.700000e-06	-6.469831e-07	-3.814067e-10	-4.487645e+00	-3.076982e+01
1.710000e-06	-6.003929e-07	-3.671324e-10	-4.164483e+00	-2.962863e+01
1.720000e-06	-5.536942e-07	-3.500464e-10	-3.840569e+00	-2.846667e+01
1.730000e-06	-5.068778e-07	-3.302662e-10	-3.515837e+00	-2.728385e+01
1.740000e-06	-4.600403e-07	-3.098022e-10	-3.190960e+00	-2.608014e+01
1.750000e-06	-4.131800e-07	-2.913503e-10	-2.865925e+00	-2.485554e+01
1.760000e-06	-3.662620e-07	-2.757651e-10	-2.540490e+00	-2.361013e+01
1.770000e-06	-3.193264e-07	-2.604852e-10	-2.214932e+00	-2.234404e+01
1.780000e-06	-2.723865e-07	-2.437229e-10	-1.889345e+00	-2.105747e+01
1.790000e-06	-2.254474e-07	-2.263652e-10	-1.563762e+00	-1.975068e+01
1.800000e-06	-1.785822e-07	-2.085217e-10	-1.238693e+00	-1.842399e+01
1.810000e-06	-1.316686e-07	-1.885087e-10	-9.132882e-01	-1.707780e+01
1.820000e-06	-8.469932e-08	-1.671039e-10	-5.874968e-01	-1.571255e+01
1.830000e-06	-3.776170e-08	-1.448793e-10	-2.619251e-01	-1.432878e+01
1.840000e-06	9.231932e-09	-1.250024e-10	6.403511e-02	-1.292707e+01
1.850000e-06	5.618228e-08	-1.094853e-10	3.896951e-01	-1.150806e+01
1.860000e-06	1.030222e-07	-9.159968e-11	7.145892e-01	-1.007247e+01
1.870000e-06	1.499006e-07	-7.224783e-11	1.039750e+00	-8.621088e+00
1.880000e-06	1.968246e-07	-5.071552e-11	1.365227e+00	-7.154735e+00
1.890000e-06	2.437151e-07	-2.731889e-11	1.690472e+00	-5.674308e+00
1.900000e-06	2.906608e-07	-4.730363e-12	2.016100e+00	-4.180754e+00
1.910000e-06	3.376500e-07	1.701473e-11	2.342029e+00	-2.675074e+00
1.920000e-06	3.845034e-07	3.854961e-11	2.667017e+00	-1.158315e+00
1.930000e-06	4.313544e-07	5.879311e-11	2.991987e+00	3.684307e-01
1.940000e-06	4.781818e-07	7.843913e-11	3.316794e+00	1.904029e+00
1.950000e-06	5.248465e-07	9.903302e-11	3.640473e+00	3.447308e+00
1.960000e-06	5.714877e-07	1.206325e-10	3.963989e+00	4.997065e+00
1.970000e-06	6.181655e-07	1.424541e-10	4.287758e+00	6.552068e+00
1.980000e-06	6.647276e-07	1.640349e-10	4.610725e+00	8.111063e+00
1.990000e-06	7.111726e-07	1.850824e-10	4.932880e+00	9.672775e+00
2.000000e-06	7.576125e-07	2.055306e-10	5.254999e+00	1.123592e+01
2.010000e-06	8.039903e-07	2.249761e-10	5.576688e+00	1.279919e+01
2.020000e-06	8.503669e-07	2.467566e-10	5.898369e+00	1.436130e+01
2.030000e-06	8.966611e-07	2.737423e-10	6.219477e+00	1.592095e+01
2.040000e-06	9.428290e-07	2.996802e-10	6.539709e+00	1.747685e+01
2.050000e-06	9.889068e-07	3.232799e-10	6.859318e+00	1.902771e+01
2.060000e-06	1.034965e-06	3.428024e-10	7.178792e+00	2.057227e+01
2.070000e-06	1.080988e-06	3.602261e-10	7.498019e+00	2.210930e+01
2.080000e-06	1.126978e-06	3.770541e-10	7.817017e+00	2.363757e+01
2.090000e-06	1.172912e-06	3.968503e-10	8.135627e+00	2.515591e+01
2.100000e-06	1.218649e-06	4.197247e-10	8.452872e+00	2.666316e+01
2.110000e-06	1.264259e-06	4.434176e-10	8.769234e+00	2.815821e+01
2.120000e-06	1.309806e-06	4.648554e-10	9.085161e+00	2.964000e+01
2.130000e-06	1.355352e-06	4.845757e-10	9.401076e+00	3.110749e+01
2.140000e-06	1.400780e-06	5.029080e-10	9.716178e+00	3.255973e+01
2.150000e-06	1.446069e-06	5.214701e-10	1.003031e+01	3.399579e+01
2.160000e-06	1.491275e-06	5.399946e-10	1.034387e+01	3.541481e+01
2.170000e-06	1.536394e-06	5.586227e-10	1.065683e+01	3.681598e+01
2.180000e-06	1.581428e-06	5.780868e-10	1.096920e+01	3.819855e+01
2.190000e-06	1.626348e-06	5.982798e-10	1.128078e+01	3.956184e+01
2.200000e-06	1.671134e-06	6.175651e-10	1.159142e+01	4.090523e+01
2.210000e-06	1.715802e-06	6.357812e-10	1.190125e+01	4.222815e+01
2.220000e-06	1.760273e-06	6.517760e-10	1.220971e+01	4.353010e+01
2.230000e-06	1.804588e-06	6.663704e-10	1.251710e+01	4.481067e+01
2.240000e-06	1.848839e-06	6.839250e-10	1.282403e+01	4.606947e+01
2.250000e-06	1.892929e-06	7.035591e-10	1.312985e+01	4.730620e+01
2.260000e-06	1.936907e-06	7.217555e-10	1.343490e+01	4.852062e+01
2.270000e-06	1.980807e-06	7.367126e-10	1.373940e+01	4.971255e+01
2.280000e-06	2.024617e-06	7.492420e-10	1.404327e+01	5.088186e+01
2.290000e-06	2.068383e-06	7.597515e-10	1.434685e+01	5.202849e+01
2.300000e-06	2.112101e-06	7.718928e-10	1.465009e+01	5.315244e+01
2.310000e-06	2.155757e-06	7.879962e-10	1.495290e+01	5.425376e+01
2.320000e-06	2.199337e-06	8.072381e-10	1.525518e+01	5.533253e+01
2.330000e-06	2.242798e-06	8.263508e-10	1.555663e+01	5.638892e+01
2.340000e-06	2.286092e-06	8.420863e-10	1.585694e+01	5.742310e+01
2.350000e-06	2.329188e-06	8.528164e-10	1.615586e+01	5.843533e+01
2.360000e-06	2.372056e-06	8.611930e-10	1.645320e+01	5.942587e+01
2.370000e-06	2.414730e-06	8.691895e-10	1.674920e+01	6.039504e+01
2.380000e-06	2.457124e-06	8.810043e-10	1.704326e+01	6.134319e+01
2.390000e-06	2.499187e-06	8.960323e-10	1.733502e+01	6.227070e+01
2.400000e-06	2.540869e-06	9.117317e-10	1.762414e+01	6.317798e+01
2.410000e-06	2.582214e-06	9.265345e-10	1.791092e+01	6.406544e+01
2.420000e-06	2.623370e-06	9.399892e-10	1.819639e+01	6.493355e+01
2.430000e-06	2.664265e-06	9.511196e-10	1.848004e+01	6.578277e+01
2.440000e-06	2.704823e-06	9.599671e-10	1.876136e+01	6.661357e+01
2.450000e-06	2.745132e-06	9.681486e-10	1.904095e+01	6.742646e+01
2.460000e-06	2.785251e-06	9.778522e-10	1.931923e+01	6.822193e+01
2.470000e-06	2.825197e-06	9.890999e-10	1.959631e+01	6.900048e+01
2.480000e-06	2.865061e-06	1.001425e-09	1.987282e+01	6.976263e+01
2.490000e-06	2.904875e-06	1.014710e-09	2.014897e+01	7.050887e+01
2.500000e-06	2.944560e-06	1.028522e-09	2.042424e+01	7.123971e+01
2.510000e-06	2.984044e-06	1.040585e-09	2.069812e+01	7.195565e+01
2.520000e-06	3.023345e-06	1.049896e-09	2.097072e+01	7.265718e+01
2.530000e-06	3.062483e-06	1.058435e-09	2.124218e+01	7.334477e+01
2.540000e-06	3.101372e-06	1.067609e-09	2.151193e+01	7.401890e+01
2.550000e-06	3.140018e-06	1.076263e-09	2.177999e+01	7.468003e+01
2.560000e-06	3.178507e-06	1.083368e-09	2.204696e+01	7.532859e+01
2.570000e-06	3.216698e-06	1.093230e-09	2.231187e+01	7.596501e+01
2.580000e-06	3.254594e-06	1.105479e-09	2.257472e+01	7.658971e+01
2.590000e-06	3.292319e-06	1.115737e-09	2.283639e+01	7.720308e+01
2.600000e-06	3.329850e-06	1.123947e-09	2.309672e+01	7.780549e+01
2.610000e-06	3.367174e-06	1.132107e-09	2.335560e+01	7.839730e+01
2.620000e-06	3.404304e-06	1.139926e-09	2.361315e+01	7.897885e+01
2.630000e-06	3.441211e-06	1.146860e-09	2.386914e+01	7.955046e+01
2.640000e-06	3.477853e-06	1.154470e-09	2.412330e+01	8.011244e+01
2.650000e-06	3.514216e-06	1.165910e-09	2.437553e+01	8.066505e+01
2.660000e-06	3.550330e-06	1.176940e-09	2.462602e+01	8.120858e+01
2.670000e-06	3.586255e-06	1.185496e-09	2.487521e+01	8.174327e+01
2.680000e-06	3.622012e-06	1.192806e-09	2.512322e+01	8.226934e+01
2.690000e-06	3.657635e-06	1.197738e-09	2.537032e+01	8.278702e+01
2.700000e-06	3.693136e-06	1.202082e-09	2.561656e+01	8.329649e+01
2.710000e-06	3.728436e-06	1.208714e-09	2.586141e+01	8.379794e+01
2.720000e-06	3.763476e-06	1.216400e-09	2.610446e+01	8.429153e+01
2.730000e-06	3.798204e-06	1.224392e-09	2.634534e+01	8.477743e+01
2.740000e-06	3.832582e-06	1.231870e-09	2.658380e+01	8.525577e+01
2.750000e-06	3.866544e-06	1.239316e-09	2.681936e+01	8.572668e+01
2.760000e-06	3.900033e-06	1.245755e-09	2.705166e+01	8.619028e+01
2.770000e-06	3.933010e-06	1.250383e-09	2.728039e+01	8.664668e+01
2.780000e-06	3.965503e-06	1.255179e-09	2.750577e+01	8.709598e+01
2.790000e-06	3.997661e-06	1.259901e-09	2.772882e+01	8.753826e+01
2.800000e-06	4.029613e-06	1.265569e-09	2.795045e+01	8.797363e+01
2.810000e-06	4.061415e-06	1.272724e-09	2.817104e+01	8.840215e+01
2.820000e-06	4.093036e-06	1.281247e-09	2.839037e+01	8.882389e+01
2.830000e-06	4.124463e-06	1.289825e-09	2.860836e+01	8.923893e+01
2.840000e-06	4.155726e-06	1.296538e-09	2.882520e+01	8.964733e+01
2.850000e-06	4.186640e-06	1.301369e-09	2.903963e+01	9.004915e+01
2.860000e-06	4.217149e-06	1.304453e-09	2.925126e+01	9.044445e+01
2.870000e-06	4.247377e-06	1.307356e-09	2.946092e+01	9.083329e+01
2.880000e-06	4.277324e-06	1.310388e-09	2.966864e+01	9.121571e+01
2.890000e-06	4.306961e-06	1.314497e-09	2.987421e+01	9.159178e+01
2.900000e-06	4.336346e-06	1.321365e-09	3.007804e+01	9.196155e+01
2.910000e-06	4.365516e-06	1.329838e-09	3.028037e+01	9.232506e+01
