# Temperatura_=_-28.07
# Concentracion g/m^3_=_1620.0
# C_Vs_to_Am_M_A/Vsm_=_65563218390.804596
# pendiente_HvsI_1/m_=_3716.3
# ordenada_HvsI_A/m_=_1297.0
# frecuencia_Hz_=_135102.58408849905

Tiempo_(s)	Campo_(V.s)	Magnetizacion_(V.s)	Campo_(kA/m)	Magnetizacion_(A/m)
0.000000e+00	-5.512743e-06	-6.915554e-10	-3.836690e+01	-4.492834e+01
1.000000e-08	-5.513049e-06	-6.915175e-10	-3.836903e+01	-4.493803e+01
2.000000e-08	-5.513034e-06	-6.915851e-10	-3.836893e+01	-4.494563e+01
3.000000e-08	-5.512726e-06	-6.923444e-10	-3.836678e+01	-4.495112e+01
4.000000e-08	-5.512010e-06	-6.919461e-10	-3.836179e+01	-4.495450e+01
5.000000e-08	-5.510736e-06	-6.914844e-10	-3.835293e+01	-4.495576e+01
6.000000e-08	-5.508911e-06	-6.910803e-10	-3.834023e+01	-4.495490e+01
7.000000e-08	-5.506496e-06	-6.973452e-10	-3.832342e+01	-4.495196e+01
8.000000e-08	-5.503547e-06	-7.203178e-10	-3.830290e+01	-4.494696e+01
9.000000e-08	-5.500128e-06	-6.816641e-10	-3.827910e+01	-4.493996e+01
1.000000e-07	-5.496185e-06	-6.030550e-10	-3.825166e+01	-4.493101e+01
1.100000e-07	-5.491856e-06	-6.679409e-10	-3.822153e+01	-4.492019e+01
1.200000e-07	-5.487291e-06	-7.811760e-10	-3.818976e+01	-4.490758e+01
1.300000e-07	-5.482460e-06	-7.353682e-10	-3.815614e+01	-4.489328e+01
1.400000e-07	-5.477369e-06	-6.404174e-10	-3.812071e+01	-4.487739e+01
1.500000e-07	-5.472010e-06	-6.260786e-10	-3.808341e+01	-4.486004e+01
1.600000e-07	-5.466215e-06	-7.749616e-10	-3.804308e+01	-4.484135e+01
1.700000e-07	-5.459872e-06	-7.166714e-10	-3.799894e+01	-4.482147e+01
1.800000e-07	-5.453089e-06	-6.393606e-10	-3.795173e+01	-4.480053e+01
1.900000e-07	-5.445936e-06	-6.342057e-10	-3.790194e+01	-4.477870e+01
2.000000e-07	-5.438421e-06	-7.387448e-10	-3.784964e+01	-4.475613e+01
2.100000e-07	-5.430682e-06	-7.134613e-10	-3.779578e+01	-4.473300e+01
2.200000e-07	-5.422744e-06	-6.561748e-10	-3.774053e+01	-4.470947e+01
2.300000e-07	-5.414544e-06	-6.516819e-10	-3.768347e+01	-4.468571e+01
2.400000e-07	-5.405967e-06	-6.988580e-10	-3.762377e+01	-4.466190e+01
2.500000e-07	-5.396853e-06	-6.971702e-10	-3.756034e+01	-4.463822e+01
2.600000e-07	-5.387070e-06	-6.513438e-10	-3.749225e+01	-4.461484e+01
2.700000e-07	-5.376559e-06	-6.662283e-10	-3.741910e+01	-4.459193e+01
2.800000e-07	-5.365479e-06	-6.732117e-10	-3.734199e+01	-4.456966e+01
2.900000e-07	-5.354021e-06	-6.875091e-10	-3.726225e+01	-4.454818e+01
3.000000e-07	-5.342152e-06	-6.478340e-10	-3.717964e+01	-4.452765e+01
3.100000e-07	-5.329812e-06	-6.681497e-10	-3.709376e+01	-4.450821e+01
3.200000e-07	-5.317100e-06	-6.615989e-10	-3.700529e+01	-4.449000e+01
3.300000e-07	-5.304021e-06	-6.986371e-10	-3.691426e+01	-4.447315e+01
3.400000e-07	-5.290608e-06	-6.464296e-10	-3.682091e+01	-4.445776e+01
3.500000e-07	-5.276819e-06	-6.489332e-10	-3.672495e+01	-4.444394e+01
3.600000e-07	-5.262492e-06	-6.589994e-10	-3.662523e+01	-4.443176e+01
3.700000e-07	-5.247698e-06	-6.730921e-10	-3.652227e+01	-4.442129e+01
3.800000e-07	-5.232459e-06	-6.156175e-10	-3.641622e+01	-4.441259e+01
3.900000e-07	-5.216793e-06	-6.725171e-10	-3.630718e+01	-4.440570e+01
4.000000e-07	-5.200690e-06	-6.944409e-10	-3.619511e+01	-4.440063e+01
4.100000e-07	-5.184135e-06	-6.285913e-10	-3.607989e+01	-4.439739e+01
4.200000e-07	-5.167286e-06	-6.150811e-10	-3.596263e+01	-4.439595e+01
4.300000e-07	-5.150140e-06	-7.162607e-10	-3.584330e+01	-4.439629e+01
4.400000e-07	-5.132675e-06	-6.645727e-10	-3.572175e+01	-4.439836e+01
4.500000e-07	-5.114870e-06	-5.808038e-10	-3.559783e+01	-4.440208e+01
4.600000e-07	-5.096628e-06	-6.711073e-10	-3.547088e+01	-4.440738e+01
4.700000e-07	-5.077887e-06	-7.123125e-10	-3.534044e+01	-4.441414e+01
4.800000e-07	-5.058701e-06	-5.955459e-10	-3.520692e+01	-4.442226e+01
4.900000e-07	-5.039271e-06	-6.179466e-10	-3.507168e+01	-4.443161e+01
5.000000e-07	-5.019696e-06	-7.155842e-10	-3.493545e+01	-4.444203e+01
5.100000e-07	-4.999881e-06	-6.264497e-10	-3.479755e+01	-4.445337e+01
5.200000e-07	-4.979697e-06	-5.923249e-10	-3.465707e+01	-4.446546e+01
5.300000e-07	-4.959229e-06	-7.008129e-10	-3.451462e+01	-4.447812e+01
5.400000e-07	-4.938475e-06	-6.725375e-10	-3.437018e+01	-4.449117e+01
5.500000e-07	-4.917362e-06	-5.775146e-10	-3.422324e+01	-4.450440e+01
5.600000e-07	-4.895905e-06	-6.717848e-10	-3.407391e+01	-4.451762e+01
5.700000e-07	-4.874059e-06	-6.977009e-10	-3.392186e+01	-4.453061e+01
5.800000e-07	-4.851829e-06	-6.024304e-10	-3.376715e+01	-4.454318e+01
5.900000e-07	-4.829274e-06	-6.276068e-10	-3.361018e+01	-4.455510e+01
6.000000e-07	-4.806454e-06	-7.055485e-10	-3.345136e+01	-4.456618e+01
6.100000e-07	-4.783294e-06	-6.323242e-10	-3.329017e+01	-4.457619e+01
6.200000e-07	-4.759859e-06	-6.269710e-10	-3.312707e+01	-4.458494e+01
6.300000e-07	-4.736272e-06	-6.912330e-10	-3.296292e+01	-4.459223e+01
6.400000e-07	-4.712408e-06	-6.680644e-10	-3.279683e+01	-4.459785e+01
6.500000e-07	-4.688179e-06	-6.246906e-10	-3.262820e+01	-4.460163e+01
6.600000e-07	-4.663629e-06	-6.764706e-10	-3.245734e+01	-4.460338e+01
6.700000e-07	-4.638644e-06	-6.660762e-10	-3.228345e+01	-4.460294e+01
6.800000e-07	-4.613028e-06	-6.314892e-10	-3.210517e+01	-4.460015e+01
6.900000e-07	-4.586831e-06	-6.537572e-10	-3.192285e+01	-4.459485e+01
7.000000e-07	-4.560102e-06	-6.735592e-10	-3.173682e+01	-4.458693e+01
7.100000e-07	-4.532933e-06	-6.413476e-10	-3.154774e+01	-4.457626e+01
7.200000e-07	-4.505500e-06	-6.508197e-10	-3.135681e+01	-4.456272e+01
7.300000e-07	-4.477882e-06	-6.653916e-10	-3.116460e+01	-4.454623e+01
7.400000e-07	-4.450089e-06	-6.507247e-10	-3.097117e+01	-4.452671e+01
7.500000e-07	-4.422067e-06	-6.445186e-10	-3.077615e+01	-4.450409e+01
7.600000e-07	-4.393831e-06	-6.569696e-10	-3.057964e+01	-4.447832e+01
7.700000e-07	-4.365314e-06	-6.496503e-10	-3.038116e+01	-4.444936e+01
7.800000e-07	-4.336409e-06	-6.428953e-10	-3.017999e+01	-4.441719e+01
7.900000e-07	-4.307186e-06	-6.499481e-10	-2.997661e+01	-4.438179e+01
8.000000e-07	-4.277675e-06	-6.444491e-10	-2.977123e+01	-4.434318e+01
8.100000e-07	-4.247862e-06	-6.371676e-10	-2.956374e+01	-4.430135e+01
8.200000e-07	-4.217770e-06	-6.427680e-10	-2.935431e+01	-4.425634e+01
8.300000e-07	-4.187402e-06	-6.457077e-10	-2.914296e+01	-4.420817e+01
8.400000e-07	-4.156754e-06	-6.296496e-10	-2.892966e+01	-4.415689e+01
8.500000e-07	-4.125876e-06	-6.324257e-10	-2.871476e+01	-4.410254e+01
8.600000e-07	-4.094748e-06	-6.386473e-10	-2.849812e+01	-4.404519e+01
8.700000e-07	-4.063293e-06	-6.364089e-10	-2.827920e+01	-4.398488e+01
8.800000e-07	-4.031640e-06	-6.322744e-10	-2.805890e+01	-4.392170e+01
8.900000e-07	-3.999840e-06	-6.455835e-10	-2.783759e+01	-4.385570e+01
9.000000e-07	-3.967819e-06	-6.370766e-10	-2.761473e+01	-4.378694e+01
9.100000e-07	-3.935445e-06	-6.284776e-10	-2.738942e+01	-4.371552e+01
9.200000e-07	-3.902743e-06	-6.296849e-10	-2.716183e+01	-4.364148e+01
9.300000e-07	-3.869749e-06	-6.293254e-10	-2.693219e+01	-4.356489e+01
9.400000e-07	-3.836380e-06	-6.166378e-10	-2.669996e+01	-4.348583e+01
9.500000e-07	-3.802492e-06	-6.248721e-10	-2.646411e+01	-4.340435e+01
9.600000e-07	-3.768061e-06	-6.315626e-10	-2.622448e+01	-4.332049e+01
9.700000e-07	-3.733301e-06	-6.253384e-10	-2.598256e+01	-4.323432e+01
9.800000e-07	-3.698266e-06	-6.190036e-10	-2.573873e+01	-4.314586e+01
9.900000e-07	-3.662982e-06	-6.272453e-10	-2.549316e+01	-4.305516e+01
1.000000e-06	-3.627482e-06	-6.223874e-10	-2.524609e+01	-4.296224e+01
1.010000e-06	-3.591830e-06	-6.165307e-10	-2.499797e+01	-4.286711e+01
1.020000e-06	-3.556071e-06	-6.222868e-10	-2.474910e+01	-4.276979e+01
1.030000e-06	-3.520128e-06	-6.251634e-10	-2.449894e+01	-4.267026e+01
1.040000e-06	-3.483996e-06	-6.161486e-10	-2.424748e+01	-4.256853e+01
1.050000e-06	-3.447696e-06	-6.175473e-10	-2.399484e+01	-4.246456e+01
1.060000e-06	-3.411095e-06	-6.206833e-10	-2.374011e+01	-4.235833e+01
1.070000e-06	-3.374181e-06	-6.146127e-10	-2.348320e+01	-4.224981e+01
1.080000e-06	-3.337030e-06	-6.133494e-10	-2.322464e+01	-4.213894e+01
1.090000e-06	-3.299633e-06	-6.194770e-10	-2.296438e+01	-4.202566e+01
1.100000e-06	-3.261975e-06	-6.176701e-10	-2.270229e+01	-4.190992e+01
1.110000e-06	-3.224131e-06	-6.096296e-10	-2.243891e+01	-4.179164e+01
1.120000e-06	-3.186099e-06	-6.106129e-10	-2.217422e+01	-4.167074e+01
1.130000e-06	-3.147808e-06	-6.071993e-10	-2.190772e+01	-4.154715e+01
1.140000e-06	-3.109241e-06	-6.018804e-10	-2.163931e+01	-4.142076e+01
1.150000e-06	-3.070510e-06	-6.012093e-10	-2.136975e+01	-4.129150e+01
1.160000e-06	-3.031615e-06	-6.064030e-10	-2.109906e+01	-4.115925e+01
1.170000e-06	-2.992475e-06	-6.028580e-10	-2.082666e+01	-4.102392e+01
1.180000e-06	-2.953092e-06	-5.996172e-10	-2.055256e+01	-4.088541e+01
1.190000e-06	-2.913512e-06	-5.989469e-10	-2.027710e+01	-4.074361e+01
1.200000e-06	-2.873897e-06	-5.968977e-10	-2.000139e+01	-4.059842e+01
1.210000e-06	-2.834190e-06	-5.905338e-10	-1.972504e+01	-4.044972e+01
1.220000e-06	-2.794344e-06	-5.921138e-10	-1.944773e+01	-4.029742e+01
1.230000e-06	-2.754351e-06	-5.905840e-10	-1.916939e+01	-4.014141e+01
1.240000e-06	-2.714171e-06	-5.855099e-10	-1.888975e+01	-3.998159e+01
1.250000e-06	-2.673812e-06	-5.781365e-10	-1.860886e+01	-3.981785e+01
1.260000e-06	-2.633163e-06	-5.753805e-10	-1.832596e+01	-3.965009e+01
1.270000e-06	-2.592142e-06	-5.693422e-10	-1.804047e+01	-3.947823e+01
1.280000e-06	-2.550815e-06	-5.649455e-10	-1.775285e+01	-3.930215e+01
1.290000e-06	-2.509271e-06	-5.649367e-10	-1.746371e+01	-3.912177e+01
1.300000e-06	-2.467459e-06	-5.654304e-10	-1.717271e+01	-3.893701e+01
1.310000e-06	-2.425329e-06	-5.606999e-10	-1.687950e+01	-3.874776e+01
1.320000e-06	-2.382949e-06	-5.554282e-10	-1.658455e+01	-3.855394e+01
1.330000e-06	-2.340406e-06	-5.518967e-10	-1.628846e+01	-3.835546e+01
1.340000e-06	-2.297628e-06	-5.466064e-10	-1.599075e+01	-3.815224e+01
1.350000e-06	-2.254579e-06	-5.422930e-10	-1.569114e+01	-3.794419e+01
1.360000e-06	-2.211335e-06	-5.409562e-10	-1.539017e+01	-3.773122e+01
1.370000e-06	-2.167922e-06	-5.401436e-10	-1.508804e+01	-3.751324e+01
1.380000e-06	-2.124384e-06	-5.379637e-10	-1.478502e+01	-3.729016e+01
1.390000e-06	-2.080796e-06	-5.346728e-10	-1.448167e+01	-3.706188e+01
1.400000e-06	-2.037125e-06	-5.288461e-10	-1.417773e+01	-3.682831e+01
1.410000e-06	-1.993333e-06	-5.220192e-10	-1.387295e+01	-3.658933e+01
1.420000e-06	-1.949442e-06	-5.166111e-10	-1.356748e+01	-3.634485e+01
1.430000e-06	-1.905468e-06	-5.147109e-10	-1.326144e+01	-3.609472e+01
1.440000e-06	-1.861440e-06	-5.114077e-10	-1.295502e+01	-3.583884e+01
1.450000e-06	-1.817346e-06	-5.086711e-10	-1.264814e+01	-3.557706e+01
1.460000e-06	-1.773053e-06	-5.053265e-10	-1.233987e+01	-3.530924e+01
1.470000e-06	-1.728582e-06	-5.029995e-10	-1.203037e+01	-3.503521e+01
1.480000e-06	-1.684119e-06	-4.981462e-10	-1.172092e+01	-3.475481e+01
1.490000e-06	-1.639544e-06	-4.938266e-10	-1.141069e+01	-3.446787e+01
1.500000e-06	-1.594688e-06	-4.903978e-10	-1.109851e+01	-3.417417e+01
1.510000e-06	-1.549726e-06	-4.858728e-10	-1.078559e+01	-3.387354e+01
1.520000e-06	-1.504705e-06	-4.808858e-10	-1.047226e+01	-3.356573e+01
1.530000e-06	-1.459532e-06	-4.757708e-10	-1.015787e+01	-3.325052e+01
1.540000e-06	-1.414264e-06	-4.716117e-10	-9.842814e+00	-3.292767e+01
1.550000e-06	-1.368900e-06	-4.655729e-10	-9.527096e+00	-3.259692e+01
1.560000e-06	-1.323479e-06	-4.587277e-10	-9.210981e+00	-3.225800e+01
1.570000e-06	-1.277960e-06	-4.549032e-10	-8.894188e+00	-3.191064e+01
1.580000e-06	-1.232338e-06	-4.511516e-10	-8.576675e+00	-3.155453e+01
1.590000e-06	-1.186657e-06	-4.462828e-10	-8.258744e+00	-3.118938e+01
1.600000e-06	-1.140869e-06	-4.388811e-10	-7.940080e+00	-3.081489e+01
1.610000e-06	-1.094960e-06	-4.327071e-10	-7.620569e+00	-3.043074e+01
1.620000e-06	-1.048949e-06	-4.264879e-10	-7.300343e+00	-3.003660e+01
1.630000e-06	-1.002919e-06	-4.195686e-10	-6.979987e+00	-2.963216e+01
1.640000e-06	-9.569049e-07	-4.148130e-10	-6.659747e+00	-2.921709e+01
1.650000e-06	-9.108017e-07	-4.097418e-10	-6.338884e+00	-2.879106e+01
1.660000e-06	-8.645293e-07	-4.022242e-10	-6.016843e+00	-2.835376e+01
1.670000e-06	-8.181528e-07	-3.938816e-10	-5.694077e+00	-2.790485e+01
1.680000e-06	-7.717759e-07	-3.855307e-10	-5.371309e+00	-2.744404e+01
1.690000e-06	-7.254700e-07	-3.790230e-10	-5.049035e+00	-2.697102e+01
1.700000e-06	-6.791640e-07	-3.711645e-10	-4.726761e+00	-2.648551e+01
1.710000e-06	-6.328142e-07	-3.643664e-10	-4.404181e+00	-2.598722e+01
1.720000e-06	-5.863287e-07	-3.588648e-10	-4.080657e+00	-2.547590e+01
1.730000e-06	-5.398109e-07	-3.513690e-10	-3.756909e+00	-2.495132e+01
1.740000e-06	-4.934068e-07	-3.413220e-10	-3.433951e+00	-2.441325e+01
1.750000e-06	-4.468853e-07	-3.280179e-10	-3.110176e+00	-2.386151e+01
1.760000e-06	-4.002316e-07	-3.155266e-10	-2.785482e+00	-2.329593e+01
1.770000e-06	-3.534656e-07	-3.057104e-10	-2.460006e+00	-2.271638e+01
1.780000e-06	-3.066224e-07	-2.977335e-10	-2.133992e+00	-2.212276e+01
1.790000e-06	-2.598277e-07	-2.931795e-10	-1.808317e+00	-2.151500e+01
1.800000e-06	-2.130877e-07	-2.893758e-10	-1.483021e+00	-2.089306e+01
1.810000e-06	-1.663864e-07	-2.832455e-10	-1.157995e+00	-2.025695e+01
1.820000e-06	-1.196215e-07	-2.720156e-10	-8.325268e-01	-1.960672e+01
1.830000e-06	-7.285606e-08	-2.562584e-10	-5.070545e-01	-1.894244e+01
1.840000e-06	-2.610279e-08	-2.407025e-10	-1.816669e-01	-1.826424e+01
1.850000e-06	2.070594e-08	-2.280394e-10	1.441066e-01	-1.757230e+01
1.860000e-06	6.749026e-08	-2.205318e-10	4.697103e-01	-1.686682e+01
1.870000e-06	1.142318e-07	-2.138136e-10	7.950159e-01	-1.614805e+01
1.880000e-06	1.609545e-07	-2.050686e-10	1.120191e+00	-1.541630e+01
1.890000e-06	2.076723e-07	-1.944609e-10	1.445331e+00	-1.467189e+01
1.900000e-06	2.543727e-07	-1.836043e-10	1.770351e+00	-1.391523e+01
1.910000e-06	3.010970e-07	-1.725607e-10	2.095537e+00	-1.314673e+01
1.920000e-06	3.478403e-07	-1.600815e-10	2.420855e+00	-1.236685e+01
1.930000e-06	3.945489e-07	-1.441723e-10	2.745932e+00	-1.157612e+01
1.940000e-06	4.412220e-07	-1.321701e-10	3.070761e+00	-1.077506e+01
1.950000e-06	4.877759e-07	-1.228559e-10	3.394762e+00	-9.964271e+00
1.960000e-06	5.342784e-07	-1.142220e-10	3.718404e+00	-9.144362e+00
1.970000e-06	5.808151e-07	-1.064139e-10	4.042285e+00	-8.315982e+00
1.980000e-06	6.273014e-07	-9.696841e-11	4.365813e+00	-7.479812e+00
1.990000e-06	6.737020e-07	-8.604622e-11	4.688747e+00	-6.636558e+00
2.000000e-06	7.200728e-07	-7.325960e-11	5.011472e+00	-5.786953e+00
2.010000e-06	7.663996e-07	-5.828227e-11	5.333892e+00	-4.931749e+00
2.020000e-06	8.125944e-07	-4.395095e-11	5.655393e+00	-4.071718e+00
2.030000e-06	8.587110e-07	-2.955457e-11	5.976350e+00	-3.207650e+00
2.040000e-06	9.048525e-07	-1.346330e-11	6.297479e+00	-2.340342e+00
2.050000e-06	9.510193e-07	-9.798399e-13	6.618785e+00	-1.470605e+00
2.060000e-06	9.970960e-07	9.762587e-12	6.939464e+00	-5.992522e-01
2.070000e-06	1.043043e-06	2.078872e-11	7.259238e+00	2.728989e-01
2.080000e-06	1.088869e-06	3.396804e-11	7.578175e+00	1.145033e+00
2.090000e-06	1.134539e-06	4.760870e-11	7.896024e+00	2.016339e+00
2.100000e-06	1.180121e-06	6.202196e-11	8.213258e+00	2.886013e+00
2.110000e-06	1.225692e-06	7.496633e-11	8.530416e+00	3.753264e+00
2.120000e-06	1.271282e-06	8.737852e-11	8.847709e+00	4.617312e+00
2.130000e-06	1.316797e-06	9.995272e-11	9.164481e+00	5.477396e+00
2.140000e-06	1.362221e-06	1.120046e-10	9.480613e+00	6.332775e+00
2.150000e-06	1.407559e-06	1.234209e-10	9.796156e+00	7.182728e+00
2.160000e-06	1.452746e-06	1.325422e-10	1.011064e+01	8.026563e+00
2.170000e-06	1.497768e-06	1.420302e-10	1.042398e+01	8.863610e+00
2.180000e-06	1.542684e-06	1.519724e-10	1.073658e+01	9.693233e+00
2.190000e-06	1.587513e-06	1.648285e-10	1.104858e+01	1.051482e+01
2.200000e-06	1.632092e-06	1.795365e-10	1.135883e+01	1.132781e+01
2.210000e-06	1.676463e-06	1.918889e-10	1.166764e+01	1.213165e+01
2.220000e-06	1.720781e-06	2.008553e-10	1.197608e+01	1.292584e+01
2.230000e-06	1.765031e-06	2.086639e-10	1.228404e+01	1.370990e+01
2.240000e-06	1.809166e-06	2.183326e-10	1.259121e+01	1.448341e+01
2.250000e-06	1.853169e-06	2.295975e-10	1.289746e+01	1.524598e+01
2.260000e-06	1.897030e-06	2.421740e-10	1.320271e+01	1.599724e+01
2.270000e-06	1.940852e-06	2.547624e-10	1.350770e+01	1.673686e+01
2.280000e-06	1.984655e-06	2.652549e-10	1.381256e+01	1.746458e+01
2.290000e-06	2.028393e-06	2.739705e-10	1.411695e+01	1.818014e+01
2.300000e-06	2.072047e-06	2.824704e-10	1.442077e+01	1.888333e+01
2.310000e-06	2.115607e-06	2.892926e-10	1.472394e+01	1.957398e+01
2.320000e-06	2.159100e-06	2.945913e-10	1.502663e+01	2.025193e+01
2.330000e-06	2.202492e-06	3.033436e-10	1.532863e+01	2.091708e+01
2.340000e-06	2.245771e-06	3.155491e-10	1.562984e+01	2.156935e+01
2.350000e-06	2.288875e-06	3.282703e-10	1.592982e+01	2.220870e+01
2.360000e-06	2.331773e-06	3.407194e-10	1.622838e+01	2.283509e+01
2.370000e-06	2.374471e-06	3.522753e-10	1.652555e+01	2.344854e+01
2.380000e-06	2.416887e-06	3.599759e-10	1.682075e+01	2.404907e+01
2.390000e-06	2.459012e-06	3.654636e-10	1.711393e+01	2.463674e+01
2.400000e-06	2.500799e-06	3.701733e-10	1.740475e+01	2.521161e+01
2.410000e-06	2.542178e-06	3.758854e-10	1.769273e+01	2.577378e+01
2.420000e-06	2.583165e-06	3.838772e-10	1.797799e+01	2.632337e+01
2.430000e-06	2.623913e-06	3.930439e-10	1.826158e+01	2.686048e+01
2.440000e-06	2.664466e-06	4.032644e-10	1.854382e+01	2.738526e+01
2.450000e-06	2.704740e-06	4.112284e-10	1.882411e+01	2.789786e+01
2.460000e-06	2.744837e-06	4.159052e-10	1.910318e+01	2.839844e+01
2.470000e-06	2.784798e-06	4.195426e-10	1.938129e+01	2.888716e+01
2.480000e-06	2.824623e-06	4.243561e-10	1.965846e+01	2.936419e+01
2.490000e-06	2.864348e-06	4.303227e-10	1.993493e+01	2.982971e+01
2.500000e-06	2.903958e-06	4.368070e-10	2.021061e+01	3.028391e+01
2.510000e-06	2.943439e-06	4.460853e-10	2.048538e+01	3.072695e+01
2.520000e-06	2.982725e-06	4.559519e-10	2.075880e+01	3.115904e+01
2.530000e-06	3.021866e-06	4.628323e-10	2.103121e+01	3.158034e+01
2.540000e-06	3.060914e-06	4.684263e-10	2.130297e+01	3.199105e+01
2.550000e-06	3.099716e-06	4.737378e-10	2.157302e+01	3.239134e+01
2.560000e-06	3.138109e-06	4.775995e-10	2.184022e+01	3.278139e+01
2.570000e-06	3.176260e-06	4.804908e-10	2.210574e+01	3.316138e+01
2.580000e-06	3.214272e-06	4.852099e-10	2.237029e+01	3.353148e+01
2.590000e-06	3.252050e-06	4.927651e-10	2.263321e+01	3.389185e+01
2.600000e-06	3.289628e-06	5.003180e-10	2.289474e+01	3.424266e+01
2.610000e-06	3.326974e-06	5.049322e-10	2.315466e+01	3.458407e+01
2.620000e-06	3.364048e-06	5.078711e-10	2.341268e+01	3.491624e+01
2.630000e-06	3.400904e-06	5.122718e-10	2.366918e+01	3.523930e+01
2.640000e-06	3.437606e-06	5.164147e-10	2.392462e+01	3.555342e+01
2.650000e-06	3.474009e-06	5.203466e-10	2.417798e+01	3.585874e+01
2.660000e-06	3.510105e-06	5.283339e-10	2.442919e+01	3.615539e+01
2.670000e-06	3.546094e-06	5.362902e-10	2.467966e+01	3.644352e+01
2.680000e-06	3.581952e-06	5.418904e-10	2.492922e+01	3.672325e+01
2.690000e-06	3.617655e-06	5.449769e-10	2.517771e+01	3.699473e+01
2.700000e-06	3.653245e-06	5.439972e-10	2.542540e+01	3.725808e+01
2.710000e-06	3.688661e-06	5.430288e-10	2.567188e+01	3.751344e+01
2.720000e-06	3.723822e-06	5.444090e-10	2.591659e+01	3.776092e+01
2.730000e-06	3.758711e-06	5.478162e-10	2.615941e+01	3.800068e+01
2.740000e-06	3.793256e-06	5.522176e-10	2.639983e+01	3.823282e+01
2.750000e-06	3.827326e-06	5.553907e-10	2.663695e+01	3.845749e+01
2.760000e-06	3.860833e-06	5.571150e-10	2.687014e+01	3.867482e+01
2.770000e-06	3.893797e-06	5.573945e-10	2.709956e+01	3.888493e+01
2.780000e-06	3.926345e-06	5.570879e-10	2.732608e+01	3.908798e+01
2.790000e-06	3.958542e-06	5.600706e-10	2.755016e+01	3.928408e+01
2.800000e-06	3.990451e-06	5.640586e-10	2.777224e+01	3.947339e+01
2.810000e-06	4.022205e-06	5.661889e-10	2.799324e+01	3.965605e+01
2.820000e-06	4.053815e-06	5.671629e-10	2.821324e+01	3.983220e+01
2.830000e-06	4.085287e-06	5.694060e-10	2.843227e+01	4.000199e+01
2.840000e-06	4.116615e-06	5.720610e-10	2.865030e+01	4.016558e+01
2.850000e-06	4.147689e-06	5.725584e-10	2.886657e+01	4.032312e+01
2.860000e-06	4.178384e-06	5.726939e-10	2.908020e+01	4.047476e+01
2.870000e-06	4.208733e-06	5.738360e-10	2.929142e+01	4.062066e+01
2.880000e-06	4.238858e-06	5.755756e-10	2.950108e+01	4.076100e+01
2.890000e-06	4.268743e-06	5.757928e-10	2.970906e+01	4.089593e+01
2.900000e-06	4.298344e-06	5.744249e-10	2.991508e+01	4.102562e+01
