# Temperatura_=_7.17
# Concentracion g/m^3_=_1620.0
# C_Vs_to_Am_M_A/Vsm_=_65563218390.804596
# pendiente_HvsI_1/m_=_3716.3
# ordenada_HvsI_A/m_=_1297.0
# frecuencia_Hz_=_135111.91508603518

Tiempo_(s)	Campo_(V.s)	Magnetizacion_(V.s)	Campo_(kA/m)	Magnetizacion_(A/m)
0.000000e+00	-5.481923e-06	-1.303401e-09	-3.835355e+01	-8.382679e+01
1.000000e-08	-5.482128e-06	-1.303633e-09	-3.835499e+01	-8.382749e+01
2.000000e-08	-5.482138e-06	-1.300799e-09	-3.835506e+01	-8.382518e+01
3.000000e-08	-5.481893e-06	-1.299532e-09	-3.835334e+01	-8.381956e+01
4.000000e-08	-5.481307e-06	-1.301217e-09	-3.834925e+01	-8.381032e+01
5.000000e-08	-5.480247e-06	-1.302363e-09	-3.834183e+01	-8.379717e+01
6.000000e-08	-5.478561e-06	-1.299905e-09	-3.833003e+01	-8.377982e+01
7.000000e-08	-5.476229e-06	-1.294267e-09	-3.831372e+01	-8.375798e+01
8.000000e-08	-5.473334e-06	-1.294400e-09	-3.829346e+01	-8.373137e+01
9.000000e-08	-5.469937e-06	-1.303716e-09	-3.826970e+01	-8.369974e+01
1.000000e-07	-5.466094e-06	-1.308712e-09	-3.824281e+01	-8.366284e+01
1.100000e-07	-5.461903e-06	-1.301248e-09	-3.821349e+01	-8.362045e+01
1.200000e-07	-5.457510e-06	-1.290298e-09	-3.818276e+01	-8.357235e+01
1.300000e-07	-5.452937e-06	-1.276001e-09	-3.815076e+01	-8.351837e+01
1.400000e-07	-5.447979e-06	-1.283607e-09	-3.811607e+01	-8.345834e+01
1.500000e-07	-5.442575e-06	-1.277982e-09	-3.807826e+01	-8.339213e+01
1.600000e-07	-5.436797e-06	-1.286649e-09	-3.803784e+01	-8.331964e+01
1.700000e-07	-5.430713e-06	-1.293367e-09	-3.799527e+01	-8.324079e+01
1.800000e-07	-5.424243e-06	-1.303730e-09	-3.795000e+01	-8.315552e+01
1.900000e-07	-5.417324e-06	-1.298099e-09	-3.790160e+01	-8.306382e+01
2.000000e-07	-5.410036e-06	-1.262342e-09	-3.785061e+01	-8.296570e+01
2.100000e-07	-5.402459e-06	-1.248166e-09	-3.779760e+01	-8.286118e+01
2.200000e-07	-5.394644e-06	-1.268981e-09	-3.774292e+01	-8.275034e+01
2.300000e-07	-5.386603e-06	-1.293810e-09	-3.768666e+01	-8.263327e+01
2.400000e-07	-5.378289e-06	-1.270285e-09	-3.762850e+01	-8.251008e+01
2.500000e-07	-5.369398e-06	-1.254725e-09	-3.756629e+01	-8.238091e+01
2.600000e-07	-5.359678e-06	-1.250047e-09	-3.749829e+01	-8.224593e+01
2.700000e-07	-5.349250e-06	-1.244139e-09	-3.742533e+01	-8.210533e+01
2.800000e-07	-5.338304e-06	-1.213479e-09	-3.734874e+01	-8.195930e+01
2.900000e-07	-5.326903e-06	-1.216474e-09	-3.726898e+01	-8.180806e+01
3.000000e-07	-5.315148e-06	-1.230123e-09	-3.718674e+01	-8.165186e+01
3.100000e-07	-5.303075e-06	-1.229061e-09	-3.710227e+01	-8.149094e+01
3.200000e-07	-5.290645e-06	-1.209020e-09	-3.701530e+01	-8.132554e+01
3.300000e-07	-5.277807e-06	-1.215582e-09	-3.692549e+01	-8.115593e+01
3.400000e-07	-5.264557e-06	-1.225280e-09	-3.683278e+01	-8.098238e+01
3.500000e-07	-5.250914e-06	-1.211329e-09	-3.673733e+01	-8.080515e+01
3.600000e-07	-5.236867e-06	-1.200600e-09	-3.663906e+01	-8.062450e+01
3.700000e-07	-5.222331e-06	-1.211389e-09	-3.653735e+01	-8.044068e+01
3.800000e-07	-5.207399e-06	-1.217397e-09	-3.643288e+01	-8.025395e+01
3.900000e-07	-5.191964e-06	-1.207965e-09	-3.632490e+01	-8.006455e+01
4.000000e-07	-5.175765e-06	-1.201000e-09	-3.621157e+01	-7.987270e+01
4.100000e-07	-5.159087e-06	-1.191819e-09	-3.609488e+01	-7.967861e+01
4.200000e-07	-5.142230e-06	-1.188318e-09	-3.597694e+01	-7.948250e+01
4.300000e-07	-5.125080e-06	-1.196586e-09	-3.585695e+01	-7.928452e+01
4.400000e-07	-5.107609e-06	-1.201636e-09	-3.573471e+01	-7.908485e+01
4.500000e-07	-5.089846e-06	-1.188776e-09	-3.561044e+01	-7.888362e+01
4.600000e-07	-5.071736e-06	-1.188734e-09	-3.548374e+01	-7.868095e+01
4.700000e-07	-5.053120e-06	-1.184130e-09	-3.535349e+01	-7.847693e+01
4.800000e-07	-5.034035e-06	-1.165861e-09	-3.521997e+01	-7.827163e+01
4.900000e-07	-5.014695e-06	-1.164761e-09	-3.508466e+01	-7.806511e+01
5.000000e-07	-4.995100e-06	-1.185993e-09	-3.494756e+01	-7.785738e+01
5.100000e-07	-4.975311e-06	-1.172741e-09	-3.480911e+01	-7.764845e+01
5.200000e-07	-4.955283e-06	-1.157123e-09	-3.466899e+01	-7.743828e+01
5.300000e-07	-4.934894e-06	-1.169365e-09	-3.452634e+01	-7.722685e+01
5.400000e-07	-4.914154e-06	-1.173717e-09	-3.438124e+01	-7.701409e+01
5.500000e-07	-4.893157e-06	-1.150595e-09	-3.423433e+01	-7.679991e+01
5.600000e-07	-4.871867e-06	-1.149703e-09	-3.408538e+01	-7.658420e+01
5.700000e-07	-4.850181e-06	-1.151164e-09	-3.393366e+01	-7.636685e+01
5.800000e-07	-4.828186e-06	-1.138331e-09	-3.377977e+01	-7.614773e+01
5.900000e-07	-4.805813e-06	-1.138635e-09	-3.362324e+01	-7.592669e+01
6.000000e-07	-4.782974e-06	-1.149578e-09	-3.346345e+01	-7.570356e+01
6.100000e-07	-4.759776e-06	-1.137220e-09	-3.330115e+01	-7.547818e+01
6.200000e-07	-4.736324e-06	-1.130644e-09	-3.313707e+01	-7.525037e+01
6.300000e-07	-4.712700e-06	-1.137832e-09	-3.297179e+01	-7.501996e+01
6.400000e-07	-4.688898e-06	-1.130763e-09	-3.280526e+01	-7.478676e+01
6.500000e-07	-4.664841e-06	-1.117621e-09	-3.263695e+01	-7.455059e+01
6.600000e-07	-4.640399e-06	-1.121274e-09	-3.246594e+01	-7.431125e+01
6.700000e-07	-4.615657e-06	-1.117544e-09	-3.229284e+01	-7.406859e+01
6.800000e-07	-4.590541e-06	-1.101577e-09	-3.211712e+01	-7.382241e+01
6.900000e-07	-4.564775e-06	-1.099808e-09	-3.193685e+01	-7.357255e+01
7.000000e-07	-4.538404e-06	-1.102104e-09	-3.175235e+01	-7.331885e+01
7.100000e-07	-4.511604e-06	-1.092640e-09	-3.156485e+01	-7.306116e+01
7.200000e-07	-4.484350e-06	-1.084518e-09	-3.137417e+01	-7.279935e+01
7.300000e-07	-4.456725e-06	-1.085668e-09	-3.118089e+01	-7.253328e+01
7.400000e-07	-4.428977e-06	-1.081803e-09	-3.098675e+01	-7.226284e+01
7.500000e-07	-4.401142e-06	-1.077139e-09	-3.079201e+01	-7.198794e+01
7.600000e-07	-4.373106e-06	-1.074935e-09	-3.059586e+01	-7.170849e+01
7.700000e-07	-4.344764e-06	-1.070680e-09	-3.039757e+01	-7.142441e+01
7.800000e-07	-4.316117e-06	-1.060015e-09	-3.019715e+01	-7.113566e+01
7.900000e-07	-4.287123e-06	-1.056414e-09	-2.999430e+01	-7.084218e+01
8.000000e-07	-4.257801e-06	-1.054201e-09	-2.978914e+01	-7.054397e+01
8.100000e-07	-4.228251e-06	-1.045895e-09	-2.958240e+01	-7.024099e+01
8.200000e-07	-4.198426e-06	-1.035433e-09	-2.937373e+01	-6.993325e+01
8.300000e-07	-4.168350e-06	-1.032611e-09	-2.916331e+01	-6.962077e+01
8.400000e-07	-4.138052e-06	-1.027864e-09	-2.895134e+01	-6.930357e+01
8.500000e-07	-4.107367e-06	-1.023380e-09	-2.873665e+01	-6.898168e+01
8.600000e-07	-4.076318e-06	-1.022474e-09	-2.851943e+01	-6.865514e+01
8.700000e-07	-4.044977e-06	-1.021060e-09	-2.830015e+01	-6.832402e+01
8.800000e-07	-4.013447e-06	-1.013540e-09	-2.807956e+01	-6.798835e+01
8.900000e-07	-3.981798e-06	-1.008707e-09	-2.785813e+01	-6.764821e+01
9.000000e-07	-3.949991e-06	-1.001378e-09	-2.763559e+01	-6.730367e+01
9.100000e-07	-3.918048e-06	-9.889463e-10	-2.741211e+01	-6.695478e+01
9.200000e-07	-3.885907e-06	-9.795454e-10	-2.718724e+01	-6.660162e+01
9.300000e-07	-3.853367e-06	-9.776736e-10	-2.695958e+01	-6.624425e+01
9.400000e-07	-3.820365e-06	-9.759320e-10	-2.672868e+01	-6.588274e+01
9.500000e-07	-3.786973e-06	-9.722189e-10	-2.649506e+01	-6.551716e+01
9.600000e-07	-3.753123e-06	-9.701963e-10	-2.625823e+01	-6.514754e+01
9.700000e-07	-3.718785e-06	-9.628078e-10	-2.601799e+01	-6.477395e+01
9.800000e-07	-3.684000e-06	-9.509733e-10	-2.577462e+01	-6.439643e+01
9.900000e-07	-3.648881e-06	-9.435193e-10	-2.552892e+01	-6.401501e+01
1.000000e-06	-3.613553e-06	-9.391112e-10	-2.528175e+01	-6.362971e+01
1.010000e-06	-3.577991e-06	-9.323963e-10	-2.503295e+01	-6.324057e+01
1.020000e-06	-3.542252e-06	-9.297025e-10	-2.478290e+01	-6.284757e+01
1.030000e-06	-3.506409e-06	-9.301321e-10	-2.453213e+01	-6.245072e+01
1.040000e-06	-3.470412e-06	-9.256678e-10	-2.428028e+01	-6.205001e+01
1.050000e-06	-3.434217e-06	-9.184520e-10	-2.402705e+01	-6.164541e+01
1.060000e-06	-3.397771e-06	-9.135712e-10	-2.377206e+01	-6.123689e+01
1.070000e-06	-3.361094e-06	-9.060340e-10	-2.351545e+01	-6.082441e+01
1.080000e-06	-3.324108e-06	-8.965140e-10	-2.325669e+01	-6.040791e+01
1.090000e-06	-3.286849e-06	-8.905695e-10	-2.299601e+01	-5.998734e+01
1.100000e-06	-3.249366e-06	-8.855265e-10	-2.273376e+01	-5.956262e+01
1.110000e-06	-3.211725e-06	-8.751546e-10	-2.247041e+01	-5.913369e+01
1.120000e-06	-3.173943e-06	-8.670962e-10	-2.220607e+01	-5.870046e+01
1.130000e-06	-3.135888e-06	-8.617702e-10	-2.193983e+01	-5.826284e+01
1.140000e-06	-3.097614e-06	-8.550811e-10	-2.167205e+01	-5.782075e+01
1.150000e-06	-3.059123e-06	-8.479079e-10	-2.140276e+01	-5.737408e+01
1.160000e-06	-3.020445e-06	-8.440214e-10	-2.113215e+01	-5.692275e+01
1.170000e-06	-2.981625e-06	-8.375819e-10	-2.086055e+01	-5.646666e+01
1.180000e-06	-2.942549e-06	-8.271514e-10	-2.058716e+01	-5.600570e+01
1.190000e-06	-2.903230e-06	-8.184469e-10	-2.031207e+01	-5.553978e+01
1.200000e-06	-2.863804e-06	-8.109735e-10	-2.003623e+01	-5.506881e+01
1.210000e-06	-2.824202e-06	-8.023612e-10	-1.975916e+01	-5.459268e+01
1.220000e-06	-2.784428e-06	-7.971595e-10	-1.948089e+01	-5.411132e+01
1.230000e-06	-2.744553e-06	-7.938366e-10	-1.920190e+01	-5.362462e+01
1.240000e-06	-2.704563e-06	-7.850012e-10	-1.892212e+01	-5.313250e+01
1.250000e-06	-2.664464e-06	-7.740885e-10	-1.864157e+01	-5.263489e+01
1.260000e-06	-2.624218e-06	-7.671354e-10	-1.836000e+01	-5.213170e+01
1.270000e-06	-2.583830e-06	-7.613418e-10	-1.807743e+01	-5.162285e+01
1.280000e-06	-2.543234e-06	-7.553988e-10	-1.779341e+01	-5.110828e+01
1.290000e-06	-2.502368e-06	-7.498325e-10	-1.750749e+01	-5.058792e+01
1.300000e-06	-2.461202e-06	-7.430999e-10	-1.721948e+01	-5.006170e+01
1.310000e-06	-2.419675e-06	-7.327257e-10	-1.692894e+01	-4.952955e+01
1.320000e-06	-2.377837e-06	-7.201643e-10	-1.663623e+01	-4.899141e+01
1.330000e-06	-2.335661e-06	-7.084607e-10	-1.634115e+01	-4.844722e+01
1.340000e-06	-2.293211e-06	-6.969449e-10	-1.604415e+01	-4.789689e+01
1.350000e-06	-2.250452e-06	-6.880944e-10	-1.574499e+01	-4.734037e+01
1.360000e-06	-2.207318e-06	-6.815876e-10	-1.544321e+01	-4.677757e+01
1.370000e-06	-2.163960e-06	-6.730587e-10	-1.513987e+01	-4.620841e+01
1.380000e-06	-2.120494e-06	-6.624191e-10	-1.483576e+01	-4.563281e+01
1.390000e-06	-2.076998e-06	-6.510168e-10	-1.453145e+01	-4.505066e+01
1.400000e-06	-2.033429e-06	-6.391595e-10	-1.422662e+01	-4.446184e+01
1.410000e-06	-1.989783e-06	-6.285737e-10	-1.392125e+01	-4.386625e+01
1.420000e-06	-1.946040e-06	-6.186164e-10	-1.361522e+01	-4.326373e+01
1.430000e-06	-1.902216e-06	-6.109655e-10	-1.330861e+01	-4.265414e+01
1.440000e-06	-1.858375e-06	-6.022743e-10	-1.300188e+01	-4.203730e+01
1.450000e-06	-1.814499e-06	-5.928909e-10	-1.269490e+01	-4.141303e+01
1.460000e-06	-1.770522e-06	-5.838993e-10	-1.238723e+01	-4.078113e+01
1.470000e-06	-1.726445e-06	-5.739982e-10	-1.207885e+01	-4.014136e+01
1.480000e-06	-1.682306e-06	-5.614828e-10	-1.177004e+01	-3.949347e+01
1.490000e-06	-1.638075e-06	-5.484548e-10	-1.146058e+01	-3.883720e+01
1.500000e-06	-1.593659e-06	-5.362249e-10	-1.114982e+01	-3.817227e+01
1.510000e-06	-1.549010e-06	-5.241529e-10	-1.083745e+01	-3.749834e+01
1.520000e-06	-1.504243e-06	-5.128733e-10	-1.052424e+01	-3.681511e+01
1.530000e-06	-1.459394e-06	-5.020564e-10	-1.021046e+01	-3.612221e+01
1.540000e-06	-1.414447e-06	-4.918929e-10	-9.895996e+00	-3.541927e+01
1.550000e-06	-1.369423e-06	-4.820315e-10	-9.580990e+00	-3.470590e+01
1.560000e-06	-1.324238e-06	-4.692639e-10	-9.264855e+00	-3.398171e+01
1.570000e-06	-1.278959e-06	-4.539740e-10	-8.948071e+00	-3.324627e+01
1.580000e-06	-1.233670e-06	-4.380025e-10	-8.631210e+00	-3.249915e+01
1.590000e-06	-1.188258e-06	-4.209766e-10	-8.313494e+00	-3.173991e+01
1.600000e-06	-1.142672e-06	-4.060339e-10	-7.994558e+00	-3.096810e+01
1.610000e-06	-1.096942e-06	-3.937959e-10	-7.674612e+00	-3.018328e+01
1.620000e-06	-1.051151e-06	-3.810099e-10	-7.354242e+00	-2.938499e+01
1.630000e-06	-1.005350e-06	-3.665310e-10	-7.033798e+00	-2.857278e+01
1.640000e-06	-9.595332e-07	-3.511697e-10	-6.713249e+00	-2.774621e+01
1.650000e-06	-9.136520e-07	-3.362147e-10	-6.392247e+00	-2.690486e+01
1.660000e-06	-8.676839e-07	-3.224624e-10	-6.070637e+00	-2.604830e+01
1.670000e-06	-8.216554e-07	-3.093239e-10	-5.748604e+00	-2.517615e+01
1.680000e-06	-7.756065e-07	-2.970225e-10	-5.426429e+00	-2.428804e+01
1.690000e-06	-7.295694e-07	-2.859297e-10	-5.104337e+00	-2.338361e+01
1.700000e-06	-6.834679e-07	-2.748136e-10	-4.781794e+00	-2.246256e+01
1.710000e-06	-6.372677e-07	-2.621710e-10	-4.458560e+00	-2.152461e+01
1.720000e-06	-5.910436e-07	-2.486809e-10	-4.135159e+00	-2.056953e+01
1.730000e-06	-5.447987e-07	-2.353074e-10	-3.811613e+00	-1.959713e+01
1.740000e-06	-4.985089e-07	-2.213094e-10	-3.487752e+00	-1.860726e+01
1.750000e-06	-4.521638e-07	-2.055274e-10	-3.163505e+00	-1.759984e+01
1.760000e-06	-4.058292e-07	-1.902394e-10	-2.839331e+00	-1.657483e+01
1.770000e-06	-3.594482e-07	-1.752238e-10	-2.514832e+00	-1.553226e+01
1.780000e-06	-3.129698e-07	-1.592992e-10	-2.189652e+00	-1.447221e+01
1.790000e-06	-2.664837e-07	-1.439109e-10	-1.864418e+00	-1.339483e+01
1.800000e-06	-2.199292e-07	-1.293530e-10	-1.538706e+00	-1.230033e+01
1.810000e-06	-1.733776e-07	-1.129170e-10	-1.213014e+00	-1.118900e+01
1.820000e-06	-1.268794e-07	-9.581932e-11	-8.876949e-01	-1.006119e+01
1.830000e-06	-8.039743e-08	-7.950442e-11	-5.624901e-01	-8.917316e+00
1.840000e-06	-3.393304e-08	-6.270843e-11	-2.374081e-01	-7.757866e+00
1.850000e-06	1.256738e-08	-4.462494e-11	8.792604e-02	-6.583398e+00
1.860000e-06	5.912309e-08	-2.780089e-11	4.136470e-01	-5.394539e+00
1.870000e-06	1.056694e-07	-9.909547e-12	7.393024e-01	-4.191979e+00
1.880000e-06	1.521528e-07	9.507070e-12	1.064517e+00	-2.976476e+00
1.890000e-06	1.986332e-07	2.736460e-11	1.389711e+00	-1.748850e+00
1.900000e-06	2.451268e-07	4.488761e-11	1.714998e+00	-5.099812e-01
1.910000e-06	2.915215e-07	6.097388e-11	2.039592e+00	7.391937e-01
1.920000e-06	3.378482e-07	7.691665e-11	2.363711e+00	1.997685e+00
1.930000e-06	3.841928e-07	9.615765e-11	2.687954e+00	3.264453e+00
1.940000e-06	4.305099e-07	1.173358e-10	3.012006e+00	4.538416e+00
1.950000e-06	4.768566e-07	1.371115e-10	3.336265e+00	5.818450e+00
1.960000e-06	5.232154e-07	1.554112e-10	3.660608e+00	7.103396e+00
1.970000e-06	5.694533e-07	1.721085e-10	3.984105e+00	8.392069e+00
1.980000e-06	6.156125e-07	1.883131e-10	4.307052e+00	9.683258e+00
1.990000e-06	6.617224e-07	2.047141e-10	4.629654e+00	1.097574e+01
2.000000e-06	7.077908e-07	2.222731e-10	4.951965e+00	1.226826e+01
2.010000e-06	7.538726e-07	2.438603e-10	5.274371e+00	1.355959e+01
2.020000e-06	7.998974e-07	2.639058e-10	5.596378e+00	1.484848e+01
2.030000e-06	8.458158e-07	2.830133e-10	5.917639e+00	1.613368e+01
2.040000e-06	8.916976e-07	3.034601e-10	6.238645e+00	1.741399e+01
2.050000e-06	9.375563e-07	3.194666e-10	6.559490e+00	1.868818e+01
2.060000e-06	9.833844e-07	3.328800e-10	6.880120e+00	1.995508e+01
2.070000e-06	1.029146e-06	3.480373e-10	7.200284e+00	2.121353e+01
2.080000e-06	1.074813e-06	3.653042e-10	7.519786e+00	2.246243e+01
2.090000e-06	1.120434e-06	3.831755e-10	7.838972e+00	2.370069e+01
2.100000e-06	1.166008e-06	4.047417e-10	8.157824e+00	2.492729e+01
2.110000e-06	1.211516e-06	4.262357e-10	8.476210e+00	2.614125e+01
2.120000e-06	1.256915e-06	4.445572e-10	8.793842e+00	2.734163e+01
2.130000e-06	1.302137e-06	4.601112e-10	9.110234e+00	2.852758e+01
2.140000e-06	1.347239e-06	4.738932e-10	9.425780e+00	2.969829e+01
2.150000e-06	1.392236e-06	4.872471e-10	9.740600e+00	3.085302e+01
2.160000e-06	1.437004e-06	5.003694e-10	1.005381e+01	3.199108e+01
2.170000e-06	1.481635e-06	5.136536e-10	1.036607e+01	3.311186e+01
2.180000e-06	1.526280e-06	5.279122e-10	1.067842e+01	3.421483e+01
2.190000e-06	1.570817e-06	5.439739e-10	1.099001e+01	3.529952e+01
2.200000e-06	1.615196e-06	5.614024e-10	1.130051e+01	3.636551e+01
2.210000e-06	1.659489e-06	5.776664e-10	1.161040e+01	3.741248e+01
2.220000e-06	1.703700e-06	5.917826e-10	1.191971e+01	3.844017e+01
2.230000e-06	1.747822e-06	6.030195e-10	1.222841e+01	3.944836e+01
2.240000e-06	1.791868e-06	6.137708e-10	1.253657e+01	4.043694e+01
2.250000e-06	1.835811e-06	6.253593e-10	1.284401e+01	4.140583e+01
2.260000e-06	1.879695e-06	6.393548e-10	1.315104e+01	4.235502e+01
2.270000e-06	1.923538e-06	6.543493e-10	1.345778e+01	4.328457e+01
2.280000e-06	1.967288e-06	6.693904e-10	1.376387e+01	4.419458e+01
2.290000e-06	2.010988e-06	6.834131e-10	1.406961e+01	4.508520e+01
2.300000e-06	2.054613e-06	6.930274e-10	1.437483e+01	4.595664e+01
2.310000e-06	2.098155e-06	7.014343e-10	1.467947e+01	4.680914e+01
2.320000e-06	2.141660e-06	7.099522e-10	1.498385e+01	4.764298e+01
2.330000e-06	2.185056e-06	7.211417e-10	1.528745e+01	4.845850e+01
2.340000e-06	2.228213e-06	7.322217e-10	1.558940e+01	4.925604e+01
2.350000e-06	2.271095e-06	7.445197e-10	1.588942e+01	5.003598e+01
2.360000e-06	2.313585e-06	7.566108e-10	1.618669e+01	5.079872e+01
2.370000e-06	2.355725e-06	7.676036e-10	1.648152e+01	5.154468e+01
2.380000e-06	2.397624e-06	7.774337e-10	1.677466e+01	5.227428e+01
2.390000e-06	2.439193e-06	7.872619e-10	1.706549e+01	5.298797e+01
2.400000e-06	2.480403e-06	7.959429e-10	1.735381e+01	5.368620e+01
2.410000e-06	2.521321e-06	8.051672e-10	1.764009e+01	5.436941e+01
2.420000e-06	2.562128e-06	8.168242e-10	1.792560e+01	5.503805e+01
2.430000e-06	2.602812e-06	8.292680e-10	1.821024e+01	5.569255e+01
2.440000e-06	2.643216e-06	8.407094e-10	1.849291e+01	5.633336e+01
2.450000e-06	2.683367e-06	8.491370e-10	1.877382e+01	5.696088e+01
2.460000e-06	2.723351e-06	8.555649e-10	1.905357e+01	5.757554e+01
2.470000e-06	2.763240e-06	8.616816e-10	1.933265e+01	5.817772e+01
2.480000e-06	2.803073e-06	8.683489e-10	1.961133e+01	5.876780e+01
2.490000e-06	2.842783e-06	8.748894e-10	1.988916e+01	5.934613e+01
2.500000e-06	2.882353e-06	8.824854e-10	2.016600e+01	5.991306e+01
2.510000e-06	2.921733e-06	8.933192e-10	2.044152e+01	6.046891e+01
2.520000e-06	2.960846e-06	9.058620e-10	2.071517e+01	6.101396e+01
2.530000e-06	2.999751e-06	9.153929e-10	2.098737e+01	6.154850e+01
2.540000e-06	3.038420e-06	9.216846e-10	2.125791e+01	6.207279e+01
2.550000e-06	3.076842e-06	9.269008e-10	2.152672e+01	6.258707e+01
2.560000e-06	3.115037e-06	9.307034e-10	2.179395e+01	6.309154e+01
2.570000e-06	3.153008e-06	9.339968e-10	2.205961e+01	6.358642e+01
2.580000e-06	3.190817e-06	9.426257e-10	2.232413e+01	6.407188e+01
2.590000e-06	3.228463e-06	9.547867e-10	2.258752e+01	6.454810e+01
2.600000e-06	3.265907e-06	9.659253e-10	2.284949e+01	6.501523e+01
2.610000e-06	3.303208e-06	9.730698e-10	2.311046e+01	6.547341e+01
2.620000e-06	3.340329e-06	9.776583e-10	2.337018e+01	6.592278e+01
2.630000e-06	3.377053e-06	9.817468e-10	2.362711e+01	6.636345e+01
2.640000e-06	3.413438e-06	9.850714e-10	2.388167e+01	6.679556e+01
2.650000e-06	3.449643e-06	9.888177e-10	2.413498e+01	6.721920e+01
2.660000e-06	3.485671e-06	9.969066e-10	2.438704e+01	6.763450e+01
2.670000e-06	3.521563e-06	1.005829e-09	2.463815e+01	6.804156e+01
2.680000e-06	3.557346e-06	1.012592e-09	2.488851e+01	6.844050e+01
2.690000e-06	3.593052e-06	1.017383e-09	2.513832e+01	6.883142e+01
2.700000e-06	3.628604e-06	1.019038e-09	2.538705e+01	6.921444e+01
2.710000e-06	3.663917e-06	1.022316e-09	2.563412e+01	6.958968e+01
2.720000e-06	3.698940e-06	1.029575e-09	2.587915e+01	6.995728e+01
2.730000e-06	3.733524e-06	1.036705e-09	2.612111e+01	7.031736e+01
2.740000e-06	3.767579e-06	1.043089e-09	2.635937e+01	7.067007e+01
2.750000e-06	3.801111e-06	1.047589e-09	2.659398e+01	7.101556e+01
2.760000e-06	3.834182e-06	1.048637e-09	2.682535e+01	7.135398e+01
2.770000e-06	3.866863e-06	1.050007e-09	2.705400e+01	7.168551e+01
2.780000e-06	3.899248e-06	1.053038e-09	2.728058e+01	7.201032e+01
2.790000e-06	3.931374e-06	1.058331e-09	2.750534e+01	7.232859e+01
2.800000e-06	3.963291e-06	1.064269e-09	2.772865e+01	7.264051e+01
2.810000e-06	3.995086e-06	1.070461e-09	2.795110e+01	7.294628e+01
2.820000e-06	4.026790e-06	1.075191e-09	2.817291e+01	7.324611e+01
2.830000e-06	4.058311e-06	1.078882e-09	2.839344e+01	7.354019e+01
2.840000e-06	4.089547e-06	1.083365e-09	2.861198e+01	7.382873e+01
2.850000e-06	4.120420e-06	1.086528e-09	2.882798e+01	7.411196e+01
2.860000e-06	4.150893e-06	1.088649e-09	2.904118e+01	7.439006e+01
2.870000e-06	4.181083e-06	1.092059e-09	2.925240e+01	7.466327e+01
2.880000e-06	4.211018e-06	1.095318e-09	2.946184e+01	7.493176e+01
2.890000e-06	4.240695e-06	1.096555e-09	2.966947e+01	7.519576e+01
2.900000e-06	4.270187e-06	1.097818e-09	2.987580e+01	7.545544e+01
2.910000e-06	4.299431e-06	1.101831e-09	3.008041e+01	7.571100e+01
