# Temperatura_=_-5.84
# Concentracion g/m^3_=_1620.0
# C_Vs_to_Am_M_A/Vsm_=_65563218390.804596
# pendiente_HvsI_1/m_=_3716.3
# ordenada_HvsI_A/m_=_1297.0
# frecuencia_Hz_=_135099.21513041633

Tiempo_(s)	Campo_(V.s)	Magnetizacion_(V.s)	Campo_(kA/m)	Magnetizacion_(A/m)
0.000000e+00	-5.523893e-06	-9.330714e-10	-3.837586e+01	-6.126641e+01
1.000000e-08	-5.523977e-06	-9.324123e-10	-3.837645e+01	-6.125375e+01
2.000000e-08	-5.523789e-06	-9.308757e-10	-3.837515e+01	-6.124150e+01
3.000000e-08	-5.523243e-06	-9.300733e-10	-3.837135e+01	-6.122966e+01
4.000000e-08	-5.522216e-06	-9.300098e-10	-3.836421e+01	-6.121820e+01
5.000000e-08	-5.520506e-06	-9.383649e-10	-3.835234e+01	-6.120711e+01
6.000000e-08	-5.518156e-06	-9.384868e-10	-3.833601e+01	-6.119632e+01
7.000000e-08	-5.515236e-06	-9.208168e-10	-3.831572e+01	-6.118578e+01
8.000000e-08	-5.511750e-06	-8.907210e-10	-3.829150e+01	-6.117541e+01
9.000000e-08	-5.507822e-06	-8.971765e-10	-3.826422e+01	-6.116513e+01
1.000000e-07	-5.503572e-06	-9.515106e-10	-3.823469e+01	-6.115485e+01
1.100000e-07	-5.499127e-06	-9.868013e-10	-3.820381e+01	-6.114446e+01
1.200000e-07	-5.494458e-06	-9.016129e-10	-3.817138e+01	-6.113383e+01
1.300000e-07	-5.489534e-06	-8.856284e-10	-3.813716e+01	-6.112286e+01
1.400000e-07	-5.484267e-06	-9.208232e-10	-3.810057e+01	-6.111141e+01
1.500000e-07	-5.478517e-06	-9.843166e-10	-3.806062e+01	-6.109934e+01
1.600000e-07	-5.472386e-06	-9.204665e-10	-3.801803e+01	-6.108652e+01
1.700000e-07	-5.465875e-06	-8.702923e-10	-3.797280e+01	-6.107279e+01
1.800000e-07	-5.458944e-06	-9.172158e-10	-3.792465e+01	-6.105801e+01
1.900000e-07	-5.451602e-06	-9.604211e-10	-3.787364e+01	-6.104204e+01
2.000000e-07	-5.443975e-06	-9.482449e-10	-3.782065e+01	-6.102474e+01
2.100000e-07	-5.436219e-06	-8.993933e-10	-3.776677e+01	-6.100595e+01
2.200000e-07	-5.428183e-06	-9.292766e-10	-3.771094e+01	-6.098553e+01
2.300000e-07	-5.419730e-06	-9.399650e-10	-3.765222e+01	-6.096336e+01
2.400000e-07	-5.410750e-06	-9.370064e-10	-3.758983e+01	-6.093930e+01
2.500000e-07	-5.400984e-06	-8.965454e-10	-3.752199e+01	-6.091323e+01
2.600000e-07	-5.390494e-06	-9.153626e-10	-3.744911e+01	-6.088504e+01
2.700000e-07	-5.379450e-06	-9.115470e-10	-3.737238e+01	-6.085462e+01
2.800000e-07	-5.367961e-06	-9.117004e-10	-3.729257e+01	-6.082187e+01
2.900000e-07	-5.356202e-06	-8.793038e-10	-3.721088e+01	-6.078672e+01
3.000000e-07	-5.344144e-06	-8.961063e-10	-3.712711e+01	-6.074909e+01
3.100000e-07	-5.331634e-06	-8.947787e-10	-3.704019e+01	-6.070891e+01
3.200000e-07	-5.318730e-06	-8.983019e-10	-3.695054e+01	-6.066615e+01
3.300000e-07	-5.305397e-06	-8.811851e-10	-3.685792e+01	-6.062076e+01
3.400000e-07	-5.291652e-06	-8.871168e-10	-3.676243e+01	-6.057273e+01
3.500000e-07	-5.277439e-06	-8.955038e-10	-3.666369e+01	-6.052203e+01
3.600000e-07	-5.262610e-06	-8.959134e-10	-3.656066e+01	-6.046869e+01
3.700000e-07	-5.247267e-06	-8.864260e-10	-3.645407e+01	-6.041270e+01
3.800000e-07	-5.231540e-06	-8.960748e-10	-3.634482e+01	-6.035409e+01
3.900000e-07	-5.215396e-06	-8.973141e-10	-3.623266e+01	-6.029291e+01
4.000000e-07	-5.198788e-06	-8.731267e-10	-3.611728e+01	-6.022919e+01
4.100000e-07	-5.181840e-06	-8.888070e-10	-3.599954e+01	-6.016300e+01
4.200000e-07	-5.164623e-06	-9.133866e-10	-3.587993e+01	-6.009440e+01
4.300000e-07	-5.147056e-06	-8.853568e-10	-3.575789e+01	-6.002347e+01
4.400000e-07	-5.129108e-06	-8.536361e-10	-3.563320e+01	-5.995028e+01
4.500000e-07	-5.110804e-06	-9.047733e-10	-3.550603e+01	-5.987492e+01
4.600000e-07	-5.092147e-06	-9.062195e-10	-3.537642e+01	-5.979748e+01
4.700000e-07	-5.073117e-06	-8.586072e-10	-3.524421e+01	-5.971804e+01
4.800000e-07	-5.053740e-06	-8.712329e-10	-3.510960e+01	-5.963671e+01
4.900000e-07	-5.034186e-06	-9.186828e-10	-3.497375e+01	-5.955357e+01
5.000000e-07	-5.014445e-06	-8.650364e-10	-3.483660e+01	-5.946870e+01
5.100000e-07	-4.994432e-06	-8.502884e-10	-3.469756e+01	-5.938221e+01
5.200000e-07	-4.974069e-06	-8.945748e-10	-3.455610e+01	-5.929417e+01
5.300000e-07	-4.953291e-06	-8.796161e-10	-3.441175e+01	-5.920466e+01
5.400000e-07	-4.932123e-06	-8.323539e-10	-3.426469e+01	-5.911375e+01
5.500000e-07	-4.910635e-06	-8.860906e-10	-3.411541e+01	-5.902150e+01
5.600000e-07	-4.888814e-06	-8.988344e-10	-3.396381e+01	-5.892796e+01
5.700000e-07	-4.866654e-06	-8.452899e-10	-3.380986e+01	-5.883318e+01
5.800000e-07	-4.844171e-06	-8.550825e-10	-3.365367e+01	-5.873719e+01
5.900000e-07	-4.821376e-06	-8.966422e-10	-3.349530e+01	-5.864000e+01
6.000000e-07	-4.798308e-06	-8.514247e-10	-3.333504e+01	-5.854163e+01
6.100000e-07	-4.774965e-06	-8.406295e-10	-3.317287e+01	-5.844206e+01
6.200000e-07	-4.751369e-06	-8.827243e-10	-3.300895e+01	-5.834128e+01
6.300000e-07	-4.727562e-06	-8.686426e-10	-3.284355e+01	-5.823924e+01
6.400000e-07	-4.703432e-06	-8.397770e-10	-3.267592e+01	-5.813591e+01
6.500000e-07	-4.678880e-06	-8.704615e-10	-3.250535e+01	-5.803122e+01
6.600000e-07	-4.653892e-06	-8.677524e-10	-3.233175e+01	-5.792510e+01
6.700000e-07	-4.628221e-06	-8.348155e-10	-3.215341e+01	-5.781745e+01
6.800000e-07	-4.601928e-06	-8.506767e-10	-3.197074e+01	-5.770817e+01
6.900000e-07	-4.575219e-06	-8.623813e-10	-3.178519e+01	-5.759714e+01
7.000000e-07	-4.548102e-06	-8.376259e-10	-3.159680e+01	-5.748425e+01
7.100000e-07	-4.520765e-06	-8.377900e-10	-3.140689e+01	-5.736935e+01
7.200000e-07	-4.493239e-06	-8.562871e-10	-3.121566e+01	-5.725230e+01
7.300000e-07	-4.465537e-06	-8.390224e-10	-3.102320e+01	-5.713294e+01
7.400000e-07	-4.437651e-06	-8.302116e-10	-3.082947e+01	-5.701111e+01
7.500000e-07	-4.409491e-06	-8.377183e-10	-3.063384e+01	-5.688664e+01
7.600000e-07	-4.381008e-06	-8.348270e-10	-3.043596e+01	-5.675936e+01
7.700000e-07	-4.352146e-06	-8.241694e-10	-3.023545e+01	-5.662910e+01
7.800000e-07	-4.322954e-06	-8.327048e-10	-3.003264e+01	-5.649568e+01
7.900000e-07	-4.293458e-06	-8.271731e-10	-2.982772e+01	-5.635891e+01
8.000000e-07	-4.263734e-06	-8.177127e-10	-2.962123e+01	-5.621864e+01
8.100000e-07	-4.233804e-06	-8.146404e-10	-2.941329e+01	-5.607467e+01
8.200000e-07	-4.203528e-06	-8.139597e-10	-2.920296e+01	-5.592686e+01
8.300000e-07	-4.172862e-06	-8.009026e-10	-2.898992e+01	-5.577503e+01
8.400000e-07	-4.141846e-06	-8.052100e-10	-2.877444e+01	-5.561904e+01
8.500000e-07	-4.110610e-06	-8.109300e-10	-2.855744e+01	-5.545873e+01
8.600000e-07	-4.079301e-06	-8.077597e-10	-2.833992e+01	-5.529398e+01
8.700000e-07	-4.047817e-06	-8.028692e-10	-2.812119e+01	-5.512467e+01
8.800000e-07	-4.016096e-06	-8.072775e-10	-2.790082e+01	-5.495067e+01
8.900000e-07	-3.984181e-06	-7.971108e-10	-2.767910e+01	-5.477191e+01
9.000000e-07	-3.952048e-06	-7.843487e-10	-2.745586e+01	-5.458830e+01
9.100000e-07	-3.919625e-06	-7.839834e-10	-2.723062e+01	-5.439977e+01
9.200000e-07	-3.886757e-06	-7.835995e-10	-2.700227e+01	-5.420627e+01
9.300000e-07	-3.853405e-06	-7.776740e-10	-2.677057e+01	-5.400776e+01
9.400000e-07	-3.819615e-06	-7.826726e-10	-2.653582e+01	-5.380424e+01
9.500000e-07	-3.785354e-06	-7.871989e-10	-2.629780e+01	-5.359571e+01
9.600000e-07	-3.750620e-06	-7.767909e-10	-2.605649e+01	-5.338217e+01
9.700000e-07	-3.715570e-06	-7.672510e-10	-2.581299e+01	-5.316365e+01
9.800000e-07	-3.680304e-06	-7.650161e-10	-2.556799e+01	-5.294022e+01
9.900000e-07	-3.644801e-06	-7.572336e-10	-2.532134e+01	-5.271193e+01
1.000000e-06	-3.609164e-06	-7.500680e-10	-2.507376e+01	-5.247887e+01
1.010000e-06	-3.573441e-06	-7.569643e-10	-2.482559e+01	-5.224111e+01
1.020000e-06	-3.537546e-06	-7.578922e-10	-2.457621e+01	-5.199878e+01
1.030000e-06	-3.501394e-06	-7.516709e-10	-2.432506e+01	-5.175197e+01
1.040000e-06	-3.465021e-06	-7.478560e-10	-2.407237e+01	-5.150084e+01
1.050000e-06	-3.428426e-06	-7.445567e-10	-2.381813e+01	-5.124549e+01
1.060000e-06	-3.391507e-06	-7.326174e-10	-2.356165e+01	-5.098609e+01
1.070000e-06	-3.354255e-06	-7.267187e-10	-2.330285e+01	-5.072278e+01
1.080000e-06	-3.316760e-06	-7.252751e-10	-2.304236e+01	-5.045571e+01
1.090000e-06	-3.279076e-06	-7.215221e-10	-2.278056e+01	-5.018503e+01
1.100000e-06	-3.241218e-06	-7.150650e-10	-2.251755e+01	-4.991091e+01
1.110000e-06	-3.203114e-06	-7.158343e-10	-2.225284e+01	-4.963349e+01
1.120000e-06	-3.164722e-06	-7.116512e-10	-2.198612e+01	-4.935293e+01
1.130000e-06	-3.126165e-06	-7.040506e-10	-2.171825e+01	-4.906936e+01
1.140000e-06	-3.087424e-06	-6.998278e-10	-2.144910e+01	-4.878293e+01
1.150000e-06	-3.048417e-06	-6.990012e-10	-2.117811e+01	-4.849377e+01
1.160000e-06	-3.009170e-06	-6.934456e-10	-2.090546e+01	-4.820199e+01
1.170000e-06	-2.969743e-06	-6.890232e-10	-2.063155e+01	-4.790770e+01
1.180000e-06	-2.930260e-06	-6.869248e-10	-2.035725e+01	-4.761098e+01
1.190000e-06	-2.890705e-06	-6.832341e-10	-2.008245e+01	-4.731192e+01
1.200000e-06	-2.850958e-06	-6.764942e-10	-1.980632e+01	-4.701057e+01
1.210000e-06	-2.811049e-06	-6.732299e-10	-1.952906e+01	-4.670697e+01
1.220000e-06	-2.771019e-06	-6.666540e-10	-1.925096e+01	-4.640113e+01
1.230000e-06	-2.730885e-06	-6.587884e-10	-1.897214e+01	-4.609306e+01
1.240000e-06	-2.690571e-06	-6.584198e-10	-1.869207e+01	-4.578273e+01
1.250000e-06	-2.649964e-06	-6.569783e-10	-1.840996e+01	-4.547008e+01
1.260000e-06	-2.609042e-06	-6.512132e-10	-1.812567e+01	-4.515506e+01
1.270000e-06	-2.567748e-06	-6.442960e-10	-1.783879e+01	-4.483756e+01
1.280000e-06	-2.526169e-06	-6.403425e-10	-1.754993e+01	-4.451746e+01
1.290000e-06	-2.484383e-06	-6.362357e-10	-1.725963e+01	-4.419461e+01
1.300000e-06	-2.442341e-06	-6.300289e-10	-1.696755e+01	-4.386885e+01
1.310000e-06	-2.399955e-06	-6.249776e-10	-1.667309e+01	-4.353998e+01
1.320000e-06	-2.357244e-06	-6.173563e-10	-1.637636e+01	-4.320777e+01
1.330000e-06	-2.314304e-06	-6.078747e-10	-1.607805e+01	-4.287200e+01
1.340000e-06	-2.271188e-06	-6.025642e-10	-1.577851e+01	-4.253238e+01
1.350000e-06	-2.227923e-06	-6.002152e-10	-1.547794e+01	-4.218863e+01
1.360000e-06	-2.184538e-06	-5.985390e-10	-1.517653e+01	-4.184044e+01
1.370000e-06	-2.141074e-06	-5.940486e-10	-1.487458e+01	-4.148748e+01
1.380000e-06	-2.097473e-06	-5.870194e-10	-1.457167e+01	-4.112939e+01
1.390000e-06	-2.053756e-06	-5.777057e-10	-1.426796e+01	-4.076581e+01
1.400000e-06	-2.009966e-06	-5.689083e-10	-1.396374e+01	-4.039636e+01
1.410000e-06	-1.966094e-06	-5.605165e-10	-1.365894e+01	-4.002063e+01
1.420000e-06	-1.922105e-06	-5.539321e-10	-1.335334e+01	-3.963822e+01
1.430000e-06	-1.878057e-06	-5.482982e-10	-1.304733e+01	-3.924869e+01
1.440000e-06	-1.833945e-06	-5.462562e-10	-1.274087e+01	-3.885163e+01
1.450000e-06	-1.789671e-06	-5.423523e-10	-1.243329e+01	-3.844658e+01
1.460000e-06	-1.745230e-06	-5.361043e-10	-1.212455e+01	-3.803311e+01
1.470000e-06	-1.700632e-06	-5.270211e-10	-1.181472e+01	-3.761076e+01
1.480000e-06	-1.655896e-06	-5.178399e-10	-1.150393e+01	-3.717910e+01
1.490000e-06	-1.610932e-06	-5.107519e-10	-1.119155e+01	-3.673766e+01
1.500000e-06	-1.565856e-06	-5.054748e-10	-1.087839e+01	-3.628600e+01
1.510000e-06	-1.520733e-06	-4.991099e-10	-1.056491e+01	-3.582370e+01
1.520000e-06	-1.475458e-06	-4.922707e-10	-1.025038e+01	-3.535030e+01
1.530000e-06	-1.430118e-06	-4.867915e-10	-9.935388e+00	-3.486539e+01
1.540000e-06	-1.384724e-06	-4.821615e-10	-9.620021e+00	-3.436856e+01
1.550000e-06	-1.339247e-06	-4.754634e-10	-9.304086e+00	-3.385942e+01
1.560000e-06	-1.293684e-06	-4.680051e-10	-8.987547e+00	-3.333757e+01
1.570000e-06	-1.248031e-06	-4.598323e-10	-8.670381e+00	-3.280265e+01
1.580000e-06	-1.202240e-06	-4.492768e-10	-8.352262e+00	-3.225432e+01
1.590000e-06	-1.156365e-06	-4.371344e-10	-8.033559e+00	-3.169225e+01
1.600000e-06	-1.110435e-06	-4.262338e-10	-7.714467e+00	-3.111613e+01
1.610000e-06	-1.064447e-06	-4.155692e-10	-7.394982e+00	-3.052570e+01
1.620000e-06	-1.018439e-06	-4.043001e-10	-7.075353e+00	-2.992070e+01
1.630000e-06	-9.723577e-07	-3.958570e-10	-6.755212e+00	-2.930089e+01
1.640000e-06	-9.261259e-07	-3.885370e-10	-6.434028e+00	-2.866609e+01
1.650000e-06	-8.797771e-07	-3.795028e-10	-6.112032e+00	-2.801612e+01
1.660000e-06	-8.334169e-07	-3.679807e-10	-5.789955e+00	-2.735084e+01
1.670000e-06	-7.870158e-07	-3.567523e-10	-5.467595e+00	-2.667016e+01
1.680000e-06	-7.405103e-07	-3.459495e-10	-5.144510e+00	-2.597399e+01
1.690000e-06	-6.940165e-07	-3.361958e-10	-4.821506e+00	-2.526229e+01
1.700000e-06	-6.474661e-07	-3.255147e-10	-4.498109e+00	-2.453506e+01
1.710000e-06	-6.008034e-07	-3.158042e-10	-4.173932e+00	-2.379232e+01
1.720000e-06	-5.541559e-07	-3.066536e-10	-3.849860e+00	-2.303414e+01
1.730000e-06	-5.074971e-07	-2.968099e-10	-3.525709e+00	-2.226061e+01
1.740000e-06	-4.608422e-07	-2.856383e-10	-3.201586e+00	-2.147185e+01
1.750000e-06	-4.141340e-07	-2.734457e-10	-2.877093e+00	-2.066804e+01
1.760000e-06	-3.673270e-07	-2.599754e-10	-2.551912e+00	-1.984938e+01
1.770000e-06	-3.204648e-07	-2.454870e-10	-2.226349e+00	-1.901610e+01
1.780000e-06	-2.735991e-07	-2.319046e-10	-1.900761e+00	-1.816847e+01
1.790000e-06	-2.267797e-07	-2.204038e-10	-1.575495e+00	-1.730680e+01
1.800000e-06	-1.799534e-07	-2.083420e-10	-1.250181e+00	-1.643142e+01
1.810000e-06	-1.330374e-07	-1.968055e-10	-9.242440e-01	-1.554270e+01
1.820000e-06	-8.605066e-08	-1.850268e-10	-5.978154e-01	-1.464104e+01
1.830000e-06	-3.912841e-08	-1.705639e-10	-2.718348e-01	-1.372688e+01
1.840000e-06	7.776264e-09	-1.547456e-10	5.402365e-02	-1.280067e+01
1.850000e-06	5.480564e-08	-1.404094e-10	3.807485e-01	-1.186292e+01
1.860000e-06	1.017923e-07	-1.258700e-10	7.071766e-01	-1.091415e+01
1.870000e-06	1.486454e-07	-1.113074e-10	1.032677e+00	-9.954889e+00
1.880000e-06	1.954995e-07	-9.899196e-11	1.358184e+00	-8.985726e+00
1.890000e-06	2.423955e-07	-8.833214e-11	1.683982e+00	-8.007255e+00
1.900000e-06	2.892998e-07	-7.706289e-11	2.009838e+00	-7.020097e+00
1.910000e-06	3.362021e-07	-6.391005e-11	2.335680e+00	-6.024892e+00
1.920000e-06	3.830107e-07	-4.881824e-11	2.660871e+00	-5.022302e+00
1.930000e-06	4.297435e-07	-3.119938e-11	2.985536e+00	-4.013006e+00
1.940000e-06	4.763861e-07	-1.416044e-11	3.309573e+00	-2.997700e+00
1.950000e-06	5.228688e-07	1.008198e-12	3.632500e+00	-1.977095e+00
1.960000e-06	5.694055e-07	1.394168e-11	3.955803e+00	-9.519113e-01
1.970000e-06	6.159667e-07	2.618653e-11	4.279274e+00	7.711644e-02
1.980000e-06	6.624744e-07	3.889761e-11	4.602375e+00	1.109247e+00
1.990000e-06	7.089778e-07	5.118999e-11	4.925446e+00	2.143731e+00
2.000000e-06	7.554138e-07	6.582373e-11	5.248048e+00	3.179815e+00
2.010000e-06	8.017714e-07	8.189321e-11	5.570106e+00	4.216743e+00
2.020000e-06	8.480418e-07	9.788756e-11	5.891558e+00	5.253758e+00
2.030000e-06	8.942291e-07	1.150771e-10	6.212433e+00	6.290104e+00
2.040000e-06	9.403290e-07	1.307853e-10	6.532701e+00	7.325030e+00
2.050000e-06	9.863541e-07	1.444061e-10	6.852449e+00	8.357788e+00
2.060000e-06	1.032306e-06	1.551976e-10	7.171685e+00	9.387639e+00
2.070000e-06	1.078150e-06	1.661152e-10	7.490180e+00	1.041385e+01
2.080000e-06	1.123958e-06	1.779937e-10	7.808418e+00	1.143571e+01
2.090000e-06	1.169759e-06	1.932530e-10	8.126609e+00	1.245251e+01
2.100000e-06	1.215440e-06	2.105437e-10	8.443969e+00	1.346356e+01
2.110000e-06	1.261035e-06	2.271836e-10	8.760722e+00	1.446818e+01
2.120000e-06	1.306579e-06	2.414636e-10	9.077130e+00	1.546573e+01
2.130000e-06	1.351997e-06	2.541345e-10	9.392661e+00	1.645556e+01
2.140000e-06	1.397285e-06	2.659486e-10	9.707289e+00	1.743707e+01
2.150000e-06	1.442492e-06	2.771426e-10	1.002135e+01	1.840967e+01
2.160000e-06	1.487618e-06	2.890510e-10	1.033486e+01	1.937279e+01
2.170000e-06	1.532641e-06	3.024804e-10	1.064764e+01	2.032590e+01
2.180000e-06	1.577567e-06	3.184624e-10	1.095975e+01	2.126848e+01
2.190000e-06	1.622353e-06	3.354341e-10	1.127089e+01	2.220006e+01
2.200000e-06	1.667044e-06	3.493685e-10	1.158137e+01	2.312018e+01
2.210000e-06	1.711566e-06	3.588918e-10	1.189068e+01	2.402841e+01
2.220000e-06	1.755956e-06	3.662099e-10	1.219906e+01	2.492438e+01
2.230000e-06	1.800286e-06	3.746384e-10	1.250704e+01	2.580771e+01
2.240000e-06	1.844475e-06	3.871820e-10	1.281403e+01	2.667807e+01
2.250000e-06	1.888531e-06	4.021475e-10	1.312010e+01	2.753518e+01
2.260000e-06	1.932463e-06	4.168682e-10	1.342530e+01	2.837876e+01
2.270000e-06	1.976293e-06	4.300054e-10	1.372980e+01	2.920858e+01
2.280000e-06	2.020009e-06	4.399173e-10	1.403351e+01	3.002444e+01
2.290000e-06	2.063679e-06	4.474532e-10	1.433689e+01	3.082617e+01
2.300000e-06	2.107342e-06	4.535796e-10	1.464023e+01	3.161362e+01
2.310000e-06	2.150907e-06	4.617959e-10	1.494289e+01	3.238669e+01
2.320000e-06	2.194370e-06	4.736532e-10	1.524484e+01	3.314531e+01
2.330000e-06	2.237812e-06	4.882914e-10	1.554664e+01	3.388941e+01
2.340000e-06	2.281128e-06	5.027840e-10	1.584757e+01	3.461898e+01
2.350000e-06	2.324227e-06	5.135761e-10	1.614699e+01	3.533401e+01
2.360000e-06	2.367108e-06	5.231092e-10	1.644489e+01	3.603455e+01
2.370000e-06	2.409677e-06	5.300196e-10	1.674062e+01	3.672063e+01
2.380000e-06	2.452037e-06	5.365998e-10	1.703492e+01	3.739235e+01
2.390000e-06	2.494105e-06	5.444381e-10	1.732717e+01	3.804978e+01
2.400000e-06	2.535701e-06	5.539997e-10	1.761615e+01	3.869306e+01
2.410000e-06	2.576987e-06	5.643783e-10	1.790297e+01	3.932232e+01
2.420000e-06	2.617987e-06	5.747991e-10	1.818781e+01	3.993771e+01
2.430000e-06	2.658788e-06	5.847267e-10	1.847126e+01	4.053940e+01
2.440000e-06	2.699384e-06	5.925048e-10	1.875329e+01	4.112757e+01
2.450000e-06	2.739678e-06	5.990227e-10	1.903322e+01	4.170242e+01
2.460000e-06	2.779691e-06	6.062660e-10	1.931120e+01	4.226416e+01
2.470000e-06	2.819547e-06	6.121841e-10	1.958810e+01	4.281299e+01
2.480000e-06	2.859360e-06	6.182784e-10	1.986469e+01	4.334914e+01
2.490000e-06	2.899066e-06	6.256735e-10	2.014054e+01	4.387283e+01
2.500000e-06	2.938621e-06	6.351914e-10	2.041534e+01	4.438430e+01
2.510000e-06	2.978010e-06	6.467794e-10	2.068898e+01	4.488379e+01
2.520000e-06	3.017320e-06	6.564091e-10	2.096207e+01	4.537153e+01
2.530000e-06	3.056465e-06	6.631390e-10	2.123402e+01	4.584775e+01
2.540000e-06	3.095274e-06	6.683035e-10	2.150364e+01	4.631271e+01
2.550000e-06	3.133861e-06	6.702401e-10	2.177172e+01	4.676662e+01
2.560000e-06	3.172301e-06	6.704165e-10	2.203877e+01	4.720973e+01
2.570000e-06	3.210449e-06	6.750605e-10	2.230379e+01	4.764226e+01
2.580000e-06	3.248331e-06	6.841178e-10	2.256697e+01	4.806444e+01
2.590000e-06	3.286049e-06	6.937701e-10	2.282900e+01	4.847649e+01
2.600000e-06	3.323542e-06	7.014034e-10	2.308948e+01	4.887862e+01
2.610000e-06	3.360904e-06	7.080857e-10	2.334904e+01	4.927105e+01
2.620000e-06	3.398083e-06	7.136349e-10	2.360733e+01	4.965398e+01
2.630000e-06	3.434876e-06	7.157545e-10	2.386294e+01	5.002760e+01
2.640000e-06	3.471336e-06	7.171068e-10	2.411624e+01	5.039210e+01
2.650000e-06	3.507537e-06	7.234527e-10	2.436774e+01	5.074767e+01
2.660000e-06	3.543547e-06	7.318946e-10	2.461791e+01	5.109449e+01
2.670000e-06	3.579382e-06	7.384949e-10	2.486686e+01	5.143273e+01
2.680000e-06	3.615070e-06	7.434576e-10	2.511480e+01	5.176254e+01
2.690000e-06	3.650676e-06	7.460937e-10	2.536216e+01	5.208410e+01
2.700000e-06	3.686158e-06	7.489872e-10	2.560866e+01	5.239755e+01
2.710000e-06	3.721429e-06	7.545428e-10	2.585369e+01	5.270304e+01
2.720000e-06	3.756371e-06	7.604652e-10	2.609645e+01	5.300072e+01
2.730000e-06	3.791005e-06	7.659377e-10	2.633706e+01	5.329073e+01
2.740000e-06	3.825303e-06	7.704314e-10	2.657534e+01	5.357320e+01
2.750000e-06	3.859096e-06	7.734880e-10	2.681011e+01	5.384827e+01
2.760000e-06	3.892312e-06	7.751752e-10	2.704087e+01	5.411606e+01
2.770000e-06	3.925038e-06	7.772507e-10	2.726822e+01	5.437672e+01
2.780000e-06	3.957391e-06	7.807510e-10	2.749298e+01	5.463036e+01
2.790000e-06	3.989500e-06	7.842022e-10	2.771605e+01	5.487711e+01
2.800000e-06	4.021384e-06	7.883076e-10	2.793756e+01	5.511711e+01
2.810000e-06	4.053091e-06	7.930713e-10	2.815784e+01	5.535047e+01
2.820000e-06	4.084658e-06	7.981141e-10	2.837714e+01	5.557732e+01
2.830000e-06	4.115988e-06	8.030059e-10	2.859480e+01	5.579780e+01
2.840000e-06	4.147137e-06	8.064502e-10	2.881120e+01	5.601204e+01
2.850000e-06	4.178051e-06	8.096397e-10	2.902596e+01	5.622015e+01
2.860000e-06	4.208556e-06	8.124439e-10	2.923789e+01	5.642229e+01
2.870000e-06	4.238724e-06	8.146167e-10	2.944747e+01	5.661857e+01
2.880000e-06	4.268589e-06	8.160646e-10	2.965496e+01	5.680915e+01
2.890000e-06	4.298161e-06	8.168886e-10	2.986040e+01	5.699415e+01
2.900000e-06	4.327534e-06	8.195812e-10	3.006446e+01	5.717371e+01
