# Temperatura_=_-0.3
# Concentracion g/m^3_=_1620.0
# C_Vs_to_Am_M_A/Vsm_=_65563218390.804596
# pendiente_HvsI_1/m_=_3716.3
# ordenada_HvsI_A/m_=_1297.0
# frecuencia_Hz_=_135104.1186119675

Tiempo_(s)	Campo_(V.s)	Magnetizacion_(V.s)	Campo_(kA/m)	Magnetizacion_(A/m)
0.000000e+00	-5.515073e-06	-1.484071e-09	-3.836390e+01	-9.636557e+01
1.000000e-08	-5.515343e-06	-1.480370e-09	-3.836578e+01	-9.634631e+01
2.000000e-08	-5.515377e-06	-1.477616e-09	-3.836602e+01	-9.632603e+01
3.000000e-08	-5.515007e-06	-1.477347e-09	-3.836345e+01	-9.630463e+01
4.000000e-08	-5.514094e-06	-1.477088e-09	-3.835710e+01	-9.628201e+01
5.000000e-08	-5.512662e-06	-1.475871e-09	-3.834713e+01	-9.625804e+01
6.000000e-08	-5.510628e-06	-1.472816e-09	-3.833299e+01	-9.623255e+01
7.000000e-08	-5.508005e-06	-1.480133e-09	-3.831474e+01	-9.620539e+01
8.000000e-08	-5.504944e-06	-1.509457e-09	-3.829345e+01	-9.617636e+01
9.000000e-08	-5.501428e-06	-1.498061e-09	-3.826899e+01	-9.614527e+01
1.000000e-07	-5.497456e-06	-1.426466e-09	-3.824136e+01	-9.611190e+01
1.100000e-07	-5.493180e-06	-1.423956e-09	-3.821162e+01	-9.607604e+01
1.200000e-07	-5.488662e-06	-1.491175e-09	-3.818019e+01	-9.603747e+01
1.300000e-07	-5.483875e-06	-1.541712e-09	-3.814689e+01	-9.599593e+01
1.400000e-07	-5.478701e-06	-1.458885e-09	-3.811089e+01	-9.595121e+01
1.500000e-07	-5.473128e-06	-1.401108e-09	-3.807213e+01	-9.590307e+01
1.600000e-07	-5.467217e-06	-1.484228e-09	-3.803101e+01	-9.585126e+01
1.700000e-07	-5.460928e-06	-1.530857e-09	-3.798727e+01	-9.579556e+01
1.800000e-07	-5.454212e-06	-1.488635e-09	-3.794055e+01	-9.573574e+01
1.900000e-07	-5.447111e-06	-1.386612e-09	-3.789115e+01	-9.567158e+01
2.000000e-07	-5.439736e-06	-1.440992e-09	-3.783985e+01	-9.560288e+01
2.100000e-07	-5.432018e-06	-1.483464e-09	-3.778616e+01	-9.552945e+01
2.200000e-07	-5.424020e-06	-1.493612e-09	-3.773052e+01	-9.545109e+01
2.300000e-07	-5.415815e-06	-1.429936e-09	-3.767345e+01	-9.536765e+01
2.400000e-07	-5.407068e-06	-1.445759e-09	-3.761260e+01	-9.527897e+01
2.500000e-07	-5.397556e-06	-1.464435e-09	-3.754644e+01	-9.518493e+01
2.600000e-07	-5.387430e-06	-1.465240e-09	-3.747600e+01	-9.508540e+01
2.700000e-07	-5.376791e-06	-1.418138e-09	-3.740199e+01	-9.498029e+01
2.800000e-07	-5.365624e-06	-1.409325e-09	-3.732431e+01	-9.486953e+01
2.900000e-07	-5.354060e-06	-1.433936e-09	-3.724387e+01	-9.475306e+01
3.000000e-07	-5.342226e-06	-1.431524e-09	-3.716155e+01	-9.463085e+01
3.100000e-07	-5.330028e-06	-1.410505e-09	-3.707669e+01	-9.450289e+01
3.200000e-07	-5.317398e-06	-1.404207e-09	-3.698884e+01	-9.436917e+01
3.300000e-07	-5.304341e-06	-1.447921e-09	-3.689801e+01	-9.422973e+01
3.400000e-07	-5.290890e-06	-1.413825e-09	-3.680444e+01	-9.408460e+01
3.500000e-07	-5.276929e-06	-1.377143e-09	-3.670733e+01	-9.393385e+01
3.600000e-07	-5.262448e-06	-1.374771e-09	-3.660660e+01	-9.377754e+01
3.700000e-07	-5.247605e-06	-1.414498e-09	-3.650334e+01	-9.361577e+01
3.800000e-07	-5.232295e-06	-1.380615e-09	-3.639685e+01	-9.344864e+01
3.900000e-07	-5.216375e-06	-1.394712e-09	-3.628610e+01	-9.327627e+01
4.000000e-07	-5.200059e-06	-1.414562e-09	-3.617261e+01	-9.309878e+01
4.100000e-07	-5.183482e-06	-1.389195e-09	-3.605730e+01	-9.291630e+01
4.200000e-07	-5.166550e-06	-1.340259e-09	-3.593951e+01	-9.272897e+01
4.300000e-07	-5.149317e-06	-1.395635e-09	-3.581963e+01	-9.253693e+01
4.400000e-07	-5.131808e-06	-1.395534e-09	-3.569784e+01	-9.234032e+01
4.500000e-07	-5.113858e-06	-1.342701e-09	-3.557298e+01	-9.213930e+01
4.600000e-07	-5.095376e-06	-1.350817e-09	-3.544441e+01	-9.193400e+01
4.700000e-07	-5.076495e-06	-1.405440e-09	-3.531307e+01	-9.172457e+01
4.800000e-07	-5.057287e-06	-1.353646e-09	-3.517946e+01	-9.151113e+01
4.900000e-07	-5.037831e-06	-1.336539e-09	-3.504412e+01	-9.129382e+01
5.000000e-07	-5.018236e-06	-1.377741e-09	-3.490781e+01	-9.107275e+01
5.100000e-07	-4.998452e-06	-1.356505e-09	-3.477019e+01	-9.084804e+01
5.200000e-07	-4.978372e-06	-1.310036e-09	-3.463051e+01	-9.061977e+01
5.300000e-07	-4.957929e-06	-1.363689e-09	-3.448831e+01	-9.038804e+01
5.400000e-07	-4.937076e-06	-1.375000e-09	-3.434325e+01	-9.015292e+01
5.500000e-07	-4.915843e-06	-1.311891e-09	-3.419555e+01	-8.991447e+01
5.600000e-07	-4.894231e-06	-1.320174e-09	-3.404521e+01	-8.967271e+01
5.700000e-07	-4.872265e-06	-1.358298e-09	-3.389241e+01	-8.942770e+01
5.800000e-07	-4.849973e-06	-1.319914e-09	-3.373734e+01	-8.917943e+01
5.900000e-07	-4.827332e-06	-1.303006e-09	-3.357985e+01	-8.892790e+01
6.000000e-07	-4.804330e-06	-1.342109e-09	-3.341984e+01	-8.867309e+01
6.100000e-07	-4.781080e-06	-1.324274e-09	-3.325811e+01	-8.841497e+01
6.200000e-07	-4.757621e-06	-1.298765e-09	-3.309492e+01	-8.815349e+01
6.300000e-07	-4.733925e-06	-1.316134e-09	-3.293009e+01	-8.788858e+01
6.400000e-07	-4.709968e-06	-1.318971e-09	-3.276344e+01	-8.762017e+01
6.500000e-07	-4.685720e-06	-1.285901e-09	-3.259477e+01	-8.734817e+01
6.600000e-07	-4.661011e-06	-1.294109e-09	-3.242288e+01	-8.707249e+01
6.700000e-07	-4.635636e-06	-1.293307e-09	-3.224637e+01	-8.679300e+01
6.800000e-07	-4.609689e-06	-1.273944e-09	-3.206588e+01	-8.650959e+01
6.900000e-07	-4.583237e-06	-1.267933e-09	-3.188188e+01	-8.622214e+01
7.000000e-07	-4.556381e-06	-1.282689e-09	-3.169506e+01	-8.593052e+01
7.100000e-07	-4.529272e-06	-1.261878e-09	-3.150648e+01	-8.563460e+01
7.200000e-07	-4.501895e-06	-1.252713e-09	-3.131605e+01	-8.533423e+01
7.300000e-07	-4.474257e-06	-1.256761e-09	-3.112379e+01	-8.502928e+01
7.400000e-07	-4.446412e-06	-1.256431e-09	-3.093009e+01	-8.471961e+01
7.500000e-07	-4.418364e-06	-1.239012e-09	-3.073499e+01	-8.440510e+01
7.600000e-07	-4.390055e-06	-1.241409e-09	-3.053806e+01	-8.408560e+01
7.700000e-07	-4.361432e-06	-1.235147e-09	-3.033895e+01	-8.376100e+01
7.800000e-07	-4.332555e-06	-1.223959e-09	-3.013808e+01	-8.343117e+01
7.900000e-07	-4.303347e-06	-1.219733e-09	-2.993491e+01	-8.309602e+01
8.000000e-07	-4.273780e-06	-1.219600e-09	-2.972923e+01	-8.275542e+01
8.100000e-07	-4.243885e-06	-1.201669e-09	-2.952128e+01	-8.240931e+01
8.200000e-07	-4.213659e-06	-1.194602e-09	-2.931102e+01	-8.205759e+01
8.300000e-07	-4.183166e-06	-1.195534e-09	-2.909890e+01	-8.170019e+01
8.400000e-07	-4.152414e-06	-1.184946e-09	-2.888499e+01	-8.133708e+01
8.500000e-07	-4.121308e-06	-1.175551e-09	-2.866861e+01	-8.096819e+01
8.600000e-07	-4.089933e-06	-1.180820e-09	-2.845036e+01	-8.059351e+01
8.700000e-07	-4.058463e-06	-1.178857e-09	-2.823145e+01	-8.021302e+01
8.800000e-07	-4.026904e-06	-1.167426e-09	-2.801192e+01	-7.982671e+01
8.900000e-07	-3.995197e-06	-1.168362e-09	-2.779135e+01	-7.943461e+01
9.000000e-07	-3.963173e-06	-1.157499e-09	-2.756859e+01	-7.903673e+01
9.100000e-07	-3.930835e-06	-1.137443e-09	-2.734364e+01	-7.863311e+01
9.200000e-07	-3.898262e-06	-1.129741e-09	-2.711706e+01	-7.822380e+01
9.300000e-07	-3.865309e-06	-1.132909e-09	-2.688783e+01	-7.780887e+01
9.400000e-07	-3.831808e-06	-1.123840e-09	-2.665479e+01	-7.738838e+01
9.500000e-07	-3.797796e-06	-1.120748e-09	-2.641820e+01	-7.696241e+01
9.600000e-07	-3.763398e-06	-1.121783e-09	-2.617892e+01	-7.653106e+01
9.700000e-07	-3.728625e-06	-1.112060e-09	-2.593703e+01	-7.609442e+01
9.800000e-07	-3.693501e-06	-1.093116e-09	-2.569270e+01	-7.565260e+01
9.900000e-07	-3.658169e-06	-1.089120e-09	-2.544692e+01	-7.520570e+01
1.000000e-06	-3.622668e-06	-1.082374e-09	-2.519998e+01	-7.475383e+01
1.010000e-06	-3.586977e-06	-1.074457e-09	-2.495170e+01	-7.429710e+01
1.020000e-06	-3.551146e-06	-1.072503e-09	-2.470245e+01	-7.383564e+01
1.030000e-06	-3.515133e-06	-1.074313e-09	-2.445194e+01	-7.336955e+01
1.040000e-06	-3.478876e-06	-1.061076e-09	-2.419973e+01	-7.289895e+01
1.050000e-06	-3.442429e-06	-1.053249e-09	-2.394620e+01	-7.242395e+01
1.060000e-06	-3.405691e-06	-1.049979e-09	-2.369064e+01	-7.194465e+01
1.070000e-06	-3.368662e-06	-1.042548e-09	-2.343306e+01	-7.146115e+01
1.080000e-06	-3.331458e-06	-1.031789e-09	-2.317426e+01	-7.097355e+01
1.090000e-06	-3.294028e-06	-1.028118e-09	-2.291389e+01	-7.048192e+01
1.100000e-06	-3.256355e-06	-1.020344e-09	-2.265183e+01	-6.998636e+01
1.110000e-06	-3.218372e-06	-1.008083e-09	-2.238761e+01	-6.948692e+01
1.120000e-06	-3.180136e-06	-1.003370e-09	-2.212163e+01	-6.898365e+01
1.130000e-06	-3.141786e-06	-1.000257e-09	-2.185486e+01	-6.847662e+01
1.140000e-06	-3.103268e-06	-9.897629e-10	-2.158693e+01	-6.796584e+01
1.150000e-06	-3.064487e-06	-9.819772e-10	-2.131716e+01	-6.745135e+01
1.160000e-06	-3.025478e-06	-9.790498e-10	-2.104581e+01	-6.693314e+01
1.170000e-06	-2.986283e-06	-9.705981e-10	-2.077316e+01	-6.641122e+01
1.180000e-06	-2.946900e-06	-9.597252e-10	-2.049920e+01	-6.588556e+01
1.190000e-06	-2.907341e-06	-9.528691e-10	-2.022402e+01	-6.535614e+01
1.200000e-06	-2.867669e-06	-9.442965e-10	-1.994806e+01	-6.482290e+01
1.210000e-06	-2.827862e-06	-9.317054e-10	-1.967115e+01	-6.428579e+01
1.220000e-06	-2.787923e-06	-9.248285e-10	-1.939333e+01	-6.374474e+01
1.230000e-06	-2.747888e-06	-9.169138e-10	-1.911484e+01	-6.319965e+01
1.240000e-06	-2.707662e-06	-9.060308e-10	-1.883501e+01	-6.265042e+01
1.250000e-06	-2.667208e-06	-8.958094e-10	-1.855361e+01	-6.209693e+01
1.260000e-06	-2.626474e-06	-8.906247e-10	-1.827026e+01	-6.153906e+01
1.270000e-06	-2.585415e-06	-8.807787e-10	-1.798464e+01	-6.097667e+01
1.280000e-06	-2.544137e-06	-8.706268e-10	-1.769750e+01	-6.040960e+01
1.290000e-06	-2.502646e-06	-8.626765e-10	-1.740889e+01	-5.983767e+01
1.300000e-06	-2.460810e-06	-8.536241e-10	-1.711787e+01	-5.926070e+01
1.310000e-06	-2.418596e-06	-8.401957e-10	-1.682422e+01	-5.867851e+01
1.320000e-06	-2.376107e-06	-8.291800e-10	-1.652866e+01	-5.809088e+01
1.330000e-06	-2.333483e-06	-8.209436e-10	-1.623215e+01	-5.749760e+01
1.340000e-06	-2.290648e-06	-8.134352e-10	-1.593418e+01	-5.689842e+01
1.350000e-06	-2.247534e-06	-8.058045e-10	-1.563428e+01	-5.629311e+01
1.360000e-06	-2.204194e-06	-7.989763e-10	-1.533279e+01	-5.568142e+01
1.370000e-06	-2.160727e-06	-7.897259e-10	-1.503043e+01	-5.506306e+01
1.380000e-06	-2.117174e-06	-7.789611e-10	-1.472747e+01	-5.443777e+01
1.390000e-06	-2.073496e-06	-7.652986e-10	-1.442364e+01	-5.380525e+01
1.400000e-06	-2.029766e-06	-7.513168e-10	-1.411944e+01	-5.316519e+01
1.410000e-06	-1.985985e-06	-7.371329e-10	-1.381489e+01	-5.251729e+01
1.420000e-06	-1.942077e-06	-7.265759e-10	-1.350946e+01	-5.186122e+01
1.430000e-06	-1.898079e-06	-7.200227e-10	-1.320340e+01	-5.119664e+01
1.440000e-06	-1.854044e-06	-7.120647e-10	-1.289709e+01	-5.052320e+01
1.450000e-06	-1.809956e-06	-7.013921e-10	-1.259040e+01	-4.984054e+01
1.460000e-06	-1.765723e-06	-6.903266e-10	-1.228271e+01	-4.914829e+01
1.470000e-06	-1.721327e-06	-6.784778e-10	-1.197388e+01	-4.844608e+01
1.480000e-06	-1.676784e-06	-6.655461e-10	-1.166403e+01	-4.773350e+01
1.490000e-06	-1.632096e-06	-6.537270e-10	-1.135317e+01	-4.701017e+01
1.500000e-06	-1.587264e-06	-6.431148e-10	-1.104131e+01	-4.627566e+01
1.510000e-06	-1.542269e-06	-6.341396e-10	-1.072832e+01	-4.552957e+01
1.520000e-06	-1.497155e-06	-6.235525e-10	-1.041450e+01	-4.477146e+01
1.530000e-06	-1.451937e-06	-6.100334e-10	-1.009995e+01	-4.400090e+01
1.540000e-06	-1.406602e-06	-5.961197e-10	-9.784595e+00	-4.321747e+01
1.550000e-06	-1.361262e-06	-5.835880e-10	-9.469201e+00	-4.242070e+01
1.560000e-06	-1.315900e-06	-5.711282e-10	-9.153652e+00	-4.161017e+01
1.570000e-06	-1.270359e-06	-5.607146e-10	-8.836864e+00	-4.078542e+01
1.580000e-06	-1.224695e-06	-5.495548e-10	-8.519216e+00	-3.994600e+01
1.590000e-06	-1.178987e-06	-5.374015e-10	-8.201263e+00	-3.909148e+01
1.600000e-06	-1.133188e-06	-5.239320e-10	-7.882676e+00	-3.822141e+01
1.610000e-06	-1.087275e-06	-5.096068e-10	-7.563291e+00	-3.733535e+01
1.620000e-06	-1.041310e-06	-4.941436e-10	-7.243550e+00	-3.643289e+01
1.630000e-06	-9.952288e-07	-4.791226e-10	-6.923002e+00	-3.551361e+01
1.640000e-06	-9.489490e-07	-4.647671e-10	-6.601072e+00	-3.457710e+01
1.650000e-06	-9.026242e-07	-4.510588e-10	-6.278827e+00	-3.362300e+01
1.660000e-06	-8.563438e-07	-4.374302e-10	-5.956892e+00	-3.265093e+01
1.670000e-06	-8.099902e-07	-4.235940e-10	-5.634447e+00	-3.166055e+01
1.680000e-06	-7.635897e-07	-4.087941e-10	-5.311676e+00	-3.065155e+01
1.690000e-06	-7.172058e-07	-3.938790e-10	-4.989021e+00	-2.962364e+01
1.700000e-06	-6.707653e-07	-3.772010e-10	-4.665972e+00	-2.857658e+01
1.710000e-06	-6.242462e-07	-3.596485e-10	-4.342376e+00	-2.751014e+01
1.720000e-06	-5.776303e-07	-3.418971e-10	-4.018107e+00	-2.642414e+01
1.730000e-06	-5.309392e-07	-3.239517e-10	-3.693315e+00	-2.531845e+01
1.740000e-06	-4.843094e-07	-3.058241e-10	-3.368949e+00	-2.419298e+01
1.750000e-06	-4.377382e-07	-2.877213e-10	-3.044991e+00	-2.304768e+01
1.760000e-06	-3.910628e-07	-2.709886e-10	-2.720308e+00	-2.188255e+01
1.770000e-06	-3.442591e-07	-2.550750e-10	-2.394732e+00	-2.069767e+01
1.780000e-06	-2.974334e-07	-2.391854e-10	-2.069004e+00	-1.949313e+01
1.790000e-06	-2.506097e-07	-2.224538e-10	-1.743289e+00	-1.826913e+01
1.800000e-06	-2.037932e-07	-2.049061e-10	-1.417624e+00	-1.702589e+01
1.810000e-06	-1.570059e-07	-1.867953e-10	-1.092163e+00	-1.576371e+01
1.820000e-06	-1.101886e-07	-1.680902e-10	-7.664933e-01	-1.448296e+01
1.830000e-06	-6.341160e-08	-1.482131e-10	-4.411033e-01	-1.318406e+01
1.840000e-06	-1.670915e-08	-1.289634e-10	-1.162320e-01	-1.186750e+01
1.850000e-06	2.994176e-08	-1.108441e-10	2.082807e-01	-1.053383e+01
1.860000e-06	7.658918e-08	-9.306935e-11	5.327690e-01	-9.183697e+00
1.870000e-06	1.232929e-07	-7.273135e-11	8.576494e-01	-7.817775e+00
1.880000e-06	1.700331e-07	-5.254094e-11	1.182783e+00	-6.436822e+00
1.890000e-06	2.167930e-07	-3.418319e-11	1.508053e+00	-5.041659e+00
1.900000e-06	2.635680e-07	-1.555135e-11	1.833430e+00	-3.633167e+00
1.910000e-06	3.103257e-07	4.538374e-12	2.158685e+00	-2.212288e+00
1.920000e-06	3.571217e-07	2.511797e-11	2.484207e+00	-7.800208e-01
1.930000e-06	4.039884e-07	4.589350e-11	2.810221e+00	6.625793e-01
1.940000e-06	4.507335e-07	6.520859e-11	3.135389e+00	2.114407e+00
1.950000e-06	4.973098e-07	8.409049e-11	3.459382e+00	3.574307e+00
1.960000e-06	5.439353e-07	1.034467e-10	3.783718e+00	5.041084e+00
1.970000e-06	5.905354e-07	1.229440e-10	4.107877e+00	6.513499e+00
1.980000e-06	6.370171e-07	1.439724e-10	4.431213e+00	7.990283e+00
1.990000e-06	6.835050e-07	1.645968e-10	4.754592e+00	9.470133e+00
2.000000e-06	7.299016e-07	1.828424e-10	5.077336e+00	1.095173e+01
2.010000e-06	7.761997e-07	2.021206e-10	5.399394e+00	1.243372e+01
2.020000e-06	8.224223e-07	2.231571e-10	5.720927e+00	1.391475e+01
2.030000e-06	8.685115e-07	2.464266e-10	6.041533e+00	1.539347e+01
2.040000e-06	9.145769e-07	2.713602e-10	6.361972e+00	1.686851e+01
2.050000e-06	9.606319e-07	2.939178e-10	6.682340e+00	1.833850e+01
2.060000e-06	1.006628e-06	3.140259e-10	7.002297e+00	1.980212e+01
2.070000e-06	1.052651e-06	3.315116e-10	7.322444e+00	2.125801e+01
2.080000e-06	1.098628e-06	3.481286e-10	7.642269e+00	2.270490e+01
2.090000e-06	1.144455e-06	3.665119e-10	7.961049e+00	2.414149e+01
2.100000e-06	1.190135e-06	3.886866e-10	8.278809e+00	2.556656e+01
2.110000e-06	1.235723e-06	4.114375e-10	8.595927e+00	2.697891e+01
2.120000e-06	1.281244e-06	4.329233e-10	8.912580e+00	2.837739e+01
2.130000e-06	1.326686e-06	4.520839e-10	9.228682e+00	2.976089e+01
2.140000e-06	1.372025e-06	4.683705e-10	9.544072e+00	3.112840e+01
2.150000e-06	1.417217e-06	4.832261e-10	9.858432e+00	3.247891e+01
2.160000e-06	1.462352e-06	4.994219e-10	1.017240e+01	3.381153e+01
2.170000e-06	1.507418e-06	5.184060e-10	1.048589e+01	3.512541e+01
2.180000e-06	1.552327e-06	5.379278e-10	1.079828e+01	3.641978e+01
2.190000e-06	1.597143e-06	5.564842e-10	1.111003e+01	3.769393e+01
2.200000e-06	1.641809e-06	5.748064e-10	1.142074e+01	3.894726e+01
2.210000e-06	1.686298e-06	5.893062e-10	1.173022e+01	4.017922e+01
2.220000e-06	1.730694e-06	6.012616e-10	1.203904e+01	4.138936e+01
2.230000e-06	1.775001e-06	6.139574e-10	1.234724e+01	4.257728e+01
2.240000e-06	1.819154e-06	6.289460e-10	1.265438e+01	4.374270e+01
2.250000e-06	1.863152e-06	6.455698e-10	1.296044e+01	4.488539e+01
2.260000e-06	1.907062e-06	6.625016e-10	1.326589e+01	4.600521e+01
2.270000e-06	1.950867e-06	6.792188e-10	1.357060e+01	4.710210e+01
2.280000e-06	1.994589e-06	6.940722e-10	1.387474e+01	4.817608e+01
2.290000e-06	2.038257e-06	7.071146e-10	1.417851e+01	4.922723e+01
2.300000e-06	2.081829e-06	7.189088e-10	1.448160e+01	5.025570e+01
2.310000e-06	2.125330e-06	7.297440e-10	1.478421e+01	5.126172e+01
2.320000e-06	2.168817e-06	7.420969e-10	1.508671e+01	5.224557e+01
2.330000e-06	2.212241e-06	7.578475e-10	1.538877e+01	5.320760e+01
2.340000e-06	2.255484e-06	7.726824e-10	1.568958e+01	5.414821e+01
2.350000e-06	2.298582e-06	7.855579e-10	1.598938e+01	5.506784e+01
2.360000e-06	2.341546e-06	7.980404e-10	1.628824e+01	5.596700e+01
2.370000e-06	2.384217e-06	8.093270e-10	1.658507e+01	5.684620e+01
2.380000e-06	2.426630e-06	8.191397e-10	1.688010e+01	5.770602e+01
2.390000e-06	2.468823e-06	8.303985e-10	1.717361e+01	5.854705e+01
2.400000e-06	2.510786e-06	8.421379e-10	1.746551e+01	5.936991e+01
2.410000e-06	2.552340e-06	8.538234e-10	1.775457e+01	6.017524e+01
2.420000e-06	2.593481e-06	8.669297e-10	1.804075e+01	6.096368e+01
2.430000e-06	2.634356e-06	8.797727e-10	1.832508e+01	6.173588e+01
2.440000e-06	2.674854e-06	8.883733e-10	1.860680e+01	6.249252e+01
2.450000e-06	2.715081e-06	8.950029e-10	1.888663e+01	6.323423e+01
2.460000e-06	2.755177e-06	9.028254e-10	1.916554e+01	6.396166e+01
2.470000e-06	2.795120e-06	9.108564e-10	1.944339e+01	6.467545e+01
2.480000e-06	2.834940e-06	9.199016e-10	1.972038e+01	6.537620e+01
2.490000e-06	2.874608e-06	9.306855e-10	1.999632e+01	6.606453e+01
2.500000e-06	2.914089e-06	9.420111e-10	2.027096e+01	6.674098e+01
2.510000e-06	2.953448e-06	9.543781e-10	2.054475e+01	6.740611e+01
2.520000e-06	2.992748e-06	9.666594e-10	2.081813e+01	6.806043e+01
2.530000e-06	3.031842e-06	9.773750e-10	2.109007e+01	6.870441e+01
2.540000e-06	3.070614e-06	9.862376e-10	2.135978e+01	6.933850e+01
2.550000e-06	3.109222e-06	9.942028e-10	2.162835e+01	6.996311e+01
2.560000e-06	3.147702e-06	1.001545e-09	2.189602e+01	7.057860e+01
2.570000e-06	3.185884e-06	1.008557e-09	2.216162e+01	7.118530e+01
2.580000e-06	3.223803e-06	1.017791e-09	2.242539e+01	7.178350e+01
2.590000e-06	3.261589e-06	1.028229e-09	2.268824e+01	7.237347e+01
2.600000e-06	3.299151e-06	1.037965e-09	2.294953e+01	7.295540e+01
2.610000e-06	3.336460e-06	1.046679e-09	2.320906e+01	7.352949e+01
2.620000e-06	3.373548e-06	1.054445e-09	2.346705e+01	7.409586e+01
2.630000e-06	3.410374e-06	1.062132e-09	2.372321e+01	7.465464e+01
2.640000e-06	3.446971e-06	1.069717e-09	2.397779e+01	7.520588e+01
2.650000e-06	3.483385e-06	1.077866e-09	2.423110e+01	7.574965e+01
2.660000e-06	3.519512e-06	1.088275e-09	2.448240e+01	7.628595e+01
2.670000e-06	3.555385e-06	1.098126e-09	2.473194e+01	7.681478e+01
2.680000e-06	3.591105e-06	1.105532e-09	2.498042e+01	7.733610e+01
2.690000e-06	3.626670e-06	1.111153e-09	2.522781e+01	7.784988e+01
2.700000e-06	3.662159e-06	1.115457e-09	2.547468e+01	7.835603e+01
2.710000e-06	3.697491e-06	1.121770e-09	2.572046e+01	7.885449e+01
2.720000e-06	3.732552e-06	1.131013e-09	2.596435e+01	7.934516e+01
2.730000e-06	3.767393e-06	1.139591e-09	2.620671e+01	7.982796e+01
2.740000e-06	3.801893e-06	1.148989e-09	2.644670e+01	8.030277e+01
2.750000e-06	3.835875e-06	1.156492e-09	2.668308e+01	8.076950e+01
2.760000e-06	3.869452e-06	1.159528e-09	2.691665e+01	8.122806e+01
2.770000e-06	3.902578e-06	1.160857e-09	2.714708e+01	8.167835e+01
2.780000e-06	3.935225e-06	1.165038e-09	2.737418e+01	8.212028e+01
2.790000e-06	3.967513e-06	1.174286e-09	2.759878e+01	8.255379e+01
2.800000e-06	3.999461e-06	1.182908e-09	2.782102e+01	8.297880e+01
2.810000e-06	4.031235e-06	1.189742e-09	2.804204e+01	8.339527e+01
2.820000e-06	4.062861e-06	1.196769e-09	2.826204e+01	8.380316e+01
2.830000e-06	4.094336e-06	1.202658e-09	2.848099e+01	8.420246e+01
2.840000e-06	4.125645e-06	1.205396e-09	2.869878e+01	8.459317e+01
2.850000e-06	4.156664e-06	1.207716e-09	2.891455e+01	8.497530e+01
2.860000e-06	4.187374e-06	1.212002e-09	2.912817e+01	8.534890e+01
2.870000e-06	4.217781e-06	1.217422e-09	2.933969e+01	8.571402e+01
2.880000e-06	4.247830e-06	1.223136e-09	2.954872e+01	8.607073e+01
2.890000e-06	4.277518e-06	1.226221e-09	2.975524e+01	8.641913e+01
2.900000e-06	4.306926e-06	1.229080e-09	2.995980e+01	8.675934e+01
2.910000e-06	4.336107e-06	1.231844e-09	3.016280e+01	8.709148e+01
