# Temperatura_=_-10.79
# Concentracion g/m^3_=_1620.0
# C_Vs_to_Am_M_A/Vsm_=_65563218390.804596
# pendiente_HvsI_1/m_=_3716.3
# ordenada_HvsI_A/m_=_1297.0
# frecuencia_Hz_=_135100.85372976656

Tiempo_(s)	Campo_(V.s)	Magnetizacion_(V.s)	Campo_(kA/m)	Magnetizacion_(A/m)
0.000000e+00	-5.504290e-06	-8.524823e-10	-3.836696e+01	-5.528159e+01
1.000000e-08	-5.504516e-06	-8.492594e-10	-3.836854e+01	-5.526061e+01
2.000000e-08	-5.504501e-06	-8.425928e-10	-3.836843e+01	-5.523880e+01
3.000000e-08	-5.504224e-06	-8.392412e-10	-3.836650e+01	-5.521625e+01
4.000000e-08	-5.503477e-06	-8.372641e-10	-3.836130e+01	-5.519305e+01
5.000000e-08	-5.502116e-06	-8.348178e-10	-3.835181e+01	-5.516931e+01
6.000000e-08	-5.500157e-06	-8.354097e-10	-3.833816e+01	-5.514510e+01
7.000000e-08	-5.497630e-06	-8.376218e-10	-3.832054e+01	-5.512054e+01
8.000000e-08	-5.494562e-06	-8.423099e-10	-3.829915e+01	-5.509569e+01
9.000000e-08	-5.491001e-06	-8.292965e-10	-3.827433e+01	-5.507065e+01
1.000000e-07	-5.487005e-06	-8.232924e-10	-3.824648e+01	-5.504549e+01
1.100000e-07	-5.482697e-06	-8.318268e-10	-3.821645e+01	-5.502028e+01
1.200000e-07	-5.478243e-06	-8.481944e-10	-3.818541e+01	-5.499509e+01
1.300000e-07	-5.473577e-06	-8.278433e-10	-3.815288e+01	-5.496999e+01
1.400000e-07	-5.468567e-06	-8.163008e-10	-3.811796e+01	-5.494503e+01
1.500000e-07	-5.463002e-06	-8.097014e-10	-3.807917e+01	-5.492024e+01
1.600000e-07	-5.456971e-06	-8.519387e-10	-3.803713e+01	-5.489568e+01
1.700000e-07	-5.450671e-06	-8.382130e-10	-3.799322e+01	-5.487137e+01
1.800000e-07	-5.443976e-06	-8.379954e-10	-3.794655e+01	-5.484734e+01
1.900000e-07	-5.436888e-06	-8.270059e-10	-3.789715e+01	-5.482360e+01
2.000000e-07	-5.429481e-06	-8.478718e-10	-3.784552e+01	-5.480016e+01
2.100000e-07	-5.421856e-06	-8.218704e-10	-3.779237e+01	-5.477702e+01
2.200000e-07	-5.413981e-06	-8.023625e-10	-3.773748e+01	-5.475417e+01
2.300000e-07	-5.405734e-06	-7.969771e-10	-3.767999e+01	-5.473160e+01
2.400000e-07	-5.397128e-06	-8.085277e-10	-3.762001e+01	-5.470929e+01
2.500000e-07	-5.387989e-06	-8.006900e-10	-3.755630e+01	-5.468720e+01
2.600000e-07	-5.378120e-06	-7.824421e-10	-3.748751e+01	-5.466531e+01
2.700000e-07	-5.367597e-06	-7.872741e-10	-3.741416e+01	-5.464358e+01
2.800000e-07	-5.356556e-06	-7.790998e-10	-3.733720e+01	-5.462195e+01
2.900000e-07	-5.345029e-06	-7.833622e-10	-3.725685e+01	-5.460039e+01
3.000000e-07	-5.333084e-06	-7.739369e-10	-3.717360e+01	-5.457883e+01
3.100000e-07	-5.320762e-06	-7.954980e-10	-3.708771e+01	-5.455721e+01
3.200000e-07	-5.308023e-06	-7.833641e-10	-3.699891e+01	-5.453549e+01
3.300000e-07	-5.294890e-06	-7.970292e-10	-3.690737e+01	-5.451359e+01
3.400000e-07	-5.281370e-06	-7.765698e-10	-3.681313e+01	-5.449144e+01
3.500000e-07	-5.267492e-06	-7.856423e-10	-3.671639e+01	-5.446900e+01
3.600000e-07	-5.253185e-06	-7.720099e-10	-3.661667e+01	-5.444617e+01
3.700000e-07	-5.238496e-06	-7.842948e-10	-3.651428e+01	-5.442291e+01
3.800000e-07	-5.223340e-06	-7.683059e-10	-3.640863e+01	-5.439913e+01
3.900000e-07	-5.207593e-06	-7.812097e-10	-3.629888e+01	-5.437478e+01
4.000000e-07	-5.191315e-06	-7.784432e-10	-3.618541e+01	-5.434978e+01
4.100000e-07	-5.174585e-06	-7.796638e-10	-3.606879e+01	-5.432408e+01
4.200000e-07	-5.157535e-06	-7.777836e-10	-3.594995e+01	-5.429760e+01
4.300000e-07	-5.140258e-06	-8.005588e-10	-3.582953e+01	-5.427028e+01
4.400000e-07	-5.122724e-06	-7.867036e-10	-3.570730e+01	-5.424207e+01
4.500000e-07	-5.104820e-06	-7.712102e-10	-3.558250e+01	-5.421290e+01
4.600000e-07	-5.086437e-06	-7.824396e-10	-3.545437e+01	-5.418272e+01
4.700000e-07	-5.067588e-06	-7.906945e-10	-3.532299e+01	-5.415146e+01
4.800000e-07	-5.048442e-06	-7.694023e-10	-3.518954e+01	-5.411908e+01
4.900000e-07	-5.029053e-06	-7.783278e-10	-3.505438e+01	-5.408552e+01
5.000000e-07	-5.009451e-06	-8.052902e-10	-3.491775e+01	-5.405073e+01
5.100000e-07	-4.989611e-06	-7.890836e-10	-3.477946e+01	-5.401465e+01
5.200000e-07	-4.969428e-06	-7.755274e-10	-3.463877e+01	-5.397724e+01
5.300000e-07	-4.948934e-06	-7.922458e-10	-3.449592e+01	-5.393844e+01
5.400000e-07	-4.928087e-06	-7.875494e-10	-3.435061e+01	-5.389820e+01
5.500000e-07	-4.906838e-06	-7.583961e-10	-3.420250e+01	-5.385648e+01
5.600000e-07	-4.885328e-06	-7.769026e-10	-3.405256e+01	-5.381322e+01
5.700000e-07	-4.863592e-06	-7.856680e-10	-3.390106e+01	-5.376836e+01
5.800000e-07	-4.841451e-06	-7.666790e-10	-3.374672e+01	-5.372185e+01
5.900000e-07	-4.818926e-06	-7.645957e-10	-3.358972e+01	-5.367364e+01
6.000000e-07	-4.796160e-06	-7.903658e-10	-3.343103e+01	-5.362366e+01
6.100000e-07	-4.773052e-06	-7.767630e-10	-3.326996e+01	-5.357186e+01
6.200000e-07	-4.749594e-06	-7.700961e-10	-3.310645e+01	-5.351817e+01
6.300000e-07	-4.725896e-06	-7.794818e-10	-3.294126e+01	-5.346251e+01
6.400000e-07	-4.702025e-06	-7.807537e-10	-3.277487e+01	-5.340483e+01
6.500000e-07	-4.677856e-06	-7.603348e-10	-3.260641e+01	-5.334504e+01
6.600000e-07	-4.653302e-06	-7.709156e-10	-3.243525e+01	-5.328307e+01
6.700000e-07	-4.628397e-06	-7.772452e-10	-3.226166e+01	-5.321883e+01
6.800000e-07	-4.602845e-06	-7.737166e-10	-3.208355e+01	-5.315224e+01
6.900000e-07	-4.576614e-06	-7.687718e-10	-3.190072e+01	-5.308322e+01
7.000000e-07	-4.549908e-06	-7.810113e-10	-3.171456e+01	-5.301166e+01
7.100000e-07	-4.522758e-06	-7.721596e-10	-3.152532e+01	-5.293748e+01
7.200000e-07	-4.495346e-06	-7.601807e-10	-3.133424e+01	-5.286057e+01
7.300000e-07	-4.467783e-06	-7.600991e-10	-3.114212e+01	-5.278084e+01
7.400000e-07	-4.440053e-06	-7.656691e-10	-3.094883e+01	-5.269818e+01
7.500000e-07	-4.412074e-06	-7.577396e-10	-3.075381e+01	-5.261250e+01
7.600000e-07	-4.383833e-06	-7.607001e-10	-3.055696e+01	-5.252368e+01
7.700000e-07	-4.355375e-06	-7.695239e-10	-3.035860e+01	-5.243162e+01
7.800000e-07	-4.326573e-06	-7.653032e-10	-3.015784e+01	-5.233622e+01
7.900000e-07	-4.297350e-06	-7.589991e-10	-2.995414e+01	-5.223738e+01
8.000000e-07	-4.267827e-06	-7.613270e-10	-2.974836e+01	-5.213499e+01
8.100000e-07	-4.238055e-06	-7.561334e-10	-2.954083e+01	-5.202896e+01
8.200000e-07	-4.208000e-06	-7.432136e-10	-2.933133e+01	-5.191919e+01
8.300000e-07	-4.177690e-06	-7.436119e-10	-2.912007e+01	-5.180559e+01
8.400000e-07	-4.147089e-06	-7.439026e-10	-2.890677e+01	-5.168808e+01
8.500000e-07	-4.116124e-06	-7.426856e-10	-2.869093e+01	-5.156658e+01
8.600000e-07	-4.084879e-06	-7.433068e-10	-2.847314e+01	-5.144100e+01
8.700000e-07	-4.053436e-06	-7.466063e-10	-2.825397e+01	-5.131130e+01
8.800000e-07	-4.021915e-06	-7.389143e-10	-2.803426e+01	-5.117740e+01
8.900000e-07	-3.990251e-06	-7.371861e-10	-2.781354e+01	-5.103927e+01
9.000000e-07	-3.958349e-06	-7.337145e-10	-2.759118e+01	-5.089685e+01
9.100000e-07	-3.926205e-06	-7.294888e-10	-2.736712e+01	-5.075013e+01
9.200000e-07	-3.893679e-06	-7.252012e-10	-2.714040e+01	-5.059907e+01
9.300000e-07	-3.860872e-06	-7.286421e-10	-2.691172e+01	-5.044367e+01
9.400000e-07	-3.827807e-06	-7.254033e-10	-2.668125e+01	-5.028393e+01
9.500000e-07	-3.794175e-06	-7.241055e-10	-2.644682e+01	-5.011987e+01
9.600000e-07	-3.759956e-06	-7.238300e-10	-2.620830e+01	-4.995149e+01
9.700000e-07	-3.725339e-06	-7.223539e-10	-2.596701e+01	-4.977884e+01
9.800000e-07	-3.690347e-06	-7.158183e-10	-2.572310e+01	-4.960196e+01
9.900000e-07	-3.655054e-06	-7.167086e-10	-2.547710e+01	-4.942090e+01
1.000000e-06	-3.619543e-06	-7.158062e-10	-2.522957e+01	-4.923572e+01
1.010000e-06	-3.583858e-06	-7.146940e-10	-2.498083e+01	-4.904650e+01
1.020000e-06	-3.548069e-06	-7.147823e-10	-2.473137e+01	-4.885332e+01
1.030000e-06	-3.512123e-06	-7.156496e-10	-2.448081e+01	-4.865627e+01
1.040000e-06	-3.476006e-06	-7.101181e-10	-2.422906e+01	-4.845544e+01
1.050000e-06	-3.439685e-06	-7.054769e-10	-2.397589e+01	-4.825093e+01
1.060000e-06	-3.403026e-06	-7.022939e-10	-2.372037e+01	-4.804286e+01
1.070000e-06	-3.366116e-06	-6.959971e-10	-2.346309e+01	-4.783133e+01
1.080000e-06	-3.329038e-06	-6.886356e-10	-2.320465e+01	-4.761646e+01
1.090000e-06	-3.291733e-06	-6.872709e-10	-2.294461e+01	-4.739836e+01
1.100000e-06	-3.254134e-06	-6.870377e-10	-2.268253e+01	-4.717714e+01
1.110000e-06	-3.216210e-06	-6.826928e-10	-2.241819e+01	-4.695293e+01
1.120000e-06	-3.178109e-06	-6.803559e-10	-2.215261e+01	-4.672582e+01
1.130000e-06	-3.139906e-06	-6.769672e-10	-2.188632e+01	-4.649593e+01
1.140000e-06	-3.101527e-06	-6.703472e-10	-2.161880e+01	-4.626335e+01
1.150000e-06	-3.062879e-06	-6.627709e-10	-2.134941e+01	-4.602819e+01
1.160000e-06	-3.023879e-06	-6.613796e-10	-2.107757e+01	-4.579051e+01
1.170000e-06	-2.984700e-06	-6.586489e-10	-2.080448e+01	-4.555040e+01
1.180000e-06	-2.945399e-06	-6.563083e-10	-2.053054e+01	-4.530792e+01
1.190000e-06	-2.905878e-06	-6.557802e-10	-2.025506e+01	-4.506312e+01
1.200000e-06	-2.866215e-06	-6.552910e-10	-1.997859e+01	-4.481602e+01
1.210000e-06	-2.826428e-06	-6.492381e-10	-1.970126e+01	-4.456666e+01
1.220000e-06	-2.786497e-06	-6.453125e-10	-1.942293e+01	-4.431503e+01
1.230000e-06	-2.746466e-06	-6.411808e-10	-1.914390e+01	-4.406111e+01
1.240000e-06	-2.706343e-06	-6.354511e-10	-1.886422e+01	-4.380488e+01
1.250000e-06	-2.666114e-06	-6.287322e-10	-1.858381e+01	-4.354628e+01
1.260000e-06	-2.625687e-06	-6.247939e-10	-1.830202e+01	-4.328522e+01
1.270000e-06	-2.584892e-06	-6.193539e-10	-1.801766e+01	-4.302163e+01
1.280000e-06	-2.543817e-06	-6.171338e-10	-1.773135e+01	-4.275537e+01
1.290000e-06	-2.502586e-06	-6.162625e-10	-1.744396e+01	-4.248632e+01
1.300000e-06	-2.460986e-06	-6.129665e-10	-1.715399e+01	-4.221432e+01
1.310000e-06	-2.418986e-06	-6.051735e-10	-1.686124e+01	-4.193917e+01
1.320000e-06	-2.376827e-06	-5.987510e-10	-1.656738e+01	-4.166068e+01
1.330000e-06	-2.334398e-06	-5.925557e-10	-1.627163e+01	-4.137862e+01
1.340000e-06	-2.291601e-06	-5.859148e-10	-1.597332e+01	-4.109275e+01
1.350000e-06	-2.248636e-06	-5.815067e-10	-1.567384e+01	-4.080280e+01
1.360000e-06	-2.205482e-06	-5.802047e-10	-1.537304e+01	-4.050848e+01
1.370000e-06	-2.162122e-06	-5.778213e-10	-1.507080e+01	-4.020950e+01
1.380000e-06	-2.118617e-06	-5.720753e-10	-1.476756e+01	-3.990553e+01
1.390000e-06	-2.074999e-06	-5.665749e-10	-1.446352e+01	-3.959622e+01
1.400000e-06	-2.031295e-06	-5.609536e-10	-1.415889e+01	-3.928124e+01
1.410000e-06	-1.987478e-06	-5.537363e-10	-1.385346e+01	-3.896020e+01
1.420000e-06	-1.943577e-06	-5.469145e-10	-1.354746e+01	-3.863274e+01
1.430000e-06	-1.899614e-06	-5.435878e-10	-1.324102e+01	-3.829845e+01
1.440000e-06	-1.855583e-06	-5.396283e-10	-1.293411e+01	-3.795695e+01
1.450000e-06	-1.811435e-06	-5.351294e-10	-1.262638e+01	-3.760782e+01
1.460000e-06	-1.767166e-06	-5.290287e-10	-1.231781e+01	-3.725065e+01
1.470000e-06	-1.722788e-06	-5.211602e-10	-1.200848e+01	-3.688502e+01
1.480000e-06	-1.678253e-06	-5.118440e-10	-1.169805e+01	-3.651052e+01
1.490000e-06	-1.633623e-06	-5.048536e-10	-1.138696e+01	-3.612672e+01
1.500000e-06	-1.588948e-06	-4.995944e-10	-1.107556e+01	-3.573322e+01
1.510000e-06	-1.544103e-06	-4.946388e-10	-1.076298e+01	-3.532960e+01
1.520000e-06	-1.499113e-06	-4.878940e-10	-1.044938e+01	-3.491544e+01
1.530000e-06	-1.454069e-06	-4.819158e-10	-1.013541e+01	-3.449036e+01
1.540000e-06	-1.408918e-06	-4.768447e-10	-9.820685e+00	-3.405396e+01
1.550000e-06	-1.363650e-06	-4.714227e-10	-9.505155e+00	-3.360587e+01
1.560000e-06	-1.318255e-06	-4.634909e-10	-9.188729e+00	-3.314572e+01
1.570000e-06	-1.272677e-06	-4.563884e-10	-8.871037e+00	-3.267316e+01
1.580000e-06	-1.227004e-06	-4.493886e-10	-8.552679e+00	-3.218785e+01
1.590000e-06	-1.181297e-06	-4.403707e-10	-8.234080e+00	-3.168949e+01
1.600000e-06	-1.135533e-06	-4.334636e-10	-7.915090e+00	-3.117778e+01
1.610000e-06	-1.089676e-06	-4.297645e-10	-7.595450e+00	-3.065243e+01
1.620000e-06	-1.043753e-06	-4.233560e-10	-7.275346e+00	-3.011321e+01
1.630000e-06	-9.976792e-07	-4.137170e-10	-6.954198e+00	-2.955988e+01
1.640000e-06	-9.515119e-07	-4.033499e-10	-6.632395e+00	-2.899224e+01
1.650000e-06	-9.053671e-07	-3.919633e-10	-6.310748e+00	-2.841011e+01
1.660000e-06	-8.591413e-07	-3.788009e-10	-5.988537e+00	-2.781335e+01
1.670000e-06	-8.128831e-07	-3.669856e-10	-5.666100e+00	-2.720182e+01
1.680000e-06	-7.666489e-07	-3.584095e-10	-5.343830e+00	-2.657543e+01
1.690000e-06	-7.204278e-07	-3.506606e-10	-5.021652e+00	-2.593413e+01
1.700000e-06	-6.741211e-07	-3.439075e-10	-4.698877e+00	-2.527787e+01
1.710000e-06	-6.277393e-07	-3.369325e-10	-4.375578e+00	-2.460664e+01
1.720000e-06	-5.813463e-07	-3.280528e-10	-4.052201e+00	-2.392048e+01
1.730000e-06	-5.349031e-07	-3.167682e-10	-3.728475e+00	-2.321944e+01
1.740000e-06	-4.884069e-07	-3.038440e-10	-3.404379e+00	-2.250360e+01
1.750000e-06	-4.418731e-07	-2.919618e-10	-3.080021e+00	-2.177309e+01
1.760000e-06	-3.952825e-07	-2.801958e-10	-2.755267e+00	-2.102804e+01
1.770000e-06	-3.486104e-07	-2.705225e-10	-2.429945e+00	-2.026865e+01
1.780000e-06	-3.019283e-07	-2.617110e-10	-2.104553e+00	-1.949511e+01
1.790000e-06	-2.552689e-07	-2.511520e-10	-1.779320e+00	-1.870767e+01
1.800000e-06	-2.086344e-07	-2.409992e-10	-1.454260e+00	-1.790660e+01
1.810000e-06	-1.620001e-07	-2.290485e-10	-1.129201e+00	-1.709219e+01
1.820000e-06	-1.153290e-07	-2.149991e-10	-8.038864e-01	-1.626477e+01
1.830000e-06	-6.856054e-08	-1.988085e-10	-4.778926e-01	-1.542470e+01
1.840000e-06	-2.174035e-08	-1.853243e-10	-1.515384e-01	-1.457236e+01
1.850000e-06	2.499226e-08	-1.737203e-10	1.742054e-01	-1.370817e+01
1.860000e-06	7.167811e-08	-1.643892e-10	4.996233e-01	-1.283255e+01
1.870000e-06	1.183318e-07	-1.524067e-10	8.248168e-01	-1.194598e+01
1.880000e-06	1.649671e-07	-1.377469e-10	1.149882e+00	-1.104893e+01
1.890000e-06	2.116041e-07	-1.238395e-10	1.474960e+00	-1.014192e+01
1.900000e-06	2.582100e-07	-1.109451e-10	1.799821e+00	-9.225481e+00
1.910000e-06	3.048099e-07	-1.001220e-10	2.124639e+00	-8.300169e+00
1.920000e-06	3.514117e-07	-8.803988e-11	2.449471e+00	-7.366559e+00
1.930000e-06	3.979487e-07	-7.330688e-11	2.773851e+00	-6.425245e+00
1.940000e-06	4.444729e-07	-5.836341e-11	3.098143e+00	-5.476842e+00
1.950000e-06	4.909804e-07	-4.297470e-11	3.422317e+00	-4.521978e+00
1.960000e-06	5.374506e-07	-2.854106e-11	3.746232e+00	-3.561301e+00
1.970000e-06	5.838760e-07	-1.484940e-11	4.069834e+00	-2.595470e+00
1.980000e-06	6.302269e-07	-1.636057e-12	4.392918e+00	-1.625161e+00
1.990000e-06	6.765849e-07	1.074451e-11	4.716050e+00	-6.510582e-01
2.000000e-06	7.228598e-07	2.203078e-11	5.038604e+00	3.261419e-01
2.010000e-06	7.690107e-07	3.637632e-11	5.360293e+00	1.305735e+00
2.020000e-06	8.151409e-07	5.174044e-11	5.681838e+00	2.287008e+00
2.030000e-06	8.612224e-07	6.652864e-11	6.003042e+00	3.269243e+00
2.040000e-06	9.072644e-07	8.179361e-11	6.323973e+00	4.251719e+00
2.050000e-06	9.532712e-07	9.465915e-11	6.644657e+00	5.233711e+00
2.060000e-06	9.991958e-07	1.080002e-10	6.964769e+00	6.214495e+00
2.070000e-06	1.045019e-06	1.207587e-10	7.284173e+00	7.193345e+00
2.080000e-06	1.090786e-06	1.351055e-10	7.603189e+00	8.169540e+00
2.090000e-06	1.136501e-06	1.501988e-10	7.921839e+00	9.142363e+00
2.100000e-06	1.182115e-06	1.656613e-10	8.239783e+00	1.011110e+01
2.110000e-06	1.227599e-06	1.785478e-10	8.556826e+00	1.107506e+01
2.120000e-06	1.273042e-06	1.906425e-10	8.873579e+00	1.203353e+01
2.130000e-06	1.318451e-06	2.034657e-10	9.190094e+00	1.298585e+01
2.140000e-06	1.363670e-06	2.173308e-10	9.505289e+00	1.393134e+01
2.150000e-06	1.408756e-06	2.321440e-10	9.819558e+00	1.486935e+01
2.160000e-06	1.453810e-06	2.464226e-10	1.013360e+01	1.579924e+01
2.170000e-06	1.498744e-06	2.609490e-10	1.044681e+01	1.672040e+01
2.180000e-06	1.543512e-06	2.748791e-10	1.075885e+01	1.763223e+01
2.190000e-06	1.588180e-06	2.853293e-10	1.107021e+01	1.853415e+01
2.200000e-06	1.632721e-06	2.963211e-10	1.138068e+01	1.942562e+01
2.210000e-06	1.677186e-06	3.071565e-10	1.169062e+01	2.030610e+01
2.220000e-06	1.721524e-06	3.165063e-10	1.199966e+01	2.117510e+01
2.230000e-06	1.765704e-06	3.259119e-10	1.230762e+01	2.203215e+01
2.240000e-06	1.809805e-06	3.371552e-10	1.261502e+01	2.287681e+01
2.250000e-06	1.853830e-06	3.503850e-10	1.292189e+01	2.370865e+01
2.260000e-06	1.897800e-06	3.634764e-10	1.322838e+01	2.452731e+01
2.270000e-06	1.941688e-06	3.768118e-10	1.353429e+01	2.533242e+01
2.280000e-06	1.985461e-06	3.883546e-10	1.383940e+01	2.612368e+01
2.290000e-06	2.029182e-06	3.973442e-10	1.414416e+01	2.690080e+01
2.300000e-06	2.072879e-06	4.057933e-10	1.444874e+01	2.766354e+01
2.310000e-06	2.116493e-06	4.133474e-10	1.475275e+01	2.841167e+01
2.320000e-06	2.160000e-06	4.203939e-10	1.505601e+01	2.914503e+01
2.330000e-06	2.203413e-06	4.308568e-10	1.535861e+01	2.986346e+01
2.340000e-06	2.246686e-06	4.442506e-10	1.566024e+01	3.056686e+01
2.350000e-06	2.289698e-06	4.571849e-10	1.596005e+01	3.125515e+01
2.360000e-06	2.332417e-06	4.677889e-10	1.625782e+01	3.192828e+01
2.370000e-06	2.374879e-06	4.765370e-10	1.655379e+01	3.258625e+01
2.380000e-06	2.417075e-06	4.825529e-10	1.684792e+01	3.322909e+01
2.390000e-06	2.458870e-06	4.885440e-10	1.713925e+01	3.385684e+01
2.400000e-06	2.500256e-06	4.954676e-10	1.742772e+01	3.446960e+01
2.410000e-06	2.541411e-06	5.033450e-10	1.771459e+01	3.506747e+01
2.420000e-06	2.582343e-06	5.118686e-10	1.799990e+01	3.565061e+01
2.430000e-06	2.622980e-06	5.209292e-10	1.828315e+01	3.621918e+01
2.440000e-06	2.663407e-06	5.291323e-10	1.856494e+01	3.677338e+01
2.450000e-06	2.703709e-06	5.355755e-10	1.884586e+01	3.731343e+01
2.460000e-06	2.743829e-06	5.417117e-10	1.912551e+01	3.783956e+01
2.470000e-06	2.783780e-06	5.473100e-10	1.940399e+01	3.835204e+01
2.480000e-06	2.823653e-06	5.532903e-10	1.968192e+01	3.885114e+01
2.490000e-06	2.863395e-06	5.589730e-10	1.995893e+01	3.933715e+01
2.500000e-06	2.903012e-06	5.655138e-10	2.023508e+01	3.981039e+01
2.510000e-06	2.942478e-06	5.735143e-10	2.051017e+01	4.027117e+01
2.520000e-06	2.981760e-06	5.807114e-10	2.078398e+01	4.071982e+01
2.530000e-06	3.020873e-06	5.868685e-10	2.105662e+01	4.115667e+01
2.540000e-06	3.059765e-06	5.935130e-10	2.132771e+01	4.158207e+01
2.550000e-06	3.098386e-06	6.015718e-10	2.159691e+01	4.199635e+01
2.560000e-06	3.136709e-06	6.073628e-10	2.186404e+01	4.239986e+01
2.570000e-06	3.174832e-06	6.116299e-10	2.212977e+01	4.279295e+01
2.580000e-06	3.212801e-06	6.173966e-10	2.239442e+01	4.317595e+01
2.590000e-06	3.250603e-06	6.252036e-10	2.265792e+01	4.354921e+01
2.600000e-06	3.288169e-06	6.323963e-10	2.291977e+01	4.391305e+01
2.610000e-06	3.325468e-06	6.376268e-10	2.317975e+01	4.426779e+01
2.620000e-06	3.362607e-06	6.435806e-10	2.343863e+01	4.461375e+01
2.630000e-06	3.399530e-06	6.494386e-10	2.369600e+01	4.495124e+01
2.640000e-06	3.436150e-06	6.527996e-10	2.395125e+01	4.528053e+01
2.650000e-06	3.472476e-06	6.549858e-10	2.420446e+01	4.560191e+01
2.660000e-06	3.508556e-06	6.589630e-10	2.445595e+01	4.591565e+01
2.670000e-06	3.544455e-06	6.643793e-10	2.470618e+01	4.622199e+01
2.680000e-06	3.580244e-06	6.699037e-10	2.495564e+01	4.652116e+01
2.690000e-06	3.615933e-06	6.746755e-10	2.520441e+01	4.681338e+01
2.700000e-06	3.651469e-06	6.765144e-10	2.545211e+01	4.709886e+01
2.710000e-06	3.686873e-06	6.785699e-10	2.569889e+01	4.737778e+01
2.720000e-06	3.722017e-06	6.821420e-10	2.594385e+01	4.765031e+01
2.730000e-06	3.756797e-06	6.840744e-10	2.618628e+01	4.791660e+01
2.740000e-06	3.791203e-06	6.854798e-10	2.642611e+01	4.817680e+01
2.750000e-06	3.825066e-06	6.876647e-10	2.666215e+01	4.843102e+01
2.760000e-06	3.858345e-06	6.916951e-10	2.689411e+01	4.867938e+01
2.770000e-06	3.891116e-06	6.958866e-10	2.712254e+01	4.892197e+01
2.780000e-06	3.923547e-06	6.999369e-10	2.734859e+01	4.915888e+01
2.790000e-06	3.955791e-06	7.037129e-10	2.757335e+01	4.939016e+01
2.800000e-06	3.987851e-06	7.047318e-10	2.779682e+01	4.961590e+01
2.810000e-06	4.019709e-06	7.045435e-10	2.801888e+01	4.983612e+01
2.820000e-06	4.051377e-06	7.058717e-10	2.823961e+01	5.005088e+01
2.830000e-06	4.082842e-06	7.092731e-10	2.845894e+01	5.026021e+01
2.840000e-06	4.114143e-06	7.133646e-10	2.867712e+01	5.046414e+01
2.850000e-06	4.145100e-06	7.154621e-10	2.889290e+01	5.066269e+01
2.860000e-06	4.175629e-06	7.172746e-10	2.910570e+01	5.085587e+01
2.870000e-06	4.205915e-06	7.198222e-10	2.931680e+01	5.104372e+01
2.880000e-06	4.235937e-06	7.225623e-10	2.952607e+01	5.122625e+01
2.890000e-06	4.265692e-06	7.247186e-10	2.973347e+01	5.140347e+01
2.900000e-06	4.295146e-06	7.248830e-10	2.993878e+01	5.157540e+01
