# Temperatura_=_-0.7
# Concentracion g/m^3_=_1620.0
# C_Vs_to_Am_M_A/Vsm_=_65563218390.804596
# pendiente_HvsI_1/m_=_3716.3
# ordenada_HvsI_A/m_=_1297.0
# frecuencia_Hz_=_135096.71094262786

Tiempo_(s)	Campo_(V.s)	Magnetizacion_(V.s)	Campo_(kA/m)	Magnetizacion_(A/m)
0.000000e+00	-5.521178e-06	-1.287837e-09	-3.837142e+01	-8.406925e+01
1.000000e-08	-5.521269e-06	-1.286029e-09	-3.837205e+01	-8.404863e+01
2.000000e-08	-5.521073e-06	-1.285629e-09	-3.837069e+01	-8.402794e+01
3.000000e-08	-5.520500e-06	-1.287377e-09	-3.836671e+01	-8.400707e+01
4.000000e-08	-5.519371e-06	-1.290488e-09	-3.835886e+01	-8.398590e+01
5.000000e-08	-5.517587e-06	-1.297854e-09	-3.834647e+01	-8.396428e+01
6.000000e-08	-5.515224e-06	-1.307777e-09	-3.833004e+01	-8.394206e+01
7.000000e-08	-5.512378e-06	-1.302345e-09	-3.831027e+01	-8.391907e+01
8.000000e-08	-5.509024e-06	-1.261425e-09	-3.828696e+01	-8.389511e+01
9.000000e-08	-5.505156e-06	-1.224577e-09	-3.826007e+01	-8.387000e+01
1.000000e-07	-5.500894e-06	-1.262912e-09	-3.823045e+01	-8.384351e+01
1.100000e-07	-5.496390e-06	-1.370421e-09	-3.819915e+01	-8.381542e+01
1.200000e-07	-5.491738e-06	-1.323172e-09	-3.816682e+01	-8.378553e+01
1.300000e-07	-5.486825e-06	-1.251234e-09	-3.813267e+01	-8.375359e+01
1.400000e-07	-5.481490e-06	-1.253400e-09	-3.809560e+01	-8.371937e+01
1.500000e-07	-5.475663e-06	-1.336629e-09	-3.805510e+01	-8.368265e+01
1.600000e-07	-5.469376e-06	-1.327075e-09	-3.801141e+01	-8.364319e+01
1.700000e-07	-5.462675e-06	-1.220822e-09	-3.796483e+01	-8.360078e+01
1.800000e-07	-5.455634e-06	-1.274214e-09	-3.791590e+01	-8.355520e+01
1.900000e-07	-5.448319e-06	-1.334724e-09	-3.786506e+01	-8.350624e+01
2.000000e-07	-5.440808e-06	-1.353081e-09	-3.781287e+01	-8.345369e+01
2.100000e-07	-5.433014e-06	-1.266822e-09	-3.775870e+01	-8.339739e+01
2.200000e-07	-5.424932e-06	-1.289864e-09	-3.770253e+01	-8.333714e+01
2.300000e-07	-5.416508e-06	-1.309599e-09	-3.764398e+01	-8.327280e+01
2.400000e-07	-5.407537e-06	-1.325302e-09	-3.758164e+01	-8.320422e+01
2.500000e-07	-5.397836e-06	-1.276348e-09	-3.751421e+01	-8.313128e+01
2.600000e-07	-5.387560e-06	-1.283725e-09	-3.744279e+01	-8.305386e+01
2.700000e-07	-5.376775e-06	-1.289425e-09	-3.736784e+01	-8.297189e+01
2.800000e-07	-5.365438e-06	-1.285621e-09	-3.728905e+01	-8.288528e+01
2.900000e-07	-5.353775e-06	-1.253988e-09	-3.720800e+01	-8.279399e+01
3.000000e-07	-5.341711e-06	-1.250509e-09	-3.712415e+01	-8.269798e+01
3.100000e-07	-5.329192e-06	-1.272659e-09	-3.703715e+01	-8.259723e+01
3.200000e-07	-5.316306e-06	-1.268967e-09	-3.694759e+01	-8.249175e+01
3.300000e-07	-5.302994e-06	-1.257495e-09	-3.685507e+01	-8.238157e+01
3.400000e-07	-5.289293e-06	-1.239061e-09	-3.675986e+01	-8.226670e+01
3.500000e-07	-5.275242e-06	-1.268298e-09	-3.666220e+01	-8.214722e+01
3.600000e-07	-5.260698e-06	-1.250935e-09	-3.656112e+01	-8.202318e+01
3.700000e-07	-5.245566e-06	-1.230424e-09	-3.645596e+01	-8.189467e+01
3.800000e-07	-5.229845e-06	-1.240673e-09	-3.634670e+01	-8.176177e+01
3.900000e-07	-5.213741e-06	-1.278393e-09	-3.623478e+01	-8.162460e+01
4.000000e-07	-5.197197e-06	-1.218391e-09	-3.611980e+01	-8.148326e+01
4.100000e-07	-5.180294e-06	-1.210491e-09	-3.600233e+01	-8.133788e+01
4.200000e-07	-5.163120e-06	-1.264972e-09	-3.588297e+01	-8.118858e+01
4.300000e-07	-5.145571e-06	-1.263137e-09	-3.576101e+01	-8.103548e+01
4.400000e-07	-5.127687e-06	-1.177957e-09	-3.563672e+01	-8.087873e+01
4.500000e-07	-5.109542e-06	-1.236698e-09	-3.551061e+01	-8.071846e+01
4.600000e-07	-5.091025e-06	-1.285971e-09	-3.538192e+01	-8.055479e+01
4.700000e-07	-5.072009e-06	-1.213803e-09	-3.524976e+01	-8.038787e+01
4.800000e-07	-5.052665e-06	-1.180354e-09	-3.511532e+01	-8.021781e+01
4.900000e-07	-5.033137e-06	-1.269618e-09	-3.497961e+01	-8.004474e+01
5.000000e-07	-5.013375e-06	-1.231613e-09	-3.484226e+01	-7.986878e+01
5.100000e-07	-4.993308e-06	-1.175393e-09	-3.470280e+01	-7.969003e+01
5.200000e-07	-4.972969e-06	-1.232192e-09	-3.456145e+01	-7.950859e+01
5.300000e-07	-4.952235e-06	-1.241798e-09	-3.441735e+01	-7.932455e+01
5.400000e-07	-4.931058e-06	-1.158255e-09	-3.427017e+01	-7.913799e+01
5.500000e-07	-4.909597e-06	-1.197982e-09	-3.412102e+01	-7.894898e+01
5.600000e-07	-4.887925e-06	-1.247492e-09	-3.397040e+01	-7.875757e+01
5.700000e-07	-4.865966e-06	-1.177504e-09	-3.381779e+01	-7.856381e+01
5.800000e-07	-4.843625e-06	-1.164478e-09	-3.366253e+01	-7.836773e+01
5.900000e-07	-4.820836e-06	-1.228761e-09	-3.350414e+01	-7.816934e+01
6.000000e-07	-4.797661e-06	-1.197575e-09	-3.334308e+01	-7.796866e+01
6.100000e-07	-4.774306e-06	-1.157020e-09	-3.318076e+01	-7.776568e+01
6.200000e-07	-4.750764e-06	-1.204448e-09	-3.301716e+01	-7.756038e+01
6.300000e-07	-4.726948e-06	-1.198510e-09	-3.285163e+01	-7.735273e+01
6.400000e-07	-4.702814e-06	-1.157942e-09	-3.268391e+01	-7.714270e+01
6.500000e-07	-4.678241e-06	-1.177098e-09	-3.251313e+01	-7.693024e+01
6.600000e-07	-4.653217e-06	-1.191798e-09	-3.233921e+01	-7.671527e+01
6.700000e-07	-4.627620e-06	-1.150425e-09	-3.216132e+01	-7.649775e+01
6.800000e-07	-4.601496e-06	-1.157656e-09	-3.197976e+01	-7.627760e+01
6.900000e-07	-4.574940e-06	-1.167225e-09	-3.179520e+01	-7.605472e+01
7.000000e-07	-4.547914e-06	-1.147847e-09	-3.160738e+01	-7.582905e+01
7.100000e-07	-4.520627e-06	-1.139788e-09	-3.141773e+01	-7.560047e+01
7.200000e-07	-4.493150e-06	-1.156801e-09	-3.122677e+01	-7.536891e+01
7.300000e-07	-4.465435e-06	-1.137688e-09	-3.103416e+01	-7.513426e+01
7.400000e-07	-4.437525e-06	-1.131228e-09	-3.084018e+01	-7.489643e+01
7.500000e-07	-4.409384e-06	-1.135783e-09	-3.064461e+01	-7.465531e+01
7.600000e-07	-4.380893e-06	-1.132850e-09	-3.044660e+01	-7.441080e+01
7.700000e-07	-4.352051e-06	-1.120959e-09	-3.024615e+01	-7.416281e+01
7.800000e-07	-4.322928e-06	-1.128376e-09	-3.004375e+01	-7.391124e+01
7.900000e-07	-4.293482e-06	-1.118657e-09	-2.983911e+01	-7.365601e+01
8.000000e-07	-4.263725e-06	-1.108030e-09	-2.963230e+01	-7.339702e+01
8.100000e-07	-4.233713e-06	-1.105731e-09	-2.942372e+01	-7.313418e+01
8.200000e-07	-4.203506e-06	-1.101758e-09	-2.921378e+01	-7.286742e+01
8.300000e-07	-4.173017e-06	-1.084406e-09	-2.900189e+01	-7.259666e+01
8.400000e-07	-4.142152e-06	-1.083583e-09	-2.878738e+01	-7.232184e+01
8.500000e-07	-4.110938e-06	-1.088244e-09	-2.857045e+01	-7.204289e+01
8.600000e-07	-4.079508e-06	-1.081190e-09	-2.835201e+01	-7.175975e+01
8.700000e-07	-4.048000e-06	-1.075532e-09	-2.813304e+01	-7.147237e+01
8.800000e-07	-4.016307e-06	-1.079966e-09	-2.791278e+01	-7.118071e+01
8.900000e-07	-3.984417e-06	-1.072257e-09	-2.769114e+01	-7.088473e+01
9.000000e-07	-3.952326e-06	-1.055498e-09	-2.746812e+01	-7.058439e+01
9.100000e-07	-3.919830e-06	-1.053906e-09	-2.724228e+01	-7.027966e+01
9.200000e-07	-3.886871e-06	-1.047340e-09	-2.701321e+01	-6.997052e+01
9.300000e-07	-3.853472e-06	-1.034072e-09	-2.678110e+01	-6.965695e+01
9.400000e-07	-3.819726e-06	-1.031049e-09	-2.654657e+01	-6.933893e+01
9.500000e-07	-3.785619e-06	-1.036316e-09	-2.630953e+01	-6.901645e+01
9.600000e-07	-3.750986e-06	-1.024511e-09	-2.606884e+01	-6.868950e+01
9.700000e-07	-3.715931e-06	-1.017117e-09	-2.582521e+01	-6.835808e+01
9.800000e-07	-3.680605e-06	-1.015188e-09	-2.557970e+01	-6.802217e+01
9.900000e-07	-3.645089e-06	-1.008689e-09	-2.533286e+01	-6.768179e+01
1.000000e-06	-3.609476e-06	-9.960351e-10	-2.508536e+01	-6.733692e+01
1.010000e-06	-3.573779e-06	-9.967551e-10	-2.483727e+01	-6.698756e+01
1.020000e-06	-3.537940e-06	-9.928103e-10	-2.458819e+01	-6.663371e+01
1.030000e-06	-3.501853e-06	-9.849711e-10	-2.433739e+01	-6.627536e+01
1.040000e-06	-3.465463e-06	-9.791290e-10	-2.408449e+01	-6.591253e+01
1.050000e-06	-3.428828e-06	-9.791263e-10	-2.382988e+01	-6.554518e+01
1.060000e-06	-3.391981e-06	-9.681411e-10	-2.357380e+01	-6.517333e+01
1.070000e-06	-3.354860e-06	-9.590500e-10	-2.331581e+01	-6.479696e+01
1.080000e-06	-3.317443e-06	-9.542483e-10	-2.305577e+01	-6.441606e+01
1.090000e-06	-3.279820e-06	-9.486563e-10	-2.279430e+01	-6.403061e+01
1.100000e-06	-3.241945e-06	-9.393083e-10	-2.253107e+01	-6.364061e+01
1.110000e-06	-3.203771e-06	-9.370074e-10	-2.226577e+01	-6.324601e+01
1.120000e-06	-3.165388e-06	-9.337561e-10	-2.199901e+01	-6.284682e+01
1.130000e-06	-3.126798e-06	-9.266310e-10	-2.173081e+01	-6.244299e+01
1.140000e-06	-3.087907e-06	-9.209648e-10	-2.146052e+01	-6.203450e+01
1.150000e-06	-3.048787e-06	-9.167707e-10	-2.118865e+01	-6.162131e+01
1.160000e-06	-3.009611e-06	-9.090320e-10	-2.091638e+01	-6.120339e+01
1.170000e-06	-2.970349e-06	-8.992139e-10	-2.064352e+01	-6.078071e+01
1.180000e-06	-2.930971e-06	-8.903701e-10	-2.036985e+01	-6.035321e+01
1.190000e-06	-2.891445e-06	-8.803457e-10	-2.009514e+01	-5.992086e+01
1.200000e-06	-2.851757e-06	-8.707444e-10	-1.981932e+01	-5.948361e+01
1.210000e-06	-2.811950e-06	-8.618603e-10	-1.954266e+01	-5.904140e+01
1.220000e-06	-2.771954e-06	-8.551189e-10	-1.926469e+01	-5.859418e+01
1.230000e-06	-2.731715e-06	-8.456392e-10	-1.898504e+01	-5.814190e+01
1.240000e-06	-2.691277e-06	-8.391676e-10	-1.870400e+01	-5.768448e+01
1.250000e-06	-2.650667e-06	-8.325092e-10	-1.842177e+01	-5.722188e+01
1.260000e-06	-2.609799e-06	-8.254484e-10	-1.813774e+01	-5.675402e+01
1.270000e-06	-2.568579e-06	-8.174449e-10	-1.785127e+01	-5.628082e+01
1.280000e-06	-2.527017e-06	-8.123970e-10	-1.756242e+01	-5.580222e+01
1.290000e-06	-2.485129e-06	-8.048683e-10	-1.727130e+01	-5.531812e+01
1.300000e-06	-2.443057e-06	-7.927736e-10	-1.697891e+01	-5.482845e+01
1.310000e-06	-2.400787e-06	-7.801056e-10	-1.668514e+01	-5.433310e+01
1.320000e-06	-2.358193e-06	-7.729946e-10	-1.638911e+01	-5.383198e+01
1.330000e-06	-2.315320e-06	-7.656993e-10	-1.609115e+01	-5.332498e+01
1.340000e-06	-2.272231e-06	-7.574377e-10	-1.579169e+01	-5.281198e+01
1.350000e-06	-2.228995e-06	-7.493120e-10	-1.549121e+01	-5.229287e+01
1.360000e-06	-2.185604e-06	-7.422486e-10	-1.518964e+01	-5.176750e+01
1.370000e-06	-2.142083e-06	-7.324393e-10	-1.488718e+01	-5.123572e+01
1.380000e-06	-2.098463e-06	-7.213287e-10	-1.458403e+01	-5.069739e+01
1.390000e-06	-2.054793e-06	-7.077553e-10	-1.428053e+01	-5.015232e+01
1.400000e-06	-2.011041e-06	-6.964732e-10	-1.397645e+01	-4.960034e+01
1.410000e-06	-1.967145e-06	-6.872766e-10	-1.367139e+01	-4.904125e+01
1.420000e-06	-1.923236e-06	-6.797147e-10	-1.336622e+01	-4.847483e+01
1.430000e-06	-1.879299e-06	-6.719751e-10	-1.306087e+01	-4.790086e+01
1.440000e-06	-1.835210e-06	-6.623174e-10	-1.275446e+01	-4.731908e+01
1.450000e-06	-1.790957e-06	-6.507383e-10	-1.244690e+01	-4.672923e+01
1.460000e-06	-1.746556e-06	-6.391996e-10	-1.213833e+01	-4.613103e+01
1.470000e-06	-1.702048e-06	-6.276007e-10	-1.182900e+01	-4.552418e+01
1.480000e-06	-1.657392e-06	-6.161493e-10	-1.151865e+01	-4.490836e+01
1.490000e-06	-1.612574e-06	-6.068469e-10	-1.120716e+01	-4.428323e+01
1.500000e-06	-1.567624e-06	-5.965344e-10	-1.089477e+01	-4.364843e+01
1.510000e-06	-1.522565e-06	-5.842376e-10	-1.058162e+01	-4.300359e+01
1.520000e-06	-1.477374e-06	-5.720234e-10	-1.026754e+01	-4.234831e+01
1.530000e-06	-1.432036e-06	-5.633191e-10	-9.952452e+00	-4.168218e+01
1.540000e-06	-1.386614e-06	-5.566136e-10	-9.636778e+00	-4.100478e+01
1.550000e-06	-1.341153e-06	-5.473313e-10	-9.320831e+00	-4.031566e+01
1.560000e-06	-1.295668e-06	-5.370516e-10	-9.004714e+00	-3.961437e+01
1.570000e-06	-1.250120e-06	-5.272293e-10	-8.688159e+00	-3.890044e+01
1.580000e-06	-1.204467e-06	-5.133132e-10	-8.370877e+00	-3.817339e+01
1.590000e-06	-1.158690e-06	-5.011840e-10	-8.052733e+00	-3.743273e+01
1.600000e-06	-1.112774e-06	-4.909167e-10	-7.733622e+00	-3.667798e+01
1.610000e-06	-1.066722e-06	-4.787524e-10	-7.413568e+00	-3.590865e+01
1.620000e-06	-1.020583e-06	-4.638533e-10	-7.092912e+00	-3.512423e+01
1.630000e-06	-9.744915e-07	-4.516441e-10	-6.772581e+00	-3.432423e+01
1.640000e-06	-9.283931e-07	-4.407520e-10	-6.452203e+00	-3.350818e+01
1.650000e-06	-8.821944e-07	-4.285126e-10	-6.131129e+00	-3.267559e+01
1.660000e-06	-8.359592e-07	-4.147554e-10	-5.809801e+00	-3.182601e+01
1.670000e-06	-7.896042e-07	-4.010195e-10	-5.487640e+00	-3.095899e+01
1.680000e-06	-7.431296e-07	-3.857884e-10	-5.164648e+00	-3.007411e+01
1.690000e-06	-6.966549e-07	-3.706511e-10	-4.841655e+00	-2.917096e+01
1.700000e-06	-6.501982e-07	-3.562222e-10	-4.518788e+00	-2.824919e+01
1.710000e-06	-6.036792e-07	-3.415954e-10	-4.195487e+00	-2.730845e+01
1.720000e-06	-5.570795e-07	-3.280979e-10	-3.871626e+00	-2.634845e+01
1.730000e-06	-5.104396e-07	-3.134888e-10	-3.547484e+00	-2.536891e+01
1.740000e-06	-4.637442e-07	-2.947304e-10	-3.222958e+00	-2.436964e+01
1.750000e-06	-4.169828e-07	-2.763904e-10	-2.897973e+00	-2.335047e+01
1.760000e-06	-3.701527e-07	-2.621448e-10	-2.572510e+00	-2.231127e+01
1.770000e-06	-3.233264e-07	-2.494177e-10	-2.247073e+00	-2.125199e+01
1.780000e-06	-2.765612e-07	-2.354059e-10	-1.922062e+00	-2.017263e+01
1.790000e-06	-2.297863e-07	-2.206550e-10	-1.596983e+00	-1.907324e+01
1.800000e-06	-1.829930e-07	-2.046950e-10	-1.271776e+00	-1.795396e+01
1.810000e-06	-1.361827e-07	-1.852498e-10	-9.464511e-01	-1.681496e+01
1.820000e-06	-8.938531e-08	-1.647412e-10	-6.212156e-01	-1.565651e+01
1.830000e-06	-4.261682e-08	-1.451281e-10	-2.961810e-01	-1.447894e+01
1.840000e-06	4.166218e-09	-1.278677e-10	2.895464e-02	-1.328263e+01
1.850000e-06	5.095079e-08	-1.137800e-10	3.541009e-01	-1.206805e+01
1.860000e-06	9.775960e-08	-9.940334e-11	6.794157e-01	-1.083574e+01
1.870000e-06	1.445947e-07	-8.195697e-11	1.004913e+00	-9.586312e+00
1.880000e-06	1.914348e-07	-6.417878e-11	1.330445e+00	-8.320442e+00
1.890000e-06	2.382610e-07	-4.616763e-11	1.655881e+00	-7.038876e+00
1.900000e-06	2.851008e-07	-2.865190e-11	1.981411e+00	-5.742431e+00
1.910000e-06	3.318955e-07	-1.071327e-11	2.306628e+00	-4.431984e+00
1.920000e-06	3.786291e-07	9.513662e-12	2.631420e+00	-3.108480e+00
1.930000e-06	4.253093e-07	3.037794e-11	2.955841e+00	-1.772919e+00
1.940000e-06	4.719386e-07	4.992244e-11	3.279908e+00	-4.263593e-01
1.950000e-06	5.185279e-07	6.900017e-11	3.603698e+00	9.300889e-01
1.960000e-06	5.650169e-07	8.692069e-11	3.926790e+00	2.295268e+00
1.970000e-06	6.115378e-07	1.040424e-10	4.250103e+00	3.667977e+00
1.980000e-06	6.581071e-07	1.209712e-10	4.573754e+00	5.046976e+00
1.990000e-06	7.045843e-07	1.387455e-10	4.896764e+00	6.430993e+00
2.000000e-06	7.509483e-07	1.585926e-10	5.218987e+00	7.818729e+00
2.010000e-06	7.972141e-07	1.788645e-10	5.540527e+00	9.208863e+00
2.020000e-06	8.434123e-07	1.988548e-10	5.861599e+00	1.060006e+01
2.030000e-06	8.895461e-07	2.200328e-10	6.182222e+00	1.199097e+01
2.040000e-06	9.356551e-07	2.400594e-10	6.502674e+00	1.338024e+01
2.050000e-06	9.817540e-07	2.562580e-10	6.823055e+00	1.476654e+01
2.060000e-06	1.027798e-06	2.702731e-10	7.143054e+00	1.614852e+01
2.070000e-06	1.073725e-06	2.855157e-10	7.462241e+00	1.752486e+01
2.080000e-06	1.119530e-06	3.042387e-10	7.780577e+00	1.889426e+01
2.090000e-06	1.165272e-06	3.251753e-10	8.098483e+00	2.025546e+01
2.100000e-06	1.210961e-06	3.470340e-10	8.416010e+00	2.160721e+01
2.110000e-06	1.256608e-06	3.677545e-10	8.733250e+00	2.294831e+01
2.120000e-06	1.302189e-06	3.848173e-10	9.050033e+00	2.427761e+01
2.130000e-06	1.347663e-06	4.002458e-10	9.366072e+00	2.559401e+01
2.140000e-06	1.393021e-06	4.158776e-10	9.681303e+00	2.689645e+01
2.150000e-06	1.438238e-06	4.312477e-10	9.995559e+00	2.818395e+01
2.160000e-06	1.483313e-06	4.485349e-10	1.030882e+01	2.945557e+01
2.170000e-06	1.528262e-06	4.661546e-10	1.062121e+01	3.071045e+01
2.180000e-06	1.573105e-06	4.825150e-10	1.093286e+01	3.194779e+01
2.190000e-06	1.617876e-06	4.994090e-10	1.124401e+01	3.316687e+01
2.200000e-06	1.662588e-06	5.165183e-10	1.155476e+01	3.436704e+01
2.210000e-06	1.707191e-06	5.320055e-10	1.186474e+01	3.554772e+01
2.220000e-06	1.751675e-06	5.444162e-10	1.217390e+01	3.670840e+01
2.230000e-06	1.796022e-06	5.579010e-10	1.248210e+01	3.784867e+01
2.240000e-06	1.840168e-06	5.739806e-10	1.278891e+01	3.896817e+01
2.250000e-06	1.884157e-06	5.916660e-10	1.309463e+01	4.006662e+01
2.260000e-06	1.928010e-06	6.094389e-10	1.339941e+01	4.114382e+01
2.270000e-06	1.971798e-06	6.255475e-10	1.370372e+01	4.219965e+01
2.280000e-06	2.015537e-06	6.402011e-10	1.400770e+01	4.323403e+01
2.290000e-06	2.059247e-06	6.539003e-10	1.431148e+01	4.424699e+01
2.300000e-06	2.102919e-06	6.660068e-10	1.461499e+01	4.523857e+01
2.310000e-06	2.146494e-06	6.776475e-10	1.491783e+01	4.620893e+01
2.320000e-06	2.189982e-06	6.911781e-10	1.522007e+01	4.715825e+01
2.330000e-06	2.233331e-06	7.064240e-10	1.552134e+01	4.808676e+01
2.340000e-06	2.276556e-06	7.209695e-10	1.582175e+01	4.899476e+01
2.350000e-06	2.319615e-06	7.333282e-10	1.612100e+01	4.988258e+01
2.360000e-06	2.362344e-06	7.441086e-10	1.641796e+01	5.075060e+01
2.370000e-06	2.404800e-06	7.537072e-10	1.671303e+01	5.159923e+01
2.380000e-06	2.447067e-06	7.636567e-10	1.700678e+01	5.242890e+01
2.390000e-06	2.489020e-06	7.745596e-10	1.729835e+01	5.324008e+01
2.400000e-06	2.530592e-06	7.872272e-10	1.758727e+01	5.403325e+01
2.410000e-06	2.571951e-06	8.010095e-10	1.787470e+01	5.480891e+01
2.420000e-06	2.613056e-06	8.139148e-10	1.816038e+01	5.556757e+01
2.430000e-06	2.653813e-06	8.260018e-10	1.844363e+01	5.630974e+01
2.440000e-06	2.694256e-06	8.364254e-10	1.872471e+01	5.703593e+01
2.450000e-06	2.734463e-06	8.432598e-10	1.900414e+01	5.774666e+01
2.460000e-06	2.774647e-06	8.487285e-10	1.928341e+01	5.844243e+01
2.470000e-06	2.814648e-06	8.560629e-10	1.956142e+01	5.912374e+01
2.480000e-06	2.854440e-06	8.649078e-10	1.983796e+01	5.979106e+01
2.490000e-06	2.894188e-06	8.749531e-10	2.011421e+01	6.044485e+01
2.500000e-06	2.933776e-06	8.870835e-10	2.038934e+01	6.108554e+01
2.510000e-06	2.973146e-06	8.987358e-10	2.066295e+01	6.171357e+01
2.520000e-06	3.012357e-06	9.079738e-10	2.093546e+01	6.232931e+01
2.530000e-06	3.051403e-06	9.161286e-10	2.120683e+01	6.293312e+01
2.540000e-06	3.090230e-06	9.237996e-10	2.147667e+01	6.352536e+01
2.550000e-06	3.128873e-06	9.299824e-10	2.174524e+01	6.410632e+01
2.560000e-06	3.167313e-06	9.358537e-10	2.201239e+01	6.467627e+01
2.570000e-06	3.205526e-06	9.443646e-10	2.227796e+01	6.523547e+01
2.580000e-06	3.243498e-06	9.544864e-10	2.254186e+01	6.578413e+01
2.590000e-06	3.281208e-06	9.636250e-10	2.280394e+01	6.632245e+01
2.600000e-06	3.318660e-06	9.715203e-10	2.306423e+01	6.685059e+01
2.610000e-06	3.355893e-06	9.771600e-10	2.332299e+01	6.736867e+01
2.620000e-06	3.392968e-06	9.823109e-10	2.358066e+01	6.787681e+01
2.630000e-06	3.429866e-06	9.875516e-10	2.383710e+01	6.837511e+01
2.640000e-06	3.466530e-06	9.927557e-10	2.409190e+01	6.886361e+01
2.650000e-06	3.502929e-06	1.001836e-09	2.434487e+01	6.934238e+01
2.660000e-06	3.539060e-06	1.012821e-09	2.459598e+01	6.981144e+01
2.670000e-06	3.574939e-06	1.019819e-09	2.484533e+01	7.027082e+01
2.680000e-06	3.610632e-06	1.022430e-09	2.509339e+01	7.072051e+01
2.690000e-06	3.646155e-06	1.024381e-09	2.534027e+01	7.116051e+01
2.700000e-06	3.681549e-06	1.027698e-09	2.558626e+01	7.159083e+01
2.710000e-06	3.716754e-06	1.033476e-09	2.583092e+01	7.201145e+01
2.720000e-06	3.751701e-06	1.041313e-09	2.607380e+01	7.242236e+01
2.730000e-06	3.786346e-06	1.049412e-09	2.631458e+01	7.282355e+01
2.740000e-06	3.820548e-06	1.055392e-09	2.655228e+01	7.321501e+01
2.750000e-06	3.854353e-06	1.059141e-09	2.678722e+01	7.359676e+01
2.760000e-06	3.887751e-06	1.061859e-09	2.701933e+01	7.396881e+01
2.770000e-06	3.920705e-06	1.064222e-09	2.724836e+01	7.433118e+01
2.780000e-06	3.953263e-06	1.068120e-09	2.747463e+01	7.468392e+01
2.790000e-06	3.985446e-06	1.074264e-09	2.769830e+01	7.502706e+01
2.800000e-06	4.017383e-06	1.081560e-09	2.792025e+01	7.536069e+01
2.810000e-06	4.049148e-06	1.088093e-09	2.814102e+01	7.568489e+01
2.820000e-06	4.080737e-06	1.093093e-09	2.836056e+01	7.599976e+01
2.830000e-06	4.112133e-06	1.097146e-09	2.857876e+01	7.630542e+01
2.840000e-06	4.143244e-06	1.100159e-09	2.879498e+01	7.660202e+01
2.850000e-06	4.174037e-06	1.102732e-09	2.900898e+01	7.688971e+01
2.860000e-06	4.204601e-06	1.106094e-09	2.922140e+01	7.716867e+01
2.870000e-06	4.234888e-06	1.111344e-09	2.943188e+01	7.743909e+01
2.880000e-06	4.264808e-06	1.115972e-09	2.963982e+01	7.770117e+01
2.890000e-06	4.294423e-06	1.117439e-09	2.984565e+01	7.795515e+01
2.900000e-06	4.323757e-06	1.119541e-09	3.004951e+01	7.820126e+01
