# Temperatura_=_-30.42
# Concentracion g/m^3_=_1620.0
# C_Vs_to_Am_M_A/Vsm_=_65563218390.804596
# pendiente_HvsI_1/m_=_3716.3
# ordenada_HvsI_A/m_=_1297.0
# frecuencia_Hz_=_135103.16786246086

Tiempo_(s)	Campo_(V.s)	Magnetizacion_(V.s)	Campo_(kA/m)	Magnetizacion_(A/m)
0.000000e+00	-5.517311e-06	-7.317169e-10	-3.837883e+01	-4.807819e+01
1.000000e-08	-5.517589e-06	-7.259029e-10	-3.838076e+01	-4.808547e+01
2.000000e-08	-5.517593e-06	-7.214141e-10	-3.838079e+01	-4.809039e+01
3.000000e-08	-5.517197e-06	-7.207174e-10	-3.837803e+01	-4.809277e+01
4.000000e-08	-5.516213e-06	-7.247206e-10	-3.837119e+01	-4.809246e+01
5.000000e-08	-5.514535e-06	-7.281510e-10	-3.835952e+01	-4.808930e+01
6.000000e-08	-5.512214e-06	-7.298511e-10	-3.834337e+01	-4.808317e+01
7.000000e-08	-5.509385e-06	-7.251043e-10	-3.832370e+01	-4.807394e+01
8.000000e-08	-5.506134e-06	-7.067665e-10	-3.830108e+01	-4.806150e+01
9.000000e-08	-5.502431e-06	-7.223055e-10	-3.827532e+01	-4.804578e+01
1.000000e-07	-5.498314e-06	-7.875710e-10	-3.824668e+01	-4.802671e+01
1.100000e-07	-5.493828e-06	-7.846546e-10	-3.821548e+01	-4.800422e+01
1.200000e-07	-5.489086e-06	-6.694142e-10	-3.818249e+01	-4.797831e+01
1.300000e-07	-5.484249e-06	-6.832221e-10	-3.814885e+01	-4.794896e+01
1.400000e-07	-5.479143e-06	-7.635649e-10	-3.811333e+01	-4.791620e+01
1.500000e-07	-5.473542e-06	-7.923440e-10	-3.807437e+01	-4.788005e+01
1.600000e-07	-5.467509e-06	-6.670259e-10	-3.803240e+01	-4.784059e+01
1.700000e-07	-5.461224e-06	-6.578299e-10	-3.798869e+01	-4.779790e+01
1.800000e-07	-5.454509e-06	-7.912295e-10	-3.794198e+01	-4.775208e+01
1.900000e-07	-5.447239e-06	-8.226513e-10	-3.789140e+01	-4.770328e+01
2.000000e-07	-5.439647e-06	-7.196299e-10	-3.783859e+01	-4.765163e+01
2.100000e-07	-5.431897e-06	-6.627209e-10	-3.778468e+01	-4.759731e+01
2.200000e-07	-5.423929e-06	-7.576245e-10	-3.772926e+01	-4.754051e+01
2.300000e-07	-5.415579e-06	-7.848433e-10	-3.767117e+01	-4.748143e+01
2.400000e-07	-5.406799e-06	-7.332194e-10	-3.761010e+01	-4.742030e+01
2.500000e-07	-5.397378e-06	-6.827534e-10	-3.754456e+01	-4.735736e+01
2.600000e-07	-5.387166e-06	-7.425169e-10	-3.747353e+01	-4.729284e+01
2.700000e-07	-5.376367e-06	-7.373030e-10	-3.739841e+01	-4.722702e+01
2.800000e-07	-5.365157e-06	-6.887580e-10	-3.732044e+01	-4.716016e+01
2.900000e-07	-5.353531e-06	-6.673085e-10	-3.723956e+01	-4.709252e+01
3.000000e-07	-5.341535e-06	-7.269111e-10	-3.715612e+01	-4.702439e+01
3.100000e-07	-5.329173e-06	-7.157070e-10	-3.707013e+01	-4.695603e+01
3.200000e-07	-5.316347e-06	-6.737841e-10	-3.698091e+01	-4.688773e+01
3.300000e-07	-5.303071e-06	-6.704724e-10	-3.688856e+01	-4.681974e+01
3.400000e-07	-5.289475e-06	-7.178755e-10	-3.679398e+01	-4.675234e+01
3.500000e-07	-5.275508e-06	-7.060077e-10	-3.669683e+01	-4.668577e+01
3.600000e-07	-5.260993e-06	-6.599322e-10	-3.659586e+01	-4.662027e+01
3.700000e-07	-5.245994e-06	-6.710115e-10	-3.649153e+01	-4.655607e+01
3.800000e-07	-5.230660e-06	-7.254425e-10	-3.638486e+01	-4.649338e+01
3.900000e-07	-5.214768e-06	-7.027085e-10	-3.627432e+01	-4.643240e+01
4.000000e-07	-5.198308e-06	-6.563402e-10	-3.615982e+01	-4.637330e+01
4.100000e-07	-5.181542e-06	-7.048333e-10	-3.604319e+01	-4.631623e+01
4.200000e-07	-5.164501e-06	-7.232826e-10	-3.592466e+01	-4.626131e+01
4.300000e-07	-5.147121e-06	-6.509748e-10	-3.580376e+01	-4.620866e+01
4.400000e-07	-5.129395e-06	-6.485350e-10	-3.568046e+01	-4.615835e+01
4.500000e-07	-5.111361e-06	-7.357250e-10	-3.555501e+01	-4.611044e+01
4.600000e-07	-5.092840e-06	-6.842028e-10	-3.542618e+01	-4.606496e+01
4.700000e-07	-5.073834e-06	-6.215327e-10	-3.529397e+01	-4.602191e+01
4.800000e-07	-5.054587e-06	-6.892465e-10	-3.516009e+01	-4.598126e+01
4.900000e-07	-5.035157e-06	-7.220179e-10	-3.502493e+01	-4.594297e+01
5.000000e-07	-5.015507e-06	-6.356134e-10	-3.488824e+01	-4.590696e+01
5.100000e-07	-4.995689e-06	-6.657675e-10	-3.475038e+01	-4.587312e+01
5.200000e-07	-4.975617e-06	-7.096135e-10	-3.461076e+01	-4.584134e+01
5.300000e-07	-4.955024e-06	-6.401945e-10	-3.446752e+01	-4.581147e+01
5.400000e-07	-4.933997e-06	-6.320288e-10	-3.432125e+01	-4.578333e+01
5.500000e-07	-4.912758e-06	-7.239803e-10	-3.417351e+01	-4.575675e+01
5.600000e-07	-4.891176e-06	-6.704530e-10	-3.402339e+01	-4.573151e+01
5.700000e-07	-4.869182e-06	-6.096405e-10	-3.387039e+01	-4.570741e+01
5.800000e-07	-4.846810e-06	-6.831494e-10	-3.371477e+01	-4.568419e+01
5.900000e-07	-4.824052e-06	-7.028476e-10	-3.355647e+01	-4.566163e+01
6.000000e-07	-4.800881e-06	-6.300466e-10	-3.339529e+01	-4.563946e+01
6.100000e-07	-4.777479e-06	-6.697073e-10	-3.323250e+01	-4.561743e+01
6.200000e-07	-4.753993e-06	-7.074045e-10	-3.306913e+01	-4.559526e+01
6.300000e-07	-4.730283e-06	-6.472472e-10	-3.290420e+01	-4.557270e+01
6.400000e-07	-4.706274e-06	-6.458640e-10	-3.273719e+01	-4.554949e+01
6.500000e-07	-4.681915e-06	-6.914004e-10	-3.256775e+01	-4.552534e+01
6.600000e-07	-4.656980e-06	-6.545673e-10	-3.239430e+01	-4.550002e+01
6.700000e-07	-4.631500e-06	-6.392665e-10	-3.221706e+01	-4.547328e+01
6.800000e-07	-4.605581e-06	-6.843477e-10	-3.203677e+01	-4.544486e+01
6.900000e-07	-4.579079e-06	-6.725430e-10	-3.185242e+01	-4.541456e+01
7.000000e-07	-4.552044e-06	-6.498246e-10	-3.166436e+01	-4.538214e+01
7.100000e-07	-4.524728e-06	-6.745664e-10	-3.147434e+01	-4.534742e+01
7.200000e-07	-4.497253e-06	-6.690437e-10	-3.128323e+01	-4.531022e+01
7.300000e-07	-4.469605e-06	-6.376595e-10	-3.109091e+01	-4.527036e+01
7.400000e-07	-4.441782e-06	-6.599493e-10	-3.089737e+01	-4.522771e+01
7.500000e-07	-4.413786e-06	-6.710951e-10	-3.070263e+01	-4.518213e+01
7.600000e-07	-4.385465e-06	-6.547296e-10	-3.050563e+01	-4.513353e+01
7.700000e-07	-4.356738e-06	-6.582173e-10	-3.030580e+01	-4.508182e+01
7.800000e-07	-4.327686e-06	-6.677802e-10	-3.010371e+01	-4.502693e+01
7.900000e-07	-4.298320e-06	-6.448788e-10	-2.989943e+01	-4.496883e+01
8.000000e-07	-4.268682e-06	-6.454962e-10	-2.969327e+01	-4.490748e+01
8.100000e-07	-4.238807e-06	-6.533503e-10	-2.948546e+01	-4.484288e+01
8.200000e-07	-4.208602e-06	-6.386078e-10	-2.927535e+01	-4.477505e+01
8.300000e-07	-4.178053e-06	-6.306703e-10	-2.906285e+01	-4.470401e+01
8.400000e-07	-4.147189e-06	-6.529743e-10	-2.884816e+01	-4.462983e+01
8.500000e-07	-4.116091e-06	-6.498490e-10	-2.863183e+01	-4.455254e+01
8.600000e-07	-4.084766e-06	-6.394872e-10	-2.841394e+01	-4.447224e+01
8.700000e-07	-4.053216e-06	-6.482994e-10	-2.819448e+01	-4.438901e+01
8.800000e-07	-4.021556e-06	-6.512598e-10	-2.797424e+01	-4.430294e+01
8.900000e-07	-3.989697e-06	-6.361412e-10	-2.775263e+01	-4.421413e+01
9.000000e-07	-3.957594e-06	-6.416951e-10	-2.752932e+01	-4.412270e+01
9.100000e-07	-3.925295e-06	-6.473336e-10	-2.730465e+01	-4.402876e+01
9.200000e-07	-3.892590e-06	-6.347318e-10	-2.707715e+01	-4.393242e+01
9.300000e-07	-3.859371e-06	-6.332028e-10	-2.684607e+01	-4.383378e+01
9.400000e-07	-3.825744e-06	-6.466332e-10	-2.661216e+01	-4.373297e+01
9.500000e-07	-3.791697e-06	-6.420939e-10	-2.637533e+01	-4.363009e+01
9.600000e-07	-3.757159e-06	-6.339983e-10	-2.613508e+01	-4.352523e+01
9.700000e-07	-3.722261e-06	-6.404892e-10	-2.589233e+01	-4.341849e+01
9.800000e-07	-3.687147e-06	-6.374875e-10	-2.564807e+01	-4.330993e+01
9.900000e-07	-3.651810e-06	-6.282745e-10	-2.540227e+01	-4.319964e+01
1.000000e-06	-3.616232e-06	-6.332051e-10	-2.515478e+01	-4.308767e+01
1.010000e-06	-3.580470e-06	-6.410176e-10	-2.490602e+01	-4.297405e+01
1.020000e-06	-3.544627e-06	-6.348848e-10	-2.465669e+01	-4.285881e+01
1.030000e-06	-3.508680e-06	-6.351230e-10	-2.440664e+01	-4.274195e+01
1.040000e-06	-3.472451e-06	-6.395108e-10	-2.415463e+01	-4.262348e+01
1.050000e-06	-3.435901e-06	-6.345316e-10	-2.390039e+01	-4.250335e+01
1.060000e-06	-3.399062e-06	-6.256316e-10	-2.364413e+01	-4.238154e+01
1.070000e-06	-3.361994e-06	-6.268296e-10	-2.338628e+01	-4.225797e+01
1.080000e-06	-3.324735e-06	-6.229254e-10	-2.312711e+01	-4.213257e+01
1.090000e-06	-3.287238e-06	-6.196010e-10	-2.286627e+01	-4.200525e+01
1.100000e-06	-3.249543e-06	-6.214675e-10	-2.260407e+01	-4.187588e+01
1.110000e-06	-3.211623e-06	-6.228518e-10	-2.234029e+01	-4.174434e+01
1.120000e-06	-3.173499e-06	-6.154613e-10	-2.207510e+01	-4.161050e+01
1.130000e-06	-3.135187e-06	-6.125989e-10	-2.180860e+01	-4.147418e+01
1.140000e-06	-3.096604e-06	-6.087629e-10	-2.154021e+01	-4.133523e+01
1.150000e-06	-3.057744e-06	-6.013148e-10	-2.126989e+01	-4.119347e+01
1.160000e-06	-3.018686e-06	-5.967117e-10	-2.099821e+01	-4.104870e+01
1.170000e-06	-2.979443e-06	-5.985563e-10	-2.072523e+01	-4.090074e+01
1.180000e-06	-2.940036e-06	-5.977478e-10	-2.045111e+01	-4.074937e+01
1.190000e-06	-2.900506e-06	-5.972363e-10	-2.017614e+01	-4.059439e+01
1.200000e-06	-2.860833e-06	-5.967215e-10	-1.990017e+01	-4.043559e+01
1.210000e-06	-2.821011e-06	-5.907558e-10	-1.962317e+01	-4.027277e+01
1.220000e-06	-2.781109e-06	-5.824274e-10	-1.934560e+01	-4.010570e+01
1.230000e-06	-2.741051e-06	-5.794714e-10	-1.906695e+01	-3.993419e+01
1.240000e-06	-2.700785e-06	-5.762379e-10	-1.878686e+01	-3.975803e+01
1.250000e-06	-2.660330e-06	-5.713515e-10	-1.850546e+01	-3.957702e+01
1.260000e-06	-2.619578e-06	-5.686674e-10	-1.822198e+01	-3.939097e+01
1.270000e-06	-2.578549e-06	-5.655986e-10	-1.793658e+01	-3.919970e+01
1.280000e-06	-2.537212e-06	-5.618599e-10	-1.764904e+01	-3.900303e+01
1.290000e-06	-2.495493e-06	-5.572280e-10	-1.735884e+01	-3.880079e+01
1.300000e-06	-2.453393e-06	-5.526345e-10	-1.706598e+01	-3.859283e+01
1.310000e-06	-2.410908e-06	-5.463405e-10	-1.677045e+01	-3.837902e+01
1.320000e-06	-2.368231e-06	-5.417624e-10	-1.647359e+01	-3.815921e+01
1.330000e-06	-2.325502e-06	-5.375976e-10	-1.617637e+01	-3.793328e+01
1.340000e-06	-2.282647e-06	-5.329178e-10	-1.587827e+01	-3.770114e+01
1.350000e-06	-2.239501e-06	-5.274110e-10	-1.557814e+01	-3.746267e+01
1.360000e-06	-2.196043e-06	-5.241797e-10	-1.527584e+01	-3.721779e+01
1.370000e-06	-2.152508e-06	-5.220575e-10	-1.497300e+01	-3.696643e+01
1.380000e-06	-2.108943e-06	-5.203409e-10	-1.466997e+01	-3.670853e+01
1.390000e-06	-2.065259e-06	-5.165662e-10	-1.436610e+01	-3.644401e+01
1.400000e-06	-2.021474e-06	-5.128021e-10	-1.406153e+01	-3.617283e+01
1.410000e-06	-1.977662e-06	-5.094572e-10	-1.375677e+01	-3.589494e+01
1.420000e-06	-1.933826e-06	-5.079785e-10	-1.345184e+01	-3.561031e+01
1.430000e-06	-1.889857e-06	-5.059390e-10	-1.314599e+01	-3.531890e+01
1.440000e-06	-1.845710e-06	-5.021208e-10	-1.283890e+01	-3.502066e+01
1.450000e-06	-1.801420e-06	-4.976360e-10	-1.253081e+01	-3.471557e+01
1.460000e-06	-1.757118e-06	-4.938075e-10	-1.222265e+01	-3.440358e+01
1.470000e-06	-1.712705e-06	-4.883695e-10	-1.191370e+01	-3.408466e+01
1.480000e-06	-1.668055e-06	-4.840622e-10	-1.160312e+01	-3.375875e+01
1.490000e-06	-1.623305e-06	-4.805276e-10	-1.129183e+01	-3.342581e+01
1.500000e-06	-1.578459e-06	-4.774491e-10	-1.097988e+01	-3.308577e+01
1.510000e-06	-1.533509e-06	-4.751403e-10	-1.066720e+01	-3.273856e+01
1.520000e-06	-1.488451e-06	-4.722384e-10	-1.035378e+01	-3.238411e+01
1.530000e-06	-1.443240e-06	-4.683373e-10	-1.003928e+01	-3.202231e+01
1.540000e-06	-1.397933e-06	-4.633964e-10	-9.724126e+00	-3.165306e+01
1.550000e-06	-1.352515e-06	-4.550108e-10	-9.408199e+00	-3.127624e+01
1.560000e-06	-1.306995e-06	-4.448502e-10	-9.091557e+00	-3.089170e+01
1.570000e-06	-1.261363e-06	-4.354495e-10	-8.774136e+00	-3.049931e+01
1.580000e-06	-1.215680e-06	-4.290597e-10	-8.456363e+00	-3.009889e+01
1.590000e-06	-1.169985e-06	-4.256580e-10	-8.138505e+00	-2.969027e+01
1.600000e-06	-1.124147e-06	-4.221745e-10	-7.819647e+00	-2.927324e+01
1.610000e-06	-1.078209e-06	-4.174135e-10	-7.500102e+00	-2.884759e+01
1.620000e-06	-1.032172e-06	-4.097186e-10	-7.179863e+00	-2.841310e+01
1.630000e-06	-9.860527e-07	-4.016965e-10	-6.859056e+00	-2.796953e+01
1.640000e-06	-9.399563e-07	-3.926470e-10	-6.538407e+00	-2.751663e+01
1.650000e-06	-8.937675e-07	-3.826992e-10	-6.217114e+00	-2.705415e+01
1.660000e-06	-8.475111e-07	-3.714485e-10	-5.895351e+00	-2.658182e+01
1.670000e-06	-8.012679e-07	-3.595175e-10	-5.573679e+00	-2.609936e+01
1.680000e-06	-7.550200e-07	-3.503715e-10	-5.251975e+00	-2.560651e+01
1.690000e-06	-7.087071e-07	-3.462600e-10	-4.929820e+00	-2.510297e+01
1.700000e-06	-6.622627e-07	-3.444809e-10	-4.606749e+00	-2.458849e+01
1.710000e-06	-6.157402e-07	-3.404390e-10	-4.283135e+00	-2.406278e+01
1.720000e-06	-5.692059e-07	-3.328191e-10	-3.959439e+00	-2.352559e+01
1.730000e-06	-5.227158e-07	-3.208332e-10	-3.636050e+00	-2.297666e+01
1.740000e-06	-4.761932e-07	-3.058954e-10	-3.312435e+00	-2.241574e+01
1.750000e-06	-4.295665e-07	-2.918956e-10	-2.988097e+00	-2.184262e+01
1.760000e-06	-3.828164e-07	-2.813692e-10	-2.662900e+00	-2.125709e+01
1.770000e-06	-3.360057e-07	-2.752058e-10	-2.337281e+00	-2.065896e+01
1.780000e-06	-2.892440e-07	-2.721943e-10	-2.012003e+00	-2.004808e+01
1.790000e-06	-2.424993e-07	-2.687943e-10	-1.686843e+00	-1.942431e+01
1.800000e-06	-1.957206e-07	-2.615105e-10	-1.361447e+00	-1.878756e+01
1.810000e-06	-1.489174e-07	-2.496815e-10	-1.035881e+00	-1.813776e+01
1.820000e-06	-1.022147e-07	-2.342057e-10	-7.110129e-01	-1.747489e+01
1.830000e-06	-5.553722e-08	-2.182715e-10	-3.863210e-01	-1.679895e+01
1.840000e-06	-8.731395e-09	-2.042662e-10	-6.073624e-02	-1.610998e+01
1.850000e-06	3.811029e-08	-1.942643e-10	2.650980e-01	-1.540810e+01
1.860000e-06	8.491016e-08	-1.857467e-10	5.906415e-01	-1.469342e+01
1.870000e-06	1.317031e-07	-1.757153e-10	9.161365e-01	-1.396613e+01
1.880000e-06	1.784862e-07	-1.664680e-10	1.241563e+00	-1.322645e+01
1.890000e-06	2.252786e-07	-1.593352e-10	1.567055e+00	-1.247466e+01
1.900000e-06	2.721196e-07	-1.503387e-10	1.892885e+00	-1.171108e+01
1.910000e-06	3.188812e-07	-1.376936e-10	2.218161e+00	-1.093607e+01
1.920000e-06	3.655264e-07	-1.218451e-10	2.542629e+00	-1.015004e+01
1.930000e-06	4.121083e-07	-1.050664e-10	2.866656e+00	-9.353450e+00
1.940000e-06	4.586661e-07	-9.157308e-11	3.190516e+00	-8.546802e+00
1.950000e-06	5.052115e-07	-8.325617e-11	3.514289e+00	-7.730639e+00
1.960000e-06	5.517116e-07	-7.728197e-11	3.837747e+00	-6.905544e+00
1.970000e-06	5.981794e-07	-6.953325e-11	4.160981e+00	-6.072140e+00
1.980000e-06	6.446360e-07	-5.748105e-11	4.484136e+00	-5.231086e+00
1.990000e-06	6.911028e-07	-4.374192e-11	4.807363e+00	-4.383074e+00
2.000000e-06	7.374800e-07	-3.046386e-11	5.129966e+00	-3.528829e+00
2.010000e-06	7.837787e-07	-1.792497e-11	5.452023e+00	-2.669100e+00
2.020000e-06	8.300296e-07	-7.070877e-12	5.773748e+00	-1.804661e+00
2.030000e-06	8.762089e-07	4.799323e-12	6.094975e+00	-9.363064e-01
2.040000e-06	9.223832e-07	1.853486e-11	6.416167e+00	-6.484814e-02
2.050000e-06	9.685272e-07	3.008784e-11	6.737148e+00	8.088905e-01
2.060000e-06	1.014605e-06	4.227438e-11	7.057670e+00	1.684077e+00
2.070000e-06	1.060565e-06	5.465196e-11	7.377373e+00	2.559875e+00
2.080000e-06	1.106397e-06	6.452668e-11	7.696177e+00	3.435446e+00
2.090000e-06	1.152133e-06	7.437987e-11	8.014320e+00	4.309955e+00
2.100000e-06	1.197759e-06	8.570810e-11	8.331701e+00	5.182577e+00
2.110000e-06	1.243257e-06	9.801657e-11	8.648188e+00	6.052496e+00
2.120000e-06	1.288761e-06	1.099931e-10	8.964719e+00	6.918910e+00
2.130000e-06	1.334249e-06	1.234373e-10	9.281133e+00	7.781038e+00
2.140000e-06	1.379650e-06	1.361029e-10	9.596946e+00	8.638120e+00
2.150000e-06	1.424970e-06	1.459095e-10	9.912200e+00	9.489422e+00
2.160000e-06	1.470120e-06	1.553886e-10	1.022627e+01	1.033424e+01
2.170000e-06	1.515113e-06	1.682013e-10	1.053924e+01	1.117190e+01
2.180000e-06	1.560044e-06	1.819165e-10	1.085178e+01	1.200175e+01
2.190000e-06	1.604885e-06	1.956247e-10	1.116370e+01	1.282320e+01
2.200000e-06	1.649528e-06	2.067663e-10	1.147424e+01	1.363568e+01
2.210000e-06	1.694049e-06	2.123111e-10	1.178393e+01	1.443866e+01
2.220000e-06	1.738449e-06	2.175115e-10	1.209278e+01	1.523166e+01
2.230000e-06	1.782704e-06	2.263676e-10	1.240062e+01	1.601423e+01
2.240000e-06	1.826864e-06	2.388704e-10	1.270780e+01	1.678597e+01
2.250000e-06	1.870929e-06	2.564925e-10	1.301432e+01	1.754652e+01
2.260000e-06	1.914851e-06	2.722253e-10	1.331984e+01	1.829557e+01
2.270000e-06	1.958659e-06	2.833400e-10	1.362458e+01	1.903285e+01
2.280000e-06	2.002426e-06	2.886514e-10	1.392902e+01	1.975813e+01
2.290000e-06	2.046107e-06	2.925980e-10	1.423287e+01	2.047122e+01
2.300000e-06	2.089718e-06	2.983458e-10	1.453623e+01	2.117196e+01
2.310000e-06	2.133266e-06	3.080516e-10	1.483916e+01	2.186026e+01
2.320000e-06	2.176700e-06	3.221747e-10	1.514129e+01	2.253604e+01
2.330000e-06	2.220062e-06	3.361787e-10	1.544292e+01	2.319927e+01
2.340000e-06	2.263330e-06	3.479659e-10	1.574389e+01	2.384993e+01
2.350000e-06	2.306386e-06	3.553442e-10	1.604339e+01	2.448806e+01
2.360000e-06	2.349294e-06	3.614698e-10	1.634187e+01	2.511371e+01
2.370000e-06	2.392028e-06	3.670407e-10	1.663913e+01	2.572698e+01
2.380000e-06	2.434388e-06	3.752871e-10	1.693379e+01	2.632795e+01
2.390000e-06	2.476285e-06	3.854995e-10	1.722522e+01	2.691677e+01
2.400000e-06	2.517852e-06	3.942245e-10	1.751437e+01	2.749357e+01
2.410000e-06	2.559141e-06	4.031150e-10	1.780158e+01	2.805852e+01
2.420000e-06	2.600177e-06	4.110487e-10	1.808702e+01	2.861179e+01
2.430000e-06	2.640949e-06	4.175655e-10	1.837064e+01	2.915358e+01
2.440000e-06	2.681377e-06	4.260889e-10	1.865186e+01	2.968407e+01
2.450000e-06	2.721570e-06	4.341333e-10	1.893144e+01	3.020346e+01
2.460000e-06	2.761588e-06	4.435891e-10	1.920981e+01	3.071195e+01
2.470000e-06	2.801469e-06	4.524756e-10	1.948723e+01	3.120976e+01
2.480000e-06	2.841224e-06	4.602209e-10	1.976377e+01	3.169709e+01
2.490000e-06	2.880855e-06	4.660687e-10	2.003944e+01	3.217412e+01
2.500000e-06	2.920384e-06	4.725359e-10	2.031441e+01	3.264108e+01
2.510000e-06	2.959699e-06	4.815433e-10	2.058789e+01	3.309813e+01
2.520000e-06	2.998807e-06	4.901234e-10	2.085992e+01	3.354548e+01
2.530000e-06	3.037826e-06	4.986759e-10	2.113134e+01	3.398329e+01
2.540000e-06	3.076674e-06	5.075227e-10	2.140158e+01	3.441174e+01
2.550000e-06	3.115287e-06	5.140982e-10	2.167017e+01	3.483098e+01
2.560000e-06	3.153646e-06	5.184031e-10	2.193699e+01	3.524116e+01
2.570000e-06	3.191819e-06	5.241289e-10	2.220253e+01	3.564243e+01
2.580000e-06	3.229792e-06	5.338701e-10	2.246668e+01	3.603490e+01
2.590000e-06	3.267526e-06	5.439925e-10	2.272915e+01	3.641870e+01
2.600000e-06	3.305089e-06	5.504783e-10	2.299045e+01	3.679393e+01
2.610000e-06	3.342380e-06	5.540412e-10	2.324984e+01	3.716070e+01
2.620000e-06	3.379374e-06	5.550046e-10	2.350718e+01	3.751909e+01
2.630000e-06	3.416152e-06	5.556844e-10	2.376301e+01	3.786919e+01
2.640000e-06	3.452692e-06	5.582097e-10	2.401719e+01	3.821107e+01
2.650000e-06	3.488986e-06	5.638506e-10	2.426965e+01	3.854479e+01
2.660000e-06	3.525079e-06	5.712615e-10	2.452071e+01	3.887044e+01
2.670000e-06	3.560987e-06	5.778647e-10	2.477049e+01	3.918805e+01
2.680000e-06	3.596747e-06	5.830301e-10	2.501924e+01	3.949769e+01
2.690000e-06	3.632398e-06	5.856709e-10	2.526723e+01	3.979941e+01
2.700000e-06	3.667913e-06	5.856261e-10	2.551428e+01	4.009326e+01
2.710000e-06	3.703240e-06	5.868071e-10	2.576001e+01	4.037929e+01
2.720000e-06	3.738368e-06	5.882175e-10	2.600437e+01	4.065757e+01
2.730000e-06	3.773202e-06	5.901839e-10	2.624668e+01	4.092814e+01
2.740000e-06	3.807631e-06	5.939960e-10	2.648617e+01	4.119106e+01
2.750000e-06	3.841604e-06	5.981965e-10	2.672249e+01	4.144639e+01
2.760000e-06	3.875089e-06	6.026082e-10	2.695541e+01	4.169421e+01
2.770000e-06	3.908023e-06	6.078602e-10	2.718450e+01	4.193459e+01
2.780000e-06	3.940438e-06	6.109017e-10	2.740998e+01	4.216760e+01
2.790000e-06	3.972505e-06	6.105367e-10	2.763304e+01	4.239333e+01
2.800000e-06	4.004355e-06	6.090927e-10	2.785459e+01	4.261187e+01
2.810000e-06	4.036077e-06	6.081757e-10	2.807526e+01	4.282333e+01
2.820000e-06	4.067645e-06	6.085813e-10	2.829484e+01	4.302781e+01
2.830000e-06	4.099078e-06	6.123287e-10	2.851349e+01	4.322542e+01
2.840000e-06	4.130332e-06	6.180453e-10	2.873090e+01	4.341629e+01
2.850000e-06	4.161294e-06	6.227892e-10	2.894628e+01	4.360054e+01
2.860000e-06	4.191920e-06	6.255574e-10	2.915931e+01	4.377831e+01
2.870000e-06	4.222158e-06	6.263709e-10	2.936965e+01	4.394974e+01
2.880000e-06	4.252073e-06	6.247632e-10	2.957774e+01	4.411498e+01
2.890000e-06	4.281755e-06	6.210490e-10	2.978421e+01	4.427417e+01
2.900000e-06	4.311157e-06	6.201950e-10	2.998873e+01	4.442749e+01
