# Temperatura_=_-0.3
# Concentracion g/m^3_=_1620.0
# C_Vs_to_Am_M_A/Vsm_=_65563218390.804596
# pendiente_HvsI_1/m_=_3716.3
# ordenada_HvsI_A/m_=_1297.0
# frecuencia_Hz_=_135104.47471702943

Tiempo_(s)	Campo_(V.s)	Magnetizacion_(V.s)	Campo_(kA/m)	Magnetizacion_(A/m)
0.000000e+00	-5.516061e-06	-1.499441e-09	-3.836949e+01	-9.784163e+01
1.000000e-08	-5.516381e-06	-1.497914e-09	-3.837171e+01	-9.778310e+01
2.000000e-08	-5.516508e-06	-1.496996e-09	-3.837259e+01	-9.772122e+01
3.000000e-08	-5.516329e-06	-1.498157e-09	-3.837135e+01	-9.765603e+01
4.000000e-08	-5.515648e-06	-1.498046e-09	-3.836661e+01	-9.758756e+01
5.000000e-08	-5.514370e-06	-1.495173e-09	-3.835772e+01	-9.751586e+01
6.000000e-08	-5.512459e-06	-1.490544e-09	-3.834443e+01	-9.744096e+01
7.000000e-08	-5.509924e-06	-1.487140e-09	-3.832680e+01	-9.736289e+01
8.000000e-08	-5.506888e-06	-1.504170e-09	-3.830568e+01	-9.728170e+01
9.000000e-08	-5.503412e-06	-1.502246e-09	-3.828150e+01	-9.719740e+01
1.000000e-07	-5.499525e-06	-1.469688e-09	-3.825446e+01	-9.711004e+01
1.100000e-07	-5.495364e-06	-1.477513e-09	-3.822552e+01	-9.701964e+01
1.200000e-07	-5.490922e-06	-1.509330e-09	-3.819462e+01	-9.692621e+01
1.300000e-07	-5.486209e-06	-1.505182e-09	-3.816184e+01	-9.682980e+01
1.400000e-07	-5.481236e-06	-1.488056e-09	-3.812725e+01	-9.673041e+01
1.500000e-07	-5.475905e-06	-1.467189e-09	-3.809016e+01	-9.662806e+01
1.600000e-07	-5.470203e-06	-1.530681e-09	-3.805050e+01	-9.652277e+01
1.700000e-07	-5.464065e-06	-1.498095e-09	-3.800781e+01	-9.641455e+01
1.800000e-07	-5.457459e-06	-1.472598e-09	-3.796186e+01	-9.630341e+01
1.900000e-07	-5.450384e-06	-1.432110e-09	-3.791264e+01	-9.618934e+01
2.000000e-07	-5.443051e-06	-1.484586e-09	-3.786164e+01	-9.607235e+01
2.100000e-07	-5.435558e-06	-1.494243e-09	-3.780951e+01	-9.595243e+01
2.200000e-07	-5.427713e-06	-1.508365e-09	-3.775494e+01	-9.582957e+01
2.300000e-07	-5.419536e-06	-1.491374e-09	-3.769806e+01	-9.570375e+01
2.400000e-07	-5.410993e-06	-1.490219e-09	-3.763864e+01	-9.557495e+01
2.500000e-07	-5.401854e-06	-1.475110e-09	-3.757507e+01	-9.544315e+01
2.600000e-07	-5.392004e-06	-1.455912e-09	-3.750655e+01	-9.530831e+01
2.700000e-07	-5.381362e-06	-1.463153e-09	-3.743252e+01	-9.517039e+01
2.800000e-07	-5.370197e-06	-1.459175e-09	-3.735486e+01	-9.502934e+01
2.900000e-07	-5.358748e-06	-1.463611e-09	-3.727523e+01	-9.488511e+01
3.000000e-07	-5.346945e-06	-1.431582e-09	-3.719312e+01	-9.473765e+01
3.100000e-07	-5.334769e-06	-1.439902e-09	-3.710843e+01	-9.458689e+01
3.200000e-07	-5.322163e-06	-1.422761e-09	-3.702074e+01	-9.443275e+01
3.300000e-07	-5.309116e-06	-1.450869e-09	-3.692999e+01	-9.427517e+01
3.400000e-07	-5.295649e-06	-1.416713e-09	-3.683631e+01	-9.411405e+01
3.500000e-07	-5.281792e-06	-1.424436e-09	-3.673992e+01	-9.394931e+01
3.600000e-07	-5.267641e-06	-1.419137e-09	-3.664149e+01	-9.378086e+01
3.700000e-07	-5.253117e-06	-1.435447e-09	-3.654046e+01	-9.360859e+01
3.800000e-07	-5.238000e-06	-1.384888e-09	-3.643530e+01	-9.343241e+01
3.900000e-07	-5.222254e-06	-1.396409e-09	-3.632578e+01	-9.325220e+01
4.000000e-07	-5.206047e-06	-1.399088e-09	-3.621304e+01	-9.306787e+01
4.100000e-07	-5.189478e-06	-1.392631e-09	-3.609779e+01	-9.287929e+01
4.200000e-07	-5.172489e-06	-1.380848e-09	-3.597962e+01	-9.268635e+01
4.300000e-07	-5.155189e-06	-1.422242e-09	-3.585927e+01	-9.248895e+01
4.400000e-07	-5.137663e-06	-1.400502e-09	-3.573736e+01	-9.228697e+01
4.500000e-07	-5.119809e-06	-1.363175e-09	-3.561318e+01	-9.208029e+01
4.600000e-07	-5.101528e-06	-1.375053e-09	-3.548601e+01	-9.186882e+01
4.700000e-07	-5.082821e-06	-1.388574e-09	-3.535589e+01	-9.165244e+01
4.800000e-07	-5.063783e-06	-1.348888e-09	-3.522346e+01	-9.143105e+01
4.900000e-07	-5.044480e-06	-1.357462e-09	-3.508919e+01	-9.120456e+01
5.000000e-07	-5.024929e-06	-1.384966e-09	-3.495319e+01	-9.097288e+01
5.100000e-07	-5.005144e-06	-1.346033e-09	-3.481557e+01	-9.073592e+01
5.200000e-07	-4.985100e-06	-1.329588e-09	-3.467614e+01	-9.049363e+01
5.300000e-07	-4.964707e-06	-1.361406e-09	-3.453429e+01	-9.024592e+01
5.400000e-07	-4.943915e-06	-1.341829e-09	-3.438966e+01	-8.999275e+01
5.500000e-07	-4.922758e-06	-1.299378e-09	-3.424249e+01	-8.973408e+01
5.600000e-07	-4.901240e-06	-1.339785e-09	-3.409281e+01	-8.946988e+01
5.700000e-07	-4.879391e-06	-1.349208e-09	-3.394084e+01	-8.920013e+01
5.800000e-07	-4.857231e-06	-1.311852e-09	-3.378669e+01	-8.892482e+01
5.900000e-07	-4.834711e-06	-1.310853e-09	-3.363005e+01	-8.864397e+01
6.000000e-07	-4.811806e-06	-1.333877e-09	-3.347072e+01	-8.835759e+01
6.100000e-07	-4.788578e-06	-1.294495e-09	-3.330915e+01	-8.806573e+01
6.200000e-07	-4.765126e-06	-1.291045e-09	-3.314602e+01	-8.776844e+01
6.300000e-07	-4.741475e-06	-1.310062e-09	-3.298150e+01	-8.746578e+01
6.400000e-07	-4.717542e-06	-1.305115e-09	-3.281502e+01	-8.715782e+01
6.500000e-07	-4.693278e-06	-1.283339e-09	-3.264624e+01	-8.684466e+01
6.600000e-07	-4.668649e-06	-1.302743e-09	-3.247493e+01	-8.652641e+01
6.700000e-07	-4.643505e-06	-1.290815e-09	-3.230002e+01	-8.620318e+01
6.800000e-07	-4.617901e-06	-1.270802e-09	-3.212193e+01	-8.587509e+01
6.900000e-07	-4.591740e-06	-1.267159e-09	-3.193995e+01	-8.554229e+01
7.000000e-07	-4.565010e-06	-1.270154e-09	-3.175402e+01	-8.520491e+01
7.100000e-07	-4.537933e-06	-1.250649e-09	-3.156567e+01	-8.486312e+01
7.200000e-07	-4.510505e-06	-1.254643e-09	-3.137488e+01	-8.451708e+01
7.300000e-07	-4.482837e-06	-1.258490e-09	-3.118243e+01	-8.416695e+01
7.400000e-07	-4.455011e-06	-1.251571e-09	-3.098887e+01	-8.381290e+01
7.500000e-07	-4.427045e-06	-1.236577e-09	-3.079434e+01	-8.345510e+01
7.600000e-07	-4.398852e-06	-1.234855e-09	-3.059823e+01	-8.309372e+01
7.700000e-07	-4.370237e-06	-1.229121e-09	-3.039918e+01	-8.272894e+01
7.800000e-07	-4.341264e-06	-1.218688e-09	-3.019765e+01	-8.236091e+01
7.900000e-07	-4.312054e-06	-1.214674e-09	-2.999447e+01	-8.198981e+01
8.000000e-07	-4.282599e-06	-1.210971e-09	-2.978958e+01	-8.161578e+01
8.100000e-07	-4.252891e-06	-1.198026e-09	-2.958293e+01	-8.123898e+01
8.200000e-07	-4.222866e-06	-1.185879e-09	-2.937407e+01	-8.085954e+01
8.300000e-07	-4.192508e-06	-1.181460e-09	-2.916291e+01	-8.047759e+01
8.400000e-07	-4.161826e-06	-1.170461e-09	-2.894948e+01	-8.009324e+01
8.500000e-07	-4.130861e-06	-1.167254e-09	-2.873409e+01	-7.970659e+01
8.600000e-07	-4.099701e-06	-1.167969e-09	-2.851734e+01	-7.931771e+01
8.700000e-07	-4.068342e-06	-1.166562e-09	-2.829922e+01	-7.892669e+01
8.800000e-07	-4.036741e-06	-1.155165e-09	-2.807940e+01	-7.853355e+01
8.900000e-07	-4.004892e-06	-1.151362e-09	-2.785786e+01	-7.813834e+01
9.000000e-07	-3.972839e-06	-1.136628e-09	-2.763490e+01	-7.774107e+01
9.100000e-07	-3.940581e-06	-1.123490e-09	-2.741051e+01	-7.734172e+01
9.200000e-07	-3.908030e-06	-1.116041e-09	-2.718409e+01	-7.694026e+01
9.300000e-07	-3.875134e-06	-1.114942e-09	-2.695527e+01	-7.653665e+01
9.400000e-07	-3.841763e-06	-1.106832e-09	-2.672314e+01	-7.613082e+01
9.500000e-07	-3.807871e-06	-1.105777e-09	-2.648739e+01	-7.572268e+01
9.600000e-07	-3.773532e-06	-1.100296e-09	-2.624853e+01	-7.531211e+01
9.700000e-07	-3.738858e-06	-1.089821e-09	-2.600734e+01	-7.489900e+01
9.800000e-07	-3.703885e-06	-1.074409e-09	-2.576407e+01	-7.448320e+01
9.900000e-07	-3.668605e-06	-1.067984e-09	-2.551866e+01	-7.406455e+01
1.000000e-06	-3.633111e-06	-1.056947e-09	-2.527176e+01	-7.364288e+01
1.010000e-06	-3.597406e-06	-1.048544e-09	-2.502340e+01	-7.321801e+01
1.020000e-06	-3.561605e-06	-1.046721e-09	-2.477437e+01	-7.278972e+01
1.030000e-06	-3.525713e-06	-1.045861e-09	-2.452471e+01	-7.235782e+01
1.040000e-06	-3.489601e-06	-1.035958e-09	-2.427351e+01	-7.192208e+01
1.050000e-06	-3.453305e-06	-1.031206e-09	-2.402104e+01	-7.148229e+01
1.060000e-06	-3.416767e-06	-1.024534e-09	-2.376689e+01	-7.103821e+01
1.070000e-06	-3.379857e-06	-1.011851e-09	-2.351014e+01	-7.058961e+01
1.080000e-06	-3.342600e-06	-9.998413e-10	-2.325098e+01	-7.013628e+01
1.090000e-06	-3.305104e-06	-9.927558e-10	-2.299016e+01	-6.967797e+01
1.100000e-06	-3.267416e-06	-9.846314e-10	-2.272801e+01	-6.921446e+01
1.110000e-06	-3.229568e-06	-9.746648e-10	-2.246474e+01	-6.874555e+01
1.120000e-06	-3.191543e-06	-9.707864e-10	-2.220023e+01	-6.827101e+01
1.130000e-06	-3.153216e-06	-9.646302e-10	-2.193364e+01	-6.779065e+01
1.140000e-06	-3.114614e-06	-9.558979e-10	-2.166512e+01	-6.730427e+01
1.150000e-06	-3.075923e-06	-9.467508e-10	-2.139599e+01	-6.681171e+01
1.160000e-06	-3.037030e-06	-9.419625e-10	-2.112545e+01	-6.631280e+01
1.170000e-06	-2.997848e-06	-9.313178e-10	-2.085290e+01	-6.580740e+01
1.180000e-06	-2.958490e-06	-9.195310e-10	-2.057913e+01	-6.529537e+01
1.190000e-06	-2.918992e-06	-9.117464e-10	-2.030438e+01	-6.477660e+01
1.200000e-06	-2.879367e-06	-9.066914e-10	-2.002876e+01	-6.425100e+01
1.210000e-06	-2.839635e-06	-8.994003e-10	-1.975238e+01	-6.371848e+01
1.220000e-06	-2.799784e-06	-8.952224e-10	-1.947518e+01	-6.317899e+01
1.230000e-06	-2.759706e-06	-8.865828e-10	-1.919640e+01	-6.263248e+01
1.240000e-06	-2.719434e-06	-8.771292e-10	-1.891627e+01	-6.207893e+01
1.250000e-06	-2.679060e-06	-8.673426e-10	-1.863543e+01	-6.151832e+01
1.260000e-06	-2.638503e-06	-8.623007e-10	-1.835331e+01	-6.095065e+01
1.270000e-06	-2.597640e-06	-8.515594e-10	-1.806908e+01	-6.037595e+01
1.280000e-06	-2.556452e-06	-8.415953e-10	-1.778257e+01	-5.979423e+01
1.290000e-06	-2.514916e-06	-8.315784e-10	-1.749365e+01	-5.920553e+01
1.300000e-06	-2.473055e-06	-8.209305e-10	-1.720247e+01	-5.860990e+01
1.310000e-06	-2.430916e-06	-8.087697e-10	-1.690935e+01	-5.800738e+01
1.320000e-06	-2.388480e-06	-7.974088e-10	-1.661417e+01	-5.739803e+01
1.330000e-06	-2.345722e-06	-7.880468e-10	-1.631674e+01	-5.678190e+01
1.340000e-06	-2.302755e-06	-7.777929e-10	-1.601787e+01	-5.615903e+01
1.350000e-06	-2.259629e-06	-7.686536e-10	-1.571788e+01	-5.552947e+01
1.360000e-06	-2.216314e-06	-7.611911e-10	-1.541658e+01	-5.489324e+01
1.370000e-06	-2.172850e-06	-7.528764e-10	-1.511425e+01	-5.425038e+01
1.380000e-06	-2.129273e-06	-7.429956e-10	-1.481114e+01	-5.360089e+01
1.390000e-06	-2.085648e-06	-7.318230e-10	-1.450768e+01	-5.294476e+01
1.400000e-06	-2.041979e-06	-7.177546e-10	-1.420392e+01	-5.228196e+01
1.410000e-06	-1.998239e-06	-7.042277e-10	-1.389966e+01	-5.161243e+01
1.420000e-06	-1.954374e-06	-6.921934e-10	-1.359454e+01	-5.093610e+01
1.430000e-06	-1.910383e-06	-6.820966e-10	-1.328854e+01	-5.025287e+01
1.440000e-06	-1.866267e-06	-6.727460e-10	-1.298167e+01	-4.956259e+01
1.450000e-06	-1.822059e-06	-6.646595e-10	-1.267417e+01	-4.886509e+01
1.460000e-06	-1.777826e-06	-6.569094e-10	-1.236648e+01	-4.816019e+01
1.470000e-06	-1.733509e-06	-6.497263e-10	-1.205821e+01	-4.744764e+01
1.480000e-06	-1.689108e-06	-6.378797e-10	-1.174936e+01	-4.672717e+01
1.490000e-06	-1.644575e-06	-6.252084e-10	-1.143960e+01	-4.599847e+01
1.500000e-06	-1.599791e-06	-6.131979e-10	-1.112808e+01	-4.526120e+01
1.510000e-06	-1.554881e-06	-6.034823e-10	-1.081569e+01	-4.451499e+01
1.520000e-06	-1.509853e-06	-5.937497e-10	-1.050247e+01	-4.375941e+01
1.530000e-06	-1.464625e-06	-5.853306e-10	-1.018787e+01	-4.299401e+01
1.540000e-06	-1.419244e-06	-5.778295e-10	-9.872201e+00	-4.221833e+01
1.550000e-06	-1.373867e-06	-5.698435e-10	-9.556560e+00	-4.143183e+01
1.560000e-06	-1.328522e-06	-5.585696e-10	-9.241142e+00	-4.063399e+01
1.570000e-06	-1.283014e-06	-5.454799e-10	-8.924592e+00	-3.982423e+01
1.580000e-06	-1.237373e-06	-5.312099e-10	-8.607114e+00	-3.900196e+01
1.590000e-06	-1.191695e-06	-5.152362e-10	-8.289378e+00	-3.816658e+01
1.600000e-06	-1.145961e-06	-4.990520e-10	-7.971255e+00	-3.731745e+01
1.610000e-06	-1.100127e-06	-4.858163e-10	-7.652437e+00	-3.645395e+01
1.620000e-06	-1.054134e-06	-4.735692e-10	-7.332515e+00	-3.557542e+01
1.630000e-06	-1.008062e-06	-4.635816e-10	-7.012035e+00	-3.468123e+01
1.640000e-06	-9.620424e-07	-4.550531e-10	-6.691926e+00	-3.377074e+01
1.650000e-06	-9.160155e-07	-4.436827e-10	-6.371765e+00	-3.284331e+01
1.660000e-06	-8.698678e-07	-4.295863e-10	-6.050764e+00	-3.189832e+01
1.670000e-06	-8.236117e-07	-4.131834e-10	-5.729008e+00	-3.093518e+01
1.680000e-06	-7.772927e-07	-3.967739e-10	-5.406815e+00	-2.995331e+01
1.690000e-06	-7.309121e-07	-3.808033e-10	-5.084193e+00	-2.895217e+01
1.700000e-06	-6.844878e-07	-3.656309e-10	-4.761268e+00	-2.793126e+01
1.710000e-06	-6.380737e-07	-3.502254e-10	-4.438414e+00	-2.689010e+01
1.720000e-06	-5.916503e-07	-3.344853e-10	-4.115495e+00	-2.582829e+01
1.730000e-06	-5.451120e-07	-3.173691e-10	-3.791776e+00	-2.474546e+01
1.740000e-06	-4.984130e-07	-2.988500e-10	-3.466940e+00	-2.364131e+01
1.750000e-06	-4.516179e-07	-2.793969e-10	-3.141435e+00	-2.251558e+01
1.760000e-06	-4.048178e-07	-2.613134e-10	-2.815896e+00	-2.136812e+01
1.770000e-06	-3.580082e-07	-2.433906e-10	-2.490290e+00	-2.019881e+01
1.780000e-06	-3.112207e-07	-2.255493e-10	-2.164838e+00	-1.900762e+01
1.790000e-06	-2.645294e-07	-2.094750e-10	-1.840055e+00	-1.779461e+01
1.800000e-06	-2.178075e-07	-1.945363e-10	-1.515059e+00	-1.655990e+01
1.810000e-06	-1.710060e-07	-1.754761e-10	-1.189511e+00	-1.530371e+01
1.820000e-06	-1.242148e-07	-1.560783e-10	-8.640330e-01	-1.402633e+01
1.830000e-06	-7.746329e-08	-1.376599e-10	-5.388314e-01	-1.272815e+01
1.840000e-06	-3.071731e-08	-1.177842e-10	-2.136683e-01	-1.140964e+01
1.850000e-06	1.602323e-08	-9.776977e-11	1.114569e-01	-1.007137e+01
1.860000e-06	6.281889e-08	-8.147907e-11	4.369655e-01	-8.713970e+00
1.870000e-06	1.096714e-07	-6.436677e-11	7.628694e-01	-7.338179e+00
1.880000e-06	1.564520e-07	-4.452519e-11	1.088273e+00	-5.944808e+00
1.890000e-06	2.032238e-07	-2.510791e-11	1.413616e+00	-4.534754e+00
1.900000e-06	2.499765e-07	-4.250040e-12	1.738826e+00	-3.108989e+00
1.910000e-06	2.966817e-07	1.737420e-11	2.063705e+00	-1.668564e+00
1.920000e-06	3.434810e-07	3.861779e-11	2.389239e+00	-2.145959e-01
1.930000e-06	3.903925e-07	6.104861e-11	2.715553e+00	1.251729e+00
1.940000e-06	4.372247e-07	8.263024e-11	3.041317e+00	2.729163e+00
1.950000e-06	4.838607e-07	1.007979e-10	3.365714e+00	4.216405e+00
1.960000e-06	5.303805e-07	1.177377e-10	3.689304e+00	5.712102e+00
1.970000e-06	5.769168e-07	1.351788e-10	4.013008e+00	7.214857e+00
1.980000e-06	6.234212e-07	1.552325e-10	4.336492e+00	8.723239e+00
1.990000e-06	6.698208e-07	1.765478e-10	4.659245e+00	1.023578e+01
2.000000e-06	7.162205e-07	1.996410e-10	4.982000e+00	1.175100e+01
2.010000e-06	7.625631e-07	2.261134e-10	5.304356e+00	1.326739e+01
2.020000e-06	8.088365e-07	2.469855e-10	5.626233e+00	1.478345e+01
2.030000e-06	8.551069e-07	2.655039e-10	5.948087e+00	1.629765e+01
2.040000e-06	9.012887e-07	2.875905e-10	6.269326e+00	1.780849e+01
2.050000e-06	9.473432e-07	3.081599e-10	6.589679e+00	1.931449e+01
2.060000e-06	9.932984e-07	3.293518e-10	6.909342e+00	2.081416e+01
2.070000e-06	1.039201e-06	3.512481e-10	7.228637e+00	2.230606e+01
2.080000e-06	1.085024e-06	3.730428e-10	7.547380e+00	2.378879e+01
2.090000e-06	1.130804e-06	3.936293e-10	7.865823e+00	2.526096e+01
2.100000e-06	1.176610e-06	4.142259e-10	8.184448e+00	2.672127e+01
2.110000e-06	1.222317e-06	4.335952e-10	8.502388e+00	2.816844e+01
2.120000e-06	1.267818e-06	4.516752e-10	8.818886e+00	2.960127e+01
2.130000e-06	1.313147e-06	4.685774e-10	9.134194e+00	3.101860e+01
2.140000e-06	1.358452e-06	4.848374e-10	9.449332e+00	3.241936e+01
2.150000e-06	1.403725e-06	5.011927e-10	9.764249e+00	3.380254e+01
2.160000e-06	1.448917e-06	5.191042e-10	1.007861e+01	3.516722e+01
2.170000e-06	1.494042e-06	5.369269e-10	1.039249e+01	3.651254e+01
2.180000e-06	1.539097e-06	5.542070e-10	1.070589e+01	3.783774e+01
2.190000e-06	1.584020e-06	5.730807e-10	1.101838e+01	3.914213e+01
2.200000e-06	1.628795e-06	5.946262e-10	1.132983e+01	4.042510e+01
2.210000e-06	1.673449e-06	6.141309e-10	1.164044e+01	4.168615e+01
2.220000e-06	1.717883e-06	6.297447e-10	1.194952e+01	4.292485e+01
2.230000e-06	1.762188e-06	6.443681e-10	1.225771e+01	4.414083e+01
2.240000e-06	1.806443e-06	6.604294e-10	1.256554e+01	4.533386e+01
2.250000e-06	1.850520e-06	6.766935e-10	1.287214e+01	4.650373e+01
2.260000e-06	1.894447e-06	6.932242e-10	1.317769e+01	4.765036e+01
2.270000e-06	1.938366e-06	7.101617e-10	1.348319e+01	4.877373e+01
2.280000e-06	1.982229e-06	7.258911e-10	1.378830e+01	4.987387e+01
2.290000e-06	2.026000e-06	7.399613e-10	1.409277e+01	5.095092e+01
2.300000e-06	2.069709e-06	7.546839e-10	1.439681e+01	5.200507e+01
2.310000e-06	2.113336e-06	7.676920e-10	1.470028e+01	5.303657e+01
2.320000e-06	2.156869e-06	7.800570e-10	1.500309e+01	5.404573e+01
2.330000e-06	2.200323e-06	7.962130e-10	1.530535e+01	5.503292e+01
2.340000e-06	2.243650e-06	8.121595e-10	1.560673e+01	5.599855e+01
2.350000e-06	2.286816e-06	8.272588e-10	1.590700e+01	5.694307e+01
2.360000e-06	2.329843e-06	8.403205e-10	1.620629e+01	5.786699e+01
2.370000e-06	2.372599e-06	8.525478e-10	1.650370e+01	5.877083e+01
2.380000e-06	2.415109e-06	8.630997e-10	1.679940e+01	5.965515e+01
2.390000e-06	2.457385e-06	8.748174e-10	1.709347e+01	6.052052e+01
2.400000e-06	2.499223e-06	8.879715e-10	1.738449e+01	6.136754e+01
2.410000e-06	2.540698e-06	9.005939e-10	1.767299e+01	6.219682e+01
2.420000e-06	2.581838e-06	9.133184e-10	1.795916e+01	6.300897e+01
2.430000e-06	2.622631e-06	9.253438e-10	1.824291e+01	6.380460e+01
2.440000e-06	2.663156e-06	9.350559e-10	1.852480e+01	6.458433e+01
2.450000e-06	2.703501e-06	9.429405e-10	1.880544e+01	6.534875e+01
2.460000e-06	2.743741e-06	9.505865e-10	1.908535e+01	6.609847e+01
2.470000e-06	2.783801e-06	9.594230e-10	1.936400e+01	6.683405e+01
2.480000e-06	2.823646e-06	9.704984e-10	1.964116e+01	6.755605e+01
2.490000e-06	2.863396e-06	9.846135e-10	1.991766e+01	6.826502e+01
2.500000e-06	2.903085e-06	9.993027e-10	2.019373e+01	6.896146e+01
2.510000e-06	2.942645e-06	1.013144e-09	2.046891e+01	6.964585e+01
2.520000e-06	2.982055e-06	1.025188e-09	2.074305e+01	7.031865e+01
2.530000e-06	3.021163e-06	1.035102e-09	2.101508e+01	7.098028e+01
2.540000e-06	3.059986e-06	1.045670e-09	2.128514e+01	7.163114e+01
2.550000e-06	3.098665e-06	1.056482e-09	2.155419e+01	7.227157e+01
2.560000e-06	3.137125e-06	1.063834e-09	2.182171e+01	7.290192e+01
2.570000e-06	3.175299e-06	1.069511e-09	2.208725e+01	7.352246e+01
2.580000e-06	3.213236e-06	1.078453e-09	2.235113e+01	7.413346e+01
2.590000e-06	3.251023e-06	1.088691e-09	2.261398e+01	7.473514e+01
2.600000e-06	3.288657e-06	1.099539e-09	2.287576e+01	7.532769e+01
2.610000e-06	3.326073e-06	1.109908e-09	2.313602e+01	7.591129e+01
2.620000e-06	3.363292e-06	1.117673e-09	2.339492e+01	7.648605e+01
2.630000e-06	3.400307e-06	1.124292e-09	2.365239e+01	7.705208e+01
2.640000e-06	3.436964e-06	1.130214e-09	2.390737e+01	7.760948e+01
2.650000e-06	3.473285e-06	1.136689e-09	2.416002e+01	7.815829e+01
2.660000e-06	3.509387e-06	1.144871e-09	2.441114e+01	7.869855e+01
2.670000e-06	3.545291e-06	1.153084e-09	2.466089e+01	7.923027e+01
2.680000e-06	3.581066e-06	1.160913e-09	2.490974e+01	7.975346e+01
2.690000e-06	3.616751e-06	1.167188e-09	2.515797e+01	8.026810e+01
2.700000e-06	3.652353e-06	1.171033e-09	2.540561e+01	8.077417e+01
2.710000e-06	3.687831e-06	1.175385e-09	2.565239e+01	8.127163e+01
2.720000e-06	3.723100e-06	1.181472e-09	2.589773e+01	8.176044e+01
2.730000e-06	3.758080e-06	1.186949e-09	2.614104e+01	8.224055e+01
2.740000e-06	3.792639e-06	1.192747e-09	2.638144e+01	8.271193e+01
2.750000e-06	3.826766e-06	1.198292e-09	2.661882e+01	8.317452e+01
2.760000e-06	3.860402e-06	1.202700e-09	2.685280e+01	8.362828e+01
2.770000e-06	3.893527e-06	1.206474e-09	2.708321e+01	8.407317e+01
2.780000e-06	3.926256e-06	1.209349e-09	2.731087e+01	8.450916e+01
2.790000e-06	3.958597e-06	1.213813e-09	2.753584e+01	8.493623e+01
2.800000e-06	3.990620e-06	1.219510e-09	2.775858e+01	8.535437e+01
2.810000e-06	4.022428e-06	1.225847e-09	2.797984e+01	8.576356e+01
2.820000e-06	4.054097e-06	1.233057e-09	2.820013e+01	8.616382e+01
2.830000e-06	4.085628e-06	1.239440e-09	2.841945e+01	8.655517e+01
2.840000e-06	4.116940e-06	1.244217e-09	2.863726e+01	8.693765e+01
2.850000e-06	4.148015e-06	1.247782e-09	2.885342e+01	8.731131e+01
2.860000e-06	4.178803e-06	1.251163e-09	2.906758e+01	8.767620e+01
2.870000e-06	4.209207e-06	1.253584e-09	2.927906e+01	8.803241e+01
2.880000e-06	4.239288e-06	1.255567e-09	2.948831e+01	8.838002e+01
2.890000e-06	4.269096e-06	1.258977e-09	2.969565e+01	8.871914e+01
2.900000e-06	4.298607e-06	1.262750e-09	2.990093e+01	8.904989e+01
