# Temperatura_=_12.7
# Concentracion g/m^3_=_1620.0
# C_Vs_to_Am_M_A/Vsm_=_65563218390.804596
# pendiente_HvsI_1/m_=_3716.3
# ordenada_HvsI_A/m_=_1297.0
# frecuencia_Hz_=_135109.50650244602

Tiempo_(s)	Campo_(V.s)	Magnetizacion_(V.s)	Campo_(kA/m)	Magnetizacion_(A/m)
0.000000e+00	-5.514980e-06	-1.128234e-09	-3.837089e+01	-7.414028e+01
1.000000e-08	-5.515089e-06	-1.127251e-09	-3.837165e+01	-7.413234e+01
2.000000e-08	-5.514912e-06	-1.125715e-09	-3.837042e+01	-7.412436e+01
3.000000e-08	-5.514325e-06	-1.126139e-09	-3.836633e+01	-7.411615e+01
4.000000e-08	-5.513186e-06	-1.132248e-09	-3.835841e+01	-7.410748e+01
5.000000e-08	-5.511455e-06	-1.147812e-09	-3.834637e+01	-7.409813e+01
6.000000e-08	-5.509194e-06	-1.148310e-09	-3.833063e+01	-7.408784e+01
7.000000e-08	-5.506371e-06	-1.105677e-09	-3.831099e+01	-7.407637e+01
8.000000e-08	-5.503120e-06	-1.074845e-09	-3.828838e+01	-7.406344e+01
9.000000e-08	-5.499432e-06	-1.095904e-09	-3.826272e+01	-7.404878e+01
1.000000e-07	-5.495206e-06	-1.124075e-09	-3.823331e+01	-7.403211e+01
1.100000e-07	-5.490701e-06	-1.135061e-09	-3.820197e+01	-7.401316e+01
1.200000e-07	-5.486078e-06	-1.156530e-09	-3.816980e+01	-7.399164e+01
1.300000e-07	-5.481154e-06	-1.137838e-09	-3.813555e+01	-7.396728e+01
1.400000e-07	-5.475840e-06	-1.116984e-09	-3.809858e+01	-7.393981e+01
1.500000e-07	-5.470167e-06	-1.101375e-09	-3.805910e+01	-7.390897e+01
1.600000e-07	-5.464152e-06	-1.129434e-09	-3.801725e+01	-7.387452e+01
1.700000e-07	-5.457715e-06	-1.131769e-09	-3.797246e+01	-7.383622e+01
1.800000e-07	-5.450799e-06	-1.098691e-09	-3.792435e+01	-7.379384e+01
1.900000e-07	-5.443563e-06	-1.093475e-09	-3.787400e+01	-7.374717e+01
2.000000e-07	-5.436038e-06	-1.121255e-09	-3.782165e+01	-7.369603e+01
2.100000e-07	-5.428154e-06	-1.142528e-09	-3.776679e+01	-7.364024e+01
2.200000e-07	-5.419920e-06	-1.109859e-09	-3.770950e+01	-7.357966e+01
2.300000e-07	-5.411339e-06	-1.100967e-09	-3.764980e+01	-7.351416e+01
2.400000e-07	-5.402376e-06	-1.109892e-09	-3.758744e+01	-7.344362e+01
2.500000e-07	-5.392760e-06	-1.130875e-09	-3.752054e+01	-7.336796e+01
2.600000e-07	-5.382451e-06	-1.106415e-09	-3.744881e+01	-7.328711e+01
2.700000e-07	-5.371688e-06	-1.088151e-09	-3.737393e+01	-7.320102e+01
2.800000e-07	-5.360451e-06	-1.087182e-09	-3.729575e+01	-7.310969e+01
2.900000e-07	-5.348776e-06	-1.098513e-09	-3.721451e+01	-7.301310e+01
3.000000e-07	-5.336811e-06	-1.089590e-09	-3.713127e+01	-7.291128e+01
3.100000e-07	-5.324473e-06	-1.082486e-09	-3.704543e+01	-7.280427e+01
3.200000e-07	-5.311619e-06	-1.084321e-09	-3.695600e+01	-7.269212e+01
3.300000e-07	-5.298368e-06	-1.102316e-09	-3.686380e+01	-7.257492e+01
3.400000e-07	-5.284817e-06	-1.083334e-09	-3.676952e+01	-7.245275e+01
3.500000e-07	-5.270860e-06	-1.053105e-09	-3.667241e+01	-7.232572e+01
3.600000e-07	-5.256314e-06	-1.072943e-09	-3.657121e+01	-7.219395e+01
3.700000e-07	-5.241246e-06	-1.102410e-09	-3.646636e+01	-7.205758e+01
3.800000e-07	-5.225529e-06	-1.067751e-09	-3.635701e+01	-7.191675e+01
3.900000e-07	-5.209221e-06	-1.047402e-09	-3.624355e+01	-7.177162e+01
4.000000e-07	-5.192672e-06	-1.094873e-09	-3.612841e+01	-7.162233e+01
4.100000e-07	-5.175883e-06	-1.085291e-09	-3.601160e+01	-7.146905e+01
4.200000e-07	-5.158717e-06	-1.039490e-09	-3.589216e+01	-7.131196e+01
4.300000e-07	-5.141243e-06	-1.069564e-09	-3.577059e+01	-7.115122e+01
4.400000e-07	-5.123503e-06	-1.098781e-09	-3.564716e+01	-7.098699e+01
4.500000e-07	-5.105249e-06	-1.031296e-09	-3.552016e+01	-7.081945e+01
4.600000e-07	-5.086550e-06	-1.033117e-09	-3.539006e+01	-7.064876e+01
4.700000e-07	-5.067601e-06	-1.091037e-09	-3.525822e+01	-7.047508e+01
4.800000e-07	-5.048303e-06	-1.049730e-09	-3.512395e+01	-7.029856e+01
4.900000e-07	-5.028692e-06	-1.005821e-09	-3.498751e+01	-7.011936e+01
5.000000e-07	-5.008913e-06	-1.072082e-09	-3.484990e+01	-6.993760e+01
5.100000e-07	-4.988966e-06	-1.063533e-09	-3.471111e+01	-6.975343e+01
5.200000e-07	-4.968646e-06	-9.982301e-10	-3.456973e+01	-6.956695e+01
5.300000e-07	-4.947883e-06	-1.040723e-09	-3.442527e+01	-6.937829e+01
5.400000e-07	-4.926826e-06	-1.074215e-09	-3.427877e+01	-6.918754e+01
5.500000e-07	-4.905385e-06	-1.002606e-09	-3.412959e+01	-6.899478e+01
5.600000e-07	-4.883630e-06	-1.014998e-09	-3.397823e+01	-6.880010e+01
5.700000e-07	-4.861670e-06	-1.073921e-09	-3.382544e+01	-6.860355e+01
5.800000e-07	-4.839222e-06	-1.024895e-09	-3.366926e+01	-6.840519e+01
5.900000e-07	-4.816264e-06	-9.947920e-10	-3.350953e+01	-6.820506e+01
6.000000e-07	-4.793085e-06	-1.052664e-09	-3.334825e+01	-6.800318e+01
6.100000e-07	-4.769669e-06	-1.035138e-09	-3.318534e+01	-6.779958e+01
6.200000e-07	-4.746029e-06	-9.924576e-10	-3.302086e+01	-6.759425e+01
6.300000e-07	-4.722220e-06	-1.034849e-09	-3.285521e+01	-6.738720e+01
6.400000e-07	-4.698126e-06	-1.043243e-09	-3.268757e+01	-6.717840e+01
6.500000e-07	-4.673670e-06	-9.977378e-10	-3.251741e+01	-6.696784e+01
6.600000e-07	-4.648770e-06	-1.013410e-09	-3.234417e+01	-6.675547e+01
6.700000e-07	-4.623323e-06	-1.032006e-09	-3.216712e+01	-6.654126e+01
6.800000e-07	-4.597330e-06	-9.945526e-10	-3.198628e+01	-6.632516e+01
6.900000e-07	-4.570827e-06	-9.968172e-10	-3.180188e+01	-6.610710e+01
7.000000e-07	-4.543851e-06	-1.021579e-09	-3.161419e+01	-6.588703e+01
7.100000e-07	-4.516523e-06	-9.978234e-10	-3.142405e+01	-6.566488e+01
7.200000e-07	-4.488998e-06	-9.866023e-10	-3.123254e+01	-6.544057e+01
7.300000e-07	-4.461330e-06	-1.011036e-09	-3.104004e+01	-6.521402e+01
7.400000e-07	-4.433463e-06	-9.971474e-10	-3.084615e+01	-6.498516e+01
7.500000e-07	-4.405332e-06	-9.779609e-10	-3.065043e+01	-6.475389e+01
7.600000e-07	-4.376897e-06	-9.920616e-10	-3.045259e+01	-6.452013e+01
7.700000e-07	-4.348178e-06	-9.901921e-10	-3.025278e+01	-6.428380e+01
7.800000e-07	-4.319153e-06	-9.675930e-10	-3.005084e+01	-6.404479e+01
7.900000e-07	-4.289783e-06	-9.738096e-10	-2.984649e+01	-6.380302e+01
8.000000e-07	-4.260086e-06	-9.732774e-10	-2.963987e+01	-6.355839e+01
8.100000e-07	-4.230044e-06	-9.484625e-10	-2.943085e+01	-6.331080e+01
8.200000e-07	-4.199656e-06	-9.429452e-10	-2.921942e+01	-6.306018e+01
8.300000e-07	-4.169006e-06	-9.529680e-10	-2.900617e+01	-6.280641e+01
8.400000e-07	-4.138159e-06	-9.395298e-10	-2.879155e+01	-6.254941e+01
8.500000e-07	-4.107069e-06	-9.344874e-10	-2.857524e+01	-6.228909e+01
8.600000e-07	-4.075732e-06	-9.467053e-10	-2.835722e+01	-6.202534e+01
8.700000e-07	-4.044219e-06	-9.396545e-10	-2.813796e+01	-6.175808e+01
8.800000e-07	-4.012530e-06	-9.234037e-10	-2.791748e+01	-6.148722e+01
8.900000e-07	-3.980630e-06	-9.250147e-10	-2.769554e+01	-6.121267e+01
9.000000e-07	-3.948514e-06	-9.160898e-10	-2.747209e+01	-6.093433e+01
9.100000e-07	-3.916148e-06	-8.939260e-10	-2.724690e+01	-6.065212e+01
9.200000e-07	-3.883399e-06	-8.914768e-10	-2.701904e+01	-6.036595e+01
9.300000e-07	-3.850152e-06	-8.976485e-10	-2.678773e+01	-6.007574e+01
9.400000e-07	-3.816390e-06	-8.895511e-10	-2.655282e+01	-5.978140e+01
9.500000e-07	-3.782166e-06	-8.865795e-10	-2.631471e+01	-5.948285e+01
9.600000e-07	-3.747504e-06	-8.894853e-10	-2.607354e+01	-5.918001e+01
9.700000e-07	-3.712545e-06	-8.753885e-10	-2.583031e+01	-5.887281e+01
9.800000e-07	-3.677335e-06	-8.608235e-10	-2.558534e+01	-5.856116e+01
9.900000e-07	-3.641895e-06	-8.600212e-10	-2.533876e+01	-5.824500e+01
1.000000e-06	-3.606329e-06	-8.564764e-10	-2.509131e+01	-5.792426e+01
1.010000e-06	-3.570596e-06	-8.484409e-10	-2.484269e+01	-5.759886e+01
1.020000e-06	-3.534700e-06	-8.498147e-10	-2.459294e+01	-5.726876e+01
1.030000e-06	-3.498618e-06	-8.469038e-10	-2.434190e+01	-5.693389e+01
1.040000e-06	-3.462309e-06	-8.356714e-10	-2.408928e+01	-5.659421e+01
1.050000e-06	-3.425726e-06	-8.301112e-10	-2.383475e+01	-5.624966e+01
1.060000e-06	-3.388840e-06	-8.288847e-10	-2.357811e+01	-5.590020e+01
1.070000e-06	-3.351688e-06	-8.168124e-10	-2.331963e+01	-5.554580e+01
1.080000e-06	-3.314277e-06	-8.082877e-10	-2.305934e+01	-5.518643e+01
1.090000e-06	-3.276699e-06	-8.075435e-10	-2.279788e+01	-5.482208e+01
1.100000e-06	-3.238958e-06	-8.002802e-10	-2.253530e+01	-5.445272e+01
1.110000e-06	-3.200949e-06	-7.905597e-10	-2.227084e+01	-5.407835e+01
1.120000e-06	-3.162666e-06	-7.885897e-10	-2.200449e+01	-5.369897e+01
1.130000e-06	-3.124191e-06	-7.840288e-10	-2.173680e+01	-5.331459e+01
1.140000e-06	-3.085539e-06	-7.755423e-10	-2.146787e+01	-5.292522e+01
1.150000e-06	-3.046670e-06	-7.710649e-10	-2.119744e+01	-5.253091e+01
1.160000e-06	-3.007561e-06	-7.671357e-10	-2.092533e+01	-5.213166e+01
1.170000e-06	-2.968298e-06	-7.566544e-10	-2.065216e+01	-5.172753e+01
1.180000e-06	-2.928959e-06	-7.481503e-10	-2.037846e+01	-5.131857e+01
1.190000e-06	-2.889434e-06	-7.426981e-10	-2.010346e+01	-5.090483e+01
1.200000e-06	-2.849731e-06	-7.331016e-10	-1.982722e+01	-5.048636e+01
1.210000e-06	-2.809919e-06	-7.237458e-10	-1.955022e+01	-5.006324e+01
1.220000e-06	-2.769952e-06	-7.184569e-10	-1.927215e+01	-4.963553e+01
1.230000e-06	-2.729745e-06	-7.124972e-10	-1.899241e+01	-4.920331e+01
1.240000e-06	-2.689283e-06	-7.048154e-10	-1.871089e+01	-4.876665e+01
1.250000e-06	-2.648605e-06	-6.994289e-10	-1.842787e+01	-4.832563e+01
1.260000e-06	-2.607762e-06	-6.941901e-10	-1.814371e+01	-4.788031e+01
1.270000e-06	-2.566750e-06	-6.841709e-10	-1.785836e+01	-4.743079e+01
1.280000e-06	-2.525374e-06	-6.776104e-10	-1.757048e+01	-4.697711e+01
1.290000e-06	-2.483560e-06	-6.734693e-10	-1.727956e+01	-4.651934e+01
1.300000e-06	-2.441525e-06	-6.653872e-10	-1.698709e+01	-4.605753e+01
1.310000e-06	-2.399286e-06	-6.562826e-10	-1.669322e+01	-4.559173e+01
1.320000e-06	-2.356706e-06	-6.487734e-10	-1.639696e+01	-4.512197e+01
1.330000e-06	-2.313830e-06	-6.405773e-10	-1.609865e+01	-4.464826e+01
1.340000e-06	-2.270756e-06	-6.314159e-10	-1.579896e+01	-4.417061e+01
1.350000e-06	-2.227550e-06	-6.267257e-10	-1.549835e+01	-4.368899e+01
1.360000e-06	-2.184222e-06	-6.227574e-10	-1.519689e+01	-4.320336e+01
1.370000e-06	-2.140779e-06	-6.159162e-10	-1.489463e+01	-4.271366e+01
1.380000e-06	-2.097237e-06	-6.058902e-10	-1.459168e+01	-4.221981e+01
1.390000e-06	-2.053585e-06	-5.947772e-10	-1.428798e+01	-4.172168e+01
1.400000e-06	-2.009819e-06	-5.835493e-10	-1.398347e+01	-4.121914e+01
1.410000e-06	-1.965974e-06	-5.742536e-10	-1.367841e+01	-4.071202e+01
1.420000e-06	-1.922081e-06	-5.676585e-10	-1.337303e+01	-4.020011e+01
1.430000e-06	-1.878116e-06	-5.630577e-10	-1.306713e+01	-3.968318e+01
1.440000e-06	-1.834066e-06	-5.584875e-10	-1.276065e+01	-3.916095e+01
1.450000e-06	-1.789866e-06	-5.521704e-10	-1.245313e+01	-3.863314e+01
1.460000e-06	-1.745539e-06	-5.425035e-10	-1.214472e+01	-3.809939e+01
1.470000e-06	-1.701086e-06	-5.328268e-10	-1.183544e+01	-3.755933e+01
1.480000e-06	-1.656513e-06	-5.215158e-10	-1.152532e+01	-3.701258e+01
1.490000e-06	-1.611796e-06	-5.115047e-10	-1.121419e+01	-3.645868e+01
1.500000e-06	-1.566870e-06	-5.029413e-10	-1.090161e+01	-3.589716e+01
1.510000e-06	-1.521851e-06	-4.936213e-10	-1.058840e+01	-3.532754e+01
1.520000e-06	-1.476808e-06	-4.855775e-10	-1.027500e+01	-3.474926e+01
1.530000e-06	-1.431653e-06	-4.795619e-10	-9.960836e+00	-3.416179e+01
1.540000e-06	-1.386358e-06	-4.726737e-10	-9.645691e+00	-3.356454e+01
1.550000e-06	-1.340961e-06	-4.635175e-10	-9.329839e+00	-3.295690e+01
1.560000e-06	-1.295508e-06	-4.514792e-10	-9.013595e+00	-3.233825e+01
1.570000e-06	-1.249962e-06	-4.370291e-10	-8.696704e+00	-3.170795e+01
1.580000e-06	-1.204278e-06	-4.220480e-10	-8.378855e+00	-3.106536e+01
1.590000e-06	-1.158480e-06	-4.083791e-10	-8.060211e+00	-3.040982e+01
1.600000e-06	-1.112579e-06	-3.973620e-10	-7.740850e+00	-2.974066e+01
1.610000e-06	-1.066670e-06	-3.865652e-10	-7.421437e+00	-2.905723e+01
1.620000e-06	-1.020744e-06	-3.739003e-10	-7.101907e+00	-2.835888e+01
1.630000e-06	-9.747331e-07	-3.615476e-10	-6.781780e+00	-2.764497e+01
1.640000e-06	-9.286591e-07	-3.495906e-10	-6.461216e+00	-2.691487e+01
1.650000e-06	-8.824690e-07	-3.378022e-10	-6.139845e+00	-2.616798e+01
1.660000e-06	-8.361624e-07	-3.261375e-10	-5.817663e+00	-2.540373e+01
1.670000e-06	-7.897976e-07	-3.129696e-10	-5.495077e+00	-2.462157e+01
1.680000e-06	-7.433868e-07	-3.009488e-10	-5.172170e+00	-2.382099e+01
1.690000e-06	-6.969612e-07	-2.900100e-10	-4.849161e+00	-2.300154e+01
1.700000e-06	-6.505106e-07	-2.795085e-10	-4.525977e+00	-2.216280e+01
1.710000e-06	-6.040097e-07	-2.663633e-10	-4.202443e+00	-2.130441e+01
1.720000e-06	-5.574792e-07	-2.543733e-10	-3.878704e+00	-2.042607e+01
1.730000e-06	-5.108973e-07	-2.410316e-10	-3.554607e+00	-1.952753e+01
1.740000e-06	-4.642112e-07	-2.261482e-10	-3.229785e+00	-1.860862e+01
1.750000e-06	-4.174732e-07	-2.105381e-10	-2.904602e+00	-1.766924e+01
1.760000e-06	-3.707812e-07	-1.945325e-10	-2.579739e+00	-1.670935e+01
1.770000e-06	-3.241130e-07	-1.819728e-10	-2.255041e+00	-1.572900e+01
1.780000e-06	-2.774449e-07	-1.705499e-10	-1.930344e+00	-1.472832e+01
1.790000e-06	-2.307419e-07	-1.588718e-10	-1.605405e+00	-1.370752e+01
1.800000e-06	-1.839731e-07	-1.456448e-10	-1.280007e+00	-1.266688e+01
1.810000e-06	-1.371861e-07	-1.291067e-10	-9.544826e-01	-1.160679e+01
1.820000e-06	-9.042010e-08	-1.119398e-10	-6.291047e-01	-1.052770e+01
1.830000e-06	-4.369117e-08	-9.373835e-11	-3.039847e-01	-9.430150e+00
1.840000e-06	3.052404e-09	-7.670608e-11	2.123733e-02	-8.314779e+00
1.850000e-06	4.984714e-08	-6.270433e-11	3.468152e-01	-7.182296e+00
1.860000e-06	9.664898e-08	-4.875365e-11	6.724426e-01	-6.033494e+00
1.870000e-06	1.434178e-07	-3.435906e-11	9.978399e-01	-4.869245e+00
1.880000e-06	1.901985e-07	-1.829140e-11	1.323321e+00	-3.690496e+00
1.890000e-06	2.369816e-07	-2.715738e-12	1.648818e+00	-2.498268e+00
1.900000e-06	2.837782e-07	1.413915e-11	1.974409e+00	-1.293648e+00
1.910000e-06	3.305687e-07	3.328939e-11	2.299957e+00	-7.778743e-02
1.920000e-06	3.773045e-07	5.448171e-11	2.625125e+00	1.148102e+00
1.930000e-06	4.239847e-07	7.344545e-11	2.949906e+00	2.382759e+00
1.940000e-06	4.706699e-07	8.960301e-11	3.274722e+00	3.624871e+00
1.950000e-06	5.173073e-07	1.043815e-10	3.599205e+00	4.873087e+00
1.960000e-06	5.638193e-07	1.177014e-10	3.922816e+00	6.126022e+00
1.970000e-06	6.101750e-07	1.321986e-10	4.245339e+00	7.382262e+00
1.980000e-06	6.564657e-07	1.484509e-10	4.567410e+00	8.640374e+00
1.990000e-06	7.028745e-07	1.651532e-10	4.890303e+00	9.898911e+00
2.000000e-06	7.493045e-07	1.858899e-10	5.213343e+00	1.115642e+01
2.010000e-06	7.956008e-07	2.050024e-10	5.535453e+00	1.241145e+01
2.020000e-06	8.417984e-07	2.223099e-10	5.856877e+00	1.366256e+01
2.030000e-06	8.879763e-07	2.410985e-10	6.178163e+00	1.490833e+01
2.040000e-06	9.340751e-07	2.571320e-10	6.498899e+00	1.614734e+01
2.050000e-06	9.800884e-07	2.707897e-10	6.819040e+00	1.737824e+01
2.060000e-06	1.026069e-06	2.852219e-10	7.138957e+00	1.859968e+01
2.070000e-06	1.071936e-06	3.009802e-10	7.458076e+00	1.981038e+01
2.080000e-06	1.117711e-06	3.178628e-10	7.776560e+00	2.100910e+01
2.090000e-06	1.163432e-06	3.380584e-10	8.094665e+00	2.219465e+01
2.100000e-06	1.209029e-06	3.587064e-10	8.411911e+00	2.336592e+01
2.110000e-06	1.254524e-06	3.766978e-10	8.728445e+00	2.452183e+01
2.120000e-06	1.299946e-06	3.910955e-10	9.044470e+00	2.566142e+01
2.130000e-06	1.345314e-06	4.044128e-10	9.360127e+00	2.678376e+01
2.140000e-06	1.390624e-06	4.173417e-10	9.675375e+00	2.788803e+01
2.150000e-06	1.435869e-06	4.310212e-10	9.990168e+00	2.897347e+01
2.160000e-06	1.480997e-06	4.466019e-10	1.030415e+01	3.003941e+01
2.170000e-06	1.525931e-06	4.627644e-10	1.061678e+01	3.108527e+01
2.180000e-06	1.570766e-06	4.781812e-10	1.092873e+01	3.211055e+01
2.190000e-06	1.615556e-06	4.947092e-10	1.124035e+01	3.311483e+01
2.200000e-06	1.660198e-06	5.097735e-10	1.155095e+01	3.409778e+01
2.210000e-06	1.704657e-06	5.209641e-10	1.186028e+01	3.505916e+01
2.220000e-06	1.748990e-06	5.313963e-10	1.216873e+01	3.599881e+01
2.230000e-06	1.793185e-06	5.433515e-10	1.247622e+01	3.691664e+01
2.240000e-06	1.837290e-06	5.548437e-10	1.278308e+01	3.781266e+01
2.250000e-06	1.881303e-06	5.678740e-10	1.308931e+01	3.868693e+01
2.260000e-06	1.925168e-06	5.818414e-10	1.339450e+01	3.953960e+01
2.270000e-06	1.968976e-06	5.935068e-10	1.369930e+01	4.037088e+01
2.280000e-06	2.012701e-06	6.035765e-10	1.400352e+01	4.118106e+01
2.290000e-06	2.056350e-06	6.151490e-10	1.430721e+01	4.197045e+01
2.300000e-06	2.099999e-06	6.269756e-10	1.461090e+01	4.273946e+01
2.310000e-06	2.143534e-06	6.374708e-10	1.491380e+01	4.348852e+01
2.320000e-06	2.186919e-06	6.499155e-10	1.521565e+01	4.421811e+01
2.330000e-06	2.230263e-06	6.623694e-10	1.551722e+01	4.492875e+01
2.340000e-06	2.273512e-06	6.730484e-10	1.581813e+01	4.562098e+01
2.350000e-06	2.316528e-06	6.821416e-10	1.611742e+01	4.629540e+01
2.360000e-06	2.359293e-06	6.898695e-10	1.641496e+01	4.695258e+01
2.370000e-06	2.401773e-06	6.958451e-10	1.671052e+01	4.759316e+01
2.380000e-06	2.443939e-06	7.012986e-10	1.700389e+01	4.821774e+01
2.390000e-06	2.485816e-06	7.091608e-10	1.729525e+01	4.882697e+01
2.400000e-06	2.527400e-06	7.186857e-10	1.758458e+01	4.942146e+01
2.410000e-06	2.568718e-06	7.291179e-10	1.787205e+01	5.000183e+01
2.420000e-06	2.609760e-06	7.401619e-10	1.815760e+01	5.056871e+01
2.430000e-06	2.650554e-06	7.491111e-10	1.844143e+01	5.112268e+01
2.440000e-06	2.691156e-06	7.543022e-10	1.872392e+01	5.166432e+01
2.450000e-06	2.731520e-06	7.568875e-10	1.900476e+01	5.219420e+01
2.460000e-06	2.771652e-06	7.603983e-10	1.928398e+01	5.271285e+01
2.470000e-06	2.811604e-06	7.643937e-10	1.956195e+01	5.322077e+01
2.480000e-06	2.851382e-06	7.701166e-10	1.983871e+01	5.371845e+01
2.490000e-06	2.891056e-06	7.791612e-10	2.011474e+01	5.420632e+01
2.500000e-06	2.930589e-06	7.907061e-10	2.038979e+01	5.468480e+01
2.510000e-06	2.969955e-06	8.014155e-10	2.066368e+01	5.515428e+01
2.520000e-06	3.009157e-06	8.092344e-10	2.093644e+01	5.561508e+01
2.530000e-06	3.048174e-06	8.153590e-10	2.120790e+01	5.606754e+01
2.540000e-06	3.086981e-06	8.212155e-10	2.147791e+01	5.651193e+01
2.550000e-06	3.125491e-06	8.268251e-10	2.174584e+01	5.694849e+01
2.560000e-06	3.163801e-06	8.318843e-10	2.201238e+01	5.737743e+01
2.570000e-06	3.201917e-06	8.371889e-10	2.227758e+01	5.779894e+01
2.580000e-06	3.239819e-06	8.440897e-10	2.254129e+01	5.821318e+01
2.590000e-06	3.277542e-06	8.518599e-10	2.280375e+01	5.862027e+01
2.600000e-06	3.315079e-06	8.583670e-10	2.306491e+01	5.902031e+01
2.610000e-06	3.352450e-06	8.642813e-10	2.332493e+01	5.941339e+01
2.620000e-06	3.389563e-06	8.704237e-10	2.358314e+01	5.979958e+01
2.630000e-06	3.426334e-06	8.747825e-10	2.383898e+01	6.017890e+01
2.640000e-06	3.462846e-06	8.767862e-10	2.409301e+01	6.055141e+01
2.650000e-06	3.499157e-06	8.815098e-10	2.434565e+01	6.091711e+01
2.660000e-06	3.535217e-06	8.880574e-10	2.459654e+01	6.127603e+01
2.670000e-06	3.571053e-06	8.929034e-10	2.484587e+01	6.162817e+01
2.680000e-06	3.606737e-06	8.976238e-10	2.509415e+01	6.197354e+01
2.690000e-06	3.642298e-06	9.003716e-10	2.534156e+01	6.231214e+01
2.700000e-06	3.677673e-06	9.037549e-10	2.558769e+01	6.264398e+01
2.710000e-06	3.712795e-06	9.107373e-10	2.583205e+01	6.296907e+01
2.720000e-06	3.747693e-06	9.174232e-10	2.607486e+01	6.328745e+01
2.730000e-06	3.782279e-06	9.227673e-10	2.631549e+01	6.359913e+01
2.740000e-06	3.816488e-06	9.265988e-10	2.655351e+01	6.390416e+01
2.750000e-06	3.850331e-06	9.282609e-10	2.678897e+01	6.420259e+01
2.760000e-06	3.883685e-06	9.290164e-10	2.702104e+01	6.449450e+01
2.770000e-06	3.916578e-06	9.306701e-10	2.724989e+01	6.477995e+01
2.780000e-06	3.949102e-06	9.349621e-10	2.747617e+01	6.505906e+01
2.790000e-06	3.981310e-06	9.409053e-10	2.770027e+01	6.533192e+01
2.800000e-06	4.013284e-06	9.468057e-10	2.792273e+01	6.559867e+01
2.810000e-06	4.045055e-06	9.519958e-10	2.814378e+01	6.585945e+01
2.820000e-06	4.076607e-06	9.552261e-10	2.836330e+01	6.611442e+01
2.830000e-06	4.107910e-06	9.575166e-10	2.858110e+01	6.636373e+01
2.840000e-06	4.139006e-06	9.593161e-10	2.879745e+01	6.660759e+01
2.850000e-06	4.169793e-06	9.596489e-10	2.901165e+01	6.684616e+01
2.860000e-06	4.200267e-06	9.607455e-10	2.922368e+01	6.707967e+01
2.870000e-06	4.230527e-06	9.641024e-10	2.943421e+01	6.730831e+01
2.880000e-06	4.260505e-06	9.671865e-10	2.964279e+01	6.753230e+01
2.890000e-06	4.290217e-06	9.693066e-10	2.984951e+01	6.775186e+01
2.900000e-06	4.319620e-06	9.707427e-10	3.005409e+01	6.796721e+01
2.910000e-06	4.348701e-06	9.737694e-10	3.025642e+01	6.817856e+01
