# Temperatura_=_11.9
# Concentracion g/m^3_=_1620.0
# C_Vs_to_Am_M_A/Vsm_=_65563218390.804596
# pendiente_HvsI_1/m_=_3716.3
# ordenada_HvsI_A/m_=_1297.0
# frecuencia_Hz_=_135110.2071641605

Tiempo_(s)	Campo_(V.s)	Magnetizacion_(V.s)	Campo_(kA/m)	Magnetizacion_(A/m)
0.000000e+00	-5.504276e-06	-1.175942e-09	-3.837686e+01	-7.769183e+01
1.000000e-08	-5.504502e-06	-1.178869e-09	-3.837844e+01	-7.767101e+01
2.000000e-08	-5.504397e-06	-1.179729e-09	-3.837770e+01	-7.765030e+01
3.000000e-08	-5.503880e-06	-1.179485e-09	-3.837410e+01	-7.762968e+01
4.000000e-08	-5.502857e-06	-1.175891e-09	-3.836696e+01	-7.760907e+01
5.000000e-08	-5.501274e-06	-1.169446e-09	-3.835593e+01	-7.758842e+01
6.000000e-08	-5.499125e-06	-1.168423e-09	-3.834094e+01	-7.756762e+01
7.000000e-08	-5.496394e-06	-1.179607e-09	-3.832190e+01	-7.754655e+01
8.000000e-08	-5.493115e-06	-1.173790e-09	-3.829904e+01	-7.752508e+01
9.000000e-08	-5.489395e-06	-1.139159e-09	-3.827311e+01	-7.750305e+01
1.000000e-07	-5.485317e-06	-1.138725e-09	-3.824467e+01	-7.748030e+01
1.100000e-07	-5.480918e-06	-1.197216e-09	-3.821400e+01	-7.745665e+01
1.200000e-07	-5.476297e-06	-1.233125e-09	-3.818178e+01	-7.743191e+01
1.300000e-07	-5.471469e-06	-1.170886e-09	-3.814812e+01	-7.740586e+01
1.400000e-07	-5.466314e-06	-1.114297e-09	-3.811218e+01	-7.737830e+01
1.500000e-07	-5.460746e-06	-1.153954e-09	-3.807336e+01	-7.734901e+01
1.600000e-07	-5.454796e-06	-1.198335e-09	-3.803188e+01	-7.731777e+01
1.700000e-07	-5.448408e-06	-1.184642e-09	-3.798733e+01	-7.728435e+01
1.800000e-07	-5.441479e-06	-1.131585e-09	-3.793902e+01	-7.724853e+01
1.900000e-07	-5.434233e-06	-1.168476e-09	-3.788850e+01	-7.721008e+01
2.000000e-07	-5.426805e-06	-1.187738e-09	-3.783672e+01	-7.716878e+01
2.100000e-07	-5.419121e-06	-1.192210e-09	-3.778314e+01	-7.712442e+01
2.200000e-07	-5.411130e-06	-1.159293e-09	-3.772743e+01	-7.707679e+01
2.300000e-07	-5.402823e-06	-1.185474e-09	-3.766950e+01	-7.702569e+01
2.400000e-07	-5.394013e-06	-1.195099e-09	-3.760808e+01	-7.697092e+01
2.500000e-07	-5.384624e-06	-1.188848e-09	-3.754262e+01	-7.691231e+01
2.600000e-07	-5.374587e-06	-1.170729e-09	-3.747264e+01	-7.684969e+01
2.700000e-07	-5.363856e-06	-1.174561e-09	-3.739783e+01	-7.678291e+01
2.800000e-07	-5.352641e-06	-1.184897e-09	-3.731963e+01	-7.671182e+01
2.900000e-07	-5.341096e-06	-1.184839e-09	-3.723914e+01	-7.663630e+01
3.000000e-07	-5.329226e-06	-1.180356e-09	-3.715638e+01	-7.655623e+01
3.100000e-07	-5.316945e-06	-1.164521e-09	-3.707075e+01	-7.647152e+01
3.200000e-07	-5.304237e-06	-1.177076e-09	-3.698215e+01	-7.638209e+01
3.300000e-07	-5.291148e-06	-1.171748e-09	-3.689089e+01	-7.628786e+01
3.400000e-07	-5.277680e-06	-1.165399e-09	-3.679699e+01	-7.618879e+01
3.500000e-07	-5.263850e-06	-1.146508e-09	-3.670056e+01	-7.608484e+01
3.600000e-07	-5.249577e-06	-1.169414e-09	-3.660105e+01	-7.597599e+01
3.700000e-07	-5.234678e-06	-1.158699e-09	-3.649717e+01	-7.586222e+01
3.800000e-07	-5.219164e-06	-1.161348e-09	-3.638900e+01	-7.574353e+01
3.900000e-07	-5.203188e-06	-1.166007e-09	-3.627762e+01	-7.561995e+01
4.000000e-07	-5.186866e-06	-1.159858e-09	-3.616382e+01	-7.549149e+01
4.100000e-07	-5.170161e-06	-1.121534e-09	-3.604735e+01	-7.535819e+01
4.200000e-07	-5.153097e-06	-1.151258e-09	-3.592837e+01	-7.522009e+01
4.300000e-07	-5.135730e-06	-1.176681e-09	-3.580729e+01	-7.507724e+01
4.400000e-07	-5.118061e-06	-1.143623e-09	-3.568409e+01	-7.492970e+01
4.500000e-07	-5.100056e-06	-1.118624e-09	-3.555856e+01	-7.477752e+01
4.600000e-07	-5.081664e-06	-1.164435e-09	-3.543032e+01	-7.462078e+01
4.700000e-07	-5.062827e-06	-1.144826e-09	-3.529899e+01	-7.445955e+01
4.800000e-07	-5.043618e-06	-1.097420e-09	-3.516506e+01	-7.429388e+01
4.900000e-07	-5.024147e-06	-1.122598e-09	-3.502931e+01	-7.412386e+01
5.000000e-07	-5.004472e-06	-1.153664e-09	-3.489213e+01	-7.394954e+01
5.100000e-07	-4.984603e-06	-1.106318e-09	-3.475360e+01	-7.377101e+01
5.200000e-07	-4.964464e-06	-1.105648e-09	-3.461319e+01	-7.358832e+01
5.300000e-07	-4.944010e-06	-1.143987e-09	-3.447057e+01	-7.340154e+01
5.400000e-07	-4.923168e-06	-1.112643e-09	-3.432526e+01	-7.321073e+01
5.500000e-07	-4.901920e-06	-1.079205e-09	-3.417711e+01	-7.301594e+01
5.600000e-07	-4.880278e-06	-1.116255e-09	-3.402622e+01	-7.281722e+01
5.700000e-07	-4.858342e-06	-1.116819e-09	-3.387328e+01	-7.261463e+01
5.800000e-07	-4.836204e-06	-1.076760e-09	-3.371893e+01	-7.240819e+01
5.900000e-07	-4.813686e-06	-1.096537e-09	-3.356193e+01	-7.219794e+01
6.000000e-07	-4.790798e-06	-1.113834e-09	-3.340236e+01	-7.198391e+01
6.100000e-07	-4.767583e-06	-1.082347e-09	-3.324050e+01	-7.176613e+01
6.200000e-07	-4.744068e-06	-1.075476e-09	-3.307654e+01	-7.154461e+01
6.300000e-07	-4.720351e-06	-1.100493e-09	-3.291118e+01	-7.131936e+01
6.400000e-07	-4.696378e-06	-1.080706e-09	-3.274404e+01	-7.109040e+01
6.500000e-07	-4.672105e-06	-1.068640e-09	-3.257480e+01	-7.085772e+01
6.600000e-07	-4.647404e-06	-1.082034e-09	-3.240259e+01	-7.062133e+01
6.700000e-07	-4.622099e-06	-1.076986e-09	-3.222615e+01	-7.038123e+01
6.800000e-07	-4.596248e-06	-1.053320e-09	-3.204592e+01	-7.013740e+01
6.900000e-07	-4.569866e-06	-1.065805e-09	-3.186197e+01	-6.988984e+01
7.000000e-07	-4.542980e-06	-1.067797e-09	-3.167452e+01	-6.963855e+01
7.100000e-07	-4.515747e-06	-1.053260e-09	-3.148464e+01	-6.938350e+01
7.200000e-07	-4.488286e-06	-1.047650e-09	-3.129318e+01	-6.912469e+01
7.300000e-07	-4.460682e-06	-1.054554e-09	-3.110072e+01	-6.886211e+01
7.400000e-07	-4.432915e-06	-1.040259e-09	-3.090712e+01	-6.859575e+01
7.500000e-07	-4.404946e-06	-1.034439e-09	-3.071212e+01	-6.832560e+01
7.600000e-07	-4.376701e-06	-1.035910e-09	-3.051519e+01	-6.805165e+01
7.700000e-07	-4.348084e-06	-1.032224e-09	-3.031566e+01	-6.777391e+01
7.800000e-07	-4.319111e-06	-1.022651e-09	-3.011366e+01	-6.749237e+01
7.900000e-07	-4.289877e-06	-1.022273e-09	-2.990983e+01	-6.720703e+01
8.000000e-07	-4.260302e-06	-1.014114e-09	-2.970363e+01	-6.691791e+01
8.100000e-07	-4.230409e-06	-1.002472e-09	-2.949522e+01	-6.662501e+01
8.200000e-07	-4.200280e-06	-9.966821e-10	-2.928515e+01	-6.632834e+01
8.300000e-07	-4.169875e-06	-9.915850e-10	-2.907316e+01	-6.602793e+01
8.400000e-07	-4.139167e-06	-9.818847e-10	-2.885906e+01	-6.572379e+01
8.500000e-07	-4.108175e-06	-9.795347e-10	-2.864297e+01	-6.541596e+01
8.600000e-07	-4.076981e-06	-9.816744e-10	-2.842548e+01	-6.510447e+01
8.700000e-07	-4.045670e-06	-9.755400e-10	-2.820718e+01	-6.478934e+01
8.800000e-07	-4.014213e-06	-9.698768e-10	-2.798785e+01	-6.447061e+01
8.900000e-07	-3.982545e-06	-9.683257e-10	-2.776706e+01	-6.414832e+01
9.000000e-07	-3.950692e-06	-9.581670e-10	-2.754497e+01	-6.382252e+01
9.100000e-07	-3.918543e-06	-9.427216e-10	-2.732083e+01	-6.349325e+01
9.200000e-07	-3.885968e-06	-9.375613e-10	-2.709370e+01	-6.316055e+01
9.300000e-07	-3.852992e-06	-9.289615e-10	-2.686379e+01	-6.282447e+01
9.400000e-07	-3.819497e-06	-9.207949e-10	-2.663026e+01	-6.248505e+01
9.500000e-07	-3.785409e-06	-9.191521e-10	-2.639259e+01	-6.214234e+01
9.600000e-07	-3.750950e-06	-9.208162e-10	-2.615233e+01	-6.179639e+01
9.700000e-07	-3.716109e-06	-9.106826e-10	-2.590942e+01	-6.144723e+01
9.800000e-07	-3.680892e-06	-9.034339e-10	-2.566388e+01	-6.109490e+01
9.900000e-07	-3.645475e-06	-8.976081e-10	-2.541695e+01	-6.073945e+01
1.000000e-06	-3.609910e-06	-8.885916e-10	-2.516898e+01	-6.038091e+01
1.010000e-06	-3.574243e-06	-8.783224e-10	-2.492030e+01	-6.001930e+01
1.020000e-06	-3.538493e-06	-8.781421e-10	-2.467105e+01	-5.965466e+01
1.030000e-06	-3.502631e-06	-8.743364e-10	-2.442101e+01	-5.928700e+01
1.040000e-06	-3.466539e-06	-8.705566e-10	-2.416937e+01	-5.891634e+01
1.050000e-06	-3.430083e-06	-8.700499e-10	-2.391519e+01	-5.854269e+01
1.060000e-06	-3.393308e-06	-8.678788e-10	-2.365879e+01	-5.816606e+01
1.070000e-06	-3.356337e-06	-8.549557e-10	-2.340102e+01	-5.778644e+01
1.080000e-06	-3.319121e-06	-8.466877e-10	-2.314154e+01	-5.740383e+01
1.090000e-06	-3.281662e-06	-8.440091e-10	-2.288037e+01	-5.701820e+01
1.100000e-06	-3.244050e-06	-8.369753e-10	-2.261813e+01	-5.662955e+01
1.110000e-06	-3.206267e-06	-8.270025e-10	-2.235470e+01	-5.623785e+01
1.120000e-06	-3.168308e-06	-8.238668e-10	-2.209005e+01	-5.584306e+01
1.130000e-06	-3.130087e-06	-8.217796e-10	-2.182356e+01	-5.544514e+01
1.140000e-06	-3.091557e-06	-8.145268e-10	-2.155492e+01	-5.504405e+01
1.150000e-06	-3.052767e-06	-8.101274e-10	-2.128447e+01	-5.463974e+01
1.160000e-06	-3.013723e-06	-8.072744e-10	-2.101225e+01	-5.423215e+01
1.170000e-06	-2.974471e-06	-7.987070e-10	-2.073858e+01	-5.382121e+01
1.180000e-06	-2.935100e-06	-7.891453e-10	-2.046407e+01	-5.340687e+01
1.190000e-06	-2.895658e-06	-7.833494e-10	-2.018908e+01	-5.298904e+01
1.200000e-06	-2.856119e-06	-7.740086e-10	-1.991340e+01	-5.256765e+01
1.210000e-06	-2.816472e-06	-7.659217e-10	-1.963698e+01	-5.214262e+01
1.220000e-06	-2.776695e-06	-7.619991e-10	-1.935965e+01	-5.171386e+01
1.230000e-06	-2.736775e-06	-7.584023e-10	-1.908132e+01	-5.128127e+01
1.240000e-06	-2.696624e-06	-7.503547e-10	-1.880137e+01	-5.084476e+01
1.250000e-06	-2.656217e-06	-7.438577e-10	-1.851965e+01	-5.040422e+01
1.260000e-06	-2.615632e-06	-7.352171e-10	-1.823669e+01	-4.995956e+01
1.270000e-06	-2.574830e-06	-7.233624e-10	-1.795220e+01	-4.951065e+01
1.280000e-06	-2.533751e-06	-7.132125e-10	-1.766579e+01	-4.905738e+01
1.290000e-06	-2.492412e-06	-7.081627e-10	-1.737757e+01	-4.859963e+01
1.300000e-06	-2.450751e-06	-6.998425e-10	-1.708710e+01	-4.813727e+01
1.310000e-06	-2.408706e-06	-6.895866e-10	-1.679395e+01	-4.767016e+01
1.320000e-06	-2.366361e-06	-6.812076e-10	-1.649871e+01	-4.719816e+01
1.330000e-06	-2.323658e-06	-6.728529e-10	-1.620099e+01	-4.672113e+01
1.340000e-06	-2.280687e-06	-6.625710e-10	-1.590138e+01	-4.623890e+01
1.350000e-06	-2.237581e-06	-6.561257e-10	-1.560084e+01	-4.575132e+01
1.360000e-06	-2.194258e-06	-6.521282e-10	-1.529879e+01	-4.525820e+01
1.370000e-06	-2.150812e-06	-6.466335e-10	-1.499587e+01	-4.475936e+01
1.380000e-06	-2.107337e-06	-6.383303e-10	-1.469275e+01	-4.425461e+01
1.390000e-06	-2.063817e-06	-6.293840e-10	-1.438932e+01	-4.374374e+01
1.400000e-06	-2.020190e-06	-6.171535e-10	-1.408515e+01	-4.322653e+01
1.410000e-06	-1.976425e-06	-6.048379e-10	-1.378001e+01	-4.270275e+01
1.420000e-06	-1.932598e-06	-5.964257e-10	-1.347444e+01	-4.217214e+01
1.430000e-06	-1.888759e-06	-5.892023e-10	-1.316879e+01	-4.163446e+01
1.440000e-06	-1.844877e-06	-5.818432e-10	-1.286283e+01	-4.108943e+01
1.450000e-06	-1.800832e-06	-5.741032e-10	-1.255574e+01	-4.053675e+01
1.460000e-06	-1.756589e-06	-5.661648e-10	-1.224727e+01	-3.997612e+01
1.470000e-06	-1.712292e-06	-5.554873e-10	-1.193842e+01	-3.940722e+01
1.480000e-06	-1.667887e-06	-5.435318e-10	-1.162883e+01	-3.882971e+01
1.490000e-06	-1.623279e-06	-5.325342e-10	-1.131781e+01	-3.824324e+01
1.500000e-06	-1.578520e-06	-5.239419e-10	-1.100574e+01	-3.764744e+01
1.510000e-06	-1.533616e-06	-5.167391e-10	-1.069266e+01	-3.704192e+01
1.520000e-06	-1.488622e-06	-5.096265e-10	-1.037896e+01	-3.642629e+01
1.530000e-06	-1.443491e-06	-5.013446e-10	-1.006429e+01	-3.580013e+01
1.540000e-06	-1.398227e-06	-4.935093e-10	-9.748704e+00	-3.516302e+01
1.550000e-06	-1.352941e-06	-4.848323e-10	-9.432962e+00	-3.451453e+01
1.560000e-06	-1.307564e-06	-4.743356e-10	-9.116587e+00	-3.385421e+01
1.570000e-06	-1.262062e-06	-4.634329e-10	-8.799338e+00	-3.318160e+01
1.580000e-06	-1.216556e-06	-4.529149e-10	-8.482060e+00	-3.249625e+01
1.590000e-06	-1.171006e-06	-4.411764e-10	-8.164477e+00	-3.179770e+01
1.600000e-06	-1.125339e-06	-4.295094e-10	-7.846075e+00	-3.108548e+01
1.610000e-06	-1.079619e-06	-4.176143e-10	-7.527306e+00	-3.035913e+01
1.620000e-06	-1.033838e-06	-4.034290e-10	-7.208112e+00	-2.961820e+01
1.630000e-06	-9.879419e-07	-3.891436e-10	-6.888119e+00	-2.886224e+01
1.640000e-06	-9.418786e-07	-3.780576e-10	-6.566957e+00	-2.809080e+01
1.650000e-06	-8.956778e-07	-3.664333e-10	-6.244836e+00	-2.730348e+01
1.660000e-06	-8.494103e-07	-3.536008e-10	-5.922250e+00	-2.649985e+01
1.670000e-06	-8.031326e-07	-3.419320e-10	-5.599593e+00	-2.567954e+01
1.680000e-06	-7.568558e-07	-3.314691e-10	-5.276943e+00	-2.484220e+01
1.690000e-06	-7.105772e-07	-3.202731e-10	-4.954279e+00	-2.398749e+01
1.700000e-06	-6.642690e-07	-3.092403e-10	-4.631409e+00	-2.311511e+01
1.710000e-06	-6.178649e-07	-2.982141e-10	-4.307871e+00	-2.222482e+01
1.720000e-06	-5.713806e-07	-2.838980e-10	-3.983774e+00	-2.131639e+01
1.730000e-06	-5.248662e-07	-2.685203e-10	-3.659467e+00	-2.038964e+01
1.740000e-06	-4.783041e-07	-2.543832e-10	-3.334827e+00	-1.944447e+01
1.750000e-06	-4.317214e-07	-2.405427e-10	-3.010043e+00	-1.848078e+01
1.760000e-06	-3.851051e-07	-2.258742e-10	-2.685026e+00	-1.749856e+01
1.770000e-06	-3.383682e-07	-2.121013e-10	-2.359168e+00	-1.649786e+01
1.780000e-06	-2.915594e-07	-1.981058e-10	-2.032807e+00	-1.547877e+01
1.790000e-06	-2.447758e-07	-1.841237e-10	-1.706623e+00	-1.444145e+01
1.800000e-06	-1.980160e-07	-1.707912e-10	-1.380605e+00	-1.338613e+01
1.810000e-06	-1.512656e-07	-1.561864e-10	-1.054652e+00	-1.231311e+01
1.820000e-06	-1.045453e-07	-1.394797e-10	-7.289096e-01	-1.122275e+01
1.830000e-06	-5.776819e-08	-1.202530e-10	-4.027708e-01	-1.011547e+01
1.840000e-06	-1.095781e-08	-1.003055e-10	-7.639991e-02	-8.991782e+00
1.850000e-06	3.579699e-08	-8.200976e-11	2.495834e-01	-7.852257e+00
1.860000e-06	8.255275e-08	-6.669055e-11	5.755735e-01	-6.697535e+00
1.870000e-06	1.292681e-07	-5.155956e-11	9.012819e-01	-5.528326e+00
1.880000e-06	1.758993e-07	-3.610528e-11	1.226403e+00	-4.345406e+00
1.890000e-06	2.225077e-07	-2.246191e-11	1.551366e+00	-3.149620e+00
1.900000e-06	2.690895e-07	-6.925644e-12	1.876143e+00	-1.941874e+00
1.910000e-06	3.157048e-07	1.226571e-11	2.201154e+00	-7.231351e-01
1.920000e-06	3.623442e-07	3.408164e-11	2.526332e+00	5.055707e-01
1.930000e-06	4.089675e-07	5.702787e-11	2.851399e+00	1.743164e+00
1.940000e-06	4.555563e-07	7.834195e-11	3.176225e+00	2.988516e+00
1.950000e-06	5.020106e-07	9.631176e-11	3.500113e+00	4.240450e+00
1.960000e-06	5.484115e-07	1.086792e-10	3.823629e+00	5.497752e+00
1.970000e-06	5.948234e-07	1.196010e-10	4.147221e+00	6.759169e+00
1.980000e-06	6.411994e-07	1.332407e-10	4.470564e+00	8.023421e+00
1.990000e-06	6.875268e-07	1.497616e-10	4.793567e+00	9.289201e+00
2.000000e-06	7.337785e-07	1.706873e-10	5.116043e+00	1.055519e+01
2.010000e-06	7.799962e-07	1.932307e-10	5.438281e+00	1.182004e+01
2.020000e-06	8.261765e-07	2.135612e-10	5.760259e+00	1.308242e+01
2.030000e-06	8.721978e-07	2.333863e-10	6.081129e+00	1.434099e+01
2.040000e-06	9.181296e-07	2.522179e-10	6.401374e+00	1.559441e+01
2.050000e-06	9.640281e-07	2.679887e-10	6.721387e+00	1.684137e+01
2.060000e-06	1.009881e-06	2.829377e-10	7.041082e+00	1.808056e+01
2.070000e-06	1.055694e-06	2.990193e-10	7.360500e+00	1.931072e+01
2.080000e-06	1.101423e-06	3.164641e-10	7.679332e+00	2.053061e+01
2.090000e-06	1.147120e-06	3.361095e-10	7.997937e+00	2.173902e+01
2.100000e-06	1.192737e-06	3.563991e-10	8.315985e+00	2.293481e+01
2.110000e-06	1.238256e-06	3.736703e-10	8.633358e+00	2.411688e+01
2.120000e-06	1.283737e-06	3.889190e-10	8.950455e+00	2.528417e+01
2.130000e-06	1.329099e-06	4.044354e-10	9.266727e+00	2.643569e+01
2.140000e-06	1.374382e-06	4.196111e-10	9.582453e+00	2.757054e+01
2.150000e-06	1.419610e-06	4.328429e-10	9.897791e+00	2.868786e+01
2.160000e-06	1.464696e-06	4.466190e-10	1.021214e+01	2.978688e+01
2.170000e-06	1.509657e-06	4.606963e-10	1.052562e+01	3.086688e+01
2.180000e-06	1.554489e-06	4.739484e-10	1.083819e+01	3.192725e+01
2.190000e-06	1.599218e-06	4.889864e-10	1.115005e+01	3.296745e+01
2.200000e-06	1.643741e-06	5.055980e-10	1.146048e+01	3.398701e+01
2.210000e-06	1.688065e-06	5.201215e-10	1.176951e+01	3.498556e+01
2.220000e-06	1.732341e-06	5.324646e-10	1.207821e+01	3.596280e+01
2.230000e-06	1.776529e-06	5.443620e-10	1.238629e+01	3.691852e+01
2.240000e-06	1.820556e-06	5.561971e-10	1.269326e+01	3.785259e+01
2.250000e-06	1.864461e-06	5.683834e-10	1.299937e+01	3.876496e+01
2.260000e-06	1.908277e-06	5.818292e-10	1.330487e+01	3.965565e+01
2.270000e-06	1.952030e-06	5.945037e-10	1.360992e+01	4.052478e+01
2.280000e-06	1.995752e-06	6.051661e-10	1.391476e+01	4.137252e+01
2.290000e-06	2.039371e-06	6.155308e-10	1.421888e+01	4.219912e+01
2.300000e-06	2.082910e-06	6.258821e-10	1.452245e+01	4.300488e+01
2.310000e-06	2.126404e-06	6.357772e-10	1.482569e+01	4.379019e+01
2.320000e-06	2.169788e-06	6.463712e-10	1.512817e+01	4.455547e+01
2.330000e-06	2.213074e-06	6.588245e-10	1.542997e+01	4.530120e+01
2.340000e-06	2.256313e-06	6.715502e-10	1.573144e+01	4.602791e+01
2.350000e-06	2.299392e-06	6.828070e-10	1.603180e+01	4.673618e+01
2.360000e-06	2.342181e-06	6.916638e-10	1.633013e+01	4.742660e+01
2.370000e-06	2.384698e-06	6.983136e-10	1.662656e+01	4.809982e+01
2.380000e-06	2.426920e-06	7.040798e-10	1.692095e+01	4.875648e+01
2.390000e-06	2.468768e-06	7.121208e-10	1.721272e+01	4.939727e+01
2.400000e-06	2.510239e-06	7.220642e-10	1.750186e+01	5.002287e+01
2.410000e-06	2.551461e-06	7.328996e-10	1.778927e+01	5.063398e+01
2.420000e-06	2.592435e-06	7.443545e-10	1.807495e+01	5.123130e+01
2.430000e-06	2.633216e-06	7.545366e-10	1.835928e+01	5.181552e+01
2.440000e-06	2.673743e-06	7.619274e-10	1.864185e+01	5.238732e+01
2.450000e-06	2.713899e-06	7.676069e-10	1.892182e+01	5.294737e+01
2.460000e-06	2.753880e-06	7.731524e-10	1.920057e+01	5.349631e+01
2.470000e-06	2.793763e-06	7.788328e-10	1.947865e+01	5.403479e+01
2.480000e-06	2.833546e-06	7.847411e-10	1.975602e+01	5.456338e+01
2.490000e-06	2.873189e-06	7.919270e-10	2.003242e+01	5.508266e+01
2.500000e-06	2.912703e-06	8.014044e-10	2.030792e+01	5.559317e+01
2.510000e-06	2.952148e-06	8.115755e-10	2.058293e+01	5.609541e+01
2.520000e-06	2.991386e-06	8.203775e-10	2.085651e+01	5.658983e+01
2.530000e-06	3.030399e-06	8.279487e-10	2.112852e+01	5.707685e+01
2.540000e-06	3.069266e-06	8.356212e-10	2.139951e+01	5.755685e+01
2.550000e-06	3.107900e-06	8.429984e-10	2.166887e+01	5.803016e+01
2.560000e-06	3.146260e-06	8.483754e-10	2.193632e+01	5.849708e+01
2.570000e-06	3.184386e-06	8.541205e-10	2.220215e+01	5.895787e+01
2.580000e-06	3.222321e-06	8.627245e-10	2.246663e+01	5.941271e+01
2.590000e-06	3.260012e-06	8.723937e-10	2.272943e+01	5.986179e+01
2.600000e-06	3.297468e-06	8.803156e-10	2.299057e+01	6.030523e+01
2.610000e-06	3.334760e-06	8.860544e-10	2.325058e+01	6.074313e+01
2.620000e-06	3.371772e-06	8.919125e-10	2.350864e+01	6.117552e+01
2.630000e-06	3.408487e-06	8.989300e-10	2.376462e+01	6.160244e+01
2.640000e-06	3.444953e-06	9.056506e-10	2.401887e+01	6.202387e+01
2.650000e-06	3.481136e-06	9.108580e-10	2.427114e+01	6.243977e+01
2.660000e-06	3.517128e-06	9.173060e-10	2.452209e+01	6.285009e+01
2.670000e-06	3.553009e-06	9.246170e-10	2.477225e+01	6.325474e+01
2.680000e-06	3.588752e-06	9.297495e-10	2.502146e+01	6.365361e+01
2.690000e-06	3.624287e-06	9.323976e-10	2.526922e+01	6.404658e+01
2.700000e-06	3.659655e-06	9.355821e-10	2.551581e+01	6.443354e+01
2.710000e-06	3.694907e-06	9.424167e-10	2.576159e+01	6.481434e+01
2.720000e-06	3.729888e-06	9.508675e-10	2.600549e+01	6.518884e+01
2.730000e-06	3.764555e-06	9.584858e-10	2.624719e+01	6.555691e+01
2.740000e-06	3.798815e-06	9.651195e-10	2.648606e+01	6.591840e+01
2.750000e-06	3.832545e-06	9.699484e-10	2.672123e+01	6.627318e+01
2.760000e-06	3.865846e-06	9.730633e-10	2.695341e+01	6.662114e+01
2.770000e-06	3.898705e-06	9.750937e-10	2.718251e+01	6.696215e+01
2.780000e-06	3.931166e-06	9.764162e-10	2.740884e+01	6.729613e+01
2.790000e-06	3.963307e-06	9.788840e-10	2.763293e+01	6.762298e+01
2.800000e-06	3.995201e-06	9.828690e-10	2.785530e+01	6.794265e+01
2.810000e-06	4.026949e-06	9.876564e-10	2.807666e+01	6.825509e+01
2.820000e-06	4.058511e-06	9.953934e-10	2.829671e+01	6.856028e+01
2.830000e-06	4.089883e-06	1.003294e-09	2.851544e+01	6.885821e+01
2.840000e-06	4.121014e-06	1.008641e-09	2.873249e+01	6.914890e+01
2.850000e-06	4.151853e-06	1.011304e-09	2.894751e+01	6.943241e+01
2.860000e-06	4.182436e-06	1.011412e-09	2.916073e+01	6.970879e+01
2.870000e-06	4.212660e-06	1.011780e-09	2.937147e+01	6.997813e+01
2.880000e-06	4.242532e-06	1.013858e-09	2.957974e+01	7.024055e+01
2.890000e-06	4.272160e-06	1.018473e-09	2.978631e+01	7.049618e+01
2.900000e-06	4.301515e-06	1.024688e-09	2.999098e+01	7.074516e+01
2.910000e-06	4.330517e-06	1.032761e-09	3.019319e+01	7.098767e+01
