# Temperatura_=_7.8
# Concentracion g/m^3_=_1620.0
# C_Vs_to_Am_M_A/Vsm_=_65563218390.804596
# pendiente_HvsI_1/m_=_3716.3
# ordenada_HvsI_A/m_=_1297.0
# frecuencia_Hz_=_135107.93517257506

Tiempo_(s)	Campo_(V.s)	Magnetizacion_(V.s)	Campo_(kA/m)	Magnetizacion_(A/m)
0.000000e+00	-5.512392e-06	-1.224438e-09	-3.836953e+01	-8.056484e+01
1.000000e-08	-5.512562e-06	-1.220229e-09	-3.837071e+01	-8.054953e+01
2.000000e-08	-5.512539e-06	-1.218049e-09	-3.837056e+01	-8.053345e+01
3.000000e-08	-5.512213e-06	-1.218055e-09	-3.836829e+01	-8.051648e+01
4.000000e-08	-5.511381e-06	-1.218447e-09	-3.836250e+01	-8.049852e+01
5.000000e-08	-5.509910e-06	-1.217917e-09	-3.835226e+01	-8.047944e+01
6.000000e-08	-5.507895e-06	-1.214047e-09	-3.833823e+01	-8.045908e+01
7.000000e-08	-5.505371e-06	-1.206085e-09	-3.832066e+01	-8.043732e+01
8.000000e-08	-5.502304e-06	-1.204819e-09	-3.829932e+01	-8.041398e+01
9.000000e-08	-5.498787e-06	-1.228756e-09	-3.827483e+01	-8.038892e+01
1.000000e-07	-5.494812e-06	-1.269191e-09	-3.824716e+01	-8.036197e+01
1.100000e-07	-5.490433e-06	-1.256204e-09	-3.821669e+01	-8.033296e+01
1.200000e-07	-5.485894e-06	-1.194434e-09	-3.818509e+01	-8.030173e+01
1.300000e-07	-5.481215e-06	-1.171186e-09	-3.815252e+01	-8.026810e+01
1.400000e-07	-5.476211e-06	-1.228185e-09	-3.811769e+01	-8.023190e+01
1.500000e-07	-5.470697e-06	-1.243003e-09	-3.807931e+01	-8.019297e+01
1.600000e-07	-5.464734e-06	-1.201480e-09	-3.803781e+01	-8.015114e+01
1.700000e-07	-5.458468e-06	-1.176066e-09	-3.799419e+01	-8.010626e+01
1.800000e-07	-5.451822e-06	-1.238471e-09	-3.794793e+01	-8.005815e+01
1.900000e-07	-5.444665e-06	-1.255814e-09	-3.789811e+01	-8.000668e+01
2.000000e-07	-5.437167e-06	-1.209976e-09	-3.784592e+01	-7.995169e+01
2.100000e-07	-5.429520e-06	-1.196736e-09	-3.779269e+01	-7.989306e+01
2.200000e-07	-5.421583e-06	-1.249646e-09	-3.773745e+01	-7.983064e+01
2.300000e-07	-5.413273e-06	-1.276320e-09	-3.767961e+01	-7.976433e+01
2.400000e-07	-5.404660e-06	-1.243854e-09	-3.761966e+01	-7.969401e+01
2.500000e-07	-5.395546e-06	-1.221950e-09	-3.755621e+01	-7.961957e+01
2.600000e-07	-5.385593e-06	-1.228237e-09	-3.748694e+01	-7.954093e+01
2.700000e-07	-5.374902e-06	-1.245016e-09	-3.741252e+01	-7.945801e+01
2.800000e-07	-5.363803e-06	-1.222984e-09	-3.733527e+01	-7.937074e+01
2.900000e-07	-5.352347e-06	-1.213726e-09	-3.725553e+01	-7.927904e+01
3.000000e-07	-5.340487e-06	-1.221519e-09	-3.717297e+01	-7.918289e+01
3.100000e-07	-5.328311e-06	-1.233804e-09	-3.708822e+01	-7.908223e+01
3.200000e-07	-5.315749e-06	-1.208096e-09	-3.700078e+01	-7.897703e+01
3.300000e-07	-5.302639e-06	-1.201311e-09	-3.690953e+01	-7.886729e+01
3.400000e-07	-5.289135e-06	-1.213977e-09	-3.681553e+01	-7.875297e+01
3.500000e-07	-5.275343e-06	-1.224796e-09	-3.671953e+01	-7.863410e+01
3.600000e-07	-5.261044e-06	-1.197375e-09	-3.662000e+01	-7.851067e+01
3.700000e-07	-5.246274e-06	-1.199687e-09	-3.651719e+01	-7.838269e+01
3.800000e-07	-5.231005e-06	-1.214559e-09	-3.641091e+01	-7.825019e+01
3.900000e-07	-5.215058e-06	-1.199962e-09	-3.629991e+01	-7.811320e+01
4.000000e-07	-5.198598e-06	-1.170982e-09	-3.618534e+01	-7.797175e+01
4.100000e-07	-5.181805e-06	-1.200374e-09	-3.606845e+01	-7.782589e+01
4.200000e-07	-5.164755e-06	-1.214331e-09	-3.594977e+01	-7.767565e+01
4.300000e-07	-5.147426e-06	-1.174228e-09	-3.582915e+01	-7.752108e+01
4.400000e-07	-5.129745e-06	-1.172513e-09	-3.570608e+01	-7.736225e+01
4.500000e-07	-5.111760e-06	-1.210085e-09	-3.558089e+01	-7.719919e+01
4.600000e-07	-5.093375e-06	-1.186103e-09	-3.545292e+01	-7.703198e+01
4.700000e-07	-5.074496e-06	-1.147976e-09	-3.532151e+01	-7.686065e+01
4.800000e-07	-5.055285e-06	-1.181332e-09	-3.518780e+01	-7.668528e+01
4.900000e-07	-5.035826e-06	-1.194930e-09	-3.505235e+01	-7.650592e+01
5.000000e-07	-5.016133e-06	-1.161240e-09	-3.491527e+01	-7.632262e+01
5.100000e-07	-4.996252e-06	-1.164068e-09	-3.477689e+01	-7.613545e+01
5.200000e-07	-4.976086e-06	-1.181569e-09	-3.463652e+01	-7.594446e+01
5.300000e-07	-4.955558e-06	-1.147941e-09	-3.449364e+01	-7.574969e+01
5.400000e-07	-4.934739e-06	-1.145916e-09	-3.434872e+01	-7.555121e+01
5.500000e-07	-4.913564e-06	-1.175509e-09	-3.420133e+01	-7.534905e+01
5.600000e-07	-4.892027e-06	-1.160044e-09	-3.405142e+01	-7.514327e+01
5.700000e-07	-4.870221e-06	-1.133747e-09	-3.389964e+01	-7.493391e+01
5.800000e-07	-4.848010e-06	-1.157494e-09	-3.374504e+01	-7.472100e+01
5.900000e-07	-4.825386e-06	-1.154006e-09	-3.358756e+01	-7.450458e+01
6.000000e-07	-4.802455e-06	-1.127296e-09	-3.342795e+01	-7.428468e+01
6.100000e-07	-4.779205e-06	-1.134560e-09	-3.326612e+01	-7.406134e+01
6.200000e-07	-4.755669e-06	-1.144311e-09	-3.310229e+01	-7.383457e+01
6.300000e-07	-4.731915e-06	-1.120349e-09	-3.293695e+01	-7.360440e+01
6.400000e-07	-4.707960e-06	-1.120558e-09	-3.277021e+01	-7.337084e+01
6.500000e-07	-4.683778e-06	-1.128329e-09	-3.260188e+01	-7.313393e+01
6.600000e-07	-4.659206e-06	-1.112128e-09	-3.243085e+01	-7.289365e+01
6.700000e-07	-4.634082e-06	-1.102900e-09	-3.225597e+01	-7.265004e+01
6.800000e-07	-4.608489e-06	-1.112346e-09	-3.207783e+01	-7.240308e+01
6.900000e-07	-4.582359e-06	-1.102441e-09	-3.189595e+01	-7.215280e+01
7.000000e-07	-4.555609e-06	-1.093788e-09	-3.170975e+01	-7.189918e+01
7.100000e-07	-4.528363e-06	-1.097119e-09	-3.152011e+01	-7.164222e+01
7.200000e-07	-4.500809e-06	-1.088349e-09	-3.132831e+01	-7.138193e+01
7.300000e-07	-4.473108e-06	-1.077343e-09	-3.113550e+01	-7.111830e+01
7.400000e-07	-4.445316e-06	-1.079917e-09	-3.094205e+01	-7.085132e+01
7.500000e-07	-4.417394e-06	-1.075095e-09	-3.074769e+01	-7.058099e+01
7.600000e-07	-4.389211e-06	-1.065111e-09	-3.055152e+01	-7.030728e+01
7.700000e-07	-4.360623e-06	-1.067067e-09	-3.035253e+01	-7.003019e+01
7.800000e-07	-4.331682e-06	-1.063019e-09	-3.015109e+01	-6.974971e+01
7.900000e-07	-4.302501e-06	-1.049815e-09	-2.994797e+01	-6.946581e+01
8.000000e-07	-4.273052e-06	-1.045431e-09	-2.974299e+01	-6.917849e+01
8.100000e-07	-4.243298e-06	-1.041427e-09	-2.953589e+01	-6.888771e+01
8.200000e-07	-4.213252e-06	-1.022246e-09	-2.932675e+01	-6.859347e+01
8.300000e-07	-4.182882e-06	-1.012490e-09	-2.911535e+01	-6.829574e+01
8.400000e-07	-4.152220e-06	-1.013814e-09	-2.890193e+01	-6.799449e+01
8.500000e-07	-4.121342e-06	-1.010194e-09	-2.868699e+01	-6.768970e+01
8.600000e-07	-4.090123e-06	-1.005771e-09	-2.846969e+01	-6.738135e+01
8.700000e-07	-4.058509e-06	-1.010649e-09	-2.824964e+01	-6.706941e+01
8.800000e-07	-4.026757e-06	-1.004509e-09	-2.802863e+01	-6.675384e+01
8.900000e-07	-3.994956e-06	-9.923429e-10	-2.780727e+01	-6.643461e+01
9.000000e-07	-3.962994e-06	-9.844732e-10	-2.758480e+01	-6.611170e+01
9.100000e-07	-3.930819e-06	-9.773493e-10	-2.736084e+01	-6.578507e+01
9.200000e-07	-3.898327e-06	-9.619779e-10	-2.713468e+01	-6.545468e+01
9.300000e-07	-3.865428e-06	-9.578122e-10	-2.690568e+01	-6.512050e+01
9.400000e-07	-3.832105e-06	-9.601560e-10	-2.667374e+01	-6.478248e+01
9.500000e-07	-3.798265e-06	-9.541638e-10	-2.643819e+01	-6.444059e+01
9.600000e-07	-3.763899e-06	-9.488013e-10	-2.619898e+01	-6.409479e+01
9.700000e-07	-3.729152e-06	-9.464797e-10	-2.595712e+01	-6.374503e+01
9.800000e-07	-3.694068e-06	-9.370053e-10	-2.571291e+01	-6.339127e+01
9.900000e-07	-3.658702e-06	-9.259859e-10	-2.546675e+01	-6.303347e+01
1.000000e-06	-3.623166e-06	-9.221033e-10	-2.521940e+01	-6.267158e+01
1.010000e-06	-3.587523e-06	-9.200172e-10	-2.497130e+01	-6.230556e+01
1.020000e-06	-3.551720e-06	-9.159375e-10	-2.472209e+01	-6.193536e+01
1.030000e-06	-3.515731e-06	-9.123872e-10	-2.447158e+01	-6.156093e+01
1.040000e-06	-3.479549e-06	-9.078384e-10	-2.421973e+01	-6.118225e+01
1.050000e-06	-3.443077e-06	-9.000818e-10	-2.396587e+01	-6.079925e+01
1.060000e-06	-3.406307e-06	-8.927544e-10	-2.370993e+01	-6.041189e+01
1.070000e-06	-3.369334e-06	-8.871902e-10	-2.345258e+01	-6.002014e+01
1.080000e-06	-3.332133e-06	-8.794179e-10	-2.319363e+01	-5.962395e+01
1.090000e-06	-3.294682e-06	-8.730170e-10	-2.293295e+01	-5.922328e+01
1.100000e-06	-3.257012e-06	-8.705244e-10	-2.267074e+01	-5.881810e+01
1.110000e-06	-3.219179e-06	-8.632088e-10	-2.240741e+01	-5.840837e+01
1.120000e-06	-3.181111e-06	-8.537347e-10	-2.214243e+01	-5.799406e+01
1.130000e-06	-3.142752e-06	-8.435885e-10	-2.187543e+01	-5.757513e+01
1.140000e-06	-3.104136e-06	-8.343141e-10	-2.160664e+01	-5.715156e+01
1.150000e-06	-3.065305e-06	-8.255708e-10	-2.133635e+01	-5.672331e+01
1.160000e-06	-3.026339e-06	-8.203110e-10	-2.106512e+01	-5.629037e+01
1.170000e-06	-2.987249e-06	-8.160483e-10	-2.079303e+01	-5.585271e+01
1.180000e-06	-2.947958e-06	-8.088220e-10	-2.051954e+01	-5.541031e+01
1.190000e-06	-2.908461e-06	-8.017843e-10	-2.024462e+01	-5.496315e+01
1.200000e-06	-2.868853e-06	-7.951800e-10	-1.996893e+01	-5.451121e+01
1.210000e-06	-2.829100e-06	-7.861493e-10	-1.969222e+01	-5.405447e+01
1.220000e-06	-2.789177e-06	-7.764645e-10	-1.941434e+01	-5.359291e+01
1.230000e-06	-2.749108e-06	-7.677326e-10	-1.913543e+01	-5.312653e+01
1.240000e-06	-2.708868e-06	-7.592053e-10	-1.885533e+01	-5.265529e+01
1.250000e-06	-2.668418e-06	-7.511822e-10	-1.857378e+01	-5.217918e+01
1.260000e-06	-2.627751e-06	-7.458003e-10	-1.829072e+01	-5.169817e+01
1.270000e-06	-2.586941e-06	-7.405521e-10	-1.800665e+01	-5.121223e+01
1.280000e-06	-2.545937e-06	-7.357875e-10	-1.772124e+01	-5.072134e+01
1.290000e-06	-2.504620e-06	-7.303834e-10	-1.743364e+01	-5.022546e+01
1.300000e-06	-2.462968e-06	-7.218440e-10	-1.714373e+01	-4.972454e+01
1.310000e-06	-2.420848e-06	-7.093966e-10	-1.685054e+01	-4.921853e+01
1.320000e-06	-2.378406e-06	-6.957184e-10	-1.655512e+01	-4.870736e+01
1.330000e-06	-2.335860e-06	-6.842740e-10	-1.625898e+01	-4.819098e+01
1.340000e-06	-2.293047e-06	-6.756457e-10	-1.596097e+01	-4.766929e+01
1.350000e-06	-2.249848e-06	-6.709379e-10	-1.566029e+01	-4.714220e+01
1.360000e-06	-2.206514e-06	-6.673616e-10	-1.535866e+01	-4.660960e+01
1.370000e-06	-2.163136e-06	-6.621031e-10	-1.505671e+01	-4.607137e+01
1.380000e-06	-2.119570e-06	-6.527871e-10	-1.475347e+01	-4.552736e+01
1.390000e-06	-2.075842e-06	-6.398720e-10	-1.444909e+01	-4.497743e+01
1.400000e-06	-2.032035e-06	-6.263446e-10	-1.414417e+01	-4.442140e+01
1.410000e-06	-1.988190e-06	-6.132046e-10	-1.383899e+01	-4.385908e+01
1.420000e-06	-1.944246e-06	-6.016960e-10	-1.353311e+01	-4.329025e+01
1.430000e-06	-1.900236e-06	-5.937288e-10	-1.322678e+01	-4.271469e+01
1.440000e-06	-1.856185e-06	-5.878424e-10	-1.292015e+01	-4.213214e+01
1.450000e-06	-1.812024e-06	-5.822712e-10	-1.261277e+01	-4.154233e+01
1.460000e-06	-1.767769e-06	-5.755137e-10	-1.230473e+01	-4.094497e+01
1.470000e-06	-1.723381e-06	-5.646484e-10	-1.199576e+01	-4.033974e+01
1.480000e-06	-1.678798e-06	-5.508398e-10	-1.168544e+01	-3.972632e+01
1.490000e-06	-1.634078e-06	-5.385947e-10	-1.137415e+01	-3.910434e+01
1.500000e-06	-1.589214e-06	-5.289306e-10	-1.106188e+01	-3.847344e+01
1.510000e-06	-1.544129e-06	-5.220805e-10	-1.074806e+01	-3.783323e+01
1.520000e-06	-1.498989e-06	-5.138457e-10	-1.043386e+01	-3.718331e+01
1.530000e-06	-1.453828e-06	-5.035988e-10	-1.011951e+01	-3.652325e+01
1.540000e-06	-1.408571e-06	-4.927595e-10	-9.804491e+00	-3.585261e+01
1.550000e-06	-1.363223e-06	-4.805555e-10	-9.488842e+00	-3.517096e+01
1.560000e-06	-1.317716e-06	-4.670308e-10	-9.172087e+00	-3.447783e+01
1.570000e-06	-1.272106e-06	-4.546127e-10	-8.854615e+00	-3.377276e+01
1.580000e-06	-1.226475e-06	-4.431809e-10	-8.536999e+00	-3.305528e+01
1.590000e-06	-1.180823e-06	-4.312351e-10	-8.219232e+00	-3.232493e+01
1.600000e-06	-1.135037e-06	-4.205429e-10	-7.900533e+00	-3.158123e+01
1.610000e-06	-1.089121e-06	-4.100195e-10	-7.580933e+00	-3.082373e+01
1.620000e-06	-1.043181e-06	-3.958993e-10	-7.261159e+00	-3.005195e+01
1.630000e-06	-9.971539e-07	-3.804032e-10	-6.940786e+00	-2.926546e+01
1.640000e-06	-9.510621e-07	-3.670581e-10	-6.619959e+00	-2.846382e+01
1.650000e-06	-9.049491e-07	-3.543790e-10	-6.298985e+00	-2.764661e+01
1.660000e-06	-8.587343e-07	-3.412274e-10	-5.977302e+00	-2.681345e+01
1.670000e-06	-8.124354e-07	-3.294466e-10	-5.655035e+00	-2.596396e+01
1.680000e-06	-7.660772e-07	-3.181805e-10	-5.332354e+00	-2.509780e+01
1.690000e-06	-7.197066e-07	-3.053131e-10	-5.009587e+00	-2.421466e+01
1.700000e-06	-6.733591e-07	-2.922432e-10	-4.686981e+00	-2.331426e+01
1.710000e-06	-6.270026e-07	-2.794618e-10	-4.364312e+00	-2.239639e+01
1.720000e-06	-5.805063e-07	-2.646898e-10	-4.040670e+00	-2.146083e+01
1.730000e-06	-5.338560e-07	-2.485358e-10	-3.715956e+00	-2.050745e+01
1.740000e-06	-4.872264e-07	-2.330006e-10	-3.391386e+00	-1.953616e+01
1.750000e-06	-4.406460e-07	-2.182469e-10	-3.067159e+00	-1.854689e+01
1.760000e-06	-3.939932e-07	-2.049532e-10	-2.742427e+00	-1.753968e+01
1.770000e-06	-3.471981e-07	-1.930260e-10	-2.416706e+00	-1.651457e+01
1.780000e-06	-3.004025e-07	-1.805610e-10	-2.090981e+00	-1.547170e+01
1.790000e-06	-2.536765e-07	-1.664750e-10	-1.765740e+00	-1.441124e+01
1.800000e-06	-2.070080e-07	-1.513756e-10	-1.440899e+00	-1.333345e+01
1.810000e-06	-1.602637e-07	-1.344215e-10	-1.115531e+00	-1.223864e+01
1.820000e-06	-1.134548e-07	-1.175079e-10	-7.897131e-01	-1.112718e+01
1.830000e-06	-6.676198e-08	-1.010203e-10	-4.647032e-01	-9.999505e+00
1.840000e-06	-2.007757e-08	-8.426313e-11	-1.397518e-01	-8.856118e+00
1.850000e-06	2.668381e-08	-6.781022e-11	1.857352e-01	-7.697585e+00
1.860000e-06	7.342732e-08	-5.252528e-11	5.110979e-01	-6.524535e+00
1.870000e-06	1.201036e-07	-3.695176e-11	8.359926e-01	-5.337656e+00
1.880000e-06	1.668152e-07	-1.994982e-11	1.161133e+00	-4.137697e+00
1.890000e-06	2.136168e-07	-2.611737e-12	1.486900e+00	-2.925467e+00
1.900000e-06	2.603606e-07	1.309585e-11	1.812265e+00	-1.701827e+00
1.910000e-06	3.070037e-07	2.896183e-11	2.136928e+00	-4.676927e-01
1.920000e-06	3.536578e-07	4.573447e-11	2.461669e+00	7.759720e-01
1.930000e-06	4.002513e-07	6.466700e-11	2.785988e+00	2.028157e+00
1.940000e-06	4.467914e-07	8.451398e-11	3.109935e+00	3.287809e+00
1.950000e-06	4.933810e-07	1.043595e-10	3.434226e+00	4.553839e+00
1.960000e-06	5.399116e-07	1.222542e-10	3.758106e+00	5.825124e+00
1.970000e-06	5.863388e-07	1.384260e-10	4.081268e+00	7.100511e+00
1.980000e-06	6.327262e-07	1.558185e-10	4.404152e+00	8.378826e+00
1.990000e-06	6.790800e-07	1.730756e-10	4.726802e+00	9.658872e+00
2.000000e-06	7.253903e-07	1.898302e-10	5.049149e+00	1.093944e+01
2.010000e-06	7.715876e-07	2.080387e-10	5.370710e+00	1.221932e+01
2.020000e-06	8.177677e-07	2.266921e-10	5.692150e+00	1.349729e+01
2.030000e-06	8.639386e-07	2.476078e-10	6.013527e+00	1.477213e+01
2.040000e-06	9.099804e-07	2.692126e-10	6.334006e+00	1.604264e+01
2.050000e-06	9.559961e-07	2.883720e-10	6.654303e+00	1.730762e+01
2.060000e-06	1.002010e-06	3.063545e-10	6.974584e+00	1.856590e+01
2.070000e-06	1.047931e-06	3.221883e-10	7.294225e+00	1.981632e+01
2.080000e-06	1.093748e-06	3.377010e-10	7.613135e+00	2.105777e+01
2.090000e-06	1.139461e-06	3.516786e-10	7.931329e+00	2.228916e+01
2.100000e-06	1.185092e-06	3.681257e-10	8.248944e+00	2.350943e+01
2.110000e-06	1.230679e-06	3.853904e-10	8.566257e+00	2.471759e+01
2.120000e-06	1.276229e-06	4.033727e-10	8.883313e+00	2.591268e+01
2.130000e-06	1.321722e-06	4.221249e-10	9.199975e+00	2.709378e+01
2.140000e-06	1.367053e-06	4.411968e-10	9.515503e+00	2.826005e+01
2.150000e-06	1.412229e-06	4.585270e-10	9.829953e+00	2.941069e+01
2.160000e-06	1.457368e-06	4.713668e-10	1.014415e+01	3.054497e+01
2.170000e-06	1.502358e-06	4.822321e-10	1.045730e+01	3.166222e+01
2.180000e-06	1.547162e-06	4.929927e-10	1.076917e+01	3.276183e+01
2.190000e-06	1.591868e-06	5.064802e-10	1.108035e+01	3.384325e+01
2.200000e-06	1.636551e-06	5.224954e-10	1.139137e+01	3.490603e+01
2.210000e-06	1.681138e-06	5.385068e-10	1.170172e+01	3.594974e+01
2.220000e-06	1.725429e-06	5.541656e-10	1.201001e+01	3.697406e+01
2.230000e-06	1.769589e-06	5.689510e-10	1.231739e+01	3.797871e+01
2.240000e-06	1.813739e-06	5.827816e-10	1.262470e+01	3.896348e+01
2.250000e-06	1.857835e-06	5.949182e-10	1.293164e+01	3.992825e+01
2.260000e-06	1.901868e-06	6.077394e-10	1.323813e+01	4.087294e+01
2.270000e-06	1.945804e-06	6.219111e-10	1.354395e+01	4.179753e+01
2.280000e-06	1.989676e-06	6.346877e-10	1.384933e+01	4.270209e+01
2.290000e-06	2.033495e-06	6.466144e-10	1.415434e+01	4.358671e+01
2.300000e-06	2.077260e-06	6.572717e-10	1.445896e+01	4.445156e+01
2.310000e-06	2.120937e-06	6.679219e-10	1.476299e+01	4.529685e+01
2.320000e-06	2.164472e-06	6.805033e-10	1.506602e+01	4.612285e+01
2.330000e-06	2.207892e-06	6.954934e-10	1.536825e+01	4.692987e+01
2.340000e-06	2.251228e-06	7.095076e-10	1.566989e+01	4.771825e+01
2.350000e-06	2.294332e-06	7.211080e-10	1.596992e+01	4.848838e+01
2.360000e-06	2.337066e-06	7.309536e-10	1.626737e+01	4.924068e+01
2.370000e-06	2.379548e-06	7.394753e-10	1.656307e+01	4.997561e+01
2.380000e-06	2.421801e-06	7.478649e-10	1.685718e+01	5.069363e+01
2.390000e-06	2.463768e-06	7.573237e-10	1.714929e+01	5.139523e+01
2.400000e-06	2.505396e-06	7.668974e-10	1.743905e+01	5.208093e+01
2.410000e-06	2.546618e-06	7.767770e-10	1.772598e+01	5.275126e+01
2.420000e-06	2.587508e-06	7.874268e-10	1.801059e+01	5.340673e+01
2.430000e-06	2.628127e-06	7.976000e-10	1.829333e+01	5.404790e+01
2.440000e-06	2.668569e-06	8.058270e-10	1.857483e+01	5.467528e+01
2.450000e-06	2.708868e-06	8.135957e-10	1.885533e+01	5.528943e+01
2.460000e-06	2.748985e-06	8.218816e-10	1.913458e+01	5.589085e+01
2.470000e-06	2.788950e-06	8.298422e-10	1.941275e+01	5.648007e+01
2.480000e-06	2.828778e-06	8.375204e-10	1.968998e+01	5.705760e+01
2.490000e-06	2.868496e-06	8.457125e-10	1.996644e+01	5.762391e+01
2.500000e-06	2.908142e-06	8.546169e-10	2.024240e+01	5.817949e+01
2.510000e-06	2.947658e-06	8.635050e-10	2.051746e+01	5.872477e+01
2.520000e-06	2.986998e-06	8.726155e-10	2.079129e+01	5.926019e+01
2.530000e-06	3.026192e-06	8.812675e-10	2.106410e+01	5.978616e+01
2.540000e-06	3.065155e-06	8.901850e-10	2.133531e+01	6.030305e+01
2.550000e-06	3.103825e-06	8.992729e-10	2.160447e+01	6.081122e+01
2.560000e-06	3.142254e-06	9.070162e-10	2.187196e+01	6.131099e+01
2.570000e-06	3.180460e-06	9.132992e-10	2.213789e+01	6.180266e+01
2.580000e-06	3.218484e-06	9.198082e-10	2.240257e+01	6.228651e+01
2.590000e-06	3.256297e-06	9.278975e-10	2.266577e+01	6.276277e+01
2.600000e-06	3.293852e-06	9.356948e-10	2.292717e+01	6.323168e+01
2.610000e-06	3.331175e-06	9.417945e-10	2.318697e+01	6.369343e+01
2.620000e-06	3.368259e-06	9.488330e-10	2.344509e+01	6.414817e+01
2.630000e-06	3.405146e-06	9.573119e-10	2.370184e+01	6.459605e+01
2.640000e-06	3.441825e-06	9.662663e-10	2.395716e+01	6.503720e+01
2.650000e-06	3.478243e-06	9.742573e-10	2.421065e+01	6.547171e+01
2.660000e-06	3.514394e-06	9.821419e-10	2.446228e+01	6.589966e+01
2.670000e-06	3.550363e-06	9.884410e-10	2.471264e+01	6.632110e+01
2.680000e-06	3.586256e-06	9.926265e-10	2.496248e+01	6.673608e+01
2.690000e-06	3.622017e-06	9.968861e-10	2.521140e+01	6.714463e+01
2.700000e-06	3.657624e-06	1.000517e-09	2.545925e+01	6.754676e+01
2.710000e-06	3.693077e-06	1.006518e-09	2.570602e+01	6.794247e+01
2.720000e-06	3.728224e-06	1.012895e-09	2.595066e+01	6.833176e+01
2.730000e-06	3.762982e-06	1.018290e-09	2.619260e+01	6.871461e+01
2.740000e-06	3.797266e-06	1.023369e-09	2.643124e+01	6.909099e+01
2.750000e-06	3.830977e-06	1.027432e-09	2.666588e+01	6.946089e+01
2.760000e-06	3.864138e-06	1.031317e-09	2.689670e+01	6.982428e+01
2.770000e-06	3.896860e-06	1.035421e-09	2.712447e+01	7.018112e+01
2.780000e-06	3.929241e-06	1.039748e-09	2.734986e+01	7.053139e+01
2.790000e-06	3.961373e-06	1.045494e-09	2.757352e+01	7.087506e+01
2.800000e-06	3.993364e-06	1.051415e-09	2.779620e+01	7.121211e+01
2.810000e-06	4.025239e-06	1.056916e-09	2.801807e+01	7.154252e+01
2.820000e-06	4.057022e-06	1.061358e-09	2.823929e+01	7.186627e+01
2.830000e-06	4.088646e-06	1.066129e-09	2.845942e+01	7.218336e+01
2.840000e-06	4.120032e-06	1.072041e-09	2.867788e+01	7.249378e+01
2.850000e-06	4.151169e-06	1.076355e-09	2.889461e+01	7.279754e+01
2.860000e-06	4.181966e-06	1.079920e-09	2.910898e+01	7.309465e+01
2.870000e-06	4.212360e-06	1.084135e-09	2.932054e+01	7.338513e+01
2.880000e-06	4.242491e-06	1.086834e-09	2.953026e+01	7.366901e+01
2.890000e-06	4.272393e-06	1.088713e-09	2.973840e+01	7.394632e+01
2.900000e-06	4.301975e-06	1.092143e-09	2.994431e+01	7.421710e+01
2.910000e-06	4.331184e-06	1.094954e-09	3.014762e+01	7.448140e+01
