# Temperatura_=_1.11
# Concentracion g/m^3_=_1620.0
# C_Vs_to_Am_M_A/Vsm_=_65563218390.804596
# pendiente_HvsI_1/m_=_3716.3
# ordenada_HvsI_A/m_=_1297.0
# frecuencia_Hz_=_135105.6014094219

Tiempo_(s)	Campo_(V.s)	Magnetizacion_(V.s)	Campo_(kA/m)	Magnetizacion_(A/m)
0.000000e+00	-5.522584e-06	-1.418687e-09	-3.837863e+01	-9.140305e+01
1.000000e-08	-5.522768e-06	-1.415456e-09	-3.837992e+01	-9.138130e+01
2.000000e-08	-5.522657e-06	-1.413025e-09	-3.837914e+01	-9.135686e+01
3.000000e-08	-5.522150e-06	-1.410173e-09	-3.837562e+01	-9.132970e+01
4.000000e-08	-5.521147e-06	-1.409124e-09	-3.836865e+01	-9.129976e+01
5.000000e-08	-5.519617e-06	-1.410483e-09	-3.835802e+01	-9.126702e+01
6.000000e-08	-5.517545e-06	-1.413591e-09	-3.834362e+01	-9.123142e+01
7.000000e-08	-5.514952e-06	-1.415472e-09	-3.832560e+01	-9.119293e+01
8.000000e-08	-5.511820e-06	-1.387004e-09	-3.830383e+01	-9.115149e+01
9.000000e-08	-5.508180e-06	-1.365310e-09	-3.827854e+01	-9.110708e+01
1.000000e-07	-5.504192e-06	-1.437740e-09	-3.825082e+01	-9.105965e+01
1.100000e-07	-5.499871e-06	-1.499676e-09	-3.822080e+01	-9.100915e+01
1.200000e-07	-5.495233e-06	-1.403051e-09	-3.818856e+01	-9.095556e+01
1.300000e-07	-5.490329e-06	-1.341399e-09	-3.815449e+01	-9.089882e+01
1.400000e-07	-5.485154e-06	-1.380575e-09	-3.811852e+01	-9.083891e+01
1.500000e-07	-5.479566e-06	-1.475079e-09	-3.807969e+01	-9.077579e+01
1.600000e-07	-5.473519e-06	-1.400119e-09	-3.803767e+01	-9.070941e+01
1.700000e-07	-5.467094e-06	-1.319888e-09	-3.799302e+01	-9.063974e+01
1.800000e-07	-5.460246e-06	-1.385680e-09	-3.794543e+01	-9.056674e+01
1.900000e-07	-5.453011e-06	-1.459754e-09	-3.789515e+01	-9.049037e+01
2.000000e-07	-5.445489e-06	-1.416560e-09	-3.784287e+01	-9.041058e+01
2.100000e-07	-5.437688e-06	-1.335093e-09	-3.778866e+01	-9.032735e+01
2.200000e-07	-5.429599e-06	-1.376294e-09	-3.773245e+01	-9.024061e+01
2.300000e-07	-5.421159e-06	-1.419965e-09	-3.767379e+01	-9.015032e+01
2.400000e-07	-5.412328e-06	-1.411417e-09	-3.761243e+01	-9.005642e+01
2.500000e-07	-5.402963e-06	-1.351693e-09	-3.754734e+01	-8.995886e+01
2.600000e-07	-5.392829e-06	-1.360776e-09	-3.747692e+01	-8.985756e+01
2.700000e-07	-5.382005e-06	-1.367112e-09	-3.740170e+01	-8.975248e+01
2.800000e-07	-5.370743e-06	-1.354609e-09	-3.732343e+01	-8.964352e+01
2.900000e-07	-5.359065e-06	-1.316855e-09	-3.724228e+01	-8.953061e+01
3.000000e-07	-5.346963e-06	-1.333703e-09	-3.715818e+01	-8.941367e+01
3.100000e-07	-5.334619e-06	-1.349525e-09	-3.707239e+01	-8.929260e+01
3.200000e-07	-5.321931e-06	-1.346022e-09	-3.698422e+01	-8.916731e+01
3.300000e-07	-5.308691e-06	-1.308815e-09	-3.689221e+01	-8.903769e+01
3.400000e-07	-5.295065e-06	-1.315906e-09	-3.679752e+01	-8.890365e+01
3.500000e-07	-5.281153e-06	-1.333915e-09	-3.670084e+01	-8.876506e+01
3.600000e-07	-5.266789e-06	-1.309232e-09	-3.660101e+01	-8.862182e+01
3.700000e-07	-5.251784e-06	-1.282620e-09	-3.649674e+01	-8.847380e+01
3.800000e-07	-5.236356e-06	-1.331512e-09	-3.638952e+01	-8.832088e+01
3.900000e-07	-5.220526e-06	-1.338913e-09	-3.627952e+01	-8.816294e+01
4.000000e-07	-5.204168e-06	-1.272188e-09	-3.616584e+01	-8.799985e+01
4.100000e-07	-5.187425e-06	-1.299822e-09	-3.604948e+01	-8.783150e+01
4.200000e-07	-5.170374e-06	-1.364849e-09	-3.593099e+01	-8.765777e+01
4.300000e-07	-5.152959e-06	-1.295839e-09	-3.580996e+01	-8.747853e+01
4.400000e-07	-5.135147e-06	-1.236133e-09	-3.568618e+01	-8.729367e+01
4.500000e-07	-5.117075e-06	-1.334498e-09	-3.556060e+01	-8.710309e+01
4.600000e-07	-5.098632e-06	-1.332052e-09	-3.543243e+01	-8.690668e+01
4.700000e-07	-5.079727e-06	-1.233355e-09	-3.530105e+01	-8.670437e+01
4.800000e-07	-5.060437e-06	-1.275132e-09	-3.516699e+01	-8.649606e+01
4.900000e-07	-5.040852e-06	-1.346624e-09	-3.503089e+01	-8.628169e+01
5.000000e-07	-5.021054e-06	-1.250374e-09	-3.489331e+01	-8.606121e+01
5.100000e-07	-5.000998e-06	-1.237836e-09	-3.475393e+01	-8.583458e+01
5.200000e-07	-4.980722e-06	-1.320278e-09	-3.461302e+01	-8.560176e+01
5.300000e-07	-4.960141e-06	-1.268608e-09	-3.447000e+01	-8.536276e+01
5.400000e-07	-4.939146e-06	-1.202106e-09	-3.432410e+01	-8.511758e+01
5.500000e-07	-4.917832e-06	-1.291676e-09	-3.417597e+01	-8.486626e+01
5.600000e-07	-4.896168e-06	-1.287071e-09	-3.402542e+01	-8.460883e+01
5.700000e-07	-4.874111e-06	-1.197326e-09	-3.387214e+01	-8.434537e+01
5.800000e-07	-4.851747e-06	-1.236298e-09	-3.371672e+01	-8.407596e+01
5.900000e-07	-4.829083e-06	-1.285440e-09	-3.355922e+01	-8.380071e+01
6.000000e-07	-4.806032e-06	-1.212873e-09	-3.339903e+01	-8.351975e+01
6.100000e-07	-4.782713e-06	-1.219037e-09	-3.323698e+01	-8.323321e+01
6.200000e-07	-4.759231e-06	-1.272680e-09	-3.307380e+01	-8.294126e+01
6.300000e-07	-4.735500e-06	-1.227461e-09	-3.290888e+01	-8.264409e+01
6.400000e-07	-4.711480e-06	-1.196659e-09	-3.274195e+01	-8.234188e+01
6.500000e-07	-4.687144e-06	-1.237396e-09	-3.257283e+01	-8.203485e+01
6.600000e-07	-4.662363e-06	-1.215804e-09	-3.240062e+01	-8.172323e+01
6.700000e-07	-4.636993e-06	-1.180902e-09	-3.222431e+01	-8.140725e+01
6.800000e-07	-4.611030e-06	-1.212965e-09	-3.204388e+01	-8.108716e+01
6.900000e-07	-4.584578e-06	-1.215263e-09	-3.186006e+01	-8.076321e+01
7.000000e-07	-4.557659e-06	-1.184153e-09	-3.167299e+01	-8.043566e+01
7.100000e-07	-4.530436e-06	-1.196646e-09	-3.148381e+01	-8.010478e+01
7.200000e-07	-4.502972e-06	-1.203969e-09	-3.129295e+01	-7.977083e+01
7.300000e-07	-4.475212e-06	-1.174134e-09	-3.110003e+01	-7.943407e+01
7.400000e-07	-4.447255e-06	-1.174497e-09	-3.090575e+01	-7.909475e+01
7.500000e-07	-4.419128e-06	-1.180975e-09	-3.071028e+01	-7.875313e+01
7.600000e-07	-4.390741e-06	-1.164814e-09	-3.051301e+01	-7.840945e+01
7.700000e-07	-4.362025e-06	-1.156688e-09	-3.031345e+01	-7.806392e+01
7.800000e-07	-4.332985e-06	-1.161940e-09	-3.011164e+01	-7.771677e+01
7.900000e-07	-4.303646e-06	-1.141607e-09	-2.990775e+01	-7.736817e+01
8.000000e-07	-4.274031e-06	-1.134189e-09	-2.970194e+01	-7.701832e+01
8.100000e-07	-4.244196e-06	-1.142122e-09	-2.949461e+01	-7.666735e+01
8.200000e-07	-4.214038e-06	-1.131620e-09	-2.928503e+01	-7.631539e+01
8.300000e-07	-4.183439e-06	-1.111818e-09	-2.907239e+01	-7.596254e+01
8.400000e-07	-4.152567e-06	-1.118405e-09	-2.885784e+01	-7.560888e+01
8.500000e-07	-4.121439e-06	-1.113794e-09	-2.864153e+01	-7.525444e+01
8.600000e-07	-4.090083e-06	-1.095818e-09	-2.842362e+01	-7.489924e+01
8.700000e-07	-4.058590e-06	-1.091614e-09	-2.820476e+01	-7.454326e+01
8.800000e-07	-4.026876e-06	-1.094155e-09	-2.798436e+01	-7.418645e+01
8.900000e-07	-3.994945e-06	-1.077567e-09	-2.776246e+01	-7.382873e+01
9.000000e-07	-3.962834e-06	-1.069744e-09	-2.753931e+01	-7.346999e+01
9.100000e-07	-3.930550e-06	-1.072800e-09	-2.731496e+01	-7.311008e+01
9.200000e-07	-3.897932e-06	-1.061529e-09	-2.708829e+01	-7.274883e+01
9.300000e-07	-3.864834e-06	-1.046216e-09	-2.685827e+01	-7.238604e+01
9.400000e-07	-3.831236e-06	-1.048889e-09	-2.662479e+01	-7.202147e+01
9.500000e-07	-3.797119e-06	-1.043647e-09	-2.638769e+01	-7.165489e+01
9.600000e-07	-3.762555e-06	-1.027065e-09	-2.614750e+01	-7.128601e+01
9.700000e-07	-3.727616e-06	-1.022377e-09	-2.590469e+01	-7.091453e+01
9.800000e-07	-3.692449e-06	-1.021118e-09	-2.566030e+01	-7.054014e+01
9.900000e-07	-3.657025e-06	-1.009678e-09	-2.541413e+01	-7.016252e+01
1.000000e-06	-3.621369e-06	-1.001532e-09	-2.516634e+01	-6.978131e+01
1.010000e-06	-3.585682e-06	-1.004350e-09	-2.491833e+01	-6.939618e+01
1.020000e-06	-3.549936e-06	-9.988745e-10	-2.466992e+01	-6.900676e+01
1.030000e-06	-3.513990e-06	-9.906977e-10	-2.442011e+01	-6.861271e+01
1.040000e-06	-3.477748e-06	-9.879511e-10	-2.416826e+01	-6.821366e+01
1.050000e-06	-3.441207e-06	-9.845292e-10	-2.391432e+01	-6.780928e+01
1.060000e-06	-3.404408e-06	-9.740976e-10	-2.365859e+01	-6.739922e+01
1.070000e-06	-3.367357e-06	-9.684067e-10	-2.340111e+01	-6.698315e+01
1.080000e-06	-3.330041e-06	-9.622901e-10	-2.314178e+01	-6.656078e+01
1.090000e-06	-3.292552e-06	-9.521767e-10	-2.288125e+01	-6.613180e+01
1.100000e-06	-3.254935e-06	-9.413614e-10	-2.261984e+01	-6.569596e+01
1.110000e-06	-3.216982e-06	-9.370530e-10	-2.235609e+01	-6.525301e+01
1.120000e-06	-3.178710e-06	-9.306989e-10	-2.209012e+01	-6.480273e+01
1.130000e-06	-3.140236e-06	-9.248586e-10	-2.182275e+01	-6.434494e+01
1.140000e-06	-3.101518e-06	-9.191667e-10	-2.155368e+01	-6.387950e+01
1.150000e-06	-3.062559e-06	-9.105623e-10	-2.128294e+01	-6.340627e+01
1.160000e-06	-3.023423e-06	-8.978463e-10	-2.101097e+01	-6.292519e+01
1.170000e-06	-2.984127e-06	-8.893592e-10	-2.073789e+01	-6.243619e+01
1.180000e-06	-2.944648e-06	-8.817087e-10	-2.046353e+01	-6.193926e+01
1.190000e-06	-2.905058e-06	-8.732076e-10	-2.018841e+01	-6.143442e+01
1.200000e-06	-2.865375e-06	-8.651150e-10	-1.991264e+01	-6.092174e+01
1.210000e-06	-2.825573e-06	-8.580199e-10	-1.963604e+01	-6.040130e+01
1.220000e-06	-2.785611e-06	-8.489331e-10	-1.935832e+01	-5.987322e+01
1.230000e-06	-2.745519e-06	-8.393910e-10	-1.907970e+01	-5.933766e+01
1.240000e-06	-2.705191e-06	-8.298356e-10	-1.879945e+01	-5.879479e+01
1.250000e-06	-2.664665e-06	-8.192162e-10	-1.851782e+01	-5.824481e+01
1.260000e-06	-2.623963e-06	-8.084320e-10	-1.823497e+01	-5.768796e+01
1.270000e-06	-2.582874e-06	-7.982774e-10	-1.794942e+01	-5.712447e+01
1.280000e-06	-2.541545e-06	-7.912017e-10	-1.766221e+01	-5.655461e+01
1.290000e-06	-2.500017e-06	-7.833560e-10	-1.737361e+01	-5.597863e+01
1.300000e-06	-2.458142e-06	-7.742905e-10	-1.708261e+01	-5.539682e+01
1.310000e-06	-2.415925e-06	-7.643052e-10	-1.678923e+01	-5.480945e+01
1.320000e-06	-2.373357e-06	-7.542972e-10	-1.649340e+01	-5.421678e+01
1.330000e-06	-2.330548e-06	-7.438948e-10	-1.619591e+01	-5.361909e+01
1.340000e-06	-2.287569e-06	-7.331517e-10	-1.589723e+01	-5.301660e+01
1.350000e-06	-2.244283e-06	-7.230612e-10	-1.559642e+01	-5.240955e+01
1.360000e-06	-2.200777e-06	-7.135065e-10	-1.529408e+01	-5.179816e+01
1.370000e-06	-2.157196e-06	-7.040063e-10	-1.499122e+01	-5.118258e+01
1.380000e-06	-2.113588e-06	-6.950813e-10	-1.468817e+01	-5.056296e+01
1.390000e-06	-2.069918e-06	-6.829876e-10	-1.438469e+01	-4.993941e+01
1.400000e-06	-2.026110e-06	-6.723986e-10	-1.408025e+01	-4.931199e+01
1.410000e-06	-1.982202e-06	-6.638851e-10	-1.377511e+01	-4.868072e+01
1.420000e-06	-1.938260e-06	-6.548537e-10	-1.346974e+01	-4.804557e+01
1.430000e-06	-1.894224e-06	-6.440537e-10	-1.316372e+01	-4.740645e+01
1.440000e-06	-1.850133e-06	-6.353911e-10	-1.285731e+01	-4.676323e+01
1.450000e-06	-1.805960e-06	-6.285903e-10	-1.255034e+01	-4.611571e+01
1.460000e-06	-1.761562e-06	-6.200858e-10	-1.224180e+01	-4.546364e+01
1.470000e-06	-1.717001e-06	-6.081041e-10	-1.193212e+01	-4.480671e+01
1.480000e-06	-1.672340e-06	-5.970093e-10	-1.162176e+01	-4.414455e+01
1.490000e-06	-1.627574e-06	-5.875207e-10	-1.131066e+01	-4.347675e+01
1.500000e-06	-1.582648e-06	-5.792262e-10	-1.099845e+01	-4.280280e+01
1.510000e-06	-1.537534e-06	-5.707627e-10	-1.068494e+01	-4.212217e+01
1.520000e-06	-1.492348e-06	-5.613861e-10	-1.037092e+01	-4.143428e+01
1.530000e-06	-1.447121e-06	-5.509640e-10	-1.005662e+01	-4.073847e+01
1.540000e-06	-1.401741e-06	-5.404175e-10	-9.741260e+00	-4.003405e+01
1.550000e-06	-1.356258e-06	-5.276904e-10	-9.425175e+00	-3.932029e+01
1.560000e-06	-1.310716e-06	-5.136542e-10	-9.108689e+00	-3.859641e+01
1.570000e-06	-1.265090e-06	-5.000597e-10	-8.791615e+00	-3.786162e+01
1.580000e-06	-1.219418e-06	-4.872901e-10	-8.474221e+00	-3.711508e+01
1.590000e-06	-1.173695e-06	-4.735433e-10	-8.156474e+00	-3.635594e+01
1.600000e-06	-1.127866e-06	-4.596454e-10	-7.837992e+00	-3.558333e+01
1.610000e-06	-1.081937e-06	-4.476913e-10	-7.518809e+00	-3.479637e+01
1.620000e-06	-1.035954e-06	-4.359196e-10	-7.199260e+00	-3.399418e+01
1.630000e-06	-9.899538e-07	-4.249840e-10	-6.879583e+00	-3.317591e+01
1.640000e-06	-9.438838e-07	-4.135104e-10	-6.559425e+00	-3.234069e+01
1.650000e-06	-8.976312e-07	-4.005757e-10	-6.237997e+00	-3.148770e+01
1.660000e-06	-8.512681e-07	-3.839213e-10	-5.915801e+00	-3.061614e+01
1.670000e-06	-8.048703e-07	-3.664277e-10	-5.593365e+00	-2.972523e+01
1.680000e-06	-7.584687e-07	-3.497904e-10	-5.270902e+00	-2.881428e+01
1.690000e-06	-7.121296e-07	-3.364612e-10	-4.948872e+00	-2.788260e+01
1.700000e-06	-6.656911e-07	-3.250874e-10	-4.626153e+00	-2.692961e+01
1.710000e-06	-6.190964e-07	-3.134747e-10	-4.302348e+00	-2.595476e+01
1.720000e-06	-5.724522e-07	-2.997048e-10	-3.978198e+00	-2.495759e+01
1.730000e-06	-5.258138e-07	-2.847235e-10	-3.654089e+00	-2.393773e+01
1.740000e-06	-4.791264e-07	-2.685558e-10	-3.329641e+00	-2.289486e+01
1.750000e-06	-4.323538e-07	-2.500894e-10	-3.004599e+00	-2.182880e+01
1.760000e-06	-3.855453e-07	-2.308101e-10	-2.679308e+00	-2.073941e+01
1.770000e-06	-3.386826e-07	-2.131143e-10	-2.353641e+00	-1.962670e+01
1.780000e-06	-2.918643e-07	-1.960901e-10	-2.028281e+00	-1.849075e+01
1.790000e-06	-2.450665e-07	-1.817817e-10	-1.703065e+00	-1.733175e+01
1.800000e-06	-1.981592e-07	-1.671277e-10	-1.377087e+00	-1.614999e+01
1.810000e-06	-1.512433e-07	-1.514656e-10	-1.051050e+00	-1.494589e+01
1.820000e-06	-1.043873e-07	-1.358346e-10	-7.254286e-01	-1.371994e+01
1.830000e-06	-5.753298e-08	-1.193740e-10	-3.998196e-01	-1.247276e+01
1.840000e-06	-1.071656e-08	-1.012054e-10	-7.447363e-02	-1.120507e+01
1.850000e-06	3.612282e-08	-7.925458e-11	2.510319e-01	-9.917677e+00
1.860000e-06	8.302742e-08	-5.878224e-11	5.769906e-01	-8.611507e+00
1.870000e-06	1.298964e-07	-4.045132e-11	9.027016e-01	-7.287565e+00
1.880000e-06	1.766758e-07	-2.366149e-11	1.227791e+00	-5.946946e+00
1.890000e-06	2.234433e-07	-7.436006e-12	1.552796e+00	-4.590834e+00
1.900000e-06	2.702909e-07	8.549985e-12	1.878359e+00	-3.220487e+00
1.910000e-06	3.171790e-07	2.622909e-11	2.204203e+00	-1.837235e+00
1.920000e-06	3.639837e-07	4.602661e-11	2.529468e+00	-4.424722e-01
1.930000e-06	4.107230e-07	6.708854e-11	2.854278e+00	9.623507e-01
1.940000e-06	4.574163e-07	8.852534e-11	3.178768e+00	2.375734e+00
1.950000e-06	5.040482e-07	1.094986e-10	3.502832e+00	3.796140e+00
1.960000e-06	5.506652e-07	1.282791e-10	3.826792e+00	5.221996e+00
1.970000e-06	5.972596e-07	1.443820e-10	4.150595e+00	6.651709e+00
1.980000e-06	6.437952e-07	1.588219e-10	4.473989e+00	8.083672e+00
1.990000e-06	6.902316e-07	1.738493e-10	4.796695e+00	9.516273e+00
2.000000e-06	7.365981e-07	1.918842e-10	5.118914e+00	1.094790e+01
2.010000e-06	7.828604e-07	2.141415e-10	5.440409e+00	1.237697e+01
2.020000e-06	8.290535e-07	2.371336e-10	5.761423e+00	1.380190e+01
2.030000e-06	8.752594e-07	2.603466e-10	6.082526e+00	1.522114e+01
2.040000e-06	9.214946e-07	2.810358e-10	6.403833e+00	1.663320e+01
2.050000e-06	9.677320e-07	2.988458e-10	6.725156e+00	1.803662e+01
2.060000e-06	1.013843e-06	3.167284e-10	7.045599e+00	1.942998e+01
2.070000e-06	1.059836e-06	3.333224e-10	7.365225e+00	2.081196e+01
2.080000e-06	1.105736e-06	3.507547e-10	7.684200e+00	2.218126e+01
2.090000e-06	1.151508e-06	3.716169e-10	8.002291e+00	2.353669e+01
2.100000e-06	1.197249e-06	3.947271e-10	8.320159e+00	2.487712e+01
2.110000e-06	1.242887e-06	4.158009e-10	8.637314e+00	2.620150e+01
2.120000e-06	1.288374e-06	4.344128e-10	8.953427e+00	2.750887e+01
2.130000e-06	1.333788e-06	4.508669e-10	9.269026e+00	2.879837e+01
2.140000e-06	1.379165e-06	4.643173e-10	9.584368e+00	3.006922e+01
2.150000e-06	1.424560e-06	4.776742e-10	9.899833e+00	3.132072e+01
2.160000e-06	1.469887e-06	4.947997e-10	1.021483e+01	3.255230e+01
2.170000e-06	1.515064e-06	5.136076e-10	1.052878e+01	3.376344e+01
2.180000e-06	1.560070e-06	5.320259e-10	1.084154e+01	3.495375e+01
2.190000e-06	1.604893e-06	5.489063e-10	1.115304e+01	3.612292e+01
2.200000e-06	1.649584e-06	5.650255e-10	1.146362e+01	3.727072e+01
2.210000e-06	1.694106e-06	5.790396e-10	1.177302e+01	3.839702e+01
2.220000e-06	1.738513e-06	5.912439e-10	1.208162e+01	3.950177e+01
2.230000e-06	1.782796e-06	6.023180e-10	1.238936e+01	4.058500e+01
2.240000e-06	1.826915e-06	6.143848e-10	1.269596e+01	4.164682e+01
2.250000e-06	1.870990e-06	6.285244e-10	1.300226e+01	4.268740e+01
2.260000e-06	1.915013e-06	6.430745e-10	1.330819e+01	4.370700e+01
2.270000e-06	1.958904e-06	6.597789e-10	1.361321e+01	4.470593e+01
2.280000e-06	2.002730e-06	6.780848e-10	1.391777e+01	4.568454e+01
2.290000e-06	2.046539e-06	6.939404e-10	1.422222e+01	4.664325e+01
2.300000e-06	2.090282e-06	7.064117e-10	1.452621e+01	4.758251e+01
2.310000e-06	2.133966e-06	7.177624e-10	1.482978e+01	4.850282e+01
2.320000e-06	2.177600e-06	7.288990e-10	1.513301e+01	4.940470e+01
2.330000e-06	2.221097e-06	7.404027e-10	1.543529e+01	5.028870e+01
2.340000e-06	2.264412e-06	7.527873e-10	1.573630e+01	5.115538e+01
2.350000e-06	2.307554e-06	7.650021e-10	1.603612e+01	5.200533e+01
2.360000e-06	2.350347e-06	7.769841e-10	1.633350e+01	5.283913e+01
2.370000e-06	2.392756e-06	7.895848e-10	1.662822e+01	5.365737e+01
2.380000e-06	2.434924e-06	8.022070e-10	1.692126e+01	5.446061e+01
2.390000e-06	2.476897e-06	8.140148e-10	1.721295e+01	5.524944e+01
2.400000e-06	2.518671e-06	8.251367e-10	1.750325e+01	5.602441e+01
2.410000e-06	2.560152e-06	8.365348e-10	1.779152e+01	5.678606e+01
2.420000e-06	2.601230e-06	8.484527e-10	1.807698e+01	5.753489e+01
2.430000e-06	2.641980e-06	8.603012e-10	1.836017e+01	5.827140e+01
2.440000e-06	2.682530e-06	8.706905e-10	1.864197e+01	5.899605e+01
2.450000e-06	2.722775e-06	8.794668e-10	1.892165e+01	5.970925e+01
2.460000e-06	2.762809e-06	8.886029e-10	1.919986e+01	6.041140e+01
2.470000e-06	2.802815e-06	8.984947e-10	1.947788e+01	6.110286e+01
2.480000e-06	2.842743e-06	9.065697e-10	1.975536e+01	6.178394e+01
2.490000e-06	2.882564e-06	9.148946e-10	2.003209e+01	6.245494e+01
2.500000e-06	2.922205e-06	9.257291e-10	2.030757e+01	6.311609e+01
2.510000e-06	2.961697e-06	9.358620e-10	2.058201e+01	6.376761e+01
2.520000e-06	3.001041e-06	9.430932e-10	2.085543e+01	6.440966e+01
2.530000e-06	3.040152e-06	9.500737e-10	2.112723e+01	6.504241e+01
2.540000e-06	3.079001e-06	9.581650e-10	2.139721e+01	6.566594e+01
2.550000e-06	3.117617e-06	9.665168e-10	2.166557e+01	6.628033e+01
2.560000e-06	3.155977e-06	9.742807e-10	2.193214e+01	6.688564e+01
2.570000e-06	3.194069e-06	9.827074e-10	2.219686e+01	6.748189e+01
2.580000e-06	3.231961e-06	9.922685e-10	2.246019e+01	6.806908e+01
2.590000e-06	3.269766e-06	1.003148e-09	2.272291e+01	6.864718e+01
2.600000e-06	3.307474e-06	1.013022e-09	2.298496e+01	6.921616e+01
2.610000e-06	3.344921e-06	1.018488e-09	2.324519e+01	6.977597e+01
2.620000e-06	3.382073e-06	1.021597e-09	2.350338e+01	7.032655e+01
2.630000e-06	3.418887e-06	1.025287e-09	2.375921e+01	7.086782e+01
2.640000e-06	3.455426e-06	1.031588e-09	2.401313e+01	7.139971e+01
2.650000e-06	3.491777e-06	1.041893e-09	2.426575e+01	7.192216e+01
2.660000e-06	3.527883e-06	1.055040e-09	2.451666e+01	7.243508e+01
2.670000e-06	3.563789e-06	1.065488e-09	2.476619e+01	7.293841e+01
2.680000e-06	3.599580e-06	1.071279e-09	2.501492e+01	7.343209e+01
2.690000e-06	3.635282e-06	1.074341e-09	2.526302e+01	7.391608e+01
2.700000e-06	3.670865e-06	1.075644e-09	2.551031e+01	7.439033e+01
2.710000e-06	3.706209e-06	1.078626e-09	2.575592e+01	7.485483e+01
2.720000e-06	3.741311e-06	1.085460e-09	2.599986e+01	7.530956e+01
2.730000e-06	3.776156e-06	1.094204e-09	2.624201e+01	7.575455e+01
2.740000e-06	3.810562e-06	1.100868e-09	2.648111e+01	7.618982e+01
2.750000e-06	3.844432e-06	1.105006e-09	2.671649e+01	7.661542e+01
2.760000e-06	3.877790e-06	1.109141e-09	2.694831e+01	7.703143e+01
2.770000e-06	3.910722e-06	1.111154e-09	2.717717e+01	7.743794e+01
2.780000e-06	3.943259e-06	1.113123e-09	2.740328e+01	7.783506e+01
2.790000e-06	3.975454e-06	1.119079e-09	2.762702e+01	7.822293e+01
2.800000e-06	4.007413e-06	1.125966e-09	2.784911e+01	7.860170e+01
2.810000e-06	4.039257e-06	1.131447e-09	2.807041e+01	7.897154e+01
2.820000e-06	4.070980e-06	1.135539e-09	2.829086e+01	7.933264e+01
2.830000e-06	4.102512e-06	1.138121e-09	2.850999e+01	7.968521e+01
2.840000e-06	4.133773e-06	1.138949e-09	2.872723e+01	8.002946e+01
2.850000e-06	4.164675e-06	1.140051e-09	2.894199e+01	8.036563e+01
2.860000e-06	4.195299e-06	1.144662e-09	2.915481e+01	8.069396e+01
2.870000e-06	4.225633e-06	1.151185e-09	2.936561e+01	8.101471e+01
2.880000e-06	4.255661e-06	1.158114e-09	2.957428e+01	8.132813e+01
2.890000e-06	4.285409e-06	1.164509e-09	2.978101e+01	8.163449e+01
2.900000e-06	4.314859e-06	1.168615e-09	2.998567e+01	8.193405e+01
2.910000e-06	4.344047e-06	1.171681e-09	3.018852e+01	8.222708e+01
