# Temperatura_=_-12.72
# Concentracion g/m^3_=_1620.0
# C_Vs_to_Am_M_A/Vsm_=_65563218390.804596
# pendiente_HvsI_1/m_=_3716.3
# ordenada_HvsI_A/m_=_1297.0
# frecuencia_Hz_=_135104.16937875986

Tiempo_(s)	Campo_(V.s)	Magnetizacion_(V.s)	Campo_(kA/m)	Magnetizacion_(A/m)
0.000000e+00	-5.517651e-06	-8.363728e-10	-3.836978e+01	-5.375296e+01
1.000000e-08	-5.517854e-06	-8.340503e-10	-3.837119e+01	-5.372227e+01
2.000000e-08	-5.517769e-06	-8.334605e-10	-3.837060e+01	-5.368856e+01
3.000000e-08	-5.517280e-06	-8.334771e-10	-3.836720e+01	-5.365187e+01
4.000000e-08	-5.516242e-06	-8.323904e-10	-3.835998e+01	-5.361227e+01
5.000000e-08	-5.514662e-06	-8.293126e-10	-3.834899e+01	-5.356986e+01
6.000000e-08	-5.512541e-06	-8.174533e-10	-3.833424e+01	-5.352473e+01
7.000000e-08	-5.509788e-06	-8.099021e-10	-3.831510e+01	-5.347703e+01
8.000000e-08	-5.506547e-06	-8.367541e-10	-3.829256e+01	-5.342689e+01
9.000000e-08	-5.502911e-06	-8.691606e-10	-3.826728e+01	-5.337448e+01
1.000000e-07	-5.498868e-06	-8.384071e-10	-3.823916e+01	-5.332000e+01
1.100000e-07	-5.494455e-06	-7.940599e-10	-3.820847e+01	-5.326363e+01
1.200000e-07	-5.489784e-06	-7.943397e-10	-3.817599e+01	-5.320559e+01
1.300000e-07	-5.484906e-06	-8.376158e-10	-3.814207e+01	-5.314610e+01
1.400000e-07	-5.479605e-06	-8.376341e-10	-3.810521e+01	-5.308539e+01
1.500000e-07	-5.473860e-06	-8.003279e-10	-3.806526e+01	-5.302370e+01
1.600000e-07	-5.467833e-06	-8.160466e-10	-3.802335e+01	-5.296128e+01
1.700000e-07	-5.461447e-06	-8.448469e-10	-3.797893e+01	-5.289836e+01
1.800000e-07	-5.454558e-06	-8.382626e-10	-3.793103e+01	-5.283519e+01
1.900000e-07	-5.447324e-06	-7.851067e-10	-3.788072e+01	-5.277202e+01
2.000000e-07	-5.439883e-06	-7.711496e-10	-3.782898e+01	-5.270909e+01
2.100000e-07	-5.432127e-06	-7.849886e-10	-3.777504e+01	-5.264661e+01
2.200000e-07	-5.424098e-06	-7.909261e-10	-3.771921e+01	-5.258482e+01
2.300000e-07	-5.415842e-06	-7.697862e-10	-3.766180e+01	-5.252392e+01
2.400000e-07	-5.407107e-06	-7.595143e-10	-3.760106e+01	-5.246412e+01
2.500000e-07	-5.397645e-06	-7.560447e-10	-3.753525e+01	-5.240559e+01
2.600000e-07	-5.387447e-06	-7.531887e-10	-3.746434e+01	-5.234849e+01
2.700000e-07	-5.376648e-06	-7.497631e-10	-3.738925e+01	-5.229297e+01
2.800000e-07	-5.365427e-06	-7.500379e-10	-3.731121e+01	-5.223916e+01
2.900000e-07	-5.353869e-06	-7.503504e-10	-3.723084e+01	-5.218715e+01
3.000000e-07	-5.341949e-06	-7.511861e-10	-3.714795e+01	-5.213705e+01
3.100000e-07	-5.329587e-06	-7.506258e-10	-3.706198e+01	-5.208889e+01
3.200000e-07	-5.316764e-06	-7.441159e-10	-3.697281e+01	-5.204272e+01
3.300000e-07	-5.303544e-06	-7.474540e-10	-3.688088e+01	-5.199855e+01
3.400000e-07	-5.290005e-06	-7.417030e-10	-3.678673e+01	-5.195638e+01
3.500000e-07	-5.276098e-06	-7.348729e-10	-3.669002e+01	-5.191616e+01
3.600000e-07	-5.261627e-06	-7.380397e-10	-3.658939e+01	-5.187784e+01
3.700000e-07	-5.246647e-06	-7.472192e-10	-3.648522e+01	-5.184134e+01
3.800000e-07	-5.231156e-06	-7.320607e-10	-3.637749e+01	-5.180655e+01
3.900000e-07	-5.215117e-06	-7.349554e-10	-3.626596e+01	-5.177337e+01
4.000000e-07	-5.198606e-06	-7.563653e-10	-3.615114e+01	-5.174164e+01
4.100000e-07	-5.181775e-06	-7.511309e-10	-3.603410e+01	-5.171122e+01
4.200000e-07	-5.164649e-06	-7.274569e-10	-3.591500e+01	-5.168191e+01
4.300000e-07	-5.147248e-06	-7.479732e-10	-3.579400e+01	-5.165354e+01
4.400000e-07	-5.129641e-06	-7.602368e-10	-3.567155e+01	-5.162591e+01
4.500000e-07	-5.111525e-06	-7.363409e-10	-3.554558e+01	-5.159879e+01
4.600000e-07	-5.092910e-06	-7.355088e-10	-3.541613e+01	-5.157197e+01
4.700000e-07	-5.073987e-06	-7.588292e-10	-3.528454e+01	-5.154522e+01
4.800000e-07	-5.054745e-06	-7.428931e-10	-3.515073e+01	-5.151830e+01
4.900000e-07	-5.035271e-06	-7.342005e-10	-3.501531e+01	-5.149098e+01
5.000000e-07	-5.015594e-06	-7.544497e-10	-3.487847e+01	-5.146301e+01
5.100000e-07	-4.995685e-06	-7.438404e-10	-3.474003e+01	-5.143417e+01
5.200000e-07	-4.975514e-06	-7.226724e-10	-3.459975e+01	-5.140422e+01
5.300000e-07	-4.954983e-06	-7.453266e-10	-3.445698e+01	-5.137292e+01
5.400000e-07	-4.934009e-06	-7.515860e-10	-3.431113e+01	-5.134006e+01
5.500000e-07	-4.912643e-06	-7.258105e-10	-3.416255e+01	-5.130541e+01
5.600000e-07	-4.890933e-06	-7.325918e-10	-3.401158e+01	-5.126879e+01
5.700000e-07	-4.868927e-06	-7.490472e-10	-3.385855e+01	-5.122998e+01
5.800000e-07	-4.846649e-06	-7.352889e-10	-3.370363e+01	-5.118881e+01
5.900000e-07	-4.823972e-06	-7.334474e-10	-3.354593e+01	-5.114511e+01
6.000000e-07	-4.800834e-06	-7.481742e-10	-3.338503e+01	-5.109872e+01
6.100000e-07	-4.777411e-06	-7.394447e-10	-3.322215e+01	-5.104951e+01
6.200000e-07	-4.753847e-06	-7.331759e-10	-3.305828e+01	-5.099735e+01
6.300000e-07	-4.730097e-06	-7.414403e-10	-3.289312e+01	-5.094213e+01
6.400000e-07	-4.706109e-06	-7.374194e-10	-3.272631e+01	-5.088376e+01
6.500000e-07	-4.681788e-06	-7.284212e-10	-3.255718e+01	-5.082216e+01
6.600000e-07	-4.657038e-06	-7.353241e-10	-3.238507e+01	-5.075727e+01
6.700000e-07	-4.631802e-06	-7.336831e-10	-3.220958e+01	-5.068905e+01
6.800000e-07	-4.605955e-06	-7.284527e-10	-3.202984e+01	-5.061745e+01
6.900000e-07	-4.579494e-06	-7.327693e-10	-3.184583e+01	-5.054247e+01
7.000000e-07	-4.552524e-06	-7.331142e-10	-3.165828e+01	-5.046410e+01
7.100000e-07	-4.525232e-06	-7.246565e-10	-3.146849e+01	-5.038234e+01
7.200000e-07	-4.497769e-06	-7.267647e-10	-3.127751e+01	-5.029722e+01
7.300000e-07	-4.470120e-06	-7.253348e-10	-3.108524e+01	-5.020876e+01
7.400000e-07	-4.442362e-06	-7.184660e-10	-3.089221e+01	-5.011701e+01
7.500000e-07	-4.414390e-06	-7.178734e-10	-3.069770e+01	-5.002202e+01
7.600000e-07	-4.386043e-06	-7.200562e-10	-3.050057e+01	-4.992382e+01
7.700000e-07	-4.357355e-06	-7.137712e-10	-3.030107e+01	-4.982249e+01
7.800000e-07	-4.328389e-06	-7.114846e-10	-3.009964e+01	-4.971808e+01
7.900000e-07	-4.299139e-06	-7.125877e-10	-2.989624e+01	-4.961066e+01
8.000000e-07	-4.269627e-06	-7.058360e-10	-2.969102e+01	-4.950030e+01
8.100000e-07	-4.239833e-06	-6.957928e-10	-2.948383e+01	-4.938707e+01
8.200000e-07	-4.209716e-06	-6.920998e-10	-2.927439e+01	-4.927102e+01
8.300000e-07	-4.179224e-06	-6.875070e-10	-2.906235e+01	-4.915223e+01
8.400000e-07	-4.148298e-06	-6.811199e-10	-2.884729e+01	-4.903076e+01
8.500000e-07	-4.117081e-06	-6.829654e-10	-2.863021e+01	-4.890666e+01
8.600000e-07	-4.085707e-06	-6.884481e-10	-2.841203e+01	-4.878000e+01
8.700000e-07	-4.054199e-06	-6.890298e-10	-2.819293e+01	-4.865081e+01
8.800000e-07	-4.022548e-06	-6.885876e-10	-2.797283e+01	-4.851914e+01
8.900000e-07	-3.990690e-06	-6.877192e-10	-2.775129e+01	-4.838502e+01
9.000000e-07	-3.958616e-06	-6.779250e-10	-2.752824e+01	-4.824850e+01
9.100000e-07	-3.926282e-06	-6.660940e-10	-2.730339e+01	-4.810958e+01
9.200000e-07	-3.893595e-06	-6.611140e-10	-2.707609e+01	-4.796829e+01
9.300000e-07	-3.860504e-06	-6.621894e-10	-2.684597e+01	-4.782465e+01
9.400000e-07	-3.826952e-06	-6.637576e-10	-2.661265e+01	-4.767864e+01
9.500000e-07	-3.792913e-06	-6.666935e-10	-2.637594e+01	-4.753027e+01
9.600000e-07	-3.758362e-06	-6.666549e-10	-2.613567e+01	-4.737953e+01
9.700000e-07	-3.723422e-06	-6.617286e-10	-2.589270e+01	-4.722641e+01
9.800000e-07	-3.688272e-06	-6.543293e-10	-2.564826e+01	-4.707088e+01
9.900000e-07	-3.652901e-06	-6.489878e-10	-2.540230e+01	-4.691293e+01
1.000000e-06	-3.617310e-06	-6.459571e-10	-2.515480e+01	-4.675252e+01
1.010000e-06	-3.581560e-06	-6.488900e-10	-2.490619e+01	-4.658962e+01
1.020000e-06	-3.545716e-06	-6.541955e-10	-2.465693e+01	-4.642420e+01
1.030000e-06	-3.509681e-06	-6.554226e-10	-2.440635e+01	-4.625622e+01
1.040000e-06	-3.473388e-06	-6.525744e-10	-2.415396e+01	-4.608565e+01
1.050000e-06	-3.436868e-06	-6.500844e-10	-2.390000e+01	-4.591244e+01
1.060000e-06	-3.400078e-06	-6.465811e-10	-2.364417e+01	-4.573656e+01
1.070000e-06	-3.363085e-06	-6.420823e-10	-2.338691e+01	-4.555797e+01
1.080000e-06	-3.325791e-06	-6.374924e-10	-2.312757e+01	-4.537662e+01
1.090000e-06	-3.288188e-06	-6.351185e-10	-2.286608e+01	-4.519249e+01
1.100000e-06	-3.250366e-06	-6.336040e-10	-2.260306e+01	-4.500552e+01
1.110000e-06	-3.212339e-06	-6.320964e-10	-2.233862e+01	-4.481570e+01
1.120000e-06	-3.174117e-06	-6.297826e-10	-2.207283e+01	-4.462297e+01
1.130000e-06	-3.135600e-06	-6.247618e-10	-2.180498e+01	-4.442732e+01
1.140000e-06	-3.096852e-06	-6.186514e-10	-2.153553e+01	-4.422870e+01
1.150000e-06	-3.057913e-06	-6.150638e-10	-2.126475e+01	-4.402709e+01
1.160000e-06	-3.018711e-06	-6.139529e-10	-2.099214e+01	-4.382246e+01
1.170000e-06	-2.979371e-06	-6.140458e-10	-2.071856e+01	-4.361477e+01
1.180000e-06	-2.939952e-06	-6.160047e-10	-2.044444e+01	-4.340399e+01
1.190000e-06	-2.900350e-06	-6.158344e-10	-2.016905e+01	-4.319009e+01
1.200000e-06	-2.860625e-06	-6.112996e-10	-1.989281e+01	-4.297304e+01
1.210000e-06	-2.820833e-06	-6.046848e-10	-1.961609e+01	-4.275279e+01
1.220000e-06	-2.780896e-06	-5.989567e-10	-1.933837e+01	-4.252929e+01
1.230000e-06	-2.740758e-06	-5.930600e-10	-1.905925e+01	-4.230252e+01
1.240000e-06	-2.700381e-06	-5.891403e-10	-1.877847e+01	-4.207240e+01
1.250000e-06	-2.659804e-06	-5.877898e-10	-1.849630e+01	-4.183887e+01
1.260000e-06	-2.618971e-06	-5.878003e-10	-1.821234e+01	-4.160188e+01
1.270000e-06	-2.577854e-06	-5.874395e-10	-1.792642e+01	-4.136132e+01
1.280000e-06	-2.536520e-06	-5.857521e-10	-1.763898e+01	-4.111712e+01
1.290000e-06	-2.494840e-06	-5.806191e-10	-1.734914e+01	-4.086916e+01
1.300000e-06	-2.452852e-06	-5.732617e-10	-1.705715e+01	-4.061734e+01
1.310000e-06	-2.410727e-06	-5.654804e-10	-1.676421e+01	-4.036152e+01
1.320000e-06	-2.368376e-06	-5.596246e-10	-1.646970e+01	-4.010154e+01
1.330000e-06	-2.325611e-06	-5.568816e-10	-1.617232e+01	-3.983726e+01
1.340000e-06	-2.282570e-06	-5.561497e-10	-1.587301e+01	-3.956849e+01
1.350000e-06	-2.239346e-06	-5.574703e-10	-1.557242e+01	-3.929503e+01
1.360000e-06	-2.195897e-06	-5.578812e-10	-1.527028e+01	-3.901667e+01
1.370000e-06	-2.152310e-06	-5.556164e-10	-1.496718e+01	-3.873318e+01
1.380000e-06	-2.108640e-06	-5.491408e-10	-1.466350e+01	-3.844430e+01
1.390000e-06	-2.064921e-06	-5.387709e-10	-1.435947e+01	-3.814977e+01
1.400000e-06	-2.021172e-06	-5.293577e-10	-1.405525e+01	-3.784930e+01
1.410000e-06	-1.977345e-06	-5.236764e-10	-1.375047e+01	-3.754258e+01
1.420000e-06	-1.933473e-06	-5.216219e-10	-1.344538e+01	-3.722930e+01
1.430000e-06	-1.889537e-06	-5.213343e-10	-1.313986e+01	-3.690911e+01
1.440000e-06	-1.845410e-06	-5.197998e-10	-1.283299e+01	-3.658167e+01
1.450000e-06	-1.801170e-06	-5.147138e-10	-1.252535e+01	-3.624661e+01
1.460000e-06	-1.756856e-06	-5.072278e-10	-1.221719e+01	-3.590354e+01
1.470000e-06	-1.712341e-06	-5.003602e-10	-1.190763e+01	-3.555210e+01
1.480000e-06	-1.667686e-06	-4.950393e-10	-1.159710e+01	-3.519186e+01
1.490000e-06	-1.622988e-06	-4.917044e-10	-1.128627e+01	-3.482244e+01
1.500000e-06	-1.578185e-06	-4.883250e-10	-1.097471e+01	-3.444343e+01
1.510000e-06	-1.533197e-06	-4.837722e-10	-1.066186e+01	-3.405440e+01
1.520000e-06	-1.488055e-06	-4.787234e-10	-1.034794e+01	-3.365496e+01
1.530000e-06	-1.442857e-06	-4.711028e-10	-1.003364e+01	-3.324469e+01
1.540000e-06	-1.397580e-06	-4.626739e-10	-9.718782e+00	-3.282318e+01
1.550000e-06	-1.352174e-06	-4.543743e-10	-9.403029e+00	-3.239004e+01
1.560000e-06	-1.306587e-06	-4.457685e-10	-9.086017e+00	-3.194489e+01
1.570000e-06	-1.260895e-06	-4.377318e-10	-8.768270e+00	-3.148735e+01
1.580000e-06	-1.215230e-06	-4.305252e-10	-8.450716e+00	-3.101706e+01
1.590000e-06	-1.169469e-06	-4.241313e-10	-8.132498e+00	-3.053368e+01
1.600000e-06	-1.123651e-06	-4.169938e-10	-7.813877e+00	-3.003689e+01
1.610000e-06	-1.077770e-06	-4.071627e-10	-7.494820e+00	-2.952639e+01
1.620000e-06	-1.031787e-06	-3.933405e-10	-7.175051e+00	-2.900192e+01
1.630000e-06	-9.857699e-07	-3.794079e-10	-6.855050e+00	-2.846321e+01
1.640000e-06	-9.396464e-07	-3.689900e-10	-6.534307e+00	-2.791008e+01
1.650000e-06	-8.934536e-07	-3.609078e-10	-6.213082e+00	-2.734231e+01
1.660000e-06	-8.472159e-07	-3.538752e-10	-5.891545e+00	-2.675978e+01
1.670000e-06	-8.009023e-07	-3.468781e-10	-5.569479e+00	-2.616236e+01
1.680000e-06	-7.545582e-07	-3.385053e-10	-5.247203e+00	-2.554998e+01
1.690000e-06	-7.081828e-07	-3.284045e-10	-4.924708e+00	-2.492258e+01
1.700000e-06	-6.617198e-07	-3.172299e-10	-4.601603e+00	-2.428018e+01
1.710000e-06	-6.152232e-07	-3.051612e-10	-4.278266e+00	-2.362281e+01
1.720000e-06	-5.687188e-07	-2.924896e-10	-3.954874e+00	-2.295053e+01
1.730000e-06	-5.222277e-07	-2.828263e-10	-3.631575e+00	-2.226347e+01
1.740000e-06	-4.757491e-07	-2.739720e-10	-3.308362e+00	-2.156178e+01
1.750000e-06	-4.291619e-07	-2.646402e-10	-2.984395e+00	-2.084565e+01
1.760000e-06	-3.823996e-07	-2.573931e-10	-2.659209e+00	-2.011532e+01
1.770000e-06	-3.355653e-07	-2.499390e-10	-2.333523e+00	-1.937105e+01
1.780000e-06	-2.887706e-07	-2.409025e-10	-2.008113e+00	-1.861315e+01
1.790000e-06	-2.419553e-07	-2.317697e-10	-1.682559e+00	-1.784195e+01
1.800000e-06	-1.952293e-07	-2.223603e-10	-1.357626e+00	-1.705784e+01
1.810000e-06	-1.486207e-07	-2.111396e-10	-1.033510e+00	-1.626123e+01
1.820000e-06	-1.018755e-07	-1.997685e-10	-7.084429e-01	-1.545254e+01
1.830000e-06	-5.502639e-08	-1.890034e-10	-3.826539e-01	-1.463225e+01
1.840000e-06	-8.172458e-09	-1.782619e-10	-5.683133e-02	-1.380084e+01
1.850000e-06	3.871125e-08	-1.684310e-10	2.691982e-01	-1.295884e+01
1.860000e-06	8.553715e-08	-1.578581e-10	5.948259e-01	-1.210677e+01
1.870000e-06	1.322864e-07	-1.448425e-10	9.199204e-01	-1.124521e+01
1.880000e-06	1.790136e-07	-1.327095e-10	1.244862e+00	-1.037472e+01
1.890000e-06	2.257409e-07	-1.220926e-10	1.569804e+00	-9.495896e+00
1.900000e-06	2.724336e-07	-1.107694e-10	1.894505e+00	-8.609331e+00
1.910000e-06	3.191150e-07	-9.903505e-11	2.219128e+00	-7.715640e+00
1.920000e-06	3.658044e-07	-8.655966e-11	2.543806e+00	-6.815440e+00
1.930000e-06	4.124779e-07	-7.270208e-11	2.868374e+00	-5.909354e+00
1.940000e-06	4.591592e-07	-5.804436e-11	3.192996e+00	-4.998006e+00
1.950000e-06	5.058508e-07	-4.362061e-11	3.517690e+00	-4.082022e+00
1.960000e-06	5.525485e-07	-2.988249e-11	3.842426e+00	-3.162026e+00
1.970000e-06	5.990923e-07	-1.660976e-11	4.166091e+00	-2.238639e+00
1.980000e-06	6.454801e-07	-4.662082e-12	4.488673e+00	-1.312475e+00
1.990000e-06	6.918805e-07	6.243269e-12	4.811341e+00	-3.841431e-01
2.000000e-06	7.382163e-07	1.862458e-11	5.133561e+00	5.457578e-01
2.010000e-06	7.844421e-07	3.374994e-11	5.455016e+00	1.476637e+00
2.020000e-06	8.306549e-07	4.907177e-11	5.776380e+00	2.407916e+00
2.030000e-06	8.768416e-07	6.641307e-11	6.097562e+00	3.339027e+00
2.040000e-06	9.229693e-07	8.571328e-11	6.418334e+00	4.269415e+00
2.050000e-06	9.689817e-07	1.014520e-10	6.738305e+00	5.198538e+00
2.060000e-06	1.014895e-06	1.136629e-10	7.057588e+00	6.125869e+00
2.070000e-06	1.060796e-06	1.243033e-10	7.376785e+00	7.050893e+00
2.080000e-06	1.106635e-06	1.344820e-10	7.695550e+00	7.973109e+00
2.090000e-06	1.152375e-06	1.470397e-10	8.013621e+00	8.892032e+00
2.100000e-06	1.198034e-06	1.620441e-10	8.331136e+00	9.807189e+00
2.110000e-06	1.243571e-06	1.774341e-10	8.647798e+00	1.071812e+01
2.120000e-06	1.289058e-06	1.926804e-10	8.964116e+00	1.162438e+01
2.130000e-06	1.334503e-06	2.074667e-10	9.280142e+00	1.252554e+01
2.140000e-06	1.379813e-06	2.195070e-10	9.595226e+00	1.342118e+01
2.150000e-06	1.425008e-06	2.275541e-10	9.909517e+00	1.431088e+01
2.160000e-06	1.470105e-06	2.357888e-10	1.022312e+01	1.519425e+01
2.170000e-06	1.515157e-06	2.468950e-10	1.053641e+01	1.607090e+01
2.180000e-06	1.560047e-06	2.609350e-10	1.084858e+01	1.694045e+01
2.190000e-06	1.604713e-06	2.757242e-10	1.115918e+01	1.780254e+01
2.200000e-06	1.649341e-06	2.898564e-10	1.146953e+01	1.865680e+01
2.210000e-06	1.693915e-06	3.016718e-10	1.177949e+01	1.950289e+01
2.220000e-06	1.738328e-06	3.093163e-10	1.208834e+01	2.034045e+01
2.230000e-06	1.782618e-06	3.167996e-10	1.239633e+01	2.116916e+01
2.240000e-06	1.826727e-06	3.274747e-10	1.270307e+01	2.198867e+01
2.250000e-06	1.870684e-06	3.406583e-10	1.300875e+01	2.279867e+01
2.260000e-06	1.914603e-06	3.544600e-10	1.331416e+01	2.359884e+01
2.270000e-06	1.958455e-06	3.668442e-10	1.361911e+01	2.438886e+01
2.280000e-06	2.002217e-06	3.772143e-10	1.392343e+01	2.516844e+01
2.290000e-06	2.045914e-06	3.860138e-10	1.422730e+01	2.593727e+01
2.300000e-06	2.089560e-06	3.951047e-10	1.453081e+01	2.669507e+01
2.310000e-06	2.133148e-06	4.036005e-10	1.483393e+01	2.744154e+01
2.320000e-06	2.176712e-06	4.136177e-10	1.513687e+01	2.817643e+01
2.330000e-06	2.220189e-06	4.264311e-10	1.543921e+01	2.889945e+01
2.340000e-06	2.263588e-06	4.373504e-10	1.574101e+01	2.961036e+01
2.350000e-06	2.306905e-06	4.463896e-10	1.604223e+01	3.030892e+01
2.360000e-06	2.349952e-06	4.541175e-10	1.634158e+01	3.099488e+01
2.370000e-06	2.392623e-06	4.621793e-10	1.663832e+01	3.166803e+01
2.380000e-06	2.434934e-06	4.689052e-10	1.693254e+01	3.232816e+01
2.390000e-06	2.476807e-06	4.761677e-10	1.722373e+01	3.297508e+01
2.400000e-06	2.518377e-06	4.843524e-10	1.751281e+01	3.360862e+01
2.410000e-06	2.559718e-06	4.928118e-10	1.780030e+01	3.422861e+01
2.420000e-06	2.600641e-06	5.021401e-10	1.808488e+01	3.483493e+01
2.430000e-06	2.641285e-06	5.113326e-10	1.836751e+01	3.542745e+01
2.440000e-06	2.681740e-06	5.188362e-10	1.864884e+01	3.600607e+01
2.450000e-06	2.722030e-06	5.247903e-10	1.892901e+01	3.657072e+01
2.460000e-06	2.762144e-06	5.304421e-10	1.920797e+01	3.712134e+01
2.470000e-06	2.802039e-06	5.364841e-10	1.948539e+01	3.765791e+01
2.480000e-06	2.841801e-06	5.425126e-10	1.976190e+01	3.818043e+01
2.490000e-06	2.881484e-06	5.470344e-10	2.003786e+01	3.868891e+01
2.500000e-06	2.921088e-06	5.545944e-10	2.031326e+01	3.918341e+01
2.510000e-06	2.960542e-06	5.640240e-10	2.058763e+01	3.966400e+01
2.520000e-06	2.999773e-06	5.759781e-10	2.086044e+01	4.013077e+01
2.530000e-06	3.038806e-06	5.853045e-10	2.113188e+01	4.058386e+01
2.540000e-06	3.077647e-06	5.931753e-10	2.140198e+01	4.102342e+01
2.550000e-06	3.116298e-06	5.991759e-10	2.167076e+01	4.144963e+01
2.560000e-06	3.154762e-06	6.011461e-10	2.193824e+01	4.186269e+01
2.570000e-06	3.192925e-06	6.053747e-10	2.220362e+01	4.226282e+01
2.580000e-06	3.230854e-06	6.102306e-10	2.246738e+01	4.265030e+01
2.590000e-06	3.268634e-06	6.167817e-10	2.273010e+01	4.302537e+01
2.600000e-06	3.306186e-06	6.228129e-10	2.299124e+01	4.338836e+01
2.610000e-06	3.343504e-06	6.254421e-10	2.325075e+01	4.373955e+01
2.620000e-06	3.380601e-06	6.281819e-10	2.350872e+01	4.407930e+01
2.630000e-06	3.417430e-06	6.324022e-10	2.376483e+01	4.440795e+01
2.640000e-06	3.454042e-06	6.379867e-10	2.401943e+01	4.472586e+01
2.650000e-06	3.490423e-06	6.446950e-10	2.427242e+01	4.503341e+01
2.660000e-06	3.526508e-06	6.521070e-10	2.452336e+01	4.533097e+01
2.670000e-06	3.562399e-06	6.590627e-10	2.477294e+01	4.561895e+01
2.680000e-06	3.598124e-06	6.638902e-10	2.502138e+01	4.589773e+01
2.690000e-06	3.633746e-06	6.638232e-10	2.526909e+01	4.616771e+01
2.700000e-06	3.669277e-06	6.629263e-10	2.551617e+01	4.642931e+01
2.710000e-06	3.704654e-06	6.657912e-10	2.576219e+01	4.668290e+01
2.720000e-06	3.739770e-06	6.715241e-10	2.600639e+01	4.692888e+01
2.730000e-06	3.774518e-06	6.798156e-10	2.624802e+01	4.716764e+01
2.740000e-06	3.808853e-06	6.861970e-10	2.648679e+01	4.739956e+01
2.750000e-06	3.842660e-06	6.897638e-10	2.672188e+01	4.762499e+01
2.760000e-06	3.876050e-06	6.910295e-10	2.695407e+01	4.784428e+01
2.770000e-06	3.909181e-06	6.906797e-10	2.718447e+01	4.805778e+01
2.780000e-06	3.941835e-06	6.925733e-10	2.741155e+01	4.826579e+01
2.790000e-06	3.973976e-06	6.962209e-10	2.763506e+01	4.846863e+01
2.800000e-06	4.005862e-06	6.997756e-10	2.785679e+01	4.866656e+01
2.810000e-06	4.037582e-06	7.032791e-10	2.807737e+01	4.885984e+01
2.820000e-06	4.069150e-06	7.070411e-10	2.829689e+01	4.904870e+01
2.830000e-06	4.100616e-06	7.104441e-10	2.851571e+01	4.923337e+01
2.840000e-06	4.131923e-06	7.150912e-10	2.873342e+01	4.941402e+01
2.850000e-06	4.162949e-06	7.194089e-10	2.894917e+01	4.959082e+01
2.860000e-06	4.193599e-06	7.223653e-10	2.916231e+01	4.976391e+01
2.870000e-06	4.223858e-06	7.239576e-10	2.937274e+01	4.993341e+01
2.880000e-06	4.253813e-06	7.212281e-10	2.958105e+01	5.009940e+01
2.890000e-06	4.283584e-06	7.186910e-10	2.978807e+01	5.026196e+01
2.900000e-06	4.313103e-06	7.176206e-10	2.999334e+01	5.042114e+01
