# Temperatura_=_-0.3
# Concentracion g/m^3_=_1620.0
# C_Vs_to_Am_M_A/Vsm_=_65563218390.804596
# pendiente_HvsI_1/m_=_3716.3
# ordenada_HvsI_A/m_=_1297.0
# frecuencia_Hz_=_135093.6093261521

Tiempo_(s)	Campo_(V.s)	Magnetizacion_(V.s)	Campo_(kA/m)	Magnetizacion_(A/m)
0.000000e+00	-5.498098e-06	-1.736940e-09	-3.837288e+01	-1.117027e+02
1.000000e-08	-5.498240e-06	-1.735512e-09	-3.837387e+01	-1.116433e+02
2.000000e-08	-5.497997e-06	-1.736656e-09	-3.837217e+01	-1.115802e+02
3.000000e-08	-5.497297e-06	-1.738652e-09	-3.836729e+01	-1.115136e+02
4.000000e-08	-5.496009e-06	-1.739520e-09	-3.835830e+01	-1.114438e+02
5.000000e-08	-5.494164e-06	-1.737835e-09	-3.834542e+01	-1.113709e+02
6.000000e-08	-5.491858e-06	-1.733808e-09	-3.832933e+01	-1.112951e+02
7.000000e-08	-5.488940e-06	-1.759601e-09	-3.830896e+01	-1.112166e+02
8.000000e-08	-5.485523e-06	-1.769762e-09	-3.828512e+01	-1.111356e+02
9.000000e-08	-5.481669e-06	-1.711640e-09	-3.825821e+01	-1.110522e+02
1.000000e-07	-5.477453e-06	-1.658190e-09	-3.822879e+01	-1.109666e+02
1.100000e-07	-5.473063e-06	-1.736523e-09	-3.819815e+01	-1.108789e+02
1.200000e-07	-5.468419e-06	-1.805677e-09	-3.816574e+01	-1.107893e+02
1.300000e-07	-5.463455e-06	-1.752697e-09	-3.813109e+01	-1.106979e+02
1.400000e-07	-5.458186e-06	-1.658764e-09	-3.809432e+01	-1.106048e+02
1.500000e-07	-5.452538e-06	-1.731119e-09	-3.805490e+01	-1.105101e+02
1.600000e-07	-5.446419e-06	-1.804175e-09	-3.801219e+01	-1.104139e+02
1.700000e-07	-5.439871e-06	-1.771988e-09	-3.796649e+01	-1.103162e+02
1.800000e-07	-5.432963e-06	-1.645747e-09	-3.791828e+01	-1.102171e+02
1.900000e-07	-5.425766e-06	-1.692989e-09	-3.786805e+01	-1.101166e+02
2.000000e-07	-5.418300e-06	-1.735225e-09	-3.781594e+01	-1.100148e+02
2.100000e-07	-5.410563e-06	-1.736217e-09	-3.776194e+01	-1.099116e+02
2.200000e-07	-5.402562e-06	-1.662364e-09	-3.770610e+01	-1.098070e+02
2.300000e-07	-5.394225e-06	-1.679228e-09	-3.764792e+01	-1.097010e+02
2.400000e-07	-5.385164e-06	-1.700902e-09	-3.758467e+01	-1.095935e+02
2.500000e-07	-5.375381e-06	-1.681436e-09	-3.751640e+01	-1.094844e+02
2.600000e-07	-5.365114e-06	-1.651663e-09	-3.744474e+01	-1.093738e+02
2.700000e-07	-5.354278e-06	-1.648959e-09	-3.736911e+01	-1.092613e+02
2.800000e-07	-5.342942e-06	-1.667224e-09	-3.729000e+01	-1.091470e+02
2.900000e-07	-5.331224e-06	-1.647966e-09	-3.720821e+01	-1.090307e+02
3.000000e-07	-5.319120e-06	-1.658768e-09	-3.712374e+01	-1.089122e+02
3.100000e-07	-5.306572e-06	-1.633341e-09	-3.703616e+01	-1.087914e+02
3.200000e-07	-5.293669e-06	-1.663664e-09	-3.694611e+01	-1.086681e+02
3.300000e-07	-5.280530e-06	-1.639798e-09	-3.685441e+01	-1.085421e+02
3.400000e-07	-5.266996e-06	-1.637835e-09	-3.675995e+01	-1.084132e+02
3.500000e-07	-5.252914e-06	-1.610347e-09	-3.666167e+01	-1.082812e+02
3.600000e-07	-5.238489e-06	-1.656073e-09	-3.656099e+01	-1.081458e+02
3.700000e-07	-5.223626e-06	-1.619880e-09	-3.645725e+01	-1.080069e+02
3.800000e-07	-5.208156e-06	-1.616944e-09	-3.634929e+01	-1.078641e+02
3.900000e-07	-5.192156e-06	-1.629894e-09	-3.623761e+01	-1.077173e+02
4.000000e-07	-5.175750e-06	-1.630565e-09	-3.612311e+01	-1.075662e+02
4.100000e-07	-5.159018e-06	-1.567682e-09	-3.600634e+01	-1.074105e+02
4.200000e-07	-5.141948e-06	-1.611072e-09	-3.588720e+01	-1.072500e+02
4.300000e-07	-5.124589e-06	-1.650318e-09	-3.576605e+01	-1.070845e+02
4.400000e-07	-5.106862e-06	-1.593426e-09	-3.564233e+01	-1.069136e+02
4.500000e-07	-5.088683e-06	-1.557120e-09	-3.551545e+01	-1.067371e+02
4.600000e-07	-5.070110e-06	-1.628194e-09	-3.538582e+01	-1.065549e+02
4.700000e-07	-5.051119e-06	-1.600515e-09	-3.525328e+01	-1.063666e+02
4.800000e-07	-5.031783e-06	-1.537610e-09	-3.511833e+01	-1.061720e+02
4.900000e-07	-5.012264e-06	-1.586043e-09	-3.498210e+01	-1.059709e+02
5.000000e-07	-4.992617e-06	-1.614739e-09	-3.484497e+01	-1.057631e+02
5.100000e-07	-4.972693e-06	-1.545561e-09	-3.470592e+01	-1.055483e+02
5.200000e-07	-4.952419e-06	-1.563127e-09	-3.456442e+01	-1.053265e+02
5.300000e-07	-4.931812e-06	-1.613187e-09	-3.442060e+01	-1.050973e+02
5.400000e-07	-4.910843e-06	-1.541956e-09	-3.427425e+01	-1.048607e+02
5.500000e-07	-4.889437e-06	-1.509922e-09	-3.412485e+01	-1.046166e+02
5.600000e-07	-4.867632e-06	-1.570089e-09	-3.397266e+01	-1.043647e+02
5.700000e-07	-4.845614e-06	-1.557443e-09	-3.381899e+01	-1.041049e+02
5.800000e-07	-4.823331e-06	-1.503887e-09	-3.366348e+01	-1.038373e+02
5.900000e-07	-4.800680e-06	-1.550166e-09	-3.350539e+01	-1.035616e+02
6.000000e-07	-4.777718e-06	-1.559284e-09	-3.334513e+01	-1.032779e+02
6.100000e-07	-4.754530e-06	-1.515184e-09	-3.318329e+01	-1.029861e+02
6.200000e-07	-4.731032e-06	-1.515666e-09	-3.301929e+01	-1.026862e+02
6.300000e-07	-4.707199e-06	-1.541775e-09	-3.285295e+01	-1.023781e+02
6.400000e-07	-4.683066e-06	-1.502105e-09	-3.268452e+01	-1.020620e+02
6.500000e-07	-4.658537e-06	-1.499198e-09	-3.251333e+01	-1.017378e+02
6.600000e-07	-4.633620e-06	-1.511287e-09	-3.233943e+01	-1.014056e+02
6.700000e-07	-4.608161e-06	-1.496388e-09	-3.216174e+01	-1.010656e+02
6.800000e-07	-4.582065e-06	-1.473150e-09	-3.197961e+01	-1.007176e+02
6.900000e-07	-4.555475e-06	-1.489405e-09	-3.179403e+01	-1.003620e+02
7.000000e-07	-4.528478e-06	-1.476913e-09	-3.160561e+01	-9.999877e+01
7.100000e-07	-4.501230e-06	-1.464322e-09	-3.141544e+01	-9.962809e+01
7.200000e-07	-4.473812e-06	-1.461066e-09	-3.122408e+01	-9.925012e+01
7.300000e-07	-4.446234e-06	-1.460670e-09	-3.103160e+01	-9.886502e+01
7.400000e-07	-4.418401e-06	-1.445056e-09	-3.083735e+01	-9.847296e+01
7.500000e-07	-4.390293e-06	-1.443239e-09	-3.064117e+01	-9.807413e+01
7.600000e-07	-4.361938e-06	-1.434972e-09	-3.044327e+01	-9.766873e+01
7.700000e-07	-4.333260e-06	-1.425558e-09	-3.024312e+01	-9.725695e+01
7.800000e-07	-4.304260e-06	-1.417572e-09	-3.004072e+01	-9.683901e+01
7.900000e-07	-4.274965e-06	-1.411755e-09	-2.983626e+01	-9.641510e+01
8.000000e-07	-4.245327e-06	-1.398687e-09	-2.962941e+01	-9.598545e+01
8.100000e-07	-4.215366e-06	-1.392146e-09	-2.942030e+01	-9.555025e+01
8.200000e-07	-4.185155e-06	-1.391695e-09	-2.920946e+01	-9.510973e+01
8.300000e-07	-4.154699e-06	-1.382152e-09	-2.899689e+01	-9.466408e+01
8.400000e-07	-4.123878e-06	-1.372827e-09	-2.878178e+01	-9.421351e+01
8.500000e-07	-4.092807e-06	-1.368006e-09	-2.856493e+01	-9.375820e+01
8.600000e-07	-4.061553e-06	-1.363112e-09	-2.834680e+01	-9.329836e+01
8.700000e-07	-4.030059e-06	-1.348861e-09	-2.812699e+01	-9.283415e+01
8.800000e-07	-3.998442e-06	-1.346907e-09	-2.790633e+01	-9.236574e+01
8.900000e-07	-3.966581e-06	-1.340552e-09	-2.768396e+01	-9.189329e+01
9.000000e-07	-3.934436e-06	-1.328399e-09	-2.745961e+01	-9.141694e+01
9.100000e-07	-3.901990e-06	-1.316875e-09	-2.723316e+01	-9.093682e+01
9.200000e-07	-3.869119e-06	-1.317685e-09	-2.700375e+01	-9.045304e+01
9.300000e-07	-3.835929e-06	-1.307263e-09	-2.677210e+01	-8.996571e+01
9.400000e-07	-3.802359e-06	-1.299111e-09	-2.653781e+01	-8.947491e+01
9.500000e-07	-3.768289e-06	-1.294793e-09	-2.630002e+01	-8.898070e+01
9.600000e-07	-3.733778e-06	-1.290843e-09	-2.605916e+01	-8.848313e+01
9.700000e-07	-3.698871e-06	-1.273212e-09	-2.581553e+01	-8.798224e+01
9.800000e-07	-3.663711e-06	-1.265642e-09	-2.557014e+01	-8.747805e+01
9.900000e-07	-3.628315e-06	-1.257566e-09	-2.532310e+01	-8.697056e+01
1.000000e-06	-3.592771e-06	-1.248630e-09	-2.507503e+01	-8.645975e+01
1.010000e-06	-3.557121e-06	-1.240501e-09	-2.482621e+01	-8.594558e+01
1.020000e-06	-3.521271e-06	-1.240662e-09	-2.457601e+01	-8.542801e+01
1.030000e-06	-3.485247e-06	-1.232905e-09	-2.432459e+01	-8.490698e+01
1.040000e-06	-3.449000e-06	-1.223004e-09	-2.407161e+01	-8.438242e+01
1.050000e-06	-3.412476e-06	-1.214299e-09	-2.381669e+01	-8.385422e+01
1.060000e-06	-3.375745e-06	-1.205308e-09	-2.356034e+01	-8.332229e+01
1.070000e-06	-3.338756e-06	-1.191047e-09	-2.330218e+01	-8.278651e+01
1.080000e-06	-3.301399e-06	-1.183007e-09	-2.304146e+01	-8.224677e+01
1.090000e-06	-3.263820e-06	-1.177573e-09	-2.277918e+01	-8.170292e+01
1.100000e-06	-3.226124e-06	-1.167172e-09	-2.251609e+01	-8.115482e+01
1.110000e-06	-3.188259e-06	-1.158215e-09	-2.225182e+01	-8.060233e+01
1.120000e-06	-3.150098e-06	-1.152278e-09	-2.198548e+01	-8.004529e+01
1.130000e-06	-3.111672e-06	-1.144557e-09	-2.171729e+01	-7.948354e+01
1.140000e-06	-3.073026e-06	-1.132170e-09	-2.144758e+01	-7.891691e+01
1.150000e-06	-3.034235e-06	-1.121861e-09	-2.117684e+01	-7.834524e+01
1.160000e-06	-2.995327e-06	-1.112320e-09	-2.090529e+01	-7.776837e+01
1.170000e-06	-2.956110e-06	-1.102800e-09	-2.063158e+01	-7.718611e+01
1.180000e-06	-2.916741e-06	-1.090552e-09	-2.035682e+01	-7.659830e+01
1.190000e-06	-2.877321e-06	-1.079816e-09	-2.008169e+01	-7.600478e+01
1.200000e-06	-2.837701e-06	-1.066483e-09	-1.980517e+01	-7.540537e+01
1.210000e-06	-2.797943e-06	-1.055745e-09	-1.952769e+01	-7.479991e+01
1.220000e-06	-2.758043e-06	-1.045351e-09	-1.924921e+01	-7.418823e+01
1.230000e-06	-2.717971e-06	-1.036727e-09	-1.896954e+01	-7.357018e+01
1.240000e-06	-2.677762e-06	-1.026047e-09	-1.868891e+01	-7.294558e+01
1.250000e-06	-2.637342e-06	-1.019296e-09	-1.840680e+01	-7.231428e+01
1.260000e-06	-2.596667e-06	-1.010416e-09	-1.812292e+01	-7.167614e+01
1.270000e-06	-2.555774e-06	-9.995105e-10	-1.783751e+01	-7.103098e+01
1.280000e-06	-2.514629e-06	-9.866769e-10	-1.755035e+01	-7.037865e+01
1.290000e-06	-2.473140e-06	-9.762150e-10	-1.726079e+01	-6.971901e+01
1.300000e-06	-2.431275e-06	-9.638366e-10	-1.696860e+01	-6.905190e+01
1.310000e-06	-2.389090e-06	-9.521993e-10	-1.667418e+01	-6.837716e+01
1.320000e-06	-2.346689e-06	-9.414542e-10	-1.637825e+01	-6.769463e+01
1.330000e-06	-2.304114e-06	-9.323683e-10	-1.608110e+01	-6.700416e+01
1.340000e-06	-2.261318e-06	-9.208343e-10	-1.578242e+01	-6.630557e+01
1.350000e-06	-2.218309e-06	-9.084553e-10	-1.548225e+01	-6.559869e+01
1.360000e-06	-2.175129e-06	-8.957556e-10	-1.518088e+01	-6.488335e+01
1.370000e-06	-2.131757e-06	-8.834515e-10	-1.487818e+01	-6.415935e+01
1.380000e-06	-2.088226e-06	-8.695164e-10	-1.457435e+01	-6.342650e+01
1.390000e-06	-2.044672e-06	-8.572274e-10	-1.427038e+01	-6.268459e+01
1.400000e-06	-2.001090e-06	-8.473317e-10	-1.396621e+01	-6.193339e+01
1.410000e-06	-1.957395e-06	-8.371838e-10	-1.366125e+01	-6.117269e+01
1.420000e-06	-1.913617e-06	-8.266566e-10	-1.335571e+01	-6.040221e+01
1.430000e-06	-1.869708e-06	-8.155261e-10	-1.304926e+01	-5.962171e+01
1.440000e-06	-1.825677e-06	-8.017769e-10	-1.274195e+01	-5.883090e+01
1.450000e-06	-1.781542e-06	-7.867053e-10	-1.243392e+01	-5.802948e+01
1.460000e-06	-1.737349e-06	-7.736218e-10	-1.212548e+01	-5.721714e+01
1.470000e-06	-1.693019e-06	-7.602806e-10	-1.181609e+01	-5.639354e+01
1.480000e-06	-1.648436e-06	-7.493827e-10	-1.150493e+01	-5.555833e+01
1.490000e-06	-1.603747e-06	-7.408075e-10	-1.119303e+01	-5.471114e+01
1.500000e-06	-1.559054e-06	-7.325925e-10	-1.088111e+01	-5.385158e+01
1.510000e-06	-1.514227e-06	-7.194472e-10	-1.056825e+01	-5.297924e+01
1.520000e-06	-1.469238e-06	-7.041052e-10	-1.025425e+01	-5.209371e+01
1.530000e-06	-1.424166e-06	-6.895798e-10	-9.939686e+00	-5.119455e+01
1.540000e-06	-1.378999e-06	-6.765729e-10	-9.624450e+00	-5.028130e+01
1.550000e-06	-1.333740e-06	-6.589673e-10	-9.308574e+00	-4.935349e+01
1.560000e-06	-1.288365e-06	-6.453467e-10	-8.991886e+00	-4.841066e+01
1.570000e-06	-1.242873e-06	-6.340365e-10	-8.674384e+00	-4.745231e+01
1.580000e-06	-1.197314e-06	-6.197509e-10	-8.356411e+00	-4.647796e+01
1.590000e-06	-1.151689e-06	-6.044827e-10	-8.037981e+00	-4.548711e+01
1.600000e-06	-1.105929e-06	-5.877703e-10	-7.718614e+00	-4.447926e+01
1.610000e-06	-1.060034e-06	-5.702550e-10	-7.398296e+00	-4.345392e+01
1.620000e-06	-1.014116e-06	-5.532408e-10	-7.077823e+00	-4.241060e+01
1.630000e-06	-9.681656e-07	-5.383509e-10	-6.757119e+00	-4.134882e+01
1.640000e-06	-9.221469e-07	-5.245395e-10	-6.435940e+00	-4.026812e+01
1.650000e-06	-8.760630e-07	-5.081856e-10	-6.114307e+00	-3.916804e+01
1.660000e-06	-8.298975e-07	-4.906579e-10	-5.792104e+00	-3.804816e+01
1.670000e-06	-7.837522e-07	-4.713217e-10	-5.470042e+00	-3.690806e+01
1.680000e-06	-7.375941e-07	-4.537329e-10	-5.147891e+00	-3.574738e+01
1.690000e-06	-6.912881e-07	-4.376920e-10	-4.824708e+00	-3.456576e+01
1.700000e-06	-6.449311e-07	-4.214477e-10	-4.501168e+00	-3.336291e+01
1.710000e-06	-5.985878e-07	-4.034678e-10	-4.177724e+00	-3.213855e+01
1.720000e-06	-5.521721e-07	-3.847312e-10	-3.853775e+00	-3.089245e+01
1.730000e-06	-5.057288e-07	-3.665047e-10	-3.529633e+00	-2.962446e+01
1.740000e-06	-4.592321e-07	-3.456001e-10	-3.205119e+00	-2.833444e+01
1.750000e-06	-4.126210e-07	-3.235735e-10	-2.879806e+00	-2.702234e+01
1.760000e-06	-3.659692e-07	-3.034171e-10	-2.554209e+00	-2.568813e+01
1.770000e-06	-3.193408e-07	-2.836295e-10	-2.228775e+00	-2.433189e+01
1.780000e-06	-2.727249e-07	-2.629650e-10	-1.903429e+00	-2.295373e+01
1.790000e-06	-2.261273e-07	-2.428696e-10	-1.578210e+00	-2.155383e+01
1.800000e-06	-1.795211e-07	-2.243504e-10	-1.252932e+00	-2.013247e+01
1.810000e-06	-1.329096e-07	-2.033679e-10	-9.276157e-01	-1.868996e+01
1.820000e-06	-8.627664e-08	-1.799701e-10	-6.021506e-01	-1.722670e+01
1.830000e-06	-3.964386e-08	-1.576733e-10	-2.766864e-01	-1.574317e+01
1.840000e-06	6.885275e-09	-1.357106e-10	4.805440e-02	-1.423993e+01
1.850000e-06	5.344032e-08	-1.157852e-10	3.729761e-01	-1.271759e+01
1.860000e-06	1.001158e-07	-9.512010e-11	6.987385e-01	-1.117685e+01
1.870000e-06	1.467652e-07	-7.319168e-11	1.024318e+00	-9.618474e+00
1.880000e-06	1.933549e-07	-5.137857e-11	1.349482e+00	-8.043311e+00
1.890000e-06	2.398995e-07	-3.193048e-11	1.674331e+00	-6.452269e+00
1.900000e-06	2.864675e-07	-1.190388e-11	1.999343e+00	-4.846326e+00
1.910000e-06	3.331039e-07	9.752605e-12	2.324832e+00	-3.226524e+00
1.920000e-06	3.796756e-07	3.250865e-11	2.649870e+00	-1.593968e+00
1.930000e-06	4.261675e-07	5.693521e-11	2.974351e+00	5.017937e-02
1.940000e-06	4.725792e-07	8.122813e-11	3.298272e+00	1.704703e+00
1.950000e-06	5.189228e-07	1.045738e-10	3.621718e+00	3.368337e+00
1.960000e-06	5.652854e-07	1.280196e-10	3.945297e+00	5.039769e+00
1.970000e-06	6.116162e-07	1.512151e-10	4.268653e+00	6.717651e+00
1.980000e-06	6.578666e-07	1.742014e-10	4.591449e+00	8.400597e+00
1.990000e-06	7.040769e-07	1.956054e-10	4.913964e+00	1.008719e+01
2.000000e-06	7.502574e-07	2.200336e-10	5.236272e+00	1.177600e+01
2.010000e-06	7.963228e-07	2.448915e-10	5.557776e+00	1.346558e+01
2.020000e-06	8.422992e-07	2.697530e-10	5.878659e+00	1.515445e+01
2.030000e-06	8.882085e-07	2.967194e-10	6.199074e+00	1.684115e+01
2.040000e-06	9.341234e-07	3.213226e-10	6.519528e+00	1.852421e+01
2.050000e-06	9.801204e-07	3.440335e-10	6.840555e+00	2.020218e+01
2.060000e-06	1.025909e-06	3.644099e-10	7.160125e+00	2.187361e+01
2.070000e-06	1.071528e-06	3.822682e-10	7.478517e+00	2.353709e+01
2.080000e-06	1.117155e-06	4.020445e-10	7.796958e+00	2.519121e+01
2.090000e-06	1.162739e-06	4.274198e-10	8.115105e+00	2.683462e+01
2.100000e-06	1.208254e-06	4.520021e-10	8.432767e+00	2.846599e+01
2.110000e-06	1.253663e-06	4.748471e-10	8.749688e+00	3.008405e+01
2.120000e-06	1.299043e-06	4.968556e-10	9.066408e+00	3.168757e+01
2.130000e-06	1.344280e-06	5.170430e-10	9.382135e+00	3.327538e+01
2.140000e-06	1.389310e-06	5.351989e-10	9.696409e+00	3.484637e+01
2.150000e-06	1.434275e-06	5.529321e-10	1.001024e+01	3.639948e+01
2.160000e-06	1.479145e-06	5.727580e-10	1.032339e+01	3.793373e+01
2.170000e-06	1.523969e-06	5.925130e-10	1.063624e+01	3.944821e+01
2.180000e-06	1.568727e-06	6.140930e-10	1.094862e+01	4.094208e+01
2.190000e-06	1.613342e-06	6.359675e-10	1.126000e+01	4.241459e+01
2.200000e-06	1.657809e-06	6.531106e-10	1.157035e+01	4.386504e+01
2.210000e-06	1.702160e-06	6.684786e-10	1.187989e+01	4.529283e+01
2.220000e-06	1.746452e-06	6.833749e-10	1.218902e+01	4.669745e+01
2.230000e-06	1.790571e-06	7.000573e-10	1.249693e+01	4.807843e+01
2.240000e-06	1.834489e-06	7.181706e-10	1.280345e+01	4.943543e+01
2.250000e-06	1.878353e-06	7.383202e-10	1.310959e+01	5.076815e+01
2.260000e-06	1.922171e-06	7.584187e-10	1.341541e+01	5.207640e+01
2.270000e-06	1.965877e-06	7.757369e-10	1.372045e+01	5.336004e+01
2.280000e-06	2.009511e-06	7.914327e-10	1.402498e+01	5.461902e+01
2.290000e-06	2.053136e-06	8.067887e-10	1.432945e+01	5.585337e+01
2.300000e-06	2.096705e-06	8.221169e-10	1.463353e+01	5.706317e+01
2.310000e-06	2.140205e-06	8.380442e-10	1.493713e+01	5.824858e+01
2.320000e-06	2.183664e-06	8.547947e-10	1.524045e+01	5.940981e+01
2.330000e-06	2.226977e-06	8.723162e-10	1.554274e+01	6.054716e+01
2.340000e-06	2.270150e-06	8.901629e-10	1.584406e+01	6.166094e+01
2.350000e-06	2.313126e-06	9.072387e-10	1.614400e+01	6.275155e+01
2.360000e-06	2.355713e-06	9.221817e-10	1.644123e+01	6.381941e+01
2.370000e-06	2.398097e-06	9.346769e-10	1.673704e+01	6.486499e+01
2.380000e-06	2.440240e-06	9.476736e-10	1.703117e+01	6.588880e+01
2.390000e-06	2.481904e-06	9.625192e-10	1.732195e+01	6.689138e+01
2.400000e-06	2.523263e-06	9.784224e-10	1.761061e+01	6.787328e+01
2.410000e-06	2.564363e-06	9.948108e-10	1.789746e+01	6.883509e+01
2.420000e-06	2.605233e-06	1.011082e-09	1.818270e+01	6.977742e+01
2.430000e-06	2.645964e-06	1.026043e-09	1.846698e+01	7.070086e+01
2.440000e-06	2.686380e-06	1.039148e-09	1.874905e+01	7.160603e+01
2.450000e-06	2.726459e-06	1.049718e-09	1.902878e+01	7.249355e+01
2.460000e-06	2.766325e-06	1.059281e-09	1.930701e+01	7.336404e+01
2.470000e-06	2.806007e-06	1.069569e-09	1.958396e+01	7.421809e+01
2.480000e-06	2.845630e-06	1.081526e-09	1.986051e+01	7.505631e+01
2.490000e-06	2.885154e-06	1.094218e-09	2.013636e+01	7.587926e+01
2.500000e-06	2.924550e-06	1.108889e-09	2.041131e+01	7.668752e+01
2.510000e-06	2.963839e-06	1.122471e-09	2.068553e+01	7.748161e+01
2.520000e-06	3.002899e-06	1.133314e-09	2.095813e+01	7.826205e+01
2.530000e-06	3.041791e-06	1.144604e-09	2.122958e+01	7.902933e+01
2.540000e-06	3.080525e-06	1.157186e-09	2.149991e+01	7.978389e+01
2.550000e-06	3.118958e-06	1.168077e-09	2.176814e+01	8.052618e+01
2.560000e-06	3.157090e-06	1.177509e-09	2.203428e+01	8.125657e+01
2.570000e-06	3.194962e-06	1.188491e-09	2.229860e+01	8.197544e+01
2.580000e-06	3.232679e-06	1.200712e-09	2.256184e+01	8.268309e+01
2.590000e-06	3.270273e-06	1.211720e-09	2.282422e+01	8.337984e+01
2.600000e-06	3.307689e-06	1.222848e-09	2.308536e+01	8.406593e+01
2.610000e-06	3.344887e-06	1.232901e-09	2.334497e+01	8.474159e+01
2.620000e-06	3.381766e-06	1.242184e-09	2.360236e+01	8.540701e+01
2.630000e-06	3.418306e-06	1.251031e-09	2.385738e+01	8.606235e+01
2.640000e-06	3.454548e-06	1.257516e-09	2.411033e+01	8.670774e+01
2.650000e-06	3.490530e-06	1.265115e-09	2.436146e+01	8.734328e+01
2.660000e-06	3.526330e-06	1.274991e-09	2.461132e+01	8.796905e+01
2.670000e-06	3.562019e-06	1.285269e-09	2.486040e+01	8.858510e+01
2.680000e-06	3.597621e-06	1.293913e-09	2.510888e+01	8.919144e+01
2.690000e-06	3.633083e-06	1.300329e-09	2.535638e+01	8.978810e+01
2.700000e-06	3.668397e-06	1.306648e-09	2.560285e+01	9.037505e+01
2.710000e-06	3.703593e-06	1.315348e-09	2.584849e+01	9.095229e+01
2.720000e-06	3.738408e-06	1.324655e-09	2.609147e+01	9.151976e+01
2.730000e-06	3.772793e-06	1.332616e-09	2.633146e+01	9.207742e+01
2.740000e-06	3.806891e-06	1.338145e-09	2.656943e+01	9.262522e+01
2.750000e-06	3.840531e-06	1.344340e-09	2.680422e+01	9.316310e+01
2.760000e-06	3.873663e-06	1.352498e-09	2.703546e+01	9.369101e+01
2.770000e-06	3.906278e-06	1.359316e-09	2.726309e+01	9.420889e+01
2.780000e-06	3.938455e-06	1.364967e-09	2.748766e+01	9.471668e+01
2.790000e-06	3.970441e-06	1.369568e-09	2.771090e+01	9.521435e+01
2.800000e-06	4.002259e-06	1.374028e-09	2.793297e+01	9.570184e+01
2.810000e-06	4.033901e-06	1.378983e-09	2.815381e+01	9.617914e+01
2.820000e-06	4.065387e-06	1.383282e-09	2.837356e+01	9.664622e+01
2.830000e-06	4.096745e-06	1.389418e-09	2.859241e+01	9.710309e+01
2.840000e-06	4.127896e-06	1.396515e-09	2.880982e+01	9.754975e+01
2.850000e-06	4.158707e-06	1.401648e-09	2.902486e+01	9.798625e+01
2.860000e-06	4.189150e-06	1.405293e-09	2.923734e+01	9.841262e+01
2.870000e-06	4.219227e-06	1.408644e-09	2.944725e+01	9.882894e+01
2.880000e-06	4.248980e-06	1.410745e-09	2.965491e+01	9.923527e+01
2.890000e-06	4.278434e-06	1.413618e-09	2.986048e+01	9.963174e+01
2.900000e-06	4.307678e-06	1.419136e-09	3.006458e+01	1.000185e+02
2.910000e-06	4.336732e-06	1.426614e-09	3.026736e+01	1.003956e+02
