# Temperatura_=_9.66
# Concentracion g/m^3_=_1620.0
# C_Vs_to_Am_M_A/Vsm_=_65563218390.804596
# pendiente_HvsI_1/m_=_3716.3
# ordenada_HvsI_A/m_=_1297.0
# frecuencia_Hz_=_135108.0204507145

Tiempo_(s)	Campo_(V.s)	Magnetizacion_(V.s)	Campo_(kA/m)	Magnetizacion_(A/m)
0.000000e+00	-5.523278e-06	-1.177089e-09	-3.837874e+01	-7.680431e+01
1.000000e-08	-5.523369e-06	-1.176009e-09	-3.837937e+01	-7.678399e+01
2.000000e-08	-5.523254e-06	-1.177206e-09	-3.837857e+01	-7.676311e+01
3.000000e-08	-5.522778e-06	-1.178497e-09	-3.837526e+01	-7.674159e+01
4.000000e-08	-5.521724e-06	-1.178376e-09	-3.836794e+01	-7.671933e+01
5.000000e-08	-5.520029e-06	-1.176446e-09	-3.835616e+01	-7.669620e+01
6.000000e-08	-5.517722e-06	-1.167393e-09	-3.834013e+01	-7.667206e+01
7.000000e-08	-5.514919e-06	-1.159761e-09	-3.832066e+01	-7.664674e+01
8.000000e-08	-5.511680e-06	-1.171445e-09	-3.829815e+01	-7.662006e+01
9.000000e-08	-5.507925e-06	-1.205982e-09	-3.827206e+01	-7.659183e+01
1.000000e-07	-5.503669e-06	-1.225092e-09	-3.824248e+01	-7.656184e+01
1.100000e-07	-5.499140e-06	-1.192833e-09	-3.821102e+01	-7.652987e+01
1.200000e-07	-5.494556e-06	-1.170304e-09	-3.817916e+01	-7.649569e+01
1.300000e-07	-5.489719e-06	-1.165364e-09	-3.814556e+01	-7.645906e+01
1.400000e-07	-5.484368e-06	-1.191477e-09	-3.810837e+01	-7.641973e+01
1.500000e-07	-5.478567e-06	-1.161478e-09	-3.806806e+01	-7.637747e+01
1.600000e-07	-5.472442e-06	-1.143208e-09	-3.802550e+01	-7.633203e+01
1.700000e-07	-5.465974e-06	-1.181526e-09	-3.798056e+01	-7.628316e+01
1.800000e-07	-5.459052e-06	-1.201703e-09	-3.793247e+01	-7.623063e+01
1.900000e-07	-5.451756e-06	-1.195107e-09	-3.788177e+01	-7.617421e+01
2.000000e-07	-5.444232e-06	-1.138667e-09	-3.782949e+01	-7.611366e+01
2.100000e-07	-5.436456e-06	-1.151026e-09	-3.777546e+01	-7.604878e+01
2.200000e-07	-5.428333e-06	-1.162574e-09	-3.771901e+01	-7.597937e+01
2.300000e-07	-5.419807e-06	-1.183520e-09	-3.765977e+01	-7.590525e+01
2.400000e-07	-5.410874e-06	-1.164238e-09	-3.759770e+01	-7.582625e+01
2.500000e-07	-5.401306e-06	-1.170479e-09	-3.753121e+01	-7.574222e+01
2.600000e-07	-5.390972e-06	-1.155476e-09	-3.745940e+01	-7.565303e+01
2.700000e-07	-5.380061e-06	-1.147212e-09	-3.738359e+01	-7.555857e+01
2.800000e-07	-5.368688e-06	-1.127291e-09	-3.730457e+01	-7.545877e+01
2.900000e-07	-5.356956e-06	-1.137559e-09	-3.722304e+01	-7.535356e+01
3.000000e-07	-5.344876e-06	-1.139832e-09	-3.713910e+01	-7.524290e+01
3.100000e-07	-5.332427e-06	-1.123607e-09	-3.705261e+01	-7.512678e+01
3.200000e-07	-5.319535e-06	-1.113451e-09	-3.696302e+01	-7.500520e+01
3.300000e-07	-5.306229e-06	-1.118772e-09	-3.687056e+01	-7.487821e+01
3.400000e-07	-5.292597e-06	-1.122433e-09	-3.677584e+01	-7.474586e+01
3.500000e-07	-5.278521e-06	-1.094733e-09	-3.667804e+01	-7.460823e+01
3.600000e-07	-5.263902e-06	-1.090590e-09	-3.657645e+01	-7.446542e+01
3.700000e-07	-5.248791e-06	-1.099841e-09	-3.647145e+01	-7.431756e+01
3.800000e-07	-5.233222e-06	-1.104575e-09	-3.636327e+01	-7.416478e+01
3.900000e-07	-5.217106e-06	-1.089630e-09	-3.625129e+01	-7.400726e+01
4.000000e-07	-5.200634e-06	-1.103292e-09	-3.613683e+01	-7.384517e+01
4.100000e-07	-5.183871e-06	-1.106482e-09	-3.602036e+01	-7.367871e+01
4.200000e-07	-5.166685e-06	-1.095810e-09	-3.590094e+01	-7.350807e+01
4.300000e-07	-5.149191e-06	-1.085128e-09	-3.577938e+01	-7.333347e+01
4.400000e-07	-5.131408e-06	-1.106376e-09	-3.565581e+01	-7.315515e+01
4.500000e-07	-5.113205e-06	-1.089623e-09	-3.552933e+01	-7.297332e+01
4.600000e-07	-5.094536e-06	-1.080337e-09	-3.539961e+01	-7.278823e+01
4.700000e-07	-5.075518e-06	-1.078634e-09	-3.526746e+01	-7.260011e+01
4.800000e-07	-5.056189e-06	-1.087838e-09	-3.513315e+01	-7.240921e+01
4.900000e-07	-5.036609e-06	-1.072293e-09	-3.499710e+01	-7.221574e+01
5.000000e-07	-5.016869e-06	-1.080851e-09	-3.485993e+01	-7.201994e+01
5.100000e-07	-4.996865e-06	-1.072404e-09	-3.472093e+01	-7.182204e+01
5.200000e-07	-4.976524e-06	-1.060502e-09	-3.457960e+01	-7.162223e+01
5.300000e-07	-4.955859e-06	-1.058293e-09	-3.443601e+01	-7.142072e+01
5.400000e-07	-4.934864e-06	-1.074551e-09	-3.429012e+01	-7.121769e+01
5.500000e-07	-4.913473e-06	-1.055582e-09	-3.414148e+01	-7.101332e+01
5.600000e-07	-4.891710e-06	-1.045134e-09	-3.399026e+01	-7.080776e+01
5.700000e-07	-4.869608e-06	-1.053041e-09	-3.383669e+01	-7.060113e+01
5.800000e-07	-4.847124e-06	-1.056835e-09	-3.368046e+01	-7.039356e+01
5.900000e-07	-4.824260e-06	-1.047418e-09	-3.352158e+01	-7.018514e+01
6.000000e-07	-4.801171e-06	-1.052916e-09	-3.336115e+01	-6.997594e+01
6.100000e-07	-4.777861e-06	-1.052907e-09	-3.319918e+01	-6.976601e+01
6.200000e-07	-4.754273e-06	-1.036941e-09	-3.303528e+01	-6.955538e+01
6.300000e-07	-4.730413e-06	-1.032481e-09	-3.286949e+01	-6.934405e+01
6.400000e-07	-4.706274e-06	-1.034298e-09	-3.270175e+01	-6.913200e+01
6.500000e-07	-4.681786e-06	-1.028820e-09	-3.253160e+01	-6.891920e+01
6.600000e-07	-4.656795e-06	-1.020044e-09	-3.235795e+01	-6.870558e+01
6.700000e-07	-4.631272e-06	-1.025715e-09	-3.218060e+01	-6.849105e+01
6.800000e-07	-4.605238e-06	-1.019821e-09	-3.199970e+01	-6.827552e+01
6.900000e-07	-4.578636e-06	-1.014687e-09	-3.181485e+01	-6.805886e+01
7.000000e-07	-4.551552e-06	-1.007795e-09	-3.162666e+01	-6.784092e+01
7.100000e-07	-4.524140e-06	-1.004712e-09	-3.143619e+01	-6.762155e+01
7.200000e-07	-4.496493e-06	-9.933796e-10	-3.124408e+01	-6.740058e+01
7.300000e-07	-4.468705e-06	-9.974720e-10	-3.105099e+01	-6.717781e+01
7.400000e-07	-4.440748e-06	-9.979808e-10	-3.085673e+01	-6.695305e+01
7.500000e-07	-4.412590e-06	-9.964913e-10	-3.066107e+01	-6.672609e+01
7.600000e-07	-4.384139e-06	-9.905948e-10	-3.046338e+01	-6.649670e+01
7.700000e-07	-4.355309e-06	-9.890133e-10	-3.026306e+01	-6.626468e+01
7.800000e-07	-4.326165e-06	-9.722503e-10	-3.006055e+01	-6.602978e+01
7.900000e-07	-4.296729e-06	-9.642929e-10	-2.985601e+01	-6.579179e+01
8.000000e-07	-4.267006e-06	-9.594753e-10	-2.964948e+01	-6.555046e+01
8.100000e-07	-4.237017e-06	-9.538687e-10	-2.944110e+01	-6.530559e+01
8.200000e-07	-4.206721e-06	-9.437877e-10	-2.923059e+01	-6.505693e+01
8.300000e-07	-4.176161e-06	-9.468090e-10	-2.901824e+01	-6.480429e+01
8.400000e-07	-4.145329e-06	-9.469224e-10	-2.880400e+01	-6.454744e+01
8.500000e-07	-4.114210e-06	-9.423965e-10	-2.858777e+01	-6.428619e+01
8.600000e-07	-4.082815e-06	-9.375352e-10	-2.836962e+01	-6.402034e+01
8.700000e-07	-4.051276e-06	-9.324821e-10	-2.815047e+01	-6.374974e+01
8.800000e-07	-4.019580e-06	-9.230428e-10	-2.793023e+01	-6.347420e+01
8.900000e-07	-3.987619e-06	-9.177932e-10	-2.770815e+01	-6.319359e+01
9.000000e-07	-3.955434e-06	-9.147435e-10	-2.748451e+01	-6.290778e+01
9.100000e-07	-3.922977e-06	-9.072098e-10	-2.725898e+01	-6.261665e+01
9.200000e-07	-3.890042e-06	-9.039143e-10	-2.703013e+01	-6.232010e+01
9.300000e-07	-3.856606e-06	-9.043051e-10	-2.679780e+01	-6.201806e+01
9.400000e-07	-3.822769e-06	-9.000089e-10	-2.656268e+01	-6.171047e+01
9.500000e-07	-3.788483e-06	-8.906835e-10	-2.632444e+01	-6.139728e+01
9.600000e-07	-3.753864e-06	-8.861996e-10	-2.608389e+01	-6.107847e+01
9.700000e-07	-3.718984e-06	-8.771649e-10	-2.584152e+01	-6.075405e+01
9.800000e-07	-3.683748e-06	-8.692931e-10	-2.559668e+01	-6.042401e+01
9.900000e-07	-3.648206e-06	-8.649407e-10	-2.534972e+01	-6.008840e+01
1.000000e-06	-3.612532e-06	-8.644301e-10	-2.510184e+01	-5.974725e+01
1.010000e-06	-3.576723e-06	-8.592360e-10	-2.485302e+01	-5.940064e+01
1.020000e-06	-3.540798e-06	-8.585430e-10	-2.460339e+01	-5.904863e+01
1.030000e-06	-3.504712e-06	-8.545604e-10	-2.435265e+01	-5.869132e+01
1.040000e-06	-3.468424e-06	-8.487432e-10	-2.410050e+01	-5.832880e+01
1.050000e-06	-3.431908e-06	-8.398456e-10	-2.384676e+01	-5.796121e+01
1.060000e-06	-3.395104e-06	-8.341957e-10	-2.359103e+01	-5.758864e+01
1.070000e-06	-3.357974e-06	-8.242774e-10	-2.333303e+01	-5.721124e+01
1.080000e-06	-3.320522e-06	-8.185426e-10	-2.307280e+01	-5.682914e+01
1.090000e-06	-3.282842e-06	-8.154033e-10	-2.281097e+01	-5.644249e+01
1.100000e-06	-3.244998e-06	-8.116537e-10	-2.254801e+01	-5.605141e+01
1.110000e-06	-3.206923e-06	-8.038608e-10	-2.228345e+01	-5.565606e+01
1.120000e-06	-3.168591e-06	-7.996108e-10	-2.201710e+01	-5.525658e+01
1.130000e-06	-3.130082e-06	-7.953073e-10	-2.174951e+01	-5.485311e+01
1.140000e-06	-3.091400e-06	-7.888149e-10	-2.148073e+01	-5.444579e+01
1.150000e-06	-3.052568e-06	-7.837885e-10	-2.121090e+01	-5.403473e+01
1.160000e-06	-3.013524e-06	-7.803905e-10	-2.093961e+01	-5.362007e+01
1.170000e-06	-2.974231e-06	-7.711935e-10	-2.066658e+01	-5.320191e+01
1.180000e-06	-2.934752e-06	-7.615425e-10	-2.039226e+01	-5.278036e+01
1.190000e-06	-2.895187e-06	-7.548990e-10	-2.011733e+01	-5.235550e+01
1.200000e-06	-2.855530e-06	-7.463514e-10	-1.984177e+01	-5.192740e+01
1.210000e-06	-2.815711e-06	-7.386365e-10	-1.956509e+01	-5.149612e+01
1.220000e-06	-2.775767e-06	-7.337584e-10	-1.928754e+01	-5.106171e+01
1.230000e-06	-2.735654e-06	-7.279944e-10	-1.900881e+01	-5.062417e+01
1.240000e-06	-2.695301e-06	-7.183967e-10	-1.872841e+01	-5.018353e+01
1.250000e-06	-2.654738e-06	-7.102360e-10	-1.844657e+01	-4.973975e+01
1.260000e-06	-2.613842e-06	-7.018409e-10	-1.816240e+01	-4.929280e+01
1.270000e-06	-2.572673e-06	-6.937082e-10	-1.787633e+01	-4.884262e+01
1.280000e-06	-2.531331e-06	-6.851675e-10	-1.758906e+01	-4.838913e+01
1.290000e-06	-2.489673e-06	-6.802794e-10	-1.729960e+01	-4.793223e+01
1.300000e-06	-2.447665e-06	-6.737332e-10	-1.700771e+01	-4.747177e+01
1.310000e-06	-2.405241e-06	-6.668691e-10	-1.671292e+01	-4.700762e+01
1.320000e-06	-2.362514e-06	-6.602644e-10	-1.641603e+01	-4.653960e+01
1.330000e-06	-2.319681e-06	-6.542093e-10	-1.611841e+01	-4.606750e+01
1.340000e-06	-2.276755e-06	-6.451543e-10	-1.582013e+01	-4.559111e+01
1.350000e-06	-2.233654e-06	-6.383139e-10	-1.552064e+01	-4.511018e+01
1.360000e-06	-2.190313e-06	-6.322392e-10	-1.521948e+01	-4.462444e+01
1.370000e-06	-2.146801e-06	-6.260000e-10	-1.491714e+01	-4.413359e+01
1.380000e-06	-2.103165e-06	-6.175716e-10	-1.461393e+01	-4.363733e+01
1.390000e-06	-2.059430e-06	-6.081313e-10	-1.431004e+01	-4.313532e+01
1.400000e-06	-2.015621e-06	-5.971354e-10	-1.400563e+01	-4.262721e+01
1.410000e-06	-1.971714e-06	-5.878208e-10	-1.370054e+01	-4.211262e+01
1.420000e-06	-1.927666e-06	-5.804925e-10	-1.339447e+01	-4.159116e+01
1.430000e-06	-1.883519e-06	-5.744048e-10	-1.308772e+01	-4.106241e+01
1.440000e-06	-1.839286e-06	-5.686274e-10	-1.278036e+01	-4.052597e+01
1.450000e-06	-1.795007e-06	-5.625665e-10	-1.247268e+01	-3.998137e+01
1.460000e-06	-1.750663e-06	-5.538010e-10	-1.216456e+01	-3.942818e+01
1.470000e-06	-1.706186e-06	-5.424908e-10	-1.185551e+01	-3.886593e+01
1.480000e-06	-1.661529e-06	-5.310046e-10	-1.154520e+01	-3.829413e+01
1.490000e-06	-1.616723e-06	-5.205539e-10	-1.123387e+01	-3.771232e+01
1.500000e-06	-1.571818e-06	-5.130341e-10	-1.092185e+01	-3.712000e+01
1.510000e-06	-1.526762e-06	-5.063210e-10	-1.060878e+01	-3.651667e+01
1.520000e-06	-1.481593e-06	-4.981666e-10	-1.029491e+01	-3.590185e+01
1.530000e-06	-1.436306e-06	-4.873001e-10	-9.980232e+00	-3.527503e+01
1.540000e-06	-1.390842e-06	-4.765905e-10	-9.664329e+00	-3.463572e+01
1.550000e-06	-1.345270e-06	-4.652314e-10	-9.347668e+00	-3.398344e+01
1.560000e-06	-1.299711e-06	-4.528141e-10	-9.031100e+00	-3.331770e+01
1.570000e-06	-1.254057e-06	-4.400056e-10	-8.713871e+00	-3.263802e+01
1.580000e-06	-1.208251e-06	-4.267542e-10	-8.395585e+00	-3.194394e+01
1.590000e-06	-1.162387e-06	-4.134904e-10	-8.076897e+00	-3.123502e+01
1.600000e-06	-1.116445e-06	-4.019085e-10	-7.757668e+00	-3.051083e+01
1.610000e-06	-1.070448e-06	-3.893514e-10	-7.438058e+00	-2.977094e+01
1.620000e-06	-1.024443e-06	-3.772435e-10	-7.118385e+00	-2.901496e+01
1.630000e-06	-9.783604e-07	-3.640701e-10	-6.798180e+00	-2.824254e+01
1.640000e-06	-9.322310e-07	-3.524970e-10	-6.477648e+00	-2.745332e+01
1.650000e-06	-8.859974e-07	-3.396326e-10	-6.156392e+00	-2.664699e+01
1.660000e-06	-8.396268e-07	-3.256275e-10	-5.834184e+00	-2.582328e+01
1.670000e-06	-7.932329e-07	-3.118136e-10	-5.511814e+00	-2.498193e+01
1.680000e-06	-7.467977e-07	-2.991247e-10	-5.189156e+00	-2.412273e+01
1.690000e-06	-7.002714e-07	-2.880582e-10	-4.865867e+00	-2.324552e+01
1.700000e-06	-6.536945e-07	-2.746080e-10	-4.542225e+00	-2.235016e+01
1.710000e-06	-6.071321e-07	-2.593575e-10	-4.218684e+00	-2.143657e+01
1.720000e-06	-5.605954e-07	-2.446258e-10	-3.895322e+00	-2.050469e+01
1.730000e-06	-5.139403e-07	-2.318169e-10	-3.571137e+00	-1.955455e+01
1.740000e-06	-4.671414e-07	-2.200897e-10	-3.245953e+00	-1.858618e+01
1.750000e-06	-4.202917e-07	-2.064451e-10	-2.920416e+00	-1.759970e+01
1.760000e-06	-3.734321e-07	-1.925261e-10	-2.594809e+00	-1.659527e+01
1.770000e-06	-3.266217e-07	-1.767037e-10	-2.269545e+00	-1.557308e+01
1.780000e-06	-2.798163e-07	-1.603284e-10	-1.944316e+00	-1.453341e+01
1.790000e-06	-2.329713e-07	-1.447124e-10	-1.618812e+00	-1.347657e+01
1.800000e-06	-1.861477e-07	-1.300618e-10	-1.293455e+00	-1.240294e+01
1.810000e-06	-1.393077e-07	-1.170629e-10	-9.679859e-01	-1.131295e+01
1.820000e-06	-9.237658e-08	-1.026022e-10	-6.418827e-01	-1.020707e+01
1.830000e-06	-4.539549e-08	-8.664299e-11	-3.154326e-01	-9.085860e+00
1.840000e-06	1.510536e-09	-6.807671e-11	1.049603e-02	-7.949905e+00
1.850000e-06	4.833444e-08	-4.943560e-11	3.358540e-01	-6.799857e+00
1.860000e-06	9.512549e-08	-3.179128e-11	6.609837e-01	-5.636419e+00
1.870000e-06	1.418525e-07	-1.499069e-11	9.856681e-01	-4.460343e+00
1.880000e-06	1.886231e-07	7.359365e-13	1.310656e+00	-3.272434e+00
1.890000e-06	2.354956e-07	1.607369e-11	1.636352e+00	-2.073543e+00
1.900000e-06	2.823659e-07	2.858089e-11	1.962032e+00	-8.645673e-01
1.910000e-06	3.292077e-07	4.174064e-11	2.287514e+00	3.535533e-01
1.920000e-06	3.760255e-07	6.014652e-11	2.612829e+00	1.579839e+00
1.930000e-06	4.227701e-07	8.024149e-11	2.937637e+00	2.813273e+00
1.940000e-06	4.694169e-07	1.004372e-10	3.261764e+00	4.052805e+00
1.950000e-06	5.160072e-07	1.205418e-10	3.585499e+00	5.297354e+00
1.960000e-06	5.625552e-07	1.383684e-10	3.908939e+00	6.545814e+00
1.970000e-06	6.090643e-07	1.541777e-10	4.232110e+00	7.797057e+00
1.980000e-06	6.555145e-07	1.680064e-10	4.554871e+00	9.049937e+00
1.990000e-06	7.018698e-07	1.804763e-10	4.876973e+00	1.030329e+01
2.000000e-06	7.481955e-07	1.969179e-10	5.198869e+00	1.155596e+01
2.010000e-06	7.945267e-07	2.150100e-10	5.520803e+00	1.280676e+01
2.020000e-06	8.408432e-07	2.346062e-10	5.842636e+00	1.405452e+01
2.030000e-06	8.871063e-07	2.575443e-10	6.164097e+00	1.529809e+01
2.040000e-06	9.332975e-07	2.789602e-10	6.485058e+00	1.653629e+01
2.050000e-06	9.794001e-07	2.949511e-10	6.805405e+00	1.776798e+01
2.060000e-06	1.025409e-06	3.065182e-10	7.125101e+00	1.899205e+01
2.070000e-06	1.071290e-06	3.193112e-10	7.443908e+00	2.020740e+01
2.080000e-06	1.117072e-06	3.353189e-10	7.762022e+00	2.141295e+01
2.090000e-06	1.162783e-06	3.531813e-10	8.079652e+00	2.260767e+01
2.100000e-06	1.208447e-06	3.748484e-10	8.396948e+00	2.379055e+01
2.110000e-06	1.254093e-06	3.960478e-10	8.714123e+00	2.496064e+01
2.120000e-06	1.299674e-06	4.141655e-10	9.030843e+00	2.611703e+01
2.130000e-06	1.345139e-06	4.273159e-10	9.346758e+00	2.725885e+01
2.140000e-06	1.390470e-06	4.393295e-10	9.661739e+00	2.838528e+01
2.150000e-06	1.435682e-06	4.523388e-10	9.975897e+00	2.949558e+01
2.160000e-06	1.480829e-06	4.659524e-10	1.028960e+01	3.058903e+01
2.170000e-06	1.525937e-06	4.824120e-10	1.060304e+01	3.166500e+01
2.180000e-06	1.570955e-06	5.007095e-10	1.091585e+01	3.272291e+01
2.190000e-06	1.615865e-06	5.187856e-10	1.122791e+01	3.376225e+01
2.200000e-06	1.660600e-06	5.328965e-10	1.153875e+01	3.478255e+01
2.210000e-06	1.705079e-06	5.431364e-10	1.184781e+01	3.578344e+01
2.220000e-06	1.749367e-06	5.520060e-10	1.215555e+01	3.676460e+01
2.230000e-06	1.793577e-06	5.629442e-10	1.246275e+01	3.772578e+01
2.240000e-06	1.837681e-06	5.762107e-10	1.276921e+01	3.866677e+01
2.250000e-06	1.881703e-06	5.913976e-10	1.307509e+01	3.958747e+01
2.260000e-06	1.925669e-06	6.069505e-10	1.338059e+01	4.048780e+01
2.270000e-06	1.969567e-06	6.222056e-10	1.368562e+01	4.136778e+01
2.280000e-06	2.013434e-06	6.341901e-10	1.399043e+01	4.222745e+01
2.290000e-06	2.057225e-06	6.461106e-10	1.429472e+01	4.306694e+01
2.300000e-06	2.100934e-06	6.557201e-10	1.459843e+01	4.388642e+01
2.310000e-06	2.144575e-06	6.646449e-10	1.490167e+01	4.468611e+01
2.320000e-06	2.188213e-06	6.746236e-10	1.520489e+01	4.546629e+01
2.330000e-06	2.231780e-06	6.868729e-10	1.550762e+01	4.622729e+01
2.340000e-06	2.275091e-06	6.987955e-10	1.580857e+01	4.696944e+01
2.350000e-06	2.318190e-06	7.088925e-10	1.610804e+01	4.769317e+01
2.360000e-06	2.361106e-06	7.175284e-10	1.640625e+01	4.839890e+01
2.370000e-06	2.403734e-06	7.240557e-10	1.670245e+01	4.908709e+01
2.380000e-06	2.446055e-06	7.323739e-10	1.699652e+01	4.975823e+01
2.390000e-06	2.487929e-06	7.416756e-10	1.728748e+01	5.041283e+01
2.400000e-06	2.529438e-06	7.503312e-10	1.757591e+01	5.105142e+01
2.410000e-06	2.570726e-06	7.591698e-10	1.786280e+01	5.167453e+01
2.420000e-06	2.611756e-06	7.688569e-10	1.814790e+01	5.228272e+01
2.430000e-06	2.652621e-06	7.773012e-10	1.843185e+01	5.287653e+01
2.440000e-06	2.693184e-06	7.850945e-10	1.871370e+01	5.345653e+01
2.450000e-06	2.733441e-06	7.926970e-10	1.899343e+01	5.402325e+01
2.460000e-06	2.773589e-06	7.999460e-10	1.927240e+01	5.457724e+01
2.470000e-06	2.813628e-06	8.064219e-10	1.955062e+01	5.511904e+01
2.480000e-06	2.853516e-06	8.128914e-10	1.982778e+01	5.564916e+01
2.490000e-06	2.893275e-06	8.187073e-10	2.010405e+01	5.616810e+01
2.500000e-06	2.932870e-06	8.274427e-10	2.037918e+01	5.667635e+01
2.510000e-06	2.972269e-06	8.376174e-10	2.065294e+01	5.717435e+01
2.520000e-06	3.011526e-06	8.453463e-10	2.092572e+01	5.766256e+01
2.530000e-06	3.050654e-06	8.500069e-10	2.119760e+01	5.814138e+01
2.540000e-06	3.089560e-06	8.560174e-10	2.146794e+01	5.861119e+01
2.550000e-06	3.128171e-06	8.627881e-10	2.173623e+01	5.907234e+01
2.560000e-06	3.166472e-06	8.687534e-10	2.200237e+01	5.952517e+01
2.570000e-06	3.204562e-06	8.754836e-10	2.226704e+01	5.996996e+01
2.580000e-06	3.242478e-06	8.847498e-10	2.253050e+01	6.040697e+01
2.590000e-06	3.280190e-06	8.942248e-10	2.279254e+01	6.083646e+01
2.600000e-06	3.317752e-06	9.006146e-10	2.305354e+01	6.125861e+01
2.610000e-06	3.355116e-06	9.044517e-10	2.331317e+01	6.167362e+01
2.620000e-06	3.392230e-06	9.085405e-10	2.357106e+01	6.208162e+01
2.630000e-06	3.429106e-06	9.126404e-10	2.382729e+01	6.248274e+01
2.640000e-06	3.465713e-06	9.170273e-10	2.408166e+01	6.287708e+01
2.650000e-06	3.501993e-06	9.245721e-10	2.433375e+01	6.326471e+01
2.660000e-06	3.538011e-06	9.344353e-10	2.458402e+01	6.364570e+01
2.670000e-06	3.573875e-06	9.427862e-10	2.483323e+01	6.402007e+01
2.680000e-06	3.609601e-06	9.474400e-10	2.508147e+01	6.438785e+01
2.690000e-06	3.645207e-06	9.499586e-10	2.532888e+01	6.474904e+01
2.700000e-06	3.680663e-06	9.528200e-10	2.557525e+01	6.510363e+01
2.710000e-06	3.715921e-06	9.550285e-10	2.582024e+01	6.545160e+01
2.720000e-06	3.750870e-06	9.568585e-10	2.606309e+01	6.579293e+01
2.730000e-06	3.785446e-06	9.612649e-10	2.630334e+01	6.612760e+01
2.740000e-06	3.819701e-06	9.674180e-10	2.654136e+01	6.645556e+01
2.750000e-06	3.853497e-06	9.728941e-10	2.677620e+01	6.677679e+01
2.760000e-06	3.886759e-06	9.768866e-10	2.700731e+01	6.709127e+01
2.770000e-06	3.919558e-06	9.800942e-10	2.723522e+01	6.739896e+01
2.780000e-06	3.951978e-06	9.838525e-10	2.746049e+01	6.769984e+01
2.790000e-06	3.984133e-06	9.890888e-10	2.768392e+01	6.799391e+01
2.800000e-06	4.016043e-06	9.944123e-10	2.790565e+01	6.828117e+01
2.810000e-06	4.047752e-06	9.986835e-10	2.812598e+01	6.856162e+01
2.820000e-06	4.079390e-06	1.001164e-09	2.834582e+01	6.883530e+01
2.830000e-06	4.110897e-06	1.004528e-09	2.856475e+01	6.910223e+01
2.840000e-06	4.142132e-06	1.007869e-09	2.878179e+01	6.936246e+01
2.850000e-06	4.173056e-06	1.010807e-09	2.899667e+01	6.961606e+01
2.860000e-06	4.203621e-06	1.014151e-09	2.920904e+01	6.986312e+01
2.870000e-06	4.233837e-06	1.017225e-09	2.941900e+01	7.010372e+01
2.880000e-06	4.263796e-06	1.019498e-09	2.962718e+01	7.033797e+01
2.890000e-06	4.293520e-06	1.021194e-09	2.983371e+01	7.056600e+01
2.900000e-06	4.323005e-06	1.023515e-09	3.003859e+01	7.078795e+01
2.910000e-06	4.352216e-06	1.027178e-09	3.024156e+01	7.100396e+01
