# Temperatura_=_-0.3
# Concentracion g/m^3_=_1620.0
# C_Vs_to_Am_M_A/Vsm_=_65563218390.804596
# pendiente_HvsI_1/m_=_3716.3
# ordenada_HvsI_A/m_=_1297.0
# frecuencia_Hz_=_135101.76285525356

Tiempo_(s)	Campo_(V.s)	Magnetizacion_(V.s)	Campo_(kA/m)	Magnetizacion_(A/m)
0.000000e+00	-5.502375e-06	-1.556067e-09	-3.836505e+01	-1.002010e+02
1.000000e-08	-5.502468e-06	-1.552785e-09	-3.836569e+01	-1.001585e+02
2.000000e-08	-5.502139e-06	-1.554262e-09	-3.836340e+01	-1.001134e+02
3.000000e-08	-5.501354e-06	-1.557498e-09	-3.835793e+01	-1.000659e+02
4.000000e-08	-5.500081e-06	-1.559073e-09	-3.834905e+01	-1.000158e+02
5.000000e-08	-5.498226e-06	-1.558210e-09	-3.833612e+01	-9.996322e+01
6.000000e-08	-5.495852e-06	-1.552643e-09	-3.831956e+01	-9.990816e+01
7.000000e-08	-5.492982e-06	-1.571652e-09	-3.829955e+01	-9.985062e+01
8.000000e-08	-5.489608e-06	-1.602481e-09	-3.827603e+01	-9.979062e+01
9.000000e-08	-5.485754e-06	-1.562891e-09	-3.824916e+01	-9.972814e+01
1.000000e-07	-5.481533e-06	-1.476828e-09	-3.821972e+01	-9.966320e+01
1.100000e-07	-5.477178e-06	-1.512613e-09	-3.818936e+01	-9.959577e+01
1.200000e-07	-5.472613e-06	-1.602604e-09	-3.815753e+01	-9.952584e+01
1.300000e-07	-5.467620e-06	-1.594268e-09	-3.812272e+01	-9.945342e+01
1.400000e-07	-5.462267e-06	-1.491129e-09	-3.808540e+01	-9.937846e+01
1.500000e-07	-5.456582e-06	-1.523834e-09	-3.804576e+01	-9.930095e+01
1.600000e-07	-5.450517e-06	-1.617666e-09	-3.800347e+01	-9.922085e+01
1.700000e-07	-5.443954e-06	-1.587207e-09	-3.795771e+01	-9.913814e+01
1.800000e-07	-5.436922e-06	-1.462516e-09	-3.790868e+01	-9.905276e+01
1.900000e-07	-5.429622e-06	-1.469147e-09	-3.785778e+01	-9.896467e+01
2.000000e-07	-5.422096e-06	-1.550275e-09	-3.780531e+01	-9.887383e+01
2.100000e-07	-5.414271e-06	-1.557589e-09	-3.775074e+01	-9.878016e+01
2.200000e-07	-5.406201e-06	-1.490326e-09	-3.769448e+01	-9.868361e+01
2.300000e-07	-5.397904e-06	-1.473121e-09	-3.763663e+01	-9.858410e+01
2.400000e-07	-5.389010e-06	-1.497951e-09	-3.757462e+01	-9.848156e+01
2.500000e-07	-5.379230e-06	-1.485162e-09	-3.750642e+01	-9.837591e+01
2.600000e-07	-5.368803e-06	-1.470894e-09	-3.743372e+01	-9.826706e+01
2.700000e-07	-5.357910e-06	-1.472511e-09	-3.735777e+01	-9.815491e+01
2.800000e-07	-5.346510e-06	-1.482791e-09	-3.727828e+01	-9.803938e+01
2.900000e-07	-5.334747e-06	-1.459913e-09	-3.719627e+01	-9.792035e+01
3.000000e-07	-5.322674e-06	-1.461284e-09	-3.711209e+01	-9.779773e+01
3.100000e-07	-5.310163e-06	-1.445164e-09	-3.702486e+01	-9.767140e+01
3.200000e-07	-5.297205e-06	-1.449824e-09	-3.693451e+01	-9.754126e+01
3.300000e-07	-5.283945e-06	-1.454693e-09	-3.684205e+01	-9.740719e+01
3.400000e-07	-5.270404e-06	-1.457615e-09	-3.674764e+01	-9.726908e+01
3.500000e-07	-5.256415e-06	-1.435362e-09	-3.665010e+01	-9.712681e+01
3.600000e-07	-5.242002e-06	-1.459017e-09	-3.654961e+01	-9.698027e+01
3.700000e-07	-5.227133e-06	-1.448333e-09	-3.644594e+01	-9.682935e+01
3.800000e-07	-5.211556e-06	-1.412647e-09	-3.633732e+01	-9.667393e+01
3.900000e-07	-5.195337e-06	-1.421724e-09	-3.622424e+01	-9.651390e+01
4.000000e-07	-5.178904e-06	-1.456464e-09	-3.610966e+01	-9.634917e+01
4.100000e-07	-5.162278e-06	-1.413063e-09	-3.599374e+01	-9.617962e+01
4.200000e-07	-5.145241e-06	-1.405021e-09	-3.587495e+01	-9.600517e+01
4.300000e-07	-5.127931e-06	-1.465763e-09	-3.575426e+01	-9.582573e+01
4.400000e-07	-5.110317e-06	-1.436769e-09	-3.563144e+01	-9.564121e+01
4.500000e-07	-5.092090e-06	-1.363364e-09	-3.550435e+01	-9.545154e+01
4.600000e-07	-5.073347e-06	-1.412818e-09	-3.537367e+01	-9.525666e+01
4.700000e-07	-5.054362e-06	-1.450487e-09	-3.524130e+01	-9.505650e+01
4.800000e-07	-5.035124e-06	-1.376987e-09	-3.510716e+01	-9.485102e+01
4.900000e-07	-5.015625e-06	-1.381211e-09	-3.497120e+01	-9.464019e+01
5.000000e-07	-4.995942e-06	-1.436559e-09	-3.483396e+01	-9.442396e+01
5.100000e-07	-4.976005e-06	-1.384683e-09	-3.469496e+01	-9.420234e+01
5.200000e-07	-4.955713e-06	-1.351735e-09	-3.455347e+01	-9.397531e+01
5.300000e-07	-4.935120e-06	-1.418129e-09	-3.440989e+01	-9.374287e+01
5.400000e-07	-4.914164e-06	-1.391995e-09	-3.426377e+01	-9.350504e+01
5.500000e-07	-4.892793e-06	-1.336387e-09	-3.411476e+01	-9.326184e+01
5.600000e-07	-4.871069e-06	-1.393511e-09	-3.396330e+01	-9.301330e+01
5.700000e-07	-4.849059e-06	-1.419069e-09	-3.380983e+01	-9.275948e+01
5.800000e-07	-4.826670e-06	-1.346407e-09	-3.365373e+01	-9.250041e+01
5.900000e-07	-4.803824e-06	-1.357695e-09	-3.349444e+01	-9.223617e+01
6.000000e-07	-4.780689e-06	-1.395716e-09	-3.333312e+01	-9.196681e+01
6.100000e-07	-4.757335e-06	-1.353389e-09	-3.317029e+01	-9.169242e+01
6.200000e-07	-4.733785e-06	-1.338193e-09	-3.300609e+01	-9.141306e+01
6.300000e-07	-4.710054e-06	-1.382649e-09	-3.284063e+01	-9.112882e+01
6.400000e-07	-4.686022e-06	-1.360805e-09	-3.267306e+01	-9.083979e+01
6.500000e-07	-4.661538e-06	-1.331490e-09	-3.250235e+01	-9.054606e+01
6.600000e-07	-4.636565e-06	-1.350691e-09	-3.232823e+01	-9.024770e+01
6.700000e-07	-4.611046e-06	-1.343754e-09	-3.215030e+01	-8.994482e+01
6.800000e-07	-4.584896e-06	-1.309937e-09	-3.196797e+01	-8.963750e+01
6.900000e-07	-4.558244e-06	-1.321919e-09	-3.178214e+01	-8.932582e+01
7.000000e-07	-4.531269e-06	-1.327655e-09	-3.159406e+01	-8.900985e+01
7.100000e-07	-4.503967e-06	-1.304859e-09	-3.140369e+01	-8.868968e+01
7.200000e-07	-4.476414e-06	-1.301996e-09	-3.121158e+01	-8.836537e+01
7.300000e-07	-4.448787e-06	-1.308323e-09	-3.101895e+01	-8.803697e+01
7.400000e-07	-4.420976e-06	-1.290666e-09	-3.082504e+01	-8.770454e+01
7.500000e-07	-4.392874e-06	-1.280109e-09	-3.062911e+01	-8.736811e+01
7.600000e-07	-4.364515e-06	-1.283282e-09	-3.043137e+01	-8.702772e+01
7.700000e-07	-4.335805e-06	-1.273806e-09	-3.023120e+01	-8.668339e+01
7.800000e-07	-4.306735e-06	-1.261916e-09	-3.002850e+01	-8.633511e+01
7.900000e-07	-4.277375e-06	-1.260886e-09	-2.982379e+01	-8.598289e+01
8.000000e-07	-4.247752e-06	-1.250915e-09	-2.961724e+01	-8.562670e+01
8.100000e-07	-4.217919e-06	-1.232909e-09	-2.940924e+01	-8.526652e+01
8.200000e-07	-4.187800e-06	-1.229186e-09	-2.919924e+01	-8.490229e+01
8.300000e-07	-4.157292e-06	-1.223545e-09	-2.898652e+01	-8.453397e+01
8.400000e-07	-4.126463e-06	-1.211435e-09	-2.877156e+01	-8.416149e+01
8.500000e-07	-4.095419e-06	-1.206977e-09	-2.855512e+01	-8.378476e+01
8.600000e-07	-4.064188e-06	-1.211387e-09	-2.833735e+01	-8.340370e+01
8.700000e-07	-4.032794e-06	-1.200939e-09	-2.811846e+01	-8.301820e+01
8.800000e-07	-4.001215e-06	-1.192852e-09	-2.789828e+01	-8.262816e+01
8.900000e-07	-3.969445e-06	-1.188467e-09	-2.767676e+01	-8.223346e+01
9.000000e-07	-3.937401e-06	-1.175713e-09	-2.745334e+01	-8.183397e+01
9.100000e-07	-3.904954e-06	-1.160122e-09	-2.722711e+01	-8.142957e+01
9.200000e-07	-3.872154e-06	-1.157826e-09	-2.699841e+01	-8.102013e+01
9.300000e-07	-3.838915e-06	-1.153121e-09	-2.676665e+01	-8.060550e+01
9.400000e-07	-3.805245e-06	-1.143503e-09	-2.653189e+01	-8.018557e+01
9.500000e-07	-3.771153e-06	-1.141575e-09	-2.629418e+01	-7.976019e+01
9.600000e-07	-3.736626e-06	-1.141966e-09	-2.605344e+01	-7.932923e+01
9.700000e-07	-3.701704e-06	-1.128437e-09	-2.580996e+01	-7.889257e+01
9.800000e-07	-3.666419e-06	-1.118221e-09	-2.556393e+01	-7.845010e+01
9.900000e-07	-3.631014e-06	-1.114604e-09	-2.531707e+01	-7.800170e+01
1.000000e-06	-3.595546e-06	-1.105811e-09	-2.506977e+01	-7.754727e+01
1.010000e-06	-3.559935e-06	-1.094282e-09	-2.482148e+01	-7.708673e+01
1.020000e-06	-3.524187e-06	-1.092058e-09	-2.457222e+01	-7.662000e+01
1.030000e-06	-3.488304e-06	-1.088366e-09	-2.432203e+01	-7.614701e+01
1.040000e-06	-3.452188e-06	-1.079429e-09	-2.407021e+01	-7.566773e+01
1.050000e-06	-3.415740e-06	-1.075311e-09	-2.381608e+01	-7.518213e+01
1.060000e-06	-3.379034e-06	-1.070686e-09	-2.356015e+01	-7.469018e+01
1.070000e-06	-3.342009e-06	-1.060217e-09	-2.330200e+01	-7.419191e+01
1.080000e-06	-3.304648e-06	-1.049871e-09	-2.304150e+01	-7.368732e+01
1.090000e-06	-3.267110e-06	-1.044293e-09	-2.277977e+01	-7.317648e+01
1.100000e-06	-3.229420e-06	-1.033515e-09	-2.251698e+01	-7.265942e+01
1.110000e-06	-3.191490e-06	-1.022461e-09	-2.225251e+01	-7.213625e+01
1.120000e-06	-3.153348e-06	-1.016881e-09	-2.198657e+01	-7.160704e+01
1.130000e-06	-3.114986e-06	-1.012595e-09	-2.171909e+01	-7.107191e+01
1.140000e-06	-3.076390e-06	-1.005411e-09	-2.144998e+01	-7.053099e+01
1.150000e-06	-3.037632e-06	-1.000368e-09	-2.117975e+01	-6.998443e+01
1.160000e-06	-2.998681e-06	-9.947192e-10	-2.090816e+01	-6.943237e+01
1.170000e-06	-2.959504e-06	-9.834983e-10	-2.063500e+01	-6.887498e+01
1.180000e-06	-2.920127e-06	-9.689824e-10	-2.036045e+01	-6.831244e+01
1.190000e-06	-2.880623e-06	-9.594236e-10	-2.008501e+01	-6.774491e+01
1.200000e-06	-2.841020e-06	-9.496796e-10	-1.980888e+01	-6.717260e+01
1.210000e-06	-2.801251e-06	-9.394014e-10	-1.953159e+01	-6.659567e+01
1.220000e-06	-2.761378e-06	-9.328117e-10	-1.925357e+01	-6.601431e+01
1.230000e-06	-2.721385e-06	-9.261579e-10	-1.897473e+01	-6.542870e+01
1.240000e-06	-2.681174e-06	-9.166929e-10	-1.869435e+01	-6.483900e+01
1.250000e-06	-2.640671e-06	-9.087256e-10	-1.841195e+01	-6.424538e+01
1.260000e-06	-2.599941e-06	-9.012660e-10	-1.812797e+01	-6.364798e+01
1.270000e-06	-2.559055e-06	-8.919301e-10	-1.784289e+01	-6.304692e+01
1.280000e-06	-2.517854e-06	-8.790237e-10	-1.755562e+01	-6.244232e+01
1.290000e-06	-2.476375e-06	-8.663512e-10	-1.726641e+01	-6.183425e+01
1.300000e-06	-2.434549e-06	-8.542335e-10	-1.697478e+01	-6.122277e+01
1.310000e-06	-2.392288e-06	-8.410168e-10	-1.668011e+01	-6.060791e+01
1.320000e-06	-2.349735e-06	-8.306855e-10	-1.638342e+01	-5.998966e+01
1.330000e-06	-2.306958e-06	-8.240498e-10	-1.608516e+01	-5.936797e+01
1.340000e-06	-2.263987e-06	-8.173093e-10	-1.578554e+01	-5.874278e+01
1.350000e-06	-2.220817e-06	-8.078744e-10	-1.548454e+01	-5.811397e+01
1.360000e-06	-2.177467e-06	-7.977792e-10	-1.518229e+01	-5.748137e+01
1.370000e-06	-2.134030e-06	-7.867972e-10	-1.487942e+01	-5.684480e+01
1.380000e-06	-2.090537e-06	-7.736591e-10	-1.457617e+01	-5.620399e+01
1.390000e-06	-2.046950e-06	-7.598609e-10	-1.427226e+01	-5.555867e+01
1.400000e-06	-2.003280e-06	-7.473246e-10	-1.396777e+01	-5.490850e+01
1.410000e-06	-1.959528e-06	-7.366710e-10	-1.366272e+01	-5.425310e+01
1.420000e-06	-1.915688e-06	-7.294527e-10	-1.335704e+01	-5.359205e+01
1.430000e-06	-1.871826e-06	-7.234830e-10	-1.305122e+01	-5.292488e+01
1.440000e-06	-1.827891e-06	-7.160793e-10	-1.274488e+01	-5.225108e+01
1.450000e-06	-1.783780e-06	-7.062696e-10	-1.243732e+01	-5.157011e+01
1.460000e-06	-1.739492e-06	-6.954521e-10	-1.212853e+01	-5.088136e+01
1.470000e-06	-1.695055e-06	-6.827535e-10	-1.181869e+01	-5.018421e+01
1.480000e-06	-1.650505e-06	-6.691478e-10	-1.150806e+01	-4.947800e+01
1.490000e-06	-1.605845e-06	-6.569761e-10	-1.119668e+01	-4.876204e+01
1.500000e-06	-1.561031e-06	-6.457954e-10	-1.088421e+01	-4.803561e+01
1.510000e-06	-1.516084e-06	-6.325285e-10	-1.057082e+01	-4.729795e+01
1.520000e-06	-1.471049e-06	-6.193153e-10	-1.025682e+01	-4.654832e+01
1.530000e-06	-1.425937e-06	-6.067094e-10	-9.942276e+00	-4.578593e+01
1.540000e-06	-1.380706e-06	-5.946378e-10	-9.626908e+00	-4.500999e+01
1.550000e-06	-1.335364e-06	-5.830859e-10	-9.310758e+00	-4.421971e+01
1.560000e-06	-1.289994e-06	-5.708199e-10	-8.994423e+00	-4.341429e+01
1.570000e-06	-1.244550e-06	-5.568774e-10	-8.677562e+00	-4.259295e+01
1.580000e-06	-1.198992e-06	-5.410731e-10	-8.359914e+00	-4.175491e+01
1.590000e-06	-1.153320e-06	-5.256104e-10	-8.041471e+00	-4.089940e+01
1.600000e-06	-1.107538e-06	-5.101654e-10	-7.722258e+00	-4.002569e+01
1.610000e-06	-1.061722e-06	-4.930216e-10	-7.402806e+00	-3.913306e+01
1.620000e-06	-1.015885e-06	-4.770531e-10	-7.083210e+00	-3.822083e+01
1.630000e-06	-9.699590e-07	-4.629030e-10	-6.762992e+00	-3.728836e+01
1.640000e-06	-9.239185e-07	-4.494574e-10	-6.441978e+00	-3.633505e+01
1.650000e-06	-8.778451e-07	-4.393062e-10	-6.120733e+00	-3.536035e+01
1.660000e-06	-8.317283e-07	-4.280907e-10	-5.799185e+00	-3.436375e+01
1.670000e-06	-7.855420e-07	-4.132075e-10	-5.477154e+00	-3.334482e+01
1.680000e-06	-7.393592e-07	-3.962675e-10	-5.155146e+00	-3.230318e+01
1.690000e-06	-6.931441e-07	-3.783715e-10	-4.832914e+00	-3.123851e+01
1.700000e-06	-6.468468e-07	-3.607714e-10	-4.510108e+00	-3.015057e+01
1.710000e-06	-6.005585e-07	-3.438980e-10	-4.187365e+00	-2.903919e+01
1.720000e-06	-5.542287e-07	-3.282506e-10	-3.864333e+00	-2.790427e+01
1.730000e-06	-5.077530e-07	-3.119508e-10	-3.540284e+00	-2.674579e+01
1.740000e-06	-4.611991e-07	-2.951140e-10	-3.215689e+00	-2.556380e+01
1.750000e-06	-4.146078e-07	-2.778844e-10	-2.890833e+00	-2.435846e+01
1.760000e-06	-3.679952e-07	-2.598565e-10	-2.565829e+00	-2.312998e+01
1.770000e-06	-3.213455e-07	-2.429683e-10	-2.240566e+00	-2.187866e+01
1.780000e-06	-2.746751e-07	-2.275724e-10	-1.915159e+00	-2.060489e+01
1.790000e-06	-2.279795e-07	-2.112955e-10	-1.589576e+00	-1.930912e+01
1.800000e-06	-1.812450e-07	-1.933132e-10	-1.263722e+00	-1.799191e+01
1.810000e-06	-1.345319e-07	-1.732464e-10	-9.380173e-01	-1.665387e+01
1.820000e-06	-8.779127e-08	-1.524284e-10	-6.121204e-01	-1.529571e+01
1.830000e-06	-4.104138e-08	-1.318616e-10	-2.861591e-01	-1.391819e+01
1.840000e-06	5.675323e-09	-1.132990e-10	3.957092e-02	-1.252215e+01
1.850000e-06	5.233465e-08	-9.801755e-11	3.649008e-01	-1.110850e+01
1.860000e-06	9.888562e-08	-8.174539e-11	6.894752e-01	-9.678206e+00
1.870000e-06	1.454489e-07	-6.224377e-11	1.014135e+00	-8.232300e+00
1.880000e-06	1.920534e-07	-4.070435e-11	1.339083e+00	-6.771862e+00
1.890000e-06	2.386519e-07	-1.860384e-11	1.663989e+00	-5.298022e+00
1.900000e-06	2.853022e-07	3.701975e-12	1.989256e+00	-3.811956e+00
1.910000e-06	3.319157e-07	2.662291e-11	2.314266e+00	-2.314877e+00
1.920000e-06	3.784378e-07	5.018777e-11	2.638640e+00	-8.080315e-01
1.930000e-06	4.249858e-07	7.283744e-11	2.963193e+00	7.073051e-01
1.940000e-06	4.715286e-07	9.415201e-11	3.287711e+00	2.229836e+00
1.950000e-06	5.179883e-07	1.131017e-10	3.611648e+00	3.758248e+00
1.960000e-06	5.643521e-07	1.304711e-10	3.934918e+00	5.291218e+00
1.970000e-06	6.106726e-07	1.492944e-10	4.257885e+00	6.827417e+00
1.980000e-06	6.570241e-07	1.693033e-10	4.581069e+00	8.365516e+00
1.990000e-06	7.032931e-07	1.885777e-10	4.903677e+00	9.904194e+00
2.000000e-06	7.494160e-07	2.121937e-10	5.225267e+00	1.144214e+01
2.010000e-06	7.955042e-07	2.362255e-10	5.546615e+00	1.297806e+01
2.020000e-06	8.416014e-07	2.583813e-10	5.868025e+00	1.451069e+01
2.030000e-06	8.876968e-07	2.819195e-10	6.189424e+00	1.603877e+01
2.040000e-06	9.337384e-07	3.032561e-10	6.510446e+00	1.756109e+01
2.050000e-06	9.796765e-07	3.217897e-10	6.830747e+00	1.907647e+01
2.060000e-06	1.025513e-06	3.386571e-10	7.150337e+00	2.058378e+01
2.070000e-06	1.071321e-06	3.563304e-10	7.469736e+00	2.208191e+01
2.080000e-06	1.117078e-06	3.765000e-10	7.788772e+00	2.356980e+01
2.090000e-06	1.162700e-06	4.014888e-10	8.106868e+00	2.504646e+01
2.100000e-06	1.208204e-06	4.288983e-10	8.424143e+00	2.651092e+01
2.110000e-06	1.253675e-06	4.528458e-10	8.741190e+00	2.796228e+01
2.120000e-06	1.299069e-06	4.721308e-10	9.057698e+00	2.939970e+01
2.130000e-06	1.344304e-06	4.891171e-10	9.373098e+00	3.082238e+01
2.140000e-06	1.389452e-06	5.034592e-10	9.687891e+00	3.222957e+01
2.150000e-06	1.434493e-06	5.171541e-10	1.000193e+01	3.362061e+01
2.160000e-06	1.479393e-06	5.341037e-10	1.031500e+01	3.499486e+01
2.170000e-06	1.524175e-06	5.540326e-10	1.062723e+01	3.635176e+01
2.180000e-06	1.568869e-06	5.761402e-10	1.093887e+01	3.769079e+01
2.190000e-06	1.613458e-06	5.993217e-10	1.124976e+01	3.901150e+01
2.200000e-06	1.657915e-06	6.188577e-10	1.155974e+01	4.031348e+01
2.210000e-06	1.702231e-06	6.325482e-10	1.186873e+01	4.159638e+01
2.220000e-06	1.746435e-06	6.431983e-10	1.217693e+01	4.285990e+01
2.230000e-06	1.790579e-06	6.571134e-10	1.248472e+01	4.410379e+01
2.240000e-06	1.834578e-06	6.751141e-10	1.279151e+01	4.532785e+01
2.250000e-06	1.878444e-06	6.940754e-10	1.309736e+01	4.653191e+01
2.260000e-06	1.922278e-06	7.125905e-10	1.340299e+01	4.771587e+01
2.270000e-06	1.966124e-06	7.282470e-10	1.370870e+01	4.887964e+01
2.280000e-06	2.009902e-06	7.424396e-10	1.401395e+01	5.002319e+01
2.290000e-06	2.053542e-06	7.578453e-10	1.431823e+01	5.114651e+01
2.300000e-06	2.097126e-06	7.724113e-10	1.462211e+01	5.224964e+01
2.310000e-06	2.140630e-06	7.871080e-10	1.492544e+01	5.333263e+01
2.320000e-06	2.184045e-06	8.041753e-10	1.522815e+01	5.439558e+01
2.330000e-06	2.227333e-06	8.211650e-10	1.552997e+01	5.543859e+01
2.340000e-06	2.270438e-06	8.364553e-10	1.583052e+01	5.646180e+01
2.350000e-06	2.313358e-06	8.494135e-10	1.612977e+01	5.746537e+01
2.360000e-06	2.355960e-06	8.591134e-10	1.642682e+01	5.844948e+01
2.370000e-06	2.398246e-06	8.670855e-10	1.672166e+01	5.941431e+01
2.380000e-06	2.440262e-06	8.783835e-10	1.701461e+01	6.036007e+01
2.390000e-06	2.481955e-06	8.915989e-10	1.730531e+01	6.128697e+01
2.400000e-06	2.523352e-06	9.058423e-10	1.759395e+01	6.219526e+01
2.410000e-06	2.564479e-06	9.211794e-10	1.788071e+01	6.308516e+01
2.420000e-06	2.605398e-06	9.346826e-10	1.816601e+01	6.395692e+01
2.430000e-06	2.646089e-06	9.458352e-10	1.844973e+01	6.481079e+01
2.440000e-06	2.686501e-06	9.538234e-10	1.873150e+01	6.564704e+01
2.450000e-06	2.726696e-06	9.595699e-10	1.901176e+01	6.646592e+01
2.460000e-06	2.766746e-06	9.670932e-10	1.929101e+01	6.726771e+01
2.470000e-06	2.806647e-06	9.783083e-10	1.956921e+01	6.805266e+01
2.480000e-06	2.846389e-06	9.914752e-10	1.984631e+01	6.882107e+01
2.490000e-06	2.885976e-06	1.003242e-09	2.012233e+01	6.957319e+01
2.500000e-06	2.925384e-06	1.014134e-09	2.039710e+01	7.030932e+01
2.510000e-06	2.964668e-06	1.025547e-09	2.067101e+01	7.102972e+01
2.520000e-06	3.003812e-06	1.036104e-09	2.094394e+01	7.173469e+01
2.530000e-06	3.042686e-06	1.044955e-09	2.121498e+01	7.242450e+01
2.540000e-06	3.081347e-06	1.053343e-09	2.148455e+01	7.309945e+01
2.550000e-06	3.119846e-06	1.060504e-09	2.175298e+01	7.375981e+01
2.560000e-06	3.158140e-06	1.065322e-09	2.201998e+01	7.440588e+01
2.570000e-06	3.196245e-06	1.071360e-09	2.228566e+01	7.503796e+01
2.580000e-06	3.234139e-06	1.080596e-09	2.254988e+01	7.565633e+01
2.590000e-06	3.271829e-06	1.091222e-09	2.281267e+01	7.626130e+01
2.600000e-06	3.309304e-06	1.101392e-09	2.307396e+01	7.685316e+01
2.610000e-06	3.346513e-06	1.111197e-09	2.333340e+01	7.743222e+01
2.620000e-06	3.383414e-06	1.121528e-09	2.359069e+01	7.799878e+01
2.630000e-06	3.420048e-06	1.129877e-09	2.384612e+01	7.855315e+01
2.640000e-06	3.456422e-06	1.135582e-09	2.409974e+01	7.909563e+01
2.650000e-06	3.492556e-06	1.143279e-09	2.435168e+01	7.962655e+01
2.660000e-06	3.528518e-06	1.153134e-09	2.460242e+01	8.014621e+01
2.670000e-06	3.564318e-06	1.161588e-09	2.485204e+01	8.065494e+01
2.680000e-06	3.599996e-06	1.168587e-09	2.510080e+01	8.115304e+01
2.690000e-06	3.635558e-06	1.173063e-09	2.534875e+01	8.164083e+01
2.700000e-06	3.670938e-06	1.174620e-09	2.559544e+01	8.211864e+01
2.710000e-06	3.706057e-06	1.180222e-09	2.584030e+01	8.258677e+01
2.720000e-06	3.740907e-06	1.189002e-09	2.608329e+01	8.304555e+01
2.730000e-06	3.775410e-06	1.196811e-09	2.632386e+01	8.349528e+01
2.740000e-06	3.809402e-06	1.201550e-09	2.656088e+01	8.393628e+01
2.750000e-06	3.842954e-06	1.207213e-09	2.679482e+01	8.436885e+01
2.760000e-06	3.876173e-06	1.213158e-09	2.702643e+01	8.479329e+01
2.770000e-06	3.909009e-06	1.216998e-09	2.725538e+01	8.520989e+01
2.780000e-06	3.941404e-06	1.221413e-09	2.748125e+01	8.561895e+01
2.790000e-06	3.973528e-06	1.227522e-09	2.770523e+01	8.602073e+01
2.800000e-06	4.005506e-06	1.235055e-09	2.792820e+01	8.641553e+01
2.810000e-06	4.037270e-06	1.242140e-09	2.814967e+01	8.680358e+01
2.820000e-06	4.068814e-06	1.251599e-09	2.836961e+01	8.718514e+01
2.830000e-06	4.100105e-06	1.262177e-09	2.858779e+01	8.756046e+01
2.840000e-06	4.131094e-06	1.268245e-09	2.880385e+01	8.792975e+01
2.850000e-06	4.161815e-06	1.271105e-09	2.901805e+01	8.829322e+01
2.860000e-06	4.192271e-06	1.272464e-09	2.923041e+01	8.865107e+01
2.870000e-06	4.222422e-06	1.272549e-09	2.944064e+01	8.900349e+01
2.880000e-06	4.252268e-06	1.274737e-09	2.964874e+01	8.935063e+01
2.890000e-06	4.281858e-06	1.278428e-09	2.985505e+01	8.969265e+01
2.900000e-06	4.311167e-06	1.284961e-09	3.005941e+01	9.002968e+01
2.910000e-06	4.340086e-06	1.293489e-09	3.026104e+01	9.036184e+01
