# Temperatura_=_15.0
# Concentracion g/m^3_=_1620.0
# C_Vs_to_Am_M_A/Vsm_=_65563218390.804596
# pendiente_HvsI_1/m_=_3716.3
# ordenada_HvsI_A/m_=_1297.0
# frecuencia_Hz_=_135106.24698177585

Tiempo_(s)	Campo_(V.s)	Magnetizacion_(V.s)	Campo_(kA/m)	Magnetizacion_(A/m)
0.000000e+00	-5.507846e-06	-1.173232e-09	-3.836508e+01	-7.525664e+01
1.000000e-08	-5.508144e-06	-1.168633e-09	-3.836715e+01	-7.520595e+01
2.000000e-08	-5.508225e-06	-1.165472e-09	-3.836772e+01	-7.515143e+01
3.000000e-08	-5.508009e-06	-1.167146e-09	-3.836621e+01	-7.509302e+01
4.000000e-08	-5.507399e-06	-1.170476e-09	-3.836197e+01	-7.503069e+01
5.000000e-08	-5.506221e-06	-1.171071e-09	-3.835376e+01	-7.496441e+01
6.000000e-08	-5.504338e-06	-1.166952e-09	-3.834065e+01	-7.489419e+01
7.000000e-08	-5.501796e-06	-1.158595e-09	-3.832294e+01	-7.482002e+01
8.000000e-08	-5.498694e-06	-1.160481e-09	-3.830133e+01	-7.474196e+01
9.000000e-08	-5.495124e-06	-1.174280e-09	-3.827647e+01	-7.466004e+01
1.000000e-07	-5.491187e-06	-1.181035e-09	-3.824904e+01	-7.457433e+01
1.100000e-07	-5.486843e-06	-1.162238e-09	-3.821878e+01	-7.448493e+01
1.200000e-07	-5.482305e-06	-1.128668e-09	-3.818717e+01	-7.439193e+01
1.300000e-07	-5.477670e-06	-1.166367e-09	-3.815489e+01	-7.429545e+01
1.400000e-07	-5.472628e-06	-1.183266e-09	-3.811977e+01	-7.419564e+01
1.500000e-07	-5.467112e-06	-1.161787e-09	-3.808134e+01	-7.409263e+01
1.600000e-07	-5.461344e-06	-1.143786e-09	-3.804117e+01	-7.398659e+01
1.700000e-07	-5.455306e-06	-1.153828e-09	-3.799911e+01	-7.387769e+01
1.800000e-07	-5.448701e-06	-1.190282e-09	-3.795311e+01	-7.376611e+01
1.900000e-07	-5.441559e-06	-1.120578e-09	-3.790336e+01	-7.365204e+01
2.000000e-07	-5.434112e-06	-1.096118e-09	-3.785148e+01	-7.353568e+01
2.100000e-07	-5.426422e-06	-1.095834e-09	-3.779792e+01	-7.341721e+01
2.200000e-07	-5.418448e-06	-1.145138e-09	-3.774238e+01	-7.329683e+01
2.300000e-07	-5.410277e-06	-1.112308e-09	-3.768546e+01	-7.317474e+01
2.400000e-07	-5.401851e-06	-1.096107e-09	-3.762677e+01	-7.305113e+01
2.500000e-07	-5.392837e-06	-1.083123e-09	-3.756398e+01	-7.292617e+01
2.600000e-07	-5.383071e-06	-1.100283e-09	-3.749596e+01	-7.280005e+01
2.700000e-07	-5.372633e-06	-1.091329e-09	-3.742325e+01	-7.267293e+01
2.800000e-07	-5.361740e-06	-1.094763e-09	-3.734738e+01	-7.254496e+01
2.900000e-07	-5.350392e-06	-1.095975e-09	-3.726833e+01	-7.241627e+01
3.000000e-07	-5.338623e-06	-1.083066e-09	-3.718635e+01	-7.228698e+01
3.100000e-07	-5.326509e-06	-1.084666e-09	-3.710197e+01	-7.215720e+01
3.200000e-07	-5.313982e-06	-1.076391e-09	-3.701472e+01	-7.202701e+01
3.300000e-07	-5.301045e-06	-1.076085e-09	-3.692460e+01	-7.189647e+01
3.400000e-07	-5.287799e-06	-1.063783e-09	-3.683234e+01	-7.176562e+01
3.500000e-07	-5.274227e-06	-1.086446e-09	-3.673780e+01	-7.163447e+01
3.600000e-07	-5.260151e-06	-1.069136e-09	-3.663976e+01	-7.150303e+01
3.700000e-07	-5.245458e-06	-1.072763e-09	-3.653741e+01	-7.137127e+01
3.800000e-07	-5.230307e-06	-1.071104e-09	-3.643188e+01	-7.123913e+01
3.900000e-07	-5.214642e-06	-1.070528e-09	-3.632276e+01	-7.110654e+01
4.000000e-07	-5.198348e-06	-1.038550e-09	-3.620926e+01	-7.097342e+01
4.100000e-07	-5.181748e-06	-1.064567e-09	-3.609364e+01	-7.083964e+01
4.200000e-07	-5.164840e-06	-1.067622e-09	-3.597586e+01	-7.070507e+01
4.300000e-07	-5.147494e-06	-1.051172e-09	-3.585504e+01	-7.056955e+01
4.400000e-07	-5.129909e-06	-1.048315e-09	-3.573255e+01	-7.043293e+01
4.500000e-07	-5.112161e-06	-1.081078e-09	-3.560893e+01	-7.029502e+01
4.600000e-07	-5.093946e-06	-1.041082e-09	-3.548205e+01	-7.015562e+01
4.700000e-07	-5.075180e-06	-1.023643e-09	-3.535133e+01	-7.001452e+01
4.800000e-07	-5.056108e-06	-1.054649e-09	-3.521849e+01	-6.987150e+01
4.900000e-07	-5.036784e-06	-1.058529e-09	-3.508389e+01	-6.972636e+01
5.000000e-07	-5.017111e-06	-1.015715e-09	-3.494685e+01	-6.957885e+01
5.100000e-07	-4.997250e-06	-1.038958e-09	-3.480851e+01	-6.942877e+01
5.200000e-07	-4.977215e-06	-1.050204e-09	-3.466896e+01	-6.927587e+01
5.300000e-07	-4.956809e-06	-1.012812e-09	-3.452681e+01	-6.911995e+01
5.400000e-07	-4.936006e-06	-1.012728e-09	-3.438191e+01	-6.896078e+01
5.500000e-07	-4.914879e-06	-1.040804e-09	-3.423475e+01	-6.879816e+01
5.600000e-07	-4.893424e-06	-1.010187e-09	-3.408530e+01	-6.863190e+01
5.700000e-07	-4.871678e-06	-1.001099e-09	-3.393383e+01	-6.846182e+01
5.800000e-07	-4.849657e-06	-1.041266e-09	-3.378044e+01	-6.828774e+01
5.900000e-07	-4.827291e-06	-1.027707e-09	-3.362466e+01	-6.810952e+01
6.000000e-07	-4.804530e-06	-9.959621e-10	-3.346611e+01	-6.792703e+01
6.100000e-07	-4.781406e-06	-1.015193e-09	-3.330504e+01	-6.774015e+01
6.200000e-07	-4.757960e-06	-1.019293e-09	-3.314173e+01	-6.754880e+01
6.300000e-07	-4.734226e-06	-9.845529e-10	-3.297641e+01	-6.735289e+01
6.400000e-07	-4.710342e-06	-1.001616e-09	-3.281004e+01	-6.715239e+01
6.500000e-07	-4.686213e-06	-1.015578e-09	-3.264197e+01	-6.694726e+01
6.600000e-07	-4.661710e-06	-9.942308e-10	-3.247129e+01	-6.673750e+01
6.700000e-07	-4.636790e-06	-9.848789e-10	-3.229771e+01	-6.652312e+01
6.800000e-07	-4.611354e-06	-1.000547e-09	-3.212054e+01	-6.630417e+01
6.900000e-07	-4.585311e-06	-9.766943e-10	-3.193914e+01	-6.608070e+01
7.000000e-07	-4.558647e-06	-9.679178e-10	-3.175341e+01	-6.585279e+01
7.100000e-07	-4.531526e-06	-9.763431e-10	-3.156449e+01	-6.562054e+01
7.200000e-07	-4.504129e-06	-9.732373e-10	-3.137366e+01	-6.538404e+01
7.300000e-07	-4.476539e-06	-9.587126e-10	-3.118148e+01	-6.514344e+01
7.400000e-07	-4.448760e-06	-9.710037e-10	-3.098799e+01	-6.489885e+01
7.500000e-07	-4.420844e-06	-9.653663e-10	-3.079353e+01	-6.465043e+01
7.600000e-07	-4.392776e-06	-9.561813e-10	-3.059802e+01	-6.439834e+01
7.700000e-07	-4.364363e-06	-9.572025e-10	-3.040012e+01	-6.414273e+01
7.800000e-07	-4.335594e-06	-9.581142e-10	-3.019972e+01	-6.388376e+01
7.900000e-07	-4.306427e-06	-9.411633e-10	-2.999656e+01	-6.362160e+01
8.000000e-07	-4.276936e-06	-9.371477e-10	-2.979114e+01	-6.335640e+01
8.100000e-07	-4.247266e-06	-9.323277e-10	-2.958447e+01	-6.308832e+01
8.200000e-07	-4.217328e-06	-9.175055e-10	-2.937594e+01	-6.281751e+01
8.300000e-07	-4.187067e-06	-9.066255e-10	-2.916515e+01	-6.254410e+01
8.400000e-07	-4.156422e-06	-9.086610e-10	-2.895170e+01	-6.226823e+01
8.500000e-07	-4.125493e-06	-9.040710e-10	-2.873626e+01	-6.198999e+01
8.600000e-07	-4.094320e-06	-8.977347e-10	-2.851912e+01	-6.170950e+01
8.700000e-07	-4.062888e-06	-9.020664e-10	-2.830018e+01	-6.142682e+01
8.800000e-07	-4.031283e-06	-8.978106e-10	-2.808003e+01	-6.114202e+01
8.900000e-07	-3.999543e-06	-8.872319e-10	-2.785895e+01	-6.085514e+01
9.000000e-07	-3.967662e-06	-8.801474e-10	-2.763688e+01	-6.056620e+01
9.100000e-07	-3.935585e-06	-8.735684e-10	-2.741345e+01	-6.027520e+01
9.200000e-07	-3.903205e-06	-8.589853e-10	-2.718791e+01	-5.998211e+01
9.300000e-07	-3.870385e-06	-8.524311e-10	-2.695929e+01	-5.968689e+01
9.400000e-07	-3.837119e-06	-8.535017e-10	-2.672758e+01	-5.938947e+01
9.500000e-07	-3.803337e-06	-8.514484e-10	-2.649227e+01	-5.908977e+01
9.600000e-07	-3.769065e-06	-8.448552e-10	-2.625355e+01	-5.878767e+01
9.700000e-07	-3.734422e-06	-8.445236e-10	-2.601224e+01	-5.848306e+01
9.800000e-07	-3.699384e-06	-8.365096e-10	-2.576818e+01	-5.817578e+01
9.900000e-07	-3.664053e-06	-8.272160e-10	-2.552208e+01	-5.786569e+01
1.000000e-06	-3.628554e-06	-8.193056e-10	-2.527481e+01	-5.755260e+01
1.010000e-06	-3.592942e-06	-8.171771e-10	-2.502676e+01	-5.723634e+01
1.020000e-06	-3.557176e-06	-8.095771e-10	-2.477763e+01	-5.691671e+01
1.030000e-06	-3.521243e-06	-8.064593e-10	-2.452733e+01	-5.659351e+01
1.040000e-06	-3.485138e-06	-8.022748e-10	-2.427584e+01	-5.626653e+01
1.050000e-06	-3.448822e-06	-7.997171e-10	-2.402288e+01	-5.593558e+01
1.060000e-06	-3.412229e-06	-7.948658e-10	-2.376799e+01	-5.560045e+01
1.070000e-06	-3.375360e-06	-7.924994e-10	-2.351118e+01	-5.526094e+01
1.080000e-06	-3.338206e-06	-7.858950e-10	-2.325238e+01	-5.491685e+01
1.090000e-06	-3.300755e-06	-7.787699e-10	-2.299151e+01	-5.456801e+01
1.100000e-06	-3.263090e-06	-7.726815e-10	-2.272916e+01	-5.421424e+01
1.110000e-06	-3.225249e-06	-7.668277e-10	-2.246558e+01	-5.385538e+01
1.120000e-06	-3.187189e-06	-7.600420e-10	-2.220047e+01	-5.349129e+01
1.130000e-06	-3.148863e-06	-7.556546e-10	-2.193351e+01	-5.312186e+01
1.140000e-06	-3.110322e-06	-7.511645e-10	-2.166505e+01	-5.274697e+01
1.150000e-06	-3.071525e-06	-7.447585e-10	-2.139481e+01	-5.236655e+01
1.160000e-06	-3.032464e-06	-7.390047e-10	-2.112273e+01	-5.198053e+01
1.170000e-06	-2.993314e-06	-7.357928e-10	-2.085003e+01	-5.158888e+01
1.180000e-06	-2.954066e-06	-7.311550e-10	-2.057664e+01	-5.119160e+01
1.190000e-06	-2.914639e-06	-7.247608e-10	-2.030201e+01	-5.078868e+01
1.200000e-06	-2.875066e-06	-7.192110e-10	-2.002637e+01	-5.038018e+01
1.210000e-06	-2.835371e-06	-7.119603e-10	-1.974987e+01	-4.996614e+01
1.220000e-06	-2.795539e-06	-7.041969e-10	-1.947242e+01	-4.954664e+01
1.230000e-06	-2.755559e-06	-6.955598e-10	-1.919394e+01	-4.912179e+01
1.240000e-06	-2.715455e-06	-6.900877e-10	-1.891459e+01	-4.869171e+01
1.250000e-06	-2.675234e-06	-6.847008e-10	-1.863443e+01	-4.825652e+01
1.260000e-06	-2.634824e-06	-6.781252e-10	-1.835296e+01	-4.781638e+01
1.270000e-06	-2.594089e-06	-6.705689e-10	-1.806921e+01	-4.737145e+01
1.280000e-06	-2.553089e-06	-6.665204e-10	-1.778363e+01	-4.692189e+01
1.290000e-06	-2.511774e-06	-6.596658e-10	-1.749584e+01	-4.646787e+01
1.300000e-06	-2.470103e-06	-6.523216e-10	-1.720558e+01	-4.600956e+01
1.310000e-06	-2.428194e-06	-6.426205e-10	-1.691366e+01	-4.554713e+01
1.320000e-06	-2.385948e-06	-6.327762e-10	-1.661940e+01	-4.508074e+01
1.330000e-06	-2.343415e-06	-6.220505e-10	-1.632314e+01	-4.461054e+01
1.340000e-06	-2.300742e-06	-6.138598e-10	-1.602589e+01	-4.413665e+01
1.350000e-06	-2.257787e-06	-6.072733e-10	-1.572669e+01	-4.365919e+01
1.360000e-06	-2.214555e-06	-6.024443e-10	-1.542555e+01	-4.317825e+01
1.370000e-06	-2.171132e-06	-5.969802e-10	-1.512309e+01	-4.269388e+01
1.380000e-06	-2.127522e-06	-5.899638e-10	-1.481932e+01	-4.220612e+01
1.390000e-06	-2.083822e-06	-5.786361e-10	-1.451493e+01	-4.171495e+01
1.400000e-06	-2.040090e-06	-5.666522e-10	-1.421031e+01	-4.122033e+01
1.410000e-06	-1.996299e-06	-5.547475e-10	-1.390528e+01	-4.072216e+01
1.420000e-06	-1.952423e-06	-5.452878e-10	-1.359967e+01	-4.022032e+01
1.430000e-06	-1.908508e-06	-5.392597e-10	-1.329378e+01	-3.971462e+01
1.440000e-06	-1.864517e-06	-5.347234e-10	-1.298735e+01	-3.920483e+01
1.450000e-06	-1.820404e-06	-5.296636e-10	-1.268008e+01	-3.869067e+01
1.460000e-06	-1.776230e-06	-5.221086e-10	-1.237239e+01	-3.817181e+01
1.470000e-06	-1.731953e-06	-5.121236e-10	-1.206397e+01	-3.764785e+01
1.480000e-06	-1.687505e-06	-5.024246e-10	-1.175437e+01	-3.711836e+01
1.490000e-06	-1.642924e-06	-4.924387e-10	-1.144384e+01	-3.658285e+01
1.500000e-06	-1.598199e-06	-4.823713e-10	-1.113231e+01	-3.604078e+01
1.510000e-06	-1.553326e-06	-4.747408e-10	-1.081974e+01	-3.549157e+01
1.520000e-06	-1.508320e-06	-4.656780e-10	-1.050625e+01	-3.493458e+01
1.530000e-06	-1.463231e-06	-4.581104e-10	-1.019219e+01	-3.436913e+01
1.540000e-06	-1.418024e-06	-4.521227e-10	-9.877295e+00	-3.379450e+01
1.550000e-06	-1.372703e-06	-4.485259e-10	-9.561610e+00	-3.320996e+01
1.560000e-06	-1.327296e-06	-4.427725e-10	-9.245324e+00	-3.261470e+01
1.570000e-06	-1.281836e-06	-4.350759e-10	-8.928671e+00	-3.200794e+01
1.580000e-06	-1.236285e-06	-4.241147e-10	-8.611383e+00	-3.138883e+01
1.590000e-06	-1.190563e-06	-4.075219e-10	-8.292908e+00	-3.075654e+01
1.600000e-06	-1.144706e-06	-3.924239e-10	-7.973486e+00	-3.011022e+01
1.610000e-06	-1.098774e-06	-3.808983e-10	-7.653545e+00	-2.944901e+01
1.620000e-06	-1.052838e-06	-3.695945e-10	-7.333580e+00	-2.877209e+01
1.630000e-06	-1.006868e-06	-3.597298e-10	-7.013369e+00	-2.807860e+01
1.640000e-06	-9.608103e-07	-3.522415e-10	-6.692555e+00	-2.736775e+01
1.650000e-06	-9.146460e-07	-3.423908e-10	-6.370997e+00	-2.663875e+01
1.660000e-06	-8.683470e-07	-3.292744e-10	-6.048499e+00	-2.589085e+01
1.670000e-06	-8.220128e-07	-3.135078e-10	-5.725757e+00	-2.512334e+01
1.680000e-06	-7.757443e-07	-2.962449e-10	-5.403472e+00	-2.433556e+01
1.690000e-06	-7.294665e-07	-2.848061e-10	-5.081122e+00	-2.352693e+01
1.700000e-06	-6.831101e-07	-2.780038e-10	-4.758226e+00	-2.269688e+01
1.710000e-06	-6.366805e-07	-2.705294e-10	-4.434819e+00	-2.184497e+01
1.720000e-06	-5.902068e-07	-2.582372e-10	-4.111105e+00	-2.097078e+01
1.730000e-06	-5.437028e-07	-2.424561e-10	-3.787180e+00	-2.007402e+01
1.740000e-06	-4.972493e-07	-2.226583e-10	-3.463607e+00	-1.915444e+01
1.750000e-06	-4.507823e-07	-2.025840e-10	-3.139939e+00	-1.821191e+01
1.760000e-06	-4.042007e-07	-1.871603e-10	-2.815473e+00	-1.724639e+01
1.770000e-06	-3.575934e-07	-1.768941e-10	-2.490828e+00	-1.625792e+01
1.780000e-06	-3.109532e-07	-1.664009e-10	-2.165954e+00	-1.524666e+01
1.790000e-06	-2.641668e-07	-1.563170e-10	-1.840063e+00	-1.421287e+01
1.800000e-06	-2.172996e-07	-1.453131e-10	-1.513607e+00	-1.315689e+01
1.810000e-06	-1.705031e-07	-1.295211e-10	-1.187645e+00	-1.207918e+01
1.820000e-06	-1.237136e-07	-1.071120e-10	-8.617309e-01	-1.098031e+01
1.830000e-06	-7.691422e-08	-8.410023e-11	-5.357485e-01	-9.860927e+00
1.840000e-06	-3.011910e-08	-6.547394e-11	-2.097956e-01	-8.721803e+00
1.850000e-06	1.666553e-08	-5.032148e-11	1.160843e-01	-7.563792e+00
1.860000e-06	6.336986e-08	-4.146016e-11	4.414048e-01	-6.387842e+00
1.870000e-06	1.101023e-07	-3.182049e-11	7.669211e-01	-5.194993e+00
1.880000e-06	1.569322e-07	-1.683115e-11	1.093116e+00	-3.986368e+00
1.890000e-06	2.037834e-07	-4.832691e-13	1.419460e+00	-2.763169e+00
1.900000e-06	2.504865e-07	1.839584e-11	1.744772e+00	-1.526671e+00
1.910000e-06	2.970790e-07	3.809792e-11	2.069314e+00	-2.782136e-01
1.920000e-06	3.437143e-07	5.553136e-11	2.394153e+00	9.808017e-01
1.930000e-06	3.903574e-07	7.403665e-11	2.719047e+00	2.248923e+00
1.940000e-06	4.369373e-07	9.348115e-11	3.043501e+00	3.524655e+00
1.950000e-06	4.834691e-07	1.107982e-10	3.367620e+00	4.806464e+00
1.960000e-06	5.299694e-07	1.256569e-10	3.691519e+00	6.092793e+00
1.970000e-06	5.763966e-07	1.400685e-10	4.014909e+00	7.382063e+00
1.980000e-06	6.228723e-07	1.564548e-10	4.338637e+00	8.672686e+00
1.990000e-06	6.693301e-07	1.750016e-10	4.662241e+00	9.963071e+00
2.000000e-06	7.156537e-07	1.928019e-10	4.984909e+00	1.125164e+01
2.010000e-06	7.618959e-07	2.132469e-10	5.307011e+00	1.253681e+01
2.020000e-06	8.080675e-07	2.326275e-10	5.628620e+00	1.381706e+01
2.030000e-06	8.541681e-07	2.531286e-10	5.949736e+00	1.509086e+01
2.040000e-06	9.001681e-07	2.761393e-10	6.270150e+00	1.635674e+01
2.050000e-06	9.462045e-07	2.948799e-10	6.590819e+00	1.761328e+01
2.060000e-06	9.922355e-07	3.111832e-10	6.911448e+00	1.885912e+01
2.070000e-06	1.038099e-06	3.261040e-10	7.230915e+00	2.009292e+01
2.080000e-06	1.083922e-06	3.403046e-10	7.550093e+00	2.131346e+01
2.090000e-06	1.129672e-06	3.560784e-10	7.868767e+00	2.251956e+01
2.100000e-06	1.175277e-06	3.735841e-10	8.186433e+00	2.371013e+01
2.110000e-06	1.220822e-06	3.928672e-10	8.503677e+00	2.488414e+01
2.120000e-06	1.266264e-06	4.121193e-10	8.820204e+00	2.604066e+01
2.130000e-06	1.311596e-06	4.293432e-10	9.135964e+00	2.717886e+01
2.140000e-06	1.356870e-06	4.437365e-10	9.451324e+00	2.829797e+01
2.150000e-06	1.402020e-06	4.547916e-10	9.765814e+00	2.939734e+01
2.160000e-06	1.447024e-06	4.656758e-10	1.007930e+01	3.047638e+01
2.170000e-06	1.491983e-06	4.784630e-10	1.039245e+01	3.153461e+01
2.180000e-06	1.536872e-06	4.930827e-10	1.070513e+01	3.257164e+01
2.190000e-06	1.581605e-06	5.112941e-10	1.101672e+01	3.358717e+01
2.200000e-06	1.626256e-06	5.298482e-10	1.132774e+01	3.458098e+01
2.210000e-06	1.670839e-06	5.450937e-10	1.163828e+01	3.555293e+01
2.220000e-06	1.715273e-06	5.574048e-10	1.194779e+01	3.650299e+01
2.230000e-06	1.759506e-06	5.668586e-10	1.225590e+01	3.743117e+01
2.240000e-06	1.803581e-06	5.763194e-10	1.256290e+01	3.833758e+01
2.250000e-06	1.847633e-06	5.884315e-10	1.286975e+01	3.922240e+01
2.260000e-06	1.891667e-06	6.030777e-10	1.317647e+01	4.008586e+01
2.270000e-06	1.935604e-06	6.179789e-10	1.348251e+01	4.092825e+01
2.280000e-06	1.979474e-06	6.305303e-10	1.378809e+01	4.174993e+01
2.290000e-06	2.023261e-06	6.396285e-10	1.409309e+01	4.255131e+01
2.300000e-06	2.066945e-06	6.469458e-10	1.439737e+01	4.333282e+01
2.310000e-06	2.110571e-06	6.543742e-10	1.470125e+01	4.409495e+01
2.320000e-06	2.154151e-06	6.642977e-10	1.500481e+01	4.483821e+01
2.330000e-06	2.197591e-06	6.787272e-10	1.530739e+01	4.556314e+01
2.340000e-06	2.240834e-06	6.941095e-10	1.560860e+01	4.627031e+01
2.350000e-06	2.283942e-06	7.066092e-10	1.590887e+01	4.696028e+01
2.360000e-06	2.326854e-06	7.151064e-10	1.620778e+01	4.763365e+01
2.370000e-06	2.369473e-06	7.210434e-10	1.650464e+01	4.829099e+01
2.380000e-06	2.411866e-06	7.263510e-10	1.679993e+01	4.893291e+01
2.390000e-06	2.454047e-06	7.342950e-10	1.709374e+01	4.955998e+01
2.400000e-06	2.495914e-06	7.445303e-10	1.738537e+01	5.017278e+01
2.410000e-06	2.537374e-06	7.558039e-10	1.767416e+01	5.077186e+01
2.420000e-06	2.578491e-06	7.674000e-10	1.796057e+01	5.135778e+01
2.430000e-06	2.619334e-06	7.780809e-10	1.824506e+01	5.193106e+01
2.440000e-06	2.659905e-06	7.869308e-10	1.852766e+01	5.249219e+01
2.450000e-06	2.700289e-06	7.922304e-10	1.880895e+01	5.304165e+01
2.460000e-06	2.740463e-06	7.960762e-10	1.908878e+01	5.357990e+01
2.470000e-06	2.780405e-06	8.003533e-10	1.936700e+01	5.410736e+01
2.480000e-06	2.820219e-06	8.071947e-10	1.964432e+01	5.462442e+01
2.490000e-06	2.859921e-06	8.138135e-10	1.992088e+01	5.513145e+01
2.500000e-06	2.899494e-06	8.206264e-10	2.019652e+01	5.562878e+01
2.510000e-06	2.938941e-06	8.281422e-10	2.047129e+01	5.611671e+01
2.520000e-06	2.978210e-06	8.349406e-10	2.074482e+01	5.659554e+01
2.530000e-06	3.017333e-06	8.410665e-10	2.101733e+01	5.706549e+01
2.540000e-06	3.056280e-06	8.477787e-10	2.128862e+01	5.752681e+01
2.550000e-06	3.094947e-06	8.576817e-10	2.155795e+01	5.797968e+01
2.560000e-06	3.133299e-06	8.658602e-10	2.182509e+01	5.842428e+01
2.570000e-06	3.171390e-06	8.723874e-10	2.209042e+01	5.886077e+01
2.580000e-06	3.209329e-06	8.791524e-10	2.235469e+01	5.928928e+01
2.590000e-06	3.247086e-06	8.844178e-10	2.261769e+01	5.970993e+01
2.600000e-06	3.284642e-06	8.872865e-10	2.287928e+01	6.012282e+01
2.610000e-06	3.322072e-06	8.895747e-10	2.314000e+01	6.052804e+01
2.620000e-06	3.359291e-06	8.928083e-10	2.339925e+01	6.092567e+01
2.630000e-06	3.396245e-06	8.992733e-10	2.365665e+01	6.131579e+01
2.640000e-06	3.432953e-06	9.084496e-10	2.391235e+01	6.169846e+01
2.650000e-06	3.469345e-06	9.170952e-10	2.416583e+01	6.207374e+01
2.660000e-06	3.505448e-06	9.252169e-10	2.441731e+01	6.244171e+01
2.670000e-06	3.541375e-06	9.295904e-10	2.466756e+01	6.280241e+01
2.680000e-06	3.577197e-06	9.285318e-10	2.491708e+01	6.315593e+01
2.690000e-06	3.612888e-06	9.261482e-10	2.516569e+01	6.350232e+01
2.700000e-06	3.648418e-06	9.253667e-10	2.541318e+01	6.384167e+01
2.710000e-06	3.683783e-06	9.304763e-10	2.565951e+01	6.417405e+01
2.720000e-06	3.718996e-06	9.401676e-10	2.590479e+01	6.449955e+01
2.730000e-06	3.753874e-06	9.516847e-10	2.614773e+01	6.481828e+01
2.740000e-06	3.788244e-06	9.617843e-10	2.638714e+01	6.513034e+01
2.750000e-06	3.822215e-06	9.668827e-10	2.662376e+01	6.543585e+01
2.760000e-06	3.855701e-06	9.664564e-10	2.685701e+01	6.573492e+01
2.770000e-06	3.888597e-06	9.618025e-10	2.708615e+01	6.602768e+01
2.780000e-06	3.921108e-06	9.567148e-10	2.731260e+01	6.631429e+01
2.790000e-06	3.953366e-06	9.564309e-10	2.753730e+01	6.659488e+01
2.800000e-06	3.985418e-06	9.631265e-10	2.776056e+01	6.686962e+01
2.810000e-06	4.017285e-06	9.742307e-10	2.798253e+01	6.713865e+01
2.820000e-06	4.048956e-06	9.854060e-10	2.820313e+01	6.740214e+01
2.830000e-06	4.080487e-06	9.918752e-10	2.842276e+01	6.766026e+01
2.840000e-06	4.111805e-06	9.934178e-10	2.864091e+01	6.791318e+01
2.850000e-06	4.142849e-06	9.918148e-10	2.885715e+01	6.816106e+01
2.860000e-06	4.173578e-06	9.887104e-10	2.907120e+01	6.840407e+01
2.870000e-06	4.203923e-06	9.874198e-10	2.928256e+01	6.864238e+01
2.880000e-06	4.233944e-06	9.905523e-10	2.949168e+01	6.887614e+01
2.890000e-06	4.263632e-06	9.956988e-10	2.969847e+01	6.910550e+01
2.900000e-06	4.293088e-06	1.001207e-09	2.990364e+01	6.933062e+01
2.910000e-06	4.322406e-06	1.006709e-09	3.010786e+01	6.955162e+01
