# Temperatura_=_-13.9
# Concentracion g/m^3_=_1620.0
# C_Vs_to_Am_M_A/Vsm_=_65563218390.804596
# pendiente_HvsI_1/m_=_3716.3
# ordenada_HvsI_A/m_=_1297.0
# frecuencia_Hz_=_135102.9799153305

Tiempo_(s)	Campo_(V.s)	Magnetizacion_(V.s)	Campo_(kA/m)	Magnetizacion_(A/m)
0.000000e+00	-5.515582e-06	-8.167039e-10	-3.837195e+01	-5.282899e+01
1.000000e-08	-5.515686e-06	-8.148346e-10	-3.837267e+01	-5.277777e+01
2.000000e-08	-5.515535e-06	-8.150096e-10	-3.837162e+01	-5.272229e+01
3.000000e-08	-5.514986e-06	-8.176906e-10	-3.836780e+01	-5.266268e+01
4.000000e-08	-5.513985e-06	-8.193435e-10	-3.836084e+01	-5.259910e+01
5.000000e-08	-5.512452e-06	-8.162420e-10	-3.835017e+01	-5.253173e+01
6.000000e-08	-5.510351e-06	-7.995250e-10	-3.833556e+01	-5.246080e+01
7.000000e-08	-5.507739e-06	-7.808061e-10	-3.831739e+01	-5.238654e+01
8.000000e-08	-5.504564e-06	-8.218064e-10	-3.829529e+01	-5.230924e+01
9.000000e-08	-5.500850e-06	-9.030945e-10	-3.826946e+01	-5.222920e+01
1.000000e-07	-5.496669e-06	-8.622831e-10	-3.824037e+01	-5.214672e+01
1.100000e-07	-5.492245e-06	-7.205597e-10	-3.820959e+01	-5.206216e+01
1.200000e-07	-5.487714e-06	-7.489851e-10	-3.817807e+01	-5.197587e+01
1.300000e-07	-5.482859e-06	-8.478288e-10	-3.814430e+01	-5.188822e+01
1.400000e-07	-5.477480e-06	-8.739693e-10	-3.810687e+01	-5.179959e+01
1.500000e-07	-5.471661e-06	-7.462509e-10	-3.806639e+01	-5.171039e+01
1.600000e-07	-5.465613e-06	-7.749221e-10	-3.802431e+01	-5.162101e+01
1.700000e-07	-5.459159e-06	-8.886833e-10	-3.797941e+01	-5.153185e+01
1.800000e-07	-5.452098e-06	-8.514131e-10	-3.793029e+01	-5.144332e+01
1.900000e-07	-5.444687e-06	-7.253744e-10	-3.787873e+01	-5.135580e+01
2.000000e-07	-5.437105e-06	-6.973106e-10	-3.782599e+01	-5.126968e+01
2.100000e-07	-5.429158e-06	-7.965603e-10	-3.777070e+01	-5.118534e+01
2.200000e-07	-5.420874e-06	-8.016971e-10	-3.771307e+01	-5.110315e+01
2.300000e-07	-5.412493e-06	-7.571898e-10	-3.765476e+01	-5.102343e+01
2.400000e-07	-5.403693e-06	-7.220840e-10	-3.759354e+01	-5.094653e+01
2.500000e-07	-5.393982e-06	-7.550913e-10	-3.752598e+01	-5.087273e+01
2.600000e-07	-5.383483e-06	-7.306660e-10	-3.745294e+01	-5.080230e+01
2.700000e-07	-5.372613e-06	-7.267968e-10	-3.737731e+01	-5.073548e+01
2.800000e-07	-5.361331e-06	-7.250704e-10	-3.729882e+01	-5.067249e+01
2.900000e-07	-5.349581e-06	-7.543374e-10	-3.721708e+01	-5.061351e+01
3.000000e-07	-5.337558e-06	-7.436693e-10	-3.713344e+01	-5.055866e+01
3.100000e-07	-5.325184e-06	-7.379406e-10	-3.704735e+01	-5.050806e+01
3.200000e-07	-5.312254e-06	-7.156949e-10	-3.695740e+01	-5.046177e+01
3.300000e-07	-5.298976e-06	-7.308777e-10	-3.686502e+01	-5.041981e+01
3.400000e-07	-5.285500e-06	-7.359262e-10	-3.677126e+01	-5.038218e+01
3.500000e-07	-5.271526e-06	-7.165431e-10	-3.667405e+01	-5.034882e+01
3.600000e-07	-5.256955e-06	-7.217937e-10	-3.657268e+01	-5.031965e+01
3.700000e-07	-5.242029e-06	-7.689355e-10	-3.646884e+01	-5.029452e+01
3.800000e-07	-5.226595e-06	-7.424231e-10	-3.636147e+01	-5.027328e+01
3.900000e-07	-5.210331e-06	-6.950870e-10	-3.624832e+01	-5.025571e+01
4.000000e-07	-5.193591e-06	-7.464981e-10	-3.613186e+01	-5.024159e+01
4.100000e-07	-5.176638e-06	-7.665427e-10	-3.601391e+01	-5.023065e+01
4.200000e-07	-5.159400e-06	-6.947370e-10	-3.589399e+01	-5.022257e+01
4.300000e-07	-5.141909e-06	-7.073062e-10	-3.577231e+01	-5.021704e+01
4.400000e-07	-5.124153e-06	-7.964924e-10	-3.564878e+01	-5.021370e+01
4.500000e-07	-5.105968e-06	-7.308019e-10	-3.552226e+01	-5.021218e+01
4.600000e-07	-5.087248e-06	-6.763695e-10	-3.539202e+01	-5.021207e+01
4.700000e-07	-5.068222e-06	-7.480230e-10	-3.525966e+01	-5.021298e+01
4.800000e-07	-5.048940e-06	-7.625098e-10	-3.512552e+01	-5.021447e+01
4.900000e-07	-5.029329e-06	-6.782989e-10	-3.498909e+01	-5.021612e+01
5.000000e-07	-5.009508e-06	-7.279762e-10	-3.485119e+01	-5.021749e+01
5.100000e-07	-4.989497e-06	-7.584780e-10	-3.471197e+01	-5.021814e+01
5.200000e-07	-4.969185e-06	-6.888474e-10	-3.457066e+01	-5.021764e+01
5.300000e-07	-4.948480e-06	-6.977148e-10	-3.442662e+01	-5.021557e+01
5.400000e-07	-4.927481e-06	-7.728728e-10	-3.428053e+01	-5.021150e+01
5.500000e-07	-4.906141e-06	-7.032834e-10	-3.413206e+01	-5.020502e+01
5.600000e-07	-4.884392e-06	-6.715740e-10	-3.398076e+01	-5.019575e+01
5.700000e-07	-4.862320e-06	-7.456037e-10	-3.382720e+01	-5.018331e+01
5.800000e-07	-4.839866e-06	-7.392892e-10	-3.367099e+01	-5.016736e+01
5.900000e-07	-4.817003e-06	-6.758132e-10	-3.351193e+01	-5.014757e+01
6.000000e-07	-4.793908e-06	-7.247876e-10	-3.335126e+01	-5.012365e+01
6.100000e-07	-4.770548e-06	-7.418005e-10	-3.318874e+01	-5.009533e+01
6.200000e-07	-4.746839e-06	-6.893725e-10	-3.302380e+01	-5.006237e+01
6.300000e-07	-4.722929e-06	-7.061851e-10	-3.285746e+01	-5.002456e+01
6.400000e-07	-4.698830e-06	-7.421539e-10	-3.268980e+01	-4.998175e+01
6.500000e-07	-4.674383e-06	-7.052508e-10	-3.251972e+01	-4.993378e+01
6.600000e-07	-4.649500e-06	-6.998853e-10	-3.234661e+01	-4.988056e+01
6.700000e-07	-4.624194e-06	-7.301865e-10	-3.217055e+01	-4.982203e+01
6.800000e-07	-4.598368e-06	-7.056776e-10	-3.199089e+01	-4.975814e+01
6.900000e-07	-4.571910e-06	-6.865327e-10	-3.180681e+01	-4.968891e+01
7.000000e-07	-4.544864e-06	-7.093901e-10	-3.161865e+01	-4.961437e+01
7.100000e-07	-4.517414e-06	-7.093025e-10	-3.142769e+01	-4.953458e+01
7.200000e-07	-4.489770e-06	-6.923117e-10	-3.123537e+01	-4.944965e+01
7.300000e-07	-4.461995e-06	-7.130570e-10	-3.104214e+01	-4.935970e+01
7.400000e-07	-4.434073e-06	-7.152342e-10	-3.084788e+01	-4.926489e+01
7.500000e-07	-4.406007e-06	-6.964240e-10	-3.065262e+01	-4.916538e+01
7.600000e-07	-4.377668e-06	-6.948002e-10	-3.045547e+01	-4.906139e+01
7.700000e-07	-4.348957e-06	-7.044947e-10	-3.025573e+01	-4.895313e+01
7.800000e-07	-4.319879e-06	-6.903428e-10	-3.005343e+01	-4.884083e+01
7.900000e-07	-4.290468e-06	-6.945527e-10	-2.984882e+01	-4.872475e+01
8.000000e-07	-4.260803e-06	-7.032493e-10	-2.964244e+01	-4.860513e+01
8.100000e-07	-4.230887e-06	-6.937463e-10	-2.943432e+01	-4.848225e+01
8.200000e-07	-4.200685e-06	-6.788920e-10	-2.922420e+01	-4.835636e+01
8.300000e-07	-4.170142e-06	-6.883201e-10	-2.901171e+01	-4.822775e+01
8.400000e-07	-4.139271e-06	-6.831143e-10	-2.879694e+01	-4.809667e+01
8.500000e-07	-4.108145e-06	-6.759154e-10	-2.858040e+01	-4.796339e+01
8.600000e-07	-4.076759e-06	-6.844065e-10	-2.836205e+01	-4.782815e+01
8.700000e-07	-4.045063e-06	-6.929442e-10	-2.814154e+01	-4.769120e+01
8.800000e-07	-4.013245e-06	-6.820691e-10	-2.792018e+01	-4.755276e+01
8.900000e-07	-3.981348e-06	-6.817806e-10	-2.769827e+01	-4.741305e+01
9.000000e-07	-3.949197e-06	-6.791283e-10	-2.747460e+01	-4.727225e+01
9.100000e-07	-3.916735e-06	-6.647769e-10	-2.724876e+01	-4.713054e+01
9.200000e-07	-3.883972e-06	-6.595205e-10	-2.702082e+01	-4.698805e+01
9.300000e-07	-3.850916e-06	-6.705366e-10	-2.679085e+01	-4.684492e+01
9.400000e-07	-3.817435e-06	-6.724784e-10	-2.655792e+01	-4.670124e+01
9.500000e-07	-3.783408e-06	-6.676221e-10	-2.632120e+01	-4.655709e+01
9.600000e-07	-3.748897e-06	-6.738852e-10	-2.608111e+01	-4.641251e+01
9.700000e-07	-3.714043e-06	-6.729087e-10	-2.583863e+01	-4.626751e+01
9.800000e-07	-3.678822e-06	-6.615720e-10	-2.559360e+01	-4.612210e+01
9.900000e-07	-3.643323e-06	-6.561430e-10	-2.534663e+01	-4.597622e+01
1.000000e-06	-3.607657e-06	-6.570487e-10	-2.509850e+01	-4.582983e+01
1.010000e-06	-3.571821e-06	-6.515720e-10	-2.484919e+01	-4.568283e+01
1.020000e-06	-3.535887e-06	-6.527935e-10	-2.459920e+01	-4.553511e+01
1.030000e-06	-3.499803e-06	-6.613047e-10	-2.434816e+01	-4.538653e+01
1.040000e-06	-3.463488e-06	-6.661754e-10	-2.409551e+01	-4.523695e+01
1.050000e-06	-3.426889e-06	-6.639906e-10	-2.384089e+01	-4.508617e+01
1.060000e-06	-3.390028e-06	-6.648518e-10	-2.358445e+01	-4.493401e+01
1.070000e-06	-3.352923e-06	-6.576115e-10	-2.332631e+01	-4.478024e+01
1.080000e-06	-3.315582e-06	-6.502048e-10	-2.306653e+01	-4.462466e+01
1.090000e-06	-3.278040e-06	-6.458879e-10	-2.280535e+01	-4.446702e+01
1.100000e-06	-3.240210e-06	-6.446525e-10	-2.254217e+01	-4.430707e+01
1.110000e-06	-3.202063e-06	-6.387576e-10	-2.227678e+01	-4.414456e+01
1.120000e-06	-3.163647e-06	-6.377076e-10	-2.200952e+01	-4.397924e+01
1.130000e-06	-3.125015e-06	-6.414020e-10	-2.174076e+01	-4.381083e+01
1.140000e-06	-3.086283e-06	-6.407391e-10	-2.147130e+01	-4.363909e+01
1.150000e-06	-3.047486e-06	-6.346092e-10	-2.120138e+01	-4.346375e+01
1.160000e-06	-3.008462e-06	-6.308779e-10	-2.092989e+01	-4.328456e+01
1.170000e-06	-2.969139e-06	-6.227434e-10	-2.065633e+01	-4.310128e+01
1.180000e-06	-2.929635e-06	-6.152131e-10	-2.038150e+01	-4.291365e+01
1.190000e-06	-2.890020e-06	-6.122967e-10	-2.010589e+01	-4.272146e+01
1.200000e-06	-2.850209e-06	-6.122146e-10	-1.982893e+01	-4.252448e+01
1.210000e-06	-2.810225e-06	-6.098855e-10	-1.955076e+01	-4.232250e+01
1.220000e-06	-2.770170e-06	-6.079018e-10	-1.927210e+01	-4.211534e+01
1.230000e-06	-2.730051e-06	-6.046909e-10	-1.899299e+01	-4.190281e+01
1.240000e-06	-2.689801e-06	-5.989863e-10	-1.871297e+01	-4.168474e+01
1.250000e-06	-2.649292e-06	-5.952553e-10	-1.843115e+01	-4.146099e+01
1.260000e-06	-2.608527e-06	-5.922880e-10	-1.814754e+01	-4.123142e+01
1.270000e-06	-2.567558e-06	-5.887569e-10	-1.786252e+01	-4.099590e+01
1.280000e-06	-2.526314e-06	-5.839476e-10	-1.757559e+01	-4.075434e+01
1.290000e-06	-2.484883e-06	-5.810382e-10	-1.728735e+01	-4.050662e+01
1.300000e-06	-2.443185e-06	-5.786534e-10	-1.699726e+01	-4.025268e+01
1.310000e-06	-2.401089e-06	-5.770004e-10	-1.670440e+01	-3.999244e+01
1.320000e-06	-2.358707e-06	-5.726653e-10	-1.640954e+01	-3.972583e+01
1.330000e-06	-2.316055e-06	-5.683894e-10	-1.611281e+01	-3.945280e+01
1.340000e-06	-2.273171e-06	-5.640241e-10	-1.581447e+01	-3.917331e+01
1.350000e-06	-2.230014e-06	-5.601780e-10	-1.551423e+01	-3.888732e+01
1.360000e-06	-2.186591e-06	-5.572766e-10	-1.521213e+01	-3.859477e+01
1.370000e-06	-2.143054e-06	-5.556737e-10	-1.490924e+01	-3.829564e+01
1.380000e-06	-2.099357e-06	-5.509266e-10	-1.460525e+01	-3.798988e+01
1.390000e-06	-2.055521e-06	-5.446759e-10	-1.430027e+01	-3.767745e+01
1.400000e-06	-2.011591e-06	-5.391379e-10	-1.399465e+01	-3.735829e+01
1.410000e-06	-1.967583e-06	-5.347743e-10	-1.368849e+01	-3.703236e+01
1.420000e-06	-1.923527e-06	-5.307177e-10	-1.338199e+01	-3.669959e+01
1.430000e-06	-1.879414e-06	-5.283728e-10	-1.307510e+01	-3.635989e+01
1.440000e-06	-1.835162e-06	-5.256285e-10	-1.276724e+01	-3.601318e+01
1.450000e-06	-1.790776e-06	-5.233131e-10	-1.245845e+01	-3.565936e+01
1.460000e-06	-1.746364e-06	-5.196660e-10	-1.214947e+01	-3.529831e+01
1.470000e-06	-1.701851e-06	-5.138972e-10	-1.183979e+01	-3.492989e+01
1.480000e-06	-1.657102e-06	-5.063018e-10	-1.152847e+01	-3.455394e+01
1.490000e-06	-1.612231e-06	-4.998909e-10	-1.121630e+01	-3.417029e+01
1.500000e-06	-1.567387e-06	-4.957739e-10	-1.090433e+01	-3.377876e+01
1.510000e-06	-1.522374e-06	-4.907529e-10	-1.059117e+01	-3.337913e+01
1.520000e-06	-1.477134e-06	-4.846468e-10	-1.027644e+01	-3.297117e+01
1.530000e-06	-1.431811e-06	-4.798323e-10	-9.961120e+00	-3.255464e+01
1.540000e-06	-1.386472e-06	-4.740584e-10	-9.645698e+00	-3.212926e+01
1.550000e-06	-1.341076e-06	-4.671177e-10	-9.329877e+00	-3.169476e+01
1.560000e-06	-1.295599e-06	-4.607524e-10	-9.013495e+00	-3.125083e+01
1.570000e-06	-1.250042e-06	-4.539282e-10	-8.696552e+00	-3.079717e+01
1.580000e-06	-1.204393e-06	-4.446379e-10	-8.378973e+00	-3.033345e+01
1.590000e-06	-1.158677e-06	-4.347229e-10	-8.060928e+00	-2.985933e+01
1.600000e-06	-1.112875e-06	-4.263798e-10	-7.742280e+00	-2.937447e+01
1.610000e-06	-1.066945e-06	-4.186773e-10	-7.422745e+00	-2.887852e+01
1.620000e-06	-1.020961e-06	-4.110245e-10	-7.102833e+00	-2.837112e+01
1.630000e-06	-9.749191e-07	-4.019930e-10	-6.782520e+00	-2.785193e+01
1.640000e-06	-9.286663e-07	-3.937281e-10	-6.460739e+00	-2.732059e+01
1.650000e-06	-8.822948e-07	-3.851321e-10	-6.138132e+00	-2.677677e+01
1.660000e-06	-8.359460e-07	-3.768684e-10	-5.815683e+00	-2.622012e+01
1.670000e-06	-7.896006e-07	-3.676182e-10	-5.493258e+00	-2.565033e+01
1.680000e-06	-7.432623e-07	-3.576687e-10	-5.170882e+00	-2.506709e+01
1.690000e-06	-6.968891e-07	-3.472195e-10	-4.848263e+00	-2.447012e+01
1.700000e-06	-6.504757e-07	-3.365915e-10	-4.525365e+00	-2.385915e+01
1.710000e-06	-6.039585e-07	-3.241714e-10	-4.201744e+00	-2.323394e+01
1.720000e-06	-5.573963e-07	-3.132052e-10	-3.877811e+00	-2.259430e+01
1.730000e-06	-5.108224e-07	-3.047171e-10	-3.553796e+00	-2.194003e+01
1.740000e-06	-4.641971e-07	-2.947531e-10	-3.229423e+00	-2.127102e+01
1.750000e-06	-4.175520e-07	-2.844996e-10	-2.904913e+00	-2.058714e+01
1.760000e-06	-3.708639e-07	-2.752737e-10	-2.580103e+00	-1.988834e+01
1.770000e-06	-3.241785e-07	-2.640545e-10	-2.255313e+00	-1.917461e+01
1.780000e-06	-2.774713e-07	-2.507162e-10	-1.930370e+00	-1.844596e+01
1.790000e-06	-2.307679e-07	-2.381030e-10	-1.605454e+00	-1.770246e+01
1.800000e-06	-1.840442e-07	-2.267997e-10	-1.280397e+00	-1.694425e+01
1.810000e-06	-1.372505e-07	-2.152372e-10	-9.548526e-01	-1.617148e+01
1.820000e-06	-9.040450e-08	-2.024232e-10	-6.289448e-01	-1.538437e+01
1.830000e-06	-4.359143e-08	-1.884031e-10	-3.032660e-01	-1.458320e+01
1.840000e-06	3.141254e-09	-1.741347e-10	2.185373e-02	-1.376827e+01
1.850000e-06	4.984303e-08	-1.612659e-10	3.467583e-01	-1.293997e+01
1.860000e-06	9.654496e-08	-1.491567e-10	6.716641e-01	-1.209870e+01
1.870000e-06	1.432831e-07	-1.367802e-10	9.968217e-01	-1.124493e+01
1.880000e-06	1.900183e-07	-1.246609e-10	1.321959e+00	-1.037918e+01
1.890000e-06	2.366994e-07	-1.140187e-10	1.646720e+00	-9.501995e+00
1.900000e-06	2.833541e-07	-1.035088e-10	1.971297e+00	-8.613987e+00
1.910000e-06	3.301101e-07	-9.128837e-11	2.296579e+00	-7.715797e+00
1.920000e-06	3.768559e-07	-7.751243e-11	2.621790e+00	-6.808107e+00
1.930000e-06	4.234867e-07	-6.346441e-11	2.946200e+00	-5.891633e+00
1.940000e-06	4.700608e-07	-4.948222e-11	3.270217e+00	-4.967128e+00
1.950000e-06	5.166061e-07	-3.662569e-11	3.594033e+00	-4.035372e+00
1.960000e-06	5.631079e-07	-2.536758e-11	3.917547e+00	-3.097171e+00
1.970000e-06	6.095595e-07	-1.508656e-11	4.240711e+00	-2.153356e+00
1.980000e-06	6.559713e-07	-3.872237e-12	4.563598e+00	-1.204775e+00
1.990000e-06	7.023069e-07	8.539136e-12	4.885955e+00	-2.522938e-01
2.000000e-06	7.485944e-07	2.377157e-11	5.207977e+00	7.032133e-01
2.010000e-06	7.948192e-07	3.922193e-11	5.529564e+00	1.660863e+00
2.020000e-06	8.410189e-07	5.327457e-11	5.850976e+00	2.619768e+00
2.030000e-06	8.871717e-07	6.899918e-11	6.172061e+00	3.579042e+00
2.040000e-06	9.332636e-07	8.319994e-11	6.492723e+00	4.537802e+00
2.050000e-06	9.793378e-07	9.458222e-11	6.813261e+00	5.495175e+00
2.060000e-06	1.025385e-06	1.056433e-10	7.133613e+00	6.450298e+00
2.070000e-06	1.071323e-06	1.186606e-10	7.453206e+00	7.402323e+00
2.080000e-06	1.117121e-06	1.329157e-10	7.771820e+00	8.350420e+00
2.090000e-06	1.162883e-06	1.482541e-10	8.090185e+00	9.293783e+00
2.100000e-06	1.208591e-06	1.633900e-10	8.408181e+00	1.023163e+01
2.110000e-06	1.254208e-06	1.761903e-10	8.725534e+00	1.116320e+01
2.120000e-06	1.299706e-06	1.876865e-10	9.042062e+00	1.208778e+01
2.130000e-06	1.345063e-06	1.981030e-10	9.357616e+00	1.300466e+01
2.140000e-06	1.390347e-06	2.090343e-10	9.672657e+00	1.391320e+01
2.150000e-06	1.435567e-06	2.206418e-10	9.987252e+00	1.481276e+01
2.160000e-06	1.480580e-06	2.327538e-10	1.030041e+01	1.570277e+01
2.170000e-06	1.525474e-06	2.450912e-10	1.061274e+01	1.658267e+01
2.180000e-06	1.570369e-06	2.576813e-10	1.092507e+01	1.745197e+01
2.190000e-06	1.615157e-06	2.710660e-10	1.123666e+01	1.831019e+01
2.200000e-06	1.659839e-06	2.834928e-10	1.154751e+01	1.915691e+01
2.210000e-06	1.704372e-06	2.935458e-10	1.185733e+01	1.999175e+01
2.220000e-06	1.748690e-06	3.027602e-10	1.216565e+01	2.081436e+01
2.230000e-06	1.792884e-06	3.132761e-10	1.247311e+01	2.162444e+01
2.240000e-06	1.836989e-06	3.245246e-10	1.277995e+01	2.242173e+01
2.250000e-06	1.881004e-06	3.356256e-10	1.308616e+01	2.320600e+01
2.260000e-06	1.924957e-06	3.480572e-10	1.339194e+01	2.397707e+01
2.270000e-06	1.968825e-06	3.596436e-10	1.369713e+01	2.473478e+01
2.280000e-06	2.012670e-06	3.680975e-10	1.400217e+01	2.547902e+01
2.290000e-06	2.056508e-06	3.754518e-10	1.430714e+01	2.620972e+01
2.300000e-06	2.100233e-06	3.840474e-10	1.461134e+01	2.692682e+01
2.310000e-06	2.143883e-06	3.931778e-10	1.491501e+01	2.763031e+01
2.320000e-06	2.187466e-06	4.020491e-10	1.521822e+01	2.832019e+01
2.330000e-06	2.230815e-06	4.131280e-10	1.551980e+01	2.899650e+01
2.340000e-06	2.273933e-06	4.249896e-10	1.581977e+01	2.965931e+01
2.350000e-06	2.316938e-06	4.349518e-10	1.611896e+01	3.030870e+01
2.360000e-06	2.359700e-06	4.427110e-10	1.641645e+01	3.094477e+01
2.370000e-06	2.402015e-06	4.494397e-10	1.671084e+01	3.156765e+01
2.380000e-06	2.444149e-06	4.571778e-10	1.700396e+01	3.217747e+01
2.390000e-06	2.486073e-06	4.649022e-10	1.729563e+01	3.277439e+01
2.400000e-06	2.527600e-06	4.729460e-10	1.758453e+01	3.335858e+01
2.410000e-06	2.568776e-06	4.802343e-10	1.787100e+01	3.393021e+01
2.420000e-06	2.609596e-06	4.891823e-10	1.815498e+01	3.448946e+01
2.430000e-06	2.650210e-06	4.985127e-10	1.843753e+01	3.503654e+01
2.440000e-06	2.690688e-06	5.056215e-10	1.871914e+01	3.557163e+01
2.450000e-06	2.730939e-06	5.117966e-10	1.899916e+01	3.609495e+01
2.460000e-06	2.770964e-06	5.177449e-10	1.927762e+01	3.660670e+01
2.470000e-06	2.810888e-06	5.243284e-10	1.955537e+01	3.710707e+01
2.480000e-06	2.850721e-06	5.301335e-10	1.983249e+01	3.759629e+01
2.490000e-06	2.890478e-06	5.378043e-10	2.010908e+01	3.807456e+01
2.500000e-06	2.930121e-06	5.468734e-10	2.038487e+01	3.854208e+01
2.510000e-06	2.969567e-06	5.574172e-10	2.065930e+01	3.899905e+01
2.520000e-06	3.008846e-06	5.662630e-10	2.093257e+01	3.944567e+01
2.530000e-06	3.047922e-06	5.732511e-10	2.120442e+01	3.988214e+01
2.540000e-06	3.086710e-06	5.804464e-10	2.147426e+01	4.030865e+01
2.550000e-06	3.125213e-06	5.839288e-10	2.174213e+01	4.072538e+01
2.560000e-06	3.163483e-06	5.862798e-10	2.200838e+01	4.113251e+01
2.570000e-06	3.201539e-06	5.920639e-10	2.227313e+01	4.153022e+01
2.580000e-06	3.239441e-06	6.022107e-10	2.253682e+01	4.191867e+01
2.590000e-06	3.277229e-06	6.127296e-10	2.279971e+01	4.229804e+01
2.600000e-06	3.314767e-06	6.184744e-10	2.306086e+01	4.266848e+01
2.610000e-06	3.352002e-06	6.221042e-10	2.331991e+01	4.303013e+01
2.620000e-06	3.388944e-06	6.243624e-10	2.357691e+01	4.338315e+01
2.630000e-06	3.425590e-06	6.265324e-10	2.383186e+01	4.372769e+01
2.640000e-06	3.462030e-06	6.304970e-10	2.408537e+01	4.406386e+01
2.650000e-06	3.498266e-06	6.391941e-10	2.433746e+01	4.439181e+01
2.660000e-06	3.534308e-06	6.503380e-10	2.458821e+01	4.471166e+01
2.670000e-06	3.570255e-06	6.575481e-10	2.483829e+01	4.502353e+01
2.680000e-06	3.606091e-06	6.597966e-10	2.508761e+01	4.532754e+01
2.690000e-06	3.641778e-06	6.580795e-10	2.533588e+01	4.562380e+01
2.700000e-06	3.677319e-06	6.571020e-10	2.558314e+01	4.591241e+01
2.710000e-06	3.712596e-06	6.588389e-10	2.582856e+01	4.619349e+01
2.720000e-06	3.747485e-06	6.642758e-10	2.607128e+01	4.646712e+01
2.730000e-06	3.781977e-06	6.698330e-10	2.631124e+01	4.673340e+01
2.740000e-06	3.816059e-06	6.720329e-10	2.654836e+01	4.699244e+01
2.750000e-06	3.849650e-06	6.715359e-10	2.678204e+01	4.724431e+01
2.760000e-06	3.882721e-06	6.702974e-10	2.701212e+01	4.748910e+01
2.770000e-06	3.915351e-06	6.711207e-10	2.723913e+01	4.772690e+01
2.780000e-06	3.947654e-06	6.731157e-10	2.746386e+01	4.795778e+01
2.790000e-06	3.979777e-06	6.765680e-10	2.768734e+01	4.818184e+01
2.800000e-06	4.011776e-06	6.805638e-10	2.790996e+01	4.839913e+01
2.810000e-06	4.043626e-06	6.834062e-10	2.813154e+01	4.860974e+01
2.820000e-06	4.075306e-06	6.847579e-10	2.835194e+01	4.881375e+01
2.830000e-06	4.106789e-06	6.857161e-10	2.857097e+01	4.901121e+01
2.840000e-06	4.137998e-06	6.861093e-10	2.878808e+01	4.920221e+01
2.850000e-06	4.168811e-06	6.874394e-10	2.900245e+01	4.938681e+01
2.860000e-06	4.199272e-06	6.904284e-10	2.921437e+01	4.956509e+01
2.870000e-06	4.229415e-06	6.919139e-10	2.942408e+01	4.973710e+01
2.880000e-06	4.259300e-06	6.919286e-10	2.963198e+01	4.990292e+01
2.890000e-06	4.288982e-06	6.919055e-10	2.983848e+01	5.006262e+01
2.900000e-06	4.318411e-06	6.923135e-10	3.004322e+01	5.021627e+01
