# Temperatura_=_-0.5
# Concentracion g/m^3_=_1620.0
# C_Vs_to_Am_M_A/Vsm_=_65563218390.804596
# pendiente_HvsI_1/m_=_3716.3
# ordenada_HvsI_A/m_=_1297.0
# frecuencia_Hz_=_135094.79017782025

Tiempo_(s)	Campo_(V.s)	Magnetizacion_(V.s)	Campo_(kA/m)	Magnetizacion_(A/m)
0.000000e+00	-5.525084e-06	-1.399227e-09	-3.837436e+01	-9.141534e+01
1.000000e-08	-5.525322e-06	-1.400030e-09	-3.837602e+01	-9.137297e+01
2.000000e-08	-5.525299e-06	-1.397302e-09	-3.837586e+01	-9.132958e+01
3.000000e-08	-5.524789e-06	-1.392901e-09	-3.837232e+01	-9.128518e+01
4.000000e-08	-5.523837e-06	-1.389728e-09	-3.836570e+01	-9.123977e+01
5.000000e-08	-5.522442e-06	-1.386855e-09	-3.835601e+01	-9.119333e+01
6.000000e-08	-5.520422e-06	-1.389171e-09	-3.834198e+01	-9.114582e+01
7.000000e-08	-5.517804e-06	-1.410752e-09	-3.832380e+01	-9.109723e+01
8.000000e-08	-5.514715e-06	-1.429647e-09	-3.830234e+01	-9.104750e+01
9.000000e-08	-5.511147e-06	-1.387614e-09	-3.827757e+01	-9.099659e+01
1.000000e-07	-5.507123e-06	-1.332652e-09	-3.824962e+01	-9.094445e+01
1.100000e-07	-5.502784e-06	-1.355776e-09	-3.821948e+01	-9.089101e+01
1.200000e-07	-5.498238e-06	-1.440930e-09	-3.818791e+01	-9.083621e+01
1.300000e-07	-5.493388e-06	-1.415773e-09	-3.815422e+01	-9.077998e+01
1.400000e-07	-5.488167e-06	-1.341918e-09	-3.811796e+01	-9.072223e+01
1.500000e-07	-5.482647e-06	-1.351431e-09	-3.807962e+01	-9.066288e+01
1.600000e-07	-5.476768e-06	-1.439174e-09	-3.803879e+01	-9.060185e+01
1.700000e-07	-5.470372e-06	-1.415383e-09	-3.799437e+01	-9.053904e+01
1.800000e-07	-5.463497e-06	-1.305510e-09	-3.794661e+01	-9.047435e+01
1.900000e-07	-5.456340e-06	-1.313781e-09	-3.789691e+01	-9.040768e+01
2.000000e-07	-5.448886e-06	-1.393469e-09	-3.784513e+01	-9.033894e+01
2.100000e-07	-5.441146e-06	-1.416295e-09	-3.779137e+01	-9.026801e+01
2.200000e-07	-5.433182e-06	-1.344424e-09	-3.773606e+01	-9.019478e+01
2.300000e-07	-5.424915e-06	-1.324238e-09	-3.767864e+01	-9.011915e+01
2.400000e-07	-5.416127e-06	-1.335483e-09	-3.761761e+01	-9.004102e+01
2.500000e-07	-5.406696e-06	-1.334940e-09	-3.755210e+01	-8.996026e+01
2.600000e-07	-5.396543e-06	-1.299333e-09	-3.748158e+01	-8.987677e+01
2.700000e-07	-5.385795e-06	-1.315206e-09	-3.740694e+01	-8.979044e+01
2.800000e-07	-5.374587e-06	-1.330782e-09	-3.732909e+01	-8.970117e+01
2.900000e-07	-5.362919e-06	-1.324965e-09	-3.724805e+01	-8.960885e+01
3.000000e-07	-5.350912e-06	-1.298029e-09	-3.716466e+01	-8.951338e+01
3.100000e-07	-5.338612e-06	-1.296385e-09	-3.707923e+01	-8.941466e+01
3.200000e-07	-5.325861e-06	-1.304318e-09	-3.699066e+01	-8.931260e+01
3.300000e-07	-5.312709e-06	-1.308344e-09	-3.689932e+01	-8.920710e+01
3.400000e-07	-5.299135e-06	-1.297242e-09	-3.680504e+01	-8.909809e+01
3.500000e-07	-5.285101e-06	-1.292012e-09	-3.670756e+01	-8.898548e+01
3.600000e-07	-5.270643e-06	-1.310005e-09	-3.660715e+01	-8.886921e+01
3.700000e-07	-5.255753e-06	-1.303591e-09	-3.650373e+01	-8.874919e+01
3.800000e-07	-5.240445e-06	-1.275403e-09	-3.639741e+01	-8.862539e+01
3.900000e-07	-5.224604e-06	-1.281534e-09	-3.628739e+01	-8.849773e+01
4.000000e-07	-5.208194e-06	-1.301122e-09	-3.617341e+01	-8.836619e+01
4.100000e-07	-5.191361e-06	-1.264325e-09	-3.605650e+01	-8.823071e+01
4.200000e-07	-5.174341e-06	-1.265961e-09	-3.593828e+01	-8.809129e+01
4.300000e-07	-5.157004e-06	-1.312232e-09	-3.581787e+01	-8.794789e+01
4.400000e-07	-5.139305e-06	-1.293106e-09	-3.569494e+01	-8.780050e+01
4.500000e-07	-5.121243e-06	-1.227786e-09	-3.556950e+01	-8.764912e+01
4.600000e-07	-5.102697e-06	-1.269513e-09	-3.544068e+01	-8.749377e+01
4.700000e-07	-5.083789e-06	-1.299475e-09	-3.530936e+01	-8.733444e+01
4.800000e-07	-5.064646e-06	-1.243879e-09	-3.517640e+01	-8.717117e+01
4.900000e-07	-5.045227e-06	-1.235870e-09	-3.504152e+01	-8.700399e+01
5.000000e-07	-5.025579e-06	-1.292618e-09	-3.490506e+01	-8.683293e+01
5.100000e-07	-5.005668e-06	-1.251416e-09	-3.476677e+01	-8.665804e+01
5.200000e-07	-4.985462e-06	-1.221087e-09	-3.462643e+01	-8.647937e+01
5.300000e-07	-4.964905e-06	-1.274357e-09	-3.448365e+01	-8.629698e+01
5.400000e-07	-4.943967e-06	-1.265171e-09	-3.433823e+01	-8.611093e+01
5.500000e-07	-4.922660e-06	-1.203214e-09	-3.419024e+01	-8.592130e+01
5.600000e-07	-4.901051e-06	-1.247588e-09	-3.404016e+01	-8.572815e+01
5.700000e-07	-4.879133e-06	-1.281683e-09	-3.388793e+01	-8.553156e+01
5.800000e-07	-4.856744e-06	-1.224377e-09	-3.373242e+01	-8.533162e+01
5.900000e-07	-4.834020e-06	-1.221177e-09	-3.357459e+01	-8.512839e+01
6.000000e-07	-4.810976e-06	-1.268237e-09	-3.341454e+01	-8.492195e+01
6.100000e-07	-4.787601e-06	-1.238419e-09	-3.325219e+01	-8.471240e+01
6.200000e-07	-4.764065e-06	-1.217547e-09	-3.308872e+01	-8.449980e+01
6.300000e-07	-4.740290e-06	-1.257940e-09	-3.292359e+01	-8.428424e+01
6.400000e-07	-4.716251e-06	-1.249366e-09	-3.275663e+01	-8.406577e+01
6.500000e-07	-4.691770e-06	-1.215190e-09	-3.258660e+01	-8.384448e+01
6.600000e-07	-4.666752e-06	-1.231631e-09	-3.241284e+01	-8.362041e+01
6.700000e-07	-4.641367e-06	-1.234626e-09	-3.223652e+01	-8.339362e+01
6.800000e-07	-4.615408e-06	-1.203119e-09	-3.205622e+01	-8.316417e+01
6.900000e-07	-4.588924e-06	-1.212598e-09	-3.187229e+01	-8.293208e+01
7.000000e-07	-4.562054e-06	-1.227073e-09	-3.168566e+01	-8.269739e+01
7.100000e-07	-4.534823e-06	-1.209604e-09	-3.149652e+01	-8.246012e+01
7.200000e-07	-4.507334e-06	-1.201947e-09	-3.130560e+01	-8.222026e+01
7.300000e-07	-4.479646e-06	-1.210922e-09	-3.111330e+01	-8.197782e+01
7.400000e-07	-4.451761e-06	-1.192398e-09	-3.091962e+01	-8.173278e+01
7.500000e-07	-4.423557e-06	-1.179189e-09	-3.072373e+01	-8.148511e+01
7.600000e-07	-4.395070e-06	-1.184022e-09	-3.052587e+01	-8.123477e+01
7.700000e-07	-4.366402e-06	-1.183901e-09	-3.032676e+01	-8.098170e+01
7.800000e-07	-4.337442e-06	-1.175966e-09	-3.012562e+01	-8.072585e+01
7.900000e-07	-4.308140e-06	-1.179985e-09	-2.992210e+01	-8.046712e+01
8.000000e-07	-4.278520e-06	-1.172718e-09	-2.971638e+01	-8.020543e+01
8.100000e-07	-4.248582e-06	-1.157340e-09	-2.950844e+01	-7.994066e+01
8.200000e-07	-4.218356e-06	-1.150089e-09	-2.929851e+01	-7.967272e+01
8.300000e-07	-4.187906e-06	-1.147732e-09	-2.908702e+01	-7.940146e+01
8.400000e-07	-4.157138e-06	-1.135378e-09	-2.887332e+01	-7.912675e+01
8.500000e-07	-4.125983e-06	-1.132288e-09	-2.865693e+01	-7.884844e+01
8.600000e-07	-4.094627e-06	-1.135501e-09	-2.843915e+01	-7.856639e+01
8.700000e-07	-4.063149e-06	-1.127051e-09	-2.822052e+01	-7.828041e+01
8.800000e-07	-4.031524e-06	-1.115045e-09	-2.800087e+01	-7.799036e+01
8.900000e-07	-3.999714e-06	-1.113748e-09	-2.777994e+01	-7.769605e+01
9.000000e-07	-3.967697e-06	-1.105257e-09	-2.755757e+01	-7.739730e+01
9.100000e-07	-3.935362e-06	-1.093849e-09	-2.733298e+01	-7.709395e+01
9.200000e-07	-3.902463e-06	-1.093028e-09	-2.710448e+01	-7.678580e+01
9.300000e-07	-3.869144e-06	-1.091980e-09	-2.687307e+01	-7.647269e+01
9.400000e-07	-3.835558e-06	-1.083640e-09	-2.663980e+01	-7.615443e+01
9.500000e-07	-3.801560e-06	-1.080962e-09	-2.640366e+01	-7.583086e+01
9.600000e-07	-3.767078e-06	-1.082314e-09	-2.616417e+01	-7.550181e+01
9.700000e-07	-3.732103e-06	-1.069476e-09	-2.592125e+01	-7.516713e+01
9.800000e-07	-3.696853e-06	-1.057363e-09	-2.567642e+01	-7.482666e+01
9.900000e-07	-3.661485e-06	-1.054459e-09	-2.543077e+01	-7.448027e+01
1.000000e-06	-3.625937e-06	-1.050633e-09	-2.518387e+01	-7.412783e+01
1.010000e-06	-3.590212e-06	-1.042853e-09	-2.493575e+01	-7.376923e+01
1.020000e-06	-3.554290e-06	-1.045806e-09	-2.468626e+01	-7.340437e+01
1.030000e-06	-3.518172e-06	-1.045528e-09	-2.443539e+01	-7.303317e+01
1.040000e-06	-3.481830e-06	-1.035866e-09	-2.418298e+01	-7.265555e+01
1.050000e-06	-3.445232e-06	-1.028027e-09	-2.392880e+01	-7.227146e+01
1.060000e-06	-3.408407e-06	-1.022189e-09	-2.367302e+01	-7.188088e+01
1.070000e-06	-3.371342e-06	-1.007769e-09	-2.341559e+01	-7.148377e+01
1.080000e-06	-3.334113e-06	-9.960320e-10	-2.315702e+01	-7.108015e+01
1.090000e-06	-3.296671e-06	-9.927124e-10	-2.289697e+01	-7.067002e+01
1.100000e-06	-3.258935e-06	-9.912406e-10	-2.263487e+01	-7.025343e+01
1.110000e-06	-3.220977e-06	-9.874948e-10	-2.237123e+01	-6.983042e+01
1.120000e-06	-3.182788e-06	-9.891109e-10	-2.210599e+01	-6.940107e+01
1.130000e-06	-3.144362e-06	-9.863597e-10	-2.183911e+01	-6.896544e+01
1.140000e-06	-3.105701e-06	-9.756637e-10	-2.157059e+01	-6.852364e+01
1.150000e-06	-3.066832e-06	-9.654047e-10	-2.130062e+01	-6.807578e+01
1.160000e-06	-3.027761e-06	-9.571054e-10	-2.102926e+01	-6.762197e+01
1.170000e-06	-2.988503e-06	-9.462176e-10	-2.075659e+01	-6.716235e+01
1.180000e-06	-2.949103e-06	-9.387300e-10	-2.048293e+01	-6.669704e+01
1.190000e-06	-2.909614e-06	-9.381002e-10	-2.020867e+01	-6.622619e+01
1.200000e-06	-2.870014e-06	-9.364407e-10	-1.993363e+01	-6.574994e+01
1.210000e-06	-2.830216e-06	-9.306521e-10	-1.965721e+01	-6.526843e+01
1.220000e-06	-2.790168e-06	-9.215198e-10	-1.937906e+01	-6.478180e+01
1.230000e-06	-2.750000e-06	-9.128489e-10	-1.910007e+01	-6.429019e+01
1.240000e-06	-2.709685e-06	-9.020682e-10	-1.882007e+01	-6.379373e+01
1.250000e-06	-2.668991e-06	-8.912088e-10	-1.853742e+01	-6.329254e+01
1.260000e-06	-2.628040e-06	-8.862483e-10	-1.825300e+01	-6.278672e+01
1.270000e-06	-2.586810e-06	-8.818824e-10	-1.796664e+01	-6.227635e+01
1.280000e-06	-2.545314e-06	-8.776663e-10	-1.767843e+01	-6.176152e+01
1.290000e-06	-2.503685e-06	-8.726724e-10	-1.738929e+01	-6.124227e+01
1.300000e-06	-2.461747e-06	-8.640299e-10	-1.709802e+01	-6.071863e+01
1.310000e-06	-2.419330e-06	-8.500068e-10	-1.680341e+01	-6.019060e+01
1.320000e-06	-2.376541e-06	-8.371627e-10	-1.650622e+01	-5.965814e+01
1.330000e-06	-2.333627e-06	-8.274256e-10	-1.620816e+01	-5.912120e+01
1.340000e-06	-2.290632e-06	-8.165558e-10	-1.590954e+01	-5.857968e+01
1.350000e-06	-2.247475e-06	-8.110462e-10	-1.560980e+01	-5.803347e+01
1.360000e-06	-2.204137e-06	-8.068382e-10	-1.530879e+01	-5.748239e+01
1.370000e-06	-2.160721e-06	-8.015088e-10	-1.500724e+01	-5.692624e+01
1.380000e-06	-2.117218e-06	-7.922834e-10	-1.470510e+01	-5.636479e+01
1.390000e-06	-2.073572e-06	-7.785601e-10	-1.440196e+01	-5.579776e+01
1.400000e-06	-2.029864e-06	-7.630691e-10	-1.409838e+01	-5.522483e+01
1.410000e-06	-1.986056e-06	-7.509564e-10	-1.379412e+01	-5.464563e+01
1.420000e-06	-1.942127e-06	-7.429905e-10	-1.348900e+01	-5.405979e+01
1.430000e-06	-1.898078e-06	-7.381266e-10	-1.318306e+01	-5.346685e+01
1.440000e-06	-1.853905e-06	-7.322978e-10	-1.287626e+01	-5.286635e+01
1.450000e-06	-1.809600e-06	-7.242708e-10	-1.256854e+01	-5.225778e+01
1.460000e-06	-1.765203e-06	-7.132066e-10	-1.226018e+01	-5.164058e+01
1.470000e-06	-1.720759e-06	-7.016422e-10	-1.195150e+01	-5.101420e+01
1.480000e-06	-1.676135e-06	-6.878055e-10	-1.164157e+01	-5.037800e+01
1.490000e-06	-1.631319e-06	-6.757417e-10	-1.133029e+01	-4.973137e+01
1.500000e-06	-1.586346e-06	-6.661668e-10	-1.101794e+01	-4.907363e+01
1.510000e-06	-1.541245e-06	-6.579095e-10	-1.070468e+01	-4.840411e+01
1.520000e-06	-1.496092e-06	-6.486947e-10	-1.039108e+01	-4.772210e+01
1.530000e-06	-1.450780e-06	-6.372892e-10	-1.007636e+01	-4.702689e+01
1.540000e-06	-1.405307e-06	-6.279071e-10	-9.760532e+00	-4.631775e+01
1.550000e-06	-1.359775e-06	-6.193671e-10	-9.444291e+00	-4.559395e+01
1.560000e-06	-1.314191e-06	-6.080174e-10	-9.127685e+00	-4.485475e+01
1.570000e-06	-1.268571e-06	-5.930904e-10	-8.810833e+00	-4.409943e+01
1.580000e-06	-1.222901e-06	-5.770827e-10	-8.493634e+00	-4.332725e+01
1.590000e-06	-1.177168e-06	-5.611092e-10	-8.175996e+00	-4.253752e+01
1.600000e-06	-1.131356e-06	-5.465276e-10	-7.857809e+00	-4.172952e+01
1.610000e-06	-1.085483e-06	-5.338348e-10	-7.539203e+00	-4.090260e+01
1.620000e-06	-1.039538e-06	-5.204803e-10	-7.220089e+00	-4.005610e+01
1.630000e-06	-9.934510e-07	-5.064751e-10	-6.899995e+00	-3.918941e+01
1.640000e-06	-9.472479e-07	-4.920670e-10	-6.579092e+00	-3.830194e+01
1.650000e-06	-9.010065e-07	-4.756944e-10	-6.257923e+00	-3.739317e+01
1.660000e-06	-8.547306e-07	-4.588925e-10	-5.936515e+00	-3.646260e+01
1.670000e-06	-8.083897e-07	-4.412338e-10	-5.614655e+00	-3.550978e+01
1.680000e-06	-7.618546e-07	-4.257198e-10	-5.291446e+00	-3.453433e+01
1.690000e-06	-7.152610e-07	-4.127500e-10	-4.967832e+00	-3.353590e+01
1.700000e-06	-6.687876e-07	-4.008787e-10	-4.645052e+00	-3.251422e+01
1.710000e-06	-6.222540e-07	-3.872478e-10	-4.321853e+00	-3.146909e+01
1.720000e-06	-5.756274e-07	-3.712096e-10	-3.998009e+00	-3.040035e+01
1.730000e-06	-5.289302e-07	-3.532347e-10	-3.673674e+00	-2.930793e+01
1.740000e-06	-4.821804e-07	-3.347264e-10	-3.348974e+00	-2.819181e+01
1.750000e-06	-4.354073e-07	-3.163361e-10	-3.024113e+00	-2.705208e+01
1.760000e-06	-3.885961e-07	-2.987741e-10	-2.698986e+00	-2.588886e+01
1.770000e-06	-3.417721e-07	-2.805306e-10	-2.373771e+00	-2.470236e+01
1.780000e-06	-2.949395e-07	-2.628714e-10	-2.048496e+00	-2.349288e+01
1.790000e-06	-2.481526e-07	-2.457992e-10	-1.723539e+00	-2.226077e+01
1.800000e-06	-2.013494e-07	-2.307343e-10	-1.398468e+00	-2.100646e+01
1.810000e-06	-1.544611e-07	-2.135195e-10	-1.072807e+00	-1.973047e+01
1.820000e-06	-1.075307e-07	-1.945802e-10	-7.468525e-01	-1.843337e+01
1.830000e-06	-6.058086e-08	-1.785635e-10	-4.207632e-01	-1.711581e+01
1.840000e-06	-1.366503e-08	-1.618010e-10	-9.491020e-02	-1.577850e+01
1.850000e-06	3.312841e-08	-1.441860e-10	2.300927e-01	-1.442224e+01
1.860000e-06	7.993397e-08	-1.248220e-10	5.551798e-01	-1.304786e+01
1.870000e-06	1.268218e-07	-1.043966e-10	8.808382e-01	-1.165626e+01
1.880000e-06	1.737710e-07	-8.862731e-11	1.206923e+00	-1.024841e+01
1.890000e-06	2.206645e-07	-7.590821e-11	1.532621e+00	-8.825307e+00
1.900000e-06	2.674923e-07	-6.132659e-11	1.857863e+00	-7.388021e+00
1.910000e-06	3.143280e-07	-4.206614e-11	2.183159e+00	-5.937652e+00
1.920000e-06	3.610415e-07	-1.915938e-11	2.507607e+00	-4.475339e+00
1.930000e-06	4.077088e-07	6.332259e-12	2.831734e+00	-3.002259e+00
1.940000e-06	4.544182e-07	3.126445e-11	3.156153e+00	-1.519619e+00
1.950000e-06	5.011361e-07	5.071953e-11	3.480631e+00	-2.864734e-02
1.960000e-06	5.478489e-07	6.895183e-11	3.805074e+00	1.469404e+00
1.970000e-06	5.945010e-07	8.870255e-11	4.129095e+00	2.973271e+00
1.980000e-06	6.410948e-07	1.089622e-10	4.452712e+00	4.481678e+00
1.990000e-06	6.875974e-07	1.280676e-10	4.775695e+00	5.993344e+00
2.000000e-06	7.339933e-07	1.457871e-10	5.097936e+00	7.506990e+00
2.010000e-06	7.803485e-07	1.650124e-10	5.419896e+00	9.021339e+00
2.020000e-06	8.266563e-07	1.853167e-10	5.741526e+00	1.053513e+01
2.030000e-06	8.728647e-07	2.066350e-10	6.062465e+00	1.204710e+01
2.040000e-06	9.189742e-07	2.299816e-10	6.382717e+00	1.355603e+01
2.050000e-06	9.650089e-07	2.513475e-10	6.702451e+00	1.506069e+01
2.060000e-06	1.010999e-06	2.752646e-10	7.021875e+00	1.655991e+01
2.070000e-06	1.056900e-06	2.972159e-10	7.340676e+00	1.805253e+01
2.080000e-06	1.102792e-06	3.155502e-10	7.659418e+00	1.953743e+01
2.090000e-06	1.148670e-06	3.354632e-10	7.978065e+00	2.101352e+01
2.100000e-06	1.194396e-06	3.567111e-10	8.295657e+00	2.247976e+01
2.110000e-06	1.240038e-06	3.787005e-10	8.612660e+00	2.393515e+01
2.120000e-06	1.285609e-06	4.002033e-10	8.929173e+00	2.537871e+01
2.130000e-06	1.331115e-06	4.209532e-10	9.245236e+00	2.680955e+01
2.140000e-06	1.376561e-06	4.408896e-10	9.560877e+00	2.822678e+01
2.150000e-06	1.421929e-06	4.579943e-10	9.875983e+00	2.962961e+01
2.160000e-06	1.467201e-06	4.753237e-10	1.019041e+01	3.101725e+01
2.170000e-06	1.512260e-06	4.941451e-10	1.050337e+01	3.238900e+01
2.180000e-06	1.557169e-06	5.136409e-10	1.081529e+01	3.374418e+01
2.190000e-06	1.602054e-06	5.335495e-10	1.112704e+01	3.508218e+01
2.200000e-06	1.646798e-06	5.515941e-10	1.143780e+01	3.640244e+01
2.210000e-06	1.691369e-06	5.676242e-10	1.174737e+01	3.770445e+01
2.220000e-06	1.735844e-06	5.827296e-10	1.205627e+01	3.898774e+01
2.230000e-06	1.780090e-06	5.977354e-10	1.236358e+01	4.025190e+01
2.240000e-06	1.824171e-06	6.173352e-10	1.266974e+01	4.149657e+01
2.250000e-06	1.868218e-06	6.396994e-10	1.297567e+01	4.272141e+01
2.260000e-06	1.912151e-06	6.579573e-10	1.328081e+01	4.392617e+01
2.270000e-06	1.955997e-06	6.734243e-10	1.358534e+01	4.511060e+01
2.280000e-06	1.999768e-06	6.879287e-10	1.388935e+01	4.627453e+01
2.290000e-06	2.043502e-06	7.026003e-10	1.419310e+01	4.741779e+01
2.300000e-06	2.087181e-06	7.156094e-10	1.449648e+01	4.854029e+01
2.310000e-06	2.130764e-06	7.268287e-10	1.479918e+01	4.964195e+01
2.320000e-06	2.174298e-06	7.395516e-10	1.510154e+01	5.072272e+01
2.330000e-06	2.217745e-06	7.547202e-10	1.540330e+01	5.178260e+01
2.340000e-06	2.260980e-06	7.707558e-10	1.570359e+01	5.282162e+01
2.350000e-06	2.304077e-06	7.858738e-10	1.600292e+01	5.383981e+01
2.360000e-06	2.347058e-06	7.978829e-10	1.630145e+01	5.483727e+01
2.370000e-06	2.389873e-06	8.087583e-10	1.659882e+01	5.581409e+01
2.380000e-06	2.432525e-06	8.196633e-10	1.689505e+01	5.677039e+01
2.390000e-06	2.474817e-06	8.325293e-10	1.718880e+01	5.770632e+01
2.400000e-06	2.516776e-06	8.456000e-10	1.748022e+01	5.862204e+01
2.410000e-06	2.558434e-06	8.580823e-10	1.776955e+01	5.951773e+01
2.420000e-06	2.599621e-06	8.704215e-10	1.805562e+01	6.039358e+01
2.430000e-06	2.640471e-06	8.822799e-10	1.833934e+01	6.124981e+01
2.440000e-06	2.681080e-06	8.927472e-10	1.862139e+01	6.208663e+01
2.450000e-06	2.721385e-06	9.019740e-10	1.890133e+01	6.290428e+01
2.460000e-06	2.761550e-06	9.103013e-10	1.918029e+01	6.370301e+01
2.470000e-06	2.801632e-06	9.185135e-10	1.945868e+01	6.448306e+01
2.480000e-06	2.841501e-06	9.277176e-10	1.973559e+01	6.524470e+01
2.490000e-06	2.881176e-06	9.383020e-10	2.001115e+01	6.598819e+01
2.500000e-06	2.920735e-06	9.508544e-10	2.028591e+01	6.671382e+01
2.510000e-06	2.960209e-06	9.643593e-10	2.056007e+01	6.742186e+01
2.520000e-06	2.999534e-06	9.763988e-10	2.083321e+01	6.811260e+01
2.530000e-06	3.038665e-06	9.866920e-10	2.110499e+01	6.878634e+01
2.540000e-06	3.077587e-06	9.942119e-10	2.137532e+01	6.944338e+01
2.550000e-06	3.116293e-06	1.000823e-09	2.164416e+01	7.008401e+01
2.560000e-06	3.154801e-06	1.007777e-09	2.191161e+01	7.070854e+01
2.570000e-06	3.193013e-06	1.015015e-09	2.217701e+01	7.131729e+01
2.580000e-06	3.230941e-06	1.025057e-09	2.244044e+01	7.191057e+01
2.590000e-06	3.268729e-06	1.037760e-09	2.270290e+01	7.248870e+01
2.600000e-06	3.306313e-06	1.048040e-09	2.296393e+01	7.305199e+01
2.610000e-06	3.343673e-06	1.053760e-09	2.322342e+01	7.360078e+01
2.620000e-06	3.380767e-06	1.058174e-09	2.348105e+01	7.413540e+01
2.630000e-06	3.417558e-06	1.061731e-09	2.373658e+01	7.465616e+01
2.640000e-06	3.454156e-06	1.064843e-09	2.399077e+01	7.516341e+01
2.650000e-06	3.490601e-06	1.071889e-09	2.424390e+01	7.565749e+01
2.660000e-06	3.526820e-06	1.082655e-09	2.449546e+01	7.613872e+01
2.670000e-06	3.562737e-06	1.090738e-09	2.474492e+01	7.660745e+01
2.680000e-06	3.598464e-06	1.096617e-09	2.499306e+01	7.706403e+01
2.690000e-06	3.634073e-06	1.101452e-09	2.524039e+01	7.750878e+01
2.700000e-06	3.669574e-06	1.104650e-09	2.548695e+01	7.794206e+01
2.710000e-06	3.704932e-06	1.109498e-09	2.573254e+01	7.836421e+01
2.720000e-06	3.740071e-06	1.118046e-09	2.597659e+01	7.877556e+01
2.730000e-06	3.774958e-06	1.123860e-09	2.621890e+01	7.917646e+01
2.740000e-06	3.809501e-06	1.126475e-09	2.645882e+01	7.956724e+01
2.750000e-06	3.843601e-06	1.129982e-09	2.669566e+01	7.994825e+01
2.760000e-06	3.877208e-06	1.134076e-09	2.692907e+01	8.031980e+01
2.770000e-06	3.910294e-06	1.136236e-09	2.715887e+01	8.068224e+01
2.780000e-06	3.942887e-06	1.138569e-09	2.738524e+01	8.103588e+01
2.790000e-06	3.975163e-06	1.142997e-09	2.760942e+01	8.138104e+01
2.800000e-06	4.007248e-06	1.147009e-09	2.783226e+01	8.171803e+01
2.810000e-06	4.039096e-06	1.151072e-09	2.805346e+01	8.204715e+01
2.820000e-06	4.070783e-06	1.158097e-09	2.827354e+01	8.236870e+01
2.830000e-06	4.102299e-06	1.164514e-09	2.849244e+01	8.268296e+01
2.840000e-06	4.133581e-06	1.170247e-09	2.870971e+01	8.299021e+01
2.850000e-06	4.164642e-06	1.174642e-09	2.892544e+01	8.329071e+01
2.860000e-06	4.195369e-06	1.177421e-09	2.913885e+01	8.358471e+01
2.870000e-06	4.225792e-06	1.180880e-09	2.935016e+01	8.387245e+01
2.880000e-06	4.255900e-06	1.183810e-09	2.955927e+01	8.415417e+01
2.890000e-06	4.285679e-06	1.188035e-09	2.976610e+01	8.443008e+01
2.900000e-06	4.315196e-06	1.194174e-09	2.997111e+01	8.470037e+01
