# Temperatura_=_13.3
# Concentracion g/m^3_=_1620.0
# C_Vs_to_Am_M_A/Vsm_=_65563218390.804596
# pendiente_HvsI_1/m_=_3716.3
# ordenada_HvsI_A/m_=_1297.0
# frecuencia_Hz_=_135103.29116175076

Tiempo_(s)	Campo_(V.s)	Magnetizacion_(V.s)	Campo_(kA/m)	Magnetizacion_(A/m)
0.000000e+00	-5.538694e-06	-1.166024e-09	-3.836889e+01	-7.557623e+01
1.000000e-08	-5.538833e-06	-1.162598e-09	-3.836986e+01	-7.552122e+01
2.000000e-08	-5.538690e-06	-1.159145e-09	-3.836887e+01	-7.546246e+01
3.000000e-08	-5.538132e-06	-1.156829e-09	-3.836500e+01	-7.539999e+01
4.000000e-08	-5.537031e-06	-1.155527e-09	-3.835737e+01	-7.533386e+01
5.000000e-08	-5.535284e-06	-1.154641e-09	-3.834527e+01	-7.526412e+01
6.000000e-08	-5.532899e-06	-1.151408e-09	-3.832875e+01	-7.519083e+01
7.000000e-08	-5.530001e-06	-1.151533e-09	-3.830868e+01	-7.511409e+01
8.000000e-08	-5.526621e-06	-1.161132e-09	-3.828526e+01	-7.503397e+01
9.000000e-08	-5.522824e-06	-1.178227e-09	-3.825896e+01	-7.495058e+01
1.000000e-07	-5.518579e-06	-1.179026e-09	-3.822955e+01	-7.486403e+01
1.100000e-07	-5.513992e-06	-1.135853e-09	-3.819778e+01	-7.477445e+01
1.200000e-07	-5.509323e-06	-1.132847e-09	-3.816543e+01	-7.468198e+01
1.300000e-07	-5.504429e-06	-1.157831e-09	-3.813153e+01	-7.458676e+01
1.400000e-07	-5.499107e-06	-1.158439e-09	-3.809466e+01	-7.448895e+01
1.500000e-07	-5.493383e-06	-1.123091e-09	-3.805501e+01	-7.438870e+01
1.600000e-07	-5.487275e-06	-1.104337e-09	-3.801270e+01	-7.428619e+01
1.700000e-07	-5.480866e-06	-1.165692e-09	-3.796830e+01	-7.418160e+01
1.800000e-07	-5.474072e-06	-1.169722e-09	-3.792123e+01	-7.407510e+01
1.900000e-07	-5.466845e-06	-1.134465e-09	-3.787117e+01	-7.396689e+01
2.000000e-07	-5.459373e-06	-1.088637e-09	-3.781941e+01	-7.385714e+01
2.100000e-07	-5.451668e-06	-1.117011e-09	-3.776603e+01	-7.374605e+01
2.200000e-07	-5.443574e-06	-1.122658e-09	-3.770996e+01	-7.363380e+01
2.300000e-07	-5.435084e-06	-1.120087e-09	-3.765115e+01	-7.352058e+01
2.400000e-07	-5.426125e-06	-1.103813e-09	-3.758908e+01	-7.340655e+01
2.500000e-07	-5.416505e-06	-1.110570e-09	-3.752244e+01	-7.329190e+01
2.600000e-07	-5.406134e-06	-1.107507e-09	-3.745059e+01	-7.317678e+01
2.700000e-07	-5.395210e-06	-1.093899e-09	-3.737492e+01	-7.306135e+01
2.800000e-07	-5.383856e-06	-1.081246e-09	-3.729627e+01	-7.294575e+01
2.900000e-07	-5.372056e-06	-1.086875e-09	-3.721453e+01	-7.283010e+01
3.000000e-07	-5.359940e-06	-1.100922e-09	-3.713059e+01	-7.271452e+01
3.100000e-07	-5.347461e-06	-1.082193e-09	-3.704414e+01	-7.259909e+01
3.200000e-07	-5.334534e-06	-1.075728e-09	-3.695459e+01	-7.248391e+01
3.300000e-07	-5.321219e-06	-1.078664e-09	-3.686235e+01	-7.236903e+01
3.400000e-07	-5.307630e-06	-1.093596e-09	-3.676822e+01	-7.225449e+01
3.500000e-07	-5.293656e-06	-1.059647e-09	-3.667141e+01	-7.214030e+01
3.600000e-07	-5.278989e-06	-1.051882e-09	-3.656981e+01	-7.202646e+01
3.700000e-07	-5.263761e-06	-1.071448e-09	-3.646432e+01	-7.191295e+01
3.800000e-07	-5.248154e-06	-1.086890e-09	-3.635620e+01	-7.179972e+01
3.900000e-07	-5.232058e-06	-1.062309e-09	-3.624470e+01	-7.168670e+01
4.000000e-07	-5.215619e-06	-1.076199e-09	-3.613082e+01	-7.157380e+01
4.100000e-07	-5.198908e-06	-1.083819e-09	-3.601506e+01	-7.146090e+01
4.200000e-07	-5.181750e-06	-1.057877e-09	-3.589619e+01	-7.134786e+01
4.300000e-07	-5.164193e-06	-1.042945e-09	-3.577457e+01	-7.123454e+01
4.400000e-07	-5.146380e-06	-1.081819e-09	-3.565117e+01	-7.112076e+01
4.500000e-07	-5.128196e-06	-1.066035e-09	-3.552520e+01	-7.100633e+01
4.600000e-07	-5.109488e-06	-1.040056e-09	-3.539560e+01	-7.089104e+01
4.700000e-07	-5.090363e-06	-1.066602e-09	-3.526312e+01	-7.077465e+01
4.800000e-07	-5.071079e-06	-1.085104e-09	-3.512953e+01	-7.065694e+01
4.900000e-07	-5.051619e-06	-1.042867e-09	-3.499472e+01	-7.053766e+01
5.000000e-07	-5.031894e-06	-1.048139e-09	-3.485808e+01	-7.041655e+01
5.100000e-07	-5.011884e-06	-1.068578e-09	-3.471946e+01	-7.029335e+01
5.200000e-07	-4.991484e-06	-1.035704e-09	-3.457814e+01	-7.016777e+01
5.300000e-07	-4.970680e-06	-1.026378e-09	-3.443402e+01	-7.003956e+01
5.400000e-07	-4.949554e-06	-1.067045e-09	-3.428767e+01	-6.990844e+01
5.500000e-07	-4.928068e-06	-1.050287e-09	-3.413883e+01	-6.977415e+01
5.600000e-07	-4.906195e-06	-1.017178e-09	-3.398731e+01	-6.963640e+01
5.700000e-07	-4.884000e-06	-1.047797e-09	-3.383355e+01	-6.949495e+01
5.800000e-07	-4.861503e-06	-1.056385e-09	-3.367770e+01	-6.934955e+01
5.900000e-07	-4.838643e-06	-1.025411e-09	-3.351935e+01	-6.919996e+01
6.000000e-07	-4.815455e-06	-1.036132e-09	-3.335871e+01	-6.904595e+01
6.100000e-07	-4.792067e-06	-1.055071e-09	-3.319669e+01	-6.888732e+01
6.200000e-07	-4.768464e-06	-1.023285e-09	-3.303318e+01	-6.872387e+01
6.300000e-07	-4.744591e-06	-1.015269e-09	-3.286781e+01	-6.855544e+01
6.400000e-07	-4.720375e-06	-1.028399e-09	-3.270005e+01	-6.838186e+01
6.500000e-07	-4.695774e-06	-1.018063e-09	-3.252963e+01	-6.820301e+01
6.600000e-07	-4.670737e-06	-1.007011e-09	-3.235619e+01	-6.801878e+01
6.700000e-07	-4.645126e-06	-1.024657e-09	-3.217877e+01	-6.782908e+01
6.800000e-07	-4.618926e-06	-1.016729e-09	-3.199727e+01	-6.763385e+01
6.900000e-07	-4.592265e-06	-1.004344e-09	-3.181258e+01	-6.743306e+01
7.000000e-07	-4.565267e-06	-1.006050e-09	-3.162555e+01	-6.722668e+01
7.100000e-07	-4.537977e-06	-1.005749e-09	-3.143650e+01	-6.701472e+01
7.200000e-07	-4.510432e-06	-9.890422e-10	-3.124569e+01	-6.679723e+01
7.300000e-07	-4.482709e-06	-9.894817e-10	-3.105364e+01	-6.657424e+01
7.400000e-07	-4.454775e-06	-9.895107e-10	-3.086013e+01	-6.634585e+01
7.500000e-07	-4.426582e-06	-9.833840e-10	-3.066482e+01	-6.611213e+01
7.600000e-07	-4.398072e-06	-9.801435e-10	-3.046732e+01	-6.587321e+01
7.700000e-07	-4.369228e-06	-9.815194e-10	-3.026751e+01	-6.562922e+01
7.800000e-07	-4.340096e-06	-9.713334e-10	-3.006569e+01	-6.538029e+01
7.900000e-07	-4.310724e-06	-9.663617e-10	-2.986222e+01	-6.512660e+01
8.000000e-07	-4.281049e-06	-9.632632e-10	-2.965665e+01	-6.486830e+01
8.100000e-07	-4.250913e-06	-9.527713e-10	-2.944789e+01	-6.460558e+01
8.200000e-07	-4.220430e-06	-9.424828e-10	-2.923672e+01	-6.433861e+01
8.300000e-07	-4.189712e-06	-9.446990e-10	-2.902392e+01	-6.406759e+01
8.400000e-07	-4.158737e-06	-9.430346e-10	-2.880935e+01	-6.379270e+01
8.500000e-07	-4.127563e-06	-9.370758e-10	-2.859339e+01	-6.351413e+01
8.600000e-07	-4.096150e-06	-9.403691e-10	-2.837578e+01	-6.323207e+01
8.700000e-07	-4.064549e-06	-9.407758e-10	-2.815687e+01	-6.294669e+01
8.800000e-07	-4.032821e-06	-9.325085e-10	-2.793707e+01	-6.265815e+01
8.900000e-07	-4.000907e-06	-9.253621e-10	-2.771599e+01	-6.236664e+01
9.000000e-07	-3.968681e-06	-9.221205e-10	-2.749275e+01	-6.207227e+01
9.100000e-07	-3.936107e-06	-9.082184e-10	-2.726709e+01	-6.177520e+01
9.200000e-07	-3.903039e-06	-8.997861e-10	-2.703801e+01	-6.147554e+01
9.300000e-07	-3.869291e-06	-9.007084e-10	-2.680423e+01	-6.117338e+01
9.400000e-07	-3.835096e-06	-8.971019e-10	-2.656735e+01	-6.086881e+01
9.500000e-07	-3.800615e-06	-8.893953e-10	-2.632848e+01	-6.056189e+01
9.600000e-07	-3.765788e-06	-8.910441e-10	-2.608722e+01	-6.025265e+01
9.700000e-07	-3.730678e-06	-8.887594e-10	-2.584400e+01	-5.994112e+01
9.800000e-07	-3.695365e-06	-8.826134e-10	-2.559937e+01	-5.962729e+01
9.900000e-07	-3.659858e-06	-8.790053e-10	-2.535340e+01	-5.931115e+01
1.000000e-06	-3.624234e-06	-8.793291e-10	-2.510662e+01	-5.899263e+01
1.010000e-06	-3.588495e-06	-8.722647e-10	-2.485904e+01	-5.867168e+01
1.020000e-06	-3.552523e-06	-8.679509e-10	-2.460984e+01	-5.834822e+01
1.030000e-06	-3.516300e-06	-8.648252e-10	-2.435891e+01	-5.802212e+01
1.040000e-06	-3.479843e-06	-8.597556e-10	-2.410636e+01	-5.769328e+01
1.050000e-06	-3.443106e-06	-8.514535e-10	-2.385186e+01	-5.736155e+01
1.060000e-06	-3.406110e-06	-8.481047e-10	-2.359558e+01	-5.702676e+01
1.070000e-06	-3.368875e-06	-8.440897e-10	-2.333764e+01	-5.668877e+01
1.080000e-06	-3.331380e-06	-8.384949e-10	-2.307789e+01	-5.634737e+01
1.090000e-06	-3.293703e-06	-8.348755e-10	-2.281688e+01	-5.600238e+01
1.100000e-06	-3.255798e-06	-8.305031e-10	-2.255430e+01	-5.565361e+01
1.110000e-06	-3.217583e-06	-8.203313e-10	-2.228957e+01	-5.530084e+01
1.120000e-06	-3.179081e-06	-8.108978e-10	-2.202285e+01	-5.494388e+01
1.130000e-06	-3.140378e-06	-8.044608e-10	-2.175474e+01	-5.458251e+01
1.140000e-06	-3.101536e-06	-7.981371e-10	-2.148567e+01	-5.421652e+01
1.150000e-06	-3.062527e-06	-7.942721e-10	-2.121543e+01	-5.384572e+01
1.160000e-06	-3.023338e-06	-7.932876e-10	-2.094395e+01	-5.346990e+01
1.170000e-06	-2.984005e-06	-7.889945e-10	-2.067148e+01	-5.308886e+01
1.180000e-06	-2.944586e-06	-7.795310e-10	-2.039840e+01	-5.270243e+01
1.190000e-06	-2.905045e-06	-7.713417e-10	-2.012448e+01	-5.231043e+01
1.200000e-06	-2.865319e-06	-7.619218e-10	-1.984929e+01	-5.191270e+01
1.210000e-06	-2.825354e-06	-7.522435e-10	-1.957243e+01	-5.150909e+01
1.220000e-06	-2.785238e-06	-7.455701e-10	-1.929453e+01	-5.109946e+01
1.230000e-06	-2.744942e-06	-7.400808e-10	-1.901539e+01	-5.068369e+01
1.240000e-06	-2.704390e-06	-7.290251e-10	-1.873446e+01	-5.026167e+01
1.250000e-06	-2.663611e-06	-7.177285e-10	-1.845197e+01	-4.983330e+01
1.260000e-06	-2.622633e-06	-7.092329e-10	-1.816810e+01	-4.939852e+01
1.270000e-06	-2.581339e-06	-7.031054e-10	-1.788204e+01	-4.895724e+01
1.280000e-06	-2.539584e-06	-6.956266e-10	-1.759278e+01	-4.850943e+01
1.290000e-06	-2.497448e-06	-6.910900e-10	-1.730089e+01	-4.805503e+01
1.300000e-06	-2.455083e-06	-6.860897e-10	-1.700741e+01	-4.759403e+01
1.310000e-06	-2.412514e-06	-6.771239e-10	-1.671251e+01	-4.712639e+01
1.320000e-06	-2.369664e-06	-6.653776e-10	-1.641567e+01	-4.665211e+01
1.330000e-06	-2.326575e-06	-6.543188e-10	-1.611718e+01	-4.617118e+01
1.340000e-06	-2.283394e-06	-6.431710e-10	-1.581805e+01	-4.568359e+01
1.350000e-06	-2.240148e-06	-6.356240e-10	-1.551846e+01	-4.518934e+01
1.360000e-06	-2.196751e-06	-6.303281e-10	-1.521783e+01	-4.468843e+01
1.370000e-06	-2.153178e-06	-6.263392e-10	-1.491598e+01	-4.418085e+01
1.380000e-06	-2.109457e-06	-6.210644e-10	-1.461311e+01	-4.366658e+01
1.390000e-06	-2.065679e-06	-6.131235e-10	-1.430984e+01	-4.314559e+01
1.400000e-06	-2.021895e-06	-6.014010e-10	-1.400653e+01	-4.261784e+01
1.410000e-06	-1.978026e-06	-5.880186e-10	-1.370263e+01	-4.208330e+01
1.420000e-06	-1.934010e-06	-5.773245e-10	-1.339771e+01	-4.154188e+01
1.430000e-06	-1.889849e-06	-5.687862e-10	-1.309179e+01	-4.099349e+01
1.440000e-06	-1.845578e-06	-5.613584e-10	-1.278511e+01	-4.043802e+01
1.450000e-06	-1.801261e-06	-5.551549e-10	-1.247810e+01	-3.987534e+01
1.460000e-06	-1.756756e-06	-5.494734e-10	-1.216980e+01	-3.930528e+01
1.470000e-06	-1.712070e-06	-5.411954e-10	-1.186024e+01	-3.872766e+01
1.480000e-06	-1.667330e-06	-5.324112e-10	-1.155030e+01	-3.814224e+01
1.490000e-06	-1.622416e-06	-5.232449e-10	-1.123917e+01	-3.754879e+01
1.500000e-06	-1.577274e-06	-5.141386e-10	-1.092645e+01	-3.694702e+01
1.510000e-06	-1.531991e-06	-5.052584e-10	-1.061275e+01	-3.633662e+01
1.520000e-06	-1.486604e-06	-4.957968e-10	-1.029834e+01	-3.571724e+01
1.530000e-06	-1.441112e-06	-4.849510e-10	-9.983195e+00	-3.508852e+01
1.540000e-06	-1.395591e-06	-4.748131e-10	-9.667855e+00	-3.445004e+01
1.550000e-06	-1.350042e-06	-4.642348e-10	-9.352315e+00	-3.380138e+01
1.560000e-06	-1.304373e-06	-4.540673e-10	-9.035946e+00	-3.314209e+01
1.570000e-06	-1.258590e-06	-4.431374e-10	-8.718791e+00	-3.247167e+01
1.580000e-06	-1.212748e-06	-4.310527e-10	-8.401224e+00	-3.178962e+01
1.590000e-06	-1.166826e-06	-4.191515e-10	-8.083103e+00	-3.109543e+01
1.600000e-06	-1.120772e-06	-4.083681e-10	-7.764067e+00	-3.038856e+01
1.610000e-06	-1.074577e-06	-3.970230e-10	-7.444052e+00	-2.966845e+01
1.620000e-06	-1.028352e-06	-3.843278e-10	-7.123833e+00	-2.893456e+01
1.630000e-06	-9.821009e-07	-3.693905e-10	-6.803432e+00	-2.818633e+01
1.640000e-06	-9.356890e-07	-3.548254e-10	-6.481917e+00	-2.742319e+01
1.650000e-06	-8.892561e-07	-3.424445e-10	-6.160256e+00	-2.664460e+01
1.660000e-06	-8.428113e-07	-3.315584e-10	-5.838514e+00	-2.585003e+01
1.670000e-06	-7.962286e-07	-3.215940e-10	-5.515815e+00	-2.503896e+01
1.680000e-06	-7.497138e-07	-3.123600e-10	-5.193587e+00	-2.421089e+01
1.690000e-06	-7.032632e-07	-3.018693e-10	-4.871804e+00	-2.336536e+01
1.700000e-06	-6.566664e-07	-2.879539e-10	-4.549008e+00	-2.250192e+01
1.710000e-06	-6.099475e-07	-2.718013e-10	-4.225366e+00	-2.162020e+01
1.720000e-06	-5.632579e-07	-2.555035e-10	-3.901928e+00	-2.071983e+01
1.730000e-06	-5.165795e-07	-2.396495e-10	-3.578567e+00	-1.980053e+01
1.740000e-06	-4.697905e-07	-2.246117e-10	-3.254439e+00	-1.886204e+01
1.750000e-06	-4.228616e-07	-2.112714e-10	-2.929343e+00	-1.790420e+01
1.760000e-06	-3.758075e-07	-1.986018e-10	-2.603379e+00	-1.692687e+01
1.770000e-06	-3.287485e-07	-1.845630e-10	-2.277381e+00	-1.593001e+01
1.780000e-06	-2.817173e-07	-1.689811e-10	-1.951576e+00	-1.491364e+01
1.790000e-06	-2.346959e-07	-1.535922e-10	-1.625839e+00	-1.387785e+01
1.800000e-06	-1.876994e-07	-1.379909e-10	-1.300274e+00	-1.282283e+01
1.810000e-06	-1.407025e-07	-1.223170e-10	-9.747065e-01	-1.174883e+01
1.820000e-06	-9.378006e-08	-1.060809e-10	-6.496545e-01	-1.065619e+01
1.830000e-06	-4.685711e-08	-8.801495e-11	-3.245992e-01	-9.545334e+00
1.840000e-06	1.426825e-10	-6.901553e-11	9.884226e-04	-8.416764e+00
1.850000e-06	4.715092e-08	-5.297276e-11	3.266345e-01	-7.271074e+00
1.860000e-06	9.423911e-08	-3.736072e-11	6.528345e-01	-6.108938e+00
1.870000e-06	1.413628e-07	-2.127654e-11	9.792807e-01	-4.931112e+00
1.880000e-06	1.884004e-07	-4.947994e-12	1.305130e+00	-3.738434e+00
1.890000e-06	2.354147e-07	1.096149e-11	1.630818e+00	-2.531818e+00
1.900000e-06	2.823848e-07	2.680628e-11	1.956200e+00	-1.312254e+00
1.910000e-06	3.293684e-07	4.453682e-11	2.281676e+00	-8.080233e-02
1.920000e-06	3.763758e-07	6.410873e-11	2.607316e+00	1.161409e+00
1.930000e-06	4.233253e-07	8.514454e-11	2.932555e+00	2.413189e+00
1.940000e-06	4.703230e-07	1.054316e-10	3.258128e+00	3.673293e+00
1.950000e-06	5.172811e-07	1.248476e-10	3.583427e+00	4.940422e+00
1.960000e-06	5.640728e-07	1.424386e-10	3.907573e+00	6.213232e+00
1.970000e-06	6.107791e-07	1.581978e-10	4.231127e+00	7.490344e+00
1.980000e-06	6.574148e-07	1.731135e-10	4.554193e+00	8.770343e+00
1.990000e-06	7.039758e-07	1.867101e-10	4.876741e+00	1.005179e+01
2.000000e-06	7.505151e-07	2.026523e-10	5.199138e+00	1.133323e+01
2.010000e-06	7.970525e-07	2.219256e-10	5.521523e+00	1.261321e+01
2.020000e-06	8.435357e-07	2.437517e-10	5.843532e+00	1.389025e+01
2.030000e-06	8.898960e-07	2.666673e-10	6.164689e+00	1.516288e+01
2.040000e-06	9.361178e-07	2.862956e-10	6.484888e+00	1.642968e+01
2.050000e-06	9.822360e-07	3.042519e-10	6.804368e+00	1.768919e+01
2.060000e-06	1.028316e-06	3.206179e-10	7.123584e+00	1.894004e+01
2.070000e-06	1.074353e-06	3.338041e-10	7.442501e+00	2.018084e+01
2.080000e-06	1.120384e-06	3.459322e-10	7.761379e+00	2.141028e+01
2.090000e-06	1.166321e-06	3.617636e-10	8.079602e+00	2.262708e+01
2.100000e-06	1.212109e-06	3.812730e-10	8.396796e+00	2.383003e+01
2.110000e-06	1.257795e-06	4.012066e-10	8.713285e+00	2.501796e+01
2.120000e-06	1.303461e-06	4.193104e-10	9.029629e+00	2.618978e+01
2.130000e-06	1.349083e-06	4.339815e-10	9.345676e+00	2.734447e+01
2.140000e-06	1.394513e-06	4.470013e-10	9.660385e+00	2.848107e+01
2.150000e-06	1.439796e-06	4.599773e-10	9.974079e+00	2.959873e+01
2.160000e-06	1.485039e-06	4.728149e-10	1.028750e+01	3.069666e+01
2.170000e-06	1.530228e-06	4.860139e-10	1.060054e+01	3.177415e+01
2.180000e-06	1.575312e-06	5.003843e-10	1.091286e+01	3.283059e+01
2.190000e-06	1.620288e-06	5.156385e-10	1.122443e+01	3.386545e+01
2.200000e-06	1.665157e-06	5.292945e-10	1.153525e+01	3.487830e+01
2.210000e-06	1.709878e-06	5.408230e-10	1.184506e+01	3.586879e+01
2.220000e-06	1.754462e-06	5.507006e-10	1.215391e+01	3.683665e+01
2.230000e-06	1.798943e-06	5.609061e-10	1.246204e+01	3.778171e+01
2.240000e-06	1.843242e-06	5.729874e-10	1.276893e+01	3.870389e+01
2.250000e-06	1.887340e-06	5.864670e-10	1.307441e+01	3.960318e+01
2.260000e-06	1.931263e-06	6.007520e-10	1.337868e+01	4.047965e+01
2.270000e-06	1.975131e-06	6.131149e-10	1.368258e+01	4.133347e+01
2.280000e-06	2.018977e-06	6.221870e-10	1.398631e+01	4.216485e+01
2.290000e-06	2.062737e-06	6.298197e-10	1.428946e+01	4.297408e+01
2.300000e-06	2.106397e-06	6.371386e-10	1.459191e+01	4.376155e+01
2.310000e-06	2.149957e-06	6.464164e-10	1.489367e+01	4.452765e+01
2.320000e-06	2.193460e-06	6.582461e-10	1.519503e+01	4.527286e+01
2.330000e-06	2.236930e-06	6.736941e-10	1.549617e+01	4.599771e+01
2.340000e-06	2.280316e-06	6.883301e-10	1.579672e+01	4.670277e+01
2.350000e-06	2.323579e-06	6.981490e-10	1.609642e+01	4.738863e+01
2.360000e-06	2.366699e-06	7.073607e-10	1.639513e+01	4.805594e+01
2.370000e-06	2.409518e-06	7.150819e-10	1.669176e+01	4.870535e+01
2.380000e-06	2.451954e-06	7.225708e-10	1.698573e+01	4.933755e+01
2.390000e-06	2.494098e-06	7.295820e-10	1.727768e+01	4.995323e+01
2.400000e-06	2.536075e-06	7.382036e-10	1.756848e+01	5.055309e+01
2.410000e-06	2.577823e-06	7.475814e-10	1.785768e+01	5.113785e+01
2.420000e-06	2.619255e-06	7.577758e-10	1.814470e+01	5.170820e+01
2.430000e-06	2.660280e-06	7.673546e-10	1.842889e+01	5.226485e+01
2.440000e-06	2.700902e-06	7.754434e-10	1.871030e+01	5.280848e+01
2.450000e-06	2.741303e-06	7.830779e-10	1.899018e+01	5.333976e+01
2.460000e-06	2.781491e-06	7.894034e-10	1.926858e+01	5.385933e+01
2.470000e-06	2.821476e-06	7.944898e-10	1.954557e+01	5.436783e+01
2.480000e-06	2.861305e-06	7.980138e-10	1.982148e+01	5.486585e+01
2.490000e-06	2.901005e-06	8.019304e-10	2.009650e+01	5.535395e+01
2.500000e-06	2.940540e-06	8.082213e-10	2.037038e+01	5.583267e+01
2.510000e-06	2.979935e-06	8.170717e-10	2.064328e+01	5.630251e+01
2.520000e-06	3.019276e-06	8.267439e-10	2.091581e+01	5.676393e+01
2.530000e-06	3.058533e-06	8.360572e-10	2.118776e+01	5.721734e+01
2.540000e-06	3.097549e-06	8.437587e-10	2.145805e+01	5.766315e+01
2.550000e-06	3.136229e-06	8.471962e-10	2.172599e+01	5.810169e+01
2.560000e-06	3.174704e-06	8.482332e-10	2.199253e+01	5.853328e+01
2.570000e-06	3.212979e-06	8.520450e-10	2.225768e+01	5.895817e+01
2.580000e-06	3.251034e-06	8.593164e-10	2.252130e+01	5.937661e+01
2.590000e-06	3.288909e-06	8.681098e-10	2.278368e+01	5.978879e+01
2.600000e-06	3.326533e-06	8.757729e-10	2.304431e+01	6.019488e+01
2.610000e-06	3.363930e-06	8.810302e-10	2.330338e+01	6.059499e+01
2.620000e-06	3.401080e-06	8.840486e-10	2.356073e+01	6.098923e+01
2.630000e-06	3.438021e-06	8.884860e-10	2.381664e+01	6.137766e+01
2.640000e-06	3.474701e-06	8.958346e-10	2.407074e+01	6.176032e+01
2.650000e-06	3.511021e-06	9.056491e-10	2.432234e+01	6.213725e+01
2.660000e-06	3.547096e-06	9.167956e-10	2.457224e+01	6.250842e+01
2.670000e-06	3.582994e-06	9.250091e-10	2.482092e+01	6.287382e+01
2.680000e-06	3.618758e-06	9.291428e-10	2.506868e+01	6.323342e+01
2.690000e-06	3.654412e-06	9.294877e-10	2.531567e+01	6.358716e+01
2.700000e-06	3.689918e-06	9.287905e-10	2.556164e+01	6.393499e+01
2.710000e-06	3.725260e-06	9.325935e-10	2.580647e+01	6.427684e+01
2.720000e-06	3.760452e-06	9.408595e-10	2.605025e+01	6.461263e+01
2.730000e-06	3.795375e-06	9.520064e-10	2.629218e+01	6.494231e+01
2.740000e-06	3.829892e-06	9.616092e-10	2.653129e+01	6.526579e+01
2.750000e-06	3.863986e-06	9.677636e-10	2.676748e+01	6.558302e+01
2.760000e-06	3.897573e-06	9.699372e-10	2.700015e+01	6.589392e+01
2.770000e-06	3.930541e-06	9.691438e-10	2.722854e+01	6.619844e+01
2.780000e-06	3.963105e-06	9.685485e-10	2.745412e+01	6.649654e+01
2.790000e-06	3.995356e-06	9.694981e-10	2.767754e+01	6.678819e+01
2.800000e-06	4.027338e-06	9.719973e-10	2.789909e+01	6.707335e+01
2.810000e-06	4.059147e-06	9.747950e-10	2.811944e+01	6.735201e+01
2.820000e-06	4.090725e-06	9.784554e-10	2.833820e+01	6.762419e+01
2.830000e-06	4.122148e-06	9.827518e-10	2.855588e+01	6.788989e+01
2.840000e-06	4.153426e-06	9.875524e-10	2.877255e+01	6.814914e+01
2.850000e-06	4.184505e-06	9.924286e-10	2.898785e+01	6.840200e+01
2.860000e-06	4.215300e-06	9.948464e-10	2.920118e+01	6.864852e+01
2.870000e-06	4.245718e-06	9.959425e-10	2.941190e+01	6.888878e+01
2.880000e-06	4.275801e-06	9.957845e-10	2.962030e+01	6.912286e+01
2.890000e-06	4.305617e-06	9.937799e-10	2.982684e+01	6.935086e+01
2.900000e-06	4.335156e-06	9.928602e-10	3.003147e+01	6.957291e+01
2.910000e-06	4.364365e-06	9.955820e-10	3.023382e+01	6.978912e+01
