# Temperatura_=_-0.5
# Concentracion g/m^3_=_1620.0
# C_Vs_to_Am_M_A/Vsm_=_65563218390.804596
# pendiente_HvsI_1/m_=_3716.3
# ordenada_HvsI_A/m_=_1297.0
# frecuencia_Hz_=_135097.25432749212

Tiempo_(s)	Campo_(V.s)	Magnetizacion_(V.s)	Campo_(kA/m)	Magnetizacion_(A/m)
0.000000e+00	-5.531654e-06	-1.380470e-09	-3.837888e+01	-9.031712e+01
1.000000e-08	-5.531926e-06	-1.376834e-09	-3.838077e+01	-9.026607e+01
2.000000e-08	-5.531863e-06	-1.374408e-09	-3.838034e+01	-9.021253e+01
3.000000e-08	-5.531209e-06	-1.373926e-09	-3.837580e+01	-9.015661e+01
4.000000e-08	-5.529994e-06	-1.376357e-09	-3.836737e+01	-9.009843e+01
5.000000e-08	-5.528234e-06	-1.376545e-09	-3.835516e+01	-9.003811e+01
6.000000e-08	-5.525886e-06	-1.372031e-09	-3.833887e+01	-8.997577e+01
7.000000e-08	-5.523041e-06	-1.361719e-09	-3.831913e+01	-8.991151e+01
8.000000e-08	-5.519781e-06	-1.378826e-09	-3.829651e+01	-8.984545e+01
9.000000e-08	-5.516096e-06	-1.428031e-09	-3.827094e+01	-8.977768e+01
1.000000e-07	-5.511912e-06	-1.422795e-09	-3.824192e+01	-8.970829e+01
1.100000e-07	-5.507363e-06	-1.295099e-09	-3.821036e+01	-8.963737e+01
1.200000e-07	-5.502663e-06	-1.314753e-09	-3.817774e+01	-8.956501e+01
1.300000e-07	-5.497693e-06	-1.407117e-09	-3.814326e+01	-8.949126e+01
1.400000e-07	-5.492284e-06	-1.445109e-09	-3.810573e+01	-8.941619e+01
1.500000e-07	-5.486531e-06	-1.335230e-09	-3.806582e+01	-8.933986e+01
1.600000e-07	-5.480548e-06	-1.309969e-09	-3.802431e+01	-8.926230e+01
1.700000e-07	-5.474111e-06	-1.409657e-09	-3.797965e+01	-8.918355e+01
1.800000e-07	-5.467172e-06	-1.421684e-09	-3.793151e+01	-8.910362e+01
1.900000e-07	-5.460003e-06	-1.329731e-09	-3.788177e+01	-8.902255e+01
2.000000e-07	-5.452616e-06	-1.293748e-09	-3.783051e+01	-8.894031e+01
2.100000e-07	-5.444825e-06	-1.367037e-09	-3.777646e+01	-8.885692e+01
2.200000e-07	-5.436656e-06	-1.385500e-09	-3.771978e+01	-8.877235e+01
2.300000e-07	-5.428209e-06	-1.341329e-09	-3.766118e+01	-8.868657e+01
2.400000e-07	-5.419252e-06	-1.304210e-09	-3.759903e+01	-8.859955e+01
2.500000e-07	-5.409473e-06	-1.343308e-09	-3.753119e+01	-8.851124e+01
2.600000e-07	-5.398887e-06	-1.347676e-09	-3.745774e+01	-8.842160e+01
2.700000e-07	-5.387863e-06	-1.338429e-09	-3.738125e+01	-8.833056e+01
2.800000e-07	-5.376573e-06	-1.312510e-09	-3.730293e+01	-8.823804e+01
2.900000e-07	-5.364923e-06	-1.325287e-09	-3.722210e+01	-8.814398e+01
3.000000e-07	-5.352922e-06	-1.323825e-09	-3.713884e+01	-8.804830e+01
3.100000e-07	-5.340527e-06	-1.327297e-09	-3.705284e+01	-8.795090e+01
3.200000e-07	-5.327598e-06	-1.297678e-09	-3.696314e+01	-8.785169e+01
3.300000e-07	-5.314277e-06	-1.316356e-09	-3.687071e+01	-8.775058e+01
3.400000e-07	-5.300717e-06	-1.338439e-09	-3.677663e+01	-8.764747e+01
3.500000e-07	-5.286710e-06	-1.327037e-09	-3.667946e+01	-8.754225e+01
3.600000e-07	-5.271930e-06	-1.290675e-09	-3.657691e+01	-8.743482e+01
3.700000e-07	-5.256821e-06	-1.323620e-09	-3.647208e+01	-8.732508e+01
3.800000e-07	-5.241466e-06	-1.317096e-09	-3.636555e+01	-8.721292e+01
3.900000e-07	-5.225398e-06	-1.269217e-09	-3.625406e+01	-8.709823e+01
4.000000e-07	-5.208937e-06	-1.305082e-09	-3.613986e+01	-8.698090e+01
4.100000e-07	-5.192215e-06	-1.353083e-09	-3.602384e+01	-8.686084e+01
4.200000e-07	-5.175018e-06	-1.284610e-09	-3.590453e+01	-8.673794e+01
4.300000e-07	-5.157564e-06	-1.258239e-09	-3.578343e+01	-8.661210e+01
4.400000e-07	-5.139897e-06	-1.351293e-09	-3.566086e+01	-8.648323e+01
4.500000e-07	-5.121761e-06	-1.316576e-09	-3.553503e+01	-8.635124e+01
4.600000e-07	-5.103058e-06	-1.229228e-09	-3.540527e+01	-8.621603e+01
4.700000e-07	-5.083971e-06	-1.294160e-09	-3.527284e+01	-8.607752e+01
4.800000e-07	-5.064690e-06	-1.343206e-09	-3.513907e+01	-8.593563e+01
4.900000e-07	-5.045152e-06	-1.241605e-09	-3.500351e+01	-8.579029e+01
5.000000e-07	-5.025422e-06	-1.256482e-09	-3.486662e+01	-8.564143e+01
5.100000e-07	-5.005467e-06	-1.329053e-09	-3.472818e+01	-8.548899e+01
5.200000e-07	-4.985128e-06	-1.262668e-09	-3.458706e+01	-8.533290e+01
5.300000e-07	-4.964401e-06	-1.224254e-09	-3.444326e+01	-8.517311e+01
5.400000e-07	-4.943331e-06	-1.317093e-09	-3.429707e+01	-8.500958e+01
5.500000e-07	-4.921888e-06	-1.281337e-09	-3.414830e+01	-8.484225e+01
5.600000e-07	-4.900117e-06	-1.205905e-09	-3.399725e+01	-8.467110e+01
5.700000e-07	-4.878082e-06	-1.270257e-09	-3.384437e+01	-8.449609e+01
5.800000e-07	-4.855638e-06	-1.299201e-09	-3.368865e+01	-8.431718e+01
5.900000e-07	-4.832787e-06	-1.216549e-09	-3.353011e+01	-8.413436e+01
6.000000e-07	-4.809610e-06	-1.245240e-09	-3.336931e+01	-8.394760e+01
6.100000e-07	-4.786127e-06	-1.291543e-09	-3.320638e+01	-8.375688e+01
6.200000e-07	-4.762497e-06	-1.237780e-09	-3.304244e+01	-8.356219e+01
6.300000e-07	-4.738700e-06	-1.228919e-09	-3.287733e+01	-8.336352e+01
6.400000e-07	-4.714595e-06	-1.278363e-09	-3.271009e+01	-8.316086e+01
6.500000e-07	-4.690044e-06	-1.245391e-09	-3.253976e+01	-8.295419e+01
6.600000e-07	-4.664945e-06	-1.216917e-09	-3.236561e+01	-8.274351e+01
6.700000e-07	-4.639342e-06	-1.248198e-09	-3.218798e+01	-8.252882e+01
6.800000e-07	-4.613196e-06	-1.235795e-09	-3.200658e+01	-8.231010e+01
6.900000e-07	-4.586514e-06	-1.206047e-09	-3.182146e+01	-8.208736e+01
7.000000e-07	-4.559420e-06	-1.227322e-09	-3.163348e+01	-8.186059e+01
7.100000e-07	-4.532067e-06	-1.233912e-09	-3.144370e+01	-8.162977e+01
7.200000e-07	-4.504535e-06	-1.209731e-09	-3.125268e+01	-8.139490e+01
7.300000e-07	-4.476844e-06	-1.215353e-09	-3.106056e+01	-8.115598e+01
7.400000e-07	-4.448937e-06	-1.216053e-09	-3.086694e+01	-8.091298e+01
7.500000e-07	-4.420760e-06	-1.193337e-09	-3.067145e+01	-8.066590e+01
7.600000e-07	-4.392267e-06	-1.187979e-09	-3.047376e+01	-8.041472e+01
7.700000e-07	-4.363428e-06	-1.193664e-09	-3.027368e+01	-8.015942e+01
7.800000e-07	-4.334252e-06	-1.180578e-09	-3.007125e+01	-7.989999e+01
7.900000e-07	-4.304768e-06	-1.185541e-09	-2.986669e+01	-7.963639e+01
8.000000e-07	-4.275076e-06	-1.191588e-09	-2.966069e+01	-7.936860e+01
8.100000e-07	-4.245076e-06	-1.175362e-09	-2.945254e+01	-7.909660e+01
8.200000e-07	-4.214728e-06	-1.155523e-09	-2.924199e+01	-7.882034e+01
8.300000e-07	-4.184081e-06	-1.158477e-09	-2.902936e+01	-7.853981e+01
8.400000e-07	-4.153107e-06	-1.148537e-09	-2.881446e+01	-7.825496e+01
8.500000e-07	-4.121866e-06	-1.134329e-09	-2.859771e+01	-7.796576e+01
8.600000e-07	-4.090486e-06	-1.137593e-09	-2.837999e+01	-7.767216e+01
8.700000e-07	-4.058948e-06	-1.144085e-09	-2.816118e+01	-7.737413e+01
8.800000e-07	-4.027262e-06	-1.131155e-09	-2.794134e+01	-7.707162e+01
8.900000e-07	-3.995423e-06	-1.125812e-09	-2.772044e+01	-7.676459e+01
9.000000e-07	-3.963277e-06	-1.124551e-09	-2.749741e+01	-7.645301e+01
9.100000e-07	-3.930648e-06	-1.110021e-09	-2.727103e+01	-7.613682e+01
9.200000e-07	-3.897497e-06	-1.095673e-09	-2.704102e+01	-7.581598e+01
9.300000e-07	-3.863942e-06	-1.100860e-09	-2.680822e+01	-7.549046e+01
9.400000e-07	-3.830105e-06	-1.095798e-09	-2.657345e+01	-7.516020e+01
9.500000e-07	-3.795848e-06	-1.083736e-09	-2.633578e+01	-7.482519e+01
9.600000e-07	-3.761003e-06	-1.085573e-09	-2.609402e+01	-7.448537e+01
9.700000e-07	-3.725856e-06	-1.086286e-09	-2.585017e+01	-7.414072e+01
9.800000e-07	-3.690613e-06	-1.074004e-09	-2.560565e+01	-7.379120e+01
9.900000e-07	-3.655206e-06	-1.067730e-09	-2.536000e+01	-7.343679e+01
1.000000e-06	-3.619649e-06	-1.068877e-09	-2.511330e+01	-7.307746e+01
1.010000e-06	-3.583970e-06	-1.059996e-09	-2.486576e+01	-7.271320e+01
1.020000e-06	-3.548109e-06	-1.052129e-09	-2.461695e+01	-7.234399e+01
1.030000e-06	-3.511992e-06	-1.051681e-09	-2.436637e+01	-7.196981e+01
1.040000e-06	-3.475651e-06	-1.049129e-09	-2.411424e+01	-7.159067e+01
1.050000e-06	-3.438986e-06	-1.038848e-09	-2.385985e+01	-7.120655e+01
1.060000e-06	-3.402025e-06	-1.033875e-09	-2.360341e+01	-7.081746e+01
1.070000e-06	-3.364842e-06	-1.026540e-09	-2.334544e+01	-7.042341e+01
1.080000e-06	-3.327471e-06	-1.015129e-09	-2.308615e+01	-7.002440e+01
1.090000e-06	-3.289934e-06	-1.007639e-09	-2.282572e+01	-6.962045e+01
1.100000e-06	-3.252122e-06	-1.005829e-09	-2.256338e+01	-6.921157e+01
1.110000e-06	-3.214018e-06	-9.981713e-10	-2.229902e+01	-6.879779e+01
1.120000e-06	-3.175763e-06	-9.910854e-10	-2.203360e+01	-6.837912e+01
1.130000e-06	-3.137281e-06	-9.869744e-10	-2.176661e+01	-6.795558e+01
1.140000e-06	-3.098492e-06	-9.814070e-10	-2.149749e+01	-6.752720e+01
1.150000e-06	-3.059538e-06	-9.692679e-10	-2.122722e+01	-6.709401e+01
1.160000e-06	-3.020397e-06	-9.594198e-10	-2.095566e+01	-6.665603e+01
1.170000e-06	-2.981051e-06	-9.510122e-10	-2.068268e+01	-6.621327e+01
1.180000e-06	-2.941536e-06	-9.434928e-10	-2.040852e+01	-6.576577e+01
1.190000e-06	-2.901916e-06	-9.361453e-10	-2.013363e+01	-6.531352e+01
1.200000e-06	-2.862173e-06	-9.301086e-10	-1.985790e+01	-6.485654e+01
1.210000e-06	-2.822296e-06	-9.216354e-10	-1.958122e+01	-6.439484e+01
1.220000e-06	-2.782189e-06	-9.120910e-10	-1.930296e+01	-6.392841e+01
1.230000e-06	-2.741866e-06	-9.031102e-10	-1.902320e+01	-6.345723e+01
1.240000e-06	-2.701376e-06	-8.936744e-10	-1.874228e+01	-6.298129e+01
1.250000e-06	-2.660688e-06	-8.851553e-10	-1.845998e+01	-6.250055e+01
1.260000e-06	-2.619780e-06	-8.784195e-10	-1.817616e+01	-6.201497e+01
1.270000e-06	-2.578629e-06	-8.722714e-10	-1.789065e+01	-6.152448e+01
1.280000e-06	-2.537148e-06	-8.671839e-10	-1.760286e+01	-6.102900e+01
1.290000e-06	-2.495285e-06	-8.608146e-10	-1.731241e+01	-6.052846e+01
1.300000e-06	-2.453101e-06	-8.519331e-10	-1.701973e+01	-6.002273e+01
1.310000e-06	-2.410522e-06	-8.424882e-10	-1.672432e+01	-5.951168e+01
1.320000e-06	-2.367658e-06	-8.341647e-10	-1.642693e+01	-5.899518e+01
1.330000e-06	-2.324707e-06	-8.275038e-10	-1.612893e+01	-5.847305e+01
1.340000e-06	-2.281609e-06	-8.206460e-10	-1.582991e+01	-5.794510e+01
1.350000e-06	-2.238267e-06	-8.134826e-10	-1.552920e+01	-5.741112e+01
1.360000e-06	-2.194774e-06	-8.042575e-10	-1.522745e+01	-5.687087e+01
1.370000e-06	-2.151242e-06	-7.953590e-10	-1.492543e+01	-5.632409e+01
1.380000e-06	-2.107625e-06	-7.851100e-10	-1.462280e+01	-5.577050e+01
1.390000e-06	-2.063921e-06	-7.735609e-10	-1.431958e+01	-5.520980e+01
1.400000e-06	-2.020122e-06	-7.627698e-10	-1.401571e+01	-5.464164e+01
1.410000e-06	-1.976215e-06	-7.550222e-10	-1.371108e+01	-5.406568e+01
1.420000e-06	-1.932202e-06	-7.468613e-10	-1.340571e+01	-5.348153e+01
1.430000e-06	-1.888095e-06	-7.381704e-10	-1.309970e+01	-5.288879e+01
1.440000e-06	-1.843954e-06	-7.281117e-10	-1.279344e+01	-5.228703e+01
1.450000e-06	-1.799694e-06	-7.165785e-10	-1.248637e+01	-5.167581e+01
1.460000e-06	-1.755185e-06	-7.039728e-10	-1.217756e+01	-5.105466e+01
1.470000e-06	-1.710451e-06	-6.921025e-10	-1.186719e+01	-5.042308e+01
1.480000e-06	-1.665681e-06	-6.817084e-10	-1.155657e+01	-4.978057e+01
1.490000e-06	-1.620824e-06	-6.727676e-10	-1.124536e+01	-4.912661e+01
1.500000e-06	-1.575756e-06	-6.626965e-10	-1.093267e+01	-4.846066e+01
1.510000e-06	-1.530584e-06	-6.536128e-10	-1.061927e+01	-4.778216e+01
1.520000e-06	-1.485339e-06	-6.434769e-10	-1.030536e+01	-4.709055e+01
1.530000e-06	-1.439926e-06	-6.312977e-10	-9.990273e+00	-4.638526e+01
1.540000e-06	-1.394460e-06	-6.187547e-10	-9.674834e+00	-4.566572e+01
1.550000e-06	-1.349008e-06	-6.072122e-10	-9.359484e+00	-4.493134e+01
1.560000e-06	-1.303427e-06	-5.956895e-10	-9.043238e+00	-4.418155e+01
1.570000e-06	-1.257773e-06	-5.854470e-10	-8.726493e+00	-4.341576e+01
1.580000e-06	-1.212029e-06	-5.743510e-10	-8.409115e+00	-4.263340e+01
1.590000e-06	-1.166134e-06	-5.603494e-10	-8.090695e+00	-4.183392e+01
1.600000e-06	-1.120211e-06	-5.467142e-10	-7.772080e+00	-4.101675e+01
1.610000e-06	-1.074253e-06	-5.325159e-10	-7.453219e+00	-4.018136e+01
1.620000e-06	-1.028184e-06	-5.181783e-10	-7.133588e+00	-3.932724e+01
1.630000e-06	-9.819649e-07	-5.053127e-10	-6.812920e+00	-3.845389e+01
1.640000e-06	-9.356673e-07	-4.935628e-10	-6.491705e+00	-3.756084e+01
1.650000e-06	-8.893574e-07	-4.817129e-10	-6.170405e+00	-3.664765e+01
1.660000e-06	-8.429782e-07	-4.696163e-10	-5.848624e+00	-3.571390e+01
1.670000e-06	-7.965023e-07	-4.544378e-10	-5.526172e+00	-3.475924e+01
1.680000e-06	-7.499967e-07	-4.368873e-10	-5.203514e+00	-3.378332e+01
1.690000e-06	-7.035607e-07	-4.203549e-10	-4.881339e+00	-3.278584e+01
1.700000e-06	-6.570566e-07	-4.054192e-10	-4.558690e+00	-3.176657e+01
1.710000e-06	-6.103975e-07	-3.892839e-10	-4.234968e+00	-3.072531e+01
1.720000e-06	-5.636678e-07	-3.735691e-10	-3.910755e+00	-2.966190e+01
1.730000e-06	-5.168969e-07	-3.581829e-10	-3.586256e+00	-2.857625e+01
1.740000e-06	-4.701559e-07	-3.425053e-10	-3.261965e+00	-2.746831e+01
1.750000e-06	-4.233652e-07	-3.263805e-10	-2.937328e+00	-2.633812e+01
1.760000e-06	-3.765016e-07	-3.096909e-10	-2.612187e+00	-2.518574e+01
1.770000e-06	-3.296482e-07	-2.913380e-10	-2.287115e+00	-2.401131e+01
1.780000e-06	-2.828239e-07	-2.721920e-10	-1.962246e+00	-2.281503e+01
1.790000e-06	-2.358731e-07	-2.538693e-10	-1.636499e+00	-2.159716e+01
1.800000e-06	-1.888486e-07	-2.363788e-10	-1.310241e+00	-2.035804e+01
1.810000e-06	-1.418958e-07	-2.173853e-10	-9.844802e-01	-1.909806e+01
1.820000e-06	-9.495819e-08	-1.979039e-10	-6.588246e-01	-1.781767e+01
1.830000e-06	-4.803792e-08	-1.803383e-10	-3.332895e-01	-1.651740e+01
1.840000e-06	-1.161643e-09	-1.634080e-10	-8.059537e-03	-1.519783e+01
1.850000e-06	4.570737e-08	-1.463866e-10	3.171200e-01	-1.385962e+01
1.860000e-06	9.266483e-08	-1.283347e-10	6.429131e-01	-1.250348e+01
1.870000e-06	1.396263e-07	-1.072401e-10	9.687338e-01	-1.113018e+01
1.880000e-06	1.864828e-07	-8.521780e-11	1.293826e+00	-9.740561e+00
1.890000e-06	2.333092e-07	-6.525212e-11	1.618711e+00	-8.335508e+00
1.900000e-06	2.801871e-07	-4.718098e-11	1.943952e+00	-6.915968e+00
1.910000e-06	3.270859e-07	-3.003819e-11	2.269338e+00	-5.482939e+00
1.920000e-06	3.739329e-07	-1.035313e-11	2.594365e+00	-4.037468e+00
1.930000e-06	4.207413e-07	1.336251e-11	2.919123e+00	-2.580647e+00
1.940000e-06	4.675024e-07	3.774920e-11	3.243555e+00	-1.113612e+00
1.950000e-06	5.141851e-07	6.168063e-11	3.567441e+00	3.624631e-01
1.960000e-06	5.608523e-07	8.411087e-11	3.891220e+00	1.846371e+00
1.970000e-06	6.075353e-07	1.036733e-10	4.215110e+00	3.336872e+00
1.980000e-06	6.541735e-07	1.219864e-10	4.538687e+00	4.832700e+00
1.990000e-06	7.008099e-07	1.361887e-10	4.862253e+00	6.332571e+00
2.000000e-06	7.473641e-07	1.526731e-10	5.185249e+00	7.835178e+00
2.010000e-06	7.937892e-07	1.716719e-10	5.507348e+00	9.339206e+00
2.020000e-06	8.401636e-07	1.967040e-10	5.829096e+00	1.084333e+01
2.030000e-06	8.864112e-07	2.256307e-10	6.149964e+00	1.234623e+01
2.040000e-06	9.326241e-07	2.526169e-10	6.470591e+00	1.384657e+01
2.050000e-06	9.788069e-07	2.757553e-10	6.791010e+00	1.534304e+01
2.060000e-06	1.024884e-06	2.932023e-10	7.110698e+00	1.683433e+01
2.070000e-06	1.070897e-06	3.059094e-10	7.429938e+00	1.831915e+01
2.080000e-06	1.116867e-06	3.186484e-10	7.748878e+00	1.979625e+01
2.090000e-06	1.162751e-06	3.385135e-10	8.067226e+00	2.126436e+01
2.100000e-06	1.208535e-06	3.657500e-10	8.384874e+00	2.272229e+01
2.110000e-06	1.254240e-06	3.925963e-10	8.701979e+00	2.416885e+01
2.120000e-06	1.299792e-06	4.160693e-10	9.018019e+00	2.560291e+01
2.130000e-06	1.345204e-06	4.376132e-10	9.333090e+00	2.702337e+01
2.140000e-06	1.390564e-06	4.540904e-10	9.647802e+00	2.842918e+01
2.150000e-06	1.435882e-06	4.666693e-10	9.962218e+00	2.981934e+01
2.160000e-06	1.481118e-06	4.787326e-10	1.027607e+01	3.119290e+01
2.170000e-06	1.526159e-06	4.967561e-10	1.058857e+01	3.254897e+01
2.180000e-06	1.571094e-06	5.186180e-10	1.090033e+01	3.388672e+01
2.190000e-06	1.615925e-06	5.434991e-10	1.121137e+01	3.520537e+01
2.200000e-06	1.660586e-06	5.667937e-10	1.152123e+01	3.650420e+01
2.210000e-06	1.705229e-06	5.829756e-10	1.183096e+01	3.778256e+01
2.220000e-06	1.749782e-06	5.932149e-10	1.214007e+01	3.903988e+01
2.230000e-06	1.794097e-06	6.027785e-10	1.244753e+01	4.027563e+01
2.240000e-06	1.838247e-06	6.139236e-10	1.275385e+01	4.148936e+01
2.250000e-06	1.882327e-06	6.303014e-10	1.305968e+01	4.268067e+01
2.260000e-06	1.926306e-06	6.508854e-10	1.336480e+01	4.384926e+01
2.270000e-06	1.970184e-06	6.711114e-10	1.366923e+01	4.499485e+01
2.280000e-06	2.013975e-06	6.875647e-10	1.397306e+01	4.611725e+01
2.290000e-06	2.057692e-06	7.017286e-10	1.427637e+01	4.721635e+01
2.300000e-06	2.101339e-06	7.131101e-10	1.457919e+01	4.829206e+01
2.310000e-06	2.144885e-06	7.220301e-10	1.488132e+01	4.934438e+01
2.320000e-06	2.188360e-06	7.332476e-10	1.518295e+01	5.037336e+01
2.330000e-06	2.231734e-06	7.478202e-10	1.548388e+01	5.137911e+01
2.340000e-06	2.275018e-06	7.642214e-10	1.578419e+01	5.236178e+01
2.350000e-06	2.318180e-06	7.790624e-10	1.608365e+01	5.332158e+01
2.360000e-06	2.361111e-06	7.920273e-10	1.638150e+01	5.425877e+01
2.370000e-06	2.403815e-06	8.027348e-10	1.667779e+01	5.517364e+01
2.380000e-06	2.446383e-06	8.137690e-10	1.697313e+01	5.606654e+01
2.390000e-06	2.488702e-06	8.276076e-10	1.726673e+01	5.693784e+01
2.400000e-06	2.530719e-06	8.407217e-10	1.755825e+01	5.778796e+01
2.410000e-06	2.572454e-06	8.524322e-10	1.784781e+01	5.861734e+01
2.420000e-06	2.613745e-06	8.643098e-10	1.813429e+01	5.942643e+01
2.430000e-06	2.654681e-06	8.753767e-10	1.841831e+01	6.021574e+01
2.440000e-06	2.695461e-06	8.859155e-10	1.870124e+01	6.098578e+01
2.450000e-06	2.736075e-06	8.968378e-10	1.898302e+01	6.173706e+01
2.460000e-06	2.776467e-06	9.082309e-10	1.926326e+01	6.247013e+01
2.470000e-06	2.816605e-06	9.190304e-10	1.954174e+01	6.318554e+01
2.480000e-06	2.856503e-06	9.285920e-10	1.981856e+01	6.388382e+01
2.490000e-06	2.896220e-06	9.367858e-10	2.009412e+01	6.456554e+01
2.500000e-06	2.935801e-06	9.453120e-10	2.036873e+01	6.523125e+01
2.510000e-06	2.975226e-06	9.543271e-10	2.064226e+01	6.588148e+01
2.520000e-06	3.014500e-06	9.653546e-10	2.091475e+01	6.651679e+01
2.530000e-06	3.053655e-06	9.776337e-10	2.118641e+01	6.713769e+01
2.540000e-06	3.092575e-06	9.890265e-10	2.145643e+01	6.774471e+01
2.550000e-06	3.131227e-06	9.977917e-10	2.172460e+01	6.833833e+01
2.560000e-06	3.169747e-06	1.004358e-09	2.199186e+01	6.891906e+01
2.570000e-06	3.208050e-06	1.011057e-09	2.225760e+01	6.948735e+01
2.580000e-06	3.246032e-06	1.019698e-09	2.252113e+01	7.004365e+01
2.590000e-06	3.283740e-06	1.029418e-09	2.278275e+01	7.058837e+01
2.600000e-06	3.321244e-06	1.038557e-09	2.304295e+01	7.112193e+01
2.610000e-06	3.358540e-06	1.046477e-09	2.330171e+01	7.164470e+01
2.620000e-06	3.395630e-06	1.053939e-09	2.355905e+01	7.215703e+01
2.630000e-06	3.432527e-06	1.059716e-09	2.381504e+01	7.265924e+01
2.640000e-06	3.469193e-06	1.064725e-09	2.406943e+01	7.315165e+01
2.650000e-06	3.505586e-06	1.072661e-09	2.432193e+01	7.363453e+01
2.660000e-06	3.541715e-06	1.081704e-09	2.457259e+01	7.410813e+01
2.670000e-06	3.577654e-06	1.087993e-09	2.482194e+01	7.457269e+01
2.680000e-06	3.613394e-06	1.093173e-09	2.506991e+01	7.502842e+01
2.690000e-06	3.649018e-06	1.098273e-09	2.531706e+01	7.547549e+01
2.700000e-06	3.684536e-06	1.101907e-09	2.556349e+01	7.591408e+01
2.710000e-06	3.719933e-06	1.108478e-09	2.580908e+01	7.634432e+01
2.720000e-06	3.755116e-06	1.117880e-09	2.605317e+01	7.676634e+01
2.730000e-06	3.789911e-06	1.125545e-09	2.629459e+01	7.718025e+01
2.740000e-06	3.824373e-06	1.131043e-09	2.653369e+01	7.758614e+01
2.750000e-06	3.858520e-06	1.134279e-09	2.677060e+01	7.798408e+01
2.760000e-06	3.892188e-06	1.134741e-09	2.700419e+01	7.837415e+01
2.770000e-06	3.925243e-06	1.135552e-09	2.723353e+01	7.875639e+01
2.780000e-06	3.957871e-06	1.140608e-09	2.745991e+01	7.913085e+01
2.790000e-06	3.990164e-06	1.146717e-09	2.768395e+01	7.949757e+01
2.800000e-06	4.022099e-06	1.150967e-09	2.790552e+01	7.985658e+01
2.810000e-06	4.053808e-06	1.156967e-09	2.812552e+01	8.020789e+01
2.820000e-06	4.085346e-06	1.163383e-09	2.834433e+01	8.055155e+01
2.830000e-06	4.116744e-06	1.167763e-09	2.856217e+01	8.088757e+01
2.840000e-06	4.147960e-06	1.170125e-09	2.877875e+01	8.121597e+01
2.850000e-06	4.178974e-06	1.171887e-09	2.899392e+01	8.153678e+01
2.860000e-06	4.209696e-06	1.174736e-09	2.920707e+01	8.185004e+01
2.870000e-06	4.239988e-06	1.180780e-09	2.941724e+01	8.215576e+01
2.880000e-06	4.269990e-06	1.187075e-09	2.962540e+01	8.245400e+01
2.890000e-06	4.299719e-06	1.190641e-09	2.983166e+01	8.274480e+01
2.900000e-06	4.329090e-06	1.194079e-09	3.003544e+01	8.302821e+01
