# Temperatura_=_14.0
# Concentracion g/m^3_=_1620.0
# C_Vs_to_Am_M_A/Vsm_=_65563218390.804596
# pendiente_HvsI_1/m_=_3716.3
# ordenada_HvsI_A/m_=_1297.0
# frecuencia_Hz_=_135106.94471939126

Tiempo_(s)	Campo_(V.s)	Magnetizacion_(V.s)	Campo_(kA/m)	Magnetizacion_(A/m)
0.000000e+00	-5.530220e-06	-1.169483e-09	-3.837288e+01	-7.533470e+01
1.000000e-08	-5.530522e-06	-1.165898e-09	-3.837498e+01	-7.531167e+01
2.000000e-08	-5.530627e-06	-1.163236e-09	-3.837570e+01	-7.528565e+01
3.000000e-08	-5.530430e-06	-1.165349e-09	-3.837434e+01	-7.525663e+01
4.000000e-08	-5.529753e-06	-1.169176e-09	-3.836964e+01	-7.522460e+01
5.000000e-08	-5.528518e-06	-1.168709e-09	-3.836107e+01	-7.518956e+01
6.000000e-08	-5.526682e-06	-1.165403e-09	-3.834833e+01	-7.515152e+01
7.000000e-08	-5.524249e-06	-1.155200e-09	-3.833145e+01	-7.511050e+01
8.000000e-08	-5.521269e-06	-1.162355e-09	-3.831077e+01	-7.506652e+01
9.000000e-08	-5.517809e-06	-1.191912e-09	-3.828677e+01	-7.501961e+01
1.000000e-07	-5.513850e-06	-1.183411e-09	-3.825929e+01	-7.496980e+01
1.100000e-07	-5.509495e-06	-1.127117e-09	-3.822908e+01	-7.491715e+01
1.200000e-07	-5.504919e-06	-1.146304e-09	-3.819732e+01	-7.486169e+01
1.300000e-07	-5.500195e-06	-1.182464e-09	-3.816454e+01	-7.480348e+01
1.400000e-07	-5.495189e-06	-1.184973e-09	-3.812981e+01	-7.474259e+01
1.500000e-07	-5.489806e-06	-1.113648e-09	-3.809246e+01	-7.467907e+01
1.600000e-07	-5.484073e-06	-1.127195e-09	-3.805268e+01	-7.461299e+01
1.700000e-07	-5.477955e-06	-1.192193e-09	-3.801023e+01	-7.454441e+01
1.800000e-07	-5.471375e-06	-1.190231e-09	-3.796457e+01	-7.447340e+01
1.900000e-07	-5.464400e-06	-1.122637e-09	-3.791617e+01	-7.440004e+01
2.000000e-07	-5.457109e-06	-1.100912e-09	-3.786558e+01	-7.432438e+01
2.100000e-07	-5.449522e-06	-1.145140e-09	-3.781294e+01	-7.424649e+01
2.200000e-07	-5.441636e-06	-1.149485e-09	-3.775822e+01	-7.416643e+01
2.300000e-07	-5.433450e-06	-1.117307e-09	-3.770142e+01	-7.408425e+01
2.400000e-07	-5.424944e-06	-1.097973e-09	-3.764240e+01	-7.400002e+01
2.500000e-07	-5.415750e-06	-1.124588e-09	-3.757860e+01	-7.391376e+01
2.600000e-07	-5.405746e-06	-1.124929e-09	-3.750919e+01	-7.382553e+01
2.700000e-07	-5.395302e-06	-1.118624e-09	-3.743672e+01	-7.373535e+01
2.800000e-07	-5.384394e-06	-1.105371e-09	-3.736103e+01	-7.364324e+01
2.900000e-07	-5.372925e-06	-1.119752e-09	-3.728145e+01	-7.354921e+01
3.000000e-07	-5.361130e-06	-1.111545e-09	-3.719961e+01	-7.345328e+01
3.100000e-07	-5.349046e-06	-1.113299e-09	-3.711576e+01	-7.335542e+01
3.200000e-07	-5.336478e-06	-1.103202e-09	-3.702855e+01	-7.325562e+01
3.300000e-07	-5.323401e-06	-1.119191e-09	-3.693782e+01	-7.315387e+01
3.400000e-07	-5.310033e-06	-1.125123e-09	-3.684506e+01	-7.305010e+01
3.500000e-07	-5.296320e-06	-1.113532e-09	-3.674991e+01	-7.294428e+01
3.600000e-07	-5.281975e-06	-1.093537e-09	-3.665037e+01	-7.283635e+01
3.700000e-07	-5.267084e-06	-1.114345e-09	-3.654704e+01	-7.272624e+01
3.800000e-07	-5.251890e-06	-1.110264e-09	-3.644162e+01	-7.261387e+01
3.900000e-07	-5.236183e-06	-1.090253e-09	-3.633263e+01	-7.249915e+01
4.000000e-07	-5.219865e-06	-1.107914e-09	-3.621940e+01	-7.238198e+01
4.100000e-07	-5.203250e-06	-1.124953e-09	-3.610411e+01	-7.226226e+01
4.200000e-07	-5.186422e-06	-1.087601e-09	-3.598735e+01	-7.213989e+01
4.300000e-07	-5.169295e-06	-1.086496e-09	-3.586851e+01	-7.201474e+01
4.400000e-07	-5.151896e-06	-1.133150e-09	-3.574778e+01	-7.188670e+01
4.500000e-07	-5.134101e-06	-1.101542e-09	-3.562431e+01	-7.175565e+01
4.600000e-07	-5.115766e-06	-1.063585e-09	-3.549708e+01	-7.162145e+01
4.700000e-07	-5.096963e-06	-1.110605e-09	-3.536661e+01	-7.148400e+01
4.800000e-07	-5.077823e-06	-1.122585e-09	-3.523380e+01	-7.134315e+01
4.900000e-07	-5.058418e-06	-1.056900e-09	-3.509916e+01	-7.119879e+01
5.000000e-07	-5.038809e-06	-1.077006e-09	-3.496310e+01	-7.105081e+01
5.100000e-07	-5.019040e-06	-1.107000e-09	-3.482593e+01	-7.089908e+01
5.200000e-07	-4.999002e-06	-1.050670e-09	-3.468689e+01	-7.074349e+01
5.300000e-07	-4.978540e-06	-1.042217e-09	-3.454490e+01	-7.058396e+01
5.400000e-07	-4.957670e-06	-1.113096e-09	-3.440009e+01	-7.042037e+01
5.500000e-07	-4.936451e-06	-1.080900e-09	-3.425286e+01	-7.025265e+01
5.600000e-07	-4.914873e-06	-1.036215e-09	-3.410314e+01	-7.008073e+01
5.700000e-07	-4.892946e-06	-1.082794e-09	-3.395099e+01	-6.990453e+01
5.800000e-07	-4.870716e-06	-1.085745e-09	-3.379674e+01	-6.972402e+01
5.900000e-07	-4.848125e-06	-1.022770e-09	-3.363998e+01	-6.953914e+01
6.000000e-07	-4.825201e-06	-1.048642e-09	-3.348092e+01	-6.934988e+01
6.100000e-07	-4.802002e-06	-1.077443e-09	-3.331995e+01	-6.915622e+01
6.200000e-07	-4.778512e-06	-1.035335e-09	-3.315695e+01	-6.895815e+01
6.300000e-07	-4.754841e-06	-1.030018e-09	-3.299271e+01	-6.875570e+01
6.400000e-07	-4.730981e-06	-1.063140e-09	-3.282715e+01	-6.854888e+01
6.500000e-07	-4.706742e-06	-1.035209e-09	-3.265897e+01	-6.833774e+01
6.600000e-07	-4.682060e-06	-1.016900e-09	-3.248770e+01	-6.812233e+01
6.700000e-07	-4.656865e-06	-1.039546e-09	-3.231288e+01	-6.790271e+01
6.800000e-07	-4.631030e-06	-1.028813e-09	-3.213362e+01	-6.767895e+01
6.900000e-07	-4.604631e-06	-1.004605e-09	-3.195044e+01	-6.745114e+01
7.000000e-07	-4.577811e-06	-1.018544e-09	-3.176434e+01	-6.721937e+01
7.100000e-07	-4.550646e-06	-1.018858e-09	-3.157585e+01	-6.698374e+01
7.200000e-07	-4.523233e-06	-9.952993e-10	-3.138564e+01	-6.674436e+01
7.300000e-07	-4.495655e-06	-9.955552e-10	-3.119428e+01	-6.650133e+01
7.400000e-07	-4.467914e-06	-9.999077e-10	-3.100179e+01	-6.625478e+01
7.500000e-07	-4.439935e-06	-9.866221e-10	-3.080766e+01	-6.600483e+01
7.600000e-07	-4.411632e-06	-9.819429e-10	-3.061126e+01	-6.575159e+01
7.700000e-07	-4.383034e-06	-9.879748e-10	-3.041283e+01	-6.549518e+01
7.800000e-07	-4.354135e-06	-9.757853e-10	-3.021231e+01	-6.523573e+01
7.900000e-07	-4.324887e-06	-9.655035e-10	-3.000936e+01	-6.497333e+01
8.000000e-07	-4.295348e-06	-9.630583e-10	-2.980440e+01	-6.470811e+01
8.100000e-07	-4.265568e-06	-9.524140e-10	-2.959776e+01	-6.444017e+01
8.200000e-07	-4.235531e-06	-9.359320e-10	-2.938934e+01	-6.416959e+01
8.300000e-07	-4.205231e-06	-9.380245e-10	-2.917910e+01	-6.389647e+01
8.400000e-07	-4.174599e-06	-9.385797e-10	-2.896655e+01	-6.362087e+01
8.500000e-07	-4.143586e-06	-9.317861e-10	-2.875136e+01	-6.334287e+01
8.600000e-07	-4.112263e-06	-9.302831e-10	-2.853401e+01	-6.306251e+01
8.700000e-07	-4.080772e-06	-9.319054e-10	-2.831550e+01	-6.277984e+01
8.800000e-07	-4.049211e-06	-9.188562e-10	-2.809651e+01	-6.249487e+01
8.900000e-07	-4.017554e-06	-9.124372e-10	-2.787685e+01	-6.220762e+01
9.000000e-07	-3.985671e-06	-9.108031e-10	-2.765562e+01	-6.191809e+01
9.100000e-07	-3.953427e-06	-8.994162e-10	-2.743189e+01	-6.162626e+01
9.200000e-07	-3.920655e-06	-8.876040e-10	-2.720449e+01	-6.133210e+01
9.300000e-07	-3.887478e-06	-8.890281e-10	-2.697428e+01	-6.103556e+01
9.400000e-07	-3.853954e-06	-8.848045e-10	-2.674167e+01	-6.073658e+01
9.500000e-07	-3.819882e-06	-8.751315e-10	-2.650525e+01	-6.043510e+01
9.600000e-07	-3.785417e-06	-8.753460e-10	-2.626611e+01	-6.013103e+01
9.700000e-07	-3.750576e-06	-8.741641e-10	-2.602436e+01	-5.982427e+01
9.800000e-07	-3.715354e-06	-8.614953e-10	-2.577996e+01	-5.951472e+01
9.900000e-07	-3.679948e-06	-8.541578e-10	-2.553428e+01	-5.920226e+01
1.000000e-06	-3.644430e-06	-8.522073e-10	-2.528783e+01	-5.888678e+01
1.010000e-06	-3.608770e-06	-8.435018e-10	-2.504040e+01	-5.856815e+01
1.020000e-06	-3.572952e-06	-8.385533e-10	-2.479187e+01	-5.824623e+01
1.030000e-06	-3.536990e-06	-8.414016e-10	-2.454233e+01	-5.792089e+01
1.040000e-06	-3.500853e-06	-8.389450e-10	-2.429159e+01	-5.759200e+01
1.050000e-06	-3.464479e-06	-8.325404e-10	-2.403920e+01	-5.725941e+01
1.060000e-06	-3.427784e-06	-8.306968e-10	-2.378458e+01	-5.692299e+01
1.070000e-06	-3.390754e-06	-8.238458e-10	-2.352763e+01	-5.658261e+01
1.080000e-06	-3.353450e-06	-8.109042e-10	-2.326879e+01	-5.623814e+01
1.090000e-06	-3.315927e-06	-8.028922e-10	-2.300843e+01	-5.588947e+01
1.100000e-06	-3.278155e-06	-8.005685e-10	-2.274634e+01	-5.553648e+01
1.110000e-06	-3.240206e-06	-7.931172e-10	-2.248302e+01	-5.517906e+01
1.120000e-06	-3.202102e-06	-7.872908e-10	-2.221863e+01	-5.481713e+01
1.130000e-06	-3.163673e-06	-7.860954e-10	-2.195197e+01	-5.445059e+01
1.140000e-06	-3.124959e-06	-7.844441e-10	-2.168334e+01	-5.407938e+01
1.150000e-06	-3.086033e-06	-7.767699e-10	-2.141325e+01	-5.370344e+01
1.160000e-06	-3.046983e-06	-7.706362e-10	-2.114229e+01	-5.332273e+01
1.170000e-06	-3.007823e-06	-7.651238e-10	-2.087057e+01	-5.293720e+01
1.180000e-06	-2.968438e-06	-7.558778e-10	-2.059728e+01	-5.254684e+01
1.190000e-06	-2.928914e-06	-7.468137e-10	-2.032304e+01	-5.215164e+01
1.200000e-06	-2.889304e-06	-7.407206e-10	-2.004819e+01	-5.175161e+01
1.210000e-06	-2.849568e-06	-7.328283e-10	-1.977247e+01	-5.134675e+01
1.220000e-06	-2.809667e-06	-7.247306e-10	-1.949561e+01	-5.093710e+01
1.230000e-06	-2.769545e-06	-7.182166e-10	-1.921721e+01	-5.052268e+01
1.240000e-06	-2.729262e-06	-7.112910e-10	-1.893770e+01	-5.010354e+01
1.250000e-06	-2.688805e-06	-7.028378e-10	-1.865698e+01	-4.967972e+01
1.260000e-06	-2.648110e-06	-6.982814e-10	-1.837460e+01	-4.925128e+01
1.270000e-06	-2.607192e-06	-6.945333e-10	-1.809068e+01	-4.881827e+01
1.280000e-06	-2.566035e-06	-6.864911e-10	-1.780511e+01	-4.838074e+01
1.290000e-06	-2.524485e-06	-6.783317e-10	-1.751680e+01	-4.793874e+01
1.300000e-06	-2.482464e-06	-6.708628e-10	-1.722522e+01	-4.749231e+01
1.310000e-06	-2.440126e-06	-6.606629e-10	-1.693145e+01	-4.704149e+01
1.320000e-06	-2.397518e-06	-6.489797e-10	-1.663581e+01	-4.658631e+01
1.330000e-06	-2.354683e-06	-6.406799e-10	-1.633859e+01	-4.612678e+01
1.340000e-06	-2.311681e-06	-6.339148e-10	-1.604020e+01	-4.566291e+01
1.350000e-06	-2.268502e-06	-6.286970e-10	-1.574060e+01	-4.519466e+01
1.360000e-06	-2.225161e-06	-6.246877e-10	-1.543986e+01	-4.472200e+01
1.370000e-06	-2.181667e-06	-6.197446e-10	-1.513807e+01	-4.424486e+01
1.380000e-06	-2.138052e-06	-6.125268e-10	-1.483543e+01	-4.376316e+01
1.390000e-06	-2.094403e-06	-6.025942e-10	-1.453256e+01	-4.327678e+01
1.400000e-06	-2.050725e-06	-5.897419e-10	-1.422949e+01	-4.278557e+01
1.410000e-06	-2.006927e-06	-5.769669e-10	-1.392559e+01	-4.228935e+01
1.420000e-06	-1.962957e-06	-5.671506e-10	-1.362049e+01	-4.178793e+01
1.430000e-06	-1.918944e-06	-5.615667e-10	-1.331509e+01	-4.128104e+01
1.440000e-06	-1.874894e-06	-5.563796e-10	-1.300945e+01	-4.076841e+01
1.450000e-06	-1.830664e-06	-5.507352e-10	-1.270254e+01	-4.024973e+01
1.460000e-06	-1.786279e-06	-5.434860e-10	-1.239457e+01	-3.972465e+01
1.470000e-06	-1.741765e-06	-5.336686e-10	-1.208569e+01	-3.919277e+01
1.480000e-06	-1.697127e-06	-5.217350e-10	-1.177596e+01	-3.865369e+01
1.490000e-06	-1.652406e-06	-5.111732e-10	-1.146565e+01	-3.810695e+01
1.500000e-06	-1.607560e-06	-5.039099e-10	-1.115448e+01	-3.755206e+01
1.510000e-06	-1.562489e-06	-4.968408e-10	-1.084174e+01	-3.698850e+01
1.520000e-06	-1.517274e-06	-4.885892e-10	-1.052800e+01	-3.641572e+01
1.530000e-06	-1.471994e-06	-4.803894e-10	-1.021381e+01	-3.583315e+01
1.540000e-06	-1.426628e-06	-4.738540e-10	-9.899032e+00	-3.524019e+01
1.550000e-06	-1.381175e-06	-4.683380e-10	-9.583645e+00	-3.463622e+01
1.560000e-06	-1.335609e-06	-4.615571e-10	-9.267470e+00	-3.402061e+01
1.570000e-06	-1.289914e-06	-4.526871e-10	-8.950406e+00	-3.339270e+01
1.580000e-06	-1.244107e-06	-4.421777e-10	-8.632564e+00	-3.275185e+01
1.590000e-06	-1.198292e-06	-4.308042e-10	-8.314664e+00	-3.209738e+01
1.600000e-06	-1.152418e-06	-4.184285e-10	-7.996352e+00	-3.142863e+01
1.610000e-06	-1.106455e-06	-4.072337e-10	-7.677425e+00	-3.074495e+01
1.620000e-06	-1.060444e-06	-3.963315e-10	-7.358169e+00	-3.004568e+01
1.630000e-06	-1.014368e-06	-3.833116e-10	-7.038455e+00	-2.933019e+01
1.640000e-06	-9.682105e-07	-3.721965e-10	-6.718182e+00	-2.859787e+01
1.650000e-06	-9.218761e-07	-3.640100e-10	-6.396679e+00	-2.784813e+01
1.660000e-06	-8.755533e-07	-3.572413e-10	-6.075256e+00	-2.708042e+01
1.670000e-06	-8.292624e-07	-3.478678e-10	-5.754055e+00	-2.629420e+01
1.680000e-06	-7.827481e-07	-3.363817e-10	-5.431303e+00	-2.548900e+01
1.690000e-06	-7.361267e-07	-3.228178e-10	-5.107808e+00	-2.466440e+01
1.700000e-06	-6.896015e-07	-3.098259e-10	-4.784981e+00	-2.381999e+01
1.710000e-06	-6.430269e-07	-2.956648e-10	-4.461810e+00	-2.295546e+01
1.720000e-06	-5.963371e-07	-2.816036e-10	-4.137841e+00	-2.207055e+01
1.730000e-06	-5.496612e-07	-2.696584e-10	-3.813968e+00	-2.116504e+01
1.740000e-06	-5.029735e-07	-2.568812e-10	-3.490014e+00	-2.023880e+01
1.750000e-06	-4.562126e-07	-2.437970e-10	-3.165551e+00	-1.929178e+01
1.760000e-06	-4.093643e-07	-2.298021e-10	-2.840481e+00	-1.832397e+01
1.770000e-06	-3.624872e-07	-2.146743e-10	-2.515213e+00	-1.733547e+01
1.780000e-06	-3.156073e-07	-1.981148e-10	-2.189924e+00	-1.632645e+01
1.790000e-06	-2.686789e-07	-1.813098e-10	-1.864299e+00	-1.529714e+01
1.800000e-06	-2.217347e-07	-1.667082e-10	-1.538565e+00	-1.424789e+01
1.810000e-06	-1.747927e-07	-1.527950e-10	-1.212845e+00	-1.317909e+01
1.820000e-06	-1.278295e-07	-1.377315e-10	-8.869787e-01	-1.209125e+01
1.830000e-06	-8.088713e-08	-1.222671e-10	-5.612566e-01	-1.098493e+01
1.840000e-06	-3.397937e-08	-1.047659e-10	-2.357747e-01	-9.860786e+00
1.850000e-06	1.287045e-08	-8.779506e-11	8.930498e-02	-8.719554e+00
1.860000e-06	5.978371e-08	-7.240594e-11	4.148250e-01	-7.562041e+00
1.870000e-06	1.067170e-07	-5.485582e-11	7.404835e-01	-6.389131e+00
1.880000e-06	1.535566e-07	-3.759959e-11	1.065493e+00	-5.201775e+00
1.890000e-06	2.004055e-07	-2.198193e-11	1.390566e+00	-4.000995e+00
1.900000e-06	2.473068e-07	-6.173535e-12	1.716003e+00	-2.787873e+00
1.910000e-06	2.942118e-07	9.260759e-12	2.041466e+00	-1.563551e+00
1.920000e-06	3.411165e-07	2.669166e-11	2.366926e+00	-3.292226e-01
1.930000e-06	3.880510e-07	4.596374e-11	2.692594e+00	9.138692e-01
1.940000e-06	4.349045e-07	6.661472e-11	3.017699e+00	2.164440e+00
1.950000e-06	4.816923e-07	8.498474e-11	3.342348e+00	3.421168e+00
1.960000e-06	5.284497e-07	9.973225e-11	3.666787e+00	4.682702e+00
1.970000e-06	5.751360e-07	1.123433e-10	3.990732e+00	5.947667e+00
1.980000e-06	6.217401e-07	1.273306e-10	4.314107e+00	7.214670e+00
1.990000e-06	6.682986e-07	1.470435e-10	4.637165e+00	8.482308e+00
2.000000e-06	7.147964e-07	1.643092e-10	4.959803e+00	9.749174e+00
2.010000e-06	7.611365e-07	1.827313e-10	5.281345e+00	1.101386e+01
2.020000e-06	8.074092e-07	2.017642e-10	5.602421e+00	1.227498e+01
2.030000e-06	8.537155e-07	2.222013e-10	5.923729e+00	1.353114e+01
2.040000e-06	8.999847e-07	2.435210e-10	6.244780e+00	1.478100e+01
2.050000e-06	9.461177e-07	2.605532e-10	6.564886e+00	1.602322e+01
2.060000e-06	9.922068e-07	2.778186e-10	6.884687e+00	1.725650e+01
2.070000e-06	1.038357e-06	2.929499e-10	7.204911e+00	1.847960e+01
2.080000e-06	1.084423e-06	3.062731e-10	7.524555e+00	1.969131e+01
2.090000e-06	1.130315e-06	3.205618e-10	7.842985e+00	2.089046e+01
2.100000e-06	1.176072e-06	3.398348e-10	8.160484e+00	2.207596e+01
2.110000e-06	1.221800e-06	3.615126e-10	8.477776e+00	2.324676e+01
2.120000e-06	1.267503e-06	3.798444e-10	8.794904e+00	2.440188e+01
2.130000e-06	1.313135e-06	3.941113e-10	9.111532e+00	2.554041e+01
2.140000e-06	1.358676e-06	4.065180e-10	9.427529e+00	2.666152e+01
2.150000e-06	1.404088e-06	4.189731e-10	9.742631e+00	2.776442e+01
2.160000e-06	1.449424e-06	4.297474e-10	1.005721e+01	2.884843e+01
2.170000e-06	1.494667e-06	4.408743e-10	1.037114e+01	2.991292e+01
2.180000e-06	1.539817e-06	4.541774e-10	1.068442e+01	3.095736e+01
2.190000e-06	1.584859e-06	4.683612e-10	1.099696e+01	3.198128e+01
2.200000e-06	1.629719e-06	4.845292e-10	1.130823e+01	3.298429e+01
2.210000e-06	1.674457e-06	4.992308e-10	1.161866e+01	3.396608e+01
2.220000e-06	1.719078e-06	5.104791e-10	1.192827e+01	3.492642e+01
2.230000e-06	1.763534e-06	5.195247e-10	1.223674e+01	3.586515e+01
2.240000e-06	1.807839e-06	5.299206e-10	1.254416e+01	3.678218e+01
2.250000e-06	1.851984e-06	5.413916e-10	1.285048e+01	3.767750e+01
2.260000e-06	1.896039e-06	5.545744e-10	1.315616e+01	3.855116e+01
2.270000e-06	1.940011e-06	5.700900e-10	1.346128e+01	3.940328e+01
2.280000e-06	1.983865e-06	5.836695e-10	1.376557e+01	4.023403e+01
2.290000e-06	2.027631e-06	5.946950e-10	1.406925e+01	4.104366e+01
2.300000e-06	2.071335e-06	6.045196e-10	1.437250e+01	4.183245e+01
2.310000e-06	2.114962e-06	6.139078e-10	1.467522e+01	4.260075e+01
2.320000e-06	2.158519e-06	6.236300e-10	1.497745e+01	4.334896e+01
2.330000e-06	2.202033e-06	6.348730e-10	1.527939e+01	4.407749e+01
2.340000e-06	2.245469e-06	6.465656e-10	1.558078e+01	4.478683e+01
2.350000e-06	2.288815e-06	6.574755e-10	1.588154e+01	4.547747e+01
2.360000e-06	2.331973e-06	6.653318e-10	1.618101e+01	4.614995e+01
2.370000e-06	2.374898e-06	6.709444e-10	1.647885e+01	4.680483e+01
2.380000e-06	2.417546e-06	6.754900e-10	1.677478e+01	4.744267e+01
2.390000e-06	2.459852e-06	6.840944e-10	1.706833e+01	4.806408e+01
2.400000e-06	2.501783e-06	6.958186e-10	1.735928e+01	4.866965e+01
2.410000e-06	2.543392e-06	7.062711e-10	1.764799e+01	4.925999e+01
2.420000e-06	2.584744e-06	7.162394e-10	1.793492e+01	4.983573e+01
2.430000e-06	2.625730e-06	7.263475e-10	1.821932e+01	5.039747e+01
2.440000e-06	2.666500e-06	7.330319e-10	1.850221e+01	5.094582e+01
2.450000e-06	2.707111e-06	7.360207e-10	1.878400e+01	5.148139e+01
2.460000e-06	2.747363e-06	7.399904e-10	1.906330e+01	5.200476e+01
2.470000e-06	2.787340e-06	7.470826e-10	1.934069e+01	5.251652e+01
2.480000e-06	2.827205e-06	7.573179e-10	1.961731e+01	5.301722e+01
2.490000e-06	2.866979e-06	7.669149e-10	1.989328e+01	5.350741e+01
2.500000e-06	2.906676e-06	7.749805e-10	2.016873e+01	5.398760e+01
2.510000e-06	2.946233e-06	7.840287e-10	2.044321e+01	5.445831e+01
2.520000e-06	2.985576e-06	7.932338e-10	2.071620e+01	5.492001e+01
2.530000e-06	3.024763e-06	8.009133e-10	2.098811e+01	5.537315e+01
2.540000e-06	3.063772e-06	8.068644e-10	2.125878e+01	5.581816e+01
2.550000e-06	3.102632e-06	8.126708e-10	2.152842e+01	5.625543e+01
2.560000e-06	3.141283e-06	8.177991e-10	2.179662e+01	5.668535e+01
2.570000e-06	3.179647e-06	8.213666e-10	2.206282e+01	5.710824e+01
2.580000e-06	3.217755e-06	8.268146e-10	2.232724e+01	5.752445e+01
2.590000e-06	3.255670e-06	8.354896e-10	2.259032e+01	5.793424e+01
2.600000e-06	3.293444e-06	8.461609e-10	2.285242e+01	5.833790e+01
2.610000e-06	3.330997e-06	8.555634e-10	2.311299e+01	5.873566e+01
2.620000e-06	3.368312e-06	8.617483e-10	2.337192e+01	5.912773e+01
2.630000e-06	3.405393e-06	8.661100e-10	2.362921e+01	5.951430e+01
2.640000e-06	3.442204e-06	8.697121e-10	2.388463e+01	5.989555e+01
2.650000e-06	3.478682e-06	8.734406e-10	2.413775e+01	6.027161e+01
2.660000e-06	3.514885e-06	8.816698e-10	2.438895e+01	6.064262e+01
2.670000e-06	3.550934e-06	8.907642e-10	2.463909e+01	6.100867e+01
2.680000e-06	3.586832e-06	8.968824e-10	2.488818e+01	6.136985e+01
2.690000e-06	3.622593e-06	9.024368e-10	2.513631e+01	6.172624e+01
2.700000e-06	3.658281e-06	9.052415e-10	2.538394e+01	6.207789e+01
2.710000e-06	3.693801e-06	9.083891e-10	2.563040e+01	6.242484e+01
2.720000e-06	3.729094e-06	9.142623e-10	2.587530e+01	6.276712e+01
2.730000e-06	3.764135e-06	9.197956e-10	2.611844e+01	6.310475e+01
2.740000e-06	3.798814e-06	9.238289e-10	2.635906e+01	6.343774e+01
2.750000e-06	3.833103e-06	9.274514e-10	2.659699e+01	6.376608e+01
2.760000e-06	3.866932e-06	9.312886e-10	2.683172e+01	6.408978e+01
2.770000e-06	3.900235e-06	9.350006e-10	2.706280e+01	6.440881e+01
2.780000e-06	3.933112e-06	9.384478e-10	2.729093e+01	6.472317e+01
2.790000e-06	3.965582e-06	9.435326e-10	2.751623e+01	6.503282e+01
2.800000e-06	3.997735e-06	9.484877e-10	2.773934e+01	6.533775e+01
2.810000e-06	4.029668e-06	9.529964e-10	2.796091e+01	6.563792e+01
2.820000e-06	4.061379e-06	9.584819e-10	2.818094e+01	6.593331e+01
2.830000e-06	4.092933e-06	9.635495e-10	2.839989e+01	6.622390e+01
2.840000e-06	4.124304e-06	9.680378e-10	2.861756e+01	6.650964e+01
2.850000e-06	4.155428e-06	9.718093e-10	2.883352e+01	6.679052e+01
2.860000e-06	4.186326e-06	9.748836e-10	2.904792e+01	6.706650e+01
2.870000e-06	4.216945e-06	9.763431e-10	2.926038e+01	6.733757e+01
2.880000e-06	4.247227e-06	9.779432e-10	2.947050e+01	6.760369e+01
2.890000e-06	4.277205e-06	9.803786e-10	2.967851e+01	6.786484e+01
2.900000e-06	4.306835e-06	9.820154e-10	2.988410e+01	6.812101e+01
