# Temperatura_=_-0.3
# Concentracion g/m^3_=_1620.0
# C_Vs_to_Am_M_A/Vsm_=_65563218390.804596
# pendiente_HvsI_1/m_=_3716.3
# ordenada_HvsI_A/m_=_1297.0
# frecuencia_Hz_=_135091.93721692523

Tiempo_(s)	Campo_(V.s)	Magnetizacion_(V.s)	Campo_(kA/m)	Magnetizacion_(A/m)
0.000000e+00	-5.506596e-06	-1.702778e-09	-3.837728e+01	-1.097595e+02
1.000000e-08	-5.506702e-06	-1.703725e-09	-3.837802e+01	-1.097345e+02
2.000000e-08	-5.506537e-06	-1.704847e-09	-3.837686e+01	-1.097061e+02
3.000000e-08	-5.505934e-06	-1.700834e-09	-3.837266e+01	-1.096744e+02
4.000000e-08	-5.504847e-06	-1.693443e-09	-3.836508e+01	-1.096394e+02
5.000000e-08	-5.503273e-06	-1.688892e-09	-3.835411e+01	-1.096011e+02
6.000000e-08	-5.501129e-06	-1.695366e-09	-3.833917e+01	-1.095595e+02
7.000000e-08	-5.498404e-06	-1.738933e-09	-3.832018e+01	-1.095146e+02
8.000000e-08	-5.495125e-06	-1.715703e-09	-3.829733e+01	-1.094665e+02
9.000000e-08	-5.491361e-06	-1.612080e-09	-3.827109e+01	-1.094150e+02
1.000000e-07	-5.487294e-06	-1.671031e-09	-3.824275e+01	-1.093603e+02
1.100000e-07	-5.482940e-06	-1.821272e-09	-3.821241e+01	-1.093023e+02
1.200000e-07	-5.478216e-06	-1.752368e-09	-3.817948e+01	-1.092409e+02
1.300000e-07	-5.473162e-06	-1.613328e-09	-3.814426e+01	-1.091761e+02
1.400000e-07	-5.467814e-06	-1.589568e-09	-3.810699e+01	-1.091079e+02
1.500000e-07	-5.462124e-06	-1.811924e-09	-3.806733e+01	-1.090363e+02
1.600000e-07	-5.455963e-06	-1.767745e-09	-3.802439e+01	-1.089611e+02
1.700000e-07	-5.449436e-06	-1.628217e-09	-3.797890e+01	-1.088823e+02
1.800000e-07	-5.442557e-06	-1.606355e-09	-3.793097e+01	-1.087999e+02
1.900000e-07	-5.435286e-06	-1.739345e-09	-3.788029e+01	-1.087138e+02
2.000000e-07	-5.427693e-06	-1.725057e-09	-3.782737e+01	-1.086238e+02
2.100000e-07	-5.419913e-06	-1.603806e-09	-3.777315e+01	-1.085300e+02
2.200000e-07	-5.411854e-06	-1.594339e-09	-3.771698e+01	-1.084323e+02
2.300000e-07	-5.403375e-06	-1.641839e-09	-3.765789e+01	-1.083306e+02
2.400000e-07	-5.394442e-06	-1.657339e-09	-3.759563e+01	-1.082248e+02
2.500000e-07	-5.385038e-06	-1.589767e-09	-3.753010e+01	-1.081148e+02
2.600000e-07	-5.374908e-06	-1.601410e-09	-3.745950e+01	-1.080005e+02
2.700000e-07	-5.364040e-06	-1.601864e-09	-3.738375e+01	-1.078819e+02
2.800000e-07	-5.352781e-06	-1.626924e-09	-3.730529e+01	-1.077590e+02
2.900000e-07	-5.341142e-06	-1.583644e-09	-3.722417e+01	-1.076315e+02
3.000000e-07	-5.329114e-06	-1.586304e-09	-3.714034e+01	-1.074995e+02
3.100000e-07	-5.316656e-06	-1.572316e-09	-3.705352e+01	-1.073629e+02
3.200000e-07	-5.303816e-06	-1.630712e-09	-3.696403e+01	-1.072216e+02
3.300000e-07	-5.290510e-06	-1.579207e-09	-3.687130e+01	-1.070756e+02
3.400000e-07	-5.276729e-06	-1.546826e-09	-3.677526e+01	-1.069248e+02
3.500000e-07	-5.262604e-06	-1.578669e-09	-3.667682e+01	-1.067692e+02
3.600000e-07	-5.248097e-06	-1.617303e-09	-3.657571e+01	-1.066087e+02
3.700000e-07	-5.233009e-06	-1.530047e-09	-3.647056e+01	-1.064432e+02
3.800000e-07	-5.217441e-06	-1.561034e-09	-3.636206e+01	-1.062729e+02
3.900000e-07	-5.201565e-06	-1.633464e-09	-3.625141e+01	-1.060975e+02
4.000000e-07	-5.185215e-06	-1.552729e-09	-3.613747e+01	-1.059171e+02
4.100000e-07	-5.168427e-06	-1.501114e-09	-3.602046e+01	-1.057317e+02
4.200000e-07	-5.151341e-06	-1.637663e-09	-3.590139e+01	-1.055413e+02
4.300000e-07	-5.133990e-06	-1.611386e-09	-3.578046e+01	-1.053458e+02
4.400000e-07	-5.116230e-06	-1.455581e-09	-3.565669e+01	-1.051453e+02
4.500000e-07	-5.098051e-06	-1.552612e-09	-3.552999e+01	-1.049397e+02
4.600000e-07	-5.079553e-06	-1.650761e-09	-3.540107e+01	-1.047291e+02
4.700000e-07	-5.060556e-06	-1.500794e-09	-3.526867e+01	-1.045135e+02
4.800000e-07	-5.041149e-06	-1.484415e-09	-3.513342e+01	-1.042928e+02
4.900000e-07	-5.021571e-06	-1.642209e-09	-3.499697e+01	-1.040671e+02
5.000000e-07	-5.001845e-06	-1.542836e-09	-3.485950e+01	-1.038365e+02
5.100000e-07	-4.981820e-06	-1.449559e-09	-3.471994e+01	-1.036009e+02
5.200000e-07	-4.961512e-06	-1.586188e-09	-3.457841e+01	-1.033603e+02
5.300000e-07	-4.940887e-06	-1.575372e-09	-3.443466e+01	-1.031149e+02
5.400000e-07	-4.919786e-06	-1.412409e-09	-3.428760e+01	-1.028645e+02
5.500000e-07	-4.898413e-06	-1.518169e-09	-3.413864e+01	-1.026093e+02
5.600000e-07	-4.876763e-06	-1.594449e-09	-3.398776e+01	-1.023492e+02
5.700000e-07	-4.854743e-06	-1.458400e-09	-3.383429e+01	-1.020843e+02
5.800000e-07	-4.832411e-06	-1.459956e-09	-3.367866e+01	-1.018146e+02
5.900000e-07	-4.809674e-06	-1.578760e-09	-3.352020e+01	-1.015401e+02
6.000000e-07	-4.786515e-06	-1.483287e-09	-3.335879e+01	-1.012609e+02
6.100000e-07	-4.763153e-06	-1.436917e-09	-3.319598e+01	-1.009769e+02
6.200000e-07	-4.739703e-06	-1.525644e-09	-3.303254e+01	-1.006882e+02
6.300000e-07	-4.715971e-06	-1.500280e-09	-3.286715e+01	-1.003948e+02
6.400000e-07	-4.691953e-06	-1.423120e-09	-3.269976e+01	-1.000966e+02
6.500000e-07	-4.667612e-06	-1.488217e-09	-3.253012e+01	-9.979380e+01
6.600000e-07	-4.642795e-06	-1.492167e-09	-3.235716e+01	-9.948628e+01
6.700000e-07	-4.617463e-06	-1.424455e-09	-3.218061e+01	-9.917406e+01
6.800000e-07	-4.591538e-06	-1.443546e-09	-3.199993e+01	-9.885714e+01
6.900000e-07	-4.565171e-06	-1.472590e-09	-3.181617e+01	-9.853552e+01
7.000000e-07	-4.538356e-06	-1.420877e-09	-3.162929e+01	-9.820918e+01
7.100000e-07	-4.511079e-06	-1.416253e-09	-3.143919e+01	-9.787811e+01
7.200000e-07	-4.483563e-06	-1.443840e-09	-3.124742e+01	-9.754230e+01
7.300000e-07	-4.455846e-06	-1.418784e-09	-3.105425e+01	-9.720172e+01
7.400000e-07	-4.427937e-06	-1.400925e-09	-3.085975e+01	-9.685636e+01
7.500000e-07	-4.399883e-06	-1.417331e-09	-3.066423e+01	-9.650620e+01
7.600000e-07	-4.371563e-06	-1.408458e-09	-3.046685e+01	-9.615119e+01
7.700000e-07	-4.342845e-06	-1.385929e-09	-3.026671e+01	-9.579133e+01
7.800000e-07	-4.313739e-06	-1.392457e-09	-3.006386e+01	-9.542657e+01
7.900000e-07	-4.284291e-06	-1.382140e-09	-2.985863e+01	-9.505690e+01
8.000000e-07	-4.254583e-06	-1.360937e-09	-2.965159e+01	-9.468227e+01
8.100000e-07	-4.224568e-06	-1.357727e-09	-2.944240e+01	-9.430266e+01
8.200000e-07	-4.194246e-06	-1.360464e-09	-2.923108e+01	-9.391803e+01
8.300000e-07	-4.163768e-06	-1.334218e-09	-2.901866e+01	-9.352836e+01
8.400000e-07	-4.133036e-06	-1.330450e-09	-2.880449e+01	-9.313361e+01
8.500000e-07	-4.102044e-06	-1.337787e-09	-2.858849e+01	-9.273375e+01
8.600000e-07	-4.070778e-06	-1.328881e-09	-2.837059e+01	-9.232876e+01
8.700000e-07	-4.039240e-06	-1.312182e-09	-2.815079e+01	-9.191860e+01
8.800000e-07	-4.007608e-06	-1.323312e-09	-2.793034e+01	-9.150326e+01
8.900000e-07	-3.975863e-06	-1.312354e-09	-2.770909e+01	-9.108271e+01
9.000000e-07	-3.943905e-06	-1.292484e-09	-2.748637e+01	-9.065693e+01
9.100000e-07	-3.911582e-06	-1.291654e-09	-2.726110e+01	-9.022590e+01
9.200000e-07	-3.878907e-06	-1.291084e-09	-2.703338e+01	-8.978961e+01
9.300000e-07	-3.845773e-06	-1.267764e-09	-2.680246e+01	-8.934805e+01
9.400000e-07	-3.812114e-06	-1.265377e-09	-2.656788e+01	-8.890121e+01
9.500000e-07	-3.777994e-06	-1.271335e-09	-2.633008e+01	-8.844909e+01
9.600000e-07	-3.743453e-06	-1.256979e-09	-2.608935e+01	-8.799168e+01
9.700000e-07	-3.708608e-06	-1.240371e-09	-2.584650e+01	-8.752899e+01
9.800000e-07	-3.673514e-06	-1.246663e-09	-2.560193e+01	-8.706102e+01
9.900000e-07	-3.638163e-06	-1.239173e-09	-2.535555e+01	-8.658778e+01
1.000000e-06	-3.602546e-06	-1.220008e-09	-2.510733e+01	-8.610928e+01
1.010000e-06	-3.566825e-06	-1.220308e-09	-2.485837e+01	-8.562554e+01
1.020000e-06	-3.531015e-06	-1.220236e-09	-2.460880e+01	-8.513657e+01
1.030000e-06	-3.495007e-06	-1.202589e-09	-2.435785e+01	-8.464240e+01
1.040000e-06	-3.458754e-06	-1.195027e-09	-2.410519e+01	-8.414305e+01
1.050000e-06	-3.422247e-06	-1.199678e-09	-2.385076e+01	-8.363853e+01
1.060000e-06	-3.385453e-06	-1.186228e-09	-2.359433e+01	-8.312888e+01
1.070000e-06	-3.348398e-06	-1.171365e-09	-2.333608e+01	-8.261412e+01
1.080000e-06	-3.311096e-06	-1.168346e-09	-2.307611e+01	-8.209427e+01
1.090000e-06	-3.273593e-06	-1.160032e-09	-2.281474e+01	-8.156936e+01
1.100000e-06	-3.235854e-06	-1.141704e-09	-2.255173e+01	-8.103942e+01
1.110000e-06	-3.197846e-06	-1.138045e-09	-2.228684e+01	-8.050446e+01
1.120000e-06	-3.159701e-06	-1.133362e-09	-2.202099e+01	-7.996451e+01
1.130000e-06	-3.121347e-06	-1.119189e-09	-2.175369e+01	-7.941958e+01
1.140000e-06	-3.082806e-06	-1.108031e-09	-2.148509e+01	-7.886969e+01
1.150000e-06	-3.044069e-06	-1.108059e-09	-2.121512e+01	-7.831485e+01
1.160000e-06	-3.005087e-06	-1.095894e-09	-2.094344e+01	-7.775505e+01
1.170000e-06	-2.965894e-06	-1.081092e-09	-2.067029e+01	-7.719030e+01
1.180000e-06	-2.926499e-06	-1.072088e-09	-2.039573e+01	-7.662059e+01
1.190000e-06	-2.887020e-06	-1.063712e-09	-2.012059e+01	-7.604589e+01
1.200000e-06	-2.847404e-06	-1.049458e-09	-1.984449e+01	-7.546618e+01
1.210000e-06	-2.807598e-06	-1.044941e-09	-1.956707e+01	-7.488143e+01
1.220000e-06	-2.767649e-06	-1.041068e-09	-1.928865e+01	-7.429159e+01
1.230000e-06	-2.727570e-06	-1.028462e-09	-1.900933e+01	-7.369659e+01
1.240000e-06	-2.687347e-06	-1.014983e-09	-1.872900e+01	-7.309637e+01
1.250000e-06	-2.646885e-06	-1.004990e-09	-1.844701e+01	-7.249084e+01
1.260000e-06	-2.606107e-06	-9.936530e-10	-1.816281e+01	-7.187991e+01
1.270000e-06	-2.564975e-06	-9.834509e-10	-1.787615e+01	-7.126346e+01
1.280000e-06	-2.523637e-06	-9.766132e-10	-1.758806e+01	-7.064135e+01
1.290000e-06	-2.482168e-06	-9.709871e-10	-1.729905e+01	-7.001346e+01
1.300000e-06	-2.440364e-06	-9.597587e-10	-1.700770e+01	-6.937960e+01
1.310000e-06	-2.398274e-06	-9.463122e-10	-1.671436e+01	-6.873960e+01
1.320000e-06	-2.355958e-06	-9.336222e-10	-1.641944e+01	-6.809327e+01
1.330000e-06	-2.313328e-06	-9.194049e-10	-1.612234e+01	-6.744037e+01
1.340000e-06	-2.270437e-06	-9.064097e-10	-1.582342e+01	-6.678069e+01
1.350000e-06	-2.227355e-06	-8.983154e-10	-1.552317e+01	-6.611395e+01
1.360000e-06	-2.184041e-06	-8.918646e-10	-1.522130e+01	-6.543987e+01
1.370000e-06	-2.140592e-06	-8.814983e-10	-1.491849e+01	-6.475817e+01
1.380000e-06	-2.097084e-06	-8.706796e-10	-1.461526e+01	-6.406852e+01
1.390000e-06	-2.053492e-06	-8.588057e-10	-1.431146e+01	-6.337059e+01
1.400000e-06	-2.009817e-06	-8.441278e-10	-1.400707e+01	-6.266401e+01
1.410000e-06	-1.966016e-06	-8.293221e-10	-1.370181e+01	-6.194841e+01
1.420000e-06	-1.922136e-06	-8.198290e-10	-1.339599e+01	-6.122338e+01
1.430000e-06	-1.878176e-06	-8.087872e-10	-1.308962e+01	-6.048851e+01
1.440000e-06	-1.834139e-06	-7.966190e-10	-1.278271e+01	-5.974337e+01
1.450000e-06	-1.789933e-06	-7.855092e-10	-1.247463e+01	-5.898749e+01
1.460000e-06	-1.745609e-06	-7.761279e-10	-1.216572e+01	-5.822042e+01
1.470000e-06	-1.701158e-06	-7.626681e-10	-1.185593e+01	-5.744166e+01
1.480000e-06	-1.656658e-06	-7.481238e-10	-1.154580e+01	-5.665071e+01
1.490000e-06	-1.612120e-06	-7.354029e-10	-1.123539e+01	-5.584706e+01
1.500000e-06	-1.567388e-06	-7.233659e-10	-1.092364e+01	-5.503020e+01
1.510000e-06	-1.522507e-06	-7.108791e-10	-1.061085e+01	-5.419958e+01
1.520000e-06	-1.477426e-06	-7.008700e-10	-1.029667e+01	-5.335466e+01
1.530000e-06	-1.432248e-06	-6.877256e-10	-9.981807e+00	-5.249490e+01
1.540000e-06	-1.387042e-06	-6.741647e-10	-9.666751e+00	-5.161975e+01
1.550000e-06	-1.341745e-06	-6.601022e-10	-9.351060e+00	-5.072866e+01
1.560000e-06	-1.296355e-06	-6.479962e-10	-9.034725e+00	-4.982108e+01
1.570000e-06	-1.250860e-06	-6.359427e-10	-8.717655e+00	-4.889646e+01
1.580000e-06	-1.205251e-06	-6.224602e-10	-8.399786e+00	-4.795427e+01
1.590000e-06	-1.159494e-06	-6.080446e-10	-8.080895e+00	-4.699397e+01
1.600000e-06	-1.113618e-06	-5.928991e-10	-7.761167e+00	-4.601505e+01
1.610000e-06	-1.067632e-06	-5.767967e-10	-7.440677e+00	-4.501701e+01
1.620000e-06	-1.021541e-06	-5.594952e-10	-7.119453e+00	-4.399936e+01
1.630000e-06	-9.755183e-07	-5.450841e-10	-6.798707e+00	-4.296165e+01
1.640000e-06	-9.295505e-07	-5.321094e-10	-6.478342e+00	-4.190344e+01
1.650000e-06	-8.835460e-07	-5.174775e-10	-6.157722e+00	-4.082432e+01
1.660000e-06	-8.374504e-07	-5.013739e-10	-5.836467e+00	-3.972391e+01
1.670000e-06	-7.912472e-07	-4.853881e-10	-5.514462e+00	-3.860187e+01
1.680000e-06	-7.450175e-07	-4.686999e-10	-5.192271e+00	-3.745789e+01
1.690000e-06	-6.984860e-07	-4.527007e-10	-4.867978e+00	-3.629171e+01
1.700000e-06	-6.518229e-07	-4.345462e-10	-4.542767e+00	-3.510310e+01
1.710000e-06	-6.053610e-07	-4.151971e-10	-4.218959e+00	-3.389189e+01
1.720000e-06	-5.588730e-07	-3.958135e-10	-3.894969e+00	-3.265796e+01
1.730000e-06	-5.123109e-07	-3.774595e-10	-3.570463e+00	-3.140122e+01
1.740000e-06	-4.657274e-07	-3.577323e-10	-3.245807e+00	-3.012165e+01
1.750000e-06	-4.191011e-07	-3.370461e-10	-2.920853e+00	-2.881930e+01
1.760000e-06	-3.724121e-07	-3.175102e-10	-2.595462e+00	-2.749424e+01
1.770000e-06	-3.257602e-07	-2.996069e-10	-2.270330e+00	-2.614664e+01
1.780000e-06	-2.790737e-07	-2.809493e-10	-1.944956e+00	-2.477671e+01
1.790000e-06	-2.323295e-07	-2.637498e-10	-1.619180e+00	-2.338474e+01
1.800000e-06	-1.856540e-07	-2.470675e-10	-1.293884e+00	-2.197105e+01
1.810000e-06	-1.389491e-07	-2.272883e-10	-9.683817e-01	-2.053606e+01
1.820000e-06	-9.221683e-08	-2.043959e-10	-6.426893e-01	-1.908024e+01
1.830000e-06	-4.546605e-08	-1.802021e-10	-3.168678e-01	-1.760414e+01
1.840000e-06	1.319965e-09	-1.573862e-10	9.199268e-03	-1.610835e+01
1.850000e-06	4.803690e-08	-1.379369e-10	3.347849e-01	-1.459355e+01
1.860000e-06	9.473071e-08	-1.179038e-10	6.602094e-01	-1.306046e+01
1.870000e-06	1.414501e-07	-9.504637e-11	9.858120e-01	-1.150989e+01
1.880000e-06	1.881093e-07	-7.266762e-11	1.310995e+00	-9.942695e+00
1.890000e-06	2.347100e-07	-5.200922e-11	1.635771e+00	-8.359792e+00
1.900000e-06	2.813007e-07	-3.203835e-11	1.960477e+00	-6.762158e+00
1.910000e-06	3.279770e-07	-1.179584e-11	2.285779e+00	-5.150822e+00
1.920000e-06	3.746252e-07	1.112561e-11	2.610886e+00	-3.526870e+00
1.930000e-06	4.211648e-07	3.624952e-11	2.935235e+00	-1.891432e+00
1.940000e-06	4.676973e-07	6.006434e-11	3.259536e+00	-2.456874e-01
1.950000e-06	5.141766e-07	8.378049e-11	3.583465e+00	1.409144e+00
1.960000e-06	5.605831e-07	1.060500e-10	3.906887e+00	3.071804e+00
1.970000e-06	6.069368e-07	1.259833e-10	4.229942e+00	4.741001e+00
1.980000e-06	6.533369e-07	1.462604e-10	4.553319e+00	6.415413e+00
1.990000e-06	6.997244e-07	1.666450e-10	4.876609e+00	8.093696e+00
2.000000e-06	7.459848e-07	1.885597e-10	5.199013e+00	9.774482e+00
2.010000e-06	7.922090e-07	2.115193e-10	5.521165e+00	1.145639e+01
2.020000e-06	8.384046e-07	2.365850e-10	5.843117e+00	1.313804e+01
2.030000e-06	8.845580e-07	2.651776e-10	6.164775e+00	1.481802e+01
2.040000e-06	9.306046e-07	2.916770e-10	6.485689e+00	1.649495e+01
2.050000e-06	9.765144e-07	3.155903e-10	6.805649e+00	1.816743e+01
2.060000e-06	1.022393e-06	3.378068e-10	7.125393e+00	1.983410e+01
2.070000e-06	1.068229e-06	3.581066e-10	7.444835e+00	2.149358e+01
2.080000e-06	1.113925e-06	3.765870e-10	7.763309e+00	2.314455e+01
2.090000e-06	1.159516e-06	3.966966e-10	8.081049e+00	2.478569e+01
2.100000e-06	1.205070e-06	4.195122e-10	8.398531e+00	2.641572e+01
2.110000e-06	1.250658e-06	4.430965e-10	8.716245e+00	2.803339e+01
2.120000e-06	1.296164e-06	4.666330e-10	9.033393e+00	2.963752e+01
2.130000e-06	1.341569e-06	4.906224e-10	9.349832e+00	3.122693e+01
2.140000e-06	1.386840e-06	5.132118e-10	9.665342e+00	3.280053e+01
2.150000e-06	1.431935e-06	5.325342e-10	9.979628e+00	3.435725e+01
2.160000e-06	1.476948e-06	5.494756e-10	1.029334e+01	3.589611e+01
2.170000e-06	1.521773e-06	5.668729e-10	1.060574e+01	3.741617e+01
2.180000e-06	1.566542e-06	5.857585e-10	1.091775e+01	3.891656e+01
2.190000e-06	1.611211e-06	6.076084e-10	1.122905e+01	4.039646e+01
2.200000e-06	1.655666e-06	6.299025e-10	1.153888e+01	4.185514e+01
2.210000e-06	1.700058e-06	6.489706e-10	1.184826e+01	4.329193e+01
2.220000e-06	1.744387e-06	6.646389e-10	1.215721e+01	4.470624e+01
2.230000e-06	1.788498e-06	6.793923e-10	1.246463e+01	4.609753e+01
2.240000e-06	1.832452e-06	6.968785e-10	1.277096e+01	4.746535e+01
2.250000e-06	1.876368e-06	7.169831e-10	1.307703e+01	4.880932e+01
2.260000e-06	1.920202e-06	7.364377e-10	1.338252e+01	5.012914e+01
2.270000e-06	1.964002e-06	7.522532e-10	1.368777e+01	5.142456e+01
2.280000e-06	2.007827e-06	7.661331e-10	1.399321e+01	5.269542e+01
2.290000e-06	2.051553e-06	7.809006e-10	1.429795e+01	5.394162e+01
2.300000e-06	2.095124e-06	7.958169e-10	1.460161e+01	5.516314e+01
2.310000e-06	2.138638e-06	8.114708e-10	1.490487e+01	5.636001e+01
2.320000e-06	2.182034e-06	8.294976e-10	1.520731e+01	5.753233e+01
2.330000e-06	2.225228e-06	8.467237e-10	1.550835e+01	5.868027e+01
2.340000e-06	2.268283e-06	8.614951e-10	1.580841e+01	5.980403e+01
2.350000e-06	2.311210e-06	8.738131e-10	1.610758e+01	6.090389e+01
2.360000e-06	2.353984e-06	8.862513e-10	1.640568e+01	6.198018e+01
2.370000e-06	2.396510e-06	8.996754e-10	1.670206e+01	6.303325e+01
2.380000e-06	2.438676e-06	9.140836e-10	1.699593e+01	6.406352e+01
2.390000e-06	2.480542e-06	9.291562e-10	1.728771e+01	6.507145e+01
2.400000e-06	2.522182e-06	9.440943e-10	1.757791e+01	6.605751e+01
2.410000e-06	2.563551e-06	9.579256e-10	1.786623e+01	6.702222e+01
2.420000e-06	2.604556e-06	9.709955e-10	1.815200e+01	6.796612e+01
2.430000e-06	2.645176e-06	9.838052e-10	1.843510e+01	6.888977e+01
2.440000e-06	2.685486e-06	9.953433e-10	1.871603e+01	6.979374e+01
2.450000e-06	2.725625e-06	1.005530e-09	1.899577e+01	7.067864e+01
2.460000e-06	2.765610e-06	1.015941e-09	1.927444e+01	7.154506e+01
2.470000e-06	2.805467e-06	1.026219e-09	1.955222e+01	7.239360e+01
2.480000e-06	2.845225e-06	1.037203e-09	1.982931e+01	7.322488e+01
2.490000e-06	2.884909e-06	1.048872e-09	2.010587e+01	7.403948e+01
2.500000e-06	2.924441e-06	1.060987e-09	2.038139e+01	7.483802e+01
2.510000e-06	2.963773e-06	1.073835e-09	2.065550e+01	7.562107e+01
2.520000e-06	3.002965e-06	1.086253e-09	2.092865e+01	7.638920e+01
2.530000e-06	3.041904e-06	1.097880e-09	2.120003e+01	7.714298e+01
2.540000e-06	3.080640e-06	1.109089e-09	2.146999e+01	7.788292e+01
2.550000e-06	3.119137e-06	1.119150e-09	2.173829e+01	7.860956e+01
2.560000e-06	3.157343e-06	1.127871e-09	2.200456e+01	7.932338e+01
2.570000e-06	3.195336e-06	1.137717e-09	2.226935e+01	8.002485e+01
2.580000e-06	3.233115e-06	1.149209e-09	2.253264e+01	8.071440e+01
2.590000e-06	3.270793e-06	1.161910e-09	2.279523e+01	8.139245e+01
2.600000e-06	3.308325e-06	1.172193e-09	2.305680e+01	8.205937e+01
2.610000e-06	3.345602e-06	1.180396e-09	2.331659e+01	8.271552e+01
2.620000e-06	3.382628e-06	1.189598e-09	2.357464e+01	8.336122e+01
2.630000e-06	3.419397e-06	1.197375e-09	2.383090e+01	8.399675e+01
2.640000e-06	3.455853e-06	1.205080e-09	2.408498e+01	8.462239e+01
2.650000e-06	3.492064e-06	1.217072e-09	2.433734e+01	8.523835e+01
2.660000e-06	3.528094e-06	1.230792e-09	2.458844e+01	8.584485e+01
2.670000e-06	3.563955e-06	1.242217e-09	2.483837e+01	8.644205e+01
2.680000e-06	3.599712e-06	1.249225e-09	2.508758e+01	8.703011e+01
2.690000e-06	3.635316e-06	1.251952e-09	2.533571e+01	8.760915e+01
2.700000e-06	3.670752e-06	1.254946e-09	2.558268e+01	8.817926e+01
2.710000e-06	3.705898e-06	1.263268e-09	2.582762e+01	8.874054e+01
2.720000e-06	3.740751e-06	1.273345e-09	2.607052e+01	8.929302e+01
2.730000e-06	3.775351e-06	1.283240e-09	2.631166e+01	8.983676e+01
2.740000e-06	3.809446e-06	1.294537e-09	2.654928e+01	9.037177e+01
2.750000e-06	3.842957e-06	1.303368e-09	2.678283e+01	9.089807e+01
2.760000e-06	3.876006e-06	1.307181e-09	2.701316e+01	9.141566e+01
2.770000e-06	3.908805e-06	1.309762e-09	2.724174e+01	9.192452e+01
2.780000e-06	3.941250e-06	1.316151e-09	2.746786e+01	9.242463e+01
2.790000e-06	3.973329e-06	1.324122e-09	2.769143e+01	9.291597e+01
2.800000e-06	4.005246e-06	1.332056e-09	2.791387e+01	9.339852e+01
2.810000e-06	4.036969e-06	1.341465e-09	2.813496e+01	9.387224e+01
2.820000e-06	4.068483e-06	1.349843e-09	2.835459e+01	9.433712e+01
2.830000e-06	4.099834e-06	1.356013e-09	2.857309e+01	9.479312e+01
2.840000e-06	4.131042e-06	1.362727e-09	2.879059e+01	9.524022e+01
2.850000e-06	4.161893e-06	1.368496e-09	2.900559e+01	9.567842e+01
2.860000e-06	4.192335e-06	1.372211e-09	2.921776e+01	9.610770e+01
2.870000e-06	4.222490e-06	1.377048e-09	2.942791e+01	9.652808e+01
2.880000e-06	4.252358e-06	1.380892e-09	2.963608e+01	9.693955e+01
2.890000e-06	4.281994e-06	1.382494e-09	2.984262e+01	9.734215e+01
2.900000e-06	4.311356e-06	1.386345e-09	3.004725e+01	9.773591e+01
