# Temperatura_=_-0.4
# Concentracion g/m^3_=_1620.0
# C_Vs_to_Am_M_A/Vsm_=_65563218390.804596
# pendiente_HvsI_1/m_=_3716.3
# ordenada_HvsI_A/m_=_1297.0
# frecuencia_Hz_=_135094.0050759602

Tiempo_(s)	Campo_(V.s)	Magnetizacion_(V.s)	Campo_(kA/m)	Magnetizacion_(A/m)
0.000000e+00	-5.524862e-06	-1.489725e-09	-3.836688e+01	-9.619286e+01
1.000000e-08	-5.524946e-06	-1.491895e-09	-3.836746e+01	-9.618217e+01
2.000000e-08	-5.524837e-06	-1.495314e-09	-3.836670e+01	-9.616960e+01
3.000000e-08	-5.524320e-06	-1.495618e-09	-3.836311e+01	-9.615514e+01
4.000000e-08	-5.523334e-06	-1.494754e-09	-3.835627e+01	-9.613879e+01
5.000000e-08	-5.521758e-06	-1.492712e-09	-3.834532e+01	-9.612051e+01
6.000000e-08	-5.519549e-06	-1.493526e-09	-3.832998e+01	-9.610030e+01
7.000000e-08	-5.516864e-06	-1.516067e-09	-3.831134e+01	-9.607813e+01
8.000000e-08	-5.513681e-06	-1.511658e-09	-3.828923e+01	-9.605396e+01
9.000000e-08	-5.509993e-06	-1.458069e-09	-3.826362e+01	-9.602779e+01
1.000000e-07	-5.505925e-06	-1.459206e-09	-3.823537e+01	-9.599957e+01
1.100000e-07	-5.501536e-06	-1.517710e-09	-3.820489e+01	-9.596927e+01
1.200000e-07	-5.496901e-06	-1.550084e-09	-3.817270e+01	-9.593686e+01
1.300000e-07	-5.491906e-06	-1.466187e-09	-3.813801e+01	-9.590229e+01
1.400000e-07	-5.486599e-06	-1.429031e-09	-3.810116e+01	-9.586552e+01
1.500000e-07	-5.480992e-06	-1.499834e-09	-3.806223e+01	-9.582650e+01
1.600000e-07	-5.474866e-06	-1.531947e-09	-3.801968e+01	-9.578517e+01
1.700000e-07	-5.468430e-06	-1.481719e-09	-3.797499e+01	-9.574148e+01
1.800000e-07	-5.461695e-06	-1.433007e-09	-3.792822e+01	-9.569536e+01
1.900000e-07	-5.454464e-06	-1.493754e-09	-3.787801e+01	-9.564674e+01
2.000000e-07	-5.446838e-06	-1.498459e-09	-3.782505e+01	-9.559555e+01
2.100000e-07	-5.439011e-06	-1.464876e-09	-3.777069e+01	-9.554172e+01
2.200000e-07	-5.430978e-06	-1.417646e-09	-3.771491e+01	-9.548515e+01
2.300000e-07	-5.422577e-06	-1.444826e-09	-3.765657e+01	-9.542576e+01
2.400000e-07	-5.413665e-06	-1.451348e-09	-3.759468e+01	-9.536346e+01
2.500000e-07	-5.404172e-06	-1.445288e-09	-3.752876e+01	-9.529816e+01
2.600000e-07	-5.393983e-06	-1.412139e-09	-3.745800e+01	-9.522975e+01
2.700000e-07	-5.383219e-06	-1.410918e-09	-3.738325e+01	-9.515814e+01
2.800000e-07	-5.371966e-06	-1.412539e-09	-3.730510e+01	-9.508323e+01
2.900000e-07	-5.360281e-06	-1.406138e-09	-3.722396e+01	-9.500489e+01
3.000000e-07	-5.348249e-06	-1.394239e-09	-3.714040e+01	-9.492304e+01
3.100000e-07	-5.335858e-06	-1.391767e-09	-3.705436e+01	-9.483756e+01
3.200000e-07	-5.323079e-06	-1.417711e-09	-3.696562e+01	-9.474834e+01
3.300000e-07	-5.309892e-06	-1.406987e-09	-3.687404e+01	-9.465529e+01
3.400000e-07	-5.296307e-06	-1.382868e-09	-3.677970e+01	-9.455829e+01
3.500000e-07	-5.282345e-06	-1.385171e-09	-3.668274e+01	-9.445726e+01
3.600000e-07	-5.268047e-06	-1.403133e-09	-3.658345e+01	-9.435208e+01
3.700000e-07	-5.253217e-06	-1.372892e-09	-3.648046e+01	-9.424267e+01
3.800000e-07	-5.237802e-06	-1.379290e-09	-3.637342e+01	-9.412895e+01
3.900000e-07	-5.221961e-06	-1.413584e-09	-3.626341e+01	-9.401083e+01
4.000000e-07	-5.205607e-06	-1.392450e-09	-3.614984e+01	-9.388824e+01
4.100000e-07	-5.188700e-06	-1.349628e-09	-3.603243e+01	-9.376111e+01
4.200000e-07	-5.171422e-06	-1.406643e-09	-3.591245e+01	-9.362939e+01
4.300000e-07	-5.153995e-06	-1.412534e-09	-3.579142e+01	-9.349303e+01
4.400000e-07	-5.136288e-06	-1.346855e-09	-3.566846e+01	-9.335200e+01
4.500000e-07	-5.118070e-06	-1.350971e-09	-3.554195e+01	-9.320625e+01
4.600000e-07	-5.099528e-06	-1.419138e-09	-3.541319e+01	-9.305579e+01
4.700000e-07	-5.080557e-06	-1.363694e-09	-3.528145e+01	-9.290059e+01
4.800000e-07	-5.061213e-06	-1.335104e-09	-3.514711e+01	-9.274067e+01
4.900000e-07	-5.041677e-06	-1.392314e-09	-3.501144e+01	-9.257604e+01
5.000000e-07	-5.021867e-06	-1.385490e-09	-3.487388e+01	-9.240673e+01
5.100000e-07	-5.001766e-06	-1.317644e-09	-3.473429e+01	-9.223277e+01
5.200000e-07	-4.981430e-06	-1.367170e-09	-3.459306e+01	-9.205421e+01
5.300000e-07	-4.960809e-06	-1.393318e-09	-3.444986e+01	-9.187111e+01
5.400000e-07	-4.939724e-06	-1.329945e-09	-3.430344e+01	-9.168353e+01
5.500000e-07	-4.918242e-06	-1.333881e-09	-3.415426e+01	-9.149155e+01
5.600000e-07	-4.896515e-06	-1.387804e-09	-3.400338e+01	-9.129525e+01
5.700000e-07	-4.874534e-06	-1.341746e-09	-3.385074e+01	-9.109473e+01
5.800000e-07	-4.852202e-06	-1.314704e-09	-3.369565e+01	-9.089008e+01
5.900000e-07	-4.829508e-06	-1.362946e-09	-3.353806e+01	-9.068139e+01
6.000000e-07	-4.806477e-06	-1.351873e-09	-3.337812e+01	-9.046877e+01
6.100000e-07	-4.782994e-06	-1.313513e-09	-3.321504e+01	-9.025234e+01
6.200000e-07	-4.759201e-06	-1.345025e-09	-3.304981e+01	-9.003219e+01
6.300000e-07	-4.735266e-06	-1.357345e-09	-3.288360e+01	-8.980843e+01
6.400000e-07	-4.711089e-06	-1.314875e-09	-3.271571e+01	-8.958116e+01
6.500000e-07	-4.686662e-06	-1.326052e-09	-3.254607e+01	-8.935049e+01
6.600000e-07	-4.661881e-06	-1.341539e-09	-3.237399e+01	-8.911652e+01
6.700000e-07	-4.636583e-06	-1.311925e-09	-3.219831e+01	-8.887932e+01
6.800000e-07	-4.610682e-06	-1.303793e-09	-3.201844e+01	-8.863900e+01
6.900000e-07	-4.584292e-06	-1.329707e-09	-3.183518e+01	-8.839560e+01
7.000000e-07	-4.557522e-06	-1.309471e-09	-3.164928e+01	-8.814921e+01
7.100000e-07	-4.530278e-06	-1.294315e-09	-3.146009e+01	-8.789987e+01
7.200000e-07	-4.502672e-06	-1.305198e-09	-3.126837e+01	-8.764762e+01
7.300000e-07	-4.474848e-06	-1.303150e-09	-3.107515e+01	-8.739248e+01
7.400000e-07	-4.446816e-06	-1.280014e-09	-3.088049e+01	-8.713446e+01
7.500000e-07	-4.418603e-06	-1.285778e-09	-3.068457e+01	-8.687356e+01
7.600000e-07	-4.390174e-06	-1.282756e-09	-3.048715e+01	-8.660975e+01
7.700000e-07	-4.361535e-06	-1.268252e-09	-3.028826e+01	-8.634301e+01
7.800000e-07	-4.332545e-06	-1.264451e-09	-3.008694e+01	-8.607326e+01
7.900000e-07	-4.303124e-06	-1.268293e-09	-2.988263e+01	-8.580045e+01
8.000000e-07	-4.273329e-06	-1.248831e-09	-2.967573e+01	-8.552448e+01
8.100000e-07	-4.243319e-06	-1.239855e-09	-2.946733e+01	-8.524524e+01
8.200000e-07	-4.213221e-06	-1.241317e-09	-2.925831e+01	-8.496263e+01
8.300000e-07	-4.182734e-06	-1.232675e-09	-2.904660e+01	-8.467650e+01
8.400000e-07	-4.151770e-06	-1.220491e-09	-2.883157e+01	-8.438671e+01
8.500000e-07	-4.120536e-06	-1.224818e-09	-2.861467e+01	-8.409309e+01
8.600000e-07	-4.089068e-06	-1.221462e-09	-2.839614e+01	-8.379546e+01
8.700000e-07	-4.057420e-06	-1.210125e-09	-2.817636e+01	-8.349365e+01
8.800000e-07	-4.025663e-06	-1.210660e-09	-2.795584e+01	-8.318745e+01
8.900000e-07	-3.993768e-06	-1.209050e-09	-2.773434e+01	-8.287666e+01
9.000000e-07	-3.961674e-06	-1.193798e-09	-2.751147e+01	-8.256108e+01
9.100000e-07	-3.929243e-06	-1.185375e-09	-2.728626e+01	-8.224049e+01
9.200000e-07	-3.896467e-06	-1.185513e-09	-2.705864e+01	-8.191467e+01
9.300000e-07	-3.863343e-06	-1.173847e-09	-2.682862e+01	-8.158343e+01
9.400000e-07	-3.829821e-06	-1.166422e-09	-2.659583e+01	-8.124653e+01
9.500000e-07	-3.795817e-06	-1.168378e-09	-2.635969e+01	-8.090377e+01
9.600000e-07	-3.761351e-06	-1.165863e-09	-2.612034e+01	-8.055496e+01
9.700000e-07	-3.726522e-06	-1.153557e-09	-2.587848e+01	-8.019989e+01
9.800000e-07	-3.691280e-06	-1.152101e-09	-2.563374e+01	-7.983838e+01
9.900000e-07	-3.655725e-06	-1.148418e-09	-2.538683e+01	-7.947027e+01
1.000000e-06	-3.620019e-06	-1.138818e-09	-2.513888e+01	-7.909539e+01
1.010000e-06	-3.584199e-06	-1.133040e-09	-2.489013e+01	-7.871360e+01
1.020000e-06	-3.548265e-06	-1.135276e-09	-2.464059e+01	-7.832478e+01
1.030000e-06	-3.512169e-06	-1.127447e-09	-2.438992e+01	-7.792882e+01
1.040000e-06	-3.475857e-06	-1.119938e-09	-2.413776e+01	-7.752563e+01
1.050000e-06	-3.439348e-06	-1.115812e-09	-2.388422e+01	-7.711515e+01
1.060000e-06	-3.402617e-06	-1.107299e-09	-2.362915e+01	-7.669733e+01
1.070000e-06	-3.365517e-06	-1.091901e-09	-2.337151e+01	-7.627216e+01
1.080000e-06	-3.328120e-06	-1.086997e-09	-2.311181e+01	-7.583963e+01
1.090000e-06	-3.290524e-06	-1.082422e-09	-2.285073e+01	-7.539977e+01
1.100000e-06	-3.252754e-06	-1.073582e-09	-2.258844e+01	-7.495261e+01
1.110000e-06	-3.214759e-06	-1.067466e-09	-2.232458e+01	-7.449824e+01
1.120000e-06	-3.176485e-06	-1.065084e-09	-2.205880e+01	-7.403672e+01
1.130000e-06	-3.137968e-06	-1.056670e-09	-2.179132e+01	-7.356818e+01
1.140000e-06	-3.099281e-06	-1.050555e-09	-2.152266e+01	-7.309274e+01
1.150000e-06	-3.060409e-06	-1.046633e-09	-2.125272e+01	-7.261053e+01
1.160000e-06	-3.021273e-06	-1.038669e-09	-2.098094e+01	-7.212172e+01
1.170000e-06	-2.981898e-06	-1.029349e-09	-2.070751e+01	-7.162648e+01
1.180000e-06	-2.942328e-06	-1.023163e-09	-2.043271e+01	-7.112499e+01
1.190000e-06	-2.902702e-06	-1.016872e-09	-2.015753e+01	-7.061743e+01
1.200000e-06	-2.862949e-06	-1.007015e-09	-1.988148e+01	-7.010401e+01
1.210000e-06	-2.822980e-06	-1.000011e-09	-1.960391e+01	-6.958490e+01
1.220000e-06	-2.782866e-06	-9.909559e-10	-1.932535e+01	-6.906033e+01
1.230000e-06	-2.742653e-06	-9.792648e-10	-1.904609e+01	-6.853046e+01
1.240000e-06	-2.702296e-06	-9.683678e-10	-1.876584e+01	-6.799549e+01
1.250000e-06	-2.661766e-06	-9.603188e-10	-1.848438e+01	-6.745560e+01
1.260000e-06	-2.621011e-06	-9.516902e-10	-1.820136e+01	-6.691093e+01
1.270000e-06	-2.579955e-06	-9.443215e-10	-1.791625e+01	-6.636164e+01
1.280000e-06	-2.538640e-06	-9.387689e-10	-1.762934e+01	-6.580785e+01
1.290000e-06	-2.497085e-06	-9.333112e-10	-1.734077e+01	-6.524965e+01
1.300000e-06	-2.455258e-06	-9.210714e-10	-1.705031e+01	-6.468712e+01
1.310000e-06	-2.413054e-06	-9.080908e-10	-1.675723e+01	-6.412029e+01
1.320000e-06	-2.370559e-06	-8.978504e-10	-1.646212e+01	-6.354918e+01
1.330000e-06	-2.327860e-06	-8.881738e-10	-1.616560e+01	-6.297377e+01
1.340000e-06	-2.284851e-06	-8.795747e-10	-1.586693e+01	-6.239397e+01
1.350000e-06	-2.241613e-06	-8.746252e-10	-1.556667e+01	-6.180970e+01
1.360000e-06	-2.198181e-06	-8.675882e-10	-1.526506e+01	-6.122080e+01
1.370000e-06	-2.154582e-06	-8.571844e-10	-1.496229e+01	-6.062708e+01
1.380000e-06	-2.110861e-06	-8.434275e-10	-1.465867e+01	-6.002832e+01
1.390000e-06	-2.067023e-06	-8.274954e-10	-1.435424e+01	-5.942422e+01
1.400000e-06	-2.023115e-06	-8.106274e-10	-1.404933e+01	-5.881448e+01
1.410000e-06	-1.979144e-06	-7.981473e-10	-1.374398e+01	-5.819870e+01
1.420000e-06	-1.935144e-06	-7.894206e-10	-1.343842e+01	-5.757649e+01
1.430000e-06	-1.891112e-06	-7.834427e-10	-1.313265e+01	-5.694737e+01
1.440000e-06	-1.846928e-06	-7.763452e-10	-1.282582e+01	-5.631084e+01
1.450000e-06	-1.802610e-06	-7.672645e-10	-1.251805e+01	-5.566635e+01
1.460000e-06	-1.758211e-06	-7.566112e-10	-1.220973e+01	-5.501332e+01
1.470000e-06	-1.713665e-06	-7.428975e-10	-1.190039e+01	-5.435111e+01
1.480000e-06	-1.668963e-06	-7.277978e-10	-1.158996e+01	-5.367907e+01
1.490000e-06	-1.624113e-06	-7.152989e-10	-1.127850e+01	-5.299651e+01
1.500000e-06	-1.579114e-06	-7.060116e-10	-1.096600e+01	-5.230269e+01
1.510000e-06	-1.533991e-06	-6.985458e-10	-1.065266e+01	-5.159688e+01
1.520000e-06	-1.488761e-06	-6.906933e-10	-1.033856e+01	-5.087829e+01
1.530000e-06	-1.443492e-06	-6.810153e-10	-1.002420e+01	-5.014616e+01
1.540000e-06	-1.398183e-06	-6.697421e-10	-9.709547e+00	-4.939968e+01
1.550000e-06	-1.352721e-06	-6.551158e-10	-9.393840e+00	-4.863804e+01
1.560000e-06	-1.307055e-06	-6.392256e-10	-9.076720e+00	-4.786045e+01
1.570000e-06	-1.261342e-06	-6.245765e-10	-8.759272e+00	-4.706609e+01
1.580000e-06	-1.215610e-06	-6.107366e-10	-8.441691e+00	-4.625418e+01
1.590000e-06	-1.169715e-06	-5.981319e-10	-8.122974e+00	-4.542393e+01
1.600000e-06	-1.123776e-06	-5.879240e-10	-7.803957e+00	-4.457458e+01
1.610000e-06	-1.077859e-06	-5.767872e-10	-7.485085e+00	-4.370539e+01
1.620000e-06	-1.031856e-06	-5.641347e-10	-7.165626e+00	-4.281565e+01
1.630000e-06	-9.858145e-07	-5.492632e-10	-6.845895e+00	-4.190470e+01
1.640000e-06	-9.396493e-07	-5.329639e-10	-6.525305e+00	-4.097190e+01
1.650000e-06	-8.933452e-07	-5.172094e-10	-6.203750e+00	-4.001667e+01
1.660000e-06	-8.469962e-07	-5.019860e-10	-5.881884e+00	-3.903847e+01
1.670000e-06	-8.005595e-07	-4.862675e-10	-5.559409e+00	-3.803681e+01
1.680000e-06	-7.541075e-07	-4.719327e-10	-5.236828e+00	-3.701127e+01
1.690000e-06	-7.075850e-07	-4.569797e-10	-4.913756e+00	-3.596150e+01
1.700000e-06	-6.609346e-07	-4.417211e-10	-4.589797e+00	-3.488720e+01
1.710000e-06	-6.142109e-07	-4.245997e-10	-4.265329e+00	-3.378815e+01
1.720000e-06	-5.674662e-07	-4.074889e-10	-3.940715e+00	-3.266419e+01
1.730000e-06	-5.207212e-07	-3.888741e-10	-3.616099e+00	-3.151525e+01
1.740000e-06	-4.738259e-07	-3.686588e-10	-3.290439e+00	-3.034134e+01
1.750000e-06	-4.269036e-07	-3.499041e-10	-2.964591e+00	-2.914252e+01
1.760000e-06	-3.800893e-07	-3.334929e-10	-2.639494e+00	-2.791896e+01
1.770000e-06	-3.332305e-07	-3.192564e-10	-2.314087e+00	-2.667091e+01
1.780000e-06	-2.863220e-07	-3.038809e-10	-1.988336e+00	-2.539867e+01
1.790000e-06	-2.393753e-07	-2.863792e-10	-1.662319e+00	-2.410266e+01
1.800000e-06	-1.924646e-07	-2.695282e-10	-1.336552e+00	-2.278335e+01
1.810000e-06	-1.455769e-07	-2.498477e-10	-1.010945e+00	-2.144130e+01
1.820000e-06	-9.868876e-08	-2.279947e-10	-6.853347e-01	-2.007715e+01
1.830000e-06	-5.183778e-08	-2.060608e-10	-3.599825e-01	-1.869161e+01
1.840000e-06	-5.005010e-09	-1.850148e-10	-3.475682e-02	-1.728546e+01
1.850000e-06	4.180184e-08	-1.679539e-10	2.902889e-01	-1.585956e+01
1.860000e-06	8.862310e-08	-1.506602e-10	6.154347e-01	-1.441483e+01
1.870000e-06	1.354755e-07	-1.305286e-10	9.407967e-01	-1.295225e+01
1.880000e-06	1.823800e-07	-1.078649e-10	1.266521e+00	-1.147286e+01
1.890000e-06	2.292949e-07	-8.894917e-11	1.592316e+00	-9.977759e+00
1.900000e-06	2.761305e-07	-6.930518e-11	1.917562e+00	-8.468087e+00
1.910000e-06	3.229573e-07	-4.871697e-11	2.242746e+00	-6.945040e+00
1.920000e-06	3.698052e-07	-2.796804e-11	2.568077e+00	-5.409848e+00
1.930000e-06	4.165959e-07	-4.566645e-12	2.893010e+00	-3.863779e+00
1.940000e-06	4.632957e-07	1.695768e-11	3.217313e+00	-2.308131e+00
1.950000e-06	5.099827e-07	3.668274e-11	3.541526e+00	-7.442264e-01
1.960000e-06	5.566568e-07	5.472462e-11	3.865650e+00	8.265923e-01
1.970000e-06	6.033388e-07	7.599551e-11	4.189829e+00	2.402968e+00
1.980000e-06	6.499664e-07	9.794743e-11	4.513630e+00	3.983536e+00
1.990000e-06	6.964784e-07	1.191670e-10	4.836628e+00	5.566925e+00
2.000000e-06	7.429894e-07	1.438605e-10	5.159619e+00	7.151767e+00
2.010000e-06	7.894404e-07	1.678367e-10	5.482194e+00	8.736702e+00
2.020000e-06	8.357128e-07	1.901683e-10	5.803527e+00	1.032038e+01
2.030000e-06	8.819505e-07	2.135296e-10	6.124621e+00	1.190146e+01
2.040000e-06	9.281987e-07	2.377904e-10	6.445787e+00	1.347863e+01
2.050000e-06	9.743871e-07	2.610230e-10	6.766538e+00	1.505062e+01
2.060000e-06	1.020477e-06	2.825135e-10	7.086607e+00	1.661614e+01
2.070000e-06	1.066445e-06	3.031732e-10	7.405827e+00	1.817399e+01
2.080000e-06	1.112409e-06	3.242181e-10	7.725020e+00	1.972296e+01
2.090000e-06	1.158297e-06	3.467510e-10	8.043685e+00	2.126192e+01
2.100000e-06	1.204098e-06	3.698950e-10	8.361745e+00	2.278975e+01
2.110000e-06	1.249810e-06	3.925108e-10	8.679189e+00	2.430539e+01
2.120000e-06	1.295420e-06	4.148843e-10	8.995922e+00	2.580783e+01
2.130000e-06	1.340991e-06	4.339114e-10	9.312387e+00	2.729610e+01
2.140000e-06	1.386418e-06	4.522837e-10	9.627844e+00	2.876929e+01
2.150000e-06	1.431723e-06	4.696183e-10	9.942461e+00	3.022655e+01
2.160000e-06	1.476886e-06	4.879638e-10	1.025610e+01	3.166707e+01
2.170000e-06	1.521935e-06	5.094772e-10	1.056893e+01	3.309010e+01
2.180000e-06	1.566932e-06	5.316009e-10	1.088141e+01	3.449494e+01
2.190000e-06	1.611746e-06	5.547625e-10	1.119262e+01	3.588095e+01
2.200000e-06	1.656362e-06	5.764025e-10	1.150244e+01	3.724756e+01
2.210000e-06	1.700885e-06	5.922578e-10	1.181164e+01	3.859423e+01
2.220000e-06	1.745377e-06	6.039818e-10	1.212060e+01	3.992050e+01
2.230000e-06	1.789773e-06	6.167919e-10	1.242891e+01	4.122593e+01
2.240000e-06	1.834030e-06	6.331362e-10	1.273625e+01	4.251018e+01
2.250000e-06	1.878139e-06	6.530691e-10	1.304256e+01	4.377291e+01
2.260000e-06	1.922219e-06	6.746824e-10	1.334867e+01	4.501387e+01
2.270000e-06	1.966251e-06	6.947083e-10	1.365444e+01	4.623285e+01
2.280000e-06	2.010175e-06	7.122268e-10	1.395947e+01	4.742967e+01
2.290000e-06	2.054034e-06	7.267097e-10	1.426404e+01	4.860421e+01
2.300000e-06	2.097840e-06	7.372363e-10	1.456825e+01	4.975640e+01
2.310000e-06	2.141560e-06	7.467725e-10	1.487186e+01	5.088620e+01
2.320000e-06	2.185144e-06	7.615914e-10	1.517453e+01	5.199361e+01
2.330000e-06	2.228600e-06	7.807127e-10	1.547630e+01	5.307868e+01
2.340000e-06	2.271933e-06	7.978932e-10	1.577722e+01	5.414147e+01
2.350000e-06	2.314991e-06	8.125671e-10	1.607623e+01	5.518210e+01
2.360000e-06	2.357748e-06	8.250391e-10	1.637316e+01	5.620072e+01
2.370000e-06	2.400303e-06	8.349412e-10	1.666867e+01	5.719749e+01
2.380000e-06	2.442599e-06	8.431528e-10	1.696240e+01	5.817261e+01
2.390000e-06	2.484638e-06	8.537631e-10	1.725433e+01	5.912631e+01
2.400000e-06	2.526275e-06	8.666587e-10	1.754347e+01	6.005883e+01
2.410000e-06	2.567437e-06	8.816742e-10	1.782932e+01	6.097044e+01
2.420000e-06	2.608349e-06	8.964924e-10	1.811343e+01	6.186144e+01
2.430000e-06	2.649145e-06	9.075958e-10	1.839674e+01	6.273213e+01
2.440000e-06	2.689745e-06	9.171046e-10	1.867868e+01	6.358282e+01
2.450000e-06	2.730148e-06	9.263504e-10	1.895925e+01	6.441387e+01
2.460000e-06	2.770366e-06	9.362934e-10	1.923854e+01	6.522561e+01
2.470000e-06	2.810409e-06	9.475836e-10	1.951662e+01	6.601842e+01
2.480000e-06	2.850367e-06	9.578825e-10	1.979410e+01	6.679265e+01
2.490000e-06	2.890201e-06	9.679710e-10	2.007072e+01	6.754870e+01
2.500000e-06	2.929803e-06	9.783908e-10	2.034574e+01	6.828695e+01
2.510000e-06	2.969294e-06	9.891853e-10	2.061998e+01	6.900779e+01
2.520000e-06	3.008669e-06	9.997017e-10	2.089341e+01	6.971162e+01
2.530000e-06	3.047785e-06	1.009605e-09	2.116505e+01	7.039885e+01
2.540000e-06	3.086639e-06	1.020069e-09	2.143487e+01	7.106987e+01
2.550000e-06	3.125237e-06	1.027379e-09	2.170291e+01	7.172509e+01
2.560000e-06	3.163618e-06	1.030452e-09	2.196944e+01	7.236491e+01
2.570000e-06	3.201887e-06	1.035524e-09	2.223520e+01	7.298975e+01
2.580000e-06	3.240008e-06	1.043699e-09	2.249993e+01	7.360001e+01
2.590000e-06	3.277801e-06	1.054763e-09	2.276237e+01	7.419609e+01
2.600000e-06	3.315232e-06	1.066942e-09	2.302231e+01	7.477838e+01
2.610000e-06	3.352519e-06	1.076380e-09	2.328125e+01	7.534729e+01
2.620000e-06	3.389670e-06	1.083767e-09	2.353924e+01	7.590321e+01
2.630000e-06	3.426504e-06	1.089023e-09	2.379503e+01	7.644651e+01
2.640000e-06	3.463068e-06	1.093530e-09	2.404895e+01	7.697759e+01
2.650000e-06	3.499412e-06	1.097431e-09	2.430133e+01	7.749680e+01
2.660000e-06	3.535536e-06	1.104813e-09	2.455219e+01	7.800452e+01
2.670000e-06	3.571507e-06	1.115271e-09	2.480199e+01	7.850111e+01
2.680000e-06	3.607400e-06	1.125076e-09	2.505125e+01	7.898690e+01
2.690000e-06	3.643195e-06	1.131546e-09	2.529982e+01	7.946224e+01
2.700000e-06	3.678805e-06	1.136013e-09	2.554711e+01	7.992746e+01
2.710000e-06	3.714178e-06	1.141697e-09	2.579276e+01	8.038288e+01
2.720000e-06	3.749289e-06	1.148039e-09	2.603658e+01	8.082880e+01
2.730000e-06	3.783986e-06	1.152818e-09	2.627753e+01	8.126551e+01
2.740000e-06	3.818184e-06	1.156948e-09	2.651501e+01	8.169330e+01
2.750000e-06	3.851887e-06	1.162352e-09	2.674906e+01	8.211245e+01
2.760000e-06	3.885096e-06	1.169792e-09	2.697968e+01	8.252320e+01
2.770000e-06	3.917916e-06	1.178917e-09	2.720759e+01	8.292580e+01
2.780000e-06	3.950392e-06	1.188223e-09	2.743312e+01	8.332048e+01
2.790000e-06	3.982608e-06	1.195892e-09	2.765684e+01	8.370746e+01
2.800000e-06	4.014617e-06	1.200527e-09	2.787912e+01	8.408695e+01
2.810000e-06	4.046427e-06	1.201760e-09	2.810003e+01	8.445913e+01
2.820000e-06	4.078083e-06	1.203582e-09	2.831986e+01	8.482417e+01
2.830000e-06	4.109568e-06	1.208581e-09	2.853850e+01	8.518224e+01
2.840000e-06	4.140889e-06	1.216098e-09	2.875601e+01	8.553349e+01
2.850000e-06	4.171923e-06	1.225012e-09	2.897152e+01	8.587805e+01
2.860000e-06	4.202514e-06	1.232496e-09	2.918396e+01	8.621604e+01
2.870000e-06	4.232721e-06	1.237823e-09	2.939373e+01	8.654756e+01
2.880000e-06	4.262719e-06	1.239131e-09	2.960204e+01	8.687273e+01
2.890000e-06	4.292435e-06	1.237456e-09	2.980841e+01	8.719160e+01
2.900000e-06	4.321880e-06	1.237382e-09	3.001289e+01	8.750427e+01
