# Temperatura_=_-14.78
# Concentracion g/m^3_=_1620.0
# C_Vs_to_Am_M_A/Vsm_=_65563218390.804596
# pendiente_HvsI_1/m_=_3716.3
# ordenada_HvsI_A/m_=_1297.0
# frecuencia_Hz_=_135103.652976383

Tiempo_(s)	Campo_(V.s)	Magnetizacion_(V.s)	Campo_(kA/m)	Magnetizacion_(A/m)
0.000000e+00	-5.510087e-06	-7.638407e-10	-3.837105e+01	-5.140227e+01
1.000000e-08	-5.510333e-06	-7.594712e-10	-3.837276e+01	-5.140463e+01
2.000000e-08	-5.510343e-06	-7.560780e-10	-3.837283e+01	-5.140718e+01
3.000000e-08	-5.509986e-06	-7.553433e-10	-3.837035e+01	-5.140983e+01
4.000000e-08	-5.509185e-06	-7.552149e-10	-3.836477e+01	-5.141250e+01
5.000000e-08	-5.507936e-06	-7.529807e-10	-3.835607e+01	-5.141508e+01
6.000000e-08	-5.506109e-06	-7.499581e-10	-3.834335e+01	-5.141746e+01
7.000000e-08	-5.503639e-06	-7.504615e-10	-3.832615e+01	-5.141953e+01
8.000000e-08	-5.500652e-06	-7.741215e-10	-3.830535e+01	-5.142116e+01
9.000000e-08	-5.497153e-06	-7.852849e-10	-3.828098e+01	-5.142222e+01
1.000000e-07	-5.493157e-06	-7.275213e-10	-3.825316e+01	-5.142259e+01
1.100000e-07	-5.488882e-06	-6.709717e-10	-3.822338e+01	-5.142212e+01
1.200000e-07	-5.484520e-06	-7.208527e-10	-3.819301e+01	-5.142068e+01
1.300000e-07	-5.479958e-06	-8.171309e-10	-3.816124e+01	-5.141813e+01
1.400000e-07	-5.474930e-06	-7.925988e-10	-3.812623e+01	-5.141434e+01
1.500000e-07	-5.469376e-06	-6.849687e-10	-3.808755e+01	-5.140917e+01
1.600000e-07	-5.463429e-06	-7.133438e-10	-3.804614e+01	-5.140250e+01
1.700000e-07	-5.457194e-06	-8.000990e-10	-3.800271e+01	-5.139420e+01
1.800000e-07	-5.450500e-06	-8.132521e-10	-3.795610e+01	-5.138415e+01
1.900000e-07	-5.443324e-06	-6.985414e-10	-3.790613e+01	-5.137225e+01
2.000000e-07	-5.435931e-06	-7.121767e-10	-3.785464e+01	-5.135838e+01
2.100000e-07	-5.428284e-06	-7.870557e-10	-3.780139e+01	-5.134247e+01
2.200000e-07	-5.420320e-06	-8.380547e-10	-3.774593e+01	-5.132442e+01
2.300000e-07	-5.412117e-06	-7.712505e-10	-3.768881e+01	-5.130417e+01
2.400000e-07	-5.403630e-06	-7.478815e-10	-3.762971e+01	-5.128167e+01
2.500000e-07	-5.394549e-06	-7.733768e-10	-3.756647e+01	-5.125686e+01
2.600000e-07	-5.384647e-06	-7.926354e-10	-3.749751e+01	-5.122973e+01
2.700000e-07	-5.374109e-06	-7.536694e-10	-3.742413e+01	-5.120026e+01
2.800000e-07	-5.363145e-06	-7.277893e-10	-3.734778e+01	-5.116844e+01
2.900000e-07	-5.351741e-06	-7.607123e-10	-3.726837e+01	-5.113429e+01
3.000000e-07	-5.339977e-06	-7.689592e-10	-3.718644e+01	-5.109785e+01
3.100000e-07	-5.327848e-06	-7.460634e-10	-3.710198e+01	-5.105916e+01
3.200000e-07	-5.315217e-06	-7.185735e-10	-3.701402e+01	-5.101827e+01
3.300000e-07	-5.302158e-06	-7.734805e-10	-3.692308e+01	-5.097526e+01
3.400000e-07	-5.288790e-06	-7.717477e-10	-3.682999e+01	-5.093021e+01
3.500000e-07	-5.275092e-06	-7.347841e-10	-3.673460e+01	-5.088323e+01
3.600000e-07	-5.260867e-06	-7.112745e-10	-3.663553e+01	-5.083443e+01
3.700000e-07	-5.246173e-06	-7.708513e-10	-3.653321e+01	-5.078392e+01
3.800000e-07	-5.231159e-06	-7.470108e-10	-3.642865e+01	-5.073184e+01
3.900000e-07	-5.215457e-06	-7.275305e-10	-3.631931e+01	-5.067832e+01
4.000000e-07	-5.198988e-06	-7.577213e-10	-3.620462e+01	-5.062352e+01
4.100000e-07	-5.182229e-06	-7.769299e-10	-3.608792e+01	-5.056759e+01
4.200000e-07	-5.165251e-06	-7.033400e-10	-3.596969e+01	-5.051067e+01
4.300000e-07	-5.147927e-06	-7.287299e-10	-3.584905e+01	-5.045294e+01
4.400000e-07	-5.130375e-06	-7.894202e-10	-3.572682e+01	-5.039455e+01
4.500000e-07	-5.112575e-06	-7.420397e-10	-3.560286e+01	-5.033565e+01
4.600000e-07	-5.094309e-06	-6.842620e-10	-3.547567e+01	-5.027642e+01
4.700000e-07	-5.075572e-06	-7.625420e-10	-3.534519e+01	-5.021699e+01
4.800000e-07	-5.056529e-06	-7.721653e-10	-3.521257e+01	-5.015751e+01
4.900000e-07	-5.037131e-06	-7.023647e-10	-3.507748e+01	-5.009813e+01
5.000000e-07	-5.017420e-06	-7.331736e-10	-3.494022e+01	-5.003898e+01
5.100000e-07	-4.997553e-06	-7.808371e-10	-3.480188e+01	-4.998017e+01
5.200000e-07	-4.977434e-06	-7.103714e-10	-3.466177e+01	-4.992182e+01
5.300000e-07	-4.956991e-06	-7.065194e-10	-3.451941e+01	-4.986401e+01
5.400000e-07	-4.936243e-06	-7.811981e-10	-3.437492e+01	-4.980684e+01
5.500000e-07	-4.915191e-06	-7.385452e-10	-3.422832e+01	-4.975036e+01
5.600000e-07	-4.893764e-06	-6.812704e-10	-3.407911e+01	-4.969463e+01
5.700000e-07	-4.871950e-06	-7.429913e-10	-3.392720e+01	-4.963968e+01
5.800000e-07	-4.849801e-06	-7.616564e-10	-3.377296e+01	-4.958552e+01
5.900000e-07	-4.827218e-06	-7.004906e-10	-3.361570e+01	-4.953214e+01
6.000000e-07	-4.804204e-06	-7.326358e-10	-3.345543e+01	-4.947953e+01
6.100000e-07	-4.781007e-06	-7.694657e-10	-3.329390e+01	-4.942765e+01
6.200000e-07	-4.757597e-06	-7.256681e-10	-3.313087e+01	-4.937642e+01
6.300000e-07	-4.733885e-06	-7.150427e-10	-3.296575e+01	-4.932578e+01
6.400000e-07	-4.709962e-06	-7.593957e-10	-3.279916e+01	-4.927562e+01
6.500000e-07	-4.685813e-06	-7.325395e-10	-3.263098e+01	-4.922583e+01
6.600000e-07	-4.661276e-06	-7.152839e-10	-3.246012e+01	-4.917627e+01
6.700000e-07	-4.636284e-06	-7.402042e-10	-3.228608e+01	-4.912679e+01
6.800000e-07	-4.610732e-06	-7.383693e-10	-3.210814e+01	-4.907723e+01
6.900000e-07	-4.584552e-06	-7.112216e-10	-3.192582e+01	-4.902740e+01
7.000000e-07	-4.557908e-06	-7.356713e-10	-3.174028e+01	-4.897711e+01
7.100000e-07	-4.530898e-06	-7.393651e-10	-3.155219e+01	-4.892615e+01
7.200000e-07	-4.503524e-06	-7.168690e-10	-3.136157e+01	-4.887431e+01
7.300000e-07	-4.475882e-06	-7.178201e-10	-3.116907e+01	-4.882136e+01
7.400000e-07	-4.448076e-06	-7.348438e-10	-3.097543e+01	-4.876706e+01
7.500000e-07	-4.420064e-06	-7.170316e-10	-3.078036e+01	-4.871118e+01
7.600000e-07	-4.391818e-06	-7.144956e-10	-3.058367e+01	-4.865348e+01
7.700000e-07	-4.363267e-06	-7.247818e-10	-3.038484e+01	-4.859369e+01
7.800000e-07	-4.334407e-06	-7.192329e-10	-3.018387e+01	-4.853159e+01
7.900000e-07	-4.305238e-06	-7.132663e-10	-2.998074e+01	-4.846693e+01
8.000000e-07	-4.275774e-06	-7.253951e-10	-2.977556e+01	-4.839945e+01
8.100000e-07	-4.246035e-06	-7.166485e-10	-2.956847e+01	-4.832894e+01
8.200000e-07	-4.215807e-06	-7.000529e-10	-2.935797e+01	-4.825515e+01
8.300000e-07	-4.185271e-06	-7.055790e-10	-2.914532e+01	-4.817786e+01
8.400000e-07	-4.154683e-06	-7.050516e-10	-2.893231e+01	-4.809686e+01
8.500000e-07	-4.123824e-06	-6.916963e-10	-2.871742e+01	-4.801195e+01
8.600000e-07	-4.092598e-06	-6.966448e-10	-2.849996e+01	-4.792295e+01
8.700000e-07	-4.061188e-06	-7.079212e-10	-2.828123e+01	-4.782967e+01
8.800000e-07	-4.029633e-06	-6.967670e-10	-2.806149e+01	-4.773196e+01
8.900000e-07	-3.997894e-06	-6.952961e-10	-2.784047e+01	-4.762966e+01
9.000000e-07	-3.965953e-06	-7.014159e-10	-2.761804e+01	-4.752267e+01
9.100000e-07	-3.933722e-06	-6.934709e-10	-2.739359e+01	-4.741086e+01
9.200000e-07	-3.901213e-06	-6.823576e-10	-2.716720e+01	-4.729415e+01
9.300000e-07	-3.868364e-06	-6.898957e-10	-2.693845e+01	-4.717246e+01
9.400000e-07	-3.835059e-06	-6.860086e-10	-2.670652e+01	-4.704574e+01
9.500000e-07	-3.801210e-06	-6.756005e-10	-2.647080e+01	-4.691396e+01
9.600000e-07	-3.766894e-06	-6.778701e-10	-2.623183e+01	-4.677709e+01
9.700000e-07	-3.732270e-06	-6.816809e-10	-2.599072e+01	-4.663514e+01
9.800000e-07	-3.697341e-06	-6.667084e-10	-2.574748e+01	-4.648812e+01
9.900000e-07	-3.662086e-06	-6.652134e-10	-2.550197e+01	-4.633609e+01
1.000000e-06	-3.626584e-06	-6.699793e-10	-2.525474e+01	-4.617908e+01
1.010000e-06	-3.590881e-06	-6.656051e-10	-2.500612e+01	-4.601717e+01
1.020000e-06	-3.555037e-06	-6.618959e-10	-2.475651e+01	-4.585044e+01
1.030000e-06	-3.519119e-06	-6.706932e-10	-2.450638e+01	-4.567899e+01
1.040000e-06	-3.482981e-06	-6.667039e-10	-2.425473e+01	-4.550292e+01
1.050000e-06	-3.446545e-06	-6.596301e-10	-2.400099e+01	-4.532237e+01
1.060000e-06	-3.409927e-06	-6.610963e-10	-2.374599e+01	-4.513745e+01
1.070000e-06	-3.373098e-06	-6.618046e-10	-2.348952e+01	-4.494831e+01
1.080000e-06	-3.335939e-06	-6.524441e-10	-2.323076e+01	-4.475508e+01
1.090000e-06	-3.298502e-06	-6.514520e-10	-2.297005e+01	-4.455792e+01
1.100000e-06	-3.260889e-06	-6.554185e-10	-2.270813e+01	-4.435698e+01
1.110000e-06	-3.223094e-06	-6.513428e-10	-2.244493e+01	-4.415241e+01
1.120000e-06	-3.185056e-06	-6.489714e-10	-2.218004e+01	-4.394436e+01
1.130000e-06	-3.146811e-06	-6.503097e-10	-2.191371e+01	-4.373297e+01
1.140000e-06	-3.108326e-06	-6.446889e-10	-2.164571e+01	-4.351840e+01
1.150000e-06	-3.069560e-06	-6.364095e-10	-2.137575e+01	-4.330079e+01
1.160000e-06	-3.030623e-06	-6.362596e-10	-2.110460e+01	-4.308026e+01
1.170000e-06	-2.991546e-06	-6.356437e-10	-2.083248e+01	-4.285693e+01
1.180000e-06	-2.952338e-06	-6.318045e-10	-2.055944e+01	-4.263093e+01
1.190000e-06	-2.912944e-06	-6.306727e-10	-2.028511e+01	-4.240234e+01
1.200000e-06	-2.873367e-06	-6.313071e-10	-2.000951e+01	-4.217125e+01
1.210000e-06	-2.833623e-06	-6.262369e-10	-1.973274e+01	-4.193774e+01
1.220000e-06	-2.793762e-06	-6.221556e-10	-1.945515e+01	-4.170187e+01
1.230000e-06	-2.753809e-06	-6.180741e-10	-1.917693e+01	-4.146366e+01
1.240000e-06	-2.713692e-06	-6.119449e-10	-1.889757e+01	-4.122314e+01
1.250000e-06	-2.673440e-06	-6.050555e-10	-1.861726e+01	-4.098031e+01
1.260000e-06	-2.632982e-06	-6.037611e-10	-1.833552e+01	-4.073515e+01
1.270000e-06	-2.592239e-06	-5.996231e-10	-1.805179e+01	-4.048762e+01
1.280000e-06	-2.551172e-06	-5.954498e-10	-1.776581e+01	-4.023768e+01
1.290000e-06	-2.509919e-06	-5.928514e-10	-1.747853e+01	-3.998522e+01
1.300000e-06	-2.468438e-06	-5.904362e-10	-1.718967e+01	-3.973016e+01
1.310000e-06	-2.426487e-06	-5.825113e-10	-1.689753e+01	-3.947238e+01
1.320000e-06	-2.384126e-06	-5.757296e-10	-1.660254e+01	-3.921172e+01
1.330000e-06	-2.341527e-06	-5.704763e-10	-1.630588e+01	-3.894803e+01
1.340000e-06	-2.298756e-06	-5.640279e-10	-1.600804e+01	-3.868112e+01
1.350000e-06	-2.255813e-06	-5.595614e-10	-1.570899e+01	-3.841078e+01
1.360000e-06	-2.212621e-06	-5.605749e-10	-1.540821e+01	-3.813680e+01
1.370000e-06	-2.169203e-06	-5.603874e-10	-1.510586e+01	-3.785893e+01
1.380000e-06	-2.125656e-06	-5.560245e-10	-1.480261e+01	-3.757690e+01
1.390000e-06	-2.082031e-06	-5.499570e-10	-1.449882e+01	-3.729044e+01
1.400000e-06	-2.038316e-06	-5.434354e-10	-1.419439e+01	-3.699925e+01
1.410000e-06	-1.994513e-06	-5.356608e-10	-1.388935e+01	-3.670303e+01
1.420000e-06	-1.950636e-06	-5.303089e-10	-1.358381e+01	-3.640145e+01
1.430000e-06	-1.906636e-06	-5.291492e-10	-1.327740e+01	-3.609417e+01
1.440000e-06	-1.862554e-06	-5.261141e-10	-1.297042e+01	-3.578084e+01
1.450000e-06	-1.818470e-06	-5.204803e-10	-1.266343e+01	-3.546111e+01
1.460000e-06	-1.774315e-06	-5.150005e-10	-1.235594e+01	-3.513461e+01
1.470000e-06	-1.730067e-06	-5.109829e-10	-1.204781e+01	-3.480097e+01
1.480000e-06	-1.685679e-06	-5.040803e-10	-1.173870e+01	-3.445979e+01
1.490000e-06	-1.641119e-06	-4.973466e-10	-1.142840e+01	-3.411071e+01
1.500000e-06	-1.596502e-06	-4.908305e-10	-1.111769e+01	-3.375333e+01
1.510000e-06	-1.551771e-06	-4.852514e-10	-1.080620e+01	-3.338726e+01
1.520000e-06	-1.506809e-06	-4.806534e-10	-1.049309e+01	-3.301212e+01
1.530000e-06	-1.461663e-06	-4.770173e-10	-1.017871e+01	-3.262751e+01
1.540000e-06	-1.416460e-06	-4.735951e-10	-9.863923e+00	-3.223306e+01
1.550000e-06	-1.371180e-06	-4.684728e-10	-9.548603e+00	-3.182839e+01
1.560000e-06	-1.325814e-06	-4.600852e-10	-9.232679e+00	-3.141313e+01
1.570000e-06	-1.280373e-06	-4.512012e-10	-8.916239e+00	-3.098691e+01
1.580000e-06	-1.234827e-06	-4.411122e-10	-8.599068e+00	-3.054939e+01
1.590000e-06	-1.189174e-06	-4.297919e-10	-8.281147e+00	-3.010022e+01
1.600000e-06	-1.143380e-06	-4.219300e-10	-7.962253e+00	-2.963907e+01
1.610000e-06	-1.097453e-06	-4.181260e-10	-7.642422e+00	-2.916564e+01
1.620000e-06	-1.051455e-06	-4.109788e-10	-7.322101e+00	-2.867963e+01
1.630000e-06	-1.005437e-06	-4.017595e-10	-7.001644e+00	-2.818075e+01
1.640000e-06	-9.593691e-07	-3.920264e-10	-6.680838e+00	-2.766875e+01
1.650000e-06	-9.132545e-07	-3.810852e-10	-6.359707e+00	-2.714338e+01
1.660000e-06	-8.671261e-07	-3.701673e-10	-6.038478e+00	-2.660443e+01
1.670000e-06	-8.210019e-07	-3.599948e-10	-5.717279e+00	-2.605170e+01
1.680000e-06	-7.748376e-07	-3.514909e-10	-5.395801e+00	-2.548502e+01
1.690000e-06	-7.285193e-07	-3.452208e-10	-5.073251e+00	-2.490424e+01
1.700000e-06	-6.820367e-07	-3.402323e-10	-4.749556e+00	-2.430924e+01
1.710000e-06	-6.355328e-07	-3.334294e-10	-4.425713e+00	-2.369993e+01
1.720000e-06	-5.890732e-07	-3.241196e-10	-4.102178e+00	-2.307625e+01
1.730000e-06	-5.425421e-07	-3.141135e-10	-3.778145e+00	-2.243815e+01
1.740000e-06	-4.959099e-07	-3.027416e-10	-3.453409e+00	-2.178563e+01
1.750000e-06	-4.492456e-07	-2.898544e-10	-3.128449e+00	-2.111871e+01
1.760000e-06	-4.026255e-07	-2.793536e-10	-2.803797e+00	-2.043746e+01
1.770000e-06	-3.560400e-07	-2.719576e-10	-2.479386e+00	-1.974195e+01
1.780000e-06	-3.095112e-07	-2.636523e-10	-2.155369e+00	-1.903231e+01
1.790000e-06	-2.629912e-07	-2.533683e-10	-1.831413e+00	-1.830868e+01
1.800000e-06	-2.163602e-07	-2.446413e-10	-1.506685e+00	-1.757126e+01
1.810000e-06	-1.696474e-07	-2.342735e-10	-1.181387e+00	-1.682026e+01
1.820000e-06	-1.229567e-07	-2.211273e-10	-8.562439e-01	-1.605593e+01
1.830000e-06	-7.627787e-08	-2.069789e-10	-5.311826e-01	-1.527855e+01
1.840000e-06	-2.955242e-08	-1.927472e-10	-2.057966e-01	-1.448845e+01
1.850000e-06	1.714664e-08	-1.797123e-10	1.194055e-01	-1.368596e+01
1.860000e-06	6.381040e-08	-1.692937e-10	4.443618e-01	-1.287147e+01
1.870000e-06	1.105034e-07	-1.578448e-10	7.695214e-01	-1.204539e+01
1.880000e-06	1.572114e-07	-1.452993e-10	1.094786e+00	-1.120816e+01
1.890000e-06	2.038842e-07	-1.333407e-10	1.419805e+00	-1.036025e+01
1.900000e-06	2.504982e-07	-1.214281e-10	1.744415e+00	-9.502169e+00
1.910000e-06	2.971011e-07	-1.111753e-10	2.068948e+00	-8.634439e+00
1.920000e-06	3.437109e-07	-1.013500e-10	2.393528e+00	-7.757618e+00
1.930000e-06	3.903042e-07	-8.880845e-11	2.717994e+00	-6.872285e+00
1.940000e-06	4.368504e-07	-7.479826e-11	3.042132e+00	-5.979045e+00
1.950000e-06	4.833754e-07	-6.101947e-11	3.366122e+00	-5.078526e+00
1.960000e-06	5.299380e-07	-4.871163e-11	3.690374e+00	-4.171375e+00
1.970000e-06	5.764446e-07	-3.682991e-11	4.014235e+00	-3.258259e+00
1.980000e-06	6.228611e-07	-2.364404e-11	4.337469e+00	-2.339862e+00
1.990000e-06	6.691464e-07	-1.223989e-11	4.659790e+00	-1.416884e+00
2.000000e-06	7.153411e-07	-4.331717e-12	4.981480e+00	-4.900366e-01
2.010000e-06	7.615553e-07	7.532018e-12	5.303306e+00	4.399557e-01
2.020000e-06	8.077544e-07	2.179316e-11	5.625026e+00	1.372360e+00
2.030000e-06	8.539235e-07	3.674504e-11	5.946538e+00	2.306438e+00
2.040000e-06	9.000450e-07	5.499307e-11	6.267718e+00	3.241444e+00
2.050000e-06	9.461178e-07	7.214958e-11	6.588559e+00	4.176633e+00
2.060000e-06	9.921234e-07	8.590331e-11	6.908932e+00	5.111258e+00
2.070000e-06	1.038027e-06	9.631894e-11	7.228593e+00	6.044575e+00
2.080000e-06	1.083824e-06	1.065505e-10	7.547513e+00	6.975845e+00
2.090000e-06	1.129521e-06	1.173133e-10	7.865740e+00	7.904337e+00
2.100000e-06	1.175126e-06	1.311452e-10	8.183320e+00	8.829328e+00
2.110000e-06	1.220619e-06	1.461195e-10	8.500129e+00	9.750107e+00
2.120000e-06	1.266052e-06	1.592736e-10	8.816514e+00	1.066598e+01
2.130000e-06	1.311480e-06	1.718413e-10	9.132862e+00	1.157626e+01
2.140000e-06	1.356851e-06	1.842865e-10	9.448818e+00	1.248028e+01
2.150000e-06	1.402132e-06	1.969151e-10	9.764146e+00	1.337741e+01
2.160000e-06	1.447318e-06	2.076392e-10	1.007881e+01	1.426702e+01
2.170000e-06	1.492406e-06	2.175911e-10	1.039279e+01	1.514852e+01
2.180000e-06	1.537383e-06	2.297199e-10	1.070600e+01	1.602132e+01
2.190000e-06	1.582197e-06	2.417373e-10	1.101807e+01	1.688489e+01
2.200000e-06	1.626922e-06	2.553226e-10	1.132953e+01	1.773871e+01
2.210000e-06	1.671526e-06	2.670876e-10	1.164014e+01	1.858229e+01
2.220000e-06	1.715935e-06	2.770812e-10	1.194940e+01	1.941517e+01
2.230000e-06	1.760186e-06	2.859449e-10	1.225755e+01	2.023693e+01
2.240000e-06	1.804302e-06	2.961517e-10	1.256477e+01	2.104716e+01
2.250000e-06	1.848342e-06	3.070101e-10	1.287145e+01	2.184551e+01
2.260000e-06	1.892284e-06	3.201551e-10	1.317746e+01	2.263165e+01
2.270000e-06	1.936151e-06	3.344046e-10	1.348293e+01	2.340528e+01
2.280000e-06	1.980005e-06	3.463172e-10	1.378833e+01	2.416614e+01
2.290000e-06	2.023849e-06	3.568495e-10	1.409365e+01	2.491400e+01
2.300000e-06	2.067663e-06	3.663078e-10	1.439876e+01	2.564866e+01
2.310000e-06	2.111423e-06	3.748098e-10	1.470349e+01	2.636995e+01
2.320000e-06	2.155112e-06	3.825159e-10	1.500773e+01	2.707775e+01
2.330000e-06	2.198742e-06	3.916519e-10	1.531156e+01	2.777194e+01
2.340000e-06	2.242211e-06	4.019713e-10	1.561427e+01	2.845246e+01
2.350000e-06	2.285411e-06	4.122209e-10	1.591511e+01	2.911926e+01
2.360000e-06	2.328381e-06	4.213394e-10	1.621434e+01	2.977234e+01
2.370000e-06	2.371031e-06	4.315826e-10	1.651135e+01	3.041168e+01
2.380000e-06	2.413296e-06	4.422387e-10	1.680567e+01	3.103734e+01
2.390000e-06	2.455193e-06	4.517216e-10	1.709743e+01	3.164938e+01
2.400000e-06	2.496777e-06	4.579668e-10	1.738702e+01	3.224786e+01
2.410000e-06	2.538071e-06	4.630634e-10	1.767458e+01	3.283290e+01
2.420000e-06	2.578981e-06	4.679529e-10	1.795947e+01	3.340462e+01
2.430000e-06	2.619640e-06	4.741036e-10	1.824260e+01	3.396315e+01
2.440000e-06	2.660187e-06	4.803476e-10	1.852497e+01	3.450864e+01
2.450000e-06	2.700568e-06	4.877194e-10	1.880617e+01	3.504127e+01
2.460000e-06	2.740724e-06	4.979241e-10	1.908581e+01	3.556121e+01
2.470000e-06	2.780683e-06	5.096390e-10	1.936407e+01	3.606865e+01
2.480000e-06	2.820535e-06	5.192154e-10	1.964159e+01	3.656379e+01
2.490000e-06	2.860322e-06	5.248004e-10	1.991866e+01	3.704684e+01
2.500000e-06	2.899982e-06	5.284850e-10	2.019484e+01	3.751799e+01
2.510000e-06	2.939441e-06	5.340433e-10	2.046963e+01	3.797748e+01
2.520000e-06	2.978701e-06	5.403997e-10	2.074303e+01	3.842550e+01
2.530000e-06	3.017787e-06	5.472788e-10	2.101522e+01	3.886229e+01
2.540000e-06	3.056660e-06	5.573201e-10	2.128592e+01	3.928806e+01
2.550000e-06	3.095261e-06	5.686129e-10	2.155472e+01	3.970302e+01
2.560000e-06	3.133630e-06	5.756470e-10	2.182192e+01	4.010740e+01
2.570000e-06	3.171783e-06	5.787436e-10	2.208761e+01	4.050139e+01
2.580000e-06	3.209787e-06	5.829891e-10	2.235226e+01	4.088522e+01
2.590000e-06	3.247619e-06	5.893210e-10	2.261571e+01	4.125907e+01
2.600000e-06	3.285197e-06	5.946682e-10	2.287740e+01	4.162316e+01
2.610000e-06	3.322556e-06	5.980424e-10	2.313756e+01	4.197766e+01
2.620000e-06	3.359738e-06	6.014983e-10	2.339649e+01	4.232278e+01
2.630000e-06	3.396671e-06	6.078541e-10	2.365368e+01	4.265868e+01
2.640000e-06	3.433245e-06	6.147948e-10	2.390838e+01	4.298555e+01
2.650000e-06	3.469519e-06	6.200056e-10	2.416098e+01	4.330354e+01
2.660000e-06	3.505597e-06	6.282133e-10	2.441221e+01	4.361283e+01
2.670000e-06	3.541584e-06	6.350908e-10	2.466282e+01	4.391356e+01
2.680000e-06	3.577496e-06	6.370567e-10	2.491291e+01	4.420589e+01
2.690000e-06	3.613292e-06	6.380468e-10	2.516218e+01	4.448997e+01
2.700000e-06	3.648957e-06	6.379173e-10	2.541054e+01	4.476592e+01
2.710000e-06	3.684409e-06	6.392662e-10	2.565743e+01	4.503390e+01
2.720000e-06	3.719590e-06	6.440606e-10	2.590242e+01	4.529403e+01
2.730000e-06	3.754380e-06	6.492976e-10	2.614469e+01	4.554643e+01
2.740000e-06	3.788731e-06	6.547886e-10	2.638390e+01	4.579124e+01
2.750000e-06	3.822742e-06	6.592135e-10	2.662074e+01	4.602858e+01
2.760000e-06	3.856231e-06	6.625758e-10	2.685396e+01	4.625857e+01
2.770000e-06	3.889200e-06	6.647957e-10	2.708355e+01	4.648132e+01
2.780000e-06	3.921798e-06	6.655470e-10	2.731055e+01	4.669697e+01
2.790000e-06	3.954089e-06	6.681520e-10	2.753542e+01	4.690564e+01
2.800000e-06	3.986182e-06	6.720074e-10	2.775891e+01	4.710743e+01
2.810000e-06	4.018048e-06	6.744846e-10	2.798081e+01	4.730249e+01
2.820000e-06	4.049760e-06	6.756033e-10	2.820165e+01	4.749092e+01
2.830000e-06	4.081344e-06	6.775848e-10	2.842160e+01	4.767286e+01
2.840000e-06	4.112675e-06	6.812022e-10	2.863977e+01	4.784844e+01
2.850000e-06	4.143716e-06	6.835410e-10	2.885594e+01	4.801778e+01
2.860000e-06	4.174382e-06	6.856285e-10	2.906949e+01	4.818102e+01
2.870000e-06	4.204672e-06	6.876856e-10	2.928043e+01	4.833829e+01
2.880000e-06	4.234672e-06	6.897654e-10	2.948934e+01	4.848975e+01
2.890000e-06	4.264447e-06	6.906534e-10	2.969668e+01	4.863551e+01
2.900000e-06	4.294047e-06	6.902934e-10	2.990281e+01	4.877574e+01
