# Temperatura_=_-1.31
# Concentracion g/m^3_=_1620.0
# C_Vs_to_Am_M_A/Vsm_=_65563218390.804596
# pendiente_HvsI_1/m_=_3716.3
# ordenada_HvsI_A/m_=_1297.0
# frecuencia_Hz_=_135099.89378768014

Tiempo_(s)	Campo_(V.s)	Magnetizacion_(V.s)	Campo_(kA/m)	Magnetizacion_(A/m)
0.000000e+00	-5.522363e-06	-9.867947e-10	-3.837859e+01	-6.439104e+01
1.000000e-08	-5.522567e-06	-9.851495e-10	-3.838000e+01	-6.438809e+01
2.000000e-08	-5.522473e-06	-9.878405e-10	-3.837935e+01	-6.438467e+01
3.000000e-08	-5.521965e-06	-9.903664e-10	-3.837582e+01	-6.438051e+01
4.000000e-08	-5.520886e-06	-9.947680e-10	-3.836832e+01	-6.437536e+01
5.000000e-08	-5.519228e-06	-9.989068e-10	-3.835680e+01	-6.436893e+01
6.000000e-08	-5.517052e-06	-1.000904e-09	-3.834168e+01	-6.436099e+01
7.000000e-08	-5.514300e-06	-1.020808e-09	-3.832255e+01	-6.435126e+01
8.000000e-08	-5.510975e-06	-9.924086e-10	-3.829944e+01	-6.433951e+01
9.000000e-08	-5.507174e-06	-9.199752e-10	-3.827303e+01	-6.432549e+01
1.000000e-07	-5.503051e-06	-9.764161e-10	-3.824438e+01	-6.430899e+01
1.100000e-07	-5.498637e-06	-1.091175e-09	-3.821370e+01	-6.428979e+01
1.200000e-07	-5.493949e-06	-1.006415e-09	-3.818112e+01	-6.426768e+01
1.300000e-07	-5.489034e-06	-9.269471e-10	-3.814696e+01	-6.424249e+01
1.400000e-07	-5.483739e-06	-9.228103e-10	-3.811016e+01	-6.421403e+01
1.500000e-07	-5.477951e-06	-1.095992e-09	-3.806994e+01	-6.418217e+01
1.600000e-07	-5.471628e-06	-1.021117e-09	-3.802599e+01	-6.414675e+01
1.700000e-07	-5.464975e-06	-9.018259e-10	-3.797976e+01	-6.410767e+01
1.800000e-07	-5.458019e-06	-9.252500e-10	-3.793142e+01	-6.406481e+01
1.900000e-07	-5.450664e-06	-1.043904e-09	-3.788031e+01	-6.401811e+01
2.000000e-07	-5.443022e-06	-1.044864e-09	-3.782719e+01	-6.396748e+01
2.100000e-07	-5.435195e-06	-9.545585e-10	-3.777280e+01	-6.391289e+01
2.200000e-07	-5.427075e-06	-9.802802e-10	-3.771637e+01	-6.385429e+01
2.300000e-07	-5.418571e-06	-1.024695e-09	-3.765727e+01	-6.379169e+01
2.400000e-07	-5.409571e-06	-1.030823e-09	-3.759472e+01	-6.372508e+01
2.500000e-07	-5.399931e-06	-9.425066e-10	-3.752773e+01	-6.365447e+01
2.600000e-07	-5.389586e-06	-9.627379e-10	-3.745583e+01	-6.357990e+01
2.700000e-07	-5.378611e-06	-9.815725e-10	-3.737956e+01	-6.350143e+01
2.800000e-07	-5.367293e-06	-1.000226e-09	-3.730090e+01	-6.341909e+01
2.900000e-07	-5.355642e-06	-9.260102e-10	-3.721993e+01	-6.333298e+01
3.000000e-07	-5.343561e-06	-9.483786e-10	-3.713597e+01	-6.324317e+01
3.100000e-07	-5.331055e-06	-9.598642e-10	-3.704906e+01	-6.314974e+01
3.200000e-07	-5.318219e-06	-9.775190e-10	-3.695985e+01	-6.305281e+01
3.300000e-07	-5.304970e-06	-9.052623e-10	-3.686778e+01	-6.295247e+01
3.400000e-07	-5.291265e-06	-9.254101e-10	-3.677254e+01	-6.284884e+01
3.500000e-07	-5.277262e-06	-9.751612e-10	-3.667521e+01	-6.274204e+01
3.600000e-07	-5.262806e-06	-9.620210e-10	-3.657475e+01	-6.263218e+01
3.700000e-07	-5.247678e-06	-8.900918e-10	-3.646962e+01	-6.251940e+01
3.800000e-07	-5.232037e-06	-9.582403e-10	-3.636092e+01	-6.240381e+01
3.900000e-07	-5.215924e-06	-9.862225e-10	-3.624894e+01	-6.228553e+01
4.000000e-07	-5.199354e-06	-8.765080e-10	-3.613378e+01	-6.216470e+01
4.100000e-07	-5.182534e-06	-8.856719e-10	-3.601689e+01	-6.204143e+01
4.200000e-07	-5.165499e-06	-1.015100e-09	-3.589850e+01	-6.191585e+01
4.300000e-07	-5.148085e-06	-9.432636e-10	-3.577748e+01	-6.178807e+01
4.400000e-07	-5.130252e-06	-8.283152e-10	-3.565355e+01	-6.165820e+01
4.500000e-07	-5.112054e-06	-9.728643e-10	-3.552708e+01	-6.152636e+01
4.600000e-07	-5.093446e-06	-1.004971e-09	-3.539775e+01	-6.139264e+01
4.700000e-07	-5.074385e-06	-8.459618e-10	-3.526529e+01	-6.125714e+01
4.800000e-07	-5.054989e-06	-8.837389e-10	-3.513049e+01	-6.111996e+01
4.900000e-07	-5.035424e-06	-1.018546e-09	-3.499452e+01	-6.098119e+01
5.000000e-07	-5.015646e-06	-8.781201e-10	-3.485707e+01	-6.084089e+01
5.100000e-07	-4.995602e-06	-8.450863e-10	-3.471777e+01	-6.069916e+01
5.200000e-07	-4.975302e-06	-9.916203e-10	-3.457670e+01	-6.055604e+01
5.300000e-07	-4.954603e-06	-9.373505e-10	-3.443284e+01	-6.041161e+01
5.400000e-07	-4.933448e-06	-8.015669e-10	-3.428582e+01	-6.026592e+01
5.500000e-07	-4.912051e-06	-9.396550e-10	-3.413712e+01	-6.011901e+01
5.600000e-07	-4.890410e-06	-9.658301e-10	-3.398672e+01	-5.997093e+01
5.700000e-07	-4.868382e-06	-8.322947e-10	-3.383364e+01	-5.982172e+01
5.800000e-07	-4.846024e-06	-8.788363e-10	-3.367826e+01	-5.967139e+01
5.900000e-07	-4.823347e-06	-9.751210e-10	-3.352066e+01	-5.951998e+01
6.000000e-07	-4.800211e-06	-8.612326e-10	-3.335987e+01	-5.936750e+01
6.100000e-07	-4.776738e-06	-8.549545e-10	-3.319674e+01	-5.921398e+01
6.200000e-07	-4.753154e-06	-9.417453e-10	-3.303284e+01	-5.905940e+01
6.300000e-07	-4.729412e-06	-8.910370e-10	-3.286784e+01	-5.890378e+01
6.400000e-07	-4.705325e-06	-8.439637e-10	-3.270045e+01	-5.874712e+01
6.500000e-07	-4.680880e-06	-9.189736e-10	-3.253056e+01	-5.858940e+01
6.600000e-07	-4.655984e-06	-8.979785e-10	-3.235754e+01	-5.843062e+01
6.700000e-07	-4.630525e-06	-8.475618e-10	-3.218061e+01	-5.827076e+01
6.800000e-07	-4.604522e-06	-8.905814e-10	-3.199990e+01	-5.810980e+01
6.900000e-07	-4.577983e-06	-8.919346e-10	-3.181546e+01	-5.794772e+01
7.000000e-07	-4.550995e-06	-8.398794e-10	-3.162790e+01	-5.778448e+01
7.100000e-07	-4.523685e-06	-8.604116e-10	-3.143811e+01	-5.762005e+01
7.200000e-07	-4.496180e-06	-8.776644e-10	-3.124696e+01	-5.745441e+01
7.300000e-07	-4.468486e-06	-8.386407e-10	-3.105449e+01	-5.728749e+01
7.400000e-07	-4.440608e-06	-8.438982e-10	-3.086075e+01	-5.711927e+01
7.500000e-07	-4.412526e-06	-8.557615e-10	-3.066559e+01	-5.694969e+01
7.600000e-07	-4.384101e-06	-8.323115e-10	-3.046804e+01	-5.677870e+01
7.700000e-07	-4.355279e-06	-8.269171e-10	-3.026774e+01	-5.660624e+01
7.800000e-07	-4.326120e-06	-8.468577e-10	-3.006510e+01	-5.643224e+01
7.900000e-07	-4.296718e-06	-8.193493e-10	-2.986076e+01	-5.625664e+01
8.000000e-07	-4.267076e-06	-8.052106e-10	-2.965476e+01	-5.607938e+01
8.100000e-07	-4.237142e-06	-8.161835e-10	-2.944673e+01	-5.590036e+01
8.200000e-07	-4.206831e-06	-8.089757e-10	-2.923608e+01	-5.571952e+01
8.300000e-07	-4.176098e-06	-7.812367e-10	-2.902249e+01	-5.553676e+01
8.400000e-07	-4.145077e-06	-7.990241e-10	-2.880691e+01	-5.535201e+01
8.500000e-07	-4.113868e-06	-8.048174e-10	-2.859002e+01	-5.516516e+01
8.600000e-07	-4.082488e-06	-7.886276e-10	-2.837193e+01	-5.497612e+01
8.700000e-07	-4.050903e-06	-7.869487e-10	-2.815243e+01	-5.478480e+01
8.800000e-07	-4.019162e-06	-8.025352e-10	-2.793184e+01	-5.459108e+01
8.900000e-07	-3.987282e-06	-7.794093e-10	-2.771028e+01	-5.439486e+01
9.000000e-07	-3.955190e-06	-7.673990e-10	-2.748726e+01	-5.419603e+01
9.100000e-07	-3.922815e-06	-7.781416e-10	-2.726226e+01	-5.399449e+01
9.200000e-07	-3.890058e-06	-7.731456e-10	-2.703461e+01	-5.379011e+01
9.300000e-07	-3.856827e-06	-7.575622e-10	-2.680366e+01	-5.358278e+01
9.400000e-07	-3.823066e-06	-7.727120e-10	-2.656904e+01	-5.337239e+01
9.500000e-07	-3.788651e-06	-7.770501e-10	-2.632986e+01	-5.315882e+01
9.600000e-07	-3.753839e-06	-7.571280e-10	-2.608793e+01	-5.294196e+01
9.700000e-07	-3.718830e-06	-7.507958e-10	-2.584463e+01	-5.272170e+01
9.800000e-07	-3.683536e-06	-7.539081e-10	-2.559935e+01	-5.249792e+01
9.900000e-07	-3.648021e-06	-7.382618e-10	-2.535253e+01	-5.227052e+01
1.000000e-06	-3.612352e-06	-7.311857e-10	-2.510464e+01	-5.203939e+01
1.010000e-06	-3.576608e-06	-7.454897e-10	-2.485624e+01	-5.180443e+01
1.020000e-06	-3.540749e-06	-7.430897e-10	-2.460703e+01	-5.156555e+01
1.030000e-06	-3.504695e-06	-7.316594e-10	-2.435646e+01	-5.132265e+01
1.040000e-06	-3.468391e-06	-7.316997e-10	-2.410416e+01	-5.107566e+01
1.050000e-06	-3.431761e-06	-7.342693e-10	-2.384960e+01	-5.082450e+01
1.060000e-06	-3.394825e-06	-7.228900e-10	-2.359291e+01	-5.056909e+01
1.070000e-06	-3.357749e-06	-7.224199e-10	-2.333524e+01	-5.030937e+01
1.080000e-06	-3.320418e-06	-7.213691e-10	-2.307580e+01	-5.004530e+01
1.090000e-06	-3.282778e-06	-7.123229e-10	-2.281421e+01	-4.977683e+01
1.100000e-06	-3.244989e-06	-7.027878e-10	-2.255160e+01	-4.950392e+01
1.110000e-06	-3.206987e-06	-7.042668e-10	-2.228749e+01	-4.922654e+01
1.120000e-06	-3.168650e-06	-6.994277e-10	-2.202106e+01	-4.894467e+01
1.130000e-06	-3.130103e-06	-6.946725e-10	-2.175317e+01	-4.865831e+01
1.140000e-06	-3.091403e-06	-6.922231e-10	-2.148422e+01	-4.836746e+01
1.150000e-06	-3.052431e-06	-6.911370e-10	-2.121338e+01	-4.807211e+01
1.160000e-06	-3.013255e-06	-6.827973e-10	-2.094112e+01	-4.777228e+01
1.170000e-06	-2.973931e-06	-6.797378e-10	-2.066783e+01	-4.746799e+01
1.180000e-06	-2.934440e-06	-6.743787e-10	-2.039338e+01	-4.715927e+01
1.190000e-06	-2.894864e-06	-6.680699e-10	-2.011834e+01	-4.684614e+01
1.200000e-06	-2.855208e-06	-6.644561e-10	-1.984274e+01	-4.652864e+01
1.210000e-06	-2.815372e-06	-6.636326e-10	-1.956590e+01	-4.620681e+01
1.220000e-06	-2.775341e-06	-6.545342e-10	-1.928770e+01	-4.588068e+01
1.230000e-06	-2.735167e-06	-6.427388e-10	-1.900850e+01	-4.555029e+01
1.240000e-06	-2.694790e-06	-6.347939e-10	-1.872789e+01	-4.521567e+01
1.250000e-06	-2.654144e-06	-6.292058e-10	-1.844542e+01	-4.487685e+01
1.260000e-06	-2.613292e-06	-6.270277e-10	-1.816151e+01	-4.453387e+01
1.270000e-06	-2.572187e-06	-6.258011e-10	-1.787585e+01	-4.418674e+01
1.280000e-06	-2.530774e-06	-6.235904e-10	-1.758804e+01	-4.383547e+01
1.290000e-06	-2.489159e-06	-6.172820e-10	-1.729883e+01	-4.348006e+01
1.300000e-06	-2.447216e-06	-6.070827e-10	-1.700734e+01	-4.312049e+01
1.310000e-06	-2.404852e-06	-5.964568e-10	-1.671292e+01	-4.275675e+01
1.320000e-06	-2.362190e-06	-5.914141e-10	-1.641643e+01	-4.238879e+01
1.330000e-06	-2.319251e-06	-5.874367e-10	-1.611802e+01	-4.201654e+01
1.340000e-06	-2.276105e-06	-5.844789e-10	-1.581818e+01	-4.163994e+01
1.350000e-06	-2.232814e-06	-5.812339e-10	-1.551732e+01	-4.125887e+01
1.360000e-06	-2.189378e-06	-5.776298e-10	-1.521545e+01	-4.087323e+01
1.370000e-06	-2.145841e-06	-5.706810e-10	-1.491288e+01	-4.048286e+01
1.380000e-06	-2.102213e-06	-5.622189e-10	-1.460968e+01	-4.008759e+01
1.390000e-06	-2.058497e-06	-5.522458e-10	-1.430587e+01	-3.968723e+01
1.400000e-06	-2.014756e-06	-5.442760e-10	-1.400188e+01	-3.928157e+01
1.410000e-06	-1.970988e-06	-5.381909e-10	-1.369771e+01	-3.887035e+01
1.420000e-06	-1.927102e-06	-5.349807e-10	-1.339271e+01	-3.845330e+01
1.430000e-06	-1.883081e-06	-5.290518e-10	-1.308679e+01	-3.803012e+01
1.440000e-06	-1.839040e-06	-5.223235e-10	-1.278072e+01	-3.760049e+01
1.450000e-06	-1.794872e-06	-5.153504e-10	-1.247376e+01	-3.716406e+01
1.460000e-06	-1.750515e-06	-5.081639e-10	-1.216550e+01	-3.672045e+01
1.470000e-06	-1.706038e-06	-4.984092e-10	-1.185639e+01	-3.626926e+01
1.480000e-06	-1.661337e-06	-4.896432e-10	-1.154574e+01	-3.581007e+01
1.490000e-06	-1.616408e-06	-4.819789e-10	-1.123350e+01	-3.534243e+01
1.500000e-06	-1.571383e-06	-4.738777e-10	-1.092059e+01	-3.486589e+01
1.510000e-06	-1.526215e-06	-4.649845e-10	-1.060668e+01	-3.437995e+01
1.520000e-06	-1.480918e-06	-4.581992e-10	-1.029189e+01	-3.388414e+01
1.530000e-06	-1.435506e-06	-4.514703e-10	-9.976292e+00	-3.337794e+01
1.540000e-06	-1.390034e-06	-4.449456e-10	-9.660271e+00	-3.286083e+01
1.550000e-06	-1.344570e-06	-4.370200e-10	-9.344314e+00	-3.233229e+01
1.560000e-06	-1.298996e-06	-4.281917e-10	-9.027593e+00	-3.179180e+01
1.570000e-06	-1.253354e-06	-4.194471e-10	-8.710390e+00	-3.123884e+01
1.580000e-06	-1.207706e-06	-4.104181e-10	-8.393157e+00	-3.067287e+01
1.590000e-06	-1.162046e-06	-4.014989e-10	-8.075835e+00	-3.009338e+01
1.600000e-06	-1.116309e-06	-3.931571e-10	-7.757979e+00	-2.949987e+01
1.610000e-06	-1.070463e-06	-3.849003e-10	-7.439358e+00	-2.889186e+01
1.620000e-06	-1.024459e-06	-3.746433e-10	-7.119650e+00	-2.826886e+01
1.630000e-06	-9.783129e-07	-3.654865e-10	-6.798949e+00	-2.763043e+01
1.640000e-06	-9.321309e-07	-3.562204e-10	-6.477999e+00	-2.697614e+01
1.650000e-06	-8.858920e-07	-3.453097e-10	-6.156655e+00	-2.630560e+01
1.660000e-06	-8.396166e-07	-3.323292e-10	-5.835056e+00	-2.561844e+01
1.670000e-06	-7.933075e-07	-3.204224e-10	-5.513223e+00	-2.491435e+01
1.680000e-06	-7.468871e-07	-3.093719e-10	-5.190617e+00	-2.419303e+01
1.690000e-06	-7.004060e-07	-2.982829e-10	-4.867589e+00	-2.345423e+01
1.700000e-06	-6.538583e-07	-2.862181e-10	-4.544098e+00	-2.269777e+01
1.710000e-06	-6.072552e-07	-2.743470e-10	-4.220222e+00	-2.192349e+01
1.720000e-06	-5.606806e-07	-2.611213e-10	-3.896543e+00	-2.113129e+01
1.730000e-06	-5.140941e-07	-2.472722e-10	-3.572783e+00	-2.032112e+01
1.740000e-06	-4.674063e-07	-2.338274e-10	-3.248319e+00	-1.949299e+01
1.750000e-06	-4.206897e-07	-2.209322e-10	-2.923654e+00	-1.864696e+01
1.760000e-06	-3.739340e-07	-2.085775e-10	-2.598717e+00	-1.778315e+01
1.770000e-06	-3.271061e-07	-1.974139e-10	-2.273278e+00	-1.690174e+01
1.780000e-06	-2.802397e-07	-1.861550e-10	-1.947572e+00	-1.600297e+01
1.790000e-06	-2.332924e-07	-1.751216e-10	-1.621305e+00	-1.508712e+01
1.800000e-06	-1.863742e-07	-1.618348e-10	-1.295239e+00	-1.415455e+01
1.810000e-06	-1.395425e-07	-1.469660e-10	-9.697737e-01	-1.320567e+01
1.820000e-06	-9.273814e-08	-1.305809e-10	-6.444992e-01	-1.224094e+01
1.830000e-06	-4.589769e-08	-1.151799e-10	-3.189737e-01	-1.126088e+01
1.840000e-06	8.843806e-10	-1.011958e-10	6.146151e-03	-1.026607e+01
1.850000e-06	4.762631e-08	-8.965384e-11	3.309870e-01	-9.257138e+00
1.860000e-06	9.441941e-08	-7.784543e-11	6.561835e-01	-8.234748e+00
1.870000e-06	1.413207e-07	-6.381883e-11	9.821317e-01	-7.199624e+00
1.880000e-06	1.882885e-07	-4.983808e-11	1.308542e+00	-6.152530e+00
1.890000e-06	2.351718e-07	-3.573822e-11	1.634366e+00	-5.094269e+00
1.900000e-06	2.820096e-07	-2.091636e-11	1.959873e+00	-4.025683e+00
1.910000e-06	3.288170e-07	-3.957505e-12	2.285169e+00	-2.947645e+00
1.920000e-06	3.755923e-07	1.374922e-11	2.610241e+00	-1.861058e+00
1.930000e-06	4.222605e-07	2.966316e-11	2.934570e+00	-7.668526e-01
1.940000e-06	4.688554e-07	4.348627e-11	3.258389e+00	3.340223e-01
1.950000e-06	5.154675e-07	5.542697e-11	3.582327e+00	1.440599e+00
1.960000e-06	5.620972e-07	6.561855e-11	3.906389e+00	2.551896e+00
1.970000e-06	6.086830e-07	7.758325e-11	4.230144e+00	3.666924e+00
1.980000e-06	6.551671e-07	9.348350e-11	4.553193e+00	4.784688e+00
1.990000e-06	7.016032e-07	1.104587e-10	4.875909e+00	5.904193e+00
2.000000e-06	7.479904e-07	1.272760e-10	5.198285e+00	7.024448e+00
2.010000e-06	7.942886e-07	1.432909e-10	5.520041e+00	8.144467e+00
2.020000e-06	8.405383e-07	1.582245e-10	5.841461e+00	9.263279e+00
2.030000e-06	8.867343e-07	1.745569e-10	6.162508e+00	1.037993e+01
2.040000e-06	9.328410e-07	1.895680e-10	6.482934e+00	1.149347e+01
2.050000e-06	9.789309e-07	2.057761e-10	6.803244e+00	1.260299e+01
2.060000e-06	1.024963e-06	2.224968e-10	7.123149e+00	1.370759e+01
2.070000e-06	1.070857e-06	2.383323e-10	7.442097e+00	1.480641e+01
2.080000e-06	1.116671e-06	2.538204e-10	7.760493e+00	1.589862e+01
2.090000e-06	1.162505e-06	2.703390e-10	8.079026e+00	1.698341e+01
2.100000e-06	1.208276e-06	2.861433e-10	8.397115e+00	1.806002e+01
2.110000e-06	1.253886e-06	3.005081e-10	8.714093e+00	1.912771e+01
2.120000e-06	1.299426e-06	3.142072e-10	9.030579e+00	2.018579e+01
2.130000e-06	1.344911e-06	3.300895e-10	9.346681e+00	2.123362e+01
2.140000e-06	1.390243e-06	3.473143e-10	9.661725e+00	2.227056e+01
2.150000e-06	1.435492e-06	3.613232e-10	9.976195e+00	2.329607e+01
2.160000e-06	1.480649e-06	3.731905e-10	1.029002e+01	2.430959e+01
2.170000e-06	1.525681e-06	3.860605e-10	1.060297e+01	2.531064e+01
2.180000e-06	1.570638e-06	3.994578e-10	1.091541e+01	2.629877e+01
2.190000e-06	1.615463e-06	4.148514e-10	1.122693e+01	2.727357e+01
2.200000e-06	1.660124e-06	4.310141e-10	1.153731e+01	2.823467e+01
2.210000e-06	1.704668e-06	4.441287e-10	1.184687e+01	2.918174e+01
2.220000e-06	1.749151e-06	4.544803e-10	1.215602e+01	3.011449e+01
2.230000e-06	1.793515e-06	4.652583e-10	1.246433e+01	3.103265e+01
2.240000e-06	1.837723e-06	4.775691e-10	1.277156e+01	3.193601e+01
2.250000e-06	1.881829e-06	4.910052e-10	1.307808e+01	3.282437e+01
2.260000e-06	1.925869e-06	5.056634e-10	1.338415e+01	3.369759e+01
2.270000e-06	1.969803e-06	5.199914e-10	1.368948e+01	3.455552e+01
2.280000e-06	2.013613e-06	5.334471e-10	1.399394e+01	3.539808e+01
2.290000e-06	2.057323e-06	5.455213e-10	1.429771e+01	3.622520e+01
2.300000e-06	2.100984e-06	5.562346e-10	1.460114e+01	3.703682e+01
2.310000e-06	2.144579e-06	5.657307e-10	1.490411e+01	3.783291e+01
2.320000e-06	2.188074e-06	5.761927e-10	1.520639e+01	3.861349e+01
2.330000e-06	2.231445e-06	5.876575e-10	1.550780e+01	3.937855e+01
2.340000e-06	2.274650e-06	5.996201e-10	1.580806e+01	4.012814e+01
2.350000e-06	2.317691e-06	6.108657e-10	1.610718e+01	4.086230e+01
2.360000e-06	2.360633e-06	6.211376e-10	1.640562e+01	4.158109e+01
2.370000e-06	2.403440e-06	6.294261e-10	1.670311e+01	4.228460e+01
2.380000e-06	2.445866e-06	6.371808e-10	1.699796e+01	4.297290e+01
2.390000e-06	2.487907e-06	6.462795e-10	1.729013e+01	4.364609e+01
2.400000e-06	2.529682e-06	6.550802e-10	1.758045e+01	4.430429e+01
2.410000e-06	2.571066e-06	6.636480e-10	1.786805e+01	4.494760e+01
2.420000e-06	2.611999e-06	6.737492e-10	1.815252e+01	4.557614e+01
2.430000e-06	2.652678e-06	6.824280e-10	1.843523e+01	4.619005e+01
2.440000e-06	2.693295e-06	6.883941e-10	1.871751e+01	4.678945e+01
2.450000e-06	2.733702e-06	6.939151e-10	1.899832e+01	4.737450e+01
2.460000e-06	2.773860e-06	6.998672e-10	1.927740e+01	4.794533e+01
2.470000e-06	2.813843e-06	7.064322e-10	1.955527e+01	4.850209e+01
2.480000e-06	2.853653e-06	7.153481e-10	1.983194e+01	4.904495e+01
2.490000e-06	2.893325e-06	7.253645e-10	2.010765e+01	4.957406e+01
2.500000e-06	2.932860e-06	7.344212e-10	2.038240e+01	5.008959e+01
2.510000e-06	2.972301e-06	7.435728e-10	2.065651e+01	5.059171e+01
2.520000e-06	3.011550e-06	7.525577e-10	2.092927e+01	5.108060e+01
2.530000e-06	3.050542e-06	7.603681e-10	2.120025e+01	5.155645e+01
2.540000e-06	3.089339e-06	7.670887e-10	2.146988e+01	5.201944e+01
2.550000e-06	3.127933e-06	7.717145e-10	2.173810e+01	5.246978e+01
2.560000e-06	3.166246e-06	7.737878e-10	2.200436e+01	5.290767e+01
2.570000e-06	3.204306e-06	7.788479e-10	2.226886e+01	5.333332e+01
2.580000e-06	3.242262e-06	7.877001e-10	2.253264e+01	5.374694e+01
2.590000e-06	3.280097e-06	7.960847e-10	2.279559e+01	5.414877e+01
2.600000e-06	3.317697e-06	8.023194e-10	2.305689e+01	5.453905e+01
2.610000e-06	3.355037e-06	8.055011e-10	2.331639e+01	5.491800e+01
2.620000e-06	3.392095e-06	8.077289e-10	2.357393e+01	5.528589e+01
2.630000e-06	3.428928e-06	8.105332e-10	2.382991e+01	5.564297e+01
2.640000e-06	3.465526e-06	8.149250e-10	2.408425e+01	5.598952e+01
2.650000e-06	3.501789e-06	8.223758e-10	2.433627e+01	5.632579e+01
2.660000e-06	3.537807e-06	8.295199e-10	2.458658e+01	5.665208e+01
2.670000e-06	3.573679e-06	8.342056e-10	2.483588e+01	5.696867e+01
2.680000e-06	3.609412e-06	8.369274e-10	2.508421e+01	5.727584e+01
2.690000e-06	3.645022e-06	8.380832e-10	2.533169e+01	5.757391e+01
2.700000e-06	3.680491e-06	8.389681e-10	2.557819e+01	5.786316e+01
2.710000e-06	3.715685e-06	8.406592e-10	2.582277e+01	5.814391e+01
2.720000e-06	3.750617e-06	8.465360e-10	2.606554e+01	5.841645e+01
2.730000e-06	3.785185e-06	8.550199e-10	2.630578e+01	5.868110e+01
2.740000e-06	3.819306e-06	8.618030e-10	2.654291e+01	5.893816e+01
2.750000e-06	3.853097e-06	8.671363e-10	2.677774e+01	5.918793e+01
2.760000e-06	3.886479e-06	8.688377e-10	2.700974e+01	5.943071e+01
2.770000e-06	3.919349e-06	8.667621e-10	2.723817e+01	5.966680e+01
2.780000e-06	3.951818e-06	8.641408e-10	2.746382e+01	5.989648e+01
2.790000e-06	3.983998e-06	8.664944e-10	2.768746e+01	6.012005e+01
2.800000e-06	4.015909e-06	8.718065e-10	2.790923e+01	6.033776e+01
2.810000e-06	4.047652e-06	8.780895e-10	2.812984e+01	6.054988e+01
2.820000e-06	4.079293e-06	8.845393e-10	2.834973e+01	6.075665e+01
2.830000e-06	4.110777e-06	8.893392e-10	2.856853e+01	6.095833e+01
2.840000e-06	4.141994e-06	8.892909e-10	2.878548e+01	6.115511e+01
2.850000e-06	4.172955e-06	8.873277e-10	2.900065e+01	6.134722e+01
2.860000e-06	4.203592e-06	8.883741e-10	2.921357e+01	6.153482e+01
2.870000e-06	4.233848e-06	8.913920e-10	2.942383e+01	6.171811e+01
2.880000e-06	4.263771e-06	8.926872e-10	2.963179e+01	6.189722e+01
2.890000e-06	4.293380e-06	8.940194e-10	2.983756e+01	6.207229e+01
2.900000e-06	4.322718e-06	8.975159e-10	3.004145e+01	6.224344e+01
