# Temperatura_=_-0.9
# Concentracion g/m^3_=_1620.0
# C_Vs_to_Am_M_A/Vsm_=_65563218390.804596
# pendiente_HvsI_1/m_=_3716.3
# ordenada_HvsI_A/m_=_1297.0
# frecuencia_Hz_=_135095.4247185576

Tiempo_(s)	Campo_(V.s)	Magnetizacion_(V.s)	Campo_(kA/m)	Magnetizacion_(A/m)
0.000000e+00	-5.514791e-06	-1.119745e-09	-3.837301e+01	-7.403566e+01
1.000000e-08	-5.514971e-06	-1.117689e-09	-3.837426e+01	-7.403476e+01
2.000000e-08	-5.514894e-06	-1.116722e-09	-3.837373e+01	-7.403239e+01
3.000000e-08	-5.514528e-06	-1.117277e-09	-3.837118e+01	-7.402824e+01
4.000000e-08	-5.513749e-06	-1.116841e-09	-3.836575e+01	-7.402203e+01
5.000000e-08	-5.512424e-06	-1.116083e-09	-3.835654e+01	-7.401345e+01
6.000000e-08	-5.510469e-06	-1.118943e-09	-3.834293e+01	-7.400219e+01
7.000000e-08	-5.507928e-06	-1.137433e-09	-3.832525e+01	-7.398797e+01
8.000000e-08	-5.504861e-06	-1.138613e-09	-3.830391e+01	-7.397048e+01
9.000000e-08	-5.501313e-06	-1.067065e-09	-3.827922e+01	-7.394943e+01
1.000000e-07	-5.497407e-06	-1.051378e-09	-3.825204e+01	-7.392454e+01
1.100000e-07	-5.493134e-06	-1.183634e-09	-3.822231e+01	-7.389554e+01
1.200000e-07	-5.488546e-06	-1.187326e-09	-3.819039e+01	-7.386218e+01
1.300000e-07	-5.483793e-06	-1.087515e-09	-3.815732e+01	-7.382422e+01
1.400000e-07	-5.478767e-06	-1.030573e-09	-3.812235e+01	-7.378144e+01
1.500000e-07	-5.473241e-06	-1.138474e-09	-3.808390e+01	-7.373365e+01
1.600000e-07	-5.467209e-06	-1.201083e-09	-3.804192e+01	-7.368066e+01
1.700000e-07	-5.460890e-06	-1.059477e-09	-3.799796e+01	-7.362234e+01
1.800000e-07	-5.454257e-06	-1.058671e-09	-3.795180e+01	-7.355855e+01
1.900000e-07	-5.447112e-06	-1.138362e-09	-3.790209e+01	-7.348919e+01
2.000000e-07	-5.439527e-06	-1.209115e-09	-3.784931e+01	-7.341420e+01
2.100000e-07	-5.431738e-06	-1.091102e-09	-3.779511e+01	-7.333354e+01
2.200000e-07	-5.423794e-06	-1.084780e-09	-3.773983e+01	-7.324718e+01
2.300000e-07	-5.415583e-06	-1.128007e-09	-3.768270e+01	-7.315515e+01
2.400000e-07	-5.406932e-06	-1.175012e-09	-3.762251e+01	-7.305749e+01
2.500000e-07	-5.397711e-06	-1.105468e-09	-3.755834e+01	-7.295427e+01
2.600000e-07	-5.387888e-06	-1.092658e-09	-3.749000e+01	-7.284559e+01
2.700000e-07	-5.377349e-06	-1.117406e-09	-3.741666e+01	-7.273158e+01
2.800000e-07	-5.366246e-06	-1.115785e-09	-3.733940e+01	-7.261238e+01
2.900000e-07	-5.354775e-06	-1.072302e-09	-3.725959e+01	-7.248816e+01
3.000000e-07	-5.342855e-06	-1.062635e-09	-3.717664e+01	-7.235913e+01
3.100000e-07	-5.330535e-06	-1.103303e-09	-3.709092e+01	-7.222550e+01
3.200000e-07	-5.317957e-06	-1.094946e-09	-3.700340e+01	-7.208750e+01
3.300000e-07	-5.304985e-06	-1.079084e-09	-3.691313e+01	-7.194538e+01
3.400000e-07	-5.291465e-06	-1.046609e-09	-3.681906e+01	-7.179940e+01
3.500000e-07	-5.277560e-06	-1.093628e-09	-3.672231e+01	-7.164983e+01
3.600000e-07	-5.263398e-06	-1.072591e-09	-3.662376e+01	-7.149695e+01
3.700000e-07	-5.248671e-06	-1.035550e-09	-3.652129e+01	-7.134105e+01
3.800000e-07	-5.233267e-06	-1.039535e-09	-3.641411e+01	-7.118242e+01
3.900000e-07	-5.217390e-06	-1.127293e-09	-3.630363e+01	-7.102135e+01
4.000000e-07	-5.201032e-06	-1.058220e-09	-3.618981e+01	-7.085812e+01
4.100000e-07	-5.184238e-06	-1.007201e-09	-3.607296e+01	-7.069301e+01
4.200000e-07	-5.167238e-06	-1.089521e-09	-3.595467e+01	-7.052629e+01
4.300000e-07	-5.150009e-06	-1.126196e-09	-3.583478e+01	-7.035824e+01
4.400000e-07	-5.132328e-06	-9.835201e-10	-3.571176e+01	-7.018909e+01
4.500000e-07	-5.114358e-06	-1.021684e-09	-3.558672e+01	-7.001910e+01
4.600000e-07	-5.096078e-06	-1.131147e-09	-3.545952e+01	-6.984846e+01
4.700000e-07	-5.077404e-06	-1.046118e-09	-3.532958e+01	-6.967739e+01
4.800000e-07	-5.058366e-06	-9.691644e-10	-3.519711e+01	-6.950607e+01
4.900000e-07	-5.039031e-06	-1.106241e-09	-3.506258e+01	-6.933466e+01
5.000000e-07	-5.019460e-06	-1.088846e-09	-3.492639e+01	-6.916329e+01
5.100000e-07	-4.999584e-06	-9.730179e-10	-3.478809e+01	-6.899207e+01
5.200000e-07	-4.979432e-06	-1.055412e-09	-3.464788e+01	-6.882109e+01
5.300000e-07	-4.958953e-06	-1.115885e-09	-3.450538e+01	-6.865042e+01
5.400000e-07	-4.938079e-06	-9.808577e-10	-3.436013e+01	-6.848009e+01
5.500000e-07	-4.916796e-06	-1.003490e-09	-3.421204e+01	-6.831011e+01
5.600000e-07	-4.895167e-06	-1.111620e-09	-3.406154e+01	-6.814048e+01
5.700000e-07	-4.873286e-06	-1.017027e-09	-3.390929e+01	-6.797115e+01
5.800000e-07	-4.850998e-06	-9.633168e-10	-3.375421e+01	-6.780206e+01
5.900000e-07	-4.828342e-06	-1.075795e-09	-3.359656e+01	-6.763312e+01
6.000000e-07	-4.805338e-06	-1.058803e-09	-3.343650e+01	-6.746423e+01
6.100000e-07	-4.782019e-06	-9.739059e-10	-3.327423e+01	-6.729527e+01
6.200000e-07	-4.758548e-06	-1.045453e-09	-3.311092e+01	-6.712607e+01
6.300000e-07	-4.734832e-06	-1.062123e-09	-3.294590e+01	-6.695648e+01
6.400000e-07	-4.710820e-06	-9.885349e-10	-3.277882e+01	-6.678632e+01
6.500000e-07	-4.686605e-06	-1.004238e-09	-3.261033e+01	-6.661540e+01
6.600000e-07	-4.662051e-06	-1.045773e-09	-3.243948e+01	-6.644349e+01
6.700000e-07	-4.636959e-06	-9.845637e-10	-3.226488e+01	-6.627040e+01
6.800000e-07	-4.611353e-06	-9.865649e-10	-3.208671e+01	-6.609588e+01
6.900000e-07	-4.585157e-06	-1.022204e-09	-3.190443e+01	-6.591972e+01
7.000000e-07	-4.558476e-06	-1.002514e-09	-3.171878e+01	-6.574168e+01
7.100000e-07	-4.531401e-06	-9.814864e-10	-3.153038e+01	-6.556152e+01
7.200000e-07	-4.503952e-06	-1.010589e-09	-3.133939e+01	-6.537901e+01
7.300000e-07	-4.476255e-06	-9.911835e-10	-3.114667e+01	-6.519391e+01
7.400000e-07	-4.448353e-06	-9.733083e-10	-3.095252e+01	-6.500600e+01
7.500000e-07	-4.420339e-06	-9.821059e-10	-3.075760e+01	-6.481505e+01
7.600000e-07	-4.392099e-06	-9.815749e-10	-3.056109e+01	-6.462085e+01
7.700000e-07	-4.363483e-06	-9.589409e-10	-3.036198e+01	-6.442321e+01
7.800000e-07	-4.334506e-06	-9.706719e-10	-3.016035e+01	-6.422192e+01
7.900000e-07	-4.305233e-06	-9.655765e-10	-2.995667e+01	-6.401681e+01
8.000000e-07	-4.275704e-06	-9.489685e-10	-2.975120e+01	-6.380772e+01
8.100000e-07	-4.245891e-06	-9.490115e-10	-2.954375e+01	-6.359448e+01
8.200000e-07	-4.215775e-06	-9.528394e-10	-2.933420e+01	-6.337698e+01
8.300000e-07	-4.185361e-06	-9.306146e-10	-2.912257e+01	-6.315509e+01
8.400000e-07	-4.154630e-06	-9.226433e-10	-2.890874e+01	-6.292871e+01
8.500000e-07	-4.123552e-06	-9.310666e-10	-2.869249e+01	-6.269776e+01
8.600000e-07	-4.092253e-06	-9.195661e-10	-2.847471e+01	-6.246216e+01
8.700000e-07	-4.060786e-06	-9.086597e-10	-2.825575e+01	-6.222188e+01
8.800000e-07	-4.029189e-06	-9.169445e-10	-2.803590e+01	-6.197688e+01
8.900000e-07	-3.997482e-06	-9.152344e-10	-2.781527e+01	-6.172715e+01
9.000000e-07	-3.965549e-06	-8.974338e-10	-2.759308e+01	-6.147268e+01
9.100000e-07	-3.933244e-06	-8.996903e-10	-2.736829e+01	-6.121350e+01
9.200000e-07	-3.900566e-06	-8.971187e-10	-2.714091e+01	-6.094962e+01
9.300000e-07	-3.867435e-06	-8.793310e-10	-2.691038e+01	-6.068110e+01
9.400000e-07	-3.833918e-06	-8.728832e-10	-2.667716e+01	-6.040800e+01
9.500000e-07	-3.800080e-06	-8.823788e-10	-2.644171e+01	-6.013037e+01
9.600000e-07	-3.765756e-06	-8.699623e-10	-2.620288e+01	-5.984830e+01
9.700000e-07	-3.731007e-06	-8.609998e-10	-2.596109e+01	-5.956187e+01
9.800000e-07	-3.695937e-06	-8.627413e-10	-2.571706e+01	-5.927117e+01
9.900000e-07	-3.660561e-06	-8.620665e-10	-2.547091e+01	-5.897631e+01
1.000000e-06	-3.624956e-06	-8.477574e-10	-2.522316e+01	-5.867738e+01
1.010000e-06	-3.589269e-06	-8.513178e-10	-2.497484e+01	-5.837449e+01
1.020000e-06	-3.553482e-06	-8.539148e-10	-2.472583e+01	-5.806774e+01
1.030000e-06	-3.517523e-06	-8.472278e-10	-2.447562e+01	-5.775723e+01
1.040000e-06	-3.481297e-06	-8.395183e-10	-2.422355e+01	-5.744308e+01
1.050000e-06	-3.444878e-06	-8.422261e-10	-2.397014e+01	-5.712538e+01
1.060000e-06	-3.408239e-06	-8.315662e-10	-2.371520e+01	-5.680423e+01
1.070000e-06	-3.371282e-06	-8.219118e-10	-2.345805e+01	-5.647971e+01
1.080000e-06	-3.334077e-06	-8.203494e-10	-2.319917e+01	-5.615191e+01
1.090000e-06	-3.296597e-06	-8.193588e-10	-2.293838e+01	-5.582090e+01
1.100000e-06	-3.258824e-06	-8.145292e-10	-2.267554e+01	-5.548675e+01
1.110000e-06	-3.220817e-06	-8.122758e-10	-2.241108e+01	-5.514951e+01
1.120000e-06	-3.182716e-06	-8.077145e-10	-2.214597e+01	-5.480922e+01
1.130000e-06	-3.144465e-06	-7.976817e-10	-2.187981e+01	-5.446592e+01
1.140000e-06	-3.105854e-06	-7.906389e-10	-2.161114e+01	-5.411961e+01
1.150000e-06	-3.066931e-06	-7.878721e-10	-2.134032e+01	-5.377032e+01
1.160000e-06	-3.027820e-06	-7.827056e-10	-2.106817e+01	-5.341802e+01
1.170000e-06	-2.988632e-06	-7.790732e-10	-2.079549e+01	-5.306271e+01
1.180000e-06	-2.949304e-06	-7.747500e-10	-2.052184e+01	-5.270433e+01
1.190000e-06	-2.909769e-06	-7.675948e-10	-2.024675e+01	-5.234283e+01
1.200000e-06	-2.870136e-06	-7.597084e-10	-1.997098e+01	-5.197816e+01
1.210000e-06	-2.830406e-06	-7.526984e-10	-1.969453e+01	-5.161023e+01
1.220000e-06	-2.790486e-06	-7.486691e-10	-1.941676e+01	-5.123894e+01
1.230000e-06	-2.750386e-06	-7.434197e-10	-1.913773e+01	-5.086419e+01
1.240000e-06	-2.710140e-06	-7.407479e-10	-1.885769e+01	-5.048584e+01
1.250000e-06	-2.669746e-06	-7.347561e-10	-1.857662e+01	-5.010376e+01
1.260000e-06	-2.629161e-06	-7.285114e-10	-1.829422e+01	-4.971779e+01
1.270000e-06	-2.588357e-06	-7.179193e-10	-1.801030e+01	-4.932776e+01
1.280000e-06	-2.547325e-06	-7.072863e-10	-1.772479e+01	-4.893349e+01
1.290000e-06	-2.505898e-06	-6.971258e-10	-1.743654e+01	-4.853478e+01
1.300000e-06	-2.464127e-06	-6.938366e-10	-1.714588e+01	-4.813144e+01
1.310000e-06	-2.421965e-06	-6.900327e-10	-1.685251e+01	-4.772322e+01
1.320000e-06	-2.379462e-06	-6.852553e-10	-1.655677e+01	-4.730990e+01
1.330000e-06	-2.336759e-06	-6.777410e-10	-1.625964e+01	-4.689124e+01
1.340000e-06	-2.293819e-06	-6.702402e-10	-1.596085e+01	-4.646696e+01
1.350000e-06	-2.250616e-06	-6.607360e-10	-1.566023e+01	-4.603681e+01
1.360000e-06	-2.207285e-06	-6.500191e-10	-1.535873e+01	-4.560050e+01
1.370000e-06	-2.163858e-06	-6.382140e-10	-1.505655e+01	-4.515774e+01
1.380000e-06	-2.120272e-06	-6.305850e-10	-1.475327e+01	-4.470823e+01
1.390000e-06	-2.076558e-06	-6.236232e-10	-1.444910e+01	-4.425166e+01
1.400000e-06	-2.032771e-06	-6.172500e-10	-1.414443e+01	-4.378770e+01
1.410000e-06	-1.988989e-06	-6.111740e-10	-1.383978e+01	-4.331603e+01
1.420000e-06	-1.945102e-06	-6.052634e-10	-1.353441e+01	-4.283630e+01
1.430000e-06	-1.901111e-06	-5.968738e-10	-1.322831e+01	-4.234818e+01
1.440000e-06	-1.857039e-06	-5.867236e-10	-1.292164e+01	-4.185130e+01
1.450000e-06	-1.812872e-06	-5.742806e-10	-1.261432e+01	-4.134530e+01
1.460000e-06	-1.768625e-06	-5.621321e-10	-1.230644e+01	-4.082982e+01
1.470000e-06	-1.724260e-06	-5.511536e-10	-1.199774e+01	-4.030448e+01
1.480000e-06	-1.679742e-06	-5.393981e-10	-1.168798e+01	-3.976892e+01
1.490000e-06	-1.635104e-06	-5.321374e-10	-1.137738e+01	-3.922273e+01
1.500000e-06	-1.590311e-06	-5.271612e-10	-1.106570e+01	-3.866555e+01
1.510000e-06	-1.545323e-06	-5.212781e-10	-1.075266e+01	-3.809698e+01
1.520000e-06	-1.500148e-06	-5.130004e-10	-1.043833e+01	-3.751663e+01
1.530000e-06	-1.454863e-06	-5.033189e-10	-1.012323e+01	-3.692412e+01
1.540000e-06	-1.409569e-06	-4.926320e-10	-9.808058e+00	-3.631907e+01
1.550000e-06	-1.364259e-06	-4.819111e-10	-9.492782e+00	-3.570107e+01
1.560000e-06	-1.318910e-06	-4.710862e-10	-9.177239e+00	-3.506976e+01
1.570000e-06	-1.273478e-06	-4.618188e-10	-8.861109e+00	-3.442477e+01
1.580000e-06	-1.227912e-06	-4.515870e-10	-8.544056e+00	-3.376571e+01
1.590000e-06	-1.182266e-06	-4.411222e-10	-8.226440e+00	-3.309224e+01
1.600000e-06	-1.136525e-06	-4.316675e-10	-7.908169e+00	-3.240401e+01
1.610000e-06	-1.090641e-06	-4.229584e-10	-7.588894e+00	-3.170068e+01
1.620000e-06	-1.044659e-06	-4.099625e-10	-7.268942e+00	-3.098193e+01
1.630000e-06	-9.986216e-07	-3.978269e-10	-6.948607e+00	-3.024745e+01
1.640000e-06	-9.524854e-07	-3.868786e-10	-6.627582e+00	-2.949696e+01
1.650000e-06	-9.062564e-07	-3.745078e-10	-6.305912e+00	-2.873019e+01
1.660000e-06	-8.600194e-07	-3.606611e-10	-5.984185e+00	-2.794691e+01
1.670000e-06	-8.137216e-07	-3.502199e-10	-5.662036e+00	-2.714688e+01
1.680000e-06	-7.674360e-07	-3.399820e-10	-5.339972e+00	-2.632993e+01
1.690000e-06	-7.211881e-07	-3.289012e-10	-5.018170e+00	-2.549589e+01
1.700000e-06	-6.748090e-07	-3.183181e-10	-4.695455e+00	-2.464462e+01
1.710000e-06	-6.283258e-07	-3.056612e-10	-4.372016e+00	-2.377603e+01
1.720000e-06	-5.817669e-07	-2.913915e-10	-4.048049e+00	-2.289007e+01
1.730000e-06	-5.351683e-07	-2.760309e-10	-3.723807e+00	-2.198669e+01
1.740000e-06	-4.885989e-07	-2.593974e-10	-3.399768e+00	-2.106593e+01
1.750000e-06	-4.419836e-07	-2.445313e-10	-3.075409e+00	-2.012782e+01
1.760000e-06	-3.952858e-07	-2.306304e-10	-2.750477e+00	-1.917248e+01
1.770000e-06	-3.485709e-07	-2.164810e-10	-2.425425e+00	-1.820003e+01
1.780000e-06	-3.018253e-07	-2.019666e-10	-2.100160e+00	-1.721067e+01
1.790000e-06	-2.550724e-07	-1.865728e-10	-1.774845e+00	-1.620462e+01
1.800000e-06	-2.083934e-07	-1.720855e-10	-1.450042e+00	-1.518217e+01
1.810000e-06	-1.616432e-07	-1.562173e-10	-1.124746e+00	-1.414363e+01
1.820000e-06	-1.148373e-07	-1.401751e-10	-7.990604e-01	-1.308937e+01
1.830000e-06	-6.811738e-08	-1.253715e-10	-4.739742e-01	-1.201983e+01
1.840000e-06	-2.133147e-08	-1.106870e-10	-1.484286e-01	-1.093545e+01
1.850000e-06	2.544111e-08	-9.522412e-11	1.770243e-01	-9.836766e+00
1.860000e-06	7.215506e-08	-8.086399e-11	5.020692e-01	-8.724324e+00
1.870000e-06	1.189691e-07	-6.481086e-11	8.278103e-01	-7.598733e+00
1.880000e-06	1.658394e-07	-4.672067e-11	1.153943e+00	-6.460640e+00
1.890000e-06	2.126515e-07	-2.974145e-11	1.479671e+00	-5.310737e+00
1.900000e-06	2.593881e-07	-1.477599e-11	1.804874e+00	-4.149757e+00
1.910000e-06	3.060840e-07	-8.418263e-13	2.129793e+00	-2.978469e+00
1.920000e-06	3.528022e-07	1.418504e-11	2.454868e+00	-1.797681e+00
1.930000e-06	3.994795e-07	3.209253e-11	2.779657e+00	-6.082351e-01
1.940000e-06	4.460524e-07	5.024452e-11	3.103721e+00	5.889975e-01
1.950000e-06	4.925957e-07	6.837791e-11	3.427578e+00	1.793116e+00
1.960000e-06	5.390742e-07	8.625796e-11	3.750985e+00	3.003193e+00
1.970000e-06	5.856136e-07	1.040663e-10	4.074815e+00	4.218282e+00
1.980000e-06	6.320910e-07	1.209330e-10	4.398214e+00	5.437416e+00
1.990000e-06	6.784143e-07	1.363127e-10	4.720541e+00	6.659614e+00
2.000000e-06	7.247576e-07	1.506432e-10	5.043007e+00	7.883882e+00
2.010000e-06	7.710065e-07	1.665764e-10	5.364816e+00	9.109222e+00
2.020000e-06	8.172381e-07	1.808735e-10	5.686505e+00	1.033463e+01
2.030000e-06	8.634929e-07	1.980396e-10	6.008355e+00	1.155910e+01
2.040000e-06	9.096378e-07	2.203910e-10	6.329440e+00	1.278163e+01
2.050000e-06	9.556856e-07	2.410572e-10	6.649849e+00	1.400124e+01
2.060000e-06	1.001593e-06	2.613661e-10	6.969285e+00	1.521694e+01
2.070000e-06	1.047412e-06	2.790890e-10	7.288101e+00	1.642776e+01
2.080000e-06	1.093152e-06	2.946365e-10	7.606367e+00	1.763277e+01
2.090000e-06	1.138856e-06	3.091069e-10	7.924385e+00	1.883102e+01
2.100000e-06	1.184545e-06	3.255212e-10	8.242298e+00	2.002164e+01
2.110000e-06	1.230127e-06	3.426672e-10	8.559466e+00	2.120374e+01
2.120000e-06	1.275566e-06	3.595068e-10	8.875644e+00	2.237649e+01
2.130000e-06	1.320944e-06	3.769737e-10	9.191391e+00	2.353908e+01
2.140000e-06	1.366306e-06	3.929462e-10	9.507031e+00	2.469075e+01
2.150000e-06	1.411497e-06	4.068306e-10	9.821476e+00	2.583076e+01
2.160000e-06	1.456576e-06	4.209122e-10	1.013515e+01	2.695842e+01
2.170000e-06	1.501520e-06	4.370775e-10	1.044788e+01	2.807309e+01
2.180000e-06	1.546326e-06	4.539068e-10	1.075964e+01	2.917417e+01
2.190000e-06	1.591089e-06	4.717362e-10	1.107111e+01	3.026109e+01
2.200000e-06	1.635673e-06	4.904350e-10	1.138134e+01	3.133334e+01
2.210000e-06	1.680181e-06	5.041777e-10	1.169103e+01	3.239046e+01
2.220000e-06	1.724636e-06	5.138102e-10	1.200036e+01	3.343202e+01
2.230000e-06	1.768928e-06	5.225779e-10	1.230855e+01	3.445765e+01
2.240000e-06	1.813143e-06	5.342822e-10	1.261621e+01	3.546701e+01
2.250000e-06	1.857227e-06	5.500052e-10	1.292296e+01	3.645983e+01
2.260000e-06	1.901169e-06	5.681120e-10	1.322871e+01	3.743585e+01
2.270000e-06	1.945021e-06	5.847440e-10	1.353384e+01	3.839489e+01
2.280000e-06	1.988826e-06	5.978353e-10	1.383865e+01	3.933678e+01
2.290000e-06	2.032587e-06	6.080207e-10	1.414314e+01	4.026141e+01
2.300000e-06	2.076312e-06	6.164549e-10	1.444739e+01	4.116870e+01
2.310000e-06	2.120020e-06	6.243730e-10	1.475152e+01	4.205861e+01
2.320000e-06	2.163685e-06	6.345895e-10	1.505535e+01	4.293112e+01
2.330000e-06	2.207249e-06	6.491553e-10	1.535847e+01	4.378627e+01
2.340000e-06	2.250606e-06	6.640038e-10	1.566016e+01	4.462410e+01
2.350000e-06	2.293807e-06	6.768826e-10	1.596077e+01	4.544469e+01
2.360000e-06	2.336797e-06	6.882016e-10	1.625990e+01	4.624816e+01
2.370000e-06	2.379450e-06	6.978936e-10	1.655668e+01	4.703463e+01
2.380000e-06	2.421801e-06	7.055000e-10	1.685137e+01	4.780424e+01
2.390000e-06	2.463811e-06	7.144350e-10	1.714368e+01	4.855717e+01
2.400000e-06	2.505429e-06	7.248616e-10	1.743327e+01	4.929359e+01
2.410000e-06	2.546697e-06	7.367867e-10	1.772042e+01	5.001370e+01
2.420000e-06	2.587702e-06	7.477188e-10	1.800574e+01	5.071770e+01
2.430000e-06	2.628527e-06	7.559888e-10	1.828981e+01	5.140581e+01
2.440000e-06	2.669080e-06	7.624719e-10	1.857198e+01	5.207824e+01
2.450000e-06	2.709434e-06	7.691477e-10	1.885278e+01	5.273523e+01
2.460000e-06	2.749633e-06	7.747242e-10	1.913249e+01	5.337701e+01
2.470000e-06	2.789627e-06	7.824186e-10	1.941078e+01	5.400379e+01
2.480000e-06	2.829479e-06	7.923710e-10	1.968808e+01	5.461582e+01
2.490000e-06	2.869191e-06	8.021375e-10	1.996440e+01	5.521333e+01
2.500000e-06	2.908790e-06	8.098207e-10	2.023994e+01	5.579653e+01
2.510000e-06	2.948286e-06	8.149854e-10	2.051476e+01	5.636567e+01
2.520000e-06	2.987647e-06	8.208581e-10	2.078864e+01	5.692096e+01
2.530000e-06	3.026835e-06	8.263094e-10	2.106132e+01	5.746262e+01
2.540000e-06	3.065801e-06	8.343956e-10	2.133245e+01	5.799086e+01
2.550000e-06	3.104454e-06	8.410059e-10	2.160141e+01	5.850590e+01
2.560000e-06	3.142784e-06	8.459534e-10	2.186811e+01	5.900795e+01
2.570000e-06	3.180933e-06	8.509808e-10	2.213356e+01	5.949720e+01
2.580000e-06	3.218951e-06	8.602455e-10	2.239810e+01	5.997385e+01
2.590000e-06	3.256785e-06	8.715235e-10	2.266135e+01	6.043811e+01
2.600000e-06	3.294437e-06	8.785759e-10	2.292335e+01	6.089016e+01
2.610000e-06	3.331912e-06	8.836536e-10	2.318410e+01	6.133020e+01
2.620000e-06	3.369138e-06	8.890782e-10	2.344313e+01	6.175842e+01
2.630000e-06	3.406027e-06	8.930382e-10	2.369981e+01	6.217500e+01
2.640000e-06	3.442608e-06	8.944195e-10	2.395435e+01	6.258013e+01
2.650000e-06	3.478910e-06	8.989578e-10	2.420695e+01	6.297401e+01
2.660000e-06	3.515032e-06	9.087348e-10	2.445829e+01	6.335682e+01
2.670000e-06	3.551018e-06	9.190383e-10	2.470869e+01	6.372876e+01
2.680000e-06	3.586830e-06	9.308831e-10	2.495787e+01	6.409003e+01
2.690000e-06	3.622558e-06	9.410077e-10	2.520648e+01	6.444082e+01
2.700000e-06	3.658147e-06	9.413233e-10	2.545411e+01	6.478134e+01
2.710000e-06	3.693477e-06	9.381329e-10	2.569995e+01	6.511180e+01
2.720000e-06	3.728605e-06	9.395114e-10	2.594437e+01	6.543241e+01
2.730000e-06	3.763496e-06	9.436006e-10	2.618715e+01	6.574339e+01
2.740000e-06	3.798022e-06	9.500304e-10	2.642739e+01	6.604496e+01
2.750000e-06	3.832021e-06	9.578077e-10	2.666396e+01	6.633736e+01
2.760000e-06	3.865484e-06	9.664224e-10	2.689681e+01	6.662083e+01
2.770000e-06	3.898523e-06	9.748693e-10	2.712669e+01	6.689560e+01
2.780000e-06	3.931077e-06	9.796915e-10	2.735321e+01	6.716192e+01
2.790000e-06	3.963246e-06	9.818323e-10	2.757705e+01	6.742003e+01
2.800000e-06	3.995149e-06	9.800276e-10	2.779904e+01	6.767021e+01
2.810000e-06	4.026917e-06	9.792631e-10	2.802008e+01	6.791270e+01
2.820000e-06	4.058585e-06	9.812933e-10	2.824044e+01	6.814776e+01
2.830000e-06	4.090078e-06	9.854590e-10	2.845957e+01	6.837566e+01
2.840000e-06	4.121448e-06	9.911949e-10	2.867785e+01	6.859667e+01
2.850000e-06	4.152499e-06	9.952470e-10	2.889391e+01	6.881103e+01
2.860000e-06	4.183199e-06	9.972592e-10	2.910753e+01	6.901902e+01
2.870000e-06	4.213588e-06	9.993442e-10	2.931898e+01	6.922089e+01
2.880000e-06	4.243627e-06	1.001516e-09	2.952800e+01	6.941689e+01
2.890000e-06	4.273374e-06	1.001064e-09	2.973498e+01	6.960728e+01
2.900000e-06	4.302813e-06	9.991982e-10	2.993983e+01	6.979229e+01
