# Temperatura_=_15.08
# Concentracion g/m^3_=_1620.0
# C_Vs_to_Am_M_A/Vsm_=_65563218390.804596
# pendiente_HvsI_1/m_=_3716.3
# ordenada_HvsI_A/m_=_1297.0
# frecuencia_Hz_=_135105.24043477984

Tiempo_(s)	Campo_(V.s)	Magnetizacion_(V.s)	Campo_(kA/m)	Magnetizacion_(A/m)
0.000000e+00	-5.506733e-06	-1.156245e-09	-3.837078e+01	-7.335825e+01
1.000000e-08	-5.507055e-06	-1.156611e-09	-3.837302e+01	-7.332422e+01
2.000000e-08	-5.507122e-06	-1.150388e-09	-3.837349e+01	-7.328941e+01
3.000000e-08	-5.506834e-06	-1.143763e-09	-3.837148e+01	-7.325375e+01
4.000000e-08	-5.506183e-06	-1.139233e-09	-3.836695e+01	-7.321718e+01
5.000000e-08	-5.505003e-06	-1.137035e-09	-3.835872e+01	-7.317961e+01
6.000000e-08	-5.503206e-06	-1.140348e-09	-3.834621e+01	-7.314093e+01
7.000000e-08	-5.500917e-06	-1.155440e-09	-3.833026e+01	-7.310105e+01
8.000000e-08	-5.498043e-06	-1.186269e-09	-3.831023e+01	-7.305985e+01
9.000000e-08	-5.494607e-06	-1.155609e-09	-3.828628e+01	-7.301721e+01
1.000000e-07	-5.490746e-06	-1.067230e-09	-3.825938e+01	-7.297302e+01
1.100000e-07	-5.486490e-06	-1.074460e-09	-3.822972e+01	-7.292714e+01
1.200000e-07	-5.482027e-06	-1.180930e-09	-3.819863e+01	-7.287944e+01
1.300000e-07	-5.477403e-06	-1.198169e-09	-3.816641e+01	-7.282980e+01
1.400000e-07	-5.472364e-06	-1.126952e-09	-3.813130e+01	-7.277808e+01
1.500000e-07	-5.466925e-06	-1.065824e-09	-3.809340e+01	-7.272415e+01
1.600000e-07	-5.461203e-06	-1.168951e-09	-3.805353e+01	-7.266788e+01
1.700000e-07	-5.455078e-06	-1.182536e-09	-3.801085e+01	-7.260914e+01
1.800000e-07	-5.448512e-06	-1.121043e-09	-3.796510e+01	-7.254780e+01
1.900000e-07	-5.441572e-06	-1.056222e-09	-3.791674e+01	-7.248375e+01
2.000000e-07	-5.434297e-06	-1.128553e-09	-3.786605e+01	-7.241687e+01
2.100000e-07	-5.426763e-06	-1.173683e-09	-3.781355e+01	-7.234704e+01
2.200000e-07	-5.418955e-06	-1.134950e-09	-3.775914e+01	-7.227415e+01
2.300000e-07	-5.410897e-06	-1.084148e-09	-3.770300e+01	-7.219811e+01
2.400000e-07	-5.402439e-06	-1.101862e-09	-3.764406e+01	-7.211883e+01
2.500000e-07	-5.393299e-06	-1.128405e-09	-3.758037e+01	-7.203621e+01
2.600000e-07	-5.383521e-06	-1.101723e-09	-3.751224e+01	-7.195017e+01
2.700000e-07	-5.373065e-06	-1.091791e-09	-3.743938e+01	-7.186065e+01
2.800000e-07	-5.362025e-06	-1.088039e-09	-3.736246e+01	-7.176757e+01
2.900000e-07	-5.350584e-06	-1.106785e-09	-3.728273e+01	-7.167089e+01
3.000000e-07	-5.338789e-06	-1.083074e-09	-3.720055e+01	-7.157053e+01
3.100000e-07	-5.326665e-06	-1.093976e-09	-3.711607e+01	-7.146647e+01
3.200000e-07	-5.314107e-06	-1.086221e-09	-3.702856e+01	-7.135866e+01
3.300000e-07	-5.301151e-06	-1.116137e-09	-3.693829e+01	-7.124708e+01
3.400000e-07	-5.287820e-06	-1.083380e-09	-3.684540e+01	-7.113170e+01
3.500000e-07	-5.274023e-06	-1.074083e-09	-3.674926e+01	-7.101251e+01
3.600000e-07	-5.259799e-06	-1.068872e-09	-3.665015e+01	-7.088948e+01
3.700000e-07	-5.245220e-06	-1.085562e-09	-3.654857e+01	-7.076263e+01
3.800000e-07	-5.230157e-06	-1.047598e-09	-3.644360e+01	-7.063194e+01
3.900000e-07	-5.214522e-06	-1.073385e-09	-3.633466e+01	-7.049743e+01
4.000000e-07	-5.198395e-06	-1.092713e-09	-3.622229e+01	-7.035911e+01
4.100000e-07	-5.181827e-06	-1.056393e-09	-3.610684e+01	-7.021699e+01
4.200000e-07	-5.164964e-06	-1.030316e-09	-3.598934e+01	-7.007109e+01
4.300000e-07	-5.147805e-06	-1.093143e-09	-3.586978e+01	-6.992144e+01
4.400000e-07	-5.130271e-06	-1.081687e-09	-3.574760e+01	-6.976806e+01
4.500000e-07	-5.112341e-06	-1.009437e-09	-3.562267e+01	-6.961099e+01
4.600000e-07	-5.093926e-06	-1.036493e-09	-3.549435e+01	-6.945027e+01
4.700000e-07	-5.075137e-06	-1.081723e-09	-3.536343e+01	-6.928593e+01
4.800000e-07	-5.056093e-06	-1.024119e-09	-3.523073e+01	-6.911802e+01
4.900000e-07	-5.036699e-06	-1.010118e-09	-3.509559e+01	-6.894658e+01
5.000000e-07	-5.017056e-06	-1.071075e-09	-3.495872e+01	-6.877165e+01
5.100000e-07	-4.997235e-06	-1.037727e-09	-3.482061e+01	-6.859330e+01
5.200000e-07	-4.977145e-06	-9.988395e-10	-3.468063e+01	-6.841158e+01
5.300000e-07	-4.956841e-06	-1.048140e-09	-3.453914e+01	-6.822653e+01
5.400000e-07	-4.936199e-06	-1.046002e-09	-3.439531e+01	-6.803822e+01
5.500000e-07	-4.915156e-06	-9.708547e-10	-3.424868e+01	-6.784671e+01
5.600000e-07	-4.893757e-06	-1.001327e-09	-3.409958e+01	-6.765206e+01
5.700000e-07	-4.871948e-06	-1.035695e-09	-3.394761e+01	-6.745434e+01
5.800000e-07	-4.849795e-06	-9.916027e-10	-3.379325e+01	-6.725360e+01
5.900000e-07	-4.827321e-06	-9.838267e-10	-3.363665e+01	-6.704991e+01
6.000000e-07	-4.804462e-06	-1.032602e-09	-3.347737e+01	-6.684334e+01
6.100000e-07	-4.781342e-06	-1.003315e-09	-3.331628e+01	-6.663396e+01
6.200000e-07	-4.757981e-06	-9.855553e-10	-3.315350e+01	-6.642184e+01
6.300000e-07	-4.734343e-06	-1.010166e-09	-3.298879e+01	-6.620704e+01
6.400000e-07	-4.710454e-06	-1.005205e-09	-3.282233e+01	-6.598962e+01
6.500000e-07	-4.686240e-06	-9.739027e-10	-3.265361e+01	-6.576967e+01
6.600000e-07	-4.661639e-06	-9.932057e-10	-3.248218e+01	-6.554723e+01
6.700000e-07	-4.636535e-06	-9.900379e-10	-3.230726e+01	-6.532238e+01
6.800000e-07	-4.610927e-06	-9.691071e-10	-3.212882e+01	-6.509517e+01
6.900000e-07	-4.584855e-06	-9.714716e-10	-3.194716e+01	-6.486566e+01
7.000000e-07	-4.558285e-06	-9.837673e-10	-3.176202e+01	-6.463391e+01
7.100000e-07	-4.531238e-06	-9.675044e-10	-3.157356e+01	-6.439995e+01
7.200000e-07	-4.503892e-06	-9.646982e-10	-3.138301e+01	-6.416385e+01
7.300000e-07	-4.476400e-06	-9.669947e-10	-3.119145e+01	-6.392563e+01
7.400000e-07	-4.448756e-06	-9.565799e-10	-3.099882e+01	-6.368533e+01
7.500000e-07	-4.420836e-06	-9.441422e-10	-3.080427e+01	-6.344297e+01
7.600000e-07	-4.392611e-06	-9.426180e-10	-3.060760e+01	-6.319858e+01
7.700000e-07	-4.364112e-06	-9.380337e-10	-3.040902e+01	-6.295215e+01
7.800000e-07	-4.335242e-06	-9.326895e-10	-3.020786e+01	-6.270370e+01
7.900000e-07	-4.306047e-06	-9.337416e-10	-3.000443e+01	-6.245322e+01
8.000000e-07	-4.276583e-06	-9.283914e-10	-2.979913e+01	-6.220067e+01
8.100000e-07	-4.246847e-06	-9.173231e-10	-2.959192e+01	-6.194605e+01
8.200000e-07	-4.216813e-06	-9.080409e-10	-2.938265e+01	-6.168931e+01
8.300000e-07	-4.186476e-06	-9.024819e-10	-2.917126e+01	-6.143039e+01
8.400000e-07	-4.155903e-06	-8.886481e-10	-2.895823e+01	-6.116925e+01
8.500000e-07	-4.125052e-06	-8.851848e-10	-2.874326e+01	-6.090581e+01
8.600000e-07	-4.093873e-06	-8.861148e-10	-2.852601e+01	-6.063998e+01
8.700000e-07	-4.062494e-06	-8.857160e-10	-2.830735e+01	-6.037167e+01
8.800000e-07	-4.031002e-06	-8.792588e-10	-2.808792e+01	-6.010079e+01
8.900000e-07	-3.999371e-06	-8.825414e-10	-2.786752e+01	-5.982722e+01
9.000000e-07	-3.967549e-06	-8.744300e-10	-2.764578e+01	-5.955082e+01
9.100000e-07	-3.935402e-06	-8.628903e-10	-2.742178e+01	-5.927149e+01
9.200000e-07	-3.902826e-06	-8.573393e-10	-2.719479e+01	-5.898906e+01
9.300000e-07	-3.869868e-06	-8.562824e-10	-2.696515e+01	-5.870340e+01
9.400000e-07	-3.836565e-06	-8.450812e-10	-2.673309e+01	-5.841435e+01
9.500000e-07	-3.802860e-06	-8.418052e-10	-2.649823e+01	-5.812175e+01
9.600000e-07	-3.768620e-06	-8.388457e-10	-2.625965e+01	-5.782545e+01
9.700000e-07	-3.733946e-06	-8.293998e-10	-2.601805e+01	-5.752526e+01
9.800000e-07	-3.698984e-06	-8.170065e-10	-2.577443e+01	-5.722104e+01
9.900000e-07	-3.663738e-06	-8.164742e-10	-2.552883e+01	-5.691260e+01
1.000000e-06	-3.628298e-06	-8.122901e-10	-2.528189e+01	-5.659979e+01
1.010000e-06	-3.592716e-06	-8.059757e-10	-2.503396e+01	-5.628245e+01
1.020000e-06	-3.556995e-06	-8.070558e-10	-2.478505e+01	-5.596041e+01
1.030000e-06	-3.521114e-06	-8.080113e-10	-2.453504e+01	-5.563353e+01
1.040000e-06	-3.484982e-06	-7.972961e-10	-2.428327e+01	-5.530166e+01
1.050000e-06	-3.448636e-06	-7.886579e-10	-2.403001e+01	-5.496467e+01
1.060000e-06	-3.412145e-06	-7.835650e-10	-2.377574e+01	-5.462244e+01
1.070000e-06	-3.375306e-06	-7.729600e-10	-2.351905e+01	-5.427486e+01
1.080000e-06	-3.338132e-06	-7.627659e-10	-2.326002e+01	-5.392183e+01
1.090000e-06	-3.300759e-06	-7.600658e-10	-2.299961e+01	-5.356326e+01
1.100000e-06	-3.263193e-06	-7.580528e-10	-2.273785e+01	-5.319910e+01
1.110000e-06	-3.225446e-06	-7.500714e-10	-2.247483e+01	-5.282929e+01
1.120000e-06	-3.187491e-06	-7.476294e-10	-2.221036e+01	-5.245380e+01
1.130000e-06	-3.149331e-06	-7.440563e-10	-2.194446e+01	-5.207261e+01
1.140000e-06	-3.110927e-06	-7.355239e-10	-2.167686e+01	-5.168574e+01
1.150000e-06	-3.072157e-06	-7.250148e-10	-2.140672e+01	-5.129319e+01
1.160000e-06	-3.033213e-06	-7.181825e-10	-2.113535e+01	-5.089501e+01
1.170000e-06	-2.994164e-06	-7.088751e-10	-2.086326e+01	-5.049126e+01
1.180000e-06	-2.954915e-06	-7.014469e-10	-2.058977e+01	-5.008201e+01
1.190000e-06	-2.915547e-06	-6.965097e-10	-2.031546e+01	-4.966735e+01
1.200000e-06	-2.876030e-06	-6.934453e-10	-2.004011e+01	-4.924739e+01
1.210000e-06	-2.836376e-06	-6.877434e-10	-1.976380e+01	-4.882224e+01
1.220000e-06	-2.796653e-06	-6.831256e-10	-1.948701e+01	-4.839205e+01
1.230000e-06	-2.756789e-06	-6.765810e-10	-1.920923e+01	-4.795694e+01
1.240000e-06	-2.716712e-06	-6.681221e-10	-1.892998e+01	-4.751707e+01
1.250000e-06	-2.676379e-06	-6.576663e-10	-1.864894e+01	-4.707260e+01
1.260000e-06	-2.635836e-06	-6.525774e-10	-1.836644e+01	-4.662369e+01
1.270000e-06	-2.595116e-06	-6.470041e-10	-1.808270e+01	-4.617049e+01
1.280000e-06	-2.554169e-06	-6.421584e-10	-1.779739e+01	-4.571316e+01
1.290000e-06	-2.512950e-06	-6.389646e-10	-1.751017e+01	-4.525185e+01
1.300000e-06	-2.471338e-06	-6.347518e-10	-1.722022e+01	-4.478672e+01
1.310000e-06	-2.429402e-06	-6.264383e-10	-1.692802e+01	-4.431788e+01
1.320000e-06	-2.387203e-06	-6.183382e-10	-1.663397e+01	-4.384547e+01
1.330000e-06	-2.344709e-06	-6.112267e-10	-1.633788e+01	-4.336957e+01
1.340000e-06	-2.301912e-06	-6.019884e-10	-1.603967e+01	-4.289028e+01
1.350000e-06	-2.258840e-06	-5.942305e-10	-1.573954e+01	-4.240765e+01
1.360000e-06	-2.215579e-06	-5.874953e-10	-1.543810e+01	-4.192170e+01
1.370000e-06	-2.172197e-06	-5.793462e-10	-1.513581e+01	-4.143244e+01
1.380000e-06	-2.128720e-06	-5.718068e-10	-1.483287e+01	-4.093982e+01
1.390000e-06	-2.085121e-06	-5.642309e-10	-1.452907e+01	-4.044379e+01
1.400000e-06	-2.041402e-06	-5.534753e-10	-1.422444e+01	-3.994424e+01
1.410000e-06	-1.997616e-06	-5.438983e-10	-1.391934e+01	-3.944102e+01
1.420000e-06	-1.953803e-06	-5.353762e-10	-1.361405e+01	-3.893394e+01
1.430000e-06	-1.909899e-06	-5.271672e-10	-1.330813e+01	-3.842278e+01
1.440000e-06	-1.865845e-06	-5.176218e-10	-1.300116e+01	-3.790725e+01
1.450000e-06	-1.821644e-06	-5.080706e-10	-1.269317e+01	-3.738705e+01
1.460000e-06	-1.777396e-06	-4.970367e-10	-1.238485e+01	-3.686181e+01
1.470000e-06	-1.733078e-06	-4.875577e-10	-1.207605e+01	-3.633113e+01
1.480000e-06	-1.688613e-06	-4.782540e-10	-1.176621e+01	-3.579455e+01
1.490000e-06	-1.644069e-06	-4.701628e-10	-1.145583e+01	-3.525158e+01
1.500000e-06	-1.599452e-06	-4.644414e-10	-1.114494e+01	-3.470169e+01
1.510000e-06	-1.554688e-06	-4.598958e-10	-1.083303e+01	-3.414431e+01
1.520000e-06	-1.509730e-06	-4.523493e-10	-1.051976e+01	-3.357881e+01
1.530000e-06	-1.464565e-06	-4.409084e-10	-1.020506e+01	-3.300457e+01
1.540000e-06	-1.419287e-06	-4.289701e-10	-9.889555e+00	-3.242090e+01
1.550000e-06	-1.373933e-06	-4.189637e-10	-9.573534e+00	-3.182711e+01
1.560000e-06	-1.328536e-06	-4.079134e-10	-9.257205e+00	-3.122247e+01
1.570000e-06	-1.283081e-06	-3.976212e-10	-8.940478e+00	-3.060623e+01
1.580000e-06	-1.237503e-06	-3.873271e-10	-8.622893e+00	-2.997765e+01
1.590000e-06	-1.191818e-06	-3.755335e-10	-8.304556e+00	-2.933595e+01
1.600000e-06	-1.146053e-06	-3.649941e-10	-7.985666e+00	-2.868038e+01
1.610000e-06	-1.100196e-06	-3.559013e-10	-7.666137e+00	-2.801017e+01
1.620000e-06	-1.054289e-06	-3.446457e-10	-7.346261e+00	-2.732457e+01
1.630000e-06	-1.008380e-06	-3.315868e-10	-7.026364e+00	-2.662284e+01
1.640000e-06	-9.624154e-07	-3.194494e-10	-6.706087e+00	-2.590426e+01
1.650000e-06	-9.164196e-07	-3.076642e-10	-6.385589e+00	-2.516814e+01
1.660000e-06	-8.703130e-07	-2.944668e-10	-6.064319e+00	-2.441384e+01
1.670000e-06	-8.240797e-07	-2.814397e-10	-5.742167e+00	-2.364073e+01
1.680000e-06	-7.778522e-07	-2.716208e-10	-5.420055e+00	-2.284825e+01
1.690000e-06	-7.315419e-07	-2.621727e-10	-5.097366e+00	-2.203588e+01
1.700000e-06	-6.852279e-07	-2.526465e-10	-4.774651e+00	-2.120316e+01
1.710000e-06	-6.389905e-07	-2.411039e-10	-4.452470e+00	-2.034971e+01
1.720000e-06	-5.927071e-07	-2.259222e-10	-4.129968e+00	-1.947519e+01
1.730000e-06	-5.463134e-07	-2.095545e-10	-3.806698e+00	-1.857936e+01
1.740000e-06	-4.997747e-07	-1.933028e-10	-3.482417e+00	-1.766204e+01
1.750000e-06	-4.531451e-07	-1.785890e-10	-3.157504e+00	-1.672314e+01
1.760000e-06	-4.064673e-07	-1.669457e-10	-2.832254e+00	-1.576266e+01
1.770000e-06	-3.597615e-07	-1.552988e-10	-2.506809e+00	-1.478067e+01
1.780000e-06	-3.129991e-07	-1.421478e-10	-2.180970e+00	-1.377736e+01
1.790000e-06	-2.661830e-07	-1.281651e-10	-1.854756e+00	-1.275298e+01
1.800000e-06	-2.194390e-07	-1.149985e-10	-1.529046e+00	-1.170789e+01
1.810000e-06	-1.727328e-07	-1.015767e-10	-1.203598e+00	-1.064256e+01
1.820000e-06	-1.260081e-07	-8.802870e-11	-8.780213e-01	-9.557526e+00
1.830000e-06	-7.926982e-08	-7.334657e-11	-5.523502e-01	-8.453428e+00
1.840000e-06	-3.250411e-08	-5.663348e-11	-2.264878e-01	-7.330999e+00
1.850000e-06	1.424272e-08	-4.111582e-11	9.924295e-02	-6.191061e+00
1.860000e-06	6.097918e-08	-2.909503e-11	4.249014e-01	-5.034523e+00
1.870000e-06	1.076646e-07	-1.388697e-11	7.502043e-01	-3.862376e+00
1.880000e-06	1.543376e-07	4.415274e-12	1.075421e+00	-2.675692e+00
1.890000e-06	2.010071e-07	2.033817e-11	1.400613e+00	-1.475615e+00
1.900000e-06	2.476353e-07	3.351769e-11	1.725517e+00	-2.633607e-01
1.910000e-06	2.942609e-07	4.728556e-11	2.050403e+00	9.597919e-01
1.920000e-06	3.409301e-07	6.277967e-11	2.375593e+00	2.192507e+00
1.930000e-06	3.875678e-07	7.997187e-11	2.700563e+00	3.433396e+00
1.940000e-06	4.341207e-07	9.916630e-11	3.024942e+00	4.681029e+00
1.950000e-06	4.806121e-07	1.191155e-10	3.348893e+00	5.933938e+00
1.960000e-06	5.270692e-07	1.375473e-10	3.672605e+00	7.190625e+00
1.970000e-06	5.735282e-07	1.525000e-10	3.996331e+00	8.449572e+00
1.980000e-06	6.199629e-07	1.674479e-10	4.319886e+00	9.709248e+00
1.990000e-06	6.663167e-07	1.820077e-10	4.642879e+00	1.096812e+01
2.000000e-06	7.125042e-07	1.957585e-10	4.964712e+00	1.222464e+01
2.010000e-06	7.586328e-07	2.122798e-10	5.286135e+00	1.347731e+01
2.020000e-06	8.047252e-07	2.287021e-10	5.607305e+00	1.472461e+01
2.030000e-06	8.508156e-07	2.474407e-10	5.928462e+00	1.596506e+01
2.040000e-06	8.968982e-07	2.695571e-10	6.249565e+00	1.719723e+01
2.050000e-06	9.428404e-07	2.891722e-10	6.569688e+00	1.841971e+01
2.060000e-06	9.887210e-07	3.079718e-10	6.889384e+00	1.963116e+01
2.070000e-06	1.034571e-06	3.251015e-10	7.208865e+00	2.083027e+01
2.080000e-06	1.080404e-06	3.401878e-10	7.528230e+00	2.201582e+01
2.090000e-06	1.126156e-06	3.540755e-10	7.847024e+00	2.318663e+01
2.100000e-06	1.171812e-06	3.715165e-10	8.165155e+00	2.434162e+01
2.110000e-06	1.217424e-06	3.900258e-10	8.482977e+00	2.547977e+01
2.120000e-06	1.262944e-06	4.060744e-10	8.800159e+00	2.660014e+01
2.130000e-06	1.308361e-06	4.203173e-10	9.116628e+00	2.770188e+01
2.140000e-06	1.353637e-06	4.359502e-10	9.432112e+00	2.878424e+01
2.150000e-06	1.398792e-06	4.521614e-10	9.746745e+00	2.984653e+01
2.160000e-06	1.443863e-06	4.662411e-10	1.006080e+01	3.088818e+01
2.170000e-06	1.488845e-06	4.802303e-10	1.037423e+01	3.190869e+01
2.180000e-06	1.533739e-06	4.939625e-10	1.068705e+01	3.290768e+01
2.190000e-06	1.578514e-06	5.072232e-10	1.099905e+01	3.388483e+01
2.200000e-06	1.623204e-06	5.213107e-10	1.131045e+01	3.483994e+01
2.210000e-06	1.667762e-06	5.338268e-10	1.162093e+01	3.577287e+01
2.220000e-06	1.712208e-06	5.433148e-10	1.193062e+01	3.668360e+01
2.230000e-06	1.756528e-06	5.516504e-10	1.223945e+01	3.757215e+01
2.240000e-06	1.800638e-06	5.626965e-10	1.254680e+01	3.843867e+01
2.250000e-06	1.844594e-06	5.761134e-10	1.285309e+01	3.928334e+01
2.260000e-06	1.888477e-06	5.906881e-10	1.315886e+01	4.010645e+01
2.270000e-06	1.932322e-06	6.055371e-10	1.346437e+01	4.090834e+01
2.280000e-06	1.976092e-06	6.170152e-10	1.376936e+01	4.168940e+01
2.290000e-06	2.019815e-06	6.261049e-10	1.407402e+01	4.245010e+01
2.300000e-06	2.063459e-06	6.345976e-10	1.437813e+01	4.319094e+01
2.310000e-06	2.107025e-06	6.421753e-10	1.468170e+01	4.391249e+01
2.320000e-06	2.150551e-06	6.505587e-10	1.498499e+01	4.461532e+01
2.330000e-06	2.193983e-06	6.629741e-10	1.528762e+01	4.530008e+01
2.340000e-06	2.237266e-06	6.763529e-10	1.558921e+01	4.596740e+01
2.350000e-06	2.280345e-06	6.880078e-10	1.588939e+01	4.661796e+01
2.360000e-06	2.323170e-06	6.971787e-10	1.618779e+01	4.725245e+01
2.370000e-06	2.365681e-06	7.052847e-10	1.648401e+01	4.787156e+01
2.380000e-06	2.407941e-06	7.117636e-10	1.677847e+01	4.847598e+01
2.390000e-06	2.450036e-06	7.187343e-10	1.707179e+01	4.906641e+01
2.400000e-06	2.491830e-06	7.263870e-10	1.736301e+01	4.964352e+01
2.410000e-06	2.533173e-06	7.339864e-10	1.765109e+01	5.020799e+01
2.420000e-06	2.574163e-06	7.413812e-10	1.793671e+01	5.076047e+01
2.430000e-06	2.614834e-06	7.494015e-10	1.822010e+01	5.130159e+01
2.440000e-06	2.655268e-06	7.577856e-10	1.850184e+01	5.183194e+01
2.450000e-06	2.695530e-06	7.645921e-10	1.878239e+01	5.235210e+01
2.460000e-06	2.735605e-06	7.714395e-10	1.906163e+01	5.286261e+01
2.470000e-06	2.775584e-06	7.789183e-10	1.934020e+01	5.336396e+01
2.480000e-06	2.815461e-06	7.864402e-10	1.961806e+01	5.385662e+01
2.490000e-06	2.855226e-06	7.928047e-10	1.989515e+01	5.434101e+01
2.500000e-06	2.894778e-06	7.986828e-10	2.017074e+01	5.481753e+01
2.510000e-06	2.934138e-06	8.050272e-10	2.044500e+01	5.528651e+01
2.520000e-06	2.973396e-06	8.116025e-10	2.071855e+01	5.574825e+01
2.530000e-06	3.012522e-06	8.182867e-10	2.099118e+01	5.620303e+01
2.540000e-06	3.051417e-06	8.249452e-10	2.126220e+01	5.665104e+01
2.550000e-06	3.090068e-06	8.314030e-10	2.153152e+01	5.709249e+01
2.560000e-06	3.128506e-06	8.361011e-10	2.179935e+01	5.752750e+01
2.570000e-06	3.166717e-06	8.398592e-10	2.206561e+01	5.795620e+01
2.580000e-06	3.204692e-06	8.461756e-10	2.233021e+01	5.837865e+01
2.590000e-06	3.242477e-06	8.540549e-10	2.259350e+01	5.879489e+01
2.600000e-06	3.280073e-06	8.601792e-10	2.285547e+01	5.920495e+01
2.610000e-06	3.317417e-06	8.650228e-10	2.311568e+01	5.960880e+01
2.620000e-06	3.354560e-06	8.695758e-10	2.337449e+01	6.000642e+01
2.630000e-06	3.391482e-06	8.740411e-10	2.363176e+01	6.039774e+01
2.640000e-06	3.428163e-06	8.777686e-10	2.388735e+01	6.078271e+01
2.650000e-06	3.464572e-06	8.821386e-10	2.414105e+01	6.116124e+01
2.660000e-06	3.500697e-06	8.916595e-10	2.439277e+01	6.153323e+01
2.670000e-06	3.536635e-06	9.018110e-10	2.464319e+01	6.189858e+01
2.680000e-06	3.572470e-06	9.083643e-10	2.489288e+01	6.225721e+01
2.690000e-06	3.608192e-06	9.122548e-10	2.514179e+01	6.260899e+01
2.700000e-06	3.643779e-06	9.122103e-10	2.538976e+01	6.295384e+01
2.710000e-06	3.679143e-06	9.122483e-10	2.563618e+01	6.329167e+01
2.720000e-06	3.714251e-06	9.160459e-10	2.588081e+01	6.362238e+01
2.730000e-06	3.749089e-06	9.213405e-10	2.612356e+01	6.394591e+01
2.740000e-06	3.783507e-06	9.264064e-10	2.636338e+01	6.426220e+01
2.750000e-06	3.817450e-06	9.337087e-10	2.659990e+01	6.457119e+01
2.760000e-06	3.850977e-06	9.390953e-10	2.683352e+01	6.487287e+01
2.770000e-06	3.884010e-06	9.430842e-10	2.706368e+01	6.516722e+01
2.780000e-06	3.916558e-06	9.449624e-10	2.729048e+01	6.545425e+01
2.790000e-06	3.948769e-06	9.435517e-10	2.751492e+01	6.573399e+01
2.800000e-06	3.980737e-06	9.427739e-10	2.773768e+01	6.600648e+01
2.810000e-06	4.012529e-06	9.447282e-10	2.795921e+01	6.627179e+01
2.820000e-06	4.044182e-06	9.525236e-10	2.817976e+01	6.653002e+01
2.830000e-06	4.075638e-06	9.600496e-10	2.839894e+01	6.678126e+01
2.840000e-06	4.106844e-06	9.672861e-10	2.861639e+01	6.702564e+01
2.850000e-06	4.137797e-06	9.713428e-10	2.883207e+01	6.726330e+01
2.860000e-06	4.168467e-06	9.720559e-10	2.904578e+01	6.749441e+01
2.870000e-06	4.198855e-06	9.723419e-10	2.925752e+01	6.771914e+01
2.880000e-06	4.228964e-06	9.736694e-10	2.946732e+01	6.793767e+01
2.890000e-06	4.258827e-06	9.762667e-10	2.967540e+01	6.815021e+01
2.900000e-06	4.288474e-06	9.806074e-10	2.988198e+01	6.835696e+01
2.910000e-06	4.317812e-06	9.859581e-10	3.008641e+01	6.855814e+01
