# Temperatura_=_10.77
# Concentracion g/m^3_=_1620.0
# C_Vs_to_Am_M_A/Vsm_=_65563218390.804596
# pendiente_HvsI_1/m_=_3716.3
# ordenada_HvsI_A/m_=_1297.0
# frecuencia_Hz_=_135107.33163582056

Tiempo_(s)	Campo_(V.s)	Magnetizacion_(V.s)	Campo_(kA/m)	Magnetizacion_(A/m)
0.000000e+00	-5.517345e-06	-1.177467e-09	-3.836882e+01	-7.713651e+01
1.000000e-08	-5.517471e-06	-1.173509e-09	-3.836970e+01	-7.711924e+01
2.000000e-08	-5.517334e-06	-1.170561e-09	-3.836875e+01	-7.709953e+01
3.000000e-08	-5.516751e-06	-1.167099e-09	-3.836469e+01	-7.707720e+01
4.000000e-08	-5.515577e-06	-1.165720e-09	-3.835653e+01	-7.705213e+01
5.000000e-08	-5.513774e-06	-1.166674e-09	-3.834399e+01	-7.702415e+01
6.000000e-08	-5.511432e-06	-1.168763e-09	-3.832770e+01	-7.699312e+01
7.000000e-08	-5.508579e-06	-1.175577e-09	-3.830786e+01	-7.695891e+01
8.000000e-08	-5.505264e-06	-1.162138e-09	-3.828481e+01	-7.692139e+01
9.000000e-08	-5.501580e-06	-1.135854e-09	-3.825919e+01	-7.688043e+01
1.000000e-07	-5.497452e-06	-1.151434e-09	-3.823048e+01	-7.683594e+01
1.100000e-07	-5.492980e-06	-1.180955e-09	-3.819938e+01	-7.678781e+01
1.200000e-07	-5.488312e-06	-1.186357e-09	-3.816692e+01	-7.673595e+01
1.300000e-07	-5.483381e-06	-1.149568e-09	-3.813263e+01	-7.668031e+01
1.400000e-07	-5.478093e-06	-1.130109e-09	-3.809586e+01	-7.662083e+01
1.500000e-07	-5.472505e-06	-1.179901e-09	-3.805700e+01	-7.655745e+01
1.600000e-07	-5.466524e-06	-1.174438e-09	-3.801540e+01	-7.649017e+01
1.700000e-07	-5.460049e-06	-1.167997e-09	-3.797038e+01	-7.641896e+01
1.800000e-07	-5.453153e-06	-1.130706e-09	-3.792242e+01	-7.634383e+01
1.900000e-07	-5.445910e-06	-1.158855e-09	-3.787205e+01	-7.626479e+01
2.000000e-07	-5.438409e-06	-1.162181e-09	-3.781989e+01	-7.618188e+01
2.100000e-07	-5.430644e-06	-1.176892e-09	-3.776589e+01	-7.609514e+01
2.200000e-07	-5.422567e-06	-1.165414e-09	-3.770972e+01	-7.600462e+01
2.300000e-07	-5.414167e-06	-1.162161e-09	-3.765130e+01	-7.591039e+01
2.400000e-07	-5.405237e-06	-1.162030e-09	-3.758920e+01	-7.581253e+01
2.500000e-07	-5.395514e-06	-1.166496e-09	-3.752158e+01	-7.571112e+01
2.600000e-07	-5.385075e-06	-1.153762e-09	-3.744899e+01	-7.560624e+01
2.700000e-07	-5.374170e-06	-1.142097e-09	-3.737316e+01	-7.549800e+01
2.800000e-07	-5.362889e-06	-1.151155e-09	-3.729470e+01	-7.538649e+01
2.900000e-07	-5.351259e-06	-1.138672e-09	-3.721382e+01	-7.527181e+01
3.000000e-07	-5.339234e-06	-1.137093e-09	-3.713020e+01	-7.515406e+01
3.100000e-07	-5.326743e-06	-1.125592e-09	-3.704333e+01	-7.503335e+01
3.200000e-07	-5.313860e-06	-1.146010e-09	-3.695374e+01	-7.490976e+01
3.300000e-07	-5.300595e-06	-1.126007e-09	-3.686150e+01	-7.478340e+01
3.400000e-07	-5.286888e-06	-1.122704e-09	-3.676617e+01	-7.465435e+01
3.500000e-07	-5.272746e-06	-1.113541e-09	-3.666783e+01	-7.452268e+01
3.600000e-07	-5.258181e-06	-1.127360e-09	-3.656654e+01	-7.438848e+01
3.700000e-07	-5.243143e-06	-1.112778e-09	-3.646196e+01	-7.425180e+01
3.800000e-07	-5.227627e-06	-1.129667e-09	-3.635406e+01	-7.411269e+01
3.900000e-07	-5.211600e-06	-1.126433e-09	-3.624261e+01	-7.397119e+01
4.000000e-07	-5.195142e-06	-1.115798e-09	-3.612815e+01	-7.382732e+01
4.100000e-07	-5.178398e-06	-1.103228e-09	-3.601171e+01	-7.368112e+01
4.200000e-07	-5.161341e-06	-1.124351e-09	-3.589309e+01	-7.353257e+01
4.300000e-07	-5.143966e-06	-1.109458e-09	-3.577226e+01	-7.338166e+01
4.400000e-07	-5.126212e-06	-1.095543e-09	-3.564880e+01	-7.322838e+01
4.500000e-07	-5.107960e-06	-1.105045e-09	-3.552187e+01	-7.307269e+01
4.600000e-07	-5.089241e-06	-1.114510e-09	-3.539169e+01	-7.291453e+01
4.700000e-07	-5.070146e-06	-1.092331e-09	-3.525890e+01	-7.275385e+01
4.800000e-07	-5.050820e-06	-1.098188e-09	-3.512451e+01	-7.259058e+01
4.900000e-07	-5.031270e-06	-1.110915e-09	-3.498855e+01	-7.242464e+01
5.000000e-07	-5.011497e-06	-1.094518e-09	-3.485104e+01	-7.225594e+01
5.100000e-07	-4.991500e-06	-1.085417e-09	-3.471199e+01	-7.208438e+01
5.200000e-07	-4.971137e-06	-1.101013e-09	-3.457037e+01	-7.190986e+01
5.300000e-07	-4.950433e-06	-1.095299e-09	-3.442639e+01	-7.173227e+01
5.400000e-07	-4.929443e-06	-1.077283e-09	-3.428042e+01	-7.155151e+01
5.500000e-07	-4.908113e-06	-1.083737e-09	-3.413209e+01	-7.136745e+01
5.600000e-07	-4.886378e-06	-1.084224e-09	-3.398094e+01	-7.117999e+01
5.700000e-07	-4.864240e-06	-1.077487e-09	-3.382699e+01	-7.098901e+01
5.800000e-07	-4.841792e-06	-1.080722e-09	-3.367088e+01	-7.079440e+01
5.900000e-07	-4.819001e-06	-1.088601e-09	-3.351239e+01	-7.059607e+01
6.000000e-07	-4.795844e-06	-1.076783e-09	-3.335135e+01	-7.039390e+01
6.100000e-07	-4.772457e-06	-1.075906e-09	-3.318871e+01	-7.018782e+01
6.200000e-07	-4.748900e-06	-1.069020e-09	-3.302489e+01	-6.997773e+01
6.300000e-07	-4.725124e-06	-1.062046e-09	-3.285954e+01	-6.976356e+01
6.400000e-07	-4.701068e-06	-1.056372e-09	-3.269225e+01	-6.954525e+01
6.500000e-07	-4.676644e-06	-1.060397e-09	-3.252241e+01	-6.932275e+01
6.600000e-07	-4.651752e-06	-1.049373e-09	-3.234930e+01	-6.909602e+01
6.700000e-07	-4.626330e-06	-1.049199e-09	-3.217251e+01	-6.886503e+01
6.800000e-07	-4.600338e-06	-1.048291e-09	-3.199176e+01	-6.862976e+01
6.900000e-07	-4.573791e-06	-1.046786e-09	-3.180714e+01	-6.839023e+01
7.000000e-07	-4.546765e-06	-1.038962e-09	-3.161919e+01	-6.814644e+01
7.100000e-07	-4.519473e-06	-1.038368e-09	-3.142941e+01	-6.789841e+01
7.200000e-07	-4.492024e-06	-1.028578e-09	-3.123851e+01	-6.764620e+01
7.300000e-07	-4.464330e-06	-1.026996e-09	-3.104593e+01	-6.738985e+01
7.400000e-07	-4.436443e-06	-1.023945e-09	-3.085200e+01	-6.712942e+01
7.500000e-07	-4.408311e-06	-1.018422e-09	-3.065636e+01	-6.686499e+01
7.600000e-07	-4.379835e-06	-1.012451e-09	-3.045833e+01	-6.659665e+01
7.700000e-07	-4.351136e-06	-1.014772e-09	-3.025875e+01	-6.632448e+01
7.800000e-07	-4.322102e-06	-1.009383e-09	-3.005684e+01	-6.604859e+01
7.900000e-07	-4.292673e-06	-1.000427e-09	-2.985219e+01	-6.576908e+01
8.000000e-07	-4.262961e-06	-9.932038e-10	-2.964556e+01	-6.548606e+01
8.100000e-07	-4.232978e-06	-9.830549e-10	-2.943706e+01	-6.519965e+01
8.200000e-07	-4.202715e-06	-9.719887e-10	-2.922660e+01	-6.490995e+01
8.300000e-07	-4.172179e-06	-9.663936e-10	-2.901424e+01	-6.461708e+01
8.400000e-07	-4.141377e-06	-9.652156e-10	-2.880004e+01	-6.432116e+01
8.500000e-07	-4.110281e-06	-9.621770e-10	-2.858380e+01	-6.402228e+01
8.600000e-07	-4.078970e-06	-9.628243e-10	-2.836605e+01	-6.372055e+01
8.700000e-07	-4.047505e-06	-9.598492e-10	-2.814723e+01	-6.341606e+01
8.800000e-07	-4.015857e-06	-9.551083e-10	-2.792715e+01	-6.310890e+01
8.900000e-07	-3.983995e-06	-9.456786e-10	-2.770557e+01	-6.279914e+01
9.000000e-07	-3.951877e-06	-9.372349e-10	-2.748222e+01	-6.248685e+01
9.100000e-07	-3.919413e-06	-9.267071e-10	-2.725645e+01	-6.217207e+01
9.200000e-07	-3.886538e-06	-9.219885e-10	-2.702783e+01	-6.185485e+01
9.300000e-07	-3.853136e-06	-9.170599e-10	-2.679555e+01	-6.153520e+01
9.400000e-07	-3.819235e-06	-9.145255e-10	-2.655979e+01	-6.121314e+01
9.500000e-07	-3.784968e-06	-9.094257e-10	-2.632149e+01	-6.088867e+01
9.600000e-07	-3.750331e-06	-9.050593e-10	-2.608062e+01	-6.056175e+01
9.700000e-07	-3.715345e-06	-8.944090e-10	-2.583732e+01	-6.023236e+01
9.800000e-07	-3.680036e-06	-8.873023e-10	-2.559177e+01	-5.990045e+01
9.900000e-07	-3.644520e-06	-8.812494e-10	-2.534479e+01	-5.956594e+01
1.000000e-06	-3.608921e-06	-8.790302e-10	-2.509723e+01	-5.922876e+01
1.010000e-06	-3.573185e-06	-8.774731e-10	-2.484871e+01	-5.888882e+01
1.020000e-06	-3.537283e-06	-8.772556e-10	-2.459904e+01	-5.854600e+01
1.030000e-06	-3.501204e-06	-8.700276e-10	-2.434814e+01	-5.820020e+01
1.040000e-06	-3.464867e-06	-8.621916e-10	-2.409544e+01	-5.785128e+01
1.050000e-06	-3.428205e-06	-8.556396e-10	-2.384049e+01	-5.749911e+01
1.060000e-06	-3.391304e-06	-8.477973e-10	-2.358387e+01	-5.714355e+01
1.070000e-06	-3.354213e-06	-8.378402e-10	-2.332593e+01	-5.678445e+01
1.080000e-06	-3.316855e-06	-8.331879e-10	-2.306614e+01	-5.642165e+01
1.090000e-06	-3.279267e-06	-8.311649e-10	-2.280474e+01	-5.605501e+01
1.100000e-06	-3.241481e-06	-8.281332e-10	-2.254197e+01	-5.568436e+01
1.110000e-06	-3.203466e-06	-8.251798e-10	-2.227761e+01	-5.530957e+01
1.120000e-06	-3.165241e-06	-8.191889e-10	-2.201178e+01	-5.493046e+01
1.130000e-06	-3.126817e-06	-8.074913e-10	-2.174457e+01	-5.454690e+01
1.140000e-06	-3.088136e-06	-7.930417e-10	-2.147557e+01	-5.415875e+01
1.150000e-06	-3.049199e-06	-7.841108e-10	-2.120480e+01	-5.376588e+01
1.160000e-06	-3.010082e-06	-7.787453e-10	-2.093277e+01	-5.336815e+01
1.170000e-06	-2.970819e-06	-7.757768e-10	-2.065972e+01	-5.296545e+01
1.180000e-06	-2.931419e-06	-7.744208e-10	-2.038573e+01	-5.255769e+01
1.190000e-06	-2.891896e-06	-7.737858e-10	-2.011088e+01	-5.214476e+01
1.200000e-06	-2.852249e-06	-7.671396e-10	-1.983516e+01	-5.172658e+01
1.210000e-06	-2.812460e-06	-7.580612e-10	-1.955846e+01	-5.130308e+01
1.220000e-06	-2.772564e-06	-7.462948e-10	-1.928101e+01	-5.087421e+01
1.230000e-06	-2.732450e-06	-7.337637e-10	-1.900206e+01	-5.043991e+01
1.240000e-06	-2.692107e-06	-7.214713e-10	-1.872150e+01	-5.000015e+01
1.250000e-06	-2.651564e-06	-7.168232e-10	-1.843956e+01	-4.955491e+01
1.260000e-06	-2.610705e-06	-7.152103e-10	-1.815542e+01	-4.910417e+01
1.270000e-06	-2.569629e-06	-7.149776e-10	-1.786977e+01	-4.864792e+01
1.280000e-06	-2.528297e-06	-7.126494e-10	-1.758233e+01	-4.818615e+01
1.290000e-06	-2.486546e-06	-7.080068e-10	-1.729198e+01	-4.771888e+01
1.300000e-06	-2.444355e-06	-6.968671e-10	-1.699858e+01	-4.724610e+01
1.310000e-06	-2.401913e-06	-6.820402e-10	-1.670343e+01	-4.676783e+01
1.320000e-06	-2.359290e-06	-6.681600e-10	-1.640702e+01	-4.628408e+01
1.330000e-06	-2.316426e-06	-6.572895e-10	-1.610893e+01	-4.579483e+01
1.340000e-06	-2.273403e-06	-6.489966e-10	-1.580974e+01	-4.530010e+01
1.350000e-06	-2.230233e-06	-6.449079e-10	-1.550953e+01	-4.479987e+01
1.360000e-06	-2.186877e-06	-6.414484e-10	-1.520802e+01	-4.429411e+01
1.370000e-06	-2.143406e-06	-6.357158e-10	-1.490572e+01	-4.378280e+01
1.380000e-06	-2.099847e-06	-6.266142e-10	-1.460280e+01	-4.326587e+01
1.390000e-06	-2.056151e-06	-6.124270e-10	-1.429893e+01	-4.274325e+01
1.400000e-06	-2.012395e-06	-5.971088e-10	-1.399463e+01	-4.221486e+01
1.410000e-06	-1.968605e-06	-5.854279e-10	-1.369011e+01	-4.168057e+01
1.420000e-06	-1.924763e-06	-5.787821e-10	-1.338522e+01	-4.114025e+01
1.430000e-06	-1.880874e-06	-5.732646e-10	-1.308001e+01	-4.059372e+01
1.440000e-06	-1.836847e-06	-5.658852e-10	-1.277383e+01	-4.004079e+01
1.450000e-06	-1.792597e-06	-5.570734e-10	-1.246611e+01	-3.948124e+01
1.460000e-06	-1.748197e-06	-5.479740e-10	-1.215735e+01	-3.891479e+01
1.470000e-06	-1.703749e-06	-5.359103e-10	-1.184824e+01	-3.834117e+01
1.480000e-06	-1.659152e-06	-5.229606e-10	-1.153810e+01	-3.776005e+01
1.490000e-06	-1.614376e-06	-5.109125e-10	-1.122672e+01	-3.717107e+01
1.500000e-06	-1.569472e-06	-5.034613e-10	-1.091445e+01	-3.657384e+01
1.510000e-06	-1.524411e-06	-4.983487e-10	-1.060109e+01	-3.596796e+01
1.520000e-06	-1.479261e-06	-4.936050e-10	-1.028710e+01	-3.535296e+01
1.530000e-06	-1.434032e-06	-4.853543e-10	-9.972570e+00	-3.472838e+01
1.540000e-06	-1.388691e-06	-4.744447e-10	-9.657261e+00	-3.409372e+01
1.550000e-06	-1.343257e-06	-4.612288e-10	-9.341301e+00	-3.344843e+01
1.560000e-06	-1.297725e-06	-4.474615e-10	-9.024664e+00	-3.279199e+01
1.570000e-06	-1.252103e-06	-4.359346e-10	-8.707397e+00	-3.212383e+01
1.580000e-06	-1.206443e-06	-4.260848e-10	-8.389866e+00	-3.144336e+01
1.590000e-06	-1.160693e-06	-4.165645e-10	-8.071714e+00	-3.075000e+01
1.600000e-06	-1.114845e-06	-4.077258e-10	-7.752872e+00	-3.004316e+01
1.610000e-06	-1.068951e-06	-3.956679e-10	-7.433718e+00	-2.932225e+01
1.620000e-06	-1.022992e-06	-3.813560e-10	-7.114112e+00	-2.858666e+01
1.630000e-06	-9.769848e-07	-3.674318e-10	-6.794166e+00	-2.783583e+01
1.640000e-06	-9.308659e-07	-3.547435e-10	-6.473445e+00	-2.706917e+01
1.650000e-06	-8.846153e-07	-3.431920e-10	-6.151808e+00	-2.628615e+01
1.660000e-06	-8.382914e-07	-3.317743e-10	-5.829662e+00	-2.548624e+01
1.670000e-06	-7.918961e-07	-3.209666e-10	-5.507019e+00	-2.466894e+01
1.680000e-06	-7.454701e-07	-3.107855e-10	-5.184162e+00	-2.383380e+01
1.690000e-06	-6.990810e-07	-2.994773e-10	-4.861562e+00	-2.298040e+01
1.700000e-06	-6.527161e-07	-2.865966e-10	-4.539131e+00	-2.210837e+01
1.710000e-06	-6.062395e-07	-2.718862e-10	-4.215922e+00	-2.121739e+01
1.720000e-06	-5.597322e-07	-2.549506e-10	-3.892500e+00	-2.030719e+01
1.730000e-06	-5.131948e-07	-2.390175e-10	-3.568869e+00	-1.937758e+01
1.740000e-06	-4.665333e-07	-2.232469e-10	-3.244374e+00	-1.842841e+01
1.750000e-06	-4.197862e-07	-2.072546e-10	-2.919285e+00	-1.745961e+01
1.760000e-06	-3.730256e-07	-1.927586e-10	-2.594102e+00	-1.647119e+01
1.770000e-06	-3.262677e-07	-1.802080e-10	-2.268937e+00	-1.546321e+01
1.780000e-06	-2.795091e-07	-1.665854e-10	-1.943768e+00	-1.443585e+01
1.790000e-06	-2.327530e-07	-1.534153e-10	-1.618615e+00	-1.338933e+01
1.800000e-06	-1.859434e-07	-1.389656e-10	-1.293091e+00	-1.232397e+01
1.810000e-06	-1.391140e-07	-1.225475e-10	-9.674291e-01	-1.124016e+01
1.820000e-06	-9.227792e-08	-1.048050e-10	-6.417208e-01	-1.013838e+01
1.830000e-06	-4.545307e-08	-8.463725e-11	-3.160906e-01	-9.019204e+00
1.840000e-06	1.383523e-09	-6.673757e-11	9.621320e-03	-7.883265e+00
1.850000e-06	4.824422e-08	-5.170387e-11	3.355009e-01	-6.731287e+00
1.860000e-06	9.503332e-08	-3.872601e-11	6.608825e-01	-5.564070e+00
1.870000e-06	1.418239e-07	-2.548027e-11	9.862747e-01	-4.382488e+00
1.880000e-06	1.886190e-07	-1.060228e-11	1.311698e+00	-3.187489e+00
1.890000e-06	2.353544e-07	4.177113e-12	1.636706e+00	-1.980085e+00
1.900000e-06	2.820482e-07	2.007574e-11	1.961425e+00	-7.613547e-01
1.910000e-06	3.287641e-07	3.726481e-11	2.286297e+00	4.675665e-01
1.920000e-06	3.755279e-07	5.888511e-11	2.611503e+00	1.705489e+00
1.930000e-06	4.222357e-07	8.008101e-11	2.936320e+00	2.951177e+00
1.940000e-06	4.688471e-07	9.888612e-11	3.260465e+00	4.203350e+00
1.950000e-06	5.153661e-07	1.159694e-10	3.583969e+00	5.460696e+00
1.960000e-06	5.618723e-07	1.328219e-10	3.907383e+00	6.721872e+00
1.970000e-06	6.083654e-07	1.507441e-10	4.230706e+00	7.985515e+00
1.980000e-06	6.547664e-07	1.682830e-10	4.553388e+00	9.250246e+00
1.990000e-06	7.010671e-07	1.851357e-10	4.875374e+00	1.051468e+01
2.000000e-06	7.473264e-07	2.032504e-10	5.197071e+00	1.177743e+01
2.010000e-06	7.935851e-07	2.217663e-10	5.518764e+00	1.303712e+01
2.020000e-06	8.397872e-07	2.404832e-10	5.840063e+00	1.429239e+01
2.030000e-06	8.859436e-07	2.621501e-10	6.161045e+00	1.554188e+01
2.040000e-06	9.321156e-07	2.838241e-10	6.482136e+00	1.678429e+01
2.050000e-06	9.782568e-07	3.022271e-10	6.803012e+00	1.801834e+01
2.060000e-06	1.024293e-06	3.175309e-10	7.123155e+00	1.924278e+01
2.070000e-06	1.070218e-06	3.304137e-10	7.442530e+00	2.045643e+01
2.080000e-06	1.116066e-06	3.441510e-10	7.761370e+00	2.165814e+01
2.090000e-06	1.161801e-06	3.611996e-10	8.079421e+00	2.284683e+01
2.100000e-06	1.207417e-06	3.793898e-10	8.396644e+00	2.402149e+01
2.110000e-06	1.252956e-06	3.981262e-10	8.713331e+00	2.518115e+01
2.120000e-06	1.298365e-06	4.158318e-10	9.029113e+00	2.632493e+01
2.130000e-06	1.343610e-06	4.317649e-10	9.343754e+00	2.745203e+01
2.140000e-06	1.388791e-06	4.448334e-10	9.657954e+00	2.856171e+01
2.150000e-06	1.433999e-06	4.570052e-10	9.972343e+00	2.965331e+01
2.160000e-06	1.479087e-06	4.702218e-10	1.028589e+01	3.072626e+01
2.170000e-06	1.523974e-06	4.848184e-10	1.059805e+01	3.178006e+01
2.180000e-06	1.568767e-06	5.001483e-10	1.090955e+01	3.281429e+01
2.190000e-06	1.613485e-06	5.159651e-10	1.122053e+01	3.382861e+01
2.200000e-06	1.658112e-06	5.294659e-10	1.153087e+01	3.482277e+01
2.210000e-06	1.702638e-06	5.390667e-10	1.184052e+01	3.579657e+01
2.220000e-06	1.746968e-06	5.471526e-10	1.214880e+01	3.674992e+01
2.230000e-06	1.791144e-06	5.586524e-10	1.245601e+01	3.768277e+01
2.240000e-06	1.835228e-06	5.734514e-10	1.276258e+01	3.859517e+01
2.250000e-06	1.879247e-06	5.894211e-10	1.306869e+01	3.948720e+01
2.260000e-06	1.923193e-06	6.047965e-10	1.337430e+01	4.035904e+01
2.270000e-06	1.967027e-06	6.185439e-10	1.367914e+01	4.121091e+01
2.280000e-06	2.010837e-06	6.292757e-10	1.398380e+01	4.204306e+01
2.290000e-06	2.054621e-06	6.375538e-10	1.428829e+01	4.285584e+01
2.300000e-06	2.098316e-06	6.458389e-10	1.459215e+01	4.364959e+01
2.310000e-06	2.141906e-06	6.557787e-10	1.489528e+01	4.442474e+01
2.320000e-06	2.185428e-06	6.686655e-10	1.519794e+01	4.518170e+01
2.330000e-06	2.228804e-06	6.835313e-10	1.549959e+01	4.592096e+01
2.340000e-06	2.272036e-06	6.976664e-10	1.580024e+01	4.664299e+01
2.350000e-06	2.315066e-06	7.079270e-10	1.609947e+01	4.734831e+01
2.360000e-06	2.357804e-06	7.159458e-10	1.639668e+01	4.803743e+01
2.370000e-06	2.400293e-06	7.228232e-10	1.669216e+01	4.871088e+01
2.380000e-06	2.442506e-06	7.299702e-10	1.698572e+01	4.936919e+01
2.390000e-06	2.484438e-06	7.377124e-10	1.727733e+01	5.001290e+01
2.400000e-06	2.526018e-06	7.475295e-10	1.756648e+01	5.064251e+01
2.410000e-06	2.567193e-06	7.594429e-10	1.785282e+01	5.125855e+01
2.420000e-06	2.608122e-06	7.706508e-10	1.813745e+01	5.186153e+01
2.430000e-06	2.648870e-06	7.803150e-10	1.842082e+01	5.245191e+01
2.440000e-06	2.689367e-06	7.880743e-10	1.870244e+01	5.303017e+01
2.450000e-06	2.729702e-06	7.933143e-10	1.898294e+01	5.359676e+01
2.460000e-06	2.769882e-06	7.990902e-10	1.926236e+01	5.415209e+01
2.470000e-06	2.809875e-06	8.070553e-10	1.954049e+01	5.469655e+01
2.480000e-06	2.849746e-06	8.145031e-10	1.981776e+01	5.523052e+01
2.490000e-06	2.889461e-06	8.202447e-10	2.009395e+01	5.575433e+01
2.500000e-06	2.928973e-06	8.272421e-10	2.036872e+01	5.626830e+01
2.510000e-06	2.968353e-06	8.365270e-10	2.064257e+01	5.677271e+01
2.520000e-06	3.007610e-06	8.456959e-10	2.091558e+01	5.726781e+01
2.530000e-06	3.046637e-06	8.546066e-10	2.118698e+01	5.775384e+01
2.540000e-06	3.085430e-06	8.634661e-10	2.145676e+01	5.823099e+01
2.550000e-06	3.123983e-06	8.694941e-10	2.172486e+01	5.869945e+01
2.560000e-06	3.162290e-06	8.723567e-10	2.199126e+01	5.915937e+01
2.570000e-06	3.200413e-06	8.763917e-10	2.225637e+01	5.961088e+01
2.580000e-06	3.238335e-06	8.829411e-10	2.252009e+01	6.005409e+01
2.590000e-06	3.276058e-06	8.898513e-10	2.278242e+01	6.048910e+01
2.600000e-06	3.313535e-06	8.958631e-10	2.304305e+01	6.091598e+01
2.610000e-06	3.350771e-06	9.010507e-10	2.330200e+01	6.133480e+01
2.620000e-06	3.387790e-06	9.065981e-10	2.355943e+01	6.174562e+01
2.630000e-06	3.424547e-06	9.132441e-10	2.381505e+01	6.214849e+01
2.640000e-06	3.461107e-06	9.194396e-10	2.406930e+01	6.254344e+01
2.650000e-06	3.497427e-06	9.268334e-10	2.432187e+01	6.293053e+01
2.660000e-06	3.533516e-06	9.351119e-10	2.457284e+01	6.330977e+01
2.670000e-06	3.569449e-06	9.410091e-10	2.482273e+01	6.368123e+01
2.680000e-06	3.605219e-06	9.441381e-10	2.507148e+01	6.404493e+01
2.690000e-06	3.640843e-06	9.444166e-10	2.531922e+01	6.440093e+01
2.700000e-06	3.676326e-06	9.450129e-10	2.556598e+01	6.474928e+01
2.710000e-06	3.711683e-06	9.489391e-10	2.581186e+01	6.509006e+01
2.720000e-06	3.746776e-06	9.558165e-10	2.605590e+01	6.542333e+01
2.730000e-06	3.781461e-06	9.632992e-10	2.629710e+01	6.574918e+01
2.740000e-06	3.815680e-06	9.699431e-10	2.653507e+01	6.606771e+01
2.750000e-06	3.849416e-06	9.765427e-10	2.676968e+01	6.637904e+01
2.760000e-06	3.882709e-06	9.815467e-10	2.700121e+01	6.668328e+01
2.770000e-06	3.915677e-06	9.830957e-10	2.723048e+01	6.698058e+01
2.780000e-06	3.948329e-06	9.845907e-10	2.745754e+01	6.727109e+01
2.790000e-06	3.980593e-06	9.867790e-10	2.768191e+01	6.755496e+01
2.800000e-06	4.012613e-06	9.879112e-10	2.790459e+01	6.783238e+01
2.810000e-06	4.044426e-06	9.916384e-10	2.812583e+01	6.810353e+01
2.820000e-06	4.076020e-06	9.982646e-10	2.834553e+01	6.836860e+01
2.830000e-06	4.107384e-06	1.005466e-09	2.856365e+01	6.862780e+01
2.840000e-06	4.138498e-06	1.010889e-09	2.878002e+01	6.888133e+01
2.850000e-06	4.169367e-06	1.014470e-09	2.899469e+01	6.912942e+01
2.860000e-06	4.199975e-06	1.017494e-09	2.920755e+01	6.937228e+01
2.870000e-06	4.230269e-06	1.018657e-09	2.941822e+01	6.961013e+01
2.880000e-06	4.260217e-06	1.017585e-09	2.962648e+01	6.984320e+01
2.890000e-06	4.289889e-06	1.016664e-09	2.983283e+01	7.007169e+01
2.900000e-06	4.319304e-06	1.018669e-09	3.003738e+01	7.029583e+01
2.910000e-06	4.348402e-06	1.022846e-09	3.023974e+01	7.051582e+01
