# Temperatura_=_-0.8
# Concentracion g/m^3_=_1620.0
# C_Vs_to_Am_M_A/Vsm_=_65563218390.804596
# pendiente_HvsI_1/m_=_3716.3
# ordenada_HvsI_A/m_=_1297.0
# frecuencia_Hz_=_135097.11869071843

Tiempo_(s)	Campo_(V.s)	Magnetizacion_(V.s)	Campo_(kA/m)	Magnetizacion_(A/m)
0.000000e+00	-5.522627e-06	-1.288267e-09	-3.837563e+01	-8.336555e+01
1.000000e-08	-5.522809e-06	-1.285160e-09	-3.837689e+01	-8.334925e+01
2.000000e-08	-5.522809e-06	-1.281808e-09	-3.837689e+01	-8.332994e+01
3.000000e-08	-5.522435e-06	-1.281033e-09	-3.837429e+01	-8.330731e+01
4.000000e-08	-5.521567e-06	-1.279930e-09	-3.836827e+01	-8.328106e+01
5.000000e-08	-5.520210e-06	-1.275908e-09	-3.835883e+01	-8.325090e+01
6.000000e-08	-5.518267e-06	-1.270620e-09	-3.834533e+01	-8.321652e+01
7.000000e-08	-5.515717e-06	-1.271860e-09	-3.832761e+01	-8.317766e+01
8.000000e-08	-5.512573e-06	-1.289701e-09	-3.830576e+01	-8.313402e+01
9.000000e-08	-5.508879e-06	-1.294163e-09	-3.828009e+01	-8.308536e+01
1.000000e-07	-5.504834e-06	-1.274115e-09	-3.825199e+01	-8.303143e+01
1.100000e-07	-5.500470e-06	-1.275955e-09	-3.822166e+01	-8.297201e+01
1.200000e-07	-5.495893e-06	-1.260352e-09	-3.818986e+01	-8.290691e+01
1.300000e-07	-5.491105e-06	-1.261101e-09	-3.815659e+01	-8.283593e+01
1.400000e-07	-5.485861e-06	-1.251389e-09	-3.812015e+01	-8.275893e+01
1.500000e-07	-5.480163e-06	-1.262712e-09	-3.808056e+01	-8.267579e+01
1.600000e-07	-5.474142e-06	-1.287989e-09	-3.803872e+01	-8.258640e+01
1.700000e-07	-5.467707e-06	-1.271298e-09	-3.799400e+01	-8.249071e+01
1.800000e-07	-5.460810e-06	-1.284677e-09	-3.794608e+01	-8.238867e+01
1.900000e-07	-5.453545e-06	-1.264519e-09	-3.789559e+01	-8.228028e+01
2.000000e-07	-5.446003e-06	-1.270592e-09	-3.784318e+01	-8.216557e+01
2.100000e-07	-5.438268e-06	-1.255696e-09	-3.778944e+01	-8.204459e+01
2.200000e-07	-5.430229e-06	-1.288066e-09	-3.773357e+01	-8.191743e+01
2.300000e-07	-5.421910e-06	-1.277555e-09	-3.767577e+01	-8.178421e+01
2.400000e-07	-5.413314e-06	-1.269762e-09	-3.761603e+01	-8.164508e+01
2.500000e-07	-5.404087e-06	-1.246892e-09	-3.755192e+01	-8.150022e+01
2.600000e-07	-5.394077e-06	-1.245368e-09	-3.748236e+01	-8.134983e+01
2.700000e-07	-5.383412e-06	-1.227325e-09	-3.740825e+01	-8.119413e+01
2.800000e-07	-5.372240e-06	-1.223600e-09	-3.733062e+01	-8.103338e+01
2.900000e-07	-5.360740e-06	-1.228976e-09	-3.725071e+01	-8.086786e+01
3.000000e-07	-5.348925e-06	-1.218775e-09	-3.716861e+01	-8.069784e+01
3.100000e-07	-5.336648e-06	-1.199515e-09	-3.708330e+01	-8.052366e+01
3.200000e-07	-5.323864e-06	-1.190519e-09	-3.699446e+01	-8.034561e+01
3.300000e-07	-5.310627e-06	-1.205146e-09	-3.690248e+01	-8.016404e+01
3.400000e-07	-5.297022e-06	-1.184875e-09	-3.680794e+01	-7.997929e+01
3.500000e-07	-5.283079e-06	-1.184277e-09	-3.671106e+01	-7.979169e+01
3.600000e-07	-5.268816e-06	-1.188398e-09	-3.661195e+01	-7.960161e+01
3.700000e-07	-5.254100e-06	-1.199856e-09	-3.650969e+01	-7.940938e+01
3.800000e-07	-5.238772e-06	-1.181685e-09	-3.640318e+01	-7.921534e+01
3.900000e-07	-5.222736e-06	-1.195685e-09	-3.629174e+01	-7.901983e+01
4.000000e-07	-5.206230e-06	-1.179525e-09	-3.617705e+01	-7.882317e+01
4.100000e-07	-5.189465e-06	-1.166533e-09	-3.606055e+01	-7.862568e+01
4.200000e-07	-5.172320e-06	-1.170271e-09	-3.594141e+01	-7.842764e+01
4.300000e-07	-5.154858e-06	-1.189102e-09	-3.582008e+01	-7.822934e+01
4.400000e-07	-5.137095e-06	-1.157305e-09	-3.569664e+01	-7.803103e+01
4.500000e-07	-5.119029e-06	-1.163057e-09	-3.557110e+01	-7.783295e+01
4.600000e-07	-5.100584e-06	-1.178512e-09	-3.544294e+01	-7.763531e+01
4.700000e-07	-5.081653e-06	-1.163405e-09	-3.531139e+01	-7.743828e+01
4.800000e-07	-5.062394e-06	-1.146342e-09	-3.517756e+01	-7.724203e+01
4.900000e-07	-5.042950e-06	-1.185312e-09	-3.504245e+01	-7.704668e+01
5.000000e-07	-5.023229e-06	-1.173844e-09	-3.490541e+01	-7.685233e+01
5.100000e-07	-5.003214e-06	-1.135118e-09	-3.476633e+01	-7.665905e+01
5.200000e-07	-4.982918e-06	-1.147053e-09	-3.462530e+01	-7.646687e+01
5.300000e-07	-4.962339e-06	-1.167677e-09	-3.448230e+01	-7.627579e+01
5.400000e-07	-4.941440e-06	-1.132791e-09	-3.433708e+01	-7.608580e+01
5.500000e-07	-4.920160e-06	-1.131125e-09	-3.418921e+01	-7.589682e+01
5.600000e-07	-4.898491e-06	-1.155523e-09	-3.403863e+01	-7.570879e+01
5.700000e-07	-4.876459e-06	-1.136106e-09	-3.388554e+01	-7.552158e+01
5.800000e-07	-4.854123e-06	-1.123941e-09	-3.373033e+01	-7.533505e+01
5.900000e-07	-4.831401e-06	-1.148649e-09	-3.357244e+01	-7.514904e+01
6.000000e-07	-4.808238e-06	-1.140935e-09	-3.341148e+01	-7.496334e+01
6.100000e-07	-4.784764e-06	-1.114287e-09	-3.324837e+01	-7.477775e+01
6.200000e-07	-4.761155e-06	-1.129671e-09	-3.308431e+01	-7.459204e+01
6.300000e-07	-4.737367e-06	-1.128895e-09	-3.291902e+01	-7.440593e+01
6.400000e-07	-4.713294e-06	-1.108873e-09	-3.275174e+01	-7.421918e+01
6.500000e-07	-4.688894e-06	-1.109778e-09	-3.258219e+01	-7.403148e+01
6.600000e-07	-4.664098e-06	-1.119350e-09	-3.240988e+01	-7.384256e+01
6.700000e-07	-4.638796e-06	-1.100885e-09	-3.223406e+01	-7.365210e+01
6.800000e-07	-4.612877e-06	-1.101309e-09	-3.205396e+01	-7.345979e+01
6.900000e-07	-4.586446e-06	-1.108887e-09	-3.187030e+01	-7.326532e+01
7.000000e-07	-4.559611e-06	-1.102525e-09	-3.168382e+01	-7.306838e+01
7.100000e-07	-4.532333e-06	-1.086907e-09	-3.149427e+01	-7.286866e+01
7.200000e-07	-4.504746e-06	-1.091635e-09	-3.130258e+01	-7.266584e+01
7.300000e-07	-4.476990e-06	-1.083507e-09	-3.110971e+01	-7.245962e+01
7.400000e-07	-4.449070e-06	-1.072418e-09	-3.091569e+01	-7.224971e+01
7.500000e-07	-4.420902e-06	-1.064189e-09	-3.071997e+01	-7.203582e+01
7.600000e-07	-4.392446e-06	-1.066636e-09	-3.052223e+01	-7.181768e+01
7.700000e-07	-4.363724e-06	-1.058973e-09	-3.032264e+01	-7.159504e+01
7.800000e-07	-4.334674e-06	-1.060432e-09	-3.012078e+01	-7.136766e+01
7.900000e-07	-4.305272e-06	-1.061340e-09	-2.991647e+01	-7.113530e+01
8.000000e-07	-4.275571e-06	-1.054146e-09	-2.971008e+01	-7.089777e+01
8.100000e-07	-4.245644e-06	-1.038117e-09	-2.950213e+01	-7.065488e+01
8.200000e-07	-4.215392e-06	-1.028651e-09	-2.929191e+01	-7.040647e+01
8.300000e-07	-4.184736e-06	-1.016646e-09	-2.907889e+01	-7.015239e+01
8.400000e-07	-4.153776e-06	-1.007351e-09	-2.886376e+01	-6.989253e+01
8.500000e-07	-4.122665e-06	-1.005763e-09	-2.864757e+01	-6.962677e+01
8.600000e-07	-4.091369e-06	-1.009791e-09	-2.843010e+01	-6.935505e+01
8.700000e-07	-4.059824e-06	-1.009360e-09	-2.821090e+01	-6.907731e+01
8.800000e-07	-4.028124e-06	-1.010222e-09	-2.799062e+01	-6.879350e+01
8.900000e-07	-3.996257e-06	-1.008719e-09	-2.776919e+01	-6.850363e+01
9.000000e-07	-3.964175e-06	-9.904929e-10	-2.754626e+01	-6.820770e+01
9.100000e-07	-3.931864e-06	-9.724799e-10	-2.732174e+01	-6.790572e+01
9.200000e-07	-3.899149e-06	-9.622997e-10	-2.709440e+01	-6.759774e+01
9.300000e-07	-3.866041e-06	-9.599873e-10	-2.686435e+01	-6.728383e+01
9.400000e-07	-3.832657e-06	-9.592301e-10	-2.663236e+01	-6.696406e+01
9.500000e-07	-3.798731e-06	-9.656607e-10	-2.639662e+01	-6.663852e+01
9.600000e-07	-3.764258e-06	-9.613842e-10	-2.615707e+01	-6.630731e+01
9.700000e-07	-3.729399e-06	-9.505543e-10	-2.591485e+01	-6.597055e+01
9.800000e-07	-3.694195e-06	-9.397167e-10	-2.567022e+01	-6.562836e+01
9.900000e-07	-3.658752e-06	-9.327462e-10	-2.542394e+01	-6.528087e+01
1.000000e-06	-3.623156e-06	-9.210513e-10	-2.517659e+01	-6.492823e+01
1.010000e-06	-3.587414e-06	-9.191705e-10	-2.492822e+01	-6.457057e+01
1.020000e-06	-3.551492e-06	-9.210218e-10	-2.467860e+01	-6.420804e+01
1.030000e-06	-3.515394e-06	-9.183322e-10	-2.442777e+01	-6.384079e+01
1.040000e-06	-3.479076e-06	-9.073533e-10	-2.417540e+01	-6.346896e+01
1.050000e-06	-3.442521e-06	-9.037529e-10	-2.392139e+01	-6.309270e+01
1.060000e-06	-3.405699e-06	-8.960547e-10	-2.366552e+01	-6.271216e+01
1.070000e-06	-3.368619e-06	-8.881444e-10	-2.340786e+01	-6.232747e+01
1.080000e-06	-3.331305e-06	-8.845078e-10	-2.314857e+01	-6.193877e+01
1.090000e-06	-3.293762e-06	-8.831283e-10	-2.288769e+01	-6.154617e+01
1.100000e-06	-3.256006e-06	-8.763688e-10	-2.262534e+01	-6.114979e+01
1.110000e-06	-3.218052e-06	-8.702721e-10	-2.236160e+01	-6.074975e+01
1.120000e-06	-3.179897e-06	-8.652369e-10	-2.209647e+01	-6.034613e+01
1.130000e-06	-3.141490e-06	-8.577843e-10	-2.182959e+01	-5.993902e+01
1.140000e-06	-3.102890e-06	-8.491069e-10	-2.156136e+01	-5.952849e+01
1.150000e-06	-3.064034e-06	-8.428622e-10	-2.129136e+01	-5.911460e+01
1.160000e-06	-3.024908e-06	-8.375915e-10	-2.101948e+01	-5.869740e+01
1.170000e-06	-2.985656e-06	-8.330109e-10	-2.074672e+01	-5.827691e+01
1.180000e-06	-2.946211e-06	-8.332239e-10	-2.047263e+01	-5.785315e+01
1.190000e-06	-2.906537e-06	-8.316236e-10	-2.019694e+01	-5.742612e+01
1.200000e-06	-2.866801e-06	-8.246948e-10	-1.992082e+01	-5.699581e+01
1.210000e-06	-2.826953e-06	-8.148128e-10	-1.964393e+01	-5.656218e+01
1.220000e-06	-2.786868e-06	-8.057378e-10	-1.936538e+01	-5.612520e+01
1.230000e-06	-2.746647e-06	-7.945626e-10	-1.908590e+01	-5.568478e+01
1.240000e-06	-2.706239e-06	-7.866508e-10	-1.880511e+01	-5.524086e+01
1.250000e-06	-2.665666e-06	-7.813135e-10	-1.852318e+01	-5.479334e+01
1.260000e-06	-2.624939e-06	-7.789942e-10	-1.824017e+01	-5.434211e+01
1.270000e-06	-2.583976e-06	-7.739156e-10	-1.795553e+01	-5.388704e+01
1.280000e-06	-2.542717e-06	-7.699446e-10	-1.766883e+01	-5.342797e+01
1.290000e-06	-2.501205e-06	-7.634256e-10	-1.738037e+01	-5.296476e+01
1.300000e-06	-2.459465e-06	-7.540727e-10	-1.709033e+01	-5.249722e+01
1.310000e-06	-2.417316e-06	-7.432874e-10	-1.679744e+01	-5.202517e+01
1.320000e-06	-2.374793e-06	-7.338208e-10	-1.650196e+01	-5.154838e+01
1.330000e-06	-2.331959e-06	-7.231138e-10	-1.620432e+01	-5.106663e+01
1.340000e-06	-2.288948e-06	-7.153234e-10	-1.590544e+01	-5.057968e+01
1.350000e-06	-2.245761e-06	-7.085522e-10	-1.560534e+01	-5.008728e+01
1.360000e-06	-2.202273e-06	-7.008154e-10	-1.530315e+01	-4.958915e+01
1.370000e-06	-2.158650e-06	-6.923314e-10	-1.500003e+01	-4.908499e+01
1.380000e-06	-2.114950e-06	-6.840859e-10	-1.469637e+01	-4.857452e+01
1.390000e-06	-2.071170e-06	-6.739099e-10	-1.439214e+01	-4.805740e+01
1.400000e-06	-2.027352e-06	-6.636163e-10	-1.408766e+01	-4.753332e+01
1.410000e-06	-1.983473e-06	-6.545337e-10	-1.378276e+01	-4.700190e+01
1.420000e-06	-1.939520e-06	-6.459980e-10	-1.347734e+01	-4.646281e+01
1.430000e-06	-1.895418e-06	-6.358947e-10	-1.317088e+01	-4.591566e+01
1.440000e-06	-1.851203e-06	-6.267804e-10	-1.286364e+01	-4.536006e+01
1.450000e-06	-1.806934e-06	-6.193303e-10	-1.255603e+01	-4.479561e+01
1.460000e-06	-1.762588e-06	-6.099514e-10	-1.224787e+01	-4.422190e+01
1.470000e-06	-1.718213e-06	-5.998112e-10	-1.193952e+01	-4.363851e+01
1.480000e-06	-1.673779e-06	-5.895899e-10	-1.163076e+01	-4.304501e+01
1.490000e-06	-1.629105e-06	-5.810110e-10	-1.132032e+01	-4.244094e+01
1.500000e-06	-1.584202e-06	-5.734969e-10	-1.100830e+01	-4.182587e+01
1.510000e-06	-1.539122e-06	-5.655942e-10	-1.069505e+01	-4.119933e+01
1.520000e-06	-1.493885e-06	-5.541912e-10	-1.038071e+01	-4.056086e+01
1.530000e-06	-1.448581e-06	-5.417652e-10	-1.006590e+01	-3.990999e+01
1.540000e-06	-1.403276e-06	-5.312877e-10	-9.751083e+00	-3.924626e+01
1.550000e-06	-1.357903e-06	-5.216766e-10	-9.435792e+00	-3.856918e+01
1.560000e-06	-1.312407e-06	-5.109354e-10	-9.119654e+00	-3.787830e+01
1.570000e-06	-1.266817e-06	-5.001295e-10	-8.802859e+00	-3.717315e+01
1.580000e-06	-1.221073e-06	-4.882707e-10	-8.484995e+00	-3.645325e+01
1.590000e-06	-1.175187e-06	-4.745189e-10	-8.166139e+00	-3.571817e+01
1.600000e-06	-1.129253e-06	-4.605956e-10	-7.846954e+00	-3.496745e+01
1.610000e-06	-1.083325e-06	-4.484088e-10	-7.527805e+00	-3.420066e+01
1.620000e-06	-1.037294e-06	-4.358691e-10	-7.207951e+00	-3.341738e+01
1.630000e-06	-9.911103e-07	-4.222703e-10	-6.887027e+00	-3.261721e+01
1.640000e-06	-9.449161e-07	-4.077434e-10	-6.566033e+00	-3.179977e+01
1.650000e-06	-8.986815e-07	-3.939013e-10	-6.244758e+00	-3.096470e+01
1.660000e-06	-8.523784e-07	-3.800212e-10	-5.923007e+00	-3.011166e+01
1.670000e-06	-8.060068e-07	-3.670490e-10	-5.600780e+00	-2.924035e+01
1.680000e-06	-7.595117e-07	-3.554729e-10	-5.277695e+00	-2.835049e+01
1.690000e-06	-7.130720e-07	-3.461916e-10	-4.954995e+00	-2.744185e+01
1.700000e-06	-6.665899e-07	-3.350022e-10	-4.632000e+00	-2.651421e+01
1.710000e-06	-6.200074e-07	-3.197487e-10	-4.308307e+00	-2.556741e+01
1.720000e-06	-5.734081e-07	-3.021565e-10	-3.984498e+00	-2.460132e+01
1.730000e-06	-5.267603e-07	-2.837393e-10	-3.660352e+00	-2.361586e+01
1.740000e-06	-4.800822e-07	-2.648329e-10	-3.335995e+00	-2.261100e+01
1.750000e-06	-4.333497e-07	-2.483009e-10	-3.011260e+00	-2.158674e+01
1.760000e-06	-3.865924e-07	-2.357172e-10	-2.686353e+00	-2.054315e+01
1.770000e-06	-3.398525e-07	-2.233699e-10	-2.361567e+00	-1.948036e+01
1.780000e-06	-2.930417e-07	-2.092417e-10	-2.036288e+00	-1.839851e+01
1.790000e-06	-2.461517e-07	-1.940562e-10	-1.710459e+00	-1.729784e+01
1.800000e-06	-1.992204e-07	-1.780073e-10	-1.384343e+00	-1.617862e+01
1.810000e-06	-1.522479e-07	-1.610765e-10	-1.057940e+00	-1.504120e+01
1.820000e-06	-1.052789e-07	-1.438881e-10	-7.315621e-01	-1.388595e+01
1.830000e-06	-5.836310e-08	-1.264219e-10	-4.055535e-01	-1.271334e+01
1.840000e-06	-1.148266e-08	-1.087560e-10	-7.979071e-02	-1.152387e+01
1.850000e-06	3.537307e-08	-9.166975e-11	2.458004e-01	-1.031809e+01
1.860000e-06	8.218297e-08	-7.437560e-11	5.710730e-01	-9.096642e+00
1.870000e-06	1.289932e-07	-5.495594e-11	8.963477e-01	-7.860182e+00
1.880000e-06	1.758153e-07	-3.679458e-11	1.221706e+00	-6.609443e+00
1.890000e-06	2.226175e-07	-1.986211e-11	1.546924e+00	-5.345203e+00
1.900000e-06	2.693644e-07	-3.667819e-12	1.871760e+00	-4.068289e+00
1.910000e-06	3.161040e-07	1.167022e-11	2.196543e+00	-2.779577e+00
1.920000e-06	3.628427e-07	2.947396e-11	2.521322e+00	-1.479985e+00
1.930000e-06	4.095475e-07	4.957893e-11	2.845864e+00	-1.704746e-01
1.940000e-06	4.561960e-07	6.928101e-11	3.170015e+00	1.147956e+00
1.950000e-06	5.027884e-07	8.876434e-11	3.493776e+00	2.474272e+00
1.960000e-06	5.493768e-07	1.087739e-10	3.817510e+00	3.807411e+00
1.970000e-06	5.959568e-07	1.264859e-10	4.141184e+00	5.146279e+00
1.980000e-06	6.424101e-07	1.432062e-10	4.463979e+00	6.489764e+00
1.990000e-06	6.887496e-07	1.599715e-10	4.785983e+00	7.836731e+00
2.000000e-06	7.350125e-07	1.748570e-10	5.107454e+00	9.186033e+00
2.010000e-06	7.812571e-07	1.920770e-10	5.428799e+00	1.053651e+01
2.020000e-06	8.274878e-07	2.133653e-10	5.750047e+00	1.188701e+01
2.030000e-06	8.736843e-07	2.392574e-10	6.071057e+00	1.323636e+01
2.040000e-06	9.199102e-07	2.654385e-10	6.392272e+00	1.458340e+01
2.050000e-06	9.660587e-07	2.874004e-10	6.712948e+00	1.592698e+01
2.060000e-06	1.012082e-06	3.066731e-10	7.032752e+00	1.726596e+01
2.070000e-06	1.058021e-06	3.230500e-10	7.351975e+00	1.859923e+01
2.080000e-06	1.103912e-06	3.378602e-10	7.670861e+00	1.992568e+01
2.090000e-06	1.149718e-06	3.553079e-10	7.989163e+00	2.124425e+01
2.100000e-06	1.195443e-06	3.763278e-10	8.306896e+00	2.255388e+01
2.110000e-06	1.241099e-06	3.971428e-10	8.624147e+00	2.385357e+01
2.120000e-06	1.286672e-06	4.161629e-10	8.940823e+00	2.514234e+01
2.130000e-06	1.332225e-06	4.363055e-10	9.257364e+00	2.641926e+01
2.140000e-06	1.377684e-06	4.550435e-10	9.573250e+00	2.768345e+01
2.150000e-06	1.422970e-06	4.700885e-10	9.887934e+00	2.893405e+01
2.160000e-06	1.468085e-06	4.864395e-10	1.020143e+01	3.017028e+01
2.170000e-06	1.513121e-06	5.042595e-10	1.051437e+01	3.139138e+01
2.180000e-06	1.558127e-06	5.208085e-10	1.082711e+01	3.259667e+01
2.190000e-06	1.602983e-06	5.389181e-10	1.113881e+01	3.378550e+01
2.200000e-06	1.647694e-06	5.570799e-10	1.144949e+01	3.495730e+01
2.210000e-06	1.692273e-06	5.723152e-10	1.175926e+01	3.611153e+01
2.220000e-06	1.736742e-06	5.859586e-10	1.206827e+01	3.724771e+01
2.230000e-06	1.781061e-06	5.984339e-10	1.237623e+01	3.836544e+01
2.240000e-06	1.825196e-06	6.121438e-10	1.268292e+01	3.946434e+01
2.250000e-06	1.869270e-06	6.279462e-10	1.298919e+01	4.054411e+01
2.260000e-06	1.913265e-06	6.441409e-10	1.329490e+01	4.160451e+01
2.270000e-06	1.957181e-06	6.597401e-10	1.360006e+01	4.264531e+01
2.280000e-06	2.001095e-06	6.747780e-10	1.390521e+01	4.366639e+01
2.290000e-06	2.044957e-06	6.876530e-10	1.421000e+01	4.466763e+01
2.300000e-06	2.088749e-06	6.970029e-10	1.451430e+01	4.564898e+01
2.310000e-06	2.132481e-06	7.053257e-10	1.481818e+01	4.661044e+01
2.320000e-06	2.176129e-06	7.167381e-10	1.512149e+01	4.755205e+01
2.330000e-06	2.219659e-06	7.304398e-10	1.542397e+01	4.847387e+01
2.340000e-06	2.263060e-06	7.457687e-10	1.572555e+01	4.937603e+01
2.350000e-06	2.306356e-06	7.623993e-10	1.602641e+01	5.025868e+01
2.360000e-06	2.349346e-06	7.762345e-10	1.632514e+01	5.112199e+01
2.370000e-06	2.391856e-06	7.859361e-10	1.662053e+01	5.196618e+01
2.380000e-06	2.434138e-06	7.942341e-10	1.691434e+01	5.279149e+01
2.390000e-06	2.476197e-06	8.019497e-10	1.720660e+01	5.359817e+01
2.400000e-06	2.517963e-06	8.090060e-10	1.749682e+01	5.438652e+01
2.410000e-06	2.559358e-06	8.198393e-10	1.778447e+01	5.515683e+01
2.420000e-06	2.600303e-06	8.348559e-10	1.806899e+01	5.590942e+01
2.430000e-06	2.640998e-06	8.504457e-10	1.835177e+01	5.664462e+01
2.440000e-06	2.681507e-06	8.637996e-10	1.863326e+01	5.736277e+01
2.450000e-06	2.721848e-06	8.733880e-10	1.891357e+01	5.806420e+01
2.460000e-06	2.761980e-06	8.798116e-10	1.919244e+01	5.874928e+01
2.470000e-06	2.801950e-06	8.846643e-10	1.947019e+01	5.941836e+01
2.480000e-06	2.841823e-06	8.903422e-10	1.974726e+01	6.007179e+01
2.490000e-06	2.881575e-06	8.979974e-10	2.002349e+01	6.070993e+01
2.500000e-06	2.921214e-06	9.067627e-10	2.029893e+01	6.133314e+01
2.510000e-06	2.960776e-06	9.178337e-10	2.057384e+01	6.194176e+01
2.520000e-06	3.000229e-06	9.288366e-10	2.084799e+01	6.253613e+01
2.530000e-06	3.039383e-06	9.375516e-10	2.112006e+01	6.311660e+01
2.540000e-06	3.078192e-06	9.452964e-10	2.138974e+01	6.368350e+01
2.550000e-06	3.116782e-06	9.531641e-10	2.165789e+01	6.423715e+01
2.560000e-06	3.155157e-06	9.607769e-10	2.192455e+01	6.477787e+01
2.570000e-06	3.193379e-06	9.678860e-10	2.219015e+01	6.530598e+01
2.580000e-06	3.231414e-06	9.772208e-10	2.245445e+01	6.582176e+01
2.590000e-06	3.269247e-06	9.852697e-10	2.271734e+01	6.632552e+01
2.600000e-06	3.306865e-06	9.904323e-10	2.297874e+01	6.681754e+01
2.610000e-06	3.344200e-06	9.943851e-10	2.323817e+01	6.729809e+01
2.620000e-06	3.381276e-06	9.998013e-10	2.349581e+01	6.776745e+01
2.630000e-06	3.418141e-06	1.007148e-09	2.375198e+01	6.822587e+01
2.640000e-06	3.454788e-06	1.015036e-09	2.400663e+01	6.867361e+01
2.650000e-06	3.491139e-06	1.024778e-09	2.425922e+01	6.911092e+01
2.660000e-06	3.527249e-06	1.035749e-09	2.451015e+01	6.953804e+01
2.670000e-06	3.563204e-06	1.043193e-09	2.475999e+01	6.995521e+01
2.680000e-06	3.599059e-06	1.047679e-09	2.500914e+01	7.036266e+01
2.690000e-06	3.634741e-06	1.049758e-09	2.525709e+01	7.076063e+01
2.700000e-06	3.670276e-06	1.050404e-09	2.550402e+01	7.114932e+01
2.710000e-06	3.705677e-06	1.055516e-09	2.575000e+01	7.152898e+01
2.720000e-06	3.740768e-06	1.064049e-09	2.599384e+01	7.189980e+01
2.730000e-06	3.775541e-06	1.071413e-09	2.623548e+01	7.226202e+01
2.740000e-06	3.809946e-06	1.076938e-09	2.647455e+01	7.261585e+01
2.750000e-06	3.843861e-06	1.082144e-09	2.671022e+01	7.296150e+01
2.760000e-06	3.877289e-06	1.085797e-09	2.694251e+01	7.329917e+01
2.770000e-06	3.910298e-06	1.087829e-09	2.717187e+01	7.362909e+01
2.780000e-06	3.942894e-06	1.091161e-09	2.739838e+01	7.395144e+01
2.790000e-06	3.975133e-06	1.095539e-09	2.762240e+01	7.426645e+01
2.800000e-06	4.007135e-06	1.099776e-09	2.784478e+01	7.457430e+01
2.810000e-06	4.039016e-06	1.104623e-09	2.806631e+01	7.487521e+01
2.820000e-06	4.070760e-06	1.108779e-09	2.828689e+01	7.516936e+01
2.830000e-06	4.102307e-06	1.112856e-09	2.850611e+01	7.545695e+01
2.840000e-06	4.133611e-06	1.116740e-09	2.872363e+01	7.573816e+01
2.850000e-06	4.164615e-06	1.121555e-09	2.893908e+01	7.601319e+01
2.860000e-06	4.195319e-06	1.126776e-09	2.915243e+01	7.628220e+01
2.870000e-06	4.225660e-06	1.131453e-09	2.936326e+01	7.654536e+01
2.880000e-06	4.255695e-06	1.135437e-09	2.957197e+01	7.680285e+01
2.890000e-06	4.285456e-06	1.135720e-09	2.977878e+01	7.705482e+01
2.900000e-06	4.314972e-06	1.133040e-09	2.998387e+01	7.730141e+01
