# Temperatura_=_-0.3
# Concentracion g/m^3_=_1620.0
# C_Vs_to_Am_M_A/Vsm_=_65563218390.804596
# pendiente_HvsI_1/m_=_3716.3
# ordenada_HvsI_A/m_=_1297.0
# frecuencia_Hz_=_135101.4868297128

Tiempo_(s)	Campo_(V.s)	Magnetizacion_(V.s)	Campo_(kA/m)	Magnetizacion_(A/m)
0.000000e+00	-5.514857e-06	-1.545732e-09	-3.836992e+01	-1.002312e+02
1.000000e-08	-5.515097e-06	-1.546594e-09	-3.837159e+01	-1.002167e+02
2.000000e-08	-5.515072e-06	-1.547299e-09	-3.837141e+01	-1.002020e+02
3.000000e-08	-5.514662e-06	-1.547542e-09	-3.836856e+01	-1.001869e+02
4.000000e-08	-5.513791e-06	-1.546755e-09	-3.836250e+01	-1.001714e+02
5.000000e-08	-5.512287e-06	-1.545000e-09	-3.835204e+01	-1.001553e+02
6.000000e-08	-5.510084e-06	-1.539185e-09	-3.833671e+01	-1.001385e+02
7.000000e-08	-5.507402e-06	-1.536618e-09	-3.831805e+01	-1.001208e+02
8.000000e-08	-5.504315e-06	-1.565601e-09	-3.829657e+01	-1.001021e+02
9.000000e-08	-5.500762e-06	-1.576065e-09	-3.827185e+01	-1.000821e+02
1.000000e-07	-5.496773e-06	-1.532528e-09	-3.824410e+01	-1.000606e+02
1.100000e-07	-5.492484e-06	-1.538212e-09	-3.821425e+01	-1.000374e+02
1.200000e-07	-5.487952e-06	-1.563497e-09	-3.818272e+01	-1.000122e+02
1.300000e-07	-5.483199e-06	-1.563262e-09	-3.814966e+01	-9.998479e+01
1.400000e-07	-5.478134e-06	-1.522482e-09	-3.811441e+01	-9.995482e+01
1.500000e-07	-5.472662e-06	-1.493668e-09	-3.807634e+01	-9.992202e+01
1.600000e-07	-5.466860e-06	-1.556609e-09	-3.803598e+01	-9.988611e+01
1.700000e-07	-5.460597e-06	-1.542658e-09	-3.799240e+01	-9.984679e+01
1.800000e-07	-5.453856e-06	-1.535441e-09	-3.794550e+01	-9.980375e+01
1.900000e-07	-5.446797e-06	-1.513472e-09	-3.789639e+01	-9.975671e+01
2.000000e-07	-5.439440e-06	-1.560772e-09	-3.784520e+01	-9.970536e+01
2.100000e-07	-5.431738e-06	-1.550271e-09	-3.779161e+01	-9.964941e+01
2.200000e-07	-5.423778e-06	-1.542577e-09	-3.773623e+01	-9.958859e+01
2.300000e-07	-5.415622e-06	-1.522470e-09	-3.767949e+01	-9.952261e+01
2.400000e-07	-5.407011e-06	-1.542499e-09	-3.761957e+01	-9.945122e+01
2.500000e-07	-5.397658e-06	-1.539704e-09	-3.755450e+01	-9.937416e+01
2.600000e-07	-5.387538e-06	-1.527316e-09	-3.748409e+01	-9.929121e+01
2.700000e-07	-5.376867e-06	-1.517758e-09	-3.740984e+01	-9.920214e+01
2.800000e-07	-5.365772e-06	-1.512890e-09	-3.733265e+01	-9.910675e+01
2.900000e-07	-5.354252e-06	-1.519094e-09	-3.725250e+01	-9.900487e+01
3.000000e-07	-5.342366e-06	-1.496131e-09	-3.716980e+01	-9.889633e+01
3.100000e-07	-5.330077e-06	-1.495729e-09	-3.708430e+01	-9.878099e+01
3.200000e-07	-5.317348e-06	-1.486577e-09	-3.699574e+01	-9.865874e+01
3.300000e-07	-5.304270e-06	-1.514468e-09	-3.690475e+01	-9.852948e+01
3.400000e-07	-5.290862e-06	-1.483178e-09	-3.681146e+01	-9.839314e+01
3.500000e-07	-5.277003e-06	-1.480051e-09	-3.671504e+01	-9.824966e+01
3.600000e-07	-5.262665e-06	-1.482454e-09	-3.661528e+01	-9.809901e+01
3.700000e-07	-5.247947e-06	-1.489512e-09	-3.651287e+01	-9.794120e+01
3.800000e-07	-5.232671e-06	-1.441528e-09	-3.640659e+01	-9.777623e+01
3.900000e-07	-5.216762e-06	-1.468120e-09	-3.629591e+01	-9.760415e+01
4.000000e-07	-5.200414e-06	-1.490240e-09	-3.618216e+01	-9.742501e+01
4.100000e-07	-5.183738e-06	-1.465228e-09	-3.606614e+01	-9.723889e+01
4.200000e-07	-5.166788e-06	-1.442671e-09	-3.594821e+01	-9.704588e+01
4.300000e-07	-5.149476e-06	-1.493498e-09	-3.582776e+01	-9.684610e+01
4.400000e-07	-5.131876e-06	-1.462327e-09	-3.570531e+01	-9.663968e+01
4.500000e-07	-5.113994e-06	-1.409379e-09	-3.558089e+01	-9.642677e+01
4.600000e-07	-5.095639e-06	-1.438187e-09	-3.545318e+01	-9.620751e+01
4.700000e-07	-5.076764e-06	-1.466372e-09	-3.532186e+01	-9.598208e+01
4.800000e-07	-5.057543e-06	-1.409317e-09	-3.518813e+01	-9.575066e+01
4.900000e-07	-5.038124e-06	-1.424032e-09	-3.505303e+01	-9.551343e+01
5.000000e-07	-5.018498e-06	-1.468069e-09	-3.491647e+01	-9.527059e+01
5.100000e-07	-4.998709e-06	-1.417734e-09	-3.477879e+01	-9.502235e+01
5.200000e-07	-4.978625e-06	-1.388035e-09	-3.463905e+01	-9.476889e+01
5.300000e-07	-4.958148e-06	-1.441532e-09	-3.449658e+01	-9.451043e+01
5.400000e-07	-4.937313e-06	-1.420969e-09	-3.435163e+01	-9.424716e+01
5.500000e-07	-4.916102e-06	-1.369128e-09	-3.420404e+01	-9.397930e+01
5.600000e-07	-4.894551e-06	-1.413689e-09	-3.405410e+01	-9.370703e+01
5.700000e-07	-4.872607e-06	-1.425575e-09	-3.390143e+01	-9.343055e+01
5.800000e-07	-4.850236e-06	-1.369652e-09	-3.374578e+01	-9.315005e+01
5.900000e-07	-4.827545e-06	-1.380022e-09	-3.358791e+01	-9.286569e+01
6.000000e-07	-4.804569e-06	-1.415955e-09	-3.342805e+01	-9.257766e+01
6.100000e-07	-4.781332e-06	-1.373461e-09	-3.326638e+01	-9.228610e+01
6.200000e-07	-4.757878e-06	-1.371857e-09	-3.310320e+01	-9.199116e+01
6.300000e-07	-4.734230e-06	-1.402130e-09	-3.293866e+01	-9.169298e+01
6.400000e-07	-4.710351e-06	-1.380444e-09	-3.277252e+01	-9.139167e+01
6.500000e-07	-4.686115e-06	-1.350603e-09	-3.260390e+01	-9.108733e+01
6.600000e-07	-4.661492e-06	-1.375074e-09	-3.243258e+01	-9.078006e+01
6.700000e-07	-4.636324e-06	-1.359532e-09	-3.225748e+01	-9.046992e+01
6.800000e-07	-4.610504e-06	-1.339783e-09	-3.207784e+01	-9.015698e+01
6.900000e-07	-4.584134e-06	-1.354205e-09	-3.189436e+01	-8.984126e+01
7.000000e-07	-4.557207e-06	-1.364215e-09	-3.170701e+01	-8.952280e+01
7.100000e-07	-4.529898e-06	-1.340741e-09	-3.151701e+01	-8.920160e+01
7.200000e-07	-4.502408e-06	-1.346011e-09	-3.132575e+01	-8.887765e+01
7.300000e-07	-4.474778e-06	-1.345095e-09	-3.113351e+01	-8.855092e+01
7.400000e-07	-4.447034e-06	-1.326932e-09	-3.094048e+01	-8.822137e+01
7.500000e-07	-4.419129e-06	-1.318495e-09	-3.074633e+01	-8.788894e+01
7.600000e-07	-4.390981e-06	-1.326072e-09	-3.055049e+01	-8.755356e+01
7.700000e-07	-4.362480e-06	-1.312385e-09	-3.035219e+01	-8.721514e+01
7.800000e-07	-4.333598e-06	-1.304481e-09	-3.015125e+01	-8.687358e+01
7.900000e-07	-4.304328e-06	-1.305042e-09	-2.994759e+01	-8.652876e+01
8.000000e-07	-4.274763e-06	-1.292911e-09	-2.974190e+01	-8.618057e+01
8.100000e-07	-4.244986e-06	-1.275613e-09	-2.953472e+01	-8.582886e+01
8.200000e-07	-4.214931e-06	-1.274234e-09	-2.932561e+01	-8.547349e+01
8.300000e-07	-4.184564e-06	-1.271031e-09	-2.911433e+01	-8.511431e+01
8.400000e-07	-4.153824e-06	-1.258267e-09	-2.890046e+01	-8.475116e+01
8.500000e-07	-4.122809e-06	-1.256654e-09	-2.868467e+01	-8.438386e+01
8.600000e-07	-4.091600e-06	-1.255657e-09	-2.846753e+01	-8.401226e+01
8.700000e-07	-4.060171e-06	-1.243772e-09	-2.824886e+01	-8.363618e+01
8.800000e-07	-4.028530e-06	-1.233498e-09	-2.802872e+01	-8.325545e+01
8.900000e-07	-3.996731e-06	-1.234432e-09	-2.780747e+01	-8.286988e+01
9.000000e-07	-3.964788e-06	-1.222868e-09	-2.758523e+01	-8.247932e+01
9.100000e-07	-3.932533e-06	-1.211481e-09	-2.736081e+01	-8.208357e+01
9.200000e-07	-3.899892e-06	-1.207399e-09	-2.713371e+01	-8.168249e+01
9.300000e-07	-3.866819e-06	-1.200601e-09	-2.690360e+01	-8.127590e+01
9.400000e-07	-3.833245e-06	-1.183604e-09	-2.667001e+01	-8.086366e+01
9.500000e-07	-3.799220e-06	-1.180291e-09	-2.643328e+01	-8.044560e+01
9.600000e-07	-3.764758e-06	-1.175463e-09	-2.619351e+01	-8.002160e+01
9.700000e-07	-3.729906e-06	-1.162523e-09	-2.595102e+01	-7.959152e+01
9.800000e-07	-3.694851e-06	-1.150969e-09	-2.570713e+01	-7.915525e+01
9.900000e-07	-3.659589e-06	-1.149575e-09	-2.546179e+01	-7.871267e+01
1.000000e-06	-3.624069e-06	-1.139411e-09	-2.521466e+01	-7.826370e+01
1.010000e-06	-3.588387e-06	-1.134740e-09	-2.496639e+01	-7.780825e+01
1.020000e-06	-3.552575e-06	-1.135818e-09	-2.471723e+01	-7.734624e+01
1.030000e-06	-3.516606e-06	-1.131290e-09	-2.446697e+01	-7.687764e+01
1.040000e-06	-3.480443e-06	-1.118048e-09	-2.421537e+01	-7.640239e+01
1.050000e-06	-3.444015e-06	-1.112260e-09	-2.396192e+01	-7.592047e+01
1.060000e-06	-3.407289e-06	-1.103101e-09	-2.370640e+01	-7.543188e+01
1.070000e-06	-3.370300e-06	-1.087888e-09	-2.344905e+01	-7.493662e+01
1.080000e-06	-3.333011e-06	-1.076096e-09	-2.318961e+01	-7.443470e+01
1.090000e-06	-3.295507e-06	-1.071167e-09	-2.292867e+01	-7.392616e+01
1.100000e-06	-3.257834e-06	-1.063222e-09	-2.266655e+01	-7.341105e+01
1.110000e-06	-3.219910e-06	-1.056153e-09	-2.240270e+01	-7.288942e+01
1.120000e-06	-3.181752e-06	-1.053788e-09	-2.213721e+01	-7.236135e+01
1.130000e-06	-3.143343e-06	-1.047229e-09	-2.186998e+01	-7.182693e+01
1.140000e-06	-3.104739e-06	-1.035792e-09	-2.160139e+01	-7.128624e+01
1.150000e-06	-3.065971e-06	-1.024965e-09	-2.133166e+01	-7.073940e+01
1.160000e-06	-3.027000e-06	-1.014389e-09	-2.106052e+01	-7.018650e+01
1.170000e-06	-2.987823e-06	-1.001651e-09	-2.078794e+01	-6.962768e+01
1.180000e-06	-2.948448e-06	-9.944834e-10	-2.051399e+01	-6.906304e+01
1.190000e-06	-2.908930e-06	-9.900069e-10	-2.023904e+01	-6.849272e+01
1.200000e-06	-2.869320e-06	-9.844569e-10	-1.996345e+01	-6.791683e+01
1.210000e-06	-2.829601e-06	-9.772295e-10	-1.968710e+01	-6.733552e+01
1.220000e-06	-2.789773e-06	-9.707867e-10	-1.941000e+01	-6.674890e+01
1.230000e-06	-2.749761e-06	-9.580263e-10	-1.913161e+01	-6.615709e+01
1.240000e-06	-2.709474e-06	-9.434579e-10	-1.885132e+01	-6.556019e+01
1.250000e-06	-2.669073e-06	-9.320274e-10	-1.857022e+01	-6.495832e+01
1.260000e-06	-2.628549e-06	-9.241036e-10	-1.828827e+01	-6.435157e+01
1.270000e-06	-2.587691e-06	-9.142347e-10	-1.800400e+01	-6.374001e+01
1.280000e-06	-2.546559e-06	-9.066526e-10	-1.771782e+01	-6.312372e+01
1.290000e-06	-2.505152e-06	-8.982335e-10	-1.742973e+01	-6.250273e+01
1.300000e-06	-2.463290e-06	-8.873199e-10	-1.713847e+01	-6.187707e+01
1.310000e-06	-2.421146e-06	-8.747117e-10	-1.684525e+01	-6.124675e+01
1.320000e-06	-2.378773e-06	-8.651365e-10	-1.655044e+01	-6.061175e+01
1.330000e-06	-2.335999e-06	-8.555517e-10	-1.625284e+01	-5.997203e+01
1.340000e-06	-2.292971e-06	-8.458890e-10	-1.595347e+01	-5.932751e+01
1.350000e-06	-2.249757e-06	-8.360217e-10	-1.565280e+01	-5.867811e+01
1.360000e-06	-2.206378e-06	-8.256498e-10	-1.535100e+01	-5.802369e+01
1.370000e-06	-2.162923e-06	-8.133832e-10	-1.504866e+01	-5.736409e+01
1.380000e-06	-2.119385e-06	-8.013448e-10	-1.474574e+01	-5.669912e+01
1.390000e-06	-2.075779e-06	-7.871457e-10	-1.444234e+01	-5.602856e+01
1.400000e-06	-2.032076e-06	-7.732054e-10	-1.413828e+01	-5.535215e+01
1.410000e-06	-1.988319e-06	-7.627482e-10	-1.383384e+01	-5.466960e+01
1.420000e-06	-1.944529e-06	-7.554626e-10	-1.352916e+01	-5.398058e+01
1.430000e-06	-1.900632e-06	-7.474710e-10	-1.322375e+01	-5.328473e+01
1.440000e-06	-1.856635e-06	-7.378635e-10	-1.291764e+01	-5.258165e+01
1.450000e-06	-1.812505e-06	-7.263316e-10	-1.261060e+01	-5.187093e+01
1.460000e-06	-1.768244e-06	-7.110575e-10	-1.230266e+01	-5.115211e+01
1.470000e-06	-1.723826e-06	-6.964574e-10	-1.199361e+01	-5.042469e+01
1.480000e-06	-1.679237e-06	-6.827979e-10	-1.168338e+01	-4.968815e+01
1.490000e-06	-1.634533e-06	-6.706860e-10	-1.137235e+01	-4.894196e+01
1.500000e-06	-1.589738e-06	-6.603065e-10	-1.106069e+01	-4.818554e+01
1.510000e-06	-1.544854e-06	-6.504980e-10	-1.074840e+01	-4.741830e+01
1.520000e-06	-1.499881e-06	-6.375762e-10	-1.043551e+01	-4.663963e+01
1.530000e-06	-1.454768e-06	-6.238378e-10	-1.012163e+01	-4.584890e+01
1.540000e-06	-1.409450e-06	-6.115887e-10	-9.806322e+00	-4.504546e+01
1.550000e-06	-1.364045e-06	-6.000243e-10	-9.490415e+00	-4.422867e+01
1.560000e-06	-1.318622e-06	-5.831728e-10	-9.174385e+00	-4.339786e+01
1.570000e-06	-1.273174e-06	-5.675323e-10	-8.858178e+00	-4.255236e+01
1.580000e-06	-1.227611e-06	-5.540652e-10	-8.541169e+00	-4.169153e+01
1.590000e-06	-1.181925e-06	-5.387401e-10	-8.223306e+00	-4.081470e+01
1.600000e-06	-1.136140e-06	-5.238378e-10	-7.904755e+00	-3.992123e+01
1.610000e-06	-1.090254e-06	-5.114250e-10	-7.585504e+00	-3.901048e+01
1.620000e-06	-1.044290e-06	-4.971809e-10	-7.265704e+00	-3.808184e+01
1.630000e-06	-9.982524e-07	-4.819512e-10	-6.945395e+00	-3.713473e+01
1.640000e-06	-9.521505e-07	-4.687266e-10	-6.624639e+00	-3.616859e+01
1.650000e-06	-9.060015e-07	-4.544160e-10	-6.303555e+00	-3.518288e+01
1.660000e-06	-8.598254e-07	-4.371547e-10	-5.982282e+00	-3.417711e+01
1.670000e-06	-8.135487e-07	-4.187729e-10	-5.660310e+00	-3.315084e+01
1.680000e-06	-7.672149e-07	-4.008279e-10	-5.337939e+00	-3.210366e+01
1.690000e-06	-7.208850e-07	-3.836269e-10	-5.015597e+00	-3.103522e+01
1.700000e-06	-6.745330e-07	-3.687833e-10	-4.693100e+00	-2.994522e+01
1.710000e-06	-6.280385e-07	-3.538630e-10	-4.369612e+00	-2.883341e+01
1.720000e-06	-5.814205e-07	-3.362789e-10	-4.045265e+00	-2.769962e+01
1.730000e-06	-5.348290e-07	-3.192472e-10	-3.721102e+00	-2.654373e+01
1.740000e-06	-4.882139e-07	-3.029668e-10	-3.396775e+00	-2.536569e+01
1.750000e-06	-4.415142e-07	-2.840786e-10	-3.071859e+00	-2.416552e+01
1.760000e-06	-3.948828e-07	-2.641123e-10	-2.747418e+00	-2.294332e+01
1.770000e-06	-3.482333e-07	-2.447773e-10	-2.422852e+00	-2.169925e+01
1.780000e-06	-3.013962e-07	-2.271005e-10	-2.096981e+00	-2.043356e+01
1.790000e-06	-2.545238e-07	-2.100310e-10	-1.770863e+00	-1.914655e+01
1.800000e-06	-2.077700e-07	-1.943403e-10	-1.445571e+00	-1.783865e+01
1.810000e-06	-1.610192e-07	-1.780331e-10	-1.120300e+00	-1.651030e+01
1.820000e-06	-1.141702e-07	-1.593502e-10	-7.943451e-01	-1.516206e+01
1.830000e-06	-6.724974e-08	-1.392536e-10	-4.678938e-01	-1.379457e+01
1.840000e-06	-2.036482e-08	-1.186382e-10	-1.416894e-01	-1.240851e+01
1.850000e-06	2.641353e-08	-9.827076e-11	1.837735e-01	-1.100467e+01
1.860000e-06	7.330107e-08	-7.709105e-11	5.099962e-01	-9.583877e+00
1.870000e-06	1.202178e-07	-5.350070e-11	8.364219e-01	-8.147054e+00
1.880000e-06	1.670167e-07	-2.979923e-11	1.162028e+00	-6.695175e+00
1.890000e-06	2.137897e-07	-8.882047e-12	1.487453e+00	-5.229279e+00
1.900000e-06	2.605553e-07	7.817547e-12	1.812827e+00	-3.750462e+00
1.910000e-06	3.073020e-07	2.340851e-11	2.138071e+00	-2.259873e+00
1.920000e-06	3.539891e-07	4.176911e-11	2.462899e+00	-7.587116e-01
1.930000e-06	4.006527e-07	6.378245e-11	2.787563e+00	7.517806e-01
1.940000e-06	4.473101e-07	8.837403e-11	3.112185e+00	2.270322e+00
1.950000e-06	4.939224e-07	1.137152e-10	3.436492e+00	3.795597e+00
1.960000e-06	5.404943e-07	1.362868e-10	3.760519e+00	5.326264e+00
1.970000e-06	5.870164e-07	1.543275e-10	4.084198e+00	6.860959e+00
1.980000e-06	6.334662e-07	1.721137e-10	4.407376e+00	8.398300e+00
1.990000e-06	6.799093e-07	1.909458e-10	4.730506e+00	9.936899e+00
2.000000e-06	7.263433e-07	2.104724e-10	5.053573e+00	1.147536e+01
2.010000e-06	7.726712e-07	2.316725e-10	5.375902e+00	1.301229e+01
2.020000e-06	8.189370e-07	2.539165e-10	5.697799e+00	1.454631e+01
2.030000e-06	8.652192e-07	2.790791e-10	6.019810e+00	1.607605e+01
2.040000e-06	9.113912e-07	3.041537e-10	6.341054e+00	1.760016e+01
2.050000e-06	9.573815e-07	3.260240e-10	6.661034e+00	1.911731e+01
2.060000e-06	1.003314e-06	3.470051e-10	6.980615e+00	2.062623e+01
2.070000e-06	1.049198e-06	3.654410e-10	7.299853e+00	2.212565e+01
2.080000e-06	1.095018e-06	3.826867e-10	7.618644e+00	2.361436e+01
2.090000e-06	1.140757e-06	4.015241e-10	7.936878e+00	2.509120e+01
2.100000e-06	1.186516e-06	4.230834e-10	8.255249e+00	2.655505e+01
2.110000e-06	1.232178e-06	4.445681e-10	8.572947e+00	2.800486e+01
2.120000e-06	1.277649e-06	4.655854e-10	8.889312e+00	2.943963e+01
2.130000e-06	1.322992e-06	4.851537e-10	9.204792e+00	3.085842e+01
2.140000e-06	1.368211e-06	5.034061e-10	9.519402e+00	3.226036e+01
2.150000e-06	1.413475e-06	5.195599e-10	9.834326e+00	3.364464e+01
2.160000e-06	1.458684e-06	5.341841e-10	1.014888e+01	3.501054e+01
2.170000e-06	1.503705e-06	5.522683e-10	1.046211e+01	3.635738e+01
2.180000e-06	1.548652e-06	5.723893e-10	1.077483e+01	3.768457e+01
2.190000e-06	1.593488e-06	5.923310e-10	1.108678e+01	3.899160e+01
2.200000e-06	1.638151e-06	6.135100e-10	1.139753e+01	4.027802e+01
2.210000e-06	1.682697e-06	6.309672e-10	1.170746e+01	4.154345e+01
2.220000e-06	1.727164e-06	6.430018e-10	1.201684e+01	4.278759e+01
2.230000e-06	1.771527e-06	6.530988e-10	1.232550e+01	4.401020e+01
2.240000e-06	1.815750e-06	6.654266e-10	1.263318e+01	4.521112e+01
2.250000e-06	1.859875e-06	6.831749e-10	1.294018e+01	4.639024e+01
2.260000e-06	1.903875e-06	7.042378e-10	1.324631e+01	4.754754e+01
2.270000e-06	1.947731e-06	7.248741e-10	1.355145e+01	4.868304e+01
2.280000e-06	1.991512e-06	7.426587e-10	1.385605e+01	4.979681e+01
2.290000e-06	2.035270e-06	7.575687e-10	1.416050e+01	5.088899e+01
2.300000e-06	2.078960e-06	7.701741e-10	1.446448e+01	5.195978e+01
2.310000e-06	2.122510e-06	7.805681e-10	1.476748e+01	5.300939e+01
2.320000e-06	2.166020e-06	7.919223e-10	1.507020e+01	5.403812e+01
2.330000e-06	2.209494e-06	8.061939e-10	1.537268e+01	5.504628e+01
2.340000e-06	2.252825e-06	8.215596e-10	1.567415e+01	5.603420e+01
2.350000e-06	2.295994e-06	8.368264e-10	1.597450e+01	5.700228e+01
2.360000e-06	2.338971e-06	8.503957e-10	1.627352e+01	5.795091e+01
2.370000e-06	2.381648e-06	8.621897e-10	1.657044e+01	5.888052e+01
2.380000e-06	2.423980e-06	8.738480e-10	1.686497e+01	5.979156e+01
2.390000e-06	2.466007e-06	8.859996e-10	1.715737e+01	6.068447e+01
2.400000e-06	2.507853e-06	8.964829e-10	1.744852e+01	6.155972e+01
2.410000e-06	2.549392e-06	9.074717e-10	1.773753e+01	6.241778e+01
2.420000e-06	2.590473e-06	9.190047e-10	1.802336e+01	6.325911e+01
2.430000e-06	2.631198e-06	9.297253e-10	1.830670e+01	6.408418e+01
2.440000e-06	2.671630e-06	9.401876e-10	1.858801e+01	6.489346e+01
2.450000e-06	2.711900e-06	9.507934e-10	1.886819e+01	6.568738e+01
2.460000e-06	2.752062e-06	9.622889e-10	1.914762e+01	6.646640e+01
2.470000e-06	2.792097e-06	9.756596e-10	1.942617e+01	6.723092e+01
2.480000e-06	2.831975e-06	9.878669e-10	1.970362e+01	6.798137e+01
2.490000e-06	2.871700e-06	9.965439e-10	1.998001e+01	6.871813e+01
2.500000e-06	2.911306e-06	1.003711e-09	2.025557e+01	6.944157e+01
2.510000e-06	2.950778e-06	1.012074e-09	2.053020e+01	7.015204e+01
2.520000e-06	2.990117e-06	1.021315e-09	2.080390e+01	7.084986e+01
2.530000e-06	3.029267e-06	1.030580e-09	2.107629e+01	7.153534e+01
2.540000e-06	3.068097e-06	1.040572e-09	2.134645e+01	7.220877e+01
2.550000e-06	3.106685e-06	1.049938e-09	2.161493e+01	7.287039e+01
2.560000e-06	3.145193e-06	1.056662e-09	2.188285e+01	7.352044e+01
2.570000e-06	3.183487e-06	1.062581e-09	2.214928e+01	7.415914e+01
2.580000e-06	3.221479e-06	1.071368e-09	2.241362e+01	7.478669e+01
2.590000e-06	3.259248e-06	1.083049e-09	2.267639e+01	7.540325e+01
2.600000e-06	3.296814e-06	1.095447e-09	2.293776e+01	7.600899e+01
2.610000e-06	3.334170e-06	1.105380e-09	2.319767e+01	7.660404e+01
2.620000e-06	3.371297e-06	1.111775e-09	2.345598e+01	7.718852e+01
2.630000e-06	3.408169e-06	1.117103e-09	2.371252e+01	7.776254e+01
2.640000e-06	3.444816e-06	1.121964e-09	2.396749e+01	7.832621e+01
2.650000e-06	3.481215e-06	1.128550e-09	2.422074e+01	7.887961e+01
2.660000e-06	3.517299e-06	1.139911e-09	2.447180e+01	7.942282e+01
2.670000e-06	3.553178e-06	1.151549e-09	2.472143e+01	7.995592e+01
2.680000e-06	3.588945e-06	1.161137e-09	2.497028e+01	8.047899e+01
2.690000e-06	3.624558e-06	1.167745e-09	2.521806e+01	8.099209e+01
2.700000e-06	3.660056e-06	1.169978e-09	2.546504e+01	8.149530e+01
2.710000e-06	3.695442e-06	1.172787e-09	2.571124e+01	8.198869e+01
2.720000e-06	3.730549e-06	1.179842e-09	2.595550e+01	8.247234e+01
2.730000e-06	3.765268e-06	1.187450e-09	2.619706e+01	8.294633e+01
2.740000e-06	3.799634e-06	1.195117e-09	2.643616e+01	8.341077e+01
2.750000e-06	3.833732e-06	1.203528e-09	2.667340e+01	8.386574e+01
2.760000e-06	3.867358e-06	1.210876e-09	2.690735e+01	8.431137e+01
2.770000e-06	3.900317e-06	1.216644e-09	2.713667e+01	8.474777e+01
2.780000e-06	3.932839e-06	1.222892e-09	2.736294e+01	8.517507e+01
2.790000e-06	3.965137e-06	1.230047e-09	2.758765e+01	8.559342e+01
2.800000e-06	3.997203e-06	1.235494e-09	2.781076e+01	8.600298e+01
2.810000e-06	4.029023e-06	1.240595e-09	2.803215e+01	8.640391e+01
2.820000e-06	4.060705e-06	1.245857e-09	2.825257e+01	8.679640e+01
2.830000e-06	4.092246e-06	1.250840e-09	2.847203e+01	8.718063e+01
2.840000e-06	4.123533e-06	1.256253e-09	2.868971e+01	8.755682e+01
2.850000e-06	4.154573e-06	1.261476e-09	2.890566e+01	8.792516e+01
2.860000e-06	4.185230e-06	1.266121e-09	2.911897e+01	8.828589e+01
2.870000e-06	4.215495e-06	1.271766e-09	2.932954e+01	8.863924e+01
2.880000e-06	4.245565e-06	1.276336e-09	2.953875e+01	8.898544e+01
2.890000e-06	4.275353e-06	1.280059e-09	2.974600e+01	8.932473e+01
2.900000e-06	4.304850e-06	1.283016e-09	2.995123e+01	8.965735e+01
2.910000e-06	4.334169e-06	1.286611e-09	3.015522e+01	8.998356e+01
