# Temperatura_=_-20.84
# Concentracion g/m^3_=_1620.0
# C_Vs_to_Am_M_A/Vsm_=_65563218390.804596
# pendiente_HvsI_1/m_=_3716.3
# ordenada_HvsI_A/m_=_1297.0
# frecuencia_Hz_=_135101.8513330969

Tiempo_(s)	Campo_(V.s)	Magnetizacion_(V.s)	Campo_(kA/m)	Magnetizacion_(A/m)
0.000000e+00	-5.515242e-06	-7.309783e-10	-3.837774e+01	-4.734507e+01
1.000000e-08	-5.515604e-06	-7.285690e-10	-3.838026e+01	-4.734498e+01
2.000000e-08	-5.515717e-06	-7.249592e-10	-3.838105e+01	-4.734299e+01
3.000000e-08	-5.515499e-06	-7.240286e-10	-3.837954e+01	-4.733910e+01
4.000000e-08	-5.514754e-06	-7.257397e-10	-3.837435e+01	-4.733331e+01
5.000000e-08	-5.513396e-06	-7.287893e-10	-3.836490e+01	-4.732564e+01
6.000000e-08	-5.511511e-06	-7.397734e-10	-3.835178e+01	-4.731613e+01
7.000000e-08	-5.509115e-06	-7.410545e-10	-3.833511e+01	-4.730479e+01
8.000000e-08	-5.506217e-06	-7.408037e-10	-3.831495e+01	-4.729168e+01
9.000000e-08	-5.502857e-06	-7.314861e-10	-3.829156e+01	-4.727686e+01
1.000000e-07	-5.498959e-06	-6.834776e-10	-3.826444e+01	-4.726037e+01
1.100000e-07	-5.494604e-06	-6.425240e-10	-3.823413e+01	-4.724229e+01
1.200000e-07	-5.490122e-06	-7.176629e-10	-3.820295e+01	-4.722268e+01
1.300000e-07	-5.485464e-06	-7.906692e-10	-3.817053e+01	-4.720164e+01
1.400000e-07	-5.480438e-06	-7.855805e-10	-3.813556e+01	-4.717923e+01
1.500000e-07	-5.474979e-06	-6.666647e-10	-3.809757e+01	-4.715556e+01
1.600000e-07	-5.469177e-06	-7.104009e-10	-3.805720e+01	-4.713070e+01
1.700000e-07	-5.463091e-06	-7.744176e-10	-3.801485e+01	-4.710477e+01
1.800000e-07	-5.456556e-06	-7.729839e-10	-3.796937e+01	-4.707785e+01
1.900000e-07	-5.449567e-06	-6.601348e-10	-3.792075e+01	-4.705006e+01
2.000000e-07	-5.442274e-06	-6.761632e-10	-3.787000e+01	-4.702148e+01
2.100000e-07	-5.434655e-06	-7.453937e-10	-3.781698e+01	-4.699222e+01
2.200000e-07	-5.426725e-06	-7.491441e-10	-3.776180e+01	-4.696239e+01
2.300000e-07	-5.418547e-06	-6.737656e-10	-3.770490e+01	-4.693208e+01
2.400000e-07	-5.410014e-06	-6.520215e-10	-3.764552e+01	-4.690139e+01
2.500000e-07	-5.400795e-06	-6.993928e-10	-3.758137e+01	-4.687042e+01
2.600000e-07	-5.390866e-06	-6.979414e-10	-3.751228e+01	-4.683927e+01
2.700000e-07	-5.380427e-06	-6.842498e-10	-3.743963e+01	-4.680802e+01
2.800000e-07	-5.369484e-06	-6.665813e-10	-3.736349e+01	-4.677677e+01
2.900000e-07	-5.358145e-06	-6.962209e-10	-3.728459e+01	-4.674559e+01
3.000000e-07	-5.346429e-06	-6.668577e-10	-3.720306e+01	-4.671457e+01
3.100000e-07	-5.334284e-06	-6.777579e-10	-3.711855e+01	-4.668377e+01
3.200000e-07	-5.321719e-06	-6.609681e-10	-3.703112e+01	-4.665326e+01
3.300000e-07	-5.308802e-06	-7.011550e-10	-3.694123e+01	-4.662311e+01
3.400000e-07	-5.295487e-06	-6.867025e-10	-3.684858e+01	-4.659337e+01
3.500000e-07	-5.281798e-06	-6.872519e-10	-3.675332e+01	-4.656409e+01
3.600000e-07	-5.267661e-06	-6.621375e-10	-3.665496e+01	-4.653530e+01
3.700000e-07	-5.253031e-06	-6.978070e-10	-3.655315e+01	-4.650704e+01
3.800000e-07	-5.237916e-06	-6.770648e-10	-3.644798e+01	-4.647935e+01
3.900000e-07	-5.222286e-06	-6.714960e-10	-3.633921e+01	-4.645223e+01
4.000000e-07	-5.206165e-06	-6.905521e-10	-3.622704e+01	-4.642570e+01
4.100000e-07	-5.189675e-06	-7.125015e-10	-3.611229e+01	-4.639976e+01
4.200000e-07	-5.172847e-06	-6.681911e-10	-3.599520e+01	-4.637441e+01
4.300000e-07	-5.155657e-06	-6.803811e-10	-3.587557e+01	-4.634963e+01
4.400000e-07	-5.138172e-06	-7.234675e-10	-3.575391e+01	-4.632542e+01
4.500000e-07	-5.120272e-06	-6.871840e-10	-3.562935e+01	-4.630173e+01
4.600000e-07	-5.101913e-06	-6.429715e-10	-3.550160e+01	-4.627854e+01
4.700000e-07	-5.083137e-06	-6.964847e-10	-3.537094e+01	-4.625580e+01
4.800000e-07	-5.064051e-06	-7.161290e-10	-3.523813e+01	-4.623346e+01
4.900000e-07	-5.044736e-06	-6.619009e-10	-3.510373e+01	-4.621147e+01
5.000000e-07	-5.025141e-06	-6.860598e-10	-3.496738e+01	-4.618975e+01
5.100000e-07	-5.005314e-06	-7.216109e-10	-3.482942e+01	-4.616824e+01
5.200000e-07	-4.985285e-06	-6.773395e-10	-3.469005e+01	-4.614686e+01
5.300000e-07	-4.964910e-06	-6.610470e-10	-3.454826e+01	-4.612553e+01
5.400000e-07	-4.944103e-06	-7.127430e-10	-3.440348e+01	-4.610414e+01
5.500000e-07	-4.922961e-06	-6.774118e-10	-3.425636e+01	-4.608261e+01
5.600000e-07	-4.901536e-06	-6.472037e-10	-3.410728e+01	-4.606083e+01
5.700000e-07	-4.879845e-06	-6.939772e-10	-3.395634e+01	-4.603869e+01
5.800000e-07	-4.857799e-06	-7.098739e-10	-3.380293e+01	-4.601608e+01
5.900000e-07	-4.835250e-06	-6.536405e-10	-3.364603e+01	-4.599288e+01
6.000000e-07	-4.812311e-06	-6.750711e-10	-3.348641e+01	-4.596896e+01
6.100000e-07	-4.789095e-06	-6.979654e-10	-3.332486e+01	-4.594421e+01
6.200000e-07	-4.765710e-06	-6.702358e-10	-3.316214e+01	-4.591849e+01
6.300000e-07	-4.742193e-06	-6.582357e-10	-3.299849e+01	-4.589167e+01
6.400000e-07	-4.718367e-06	-6.943986e-10	-3.283270e+01	-4.586362e+01
6.500000e-07	-4.694187e-06	-6.763189e-10	-3.266444e+01	-4.583421e+01
6.600000e-07	-4.669606e-06	-6.646436e-10	-3.249340e+01	-4.580328e+01
6.700000e-07	-4.644520e-06	-6.781661e-10	-3.231884e+01	-4.577072e+01
6.800000e-07	-4.618912e-06	-6.773356e-10	-3.214064e+01	-4.573638e+01
6.900000e-07	-4.592713e-06	-6.528545e-10	-3.195834e+01	-4.570013e+01
7.000000e-07	-4.565980e-06	-6.655674e-10	-3.177231e+01	-4.566183e+01
7.100000e-07	-4.538889e-06	-6.703682e-10	-3.158380e+01	-4.562136e+01
7.200000e-07	-4.511539e-06	-6.580085e-10	-3.139349e+01	-4.557858e+01
7.300000e-07	-4.484017e-06	-6.568743e-10	-3.120197e+01	-4.553338e+01
7.400000e-07	-4.456311e-06	-6.655956e-10	-3.100918e+01	-4.548563e+01
7.500000e-07	-4.428362e-06	-6.527050e-10	-3.081470e+01	-4.543521e+01
7.600000e-07	-4.400174e-06	-6.462082e-10	-3.061856e+01	-4.538203e+01
7.700000e-07	-4.371670e-06	-6.531707e-10	-3.042021e+01	-4.532597e+01
7.800000e-07	-4.342813e-06	-6.495285e-10	-3.021941e+01	-4.526694e+01
7.900000e-07	-4.313655e-06	-6.457132e-10	-3.001652e+01	-4.520487e+01
8.000000e-07	-4.284261e-06	-6.508304e-10	-2.981198e+01	-4.513965e+01
8.100000e-07	-4.254555e-06	-6.490825e-10	-2.960527e+01	-4.507124e+01
8.200000e-07	-4.224443e-06	-6.350113e-10	-2.939573e+01	-4.499956e+01
8.300000e-07	-4.194052e-06	-6.379639e-10	-2.918426e+01	-4.492457e+01
8.400000e-07	-4.163440e-06	-6.357987e-10	-2.897124e+01	-4.484622e+01
8.500000e-07	-4.132550e-06	-6.292956e-10	-2.875630e+01	-4.476449e+01
8.600000e-07	-4.101395e-06	-6.286687e-10	-2.853950e+01	-4.467936e+01
8.700000e-07	-4.070060e-06	-6.378459e-10	-2.832146e+01	-4.459082e+01
8.800000e-07	-4.038555e-06	-6.313687e-10	-2.810223e+01	-4.449887e+01
8.900000e-07	-4.006819e-06	-6.323222e-10	-2.788140e+01	-4.440353e+01
9.000000e-07	-3.974852e-06	-6.312360e-10	-2.765896e+01	-4.430483e+01
9.100000e-07	-3.942684e-06	-6.235889e-10	-2.743511e+01	-4.420280e+01
9.200000e-07	-3.910155e-06	-6.127700e-10	-2.720877e+01	-4.409749e+01
9.300000e-07	-3.877217e-06	-6.174524e-10	-2.697957e+01	-4.398895e+01
9.400000e-07	-3.843902e-06	-6.153217e-10	-2.674775e+01	-4.387726e+01
9.500000e-07	-3.810124e-06	-6.118370e-10	-2.651270e+01	-4.376249e+01
9.600000e-07	-3.775873e-06	-6.121091e-10	-2.627436e+01	-4.364474e+01
9.700000e-07	-3.741187e-06	-6.158606e-10	-2.603301e+01	-4.352408e+01
9.800000e-07	-3.706201e-06	-6.095532e-10	-2.578955e+01	-4.340063e+01
9.900000e-07	-3.670941e-06	-6.105036e-10	-2.554420e+01	-4.327449e+01
1.000000e-06	-3.635496e-06	-6.142073e-10	-2.529756e+01	-4.314578e+01
1.010000e-06	-3.599920e-06	-6.134769e-10	-2.505000e+01	-4.301461e+01
1.020000e-06	-3.564099e-06	-6.110704e-10	-2.480074e+01	-4.288111e+01
1.030000e-06	-3.528124e-06	-6.142414e-10	-2.455041e+01	-4.274539e+01
1.040000e-06	-3.492023e-06	-6.122849e-10	-2.429920e+01	-4.260759e+01
1.050000e-06	-3.455702e-06	-6.067044e-10	-2.404646e+01	-4.246781e+01
1.060000e-06	-3.419091e-06	-6.049539e-10	-2.379170e+01	-4.232619e+01
1.070000e-06	-3.382207e-06	-6.024180e-10	-2.353505e+01	-4.218284e+01
1.080000e-06	-3.345118e-06	-5.971959e-10	-2.327696e+01	-4.203787e+01
1.090000e-06	-3.307794e-06	-5.950925e-10	-2.301724e+01	-4.189139e+01
1.100000e-06	-3.270253e-06	-5.977352e-10	-2.275601e+01	-4.174350e+01
1.110000e-06	-3.232445e-06	-5.943381e-10	-2.249293e+01	-4.159429e+01
1.120000e-06	-3.194340e-06	-5.915060e-10	-2.222778e+01	-4.144383e+01
1.130000e-06	-3.156011e-06	-5.903953e-10	-2.196106e+01	-4.129219e+01
1.140000e-06	-3.117529e-06	-5.876888e-10	-2.169329e+01	-4.113944e+01
1.150000e-06	-3.078860e-06	-5.802415e-10	-2.142421e+01	-4.098559e+01
1.160000e-06	-3.039900e-06	-5.802918e-10	-2.115310e+01	-4.083069e+01
1.170000e-06	-3.000715e-06	-5.813585e-10	-2.088044e+01	-4.067474e+01
1.180000e-06	-2.961352e-06	-5.816767e-10	-2.060653e+01	-4.051772e+01
1.190000e-06	-2.921862e-06	-5.798915e-10	-2.033174e+01	-4.035961e+01
1.200000e-06	-2.882274e-06	-5.806064e-10	-2.005627e+01	-4.020036e+01
1.210000e-06	-2.842604e-06	-5.782002e-10	-1.978023e+01	-4.003990e+01
1.220000e-06	-2.802881e-06	-5.761485e-10	-1.950381e+01	-3.987814e+01
1.230000e-06	-2.762958e-06	-5.726370e-10	-1.922601e+01	-3.971498e+01
1.240000e-06	-2.722826e-06	-5.698806e-10	-1.894675e+01	-3.955027e+01
1.250000e-06	-2.682542e-06	-5.658021e-10	-1.866644e+01	-3.938388e+01
1.260000e-06	-2.641920e-06	-5.646335e-10	-1.838377e+01	-3.921562e+01
1.270000e-06	-2.600938e-06	-5.615695e-10	-1.809860e+01	-3.904529e+01
1.280000e-06	-2.559724e-06	-5.583401e-10	-1.781181e+01	-3.887269e+01
1.290000e-06	-2.518284e-06	-5.560083e-10	-1.752345e+01	-3.869758e+01
1.300000e-06	-2.476624e-06	-5.544013e-10	-1.723356e+01	-3.851969e+01
1.310000e-06	-2.434648e-06	-5.497012e-10	-1.694147e+01	-3.833876e+01
1.320000e-06	-2.392305e-06	-5.436848e-10	-1.664683e+01	-3.815448e+01
1.330000e-06	-2.349700e-06	-5.401693e-10	-1.635036e+01	-3.796655e+01
1.340000e-06	-2.306845e-06	-5.365256e-10	-1.605215e+01	-3.777464e+01
1.350000e-06	-2.263717e-06	-5.330198e-10	-1.575204e+01	-3.757841e+01
1.360000e-06	-2.220424e-06	-5.308626e-10	-1.545080e+01	-3.737751e+01
1.370000e-06	-2.177017e-06	-5.291636e-10	-1.514874e+01	-3.717155e+01
1.380000e-06	-2.133502e-06	-5.268048e-10	-1.484595e+01	-3.696018e+01
1.390000e-06	-2.089934e-06	-5.226228e-10	-1.454278e+01	-3.674300e+01
1.400000e-06	-2.046254e-06	-5.165034e-10	-1.423883e+01	-3.651961e+01
1.410000e-06	-2.002459e-06	-5.114277e-10	-1.393409e+01	-3.628963e+01
1.420000e-06	-1.958619e-06	-5.071928e-10	-1.362903e+01	-3.605265e+01
1.430000e-06	-1.914729e-06	-5.066839e-10	-1.332362e+01	-3.580826e+01
1.440000e-06	-1.870737e-06	-5.041418e-10	-1.301750e+01	-3.555607e+01
1.450000e-06	-1.826669e-06	-4.992101e-10	-1.271086e+01	-3.529567e+01
1.460000e-06	-1.782523e-06	-4.940175e-10	-1.240366e+01	-3.502667e+01
1.470000e-06	-1.738196e-06	-4.888569e-10	-1.209522e+01	-3.474868e+01
1.480000e-06	-1.693732e-06	-4.816767e-10	-1.178581e+01	-3.446131e+01
1.490000e-06	-1.649201e-06	-4.764046e-10	-1.147595e+01	-3.416421e+01
1.500000e-06	-1.604479e-06	-4.738541e-10	-1.116475e+01	-3.385699e+01
1.510000e-06	-1.559542e-06	-4.721145e-10	-1.085206e+01	-3.353932e+01
1.520000e-06	-1.514520e-06	-4.664548e-10	-1.053877e+01	-3.321087e+01
1.530000e-06	-1.469355e-06	-4.600089e-10	-1.022449e+01	-3.287131e+01
1.540000e-06	-1.424048e-06	-4.547751e-10	-9.909219e+00	-3.252035e+01
1.550000e-06	-1.378757e-06	-4.513344e-10	-9.594064e+00	-3.215769e+01
1.560000e-06	-1.333456e-06	-4.470996e-10	-9.278836e+00	-3.178309e+01
1.570000e-06	-1.287998e-06	-4.431530e-10	-8.962520e+00	-3.139630e+01
1.580000e-06	-1.242313e-06	-4.379958e-10	-8.644619e+00	-3.099710e+01
1.590000e-06	-1.196502e-06	-4.300437e-10	-8.325846e+00	-3.058529e+01
1.600000e-06	-1.150654e-06	-4.224420e-10	-8.006811e+00	-3.016069e+01
1.610000e-06	-1.104777e-06	-4.154530e-10	-7.687576e+00	-2.972315e+01
1.620000e-06	-1.058841e-06	-4.080280e-10	-7.367935e+00	-2.927255e+01
1.630000e-06	-1.012840e-06	-4.010144e-10	-7.047834e+00	-2.880878e+01
1.640000e-06	-9.667803e-07	-3.942836e-10	-6.727329e+00	-2.833175e+01
1.650000e-06	-9.205779e-07	-3.874717e-10	-6.405830e+00	-2.784142e+01
1.660000e-06	-8.742378e-07	-3.798668e-10	-6.083373e+00	-2.733774e+01
1.670000e-06	-8.279214e-07	-3.717134e-10	-5.761081e+00	-2.682072e+01
1.680000e-06	-7.816583e-07	-3.628044e-10	-5.439159e+00	-2.629035e+01
1.690000e-06	-7.353477e-07	-3.535218e-10	-5.116908e+00	-2.574668e+01
1.700000e-06	-6.890080e-07	-3.455901e-10	-4.794454e+00	-2.518976e+01
1.710000e-06	-6.426562e-07	-3.371892e-10	-4.471915e+00	-2.461967e+01
1.720000e-06	-5.962196e-07	-3.297772e-10	-4.148787e+00	-2.403653e+01
1.730000e-06	-5.497275e-07	-3.231871e-10	-3.825272e+00	-2.344043e+01
1.740000e-06	-5.031735e-07	-3.152375e-10	-3.501327e+00	-2.283154e+01
1.750000e-06	-4.564705e-07	-3.054321e-10	-3.176344e+00	-2.220999e+01
1.760000e-06	-4.097397e-07	-2.950240e-10	-2.851169e+00	-2.157598e+01
1.770000e-06	-3.630643e-07	-2.840229e-10	-2.526378e+00	-2.092970e+01
1.780000e-06	-3.163873e-07	-2.734237e-10	-2.201577e+00	-2.027136e+01
1.790000e-06	-2.696882e-07	-2.640842e-10	-1.876622e+00	-1.960118e+01
1.800000e-06	-2.229459e-07	-2.579892e-10	-1.551366e+00	-1.891940e+01
1.810000e-06	-1.761870e-07	-2.516533e-10	-1.225995e+00	-1.822629e+01
1.820000e-06	-1.294277e-07	-2.443896e-10	-9.006212e-01	-1.752211e+01
1.830000e-06	-8.260512e-08	-2.341962e-10	-5.748067e-01	-1.680714e+01
1.840000e-06	-3.576743e-08	-2.201941e-10	-2.488873e-01	-1.608167e+01
1.850000e-06	1.105426e-08	-2.043635e-10	7.692090e-02	-1.534602e+01
1.860000e-06	5.787623e-08	-1.897451e-10	4.027310e-01	-1.460049e+01
1.870000e-06	1.046901e-07	-1.773052e-10	7.284847e-01	-1.384543e+01
1.880000e-06	1.514702e-07	-1.692851e-10	1.054004e+00	-1.308115e+01
1.890000e-06	1.982717e-07	-1.645084e-10	1.379671e+00	-1.230802e+01
1.900000e-06	2.450860e-07	-1.578441e-10	1.705428e+00	-1.152638e+01
1.910000e-06	2.918827e-07	-1.472562e-10	2.031062e+00	-1.073661e+01
1.920000e-06	3.385946e-07	-1.341692e-10	2.356107e+00	-9.939086e+00
1.930000e-06	3.851285e-07	-1.192316e-10	2.679912e+00	-9.134185e+00
1.940000e-06	4.316840e-07	-1.045217e-10	3.003868e+00	-8.322307e+00
1.950000e-06	4.783013e-07	-8.996758e-11	3.328254e+00	-7.503854e+00
1.960000e-06	5.248899e-07	-7.511468e-11	3.652440e+00	-6.679240e+00
1.970000e-06	5.714369e-07	-6.400834e-11	3.976336e+00	-5.848886e+00
1.980000e-06	6.178980e-07	-5.406461e-11	4.299636e+00	-5.013225e+00
1.990000e-06	6.642571e-07	-4.614110e-11	4.622225e+00	-4.172696e+00
2.000000e-06	7.105080e-07	-3.996690e-11	4.944061e+00	-3.327749e+00
2.010000e-06	7.567598e-07	-2.828958e-11	5.265904e+00	-2.478844e+00
2.020000e-06	8.031048e-07	-1.361799e-11	5.588395e+00	-1.626448e+00
2.030000e-06	8.493879e-07	3.293880e-12	5.910455e+00	-7.710402e-01
2.040000e-06	8.955393e-07	2.251314e-11	6.231599e+00	8.689319e-02
2.050000e-06	9.415927e-07	3.632364e-11	6.552061e+00	9.468559e-01
2.060000e-06	9.875878e-07	4.648936e-11	6.872118e+00	1.808343e+00
2.070000e-06	1.033585e-06	5.491222e-11	7.192192e+00	2.670841e+00
2.080000e-06	1.079536e-06	6.271326e-11	7.511936e+00	3.533828e+00
2.090000e-06	1.125367e-06	7.106492e-11	7.830853e+00	4.396774e+00
2.100000e-06	1.171083e-06	8.317153e-11	8.148967e+00	5.259141e+00
2.110000e-06	1.216715e-06	9.792808e-11	8.466496e+00	6.120387e+00
2.120000e-06	1.262213e-06	1.140471e-10	8.783095e+00	6.979960e+00
2.130000e-06	1.307670e-06	1.287464e-10	9.099403e+00	7.837304e+00
2.140000e-06	1.353047e-06	1.421813e-10	9.415158e+00	8.691861e+00
2.150000e-06	1.398270e-06	1.533292e-10	9.729845e+00	9.543066e+00
2.160000e-06	1.443460e-06	1.610768e-10	1.004430e+01	1.039035e+01
2.170000e-06	1.488573e-06	1.700561e-10	1.035822e+01	1.123316e+01
2.180000e-06	1.533549e-06	1.807853e-10	1.067118e+01	1.207091e+01
2.190000e-06	1.578409e-06	1.932710e-10	1.098334e+01	1.290305e+01
2.200000e-06	1.623158e-06	2.076530e-10	1.129472e+01	1.372901e+01
2.210000e-06	1.667801e-06	2.209126e-10	1.160537e+01	1.454824e+01
2.220000e-06	1.712317e-06	2.312341e-10	1.191513e+01	1.536018e+01
2.230000e-06	1.756673e-06	2.382432e-10	1.222379e+01	1.616430e+01
2.240000e-06	1.800892e-06	2.459744e-10	1.253149e+01	1.696005e+01
2.250000e-06	1.844998e-06	2.556106e-10	1.283839e+01	1.774691e+01
2.260000e-06	1.888961e-06	2.665811e-10	1.314431e+01	1.852438e+01
2.270000e-06	1.932805e-06	2.798272e-10	1.344940e+01	1.929197e+01
2.280000e-06	1.976588e-06	2.923982e-10	1.375407e+01	2.004919e+01
2.290000e-06	2.020305e-06	3.029808e-10	1.405827e+01	2.079558e+01
2.300000e-06	2.063953e-06	3.116131e-10	1.436199e+01	2.153071e+01
2.310000e-06	2.107572e-06	3.182516e-10	1.466552e+01	2.225417e+01
2.320000e-06	2.151104e-06	3.245412e-10	1.496843e+01	2.296555e+01
2.330000e-06	2.194492e-06	3.348211e-10	1.527035e+01	2.366450e+01
2.340000e-06	2.237779e-06	3.477274e-10	1.557156e+01	2.435066e+01
2.350000e-06	2.280951e-06	3.594907e-10	1.587197e+01	2.502373e+01
2.360000e-06	2.324031e-06	3.693058e-10	1.617174e+01	2.568342e+01
2.370000e-06	2.366888e-06	3.795153e-10	1.646996e+01	2.632948e+01
2.380000e-06	2.409335e-06	3.883219e-10	1.676533e+01	2.696168e+01
2.390000e-06	2.451390e-06	3.973309e-10	1.705797e+01	2.757984e+01
2.400000e-06	2.493176e-06	4.063323e-10	1.734874e+01	2.818380e+01
2.410000e-06	2.534656e-06	4.138132e-10	1.763737e+01	2.877342e+01
2.420000e-06	2.575830e-06	4.211285e-10	1.792388e+01	2.934863e+01
2.430000e-06	2.616781e-06	4.295726e-10	1.820884e+01	2.990935e+01
2.440000e-06	2.657457e-06	4.370005e-10	1.849189e+01	3.045558e+01
2.450000e-06	2.697922e-06	4.430433e-10	1.877346e+01	3.098730e+01
2.460000e-06	2.738136e-06	4.510722e-10	1.905329e+01	3.150457e+01
2.470000e-06	2.778107e-06	4.595340e-10	1.933143e+01	3.200746e+01
2.480000e-06	2.817948e-06	4.659824e-10	1.960865e+01	3.249607e+01
2.490000e-06	2.857668e-06	4.711941e-10	1.988505e+01	3.297054e+01
2.500000e-06	2.897250e-06	4.760661e-10	2.016048e+01	3.343102e+01
2.510000e-06	2.936695e-06	4.814606e-10	2.043496e+01	3.387772e+01
2.520000e-06	2.976062e-06	4.867715e-10	2.070889e+01	3.431084e+01
2.530000e-06	3.015361e-06	4.920867e-10	2.098235e+01	3.473063e+01
2.540000e-06	3.054427e-06	4.994649e-10	2.125419e+01	3.513735e+01
2.550000e-06	3.093254e-06	5.092729e-10	2.152437e+01	3.553129e+01
2.560000e-06	3.131868e-06	5.172740e-10	2.179306e+01	3.591275e+01
2.570000e-06	3.170231e-06	5.219239e-10	2.206001e+01	3.628205e+01
2.580000e-06	3.208347e-06	5.274109e-10	2.232524e+01	3.663952e+01
2.590000e-06	3.246240e-06	5.332083e-10	2.258892e+01	3.698552e+01
2.600000e-06	3.283931e-06	5.373915e-10	2.285119e+01	3.732040e+01
2.610000e-06	3.321326e-06	5.405545e-10	2.311141e+01	3.764453e+01
2.620000e-06	3.358476e-06	5.444477e-10	2.336991e+01	3.795828e+01
2.630000e-06	3.395415e-06	5.498108e-10	2.362696e+01	3.826201e+01
2.640000e-06	3.432124e-06	5.553522e-10	2.388239e+01	3.855612e+01
2.650000e-06	3.468594e-06	5.615302e-10	2.413617e+01	3.884097e+01
2.660000e-06	3.504793e-06	5.701458e-10	2.438806e+01	3.911693e+01
2.670000e-06	3.540754e-06	5.774233e-10	2.463829e+01	3.938438e+01
2.680000e-06	3.576557e-06	5.820046e-10	2.488743e+01	3.964366e+01
2.690000e-06	3.612262e-06	5.851009e-10	2.513588e+01	3.989513e+01
2.700000e-06	3.647857e-06	5.862088e-10	2.538357e+01	4.013914e+01
2.710000e-06	3.683275e-06	5.880412e-10	2.563002e+01	4.037600e+01
2.720000e-06	3.718447e-06	5.939954e-10	2.587476e+01	4.060604e+01
2.730000e-06	3.753329e-06	6.008580e-10	2.611750e+01	4.082955e+01
2.740000e-06	3.787853e-06	6.057768e-10	2.635773e+01	4.104681e+01
2.750000e-06	3.821981e-06	6.095592e-10	2.659521e+01	4.125810e+01
2.760000e-06	3.855646e-06	6.122580e-10	2.682947e+01	4.146367e+01
2.770000e-06	3.888778e-06	6.130879e-10	2.706001e+01	4.166374e+01
2.780000e-06	3.921427e-06	6.128379e-10	2.728720e+01	4.185854e+01
2.790000e-06	3.953746e-06	6.148611e-10	2.751209e+01	4.204825e+01
2.800000e-06	3.985884e-06	6.177581e-10	2.773573e+01	4.223306e+01
2.810000e-06	4.017852e-06	6.196269e-10	2.795818e+01	4.241313e+01
2.820000e-06	4.049580e-06	6.214300e-10	2.817895e+01	4.258860e+01
2.830000e-06	4.081054e-06	6.235948e-10	2.839796e+01	4.275959e+01
2.840000e-06	4.112374e-06	6.261873e-10	2.861590e+01	4.292621e+01
2.850000e-06	4.143405e-06	6.274957e-10	2.883183e+01	4.308856e+01
2.860000e-06	4.174133e-06	6.282989e-10	2.904566e+01	4.324671e+01
2.870000e-06	4.204651e-06	6.295621e-10	2.925801e+01	4.340073e+01
2.880000e-06	4.234838e-06	6.307597e-10	2.946807e+01	4.355067e+01
2.890000e-06	4.264695e-06	6.316348e-10	2.967583e+01	4.369656e+01
2.900000e-06	4.294231e-06	6.319069e-10	2.988135e+01	4.383845e+01
