# Temperatura_=_-0.4
# Concentracion g/m^3_=_1620.0
# C_Vs_to_Am_M_A/Vsm_=_65563218390.804596
# pendiente_HvsI_1/m_=_3716.3
# ordenada_HvsI_A/m_=_1297.0
# frecuencia_Hz_=_135092.10446171585

Tiempo_(s)	Campo_(V.s)	Magnetizacion_(V.s)	Campo_(kA/m)	Magnetizacion_(A/m)
0.000000e+00	-5.524278e-06	-1.459039e-09	-3.837391e+01	-9.451741e+01
1.000000e-08	-5.524525e-06	-1.452191e-09	-3.837563e+01	-9.447039e+01
2.000000e-08	-5.524494e-06	-1.446803e-09	-3.837541e+01	-9.441942e+01
3.000000e-08	-5.524056e-06	-1.446018e-09	-3.837237e+01	-9.436461e+01
4.000000e-08	-5.523031e-06	-1.446750e-09	-3.836524e+01	-9.430606e+01
5.000000e-08	-5.521459e-06	-1.448119e-09	-3.835433e+01	-9.424389e+01
6.000000e-08	-5.519299e-06	-1.457897e-09	-3.833932e+01	-9.417822e+01
7.000000e-08	-5.516626e-06	-1.474539e-09	-3.832075e+01	-9.410918e+01
8.000000e-08	-5.513548e-06	-1.509049e-09	-3.829937e+01	-9.403693e+01
9.000000e-08	-5.510045e-06	-1.470338e-09	-3.827504e+01	-9.396161e+01
1.000000e-07	-5.506115e-06	-1.373044e-09	-3.824774e+01	-9.388336e+01
1.100000e-07	-5.501872e-06	-1.361184e-09	-3.821827e+01	-9.380234e+01
1.200000e-07	-5.497428e-06	-1.451238e-09	-3.818740e+01	-9.371870e+01
1.300000e-07	-5.492719e-06	-1.539576e-09	-3.815469e+01	-9.363259e+01
1.400000e-07	-5.487590e-06	-1.479904e-09	-3.811906e+01	-9.354416e+01
1.500000e-07	-5.481991e-06	-1.380369e-09	-3.808017e+01	-9.345356e+01
1.600000e-07	-5.476066e-06	-1.480276e-09	-3.803901e+01	-9.336092e+01
1.700000e-07	-5.469795e-06	-1.483196e-09	-3.799545e+01	-9.326636e+01
1.800000e-07	-5.463085e-06	-1.451661e-09	-3.794884e+01	-9.317002e+01
1.900000e-07	-5.455909e-06	-1.324113e-09	-3.789899e+01	-9.307200e+01
2.000000e-07	-5.448458e-06	-1.412699e-09	-3.784723e+01	-9.297240e+01
2.100000e-07	-5.440782e-06	-1.462907e-09	-3.779391e+01	-9.287131e+01
2.200000e-07	-5.432829e-06	-1.466791e-09	-3.773867e+01	-9.276880e+01
2.300000e-07	-5.424577e-06	-1.381492e-09	-3.768135e+01	-9.266492e+01
2.400000e-07	-5.415835e-06	-1.369320e-09	-3.762062e+01	-9.255972e+01
2.500000e-07	-5.406392e-06	-1.381677e-09	-3.755502e+01	-9.245322e+01
2.600000e-07	-5.396192e-06	-1.391338e-09	-3.748417e+01	-9.234544e+01
2.700000e-07	-5.385449e-06	-1.391383e-09	-3.740954e+01	-9.223637e+01
2.800000e-07	-5.374349e-06	-1.383821e-09	-3.733244e+01	-9.212599e+01
2.900000e-07	-5.362870e-06	-1.408674e-09	-3.725270e+01	-9.201426e+01
3.000000e-07	-5.351015e-06	-1.372205e-09	-3.717035e+01	-9.190112e+01
3.100000e-07	-5.338780e-06	-1.387475e-09	-3.708536e+01	-9.178651e+01
3.200000e-07	-5.326035e-06	-1.355185e-09	-3.699683e+01	-9.167034e+01
3.300000e-07	-5.312909e-06	-1.402527e-09	-3.690565e+01	-9.155252e+01
3.400000e-07	-5.299524e-06	-1.368546e-09	-3.681268e+01	-9.143293e+01
3.500000e-07	-5.285659e-06	-1.387158e-09	-3.671636e+01	-9.131145e+01
3.600000e-07	-5.271250e-06	-1.364636e-09	-3.661627e+01	-9.118796e+01
3.700000e-07	-5.256301e-06	-1.388233e-09	-3.651243e+01	-9.106230e+01
3.800000e-07	-5.240798e-06	-1.342808e-09	-3.640474e+01	-9.093433e+01
3.900000e-07	-5.224884e-06	-1.366522e-09	-3.629419e+01	-9.080389e+01
4.000000e-07	-5.208604e-06	-1.368605e-09	-3.618110e+01	-9.067083e+01
4.100000e-07	-5.192026e-06	-1.362592e-09	-3.606595e+01	-9.053498e+01
4.200000e-07	-5.175119e-06	-1.327127e-09	-3.594850e+01	-9.039618e+01
4.300000e-07	-5.157869e-06	-1.376223e-09	-3.582868e+01	-9.025426e+01
4.400000e-07	-5.140299e-06	-1.366403e-09	-3.570664e+01	-9.010906e+01
4.500000e-07	-5.122304e-06	-1.326068e-09	-3.558163e+01	-8.996042e+01
4.600000e-07	-5.103764e-06	-1.317889e-09	-3.545285e+01	-8.980819e+01
4.700000e-07	-5.084805e-06	-1.363650e-09	-3.532115e+01	-8.965222e+01
4.800000e-07	-5.065611e-06	-1.341070e-09	-3.518782e+01	-8.949237e+01
4.900000e-07	-5.046214e-06	-1.325492e-09	-3.505308e+01	-8.932850e+01
5.000000e-07	-5.026599e-06	-1.343606e-09	-3.491683e+01	-8.916051e+01
5.100000e-07	-5.006798e-06	-1.339023e-09	-3.477928e+01	-8.898827e+01
5.200000e-07	-4.986690e-06	-1.314327e-09	-3.463960e+01	-8.881169e+01
5.300000e-07	-4.966115e-06	-1.329341e-09	-3.449668e+01	-8.863069e+01
5.400000e-07	-4.945117e-06	-1.331992e-09	-3.435082e+01	-8.844519e+01
5.500000e-07	-4.923824e-06	-1.291143e-09	-3.420291e+01	-8.825514e+01
5.600000e-07	-4.902274e-06	-1.298935e-09	-3.405321e+01	-8.806048e+01
5.700000e-07	-4.880480e-06	-1.324595e-09	-3.390182e+01	-8.786119e+01
5.800000e-07	-4.858385e-06	-1.316638e-09	-3.374834e+01	-8.765725e+01
5.900000e-07	-4.835803e-06	-1.291739e-09	-3.359148e+01	-8.744865e+01
6.000000e-07	-4.812837e-06	-1.308802e-09	-3.343195e+01	-8.723541e+01
6.100000e-07	-4.789567e-06	-1.295923e-09	-3.327030e+01	-8.701755e+01
6.200000e-07	-4.766040e-06	-1.286697e-09	-3.310688e+01	-8.679509e+01
6.300000e-07	-4.742356e-06	-1.281313e-09	-3.294236e+01	-8.656809e+01
6.400000e-07	-4.718343e-06	-1.291427e-09	-3.277555e+01	-8.633658e+01
6.500000e-07	-4.693991e-06	-1.271242e-09	-3.260639e+01	-8.610064e+01
6.600000e-07	-4.669210e-06	-1.275782e-09	-3.243425e+01	-8.586033e+01
6.700000e-07	-4.643794e-06	-1.267146e-09	-3.225770e+01	-8.561573e+01
6.800000e-07	-4.617939e-06	-1.266442e-09	-3.207810e+01	-8.536690e+01
6.900000e-07	-4.591622e-06	-1.246816e-09	-3.189530e+01	-8.511394e+01
7.000000e-07	-4.564759e-06	-1.253551e-09	-3.170870e+01	-8.485692e+01
7.100000e-07	-4.537567e-06	-1.242427e-09	-3.151981e+01	-8.459592e+01
7.200000e-07	-4.510182e-06	-1.243819e-09	-3.132958e+01	-8.433103e+01
7.300000e-07	-4.482607e-06	-1.238538e-09	-3.113803e+01	-8.406232e+01
7.400000e-07	-4.454768e-06	-1.240105e-09	-3.094465e+01	-8.378987e+01
7.500000e-07	-4.426718e-06	-1.223469e-09	-3.074981e+01	-8.351373e+01
7.600000e-07	-4.398416e-06	-1.220170e-09	-3.055321e+01	-8.323397e+01
7.700000e-07	-4.369800e-06	-1.218177e-09	-3.035443e+01	-8.295063e+01
7.800000e-07	-4.340899e-06	-1.216937e-09	-3.015367e+01	-8.266377e+01
7.900000e-07	-4.311655e-06	-1.214246e-09	-2.995053e+01	-8.237340e+01
8.000000e-07	-4.282138e-06	-1.211294e-09	-2.974549e+01	-8.207956e+01
8.100000e-07	-4.252360e-06	-1.198260e-09	-2.953865e+01	-8.178223e+01
8.200000e-07	-4.222293e-06	-1.183661e-09	-2.932979e+01	-8.148144e+01
8.300000e-07	-4.191884e-06	-1.178349e-09	-2.911855e+01	-8.117714e+01
8.400000e-07	-4.161116e-06	-1.170004e-09	-2.890482e+01	-8.086932e+01
8.500000e-07	-4.130103e-06	-1.165247e-09	-2.868939e+01	-8.055793e+01
8.600000e-07	-4.098887e-06	-1.165863e-09	-2.847256e+01	-8.024292e+01
8.700000e-07	-4.067513e-06	-1.169142e-09	-2.825462e+01	-7.992422e+01
8.800000e-07	-4.035934e-06	-1.159035e-09	-2.803526e+01	-7.960175e+01
8.900000e-07	-4.004078e-06	-1.155147e-09	-2.781397e+01	-7.927542e+01
9.000000e-07	-3.971939e-06	-1.139555e-09	-2.759073e+01	-7.894513e+01
9.100000e-07	-3.939480e-06	-1.130339e-09	-2.736525e+01	-7.861078e+01
9.200000e-07	-3.906677e-06	-1.121294e-09	-2.713739e+01	-7.827225e+01
9.300000e-07	-3.873433e-06	-1.123622e-09	-2.690646e+01	-7.792942e+01
9.400000e-07	-3.839747e-06	-1.113501e-09	-2.667246e+01	-7.758216e+01
9.500000e-07	-3.805710e-06	-1.111093e-09	-2.643603e+01	-7.723033e+01
9.600000e-07	-3.771190e-06	-1.107968e-09	-2.619624e+01	-7.687382e+01
9.700000e-07	-3.736308e-06	-1.106141e-09	-2.595393e+01	-7.651248e+01
9.800000e-07	-3.701298e-06	-1.092805e-09	-2.571074e+01	-7.614619e+01
9.900000e-07	-3.666039e-06	-1.087959e-09	-2.546582e+01	-7.577481e+01
1.000000e-06	-3.630547e-06	-1.076912e-09	-2.521928e+01	-7.539822e+01
1.010000e-06	-3.594918e-06	-1.069756e-09	-2.497178e+01	-7.501631e+01
1.020000e-06	-3.559109e-06	-1.063820e-09	-2.472304e+01	-7.462896e+01
1.030000e-06	-3.523111e-06	-1.065256e-09	-2.447298e+01	-7.423607e+01
1.040000e-06	-3.486865e-06	-1.059646e-09	-2.422120e+01	-7.383755e+01
1.050000e-06	-3.450337e-06	-1.056082e-09	-2.396746e+01	-7.343332e+01
1.060000e-06	-3.413588e-06	-1.048825e-09	-2.371219e+01	-7.302331e+01
1.070000e-06	-3.376561e-06	-1.039687e-09	-2.345498e+01	-7.260747e+01
1.080000e-06	-3.339265e-06	-1.026784e-09	-2.319591e+01	-7.218576e+01
1.090000e-06	-3.301748e-06	-1.015638e-09	-2.293530e+01	-7.175814e+01
1.100000e-06	-3.264035e-06	-1.008221e-09	-2.267333e+01	-7.132461e+01
1.110000e-06	-3.226139e-06	-1.001539e-09	-2.241009e+01	-7.088517e+01
1.120000e-06	-3.187915e-06	-9.986251e-10	-2.214457e+01	-7.043984e+01
1.130000e-06	-3.149424e-06	-9.958323e-10	-2.187720e+01	-6.998864e+01
1.140000e-06	-3.110698e-06	-9.918254e-10	-2.160819e+01	-6.953163e+01
1.150000e-06	-3.071751e-06	-9.816835e-10	-2.133765e+01	-6.906886e+01
1.160000e-06	-3.032698e-06	-9.743550e-10	-2.106637e+01	-6.860040e+01
1.170000e-06	-2.993558e-06	-9.660607e-10	-2.079449e+01	-6.812633e+01
1.180000e-06	-2.954220e-06	-9.584388e-10	-2.052123e+01	-6.764674e+01
1.190000e-06	-2.914700e-06	-9.500286e-10	-2.024670e+01	-6.716172e+01
1.200000e-06	-2.875028e-06	-9.459539e-10	-1.997113e+01	-6.667138e+01
1.210000e-06	-2.835167e-06	-9.388326e-10	-1.969424e+01	-6.617581e+01
1.220000e-06	-2.795141e-06	-9.337419e-10	-1.941620e+01	-6.567511e+01
1.230000e-06	-2.754990e-06	-9.231254e-10	-1.913729e+01	-6.516940e+01
1.240000e-06	-2.714709e-06	-9.135804e-10	-1.885749e+01	-6.465877e+01
1.250000e-06	-2.674128e-06	-9.019878e-10	-1.857559e+01	-6.414331e+01
1.260000e-06	-2.633300e-06	-8.964445e-10	-1.829199e+01	-6.362309e+01
1.270000e-06	-2.592310e-06	-8.905394e-10	-1.800725e+01	-6.309820e+01
1.280000e-06	-2.551002e-06	-8.859762e-10	-1.772031e+01	-6.256869e+01
1.290000e-06	-2.509381e-06	-8.793095e-10	-1.743119e+01	-6.203458e+01
1.300000e-06	-2.467436e-06	-8.708851e-10	-1.713983e+01	-6.149590e+01
1.310000e-06	-2.425124e-06	-8.575083e-10	-1.684591e+01	-6.095264e+01
1.320000e-06	-2.382581e-06	-8.459896e-10	-1.655039e+01	-6.040478e+01
1.330000e-06	-2.339789e-06	-8.325529e-10	-1.625314e+01	-5.985224e+01
1.340000e-06	-2.296840e-06	-8.205274e-10	-1.595479e+01	-5.929494e+01
1.350000e-06	-2.253787e-06	-8.117401e-10	-1.565573e+01	-5.873277e+01
1.360000e-06	-2.210528e-06	-8.083113e-10	-1.535524e+01	-5.816556e+01
1.370000e-06	-2.167112e-06	-8.037922e-10	-1.505365e+01	-5.759312e+01
1.380000e-06	-2.123674e-06	-7.976140e-10	-1.475192e+01	-5.701524e+01
1.390000e-06	-2.080164e-06	-7.863815e-10	-1.444967e+01	-5.643164e+01
1.400000e-06	-2.036490e-06	-7.716802e-10	-1.414630e+01	-5.584203e+01
1.410000e-06	-1.992690e-06	-7.572313e-10	-1.384205e+01	-5.524606e+01
1.420000e-06	-1.948741e-06	-7.440570e-10	-1.353675e+01	-5.464336e+01
1.430000e-06	-1.904675e-06	-7.348960e-10	-1.323066e+01	-5.403352e+01
1.440000e-06	-1.860541e-06	-7.262474e-10	-1.292409e+01	-5.341607e+01
1.450000e-06	-1.816283e-06	-7.181688e-10	-1.261665e+01	-5.279053e+01
1.460000e-06	-1.771877e-06	-7.097723e-10	-1.230819e+01	-5.215638e+01
1.470000e-06	-1.727343e-06	-7.010201e-10	-1.199884e+01	-5.151305e+01
1.480000e-06	-1.682719e-06	-6.879393e-10	-1.168886e+01	-5.085996e+01
1.490000e-06	-1.638019e-06	-6.763231e-10	-1.137835e+01	-5.019649e+01
1.500000e-06	-1.593127e-06	-6.648727e-10	-1.106652e+01	-4.952199e+01
1.510000e-06	-1.548043e-06	-6.538136e-10	-1.075334e+01	-4.883580e+01
1.520000e-06	-1.502862e-06	-6.417598e-10	-1.043950e+01	-4.813723e+01
1.530000e-06	-1.457648e-06	-6.313162e-10	-1.012542e+01	-4.742558e+01
1.540000e-06	-1.412389e-06	-6.203623e-10	-9.811036e+00	-4.670013e+01
1.550000e-06	-1.367026e-06	-6.108809e-10	-9.495927e+00	-4.596016e+01
1.560000e-06	-1.321540e-06	-6.001985e-10	-9.179960e+00	-4.520493e+01
1.570000e-06	-1.275998e-06	-5.893126e-10	-8.863606e+00	-4.443373e+01
1.580000e-06	-1.230379e-06	-5.756148e-10	-8.546717e+00	-4.364584e+01
1.590000e-06	-1.184637e-06	-5.621337e-10	-8.228974e+00	-4.284053e+01
1.600000e-06	-1.138795e-06	-5.475442e-10	-7.910542e+00	-4.201711e+01
1.610000e-06	-1.092851e-06	-5.340308e-10	-7.591396e+00	-4.117491e+01
1.620000e-06	-1.046780e-06	-5.204959e-10	-7.271365e+00	-4.031327e+01
1.630000e-06	-1.000667e-06	-5.080149e-10	-6.951046e+00	-3.943156e+01
1.640000e-06	-9.546079e-07	-4.945652e-10	-6.631099e+00	-3.852919e+01
1.650000e-06	-9.084534e-07	-4.792606e-10	-6.310491e+00	-3.760562e+01
1.660000e-06	-8.621794e-07	-4.636701e-10	-5.989053e+00	-3.666032e+01
1.670000e-06	-8.158859e-07	-4.487082e-10	-5.667479e+00	-3.569284e+01
1.680000e-06	-7.695491e-07	-4.350579e-10	-5.345604e+00	-3.470276e+01
1.690000e-06	-7.231046e-07	-4.234489e-10	-5.022982e+00	-3.368972e+01
1.700000e-06	-6.766224e-07	-4.119949e-10	-4.700098e+00	-3.265342e+01
1.710000e-06	-6.300865e-07	-3.973385e-10	-4.376840e+00	-3.159363e+01
1.720000e-06	-5.834110e-07	-3.805350e-10	-4.052613e+00	-3.051017e+01
1.730000e-06	-5.367173e-07	-3.623016e-10	-3.728259e+00	-2.940293e+01
1.740000e-06	-4.900731e-07	-3.431178e-10	-3.404250e+00	-2.827187e+01
1.750000e-06	-4.433473e-07	-3.243691e-10	-3.079673e+00	-2.711704e+01
1.760000e-06	-3.964754e-07	-3.083693e-10	-2.754081e+00	-2.593853e+01
1.770000e-06	-3.495501e-07	-2.928458e-10	-2.428119e+00	-2.473653e+01
1.780000e-06	-3.026771e-07	-2.770185e-10	-2.102520e+00	-2.351129e+01
1.790000e-06	-2.557767e-07	-2.610851e-10	-1.776730e+00	-2.226314e+01
1.800000e-06	-2.088489e-07	-2.465133e-10	-1.450751e+00	-2.099248e+01
1.810000e-06	-1.620138e-07	-2.291921e-10	-1.125415e+00	-1.969980e+01
1.820000e-06	-1.152424e-07	-2.101356e-10	-8.005208e-01	-1.838564e+01
1.830000e-06	-6.843962e-08	-1.904701e-10	-4.754098e-01	-1.705063e+01
1.840000e-06	-2.153454e-08	-1.719182e-10	-1.495878e-01	-1.569546e+01
1.850000e-06	2.541734e-08	-1.538131e-10	1.765593e-01	-1.432090e+01
1.860000e-06	7.235095e-08	-1.369437e-10	5.025795e-01	-1.292776e+01
1.870000e-06	1.191862e-07	-1.174630e-10	8.279163e-01	-1.151694e+01
1.880000e-06	1.659768e-07	-9.552056e-11	1.152943e+00	-1.008939e+01
1.890000e-06	2.128174e-07	-7.491830e-11	1.478318e+00	-8.646115e+00
1.900000e-06	2.596959e-07	-5.471021e-11	1.803955e+00	-7.188168e+00
1.910000e-06	3.066032e-07	-3.541317e-11	2.129792e+00	-5.716656e+00
1.920000e-06	3.534602e-07	-1.665476e-11	2.455280e+00	-4.232729e+00
1.930000e-06	4.003212e-07	5.295036e-12	2.780796e+00	-2.737577e+00
1.940000e-06	4.471341e-07	2.734820e-11	3.105978e+00	-1.232424e+00
1.950000e-06	4.937944e-07	4.867586e-11	3.430099e+00	2.814748e-01
1.960000e-06	5.403227e-07	7.148760e-11	3.753304e+00	1.802839e+00
1.970000e-06	5.867645e-07	9.583687e-11	4.075908e+00	3.330367e+00
1.980000e-06	6.332657e-07	1.192121e-10	4.398924e+00	4.862741e+00
1.990000e-06	6.797669e-07	1.388161e-10	4.721941e+00	6.398633e+00
2.000000e-06	7.262151e-07	1.551455e-10	5.044589e+00	7.936709e+00
2.010000e-06	7.726427e-07	1.736504e-10	5.367094e+00	9.475633e+00
2.020000e-06	8.190880e-07	1.928285e-10	5.689723e+00	1.101407e+01
2.030000e-06	8.654847e-07	2.137317e-10	6.012013e+00	1.255071e+01
2.040000e-06	9.116668e-07	2.391457e-10	6.332813e+00	1.408423e+01
2.050000e-06	9.577992e-07	2.647495e-10	6.653267e+00	1.561333e+01
2.060000e-06	1.003994e-06	2.913334e-10	6.974158e+00	1.713676e+01
2.070000e-06	1.050044e-06	3.148679e-10	7.294041e+00	1.865326e+01
2.080000e-06	1.095964e-06	3.338892e-10	7.613014e+00	2.016162e+01
2.090000e-06	1.141790e-06	3.489054e-10	7.931342e+00	2.166065e+01
2.100000e-06	1.187481e-06	3.650757e-10	8.248732e+00	2.314922e+01
2.110000e-06	1.233072e-06	3.832462e-10	8.565426e+00	2.462622e+01
2.120000e-06	1.278591e-06	4.039386e-10	8.881620e+00	2.609058e+01
2.130000e-06	1.324119e-06	4.280380e-10	9.197877e+00	2.754128e+01
2.140000e-06	1.369551e-06	4.534617e-10	9.513465e+00	2.897737e+01
2.150000e-06	1.414888e-06	4.766291e-10	9.828397e+00	3.039792e+01
2.160000e-06	1.460126e-06	4.969125e-10	1.014264e+01	3.180207e+01
2.170000e-06	1.505259e-06	5.152932e-10	1.045615e+01	3.318900e+01
2.180000e-06	1.550390e-06	5.306630e-10	1.076965e+01	3.455796e+01
2.190000e-06	1.595395e-06	5.449803e-10	1.108227e+01	3.590825e+01
2.200000e-06	1.640171e-06	5.619552e-10	1.139331e+01	3.723922e+01
2.210000e-06	1.684840e-06	5.796553e-10	1.170359e+01	3.855029e+01
2.220000e-06	1.729363e-06	5.981070e-10	1.201286e+01	3.984093e+01
2.230000e-06	1.773645e-06	6.168652e-10	1.232047e+01	4.111066e+01
2.240000e-06	1.817771e-06	6.372140e-10	1.262699e+01	4.235907e+01
2.250000e-06	1.861809e-06	6.575834e-10	1.293289e+01	4.358580e+01
2.260000e-06	1.905835e-06	6.736057e-10	1.323871e+01	4.479056e+01
2.270000e-06	1.949773e-06	6.871473e-10	1.354392e+01	4.597309e+01
2.280000e-06	1.993555e-06	6.996215e-10	1.384805e+01	4.713320e+01
2.290000e-06	2.037249e-06	7.115974e-10	1.415157e+01	4.827075e+01
2.300000e-06	2.080887e-06	7.264875e-10	1.445470e+01	4.938566e+01
2.310000e-06	2.124434e-06	7.425461e-10	1.475719e+01	5.047788e+01
2.320000e-06	2.167894e-06	7.595242e-10	1.505909e+01	5.154742e+01
2.330000e-06	2.211341e-06	7.789971e-10	1.536088e+01	5.259435e+01
2.340000e-06	2.254706e-06	7.974801e-10	1.566211e+01	5.361875e+01
2.350000e-06	2.297991e-06	8.117777e-10	1.596279e+01	5.462078e+01
2.360000e-06	2.341162e-06	8.228894e-10	1.626268e+01	5.560060e+01
2.370000e-06	2.384007e-06	8.319991e-10	1.656030e+01	5.655846e+01
2.380000e-06	2.426521e-06	8.401875e-10	1.685561e+01	5.749458e+01
2.390000e-06	2.468789e-06	8.530679e-10	1.714922e+01	5.840928e+01
2.400000e-06	2.510808e-06	8.683742e-10	1.744110e+01	5.930286e+01
2.410000e-06	2.552415e-06	8.828970e-10	1.773012e+01	6.017567e+01
2.420000e-06	2.593644e-06	8.950953e-10	1.801652e+01	6.102808e+01
2.430000e-06	2.634585e-06	9.060248e-10	1.830091e+01	6.186049e+01
2.440000e-06	2.675268e-06	9.151250e-10	1.858351e+01	6.267332e+01
2.450000e-06	2.715695e-06	9.214642e-10	1.886434e+01	6.346701e+01
2.460000e-06	2.755877e-06	9.275835e-10	1.914346e+01	6.424199e+01
2.470000e-06	2.795886e-06	9.354586e-10	1.942137e+01	6.499875e+01
2.480000e-06	2.835703e-06	9.459284e-10	1.969796e+01	6.573774e+01
2.490000e-06	2.875379e-06	9.576333e-10	1.997357e+01	6.645947e+01
2.500000e-06	2.914958e-06	9.695619e-10	2.024850e+01	6.716442e+01
2.510000e-06	2.954407e-06	9.816048e-10	2.052253e+01	6.785309e+01
2.520000e-06	2.993751e-06	9.903057e-10	2.079583e+01	6.852598e+01
2.530000e-06	3.032997e-06	9.972177e-10	2.106845e+01	6.918358e+01
2.540000e-06	3.072012e-06	1.005173e-09	2.133946e+01	6.982639e+01
2.550000e-06	3.110789e-06	1.015509e-09	2.160882e+01	7.045491e+01
2.560000e-06	3.149264e-06	1.024366e-09	2.187608e+01	7.106962e+01
2.570000e-06	3.187482e-06	1.031740e-09	2.214156e+01	7.167101e+01
2.580000e-06	3.225475e-06	1.041481e-09	2.240548e+01	7.225953e+01
2.590000e-06	3.263215e-06	1.052604e-09	2.266764e+01	7.283566e+01
2.600000e-06	3.300767e-06	1.061261e-09	2.292848e+01	7.339983e+01
2.610000e-06	3.338104e-06	1.067030e-09	2.318784e+01	7.395249e+01
2.620000e-06	3.375265e-06	1.072679e-09	2.344598e+01	7.449404e+01
2.630000e-06	3.412240e-06	1.078218e-09	2.370282e+01	7.502490e+01
2.640000e-06	3.448875e-06	1.084397e-09	2.395731e+01	7.554544e+01
2.650000e-06	3.485223e-06	1.094801e-09	2.420979e+01	7.605604e+01
2.660000e-06	3.521374e-06	1.107959e-09	2.446091e+01	7.655703e+01
2.670000e-06	3.557296e-06	1.116512e-09	2.471044e+01	7.704875e+01
2.680000e-06	3.593020e-06	1.121072e-09	2.495859e+01	7.753150e+01
2.690000e-06	3.628597e-06	1.123216e-09	2.520573e+01	7.800557e+01
2.700000e-06	3.664027e-06	1.123327e-09	2.545184e+01	7.847122e+01
2.710000e-06	3.699358e-06	1.127452e-09	2.569726e+01	7.892870e+01
2.720000e-06	3.734599e-06	1.138389e-09	2.594206e+01	7.937823e+01
2.730000e-06	3.769586e-06	1.148244e-09	2.618509e+01	7.982000e+01
2.740000e-06	3.804170e-06	1.156473e-09	2.642533e+01	8.025420e+01
2.750000e-06	3.838266e-06	1.163118e-09	2.666218e+01	8.068098e+01
2.760000e-06	3.871898e-06	1.167676e-09	2.689580e+01	8.110048e+01
2.770000e-06	3.905092e-06	1.169915e-09	2.712638e+01	8.151282e+01
2.780000e-06	3.937791e-06	1.172679e-09	2.735352e+01	8.191810e+01
2.790000e-06	3.970096e-06	1.178458e-09	2.757792e+01	8.231639e+01
2.800000e-06	4.002103e-06	1.184024e-09	2.780025e+01	8.270776e+01
2.810000e-06	4.033863e-06	1.190145e-09	2.802087e+01	8.309225e+01
2.820000e-06	4.065547e-06	1.196337e-09	2.824096e+01	8.346990e+01
2.830000e-06	4.097010e-06	1.201379e-09	2.845952e+01	8.384072e+01
2.840000e-06	4.128267e-06	1.208635e-09	2.867664e+01	8.420471e+01
2.850000e-06	4.159376e-06	1.215259e-09	2.889274e+01	8.456187e+01
2.860000e-06	4.190143e-06	1.220152e-09	2.910646e+01	8.491217e+01
2.870000e-06	4.220533e-06	1.225401e-09	2.931756e+01	8.525560e+01
2.880000e-06	4.250610e-06	1.228290e-09	2.952649e+01	8.559212e+01
2.890000e-06	4.280394e-06	1.228290e-09	2.973338e+01	8.592168e+01
2.900000e-06	4.309857e-06	1.227847e-09	2.993804e+01	8.624426e+01
