# Temperatura_=_-1.2
# Concentracion g/m^3_=_1620.0
# C_Vs_to_Am_M_A/Vsm_=_65563218390.804596
# pendiente_HvsI_1/m_=_3716.3
# ordenada_HvsI_A/m_=_1297.0
# frecuencia_Hz_=_135099.12162328765

Tiempo_(s)	Campo_(V.s)	Magnetizacion_(V.s)	Campo_(kA/m)	Magnetizacion_(A/m)
0.000000e+00	-5.514799e-06	-1.187229e-09	-3.837934e+01	-7.843515e+01
1.000000e-08	-5.515172e-06	-1.185287e-09	-3.838194e+01	-7.842525e+01
2.000000e-08	-5.515284e-06	-1.183983e-09	-3.838272e+01	-7.841360e+01
3.000000e-08	-5.515079e-06	-1.185403e-09	-3.838129e+01	-7.839987e+01
4.000000e-08	-5.514449e-06	-1.187867e-09	-3.837691e+01	-7.838371e+01
5.000000e-08	-5.513219e-06	-1.189480e-09	-3.836835e+01	-7.836478e+01
6.000000e-08	-5.511327e-06	-1.191023e-09	-3.835518e+01	-7.834271e+01
7.000000e-08	-5.508782e-06	-1.188213e-09	-3.833747e+01	-7.831717e+01
8.000000e-08	-5.505742e-06	-1.182857e-09	-3.831631e+01	-7.828779e+01
9.000000e-08	-5.502275e-06	-1.171737e-09	-3.829218e+01	-7.825425e+01
1.000000e-07	-5.498433e-06	-1.199695e-09	-3.826544e+01	-7.821622e+01
1.100000e-07	-5.494236e-06	-1.215746e-09	-3.823624e+01	-7.817339e+01
1.200000e-07	-5.489735e-06	-1.167596e-09	-3.820491e+01	-7.812547e+01
1.300000e-07	-5.485033e-06	-1.170135e-09	-3.817219e+01	-7.807220e+01
1.400000e-07	-5.480007e-06	-1.186842e-09	-3.813721e+01	-7.801331e+01
1.500000e-07	-5.474556e-06	-1.219862e-09	-3.809928e+01	-7.794859e+01
1.600000e-07	-5.468772e-06	-1.176975e-09	-3.805902e+01	-7.787784e+01
1.700000e-07	-5.462674e-06	-1.137821e-09	-3.801659e+01	-7.780091e+01
1.800000e-07	-5.456109e-06	-1.220083e-09	-3.797090e+01	-7.771766e+01
1.900000e-07	-5.449089e-06	-1.229255e-09	-3.792205e+01	-7.762798e+01
2.000000e-07	-5.441778e-06	-1.209013e-09	-3.787116e+01	-7.753180e+01
2.100000e-07	-5.434238e-06	-1.123887e-09	-3.781869e+01	-7.742911e+01
2.200000e-07	-5.426382e-06	-1.186382e-09	-3.776402e+01	-7.731988e+01
2.300000e-07	-5.418217e-06	-1.210093e-09	-3.770719e+01	-7.720417e+01
2.400000e-07	-5.409755e-06	-1.211724e-09	-3.764830e+01	-7.708203e+01
2.500000e-07	-5.400682e-06	-1.174482e-09	-3.758516e+01	-7.695357e+01
2.600000e-07	-5.390752e-06	-1.215744e-09	-3.751606e+01	-7.681892e+01
2.700000e-07	-5.380164e-06	-1.210340e-09	-3.744237e+01	-7.667824e+01
2.800000e-07	-5.369156e-06	-1.171230e-09	-3.736576e+01	-7.653172e+01
2.900000e-07	-5.357740e-06	-1.135890e-09	-3.728631e+01	-7.637958e+01
3.000000e-07	-5.345991e-06	-1.156037e-09	-3.720455e+01	-7.622207e+01
3.100000e-07	-5.333934e-06	-1.172816e-09	-3.712064e+01	-7.605945e+01
3.200000e-07	-5.321459e-06	-1.140907e-09	-3.703382e+01	-7.589201e+01
3.300000e-07	-5.308402e-06	-1.153128e-09	-3.694296e+01	-7.572005e+01
3.400000e-07	-5.294913e-06	-1.164902e-09	-3.684908e+01	-7.554388e+01
3.500000e-07	-5.281167e-06	-1.173401e-09	-3.675342e+01	-7.536384e+01
3.600000e-07	-5.266955e-06	-1.113309e-09	-3.665451e+01	-7.518026e+01
3.700000e-07	-5.252255e-06	-1.118894e-09	-3.655221e+01	-7.499348e+01
3.800000e-07	-5.237172e-06	-1.136015e-09	-3.644724e+01	-7.480384e+01
3.900000e-07	-5.221550e-06	-1.147913e-09	-3.633852e+01	-7.461169e+01
4.000000e-07	-5.205296e-06	-1.109634e-09	-3.622541e+01	-7.441736e+01
4.100000e-07	-5.188635e-06	-1.141086e-09	-3.610946e+01	-7.422117e+01
4.200000e-07	-5.171704e-06	-1.147548e-09	-3.599163e+01	-7.402346e+01
4.300000e-07	-5.154476e-06	-1.119640e-09	-3.587173e+01	-7.382453e+01
4.400000e-07	-5.136950e-06	-1.094482e-09	-3.574976e+01	-7.362465e+01
4.500000e-07	-5.119074e-06	-1.147578e-09	-3.562536e+01	-7.342411e+01
4.600000e-07	-5.100752e-06	-1.119033e-09	-3.549785e+01	-7.322316e+01
4.700000e-07	-5.081982e-06	-1.089038e-09	-3.536722e+01	-7.302202e+01
4.800000e-07	-5.062886e-06	-1.109044e-09	-3.523433e+01	-7.282090e+01
4.900000e-07	-5.043542e-06	-1.140562e-09	-3.509970e+01	-7.261997e+01
5.000000e-07	-5.023967e-06	-1.089118e-09	-3.496347e+01	-7.241939e+01
5.100000e-07	-5.004200e-06	-1.097338e-09	-3.482591e+01	-7.221928e+01
5.200000e-07	-4.984161e-06	-1.118082e-09	-3.468645e+01	-7.201973e+01
5.300000e-07	-4.963694e-06	-1.086900e-09	-3.454402e+01	-7.182081e+01
5.400000e-07	-4.942815e-06	-1.062708e-09	-3.439872e+01	-7.162255e+01
5.500000e-07	-4.921632e-06	-1.109441e-09	-3.425129e+01	-7.142497e+01
5.600000e-07	-4.900140e-06	-1.094045e-09	-3.410172e+01	-7.122804e+01
5.700000e-07	-4.878320e-06	-1.051663e-09	-3.394987e+01	-7.103171e+01
5.800000e-07	-4.856211e-06	-1.079019e-09	-3.379600e+01	-7.083591e+01
5.900000e-07	-4.833764e-06	-1.099551e-09	-3.363979e+01	-7.064054e+01
6.000000e-07	-4.810876e-06	-1.060502e-09	-3.348050e+01	-7.044548e+01
6.100000e-07	-4.787657e-06	-1.056180e-09	-3.331892e+01	-7.025058e+01
6.200000e-07	-4.764207e-06	-1.082400e-09	-3.315572e+01	-7.005567e+01
6.300000e-07	-4.740584e-06	-1.056104e-09	-3.299132e+01	-6.986057e+01
6.400000e-07	-4.716714e-06	-1.049007e-09	-3.282520e+01	-6.966507e+01
6.500000e-07	-4.692549e-06	-1.067998e-09	-3.265703e+01	-6.946898e+01
6.600000e-07	-4.668039e-06	-1.066351e-09	-3.248645e+01	-6.927205e+01
6.700000e-07	-4.642987e-06	-1.041534e-09	-3.231211e+01	-6.907405e+01
6.800000e-07	-4.617414e-06	-1.056036e-09	-3.213414e+01	-6.887475e+01
6.900000e-07	-4.591318e-06	-1.048763e-09	-3.195253e+01	-6.867390e+01
7.000000e-07	-4.564657e-06	-1.039159e-09	-3.176698e+01	-6.847125e+01
7.100000e-07	-4.537546e-06	-1.035435e-09	-3.157831e+01	-6.826654e+01
7.200000e-07	-4.510157e-06	-1.040309e-09	-3.138770e+01	-6.805955e+01
7.300000e-07	-4.482593e-06	-1.021668e-09	-3.119587e+01	-6.785003e+01
7.400000e-07	-4.454873e-06	-1.025101e-09	-3.100296e+01	-6.763775e+01
7.500000e-07	-4.426973e-06	-1.022023e-09	-3.080879e+01	-6.742247e+01
7.600000e-07	-4.398837e-06	-1.021078e-09	-3.061299e+01	-6.720401e+01
7.700000e-07	-4.370362e-06	-1.013621e-09	-3.041482e+01	-6.698214e+01
7.800000e-07	-4.341548e-06	-1.015474e-09	-3.021429e+01	-6.675669e+01
7.900000e-07	-4.312391e-06	-1.004363e-09	-3.001138e+01	-6.652748e+01
8.000000e-07	-4.282881e-06	-1.003591e-09	-2.980601e+01	-6.629436e+01
8.100000e-07	-4.253160e-06	-9.951169e-10	-2.959917e+01	-6.605718e+01
8.200000e-07	-4.223260e-06	-9.823126e-10	-2.939109e+01	-6.581584e+01
8.300000e-07	-4.193045e-06	-9.724888e-10	-2.918081e+01	-6.557021e+01
8.400000e-07	-4.162470e-06	-9.775366e-10	-2.896803e+01	-6.532022e+01
8.500000e-07	-4.131556e-06	-9.750497e-10	-2.875289e+01	-6.506580e+01
8.600000e-07	-4.100366e-06	-9.699280e-10	-2.853583e+01	-6.480690e+01
8.700000e-07	-4.068994e-06	-9.718939e-10	-2.831749e+01	-6.454348e+01
8.800000e-07	-4.037436e-06	-9.680970e-10	-2.809787e+01	-6.427552e+01
8.900000e-07	-4.005703e-06	-9.567336e-10	-2.787704e+01	-6.400302e+01
9.000000e-07	-3.973801e-06	-9.491285e-10	-2.765502e+01	-6.372600e+01
9.100000e-07	-3.941695e-06	-9.443013e-10	-2.743158e+01	-6.344448e+01
9.200000e-07	-3.909235e-06	-9.308051e-10	-2.720568e+01	-6.315850e+01
9.300000e-07	-3.876283e-06	-9.276142e-10	-2.697636e+01	-6.286811e+01
9.400000e-07	-3.842931e-06	-9.303915e-10	-2.674425e+01	-6.257336e+01
9.500000e-07	-3.809056e-06	-9.285293e-10	-2.650850e+01	-6.227433e+01
9.600000e-07	-3.774640e-06	-9.196967e-10	-2.626899e+01	-6.197108e+01
9.700000e-07	-3.739877e-06	-9.218005e-10	-2.602706e+01	-6.166371e+01
9.800000e-07	-3.704852e-06	-9.138901e-10	-2.578331e+01	-6.135228e+01
9.900000e-07	-3.669600e-06	-9.058523e-10	-2.553798e+01	-6.103688e+01
1.000000e-06	-3.634111e-06	-8.999841e-10	-2.529100e+01	-6.071760e+01
1.010000e-06	-3.598475e-06	-9.002155e-10	-2.504300e+01	-6.039452e+01
1.020000e-06	-3.562692e-06	-8.903966e-10	-2.479397e+01	-6.006773e+01
1.030000e-06	-3.526764e-06	-8.872529e-10	-2.454394e+01	-5.973729e+01
1.040000e-06	-3.490697e-06	-8.841154e-10	-2.429293e+01	-5.940328e+01
1.050000e-06	-3.454411e-06	-8.824684e-10	-2.404040e+01	-5.906576e+01
1.060000e-06	-3.417841e-06	-8.742899e-10	-2.378591e+01	-5.872480e+01
1.070000e-06	-3.381012e-06	-8.712533e-10	-2.352960e+01	-5.838044e+01
1.080000e-06	-3.343874e-06	-8.632968e-10	-2.327115e+01	-5.803272e+01
1.090000e-06	-3.306438e-06	-8.569708e-10	-2.301061e+01	-5.768168e+01
1.100000e-06	-3.268793e-06	-8.518402e-10	-2.274863e+01	-5.732733e+01
1.110000e-06	-3.230912e-06	-8.475941e-10	-2.248501e+01	-5.696968e+01
1.120000e-06	-3.192792e-06	-8.394297e-10	-2.221972e+01	-5.660872e+01
1.130000e-06	-3.154458e-06	-8.346105e-10	-2.195293e+01	-5.624446e+01
1.140000e-06	-3.115911e-06	-8.285685e-10	-2.168467e+01	-5.587684e+01
1.150000e-06	-3.077133e-06	-8.194669e-10	-2.141481e+01	-5.550585e+01
1.160000e-06	-3.038119e-06	-8.119965e-10	-2.114329e+01	-5.513143e+01
1.170000e-06	-2.998883e-06	-8.060441e-10	-2.087023e+01	-5.475352e+01
1.180000e-06	-2.959558e-06	-7.985549e-10	-2.059656e+01	-5.437205e+01
1.190000e-06	-2.920148e-06	-7.916351e-10	-2.032229e+01	-5.398692e+01
1.200000e-06	-2.880563e-06	-7.868059e-10	-2.004680e+01	-5.359806e+01
1.210000e-06	-2.840844e-06	-7.785650e-10	-1.977039e+01	-5.320536e+01
1.220000e-06	-2.801003e-06	-7.700461e-10	-1.949313e+01	-5.280869e+01
1.230000e-06	-2.761032e-06	-7.634749e-10	-1.921495e+01	-5.240795e+01
1.240000e-06	-2.720912e-06	-7.577192e-10	-1.893574e+01	-5.200299e+01
1.250000e-06	-2.680586e-06	-7.486045e-10	-1.865510e+01	-5.159368e+01
1.260000e-06	-2.640058e-06	-7.473140e-10	-1.837305e+01	-5.117986e+01
1.270000e-06	-2.599267e-06	-7.434223e-10	-1.808917e+01	-5.076140e+01
1.280000e-06	-2.558157e-06	-7.390063e-10	-1.780308e+01	-5.033811e+01
1.290000e-06	-2.516812e-06	-7.315691e-10	-1.751534e+01	-4.990984e+01
1.300000e-06	-2.475097e-06	-7.246223e-10	-1.722504e+01	-4.947640e+01
1.310000e-06	-2.433092e-06	-7.138594e-10	-1.693271e+01	-4.903762e+01
1.320000e-06	-2.390831e-06	-7.043135e-10	-1.663860e+01	-4.859331e+01
1.330000e-06	-2.348192e-06	-6.953200e-10	-1.634186e+01	-4.814327e+01
1.340000e-06	-2.305301e-06	-6.876303e-10	-1.604336e+01	-4.768731e+01
1.350000e-06	-2.262197e-06	-6.814365e-10	-1.574339e+01	-4.722522e+01
1.360000e-06	-2.218881e-06	-6.787625e-10	-1.544194e+01	-4.675680e+01
1.370000e-06	-2.175448e-06	-6.723208e-10	-1.513968e+01	-4.628181e+01
1.380000e-06	-2.131941e-06	-6.622207e-10	-1.483690e+01	-4.580005e+01
1.390000e-06	-2.088355e-06	-6.503472e-10	-1.453356e+01	-4.531128e+01
1.400000e-06	-2.044696e-06	-6.399319e-10	-1.422972e+01	-4.481526e+01
1.410000e-06	-2.000928e-06	-6.288204e-10	-1.392513e+01	-4.431176e+01
1.420000e-06	-1.957109e-06	-6.188772e-10	-1.362018e+01	-4.380052e+01
1.430000e-06	-1.913218e-06	-6.115221e-10	-1.331472e+01	-4.328129e+01
1.440000e-06	-1.869171e-06	-6.047712e-10	-1.300819e+01	-4.275380e+01
1.450000e-06	-1.825009e-06	-5.977472e-10	-1.270085e+01	-4.221778e+01
1.460000e-06	-1.780780e-06	-5.888030e-10	-1.239304e+01	-4.167294e+01
1.470000e-06	-1.736479e-06	-5.788590e-10	-1.208474e+01	-4.111901e+01
1.480000e-06	-1.692020e-06	-5.683820e-10	-1.177534e+01	-4.055568e+01
1.490000e-06	-1.647311e-06	-5.590178e-10	-1.146419e+01	-3.998264e+01
1.500000e-06	-1.602474e-06	-5.500504e-10	-1.115216e+01	-3.939959e+01
1.510000e-06	-1.557544e-06	-5.409493e-10	-1.083948e+01	-3.880620e+01
1.520000e-06	-1.512492e-06	-5.321139e-10	-1.052594e+01	-3.820214e+01
1.530000e-06	-1.467332e-06	-5.235932e-10	-1.021166e+01	-3.758709e+01
1.540000e-06	-1.422034e-06	-5.149277e-10	-9.896415e+00	-3.696069e+01
1.550000e-06	-1.376614e-06	-5.076007e-10	-9.580317e+00	-3.632261e+01
1.560000e-06	-1.331128e-06	-4.981113e-10	-9.263770e+00	-3.567249e+01
1.570000e-06	-1.285615e-06	-4.856222e-10	-8.947026e+00	-3.500998e+01
1.580000e-06	-1.240024e-06	-4.740146e-10	-8.629741e+00	-3.433472e+01
1.590000e-06	-1.194365e-06	-4.636513e-10	-8.311987e+00	-3.364637e+01
1.600000e-06	-1.148718e-06	-4.525741e-10	-7.994314e+00	-3.294456e+01
1.610000e-06	-1.102940e-06	-4.434727e-10	-7.675728e+00	-3.222895e+01
1.620000e-06	-1.056969e-06	-4.304432e-10	-7.355803e+00	-3.149919e+01
1.630000e-06	-1.010934e-06	-4.168566e-10	-7.035431e+00	-3.075494e+01
1.640000e-06	-9.648157e-07	-4.033136e-10	-6.714477e+00	-2.999589e+01
1.650000e-06	-9.185573e-07	-3.917718e-10	-6.392549e+00	-2.922171e+01
1.660000e-06	-8.722115e-07	-3.785113e-10	-6.070013e+00	-2.843210e+01
1.670000e-06	-8.259089e-07	-3.649485e-10	-5.747777e+00	-2.762679e+01
1.680000e-06	-7.795846e-07	-3.524762e-10	-5.425392e+00	-2.680551e+01
1.690000e-06	-7.332546e-07	-3.399266e-10	-5.102966e+00	-2.596802e+01
1.700000e-06	-6.869205e-07	-3.239182e-10	-4.780511e+00	-2.511411e+01
1.710000e-06	-6.405039e-07	-3.072764e-10	-4.457482e+00	-2.424360e+01
1.720000e-06	-5.940351e-07	-2.908429e-10	-4.134090e+00	-2.335632e+01
1.730000e-06	-5.474682e-07	-2.776287e-10	-3.810016e+00	-2.245217e+01
1.740000e-06	-5.008945e-07	-2.660392e-10	-3.485893e+00	-2.153105e+01
1.750000e-06	-4.543013e-07	-2.527466e-10	-3.161636e+00	-2.059293e+01
1.760000e-06	-4.076512e-07	-2.399376e-10	-2.836982e+00	-1.963779e+01
1.770000e-06	-3.610204e-07	-2.247864e-10	-2.512462e+00	-1.866569e+01
1.780000e-06	-3.143618e-07	-2.091300e-10	-2.187749e+00	-1.767669e+01
1.790000e-06	-2.676333e-07	-1.925484e-10	-1.862550e+00	-1.667095e+01
1.800000e-06	-2.208518e-07	-1.779010e-10	-1.536982e+00	-1.564863e+01
1.810000e-06	-1.739945e-07	-1.616627e-10	-1.210886e+00	-1.460997e+01
1.820000e-06	-1.271523e-07	-1.450744e-10	-8.848954e-01	-1.355526e+01
1.830000e-06	-8.038514e-08	-1.292969e-10	-5.594272e-01	-1.248482e+01
1.840000e-06	-3.366015e-08	-1.129001e-10	-2.342523e-01	-1.139905e+01
1.850000e-06	1.302820e-08	-9.586017e-11	9.066760e-02	-1.029838e+01
1.860000e-06	5.979805e-08	-7.996189e-11	4.161548e-01	-9.183303e+00
1.870000e-06	1.065938e-07	-6.304345e-11	7.418220e-01	-8.054367e+00
1.880000e-06	1.533702e-07	-4.723918e-11	1.067355e+00	-6.912163e+00
1.890000e-06	2.001290e-07	-3.181759e-11	1.392765e+00	-5.757334e+00
1.900000e-06	2.468736e-07	-1.569314e-11	1.718077e+00	-4.590574e+00
1.910000e-06	2.936507e-07	-7.307248e-13	2.043614e+00	-3.412618e+00
1.920000e-06	3.403598e-07	1.282150e-11	2.368679e+00	-2.224248e+00
1.930000e-06	3.870328e-07	3.022092e-11	2.693492e+00	-1.026288e+00
1.940000e-06	4.337583e-07	4.919288e-11	3.018670e+00	1.804019e-01
1.950000e-06	4.804570e-07	6.783111e-11	3.343662e+00	1.394925e+00
1.960000e-06	5.270894e-07	8.496105e-11	3.668192e+00	2.616353e+00
1.970000e-06	5.736706e-07	1.001739e-10	3.992367e+00	3.843730e+00
1.980000e-06	6.200792e-07	1.158036e-10	4.315340e+00	5.076075e+00
1.990000e-06	6.662891e-07	1.309265e-10	4.636930e+00	6.312385e+00
2.000000e-06	7.124987e-07	1.446725e-10	4.958518e+00	7.551645e+00
2.010000e-06	7.587285e-07	1.617058e-10	5.280247e+00	8.792824e+00
2.020000e-06	8.049328e-07	1.815684e-10	5.601798e+00	1.003489e+01
2.030000e-06	8.511014e-07	2.030030e-10	5.923101e+00	1.127679e+01
2.040000e-06	8.971979e-07	2.251611e-10	6.243902e+00	1.251750e+01
2.050000e-06	9.433090e-07	2.438143e-10	6.564804e+00	1.375598e+01
2.060000e-06	9.893503e-07	2.610683e-10	6.885222e+00	1.499121e+01
2.070000e-06	1.035268e-06	2.755471e-10	7.204777e+00	1.622219e+01
2.080000e-06	1.081106e-06	2.881747e-10	7.523782e+00	1.744792e+01
2.090000e-06	1.126893e-06	3.011281e-10	7.842428e+00	1.866744e+01
2.100000e-06	1.172622e-06	3.196143e-10	8.160674e+00	1.987981e+01
2.110000e-06	1.218207e-06	3.406278e-10	8.477909e+00	2.108412e+01
2.120000e-06	1.263710e-06	3.612788e-10	8.794585e+00	2.227950e+01
2.130000e-06	1.309170e-06	3.800875e-10	9.110954e+00	2.346512e+01
2.140000e-06	1.354587e-06	3.967043e-10	9.427027e+00	2.464017e+01
2.150000e-06	1.399934e-06	4.095928e-10	9.742614e+00	2.580390e+01
2.160000e-06	1.445179e-06	4.197044e-10	1.005749e+01	2.695561e+01
2.170000e-06	1.490287e-06	4.308688e-10	1.037141e+01	2.809462e+01
2.180000e-06	1.535184e-06	4.463922e-10	1.068386e+01	2.922033e+01
2.190000e-06	1.579927e-06	4.661739e-10	1.099524e+01	3.033218e+01
2.200000e-06	1.624593e-06	4.854195e-10	1.130609e+01	3.142964e+01
2.210000e-06	1.669139e-06	4.998277e-10	1.161610e+01	3.251226e+01
2.220000e-06	1.713589e-06	5.116610e-10	1.192544e+01	3.357962e+01
2.230000e-06	1.757862e-06	5.223447e-10	1.223355e+01	3.463137e+01
2.240000e-06	1.801938e-06	5.340374e-10	1.254029e+01	3.566719e+01
2.250000e-06	1.845952e-06	5.472741e-10	1.284660e+01	3.668682e+01
2.260000e-06	1.889875e-06	5.625291e-10	1.315227e+01	3.769004e+01
2.270000e-06	1.933748e-06	5.791055e-10	1.345760e+01	3.867670e+01
2.280000e-06	1.977580e-06	5.933105e-10	1.376264e+01	3.964667e+01
2.290000e-06	2.021325e-06	6.041457e-10	1.406708e+01	4.059987e+01
2.300000e-06	2.065003e-06	6.138364e-10	1.437105e+01	4.153627e+01
2.310000e-06	2.108620e-06	6.253943e-10	1.467460e+01	4.245586e+01
2.320000e-06	2.152143e-06	6.386772e-10	1.497749e+01	4.335868e+01
2.330000e-06	2.195578e-06	6.533237e-10	1.527976e+01	4.424480e+01
2.340000e-06	2.238946e-06	6.680045e-10	1.558158e+01	4.511431e+01
2.350000e-06	2.282189e-06	6.822823e-10	1.588252e+01	4.596735e+01
2.360000e-06	2.325246e-06	6.934980e-10	1.618217e+01	4.680406e+01
2.370000e-06	2.368081e-06	7.030666e-10	1.648027e+01	4.762461e+01
2.380000e-06	2.410649e-06	7.128386e-10	1.677652e+01	4.842919e+01
2.390000e-06	2.452829e-06	7.234729e-10	1.707006e+01	4.921800e+01
2.400000e-06	2.494677e-06	7.334175e-10	1.736130e+01	4.999126e+01
2.410000e-06	2.536240e-06	7.434280e-10	1.765054e+01	5.074920e+01
2.420000e-06	2.577457e-06	7.556175e-10	1.793739e+01	5.149203e+01
2.430000e-06	2.618395e-06	7.690184e-10	1.822229e+01	5.222001e+01
2.440000e-06	2.659029e-06	7.802627e-10	1.850508e+01	5.293337e+01
2.450000e-06	2.699375e-06	7.881872e-10	1.878586e+01	5.363234e+01
2.460000e-06	2.739522e-06	7.939428e-10	1.906526e+01	5.431717e+01
2.470000e-06	2.779539e-06	8.008178e-10	1.934375e+01	5.498807e+01
2.480000e-06	2.819415e-06	8.091369e-10	1.962125e+01	5.564529e+01
2.490000e-06	2.859115e-06	8.179143e-10	1.989755e+01	5.628903e+01
2.500000e-06	2.898683e-06	8.268212e-10	2.017291e+01	5.691951e+01
2.510000e-06	2.938192e-06	8.372917e-10	2.044787e+01	5.753694e+01
2.520000e-06	2.977564e-06	8.477617e-10	2.072187e+01	5.814151e+01
2.530000e-06	3.016665e-06	8.570871e-10	2.099399e+01	5.873341e+01
2.540000e-06	3.055565e-06	8.659711e-10	2.126470e+01	5.931281e+01
2.550000e-06	3.094229e-06	8.746081e-10	2.153378e+01	5.987988e+01
2.560000e-06	3.132621e-06	8.812920e-10	2.180097e+01	6.043479e+01
2.570000e-06	3.170779e-06	8.861953e-10	2.206651e+01	6.097768e+01
2.580000e-06	3.208736e-06	8.932514e-10	2.233067e+01	6.150869e+01
2.590000e-06	3.246524e-06	9.013753e-10	2.259365e+01	6.202797e+01
2.600000e-06	3.284131e-06	9.101786e-10	2.285537e+01	6.253565e+01
2.610000e-06	3.321567e-06	9.187512e-10	2.311590e+01	6.303185e+01
2.620000e-06	3.358764e-06	9.258503e-10	2.337477e+01	6.351671e+01
2.630000e-06	3.395728e-06	9.327912e-10	2.363202e+01	6.399033e+01
2.640000e-06	3.432455e-06	9.384701e-10	2.388761e+01	6.445285e+01
2.650000e-06	3.468897e-06	9.437430e-10	2.414122e+01	6.490439e+01
2.660000e-06	3.505113e-06	9.518436e-10	2.439326e+01	6.534506e+01
2.670000e-06	3.541091e-06	9.601644e-10	2.464365e+01	6.577501e+01
2.680000e-06	3.576868e-06	9.678098e-10	2.489263e+01	6.619435e+01
2.690000e-06	3.612527e-06	9.734746e-10	2.514079e+01	6.660323e+01
2.700000e-06	3.648108e-06	9.765915e-10	2.538841e+01	6.700179e+01
2.710000e-06	3.683595e-06	9.797714e-10	2.563538e+01	6.739018e+01
2.720000e-06	3.718893e-06	9.850755e-10	2.588102e+01	6.776855e+01
2.730000e-06	3.753887e-06	9.909782e-10	2.612456e+01	6.813708e+01
2.740000e-06	3.788482e-06	9.970320e-10	2.636532e+01	6.849593e+01
2.750000e-06	3.822598e-06	1.003269e-09	2.660274e+01	6.884530e+01
2.760000e-06	3.856160e-06	1.008211e-09	2.683631e+01	6.918538e+01
2.770000e-06	3.889226e-06	1.011352e-09	2.706643e+01	6.951636e+01
2.780000e-06	3.921846e-06	1.013756e-09	2.729345e+01	6.983846e+01
2.790000e-06	3.954077e-06	1.017780e-09	2.751775e+01	7.015191e+01
2.800000e-06	3.986078e-06	1.021880e-09	2.774046e+01	7.045692e+01
2.810000e-06	4.017927e-06	1.026128e-09	2.796211e+01	7.075373e+01
2.820000e-06	4.049659e-06	1.031978e-09	2.818294e+01	7.104258e+01
2.830000e-06	4.081245e-06	1.037564e-09	2.840276e+01	7.132372e+01
2.840000e-06	4.112608e-06	1.042515e-09	2.862102e+01	7.159740e+01
2.850000e-06	4.143709e-06	1.046483e-09	2.883746e+01	7.186386e+01
2.860000e-06	4.174530e-06	1.048873e-09	2.905196e+01	7.212335e+01
2.870000e-06	4.204976e-06	1.050062e-09	2.926384e+01	7.237614e+01
2.880000e-06	4.235076e-06	1.051789e-09	2.947332e+01	7.262246e+01
2.890000e-06	4.264905e-06	1.053941e-09	2.968091e+01	7.286256e+01
2.900000e-06	4.294488e-06	1.056222e-09	2.988678e+01	7.309668e+01
