# Temperatura_=_-0.6
# Concentracion g/m^3_=_1620.0
# C_Vs_to_Am_M_A/Vsm_=_65563218390.804596
# pendiente_HvsI_1/m_=_3716.3
# ordenada_HvsI_A/m_=_1297.0
# frecuencia_Hz_=_135095.8068862834

Tiempo_(s)	Campo_(V.s)	Magnetizacion_(V.s)	Campo_(kA/m)	Magnetizacion_(A/m)
0.000000e+00	-5.555456e-06	-1.269677e-09	-3.837431e+01	-8.324899e+01
1.000000e-08	-5.555678e-06	-1.266299e-09	-3.837585e+01	-8.322399e+01
2.000000e-08	-5.555686e-06	-1.263346e-09	-3.837590e+01	-8.319696e+01
3.000000e-08	-5.555322e-06	-1.263778e-09	-3.837339e+01	-8.316785e+01
4.000000e-08	-5.554468e-06	-1.264984e-09	-3.836748e+01	-8.313661e+01
5.000000e-08	-5.552973e-06	-1.263492e-09	-3.835716e+01	-8.310318e+01
6.000000e-08	-5.550797e-06	-1.262421e-09	-3.834213e+01	-8.306750e+01
7.000000e-08	-5.548091e-06	-1.267858e-09	-3.832343e+01	-8.302952e+01
8.000000e-08	-5.544842e-06	-1.252195e-09	-3.830099e+01	-8.298917e+01
9.000000e-08	-5.541146e-06	-1.232792e-09	-3.827546e+01	-8.294639e+01
1.000000e-07	-5.537130e-06	-1.258410e-09	-3.824772e+01	-8.290113e+01
1.100000e-07	-5.532727e-06	-1.273784e-09	-3.821731e+01	-8.285331e+01
1.200000e-07	-5.528060e-06	-1.265860e-09	-3.818507e+01	-8.280288e+01
1.300000e-07	-5.523210e-06	-1.222904e-09	-3.815157e+01	-8.274979e+01
1.400000e-07	-5.518040e-06	-1.245115e-09	-3.811586e+01	-8.269397e+01
1.500000e-07	-5.512499e-06	-1.281881e-09	-3.807758e+01	-8.263537e+01
1.600000e-07	-5.506575e-06	-1.250726e-09	-3.803667e+01	-8.257394e+01
1.700000e-07	-5.500278e-06	-1.232131e-09	-3.799317e+01	-8.250963e+01
1.800000e-07	-5.493479e-06	-1.224103e-09	-3.794620e+01	-8.244240e+01
1.900000e-07	-5.486261e-06	-1.278036e-09	-3.789634e+01	-8.237220e+01
2.000000e-07	-5.478841e-06	-1.244647e-09	-3.784509e+01	-8.229901e+01
2.100000e-07	-5.471147e-06	-1.246758e-09	-3.779194e+01	-8.222279e+01
2.200000e-07	-5.463096e-06	-1.246269e-09	-3.773633e+01	-8.214351e+01
2.300000e-07	-5.454744e-06	-1.279932e-09	-3.767864e+01	-8.206115e+01
2.400000e-07	-5.445984e-06	-1.255206e-09	-3.761813e+01	-8.197570e+01
2.500000e-07	-5.436563e-06	-1.249109e-09	-3.755306e+01	-8.188715e+01
2.600000e-07	-5.426300e-06	-1.243132e-09	-3.748216e+01	-8.179549e+01
2.700000e-07	-5.415443e-06	-1.256824e-09	-3.740717e+01	-8.170073e+01
2.800000e-07	-5.404259e-06	-1.247386e-09	-3.732991e+01	-8.160287e+01
2.900000e-07	-5.392582e-06	-1.234450e-09	-3.724926e+01	-8.150192e+01
3.000000e-07	-5.380542e-06	-1.239839e-09	-3.716609e+01	-8.139790e+01
3.100000e-07	-5.368286e-06	-1.236488e-09	-3.708143e+01	-8.129083e+01
3.200000e-07	-5.355591e-06	-1.240297e-09	-3.699375e+01	-8.118075e+01
3.300000e-07	-5.342395e-06	-1.222783e-09	-3.690259e+01	-8.106768e+01
3.400000e-07	-5.328789e-06	-1.239194e-09	-3.680861e+01	-8.095165e+01
3.500000e-07	-5.314832e-06	-1.228219e-09	-3.671220e+01	-8.083272e+01
3.600000e-07	-5.300424e-06	-1.225866e-09	-3.661268e+01	-8.071092e+01
3.700000e-07	-5.285465e-06	-1.215518e-09	-3.650935e+01	-8.058630e+01
3.800000e-07	-5.269986e-06	-1.238600e-09	-3.640243e+01	-8.045891e+01
3.900000e-07	-5.253973e-06	-1.221006e-09	-3.629181e+01	-8.032881e+01
4.000000e-07	-5.237476e-06	-1.205048e-09	-3.617786e+01	-8.019604e+01
4.100000e-07	-5.220656e-06	-1.205726e-09	-3.606168e+01	-8.006066e+01
4.200000e-07	-5.203540e-06	-1.232169e-09	-3.594345e+01	-7.992272e+01
4.300000e-07	-5.186033e-06	-1.202297e-09	-3.582252e+01	-7.978228e+01
4.400000e-07	-5.168173e-06	-1.203013e-09	-3.569915e+01	-7.963939e+01
4.500000e-07	-5.150031e-06	-1.219684e-09	-3.557384e+01	-7.949410e+01
4.600000e-07	-5.131509e-06	-1.225040e-09	-3.544590e+01	-7.934647e+01
4.700000e-07	-5.112536e-06	-1.190820e-09	-3.531484e+01	-7.919654e+01
4.800000e-07	-5.093201e-06	-1.210615e-09	-3.518129e+01	-7.904436e+01
4.900000e-07	-5.073632e-06	-1.215827e-09	-3.504611e+01	-7.888997e+01
5.000000e-07	-5.053921e-06	-1.197544e-09	-3.490996e+01	-7.873340e+01
5.100000e-07	-5.034044e-06	-1.187590e-09	-3.477266e+01	-7.857470e+01
5.200000e-07	-5.013830e-06	-1.206106e-09	-3.463303e+01	-7.841388e+01
5.300000e-07	-4.993195e-06	-1.185603e-09	-3.449049e+01	-7.825097e+01
5.400000e-07	-4.972168e-06	-1.176644e-09	-3.434525e+01	-7.808599e+01
5.500000e-07	-4.950786e-06	-1.191869e-09	-3.419755e+01	-7.791896e+01
5.600000e-07	-4.929081e-06	-1.189427e-09	-3.404762e+01	-7.774987e+01
5.700000e-07	-4.906987e-06	-1.170204e-09	-3.389501e+01	-7.757872e+01
5.800000e-07	-4.884562e-06	-1.178253e-09	-3.374011e+01	-7.740552e+01
5.900000e-07	-4.861812e-06	-1.183646e-09	-3.358297e+01	-7.723024e+01
6.000000e-07	-4.838685e-06	-1.166445e-09	-3.342321e+01	-7.705287e+01
6.100000e-07	-4.815266e-06	-1.168674e-09	-3.326145e+01	-7.687338e+01
6.200000e-07	-4.791680e-06	-1.173823e-09	-3.309853e+01	-7.669173e+01
6.300000e-07	-4.767870e-06	-1.167955e-09	-3.293406e+01	-7.650790e+01
6.400000e-07	-4.743721e-06	-1.161370e-09	-3.276725e+01	-7.632182e+01
6.500000e-07	-4.719121e-06	-1.169715e-09	-3.259733e+01	-7.613346e+01
6.600000e-07	-4.694000e-06	-1.158024e-09	-3.242380e+01	-7.594275e+01
6.700000e-07	-4.668368e-06	-1.154017e-09	-3.224675e+01	-7.574963e+01
6.800000e-07	-4.642263e-06	-1.151005e-09	-3.206643e+01	-7.555403e+01
6.900000e-07	-4.615659e-06	-1.149643e-09	-3.188266e+01	-7.535588e+01
7.000000e-07	-4.588610e-06	-1.137315e-09	-3.169582e+01	-7.515510e+01
7.100000e-07	-4.561250e-06	-1.140097e-09	-3.150684e+01	-7.495162e+01
7.200000e-07	-4.533677e-06	-1.128995e-09	-3.131637e+01	-7.474534e+01
7.300000e-07	-4.505980e-06	-1.126553e-09	-3.112505e+01	-7.453618e+01
7.400000e-07	-4.478064e-06	-1.124037e-09	-3.093222e+01	-7.432404e+01
7.500000e-07	-4.449911e-06	-1.122421e-09	-3.073776e+01	-7.410884e+01
7.600000e-07	-4.421493e-06	-1.112428e-09	-3.054146e+01	-7.389048e+01
7.700000e-07	-4.392646e-06	-1.116445e-09	-3.034220e+01	-7.366887e+01
7.800000e-07	-4.363421e-06	-1.109920e-09	-3.014033e+01	-7.344390e+01
7.900000e-07	-4.333916e-06	-1.102191e-09	-2.993653e+01	-7.321549e+01
8.000000e-07	-4.304123e-06	-1.096578e-09	-2.973073e+01	-7.298353e+01
8.100000e-07	-4.274043e-06	-1.092736e-09	-2.952295e+01	-7.274794e+01
8.200000e-07	-4.243707e-06	-1.077193e-09	-2.931341e+01	-7.250861e+01
8.300000e-07	-4.213080e-06	-1.071290e-09	-2.910185e+01	-7.226546e+01
8.400000e-07	-4.182081e-06	-1.072220e-09	-2.888772e+01	-7.201840e+01
8.500000e-07	-4.150791e-06	-1.068684e-09	-2.867159e+01	-7.176733e+01
8.600000e-07	-4.119319e-06	-1.064780e-09	-2.845419e+01	-7.151218e+01
8.700000e-07	-4.087694e-06	-1.065688e-09	-2.823575e+01	-7.125287e+01
8.800000e-07	-4.055893e-06	-1.059987e-09	-2.801608e+01	-7.098932e+01
8.900000e-07	-4.023941e-06	-1.047566e-09	-2.779537e+01	-7.072145e+01
9.000000e-07	-3.991759e-06	-1.041632e-09	-2.757307e+01	-7.044919e+01
9.100000e-07	-3.959194e-06	-1.033730e-09	-2.734813e+01	-7.017249e+01
9.200000e-07	-3.926218e-06	-1.029324e-09	-2.712035e+01	-6.989128e+01
9.300000e-07	-3.892705e-06	-1.028481e-09	-2.688886e+01	-6.960550e+01
9.400000e-07	-3.858729e-06	-1.032117e-09	-2.665417e+01	-6.931511e+01
9.500000e-07	-3.824402e-06	-1.026437e-09	-2.641706e+01	-6.902006e+01
9.600000e-07	-3.789657e-06	-1.020556e-09	-2.617705e+01	-6.872031e+01
9.700000e-07	-3.754533e-06	-1.012153e-09	-2.593444e+01	-6.841582e+01
9.800000e-07	-3.719141e-06	-1.004935e-09	-2.568996e+01	-6.810656e+01
9.900000e-07	-3.683631e-06	-9.968950e-10	-2.544468e+01	-6.779251e+01
1.000000e-06	-3.648007e-06	-9.979738e-10	-2.519861e+01	-6.747364e+01
1.010000e-06	-3.612237e-06	-9.961865e-10	-2.495153e+01	-6.714993e+01
1.020000e-06	-3.576305e-06	-9.966053e-10	-2.470333e+01	-6.682138e+01
1.030000e-06	-3.540161e-06	-9.926895e-10	-2.445366e+01	-6.648796e+01
1.040000e-06	-3.503794e-06	-9.869099e-10	-2.420245e+01	-6.614968e+01
1.050000e-06	-3.467098e-06	-9.775754e-10	-2.394898e+01	-6.580653e+01
1.060000e-06	-3.430077e-06	-9.718316e-10	-2.369326e+01	-6.545850e+01
1.070000e-06	-3.392804e-06	-9.640122e-10	-2.343579e+01	-6.510561e+01
1.080000e-06	-3.355324e-06	-9.607555e-10	-2.317690e+01	-6.474785e+01
1.090000e-06	-3.317663e-06	-9.581142e-10	-2.291676e+01	-6.438523e+01
1.100000e-06	-3.279692e-06	-9.547106e-10	-2.265447e+01	-6.401775e+01
1.110000e-06	-3.241420e-06	-9.472550e-10	-2.239011e+01	-6.364542e+01
1.120000e-06	-3.202857e-06	-9.396610e-10	-2.212373e+01	-6.326825e+01
1.130000e-06	-3.164105e-06	-9.313011e-10	-2.185606e+01	-6.288623e+01
1.140000e-06	-3.125205e-06	-9.225263e-10	-2.158735e+01	-6.249938e+01
1.150000e-06	-3.086063e-06	-9.155375e-10	-2.131698e+01	-6.210769e+01
1.160000e-06	-3.046742e-06	-9.099826e-10	-2.104537e+01	-6.171116e+01
1.170000e-06	-3.007303e-06	-9.035149e-10	-2.077295e+01	-6.130979e+01
1.180000e-06	-2.967761e-06	-8.963021e-10	-2.049981e+01	-6.090356e+01
1.190000e-06	-2.928142e-06	-8.906161e-10	-2.022614e+01	-6.049247e+01
1.200000e-06	-2.888361e-06	-8.822375e-10	-1.995135e+01	-6.007648e+01
1.210000e-06	-2.848432e-06	-8.729333e-10	-1.967554e+01	-5.965558e+01
1.220000e-06	-2.808344e-06	-8.638327e-10	-1.939863e+01	-5.922973e+01
1.230000e-06	-2.767985e-06	-8.572381e-10	-1.911985e+01	-5.879889e+01
1.240000e-06	-2.727446e-06	-8.487402e-10	-1.883983e+01	-5.836300e+01
1.250000e-06	-2.686678e-06	-8.443816e-10	-1.855823e+01	-5.792200e+01
1.260000e-06	-2.645609e-06	-8.400272e-10	-1.827454e+01	-5.747583e+01
1.270000e-06	-2.604280e-06	-8.334163e-10	-1.798906e+01	-5.702440e+01
1.280000e-06	-2.562578e-06	-8.254375e-10	-1.770101e+01	-5.656762e+01
1.290000e-06	-2.520463e-06	-8.187385e-10	-1.741010e+01	-5.610539e+01
1.300000e-06	-2.478051e-06	-8.072007e-10	-1.711713e+01	-5.563757e+01
1.310000e-06	-2.435463e-06	-7.952046e-10	-1.682296e+01	-5.516405e+01
1.320000e-06	-2.392631e-06	-7.853685e-10	-1.652710e+01	-5.468466e+01
1.330000e-06	-2.349491e-06	-7.764760e-10	-1.622910e+01	-5.419926e+01
1.340000e-06	-2.306224e-06	-7.678450e-10	-1.593024e+01	-5.370766e+01
1.350000e-06	-2.262816e-06	-7.628551e-10	-1.563040e+01	-5.320967e+01
1.360000e-06	-2.219283e-06	-7.571850e-10	-1.532970e+01	-5.270508e+01
1.370000e-06	-2.175701e-06	-7.493532e-10	-1.502865e+01	-5.219366e+01
1.380000e-06	-2.132004e-06	-7.384791e-10	-1.472682e+01	-5.167518e+01
1.390000e-06	-2.088208e-06	-7.266437e-10	-1.442430e+01	-5.114937e+01
1.400000e-06	-2.044347e-06	-7.124788e-10	-1.412133e+01	-5.061595e+01
1.410000e-06	-2.000393e-06	-7.002453e-10	-1.381771e+01	-5.007464e+01
1.420000e-06	-1.956248e-06	-6.915993e-10	-1.351278e+01	-4.952513e+01
1.430000e-06	-1.911958e-06	-6.851271e-10	-1.320685e+01	-4.896709e+01
1.440000e-06	-1.867622e-06	-6.775585e-10	-1.290060e+01	-4.840017e+01
1.450000e-06	-1.823136e-06	-6.692683e-10	-1.259331e+01	-4.782403e+01
1.460000e-06	-1.778496e-06	-6.602055e-10	-1.228496e+01	-4.723829e+01
1.470000e-06	-1.733733e-06	-6.487053e-10	-1.197576e+01	-4.664256e+01
1.480000e-06	-1.688786e-06	-6.361615e-10	-1.166529e+01	-4.603645e+01
1.490000e-06	-1.643669e-06	-6.261389e-10	-1.135365e+01	-4.541955e+01
1.500000e-06	-1.598398e-06	-6.167128e-10	-1.104094e+01	-4.479144e+01
1.510000e-06	-1.552999e-06	-6.066781e-10	-1.072734e+01	-4.415168e+01
1.520000e-06	-1.507550e-06	-5.975073e-10	-1.041340e+01	-4.349984e+01
1.530000e-06	-1.462012e-06	-5.875484e-10	-1.009885e+01	-4.283546e+01
1.540000e-06	-1.416416e-06	-5.784411e-10	-9.783894e+00	-4.215811e+01
1.550000e-06	-1.370734e-06	-5.692794e-10	-9.468347e+00	-4.146733e+01
1.560000e-06	-1.324907e-06	-5.610267e-10	-9.151798e+00	-4.076266e+01
1.570000e-06	-1.279043e-06	-5.525052e-10	-8.834990e+00	-4.004364e+01
1.580000e-06	-1.233184e-06	-5.419821e-10	-8.518220e+00	-3.930984e+01
1.590000e-06	-1.187275e-06	-5.288830e-10	-8.201102e+00	-3.856079e+01
1.600000e-06	-1.141165e-06	-5.167377e-10	-7.882595e+00	-3.779607e+01
1.610000e-06	-1.094845e-06	-5.042092e-10	-7.562639e+00	-3.701525e+01
1.620000e-06	-1.048452e-06	-4.902025e-10	-7.242183e+00	-3.621791e+01
1.630000e-06	-1.002066e-06	-4.758539e-10	-6.921772e+00	-3.540365e+01
1.640000e-06	-9.555813e-07	-4.623500e-10	-6.600678e+00	-3.457208e+01
1.650000e-06	-9.089681e-07	-4.481733e-10	-6.278697e+00	-3.372286e+01
1.660000e-06	-8.622953e-07	-4.355997e-10	-5.956305e+00	-3.285563e+01
1.670000e-06	-8.155391e-07	-4.249264e-10	-5.633336e+00	-3.197009e+01
1.680000e-06	-7.687089e-07	-4.148066e-10	-5.309857e+00	-3.106594e+01
1.690000e-06	-7.218368e-07	-4.035950e-10	-4.986087e+00	-3.014294e+01
1.700000e-06	-6.749320e-07	-3.895378e-10	-4.662092e+00	-2.920087e+01
1.710000e-06	-6.280279e-07	-3.699197e-10	-4.338102e+00	-2.823953e+01
1.720000e-06	-5.811207e-07	-3.499203e-10	-4.014091e+00	-2.725879e+01
1.730000e-06	-5.341564e-07	-3.317073e-10	-3.689685e+00	-2.625854e+01
1.740000e-06	-4.871707e-07	-3.178280e-10	-3.365131e+00	-2.523871e+01
1.750000e-06	-4.400800e-07	-3.055495e-10	-3.039853e+00	-2.419929e+01
1.760000e-06	-3.929684e-07	-2.923432e-10	-2.714429e+00	-2.314031e+01
1.770000e-06	-3.458879e-07	-2.788917e-10	-2.389220e+00	-2.206184e+01
1.780000e-06	-2.987368e-07	-2.627974e-10	-2.063524e+00	-2.096402e+01
1.790000e-06	-2.514990e-07	-2.456215e-10	-1.737229e+00	-1.984701e+01
1.800000e-06	-2.042829e-07	-2.299393e-10	-1.411084e+00	-1.871107e+01
1.810000e-06	-1.571702e-07	-2.136399e-10	-1.085653e+00	-1.755646e+01
1.820000e-06	-1.099556e-07	-1.958462e-10	-7.595184e-01	-1.638353e+01
1.830000e-06	-6.270170e-08	-1.774300e-10	-4.331120e-01	-1.519268e+01
1.840000e-06	-1.548242e-08	-1.587667e-10	-1.069448e-01	-1.398435e+01
1.850000e-06	3.167800e-08	-1.392314e-10	2.188158e-01	-1.275905e+01
1.860000e-06	7.878377e-08	-1.200297e-10	5.441988e-01	-1.151734e+01
1.870000e-06	1.259032e-07	-1.021673e-10	8.696764e-01	-1.025982e+01
1.880000e-06	1.731089e-07	-8.137940e-11	1.195749e+00	-8.987176e+00
1.890000e-06	2.203418e-07	-6.502661e-11	1.522011e+00	-7.700109e+00
1.900000e-06	2.674791e-07	-5.040418e-11	1.847612e+00	-6.399391e+00
1.910000e-06	3.145828e-07	-3.440671e-11	2.172981e+00	-5.085837e+00
1.920000e-06	3.617105e-07	-1.190874e-11	2.498515e+00	-3.760309e+00
1.930000e-06	4.088352e-07	1.374015e-11	2.824029e+00	-2.423713e+00
1.940000e-06	4.559520e-07	3.912661e-11	3.149488e+00	-1.076998e+00
1.950000e-06	5.031483e-07	6.276797e-11	3.475497e+00	2.788501e-01
1.960000e-06	5.502271e-07	8.100847e-11	3.800694e+00	1.642808e+00
1.970000e-06	5.972057e-07	9.492271e-11	4.125198e+00	3.013821e+00
1.980000e-06	6.441128e-07	1.102455e-10	4.449209e+00	4.390804e+00
1.990000e-06	6.908393e-07	1.272558e-10	4.771972e+00	5.772647e+00
2.000000e-06	7.374499e-07	1.456431e-10	5.093935e+00	7.158216e+00
2.010000e-06	7.839774e-07	1.662628e-10	5.415323e+00	8.546361e+00
2.020000e-06	8.305688e-07	1.870884e-10	5.737153e+00	9.935917e+00
2.030000e-06	8.771922e-07	2.097913e-10	6.059205e+00	1.132571e+01
2.040000e-06	9.236869e-07	2.316767e-10	6.380367e+00	1.271456e+01
2.050000e-06	9.701234e-07	2.519485e-10	6.701127e+00	1.410127e+01
2.060000e-06	1.016524e-06	2.715892e-10	7.021638e+00	1.548469e+01
2.070000e-06	1.062736e-06	2.924345e-10	7.340852e+00	1.686362e+01
2.080000e-06	1.108831e-06	3.106838e-10	7.659249e+00	1.823690e+01
2.090000e-06	1.154872e-06	3.268442e-10	7.977279e+00	1.960340e+01
2.100000e-06	1.200798e-06	3.455698e-10	8.294513e+00	2.096198e+01
2.110000e-06	1.246631e-06	3.666812e-10	8.611101e+00	2.231153e+01
2.120000e-06	1.292408e-06	3.865611e-10	8.927309e+00	2.365099e+01
2.130000e-06	1.338121e-06	4.049984e-10	9.243068e+00	2.497930e+01
2.140000e-06	1.383710e-06	4.231318e-10	9.557979e+00	2.629544e+01
2.150000e-06	1.429197e-06	4.380545e-10	9.872177e+00	2.759846e+01
2.160000e-06	1.474684e-06	4.493749e-10	1.018638e+01	2.888740e+01
2.170000e-06	1.520157e-06	4.649020e-10	1.050048e+01	3.016139e+01
2.180000e-06	1.565399e-06	4.818931e-10	1.081299e+01	3.141959e+01
2.190000e-06	1.610440e-06	4.993021e-10	1.112411e+01	3.266118e+01
2.200000e-06	1.655465e-06	5.173011e-10	1.143512e+01	3.388544e+01
2.210000e-06	1.700393e-06	5.338282e-10	1.174547e+01	3.509168e+01
2.220000e-06	1.745154e-06	5.485490e-10	1.205465e+01	3.627925e+01
2.230000e-06	1.789709e-06	5.624327e-10	1.236241e+01	3.744759e+01
2.240000e-06	1.834141e-06	5.777333e-10	1.266933e+01	3.859617e+01
2.250000e-06	1.878453e-06	5.951282e-10	1.297541e+01	3.972452e+01
2.260000e-06	1.922585e-06	6.133892e-10	1.328026e+01	4.083225e+01
2.270000e-06	1.966592e-06	6.295094e-10	1.358423e+01	4.191899e+01
2.280000e-06	2.010485e-06	6.431085e-10	1.388743e+01	4.298448e+01
2.290000e-06	2.054332e-06	6.559208e-10	1.419030e+01	4.402847e+01
2.300000e-06	2.098132e-06	6.672143e-10	1.449284e+01	4.505078e+01
2.310000e-06	2.141836e-06	6.763678e-10	1.479473e+01	4.605131e+01
2.320000e-06	2.185446e-06	6.883748e-10	1.509596e+01	4.702999e+01
2.330000e-06	2.228991e-06	7.047022e-10	1.539675e+01	4.798680e+01
2.340000e-06	2.272487e-06	7.216644e-10	1.569720e+01	4.892179e+01
2.350000e-06	2.315900e-06	7.352893e-10	1.599708e+01	4.983505e+01
2.360000e-06	2.359177e-06	7.460382e-10	1.629602e+01	5.072671e+01
2.370000e-06	2.402256e-06	7.554129e-10	1.659358e+01	5.159695e+01
2.380000e-06	2.445130e-06	7.645681e-10	1.688973e+01	5.244600e+01
2.390000e-06	2.487739e-06	7.750646e-10	1.718405e+01	5.327412e+01
2.400000e-06	2.530166e-06	7.862934e-10	1.747712e+01	5.408161e+01
2.410000e-06	2.572322e-06	7.983420e-10	1.776831e+01	5.486880e+01
2.420000e-06	2.614034e-06	8.110649e-10	1.805644e+01	5.563605e+01
2.430000e-06	2.655347e-06	8.234464e-10	1.834181e+01	5.638376e+01
2.440000e-06	2.696332e-06	8.350294e-10	1.862491e+01	5.711233e+01
2.450000e-06	2.737014e-06	8.440477e-10	1.890593e+01	5.782220e+01
2.460000e-06	2.777365e-06	8.514659e-10	1.918464e+01	5.851383e+01
2.470000e-06	2.817500e-06	8.596323e-10	1.946188e+01	5.918769e+01
2.480000e-06	2.857454e-06	8.676534e-10	1.973786e+01	5.984424e+01
2.490000e-06	2.897214e-06	8.756442e-10	2.001250e+01	6.048400e+01
2.500000e-06	2.936825e-06	8.857912e-10	2.028612e+01	6.110743e+01
2.510000e-06	2.976414e-06	8.979268e-10	2.055957e+01	6.171506e+01
2.520000e-06	3.015894e-06	9.104968e-10	2.083229e+01	6.230737e+01
2.530000e-06	3.055182e-06	9.210737e-10	2.110366e+01	6.288486e+01
2.540000e-06	3.094359e-06	9.299170e-10	2.137429e+01	6.344802e+01
2.550000e-06	3.133327e-06	9.363424e-10	2.164346e+01	6.399735e+01
2.560000e-06	3.172095e-06	9.400804e-10	2.191124e+01	6.453330e+01
2.570000e-06	3.210705e-06	9.446554e-10	2.217795e+01	6.505636e+01
2.580000e-06	3.249014e-06	9.525566e-10	2.244257e+01	6.556698e+01
2.590000e-06	3.287059e-06	9.649020e-10	2.270536e+01	6.606559e+01
2.600000e-06	3.324870e-06	9.776263e-10	2.296654e+01	6.655261e+01
2.610000e-06	3.362411e-06	9.867745e-10	2.322585e+01	6.702846e+01
2.620000e-06	3.399733e-06	9.932120e-10	2.348365e+01	6.749353e+01
2.630000e-06	3.436841e-06	9.986477e-10	2.373998e+01	6.794819e+01
2.640000e-06	3.473660e-06	1.002889e-09	2.399430e+01	6.839279e+01
2.650000e-06	3.510181e-06	1.007781e-09	2.424657e+01	6.882766e+01
2.660000e-06	3.546445e-06	1.015292e-09	2.449706e+01	6.925313e+01
2.670000e-06	3.582483e-06	1.021815e-09	2.474600e+01	6.966948e+01
2.680000e-06	3.618379e-06	1.027842e-09	2.499395e+01	7.007699e+01
2.690000e-06	3.654143e-06	1.033350e-09	2.524099e+01	7.047592e+01
2.700000e-06	3.689759e-06	1.036710e-09	2.548701e+01	7.086650e+01
2.710000e-06	3.725230e-06	1.042565e-09	2.573203e+01	7.124895e+01
2.720000e-06	3.760545e-06	1.051025e-09	2.597596e+01	7.162348e+01
2.730000e-06	3.795631e-06	1.057282e-09	2.621832e+01	7.199027e+01
2.740000e-06	3.830435e-06	1.060651e-09	2.645873e+01	7.234949e+01
2.750000e-06	3.864855e-06	1.064069e-09	2.669648e+01	7.270129e+01
2.760000e-06	3.898815e-06	1.068124e-09	2.693106e+01	7.304580e+01
2.770000e-06	3.932296e-06	1.069515e-09	2.716234e+01	7.338316e+01
2.780000e-06	3.965199e-06	1.070915e-09	2.738961e+01	7.371348e+01
2.790000e-06	3.997653e-06	1.075232e-09	2.761379e+01	7.403686e+01
2.800000e-06	4.029824e-06	1.078409e-09	2.783601e+01	7.435338e+01
2.810000e-06	4.061754e-06	1.081861e-09	2.805657e+01	7.466314e+01
2.820000e-06	4.093432e-06	1.086154e-09	2.827538e+01	7.496621e+01
2.830000e-06	4.124923e-06	1.090021e-09	2.849290e+01	7.526266e+01
2.840000e-06	4.156342e-06	1.095416e-09	2.870993e+01	7.555254e+01
2.850000e-06	4.187586e-06	1.101160e-09	2.892575e+01	7.583592e+01
2.860000e-06	4.218445e-06	1.105879e-09	2.913890e+01	7.611285e+01
2.870000e-06	4.248949e-06	1.109007e-09	2.934961e+01	7.638339e+01
2.880000e-06	4.279147e-06	1.110939e-09	2.955821e+01	7.664758e+01
2.890000e-06	4.309001e-06	1.112277e-09	2.976442e+01	7.690546e+01
2.900000e-06	4.338620e-06	1.112084e-09	2.996901e+01	7.715710e+01
