# Temperatura_=_-36.93
# Concentracion g/m^3_=_1620.0
# C_Vs_to_Am_M_A/Vsm_=_65563218390.804596
# pendiente_HvsI_1/m_=_3716.3
# ordenada_HvsI_A/m_=_1297.0
# frecuencia_Hz_=_135105.62509897523

Tiempo_(s)	Campo_(V.s)	Magnetizacion_(V.s)	Campo_(kA/m)	Magnetizacion_(A/m)
0.000000e+00	-5.516872e-06	-8.010686e-10	-3.837153e+01	-5.117447e+01
1.000000e-08	-5.517057e-06	-7.992942e-10	-3.837282e+01	-5.118011e+01
2.000000e-08	-5.516993e-06	-7.974341e-10	-3.837237e+01	-5.118279e+01
3.000000e-08	-5.516542e-06	-7.977334e-10	-3.836924e+01	-5.118242e+01
4.000000e-08	-5.515556e-06	-7.990926e-10	-3.836238e+01	-5.117889e+01
5.000000e-08	-5.514018e-06	-7.998457e-10	-3.835168e+01	-5.117211e+01
6.000000e-08	-5.511952e-06	-7.992990e-10	-3.833732e+01	-5.116204e+01
7.000000e-08	-5.509293e-06	-8.142113e-10	-3.831882e+01	-5.114860e+01
8.000000e-08	-5.506190e-06	-8.307741e-10	-3.829723e+01	-5.113178e+01
9.000000e-08	-5.502700e-06	-7.884705e-10	-3.827297e+01	-5.111156e+01
1.000000e-07	-5.498734e-06	-7.279929e-10	-3.824538e+01	-5.108793e+01
1.100000e-07	-5.494384e-06	-7.995356e-10	-3.821512e+01	-5.106093e+01
1.200000e-07	-5.489720e-06	-8.415959e-10	-3.818269e+01	-5.103061e+01
1.300000e-07	-5.484820e-06	-8.133569e-10	-3.814861e+01	-5.099701e+01
1.400000e-07	-5.479608e-06	-7.263625e-10	-3.811235e+01	-5.096023e+01
1.500000e-07	-5.474058e-06	-7.838979e-10	-3.807375e+01	-5.092037e+01
1.600000e-07	-5.468133e-06	-8.693898e-10	-3.803254e+01	-5.087755e+01
1.700000e-07	-5.461826e-06	-8.192477e-10	-3.798867e+01	-5.083191e+01
1.800000e-07	-5.455152e-06	-7.443236e-10	-3.794225e+01	-5.078360e+01
1.900000e-07	-5.448047e-06	-7.468280e-10	-3.789283e+01	-5.073281e+01
2.000000e-07	-5.440583e-06	-8.279717e-10	-3.784092e+01	-5.067971e+01
2.100000e-07	-5.432886e-06	-8.178393e-10	-3.778739e+01	-5.062450e+01
2.200000e-07	-5.424979e-06	-7.891183e-10	-3.773239e+01	-5.056741e+01
2.300000e-07	-5.416714e-06	-7.703814e-10	-3.767490e+01	-5.050865e+01
2.400000e-07	-5.407900e-06	-8.082682e-10	-3.761360e+01	-5.044845e+01
2.500000e-07	-5.398555e-06	-7.763710e-10	-3.754860e+01	-5.038705e+01
2.600000e-07	-5.388649e-06	-7.474463e-10	-3.747971e+01	-5.032468e+01
2.700000e-07	-5.378092e-06	-7.334775e-10	-3.740628e+01	-5.026160e+01
2.800000e-07	-5.367000e-06	-7.663904e-10	-3.732913e+01	-5.019805e+01
2.900000e-07	-5.355407e-06	-7.534506e-10	-3.724850e+01	-5.013426e+01
3.000000e-07	-5.343424e-06	-7.327604e-10	-3.716515e+01	-5.007048e+01
3.100000e-07	-5.331119e-06	-7.208526e-10	-3.707956e+01	-5.000692e+01
3.200000e-07	-5.318420e-06	-7.431244e-10	-3.699124e+01	-4.994382e+01
3.300000e-07	-5.305320e-06	-7.412653e-10	-3.690012e+01	-4.988139e+01
3.400000e-07	-5.291875e-06	-7.097856e-10	-3.680661e+01	-4.981982e+01
3.500000e-07	-5.278052e-06	-7.095064e-10	-3.671047e+01	-4.975930e+01
3.600000e-07	-5.263833e-06	-7.437835e-10	-3.661157e+01	-4.969999e+01
3.700000e-07	-5.249124e-06	-7.298888e-10	-3.650927e+01	-4.964206e+01
3.800000e-07	-5.233860e-06	-7.036909e-10	-3.640310e+01	-4.958562e+01
3.900000e-07	-5.218124e-06	-7.425329e-10	-3.629365e+01	-4.953081e+01
4.000000e-07	-5.201924e-06	-7.377945e-10	-3.618097e+01	-4.947769e+01
4.100000e-07	-5.185146e-06	-6.859923e-10	-3.606427e+01	-4.942636e+01
4.200000e-07	-5.168022e-06	-7.130071e-10	-3.594517e+01	-4.937685e+01
4.300000e-07	-5.150760e-06	-7.771990e-10	-3.582511e+01	-4.932920e+01
4.400000e-07	-5.133192e-06	-7.049544e-10	-3.570292e+01	-4.928340e+01
4.500000e-07	-5.115232e-06	-6.785225e-10	-3.557801e+01	-4.923944e+01
4.600000e-07	-5.096796e-06	-7.538751e-10	-3.544978e+01	-4.919728e+01
4.700000e-07	-5.077879e-06	-7.506107e-10	-3.531821e+01	-4.915686e+01
4.800000e-07	-5.058573e-06	-6.698667e-10	-3.518393e+01	-4.911809e+01
4.900000e-07	-5.039072e-06	-7.316802e-10	-3.504829e+01	-4.908087e+01
5.000000e-07	-5.019449e-06	-7.615838e-10	-3.491180e+01	-4.904508e+01
5.100000e-07	-4.999589e-06	-6.825202e-10	-3.477367e+01	-4.901059e+01
5.200000e-07	-4.979425e-06	-6.897297e-10	-3.463343e+01	-4.897722e+01
5.300000e-07	-4.958949e-06	-7.688329e-10	-3.449101e+01	-4.894482e+01
5.400000e-07	-4.938099e-06	-7.002659e-10	-3.434599e+01	-4.891321e+01
5.500000e-07	-4.916862e-06	-6.615111e-10	-3.419828e+01	-4.888218e+01
5.600000e-07	-4.895256e-06	-7.373511e-10	-3.404800e+01	-4.885155e+01
5.700000e-07	-4.873334e-06	-7.342105e-10	-3.389553e+01	-4.882109e+01
5.800000e-07	-4.851113e-06	-6.696241e-10	-3.374098e+01	-4.879060e+01
5.900000e-07	-4.828575e-06	-7.199771e-10	-3.358422e+01	-4.875985e+01
6.000000e-07	-4.805682e-06	-7.424112e-10	-3.342499e+01	-4.872863e+01
6.100000e-07	-4.782386e-06	-6.824708e-10	-3.326296e+01	-4.869673e+01
6.200000e-07	-4.758797e-06	-6.932231e-10	-3.309889e+01	-4.866392e+01
6.300000e-07	-4.735071e-06	-7.352444e-10	-3.293387e+01	-4.863000e+01
6.400000e-07	-4.711164e-06	-7.016739e-10	-3.276759e+01	-4.859477e+01
6.500000e-07	-4.686933e-06	-6.925790e-10	-3.259905e+01	-4.855803e+01
6.600000e-07	-4.662253e-06	-7.302665e-10	-3.242740e+01	-4.851960e+01
6.700000e-07	-4.637018e-06	-7.091457e-10	-3.225188e+01	-4.847931e+01
6.800000e-07	-4.611182e-06	-6.864684e-10	-3.207218e+01	-4.843699e+01
6.900000e-07	-4.584762e-06	-7.110029e-10	-3.188843e+01	-4.839249e+01
7.000000e-07	-4.557889e-06	-7.123423e-10	-3.170151e+01	-4.834569e+01
7.100000e-07	-4.530676e-06	-6.876389e-10	-3.151224e+01	-4.829647e+01
7.200000e-07	-4.503180e-06	-7.055230e-10	-3.132099e+01	-4.824473e+01
7.300000e-07	-4.475466e-06	-7.149958e-10	-3.112824e+01	-4.819038e+01
7.400000e-07	-4.447605e-06	-7.005123e-10	-3.093445e+01	-4.813335e+01
7.500000e-07	-4.419593e-06	-6.958310e-10	-3.073963e+01	-4.807360e+01
7.600000e-07	-4.391331e-06	-7.062544e-10	-3.054305e+01	-4.801107e+01
7.700000e-07	-4.362739e-06	-6.945136e-10	-3.034418e+01	-4.794576e+01
7.800000e-07	-4.333839e-06	-6.943539e-10	-3.014317e+01	-4.787765e+01
7.900000e-07	-4.304573e-06	-6.998548e-10	-2.993962e+01	-4.780676e+01
8.000000e-07	-4.274883e-06	-6.939540e-10	-2.973312e+01	-4.773309e+01
8.100000e-07	-4.244876e-06	-6.813465e-10	-2.952441e+01	-4.765669e+01
8.200000e-07	-4.214660e-06	-6.878754e-10	-2.931425e+01	-4.757759e+01
8.300000e-07	-4.184215e-06	-6.826122e-10	-2.910250e+01	-4.749584e+01
8.400000e-07	-4.153451e-06	-6.742311e-10	-2.888853e+01	-4.741150e+01
8.500000e-07	-4.122348e-06	-6.796797e-10	-2.867219e+01	-4.732464e+01
8.600000e-07	-4.091004e-06	-6.870440e-10	-2.845419e+01	-4.723532e+01
8.700000e-07	-4.059501e-06	-6.785020e-10	-2.823507e+01	-4.714362e+01
8.800000e-07	-4.027862e-06	-6.800727e-10	-2.801501e+01	-4.704959e+01
8.900000e-07	-3.996074e-06	-6.822483e-10	-2.779392e+01	-4.695332e+01
9.000000e-07	-3.964077e-06	-6.691786e-10	-2.757137e+01	-4.685487e+01
9.100000e-07	-3.931782e-06	-6.606813e-10	-2.734675e+01	-4.675431e+01
9.200000e-07	-3.899116e-06	-6.659887e-10	-2.711955e+01	-4.665168e+01
9.300000e-07	-3.866004e-06	-6.622239e-10	-2.688924e+01	-4.654705e+01
9.400000e-07	-3.832358e-06	-6.558322e-10	-2.665523e+01	-4.644046e+01
9.500000e-07	-3.798186e-06	-6.627649e-10	-2.641755e+01	-4.633193e+01
9.600000e-07	-3.763572e-06	-6.642047e-10	-2.617679e+01	-4.622150e+01
9.700000e-07	-3.728577e-06	-6.542908e-10	-2.593340e+01	-4.610916e+01
9.800000e-07	-3.693349e-06	-6.518778e-10	-2.568837e+01	-4.599491e+01
9.900000e-07	-3.657941e-06	-6.583080e-10	-2.544210e+01	-4.587875e+01
1.000000e-06	-3.622359e-06	-6.527579e-10	-2.519461e+01	-4.576063e+01
1.010000e-06	-3.586643e-06	-6.512543e-10	-2.494620e+01	-4.564052e+01
1.020000e-06	-3.550816e-06	-6.568911e-10	-2.469702e+01	-4.551836e+01
1.030000e-06	-3.514907e-06	-6.575953e-10	-2.444725e+01	-4.539407e+01
1.040000e-06	-3.478783e-06	-6.505609e-10	-2.419600e+01	-4.526757e+01
1.050000e-06	-3.442378e-06	-6.531584e-10	-2.394279e+01	-4.513876e+01
1.060000e-06	-3.405734e-06	-6.519610e-10	-2.368792e+01	-4.500753e+01
1.070000e-06	-3.368754e-06	-6.456409e-10	-2.343072e+01	-4.487375e+01
1.080000e-06	-3.331439e-06	-6.432482e-10	-2.317118e+01	-4.473729e+01
1.090000e-06	-3.293864e-06	-6.450951e-10	-2.290983e+01	-4.459801e+01
1.100000e-06	-3.256078e-06	-6.379634e-10	-2.264702e+01	-4.445575e+01
1.110000e-06	-3.218152e-06	-6.350470e-10	-2.238323e+01	-4.431034e+01
1.120000e-06	-3.180040e-06	-6.374437e-10	-2.211815e+01	-4.416163e+01
1.130000e-06	-3.141694e-06	-6.361655e-10	-2.185144e+01	-4.400944e+01
1.140000e-06	-3.103111e-06	-6.305915e-10	-2.158309e+01	-4.385360e+01
1.150000e-06	-3.064313e-06	-6.318697e-10	-2.131324e+01	-4.369392e+01
1.160000e-06	-3.025272e-06	-6.322273e-10	-2.104169e+01	-4.353023e+01
1.170000e-06	-2.985995e-06	-6.289979e-10	-2.076851e+01	-4.336235e+01
1.180000e-06	-2.946586e-06	-6.252246e-10	-2.049441e+01	-4.319012e+01
1.190000e-06	-2.907082e-06	-6.221922e-10	-2.021964e+01	-4.301335e+01
1.200000e-06	-2.867417e-06	-6.168971e-10	-1.994376e+01	-4.283189e+01
1.210000e-06	-2.827638e-06	-6.131226e-10	-1.966709e+01	-4.264557e+01
1.220000e-06	-2.787826e-06	-6.120359e-10	-1.939019e+01	-4.245425e+01
1.230000e-06	-2.747871e-06	-6.088696e-10	-1.911229e+01	-4.225779e+01
1.240000e-06	-2.707648e-06	-6.042164e-10	-1.883252e+01	-4.205605e+01
1.250000e-06	-2.667114e-06	-6.020609e-10	-1.855060e+01	-4.184891e+01
1.260000e-06	-2.626309e-06	-6.012688e-10	-1.826679e+01	-4.163627e+01
1.270000e-06	-2.585292e-06	-5.966585e-10	-1.798150e+01	-4.141801e+01
1.280000e-06	-2.544062e-06	-5.951728e-10	-1.769473e+01	-4.119406e+01
1.290000e-06	-2.502621e-06	-5.936425e-10	-1.740650e+01	-4.096433e+01
1.300000e-06	-2.460790e-06	-5.886718e-10	-1.711555e+01	-4.072877e+01
1.310000e-06	-2.418500e-06	-5.822774e-10	-1.682141e+01	-4.048730e+01
1.320000e-06	-2.375943e-06	-5.792556e-10	-1.652541e+01	-4.023990e+01
1.330000e-06	-2.333178e-06	-5.762891e-10	-1.622797e+01	-3.998652e+01
1.340000e-06	-2.290251e-06	-5.735507e-10	-1.592940e+01	-3.972714e+01
1.350000e-06	-2.247129e-06	-5.705186e-10	-1.562947e+01	-3.946174e+01
1.360000e-06	-2.203769e-06	-5.677944e-10	-1.532789e+01	-3.919030e+01
1.370000e-06	-2.160272e-06	-5.643487e-10	-1.502535e+01	-3.891283e+01
1.380000e-06	-2.116722e-06	-5.621859e-10	-1.472245e+01	-3.862930e+01
1.390000e-06	-2.073127e-06	-5.570379e-10	-1.441923e+01	-3.833973e+01
1.400000e-06	-2.029431e-06	-5.502994e-10	-1.411531e+01	-3.804412e+01
1.410000e-06	-1.985632e-06	-5.441969e-10	-1.381068e+01	-3.774245e+01
1.420000e-06	-1.941788e-06	-5.420110e-10	-1.350573e+01	-3.743474e+01
1.430000e-06	-1.897888e-06	-5.406778e-10	-1.320039e+01	-3.712095e+01
1.440000e-06	-1.853836e-06	-5.369145e-10	-1.289400e+01	-3.680110e+01
1.450000e-06	-1.809639e-06	-5.327781e-10	-1.258659e+01	-3.647514e+01
1.460000e-06	-1.765361e-06	-5.282699e-10	-1.227863e+01	-3.614305e+01
1.470000e-06	-1.720920e-06	-5.207876e-10	-1.196952e+01	-3.580478e+01
1.480000e-06	-1.676333e-06	-5.132413e-10	-1.165941e+01	-3.546028e+01
1.490000e-06	-1.631667e-06	-5.078383e-10	-1.134875e+01	-3.510949e+01
1.500000e-06	-1.586803e-06	-5.051624e-10	-1.103670e+01	-3.475232e+01
1.510000e-06	-1.541724e-06	-5.046123e-10	-1.072316e+01	-3.438867e+01
1.520000e-06	-1.496513e-06	-5.021551e-10	-1.040871e+01	-3.401843e+01
1.530000e-06	-1.451294e-06	-4.963666e-10	-1.009419e+01	-3.364147e+01
1.540000e-06	-1.406043e-06	-4.894553e-10	-9.779458e+00	-3.325765e+01
1.550000e-06	-1.360664e-06	-4.820111e-10	-9.463833e+00	-3.286678e+01
1.560000e-06	-1.315152e-06	-4.723732e-10	-9.147285e+00	-3.246871e+01
1.570000e-06	-1.269560e-06	-4.636054e-10	-8.830177e+00	-3.206322e+01
1.580000e-06	-1.223900e-06	-4.568525e-10	-8.512597e+00	-3.165010e+01
1.590000e-06	-1.178159e-06	-4.520436e-10	-8.194454e+00	-3.122913e+01
1.600000e-06	-1.132392e-06	-4.499839e-10	-7.876135e+00	-3.080005e+01
1.610000e-06	-1.086512e-06	-4.472682e-10	-7.557025e+00	-3.036262e+01
1.620000e-06	-1.040482e-06	-4.381104e-10	-7.236868e+00	-2.991657e+01
1.630000e-06	-9.944056e-07	-4.264575e-10	-6.916395e+00	-2.946162e+01
1.640000e-06	-9.483165e-07	-4.158794e-10	-6.595832e+00	-2.899748e+01
1.650000e-06	-9.021377e-07	-4.074201e-10	-6.274644e+00	-2.852387e+01
1.660000e-06	-8.559281e-07	-4.000032e-10	-5.953242e+00	-2.804048e+01
1.670000e-06	-8.096966e-07	-3.951695e-10	-5.631688e+00	-2.754704e+01
1.680000e-06	-7.633703e-07	-3.903339e-10	-5.309474e+00	-2.704324e+01
1.690000e-06	-7.169898e-07	-3.823015e-10	-4.986883e+00	-2.652880e+01
1.700000e-06	-6.705409e-07	-3.726298e-10	-4.663817e+00	-2.600344e+01
1.710000e-06	-6.239650e-07	-3.639142e-10	-4.339868e+00	-2.546689e+01
1.720000e-06	-5.773636e-07	-3.540343e-10	-4.015741e+00	-2.491889e+01
1.730000e-06	-5.308445e-07	-3.425461e-10	-3.692186e+00	-2.435921e+01
1.740000e-06	-4.843111e-07	-3.310675e-10	-3.368532e+00	-2.378762e+01
1.750000e-06	-4.376618e-07	-3.214322e-10	-3.044072e+00	-2.320392e+01
1.760000e-06	-3.909374e-07	-3.146163e-10	-2.719090e+00	-2.260793e+01
1.770000e-06	-3.442474e-07	-3.087848e-10	-2.394346e+00	-2.199952e+01
1.780000e-06	-2.975497e-07	-3.012874e-10	-2.069549e+00	-2.137855e+01
1.790000e-06	-2.508078e-07	-2.919634e-10	-1.744445e+00	-2.074495e+01
1.800000e-06	-2.040754e-07	-2.820838e-10	-1.419407e+00	-2.009865e+01
1.810000e-06	-1.572917e-07	-2.719714e-10	-1.094012e+00	-1.943964e+01
1.820000e-06	-1.104518e-07	-2.607543e-10	-7.682260e-01	-1.876794e+01
1.830000e-06	-6.365999e-08	-2.488592e-10	-4.427747e-01	-1.808361e+01
1.840000e-06	-1.690820e-08	-2.366268e-10	-1.176017e-01	-1.738674e+01
1.850000e-06	2.984533e-08	-2.255921e-10	2.075834e-01	-1.667748e+01
1.860000e-06	7.662746e-08	-2.171374e-10	5.329674e-01	-1.595600e+01
1.870000e-06	1.234813e-07	-2.070087e-10	8.588503e-01	-1.522253e+01
1.880000e-06	1.702875e-07	-1.947014e-10	1.184402e+00	-1.447732e+01
1.890000e-06	2.170340e-07	-1.822190e-10	1.509538e+00	-1.372069e+01
1.900000e-06	2.637336e-07	-1.711517e-10	1.834348e+00	-1.295298e+01
1.910000e-06	3.103648e-07	-1.603422e-10	2.158682e+00	-1.217458e+01
1.920000e-06	3.570347e-07	-1.494749e-10	2.483286e+00	-1.138590e+01
1.930000e-06	4.037178e-07	-1.377703e-10	2.807981e+00	-1.058742e+01
1.940000e-06	4.503950e-07	-1.245806e-10	3.132635e+00	-9.779630e+00
1.950000e-06	4.970538e-07	-1.116016e-10	3.457161e+00	-8.963056e+00
1.960000e-06	5.435994e-07	-1.003679e-10	3.780901e+00	-8.138265e+00
1.970000e-06	5.900695e-07	-8.926218e-11	4.104114e+00	-7.305847e+00
1.980000e-06	6.365154e-07	-7.882010e-11	4.427159e+00	-6.466419e+00
1.990000e-06	6.829410e-07	-6.979284e-11	4.750064e+00	-5.620621e+00
2.000000e-06	7.293480e-07	-6.221260e-11	5.072839e+00	-4.769115e+00
2.010000e-06	7.757778e-07	-5.270748e-11	5.395772e+00	-3.912579e+00
2.020000e-06	8.221514e-07	-4.153434e-11	5.718315e+00	-3.051706e+00
2.030000e-06	8.682525e-07	-2.621084e-11	6.038962e+00	-2.187198e+00
2.040000e-06	9.142648e-07	-7.776737e-12	6.358992e+00	-1.319767e+00
2.050000e-06	9.602969e-07	7.966743e-12	6.679159e+00	-4.501292e-01
2.060000e-06	1.006273e-06	2.064261e-11	6.998939e+00	4.210004e-01
2.070000e-06	1.052226e-06	2.950097e-11	7.318555e+00	1.292907e+00
2.080000e-06	1.098127e-06	3.505915e-11	7.637810e+00	2.164882e+00
2.090000e-06	1.143901e-06	4.374976e-11	7.956181e+00	3.036226e+00
2.100000e-06	1.189545e-06	5.814118e-11	8.273646e+00	3.906248e+00
2.110000e-06	1.235155e-06	7.615068e-11	8.590880e+00	4.774276e+00
2.120000e-06	1.280744e-06	9.393468e-11	8.907964e+00	5.639651e+00
2.130000e-06	1.326191e-06	1.102461e-10	9.224061e+00	6.501735e+00
2.140000e-06	1.371508e-06	1.229760e-10	9.539261e+00	7.359911e+00
2.150000e-06	1.416825e-06	1.308087e-10	9.854452e+00	8.213587e+00
2.160000e-06	1.462048e-06	1.384725e-10	1.016899e+01	9.062195e+00
2.170000e-06	1.507107e-06	1.482167e-10	1.048239e+01	9.905194e+00
2.180000e-06	1.552021e-06	1.616699e-10	1.079478e+01	1.074207e+01
2.190000e-06	1.596804e-06	1.757517e-10	1.110626e+01	1.157235e+01
2.200000e-06	1.641388e-06	1.884042e-10	1.141636e+01	1.239557e+01
2.210000e-06	1.685806e-06	1.996695e-10	1.172529e+01	1.321132e+01
2.220000e-06	1.730207e-06	2.090935e-10	1.203412e+01	1.401919e+01
2.230000e-06	1.774517e-06	2.179456e-10	1.234231e+01	1.481885e+01
2.240000e-06	1.818692e-06	2.293483e-10	1.264956e+01	1.560995e+01
2.250000e-06	1.862767e-06	2.423688e-10	1.295612e+01	1.639219e+01
2.260000e-06	1.906704e-06	2.558658e-10	1.326171e+01	1.716532e+01
2.270000e-06	1.950532e-06	2.668056e-10	1.356655e+01	1.792910e+01
2.280000e-06	1.994320e-06	2.767172e-10	1.387111e+01	1.868330e+01
2.290000e-06	2.038068e-06	2.846830e-10	1.417539e+01	1.942776e+01
2.300000e-06	2.081726e-06	2.933878e-10	1.447904e+01	2.016231e+01
2.310000e-06	2.125274e-06	3.032321e-10	1.478193e+01	2.088682e+01
2.320000e-06	2.168709e-06	3.146387e-10	1.508404e+01	2.160117e+01
2.330000e-06	2.212058e-06	3.271229e-10	1.538554e+01	2.230529e+01
2.340000e-06	2.255353e-06	3.387713e-10	1.568667e+01	2.299910e+01
2.350000e-06	2.298509e-06	3.491176e-10	1.598684e+01	2.368254e+01
2.360000e-06	2.341416e-06	3.577942e-10	1.628526e+01	2.435558e+01
2.370000e-06	2.384024e-06	3.664332e-10	1.658161e+01	2.501820e+01
2.380000e-06	2.426297e-06	3.759014e-10	1.687564e+01	2.567038e+01
2.390000e-06	2.468323e-06	3.854682e-10	1.716794e+01	2.631213e+01
2.400000e-06	2.510111e-06	3.954041e-10	1.745859e+01	2.694345e+01
2.410000e-06	2.551616e-06	4.052920e-10	1.774727e+01	2.756436e+01
2.420000e-06	2.592891e-06	4.143006e-10	1.803435e+01	2.817488e+01
2.430000e-06	2.633876e-06	4.241376e-10	1.831942e+01	2.877504e+01
2.440000e-06	2.674487e-06	4.316193e-10	1.860188e+01	2.936486e+01
2.450000e-06	2.714776e-06	4.372732e-10	1.888210e+01	2.994437e+01
2.460000e-06	2.754833e-06	4.436715e-10	1.916071e+01	3.051361e+01
2.470000e-06	2.794739e-06	4.535645e-10	1.943826e+01	3.107260e+01
2.480000e-06	2.834563e-06	4.621012e-10	1.971525e+01	3.162139e+01
2.490000e-06	2.874255e-06	4.692503e-10	1.999133e+01	3.215999e+01
2.500000e-06	2.913813e-06	4.772512e-10	2.026646e+01	3.268844e+01
2.510000e-06	2.953208e-06	4.856200e-10	2.054046e+01	3.320677e+01
2.520000e-06	2.992434e-06	4.929430e-10	2.081329e+01	3.371499e+01
2.530000e-06	3.031491e-06	4.999347e-10	2.108495e+01	3.421313e+01
2.540000e-06	3.070289e-06	5.073435e-10	2.135480e+01	3.470122e+01
2.550000e-06	3.108863e-06	5.157931e-10	2.162309e+01	3.517926e+01
2.560000e-06	3.147296e-06	5.244800e-10	2.189041e+01	3.564729e+01
2.570000e-06	3.185550e-06	5.348016e-10	2.215648e+01	3.610532e+01
2.580000e-06	3.223549e-06	5.454273e-10	2.242077e+01	3.655337e+01
2.590000e-06	3.261335e-06	5.511383e-10	2.268358e+01	3.699145e+01
2.600000e-06	3.298971e-06	5.526915e-10	2.294536e+01	3.741960e+01
2.610000e-06	3.336419e-06	5.532307e-10	2.320582e+01	3.783783e+01
2.620000e-06	3.373603e-06	5.544156e-10	2.346444e+01	3.824618e+01
2.630000e-06	3.410515e-06	5.581371e-10	2.372118e+01	3.864467e+01
2.640000e-06	3.447127e-06	5.648205e-10	2.397583e+01	3.903334e+01
2.650000e-06	3.483467e-06	5.764691e-10	2.422858e+01	3.941223e+01
2.660000e-06	3.519560e-06	5.894843e-10	2.447962e+01	3.978139e+01
2.670000e-06	3.555455e-06	5.975146e-10	2.472928e+01	4.014089e+01
2.680000e-06	3.591236e-06	6.000333e-10	2.497814e+01	4.049078e+01
2.690000e-06	3.626836e-06	5.961382e-10	2.522575e+01	4.083114e+01
2.700000e-06	3.662269e-06	5.918082e-10	2.547220e+01	4.116204e+01
2.710000e-06	3.697574e-06	5.932219e-10	2.571776e+01	4.148360e+01
2.720000e-06	3.732560e-06	6.017017e-10	2.596109e+01	4.179590e+01
2.730000e-06	3.767181e-06	6.121256e-10	2.620190e+01	4.209905e+01
2.740000e-06	3.801574e-06	6.227889e-10	2.644111e+01	4.239320e+01
2.750000e-06	3.835577e-06	6.288153e-10	2.667761e+01	4.267846e+01
2.760000e-06	3.869022e-06	6.285081e-10	2.691023e+01	4.295498e+01
2.770000e-06	3.902018e-06	6.256218e-10	2.713973e+01	4.322291e+01
2.780000e-06	3.934633e-06	6.223685e-10	2.736658e+01	4.348243e+01
2.790000e-06	3.966905e-06	6.229512e-10	2.759104e+01	4.373371e+01
2.800000e-06	3.998905e-06	6.261773e-10	2.781361e+01	4.397692e+01
2.810000e-06	4.030699e-06	6.326478e-10	2.803475e+01	4.421226e+01
2.820000e-06	4.062333e-06	6.405742e-10	2.825477e+01	4.443993e+01
2.830000e-06	4.093801e-06	6.464881e-10	2.847364e+01	4.466013e+01
2.840000e-06	4.125108e-06	6.509156e-10	2.869139e+01	4.487307e+01
2.850000e-06	4.156169e-06	6.502670e-10	2.890743e+01	4.507897e+01
2.860000e-06	4.186966e-06	6.477495e-10	2.912163e+01	4.527805e+01
2.870000e-06	4.217413e-06	6.466039e-10	2.933340e+01	4.547053e+01
2.880000e-06	4.247395e-06	6.475304e-10	2.954193e+01	4.565662e+01
2.890000e-06	4.277113e-06	6.501243e-10	2.974863e+01	4.583657e+01
2.900000e-06	4.306610e-06	6.526664e-10	2.995379e+01	4.601059e+01
