# Temperatura_=_-0.3
# Concentracion g/m^3_=_1620.0
# C_Vs_to_Am_M_A/Vsm_=_65563218390.804596
# pendiente_HvsI_1/m_=_3716.3
# ordenada_HvsI_A/m_=_1297.0
# frecuencia_Hz_=_135095.5265835354

Tiempo_(s)	Campo_(V.s)	Magnetizacion_(V.s)	Campo_(kA/m)	Magnetizacion_(A/m)
0.000000e+00	-5.526053e-06	-1.620203e-09	-3.836144e+01	-1.050090e+02
1.000000e-08	-5.526394e-06	-1.616810e-09	-3.836380e+01	-1.049495e+02
2.000000e-08	-5.526555e-06	-1.613306e-09	-3.836492e+01	-1.048892e+02
3.000000e-08	-5.526306e-06	-1.614723e-09	-3.836319e+01	-1.048281e+02
4.000000e-08	-5.525560e-06	-1.616388e-09	-3.835801e+01	-1.047666e+02
5.000000e-08	-5.524282e-06	-1.613844e-09	-3.834914e+01	-1.047049e+02
6.000000e-08	-5.522290e-06	-1.607592e-09	-3.833531e+01	-1.046430e+02
7.000000e-08	-5.519703e-06	-1.593476e-09	-3.831735e+01	-1.045811e+02
8.000000e-08	-5.516686e-06	-1.610707e-09	-3.829641e+01	-1.045194e+02
9.000000e-08	-5.513208e-06	-1.652544e-09	-3.827226e+01	-1.044578e+02
1.000000e-07	-5.509183e-06	-1.649027e-09	-3.824432e+01	-1.043965e+02
1.100000e-07	-5.504821e-06	-1.587440e-09	-3.821404e+01	-1.043353e+02
1.200000e-07	-5.500310e-06	-1.592112e-09	-3.818273e+01	-1.042744e+02
1.300000e-07	-5.495619e-06	-1.608850e-09	-3.815016e+01	-1.042137e+02
1.400000e-07	-5.490553e-06	-1.629904e-09	-3.811500e+01	-1.041530e+02
1.500000e-07	-5.484984e-06	-1.570360e-09	-3.807634e+01	-1.040922e+02
1.600000e-07	-5.479155e-06	-1.606533e-09	-3.803587e+01	-1.040313e+02
1.700000e-07	-5.473039e-06	-1.638756e-09	-3.799341e+01	-1.039700e+02
1.800000e-07	-5.466415e-06	-1.628755e-09	-3.794743e+01	-1.039082e+02
1.900000e-07	-5.459462e-06	-1.556469e-09	-3.789917e+01	-1.038456e+02
2.000000e-07	-5.452157e-06	-1.551504e-09	-3.784846e+01	-1.037820e+02
2.100000e-07	-5.444483e-06	-1.589575e-09	-3.779518e+01	-1.037171e+02
2.200000e-07	-5.436582e-06	-1.610573e-09	-3.774033e+01	-1.036506e+02
2.300000e-07	-5.428406e-06	-1.590287e-09	-3.768358e+01	-1.035824e+02
2.400000e-07	-5.419910e-06	-1.566100e-09	-3.762460e+01	-1.035119e+02
2.500000e-07	-5.410859e-06	-1.575967e-09	-3.756177e+01	-1.034390e+02
2.600000e-07	-5.400976e-06	-1.561573e-09	-3.749316e+01	-1.033633e+02
2.700000e-07	-5.390382e-06	-1.568668e-09	-3.741961e+01	-1.032844e+02
2.800000e-07	-5.379273e-06	-1.556877e-09	-3.734250e+01	-1.032020e+02
2.900000e-07	-5.367786e-06	-1.579380e-09	-3.726275e+01	-1.031159e+02
3.000000e-07	-5.356023e-06	-1.568127e-09	-3.718110e+01	-1.030256e+02
3.100000e-07	-5.343929e-06	-1.577540e-09	-3.709714e+01	-1.029308e+02
3.200000e-07	-5.331279e-06	-1.542049e-09	-3.700933e+01	-1.028313e+02
3.300000e-07	-5.318133e-06	-1.561401e-09	-3.691807e+01	-1.027267e+02
3.400000e-07	-5.304701e-06	-1.552943e-09	-3.682482e+01	-1.026166e+02
3.500000e-07	-5.290903e-06	-1.548971e-09	-3.672904e+01	-1.025009e+02
3.600000e-07	-5.276640e-06	-1.534002e-09	-3.663003e+01	-1.023793e+02
3.700000e-07	-5.261948e-06	-1.575712e-09	-3.652804e+01	-1.022514e+02
3.800000e-07	-5.246742e-06	-1.546022e-09	-3.642248e+01	-1.021172e+02
3.900000e-07	-5.230854e-06	-1.518363e-09	-3.631219e+01	-1.019763e+02
4.000000e-07	-5.214557e-06	-1.537564e-09	-3.619906e+01	-1.018286e+02
4.100000e-07	-5.198033e-06	-1.555154e-09	-3.608435e+01	-1.016739e+02
4.200000e-07	-5.181164e-06	-1.508483e-09	-3.596724e+01	-1.015122e+02
4.300000e-07	-5.163878e-06	-1.522441e-09	-3.584724e+01	-1.013432e+02
4.400000e-07	-5.146292e-06	-1.564974e-09	-3.572516e+01	-1.011670e+02
4.500000e-07	-5.128420e-06	-1.519328e-09	-3.560110e+01	-1.009833e+02
4.600000e-07	-5.110074e-06	-1.486550e-09	-3.547374e+01	-1.007923e+02
4.700000e-07	-5.091214e-06	-1.532107e-09	-3.534282e+01	-1.005939e+02
4.800000e-07	-5.071973e-06	-1.522657e-09	-3.520924e+01	-1.003881e+02
4.900000e-07	-5.052516e-06	-1.471201e-09	-3.507418e+01	-1.001749e+02
5.000000e-07	-5.032887e-06	-1.513933e-09	-3.493791e+01	-9.995439e+01
5.100000e-07	-5.013132e-06	-1.522108e-09	-3.480078e+01	-9.972667e+01
5.200000e-07	-4.993117e-06	-1.462106e-09	-3.466183e+01	-9.949183e+01
5.300000e-07	-4.972643e-06	-1.469687e-09	-3.451971e+01	-9.924997e+01
5.400000e-07	-4.951735e-06	-1.513942e-09	-3.437456e+01	-9.900122e+01
5.500000e-07	-4.930427e-06	-1.452746e-09	-3.422664e+01	-9.874575e+01
5.600000e-07	-4.908819e-06	-1.438572e-09	-3.407664e+01	-9.848369e+01
5.700000e-07	-4.886924e-06	-1.489726e-09	-3.392465e+01	-9.821523e+01
5.800000e-07	-4.864684e-06	-1.475543e-09	-3.377026e+01	-9.794055e+01
5.900000e-07	-4.842054e-06	-1.427489e-09	-3.361317e+01	-9.765982e+01
6.000000e-07	-4.819074e-06	-1.465074e-09	-3.345364e+01	-9.737324e+01
6.100000e-07	-4.795830e-06	-1.461779e-09	-3.329228e+01	-9.708101e+01
6.200000e-07	-4.772395e-06	-1.422733e-09	-3.312960e+01	-9.678331e+01
6.300000e-07	-4.748779e-06	-1.432484e-09	-3.296566e+01	-9.648035e+01
6.400000e-07	-4.724890e-06	-1.453247e-09	-3.279983e+01	-9.617231e+01
6.500000e-07	-4.700605e-06	-1.417755e-09	-3.263124e+01	-9.585939e+01
6.600000e-07	-4.675857e-06	-1.419530e-09	-3.245944e+01	-9.554175e+01
6.700000e-07	-4.650592e-06	-1.431710e-09	-3.228405e+01	-9.521958e+01
6.800000e-07	-4.624785e-06	-1.412703e-09	-3.210490e+01	-9.489302e+01
6.900000e-07	-4.598424e-06	-1.397442e-09	-3.192191e+01	-9.456224e+01
7.000000e-07	-4.571542e-06	-1.409229e-09	-3.173529e+01	-9.422738e+01
7.100000e-07	-4.544351e-06	-1.394555e-09	-3.154654e+01	-9.388854e+01
7.200000e-07	-4.516932e-06	-1.379270e-09	-3.135619e+01	-9.354586e+01
7.300000e-07	-4.489332e-06	-1.386557e-09	-3.116459e+01	-9.319942e+01
7.400000e-07	-4.461616e-06	-1.385285e-09	-3.097220e+01	-9.284929e+01
7.500000e-07	-4.433601e-06	-1.368107e-09	-3.077772e+01	-9.249555e+01
7.600000e-07	-4.405277e-06	-1.366509e-09	-3.058109e+01	-9.213824e+01
7.700000e-07	-4.376667e-06	-1.369020e-09	-3.038249e+01	-9.177739e+01
7.800000e-07	-4.347641e-06	-1.354508e-09	-3.018099e+01	-9.141300e+01
7.900000e-07	-4.318380e-06	-1.350823e-09	-2.997786e+01	-9.104508e+01
8.000000e-07	-4.288902e-06	-1.350710e-09	-2.977323e+01	-9.067359e+01
8.100000e-07	-4.259090e-06	-1.335675e-09	-2.956627e+01	-9.029852e+01
8.200000e-07	-4.228900e-06	-1.316499e-09	-2.935670e+01	-8.991980e+01
8.300000e-07	-4.198421e-06	-1.317347e-09	-2.914512e+01	-8.953736e+01
8.400000e-07	-4.167724e-06	-1.308347e-09	-2.893202e+01	-8.915112e+01
8.500000e-07	-4.136778e-06	-1.298966e-09	-2.871719e+01	-8.876100e+01
8.600000e-07	-4.105585e-06	-1.299288e-09	-2.850065e+01	-8.836688e+01
8.700000e-07	-4.074211e-06	-1.299881e-09	-2.828286e+01	-8.796865e+01
8.800000e-07	-4.042664e-06	-1.282626e-09	-2.806386e+01	-8.756619e+01
8.900000e-07	-4.010905e-06	-1.277606e-09	-2.784339e+01	-8.715936e+01
9.000000e-07	-3.978912e-06	-1.270012e-09	-2.762130e+01	-8.674802e+01
9.100000e-07	-3.946603e-06	-1.253968e-09	-2.739701e+01	-8.633203e+01
9.200000e-07	-3.913925e-06	-1.241321e-09	-2.717016e+01	-8.591124e+01
9.300000e-07	-3.880809e-06	-1.243784e-09	-2.694028e+01	-8.548550e+01
9.400000e-07	-3.847229e-06	-1.236768e-09	-2.670717e+01	-8.505467e+01
9.500000e-07	-3.813157e-06	-1.229742e-09	-2.647064e+01	-8.461858e+01
9.600000e-07	-3.778569e-06	-1.228582e-09	-2.623053e+01	-8.417710e+01
9.700000e-07	-3.743610e-06	-1.222505e-09	-2.598785e+01	-8.373007e+01
9.800000e-07	-3.708390e-06	-1.204746e-09	-2.574336e+01	-8.327736e+01
9.900000e-07	-3.672954e-06	-1.198090e-09	-2.549736e+01	-8.281884e+01
1.000000e-06	-3.637441e-06	-1.194129e-09	-2.525083e+01	-8.235437e+01
1.010000e-06	-3.601874e-06	-1.185016e-09	-2.500393e+01	-8.188384e+01
1.020000e-06	-3.566147e-06	-1.180569e-09	-2.475592e+01	-8.140714e+01
1.030000e-06	-3.530153e-06	-1.179378e-09	-2.450605e+01	-8.092417e+01
1.040000e-06	-3.493934e-06	-1.167625e-09	-2.425462e+01	-8.043483e+01
1.050000e-06	-3.457540e-06	-1.155261e-09	-2.400198e+01	-7.993906e+01
1.060000e-06	-3.420877e-06	-1.151659e-09	-2.374746e+01	-7.943678e+01
1.070000e-06	-3.383826e-06	-1.144940e-09	-2.349026e+01	-7.892794e+01
1.080000e-06	-3.346461e-06	-1.133490e-09	-2.323088e+01	-7.841249e+01
1.090000e-06	-3.308941e-06	-1.125507e-09	-2.297041e+01	-7.789042e+01
1.100000e-06	-3.271242e-06	-1.119791e-09	-2.270871e+01	-7.736169e+01
1.110000e-06	-3.233325e-06	-1.104801e-09	-2.244549e+01	-7.682630e+01
1.120000e-06	-3.195222e-06	-1.094443e-09	-2.218099e+01	-7.628426e+01
1.130000e-06	-3.156908e-06	-1.086802e-09	-2.191501e+01	-7.573559e+01
1.140000e-06	-3.118363e-06	-1.078294e-09	-2.164744e+01	-7.518031e+01
1.150000e-06	-3.079503e-06	-1.068230e-09	-2.137767e+01	-7.461845e+01
1.160000e-06	-3.040292e-06	-1.062752e-09	-2.110547e+01	-7.405007e+01
1.170000e-06	-3.000955e-06	-1.052970e-09	-2.083240e+01	-7.347522e+01
1.180000e-06	-2.961568e-06	-1.039536e-09	-2.055898e+01	-7.289396e+01
1.190000e-06	-2.922011e-06	-1.028517e-09	-2.028438e+01	-7.230635e+01
1.200000e-06	-2.882352e-06	-1.020992e-09	-2.000907e+01	-7.171246e+01
1.210000e-06	-2.842655e-06	-1.011689e-09	-1.973349e+01	-7.111237e+01
1.220000e-06	-2.802791e-06	-1.005154e-09	-1.945676e+01	-7.050614e+01
1.230000e-06	-2.762687e-06	-9.984378e-10	-1.917836e+01	-6.989385e+01
1.240000e-06	-2.722358e-06	-9.877764e-10	-1.889840e+01	-6.927556e+01
1.250000e-06	-2.681861e-06	-9.718473e-10	-1.861728e+01	-6.865135e+01
1.260000e-06	-2.641067e-06	-9.616891e-10	-1.833408e+01	-6.802128e+01
1.270000e-06	-2.599973e-06	-9.536302e-10	-1.804881e+01	-6.738539e+01
1.280000e-06	-2.558589e-06	-9.470885e-10	-1.776153e+01	-6.674373e+01
1.290000e-06	-2.516817e-06	-9.410780e-10	-1.747155e+01	-6.609632e+01
1.300000e-06	-2.474767e-06	-9.328136e-10	-1.717964e+01	-6.544320e+01
1.310000e-06	-2.432467e-06	-9.186027e-10	-1.688600e+01	-6.478435e+01
1.320000e-06	-2.389758e-06	-9.021856e-10	-1.658952e+01	-6.411978e+01
1.330000e-06	-2.346842e-06	-8.878077e-10	-1.629159e+01	-6.344944e+01
1.340000e-06	-2.303924e-06	-8.756874e-10	-1.599366e+01	-6.277328e+01
1.350000e-06	-2.260731e-06	-8.674590e-10	-1.569382e+01	-6.209124e+01
1.360000e-06	-2.217337e-06	-8.621055e-10	-1.539258e+01	-6.140322e+01
1.370000e-06	-2.173892e-06	-8.541459e-10	-1.509099e+01	-6.070909e+01
1.380000e-06	-2.130328e-06	-8.419109e-10	-1.478857e+01	-6.000872e+01
1.390000e-06	-2.086630e-06	-8.274751e-10	-1.448522e+01	-5.930193e+01
1.400000e-06	-2.042847e-06	-8.094780e-10	-1.418129e+01	-5.858852e+01
1.410000e-06	-1.999027e-06	-7.934152e-10	-1.387709e+01	-5.786827e+01
1.420000e-06	-1.955116e-06	-7.815598e-10	-1.357227e+01	-5.714093e+01
1.430000e-06	-1.911100e-06	-7.752449e-10	-1.326671e+01	-5.640621e+01
1.440000e-06	-1.867026e-06	-7.684736e-10	-1.296075e+01	-5.566380e+01
1.450000e-06	-1.822881e-06	-7.594465e-10	-1.265430e+01	-5.491336e+01
1.460000e-06	-1.778596e-06	-7.475773e-10	-1.234688e+01	-5.415451e+01
1.470000e-06	-1.734193e-06	-7.361666e-10	-1.203863e+01	-5.338687e+01
1.480000e-06	-1.689759e-06	-7.223825e-10	-1.173017e+01	-5.261001e+01
1.490000e-06	-1.645185e-06	-7.099646e-10	-1.142075e+01	-5.182348e+01
1.500000e-06	-1.600334e-06	-6.996821e-10	-1.110940e+01	-5.102680e+01
1.510000e-06	-1.555248e-06	-6.893795e-10	-1.079641e+01	-5.021947e+01
1.520000e-06	-1.510051e-06	-6.762985e-10	-1.048266e+01	-4.940098e+01
1.530000e-06	-1.464842e-06	-6.634849e-10	-1.016882e+01	-4.857078e+01
1.540000e-06	-1.419535e-06	-6.521727e-10	-9.854301e+00	-4.772831e+01
1.550000e-06	-1.374106e-06	-6.404418e-10	-9.538939e+00	-4.687300e+01
1.560000e-06	-1.328601e-06	-6.261203e-10	-9.223043e+00	-4.600427e+01
1.570000e-06	-1.282981e-06	-6.113530e-10	-8.906353e+00	-4.512151e+01
1.580000e-06	-1.237362e-06	-5.967950e-10	-8.589674e+00	-4.422413e+01
1.590000e-06	-1.191640e-06	-5.803416e-10	-8.272275e+00	-4.331151e+01
1.600000e-06	-1.145744e-06	-5.635772e-10	-7.953667e+00	-4.238306e+01
1.610000e-06	-1.099781e-06	-5.474412e-10	-7.634593e+00	-4.143816e+01
1.620000e-06	-1.053724e-06	-5.300378e-10	-7.314873e+00	-4.047623e+01
1.630000e-06	-1.007646e-06	-5.130096e-10	-6.994999e+00	-3.949668e+01
1.640000e-06	-9.615132e-07	-4.982713e-10	-6.674750e+00	-3.849893e+01
1.650000e-06	-9.153558e-07	-4.832661e-10	-6.354329e+00	-3.748244e+01
1.660000e-06	-8.691423e-07	-4.663117e-10	-6.033519e+00	-3.644668e+01
1.670000e-06	-8.227755e-07	-4.494821e-10	-5.711644e+00	-3.539115e+01
1.680000e-06	-7.763473e-07	-4.344764e-10	-5.389343e+00	-3.431538e+01
1.690000e-06	-7.297668e-07	-4.197339e-10	-5.065985e+00	-3.321894e+01
1.700000e-06	-6.830931e-07	-4.029196e-10	-4.741979e+00	-3.210143e+01
1.710000e-06	-6.364429e-07	-3.841900e-10	-4.418137e+00	-3.096251e+01
1.720000e-06	-5.897596e-07	-3.655897e-10	-4.094066e+00	-2.980187e+01
1.730000e-06	-5.431122e-07	-3.457037e-10	-3.770243e+00	-2.861926e+01
1.740000e-06	-4.965073e-07	-3.251477e-10	-3.446715e+00	-2.741449e+01
1.750000e-06	-4.498184e-07	-3.053458e-10	-3.122605e+00	-2.618742e+01
1.760000e-06	-4.030387e-07	-2.874299e-10	-2.797864e+00	-2.493796e+01
1.770000e-06	-3.561581e-07	-2.695338e-10	-2.472422e+00	-2.366612e+01
1.780000e-06	-3.092401e-07	-2.517241e-10	-2.146721e+00	-2.237195e+01
1.790000e-06	-2.623663e-07	-2.337386e-10	-1.821326e+00	-2.105556e+01
1.800000e-06	-2.155284e-07	-2.172322e-10	-1.496181e+00	-1.971717e+01
1.810000e-06	-1.685823e-07	-1.981544e-10	-1.170286e+00	-1.835703e+01
1.820000e-06	-1.216134e-07	-1.757858e-10	-8.442311e-01	-1.697550e+01
1.830000e-06	-7.472033e-08	-1.532310e-10	-5.187028e-01	-1.557300e+01
1.840000e-06	-2.784220e-08	-1.308186e-10	-1.932784e-01	-1.415001e+01
1.850000e-06	1.906079e-08	-1.096127e-10	1.323185e-01	-1.270713e+01
1.860000e-06	6.597846e-08	-9.098906e-11	4.580174e-01	-1.124499e+01
1.870000e-06	1.128856e-07	-7.068038e-11	7.836434e-01	-9.764315e+00
1.880000e-06	1.598610e-07	-5.062864e-11	1.109743e+00	-8.265915e+00
1.890000e-06	2.067250e-07	-3.200884e-11	1.435069e+00	-6.750657e+00
1.900000e-06	2.535403e-07	-1.228476e-11	1.760057e+00	-5.219484e+00
1.910000e-06	3.003892e-07	6.834671e-12	2.085279e+00	-3.673407e+00
1.920000e-06	3.472007e-07	2.814872e-11	2.410241e+00	-2.113502e+00
1.930000e-06	3.939586e-07	5.326923e-11	2.734830e+00	-5.409075e-01
1.940000e-06	4.407330e-07	7.729437e-11	3.059534e+00	1.043180e+00
1.950000e-06	4.874389e-07	1.013995e-10	3.383763e+00	2.637511e+00
1.960000e-06	5.339746e-07	1.242463e-10	3.706810e+00	4.240785e+00
1.970000e-06	5.804610e-07	1.453186e-10	4.029516e+00	5.851656e+00
1.980000e-06	6.269346e-07	1.669592e-10	4.352132e+00	7.468741e+00
1.990000e-06	6.734411e-07	1.851161e-10	4.674976e+00	9.090622e+00
2.000000e-06	7.200157e-07	2.018348e-10	4.998293e+00	1.071585e+01
2.010000e-06	7.664735e-07	2.219140e-10	5.320800e+00	1.234296e+01
2.020000e-06	8.128009e-07	2.456870e-10	5.642401e+00	1.397046e+01
2.030000e-06	8.591257e-07	2.711533e-10	5.963985e+00	1.559686e+01
2.040000e-06	9.053829e-07	3.019006e-10	6.285098e+00	1.722065e+01
2.050000e-06	9.515865e-07	3.298370e-10	6.605840e+00	1.884035e+01
2.060000e-06	9.977127e-07	3.514398e-10	6.926044e+00	2.045446e+01
2.070000e-06	1.043745e-06	3.697798e-10	7.245596e+00	2.206152e+01
2.080000e-06	1.089715e-06	3.856219e-10	7.564718e+00	2.366007e+01
2.090000e-06	1.135569e-06	4.012405e-10	7.883036e+00	2.524869e+01
2.100000e-06	1.181274e-06	4.222089e-10	8.200310e+00	2.682600e+01
2.110000e-06	1.226884e-06	4.472763e-10	8.516937e+00	2.839066e+01
2.120000e-06	1.272469e-06	4.740624e-10	8.833381e+00	2.994137e+01
2.130000e-06	1.318002e-06	5.019218e-10	9.149466e+00	3.147687e+01
2.140000e-06	1.363423e-06	5.264758e-10	9.464774e+00	3.299599e+01
2.150000e-06	1.408743e-06	5.448377e-10	9.779383e+00	3.449759e+01
2.160000e-06	1.454031e-06	5.578707e-10	1.009377e+01	3.598063e+01
2.170000e-06	1.499308e-06	5.708962e-10	1.040808e+01	3.744410e+01
2.180000e-06	1.544540e-06	5.864534e-10	1.072208e+01	3.888709e+01
2.190000e-06	1.589632e-06	6.066090e-10	1.103510e+01	4.030878e+01
2.200000e-06	1.634516e-06	6.343523e-10	1.134669e+01	4.170840e+01
2.210000e-06	1.679232e-06	6.625902e-10	1.165710e+01	4.308528e+01
2.220000e-06	1.723832e-06	6.830153e-10	1.196671e+01	4.443882e+01
2.230000e-06	1.768223e-06	6.974868e-10	1.227486e+01	4.576854e+01
2.240000e-06	1.812428e-06	7.097762e-10	1.258174e+01	4.707400e+01
2.250000e-06	1.856592e-06	7.215003e-10	1.288832e+01	4.835488e+01
2.260000e-06	1.900595e-06	7.340276e-10	1.319378e+01	4.961093e+01
2.270000e-06	1.944478e-06	7.501409e-10	1.349841e+01	5.084199e+01
2.280000e-06	1.988315e-06	7.697172e-10	1.380273e+01	5.204797e+01
2.290000e-06	2.032039e-06	7.902403e-10	1.410626e+01	5.322889e+01
2.300000e-06	2.075720e-06	8.089427e-10	1.440949e+01	5.438482e+01
2.310000e-06	2.119408e-06	8.228865e-10	1.471277e+01	5.551592e+01
2.320000e-06	2.163029e-06	8.337201e-10	1.501558e+01	5.662242e+01
2.330000e-06	2.206481e-06	8.456805e-10	1.531722e+01	5.770461e+01
2.340000e-06	2.249808e-06	8.589719e-10	1.561799e+01	5.876285e+01
2.350000e-06	2.293062e-06	8.733274e-10	1.591826e+01	5.979757e+01
2.360000e-06	2.336183e-06	8.898203e-10	1.621760e+01	6.080923e+01
2.370000e-06	2.379131e-06	9.077779e-10	1.651574e+01	6.179837e+01
2.380000e-06	2.421795e-06	9.213963e-10	1.681191e+01	6.276554e+01
2.390000e-06	2.464198e-06	9.329455e-10	1.710627e+01	6.371136e+01
2.400000e-06	2.506379e-06	9.431881e-10	1.739909e+01	6.463646e+01
2.410000e-06	2.548146e-06	9.524856e-10	1.768903e+01	6.554152e+01
2.420000e-06	2.589538e-06	9.634393e-10	1.797637e+01	6.642721e+01
2.430000e-06	2.630632e-06	9.764731e-10	1.826165e+01	6.729424e+01
2.440000e-06	2.671423e-06	9.906306e-10	1.854481e+01	6.814333e+01
2.450000e-06	2.711989e-06	1.003131e-09	1.882642e+01	6.897519e+01
2.460000e-06	2.752291e-06	1.015726e-09	1.910619e+01	6.979054e+01
2.470000e-06	2.792355e-06	1.028187e-09	1.938431e+01	7.059009e+01
2.480000e-06	2.832279e-06	1.037879e-09	1.966146e+01	7.137452e+01
2.490000e-06	2.872063e-06	1.045176e-09	1.993764e+01	7.214454e+01
2.500000e-06	2.911715e-06	1.053435e-09	2.021290e+01	7.290078e+01
2.510000e-06	2.951242e-06	1.064389e-09	2.048729e+01	7.364390e+01
2.520000e-06	2.990627e-06	1.075536e-09	2.076071e+01	7.437449e+01
2.530000e-06	3.029881e-06	1.088356e-09	2.103320e+01	7.509312e+01
2.540000e-06	3.068953e-06	1.103640e-09	2.130444e+01	7.580034e+01
2.550000e-06	3.107788e-06	1.118434e-09	2.157402e+01	7.649664e+01
2.560000e-06	3.146323e-06	1.127881e-09	2.184153e+01	7.718249e+01
2.570000e-06	3.184558e-06	1.133119e-09	2.210695e+01	7.785829e+01
2.580000e-06	3.222577e-06	1.140074e-09	2.237088e+01	7.852442e+01
2.590000e-06	3.260432e-06	1.148841e-09	2.263367e+01	7.918121e+01
2.600000e-06	3.298119e-06	1.156738e-09	2.289529e+01	7.982894e+01
2.610000e-06	3.335663e-06	1.164357e-09	2.315592e+01	8.046786e+01
2.620000e-06	3.373020e-06	1.172525e-09	2.341524e+01	8.109816e+01
2.630000e-06	3.410034e-06	1.182772e-09	2.367219e+01	8.171999e+01
2.640000e-06	3.446729e-06	1.192907e-09	2.392693e+01	8.233347e+01
2.650000e-06	3.483137e-06	1.201783e-09	2.417967e+01	8.293866e+01
2.660000e-06	3.519316e-06	1.212381e-09	2.443082e+01	8.353561e+01
2.670000e-06	3.555314e-06	1.221580e-09	2.468071e+01	8.412431e+01
2.680000e-06	3.591138e-06	1.228082e-09	2.492940e+01	8.470473e+01
2.690000e-06	3.626833e-06	1.232600e-09	2.517720e+01	8.527680e+01
2.700000e-06	3.662366e-06	1.236661e-09	2.542386e+01	8.584045e+01
2.710000e-06	3.697768e-06	1.242605e-09	2.566962e+01	8.639555e+01
2.720000e-06	3.733051e-06	1.252475e-09	2.591455e+01	8.694197e+01
2.730000e-06	3.768005e-06	1.264112e-09	2.615720e+01	8.747958e+01
2.740000e-06	3.802539e-06	1.273736e-09	2.639693e+01	8.800822e+01
2.750000e-06	3.836733e-06	1.279870e-09	2.663431e+01	8.852771e+01
2.760000e-06	3.870597e-06	1.283596e-09	2.686938e+01	8.903788e+01
2.770000e-06	3.903974e-06	1.284361e-09	2.710108e+01	8.953858e+01
2.780000e-06	3.936813e-06	1.285424e-09	2.732905e+01	9.002963e+01
2.790000e-06	3.969223e-06	1.290502e-09	2.755404e+01	9.051087e+01
2.800000e-06	4.001282e-06	1.298185e-09	2.777659e+01	9.098214e+01
2.810000e-06	4.033123e-06	1.307012e-09	2.799763e+01	9.144333e+01
2.820000e-06	4.064786e-06	1.314523e-09	2.821743e+01	9.189429e+01
2.830000e-06	4.096240e-06	1.320725e-09	2.843578e+01	9.233494e+01
2.840000e-06	4.127492e-06	1.327198e-09	2.865273e+01	9.276518e+01
2.850000e-06	4.158549e-06	1.332005e-09	2.886833e+01	9.318497e+01
2.860000e-06	4.189308e-06	1.337429e-09	2.908186e+01	9.359427e+01
2.870000e-06	4.219747e-06	1.342749e-09	2.929316e+01	9.399307e+01
2.880000e-06	4.249926e-06	1.347111e-09	2.950266e+01	9.438139e+01
2.890000e-06	4.279812e-06	1.348851e-09	2.971013e+01	9.475929e+01
2.900000e-06	4.309406e-06	1.350171e-09	2.991556e+01	9.512684e+01
