# Temperatura_=_-0.36
# Concentracion g/m^3_=_1620.0
# C_Vs_to_Am_M_A/Vsm_=_65563218390.804596
# pendiente_HvsI_1/m_=_3716.3
# ordenada_HvsI_A/m_=_1297.0
# frecuencia_Hz_=_135090.25671168926

Tiempo_(s)	Campo_(V.s)	Magnetizacion_(V.s)	Campo_(kA/m)	Magnetizacion_(A/m)
0.000000e+00	-5.520026e-06	-1.732817e-09	-3.838981e+01	-1.118585e+02
1.000000e-08	-5.520356e-06	-1.731939e-09	-3.839210e+01	-1.118152e+02
2.000000e-08	-5.520461e-06	-1.736158e-09	-3.839283e+01	-1.117695e+02
3.000000e-08	-5.520238e-06	-1.743514e-09	-3.839128e+01	-1.117214e+02
4.000000e-08	-5.519430e-06	-1.746882e-09	-3.838566e+01	-1.116709e+02
5.000000e-08	-5.518048e-06	-1.744975e-09	-3.837605e+01	-1.116182e+02
6.000000e-08	-5.516159e-06	-1.742344e-09	-3.836291e+01	-1.115633e+02
7.000000e-08	-5.513688e-06	-1.746663e-09	-3.834573e+01	-1.115062e+02
8.000000e-08	-5.510678e-06	-1.748505e-09	-3.832479e+01	-1.114469e+02
9.000000e-08	-5.507142e-06	-1.728594e-09	-3.830020e+01	-1.113854e+02
1.000000e-07	-5.503162e-06	-1.705064e-09	-3.827252e+01	-1.113218e+02
1.100000e-07	-5.498940e-06	-1.733583e-09	-3.824316e+01	-1.112560e+02
1.200000e-07	-5.494441e-06	-1.772097e-09	-3.821187e+01	-1.111880e+02
1.300000e-07	-5.489615e-06	-1.774022e-09	-3.817831e+01	-1.111178e+02
1.400000e-07	-5.484439e-06	-1.716281e-09	-3.814231e+01	-1.110452e+02
1.500000e-07	-5.478877e-06	-1.719296e-09	-3.810363e+01	-1.109704e+02
1.600000e-07	-5.473005e-06	-1.755170e-09	-3.806279e+01	-1.108931e+02
1.700000e-07	-5.466894e-06	-1.765098e-09	-3.802029e+01	-1.108133e+02
1.800000e-07	-5.460288e-06	-1.712254e-09	-3.797435e+01	-1.107309e+02
1.900000e-07	-5.453123e-06	-1.678953e-09	-3.792452e+01	-1.106458e+02
2.000000e-07	-5.445736e-06	-1.695447e-09	-3.787314e+01	-1.105580e+02
2.100000e-07	-5.438147e-06	-1.718483e-09	-3.782037e+01	-1.104673e+02
2.200000e-07	-5.430258e-06	-1.717754e-09	-3.776550e+01	-1.103736e+02
2.300000e-07	-5.422124e-06	-1.686705e-09	-3.770893e+01	-1.102768e+02
2.400000e-07	-5.413671e-06	-1.682376e-09	-3.765015e+01	-1.101768e+02
2.500000e-07	-5.404712e-06	-1.672372e-09	-3.758784e+01	-1.100733e+02
2.600000e-07	-5.394842e-06	-1.663714e-09	-3.751920e+01	-1.099664e+02
2.700000e-07	-5.384123e-06	-1.645168e-09	-3.744465e+01	-1.098559e+02
2.800000e-07	-5.373078e-06	-1.662997e-09	-3.736784e+01	-1.097415e+02
2.900000e-07	-5.361789e-06	-1.657270e-09	-3.728933e+01	-1.096233e+02
3.000000e-07	-5.350134e-06	-1.650113e-09	-3.720827e+01	-1.095010e+02
3.100000e-07	-5.338027e-06	-1.638203e-09	-3.712407e+01	-1.093745e+02
3.200000e-07	-5.325508e-06	-1.646942e-09	-3.703700e+01	-1.092437e+02
3.300000e-07	-5.312537e-06	-1.628782e-09	-3.694679e+01	-1.091084e+02
3.400000e-07	-5.299178e-06	-1.609470e-09	-3.685388e+01	-1.089685e+02
3.500000e-07	-5.285412e-06	-1.606000e-09	-3.675815e+01	-1.088238e+02
3.600000e-07	-5.271175e-06	-1.620784e-09	-3.665914e+01	-1.086743e+02
3.700000e-07	-5.256621e-06	-1.616163e-09	-3.655792e+01	-1.085198e+02
3.800000e-07	-5.241652e-06	-1.610461e-09	-3.645381e+01	-1.083601e+02
3.900000e-07	-5.226043e-06	-1.618496e-09	-3.634526e+01	-1.081951e+02
4.000000e-07	-5.209854e-06	-1.608666e-09	-3.623267e+01	-1.080248e+02
4.100000e-07	-5.193316e-06	-1.585659e-09	-3.611765e+01	-1.078490e+02
4.200000e-07	-5.176474e-06	-1.589994e-09	-3.600052e+01	-1.076676e+02
4.300000e-07	-5.159313e-06	-1.607623e-09	-3.588118e+01	-1.074804e+02
4.400000e-07	-5.141827e-06	-1.588357e-09	-3.575956e+01	-1.072875e+02
4.500000e-07	-5.123922e-06	-1.575755e-09	-3.563505e+01	-1.070887e+02
4.600000e-07	-5.105612e-06	-1.588664e-09	-3.550770e+01	-1.068840e+02
4.700000e-07	-5.086911e-06	-1.593098e-09	-3.537765e+01	-1.066732e+02
4.800000e-07	-5.067851e-06	-1.568957e-09	-3.524509e+01	-1.064563e+02
4.900000e-07	-5.048482e-06	-1.572493e-09	-3.511038e+01	-1.062332e+02
5.000000e-07	-5.028828e-06	-1.577043e-09	-3.497370e+01	-1.060040e+02
5.100000e-07	-5.008975e-06	-1.561428e-09	-3.483563e+01	-1.057685e+02
5.200000e-07	-4.988873e-06	-1.547719e-09	-3.469582e+01	-1.055267e+02
5.300000e-07	-4.968457e-06	-1.562517e-09	-3.455384e+01	-1.052787e+02
5.400000e-07	-4.947762e-06	-1.551486e-09	-3.440991e+01	-1.050243e+02
5.500000e-07	-4.926682e-06	-1.534548e-09	-3.426331e+01	-1.047637e+02
5.600000e-07	-4.905165e-06	-1.538062e-09	-3.411367e+01	-1.044967e+02
5.700000e-07	-4.883292e-06	-1.549702e-09	-3.396155e+01	-1.042234e+02
5.800000e-07	-4.861113e-06	-1.536437e-09	-3.380730e+01	-1.039439e+02
5.900000e-07	-4.838565e-06	-1.532145e-09	-3.365049e+01	-1.036582e+02
6.000000e-07	-4.815704e-06	-1.535268e-09	-3.349150e+01	-1.033663e+02
6.100000e-07	-4.792492e-06	-1.530152e-09	-3.333006e+01	-1.030683e+02
6.200000e-07	-4.768956e-06	-1.516226e-09	-3.316638e+01	-1.027642e+02
6.300000e-07	-4.745300e-06	-1.517608e-09	-3.300186e+01	-1.024541e+02
6.400000e-07	-4.721396e-06	-1.518493e-09	-3.283562e+01	-1.021381e+02
6.500000e-07	-4.697165e-06	-1.510264e-09	-3.266710e+01	-1.018162e+02
6.600000e-07	-4.672658e-06	-1.503498e-09	-3.249667e+01	-1.014887e+02
6.700000e-07	-4.647644e-06	-1.501390e-09	-3.232270e+01	-1.011554e+02
6.800000e-07	-4.621828e-06	-1.493868e-09	-3.214316e+01	-1.008166e+02
6.900000e-07	-4.595482e-06	-1.482021e-09	-3.195993e+01	-1.004723e+02
7.000000e-07	-4.568838e-06	-1.477001e-09	-3.177463e+01	-1.001227e+02
7.100000e-07	-4.541761e-06	-1.472079e-09	-3.158632e+01	-9.976788e+01
7.200000e-07	-4.514329e-06	-1.465354e-09	-3.139554e+01	-9.940790e+01
7.300000e-07	-4.486720e-06	-1.460471e-09	-3.120353e+01	-9.904291e+01
7.400000e-07	-4.458976e-06	-1.461312e-09	-3.101058e+01	-9.867300e+01
7.500000e-07	-4.431049e-06	-1.454923e-09	-3.081636e+01	-9.829830e+01
7.600000e-07	-4.402846e-06	-1.447934e-09	-3.062022e+01	-9.791891e+01
7.700000e-07	-4.374361e-06	-1.443663e-09	-3.042211e+01	-9.753493e+01
7.800000e-07	-4.345535e-06	-1.439664e-09	-3.022164e+01	-9.714645e+01
7.900000e-07	-4.316315e-06	-1.426709e-09	-3.001842e+01	-9.675359e+01
8.000000e-07	-4.286788e-06	-1.419415e-09	-2.981308e+01	-9.635641e+01
8.100000e-07	-4.257016e-06	-1.411448e-09	-2.960602e+01	-9.595500e+01
8.200000e-07	-4.226923e-06	-1.400970e-09	-2.939674e+01	-9.554944e+01
8.300000e-07	-4.196497e-06	-1.389373e-09	-2.918513e+01	-9.513979e+01
8.400000e-07	-4.165795e-06	-1.384461e-09	-2.897162e+01	-9.472610e+01
8.500000e-07	-4.134879e-06	-1.378590e-09	-2.875660e+01	-9.430842e+01
8.600000e-07	-4.103694e-06	-1.376614e-09	-2.853972e+01	-9.388678e+01
8.700000e-07	-4.072227e-06	-1.375078e-09	-2.832088e+01	-9.346120e+01
8.800000e-07	-4.040601e-06	-1.370520e-09	-2.810094e+01	-9.303170e+01
8.900000e-07	-4.008840e-06	-1.360139e-09	-2.788005e+01	-9.259827e+01
9.000000e-07	-3.976912e-06	-1.349248e-09	-2.765800e+01	-9.216091e+01
9.100000e-07	-3.944658e-06	-1.334995e-09	-2.743369e+01	-9.171959e+01
9.200000e-07	-3.911997e-06	-1.324564e-09	-2.720654e+01	-9.127427e+01
9.300000e-07	-3.878943e-06	-1.316341e-09	-2.697666e+01	-9.082490e+01
9.400000e-07	-3.845592e-06	-1.310828e-09	-2.674471e+01	-9.037143e+01
9.500000e-07	-3.811868e-06	-1.304956e-09	-2.651018e+01	-8.991378e+01
9.600000e-07	-3.777663e-06	-1.301774e-09	-2.627230e+01	-8.945188e+01
9.700000e-07	-3.742960e-06	-1.295740e-09	-2.603095e+01	-8.898563e+01
9.800000e-07	-3.707827e-06	-1.285483e-09	-2.578661e+01	-8.851494e+01
9.900000e-07	-3.672431e-06	-1.277308e-09	-2.554044e+01	-8.803969e+01
1.000000e-06	-3.636834e-06	-1.267028e-09	-2.529288e+01	-8.755977e+01
1.010000e-06	-3.601106e-06	-1.257530e-09	-2.504440e+01	-8.707506e+01
1.020000e-06	-3.565272e-06	-1.250560e-09	-2.479519e+01	-8.658543e+01
1.030000e-06	-3.529307e-06	-1.245756e-09	-2.454507e+01	-8.609074e+01
1.040000e-06	-3.493200e-06	-1.237489e-09	-2.429396e+01	-8.559087e+01
1.050000e-06	-3.456910e-06	-1.232651e-09	-2.404157e+01	-8.508567e+01
1.060000e-06	-3.420284e-06	-1.228742e-09	-2.378685e+01	-8.457502e+01
1.070000e-06	-3.383345e-06	-1.221576e-09	-2.352995e+01	-8.405876e+01
1.080000e-06	-3.346153e-06	-1.209298e-09	-2.327130e+01	-8.353677e+01
1.090000e-06	-3.308703e-06	-1.201928e-09	-2.301084e+01	-8.300891e+01
1.100000e-06	-3.271094e-06	-1.195151e-09	-2.274929e+01	-8.247505e+01
1.110000e-06	-3.233304e-06	-1.184798e-09	-2.248647e+01	-8.193507e+01
1.120000e-06	-3.195287e-06	-1.173838e-09	-2.222207e+01	-8.138886e+01
1.130000e-06	-3.156979e-06	-1.165307e-09	-2.195566e+01	-8.083629e+01
1.140000e-06	-3.118348e-06	-1.153524e-09	-2.168699e+01	-8.027727e+01
1.150000e-06	-3.079535e-06	-1.143893e-09	-2.141706e+01	-7.971171e+01
1.160000e-06	-3.040518e-06	-1.138000e-09	-2.114572e+01	-7.913950e+01
1.170000e-06	-3.001298e-06	-1.133170e-09	-2.087296e+01	-7.856058e+01
1.180000e-06	-2.962018e-06	-1.123377e-09	-2.059977e+01	-7.797488e+01
1.190000e-06	-2.922572e-06	-1.112600e-09	-2.032544e+01	-7.738234e+01
1.200000e-06	-2.882935e-06	-1.101826e-09	-2.004978e+01	-7.678291e+01
1.210000e-06	-2.843199e-06	-1.089634e-09	-1.977343e+01	-7.617654e+01
1.220000e-06	-2.803317e-06	-1.075994e-09	-1.949607e+01	-7.556320e+01
1.230000e-06	-2.763238e-06	-1.065346e-09	-1.921733e+01	-7.494286e+01
1.240000e-06	-2.723054e-06	-1.055824e-09	-1.893786e+01	-7.431551e+01
1.250000e-06	-2.682709e-06	-1.046201e-09	-1.865728e+01	-7.368114e+01
1.260000e-06	-2.642114e-06	-1.040172e-09	-1.837496e+01	-7.303972e+01
1.270000e-06	-2.601266e-06	-1.032447e-09	-1.809087e+01	-7.239126e+01
1.280000e-06	-2.560132e-06	-1.022485e-09	-1.780480e+01	-7.173575e+01
1.290000e-06	-2.518737e-06	-1.012402e-09	-1.751692e+01	-7.107318e+01
1.300000e-06	-2.477076e-06	-1.001810e-09	-1.722717e+01	-7.040354e+01
1.310000e-06	-2.435073e-06	-9.895246e-10	-1.693506e+01	-6.972682e+01
1.320000e-06	-2.392760e-06	-9.764770e-10	-1.664079e+01	-6.904300e+01
1.330000e-06	-2.350251e-06	-9.626082e-10	-1.634515e+01	-6.835205e+01
1.340000e-06	-2.307546e-06	-9.496079e-10	-1.604815e+01	-6.765393e+01
1.350000e-06	-2.264534e-06	-9.386067e-10	-1.574903e+01	-6.694860e+01
1.360000e-06	-2.221246e-06	-9.298807e-10	-1.544797e+01	-6.623598e+01
1.370000e-06	-2.177808e-06	-9.227197e-10	-1.514587e+01	-6.551599e+01
1.380000e-06	-2.134261e-06	-9.154879e-10	-1.484302e+01	-6.478852e+01
1.390000e-06	-2.090572e-06	-9.022873e-10	-1.453918e+01	-6.405346e+01
1.400000e-06	-2.046759e-06	-8.845541e-10	-1.423448e+01	-6.331066e+01
1.410000e-06	-2.002917e-06	-8.650283e-10	-1.392957e+01	-6.255993e+01
1.420000e-06	-1.959022e-06	-8.507467e-10	-1.362430e+01	-6.180108e+01
1.430000e-06	-1.915047e-06	-8.408793e-10	-1.331847e+01	-6.103389e+01
1.440000e-06	-1.871001e-06	-8.321447e-10	-1.301214e+01	-6.025808e+01
1.450000e-06	-1.826893e-06	-8.230905e-10	-1.270539e+01	-5.947338e+01
1.460000e-06	-1.782660e-06	-8.132467e-10	-1.239776e+01	-5.867946e+01
1.470000e-06	-1.738253e-06	-7.999572e-10	-1.208892e+01	-5.787597e+01
1.480000e-06	-1.693633e-06	-7.848131e-10	-1.177861e+01	-5.706252e+01
1.490000e-06	-1.648826e-06	-7.685044e-10	-1.146700e+01	-5.623871e+01
1.500000e-06	-1.604021e-06	-7.543278e-10	-1.115539e+01	-5.540407e+01
1.510000e-06	-1.559150e-06	-7.412922e-10	-1.084333e+01	-5.455813e+01
1.520000e-06	-1.514107e-06	-7.291574e-10	-1.053007e+01	-5.370038e+01
1.530000e-06	-1.468983e-06	-7.186975e-10	-1.021625e+01	-5.283029e+01
1.540000e-06	-1.423691e-06	-7.069087e-10	-9.901261e+00	-5.194730e+01
1.550000e-06	-1.378279e-06	-6.947120e-10	-9.585438e+00	-5.105081e+01
1.560000e-06	-1.332837e-06	-6.786840e-10	-9.269404e+00	-5.014022e+01
1.570000e-06	-1.287313e-06	-6.621377e-10	-8.952802e+00	-4.921491e+01
1.580000e-06	-1.241666e-06	-6.460224e-10	-8.635341e+00	-4.827423e+01
1.590000e-06	-1.195923e-06	-6.289310e-10	-8.317216e+00	-4.731753e+01
1.600000e-06	-1.150089e-06	-6.120144e-10	-7.998457e+00	-4.634415e+01
1.610000e-06	-1.104163e-06	-5.963193e-10	-7.679061e+00	-4.535343e+01
1.620000e-06	-1.058173e-06	-5.786731e-10	-7.359218e+00	-4.434470e+01
1.630000e-06	-1.012152e-06	-5.602090e-10	-7.039154e+00	-4.331731e+01
1.640000e-06	-9.660867e-07	-5.445419e-10	-6.718787e+00	-4.227061e+01
1.650000e-06	-9.198952e-07	-5.308562e-10	-6.397542e+00	-4.120397e+01
1.660000e-06	-8.735854e-07	-5.158085e-10	-6.075474e+00	-4.011678e+01
1.670000e-06	-8.272271e-07	-5.002530e-10	-5.753069e+00	-3.900845e+01
1.680000e-06	-7.808508e-07	-4.843659e-10	-5.430538e+00	-3.787843e+01
1.690000e-06	-7.344272e-07	-4.680483e-10	-5.107679e+00	-3.672620e+01
1.700000e-06	-6.879392e-07	-4.508593e-10	-4.784371e+00	-3.555129e+01
1.710000e-06	-6.414714e-07	-4.323471e-10	-4.461204e+00	-3.435326e+01
1.720000e-06	-5.949556e-07	-4.115679e-10	-4.137703e+00	-3.313174e+01
1.730000e-06	-5.483395e-07	-3.917651e-10	-3.813505e+00	-3.188640e+01
1.740000e-06	-5.017084e-07	-3.731174e-10	-3.489203e+00	-3.061698e+01
1.750000e-06	-4.549885e-07	-3.554233e-10	-3.164282e+00	-2.932328e+01
1.760000e-06	-4.082254e-07	-3.375457e-10	-2.839062e+00	-2.800517e+01
1.770000e-06	-3.614516e-07	-3.189738e-10	-2.513766e+00	-2.666261e+01
1.780000e-06	-3.146327e-07	-2.994415e-10	-2.188158e+00	-2.529561e+01
1.790000e-06	-2.677851e-07	-2.785302e-10	-1.862350e+00	-2.390427e+01
1.800000e-06	-2.210068e-07	-2.594146e-10	-1.537023e+00	-2.248878e+01
1.810000e-06	-1.742953e-07	-2.398392e-10	-1.212162e+00	-2.104940e+01
1.820000e-06	-1.275090e-07	-2.184064e-10	-8.867798e-01	-1.958648e+01
1.830000e-06	-8.072937e-08	-1.964583e-10	-5.614439e-01	-1.810046e+01
1.840000e-06	-3.393470e-08	-1.745263e-10	-2.360037e-01	-1.659187e+01
1.850000e-06	1.285912e-08	-1.535093e-10	8.943058e-02	-1.506131e+01
1.860000e-06	5.957730e-08	-1.352443e-10	4.143388e-01	-1.350948e+01
1.870000e-06	1.063329e-07	-1.137638e-10	7.395072e-01	-1.193717e+01
1.880000e-06	1.531774e-07	-8.974793e-11	1.065294e+00	-1.034525e+01
1.890000e-06	2.000135e-07	-6.603500e-11	1.391022e+00	-8.734651e+00
1.900000e-06	2.467822e-07	-4.368828e-11	1.716282e+00	-7.106414e+00
1.910000e-06	2.935912e-07	-2.080253e-11	2.041822e+00	-5.461636e+00
1.920000e-06	3.404700e-07	4.315741e-12	2.367847e+00	-3.801491e+00
1.930000e-06	3.874169e-07	3.007353e-11	2.694346e+00	-2.127219e+00
1.940000e-06	4.342741e-07	5.449691e-11	3.020221e+00	-4.401245e-01
1.950000e-06	4.809510e-07	7.721277e-11	3.344842e+00	1.258433e+00
1.960000e-06	5.275301e-07	9.889446e-11	3.668783e+00	2.967041e+00
1.970000e-06	5.740284e-07	1.206224e-10	3.992162e+00	4.684241e+00
1.980000e-06	6.204718e-07	1.434335e-10	4.315160e+00	6.408533e+00
1.990000e-06	6.668419e-07	1.646563e-10	4.637647e+00	8.138388e+00
2.000000e-06	7.131553e-07	1.844179e-10	4.959740e+00	9.872245e+00
2.010000e-06	7.594273e-07	2.087762e-10	5.281545e+00	1.160853e+01
2.020000e-06	8.056350e-07	2.337463e-10	5.602903e+00	1.334565e+01
2.030000e-06	8.517763e-07	2.601249e-10	5.923799e+00	1.508200e+01
2.040000e-06	8.979469e-07	2.878153e-10	6.244899e+00	1.681600e+01
2.050000e-06	9.441337e-07	3.117827e-10	6.566112e+00	1.854606e+01
2.060000e-06	9.902494e-07	3.346059e-10	6.886831e+00	2.027060e+01
2.070000e-06	1.036233e-06	3.569954e-10	7.206631e+00	2.198809e+01
2.080000e-06	1.082080e-06	3.802502e-10	7.525481e+00	2.369699e+01
2.090000e-06	1.127912e-06	4.026073e-10	7.844224e+00	2.539583e+01
2.100000e-06	1.173677e-06	4.277972e-10	8.162506e+00	2.708317e+01
2.110000e-06	1.219334e-06	4.542833e-10	8.480033e+00	2.875762e+01
2.120000e-06	1.264915e-06	4.793936e-10	8.797030e+00	3.041783e+01
2.130000e-06	1.310453e-06	5.014490e-10	9.113734e+00	3.206253e+01
2.140000e-06	1.355889e-06	5.217561e-10	9.429721e+00	3.369050e+01
2.150000e-06	1.401114e-06	5.413294e-10	9.744246e+00	3.530060e+01
2.160000e-06	1.446238e-06	5.591244e-10	1.005807e+01	3.689174e+01
2.170000e-06	1.491339e-06	5.771363e-10	1.037173e+01	3.846293e+01
2.180000e-06	1.536307e-06	5.972248e-10	1.068447e+01	4.001324e+01
2.190000e-06	1.581071e-06	6.209487e-10	1.099579e+01	4.154183e+01
2.200000e-06	1.625736e-06	6.448864e-10	1.130641e+01	4.304794e+01
2.210000e-06	1.670376e-06	6.655188e-10	1.161687e+01	4.453090e+01
2.220000e-06	1.714911e-06	6.835524e-10	1.192659e+01	4.599011e+01
2.230000e-06	1.759378e-06	6.997909e-10	1.223584e+01	4.742506e+01
2.240000e-06	1.803725e-06	7.181177e-10	1.254426e+01	4.883533e+01
2.250000e-06	1.847857e-06	7.384552e-10	1.285118e+01	5.022058e+01
2.260000e-06	1.891852e-06	7.608336e-10	1.315715e+01	5.158055e+01
2.270000e-06	1.935774e-06	7.836421e-10	1.346262e+01	5.291505e+01
2.280000e-06	1.979635e-06	8.023193e-10	1.376765e+01	5.422399e+01
2.290000e-06	2.023430e-06	8.176950e-10	1.407223e+01	5.550733e+01
2.300000e-06	2.067184e-06	8.327445e-10	1.437652e+01	5.676512e+01
2.310000e-06	2.110845e-06	8.481299e-10	1.468017e+01	5.799747e+01
2.320000e-06	2.154357e-06	8.646796e-10	1.498278e+01	5.920456e+01
2.330000e-06	2.197744e-06	8.836158e-10	1.528452e+01	6.038660e+01
2.340000e-06	2.241053e-06	9.022567e-10	1.558572e+01	6.154390e+01
2.350000e-06	2.284204e-06	9.193590e-10	1.588582e+01	6.267679e+01
2.360000e-06	2.327080e-06	9.336232e-10	1.618401e+01	6.378566e+01
2.370000e-06	2.369779e-06	9.459782e-10	1.648097e+01	6.487093e+01
2.380000e-06	2.412376e-06	9.568401e-10	1.677721e+01	6.593307e+01
2.390000e-06	2.454742e-06	9.685315e-10	1.707185e+01	6.697256e+01
2.400000e-06	2.496747e-06	9.819234e-10	1.736398e+01	6.798992e+01
2.410000e-06	2.538355e-06	9.966635e-10	1.765335e+01	6.898570e+01
2.420000e-06	2.579675e-06	1.013588e-09	1.794072e+01	6.996045e+01
2.430000e-06	2.620684e-06	1.030329e-09	1.822592e+01	7.091472e+01
2.440000e-06	2.661431e-06	1.044410e-09	1.850930e+01	7.184911e+01
2.450000e-06	2.701903e-06	1.056666e-09	1.879077e+01	7.276417e+01
2.460000e-06	2.742096e-06	1.067213e-09	1.907030e+01	7.366048e+01
2.470000e-06	2.782183e-06	1.077220e-09	1.934909e+01	7.453862e+01
2.480000e-06	2.822104e-06	1.088089e-09	1.962672e+01	7.539913e+01
2.490000e-06	2.861846e-06	1.100082e-09	1.990311e+01	7.624256e+01
2.500000e-06	2.901449e-06	1.111917e-09	2.017854e+01	7.706944e+01
2.510000e-06	2.940886e-06	1.125273e-09	2.045281e+01	7.788028e+01
2.520000e-06	2.980233e-06	1.139521e-09	2.072645e+01	7.867558e+01
2.530000e-06	3.019454e-06	1.151649e-09	2.099922e+01	7.945580e+01
2.540000e-06	3.058478e-06	1.163287e-09	2.127062e+01	8.022137e+01
2.550000e-06	3.097315e-06	1.174329e-09	2.154072e+01	8.097273e+01
2.560000e-06	3.135798e-06	1.181620e-09	2.180835e+01	8.171027e+01
2.570000e-06	3.174042e-06	1.186205e-09	2.207433e+01	8.243434e+01
2.580000e-06	3.212276e-06	1.195227e-09	2.234023e+01	8.314529e+01
2.590000e-06	3.250301e-06	1.208253e-09	2.260468e+01	8.384344e+01
2.600000e-06	3.288007e-06	1.220115e-09	2.286691e+01	8.452905e+01
2.610000e-06	3.325505e-06	1.230215e-09	2.312770e+01	8.520241e+01
2.620000e-06	3.362725e-06	1.237702e-09	2.338655e+01	8.586373e+01
2.630000e-06	3.399626e-06	1.245997e-09	2.364318e+01	8.651324e+01
2.640000e-06	3.436321e-06	1.254970e-09	2.389838e+01	8.715113e+01
2.650000e-06	3.472799e-06	1.263916e-09	2.415207e+01	8.777755e+01
2.660000e-06	3.509037e-06	1.275477e-09	2.440410e+01	8.839268e+01
2.670000e-06	3.545048e-06	1.287592e-09	2.465454e+01	8.899664e+01
2.680000e-06	3.580928e-06	1.297332e-09	2.490407e+01	8.958955e+01
2.690000e-06	3.616671e-06	1.302977e-09	2.515265e+01	9.017152e+01
2.700000e-06	3.652230e-06	1.305508e-09	2.539995e+01	9.074265e+01
2.710000e-06	3.687627e-06	1.309082e-09	2.564613e+01	9.130303e+01
2.720000e-06	3.722784e-06	1.317515e-09	2.589063e+01	9.185275e+01
2.730000e-06	3.757684e-06	1.329236e-09	2.613335e+01	9.239189e+01
2.740000e-06	3.792292e-06	1.340721e-09	2.637403e+01	9.292052e+01
2.750000e-06	3.826484e-06	1.348439e-09	2.661183e+01	9.343872e+01
2.760000e-06	3.860202e-06	1.353260e-09	2.684633e+01	9.394659e+01
2.770000e-06	3.893420e-06	1.356825e-09	2.707734e+01	9.444419e+01
2.780000e-06	3.926127e-06	1.360986e-09	2.730481e+01	9.493163e+01
2.790000e-06	3.958438e-06	1.367276e-09	2.752952e+01	9.540899e+01
2.800000e-06	3.990460e-06	1.373600e-09	2.775222e+01	9.587639e+01
2.810000e-06	4.022280e-06	1.380417e-09	2.797352e+01	9.633394e+01
2.820000e-06	4.053967e-06	1.386702e-09	2.819389e+01	9.678176e+01
2.830000e-06	4.085587e-06	1.392794e-09	2.841380e+01	9.721999e+01
2.840000e-06	4.117046e-06	1.401127e-09	2.863258e+01	9.764877e+01
2.850000e-06	4.148222e-06	1.409064e-09	2.884940e+01	9.806826e+01
2.860000e-06	4.179100e-06	1.414578e-09	2.906414e+01	9.847862e+01
2.870000e-06	4.209651e-06	1.418247e-09	2.927661e+01	9.888002e+01
2.880000e-06	4.239845e-06	1.421705e-09	2.948661e+01	9.927267e+01
2.890000e-06	4.269673e-06	1.423401e-09	2.969405e+01	9.965674e+01
2.900000e-06	4.299161e-06	1.424625e-09	2.989913e+01	1.000325e+02
