# Temperatura_=_-11.26
# Concentracion g/m^3_=_1620.0
# C_Vs_to_Am_M_A/Vsm_=_65563218390.804596
# pendiente_HvsI_1/m_=_3716.3
# ordenada_HvsI_A/m_=_1297.0
# frecuencia_Hz_=_135103.38283625274

Tiempo_(s)	Campo_(V.s)	Magnetizacion_(V.s)	Campo_(kA/m)	Magnetizacion_(A/m)
0.000000e+00	-5.513517e-06	-8.001959e-10	-3.836482e+01	-5.247140e+01
1.000000e-08	-5.513683e-06	-7.977299e-10	-3.836597e+01	-5.248267e+01
2.000000e-08	-5.513542e-06	-7.963859e-10	-3.836499e+01	-5.249259e+01
3.000000e-08	-5.512928e-06	-7.977008e-10	-3.836072e+01	-5.250103e+01
4.000000e-08	-5.511836e-06	-7.963661e-10	-3.835312e+01	-5.250788e+01
5.000000e-08	-5.510187e-06	-7.948928e-10	-3.834165e+01	-5.251302e+01
6.000000e-08	-5.507877e-06	-7.957360e-10	-3.832557e+01	-5.251634e+01
7.000000e-08	-5.505012e-06	-7.977135e-10	-3.830564e+01	-5.251777e+01
8.000000e-08	-5.501630e-06	-7.922209e-10	-3.828210e+01	-5.251722e+01
9.000000e-08	-5.497746e-06	-7.794045e-10	-3.825508e+01	-5.251464e+01
1.000000e-07	-5.493501e-06	-7.583307e-10	-3.822555e+01	-5.250998e+01
1.100000e-07	-5.489091e-06	-7.779513e-10	-3.819486e+01	-5.250321e+01
1.200000e-07	-5.484563e-06	-8.168399e-10	-3.816335e+01	-5.249432e+01
1.300000e-07	-5.479701e-06	-7.984897e-10	-3.812952e+01	-5.248331e+01
1.400000e-07	-5.474337e-06	-7.599805e-10	-3.809219e+01	-5.247018e+01
1.500000e-07	-5.468562e-06	-7.734617e-10	-3.805201e+01	-5.245499e+01
1.600000e-07	-5.462485e-06	-8.229183e-10	-3.800972e+01	-5.243775e+01
1.700000e-07	-5.455981e-06	-8.158595e-10	-3.796447e+01	-5.241854e+01
1.800000e-07	-5.449087e-06	-7.572158e-10	-3.791649e+01	-5.239743e+01
1.900000e-07	-5.441905e-06	-7.542268e-10	-3.786652e+01	-5.237450e+01
2.000000e-07	-5.434405e-06	-7.872212e-10	-3.781433e+01	-5.234983e+01
2.100000e-07	-5.426631e-06	-7.989016e-10	-3.776024e+01	-5.232354e+01
2.200000e-07	-5.418586e-06	-7.630623e-10	-3.770426e+01	-5.229574e+01
2.300000e-07	-5.410212e-06	-7.514535e-10	-3.764599e+01	-5.226653e+01
2.400000e-07	-5.401282e-06	-7.590463e-10	-3.758385e+01	-5.223605e+01
2.500000e-07	-5.391533e-06	-7.566926e-10	-3.751602e+01	-5.220442e+01
2.600000e-07	-5.381174e-06	-7.380770e-10	-3.744394e+01	-5.217177e+01
2.700000e-07	-5.370427e-06	-7.406167e-10	-3.736915e+01	-5.213823e+01
2.800000e-07	-5.359152e-06	-7.547287e-10	-3.729070e+01	-5.210392e+01
2.900000e-07	-5.347359e-06	-7.535159e-10	-3.720864e+01	-5.206897e+01
3.000000e-07	-5.335220e-06	-7.460174e-10	-3.712417e+01	-5.203351e+01
3.100000e-07	-5.322775e-06	-7.412375e-10	-3.703758e+01	-5.199766e+01
3.200000e-07	-5.309868e-06	-7.461944e-10	-3.694777e+01	-5.196151e+01
3.300000e-07	-5.296543e-06	-7.416606e-10	-3.685504e+01	-5.192517e+01
3.400000e-07	-5.282848e-06	-7.386153e-10	-3.675975e+01	-5.188873e+01
3.500000e-07	-5.268704e-06	-7.358569e-10	-3.666133e+01	-5.185228e+01
3.600000e-07	-5.254067e-06	-7.550806e-10	-3.655948e+01	-5.181587e+01
3.700000e-07	-5.238973e-06	-7.572018e-10	-3.645446e+01	-5.177958e+01
3.800000e-07	-5.223468e-06	-7.467320e-10	-3.634656e+01	-5.174343e+01
3.900000e-07	-5.207442e-06	-7.435815e-10	-3.623505e+01	-5.170747e+01
4.000000e-07	-5.190884e-06	-7.525347e-10	-3.611984e+01	-5.167169e+01
4.100000e-07	-5.173912e-06	-7.380766e-10	-3.600174e+01	-5.163611e+01
4.200000e-07	-5.156687e-06	-7.377909e-10	-3.588188e+01	-5.160071e+01
4.300000e-07	-5.139264e-06	-7.598428e-10	-3.576065e+01	-5.156545e+01
4.400000e-07	-5.121541e-06	-7.559886e-10	-3.563733e+01	-5.153029e+01
4.500000e-07	-5.103365e-06	-7.279185e-10	-3.551085e+01	-5.149517e+01
4.600000e-07	-5.084710e-06	-7.453802e-10	-3.538104e+01	-5.146002e+01
4.700000e-07	-5.065647e-06	-7.647037e-10	-3.524839e+01	-5.142474e+01
4.800000e-07	-5.046298e-06	-7.390591e-10	-3.511376e+01	-5.138924e+01
4.900000e-07	-5.026756e-06	-7.334538e-10	-3.497778e+01	-5.135341e+01
5.000000e-07	-5.007034e-06	-7.630089e-10	-3.484055e+01	-5.131712e+01
5.100000e-07	-4.987026e-06	-7.507373e-10	-3.470132e+01	-5.128023e+01
5.200000e-07	-4.966692e-06	-7.335344e-10	-3.455984e+01	-5.124262e+01
5.300000e-07	-4.946073e-06	-7.601873e-10	-3.441636e+01	-5.120412e+01
5.400000e-07	-4.925081e-06	-7.589355e-10	-3.427030e+01	-5.116458e+01
5.500000e-07	-4.903690e-06	-7.291699e-10	-3.412145e+01	-5.112385e+01
5.600000e-07	-4.881970e-06	-7.494312e-10	-3.397032e+01	-5.108176e+01
5.700000e-07	-4.859935e-06	-7.701255e-10	-3.381699e+01	-5.103815e+01
5.800000e-07	-4.837536e-06	-7.365942e-10	-3.366113e+01	-5.099285e+01
5.900000e-07	-4.814748e-06	-7.323233e-10	-3.350256e+01	-5.094569e+01
6.000000e-07	-4.791635e-06	-7.600882e-10	-3.334173e+01	-5.089653e+01
6.100000e-07	-4.768252e-06	-7.476512e-10	-3.317902e+01	-5.084519e+01
6.200000e-07	-4.744574e-06	-7.341986e-10	-3.301427e+01	-5.079154e+01
6.300000e-07	-4.720665e-06	-7.607024e-10	-3.284790e+01	-5.073541e+01
6.400000e-07	-4.696570e-06	-7.574188e-10	-3.268024e+01	-5.067668e+01
6.500000e-07	-4.672186e-06	-7.365185e-10	-3.251057e+01	-5.061522e+01
6.600000e-07	-4.647364e-06	-7.484714e-10	-3.233785e+01	-5.055090e+01
6.700000e-07	-4.622019e-06	-7.546285e-10	-3.216149e+01	-5.048361e+01
6.800000e-07	-4.596057e-06	-7.339170e-10	-3.198084e+01	-5.041327e+01
6.900000e-07	-4.569476e-06	-7.397637e-10	-3.179588e+01	-5.033977e+01
7.000000e-07	-4.542411e-06	-7.502131e-10	-3.160755e+01	-5.026305e+01
7.100000e-07	-4.515040e-06	-7.350783e-10	-3.141710e+01	-5.018305e+01
7.200000e-07	-4.487532e-06	-7.294078e-10	-3.122568e+01	-5.009971e+01
7.300000e-07	-4.459895e-06	-7.396997e-10	-3.103338e+01	-5.001300e+01
7.400000e-07	-4.432030e-06	-7.283081e-10	-3.083948e+01	-4.992290e+01
7.500000e-07	-4.403907e-06	-7.182363e-10	-3.064380e+01	-4.982939e+01
7.600000e-07	-4.375512e-06	-7.255477e-10	-3.044622e+01	-4.973247e+01
7.700000e-07	-4.346741e-06	-7.233149e-10	-3.024602e+01	-4.963216e+01
7.800000e-07	-4.317608e-06	-7.128159e-10	-3.004330e+01	-4.952849e+01
7.900000e-07	-4.288249e-06	-7.160057e-10	-2.983901e+01	-4.942147e+01
8.000000e-07	-4.258652e-06	-7.134304e-10	-2.963307e+01	-4.931117e+01
8.100000e-07	-4.228725e-06	-7.001742e-10	-2.942482e+01	-4.919763e+01
8.200000e-07	-4.198558e-06	-7.001678e-10	-2.921492e+01	-4.908091e+01
8.300000e-07	-4.168167e-06	-7.046134e-10	-2.900345e+01	-4.896108e+01
8.400000e-07	-4.137422e-06	-6.994692e-10	-2.878951e+01	-4.883821e+01
8.500000e-07	-4.106311e-06	-6.975966e-10	-2.857303e+01	-4.871238e+01
8.600000e-07	-4.074928e-06	-7.031554e-10	-2.835465e+01	-4.858368e+01
8.700000e-07	-4.043388e-06	-6.992836e-10	-2.813519e+01	-4.845217e+01
8.800000e-07	-4.011668e-06	-6.928968e-10	-2.791447e+01	-4.831795e+01
8.900000e-07	-3.979702e-06	-6.922244e-10	-2.769205e+01	-4.818111e+01
9.000000e-07	-3.947511e-06	-6.864961e-10	-2.746805e+01	-4.804172e+01
9.100000e-07	-3.915044e-06	-6.787508e-10	-2.724213e+01	-4.789987e+01
9.200000e-07	-3.882208e-06	-6.793992e-10	-2.701365e+01	-4.775563e+01
9.300000e-07	-3.848973e-06	-6.808337e-10	-2.678239e+01	-4.760909e+01
9.400000e-07	-3.815358e-06	-6.774263e-10	-2.654848e+01	-4.746030e+01
9.500000e-07	-3.781334e-06	-6.766794e-10	-2.631173e+01	-4.730933e+01
9.600000e-07	-3.746830e-06	-6.778050e-10	-2.607164e+01	-4.715624e+01
9.700000e-07	-3.711981e-06	-6.709683e-10	-2.582915e+01	-4.700108e+01
9.800000e-07	-3.676888e-06	-6.683238e-10	-2.558497e+01	-4.684388e+01
9.900000e-07	-3.641485e-06	-6.722436e-10	-2.533862e+01	-4.668468e+01
1.000000e-06	-3.605853e-06	-6.716100e-10	-2.509068e+01	-4.652350e+01
1.010000e-06	-3.570101e-06	-6.673361e-10	-2.484191e+01	-4.636035e+01
1.020000e-06	-3.534211e-06	-6.675184e-10	-2.459217e+01	-4.619524e+01
1.030000e-06	-3.498133e-06	-6.671242e-10	-2.434113e+01	-4.602816e+01
1.040000e-06	-3.461895e-06	-6.650655e-10	-2.408898e+01	-4.585909e+01
1.050000e-06	-3.425400e-06	-6.655482e-10	-2.383503e+01	-4.568801e+01
1.060000e-06	-3.388590e-06	-6.653691e-10	-2.357889e+01	-4.551488e+01
1.070000e-06	-3.351513e-06	-6.608360e-10	-2.332090e+01	-4.533966e+01
1.080000e-06	-3.314117e-06	-6.588377e-10	-2.306069e+01	-4.516228e+01
1.090000e-06	-3.276505e-06	-6.585016e-10	-2.279897e+01	-4.498270e+01
1.100000e-06	-3.238766e-06	-6.558312e-10	-2.253637e+01	-4.480083e+01
1.110000e-06	-3.200767e-06	-6.517266e-10	-2.227197e+01	-4.461659e+01
1.120000e-06	-3.162454e-06	-6.505321e-10	-2.200537e+01	-4.442990e+01
1.130000e-06	-3.123927e-06	-6.502374e-10	-2.173728e+01	-4.424065e+01
1.140000e-06	-3.085244e-06	-6.489621e-10	-2.146812e+01	-4.404875e+01
1.150000e-06	-3.046396e-06	-6.497336e-10	-2.119780e+01	-4.385408e+01
1.160000e-06	-3.007343e-06	-6.490008e-10	-2.092605e+01	-4.365654e+01
1.170000e-06	-2.968076e-06	-6.446996e-10	-2.065282e+01	-4.345599e+01
1.180000e-06	-2.928629e-06	-6.409445e-10	-2.037834e+01	-4.325231e+01
1.190000e-06	-2.889077e-06	-6.385157e-10	-2.010312e+01	-4.304538e+01
1.200000e-06	-2.849428e-06	-6.341326e-10	-1.982724e+01	-4.283505e+01
1.210000e-06	-2.809623e-06	-6.301741e-10	-1.955026e+01	-4.262118e+01
1.220000e-06	-2.769645e-06	-6.293931e-10	-1.927208e+01	-4.240365e+01
1.230000e-06	-2.729526e-06	-6.261064e-10	-1.899292e+01	-4.218229e+01
1.240000e-06	-2.689257e-06	-6.209647e-10	-1.871271e+01	-4.195696e+01
1.250000e-06	-2.648709e-06	-6.198083e-10	-1.843056e+01	-4.172751e+01
1.260000e-06	-2.607830e-06	-6.184008e-10	-1.814612e+01	-4.149378e+01
1.270000e-06	-2.566708e-06	-6.146099e-10	-1.785998e+01	-4.125563e+01
1.280000e-06	-2.525323e-06	-6.109176e-10	-1.757201e+01	-4.101288e+01
1.290000e-06	-2.483581e-06	-6.089292e-10	-1.728155e+01	-4.076538e+01
1.300000e-06	-2.441502e-06	-6.031646e-10	-1.698875e+01	-4.051295e+01
1.310000e-06	-2.399181e-06	-5.946304e-10	-1.669427e+01	-4.025544e+01
1.320000e-06	-2.356666e-06	-5.882918e-10	-1.639844e+01	-3.999268e+01
1.330000e-06	-2.313865e-06	-5.831077e-10	-1.610062e+01	-3.972447e+01
1.340000e-06	-2.270792e-06	-5.781777e-10	-1.580090e+01	-3.945066e+01
1.350000e-06	-2.227572e-06	-5.743000e-10	-1.550016e+01	-3.917105e+01
1.360000e-06	-2.184229e-06	-5.703520e-10	-1.519856e+01	-3.888546e+01
1.370000e-06	-2.140771e-06	-5.666568e-10	-1.489617e+01	-3.859369e+01
1.380000e-06	-2.097224e-06	-5.613565e-10	-1.459316e+01	-3.829556e+01
1.390000e-06	-2.053550e-06	-5.543943e-10	-1.428926e+01	-3.799086e+01
1.400000e-06	-2.009761e-06	-5.471165e-10	-1.398456e+01	-3.767938e+01
1.410000e-06	-1.965871e-06	-5.417148e-10	-1.367916e+01	-3.736092e+01
1.420000e-06	-1.921949e-06	-5.393276e-10	-1.337354e+01	-3.703525e+01
1.430000e-06	-1.878034e-06	-5.360061e-10	-1.306797e+01	-3.670215e+01
1.440000e-06	-1.833987e-06	-5.308029e-10	-1.276147e+01	-3.636140e+01
1.450000e-06	-1.789783e-06	-5.267240e-10	-1.245388e+01	-3.601276e+01
1.460000e-06	-1.745410e-06	-5.209921e-10	-1.214512e+01	-3.565598e+01
1.470000e-06	-1.700875e-06	-5.130085e-10	-1.183523e+01	-3.529083e+01
1.480000e-06	-1.656215e-06	-5.063201e-10	-1.152448e+01	-3.491706e+01
1.490000e-06	-1.611464e-06	-5.004017e-10	-1.121308e+01	-3.453440e+01
1.500000e-06	-1.566583e-06	-4.959626e-10	-1.090079e+01	-3.414260e+01
1.510000e-06	-1.521546e-06	-4.908926e-10	-1.058741e+01	-3.374140e+01
1.520000e-06	-1.476422e-06	-4.843883e-10	-1.027341e+01	-3.333053e+01
1.530000e-06	-1.431187e-06	-4.780310e-10	-9.958661e+00	-3.290973e+01
1.540000e-06	-1.385858e-06	-4.719433e-10	-9.643245e+00	-3.247872e+01
1.550000e-06	-1.340472e-06	-4.642550e-10	-9.327437e+00	-3.203724e+01
1.560000e-06	-1.294955e-06	-4.567625e-10	-9.010712e+00	-3.158502e+01
1.570000e-06	-1.249325e-06	-4.505661e-10	-8.693207e+00	-3.112180e+01
1.580000e-06	-1.203674e-06	-4.432911e-10	-8.375548e+00	-3.064731e+01
1.590000e-06	-1.157990e-06	-4.366277e-10	-8.057669e+00	-3.016130e+01
1.600000e-06	-1.112217e-06	-4.303289e-10	-7.739159e+00	-2.966351e+01
1.610000e-06	-1.066325e-06	-4.210898e-10	-7.419833e+00	-2.915372e+01
1.620000e-06	-1.020348e-06	-4.100821e-10	-7.099909e+00	-2.863168e+01
1.630000e-06	-9.742696e-07	-4.002813e-10	-6.779280e+00	-2.809718e+01
1.640000e-06	-9.280074e-07	-3.914517e-10	-6.457373e+00	-2.755000e+01
1.650000e-06	-8.817246e-07	-3.822156e-10	-6.135323e+00	-2.698997e+01
1.660000e-06	-8.354855e-07	-3.740249e-10	-5.813576e+00	-2.641689e+01
1.670000e-06	-7.892103e-07	-3.666595e-10	-5.491578e+00	-2.583062e+01
1.680000e-06	-7.428978e-07	-3.589713e-10	-5.169321e+00	-2.523102e+01
1.690000e-06	-6.964765e-07	-3.498020e-10	-4.846307e+00	-2.461796e+01
1.700000e-06	-6.498877e-07	-3.395923e-10	-4.522127e+00	-2.399137e+01
1.710000e-06	-6.032308e-07	-3.289843e-10	-4.197473e+00	-2.335116e+01
1.720000e-06	-5.566664e-07	-3.189565e-10	-3.873464e+00	-2.269730e+01
1.730000e-06	-5.100564e-07	-3.089896e-10	-3.549136e+00	-2.202976e+01
1.740000e-06	-4.634349e-07	-2.974158e-10	-3.224729e+00	-2.134857e+01
1.750000e-06	-4.168409e-07	-2.870554e-10	-2.900513e+00	-2.065376e+01
1.760000e-06	-3.701313e-07	-2.775848e-10	-2.575492e+00	-1.994541e+01
1.770000e-06	-3.233181e-07	-2.674605e-10	-2.249751e+00	-1.922363e+01
1.780000e-06	-2.764479e-07	-2.580671e-10	-1.923613e+00	-1.848854e+01
1.790000e-06	-2.295584e-07	-2.486057e-10	-1.597341e+00	-1.774031e+01
1.800000e-06	-1.827211e-07	-2.374953e-10	-1.271432e+00	-1.697915e+01
1.810000e-06	-1.359576e-07	-2.255573e-10	-9.460369e-01	-1.620529e+01
1.820000e-06	-8.919465e-08	-2.128292e-10	-6.206450e-01	-1.541900e+01
1.830000e-06	-4.244054e-08	-1.993205e-10	-2.953149e-01	-1.462058e+01
1.840000e-06	4.262222e-09	-1.849634e-10	2.965791e-02	-1.381035e+01
1.850000e-06	5.097395e-08	-1.727860e-10	3.546931e-01	-1.298869e+01
1.860000e-06	9.774788e-08	-1.606948e-10	6.801611e-01	-1.215599e+01
1.870000e-06	1.445057e-07	-1.483153e-10	1.005517e+00	-1.131266e+01
1.880000e-06	1.912600e-07	-1.389396e-10	1.330848e+00	-1.045918e+01
1.890000e-06	2.380508e-07	-1.300541e-10	1.656434e+00	-9.596014e+00
1.900000e-06	2.847825e-07	-1.193138e-10	1.981608e+00	-8.723677e+00
1.910000e-06	3.314816e-07	-1.057373e-10	2.306555e+00	-7.842702e+00
1.920000e-06	3.782365e-07	-8.892093e-11	2.631891e+00	-6.953649e+00
1.930000e-06	4.249492e-07	-7.158352e-11	2.956933e+00	-6.057097e+00
1.940000e-06	4.714549e-07	-5.611307e-11	3.280535e+00	-5.153645e+00
1.950000e-06	5.178953e-07	-4.333950e-11	3.603681e+00	-4.243912e+00
1.960000e-06	5.644411e-07	-3.358213e-11	3.927563e+00	-3.328532e+00
1.970000e-06	6.109849e-07	-2.444777e-11	4.251429e+00	-2.408152e+00
1.980000e-06	6.574662e-07	-1.348316e-11	4.574860e+00	-1.483435e+00
1.990000e-06	7.039160e-07	-2.049320e-12	4.898074e+00	-5.550490e-01
2.000000e-06	7.503103e-07	1.262275e-11	5.220900e+00	3.763272e-01
2.010000e-06	7.966136e-07	2.977149e-11	5.543093e+00	1.310010e+00
2.020000e-06	8.429138e-07	4.585297e-11	5.865265e+00	2.245314e+00
2.030000e-06	8.891956e-07	6.178338e-11	6.187308e+00	3.181548e+00
2.040000e-06	9.353906e-07	7.507894e-11	6.508748e+00	4.118028e+00
2.050000e-06	9.814661e-07	8.658277e-11	6.829356e+00	5.054067e+00
2.060000e-06	1.027420e-06	9.736664e-11	7.149121e+00	5.988986e+00
2.070000e-06	1.073248e-06	1.098167e-10	7.468001e+00	6.922113e+00
2.080000e-06	1.118906e-06	1.243390e-10	7.785707e+00	7.852782e+00
2.090000e-06	1.164523e-06	1.395391e-10	8.103124e+00	8.780339e+00
2.100000e-06	1.210115e-06	1.553342e-10	8.420368e+00	9.704141e+00
2.110000e-06	1.255618e-06	1.698364e-10	8.736995e+00	1.062356e+01
2.120000e-06	1.301054e-06	1.824471e-10	9.053153e+00	1.153798e+01
2.130000e-06	1.346441e-06	1.933124e-10	9.368968e+00	1.244681e+01
2.140000e-06	1.391756e-06	2.037443e-10	9.684282e+00	1.334946e+01
2.150000e-06	1.436967e-06	2.141369e-10	9.998875e+00	1.424537e+01
2.160000e-06	1.482055e-06	2.245568e-10	1.031261e+01	1.513400e+01
2.170000e-06	1.526985e-06	2.352778e-10	1.062525e+01	1.601482e+01
2.180000e-06	1.571750e-06	2.477746e-10	1.093674e+01	1.688733e+01
2.190000e-06	1.616396e-06	2.612559e-10	1.124740e+01	1.775105e+01
2.200000e-06	1.660937e-06	2.721393e-10	1.155734e+01	1.860552e+01
2.210000e-06	1.705351e-06	2.807751e-10	1.186638e+01	1.945031e+01
2.220000e-06	1.749691e-06	2.897429e-10	1.217491e+01	2.028499e+01
2.230000e-06	1.793970e-06	3.005496e-10	1.248302e+01	2.110917e+01
2.240000e-06	1.838140e-06	3.141759e-10	1.279037e+01	2.192249e+01
2.250000e-06	1.882199e-06	3.302105e-10	1.309694e+01	2.272459e+01
2.260000e-06	1.926164e-06	3.451452e-10	1.340287e+01	2.351515e+01
2.270000e-06	1.969992e-06	3.562734e-10	1.370784e+01	2.429387e+01
2.280000e-06	2.013709e-06	3.637004e-10	1.401203e+01	2.506047e+01
2.290000e-06	2.057377e-06	3.707320e-10	1.431589e+01	2.581469e+01
2.300000e-06	2.100989e-06	3.776001e-10	1.461936e+01	2.655628e+01
2.310000e-06	2.144568e-06	3.866571e-10	1.492259e+01	2.728504e+01
2.320000e-06	2.188057e-06	3.986627e-10	1.522520e+01	2.800077e+01
2.330000e-06	2.231373e-06	4.106207e-10	1.552661e+01	2.870329e+01
2.340000e-06	2.274599e-06	4.209226e-10	1.582739e+01	2.939244e+01
2.350000e-06	2.317628e-06	4.286395e-10	1.612680e+01	3.006811e+01
2.360000e-06	2.360387e-06	4.354186e-10	1.642433e+01	3.073016e+01
2.370000e-06	2.402898e-06	4.408112e-10	1.672013e+01	3.137850e+01
2.380000e-06	2.445108e-06	4.470878e-10	1.701385e+01	3.201306e+01
2.390000e-06	2.487051e-06	4.572213e-10	1.730570e+01	3.263377e+01
2.400000e-06	2.528628e-06	4.689033e-10	1.759501e+01	3.324060e+01
2.410000e-06	2.569913e-06	4.798300e-10	1.788228e+01	3.383351e+01
2.420000e-06	2.610870e-06	4.885633e-10	1.816727e+01	3.441251e+01
2.430000e-06	2.651536e-06	4.952187e-10	1.845024e+01	3.497761e+01
2.440000e-06	2.692000e-06	5.000815e-10	1.873180e+01	3.552882e+01
2.450000e-06	2.732233e-06	5.049116e-10	1.901175e+01	3.606621e+01
2.460000e-06	2.772271e-06	5.116860e-10	1.929035e+01	3.658982e+01
2.470000e-06	2.812135e-06	5.198431e-10	1.956774e+01	3.709974e+01
2.480000e-06	2.851872e-06	5.273094e-10	1.984424e+01	3.759606e+01
2.490000e-06	2.891492e-06	5.340689e-10	2.011993e+01	3.807889e+01
2.500000e-06	2.931008e-06	5.403978e-10	2.039489e+01	3.854834e+01
2.510000e-06	2.970361e-06	5.457989e-10	2.066872e+01	3.900457e+01
2.520000e-06	3.009579e-06	5.516646e-10	2.094162e+01	3.944773e+01
2.530000e-06	3.048602e-06	5.588135e-10	2.121315e+01	3.987798e+01
2.540000e-06	3.087403e-06	5.682439e-10	2.148314e+01	4.029551e+01
2.550000e-06	3.126032e-06	5.767772e-10	2.175194e+01	4.070052e+01
2.560000e-06	3.164415e-06	5.829995e-10	2.201902e+01	4.109321e+01
2.570000e-06	3.202587e-06	5.891405e-10	2.228463e+01	4.147382e+01
2.580000e-06	3.240613e-06	5.966323e-10	2.254922e+01	4.184257e+01
2.590000e-06	3.278363e-06	6.037105e-10	2.281190e+01	4.219972e+01
2.600000e-06	3.315798e-06	6.081191e-10	2.307239e+01	4.254552e+01
2.610000e-06	3.353012e-06	6.115944e-10	2.333133e+01	4.288025e+01
2.620000e-06	3.390002e-06	6.161312e-10	2.358872e+01	4.320419e+01
2.630000e-06	3.426693e-06	6.217722e-10	2.384403e+01	4.351762e+01
2.640000e-06	3.463171e-06	6.276935e-10	2.409785e+01	4.382085e+01
2.650000e-06	3.499474e-06	6.347236e-10	2.435046e+01	4.411417e+01
2.660000e-06	3.535536e-06	6.421806e-10	2.460139e+01	4.439790e+01
2.670000e-06	3.571404e-06	6.461910e-10	2.485097e+01	4.467236e+01
2.680000e-06	3.607104e-06	6.474647e-10	2.509939e+01	4.493786e+01
2.690000e-06	3.642681e-06	6.472273e-10	2.534694e+01	4.519473e+01
2.700000e-06	3.678094e-06	6.487347e-10	2.559336e+01	4.544330e+01
2.710000e-06	3.713270e-06	6.549394e-10	2.583812e+01	4.568388e+01
2.720000e-06	3.748173e-06	6.631775e-10	2.608099e+01	4.591681e+01
2.730000e-06	3.782766e-06	6.710870e-10	2.632170e+01	4.614240e+01
2.740000e-06	3.816957e-06	6.770775e-10	2.655961e+01	4.636098e+01
2.750000e-06	3.850672e-06	6.801100e-10	2.679421e+01	4.657285e+01
2.760000e-06	3.883898e-06	6.796272e-10	2.702541e+01	4.677833e+01
2.770000e-06	3.916642e-06	6.784175e-10	2.725325e+01	4.697771e+01
2.780000e-06	3.948994e-06	6.801780e-10	2.747837e+01	4.717129e+01
2.790000e-06	3.981076e-06	6.840085e-10	2.770160e+01	4.735936e+01
2.800000e-06	4.012988e-06	6.879093e-10	2.792366e+01	4.754217e+01
2.810000e-06	4.044735e-06	6.922768e-10	2.814457e+01	4.772000e+01
2.820000e-06	4.076250e-06	6.962816e-10	2.836385e+01	4.789308e+01
2.830000e-06	4.107554e-06	6.987844e-10	2.858168e+01	4.806165e+01
2.840000e-06	4.138679e-06	6.992448e-10	2.879826e+01	4.822592e+01
2.850000e-06	4.169530e-06	7.001775e-10	2.901293e+01	4.838611e+01
2.860000e-06	4.200088e-06	7.019049e-10	2.922556e+01	4.854239e+01
2.870000e-06	4.230360e-06	7.035323e-10	2.943620e+01	4.869494e+01
2.880000e-06	4.260237e-06	7.051209e-10	2.964410e+01	4.884390e+01
2.890000e-06	4.289728e-06	7.069593e-10	2.984930e+01	4.898942e+01
2.900000e-06	4.318983e-06	7.102047e-10	3.005287e+01	4.913161e+01
