# Temperatura_=_-0.3
# Concentracion g/m^3_=_1620.0
# C_Vs_to_Am_M_A/Vsm_=_65563218390.804596
# pendiente_HvsI_1/m_=_3716.3
# ordenada_HvsI_A/m_=_1297.0
# frecuencia_Hz_=_135091.02400051942

Tiempo_(s)	Campo_(V.s)	Magnetizacion_(V.s)	Campo_(kA/m)	Magnetizacion_(A/m)
0.000000e+00	-5.527320e-06	-1.753966e-09	-3.837771e+01	-1.131464e+02
1.000000e-08	-5.527475e-06	-1.753672e-09	-3.837879e+01	-1.130910e+02
2.000000e-08	-5.527314e-06	-1.753240e-09	-3.837767e+01	-1.130322e+02
3.000000e-08	-5.526755e-06	-1.752330e-09	-3.837378e+01	-1.129702e+02
4.000000e-08	-5.525790e-06	-1.751961e-09	-3.836708e+01	-1.129051e+02
5.000000e-08	-5.524268e-06	-1.750643e-09	-3.835652e+01	-1.128372e+02
6.000000e-08	-5.522103e-06	-1.754479e-09	-3.834149e+01	-1.127667e+02
7.000000e-08	-5.519427e-06	-1.778986e-09	-3.832290e+01	-1.126937e+02
8.000000e-08	-5.516255e-06	-1.803669e-09	-3.830088e+01	-1.126183e+02
9.000000e-08	-5.512593e-06	-1.763000e-09	-3.827545e+01	-1.125408e+02
1.000000e-07	-5.508545e-06	-1.688846e-09	-3.824735e+01	-1.124613e+02
1.100000e-07	-5.504314e-06	-1.724768e-09	-3.821797e+01	-1.123800e+02
1.200000e-07	-5.499834e-06	-1.802642e-09	-3.818687e+01	-1.122970e+02
1.300000e-07	-5.494903e-06	-1.816608e-09	-3.815263e+01	-1.122124e+02
1.400000e-07	-5.489584e-06	-1.705082e-09	-3.811569e+01	-1.121263e+02
1.500000e-07	-5.483934e-06	-1.720339e-09	-3.807647e+01	-1.120389e+02
1.600000e-07	-5.478004e-06	-1.820925e-09	-3.803529e+01	-1.119501e+02
1.700000e-07	-5.471644e-06	-1.825929e-09	-3.799114e+01	-1.118602e+02
1.800000e-07	-5.464739e-06	-1.694956e-09	-3.794319e+01	-1.117691e+02
1.900000e-07	-5.457514e-06	-1.652998e-09	-3.789302e+01	-1.116768e+02
2.000000e-07	-5.450033e-06	-1.750268e-09	-3.784108e+01	-1.115834e+02
2.100000e-07	-5.442258e-06	-1.778594e-09	-3.778710e+01	-1.114888e+02
2.200000e-07	-5.434207e-06	-1.720363e-09	-3.773120e+01	-1.113930e+02
2.300000e-07	-5.425962e-06	-1.662050e-09	-3.767395e+01	-1.112960e+02
2.400000e-07	-5.417279e-06	-1.704697e-09	-3.761366e+01	-1.111976e+02
2.500000e-07	-5.407779e-06	-1.700171e-09	-3.754770e+01	-1.110979e+02
2.600000e-07	-5.397521e-06	-1.676919e-09	-3.747648e+01	-1.109965e+02
2.700000e-07	-5.386735e-06	-1.653645e-09	-3.740159e+01	-1.108935e+02
2.800000e-07	-5.375620e-06	-1.683435e-09	-3.732442e+01	-1.107886e+02
2.900000e-07	-5.364114e-06	-1.671061e-09	-3.724452e+01	-1.106817e+02
3.000000e-07	-5.352206e-06	-1.660646e-09	-3.716184e+01	-1.105725e+02
3.100000e-07	-5.339846e-06	-1.648977e-09	-3.707602e+01	-1.104608e+02
3.200000e-07	-5.326994e-06	-1.671331e-09	-3.698679e+01	-1.103464e+02
3.300000e-07	-5.313785e-06	-1.670092e-09	-3.689507e+01	-1.102291e+02
3.400000e-07	-5.300274e-06	-1.653545e-09	-3.680126e+01	-1.101085e+02
3.500000e-07	-5.286369e-06	-1.636165e-09	-3.670472e+01	-1.099844e+02
3.600000e-07	-5.272054e-06	-1.655480e-09	-3.660533e+01	-1.098565e+02
3.700000e-07	-5.257279e-06	-1.651117e-09	-3.650274e+01	-1.097246e+02
3.800000e-07	-5.241871e-06	-1.629292e-09	-3.639575e+01	-1.095882e+02
3.900000e-07	-5.225884e-06	-1.643895e-09	-3.628476e+01	-1.094471e+02
4.000000e-07	-5.209489e-06	-1.656760e-09	-3.617092e+01	-1.093010e+02
4.100000e-07	-5.192785e-06	-1.619198e-09	-3.605494e+01	-1.091496e+02
4.200000e-07	-5.175712e-06	-1.607559e-09	-3.593640e+01	-1.089926e+02
4.300000e-07	-5.158339e-06	-1.652532e-09	-3.581577e+01	-1.088297e+02
4.400000e-07	-5.140673e-06	-1.623128e-09	-3.569311e+01	-1.086606e+02
4.500000e-07	-5.122617e-06	-1.576091e-09	-3.556774e+01	-1.084851e+02
4.600000e-07	-5.104159e-06	-1.608240e-09	-3.543958e+01	-1.083028e+02
4.700000e-07	-5.085266e-06	-1.642768e-09	-3.530840e+01	-1.081137e+02
4.800000e-07	-5.065957e-06	-1.587239e-09	-3.517434e+01	-1.079173e+02
4.900000e-07	-5.046405e-06	-1.590568e-09	-3.503858e+01	-1.077136e+02
5.000000e-07	-5.026666e-06	-1.616109e-09	-3.490153e+01	-1.075023e+02
5.100000e-07	-5.006721e-06	-1.583567e-09	-3.476305e+01	-1.072833e+02
5.200000e-07	-4.986467e-06	-1.560176e-09	-3.462242e+01	-1.070566e+02
5.300000e-07	-4.965845e-06	-1.608691e-09	-3.447923e+01	-1.068218e+02
5.400000e-07	-4.944877e-06	-1.581966e-09	-3.433365e+01	-1.065791e+02
5.500000e-07	-4.923463e-06	-1.541875e-09	-3.418497e+01	-1.063283e+02
5.600000e-07	-4.901687e-06	-1.575735e-09	-3.403377e+01	-1.060695e+02
5.700000e-07	-4.879678e-06	-1.598631e-09	-3.388095e+01	-1.058026e+02
5.800000e-07	-4.857321e-06	-1.544272e-09	-3.372572e+01	-1.055277e+02
5.900000e-07	-4.834509e-06	-1.544599e-09	-3.356733e+01	-1.052448e+02
6.000000e-07	-4.811464e-06	-1.566311e-09	-3.340732e+01	-1.049541e+02
6.100000e-07	-4.788185e-06	-1.541135e-09	-3.324569e+01	-1.046556e+02
6.200000e-07	-4.764508e-06	-1.527178e-09	-3.308129e+01	-1.043496e+02
6.300000e-07	-4.740594e-06	-1.554064e-09	-3.291525e+01	-1.040362e+02
6.400000e-07	-4.716411e-06	-1.544355e-09	-3.274734e+01	-1.037155e+02
6.500000e-07	-4.691948e-06	-1.528176e-09	-3.257749e+01	-1.033879e+02
6.600000e-07	-4.667042e-06	-1.537838e-09	-3.240456e+01	-1.030535e+02
6.700000e-07	-4.641518e-06	-1.527317e-09	-3.222734e+01	-1.027126e+02
6.800000e-07	-4.615476e-06	-1.503636e-09	-3.204653e+01	-1.023654e+02
6.900000e-07	-4.588918e-06	-1.504725e-09	-3.186212e+01	-1.020122e+02
7.000000e-07	-4.561872e-06	-1.506589e-09	-3.167433e+01	-1.016534e+02
7.100000e-07	-4.534486e-06	-1.490679e-09	-3.148419e+01	-1.012891e+02
7.200000e-07	-4.506887e-06	-1.491363e-09	-3.129256e+01	-1.009197e+02
7.300000e-07	-4.479153e-06	-1.494210e-09	-3.110000e+01	-1.005454e+02
7.400000e-07	-4.451245e-06	-1.485871e-09	-3.090622e+01	-1.001666e+02
7.500000e-07	-4.423140e-06	-1.472365e-09	-3.071108e+01	-9.978340e+01
7.600000e-07	-4.394808e-06	-1.470201e-09	-3.051437e+01	-9.939620e+01
7.700000e-07	-4.366126e-06	-1.458263e-09	-3.031522e+01	-9.900520e+01
7.800000e-07	-4.337197e-06	-1.453309e-09	-3.011436e+01	-9.861063e+01
7.900000e-07	-4.307937e-06	-1.451628e-09	-2.991120e+01	-9.821269e+01
8.000000e-07	-4.278267e-06	-1.447313e-09	-2.970519e+01	-9.781158e+01
8.100000e-07	-4.248295e-06	-1.434619e-09	-2.949709e+01	-9.740746e+01
8.200000e-07	-4.218124e-06	-1.432555e-09	-2.928760e+01	-9.700047e+01
8.300000e-07	-4.187666e-06	-1.421599e-09	-2.907612e+01	-9.659071e+01
8.400000e-07	-4.156839e-06	-1.408140e-09	-2.886208e+01	-9.617827e+01
8.500000e-07	-4.125723e-06	-1.400680e-09	-2.864603e+01	-9.576320e+01
8.600000e-07	-4.094366e-06	-1.400977e-09	-2.842831e+01	-9.534553e+01
8.700000e-07	-4.062844e-06	-1.390843e-09	-2.820945e+01	-9.492524e+01
8.800000e-07	-4.031135e-06	-1.385162e-09	-2.798928e+01	-9.450228e+01
8.900000e-07	-3.999114e-06	-1.381510e-09	-2.776695e+01	-9.407659e+01
9.000000e-07	-3.966830e-06	-1.368584e-09	-2.754279e+01	-9.364806e+01
9.100000e-07	-3.934309e-06	-1.351819e-09	-2.731699e+01	-9.321656e+01
9.200000e-07	-3.901407e-06	-1.347535e-09	-2.708855e+01	-9.278192e+01
9.300000e-07	-3.868033e-06	-1.339492e-09	-2.685682e+01	-9.234396e+01
9.400000e-07	-3.834217e-06	-1.328517e-09	-2.662203e+01	-9.190245e+01
9.500000e-07	-3.800065e-06	-1.328167e-09	-2.638490e+01	-9.145717e+01
9.600000e-07	-3.765547e-06	-1.328342e-09	-2.614523e+01	-9.100784e+01
9.700000e-07	-3.730616e-06	-1.315432e-09	-2.590270e+01	-9.055420e+01
9.800000e-07	-3.695360e-06	-1.303232e-09	-2.565790e+01	-9.009594e+01
9.900000e-07	-3.659832e-06	-1.298573e-09	-2.541122e+01	-8.963277e+01
1.000000e-06	-3.624126e-06	-1.287311e-09	-2.516331e+01	-8.916437e+01
1.010000e-06	-3.588319e-06	-1.278816e-09	-2.491469e+01	-8.869042e+01
1.020000e-06	-3.552421e-06	-1.276361e-09	-2.466544e+01	-8.821060e+01
1.030000e-06	-3.516365e-06	-1.270953e-09	-2.441509e+01	-8.772458e+01
1.040000e-06	-3.479999e-06	-1.258114e-09	-2.416259e+01	-8.723205e+01
1.050000e-06	-3.443405e-06	-1.252426e-09	-2.390851e+01	-8.673269e+01
1.060000e-06	-3.406632e-06	-1.245079e-09	-2.365319e+01	-8.622621e+01
1.070000e-06	-3.369572e-06	-1.232531e-09	-2.339587e+01	-8.571232e+01
1.080000e-06	-3.332220e-06	-1.219756e-09	-2.313652e+01	-8.519076e+01
1.090000e-06	-3.294647e-06	-1.212895e-09	-2.287564e+01	-8.466128e+01
1.100000e-06	-3.256844e-06	-1.201937e-09	-2.261317e+01	-8.412364e+01
1.110000e-06	-3.218794e-06	-1.191969e-09	-2.234898e+01	-8.357766e+01
1.120000e-06	-3.180508e-06	-1.184233e-09	-2.208314e+01	-8.302315e+01
1.130000e-06	-3.141998e-06	-1.176732e-09	-2.181576e+01	-8.245997e+01
1.140000e-06	-3.103345e-06	-1.163850e-09	-2.154738e+01	-8.188801e+01
1.150000e-06	-3.064477e-06	-1.153682e-09	-2.127751e+01	-8.130718e+01
1.160000e-06	-3.025359e-06	-1.143607e-09	-2.100590e+01	-8.071742e+01
1.170000e-06	-2.986067e-06	-1.132337e-09	-2.073309e+01	-8.011871e+01
1.180000e-06	-2.946627e-06	-1.120597e-09	-2.045924e+01	-7.951107e+01
1.190000e-06	-2.907071e-06	-1.112599e-09	-2.018460e+01	-7.889453e+01
1.200000e-06	-2.867375e-06	-1.104092e-09	-1.990898e+01	-7.826916e+01
1.210000e-06	-2.827531e-06	-1.094895e-09	-1.963233e+01	-7.763506e+01
1.220000e-06	-2.787576e-06	-1.085340e-09	-1.935491e+01	-7.699235e+01
1.230000e-06	-2.747429e-06	-1.074259e-09	-1.907616e+01	-7.634117e+01
1.240000e-06	-2.707085e-06	-1.063310e-09	-1.879604e+01	-7.568170e+01
1.250000e-06	-2.666524e-06	-1.054958e-09	-1.851442e+01	-7.501412e+01
1.260000e-06	-2.625681e-06	-1.047189e-09	-1.823083e+01	-7.433864e+01
1.270000e-06	-2.584604e-06	-1.036003e-09	-1.794562e+01	-7.365545e+01
1.280000e-06	-2.543323e-06	-1.025027e-09	-1.765899e+01	-7.296478e+01
1.290000e-06	-2.501725e-06	-1.014478e-09	-1.737016e+01	-7.226686e+01
1.300000e-06	-2.459776e-06	-1.002048e-09	-1.707891e+01	-7.156190e+01
1.310000e-06	-2.417413e-06	-9.868876e-10	-1.678477e+01	-7.085012e+01
1.320000e-06	-2.374709e-06	-9.743054e-10	-1.648826e+01	-7.013173e+01
1.330000e-06	-2.331806e-06	-9.632929e-10	-1.619037e+01	-6.940690e+01
1.340000e-06	-2.288696e-06	-9.533614e-10	-1.589104e+01	-6.867582e+01
1.350000e-06	-2.245482e-06	-9.434574e-10	-1.559100e+01	-6.793863e+01
1.360000e-06	-2.202145e-06	-9.352519e-10	-1.529010e+01	-6.719545e+01
1.370000e-06	-2.158620e-06	-9.250860e-10	-1.498790e+01	-6.644637e+01
1.380000e-06	-2.114971e-06	-9.116118e-10	-1.468482e+01	-6.569144e+01
1.390000e-06	-2.071272e-06	-8.967549e-10	-1.438141e+01	-6.493066e+01
1.400000e-06	-2.027577e-06	-8.845695e-10	-1.407803e+01	-6.416401e+01
1.410000e-06	-1.983784e-06	-8.726860e-10	-1.377396e+01	-6.339140e+01
1.420000e-06	-1.939819e-06	-8.621057e-10	-1.346870e+01	-6.261271e+01
1.430000e-06	-1.895766e-06	-8.521964e-10	-1.316283e+01	-6.182776e+01
1.440000e-06	-1.851629e-06	-8.429382e-10	-1.285637e+01	-6.103631e+01
1.450000e-06	-1.807375e-06	-8.323163e-10	-1.254911e+01	-6.023808e+01
1.460000e-06	-1.762991e-06	-8.201599e-10	-1.224093e+01	-5.943273e+01
1.470000e-06	-1.718488e-06	-8.074398e-10	-1.193194e+01	-5.861985e+01
1.480000e-06	-1.673800e-06	-7.941959e-10	-1.162166e+01	-5.779899e+01
1.490000e-06	-1.629003e-06	-7.805217e-10	-1.131062e+01	-5.696966e+01
1.500000e-06	-1.584106e-06	-7.691494e-10	-1.099888e+01	-5.613128e+01
1.510000e-06	-1.539044e-06	-7.585926e-10	-1.068600e+01	-5.528325e+01
1.520000e-06	-1.493836e-06	-7.461195e-10	-1.037212e+01	-5.442491e+01
1.530000e-06	-1.448519e-06	-7.315611e-10	-1.005747e+01	-5.355556e+01
1.540000e-06	-1.403101e-06	-7.170142e-10	-9.742119e+00	-5.267446e+01
1.550000e-06	-1.357694e-06	-7.031911e-10	-9.426843e+00	-5.178082e+01
1.560000e-06	-1.312100e-06	-6.893869e-10	-9.110270e+00	-5.087384e+01
1.570000e-06	-1.266353e-06	-6.741119e-10	-8.792637e+00	-4.995268e+01
1.580000e-06	-1.220572e-06	-6.582677e-10	-8.474765e+00	-4.901648e+01
1.590000e-06	-1.174640e-06	-6.417130e-10	-8.155847e+00	-4.806436e+01
1.600000e-06	-1.128694e-06	-6.249545e-10	-7.836837e+00	-4.709546e+01
1.610000e-06	-1.082782e-06	-6.089658e-10	-7.518057e+00	-4.610887e+01
1.620000e-06	-1.036733e-06	-5.925272e-10	-7.198320e+00	-4.510373e+01
1.630000e-06	-9.905786e-07	-5.789791e-10	-6.877861e+00	-4.407916e+01
1.640000e-06	-9.444761e-07	-5.666814e-10	-6.557758e+00	-4.303434e+01
1.650000e-06	-8.982883e-07	-5.534191e-10	-6.237063e+00	-4.196842e+01
1.660000e-06	-8.519732e-07	-5.353335e-10	-5.915485e+00	-4.088064e+01
1.670000e-06	-8.055396e-07	-5.134477e-10	-5.593084e+00	-3.977024e+01
1.680000e-06	-7.590448e-07	-4.921041e-10	-5.270257e+00	-3.863654e+01
1.690000e-06	-7.126026e-07	-4.738341e-10	-4.947796e+00	-3.747888e+01
1.700000e-06	-6.661128e-07	-4.549909e-10	-4.625005e+00	-3.629670e+01
1.710000e-06	-6.194985e-07	-4.367310e-10	-4.301349e+00	-3.508949e+01
1.720000e-06	-5.728729e-07	-4.207971e-10	-3.977614e+00	-3.385680e+01
1.730000e-06	-5.262830e-07	-4.060105e-10	-3.654128e+00	-3.259828e+01
1.740000e-06	-4.796866e-07	-3.882896e-10	-3.330596e+00	-3.131366e+01
1.750000e-06	-4.329411e-07	-3.653925e-10	-3.006029e+00	-3.000276e+01
1.760000e-06	-3.861405e-07	-3.423273e-10	-2.681080e+00	-2.866550e+01
1.770000e-06	-3.393099e-07	-3.207622e-10	-2.355922e+00	-2.730187e+01
1.780000e-06	-2.924792e-07	-2.984054e-10	-2.030764e+00	-2.591198e+01
1.790000e-06	-2.456502e-07	-2.796562e-10	-1.705617e+00	-2.449606e+01
1.800000e-06	-1.987683e-07	-2.644924e-10	-1.380103e+00	-2.305440e+01
1.810000e-06	-1.518739e-07	-2.466545e-10	-1.054502e+00	-2.158743e+01
1.820000e-06	-1.049872e-07	-2.245310e-10	-7.289552e-01	-2.009566e+01
1.830000e-06	-5.814994e-08	-1.991344e-10	-4.037511e-01	-1.857972e+01
1.840000e-06	-1.132324e-08	-1.723023e-10	-7.862040e-02	-1.704033e+01
1.850000e-06	3.551345e-08	-1.473988e-10	2.465797e-01	-1.547832e+01
1.860000e-06	8.244683e-08	-1.272073e-10	5.724511e-01	-1.389462e+01
1.870000e-06	1.294802e-07	-1.063152e-10	8.990169e-01	-1.229023e+01
1.880000e-06	1.764340e-07	-8.477001e-11	1.225030e+00	-1.066626e+01
1.890000e-06	2.233562e-07	-6.536410e-11	1.550824e+00	-9.023908e+00
1.900000e-06	2.703089e-07	-4.498621e-11	1.876829e+00	-7.364435e+00
1.910000e-06	3.172118e-07	-2.181092e-11	2.202489e+00	-5.689188e+00
1.920000e-06	3.641093e-07	2.855486e-12	2.528111e+00	-3.999578e+00
1.930000e-06	4.109216e-07	2.812326e-11	2.853142e+00	-2.297076e+00
1.940000e-06	4.576411e-07	5.306385e-11	3.177529e+00	-5.832099e-01
1.950000e-06	5.043720e-07	7.775364e-11	3.501994e+00	1.140450e+00
1.960000e-06	5.510813e-07	1.001003e-10	3.826310e+00	2.872292e+00
1.970000e-06	5.977497e-07	1.202784e-10	4.150341e+00	4.610674e+00
1.980000e-06	6.443303e-07	1.419999e-10	4.473763e+00	6.353933e+00
1.990000e-06	6.908156e-07	1.632247e-10	4.796524e+00	8.100390e+00
2.000000e-06	7.371649e-07	1.841571e-10	5.118339e+00	9.848359e+00
2.010000e-06	7.835195e-07	2.081325e-10	5.440192e+00	1.159616e+01
2.020000e-06	8.299093e-07	2.333378e-10	5.762289e+00	1.334211e+01
2.030000e-06	8.761370e-07	2.607504e-10	6.083261e+00	1.508457e+01
2.040000e-06	9.222512e-07	2.881364e-10	6.403445e+00	1.682189e+01
2.050000e-06	9.684171e-07	3.117108e-10	6.723987e+00	1.855249e+01
2.060000e-06	1.014629e-06	3.321916e-10	7.044848e+00	2.027481e+01
2.070000e-06	1.060722e-06	3.505839e-10	7.364883e+00	2.198733e+01
2.080000e-06	1.106640e-06	3.696073e-10	7.683704e+00	2.368860e+01
2.090000e-06	1.152383e-06	3.925112e-10	8.001314e+00	2.537722e+01
2.100000e-06	1.198045e-06	4.195626e-10	8.318356e+00	2.705186e+01
2.110000e-06	1.243692e-06	4.469923e-10	8.635294e+00	2.871126e+01
2.120000e-06	1.289279e-06	4.724918e-10	8.951822e+00	3.035421e+01
2.130000e-06	1.334778e-06	4.949887e-10	9.267731e+00	3.197962e+01
2.140000e-06	1.380159e-06	5.144877e-10	9.582824e+00	3.358644e+01
2.150000e-06	1.425441e-06	5.322129e-10	9.897229e+00	3.517373e+01
2.160000e-06	1.470603e-06	5.506480e-10	1.021080e+01	3.674063e+01
2.170000e-06	1.515577e-06	5.719355e-10	1.052307e+01	3.828634e+01
2.180000e-06	1.560549e-06	5.955588e-10	1.083532e+01	3.981019e+01
2.190000e-06	1.605514e-06	6.200910e-10	1.114753e+01	4.131157e+01
2.200000e-06	1.650340e-06	6.441395e-10	1.145877e+01	4.278997e+01
2.210000e-06	1.694993e-06	6.648396e-10	1.176881e+01	4.424494e+01
2.220000e-06	1.739492e-06	6.812412e-10	1.207778e+01	4.567615e+01
2.230000e-06	1.783837e-06	6.957911e-10	1.238568e+01	4.708333e+01
2.240000e-06	1.828027e-06	7.134589e-10	1.269249e+01	4.846630e+01
2.250000e-06	1.872127e-06	7.342762e-10	1.299869e+01	4.982494e+01
2.260000e-06	1.916150e-06	7.559651e-10	1.330436e+01	5.115923e+01
2.270000e-06	1.960128e-06	7.774107e-10	1.360971e+01	5.246919e+01
2.280000e-06	2.003996e-06	7.964871e-10	1.391430e+01	5.375493e+01
2.290000e-06	2.047736e-06	8.126824e-10	1.421800e+01	5.501661e+01
2.300000e-06	2.091409e-06	8.276606e-10	1.452123e+01	5.625446e+01
2.310000e-06	2.135029e-06	8.417288e-10	1.482409e+01	5.746873e+01
2.320000e-06	2.178615e-06	8.592350e-10	1.512673e+01	5.865975e+01
2.330000e-06	2.222141e-06	8.794001e-10	1.542894e+01	5.982787e+01
2.340000e-06	2.265490e-06	8.990002e-10	1.572992e+01	6.097350e+01
2.350000e-06	2.308603e-06	9.172668e-10	1.602927e+01	6.209706e+01
2.360000e-06	2.351555e-06	9.317492e-10	1.632750e+01	6.319900e+01
2.370000e-06	2.394354e-06	9.432128e-10	1.662466e+01	6.427981e+01
2.380000e-06	2.436838e-06	9.542931e-10	1.691964e+01	6.533998e+01
2.390000e-06	2.478934e-06	9.690632e-10	1.721192e+01	6.638000e+01
2.400000e-06	2.520710e-06	9.846805e-10	1.750199e+01	6.740041e+01
2.410000e-06	2.562183e-06	9.997055e-10	1.778994e+01	6.840170e+01
2.420000e-06	2.603449e-06	1.014882e-09	1.807646e+01	6.938441e+01
2.430000e-06	2.644478e-06	1.029222e-09	1.836134e+01	7.034904e+01
2.440000e-06	2.685158e-06	1.041287e-09	1.864380e+01	7.129609e+01
2.450000e-06	2.725625e-06	1.052514e-09	1.892476e+01	7.222607e+01
2.460000e-06	2.765879e-06	1.064134e-09	1.920426e+01	7.313944e+01
2.470000e-06	2.805862e-06	1.075492e-09	1.948187e+01	7.403668e+01
2.480000e-06	2.845631e-06	1.087803e-09	1.975800e+01	7.491823e+01
2.490000e-06	2.885302e-06	1.100414e-09	2.003345e+01	7.578451e+01
2.500000e-06	2.924913e-06	1.112429e-09	2.030848e+01	7.663593e+01
2.510000e-06	2.964431e-06	1.125802e-09	2.058286e+01	7.747286e+01
2.520000e-06	3.003789e-06	1.139102e-09	2.085613e+01	7.829567e+01
2.530000e-06	3.042890e-06	1.150792e-09	2.112763e+01	7.910468e+01
2.540000e-06	3.081752e-06	1.161927e-09	2.139745e+01	7.990020e+01
2.550000e-06	3.120439e-06	1.171270e-09	2.166607e+01	8.068252e+01
2.560000e-06	3.158904e-06	1.177825e-09	2.193315e+01	8.145190e+01
2.570000e-06	3.197147e-06	1.185025e-09	2.219868e+01	8.220857e+01
2.580000e-06	3.235163e-06	1.198723e-09	2.246263e+01	8.295275e+01
2.590000e-06	3.272960e-06	1.215013e-09	2.272506e+01	8.368463e+01
2.600000e-06	3.310660e-06	1.228188e-09	2.298683e+01	8.440438e+01
2.610000e-06	3.348228e-06	1.235470e-09	2.324767e+01	8.511217e+01
2.620000e-06	3.385575e-06	1.241769e-09	2.350698e+01	8.580812e+01
2.630000e-06	3.422561e-06	1.249795e-09	2.376378e+01	8.649236e+01
2.640000e-06	3.459150e-06	1.255537e-09	2.401783e+01	8.716500e+01
2.650000e-06	3.495447e-06	1.263436e-09	2.426986e+01	8.782613e+01
2.660000e-06	3.531528e-06	1.274428e-09	2.452038e+01	8.847586e+01
2.670000e-06	3.567434e-06	1.286135e-09	2.476968e+01	8.911424e+01
2.680000e-06	3.603202e-06	1.294585e-09	2.501803e+01	8.974137e+01
2.690000e-06	3.638848e-06	1.300484e-09	2.526552e+01	9.035730e+01
2.700000e-06	3.674359e-06	1.304763e-09	2.551209e+01	9.096211e+01
2.710000e-06	3.709724e-06	1.310155e-09	2.575764e+01	9.155586e+01
2.720000e-06	3.744810e-06	1.318440e-09	2.600125e+01	9.213861e+01
2.730000e-06	3.779555e-06	1.326795e-09	2.624249e+01	9.271044e+01
2.740000e-06	3.813981e-06	1.335784e-09	2.648152e+01	9.327141e+01
2.750000e-06	3.848005e-06	1.343922e-09	2.671776e+01	9.382161e+01
2.760000e-06	3.881515e-06	1.350201e-09	2.695043e+01	9.436111e+01
2.770000e-06	3.914581e-06	1.354523e-09	2.718001e+01	9.489000e+01
2.780000e-06	3.947211e-06	1.359191e-09	2.740658e+01	9.540837e+01
2.790000e-06	3.979427e-06	1.365949e-09	2.763026e+01	9.591633e+01
2.800000e-06	4.011453e-06	1.372368e-09	2.785262e+01	9.641398e+01
2.810000e-06	4.043295e-06	1.379410e-09	2.807371e+01	9.690146e+01
2.820000e-06	4.074971e-06	1.387184e-09	2.829365e+01	9.737887e+01
2.830000e-06	4.106471e-06	1.393554e-09	2.851236e+01	9.784636e+01
2.840000e-06	4.137713e-06	1.399237e-09	2.872929e+01	9.830407e+01
2.850000e-06	4.168703e-06	1.403556e-09	2.894446e+01	9.875216e+01
2.860000e-06	4.199399e-06	1.408164e-09	2.915758e+01	9.919077e+01
2.870000e-06	4.229761e-06	1.414337e-09	2.936840e+01	9.962008e+01
2.880000e-06	4.259822e-06	1.421027e-09	2.957712e+01	1.000403e+02
2.890000e-06	4.289592e-06	1.426781e-09	2.978382e+01	1.004515e+02
2.900000e-06	4.319028e-06	1.432228e-09	2.998820e+01	1.008539e+02
