# Temperatura_=_-0.5
# Concentracion g/m^3_=_1620.0
# C_Vs_to_Am_M_A/Vsm_=_65563218390.804596
# pendiente_HvsI_1/m_=_3716.3
# ordenada_HvsI_A/m_=_1297.0
# frecuencia_Hz_=_135094.4556745228

Tiempo_(s)	Campo_(V.s)	Magnetizacion_(V.s)	Campo_(kA/m)	Magnetizacion_(A/m)
0.000000e+00	-5.505064e-06	-1.347417e-09	-3.837521e+01	-8.797652e+01
1.000000e-08	-5.505340e-06	-1.345470e-09	-3.837713e+01	-8.795186e+01
2.000000e-08	-5.505317e-06	-1.344937e-09	-3.837697e+01	-8.792394e+01
3.000000e-08	-5.504891e-06	-1.345723e-09	-3.837400e+01	-8.789266e+01
4.000000e-08	-5.504058e-06	-1.345418e-09	-3.836820e+01	-8.785788e+01
5.000000e-08	-5.502743e-06	-1.342489e-09	-3.835903e+01	-8.781952e+01
6.000000e-08	-5.500772e-06	-1.336683e-09	-3.834528e+01	-8.777745e+01
7.000000e-08	-5.498110e-06	-1.327396e-09	-3.832673e+01	-8.773160e+01
8.000000e-08	-5.494898e-06	-1.335691e-09	-3.830434e+01	-8.768187e+01
9.000000e-08	-5.491301e-06	-1.382054e-09	-3.827926e+01	-8.762821e+01
1.000000e-07	-5.487238e-06	-1.399001e-09	-3.825094e+01	-8.757054e+01
1.100000e-07	-5.482808e-06	-1.316909e-09	-3.822006e+01	-8.750882e+01
1.200000e-07	-5.478353e-06	-1.276231e-09	-3.818900e+01	-8.744301e+01
1.300000e-07	-5.473778e-06	-1.339860e-09	-3.815711e+01	-8.737310e+01
1.400000e-07	-5.468697e-06	-1.394864e-09	-3.812169e+01	-8.729909e+01
1.500000e-07	-5.463082e-06	-1.344943e-09	-3.808255e+01	-8.722097e+01
1.600000e-07	-5.457130e-06	-1.284331e-09	-3.804106e+01	-8.713877e+01
1.700000e-07	-5.450907e-06	-1.338697e-09	-3.799768e+01	-8.705254e+01
1.800000e-07	-5.444199e-06	-1.381551e-09	-3.795092e+01	-8.696231e+01
1.900000e-07	-5.437058e-06	-1.351396e-09	-3.790115e+01	-8.686816e+01
2.000000e-07	-5.429735e-06	-1.300043e-09	-3.785010e+01	-8.677015e+01
2.100000e-07	-5.422123e-06	-1.339835e-09	-3.779703e+01	-8.666839e+01
2.200000e-07	-5.414136e-06	-1.389951e-09	-3.774135e+01	-8.656297e+01
2.300000e-07	-5.405898e-06	-1.371421e-09	-3.768393e+01	-8.645400e+01
2.400000e-07	-5.397361e-06	-1.328136e-09	-3.762442e+01	-8.634160e+01
2.500000e-07	-5.388271e-06	-1.338477e-09	-3.756105e+01	-8.622590e+01
2.600000e-07	-5.378308e-06	-1.351867e-09	-3.749160e+01	-8.610704e+01
2.700000e-07	-5.367650e-06	-1.328410e-09	-3.741731e+01	-8.598515e+01
2.800000e-07	-5.356561e-06	-1.291053e-09	-3.734001e+01	-8.586037e+01
2.900000e-07	-5.345018e-06	-1.288783e-09	-3.725954e+01	-8.573286e+01
3.000000e-07	-5.333125e-06	-1.306517e-09	-3.717664e+01	-8.560275e+01
3.100000e-07	-5.320966e-06	-1.295443e-09	-3.709188e+01	-8.547020e+01
3.200000e-07	-5.308380e-06	-1.276783e-09	-3.700414e+01	-8.533534e+01
3.300000e-07	-5.295241e-06	-1.284324e-09	-3.691255e+01	-8.519831e+01
3.400000e-07	-5.281834e-06	-1.311849e-09	-3.681909e+01	-8.505924e+01
3.500000e-07	-5.268132e-06	-1.289288e-09	-3.672358e+01	-8.491826e+01
3.600000e-07	-5.253778e-06	-1.272271e-09	-3.662352e+01	-8.477548e+01
3.700000e-07	-5.238919e-06	-1.297052e-09	-3.651993e+01	-8.463101e+01
3.800000e-07	-5.223693e-06	-1.301803e-09	-3.641380e+01	-8.448495e+01
3.900000e-07	-5.207899e-06	-1.254179e-09	-3.630370e+01	-8.433738e+01
4.000000e-07	-5.191546e-06	-1.273084e-09	-3.618970e+01	-8.418836e+01
4.100000e-07	-5.174935e-06	-1.314708e-09	-3.607391e+01	-8.403796e+01
4.200000e-07	-5.158106e-06	-1.268467e-09	-3.595660e+01	-8.388622e+01
4.300000e-07	-5.140762e-06	-1.230644e-09	-3.583570e+01	-8.373316e+01
4.400000e-07	-5.123122e-06	-1.300936e-09	-3.571273e+01	-8.357880e+01
4.500000e-07	-5.105284e-06	-1.299643e-09	-3.558838e+01	-8.342314e+01
4.600000e-07	-5.086922e-06	-1.217502e-09	-3.546039e+01	-8.326614e+01
4.700000e-07	-5.068092e-06	-1.241820e-09	-3.532912e+01	-8.310779e+01
4.800000e-07	-5.048984e-06	-1.299636e-09	-3.519592e+01	-8.294803e+01
4.900000e-07	-5.029574e-06	-1.237244e-09	-3.506061e+01	-8.278679e+01
5.000000e-07	-5.009875e-06	-1.219257e-09	-3.492330e+01	-8.262401e+01
5.100000e-07	-4.990028e-06	-1.286406e-09	-3.478494e+01	-8.245959e+01
5.200000e-07	-4.969922e-06	-1.255058e-09	-3.464479e+01	-8.229344e+01
5.300000e-07	-4.949372e-06	-1.196192e-09	-3.450154e+01	-8.212543e+01
5.400000e-07	-4.928482e-06	-1.253330e-09	-3.435592e+01	-8.195545e+01
5.500000e-07	-4.907257e-06	-1.265739e-09	-3.420796e+01	-8.178336e+01
5.600000e-07	-4.885660e-06	-1.193520e-09	-3.405741e+01	-8.160904e+01
5.700000e-07	-4.863828e-06	-1.219797e-09	-3.390522e+01	-8.143234e+01
5.800000e-07	-4.841744e-06	-1.269292e-09	-3.375128e+01	-8.125312e+01
5.900000e-07	-4.819144e-06	-1.216365e-09	-3.359373e+01	-8.107122e+01
6.000000e-07	-4.796073e-06	-1.199155e-09	-3.343291e+01	-8.088649e+01
6.100000e-07	-4.772822e-06	-1.247020e-09	-3.327083e+01	-8.069879e+01
6.200000e-07	-4.749382e-06	-1.220495e-09	-3.310743e+01	-8.050798e+01
6.300000e-07	-4.725713e-06	-1.188598e-09	-3.294244e+01	-8.031390e+01
6.400000e-07	-4.701828e-06	-1.223122e-09	-3.277593e+01	-8.011643e+01
6.500000e-07	-4.677601e-06	-1.224682e-09	-3.260705e+01	-7.991542e+01
6.600000e-07	-4.652942e-06	-1.188012e-09	-3.243515e+01	-7.971076e+01
6.700000e-07	-4.627755e-06	-1.200140e-09	-3.225958e+01	-7.950232e+01
6.800000e-07	-4.602023e-06	-1.204661e-09	-3.208020e+01	-7.929002e+01
6.900000e-07	-4.575750e-06	-1.174327e-09	-3.189706e+01	-7.907373e+01
7.000000e-07	-4.548973e-06	-1.172127e-09	-3.171040e+01	-7.885340e+01
7.100000e-07	-4.521860e-06	-1.186724e-09	-3.152140e+01	-7.862893e+01
7.200000e-07	-4.494503e-06	-1.170800e-09	-3.133070e+01	-7.840027e+01
7.300000e-07	-4.466952e-06	-1.166265e-09	-3.113864e+01	-7.816738e+01
7.400000e-07	-4.439221e-06	-1.175616e-09	-3.094533e+01	-7.793021e+01
7.500000e-07	-4.411270e-06	-1.164962e-09	-3.075049e+01	-7.768874e+01
7.600000e-07	-4.382999e-06	-1.153022e-09	-3.055341e+01	-7.744297e+01
7.700000e-07	-4.354408e-06	-1.156627e-09	-3.035411e+01	-7.719288e+01
7.800000e-07	-4.325572e-06	-1.144033e-09	-3.015309e+01	-7.693850e+01
7.900000e-07	-4.296411e-06	-1.129961e-09	-2.994982e+01	-7.667983e+01
8.000000e-07	-4.266881e-06	-1.134201e-09	-2.974396e+01	-7.641692e+01
8.100000e-07	-4.237084e-06	-1.130726e-09	-2.953625e+01	-7.614981e+01
8.200000e-07	-4.206966e-06	-1.115454e-09	-2.932631e+01	-7.587853e+01
8.300000e-07	-4.176612e-06	-1.118622e-09	-2.911471e+01	-7.560314e+01
8.400000e-07	-4.145940e-06	-1.124169e-09	-2.890090e+01	-7.532370e+01
8.500000e-07	-4.114838e-06	-1.110025e-09	-2.868409e+01	-7.504026e+01
8.600000e-07	-4.083514e-06	-1.102939e-09	-2.846574e+01	-7.475290e+01
8.700000e-07	-4.052070e-06	-1.104025e-09	-2.824654e+01	-7.446168e+01
8.800000e-07	-4.020487e-06	-1.091929e-09	-2.802638e+01	-7.416666e+01
8.900000e-07	-3.988715e-06	-1.083985e-09	-2.780490e+01	-7.386790e+01
9.000000e-07	-3.956763e-06	-1.090346e-09	-2.758217e+01	-7.356545e+01
9.100000e-07	-3.924488e-06	-1.084090e-09	-2.735718e+01	-7.325938e+01
9.200000e-07	-3.891950e-06	-1.072176e-09	-2.713036e+01	-7.294973e+01
9.300000e-07	-3.859126e-06	-1.074687e-09	-2.690155e+01	-7.263654e+01
9.400000e-07	-3.825791e-06	-1.075251e-09	-2.666918e+01	-7.231983e+01
9.500000e-07	-3.791866e-06	-1.059693e-09	-2.643269e+01	-7.199964e+01
9.600000e-07	-3.757504e-06	-1.053779e-09	-2.619315e+01	-7.167598e+01
9.700000e-07	-3.722809e-06	-1.052533e-09	-2.595130e+01	-7.134884e+01
9.800000e-07	-3.687673e-06	-1.040916e-09	-2.570637e+01	-7.101822e+01
9.900000e-07	-3.652328e-06	-1.032042e-09	-2.545999e+01	-7.068409e+01
1.000000e-06	-3.616848e-06	-1.036661e-09	-2.521265e+01	-7.034641e+01
1.010000e-06	-3.581149e-06	-1.034762e-09	-2.496380e+01	-7.000515e+01
1.020000e-06	-3.545318e-06	-1.029461e-09	-2.471403e+01	-6.966024e+01
1.030000e-06	-3.509408e-06	-1.029096e-09	-2.446370e+01	-6.931161e+01
1.040000e-06	-3.473324e-06	-1.024823e-09	-2.421217e+01	-6.895917e+01
1.050000e-06	-3.436982e-06	-1.014056e-09	-2.395883e+01	-6.860284e+01
1.060000e-06	-3.400455e-06	-1.007190e-09	-2.370421e+01	-6.824249e+01
1.070000e-06	-3.363683e-06	-1.000905e-09	-2.344787e+01	-6.787803e+01
1.080000e-06	-3.326585e-06	-9.897167e-10	-2.318927e+01	-6.750932e+01
1.090000e-06	-3.289176e-06	-9.840945e-10	-2.292849e+01	-6.713622e+01
1.100000e-06	-3.251503e-06	-9.846166e-10	-2.266587e+01	-6.675860e+01
1.110000e-06	-3.213636e-06	-9.783340e-10	-2.240191e+01	-6.637632e+01
1.120000e-06	-3.175600e-06	-9.695508e-10	-2.213677e+01	-6.598921e+01
1.130000e-06	-3.137423e-06	-9.652690e-10	-2.187063e+01	-6.559712e+01
1.140000e-06	-3.098961e-06	-9.591511e-10	-2.160252e+01	-6.519990e+01
1.150000e-06	-3.060198e-06	-9.497260e-10	-2.133231e+01	-6.479739e+01
1.160000e-06	-3.021283e-06	-9.421074e-10	-2.106104e+01	-6.438942e+01
1.170000e-06	-2.982175e-06	-9.354532e-10	-2.078842e+01	-6.397584e+01
1.180000e-06	-2.942819e-06	-9.276010e-10	-2.051407e+01	-6.355650e+01
1.190000e-06	-2.903266e-06	-9.223062e-10	-2.023835e+01	-6.313124e+01
1.200000e-06	-2.863578e-06	-9.140858e-10	-1.996169e+01	-6.269992e+01
1.210000e-06	-2.823850e-06	-9.028532e-10	-1.968476e+01	-6.226239e+01
1.220000e-06	-2.783998e-06	-8.913192e-10	-1.940695e+01	-6.181851e+01
1.230000e-06	-2.743958e-06	-8.840396e-10	-1.912783e+01	-6.136817e+01
1.240000e-06	-2.703761e-06	-8.765401e-10	-1.884763e+01	-6.091123e+01
1.250000e-06	-2.663396e-06	-8.689785e-10	-1.856624e+01	-6.044757e+01
1.260000e-06	-2.622841e-06	-8.637879e-10	-1.828354e+01	-5.997710e+01
1.270000e-06	-2.582117e-06	-8.563668e-10	-1.799966e+01	-5.949971e+01
1.280000e-06	-2.541174e-06	-8.476514e-10	-1.771425e+01	-5.901531e+01
1.290000e-06	-2.499816e-06	-8.387020e-10	-1.742595e+01	-5.852380e+01
1.300000e-06	-2.458037e-06	-8.300640e-10	-1.713471e+01	-5.802511e+01
1.310000e-06	-2.415974e-06	-8.206281e-10	-1.684149e+01	-5.751916e+01
1.320000e-06	-2.373657e-06	-8.113540e-10	-1.654651e+01	-5.700587e+01
1.330000e-06	-2.331115e-06	-8.046716e-10	-1.624995e+01	-5.648517e+01
1.340000e-06	-2.288257e-06	-7.970828e-10	-1.595119e+01	-5.595699e+01
1.350000e-06	-2.245091e-06	-7.888971e-10	-1.565029e+01	-5.542126e+01
1.360000e-06	-2.201809e-06	-7.811566e-10	-1.534857e+01	-5.487791e+01
1.370000e-06	-2.158365e-06	-7.728598e-10	-1.504573e+01	-5.432686e+01
1.380000e-06	-2.114770e-06	-7.634642e-10	-1.474183e+01	-5.376803e+01
1.390000e-06	-2.071086e-06	-7.520808e-10	-1.443731e+01	-5.320134e+01
1.400000e-06	-2.027327e-06	-7.394797e-10	-1.413228e+01	-5.262668e+01
1.410000e-06	-1.983586e-06	-7.280188e-10	-1.382736e+01	-5.204394e+01
1.420000e-06	-1.939830e-06	-7.183810e-10	-1.352235e+01	-5.145301e+01
1.430000e-06	-1.895959e-06	-7.106211e-10	-1.321653e+01	-5.085375e+01
1.440000e-06	-1.851980e-06	-7.033307e-10	-1.290995e+01	-5.024600e+01
1.450000e-06	-1.807961e-06	-6.952966e-10	-1.260310e+01	-4.962960e+01
1.460000e-06	-1.763918e-06	-6.839610e-10	-1.229608e+01	-4.900435e+01
1.470000e-06	-1.719680e-06	-6.701710e-10	-1.198770e+01	-4.837006e+01
1.480000e-06	-1.675235e-06	-6.562187e-10	-1.167788e+01	-4.772647e+01
1.490000e-06	-1.630627e-06	-6.446902e-10	-1.136693e+01	-4.707335e+01
1.500000e-06	-1.585922e-06	-6.347863e-10	-1.105529e+01	-4.641041e+01
1.510000e-06	-1.541044e-06	-6.262910e-10	-1.074245e+01	-4.573735e+01
1.520000e-06	-1.495973e-06	-6.180896e-10	-1.042827e+01	-4.505385e+01
1.530000e-06	-1.450889e-06	-6.107822e-10	-1.011399e+01	-4.435955e+01
1.540000e-06	-1.405741e-06	-6.059949e-10	-9.799272e+00	-4.365408e+01
1.550000e-06	-1.360467e-06	-5.973727e-10	-9.483668e+00	-4.293706e+01
1.560000e-06	-1.315072e-06	-5.844692e-10	-9.167222e+00	-4.220805e+01
1.570000e-06	-1.269596e-06	-5.713573e-10	-8.850214e+00	-4.146663e+01
1.580000e-06	-1.224033e-06	-5.588993e-10	-8.532603e+00	-4.071234e+01
1.590000e-06	-1.178354e-06	-5.435687e-10	-8.214179e+00	-3.994470e+01
1.600000e-06	-1.132575e-06	-5.306937e-10	-7.895056e+00	-3.916324e+01
1.610000e-06	-1.086748e-06	-5.246763e-10	-7.575603e+00	-3.836745e+01
1.620000e-06	-1.040923e-06	-5.184543e-10	-7.256162e+00	-3.755684e+01
1.630000e-06	-9.950594e-07	-5.082421e-10	-6.936452e+00	-3.673088e+01
1.640000e-06	-9.491081e-07	-4.944250e-10	-6.616130e+00	-3.588907e+01
1.650000e-06	-9.030545e-07	-4.788023e-10	-6.295096e+00	-3.503090e+01
1.660000e-06	-8.568981e-07	-4.624821e-10	-5.973344e+00	-3.415587e+01
1.670000e-06	-8.106343e-07	-4.466703e-10	-5.650844e+00	-3.326348e+01
1.680000e-06	-7.643316e-07	-4.327847e-10	-5.328073e+00	-3.235326e+01
1.690000e-06	-7.180777e-07	-4.213142e-10	-5.005642e+00	-3.142475e+01
1.700000e-06	-6.718704e-07	-4.092766e-10	-4.683536e+00	-3.047752e+01
1.710000e-06	-6.256234e-07	-3.950561e-10	-4.361153e+00	-2.951115e+01
1.720000e-06	-5.792464e-07	-3.804559e-10	-4.037864e+00	-2.852528e+01
1.730000e-06	-5.327423e-07	-3.650679e-10	-3.713689e+00	-2.751957e+01
1.740000e-06	-4.861562e-07	-3.494693e-10	-3.388942e+00	-2.649372e+01
1.750000e-06	-4.395926e-07	-3.333152e-10	-3.064352e+00	-2.544749e+01
1.760000e-06	-3.930179e-07	-3.172846e-10	-2.739685e+00	-2.438068e+01
1.770000e-06	-3.464091e-07	-3.014626e-10	-2.414780e+00	-2.329314e+01
1.780000e-06	-2.998308e-07	-2.840284e-10	-2.090088e+00	-2.218480e+01
1.790000e-06	-2.533202e-07	-2.649924e-10	-1.765868e+00	-2.105561e+01
1.800000e-06	-2.067326e-07	-2.460729e-10	-1.441111e+00	-1.990563e+01
1.810000e-06	-1.601095e-07	-2.267499e-10	-1.116106e+00	-1.873497e+01
1.820000e-06	-1.134523e-07	-2.091262e-10	-7.908640e-01	-1.754378e+01
1.830000e-06	-6.672156e-08	-1.940883e-10	-4.651088e-01	-1.633234e+01
1.840000e-06	-2.003212e-08	-1.787876e-10	-1.396417e-01	-1.510095e+01
1.850000e-06	2.669436e-08	-1.635714e-10	1.860835e-01	-1.385001e+01
1.860000e-06	7.341283e-08	-1.475265e-10	5.117529e-01	-1.258000e+01
1.870000e-06	1.200394e-07	-1.257795e-10	8.367814e-01	-1.129145e+01
1.880000e-06	1.665768e-07	-1.012489e-10	1.161189e+00	-9.984990e+00
1.890000e-06	2.130880e-07	-8.079323e-11	1.485414e+00	-8.661313e+00
1.900000e-06	2.596466e-07	-6.377576e-11	1.809968e+00	-7.321184e+00
1.910000e-06	3.062055e-07	-4.853669e-11	2.134525e+00	-5.965441e+00
1.920000e-06	3.527412e-07	-3.241496e-11	2.458921e+00	-4.594990e+00
1.930000e-06	3.992905e-07	-1.215071e-11	2.783411e+00	-3.210801e+00
1.940000e-06	4.457557e-07	9.321349e-12	3.107315e+00	-1.813910e+00
1.950000e-06	4.921760e-07	3.024673e-11	3.430906e+00	-4.054075e-01
1.960000e-06	5.385502e-07	5.170407e-11	3.754175e+00	1.013559e+00
1.970000e-06	5.849260e-07	7.391376e-11	4.077456e+00	2.441792e+00
1.980000e-06	6.312374e-07	9.652645e-11	4.400287e+00	3.878049e+00
1.990000e-06	6.774206e-07	1.166645e-10	4.722226e+00	5.321050e+00
2.000000e-06	7.236204e-07	1.351698e-10	5.044280e+00	6.769476e+00
2.010000e-06	7.698343e-07	1.541076e-10	5.366432e+00	8.221982e+00
2.020000e-06	8.159730e-07	1.726414e-10	5.688059e+00	9.677200e+00
2.030000e-06	8.620141e-07	1.943520e-10	6.009007e+00	1.113375e+01
2.040000e-06	9.079690e-07	2.188536e-10	6.329353e+00	1.259022e+01
2.050000e-06	9.539003e-07	2.420654e-10	6.649536e+00	1.404523e+01
2.060000e-06	9.998332e-07	2.641739e-10	6.969729e+00	1.549737e+01
2.070000e-06	1.045701e-06	2.843883e-10	7.289471e+00	1.694526e+01
2.080000e-06	1.091449e-06	3.029772e-10	7.608372e+00	1.838751e+01
2.090000e-06	1.137101e-06	3.198820e-10	7.926611e+00	1.982278e+01
2.100000e-06	1.182778e-06	3.388629e-10	8.245020e+00	2.124974e+01
2.110000e-06	1.228330e-06	3.597613e-10	8.562559e+00	2.266709e+01
2.120000e-06	1.273742e-06	3.797749e-10	8.879117e+00	2.407358e+01
2.130000e-06	1.319094e-06	4.002936e-10	9.195263e+00	2.546799e+01
2.140000e-06	1.364387e-06	4.201003e-10	9.510991e+00	2.684915e+01
2.150000e-06	1.409657e-06	4.367824e-10	9.826568e+00	2.821596e+01
2.160000e-06	1.454771e-06	4.525323e-10	1.014105e+01	2.956735e+01
2.170000e-06	1.499750e-06	4.684802e-10	1.045459e+01	3.090233e+01
2.180000e-06	1.544660e-06	4.843245e-10	1.076766e+01	3.221997e+01
2.190000e-06	1.589411e-06	5.036182e-10	1.107961e+01	3.351940e+01
2.200000e-06	1.633951e-06	5.260915e-10	1.139009e+01	3.479983e+01
2.210000e-06	1.678374e-06	5.459143e-10	1.169976e+01	3.606053e+01
2.220000e-06	1.722713e-06	5.617316e-10	1.200884e+01	3.730085e+01
2.230000e-06	1.766887e-06	5.753505e-10	1.231678e+01	3.852022e+01
2.240000e-06	1.810946e-06	5.888443e-10	1.262391e+01	3.971812e+01
2.250000e-06	1.854917e-06	6.026467e-10	1.293042e+01	4.089414e+01
2.260000e-06	1.898778e-06	6.185782e-10	1.323618e+01	4.204791e+01
2.270000e-06	1.942572e-06	6.372037e-10	1.354146e+01	4.317915e+01
2.280000e-06	1.986305e-06	6.550255e-10	1.384632e+01	4.428765e+01
2.290000e-06	2.029984e-06	6.707308e-10	1.415080e+01	4.537327e+01
2.300000e-06	2.073628e-06	6.862761e-10	1.445504e+01	4.643595e+01
2.310000e-06	2.117150e-06	7.009236e-10	1.475843e+01	4.747566e+01
2.320000e-06	2.160557e-06	7.151055e-10	1.506101e+01	4.849246e+01
2.330000e-06	2.203915e-06	7.285773e-10	1.536325e+01	4.948648e+01
2.340000e-06	2.247176e-06	7.400695e-10	1.566482e+01	5.045788e+01
2.350000e-06	2.290194e-06	7.503415e-10	1.596470e+01	5.140688e+01
2.360000e-06	2.332966e-06	7.596687e-10	1.626285e+01	5.233375e+01
2.370000e-06	2.375537e-06	7.716158e-10	1.655961e+01	5.323882e+01
2.380000e-06	2.417785e-06	7.861443e-10	1.685412e+01	5.412243e+01
2.390000e-06	2.459547e-06	8.013697e-10	1.714524e+01	5.498498e+01
2.400000e-06	2.500973e-06	8.150982e-10	1.743401e+01	5.582689e+01
2.410000e-06	2.542204e-06	8.271585e-10	1.772143e+01	5.664862e+01
2.420000e-06	2.583161e-06	8.365863e-10	1.800693e+01	5.745064e+01
2.430000e-06	2.623790e-06	8.445740e-10	1.829015e+01	5.823345e+01
2.440000e-06	2.664159e-06	8.536210e-10	1.857157e+01	5.899755e+01
2.450000e-06	2.704351e-06	8.627888e-10	1.885174e+01	5.974346e+01
2.460000e-06	2.744331e-06	8.733649e-10	1.913043e+01	6.047171e+01
2.470000e-06	2.784109e-06	8.862149e-10	1.940772e+01	6.118284e+01
2.480000e-06	2.823833e-06	8.986691e-10	1.968463e+01	6.187737e+01
2.490000e-06	2.863516e-06	9.089002e-10	1.996126e+01	6.255582e+01
2.500000e-06	2.903083e-06	9.175934e-10	2.023708e+01	6.321873e+01
2.510000e-06	2.942471e-06	9.266822e-10	2.051165e+01	6.386660e+01
2.520000e-06	2.981683e-06	9.370786e-10	2.078499e+01	6.449992e+01
2.530000e-06	3.020663e-06	9.471972e-10	2.105671e+01	6.511919e+01
2.540000e-06	3.059400e-06	9.565077e-10	2.132674e+01	6.572488e+01
2.550000e-06	3.097930e-06	9.646319e-10	2.159534e+01	6.631743e+01
2.560000e-06	3.136182e-06	9.698059e-10	2.186199e+01	6.689728e+01
2.570000e-06	3.174197e-06	9.758237e-10	2.212698e+01	6.746484e+01
2.580000e-06	3.212080e-06	9.870021e-10	2.239106e+01	6.802050e+01
2.590000e-06	3.249817e-06	1.000482e-09	2.265412e+01	6.856463e+01
2.600000e-06	3.287275e-06	1.011630e-09	2.291524e+01	6.909758e+01
2.610000e-06	3.324532e-06	1.019215e-09	2.317495e+01	6.961967e+01
2.620000e-06	3.361636e-06	1.023915e-09	2.343360e+01	7.013120e+01
2.630000e-06	3.398549e-06	1.028438e-09	2.369092e+01	7.063246e+01
2.640000e-06	3.435148e-06	1.032177e-09	2.394605e+01	7.112371e+01
2.650000e-06	3.471435e-06	1.037816e-09	2.419900e+01	7.160519e+01
2.660000e-06	3.507500e-06	1.048786e-09	2.445040e+01	7.207711e+01
2.670000e-06	3.543346e-06	1.059728e-09	2.470028e+01	7.253968e+01
2.680000e-06	3.579056e-06	1.066802e-09	2.494921e+01	7.299308e+01
2.690000e-06	3.614697e-06	1.070031e-09	2.519766e+01	7.343748e+01
2.700000e-06	3.650230e-06	1.071215e-09	2.544536e+01	7.387305e+01
2.710000e-06	3.685535e-06	1.074752e-09	2.569146e+01	7.429990e+01
2.720000e-06	3.720594e-06	1.082606e-09	2.593586e+01	7.471818e+01
2.730000e-06	3.755394e-06	1.090066e-09	2.617844e+01	7.512801e+01
2.740000e-06	3.789817e-06	1.096241e-09	2.641841e+01	7.552948e+01
2.750000e-06	3.823657e-06	1.100900e-09	2.665430e+01	7.592270e+01
2.760000e-06	3.856970e-06	1.103780e-09	2.688652e+01	7.630777e+01
2.770000e-06	3.889860e-06	1.104669e-09	2.711579e+01	7.668476e+01
2.780000e-06	3.922275e-06	1.107321e-09	2.734176e+01	7.705378e+01
2.790000e-06	3.954318e-06	1.113434e-09	2.756512e+01	7.741489e+01
2.800000e-06	3.986172e-06	1.118851e-09	2.778718e+01	7.776817e+01
2.810000e-06	4.017921e-06	1.123625e-09	2.800849e+01	7.811371e+01
2.820000e-06	4.049533e-06	1.128204e-09	2.822885e+01	7.845158e+01
2.830000e-06	4.080988e-06	1.130083e-09	2.844812e+01	7.878186e+01
2.840000e-06	4.112257e-06	1.129799e-09	2.866610e+01	7.910462e+01
2.850000e-06	4.143322e-06	1.128242e-09	2.888265e+01	7.941995e+01
2.860000e-06	4.174064e-06	1.129175e-09	2.909695e+01	7.972793e+01
2.870000e-06	4.204442e-06	1.134102e-09	2.930871e+01	8.002863e+01
2.880000e-06	4.234487e-06	1.140434e-09	2.951815e+01	8.032215e+01
2.890000e-06	4.264233e-06	1.146039e-09	2.972550e+01	8.060857e+01
2.900000e-06	4.293694e-06	1.150064e-09	2.993087e+01	8.088798e+01
