# Temperatura_=_7.49
# Concentracion g/m^3_=_1620.0
# C_Vs_to_Am_M_A/Vsm_=_65563218390.804596
# pendiente_HvsI_1/m_=_3716.3
# ordenada_HvsI_A/m_=_1297.0
# frecuencia_Hz_=_135109.9801287148

Tiempo_(s)	Campo_(V.s)	Magnetizacion_(V.s)	Campo_(kA/m)	Magnetizacion_(A/m)
0.000000e+00	-5.521499e-06	-1.295275e-09	-3.837230e+01	-8.425365e+01
1.000000e-08	-5.521566e-06	-1.296825e-09	-3.837277e+01	-8.425227e+01
2.000000e-08	-5.521324e-06	-1.299699e-09	-3.837108e+01	-8.425061e+01
3.000000e-08	-5.520633e-06	-1.301001e-09	-3.836628e+01	-8.424861e+01
4.000000e-08	-5.519444e-06	-1.300927e-09	-3.835802e+01	-8.424614e+01
5.000000e-08	-5.517739e-06	-1.303472e-09	-3.834617e+01	-8.424309e+01
6.000000e-08	-5.515399e-06	-1.309212e-09	-3.832990e+01	-8.423928e+01
7.000000e-08	-5.512432e-06	-1.306790e-09	-3.830929e+01	-8.423455e+01
8.000000e-08	-5.508977e-06	-1.278170e-09	-3.828528e+01	-8.422868e+01
9.000000e-08	-5.505151e-06	-1.253408e-09	-3.825869e+01	-8.422145e+01
1.000000e-07	-5.500966e-06	-1.271286e-09	-3.822960e+01	-8.421261e+01
1.100000e-07	-5.496495e-06	-1.326637e-09	-3.819853e+01	-8.420190e+01
1.200000e-07	-5.491874e-06	-1.319272e-09	-3.816642e+01	-8.418904e+01
1.300000e-07	-5.486930e-06	-1.296064e-09	-3.813206e+01	-8.417376e+01
1.400000e-07	-5.481527e-06	-1.278206e-09	-3.809451e+01	-8.415575e+01
1.500000e-07	-5.475745e-06	-1.314040e-09	-3.805433e+01	-8.413471e+01
1.600000e-07	-5.469621e-06	-1.306848e-09	-3.801177e+01	-8.411035e+01
1.700000e-07	-5.463065e-06	-1.271927e-09	-3.796620e+01	-8.408236e+01
1.800000e-07	-5.456053e-06	-1.258936e-09	-3.791748e+01	-8.405043e+01
1.900000e-07	-5.448707e-06	-1.274397e-09	-3.786643e+01	-8.401429e+01
2.000000e-07	-5.441137e-06	-1.299876e-09	-3.781382e+01	-8.397364e+01
2.100000e-07	-5.433320e-06	-1.295596e-09	-3.775949e+01	-8.392821e+01
2.200000e-07	-5.425167e-06	-1.296501e-09	-3.770283e+01	-8.387774e+01
2.300000e-07	-5.416576e-06	-1.279974e-09	-3.764312e+01	-8.382199e+01
2.400000e-07	-5.407481e-06	-1.285598e-09	-3.757992e+01	-8.376073e+01
2.500000e-07	-5.397730e-06	-1.273566e-09	-3.751215e+01	-8.369376e+01
2.600000e-07	-5.387277e-06	-1.281754e-09	-3.743951e+01	-8.362090e+01
2.700000e-07	-5.376304e-06	-1.272897e-09	-3.736325e+01	-8.354199e+01
2.800000e-07	-5.364911e-06	-1.284069e-09	-3.728407e+01	-8.345689e+01
2.900000e-07	-5.353179e-06	-1.269696e-09	-3.720254e+01	-8.336548e+01
3.000000e-07	-5.341135e-06	-1.269794e-09	-3.711884e+01	-8.326770e+01
3.100000e-07	-5.328682e-06	-1.264748e-09	-3.703230e+01	-8.316348e+01
3.200000e-07	-5.315751e-06	-1.281749e-09	-3.694243e+01	-8.305278e+01
3.300000e-07	-5.302411e-06	-1.275466e-09	-3.684973e+01	-8.293561e+01
3.400000e-07	-5.288750e-06	-1.261244e-09	-3.675479e+01	-8.281198e+01
3.500000e-07	-5.274607e-06	-1.256825e-09	-3.665649e+01	-8.268194e+01
3.600000e-07	-5.259776e-06	-1.262205e-09	-3.655343e+01	-8.254555e+01
3.700000e-07	-5.244473e-06	-1.253026e-09	-3.644707e+01	-8.240291e+01
3.800000e-07	-5.228733e-06	-1.246479e-09	-3.633769e+01	-8.225412e+01
3.900000e-07	-5.212505e-06	-1.249440e-09	-3.622491e+01	-8.209932e+01
4.000000e-07	-5.195977e-06	-1.237844e-09	-3.611005e+01	-8.193866e+01
4.100000e-07	-5.179159e-06	-1.237137e-09	-3.599317e+01	-8.177230e+01
4.200000e-07	-5.162005e-06	-1.247612e-09	-3.587395e+01	-8.160042e+01
4.300000e-07	-5.144500e-06	-1.243787e-09	-3.575230e+01	-8.142321e+01
4.400000e-07	-5.126678e-06	-1.216628e-09	-3.562845e+01	-8.124087e+01
4.500000e-07	-5.108456e-06	-1.228059e-09	-3.550181e+01	-8.105360e+01
4.600000e-07	-5.089739e-06	-1.234779e-09	-3.537174e+01	-8.086160e+01
4.700000e-07	-5.070627e-06	-1.216994e-09	-3.523891e+01	-8.066510e+01
4.800000e-07	-5.051161e-06	-1.206298e-09	-3.510363e+01	-8.046430e+01
4.900000e-07	-5.031488e-06	-1.228273e-09	-3.496691e+01	-8.025941e+01
5.000000e-07	-5.011659e-06	-1.209512e-09	-3.482911e+01	-8.005063e+01
5.100000e-07	-4.991570e-06	-1.195718e-09	-3.468950e+01	-7.983816e+01
5.200000e-07	-4.971160e-06	-1.211475e-09	-3.454765e+01	-7.962219e+01
5.300000e-07	-4.950407e-06	-1.214012e-09	-3.440343e+01	-7.940289e+01
5.400000e-07	-4.929260e-06	-1.181048e-09	-3.425646e+01	-7.918042e+01
5.500000e-07	-4.907714e-06	-1.192359e-09	-3.410673e+01	-7.895494e+01
5.600000e-07	-4.885849e-06	-1.204465e-09	-3.395478e+01	-7.872659e+01
5.700000e-07	-4.863690e-06	-1.183556e-09	-3.380078e+01	-7.849547e+01
5.800000e-07	-4.841210e-06	-1.171906e-09	-3.364455e+01	-7.826170e+01
5.900000e-07	-4.818294e-06	-1.189541e-09	-3.348529e+01	-7.802535e+01
6.000000e-07	-4.795011e-06	-1.179112e-09	-3.332349e+01	-7.778651e+01
6.100000e-07	-4.771469e-06	-1.171131e-09	-3.315988e+01	-7.754520e+01
6.200000e-07	-4.747770e-06	-1.184501e-09	-3.299518e+01	-7.730146e+01
6.300000e-07	-4.723895e-06	-1.185212e-09	-3.282926e+01	-7.705531e+01
6.400000e-07	-4.699692e-06	-1.168783e-09	-3.266105e+01	-7.680674e+01
6.500000e-07	-4.675134e-06	-1.170340e-09	-3.249039e+01	-7.655572e+01
6.600000e-07	-4.650188e-06	-1.168418e-09	-3.231702e+01	-7.630221e+01
6.700000e-07	-4.624716e-06	-1.151781e-09	-3.214000e+01	-7.604616e+01
6.800000e-07	-4.598644e-06	-1.150435e-09	-3.195881e+01	-7.578750e+01
6.900000e-07	-4.572026e-06	-1.156029e-09	-3.177382e+01	-7.552615e+01
7.000000e-07	-4.544984e-06	-1.148639e-09	-3.158589e+01	-7.526201e+01
7.100000e-07	-4.517625e-06	-1.139980e-09	-3.139576e+01	-7.499498e+01
7.200000e-07	-4.490061e-06	-1.142800e-09	-3.120420e+01	-7.472494e+01
7.300000e-07	-4.462330e-06	-1.137040e-09	-3.101148e+01	-7.445177e+01
7.400000e-07	-4.434389e-06	-1.130191e-09	-3.081731e+01	-7.417534e+01
7.500000e-07	-4.406256e-06	-1.126505e-09	-3.062179e+01	-7.389553e+01
7.600000e-07	-4.377842e-06	-1.125625e-09	-3.042432e+01	-7.361221e+01
7.700000e-07	-4.349069e-06	-1.115151e-09	-3.022436e+01	-7.332522e+01
7.800000e-07	-4.319939e-06	-1.108881e-09	-3.002192e+01	-7.303445e+01
7.900000e-07	-4.290491e-06	-1.101608e-09	-2.981727e+01	-7.273976e+01
8.000000e-07	-4.260711e-06	-1.094285e-09	-2.961031e+01	-7.244103e+01
8.100000e-07	-4.230636e-06	-1.084241e-09	-2.940130e+01	-7.213813e+01
8.200000e-07	-4.200354e-06	-1.082456e-09	-2.919085e+01	-7.183094e+01
8.300000e-07	-4.169765e-06	-1.075524e-09	-2.897827e+01	-7.151935e+01
8.400000e-07	-4.138831e-06	-1.068638e-09	-2.876329e+01	-7.120327e+01
8.500000e-07	-4.107599e-06	-1.063428e-09	-2.854624e+01	-7.088260e+01
8.600000e-07	-4.076146e-06	-1.061616e-09	-2.832765e+01	-7.055726e+01
8.700000e-07	-4.044591e-06	-1.052043e-09	-2.810836e+01	-7.022717e+01
8.800000e-07	-4.012921e-06	-1.045616e-09	-2.788826e+01	-6.989228e+01
8.900000e-07	-3.981027e-06	-1.039441e-09	-2.766661e+01	-6.955254e+01
9.000000e-07	-3.948868e-06	-1.029474e-09	-2.744311e+01	-6.920790e+01
9.100000e-07	-3.916347e-06	-1.020700e-09	-2.721711e+01	-6.885833e+01
9.200000e-07	-3.883465e-06	-1.017835e-09	-2.698859e+01	-6.850383e+01
9.300000e-07	-3.850206e-06	-1.012417e-09	-2.675746e+01	-6.814438e+01
9.400000e-07	-3.816414e-06	-1.006531e-09	-2.652261e+01	-6.777998e+01
9.500000e-07	-3.782131e-06	-1.005234e-09	-2.628436e+01	-6.741066e+01
9.600000e-07	-3.747445e-06	-9.992698e-10	-2.604330e+01	-6.703642e+01
9.700000e-07	-3.712436e-06	-9.873887e-10	-2.580000e+01	-6.665731e+01
9.800000e-07	-3.677151e-06	-9.783024e-10	-2.555479e+01	-6.627336e+01
9.900000e-07	-3.641640e-06	-9.723665e-10	-2.530800e+01	-6.588460e+01
1.000000e-06	-3.605978e-06	-9.642684e-10	-2.506017e+01	-6.549111e+01
1.010000e-06	-3.570199e-06	-9.621062e-10	-2.481152e+01	-6.509291e+01
1.020000e-06	-3.534285e-06	-9.619691e-10	-2.456192e+01	-6.469009e+01
1.030000e-06	-3.498158e-06	-9.552395e-10	-2.431086e+01	-6.428269e+01
1.040000e-06	-3.461739e-06	-9.444515e-10	-2.405776e+01	-6.387078e+01
1.050000e-06	-3.425041e-06	-9.373477e-10	-2.380272e+01	-6.345442e+01
1.060000e-06	-3.388124e-06	-9.248028e-10	-2.354616e+01	-6.303368e+01
1.070000e-06	-3.350954e-06	-9.106958e-10	-2.328784e+01	-6.260861e+01
1.080000e-06	-3.313489e-06	-9.019618e-10	-2.302748e+01	-6.217928e+01
1.090000e-06	-3.275832e-06	-8.981896e-10	-2.276578e+01	-6.174574e+01
1.100000e-06	-3.238047e-06	-8.897608e-10	-2.250318e+01	-6.130804e+01
1.110000e-06	-3.200006e-06	-8.862555e-10	-2.223882e+01	-6.086624e+01
1.120000e-06	-3.161646e-06	-8.833058e-10	-2.197223e+01	-6.042037e+01
1.130000e-06	-3.123041e-06	-8.750060e-10	-2.170394e+01	-5.997047e+01
1.140000e-06	-3.084258e-06	-8.645881e-10	-2.143441e+01	-5.951656e+01
1.150000e-06	-3.045303e-06	-8.581573e-10	-2.116369e+01	-5.905868e+01
1.160000e-06	-3.006168e-06	-8.505850e-10	-2.089172e+01	-5.859684e+01
1.170000e-06	-2.966795e-06	-8.420022e-10	-2.061808e+01	-5.813104e+01
1.180000e-06	-2.927236e-06	-8.364904e-10	-2.034317e+01	-5.766129e+01
1.190000e-06	-2.887605e-06	-8.320955e-10	-2.006775e+01	-5.718757e+01
1.200000e-06	-2.847909e-06	-8.237216e-10	-1.979188e+01	-5.670987e+01
1.210000e-06	-2.808088e-06	-8.148228e-10	-1.951514e+01	-5.622816e+01
1.220000e-06	-2.768124e-06	-8.066081e-10	-1.923740e+01	-5.574240e+01
1.230000e-06	-2.727982e-06	-7.971643e-10	-1.895843e+01	-5.525256e+01
1.240000e-06	-2.687602e-06	-7.883315e-10	-1.867781e+01	-5.475858e+01
1.250000e-06	-2.646989e-06	-7.817397e-10	-1.839556e+01	-5.426039e+01
1.260000e-06	-2.606203e-06	-7.740079e-10	-1.811211e+01	-5.375793e+01
1.270000e-06	-2.565188e-06	-7.645865e-10	-1.782707e+01	-5.325111e+01
1.280000e-06	-2.523771e-06	-7.583485e-10	-1.753924e+01	-5.273984e+01
1.290000e-06	-2.482049e-06	-7.518351e-10	-1.724929e+01	-5.222404e+01
1.300000e-06	-2.440116e-06	-7.416973e-10	-1.695787e+01	-5.170357e+01
1.310000e-06	-2.397817e-06	-7.310456e-10	-1.666391e+01	-5.117834e+01
1.320000e-06	-2.355058e-06	-7.237673e-10	-1.636675e+01	-5.064820e+01
1.330000e-06	-2.312006e-06	-7.164085e-10	-1.606756e+01	-5.011302e+01
1.340000e-06	-2.268780e-06	-7.113978e-10	-1.576715e+01	-4.957264e+01
1.350000e-06	-2.225381e-06	-7.077963e-10	-1.546555e+01	-4.902692e+01
1.360000e-06	-2.181859e-06	-7.020979e-10	-1.516308e+01	-4.847568e+01
1.370000e-06	-2.138258e-06	-6.914324e-10	-1.486007e+01	-4.791872e+01
1.380000e-06	-2.094589e-06	-6.775182e-10	-1.455659e+01	-4.735587e+01
1.390000e-06	-2.050878e-06	-6.625969e-10	-1.425282e+01	-4.678691e+01
1.400000e-06	-2.007116e-06	-6.496132e-10	-1.394868e+01	-4.621163e+01
1.410000e-06	-1.963243e-06	-6.398354e-10	-1.364378e+01	-4.562979e+01
1.420000e-06	-1.919257e-06	-6.348763e-10	-1.333810e+01	-4.504114e+01
1.430000e-06	-1.875183e-06	-6.315496e-10	-1.303180e+01	-4.444543e+01
1.440000e-06	-1.831002e-06	-6.272939e-10	-1.272476e+01	-4.384238e+01
1.450000e-06	-1.786720e-06	-6.194902e-10	-1.241702e+01	-4.323170e+01
1.460000e-06	-1.742309e-06	-6.085158e-10	-1.210838e+01	-4.261310e+01
1.470000e-06	-1.697686e-06	-5.944053e-10	-1.179826e+01	-4.198625e+01
1.480000e-06	-1.652874e-06	-5.784920e-10	-1.148684e+01	-4.135083e+01
1.490000e-06	-1.607952e-06	-5.643511e-10	-1.117465e+01	-4.070648e+01
1.500000e-06	-1.562903e-06	-5.543384e-10	-1.086158e+01	-4.005286e+01
1.510000e-06	-1.517697e-06	-5.459108e-10	-1.054741e+01	-3.938958e+01
1.520000e-06	-1.472358e-06	-5.379536e-10	-1.023232e+01	-3.871625e+01
1.530000e-06	-1.427006e-06	-5.299901e-10	-9.917147e+00	-3.803249e+01
1.540000e-06	-1.381657e-06	-5.202995e-10	-9.601984e+00	-3.733787e+01
1.550000e-06	-1.336188e-06	-5.069073e-10	-9.285994e+00	-3.663198e+01
1.560000e-06	-1.290596e-06	-4.896996e-10	-8.969144e+00	-3.591438e+01
1.570000e-06	-1.244899e-06	-4.723029e-10	-8.651571e+00	-3.518464e+01
1.580000e-06	-1.199136e-06	-4.567113e-10	-8.333538e+00	-3.444231e+01
1.590000e-06	-1.153273e-06	-4.446554e-10	-8.014806e+00	-3.368695e+01
1.600000e-06	-1.107303e-06	-4.355232e-10	-7.695334e+00	-3.291810e+01
1.610000e-06	-1.061334e-06	-4.261464e-10	-7.375866e+00	-3.213532e+01
1.620000e-06	-1.015309e-06	-4.145474e-10	-7.056012e+00	-3.133816e+01
1.630000e-06	-9.692092e-07	-4.031016e-10	-6.735632e+00	-3.052618e+01
1.640000e-06	-9.230423e-07	-3.908276e-10	-6.414790e+00	-2.969895e+01
1.650000e-06	-8.767765e-07	-3.769965e-10	-6.093260e+00	-2.885605e+01
1.660000e-06	-8.304563e-07	-3.624301e-10	-5.771353e+00	-2.799708e+01
1.670000e-06	-7.840487e-07	-3.483032e-10	-5.448838e+00	-2.712166e+01
1.680000e-06	-7.375391e-07	-3.349829e-10	-5.125614e+00	-2.622942e+01
1.690000e-06	-6.909407e-07	-3.227857e-10	-4.801773e+00	-2.532003e+01
1.700000e-06	-6.443470e-07	-3.096068e-10	-4.477964e+00	-2.439318e+01
1.710000e-06	-5.977888e-07	-2.948771e-10	-4.154403e+00	-2.344861e+01
1.720000e-06	-5.511895e-07	-2.797592e-10	-3.830555e+00	-2.248607e+01
1.730000e-06	-5.045065e-07	-2.641981e-10	-3.506127e+00	-2.150538e+01
1.740000e-06	-4.577958e-07	-2.481033e-10	-3.181505e+00	-2.050638e+01
1.750000e-06	-4.110290e-07	-2.336571e-10	-2.856494e+00	-1.948899e+01
1.760000e-06	-3.642080e-07	-2.204007e-10	-2.531106e+00	-1.845314e+01
1.770000e-06	-3.174008e-07	-2.071114e-10	-2.205814e+00	-1.739884e+01
1.780000e-06	-2.705823e-07	-1.928158e-10	-1.880443e+00	-1.632616e+01
1.790000e-06	-2.237533e-07	-1.780298e-10	-1.555000e+00	-1.523523e+01
1.800000e-06	-1.768871e-07	-1.625791e-10	-1.229298e+00	-1.412623e+01
1.810000e-06	-1.300630e-07	-1.457768e-10	-9.038879e-01	-1.299941e+01
1.820000e-06	-8.333819e-08	-1.280177e-10	-5.791685e-01	-1.185509e+01
1.830000e-06	-3.661270e-08	-1.106586e-10	-2.544442e-01	-1.069366e+01
1.840000e-06	1.019591e-08	-9.442811e-11	7.085763e-02	-9.515585e+00
1.850000e-06	5.712984e-08	-7.920773e-11	3.970305e-01	-8.321383e+00
1.860000e-06	1.040652e-07	-6.113031e-11	7.232134e-01	-7.111655e+00
1.870000e-06	1.509007e-07	-4.011861e-11	1.048702e+00	-5.887068e+00
1.880000e-06	1.977134e-07	-1.872686e-11	1.374032e+00	-4.648358e+00
1.890000e-06	2.445934e-07	1.456226e-12	1.699831e+00	-3.396329e+00
1.900000e-06	2.914978e-07	1.778598e-11	2.025798e+00	-2.131853e+00
1.910000e-06	3.383002e-07	3.434637e-11	2.351057e+00	-8.558618e-01
1.920000e-06	3.850408e-07	5.416848e-11	2.675886e+00	4.306488e-01
1.930000e-06	4.317145e-07	7.317655e-11	3.000250e+00	1.726626e+00
1.940000e-06	4.783599e-07	8.996131e-11	3.324417e+00	3.030964e+00
1.950000e-06	5.249610e-07	1.071012e-10	3.648278e+00	4.342506e+00
1.960000e-06	5.714828e-07	1.242894e-10	3.971587e+00	5.660050e+00
1.970000e-06	6.180223e-07	1.419648e-10	4.295018e+00	6.982353e+00
1.980000e-06	6.644993e-07	1.591312e-10	4.618015e+00	8.308139e+00
1.990000e-06	7.108775e-07	1.754333e-10	4.940326e+00	9.636102e+00
2.000000e-06	7.572521e-07	1.942645e-10	5.262612e+00	1.096491e+01
2.010000e-06	8.035925e-07	2.127837e-10	5.584659e+00	1.229322e+01
2.020000e-06	8.498304e-07	2.313532e-10	5.905995e+00	1.361967e+01
2.030000e-06	8.960078e-07	2.534134e-10	6.226911e+00	1.494290e+01
2.040000e-06	9.421089e-07	2.734178e-10	6.547295e+00	1.626156e+01
2.050000e-06	9.881116e-07	2.903083e-10	6.866996e+00	1.757428e+01
2.060000e-06	1.034074e-06	3.062892e-10	7.186418e+00	1.887975e+01
2.070000e-06	1.080002e-06	3.226211e-10	7.505601e+00	2.017665e+01
2.080000e-06	1.125879e-06	3.392519e-10	7.824426e+00	2.146370e+01
2.090000e-06	1.171696e-06	3.590535e-10	8.142836e+00	2.273966e+01
2.100000e-06	1.217379e-06	3.796365e-10	8.460320e+00	2.400332e+01
2.110000e-06	1.262949e-06	3.987062e-10	8.777010e+00	2.525354e+01
2.120000e-06	1.308483e-06	4.159573e-10	9.093454e+00	2.648922e+01
2.130000e-06	1.353932e-06	4.325183e-10	9.409308e+00	2.770931e+01
2.140000e-06	1.399260e-06	4.479777e-10	9.724321e+00	2.891286e+01
2.150000e-06	1.444535e-06	4.606922e-10	1.003896e+01	3.009894e+01
2.160000e-06	1.489803e-06	4.740934e-10	1.035356e+01	3.126674e+01
2.170000e-06	1.534945e-06	4.904123e-10	1.066728e+01	3.241550e+01
2.180000e-06	1.579906e-06	5.089222e-10	1.097974e+01	3.354455e+01
2.190000e-06	1.624734e-06	5.281420e-10	1.129128e+01	3.465330e+01
2.200000e-06	1.669418e-06	5.447330e-10	1.160182e+01	3.574124e+01
2.210000e-06	1.713932e-06	5.562364e-10	1.191117e+01	3.680796e+01
2.220000e-06	1.758307e-06	5.642084e-10	1.221956e+01	3.785311e+01
2.230000e-06	1.802612e-06	5.736212e-10	1.252746e+01	3.887646e+01
2.240000e-06	1.846792e-06	5.866142e-10	1.283450e+01	3.987784e+01
2.250000e-06	1.890785e-06	6.027545e-10	1.314023e+01	4.085717e+01
2.260000e-06	1.934712e-06	6.209683e-10	1.344551e+01	4.181447e+01
2.270000e-06	1.978600e-06	6.372997e-10	1.375051e+01	4.274981e+01
2.280000e-06	2.022365e-06	6.510650e-10	1.405466e+01	4.366336e+01
2.290000e-06	2.066064e-06	6.629141e-10	1.435835e+01	4.455537e+01
2.300000e-06	2.109747e-06	6.722265e-10	1.466193e+01	4.542613e+01
2.310000e-06	2.153382e-06	6.813603e-10	1.496518e+01	4.627602e+01
2.320000e-06	2.196967e-06	6.945861e-10	1.526808e+01	4.710547e+01
2.330000e-06	2.240437e-06	7.094052e-10	1.557018e+01	4.791498e+01
2.340000e-06	2.283743e-06	7.230534e-10	1.587114e+01	4.870508e+01
2.350000e-06	2.326813e-06	7.341744e-10	1.617046e+01	4.947636e+01
2.360000e-06	2.369489e-06	7.439442e-10	1.646704e+01	5.022944e+01
2.370000e-06	2.411869e-06	7.522998e-10	1.676157e+01	5.096496e+01
2.380000e-06	2.454012e-06	7.607646e-10	1.705444e+01	5.168361e+01
2.390000e-06	2.495885e-06	7.709591e-10	1.734544e+01	5.238609e+01
2.400000e-06	2.537432e-06	7.823880e-10	1.763418e+01	5.307310e+01
2.410000e-06	2.578648e-06	7.948516e-10	1.792061e+01	5.374537e+01
2.420000e-06	2.619616e-06	8.082241e-10	1.820533e+01	5.440360e+01
2.430000e-06	2.660324e-06	8.185715e-10	1.848823e+01	5.504851e+01
2.440000e-06	2.700771e-06	8.267860e-10	1.876932e+01	5.568080e+01
2.450000e-06	2.741015e-06	8.322086e-10	1.904900e+01	5.630115e+01
2.460000e-06	2.781087e-06	8.370543e-10	1.932749e+01	5.691022e+01
2.470000e-06	2.820978e-06	8.453349e-10	1.960471e+01	5.750865e+01
2.480000e-06	2.860713e-06	8.557190e-10	1.988086e+01	5.809702e+01
2.490000e-06	2.900330e-06	8.693985e-10	2.015618e+01	5.867592e+01
2.500000e-06	2.939878e-06	8.840230e-10	2.043102e+01	5.924586e+01
2.510000e-06	2.979323e-06	8.967066e-10	2.070515e+01	5.980734e+01
2.520000e-06	3.018536e-06	9.033489e-10	2.097767e+01	6.036078e+01
2.530000e-06	3.057494e-06	9.079135e-10	2.124841e+01	6.090660e+01
2.540000e-06	3.096244e-06	9.127423e-10	2.151771e+01	6.144513e+01
2.550000e-06	3.134822e-06	9.161366e-10	2.178581e+01	6.197667e+01
2.560000e-06	3.173169e-06	9.191323e-10	2.205231e+01	6.250148e+01
2.570000e-06	3.211215e-06	9.258926e-10	2.231671e+01	6.301974e+01
2.580000e-06	3.249095e-06	9.362976e-10	2.257996e+01	6.353163e+01
2.590000e-06	3.286808e-06	9.471905e-10	2.284206e+01	6.403724e+01
2.600000e-06	3.324348e-06	9.559437e-10	2.310294e+01	6.453663e+01
2.610000e-06	3.361674e-06	9.618548e-10	2.336235e+01	6.502983e+01
2.620000e-06	3.398663e-06	9.665087e-10	2.361940e+01	6.551681e+01
2.630000e-06	3.435337e-06	9.706107e-10	2.387427e+01	6.599752e+01
2.640000e-06	3.471819e-06	9.741418e-10	2.412781e+01	6.647186e+01
2.650000e-06	3.508082e-06	9.823824e-10	2.437982e+01	6.693971e+01
2.660000e-06	3.544094e-06	9.927261e-10	2.463010e+01	6.740092e+01
2.670000e-06	3.579945e-06	1.000908e-09	2.487924e+01	6.785532e+01
2.680000e-06	3.615654e-06	1.006741e-09	2.512741e+01	6.830273e+01
2.690000e-06	3.651227e-06	1.009620e-09	2.537463e+01	6.874293e+01
2.700000e-06	3.686638e-06	1.014150e-09	2.562072e+01	6.917573e+01
2.710000e-06	3.721868e-06	1.020294e-09	2.586556e+01	6.960089e+01
2.720000e-06	3.756872e-06	1.027049e-09	2.610882e+01	7.001820e+01
2.730000e-06	3.791502e-06	1.032549e-09	2.634949e+01	7.042746e+01
2.740000e-06	3.825638e-06	1.036309e-09	2.658672e+01	7.082845e+01
2.750000e-06	3.859359e-06	1.038415e-09	2.682106e+01	7.122097e+01
2.760000e-06	3.892563e-06	1.040510e-09	2.705182e+01	7.160486e+01
2.770000e-06	3.925259e-06	1.042915e-09	2.727904e+01	7.197995e+01
2.780000e-06	3.957651e-06	1.047616e-09	2.750415e+01	7.234610e+01
2.790000e-06	3.989725e-06	1.054769e-09	2.772706e+01	7.270320e+01
2.800000e-06	4.021542e-06	1.063099e-09	2.794817e+01	7.305117e+01
2.810000e-06	4.053226e-06	1.071870e-09	2.816837e+01	7.338994e+01
2.820000e-06	4.084829e-06	1.080285e-09	2.838800e+01	7.371949e+01
2.830000e-06	4.116250e-06	1.085366e-09	2.860636e+01	7.403984e+01
2.840000e-06	4.147394e-06	1.084573e-09	2.882280e+01	7.435101e+01
2.850000e-06	4.178221e-06	1.081912e-09	2.903703e+01	7.465309e+01
2.860000e-06	4.208671e-06	1.082442e-09	2.924865e+01	7.494618e+01
2.870000e-06	4.238767e-06	1.085612e-09	2.945781e+01	7.523042e+01
2.880000e-06	4.268596e-06	1.090314e-09	2.966511e+01	7.550598e+01
2.890000e-06	4.298166e-06	1.095242e-09	2.987060e+01	7.577307e+01
2.900000e-06	4.327490e-06	1.099125e-09	3.007440e+01	7.603192e+01
2.910000e-06	4.356635e-06	1.102027e-09	3.027694e+01	7.628278e+01
