# Temperatura_=_11.59
# Concentracion g/m^3_=_1620.0
# C_Vs_to_Am_M_A/Vsm_=_65563218390.804596
# pendiente_HvsI_1/m_=_3716.3
# ordenada_HvsI_A/m_=_1297.0
# frecuencia_Hz_=_135106.89156081833

Tiempo_(s)	Campo_(V.s)	Magnetizacion_(V.s)	Campo_(kA/m)	Magnetizacion_(A/m)
0.000000e+00	-5.532278e-06	-1.220332e-09	-3.836754e+01	-7.950847e+01
1.000000e-08	-5.532548e-06	-1.217499e-09	-3.836942e+01	-7.947332e+01
2.000000e-08	-5.532585e-06	-1.212983e-09	-3.836967e+01	-7.943781e+01
3.000000e-08	-5.532343e-06	-1.210784e-09	-3.836799e+01	-7.940197e+01
4.000000e-08	-5.531689e-06	-1.208574e-09	-3.836346e+01	-7.936580e+01
5.000000e-08	-5.530447e-06	-1.210193e-09	-3.835484e+01	-7.932929e+01
6.000000e-08	-5.528597e-06	-1.219862e-09	-3.834201e+01	-7.929239e+01
7.000000e-08	-5.526190e-06	-1.233983e-09	-3.832532e+01	-7.925504e+01
8.000000e-08	-5.523213e-06	-1.219544e-09	-3.830467e+01	-7.921717e+01
9.000000e-08	-5.519735e-06	-1.146286e-09	-3.828056e+01	-7.917865e+01
1.000000e-07	-5.515880e-06	-1.128578e-09	-3.825382e+01	-7.913938e+01
1.100000e-07	-5.511727e-06	-1.239483e-09	-3.822502e+01	-7.909921e+01
1.200000e-07	-5.507249e-06	-1.305171e-09	-3.819396e+01	-7.905800e+01
1.300000e-07	-5.502471e-06	-1.203546e-09	-3.816083e+01	-7.901555e+01
1.400000e-07	-5.497445e-06	-1.126035e-09	-3.812597e+01	-7.897171e+01
1.500000e-07	-5.492085e-06	-1.207956e-09	-3.808880e+01	-7.892626e+01
1.600000e-07	-5.486330e-06	-1.302787e-09	-3.804888e+01	-7.887902e+01
1.700000e-07	-5.480213e-06	-1.211591e-09	-3.800646e+01	-7.882977e+01
1.800000e-07	-5.473728e-06	-1.123273e-09	-3.796148e+01	-7.877830e+01
1.900000e-07	-5.466804e-06	-1.180913e-09	-3.791346e+01	-7.872439e+01
2.000000e-07	-5.459475e-06	-1.266106e-09	-3.786264e+01	-7.866783e+01
2.100000e-07	-5.451826e-06	-1.225527e-09	-3.780959e+01	-7.860841e+01
2.200000e-07	-5.443917e-06	-1.156818e-09	-3.775474e+01	-7.854591e+01
2.300000e-07	-5.435719e-06	-1.183982e-09	-3.769789e+01	-7.848012e+01
2.400000e-07	-5.427086e-06	-1.238266e-09	-3.763801e+01	-7.841087e+01
2.500000e-07	-5.417925e-06	-1.232922e-09	-3.757448e+01	-7.833794e+01
2.600000e-07	-5.408173e-06	-1.185643e-09	-3.750685e+01	-7.826117e+01
2.700000e-07	-5.397852e-06	-1.195313e-09	-3.743527e+01	-7.818040e+01
2.800000e-07	-5.386917e-06	-1.219422e-09	-3.735943e+01	-7.809546e+01
2.900000e-07	-5.375445e-06	-1.208471e-09	-3.727987e+01	-7.800623e+01
3.000000e-07	-5.363596e-06	-1.179552e-09	-3.719769e+01	-7.791258e+01
3.100000e-07	-5.351389e-06	-1.205175e-09	-3.711304e+01	-7.781441e+01
3.200000e-07	-5.338884e-06	-1.238447e-09	-3.702632e+01	-7.771163e+01
3.300000e-07	-5.325997e-06	-1.227360e-09	-3.693694e+01	-7.760416e+01
3.400000e-07	-5.312560e-06	-1.182660e-09	-3.684375e+01	-7.749196e+01
3.500000e-07	-5.298716e-06	-1.193401e-09	-3.674774e+01	-7.737498e+01
3.600000e-07	-5.284602e-06	-1.207553e-09	-3.664985e+01	-7.725321e+01
3.700000e-07	-5.269985e-06	-1.178480e-09	-3.654848e+01	-7.712665e+01
3.800000e-07	-5.254818e-06	-1.170227e-09	-3.644330e+01	-7.699531e+01
3.900000e-07	-5.239115e-06	-1.221107e-09	-3.633440e+01	-7.685922e+01
4.000000e-07	-5.222874e-06	-1.198538e-09	-3.622176e+01	-7.671843e+01
4.100000e-07	-5.206232e-06	-1.143679e-09	-3.610634e+01	-7.657298e+01
4.200000e-07	-5.189316e-06	-1.192712e-09	-3.598903e+01	-7.642296e+01
4.300000e-07	-5.172080e-06	-1.229992e-09	-3.586949e+01	-7.626845e+01
4.400000e-07	-5.154511e-06	-1.144816e-09	-3.574765e+01	-7.610953e+01
4.500000e-07	-5.136668e-06	-1.127139e-09	-3.562390e+01	-7.594630e+01
4.600000e-07	-5.118401e-06	-1.212341e-09	-3.549722e+01	-7.577888e+01
4.700000e-07	-5.099621e-06	-1.182296e-09	-3.536698e+01	-7.560737e+01
4.800000e-07	-5.080483e-06	-1.114459e-09	-3.523424e+01	-7.543190e+01
4.900000e-07	-5.061075e-06	-1.174916e-09	-3.509965e+01	-7.525257e+01
5.000000e-07	-5.041385e-06	-1.201048e-09	-3.496309e+01	-7.506952e+01
5.100000e-07	-5.021458e-06	-1.121173e-09	-3.482489e+01	-7.488286e+01
5.200000e-07	-5.001338e-06	-1.141284e-09	-3.468536e+01	-7.469271e+01
5.300000e-07	-4.980929e-06	-1.191492e-09	-3.454382e+01	-7.449918e+01
5.400000e-07	-4.960112e-06	-1.122362e-09	-3.439945e+01	-7.430239e+01
5.500000e-07	-4.938900e-06	-1.094992e-09	-3.425234e+01	-7.410243e+01
5.600000e-07	-4.917353e-06	-1.171735e-09	-3.410291e+01	-7.389941e+01
5.700000e-07	-4.895444e-06	-1.150099e-09	-3.395096e+01	-7.369341e+01
5.800000e-07	-4.873183e-06	-1.090766e-09	-3.379657e+01	-7.348452e+01
5.900000e-07	-4.850616e-06	-1.131251e-09	-3.364007e+01	-7.327280e+01
6.000000e-07	-4.827696e-06	-1.145080e-09	-3.348111e+01	-7.305832e+01
6.100000e-07	-4.804468e-06	-1.087348e-09	-3.332002e+01	-7.284113e+01
6.200000e-07	-4.780955e-06	-1.101818e-09	-3.315696e+01	-7.262127e+01
6.300000e-07	-4.757221e-06	-1.131037e-09	-3.299235e+01	-7.239877e+01
6.400000e-07	-4.733244e-06	-1.097834e-09	-3.282607e+01	-7.217365e+01
6.500000e-07	-4.708999e-06	-1.091670e-09	-3.265792e+01	-7.194591e+01
6.600000e-07	-4.684387e-06	-1.118608e-09	-3.248724e+01	-7.171555e+01
6.700000e-07	-4.659152e-06	-1.094152e-09	-3.231222e+01	-7.148256e+01
6.800000e-07	-4.633396e-06	-1.076159e-09	-3.213360e+01	-7.124692e+01
6.900000e-07	-4.607185e-06	-1.096092e-09	-3.195182e+01	-7.100859e+01
7.000000e-07	-4.580432e-06	-1.088453e-09	-3.176628e+01	-7.076753e+01
7.100000e-07	-4.553287e-06	-1.067868e-09	-3.157803e+01	-7.052370e+01
7.200000e-07	-4.525862e-06	-1.077807e-09	-3.138783e+01	-7.027703e+01
7.300000e-07	-4.498177e-06	-1.079640e-09	-3.119583e+01	-7.002746e+01
7.400000e-07	-4.470323e-06	-1.065337e-09	-3.100265e+01	-6.977494e+01
7.500000e-07	-4.442333e-06	-1.065913e-09	-3.080854e+01	-6.951938e+01
7.600000e-07	-4.414084e-06	-1.065169e-09	-3.061262e+01	-6.926072e+01
7.700000e-07	-4.385463e-06	-1.054632e-09	-3.041413e+01	-6.899887e+01
7.800000e-07	-4.356496e-06	-1.053497e-09	-3.021324e+01	-6.873376e+01
7.900000e-07	-4.327224e-06	-1.051364e-09	-3.001023e+01	-6.846530e+01
8.000000e-07	-4.297707e-06	-1.035926e-09	-2.980553e+01	-6.819343e+01
8.100000e-07	-4.267899e-06	-1.032116e-09	-2.959880e+01	-6.791806e+01
8.200000e-07	-4.237827e-06	-1.032893e-09	-2.939025e+01	-6.763913e+01
8.300000e-07	-4.207536e-06	-1.019064e-09	-2.918017e+01	-6.735656e+01
8.400000e-07	-4.176902e-06	-1.006373e-09	-2.896772e+01	-6.707028e+01
8.500000e-07	-4.145864e-06	-1.010136e-09	-2.875246e+01	-6.678024e+01
8.600000e-07	-4.114546e-06	-1.006566e-09	-2.853526e+01	-6.648637e+01
8.700000e-07	-4.083065e-06	-9.978011e-10	-2.831693e+01	-6.618864e+01
8.800000e-07	-4.051383e-06	-9.976052e-10	-2.809722e+01	-6.588698e+01
8.900000e-07	-4.019500e-06	-9.969680e-10	-2.787610e+01	-6.558138e+01
9.000000e-07	-3.987396e-06	-9.815512e-10	-2.765345e+01	-6.527178e+01
9.100000e-07	-3.955089e-06	-9.725196e-10	-2.742940e+01	-6.495818e+01
9.200000e-07	-3.922442e-06	-9.697677e-10	-2.720299e+01	-6.464056e+01
9.300000e-07	-3.889339e-06	-9.576922e-10	-2.697340e+01	-6.431890e+01
9.400000e-07	-3.855870e-06	-9.496062e-10	-2.674129e+01	-6.399320e+01
9.500000e-07	-3.821939e-06	-9.531556e-10	-2.650597e+01	-6.366347e+01
9.600000e-07	-3.787518e-06	-9.490512e-10	-2.626726e+01	-6.332971e+01
9.700000e-07	-3.752751e-06	-9.368904e-10	-2.602614e+01	-6.299195e+01
9.800000e-07	-3.717655e-06	-9.323198e-10	-2.578274e+01	-6.265020e+01
9.900000e-07	-3.682265e-06	-9.296452e-10	-2.553730e+01	-6.230450e+01
1.000000e-06	-3.646702e-06	-9.188580e-10	-2.529066e+01	-6.195486e+01
1.010000e-06	-3.611020e-06	-9.147130e-10	-2.504321e+01	-6.160134e+01
1.020000e-06	-3.575130e-06	-9.181286e-10	-2.479430e+01	-6.124396e+01
1.030000e-06	-3.539016e-06	-9.125824e-10	-2.454384e+01	-6.088277e+01
1.040000e-06	-3.502741e-06	-9.025676e-10	-2.429227e+01	-6.051782e+01
1.050000e-06	-3.466280e-06	-8.994828e-10	-2.403940e+01	-6.014915e+01
1.060000e-06	-3.429598e-06	-8.943108e-10	-2.378500e+01	-5.977680e+01
1.070000e-06	-3.392633e-06	-8.831777e-10	-2.352864e+01	-5.940082e+01
1.080000e-06	-3.355333e-06	-8.767145e-10	-2.326996e+01	-5.902127e+01
1.090000e-06	-3.317717e-06	-8.723901e-10	-2.300908e+01	-5.863817e+01
1.100000e-06	-3.279888e-06	-8.642690e-10	-2.274673e+01	-5.825158e+01
1.110000e-06	-3.241910e-06	-8.570552e-10	-2.248335e+01	-5.786153e+01
1.120000e-06	-3.203675e-06	-8.521694e-10	-2.221817e+01	-5.746805e+01
1.130000e-06	-3.165183e-06	-8.436934e-10	-2.195122e+01	-5.707119e+01
1.140000e-06	-3.126511e-06	-8.356383e-10	-2.168303e+01	-5.667097e+01
1.150000e-06	-3.087566e-06	-8.306715e-10	-2.141294e+01	-5.626741e+01
1.160000e-06	-3.048422e-06	-8.276564e-10	-2.114146e+01	-5.586052e+01
1.170000e-06	-3.009152e-06	-8.223586e-10	-2.086912e+01	-5.545032e+01
1.180000e-06	-2.969755e-06	-8.163316e-10	-2.059589e+01	-5.503680e+01
1.190000e-06	-2.930203e-06	-8.110765e-10	-2.032159e+01	-5.461997e+01
1.200000e-06	-2.890506e-06	-8.035763e-10	-2.004629e+01	-5.419981e+01
1.210000e-06	-2.850701e-06	-7.940785e-10	-1.977023e+01	-5.377629e+01
1.220000e-06	-2.810706e-06	-7.844046e-10	-1.949285e+01	-5.334939e+01
1.230000e-06	-2.770554e-06	-7.745531e-10	-1.921439e+01	-5.291906e+01
1.240000e-06	-2.730313e-06	-7.657427e-10	-1.893531e+01	-5.248526e+01
1.250000e-06	-2.689925e-06	-7.589602e-10	-1.865521e+01	-5.204793e+01
1.260000e-06	-2.649194e-06	-7.542643e-10	-1.837273e+01	-5.160699e+01
1.270000e-06	-2.608102e-06	-7.492063e-10	-1.808775e+01	-5.116235e+01
1.280000e-06	-2.566784e-06	-7.431621e-10	-1.780120e+01	-5.071393e+01
1.290000e-06	-2.525232e-06	-7.369362e-10	-1.751303e+01	-5.026161e+01
1.300000e-06	-2.483373e-06	-7.278927e-10	-1.722273e+01	-4.980528e+01
1.310000e-06	-2.441237e-06	-7.152543e-10	-1.693051e+01	-4.934480e+01
1.320000e-06	-2.398811e-06	-7.025326e-10	-1.663627e+01	-4.888003e+01
1.330000e-06	-2.356061e-06	-6.921237e-10	-1.633979e+01	-4.841079e+01
1.340000e-06	-2.313047e-06	-6.843897e-10	-1.604148e+01	-4.793692e+01
1.350000e-06	-2.269776e-06	-6.810563e-10	-1.574138e+01	-4.745822e+01
1.360000e-06	-2.226321e-06	-6.785375e-10	-1.544002e+01	-4.697449e+01
1.370000e-06	-2.182757e-06	-6.710372e-10	-1.513789e+01	-4.648550e+01
1.380000e-06	-2.139060e-06	-6.584441e-10	-1.483484e+01	-4.599101e+01
1.390000e-06	-2.095269e-06	-6.427178e-10	-1.453114e+01	-4.549076e+01
1.400000e-06	-2.051449e-06	-6.264963e-10	-1.422724e+01	-4.498449e+01
1.410000e-06	-2.007573e-06	-6.134276e-10	-1.392295e+01	-4.447190e+01
1.420000e-06	-1.963567e-06	-6.055316e-10	-1.361776e+01	-4.395268e+01
1.430000e-06	-1.919483e-06	-6.022500e-10	-1.331203e+01	-4.342650e+01
1.440000e-06	-1.875366e-06	-6.001986e-10	-1.300607e+01	-4.289303e+01
1.450000e-06	-1.831149e-06	-5.959611e-10	-1.269942e+01	-4.235190e+01
1.460000e-06	-1.786766e-06	-5.872658e-10	-1.239161e+01	-4.180273e+01
1.470000e-06	-1.742191e-06	-5.739735e-10	-1.208247e+01	-4.124514e+01
1.480000e-06	-1.697409e-06	-5.599041e-10	-1.177190e+01	-4.067870e+01
1.490000e-06	-1.652510e-06	-5.491022e-10	-1.146052e+01	-4.010299e+01
1.500000e-06	-1.607505e-06	-5.432693e-10	-1.114840e+01	-3.951757e+01
1.510000e-06	-1.562344e-06	-5.408371e-10	-1.083520e+01	-3.892198e+01
1.520000e-06	-1.517076e-06	-5.373682e-10	-1.052125e+01	-3.831575e+01
1.530000e-06	-1.471784e-06	-5.307846e-10	-1.020714e+01	-3.769841e+01
1.540000e-06	-1.426434e-06	-5.230153e-10	-9.892628e+00	-3.706945e+01
1.550000e-06	-1.380970e-06	-5.139155e-10	-9.577327e+00	-3.642839e+01
1.560000e-06	-1.335400e-06	-5.007124e-10	-9.261288e+00	-3.577471e+01
1.570000e-06	-1.289732e-06	-4.862809e-10	-8.944570e+00	-3.510790e+01
1.580000e-06	-1.244042e-06	-4.738096e-10	-8.627698e+00	-3.442745e+01
1.590000e-06	-1.198274e-06	-4.625898e-10	-8.310290e+00	-3.373284e+01
1.600000e-06	-1.152364e-06	-4.532959e-10	-7.991896e+00	-3.302356e+01
1.610000e-06	-1.106363e-06	-4.455473e-10	-7.672865e+00	-3.229911e+01
1.620000e-06	-1.060380e-06	-4.343198e-10	-7.353963e+00	-3.155899e+01
1.630000e-06	-1.014318e-06	-4.175181e-10	-7.034513e+00	-3.080271e+01
1.640000e-06	-9.680802e-07	-4.000522e-10	-6.713845e+00	-3.002979e+01
1.650000e-06	-9.218141e-07	-3.843113e-10	-6.392980e+00	-2.923979e+01
1.660000e-06	-8.755017e-07	-3.706219e-10	-6.071794e+00	-2.843228e+01
1.670000e-06	-8.290967e-07	-3.597416e-10	-5.749965e+00	-2.760683e+01
1.680000e-06	-7.826308e-07	-3.511715e-10	-5.427714e+00	-2.676309e+01
1.690000e-06	-7.361374e-07	-3.422903e-10	-5.105272e+00	-2.590069e+01
1.700000e-06	-6.895823e-07	-3.316669e-10	-4.782402e+00	-2.501932e+01
1.710000e-06	-6.429878e-07	-3.177447e-10	-4.459259e+00	-2.411872e+01
1.720000e-06	-5.964077e-07	-2.999549e-10	-4.136216e+00	-2.319866e+01
1.730000e-06	-5.497955e-07	-2.803449e-10	-3.812950e+00	-2.225895e+01
1.740000e-06	-5.031315e-07	-2.624341e-10	-3.489325e+00	-2.129946e+01
1.750000e-06	-4.563600e-07	-2.477294e-10	-3.164955e+00	-2.032011e+01
1.760000e-06	-4.095107e-07	-2.356900e-10	-2.840045e+00	-1.932088e+01
1.770000e-06	-3.626191e-07	-2.248495e-10	-2.514842e+00	-1.830181e+01
1.780000e-06	-3.156861e-07	-2.112494e-10	-2.189351e+00	-1.726299e+01
1.790000e-06	-2.687436e-07	-1.939338e-10	-1.863795e+00	-1.620458e+01
1.800000e-06	-2.217979e-07	-1.761691e-10	-1.538217e+00	-1.512681e+01
1.810000e-06	-1.748781e-07	-1.590253e-10	-1.212817e+00	-1.402998e+01
1.820000e-06	-1.279581e-07	-1.406259e-10	-8.874168e-01	-1.291444e+01
1.830000e-06	-8.103904e-08	-1.209294e-10	-5.620232e-01	-1.178064e+01
1.840000e-06	-3.412445e-08	-1.015889e-10	-2.366604e-01	-1.062908e+01
1.850000e-06	1.279814e-08	-8.486961e-11	8.875783e-02	-9.460338e+00
1.860000e-06	5.965154e-08	-7.153841e-11	4.136963e-01	-8.275054e+00
1.870000e-06	1.065398e-07	-5.756023e-11	7.388763e-01	-7.073948e+00
1.880000e-06	1.534420e-07	-4.141585e-11	1.064154e+00	-5.857803e+00
1.890000e-06	2.002786e-07	-2.374331e-11	1.388976e+00	-4.627474e+00
1.900000e-06	2.471868e-07	-5.289021e-12	1.714294e+00	-3.383876e+00
1.910000e-06	2.941454e-07	1.248901e-11	2.039962e+00	-2.127990e+00
1.920000e-06	3.410915e-07	3.093168e-11	2.365543e+00	-8.608547e-01
1.930000e-06	3.879848e-07	5.045978e-11	2.690758e+00	4.164334e-01
1.940000e-06	4.347953e-07	6.994995e-11	3.015399e+00	1.702727e+00
1.950000e-06	4.816029e-07	8.966081e-11	3.340020e+00	2.996829e+00
1.960000e-06	5.283660e-07	1.088819e-10	3.664332e+00	4.297501e+00
1.970000e-06	5.750250e-07	1.272579e-10	3.987922e+00	5.603464e+00
1.980000e-06	6.216092e-07	1.464339e-10	4.310994e+00	6.913407e+00
1.990000e-06	6.681518e-07	1.652069e-10	4.633777e+00	8.225991e+00
2.000000e-06	7.146425e-07	1.821888e-10	4.956200e+00	9.539856e+00
2.010000e-06	7.610813e-07	2.022348e-10	5.278263e+00	1.085363e+01
2.020000e-06	8.074712e-07	2.217668e-10	5.599987e+00	1.216592e+01
2.030000e-06	8.537461e-07	2.418704e-10	5.920914e+00	1.347534e+01
2.040000e-06	9.000030e-07	2.644366e-10	6.241715e+00	1.478050e+01
2.050000e-06	9.462734e-07	2.842966e-10	6.562610e+00	1.608004e+01
2.060000e-06	9.924112e-07	3.011726e-10	6.882586e+00	1.737260e+01
2.070000e-06	1.038395e-06	3.142413e-10	7.201496e+00	1.865684e+01
2.080000e-06	1.084326e-06	3.272636e-10	7.520032e+00	1.993146e+01
2.090000e-06	1.130233e-06	3.410294e-10	7.838407e+00	2.119519e+01
2.100000e-06	1.176048e-06	3.609210e-10	8.156149e+00	2.244680e+01
2.110000e-06	1.221746e-06	3.844778e-10	8.473069e+00	2.368512e+01
2.120000e-06	1.267438e-06	4.064567e-10	8.789953e+00	2.490902e+01
2.130000e-06	1.313104e-06	4.239073e-10	9.106662e+00	2.611745e+01
2.140000e-06	1.358606e-06	4.384194e-10	9.422225e+00	2.730939e+01
2.150000e-06	1.404023e-06	4.501782e-10	9.737202e+00	2.848391e+01
2.160000e-06	1.449356e-06	4.600862e-10	1.005159e+01	2.964016e+01
2.170000e-06	1.494564e-06	4.739541e-10	1.036512e+01	3.077734e+01
2.180000e-06	1.539660e-06	4.927555e-10	1.067788e+01	3.189476e+01
2.190000e-06	1.584645e-06	5.121113e-10	1.098985e+01	3.299179e+01
2.200000e-06	1.629568e-06	5.308049e-10	1.130141e+01	3.406787e+01
2.210000e-06	1.674418e-06	5.469605e-10	1.161245e+01	3.512256e+01
2.220000e-06	1.719093e-06	5.582268e-10	1.192228e+01	3.615549e+01
2.230000e-06	1.763560e-06	5.642691e-10	1.223067e+01	3.716636e+01
2.240000e-06	1.807870e-06	5.724505e-10	1.253797e+01	3.815497e+01
2.250000e-06	1.852026e-06	5.866858e-10	1.284420e+01	3.912121e+01
2.260000e-06	1.896086e-06	6.072190e-10	1.314977e+01	4.006504e+01
2.270000e-06	1.940082e-06	6.287617e-10	1.345489e+01	4.098651e+01
2.280000e-06	1.984039e-06	6.445414e-10	1.375974e+01	4.188573e+01
2.290000e-06	2.027923e-06	6.556953e-10	1.406409e+01	4.276291e+01
2.300000e-06	2.071696e-06	6.622222e-10	1.436766e+01	4.361832e+01
2.310000e-06	2.115403e-06	6.677594e-10	1.467078e+01	4.445229e+01
2.320000e-06	2.159057e-06	6.764253e-10	1.497352e+01	4.526523e+01
2.330000e-06	2.202636e-06	6.897693e-10	1.527576e+01	4.605759e+01
2.340000e-06	2.246081e-06	7.039163e-10	1.557706e+01	4.682988e+01
2.350000e-06	2.289398e-06	7.172796e-10	1.587747e+01	4.758266e+01
2.360000e-06	2.332595e-06	7.277511e-10	1.617705e+01	4.831654e+01
2.370000e-06	2.375556e-06	7.362344e-10	1.647499e+01	4.903214e+01
2.380000e-06	2.418257e-06	7.423854e-10	1.677113e+01	4.973014e+01
2.390000e-06	2.460747e-06	7.493975e-10	1.706581e+01	5.041123e+01
2.400000e-06	2.502889e-06	7.558022e-10	1.735807e+01	5.107611e+01
2.410000e-06	2.544568e-06	7.646378e-10	1.764713e+01	5.172551e+01
2.420000e-06	2.585917e-06	7.774910e-10	1.793389e+01	5.236016e+01
2.430000e-06	2.627038e-06	7.916560e-10	1.821908e+01	5.298077e+01
2.440000e-06	2.667909e-06	8.035804e-10	1.850253e+01	5.358808e+01
2.450000e-06	2.708551e-06	8.110183e-10	1.878439e+01	5.418279e+01
2.460000e-06	2.748960e-06	8.157924e-10	1.906463e+01	5.476559e+01
2.470000e-06	2.789140e-06	8.205826e-10	1.934329e+01	5.533717e+01
2.480000e-06	2.829127e-06	8.252607e-10	1.962061e+01	5.589816e+01
2.490000e-06	2.868972e-06	8.321512e-10	1.989694e+01	5.644919e+01
2.500000e-06	2.908720e-06	8.418974e-10	2.017260e+01	5.699084e+01
2.510000e-06	2.948395e-06	8.544787e-10	2.044775e+01	5.752365e+01
2.520000e-06	2.987970e-06	8.670845e-10	2.072222e+01	5.804814e+01
2.530000e-06	3.027325e-06	8.753296e-10	2.099515e+01	5.856477e+01
2.540000e-06	3.066414e-06	8.819907e-10	2.126624e+01	5.907395e+01
2.550000e-06	3.105307e-06	8.882499e-10	2.153597e+01	5.957607e+01
2.560000e-06	3.143990e-06	8.921445e-10	2.180425e+01	6.007145e+01
2.570000e-06	3.182402e-06	8.956200e-10	2.207064e+01	6.056038e+01
2.580000e-06	3.220614e-06	9.040055e-10	2.233566e+01	6.104308e+01
2.590000e-06	3.258587e-06	9.149526e-10	2.259900e+01	6.151975e+01
2.600000e-06	3.296258e-06	9.246567e-10	2.286026e+01	6.199053e+01
2.610000e-06	3.333704e-06	9.313321e-10	2.311996e+01	6.245553e+01
2.620000e-06	3.371020e-06	9.374211e-10	2.337875e+01	6.291478e+01
2.630000e-06	3.408191e-06	9.457914e-10	2.363654e+01	6.336832e+01
2.640000e-06	3.445075e-06	9.544668e-10	2.389234e+01	6.381613e+01
2.650000e-06	3.481613e-06	9.612218e-10	2.414574e+01	6.425814e+01
2.660000e-06	3.517975e-06	9.689077e-10	2.439792e+01	6.469427e+01
2.670000e-06	3.554165e-06	9.757438e-10	2.464890e+01	6.512441e+01
2.680000e-06	3.590087e-06	9.808326e-10	2.489803e+01	6.554843e+01
2.690000e-06	3.625850e-06	9.839781e-10	2.514605e+01	6.596615e+01
2.700000e-06	3.661465e-06	9.856908e-10	2.539305e+01	6.637741e+01
2.710000e-06	3.696932e-06	9.902690e-10	2.563902e+01	6.678202e+01
2.720000e-06	3.732264e-06	9.988315e-10	2.588406e+01	6.717979e+01
2.730000e-06	3.767316e-06	1.008237e-09	2.612715e+01	6.757051e+01
2.740000e-06	3.802025e-06	1.016818e-09	2.636787e+01	6.795399e+01
2.750000e-06	3.836351e-06	1.022474e-09	2.660592e+01	6.833002e+01
2.760000e-06	3.870111e-06	1.024174e-09	2.684005e+01	6.869842e+01
2.770000e-06	3.903349e-06	1.024538e-09	2.707057e+01	6.905900e+01
2.780000e-06	3.936152e-06	1.025345e-09	2.729806e+01	6.941160e+01
2.790000e-06	3.968530e-06	1.029220e-09	2.752261e+01	6.975607e+01
2.800000e-06	4.000641e-06	1.034253e-09	2.774531e+01	7.009227e+01
2.810000e-06	4.032568e-06	1.039082e-09	2.796673e+01	7.042011e+01
2.820000e-06	4.064337e-06	1.045966e-09	2.818705e+01	7.073949e+01
2.830000e-06	4.095979e-06	1.051745e-09	2.840650e+01	7.105036e+01
2.840000e-06	4.127457e-06	1.056592e-09	2.862481e+01	7.135269e+01
2.850000e-06	4.158687e-06	1.059276e-09	2.884139e+01	7.164646e+01
2.860000e-06	4.189532e-06	1.059266e-09	2.905531e+01	7.193171e+01
2.870000e-06	4.219974e-06	1.061622e-09	2.926643e+01	7.220849e+01
2.880000e-06	4.250134e-06	1.064678e-09	2.947560e+01	7.247689e+01
2.890000e-06	4.280069e-06	1.068352e-09	2.968320e+01	7.273701e+01
2.900000e-06	4.309711e-06	1.068477e-09	2.988878e+01	7.298900e+01
