# Temperatura_=_8.48
# Concentracion g/m^3_=_1620.0
# C_Vs_to_Am_M_A/Vsm_=_65563218390.804596
# pendiente_HvsI_1/m_=_3716.3
# ordenada_HvsI_A/m_=_1297.0
# frecuencia_Hz_=_135108.46025017364

Tiempo_(s)	Campo_(V.s)	Magnetizacion_(V.s)	Campo_(kA/m)	Magnetizacion_(A/m)
0.000000e+00	-5.525064e-06	-1.261168e-09	-3.836371e+01	-8.153131e+01
1.000000e-08	-5.525189e-06	-1.257059e-09	-3.836457e+01	-8.150678e+01
2.000000e-08	-5.525040e-06	-1.251867e-09	-3.836354e+01	-8.148073e+01
3.000000e-08	-5.524493e-06	-1.248337e-09	-3.835974e+01	-8.145311e+01
4.000000e-08	-5.523349e-06	-1.248671e-09	-3.835180e+01	-8.142385e+01
5.000000e-08	-5.521650e-06	-1.264697e-09	-3.834000e+01	-8.139286e+01
6.000000e-08	-5.519356e-06	-1.288915e-09	-3.832407e+01	-8.136006e+01
7.000000e-08	-5.516453e-06	-1.267472e-09	-3.830391e+01	-8.132538e+01
8.000000e-08	-5.513142e-06	-1.172883e-09	-3.828093e+01	-8.128870e+01
9.000000e-08	-5.509524e-06	-1.156585e-09	-3.825580e+01	-8.124992e+01
1.000000e-07	-5.505526e-06	-1.267895e-09	-3.822804e+01	-8.120895e+01
1.100000e-07	-5.501052e-06	-1.345627e-09	-3.819698e+01	-8.116566e+01
1.200000e-07	-5.496269e-06	-1.238245e-09	-3.816377e+01	-8.111994e+01
1.300000e-07	-5.491352e-06	-1.176108e-09	-3.812963e+01	-8.107167e+01
1.400000e-07	-5.486159e-06	-1.225867e-09	-3.809357e+01	-8.102073e+01
1.500000e-07	-5.480549e-06	-1.329126e-09	-3.805461e+01	-8.096699e+01
1.600000e-07	-5.474451e-06	-1.227395e-09	-3.801227e+01	-8.091033e+01
1.700000e-07	-5.467964e-06	-1.164241e-09	-3.796723e+01	-8.085062e+01
1.800000e-07	-5.461079e-06	-1.196054e-09	-3.791942e+01	-8.078773e+01
1.900000e-07	-5.453776e-06	-1.300191e-09	-3.786872e+01	-8.072153e+01
2.000000e-07	-5.446241e-06	-1.278279e-09	-3.781640e+01	-8.065190e+01
2.100000e-07	-5.438449e-06	-1.215136e-09	-3.776229e+01	-8.057872e+01
2.200000e-07	-5.430237e-06	-1.206229e-09	-3.770527e+01	-8.050186e+01
2.300000e-07	-5.421714e-06	-1.239866e-09	-3.764609e+01	-8.042120e+01
2.400000e-07	-5.412803e-06	-1.248858e-09	-3.758421e+01	-8.033663e+01
2.500000e-07	-5.403191e-06	-1.210248e-09	-3.751747e+01	-8.024803e+01
2.600000e-07	-5.392878e-06	-1.230469e-09	-3.744586e+01	-8.015531e+01
2.700000e-07	-5.382016e-06	-1.232480e-09	-3.737044e+01	-8.005836e+01
2.800000e-07	-5.370658e-06	-1.224424e-09	-3.729157e+01	-7.995709e+01
2.900000e-07	-5.358788e-06	-1.166591e-09	-3.720916e+01	-7.985140e+01
3.000000e-07	-5.346600e-06	-1.202323e-09	-3.712453e+01	-7.974122e+01
3.100000e-07	-5.334160e-06	-1.209863e-09	-3.703815e+01	-7.962648e+01
3.200000e-07	-5.321366e-06	-1.214851e-09	-3.694931e+01	-7.950710e+01
3.300000e-07	-5.308058e-06	-1.161121e-09	-3.685691e+01	-7.938304e+01
3.400000e-07	-5.294320e-06	-1.208349e-09	-3.676152e+01	-7.925424e+01
3.500000e-07	-5.280208e-06	-1.202666e-09	-3.666353e+01	-7.912067e+01
3.600000e-07	-5.265584e-06	-1.183494e-09	-3.656199e+01	-7.898229e+01
3.700000e-07	-5.250446e-06	-1.163461e-09	-3.645688e+01	-7.883908e+01
3.800000e-07	-5.234808e-06	-1.219689e-09	-3.634829e+01	-7.869103e+01
3.900000e-07	-5.218659e-06	-1.176377e-09	-3.623616e+01	-7.853814e+01
4.000000e-07	-5.202159e-06	-1.144900e-09	-3.612159e+01	-7.838042e+01
4.100000e-07	-5.185365e-06	-1.198700e-09	-3.600498e+01	-7.821789e+01
4.200000e-07	-5.168165e-06	-1.226382e-09	-3.588555e+01	-7.805056e+01
4.300000e-07	-5.150529e-06	-1.143350e-09	-3.576309e+01	-7.787849e+01
4.400000e-07	-5.132585e-06	-1.147231e-09	-3.563850e+01	-7.770171e+01
4.500000e-07	-5.114406e-06	-1.219914e-09	-3.551227e+01	-7.752028e+01
4.600000e-07	-5.095840e-06	-1.172623e-09	-3.538336e+01	-7.733427e+01
4.700000e-07	-5.076873e-06	-1.128097e-09	-3.525166e+01	-7.714373e+01
4.800000e-07	-5.057569e-06	-1.186690e-09	-3.511762e+01	-7.694877e+01
4.900000e-07	-5.038045e-06	-1.190383e-09	-3.498205e+01	-7.674945e+01
5.000000e-07	-5.018306e-06	-1.123462e-09	-3.484499e+01	-7.654588e+01
5.100000e-07	-4.998303e-06	-1.172465e-09	-3.470610e+01	-7.633815e+01
5.200000e-07	-4.978012e-06	-1.191062e-09	-3.456521e+01	-7.612638e+01
5.300000e-07	-4.957347e-06	-1.119195e-09	-3.442172e+01	-7.591066e+01
5.400000e-07	-4.936272e-06	-1.113348e-09	-3.427538e+01	-7.569112e+01
5.500000e-07	-4.914767e-06	-1.186498e-09	-3.412606e+01	-7.546787e+01
5.600000e-07	-4.892961e-06	-1.143878e-09	-3.397465e+01	-7.524104e+01
5.700000e-07	-4.870849e-06	-1.118601e-09	-3.382111e+01	-7.501073e+01
5.800000e-07	-4.848273e-06	-1.156450e-09	-3.366435e+01	-7.477707e+01
5.900000e-07	-4.825382e-06	-1.152280e-09	-3.350541e+01	-7.454019e+01
6.000000e-07	-4.802240e-06	-1.102788e-09	-3.334472e+01	-7.430020e+01
6.100000e-07	-4.778829e-06	-1.134599e-09	-3.318217e+01	-7.405722e+01
6.200000e-07	-4.755230e-06	-1.135889e-09	-3.301830e+01	-7.381136e+01
6.300000e-07	-4.731418e-06	-1.109620e-09	-3.285296e+01	-7.356274e+01
6.400000e-07	-4.707316e-06	-1.114539e-09	-3.268561e+01	-7.331144e+01
6.500000e-07	-4.682783e-06	-1.129638e-09	-3.251526e+01	-7.305757e+01
6.600000e-07	-4.657768e-06	-1.096597e-09	-3.234157e+01	-7.280122e+01
6.700000e-07	-4.632201e-06	-1.097316e-09	-3.216405e+01	-7.254247e+01
6.800000e-07	-4.606038e-06	-1.102225e-09	-3.198238e+01	-7.228139e+01
6.900000e-07	-4.579315e-06	-1.087913e-09	-3.179683e+01	-7.201804e+01
7.000000e-07	-4.552141e-06	-1.081473e-09	-3.160814e+01	-7.175248e+01
7.100000e-07	-4.524706e-06	-1.089563e-09	-3.141765e+01	-7.148473e+01
7.200000e-07	-4.497105e-06	-1.073905e-09	-3.122599e+01	-7.121483e+01
7.300000e-07	-4.469354e-06	-1.067511e-09	-3.103330e+01	-7.094280e+01
7.400000e-07	-4.441429e-06	-1.069663e-09	-3.083940e+01	-7.066863e+01
7.500000e-07	-4.413279e-06	-1.059250e-09	-3.064394e+01	-7.039231e+01
7.600000e-07	-4.384867e-06	-1.059476e-09	-3.044666e+01	-7.011382e+01
7.700000e-07	-4.356176e-06	-1.067097e-09	-3.024744e+01	-6.983312e+01
7.800000e-07	-4.327122e-06	-1.056602e-09	-3.004570e+01	-6.955016e+01
7.900000e-07	-4.297664e-06	-1.039319e-09	-2.984116e+01	-6.926486e+01
8.000000e-07	-4.267893e-06	-1.043632e-09	-2.963444e+01	-6.897715e+01
8.100000e-07	-4.237836e-06	-1.033301e-09	-2.942574e+01	-6.868694e+01
8.200000e-07	-4.207490e-06	-1.017112e-09	-2.921503e+01	-6.839413e+01
8.300000e-07	-4.176817e-06	-1.011036e-09	-2.900205e+01	-6.809859e+01
8.400000e-07	-4.145849e-06	-1.015178e-09	-2.878702e+01	-6.780019e+01
8.500000e-07	-4.114670e-06	-1.001677e-09	-2.857053e+01	-6.749881e+01
8.600000e-07	-4.083298e-06	-1.001618e-09	-2.835269e+01	-6.719428e+01
8.700000e-07	-4.051812e-06	-1.003007e-09	-2.813407e+01	-6.688646e+01
8.800000e-07	-4.020178e-06	-9.975066e-10	-2.791441e+01	-6.657518e+01
8.900000e-07	-3.988287e-06	-9.822225e-10	-2.769298e+01	-6.626027e+01
9.000000e-07	-3.956074e-06	-9.832092e-10	-2.746930e+01	-6.594156e+01
9.100000e-07	-3.923477e-06	-9.735387e-10	-2.724296e+01	-6.561886e+01
9.200000e-07	-3.890501e-06	-9.607654e-10	-2.701400e+01	-6.529201e+01
9.300000e-07	-3.857101e-06	-9.543823e-10	-2.678208e+01	-6.496081e+01
9.400000e-07	-3.823201e-06	-9.592364e-10	-2.654669e+01	-6.462509e+01
9.500000e-07	-3.788855e-06	-9.522128e-10	-2.630821e+01	-6.428468e+01
9.600000e-07	-3.754080e-06	-9.472999e-10	-2.606675e+01	-6.393940e+01
9.700000e-07	-3.718959e-06	-9.436125e-10	-2.582288e+01	-6.358908e+01
9.800000e-07	-3.683684e-06	-9.366432e-10	-2.557794e+01	-6.323357e+01
9.900000e-07	-3.648258e-06	-9.247677e-10	-2.533196e+01	-6.287272e+01
1.000000e-06	-3.612653e-06	-9.219606e-10	-2.508473e+01	-6.250638e+01
1.010000e-06	-3.576940e-06	-9.209832e-10	-2.483676e+01	-6.213443e+01
1.020000e-06	-3.541067e-06	-9.165154e-10	-2.458767e+01	-6.175676e+01
1.030000e-06	-3.504955e-06	-9.103817e-10	-2.433693e+01	-6.137325e+01
1.040000e-06	-3.468589e-06	-9.039574e-10	-2.408442e+01	-6.098383e+01
1.050000e-06	-3.431930e-06	-8.968249e-10	-2.382987e+01	-6.058842e+01
1.060000e-06	-3.394949e-06	-8.884717e-10	-2.357309e+01	-6.018697e+01
1.070000e-06	-3.357735e-06	-8.840278e-10	-2.331469e+01	-5.977945e+01
1.080000e-06	-3.320340e-06	-8.799310e-10	-2.305503e+01	-5.936583e+01
1.090000e-06	-3.282688e-06	-8.764539e-10	-2.279359e+01	-5.894610e+01
1.100000e-06	-3.244760e-06	-8.689870e-10	-2.253024e+01	-5.852030e+01
1.110000e-06	-3.206669e-06	-8.611591e-10	-2.226575e+01	-5.808845e+01
1.120000e-06	-3.168480e-06	-8.472958e-10	-2.200058e+01	-5.765061e+01
1.130000e-06	-3.130080e-06	-8.371043e-10	-2.173395e+01	-5.720684e+01
1.140000e-06	-3.091369e-06	-8.288147e-10	-2.146516e+01	-5.675724e+01
1.150000e-06	-3.052417e-06	-8.263642e-10	-2.119469e+01	-5.630189e+01
1.160000e-06	-3.013302e-06	-8.201151e-10	-2.092310e+01	-5.584093e+01
1.170000e-06	-2.974018e-06	-8.140550e-10	-2.065032e+01	-5.537447e+01
1.180000e-06	-2.934632e-06	-8.068591e-10	-2.037685e+01	-5.490265e+01
1.190000e-06	-2.895126e-06	-8.007336e-10	-2.010253e+01	-5.442563e+01
1.200000e-06	-2.855427e-06	-7.890231e-10	-1.982688e+01	-5.394356e+01
1.210000e-06	-2.815608e-06	-7.789846e-10	-1.955039e+01	-5.345660e+01
1.220000e-06	-2.775647e-06	-7.706730e-10	-1.927292e+01	-5.296492e+01
1.230000e-06	-2.735443e-06	-7.641440e-10	-1.899376e+01	-5.246869e+01
1.240000e-06	-2.695008e-06	-7.563136e-10	-1.871300e+01	-5.196807e+01
1.250000e-06	-2.654388e-06	-7.507795e-10	-1.843095e+01	-5.146322e+01
1.260000e-06	-2.613605e-06	-7.429071e-10	-1.814777e+01	-5.095431e+01
1.270000e-06	-2.572514e-06	-7.370475e-10	-1.786245e+01	-5.044147e+01
1.280000e-06	-2.531025e-06	-7.318477e-10	-1.757436e+01	-4.992485e+01
1.290000e-06	-2.489176e-06	-7.240674e-10	-1.728378e+01	-4.940455e+01
1.300000e-06	-2.446972e-06	-7.103663e-10	-1.699074e+01	-4.888070e+01
1.310000e-06	-2.404504e-06	-6.958179e-10	-1.669586e+01	-4.835337e+01
1.320000e-06	-2.361818e-06	-6.848300e-10	-1.639947e+01	-4.782262e+01
1.330000e-06	-2.318876e-06	-6.754345e-10	-1.610129e+01	-4.728849e+01
1.340000e-06	-2.275750e-06	-6.692465e-10	-1.580185e+01	-4.675100e+01
1.350000e-06	-2.232534e-06	-6.656253e-10	-1.550177e+01	-4.621011e+01
1.360000e-06	-2.189199e-06	-6.612924e-10	-1.520087e+01	-4.566580e+01
1.370000e-06	-2.145713e-06	-6.519139e-10	-1.489893e+01	-4.511797e+01
1.380000e-06	-2.102127e-06	-6.402111e-10	-1.459628e+01	-4.456651e+01
1.390000e-06	-2.058469e-06	-6.253632e-10	-1.429314e+01	-4.401126e+01
1.400000e-06	-2.014746e-06	-6.122688e-10	-1.398954e+01	-4.345205e+01
1.410000e-06	-1.970955e-06	-6.014037e-10	-1.368548e+01	-4.288864e+01
1.420000e-06	-1.927037e-06	-5.934022e-10	-1.338053e+01	-4.232078e+01
1.430000e-06	-1.883000e-06	-5.833092e-10	-1.307475e+01	-4.174817e+01
1.440000e-06	-1.838861e-06	-5.733729e-10	-1.276827e+01	-4.117046e+01
1.450000e-06	-1.794596e-06	-5.632523e-10	-1.246091e+01	-4.058729e+01
1.460000e-06	-1.750184e-06	-5.535594e-10	-1.215254e+01	-3.999825e+01
1.470000e-06	-1.705564e-06	-5.434639e-10	-1.184271e+01	-3.940288e+01
1.480000e-06	-1.660770e-06	-5.352531e-10	-1.153168e+01	-3.880072e+01
1.490000e-06	-1.615866e-06	-5.269164e-10	-1.121989e+01	-3.819125e+01
1.500000e-06	-1.570854e-06	-5.186290e-10	-1.090735e+01	-3.757394e+01
1.510000e-06	-1.525756e-06	-5.069176e-10	-1.059421e+01	-3.694821e+01
1.520000e-06	-1.480524e-06	-4.947789e-10	-1.028013e+01	-3.631349e+01
1.530000e-06	-1.435222e-06	-4.844639e-10	-9.965578e+00	-3.566916e+01
1.540000e-06	-1.389850e-06	-4.751492e-10	-9.650533e+00	-3.501460e+01
1.550000e-06	-1.344368e-06	-4.638836e-10	-9.334725e+00	-3.434916e+01
1.560000e-06	-1.298863e-06	-4.538786e-10	-9.018753e+00	-3.367219e+01
1.570000e-06	-1.253234e-06	-4.452786e-10	-8.701925e+00	-3.298305e+01
1.580000e-06	-1.207480e-06	-4.344411e-10	-8.384229e+00	-3.228108e+01
1.590000e-06	-1.161607e-06	-4.227871e-10	-8.065706e+00	-3.156561e+01
1.600000e-06	-1.115658e-06	-4.097613e-10	-7.746658e+00	-3.083602e+01
1.610000e-06	-1.069720e-06	-3.943121e-10	-7.427683e+00	-3.009165e+01
1.620000e-06	-1.023691e-06	-3.787101e-10	-7.108077e+00	-2.933191e+01
1.630000e-06	-9.774884e-07	-3.655290e-10	-6.787266e+00	-2.855620e+01
1.640000e-06	-9.311612e-07	-3.534066e-10	-6.465590e+00	-2.776395e+01
1.650000e-06	-8.848216e-07	-3.423728e-10	-6.143827e+00	-2.695462e+01
1.660000e-06	-8.384950e-07	-3.317000e-10	-5.822154e+00	-2.612773e+01
1.670000e-06	-7.921338e-07	-3.207429e-10	-5.500242e+00	-2.528281e+01
1.680000e-06	-7.457062e-07	-3.088764e-10	-5.177868e+00	-2.441944e+01
1.690000e-06	-6.991895e-07	-2.976859e-10	-4.854876e+00	-2.353728e+01
1.700000e-06	-6.526622e-07	-2.868494e-10	-4.531810e+00	-2.263600e+01
1.710000e-06	-6.061804e-07	-2.727278e-10	-4.209060e+00	-2.171535e+01
1.720000e-06	-5.596293e-07	-2.569659e-10	-3.885829e+00	-2.077515e+01
1.730000e-06	-5.129623e-07	-2.424010e-10	-3.561794e+00	-1.981525e+01
1.740000e-06	-4.662526e-07	-2.273868e-10	-3.237461e+00	-1.883560e+01
1.750000e-06	-4.195070e-07	-2.118750e-10	-2.912879e+00	-1.783620e+01
1.760000e-06	-3.726496e-07	-1.968372e-10	-2.587521e+00	-1.681713e+01
1.770000e-06	-3.257016e-07	-1.842757e-10	-2.261534e+00	-1.577852e+01
1.780000e-06	-2.787475e-07	-1.712594e-10	-1.935505e+00	-1.472060e+01
1.790000e-06	-2.318052e-07	-1.578605e-10	-1.609557e+00	-1.364366e+01
1.800000e-06	-1.849079e-07	-1.416938e-10	-1.283922e+00	-1.254807e+01
1.810000e-06	-1.380421e-07	-1.232343e-10	-9.585059e-01	-1.143426e+01
1.820000e-06	-9.118713e-08	-1.033416e-10	-6.331648e-01	-1.030275e+01
1.830000e-06	-4.433852e-08	-8.413134e-11	-3.078679e-01	-9.154117e+00
1.840000e-06	2.562490e-09	-6.726296e-11	1.779284e-02	-7.989021e+00
1.850000e-06	4.943005e-08	-5.162087e-11	3.432214e-01	-6.808183e+00
1.860000e-06	9.624096e-08	-3.523338e-11	6.682565e-01	-5.612390e+00
1.870000e-06	1.430721e-07	-1.879397e-11	9.934321e-01	-4.402493e+00
1.880000e-06	1.899531e-07	-2.562648e-12	1.318954e+00	-3.179403e+00
1.890000e-06	2.368183e-07	1.452784e-11	1.644366e+00	-1.944086e+00
1.900000e-06	2.836627e-07	3.241981e-11	1.969634e+00	-6.975616e-01
1.910000e-06	3.305079e-07	5.040285e-11	2.294907e+00	5.591042e-01
1.920000e-06	3.774204e-07	7.028221e-11	2.620647e+00	1.824801e+00
1.930000e-06	4.243296e-07	9.090562e-11	2.946365e+00	3.098381e+00
1.940000e-06	4.711496e-07	1.106032e-10	3.271464e+00	4.378661e+00
1.950000e-06	5.179050e-07	1.299965e-10	3.596113e+00	5.664432e+00
1.960000e-06	5.645857e-07	1.475897e-10	3.920244e+00	6.954460e+00
1.970000e-06	6.112348e-07	1.642251e-10	4.244156e+00	8.247496e+00
1.980000e-06	6.577418e-07	1.802773e-10	4.567081e+00	9.542276e+00
1.990000e-06	7.041844e-07	1.966293e-10	4.889559e+00	1.083753e+01
2.000000e-06	7.506406e-07	2.158674e-10	5.212131e+00	1.213200e+01
2.010000e-06	7.970055e-07	2.364659e-10	5.534069e+00	1.342441e+01
2.020000e-06	8.433193e-07	2.580038e-10	5.855653e+00	1.471352e+01
2.030000e-06	8.895946e-07	2.821284e-10	6.176969e+00	1.599808e+01
2.040000e-06	9.358441e-07	3.026904e-10	6.498106e+00	1.727689e+01
2.050000e-06	9.820340e-07	3.189147e-10	6.818829e+00	1.854875e+01
2.060000e-06	1.028055e-06	3.324644e-10	7.138380e+00	1.981250e+01
2.070000e-06	1.073963e-06	3.455971e-10	7.457145e+00	2.106704e+01
2.080000e-06	1.119874e-06	3.608109e-10	7.775930e+00	2.231127e+01
2.090000e-06	1.165773e-06	3.804704e-10	8.094632e+00	2.354416e+01
2.100000e-06	1.211605e-06	4.020220e-10	8.412870e+00	2.476472e+01
2.110000e-06	1.257318e-06	4.217973e-10	8.730285e+00	2.597202e+01
2.120000e-06	1.302881e-06	4.383438e-10	9.046653e+00	2.716518e+01
2.130000e-06	1.348299e-06	4.525672e-10	9.362016e+00	2.834337e+01
2.140000e-06	1.393658e-06	4.650214e-10	9.676973e+00	2.950584e+01
2.150000e-06	1.438937e-06	4.759957e-10	9.991369e+00	3.065187e+01
2.160000e-06	1.484051e-06	4.884718e-10	1.030462e+01	3.178084e+01
2.170000e-06	1.529085e-06	5.033482e-10	1.061732e+01	3.289216e+01
2.180000e-06	1.574075e-06	5.196284e-10	1.092971e+01	3.398533e+01
2.190000e-06	1.618998e-06	5.373641e-10	1.124164e+01	3.505991e+01
2.200000e-06	1.663811e-06	5.528458e-10	1.155280e+01	3.611551e+01
2.210000e-06	1.708449e-06	5.646813e-10	1.186275e+01	3.715182e+01
2.220000e-06	1.752884e-06	5.746154e-10	1.217128e+01	3.816860e+01
2.230000e-06	1.797129e-06	5.850982e-10	1.247850e+01	3.916565e+01
2.240000e-06	1.841215e-06	5.985919e-10	1.278462e+01	4.014285e+01
2.250000e-06	1.885213e-06	6.146990e-10	1.309012e+01	4.110012e+01
2.260000e-06	1.929165e-06	6.317371e-10	1.339530e+01	4.203747e+01
2.270000e-06	1.973021e-06	6.458014e-10	1.369982e+01	4.295494e+01
2.280000e-06	2.016802e-06	6.557828e-10	1.400382e+01	4.385262e+01
2.290000e-06	2.060533e-06	6.636526e-10	1.430747e+01	4.473066e+01
2.300000e-06	2.104198e-06	6.714192e-10	1.461066e+01	4.558925e+01
2.310000e-06	2.147781e-06	6.808383e-10	1.491329e+01	4.642862e+01
2.320000e-06	2.191259e-06	6.940153e-10	1.521517e+01	4.724906e+01
2.330000e-06	2.234643e-06	7.101123e-10	1.551642e+01	4.805086e+01
2.340000e-06	2.277881e-06	7.253906e-10	1.581664e+01	4.883438e+01
2.350000e-06	2.320952e-06	7.371925e-10	1.611571e+01	4.959998e+01
2.360000e-06	2.363864e-06	7.460420e-10	1.641367e+01	5.034806e+01
2.370000e-06	2.406592e-06	7.522932e-10	1.671036e+01	5.107903e+01
2.380000e-06	2.449032e-06	7.593128e-10	1.700504e+01	5.179334e+01
2.390000e-06	2.491075e-06	7.683428e-10	1.729697e+01	5.249144e+01
2.400000e-06	2.532853e-06	7.789063e-10	1.758706e+01	5.317377e+01
2.410000e-06	2.574447e-06	7.908940e-10	1.787587e+01	5.384083e+01
2.420000e-06	2.615716e-06	8.023034e-10	1.816242e+01	5.449306e+01
2.430000e-06	2.656572e-06	8.121611e-10	1.844611e+01	5.513096e+01
2.440000e-06	2.697110e-06	8.202580e-10	1.872759e+01	5.575499e+01
2.450000e-06	2.737459e-06	8.269762e-10	1.900775e+01	5.636563e+01
2.460000e-06	2.777606e-06	8.330828e-10	1.928652e+01	5.696333e+01
2.470000e-06	2.817598e-06	8.399232e-10	1.956421e+01	5.754855e+01
2.480000e-06	2.857479e-06	8.474367e-10	1.984113e+01	5.812174e+01
2.490000e-06	2.897187e-06	8.549773e-10	2.011684e+01	5.868331e+01
2.500000e-06	2.936685e-06	8.636689e-10	2.039110e+01	5.923370e+01
2.510000e-06	2.976041e-06	8.713256e-10	2.066437e+01	5.977329e+01
2.520000e-06	3.015254e-06	8.783837e-10	2.093665e+01	6.030247e+01
2.530000e-06	3.054321e-06	8.875740e-10	2.120791e+01	6.082160e+01
2.540000e-06	3.093179e-06	8.990143e-10	2.147773e+01	6.133103e+01
2.550000e-06	3.131764e-06	9.073011e-10	2.174565e+01	6.183109e+01
2.560000e-06	3.170179e-06	9.110107e-10	2.201238e+01	6.232207e+01
2.570000e-06	3.208413e-06	9.151658e-10	2.227786e+01	6.280428e+01
2.580000e-06	3.246390e-06	9.209857e-10	2.254156e+01	6.327797e+01
2.590000e-06	3.284106e-06	9.269573e-10	2.280344e+01	6.374340e+01
2.600000e-06	3.321630e-06	9.326315e-10	2.306399e+01	6.420078e+01
2.610000e-06	3.358915e-06	9.391573e-10	2.332288e+01	6.465034e+01
2.620000e-06	3.395913e-06	9.478877e-10	2.357978e+01	6.509226e+01
2.630000e-06	3.432720e-06	9.559856e-10	2.383536e+01	6.552672e+01
2.640000e-06	3.469364e-06	9.635357e-10	2.408979e+01	6.595388e+01
2.650000e-06	3.505749e-06	9.730031e-10	2.434244e+01	6.637388e+01
2.660000e-06	3.541868e-06	9.796118e-10	2.459323e+01	6.678685e+01
2.670000e-06	3.577788e-06	9.830935e-10	2.484265e+01	6.719291e+01
2.680000e-06	3.613545e-06	9.857348e-10	2.509093e+01	6.759216e+01
2.690000e-06	3.649145e-06	9.884930e-10	2.533812e+01	6.798470e+01
2.700000e-06	3.684563e-06	9.928709e-10	2.558405e+01	6.837060e+01
2.710000e-06	3.719825e-06	9.986189e-10	2.582889e+01	6.874995e+01
2.720000e-06	3.754867e-06	1.006360e-09	2.607221e+01	6.912281e+01
2.730000e-06	3.789546e-06	1.014736e-09	2.631301e+01	6.948924e+01
2.740000e-06	3.823820e-06	1.021391e-09	2.655099e+01	6.984930e+01
2.750000e-06	3.857693e-06	1.025970e-09	2.678619e+01	7.020303e+01
2.760000e-06	3.891101e-06	1.028267e-09	2.701816e+01	7.055050e+01
2.770000e-06	3.923998e-06	1.029398e-09	2.724658e+01	7.089173e+01
2.780000e-06	3.956526e-06	1.031407e-09	2.747244e+01	7.122678e+01
2.790000e-06	3.988762e-06	1.035931e-09	2.769628e+01	7.155569e+01
2.800000e-06	4.020744e-06	1.041687e-09	2.791835e+01	7.187849e+01
2.810000e-06	4.052502e-06	1.047635e-09	2.813886e+01	7.219524e+01
2.820000e-06	4.084066e-06	1.054601e-09	2.835803e+01	7.250596e+01
2.830000e-06	4.115503e-06	1.061882e-09	2.857631e+01	7.281071e+01
2.840000e-06	4.146717e-06	1.066972e-09	2.879305e+01	7.310953e+01
2.850000e-06	4.177666e-06	1.070184e-09	2.900794e+01	7.340246e+01
2.860000e-06	4.208315e-06	1.071114e-09	2.922076e+01	7.368955e+01
2.870000e-06	4.238558e-06	1.070070e-09	2.943075e+01	7.397085e+01
2.880000e-06	4.268545e-06	1.069997e-09	2.963897e+01	7.424640e+01
2.890000e-06	4.298316e-06	1.073084e-09	2.984569e+01	7.451626e+01
2.900000e-06	4.327756e-06	1.078409e-09	3.005010e+01	7.478048e+01
2.910000e-06	4.356904e-06	1.084975e-09	3.025250e+01	7.503911e+01
