# Temperatura_=_-0.8
# Concentracion g/m^3_=_1620.0
# C_Vs_to_Am_M_A/Vsm_=_65563218390.804596
# pendiente_HvsI_1/m_=_3716.3
# ordenada_HvsI_A/m_=_1297.0
# frecuencia_Hz_=_135096.31798057753

Tiempo_(s)	Campo_(V.s)	Magnetizacion_(V.s)	Campo_(kA/m)	Magnetizacion_(A/m)
0.000000e+00	-5.529168e-06	-1.284653e-09	-3.838490e+01	-8.455095e+01
1.000000e-08	-5.529294e-06	-1.283226e-09	-3.838577e+01	-8.450811e+01
2.000000e-08	-5.529116e-06	-1.280902e-09	-3.838454e+01	-8.446210e+01
3.000000e-08	-5.528604e-06	-1.279615e-09	-3.838098e+01	-8.441289e+01
4.000000e-08	-5.527535e-06	-1.277038e-09	-3.837356e+01	-8.436044e+01
5.000000e-08	-5.525778e-06	-1.273861e-09	-3.836136e+01	-8.430472e+01
6.000000e-08	-5.523473e-06	-1.266871e-09	-3.834536e+01	-8.424570e+01
7.000000e-08	-5.520617e-06	-1.276079e-09	-3.832554e+01	-8.418332e+01
8.000000e-08	-5.517244e-06	-1.315196e-09	-3.830211e+01	-8.411758e+01
9.000000e-08	-5.513401e-06	-1.305414e-09	-3.827544e+01	-8.404841e+01
1.000000e-07	-5.509192e-06	-1.234065e-09	-3.824622e+01	-8.397581e+01
1.100000e-07	-5.504781e-06	-1.264297e-09	-3.821560e+01	-8.389973e+01
1.200000e-07	-5.500178e-06	-1.325357e-09	-3.818364e+01	-8.382015e+01
1.300000e-07	-5.495154e-06	-1.312668e-09	-3.814876e+01	-8.373706e+01
1.400000e-07	-5.489623e-06	-1.247568e-09	-3.811036e+01	-8.365044e+01
1.500000e-07	-5.483743e-06	-1.240045e-09	-3.806955e+01	-8.356029e+01
1.600000e-07	-5.477588e-06	-1.333088e-09	-3.802682e+01	-8.346660e+01
1.700000e-07	-5.470995e-06	-1.297980e-09	-3.798104e+01	-8.336938e+01
1.800000e-07	-5.464043e-06	-1.250915e-09	-3.793278e+01	-8.326864e+01
1.900000e-07	-5.456780e-06	-1.232010e-09	-3.788236e+01	-8.316440e+01
2.000000e-07	-5.449152e-06	-1.319271e-09	-3.782940e+01	-8.305669e+01
2.100000e-07	-5.441290e-06	-1.335826e-09	-3.777483e+01	-8.294555e+01
2.200000e-07	-5.433274e-06	-1.312047e-09	-3.771918e+01	-8.283102e+01
2.300000e-07	-5.424979e-06	-1.273594e-09	-3.766159e+01	-8.271315e+01
2.400000e-07	-5.416104e-06	-1.303466e-09	-3.759998e+01	-8.259199e+01
2.500000e-07	-5.406401e-06	-1.310207e-09	-3.753261e+01	-8.246760e+01
2.600000e-07	-5.395969e-06	-1.275156e-09	-3.746019e+01	-8.234006e+01
2.700000e-07	-5.384976e-06	-1.254025e-09	-3.738388e+01	-8.220944e+01
2.800000e-07	-5.373531e-06	-1.268789e-09	-3.730443e+01	-8.207582e+01
2.900000e-07	-5.361849e-06	-1.283782e-09	-3.722332e+01	-8.193927e+01
3.000000e-07	-5.349852e-06	-1.243340e-09	-3.714004e+01	-8.179988e+01
3.100000e-07	-5.337333e-06	-1.235525e-09	-3.705313e+01	-8.165773e+01
3.200000e-07	-5.324354e-06	-1.249083e-09	-3.696302e+01	-8.151292e+01
3.300000e-07	-5.311062e-06	-1.275158e-09	-3.687075e+01	-8.136554e+01
3.400000e-07	-5.297430e-06	-1.218160e-09	-3.677611e+01	-8.121566e+01
3.500000e-07	-5.283275e-06	-1.226218e-09	-3.667784e+01	-8.106337e+01
3.600000e-07	-5.268626e-06	-1.254778e-09	-3.657615e+01	-8.090875e+01
3.700000e-07	-5.253600e-06	-1.243913e-09	-3.647183e+01	-8.075189e+01
3.800000e-07	-5.237944e-06	-1.180238e-09	-3.636314e+01	-8.059286e+01
3.900000e-07	-5.221708e-06	-1.235216e-09	-3.625043e+01	-8.043173e+01
4.000000e-07	-5.205070e-06	-1.251306e-09	-3.613493e+01	-8.026856e+01
4.100000e-07	-5.188109e-06	-1.191785e-09	-3.601718e+01	-8.010341e+01
4.200000e-07	-5.170921e-06	-1.195237e-09	-3.589785e+01	-7.993633e+01
4.300000e-07	-5.153414e-06	-1.280535e-09	-3.577631e+01	-7.976737e+01
4.400000e-07	-5.135513e-06	-1.217443e-09	-3.565204e+01	-7.959657e+01
4.500000e-07	-5.117186e-06	-1.156252e-09	-3.552481e+01	-7.942394e+01
4.600000e-07	-5.098491e-06	-1.232160e-09	-3.539503e+01	-7.924951e+01
4.700000e-07	-5.079474e-06	-1.243588e-09	-3.526300e+01	-7.907329e+01
4.800000e-07	-5.060128e-06	-1.151515e-09	-3.512870e+01	-7.889529e+01
4.900000e-07	-5.040506e-06	-1.197896e-09	-3.499248e+01	-7.871550e+01
5.000000e-07	-5.020637e-06	-1.252587e-09	-3.485454e+01	-7.853390e+01
5.100000e-07	-5.000506e-06	-1.164372e-09	-3.471479e+01	-7.835049e+01
5.200000e-07	-4.980086e-06	-1.161868e-09	-3.457303e+01	-7.816521e+01
5.300000e-07	-4.959340e-06	-1.249139e-09	-3.442900e+01	-7.797806e+01
5.400000e-07	-4.938247e-06	-1.187121e-09	-3.428257e+01	-7.778898e+01
5.500000e-07	-4.916777e-06	-1.122867e-09	-3.413352e+01	-7.759792e+01
5.600000e-07	-4.894968e-06	-1.209431e-09	-3.398212e+01	-7.740483e+01
5.700000e-07	-4.872907e-06	-1.205079e-09	-3.382896e+01	-7.720967e+01
5.800000e-07	-4.850551e-06	-1.128222e-09	-3.367376e+01	-7.701237e+01
5.900000e-07	-4.827777e-06	-1.174257e-09	-3.351566e+01	-7.681286e+01
6.000000e-07	-4.804617e-06	-1.217244e-09	-3.335488e+01	-7.661108e+01
6.100000e-07	-4.781158e-06	-1.144932e-09	-3.319202e+01	-7.640697e+01
6.200000e-07	-4.757474e-06	-1.158222e-09	-3.302760e+01	-7.620047e+01
6.300000e-07	-4.733619e-06	-1.201496e-09	-3.286199e+01	-7.599149e+01
6.400000e-07	-4.709511e-06	-1.154270e-09	-3.269463e+01	-7.577999e+01
6.500000e-07	-4.685011e-06	-1.129796e-09	-3.252454e+01	-7.556590e+01
6.600000e-07	-4.659984e-06	-1.178573e-09	-3.235080e+01	-7.534916e+01
6.700000e-07	-4.634430e-06	-1.151251e-09	-3.217340e+01	-7.512971e+01
6.800000e-07	-4.608362e-06	-1.123183e-09	-3.199242e+01	-7.490750e+01
6.900000e-07	-4.581740e-06	-1.154002e-09	-3.180761e+01	-7.468247e+01
7.000000e-07	-4.554735e-06	-1.153442e-09	-3.162013e+01	-7.445459e+01
7.100000e-07	-4.527405e-06	-1.114222e-09	-3.143040e+01	-7.422381e+01
7.200000e-07	-4.499750e-06	-1.134726e-09	-3.123841e+01	-7.399009e+01
7.300000e-07	-4.471892e-06	-1.141817e-09	-3.104502e+01	-7.375340e+01
7.400000e-07	-4.443839e-06	-1.113711e-09	-3.085026e+01	-7.351372e+01
7.500000e-07	-4.415609e-06	-1.114994e-09	-3.065428e+01	-7.327102e+01
7.600000e-07	-4.387165e-06	-1.131992e-09	-3.045682e+01	-7.302528e+01
7.700000e-07	-4.358314e-06	-1.108041e-09	-3.025653e+01	-7.277649e+01
7.800000e-07	-4.328996e-06	-1.101257e-09	-3.005300e+01	-7.252464e+01
7.900000e-07	-4.299418e-06	-1.114387e-09	-2.984766e+01	-7.226972e+01
8.000000e-07	-4.269692e-06	-1.094124e-09	-2.964129e+01	-7.201172e+01
8.100000e-07	-4.239689e-06	-1.071505e-09	-2.943301e+01	-7.175064e+01
8.200000e-07	-4.209320e-06	-1.082541e-09	-2.922217e+01	-7.148648e+01
8.300000e-07	-4.178651e-06	-1.081433e-09	-2.900926e+01	-7.121923e+01
8.400000e-07	-4.147761e-06	-1.063386e-09	-2.879482e+01	-7.094890e+01
8.500000e-07	-4.116639e-06	-1.072674e-09	-2.857876e+01	-7.067548e+01
8.600000e-07	-4.085278e-06	-1.075809e-09	-2.836104e+01	-7.039897e+01
8.700000e-07	-4.053708e-06	-1.056187e-09	-2.814188e+01	-7.011936e+01
8.800000e-07	-4.021953e-06	-1.050002e-09	-2.792143e+01	-6.983664e+01
8.900000e-07	-3.990014e-06	-1.055183e-09	-2.769969e+01	-6.955080e+01
9.000000e-07	-3.957826e-06	-1.034068e-09	-2.747624e+01	-6.926182e+01
9.100000e-07	-3.925273e-06	-1.026701e-09	-2.725024e+01	-6.896967e+01
9.200000e-07	-3.892286e-06	-1.036762e-09	-2.702124e+01	-6.867434e+01
9.300000e-07	-3.859006e-06	-1.032745e-09	-2.679021e+01	-6.837578e+01
9.400000e-07	-3.825262e-06	-1.017115e-09	-2.655595e+01	-6.807396e+01
9.500000e-07	-3.790983e-06	-1.024707e-09	-2.631797e+01	-6.776882e+01
9.600000e-07	-3.756329e-06	-1.019862e-09	-2.607740e+01	-6.746032e+01
9.700000e-07	-3.721268e-06	-1.000446e-09	-2.583399e+01	-6.714839e+01
9.800000e-07	-3.685910e-06	-9.950316e-10	-2.558853e+01	-6.683296e+01
9.900000e-07	-3.650358e-06	-9.998260e-10	-2.534172e+01	-6.651396e+01
1.000000e-06	-3.614686e-06	-9.874922e-10	-2.509407e+01	-6.619130e+01
1.010000e-06	-3.578879e-06	-9.848019e-10	-2.484549e+01	-6.586490e+01
1.020000e-06	-3.542939e-06	-9.905127e-10	-2.459599e+01	-6.553466e+01
1.030000e-06	-3.506785e-06	-9.833683e-10	-2.434500e+01	-6.520048e+01
1.040000e-06	-3.470375e-06	-9.723734e-10	-2.409223e+01	-6.486226e+01
1.050000e-06	-3.433712e-06	-9.733560e-10	-2.383770e+01	-6.451989e+01
1.060000e-06	-3.396788e-06	-9.633030e-10	-2.358137e+01	-6.417325e+01
1.070000e-06	-3.359602e-06	-9.446020e-10	-2.332322e+01	-6.382223e+01
1.080000e-06	-3.322109e-06	-9.386880e-10	-2.306293e+01	-6.346670e+01
1.090000e-06	-3.284384e-06	-9.391282e-10	-2.280103e+01	-6.310655e+01
1.100000e-06	-3.246478e-06	-9.310682e-10	-2.253788e+01	-6.274167e+01
1.110000e-06	-3.208352e-06	-9.250506e-10	-2.227320e+01	-6.237192e+01
1.120000e-06	-3.169986e-06	-9.254927e-10	-2.200685e+01	-6.199719e+01
1.130000e-06	-3.131401e-06	-9.158542e-10	-2.173898e+01	-6.161738e+01
1.140000e-06	-3.092593e-06	-9.037781e-10	-2.146957e+01	-6.123235e+01
1.150000e-06	-3.053554e-06	-8.961676e-10	-2.119855e+01	-6.084201e+01
1.160000e-06	-3.014383e-06	-8.872168e-10	-2.092662e+01	-6.044624e+01
1.170000e-06	-2.975114e-06	-8.752842e-10	-2.065400e+01	-6.004496e+01
1.180000e-06	-2.935629e-06	-8.704134e-10	-2.037989e+01	-5.963806e+01
1.190000e-06	-2.896001e-06	-8.646816e-10	-2.010478e+01	-5.922545e+01
1.200000e-06	-2.856290e-06	-8.579093e-10	-1.982910e+01	-5.880706e+01
1.210000e-06	-2.816367e-06	-8.522720e-10	-1.955194e+01	-5.838281e+01
1.220000e-06	-2.776304e-06	-8.476333e-10	-1.927381e+01	-5.795262e+01
1.230000e-06	-2.736077e-06	-8.346053e-10	-1.899455e+01	-5.751642e+01
1.240000e-06	-2.695660e-06	-8.250911e-10	-1.871396e+01	-5.707417e+01
1.250000e-06	-2.654935e-06	-8.198770e-10	-1.843124e+01	-5.662581e+01
1.260000e-06	-2.613926e-06	-8.149334e-10	-1.814654e+01	-5.617127e+01
1.270000e-06	-2.572680e-06	-8.071684e-10	-1.786020e+01	-5.571053e+01
1.280000e-06	-2.531077e-06	-8.004531e-10	-1.757138e+01	-5.524353e+01
1.290000e-06	-2.489171e-06	-7.938426e-10	-1.728046e+01	-5.477022e+01
1.300000e-06	-2.447000e-06	-7.849301e-10	-1.698770e+01	-5.429058e+01
1.310000e-06	-2.404622e-06	-7.738051e-10	-1.669350e+01	-5.380454e+01
1.320000e-06	-2.361965e-06	-7.652306e-10	-1.639736e+01	-5.331206e+01
1.330000e-06	-2.319043e-06	-7.579142e-10	-1.609939e+01	-5.281310e+01
1.340000e-06	-2.275870e-06	-7.522817e-10	-1.579967e+01	-5.230759e+01
1.350000e-06	-2.232450e-06	-7.470747e-10	-1.549824e+01	-5.179546e+01
1.360000e-06	-2.188896e-06	-7.398367e-10	-1.519588e+01	-5.127665e+01
1.370000e-06	-2.145271e-06	-7.307222e-10	-1.489302e+01	-5.075106e+01
1.380000e-06	-2.101609e-06	-7.209834e-10	-1.458991e+01	-5.021859e+01
1.390000e-06	-2.057898e-06	-7.118015e-10	-1.428646e+01	-4.967913e+01
1.400000e-06	-2.014110e-06	-7.024449e-10	-1.398247e+01	-4.913255e+01
1.410000e-06	-1.970229e-06	-6.938111e-10	-1.367783e+01	-4.857869e+01
1.420000e-06	-1.926221e-06	-6.867652e-10	-1.337232e+01	-4.801740e+01
1.430000e-06	-1.882168e-06	-6.808776e-10	-1.306649e+01	-4.744847e+01
1.440000e-06	-1.837980e-06	-6.735046e-10	-1.275973e+01	-4.687170e+01
1.450000e-06	-1.793655e-06	-6.656841e-10	-1.245201e+01	-4.628684e+01
1.460000e-06	-1.749281e-06	-6.569495e-10	-1.214396e+01	-4.569365e+01
1.470000e-06	-1.704781e-06	-6.461714e-10	-1.183502e+01	-4.509183e+01
1.480000e-06	-1.659990e-06	-6.325270e-10	-1.152408e+01	-4.448108e+01
1.490000e-06	-1.614993e-06	-6.212067e-10	-1.121169e+01	-4.386106e+01
1.500000e-06	-1.569963e-06	-6.148326e-10	-1.089908e+01	-4.323141e+01
1.510000e-06	-1.524852e-06	-6.083545e-10	-1.058591e+01	-4.259176e+01
1.520000e-06	-1.479608e-06	-5.975837e-10	-1.027182e+01	-4.194168e+01
1.530000e-06	-1.434230e-06	-5.863241e-10	-9.956789e+00	-4.128075e+01
1.540000e-06	-1.388729e-06	-5.727185e-10	-9.640914e+00	-4.060853e+01
1.550000e-06	-1.343125e-06	-5.573868e-10	-9.324316e+00	-3.992454e+01
1.560000e-06	-1.297456e-06	-5.430773e-10	-9.007272e+00	-3.922830e+01
1.570000e-06	-1.251714e-06	-5.324624e-10	-8.689715e+00	-3.851930e+01
1.580000e-06	-1.205897e-06	-5.220026e-10	-8.371643e+00	-3.779703e+01
1.590000e-06	-1.160049e-06	-5.118413e-10	-8.053357e+00	-3.706096e+01
1.600000e-06	-1.114216e-06	-5.030995e-10	-7.735171e+00	-3.631058e+01
1.610000e-06	-1.068249e-06	-4.930386e-10	-7.416059e+00	-3.554533e+01
1.620000e-06	-1.022153e-06	-4.790279e-10	-7.096050e+00	-3.476471e+01
1.630000e-06	-9.759799e-07	-4.643521e-10	-6.775502e+00	-3.396817e+01
1.640000e-06	-9.297252e-07	-4.513879e-10	-6.454390e+00	-3.315521e+01
1.650000e-06	-8.834555e-07	-4.384817e-10	-6.133174e+00	-3.232533e+01
1.660000e-06	-8.370910e-07	-4.250449e-10	-5.811299e+00	-3.147803e+01
1.670000e-06	-7.906131e-07	-4.114205e-10	-5.488638e+00	-3.061285e+01
1.680000e-06	-7.441784e-07	-3.972652e-10	-5.166276e+00	-2.972936e+01
1.690000e-06	-6.977243e-07	-3.823392e-10	-4.843781e+00	-2.882716e+01
1.700000e-06	-6.511915e-07	-3.675173e-10	-4.520738e+00	-2.790588e+01
1.710000e-06	-6.045937e-07	-3.539661e-10	-4.197244e+00	-2.696518e+01
1.720000e-06	-5.578855e-07	-3.401017e-10	-3.872983e+00	-2.600479e+01
1.730000e-06	-5.110697e-07	-3.252415e-10	-3.547977e+00	-2.502446e+01
1.740000e-06	-4.642634e-07	-3.100380e-10	-3.223035e+00	-2.402402e+01
1.750000e-06	-4.175387e-07	-2.930069e-10	-2.898660e+00	-2.300334e+01
1.760000e-06	-3.707572e-07	-2.766834e-10	-2.573891e+00	-2.196235e+01
1.770000e-06	-3.239794e-07	-2.604339e-10	-2.249148e+00	-2.090104e+01
1.780000e-06	-2.771489e-07	-2.438540e-10	-1.924038e+00	-1.981948e+01
1.790000e-06	-2.301930e-07	-2.281593e-10	-1.598059e+00	-1.871779e+01
1.800000e-06	-1.833312e-07	-2.115926e-10	-1.272732e+00	-1.759618e+01
1.810000e-06	-1.365336e-07	-1.934893e-10	-9.478511e-01	-1.645491e+01
1.820000e-06	-8.966638e-08	-1.746990e-10	-6.224869e-01	-1.529432e+01
1.830000e-06	-4.277173e-08	-1.559070e-10	-2.969323e-01	-1.411484e+01
1.840000e-06	4.155454e-09	-1.382032e-10	2.884823e-02	-1.291695e+01
1.850000e-06	5.103124e-08	-1.217419e-10	3.542719e-01	-1.170120e+01
1.860000e-06	9.790008e-08	-1.050175e-10	6.796473e-01	-1.046825e+01
1.870000e-06	1.448713e-07	-8.506389e-11	1.005734e+00	-9.218791e+00
1.880000e-06	1.917524e-07	-6.528798e-11	1.331194e+00	-7.953601e+00
1.890000e-06	2.385343e-07	-4.741131e-11	1.655966e+00	-6.673524e+00
1.900000e-06	2.853504e-07	-3.079651e-11	1.980975e+00	-5.379467e+00
1.910000e-06	3.321496e-07	-1.348570e-11	2.305867e+00	-4.072398e+00
1.920000e-06	3.789358e-07	4.737058e-12	2.630669e+00	-2.753345e+00
1.930000e-06	4.257338e-07	2.339792e-11	2.955553e+00	-1.423386e+00
1.940000e-06	4.725376e-07	4.247895e-11	3.280476e+00	-8.365009e-02
1.950000e-06	5.192781e-07	6.116148e-11	3.604961e+00	1.264688e+00
1.960000e-06	5.659027e-07	7.887976e-11	3.928641e+00	2.620417e+00
1.970000e-06	6.124221e-07	9.707104e-11	4.251590e+00	3.982290e+00
1.980000e-06	6.588859e-07	1.150253e-10	4.574154e+00	5.349033e+00
1.990000e-06	7.053365e-07	1.315482e-10	4.896626e+00	6.719349e+00
2.000000e-06	7.518041e-07	1.499447e-10	5.219216e+00	8.091925e+00
2.010000e-06	7.982345e-07	1.682407e-10	5.541547e+00	9.465437e+00
2.020000e-06	8.445059e-07	1.869337e-10	5.862776e+00	1.083856e+01
2.030000e-06	8.907355e-07	2.081826e-10	6.183714e+00	1.220997e+01
2.040000e-06	9.369085e-07	2.294270e-10	6.504258e+00	1.357835e+01
2.050000e-06	9.829950e-07	2.489681e-10	6.824202e+00	1.494239e+01
2.060000e-06	1.029083e-06	2.672186e-10	7.144158e+00	1.630083e+01
2.070000e-06	1.075159e-06	2.844282e-10	7.464026e+00	1.765239e+01
2.080000e-06	1.121160e-06	3.007913e-10	7.783382e+00	1.899587e+01
2.090000e-06	1.167087e-06	3.188288e-10	8.102214e+00	2.033008e+01
2.100000e-06	1.212830e-06	3.386626e-10	8.419777e+00	2.165387e+01
2.110000e-06	1.258410e-06	3.581594e-10	8.736202e+00	2.296616e+01
2.120000e-06	1.303986e-06	3.757983e-10	9.052605e+00	2.426590e+01
2.130000e-06	1.349468e-06	3.920344e-10	9.368352e+00	2.555209e+01
2.140000e-06	1.394752e-06	4.062447e-10	9.682727e+00	2.682383e+01
2.150000e-06	1.439918e-06	4.199571e-10	9.996281e+00	2.808024e+01
2.160000e-06	1.485079e-06	4.357365e-10	1.030980e+01	2.932052e+01
2.170000e-06	1.530195e-06	4.524550e-10	1.062300e+01	3.054394e+01
2.180000e-06	1.575151e-06	4.712489e-10	1.093510e+01	3.174983e+01
2.190000e-06	1.619933e-06	4.902490e-10	1.124599e+01	3.293761e+01
2.200000e-06	1.664556e-06	5.066875e-10	1.155577e+01	3.410675e+01
2.210000e-06	1.709061e-06	5.191107e-10	1.186474e+01	3.525680e+01
2.220000e-06	1.753538e-06	5.280489e-10	1.217351e+01	3.638737e+01
2.230000e-06	1.797860e-06	5.381119e-10	1.248120e+01	3.749817e+01
2.240000e-06	1.842015e-06	5.519762e-10	1.278774e+01	3.858893e+01
2.250000e-06	1.886133e-06	5.692108e-10	1.309402e+01	3.965950e+01
2.260000e-06	1.930189e-06	5.873111e-10	1.339986e+01	4.070975e+01
2.270000e-06	1.974148e-06	6.037489e-10	1.370504e+01	4.173965e+01
2.280000e-06	2.018073e-06	6.184485e-10	1.400998e+01	4.274919e+01
2.290000e-06	2.061937e-06	6.319416e-10	1.431449e+01	4.373846e+01
2.300000e-06	2.105619e-06	6.439958e-10	1.461774e+01	4.470756e+01
2.310000e-06	2.149192e-06	6.570454e-10	1.492024e+01	4.565666e+01
2.320000e-06	2.192738e-06	6.726407e-10	1.522255e+01	4.658598e+01
2.330000e-06	2.236159e-06	6.891121e-10	1.552399e+01	4.749578e+01
2.340000e-06	2.279428e-06	7.053199e-10	1.582437e+01	4.838634e+01
2.350000e-06	2.322553e-06	7.189852e-10	1.612375e+01	4.925799e+01
2.360000e-06	2.365428e-06	7.301823e-10	1.642141e+01	5.011107e+01
2.370000e-06	2.407982e-06	7.400945e-10	1.671682e+01	5.094597e+01
2.380000e-06	2.450215e-06	7.519202e-10	1.701002e+01	5.176307e+01
2.390000e-06	2.492125e-06	7.652472e-10	1.730097e+01	5.256277e+01
2.400000e-06	2.533699e-06	7.788659e-10	1.758959e+01	5.334551e+01
2.410000e-06	2.574952e-06	7.923885e-10	1.787598e+01	5.411169e+01
2.420000e-06	2.615924e-06	8.044694e-10	1.816041e+01	5.486176e+01
2.430000e-06	2.656698e-06	8.133980e-10	1.844348e+01	5.559612e+01
2.440000e-06	2.697212e-06	8.207463e-10	1.872474e+01	5.631520e+01
2.450000e-06	2.737502e-06	8.292055e-10	1.900444e+01	5.701941e+01
2.460000e-06	2.777721e-06	8.402822e-10	1.928365e+01	5.770916e+01
2.470000e-06	2.817756e-06	8.525546e-10	1.956158e+01	5.838482e+01
2.480000e-06	2.857582e-06	8.629613e-10	1.983806e+01	5.904677e+01
2.490000e-06	2.897335e-06	8.729676e-10	2.011404e+01	5.969537e+01
2.500000e-06	2.936961e-06	8.829894e-10	2.038913e+01	6.033094e+01
2.510000e-06	2.976443e-06	8.928243e-10	2.066322e+01	6.095381e+01
2.520000e-06	3.015729e-06	9.022735e-10	2.093596e+01	6.156426e+01
2.530000e-06	3.054821e-06	9.121169e-10	2.120735e+01	6.216256e+01
2.540000e-06	3.093686e-06	9.207287e-10	2.147716e+01	6.274896e+01
2.550000e-06	3.132244e-06	9.267370e-10	2.174483e+01	6.332369e+01
2.560000e-06	3.170668e-06	9.318298e-10	2.201159e+01	6.388695e+01
2.570000e-06	3.208962e-06	9.385511e-10	2.227743e+01	6.443893e+01
2.580000e-06	3.247008e-06	9.476965e-10	2.254156e+01	6.497979e+01
2.590000e-06	3.284844e-06	9.573501e-10	2.280423e+01	6.550967e+01
2.600000e-06	3.322430e-06	9.657893e-10	2.306516e+01	6.602869e+01
2.610000e-06	3.359747e-06	9.718831e-10	2.332422e+01	6.653698e+01
2.620000e-06	3.396909e-06	9.760058e-10	2.358221e+01	6.703463e+01
2.630000e-06	3.433869e-06	9.803128e-10	2.383879e+01	6.752172e+01
2.640000e-06	3.470512e-06	9.843659e-10	2.409318e+01	6.799833e+01
2.650000e-06	3.506823e-06	9.915480e-10	2.434526e+01	6.846452e+01
2.660000e-06	3.542859e-06	1.001191e-09	2.459543e+01	6.892037e+01
2.670000e-06	3.578759e-06	1.009130e-09	2.484466e+01	6.936592e+01
2.680000e-06	3.614585e-06	1.014955e-09	2.509337e+01	6.980123e+01
2.690000e-06	3.650290e-06	1.018479e-09	2.534124e+01	7.022637e+01
2.700000e-06	3.685842e-06	1.020447e-09	2.558806e+01	7.064139e+01
2.710000e-06	3.721099e-06	1.023883e-09	2.583282e+01	7.104635e+01
2.720000e-06	3.755984e-06	1.030024e-09	2.607500e+01	7.144134e+01
2.730000e-06	3.790582e-06	1.036542e-09	2.631519e+01	7.182643e+01
2.740000e-06	3.824875e-06	1.042365e-09	2.655326e+01	7.220172e+01
2.750000e-06	3.858755e-06	1.048138e-09	2.678847e+01	7.256730e+01
2.760000e-06	3.892116e-06	1.052951e-09	2.702006e+01	7.292329e+01
2.770000e-06	3.925022e-06	1.056009e-09	2.724850e+01	7.326982e+01
2.780000e-06	3.957615e-06	1.059075e-09	2.747477e+01	7.360704e+01
2.790000e-06	3.989899e-06	1.063411e-09	2.769890e+01	7.393509e+01
2.800000e-06	4.021906e-06	1.068346e-09	2.792110e+01	7.425416e+01
2.810000e-06	4.053686e-06	1.073246e-09	2.814172e+01	7.456442e+01
2.820000e-06	4.085317e-06	1.077499e-09	2.836131e+01	7.486609e+01
2.830000e-06	4.116777e-06	1.080876e-09	2.857972e+01	7.515937e+01
2.840000e-06	4.148012e-06	1.084481e-09	2.879656e+01	7.544450e+01
2.850000e-06	4.178970e-06	1.086860e-09	2.901148e+01	7.572173e+01
2.860000e-06	4.209527e-06	1.088444e-09	2.922361e+01	7.599129e+01
2.870000e-06	4.239734e-06	1.091357e-09	2.943332e+01	7.625347e+01
2.880000e-06	4.269686e-06	1.096230e-09	2.964125e+01	7.650852e+01
2.890000e-06	4.299330e-06	1.101457e-09	2.984705e+01	7.675675e+01
2.900000e-06	4.328661e-06	1.104794e-09	3.005067e+01	7.699842e+01
