# Temperatura_=_-0.4
# Concentracion g/m^3_=_1620.0
# C_Vs_to_Am_M_A/Vsm_=_65563218390.804596
# pendiente_HvsI_1/m_=_3716.3
# ordenada_HvsI_A/m_=_1297.0
# frecuencia_Hz_=_135095.33358136052

Tiempo_(s)	Campo_(V.s)	Magnetizacion_(V.s)	Campo_(kA/m)	Magnetizacion_(A/m)
0.000000e+00	-5.514026e-06	-1.431113e-09	-3.837380e+01	-9.190726e+01
1.000000e-08	-5.514189e-06	-1.427539e-09	-3.837493e+01	-9.186319e+01
2.000000e-08	-5.514085e-06	-1.423331e-09	-3.837422e+01	-9.181662e+01
3.000000e-08	-5.513602e-06	-1.422042e-09	-3.837085e+01	-9.176751e+01
4.000000e-08	-5.512527e-06	-1.423914e-09	-3.836337e+01	-9.171582e+01
5.000000e-08	-5.510875e-06	-1.427517e-09	-3.835187e+01	-9.166151e+01
6.000000e-08	-5.508812e-06	-1.432146e-09	-3.833752e+01	-9.160455e+01
7.000000e-08	-5.506115e-06	-1.420011e-09	-3.831875e+01	-9.154490e+01
8.000000e-08	-5.502786e-06	-1.391580e-09	-3.829558e+01	-9.148254e+01
9.000000e-08	-5.499120e-06	-1.446839e-09	-3.827007e+01	-9.141745e+01
1.000000e-07	-5.495058e-06	-1.513077e-09	-3.824180e+01	-9.134961e+01
1.100000e-07	-5.490549e-06	-1.470155e-09	-3.821042e+01	-9.127901e+01
1.200000e-07	-5.485910e-06	-1.333108e-09	-3.817813e+01	-9.120565e+01
1.300000e-07	-5.481148e-06	-1.375768e-09	-3.814500e+01	-9.112952e+01
1.400000e-07	-5.475900e-06	-1.470842e-09	-3.810847e+01	-9.105064e+01
1.500000e-07	-5.470086e-06	-1.466890e-09	-3.806801e+01	-9.096903e+01
1.600000e-07	-5.463928e-06	-1.334203e-09	-3.802515e+01	-9.088469e+01
1.700000e-07	-5.457495e-06	-1.393398e-09	-3.798039e+01	-9.079767e+01
1.800000e-07	-5.450655e-06	-1.484744e-09	-3.793279e+01	-9.070800e+01
1.900000e-07	-5.443390e-06	-1.468021e-09	-3.788222e+01	-9.061570e+01
2.000000e-07	-5.435871e-06	-1.345732e-09	-3.782990e+01	-9.052084e+01
2.100000e-07	-5.428154e-06	-1.362631e-09	-3.777619e+01	-9.042345e+01
2.200000e-07	-5.420135e-06	-1.434020e-09	-3.772038e+01	-9.032358e+01
2.300000e-07	-5.411776e-06	-1.418184e-09	-3.766221e+01	-9.022129e+01
2.400000e-07	-5.402996e-06	-1.371179e-09	-3.760111e+01	-9.011663e+01
2.500000e-07	-5.393602e-06	-1.339355e-09	-3.753573e+01	-9.000965e+01
2.600000e-07	-5.383319e-06	-1.371468e-09	-3.746417e+01	-8.990042e+01
2.700000e-07	-5.372421e-06	-1.350683e-09	-3.738833e+01	-8.978897e+01
2.800000e-07	-5.361231e-06	-1.337535e-09	-3.731046e+01	-8.967537e+01
2.900000e-07	-5.349575e-06	-1.314741e-09	-3.722933e+01	-8.955966e+01
3.000000e-07	-5.337564e-06	-1.353879e-09	-3.714575e+01	-8.944187e+01
3.100000e-07	-5.325237e-06	-1.336940e-09	-3.705996e+01	-8.932206e+01
3.200000e-07	-5.312438e-06	-1.332244e-09	-3.697089e+01	-8.920024e+01
3.300000e-07	-5.299187e-06	-1.288437e-09	-3.687867e+01	-8.907644e+01
3.400000e-07	-5.285634e-06	-1.336338e-09	-3.678435e+01	-8.895069e+01
3.500000e-07	-5.271756e-06	-1.316709e-09	-3.668777e+01	-8.882298e+01
3.600000e-07	-5.257174e-06	-1.295583e-09	-3.658629e+01	-8.869332e+01
3.700000e-07	-5.242087e-06	-1.291401e-09	-3.648130e+01	-8.856169e+01
3.800000e-07	-5.226834e-06	-1.347580e-09	-3.637514e+01	-8.842808e+01
3.900000e-07	-5.210857e-06	-1.295305e-09	-3.626396e+01	-8.829247e+01
4.000000e-07	-5.194213e-06	-1.276681e-09	-3.614812e+01	-8.815480e+01
4.100000e-07	-5.177496e-06	-1.341856e-09	-3.603179e+01	-8.801503e+01
4.200000e-07	-5.160573e-06	-1.335230e-09	-3.591401e+01	-8.787311e+01
4.300000e-07	-5.143177e-06	-1.246249e-09	-3.579295e+01	-8.772896e+01
4.400000e-07	-5.125490e-06	-1.290282e-09	-3.566986e+01	-8.758252e+01
4.500000e-07	-5.107589e-06	-1.353885e-09	-3.554529e+01	-8.743369e+01
4.600000e-07	-5.089139e-06	-1.264435e-09	-3.541689e+01	-8.728239e+01
4.700000e-07	-5.070116e-06	-1.239456e-09	-3.528449e+01	-8.712853e+01
4.800000e-07	-5.050831e-06	-1.329793e-09	-3.515029e+01	-8.697198e+01
4.900000e-07	-5.031350e-06	-1.304791e-09	-3.501471e+01	-8.681266e+01
5.000000e-07	-5.011622e-06	-1.229373e-09	-3.487742e+01	-8.665045e+01
5.100000e-07	-4.991685e-06	-1.301317e-09	-3.473867e+01	-8.648522e+01
5.200000e-07	-4.971434e-06	-1.304408e-09	-3.459774e+01	-8.631687e+01
5.300000e-07	-4.950757e-06	-1.220806e-09	-3.445384e+01	-8.614528e+01
5.400000e-07	-4.929669e-06	-1.257177e-09	-3.430708e+01	-8.597034e+01
5.500000e-07	-4.908288e-06	-1.323394e-09	-3.415828e+01	-8.579192e+01
5.600000e-07	-4.886588e-06	-1.233573e-09	-3.400727e+01	-8.560992e+01
5.700000e-07	-4.864602e-06	-1.226314e-09	-3.385426e+01	-8.542422e+01
5.800000e-07	-4.842325e-06	-1.296773e-09	-3.369923e+01	-8.523474e+01
5.900000e-07	-4.819667e-06	-1.264563e-09	-3.354154e+01	-8.504137e+01
6.000000e-07	-4.796697e-06	-1.209578e-09	-3.338169e+01	-8.484401e+01
6.100000e-07	-4.773442e-06	-1.272972e-09	-3.321985e+01	-8.464260e+01
6.200000e-07	-4.749927e-06	-1.266625e-09	-3.305620e+01	-8.443706e+01
6.300000e-07	-4.726167e-06	-1.219846e-09	-3.289085e+01	-8.422732e+01
6.400000e-07	-4.702132e-06	-1.243216e-09	-3.272358e+01	-8.401332e+01
6.500000e-07	-4.677770e-06	-1.264295e-09	-3.255404e+01	-8.379503e+01
6.600000e-07	-4.652962e-06	-1.215595e-09	-3.238140e+01	-8.357241e+01
6.700000e-07	-4.627549e-06	-1.223900e-09	-3.220453e+01	-8.334544e+01
6.800000e-07	-4.601520e-06	-1.243921e-09	-3.202339e+01	-8.311409e+01
6.900000e-07	-4.574962e-06	-1.221742e-09	-3.183857e+01	-8.287838e+01
7.000000e-07	-4.547932e-06	-1.214314e-09	-3.165046e+01	-8.263829e+01
7.100000e-07	-4.520561e-06	-1.237723e-09	-3.145997e+01	-8.239384e+01
7.200000e-07	-4.493005e-06	-1.219560e-09	-3.126820e+01	-8.214506e+01
7.300000e-07	-4.465312e-06	-1.202952e-09	-3.107548e+01	-8.189198e+01
7.400000e-07	-4.437432e-06	-1.211082e-09	-3.088146e+01	-8.163463e+01
7.500000e-07	-4.409339e-06	-1.204374e-09	-3.068594e+01	-8.137305e+01
7.600000e-07	-4.381021e-06	-1.192758e-09	-3.048887e+01	-8.110729e+01
7.700000e-07	-4.352339e-06	-1.197798e-09	-3.028926e+01	-8.083740e+01
7.800000e-07	-4.323269e-06	-1.196813e-09	-3.008696e+01	-8.056344e+01
7.900000e-07	-4.293919e-06	-1.182614e-09	-2.988270e+01	-8.028545e+01
8.000000e-07	-4.264317e-06	-1.186312e-09	-2.967669e+01	-8.000349e+01
8.100000e-07	-4.234427e-06	-1.180655e-09	-2.946868e+01	-7.971762e+01
8.200000e-07	-4.204177e-06	-1.161010e-09	-2.925816e+01	-7.942788e+01
8.300000e-07	-4.173590e-06	-1.152214e-09	-2.904530e+01	-7.913432e+01
8.400000e-07	-4.142812e-06	-1.161019e-09	-2.883110e+01	-7.883699e+01
8.500000e-07	-4.111834e-06	-1.149158e-09	-2.861551e+01	-7.853591e+01
8.600000e-07	-4.080618e-06	-1.144203e-09	-2.839828e+01	-7.823112e+01
8.700000e-07	-4.049143e-06	-1.145786e-09	-2.817923e+01	-7.792263e+01
8.800000e-07	-4.017488e-06	-1.142160e-09	-2.795893e+01	-7.761046e+01
8.900000e-07	-3.985737e-06	-1.122035e-09	-2.773797e+01	-7.729461e+01
9.000000e-07	-3.953718e-06	-1.121674e-09	-2.751514e+01	-7.697507e+01
9.100000e-07	-3.921409e-06	-1.116134e-09	-2.729029e+01	-7.665182e+01
9.200000e-07	-3.888700e-06	-1.102794e-09	-2.706266e+01	-7.632484e+01
9.300000e-07	-3.855549e-06	-1.095965e-09	-2.683195e+01	-7.599408e+01
9.400000e-07	-3.822025e-06	-1.098901e-09	-2.659865e+01	-7.565948e+01
9.500000e-07	-3.788043e-06	-1.083977e-09	-2.636216e+01	-7.532100e+01
9.600000e-07	-3.753541e-06	-1.073311e-09	-2.612205e+01	-7.497855e+01
9.700000e-07	-3.718578e-06	-1.074364e-09	-2.587872e+01	-7.463205e+01
9.800000e-07	-3.683329e-06	-1.071406e-09	-2.563342e+01	-7.428141e+01
9.900000e-07	-3.647864e-06	-1.059288e-09	-2.538660e+01	-7.392653e+01
1.000000e-06	-3.612266e-06	-1.057082e-09	-2.513887e+01	-7.356731e+01
1.010000e-06	-3.576573e-06	-1.052871e-09	-2.489047e+01	-7.320361e+01
1.020000e-06	-3.540710e-06	-1.042175e-09	-2.464089e+01	-7.283534e+01
1.030000e-06	-3.504674e-06	-1.037414e-09	-2.439011e+01	-7.246235e+01
1.040000e-06	-3.468387e-06	-1.037526e-09	-2.413757e+01	-7.208453e+01
1.050000e-06	-3.431821e-06	-1.029966e-09	-2.388310e+01	-7.170174e+01
1.060000e-06	-3.395055e-06	-1.019178e-09	-2.362723e+01	-7.131386e+01
1.070000e-06	-3.358071e-06	-1.013227e-09	-2.336985e+01	-7.092075e+01
1.080000e-06	-3.320863e-06	-1.002920e-09	-2.311091e+01	-7.052230e+01
1.090000e-06	-3.283454e-06	-9.956809e-10	-2.285056e+01	-7.011837e+01
1.100000e-06	-3.245826e-06	-9.941651e-10	-2.258870e+01	-6.970887e+01
1.110000e-06	-3.207968e-06	-9.939546e-10	-2.232523e+01	-6.929366e+01
1.120000e-06	-3.169893e-06	-9.841728e-10	-2.206026e+01	-6.887266e+01
1.130000e-06	-3.131549e-06	-9.749726e-10	-2.179341e+01	-6.844578e+01
1.140000e-06	-3.092925e-06	-9.662606e-10	-2.152462e+01	-6.801292e+01
1.150000e-06	-3.054055e-06	-9.567910e-10	-2.125411e+01	-6.757401e+01
1.160000e-06	-3.014974e-06	-9.469495e-10	-2.098213e+01	-6.712899e+01
1.170000e-06	-2.975761e-06	-9.456947e-10	-2.070924e+01	-6.667782e+01
1.180000e-06	-2.936424e-06	-9.423108e-10	-2.043548e+01	-6.622044e+01
1.190000e-06	-2.896905e-06	-9.377868e-10	-2.016045e+01	-6.575683e+01
1.200000e-06	-2.857227e-06	-9.294855e-10	-1.988432e+01	-6.528698e+01
1.210000e-06	-2.817445e-06	-9.213721e-10	-1.960746e+01	-6.481087e+01
1.220000e-06	-2.777500e-06	-9.098312e-10	-1.932948e+01	-6.432850e+01
1.230000e-06	-2.737415e-06	-9.005137e-10	-1.905052e+01	-6.383989e+01
1.240000e-06	-2.697177e-06	-8.920120e-10	-1.877048e+01	-6.334505e+01
1.250000e-06	-2.656768e-06	-8.843370e-10	-1.848927e+01	-6.284401e+01
1.260000e-06	-2.616229e-06	-8.771325e-10	-1.820714e+01	-6.233678e+01
1.270000e-06	-2.575375e-06	-8.723067e-10	-1.792283e+01	-6.182341e+01
1.280000e-06	-2.534098e-06	-8.661440e-10	-1.763557e+01	-6.130393e+01
1.290000e-06	-2.492472e-06	-8.576795e-10	-1.734588e+01	-6.077835e+01
1.300000e-06	-2.450552e-06	-8.477874e-10	-1.705415e+01	-6.024670e+01
1.310000e-06	-2.408360e-06	-8.370603e-10	-1.676052e+01	-5.970900e+01
1.320000e-06	-2.365851e-06	-8.273312e-10	-1.646469e+01	-5.916526e+01
1.330000e-06	-2.323034e-06	-8.191623e-10	-1.616671e+01	-5.861547e+01
1.340000e-06	-2.280022e-06	-8.112316e-10	-1.586737e+01	-5.805961e+01
1.350000e-06	-2.236810e-06	-8.033006e-10	-1.556665e+01	-5.749764e+01
1.360000e-06	-2.193467e-06	-7.946251e-10	-1.526501e+01	-5.692952e+01
1.370000e-06	-2.150053e-06	-7.851844e-10	-1.496288e+01	-5.635515e+01
1.380000e-06	-2.106484e-06	-7.735379e-10	-1.465967e+01	-5.577445e+01
1.390000e-06	-2.062808e-06	-7.605252e-10	-1.435571e+01	-5.518726e+01
1.400000e-06	-2.019085e-06	-7.493658e-10	-1.405143e+01	-5.459344e+01
1.410000e-06	-1.975312e-06	-7.403492e-10	-1.374680e+01	-5.399279e+01
1.420000e-06	-1.931444e-06	-7.314675e-10	-1.344151e+01	-5.338509e+01
1.430000e-06	-1.887470e-06	-7.211864e-10	-1.313548e+01	-5.277008e+01
1.440000e-06	-1.843398e-06	-7.151219e-10	-1.282877e+01	-5.214746e+01
1.450000e-06	-1.799246e-06	-7.066147e-10	-1.252151e+01	-5.151690e+01
1.460000e-06	-1.754984e-06	-6.945789e-10	-1.221347e+01	-5.087804e+01
1.470000e-06	-1.710568e-06	-6.799614e-10	-1.190437e+01	-5.023047e+01
1.480000e-06	-1.666038e-06	-6.682071e-10	-1.159447e+01	-4.957373e+01
1.490000e-06	-1.621359e-06	-6.551275e-10	-1.128354e+01	-4.890737e+01
1.500000e-06	-1.576506e-06	-6.452665e-10	-1.097139e+01	-4.823086e+01
1.510000e-06	-1.531560e-06	-6.407221e-10	-1.065860e+01	-4.754365e+01
1.520000e-06	-1.486519e-06	-6.381038e-10	-1.034514e+01	-4.684517e+01
1.530000e-06	-1.441276e-06	-6.313286e-10	-1.003028e+01	-4.613481e+01
1.540000e-06	-1.395989e-06	-6.205250e-10	-9.715116e+00	-4.541193e+01
1.550000e-06	-1.350669e-06	-6.012891e-10	-9.399718e+00	-4.467587e+01
1.560000e-06	-1.305152e-06	-5.792674e-10	-9.082955e+00	-4.392595e+01
1.570000e-06	-1.259553e-06	-5.602494e-10	-8.765616e+00	-4.316148e+01
1.580000e-06	-1.213907e-06	-5.473339e-10	-8.447954e+00	-4.238175e+01
1.590000e-06	-1.168158e-06	-5.401701e-10	-8.129572e+00	-4.158605e+01
1.600000e-06	-1.122307e-06	-5.361974e-10	-7.810480e+00	-4.077365e+01
1.610000e-06	-1.076472e-06	-5.281787e-10	-7.491498e+00	-3.994384e+01
1.620000e-06	-1.030614e-06	-5.130776e-10	-7.172361e+00	-3.909591e+01
1.630000e-06	-9.845613e-07	-4.965960e-10	-6.851865e+00	-3.822917e+01
1.640000e-06	-9.384689e-07	-4.786302e-10	-6.531094e+00	-3.734294e+01
1.650000e-06	-8.923842e-07	-4.606183e-10	-6.210376e+00	-3.643657e+01
1.660000e-06	-8.461009e-07	-4.455820e-10	-5.888276e+00	-3.550943e+01
1.670000e-06	-7.997348e-07	-4.349095e-10	-5.565601e+00	-3.456094e+01
1.680000e-06	-7.534054e-07	-4.240959e-10	-5.243180e+00	-3.359055e+01
1.690000e-06	-7.070368e-07	-4.138818e-10	-4.920487e+00	-3.259776e+01
1.700000e-06	-6.606231e-07	-4.000944e-10	-4.597479e+00	-3.158213e+01
1.710000e-06	-6.141178e-07	-3.837394e-10	-4.273834e+00	-3.054327e+01
1.720000e-06	-5.675544e-07	-3.631495e-10	-3.949786e+00	-2.948084e+01
1.730000e-06	-5.209544e-07	-3.420994e-10	-3.625482e+00	-2.839460e+01
1.740000e-06	-4.742512e-07	-3.223225e-10	-3.300460e+00	-2.728435e+01
1.750000e-06	-4.274728e-07	-3.038959e-10	-2.974915e+00	-2.614997e+01
1.760000e-06	-3.806778e-07	-2.894862e-10	-2.649254e+00	-2.499143e+01
1.770000e-06	-3.338550e-07	-2.778829e-10	-2.323399e+00	-2.380877e+01
1.780000e-06	-2.869687e-07	-2.636774e-10	-1.997103e+00	-2.260213e+01
1.790000e-06	-2.401404e-07	-2.478194e-10	-1.671211e+00	-2.137172e+01
1.800000e-06	-1.934120e-07	-2.302346e-10	-1.346014e+00	-2.011785e+01
1.810000e-06	-1.466598e-07	-2.087843e-10	-1.020651e+00	-1.884089e+01
1.820000e-06	-9.988698e-08	-1.854845e-10	-6.951442e-01	-1.754135e+01
1.830000e-06	-5.308232e-08	-1.640338e-10	-3.694162e-01	-1.621977e+01
1.840000e-06	-6.260952e-09	-1.443152e-10	-4.357189e-02	-1.487682e+01
1.850000e-06	4.057631e-08	-1.273066e-10	2.823830e-01	-1.351324e+01
1.860000e-06	8.738215e-08	-1.109195e-10	6.081193e-01	-1.212985e+01
1.870000e-06	1.341659e-07	-9.265779e-11	9.337017e-01	-1.072756e+01
1.880000e-06	1.809817e-07	-7.302165e-11	1.259507e+00	-9.307353e+00
1.890000e-06	2.277150e-07	-5.341114e-11	1.584739e+00	-7.870289e+00
1.900000e-06	2.744201e-07	-3.488014e-11	1.909774e+00	-6.417495e+00
1.910000e-06	3.211111e-07	-1.583125e-11	2.234711e+00	-4.950166e+00
1.920000e-06	3.677880e-07	4.730734e-12	2.559550e+00	-3.469556e+00
1.930000e-06	4.145282e-07	2.475344e-11	2.884829e+00	-1.976973e+00
1.940000e-06	4.612085e-07	4.376236e-11	3.209692e+00	-4.737755e-01
1.950000e-06	5.078127e-07	6.361814e-11	3.534025e+00	1.038637e+00
1.960000e-06	5.543913e-07	8.308397e-11	3.858180e+00	2.558829e+00
1.970000e-06	6.008771e-07	1.032763e-10	4.181689e+00	4.085336e+00
1.980000e-06	6.472252e-07	1.238138e-10	4.504239e+00	5.616669e+00
1.990000e-06	6.935386e-07	1.432708e-10	4.826548e+00	7.151328e+00
2.000000e-06	7.399373e-07	1.626776e-10	5.149451e+00	8.687801e+00
2.010000e-06	7.862840e-07	1.832132e-10	5.471992e+00	1.022458e+01
2.020000e-06	8.324865e-07	2.036116e-10	5.793530e+00	1.176015e+01
2.030000e-06	8.786256e-07	2.274286e-10	6.114626e+00	1.329303e+01
2.040000e-06	9.247106e-07	2.528454e-10	6.435345e+00	1.482175e+01
2.050000e-06	9.707194e-07	2.768073e-10	6.755535e+00	1.634485e+01
2.060000e-06	1.016680e-06	2.975588e-10	7.075389e+00	1.786093e+01
2.070000e-06	1.062582e-06	3.155438e-10	7.394834e+00	1.936861e+01
2.080000e-06	1.108449e-06	3.329745e-10	7.714037e+00	2.086656e+01
2.090000e-06	1.154258e-06	3.509621e-10	8.032835e+00	2.235351e+01
2.100000e-06	1.199937e-06	3.705378e-10	8.350733e+00	2.382822e+01
2.110000e-06	1.245505e-06	3.915413e-10	8.667853e+00	2.528954e+01
2.120000e-06	1.291014e-06	4.115200e-10	8.984561e+00	2.673636e+01
2.130000e-06	1.336412e-06	4.324362e-10	9.300504e+00	2.816765e+01
2.140000e-06	1.381704e-06	4.535788e-10	9.615705e+00	2.958244e+01
2.150000e-06	1.426895e-06	4.705831e-10	9.930204e+00	3.097984e+01
2.160000e-06	1.471970e-06	4.866597e-10	1.024389e+01	3.235903e+01
2.170000e-06	1.516984e-06	5.056201e-10	1.055716e+01	3.371927e+01
2.180000e-06	1.561903e-06	5.243196e-10	1.086976e+01	3.505989e+01
2.190000e-06	1.606659e-06	5.429736e-10	1.118123e+01	3.638030e+01
2.200000e-06	1.651232e-06	5.628780e-10	1.149143e+01	3.768000e+01
2.210000e-06	1.695627e-06	5.795526e-10	1.180039e+01	3.895853e+01
2.220000e-06	1.739880e-06	5.939418e-10	1.210836e+01	4.021554e+01
2.230000e-06	1.783982e-06	6.089571e-10	1.241528e+01	4.145073e+01
2.240000e-06	1.827950e-06	6.250171e-10	1.272126e+01	4.266389e+01
2.250000e-06	1.871909e-06	6.428441e-10	1.302719e+01	4.385486e+01
2.260000e-06	1.915818e-06	6.617572e-10	1.333277e+01	4.502355e+01
2.270000e-06	1.959607e-06	6.802930e-10	1.363751e+01	4.616994e+01
2.280000e-06	2.003325e-06	6.966531e-10	1.394175e+01	4.729406e+01
2.290000e-06	2.046983e-06	7.106028e-10	1.424558e+01	4.839599e+01
2.300000e-06	2.090611e-06	7.231492e-10	1.454921e+01	4.947587e+01
2.310000e-06	2.134205e-06	7.344717e-10	1.485259e+01	5.053388e+01
2.320000e-06	2.177693e-06	7.476644e-10	1.515524e+01	5.157025e+01
2.330000e-06	2.221067e-06	7.633112e-10	1.545709e+01	5.258523e+01
2.340000e-06	2.264347e-06	7.792083e-10	1.575829e+01	5.357912e+01
2.350000e-06	2.307496e-06	7.941023e-10	1.605857e+01	5.455224e+01
2.360000e-06	2.350405e-06	8.086779e-10	1.635719e+01	5.550493e+01
2.370000e-06	2.393098e-06	8.218327e-10	1.665431e+01	5.643756e+01
2.380000e-06	2.435569e-06	8.326413e-10	1.694988e+01	5.735050e+01
2.390000e-06	2.477717e-06	8.436894e-10	1.724319e+01	5.824415e+01
2.400000e-06	2.519441e-06	8.548853e-10	1.753357e+01	5.911889e+01
2.410000e-06	2.560686e-06	8.663648e-10	1.782060e+01	5.997514e+01
2.420000e-06	2.601532e-06	8.793861e-10	1.810486e+01	6.081330e+01
2.430000e-06	2.642134e-06	8.915052e-10	1.838742e+01	6.163375e+01
2.440000e-06	2.682586e-06	9.023736e-10	1.866894e+01	6.243689e+01
2.450000e-06	2.722874e-06	9.120779e-10	1.894932e+01	6.322311e+01
2.460000e-06	2.762976e-06	9.212155e-10	1.922840e+01	6.399277e+01
2.470000e-06	2.802872e-06	9.308666e-10	1.950604e+01	6.474624e+01
2.480000e-06	2.842602e-06	9.398052e-10	1.978254e+01	6.548385e+01
2.490000e-06	2.882224e-06	9.492709e-10	2.005828e+01	6.620595e+01
2.500000e-06	2.921693e-06	9.613725e-10	2.033296e+01	6.691284e+01
2.510000e-06	2.961053e-06	9.743642e-10	2.060688e+01	6.760483e+01
2.520000e-06	3.000282e-06	9.858615e-10	2.087989e+01	6.828218e+01
2.530000e-06	3.039256e-06	9.959468e-10	2.115112e+01	6.894516e+01
2.540000e-06	3.078089e-06	1.004663e-09	2.142137e+01	6.959402e+01
2.550000e-06	3.116705e-06	1.011776e-09	2.169011e+01	7.022899e+01
2.560000e-06	3.154984e-06	1.018756e-09	2.195650e+01	7.085029e+01
2.570000e-06	3.193030e-06	1.026235e-09	2.222128e+01	7.145810e+01
2.580000e-06	3.230900e-06	1.036364e-09	2.248483e+01	7.205262e+01
2.590000e-06	3.268630e-06	1.048484e-09	2.274740e+01	7.263402e+01
2.600000e-06	3.306183e-06	1.057039e-09	2.300875e+01	7.320247e+01
2.610000e-06	3.343495e-06	1.061750e-09	2.326841e+01	7.375813e+01
2.620000e-06	3.380551e-06	1.064269e-09	2.352629e+01	7.430113e+01
2.630000e-06	3.417330e-06	1.066518e-09	2.378225e+01	7.483163e+01
2.640000e-06	3.453882e-06	1.071719e-09	2.403663e+01	7.534976e+01
2.650000e-06	3.490231e-06	1.081233e-09	2.428959e+01	7.585567e+01
2.660000e-06	3.526363e-06	1.092462e-09	2.454105e+01	7.634948e+01
2.670000e-06	3.562282e-06	1.100521e-09	2.479102e+01	7.683135e+01
2.680000e-06	3.598022e-06	1.103457e-09	2.503974e+01	7.730142e+01
2.690000e-06	3.633651e-06	1.103529e-09	2.528770e+01	7.775982e+01
2.700000e-06	3.669162e-06	1.104459e-09	2.553483e+01	7.820673e+01
2.710000e-06	3.704520e-06	1.109365e-09	2.578090e+01	7.864228e+01
2.720000e-06	3.739596e-06	1.117428e-09	2.602500e+01	7.906667e+01
2.730000e-06	3.774341e-06	1.125917e-09	2.626680e+01	7.948006e+01
2.740000e-06	3.808743e-06	1.134185e-09	2.650621e+01	7.988264e+01
2.750000e-06	3.842623e-06	1.140456e-09	2.674200e+01	8.027461e+01
2.760000e-06	3.875914e-06	1.143905e-09	2.697367e+01	8.065618e+01
2.770000e-06	3.908809e-06	1.146752e-09	2.720261e+01	8.102756e+01
2.780000e-06	3.941323e-06	1.150143e-09	2.742888e+01	8.138899e+01
2.790000e-06	3.973431e-06	1.153720e-09	2.765233e+01	8.174069e+01
2.800000e-06	4.005332e-06	1.157733e-09	2.787434e+01	8.208293e+01
2.810000e-06	4.037082e-06	1.161795e-09	2.809530e+01	8.241595e+01
2.820000e-06	4.068656e-06	1.165387e-09	2.831503e+01	8.274001e+01
2.830000e-06	4.100001e-06	1.169188e-09	2.853317e+01	8.305539e+01
2.840000e-06	4.131167e-06	1.171661e-09	2.875006e+01	8.336237e+01
2.850000e-06	4.162101e-06	1.173713e-09	2.896534e+01	8.366121e+01
2.860000e-06	4.192666e-06	1.177141e-09	2.917805e+01	8.395221e+01
2.870000e-06	4.222866e-06	1.181397e-09	2.938822e+01	8.423564e+01
2.880000e-06	4.252735e-06	1.185413e-09	2.959609e+01	8.451179e+01
2.890000e-06	4.282311e-06	1.188448e-09	2.980192e+01	8.478094e+01
2.900000e-06	4.311652e-06	1.191098e-09	3.000611e+01	8.504336e+01
