# Temperatura_=_-0.3
# Concentracion g/m^3_=_1620.0
# C_Vs_to_Am_M_A/Vsm_=_65563218390.804596
# pendiente_HvsI_1/m_=_3716.3
# ordenada_HvsI_A/m_=_1297.0
# frecuencia_Hz_=_135091.00478621587

Tiempo_(s)	Campo_(V.s)	Magnetizacion_(V.s)	Campo_(kA/m)	Magnetizacion_(A/m)
0.000000e+00	-5.505520e-06	-1.735570e-09	-3.837227e+01	-1.123563e+02
1.000000e-08	-5.505772e-06	-1.730758e-09	-3.837402e+01	-1.123099e+02
2.000000e-08	-5.505696e-06	-1.725317e-09	-3.837349e+01	-1.122592e+02
3.000000e-08	-5.505142e-06	-1.723051e-09	-3.836963e+01	-1.122043e+02
4.000000e-08	-5.504052e-06	-1.723258e-09	-3.836204e+01	-1.121452e+02
5.000000e-08	-5.502508e-06	-1.722137e-09	-3.835128e+01	-1.120821e+02
6.000000e-08	-5.500488e-06	-1.720391e-09	-3.833719e+01	-1.120152e+02
7.000000e-08	-5.497811e-06	-1.726102e-09	-3.831853e+01	-1.119444e+02
8.000000e-08	-5.494605e-06	-1.748275e-09	-3.829619e+01	-1.118700e+02
9.000000e-08	-5.490974e-06	-1.756073e-09	-3.827089e+01	-1.117920e+02
1.000000e-07	-5.486815e-06	-1.716527e-09	-3.824190e+01	-1.117106e+02
1.100000e-07	-5.482372e-06	-1.660949e-09	-3.821093e+01	-1.116259e+02
1.200000e-07	-5.477864e-06	-1.733463e-09	-3.817951e+01	-1.115380e+02
1.300000e-07	-5.473074e-06	-1.751887e-09	-3.814613e+01	-1.114471e+02
1.400000e-07	-5.467864e-06	-1.716408e-09	-3.810981e+01	-1.113532e+02
1.500000e-07	-5.462270e-06	-1.666210e-09	-3.807083e+01	-1.112565e+02
1.600000e-07	-5.456391e-06	-1.732325e-09	-3.802985e+01	-1.111570e+02
1.700000e-07	-5.450043e-06	-1.781733e-09	-3.798560e+01	-1.110548e+02
1.800000e-07	-5.443149e-06	-1.714094e-09	-3.793755e+01	-1.109500e+02
1.900000e-07	-5.435975e-06	-1.660036e-09	-3.788755e+01	-1.108427e+02
2.000000e-07	-5.428567e-06	-1.670571e-09	-3.783592e+01	-1.107329e+02
2.100000e-07	-5.420852e-06	-1.716136e-09	-3.778215e+01	-1.106206e+02
2.200000e-07	-5.412860e-06	-1.682348e-09	-3.772644e+01	-1.105059e+02
2.300000e-07	-5.404527e-06	-1.661822e-09	-3.766837e+01	-1.103889e+02
2.400000e-07	-5.395739e-06	-1.652355e-09	-3.760712e+01	-1.102694e+02
2.500000e-07	-5.386343e-06	-1.674168e-09	-3.754163e+01	-1.101475e+02
2.600000e-07	-5.376218e-06	-1.644720e-09	-3.747106e+01	-1.100232e+02
2.700000e-07	-5.365563e-06	-1.648142e-09	-3.739680e+01	-1.098963e+02
2.800000e-07	-5.354386e-06	-1.635160e-09	-3.731890e+01	-1.097669e+02
2.900000e-07	-5.342728e-06	-1.637848e-09	-3.723764e+01	-1.096349e+02
3.000000e-07	-5.330850e-06	-1.636219e-09	-3.715486e+01	-1.095001e+02
3.100000e-07	-5.318646e-06	-1.652513e-09	-3.706980e+01	-1.093625e+02
3.200000e-07	-5.305880e-06	-1.635920e-09	-3.698082e+01	-1.092220e+02
3.300000e-07	-5.292712e-06	-1.638953e-09	-3.688904e+01	-1.090784e+02
3.400000e-07	-5.279248e-06	-1.637742e-09	-3.679520e+01	-1.089315e+02
3.500000e-07	-5.265343e-06	-1.622686e-09	-3.669828e+01	-1.087813e+02
3.600000e-07	-5.250870e-06	-1.603844e-09	-3.659741e+01	-1.086276e+02
3.700000e-07	-5.236036e-06	-1.621720e-09	-3.649402e+01	-1.084702e+02
3.800000e-07	-5.220900e-06	-1.615204e-09	-3.638853e+01	-1.083089e+02
3.900000e-07	-5.205199e-06	-1.601998e-09	-3.627909e+01	-1.081436e+02
4.000000e-07	-5.188876e-06	-1.626913e-09	-3.616533e+01	-1.079741e+02
4.100000e-07	-5.172244e-06	-1.618070e-09	-3.604940e+01	-1.078002e+02
4.200000e-07	-5.155312e-06	-1.583594e-09	-3.593140e+01	-1.076217e+02
4.300000e-07	-5.138007e-06	-1.594132e-09	-3.581078e+01	-1.074384e+02
4.400000e-07	-5.120401e-06	-1.624784e-09	-3.568807e+01	-1.072502e+02
4.500000e-07	-5.102324e-06	-1.568467e-09	-3.556208e+01	-1.070568e+02
4.600000e-07	-5.083761e-06	-1.562427e-09	-3.543270e+01	-1.068582e+02
4.700000e-07	-5.064785e-06	-1.606176e-09	-3.530044e+01	-1.066541e+02
4.800000e-07	-5.045556e-06	-1.588233e-09	-3.516642e+01	-1.064443e+02
4.900000e-07	-5.026174e-06	-1.541051e-09	-3.503133e+01	-1.062289e+02
5.000000e-07	-5.006629e-06	-1.594558e-09	-3.489510e+01	-1.060075e+02
5.100000e-07	-4.986854e-06	-1.591361e-09	-3.475728e+01	-1.057800e+02
5.200000e-07	-4.966710e-06	-1.535707e-09	-3.461688e+01	-1.055465e+02
5.300000e-07	-4.946149e-06	-1.554708e-09	-3.447357e+01	-1.053067e+02
5.400000e-07	-4.925296e-06	-1.590723e-09	-3.432823e+01	-1.050605e+02
5.500000e-07	-4.904066e-06	-1.522457e-09	-3.418027e+01	-1.048080e+02
5.600000e-07	-4.882425e-06	-1.520954e-09	-3.402943e+01	-1.045489e+02
5.700000e-07	-4.860516e-06	-1.572868e-09	-3.387673e+01	-1.042833e+02
5.800000e-07	-4.838311e-06	-1.543060e-09	-3.372197e+01	-1.040112e+02
5.900000e-07	-4.815604e-06	-1.506908e-09	-3.356371e+01	-1.037325e+02
6.000000e-07	-4.792631e-06	-1.558140e-09	-3.340359e+01	-1.034472e+02
6.100000e-07	-4.769458e-06	-1.550752e-09	-3.324208e+01	-1.031554e+02
6.200000e-07	-4.745953e-06	-1.502243e-09	-3.307825e+01	-1.028569e+02
6.300000e-07	-4.722285e-06	-1.521609e-09	-3.291329e+01	-1.025520e+02
6.400000e-07	-4.698343e-06	-1.534083e-09	-3.274642e+01	-1.022406e+02
6.500000e-07	-4.673971e-06	-1.491329e-09	-3.257655e+01	-1.019227e+02
6.600000e-07	-4.649103e-06	-1.493290e-09	-3.240323e+01	-1.015985e+02
6.700000e-07	-4.623710e-06	-1.515561e-09	-3.222624e+01	-1.012679e+02
6.800000e-07	-4.597769e-06	-1.484111e-09	-3.204544e+01	-1.009312e+02
6.900000e-07	-4.571323e-06	-1.470480e-09	-3.186112e+01	-1.005883e+02
7.000000e-07	-4.544424e-06	-1.488119e-09	-3.167364e+01	-1.002393e+02
7.100000e-07	-4.517223e-06	-1.473023e-09	-3.148406e+01	-9.988442e+01
7.200000e-07	-4.489824e-06	-1.445247e-09	-3.129309e+01	-9.952366e+01
7.300000e-07	-4.462270e-06	-1.454920e-09	-3.110104e+01	-9.915713e+01
7.400000e-07	-4.434599e-06	-1.447989e-09	-3.090818e+01	-9.878492e+01
7.500000e-07	-4.406693e-06	-1.430492e-09	-3.071369e+01	-9.840714e+01
7.600000e-07	-4.378392e-06	-1.430126e-09	-3.051643e+01	-9.802386e+01
7.700000e-07	-4.349721e-06	-1.434400e-09	-3.031660e+01	-9.763517e+01
7.800000e-07	-4.320704e-06	-1.412717e-09	-3.011436e+01	-9.724116e+01
7.900000e-07	-4.291423e-06	-1.406976e-09	-2.991028e+01	-9.684190e+01
8.000000e-07	-4.261954e-06	-1.405212e-09	-2.970488e+01	-9.643746e+01
8.100000e-07	-4.232192e-06	-1.390738e-09	-2.949745e+01	-9.602788e+01
8.200000e-07	-4.202096e-06	-1.373746e-09	-2.928769e+01	-9.561324e+01
8.300000e-07	-4.171634e-06	-1.374236e-09	-2.907538e+01	-9.519357e+01
8.400000e-07	-4.140788e-06	-1.363458e-09	-2.886039e+01	-9.476889e+01
8.500000e-07	-4.109729e-06	-1.354735e-09	-2.864391e+01	-9.433925e+01
8.600000e-07	-4.078509e-06	-1.357748e-09	-2.842632e+01	-9.390464e+01
8.700000e-07	-4.047138e-06	-1.357397e-09	-2.820767e+01	-9.346508e+01
8.800000e-07	-4.015610e-06	-1.339128e-09	-2.798792e+01	-9.302056e+01
8.900000e-07	-3.983858e-06	-1.331113e-09	-2.776662e+01	-9.257107e+01
9.000000e-07	-3.951898e-06	-1.325552e-09	-2.754386e+01	-9.211658e+01
9.100000e-07	-3.919603e-06	-1.311448e-09	-2.731878e+01	-9.165706e+01
9.200000e-07	-3.886837e-06	-1.303049e-09	-2.709040e+01	-9.119247e+01
9.300000e-07	-3.853605e-06	-1.305326e-09	-2.685878e+01	-9.072278e+01
9.400000e-07	-3.819988e-06	-1.298317e-09	-2.662448e+01	-9.024792e+01
9.500000e-07	-3.785910e-06	-1.287258e-09	-2.638696e+01	-8.976783e+01
9.600000e-07	-3.751376e-06	-1.284978e-09	-2.614627e+01	-8.928247e+01
9.700000e-07	-3.716494e-06	-1.274397e-09	-2.590314e+01	-8.879176e+01
9.800000e-07	-3.681330e-06	-1.257230e-09	-2.565807e+01	-8.829565e+01
9.900000e-07	-3.646006e-06	-1.248479e-09	-2.541186e+01	-8.779405e+01
1.000000e-06	-3.610537e-06	-1.248422e-09	-2.516465e+01	-8.728692e+01
1.010000e-06	-3.574901e-06	-1.243958e-09	-2.491627e+01	-8.677418e+01
1.020000e-06	-3.539157e-06	-1.242195e-09	-2.466715e+01	-8.625577e+01
1.030000e-06	-3.503258e-06	-1.236876e-09	-2.441694e+01	-8.573163e+01
1.040000e-06	-3.467152e-06	-1.223970e-09	-2.416529e+01	-8.520171e+01
1.050000e-06	-3.430662e-06	-1.208577e-09	-2.391096e+01	-8.466596e+01
1.060000e-06	-3.393833e-06	-1.202018e-09	-2.365427e+01	-8.412434e+01
1.070000e-06	-3.356800e-06	-1.191494e-09	-2.339616e+01	-8.357682e+01
1.080000e-06	-3.319543e-06	-1.181550e-09	-2.313649e+01	-8.302335e+01
1.090000e-06	-3.282153e-06	-1.175102e-09	-2.287589e+01	-8.246394e+01
1.100000e-06	-3.244606e-06	-1.169502e-09	-2.261420e+01	-8.189855e+01
1.110000e-06	-3.206717e-06	-1.156424e-09	-2.235011e+01	-8.132720e+01
1.120000e-06	-3.168532e-06	-1.146137e-09	-2.208398e+01	-8.074988e+01
1.130000e-06	-3.130187e-06	-1.137075e-09	-2.181672e+01	-8.016661e+01
1.140000e-06	-3.091621e-06	-1.124654e-09	-2.154792e+01	-7.957741e+01
1.150000e-06	-3.052873e-06	-1.110313e-09	-2.127786e+01	-7.898231e+01
1.160000e-06	-3.013874e-06	-1.102442e-09	-2.100604e+01	-7.838134e+01
1.170000e-06	-2.974634e-06	-1.095571e-09	-2.073255e+01	-7.777455e+01
1.180000e-06	-2.935322e-06	-1.086084e-09	-2.045855e+01	-7.716197e+01
1.190000e-06	-2.895938e-06	-1.079905e-09	-2.018405e+01	-7.654366e+01
1.200000e-06	-2.856384e-06	-1.073618e-09	-1.990837e+01	-7.591966e+01
1.210000e-06	-2.816673e-06	-1.061101e-09	-1.963159e+01	-7.529003e+01
1.220000e-06	-2.776869e-06	-1.047822e-09	-1.935417e+01	-7.465482e+01
1.230000e-06	-2.736866e-06	-1.037435e-09	-1.907535e+01	-7.401408e+01
1.240000e-06	-2.696676e-06	-1.026785e-09	-1.879524e+01	-7.336784e+01
1.250000e-06	-2.656292e-06	-1.017480e-09	-1.851377e+01	-7.271614e+01
1.260000e-06	-2.615657e-06	-1.012052e-09	-1.823055e+01	-7.205902e+01
1.270000e-06	-2.574709e-06	-1.003075e-09	-1.794516e+01	-7.139648e+01
1.280000e-06	-2.533304e-06	-9.892752e-10	-1.765658e+01	-7.072853e+01
1.290000e-06	-2.491603e-06	-9.780085e-10	-1.736592e+01	-7.005515e+01
1.300000e-06	-2.449723e-06	-9.675811e-10	-1.707403e+01	-6.937633e+01
1.310000e-06	-2.407635e-06	-9.556432e-10	-1.678068e+01	-6.869200e+01
1.320000e-06	-2.365220e-06	-9.439267e-10	-1.648506e+01	-6.800211e+01
1.330000e-06	-2.322441e-06	-9.342499e-10	-1.618691e+01	-6.730656e+01
1.340000e-06	-2.279409e-06	-9.248061e-10	-1.588698e+01	-6.660523e+01
1.350000e-06	-2.236253e-06	-9.141061e-10	-1.558620e+01	-6.589799e+01
1.360000e-06	-2.193023e-06	-9.004724e-10	-1.528489e+01	-6.518467e+01
1.370000e-06	-2.149696e-06	-8.861475e-10	-1.498291e+01	-6.446505e+01
1.380000e-06	-2.106243e-06	-8.710914e-10	-1.468006e+01	-6.373893e+01
1.390000e-06	-2.062682e-06	-8.570644e-10	-1.437644e+01	-6.300603e+01
1.400000e-06	-2.019055e-06	-8.426417e-10	-1.407237e+01	-6.226607e+01
1.410000e-06	-1.975346e-06	-8.318639e-10	-1.376773e+01	-6.151873e+01
1.420000e-06	-1.931586e-06	-8.227899e-10	-1.346273e+01	-6.076365e+01
1.430000e-06	-1.887775e-06	-8.156281e-10	-1.315738e+01	-6.000044e+01
1.440000e-06	-1.843857e-06	-8.054972e-10	-1.285128e+01	-5.922869e+01
1.450000e-06	-1.799709e-06	-7.915092e-10	-1.254358e+01	-5.844795e+01
1.460000e-06	-1.755370e-06	-7.747655e-10	-1.223455e+01	-5.765775e+01
1.470000e-06	-1.710925e-06	-7.588389e-10	-1.192477e+01	-5.685757e+01
1.480000e-06	-1.666408e-06	-7.442510e-10	-1.161450e+01	-5.604689e+01
1.490000e-06	-1.621836e-06	-7.330705e-10	-1.130384e+01	-5.522515e+01
1.500000e-06	-1.577145e-06	-7.254060e-10	-1.099235e+01	-5.439177e+01
1.510000e-06	-1.532328e-06	-7.157276e-10	-1.067999e+01	-5.354615e+01
1.520000e-06	-1.487333e-06	-7.019441e-10	-1.036639e+01	-5.268767e+01
1.530000e-06	-1.442168e-06	-6.871061e-10	-1.005159e+01	-5.181571e+01
1.540000e-06	-1.396875e-06	-6.738123e-10	-9.735912e+00	-5.092963e+01
1.550000e-06	-1.351542e-06	-6.614614e-10	-9.419952e+00	-5.002876e+01
1.560000e-06	-1.306132e-06	-6.490020e-10	-9.103453e+00	-4.911247e+01
1.570000e-06	-1.260589e-06	-6.370395e-10	-8.786030e+00	-4.818009e+01
1.580000e-06	-1.214970e-06	-6.245410e-10	-8.468071e+00	-4.723098e+01
1.590000e-06	-1.169301e-06	-6.088735e-10	-8.149772e+00	-4.626449e+01
1.600000e-06	-1.123604e-06	-5.946687e-10	-7.831275e+00	-4.528000e+01
1.610000e-06	-1.077849e-06	-5.795950e-10	-7.512370e+00	-4.427689e+01
1.620000e-06	-1.032006e-06	-5.613988e-10	-7.192858e+00	-4.325456e+01
1.630000e-06	-9.860883e-07	-5.428069e-10	-6.872819e+00	-4.221245e+01
1.640000e-06	-9.401136e-07	-5.274959e-10	-6.552385e+00	-4.115002e+01
1.650000e-06	-8.940523e-07	-5.135981e-10	-6.231348e+00	-4.006676e+01
1.660000e-06	-8.479153e-07	-4.990356e-10	-5.909783e+00	-3.896219e+01
1.670000e-06	-8.016588e-07	-4.833488e-10	-5.587386e+00	-3.783590e+01
1.680000e-06	-7.553479e-07	-4.670858e-10	-5.264609e+00	-3.668749e+01
1.690000e-06	-7.090208e-07	-4.494977e-10	-4.941719e+00	-3.551664e+01
1.700000e-06	-6.626276e-07	-4.300063e-10	-4.618369e+00	-3.432305e+01
1.710000e-06	-6.162020e-07	-4.088509e-10	-4.294793e+00	-3.310651e+01
1.720000e-06	-5.697937e-07	-3.884767e-10	-3.971337e+00	-3.186684e+01
1.730000e-06	-5.233214e-07	-3.696908e-10	-3.647435e+00	-3.060394e+01
1.740000e-06	-4.767876e-07	-3.517115e-10	-3.323105e+00	-2.931776e+01
1.750000e-06	-4.302636e-07	-3.350295e-10	-2.998843e+00	-2.800832e+01
1.760000e-06	-3.836469e-07	-3.185208e-10	-2.673935e+00	-2.667572e+01
1.770000e-06	-3.369726e-07	-2.980062e-10	-2.348625e+00	-2.532011e+01
1.780000e-06	-2.902762e-07	-2.742859e-10	-2.023161e+00	-2.394173e+01
1.790000e-06	-2.436368e-07	-2.512589e-10	-1.698095e+00	-2.254087e+01
1.800000e-06	-1.969653e-07	-2.315961e-10	-1.372805e+00	-2.111790e+01
1.810000e-06	-1.502116e-07	-2.131259e-10	-1.046942e+00	-1.967326e+01
1.820000e-06	-1.034693e-07	-1.946327e-10	-7.211587e-01	-1.820748e+01
1.830000e-06	-5.672440e-08	-1.749431e-10	-3.953567e-01	-1.672113e+01
1.840000e-06	-9.914330e-09	-1.531964e-10	-6.910071e-02	-1.521486e+01
1.850000e-06	3.683346e-08	-1.298648e-10	2.567212e-01	-1.368940e+01
1.860000e-06	8.344755e-08	-1.049646e-10	5.816111e-01	-1.214553e+01
1.870000e-06	1.301344e-07	-7.965160e-11	9.070082e-01	-1.058411e+01
1.880000e-06	1.768821e-07	-5.692920e-11	1.232829e+00	-9.006030e+00
1.890000e-06	2.236014e-07	-3.849433e-11	1.558453e+00	-7.412270e+00
1.900000e-06	2.702355e-07	-2.076099e-11	1.883482e+00	-5.803851e+00
1.910000e-06	3.169194e-07	-1.591301e-12	2.208859e+00	-4.181846e+00
1.920000e-06	3.636934e-07	2.208566e-11	2.534863e+00	-2.547376e+00
1.930000e-06	4.104321e-07	4.924458e-11	2.860622e+00	-9.016057e-01
1.940000e-06	4.570923e-07	7.641710e-11	3.185833e+00	7.542607e-01
1.950000e-06	5.036065e-07	1.001640e-10	3.510027e+00	2.418984e+00
1.960000e-06	5.500471e-07	1.209400e-10	3.833708e+00	4.091295e+00
1.970000e-06	5.964104e-07	1.412322e-10	4.156849e+00	5.769898e+00
1.980000e-06	6.426760e-07	1.624513e-10	4.479311e+00	7.453477e+00
1.990000e-06	6.889474e-07	1.825604e-10	4.801813e+00	9.140698e+00
2.000000e-06	7.351680e-07	2.050233e-10	5.123960e+00	1.083022e+01
2.010000e-06	7.813534e-07	2.309310e-10	5.445862e+00	1.252069e+01
2.020000e-06	8.275144e-07	2.562921e-10	5.767594e+00	1.421076e+01
2.030000e-06	8.735695e-07	2.830632e-10	6.088588e+00	1.589907e+01
2.040000e-06	9.194718e-07	3.094917e-10	6.408516e+00	1.758430e+01
2.050000e-06	9.653285e-07	3.322209e-10	6.728128e+00	1.926511e+01
2.060000e-06	1.011245e-06	3.543143e-10	7.048159e+00	2.094019e+01
2.070000e-06	1.057051e-06	3.753820e-10	7.367414e+00	2.260826e+01
2.080000e-06	1.102786e-06	3.965293e-10	7.686178e+00	2.426805e+01
2.090000e-06	1.148461e-06	4.191277e-10	8.004522e+00	2.591833e+01
2.100000e-06	1.193982e-06	4.445821e-10	8.321796e+00	2.755792e+01
2.110000e-06	1.239428e-06	4.717566e-10	8.638540e+00	2.918565e+01
2.120000e-06	1.284838e-06	4.963753e-10	8.955042e+00	3.080040e+01
2.130000e-06	1.330202e-06	5.186773e-10	9.271215e+00	3.240111e+01
2.140000e-06	1.375528e-06	5.386374e-10	9.587129e+00	3.398675e+01
2.150000e-06	1.420735e-06	5.568400e-10	9.902210e+00	3.555635e+01
2.160000e-06	1.465835e-06	5.752815e-10	1.021655e+01	3.710899e+01
2.170000e-06	1.510838e-06	5.959834e-10	1.053021e+01	3.864380e+01
2.180000e-06	1.555706e-06	6.186281e-10	1.084293e+01	4.015999e+01
2.190000e-06	1.600386e-06	6.431873e-10	1.115434e+01	4.165680e+01
2.200000e-06	1.644926e-06	6.676166e-10	1.146478e+01	4.313353e+01
2.210000e-06	1.689393e-06	6.878615e-10	1.177470e+01	4.458957e+01
2.220000e-06	1.733661e-06	7.025241e-10	1.208324e+01	4.602435e+01
2.230000e-06	1.777836e-06	7.161998e-10	1.239113e+01	4.743736e+01
2.240000e-06	1.821900e-06	7.336395e-10	1.269824e+01	4.882816e+01
2.250000e-06	1.865769e-06	7.537226e-10	1.300400e+01	5.019636e+01
2.260000e-06	1.909513e-06	7.743202e-10	1.330889e+01	5.154165e+01
2.270000e-06	1.953201e-06	7.952420e-10	1.361338e+01	5.286376e+01
2.280000e-06	1.996851e-06	8.122865e-10	1.391761e+01	5.416250e+01
2.290000e-06	2.040423e-06	8.272381e-10	1.422130e+01	5.543771e+01
2.300000e-06	2.083939e-06	8.397957e-10	1.452460e+01	5.668932e+01
2.310000e-06	2.127413e-06	8.508292e-10	1.482760e+01	5.791729e+01
2.320000e-06	2.170756e-06	8.648921e-10	1.512970e+01	5.912164e+01
2.330000e-06	2.214013e-06	8.829239e-10	1.543119e+01	6.030245e+01
2.340000e-06	2.257244e-06	9.013182e-10	1.573249e+01	6.145983e+01
2.350000e-06	2.300396e-06	9.193670e-10	1.603326e+01	6.259394e+01
2.360000e-06	2.343338e-06	9.354536e-10	1.633255e+01	6.370501e+01
2.370000e-06	2.385954e-06	9.460627e-10	1.662958e+01	6.479328e+01
2.380000e-06	2.428327e-06	9.554670e-10	1.692491e+01	6.585904e+01
2.390000e-06	2.470435e-06	9.668736e-10	1.721839e+01	6.690262e+01
2.400000e-06	2.512102e-06	9.816623e-10	1.750880e+01	6.792437e+01
2.410000e-06	2.553438e-06	9.983533e-10	1.779690e+01	6.892469e+01
2.420000e-06	2.594590e-06	1.012517e-09	1.808373e+01	6.990398e+01
2.430000e-06	2.635380e-06	1.024334e-09	1.836802e+01	7.086269e+01
2.440000e-06	2.675808e-06	1.035374e-09	1.864979e+01	7.180126e+01
2.450000e-06	2.716011e-06	1.048149e-09	1.893000e+01	7.272019e+01
2.460000e-06	2.755984e-06	1.059569e-09	1.920861e+01	7.361996e+01
2.470000e-06	2.795796e-06	1.070410e-09	1.948609e+01	7.450108e+01
2.480000e-06	2.835521e-06	1.083469e-09	1.976296e+01	7.536405e+01
2.490000e-06	2.875126e-06	1.095335e-09	2.003900e+01	7.620939e+01
2.500000e-06	2.914624e-06	1.108070e-09	2.031429e+01	7.703763e+01
2.510000e-06	2.953973e-06	1.120035e-09	2.058854e+01	7.784929e+01
2.520000e-06	2.993174e-06	1.129908e-09	2.086176e+01	7.864490e+01
2.530000e-06	3.032185e-06	1.139364e-09	2.113366e+01	7.942496e+01
2.540000e-06	3.070980e-06	1.152437e-09	2.140406e+01	8.018998e+01
2.550000e-06	3.109580e-06	1.164039e-09	2.167309e+01	8.094048e+01
2.560000e-06	3.147825e-06	1.173910e-09	2.193965e+01	8.167695e+01
2.570000e-06	3.185810e-06	1.182817e-09	2.220439e+01	8.239985e+01
2.580000e-06	3.223645e-06	1.192440e-09	2.246810e+01	8.310966e+01
2.590000e-06	3.261297e-06	1.204340e-09	2.273052e+01	8.380683e+01
2.600000e-06	3.298785e-06	1.214344e-09	2.299181e+01	8.449179e+01
2.610000e-06	3.336067e-06	1.221978e-09	2.325165e+01	8.516495e+01
2.620000e-06	3.373121e-06	1.230190e-09	2.350992e+01	8.582670e+01
2.630000e-06	3.409959e-06	1.237977e-09	2.376666e+01	8.647742e+01
2.640000e-06	3.446525e-06	1.246666e-09	2.402152e+01	8.711747e+01
2.650000e-06	3.482723e-06	1.257634e-09	2.427381e+01	8.774716e+01
2.660000e-06	3.518586e-06	1.269225e-09	2.452377e+01	8.836681e+01
2.670000e-06	3.554281e-06	1.278517e-09	2.477256e+01	8.897669e+01
2.680000e-06	3.589923e-06	1.285154e-09	2.502097e+01	8.957708e+01
2.690000e-06	3.625476e-06	1.291959e-09	2.526877e+01	9.016821e+01
2.700000e-06	3.660926e-06	1.298561e-09	2.551585e+01	9.075029e+01
2.710000e-06	3.696185e-06	1.306611e-09	2.576160e+01	9.132352e+01
2.720000e-06	3.731168e-06	1.316055e-09	2.600542e+01	9.188806e+01
2.730000e-06	3.765947e-06	1.325608e-09	2.624782e+01	9.244406e+01
2.740000e-06	3.800350e-06	1.333320e-09	2.648761e+01	9.299165e+01
2.750000e-06	3.834196e-06	1.339703e-09	2.672351e+01	9.353093e+01
2.760000e-06	3.867506e-06	1.345778e-09	2.695567e+01	9.406200e+01
2.770000e-06	3.900330e-06	1.352291e-09	2.718444e+01	9.458492e+01
2.780000e-06	3.932772e-06	1.359730e-09	2.741056e+01	9.509973e+01
2.790000e-06	3.964912e-06	1.367593e-09	2.763457e+01	9.560649e+01
2.800000e-06	3.996814e-06	1.374631e-09	2.785691e+01	9.610520e+01
2.810000e-06	4.028517e-06	1.381888e-09	2.807788e+01	9.659587e+01
2.820000e-06	4.060030e-06	1.387736e-09	2.829752e+01	9.707850e+01
2.830000e-06	4.091371e-06	1.392928e-09	2.851596e+01	9.755307e+01
2.840000e-06	4.122537e-06	1.397950e-09	2.873318e+01	9.801955e+01
2.850000e-06	4.153392e-06	1.403079e-09	2.894823e+01	9.847792e+01
2.860000e-06	4.183884e-06	1.409528e-09	2.916075e+01	9.892812e+01
2.870000e-06	4.214110e-06	1.417236e-09	2.937142e+01	9.937013e+01
2.880000e-06	4.244060e-06	1.423359e-09	2.958016e+01	9.980389e+01
2.890000e-06	4.273679e-06	1.426361e-09	2.978661e+01	1.002293e+02
2.900000e-06	4.303048e-06	1.428209e-09	2.999130e+01	1.006465e+02
