# Temperatura_=_-0.3
# Concentracion g/m^3_=_1620.0
# C_Vs_to_Am_M_A/Vsm_=_65563218390.804596
# pendiente_HvsI_1/m_=_3716.3
# ordenada_HvsI_A/m_=_1297.0
# frecuencia_Hz_=_135103.53369633906

Tiempo_(s)	Campo_(V.s)	Magnetizacion_(V.s)	Campo_(kA/m)	Magnetizacion_(A/m)
0.000000e+00	-5.520717e-06	-1.474075e-09	-3.836931e+01	-9.743314e+01
1.000000e-08	-5.520820e-06	-1.471151e-09	-3.837003e+01	-9.740566e+01
2.000000e-08	-5.520625e-06	-1.469792e-09	-3.836867e+01	-9.737700e+01
3.000000e-08	-5.520073e-06	-1.469505e-09	-3.836483e+01	-9.734712e+01
4.000000e-08	-5.519024e-06	-1.468228e-09	-3.835754e+01	-9.731596e+01
5.000000e-08	-5.517416e-06	-1.470198e-09	-3.834636e+01	-9.728345e+01
6.000000e-08	-5.515247e-06	-1.473782e-09	-3.833129e+01	-9.724950e+01
7.000000e-08	-5.512510e-06	-1.466695e-09	-3.831227e+01	-9.721402e+01
8.000000e-08	-5.509248e-06	-1.449198e-09	-3.828960e+01	-9.717689e+01
9.000000e-08	-5.505489e-06	-1.474208e-09	-3.826348e+01	-9.713800e+01
1.000000e-07	-5.501289e-06	-1.496525e-09	-3.823428e+01	-9.709720e+01
1.100000e-07	-5.496729e-06	-1.466139e-09	-3.820259e+01	-9.705436e+01
1.200000e-07	-5.492059e-06	-1.451233e-09	-3.817013e+01	-9.700934e+01
1.300000e-07	-5.487219e-06	-1.474280e-09	-3.813649e+01	-9.696196e+01
1.400000e-07	-5.481911e-06	-1.489678e-09	-3.809960e+01	-9.691208e+01
1.500000e-07	-5.476137e-06	-1.457360e-09	-3.805948e+01	-9.685952e+01
1.600000e-07	-5.470071e-06	-1.412147e-09	-3.801731e+01	-9.680413e+01
1.700000e-07	-5.463650e-06	-1.444917e-09	-3.797269e+01	-9.674572e+01
1.800000e-07	-5.456691e-06	-1.457210e-09	-3.792432e+01	-9.668414e+01
1.900000e-07	-5.449384e-06	-1.472177e-09	-3.787354e+01	-9.661920e+01
2.000000e-07	-5.441837e-06	-1.455350e-09	-3.782109e+01	-9.655075e+01
2.100000e-07	-5.433978e-06	-1.483953e-09	-3.776647e+01	-9.647863e+01
2.200000e-07	-5.425883e-06	-1.486238e-09	-3.771021e+01	-9.640266e+01
2.300000e-07	-5.417555e-06	-1.466220e-09	-3.765232e+01	-9.632270e+01
2.400000e-07	-5.408727e-06	-1.435984e-09	-3.759097e+01	-9.623859e+01
2.500000e-07	-5.399158e-06	-1.446435e-09	-3.752447e+01	-9.615021e+01
2.600000e-07	-5.388860e-06	-1.468856e-09	-3.745289e+01	-9.605740e+01
2.700000e-07	-5.378043e-06	-1.461942e-09	-3.737771e+01	-9.596005e+01
2.800000e-07	-5.366788e-06	-1.440822e-09	-3.729949e+01	-9.585805e+01
2.900000e-07	-5.355041e-06	-1.429165e-09	-3.721785e+01	-9.575127e+01
3.000000e-07	-5.342941e-06	-1.443530e-09	-3.713375e+01	-9.563962e+01
3.100000e-07	-5.330506e-06	-1.419324e-09	-3.704733e+01	-9.552302e+01
3.200000e-07	-5.317615e-06	-1.404243e-09	-3.695774e+01	-9.540139e+01
3.300000e-07	-5.304308e-06	-1.401149e-09	-3.686525e+01	-9.527465e+01
3.400000e-07	-5.290686e-06	-1.429299e-09	-3.677058e+01	-9.514275e+01
3.500000e-07	-5.276685e-06	-1.407248e-09	-3.667327e+01	-9.500564e+01
3.600000e-07	-5.262223e-06	-1.408592e-09	-3.657276e+01	-9.486329e+01
3.700000e-07	-5.247415e-06	-1.421289e-09	-3.646984e+01	-9.471565e+01
3.800000e-07	-5.232166e-06	-1.420276e-09	-3.636386e+01	-9.456272e+01
3.900000e-07	-5.216180e-06	-1.379473e-09	-3.625276e+01	-9.440449e+01
4.000000e-07	-5.199643e-06	-1.403084e-09	-3.613782e+01	-9.424094e+01
4.100000e-07	-5.182900e-06	-1.425598e-09	-3.602146e+01	-9.407209e+01
4.200000e-07	-5.165825e-06	-1.394200e-09	-3.590279e+01	-9.389795e+01
4.300000e-07	-5.148349e-06	-1.374937e-09	-3.578133e+01	-9.371853e+01
4.400000e-07	-5.130563e-06	-1.423819e-09	-3.565771e+01	-9.353388e+01
4.500000e-07	-5.112384e-06	-1.408518e-09	-3.553137e+01	-9.334401e+01
4.600000e-07	-5.093750e-06	-1.366006e-09	-3.540186e+01	-9.314897e+01
4.700000e-07	-5.074774e-06	-1.393376e-09	-3.526998e+01	-9.294879e+01
4.800000e-07	-5.055578e-06	-1.413481e-09	-3.513656e+01	-9.274353e+01
4.900000e-07	-5.036104e-06	-1.360827e-09	-3.500122e+01	-9.253324e+01
5.000000e-07	-5.016373e-06	-1.366221e-09	-3.486409e+01	-9.231796e+01
5.100000e-07	-4.996426e-06	-1.409136e-09	-3.472545e+01	-9.209775e+01
5.200000e-07	-4.976105e-06	-1.375880e-09	-3.458422e+01	-9.187267e+01
5.300000e-07	-4.955394e-06	-1.351795e-09	-3.444028e+01	-9.164277e+01
5.400000e-07	-4.934395e-06	-1.393157e-09	-3.429434e+01	-9.140812e+01
5.500000e-07	-4.913081e-06	-1.383087e-09	-3.414620e+01	-9.116876e+01
5.600000e-07	-4.891391e-06	-1.340076e-09	-3.399546e+01	-9.092477e+01
5.700000e-07	-4.869351e-06	-1.368129e-09	-3.384228e+01	-9.067619e+01
5.800000e-07	-4.847041e-06	-1.376388e-09	-3.368722e+01	-9.042308e+01
5.900000e-07	-4.824356e-06	-1.337062e-09	-3.352956e+01	-9.016549e+01
6.000000e-07	-4.801294e-06	-1.346902e-09	-3.336927e+01	-8.990348e+01
6.100000e-07	-4.777928e-06	-1.377844e-09	-3.320688e+01	-8.963709e+01
6.200000e-07	-4.754306e-06	-1.344803e-09	-3.304271e+01	-8.936638e+01
6.300000e-07	-4.730488e-06	-1.337451e-09	-3.287717e+01	-8.909139e+01
6.400000e-07	-4.706380e-06	-1.355217e-09	-3.270962e+01	-8.881215e+01
6.500000e-07	-4.681883e-06	-1.331361e-09	-3.253936e+01	-8.852871e+01
6.600000e-07	-4.656967e-06	-1.303481e-09	-3.236620e+01	-8.824110e+01
6.700000e-07	-4.631634e-06	-1.323583e-09	-3.219013e+01	-8.794936e+01
6.800000e-07	-4.605782e-06	-1.315040e-09	-3.201045e+01	-8.765350e+01
6.900000e-07	-4.579332e-06	-1.297421e-09	-3.182663e+01	-8.735356e+01
7.000000e-07	-4.552390e-06	-1.311068e-09	-3.163938e+01	-8.704955e+01
7.100000e-07	-4.525034e-06	-1.316395e-09	-3.144926e+01	-8.674150e+01
7.200000e-07	-4.497422e-06	-1.289562e-09	-3.125735e+01	-8.642940e+01
7.300000e-07	-4.469649e-06	-1.288328e-09	-3.106432e+01	-8.611328e+01
7.400000e-07	-4.441670e-06	-1.283526e-09	-3.086987e+01	-8.579312e+01
7.500000e-07	-4.413510e-06	-1.261084e-09	-3.067416e+01	-8.546894e+01
7.600000e-07	-4.385115e-06	-1.258570e-09	-3.047681e+01	-8.514073e+01
7.700000e-07	-4.356388e-06	-1.268572e-09	-3.027715e+01	-8.480847e+01
7.800000e-07	-4.327323e-06	-1.253408e-09	-3.007515e+01	-8.447216e+01
7.900000e-07	-4.297987e-06	-1.247605e-09	-2.987126e+01	-8.413177e+01
8.000000e-07	-4.268365e-06	-1.255273e-09	-2.966539e+01	-8.378728e+01
8.100000e-07	-4.238385e-06	-1.239915e-09	-2.945703e+01	-8.343868e+01
8.200000e-07	-4.208066e-06	-1.220278e-09	-2.924630e+01	-8.308592e+01
8.300000e-07	-4.177554e-06	-1.221577e-09	-2.903425e+01	-8.272897e+01
8.400000e-07	-4.146817e-06	-1.215370e-09	-2.882062e+01	-8.236780e+01
8.500000e-07	-4.115752e-06	-1.197249e-09	-2.860472e+01	-8.200236e+01
8.600000e-07	-4.084425e-06	-1.198174e-09	-2.838700e+01	-8.163260e+01
8.700000e-07	-4.052867e-06	-1.198895e-09	-2.816766e+01	-8.125848e+01
8.800000e-07	-4.021152e-06	-1.186620e-09	-2.794724e+01	-8.087994e+01
8.900000e-07	-3.989238e-06	-1.179109e-09	-2.772544e+01	-8.049692e+01
9.000000e-07	-3.957013e-06	-1.177370e-09	-2.750147e+01	-8.010937e+01
9.100000e-07	-3.924442e-06	-1.159818e-09	-2.727510e+01	-7.971721e+01
9.200000e-07	-3.891518e-06	-1.148383e-09	-2.704628e+01	-7.932040e+01
9.300000e-07	-3.858240e-06	-1.149242e-09	-2.681500e+01	-7.891885e+01
9.400000e-07	-3.824496e-06	-1.143361e-09	-2.658048e+01	-7.851250e+01
9.500000e-07	-3.790240e-06	-1.127900e-09	-2.634239e+01	-7.810127e+01
9.600000e-07	-3.755612e-06	-1.125688e-09	-2.610173e+01	-7.768510e+01
9.700000e-07	-3.720653e-06	-1.119104e-09	-2.585876e+01	-7.726392e+01
9.800000e-07	-3.685381e-06	-1.105589e-09	-2.561362e+01	-7.683764e+01
9.900000e-07	-3.649970e-06	-1.098932e-09	-2.536751e+01	-7.640619e+01
1.000000e-06	-3.614426e-06	-1.099105e-09	-2.512047e+01	-7.596952e+01
1.010000e-06	-3.578660e-06	-1.091768e-09	-2.487190e+01	-7.552753e+01
1.020000e-06	-3.542709e-06	-1.088198e-09	-2.462204e+01	-7.508017e+01
1.030000e-06	-3.506637e-06	-1.085861e-09	-2.437133e+01	-7.462736e+01
1.040000e-06	-3.470388e-06	-1.076320e-09	-2.411940e+01	-7.416904e+01
1.050000e-06	-3.433907e-06	-1.063404e-09	-2.386586e+01	-7.370515e+01
1.060000e-06	-3.397143e-06	-1.057004e-09	-2.361034e+01	-7.323563e+01
1.070000e-06	-3.360043e-06	-1.048710e-09	-2.335250e+01	-7.276043e+01
1.080000e-06	-3.322698e-06	-1.037839e-09	-2.309295e+01	-7.227949e+01
1.090000e-06	-3.285113e-06	-1.031361e-09	-2.283173e+01	-7.179278e+01
1.100000e-06	-3.247246e-06	-1.024985e-09	-2.256855e+01	-7.130024e+01
1.110000e-06	-3.209159e-06	-1.014478e-09	-2.230385e+01	-7.080185e+01
1.120000e-06	-3.170906e-06	-1.005936e-09	-2.203798e+01	-7.029758e+01
1.130000e-06	-3.132433e-06	-9.992597e-10	-2.177059e+01	-6.978740e+01
1.140000e-06	-3.093714e-06	-9.881624e-10	-2.150150e+01	-6.927129e+01
1.150000e-06	-3.054714e-06	-9.781133e-10	-2.123044e+01	-6.874925e+01
1.160000e-06	-3.015501e-06	-9.688387e-10	-2.095791e+01	-6.822125e+01
1.170000e-06	-2.976231e-06	-9.562022e-10	-2.068498e+01	-6.768730e+01
1.180000e-06	-2.936827e-06	-9.451997e-10	-2.041112e+01	-6.714741e+01
1.190000e-06	-2.897264e-06	-9.386382e-10	-2.013616e+01	-6.660157e+01
1.200000e-06	-2.857508e-06	-9.311256e-10	-1.985985e+01	-6.604979e+01
1.210000e-06	-2.817558e-06	-9.235813e-10	-1.958220e+01	-6.549210e+01
1.220000e-06	-2.777476e-06	-9.165219e-10	-1.930362e+01	-6.492849e+01
1.230000e-06	-2.737232e-06	-9.092758e-10	-1.902392e+01	-6.435899e+01
1.240000e-06	-2.696781e-06	-8.962574e-10	-1.874278e+01	-6.378362e+01
1.250000e-06	-2.656079e-06	-8.859941e-10	-1.845991e+01	-6.320238e+01
1.260000e-06	-2.615178e-06	-8.748190e-10	-1.817564e+01	-6.261529e+01
1.270000e-06	-2.574044e-06	-8.641251e-10	-1.788975e+01	-6.202236e+01
1.280000e-06	-2.532556e-06	-8.564993e-10	-1.760141e+01	-6.142359e+01
1.290000e-06	-2.490768e-06	-8.508916e-10	-1.731099e+01	-6.081899e+01
1.300000e-06	-2.448745e-06	-8.417524e-10	-1.701892e+01	-6.020853e+01
1.310000e-06	-2.406502e-06	-8.318616e-10	-1.672533e+01	-5.959220e+01
1.320000e-06	-2.364036e-06	-8.224230e-10	-1.643019e+01	-5.896998e+01
1.330000e-06	-2.321283e-06	-8.106347e-10	-1.613305e+01	-5.834181e+01
1.340000e-06	-2.278222e-06	-7.976793e-10	-1.583378e+01	-5.770764e+01
1.350000e-06	-2.234950e-06	-7.861554e-10	-1.553304e+01	-5.706740e+01
1.360000e-06	-2.191554e-06	-7.748164e-10	-1.523143e+01	-5.642100e+01
1.370000e-06	-2.148055e-06	-7.645461e-10	-1.492911e+01	-5.576833e+01
1.380000e-06	-2.104490e-06	-7.543266e-10	-1.462633e+01	-5.510926e+01
1.390000e-06	-2.060817e-06	-7.442171e-10	-1.432280e+01	-5.444365e+01
1.400000e-06	-2.016999e-06	-7.324096e-10	-1.401826e+01	-5.377131e+01
1.410000e-06	-1.973076e-06	-7.203750e-10	-1.371299e+01	-5.309207e+01
1.420000e-06	-1.929082e-06	-7.092212e-10	-1.340723e+01	-5.240568e+01
1.430000e-06	-1.885038e-06	-6.988095e-10	-1.310112e+01	-5.171192e+01
1.440000e-06	-1.840917e-06	-6.895332e-10	-1.279448e+01	-5.101051e+01
1.450000e-06	-1.796656e-06	-6.795503e-10	-1.248687e+01	-5.030115e+01
1.460000e-06	-1.752243e-06	-6.671138e-10	-1.217819e+01	-4.958352e+01
1.470000e-06	-1.707696e-06	-6.520043e-10	-1.186859e+01	-4.885727e+01
1.480000e-06	-1.663014e-06	-6.399928e-10	-1.155804e+01	-4.812203e+01
1.490000e-06	-1.618209e-06	-6.297619e-10	-1.124665e+01	-4.737740e+01
1.500000e-06	-1.573322e-06	-6.195973e-10	-1.093468e+01	-4.662295e+01
1.510000e-06	-1.528304e-06	-6.081948e-10	-1.062180e+01	-4.585824e+01
1.520000e-06	-1.483124e-06	-5.960371e-10	-1.030780e+01	-4.508281e+01
1.530000e-06	-1.437863e-06	-5.844700e-10	-9.993232e+00	-4.429615e+01
1.540000e-06	-1.392501e-06	-5.725717e-10	-9.677965e+00	-4.349778e+01
1.550000e-06	-1.347011e-06	-5.596607e-10	-9.361803e+00	-4.268717e+01
1.560000e-06	-1.301470e-06	-5.474363e-10	-9.045291e+00	-4.186378e+01
1.570000e-06	-1.255861e-06	-5.340854e-10	-8.728307e+00	-4.102707e+01
1.580000e-06	-1.210126e-06	-5.190259e-10	-8.410449e+00	-4.017649e+01
1.590000e-06	-1.164332e-06	-5.006846e-10	-8.092174e+00	-3.931149e+01
1.600000e-06	-1.118422e-06	-4.852877e-10	-7.773100e+00	-3.843151e+01
1.610000e-06	-1.072362e-06	-4.710458e-10	-7.452977e+00	-3.753601e+01
1.620000e-06	-1.026247e-06	-4.576124e-10	-7.132480e+00	-3.662443e+01
1.630000e-06	-9.800950e-07	-4.466806e-10	-6.811718e+00	-3.569625e+01
1.640000e-06	-9.339225e-07	-4.336979e-10	-6.490816e+00	-3.475094e+01
1.650000e-06	-8.876663e-07	-4.176062e-10	-6.169333e+00	-3.378801e+01
1.660000e-06	-8.413356e-07	-4.002236e-10	-5.847332e+00	-3.280698e+01
1.670000e-06	-7.950433e-07	-3.835758e-10	-5.525598e+00	-3.180741e+01
1.680000e-06	-7.486851e-07	-3.683284e-10	-5.203405e+00	-3.078887e+01
1.690000e-06	-7.022404e-07	-3.537098e-10	-4.880612e+00	-2.975101e+01
1.700000e-06	-6.557415e-07	-3.393930e-10	-4.557442e+00	-2.869347e+01
1.710000e-06	-6.091845e-07	-3.247802e-10	-4.233868e+00	-2.761596e+01
1.720000e-06	-5.626215e-07	-3.112950e-10	-3.910253e+00	-2.651824e+01
1.730000e-06	-5.160437e-07	-2.952910e-10	-3.586534e+00	-2.540012e+01
1.740000e-06	-4.693651e-07	-2.785139e-10	-3.262115e+00	-2.426146e+01
1.750000e-06	-4.225922e-07	-2.609179e-10	-2.937041e+00	-2.310218e+01
1.760000e-06	-3.759373e-07	-2.429592e-10	-2.612786e+00	-2.192228e+01
1.770000e-06	-3.293111e-07	-2.258573e-10	-2.288731e+00	-2.072180e+01
1.780000e-06	-2.825034e-07	-2.084181e-10	-1.963415e+00	-1.950085e+01
1.790000e-06	-2.356015e-07	-1.925723e-10	-1.637444e+00	-1.825963e+01
1.800000e-06	-1.887208e-07	-1.778735e-10	-1.311621e+00	-1.699840e+01
1.810000e-06	-1.418803e-07	-1.657930e-10	-9.860764e-01	-1.571748e+01
1.820000e-06	-9.505664e-08	-1.518110e-10	-6.606493e-01	-1.441727e+01
1.830000e-06	-4.825569e-08	-1.332560e-10	-3.353799e-01	-1.309827e+01
1.840000e-06	-1.445239e-09	-1.117679e-10	-1.004450e-02	-1.176100e+01
1.850000e-06	4.538530e-08	-9.001378e-11	3.154305e-01	-1.040611e+01
1.860000e-06	9.221834e-08	-6.721952e-11	6.409229e-01	-9.034274e+00
1.870000e-06	1.390474e-07	-4.456922e-11	9.663874e-01	-7.646268e+00
1.880000e-06	1.859265e-07	-2.808268e-11	1.292200e+00	-6.242923e+00
1.890000e-06	2.328482e-07	-1.594283e-11	1.618308e+00	-4.825139e+00
1.900000e-06	2.796856e-07	-1.966588e-12	1.943831e+00	-3.393879e+00
1.910000e-06	3.264282e-07	1.466383e-11	2.268695e+00	-1.950166e+00
1.920000e-06	3.731346e-07	3.714412e-11	2.593308e+00	-4.950803e-01
1.930000e-06	4.199105e-07	6.240036e-11	2.918403e+00	9.702471e-01
1.940000e-06	4.666158e-07	8.653795e-11	3.243007e+00	2.444636e+00
1.950000e-06	5.132081e-07	1.089039e-10	3.566826e+00	3.926863e+00
1.960000e-06	5.598170e-07	1.297084e-10	3.890761e+00	5.415666e+00
1.970000e-06	6.062578e-07	1.481173e-10	4.213527e+00	6.909751e+00
1.980000e-06	6.526098e-07	1.659526e-10	4.535677e+00	8.407796e+00
1.990000e-06	6.989871e-07	1.847475e-10	4.858002e+00	9.908458e+00
2.000000e-06	7.452892e-07	2.057708e-10	5.179804e+00	1.141038e+01
2.010000e-06	7.915159e-07	2.294069e-10	5.501082e+00	1.291219e+01
2.020000e-06	8.376271e-07	2.546380e-10	5.821558e+00	1.441251e+01
2.030000e-06	8.837223e-07	2.800004e-10	6.141922e+00	1.590998e+01
2.040000e-06	9.298003e-07	3.030511e-10	6.462167e+00	1.740324e+01
2.050000e-06	9.757930e-07	3.229467e-10	6.781819e+00	1.889093e+01
2.060000e-06	1.021783e-06	3.416816e-10	7.101451e+00	2.037174e+01
2.070000e-06	1.067743e-06	3.614501e-10	7.420877e+00	2.184436e+01
2.080000e-06	1.113601e-06	3.818314e-10	7.739596e+00	2.330752e+01
2.090000e-06	1.159424e-06	4.029705e-10	8.058066e+00	2.476001e+01
2.100000e-06	1.205154e-06	4.247751e-10	8.375894e+00	2.620062e+01
2.110000e-06	1.250796e-06	4.464456e-10	8.693103e+00	2.762823e+01
2.120000e-06	1.296372e-06	4.664709e-10	9.009864e+00	2.904174e+01
2.130000e-06	1.341826e-06	4.848553e-10	9.325767e+00	3.044012e+01
2.140000e-06	1.387264e-06	5.010625e-10	9.641570e+00	3.182241e+01
2.150000e-06	1.432674e-06	5.168967e-10	9.957166e+00	3.318770e+01
2.160000e-06	1.477932e-06	5.343954e-10	1.027171e+01	3.453515e+01
2.170000e-06	1.523041e-06	5.535421e-10	1.058523e+01	3.586399e+01
2.180000e-06	1.568054e-06	5.733935e-10	1.089807e+01	3.717351e+01
2.190000e-06	1.612902e-06	5.930347e-10	1.120976e+01	3.846309e+01
2.200000e-06	1.657605e-06	6.105863e-10	1.152045e+01	3.973218e+01
2.210000e-06	1.702194e-06	6.244374e-10	1.183035e+01	4.098030e+01
2.220000e-06	1.746589e-06	6.360248e-10	1.213890e+01	4.220704e+01
2.230000e-06	1.790774e-06	6.487159e-10	1.244599e+01	4.341207e+01
2.240000e-06	1.834824e-06	6.630742e-10	1.275213e+01	4.459514e+01
2.250000e-06	1.878775e-06	6.812486e-10	1.305760e+01	4.575606e+01
2.260000e-06	1.922627e-06	7.016229e-10	1.336237e+01	4.689471e+01
2.270000e-06	1.966414e-06	7.211342e-10	1.366669e+01	4.801106e+01
2.280000e-06	2.010206e-06	7.376830e-10	1.397105e+01	4.910511e+01
2.290000e-06	2.053981e-06	7.498478e-10	1.427529e+01	5.017694e+01
2.300000e-06	2.097635e-06	7.585812e-10	1.457868e+01	5.122671e+01
2.310000e-06	2.141207e-06	7.674459e-10	1.488152e+01	5.225461e+01
2.320000e-06	2.184768e-06	7.809158e-10	1.518427e+01	5.326088e+01
2.330000e-06	2.228243e-06	7.972007e-10	1.548642e+01	5.424583e+01
2.340000e-06	2.271556e-06	8.119136e-10	1.578745e+01	5.520980e+01
2.350000e-06	2.314664e-06	8.247293e-10	1.608705e+01	5.615318e+01
2.360000e-06	2.357520e-06	8.381776e-10	1.638490e+01	5.707637e+01
2.370000e-06	2.400137e-06	8.505643e-10	1.668109e+01	5.797984e+01
2.380000e-06	2.442431e-06	8.608136e-10	1.697504e+01	5.886405e+01
2.390000e-06	2.484332e-06	8.716650e-10	1.726626e+01	5.972951e+01
2.400000e-06	2.525938e-06	8.816691e-10	1.755542e+01	6.057673e+01
2.410000e-06	2.567341e-06	8.925832e-10	1.784317e+01	6.140624e+01
2.420000e-06	2.608518e-06	9.047351e-10	1.812935e+01	6.221858e+01
2.430000e-06	2.649355e-06	9.156875e-10	1.841317e+01	6.301429e+01
2.440000e-06	2.689771e-06	9.245451e-10	1.869407e+01	6.379390e+01
2.450000e-06	2.729975e-06	9.322273e-10	1.897349e+01	6.455797e+01
2.460000e-06	2.770069e-06	9.429442e-10	1.925214e+01	6.530702e+01
2.470000e-06	2.810028e-06	9.533580e-10	1.952986e+01	6.604158e+01
2.480000e-06	2.849889e-06	9.624938e-10	1.980689e+01	6.676215e+01
2.490000e-06	2.889623e-06	9.710743e-10	2.008305e+01	6.746922e+01
2.500000e-06	2.929239e-06	9.782457e-10	2.035838e+01	6.816328e+01
2.510000e-06	2.968679e-06	9.853509e-10	2.063249e+01	6.884477e+01
2.520000e-06	3.007970e-06	9.936124e-10	2.090557e+01	6.951413e+01
2.530000e-06	3.047104e-06	1.002369e-09	2.117755e+01	7.017176e+01
2.540000e-06	3.085988e-06	1.013015e-09	2.144780e+01	7.081805e+01
2.550000e-06	3.124594e-06	1.023323e-09	2.171611e+01	7.145334e+01
2.560000e-06	3.162874e-06	1.032392e-09	2.198216e+01	7.207798e+01
2.570000e-06	3.200981e-06	1.041993e-09	2.224701e+01	7.269226e+01
2.580000e-06	3.238991e-06	1.052460e-09	2.251118e+01	7.329647e+01
2.590000e-06	3.276790e-06	1.061282e-09	2.277388e+01	7.389084e+01
2.600000e-06	3.314407e-06	1.068038e-09	2.303532e+01	7.447561e+01
2.610000e-06	3.351786e-06	1.073644e-09	2.329511e+01	7.505097e+01
2.620000e-06	3.388867e-06	1.080467e-09	2.355283e+01	7.561710e+01
2.630000e-06	3.425620e-06	1.089153e-09	2.380826e+01	7.617415e+01
2.640000e-06	3.462132e-06	1.097389e-09	2.406202e+01	7.672226e+01
2.650000e-06	3.498417e-06	1.107319e-09	2.431421e+01	7.726154e+01
2.660000e-06	3.534457e-06	1.117242e-09	2.456468e+01	7.779207e+01
2.670000e-06	3.570349e-06	1.125104e-09	2.481414e+01	7.831396e+01
2.680000e-06	3.606132e-06	1.131353e-09	2.506283e+01	7.882725e+01
2.690000e-06	3.641852e-06	1.134895e-09	2.531109e+01	7.933201e+01
2.700000e-06	3.677421e-06	1.138998e-09	2.555830e+01	7.982827e+01
2.710000e-06	3.712774e-06	1.146626e-09	2.580400e+01	8.031608e+01
2.720000e-06	3.747870e-06	1.154637e-09	2.604791e+01	8.079546e+01
2.730000e-06	3.782596e-06	1.162637e-09	2.628927e+01	8.126645e+01
2.740000e-06	3.816909e-06	1.169878e-09	2.652774e+01	8.172907e+01
2.750000e-06	3.850720e-06	1.174045e-09	2.676273e+01	8.218334e+01
2.760000e-06	3.883882e-06	1.176420e-09	2.699321e+01	8.262929e+01
2.770000e-06	3.916534e-06	1.180177e-09	2.722014e+01	8.306695e+01
2.780000e-06	3.948937e-06	1.187020e-09	2.744534e+01	8.349636e+01
2.790000e-06	3.981138e-06	1.195840e-09	2.766914e+01	8.391755e+01
2.800000e-06	4.013068e-06	1.204292e-09	2.789106e+01	8.433056e+01
2.810000e-06	4.044812e-06	1.211759e-09	2.811168e+01	8.473546e+01
2.820000e-06	4.076506e-06	1.216595e-09	2.833196e+01	8.513230e+01
2.830000e-06	4.108038e-06	1.219348e-09	2.855111e+01	8.552116e+01
2.840000e-06	4.139285e-06	1.222245e-09	2.876827e+01	8.590210e+01
2.850000e-06	4.170214e-06	1.226442e-09	2.898323e+01	8.627523e+01
2.860000e-06	4.200807e-06	1.232195e-09	2.919586e+01	8.664062e+01
2.870000e-06	4.231053e-06	1.240696e-09	2.940607e+01	8.699840e+01
2.880000e-06	4.261003e-06	1.247435e-09	2.961422e+01	8.734866e+01
2.890000e-06	4.290745e-06	1.251246e-09	2.982093e+01	8.769154e+01
2.900000e-06	4.320175e-06	1.254119e-09	3.002547e+01	8.802715e+01
