# Temperatura_=_-4.46
# Concentracion g/m^3_=_1620.0
# C_Vs_to_Am_M_A/Vsm_=_65563218390.804596
# pendiente_HvsI_1/m_=_3716.3
# ordenada_HvsI_A/m_=_1297.0
# frecuencia_Hz_=_135100.36477104595

Tiempo_(s)	Campo_(V.s)	Magnetizacion_(V.s)	Campo_(kA/m)	Magnetizacion_(A/m)
0.000000e+00	-5.521116e-06	-9.758917e-10	-3.836812e+01	-6.361266e+01
1.000000e-08	-5.521379e-06	-9.755008e-10	-3.836994e+01	-6.356667e+01
2.000000e-08	-5.521313e-06	-9.769329e-10	-3.836949e+01	-6.351777e+01
3.000000e-08	-5.520785e-06	-9.775835e-10	-3.836581e+01	-6.346598e+01
4.000000e-08	-5.519726e-06	-9.756275e-10	-3.835846e+01	-6.341131e+01
5.000000e-08	-5.518215e-06	-9.714748e-10	-3.834796e+01	-6.335378e+01
6.000000e-08	-5.516131e-06	-9.666441e-10	-3.833347e+01	-6.329344e+01
7.000000e-08	-5.513372e-06	-9.862427e-10	-3.831430e+01	-6.323035e+01
8.000000e-08	-5.510093e-06	-1.017564e-09	-3.829151e+01	-6.316458e+01
9.000000e-08	-5.506351e-06	-9.818636e-10	-3.826551e+01	-6.309620e+01
1.000000e-07	-5.502138e-06	-8.909771e-10	-3.823623e+01	-6.302532e+01
1.100000e-07	-5.497703e-06	-9.239451e-10	-3.820541e+01	-6.295205e+01
1.200000e-07	-5.493178e-06	-9.905997e-10	-3.817397e+01	-6.287649e+01
1.300000e-07	-5.488410e-06	-1.035754e-09	-3.814083e+01	-6.279879e+01
1.400000e-07	-5.483174e-06	-9.468710e-10	-3.810445e+01	-6.271907e+01
1.500000e-07	-5.477564e-06	-9.260236e-10	-3.806546e+01	-6.263748e+01
1.600000e-07	-5.471692e-06	-9.896863e-10	-3.802465e+01	-6.255417e+01
1.700000e-07	-5.465323e-06	-9.948078e-10	-3.798039e+01	-6.246930e+01
1.800000e-07	-5.458421e-06	-9.290715e-10	-3.793243e+01	-6.238302e+01
1.900000e-07	-5.451173e-06	-8.806954e-10	-3.788206e+01	-6.229550e+01
2.000000e-07	-5.443688e-06	-9.416544e-10	-3.783004e+01	-6.220689e+01
2.100000e-07	-5.435983e-06	-9.796403e-10	-3.777650e+01	-6.211735e+01
2.200000e-07	-5.428006e-06	-9.583676e-10	-3.772107e+01	-6.202703e+01
2.300000e-07	-5.419715e-06	-8.999300e-10	-3.766345e+01	-6.193610e+01
2.400000e-07	-5.410921e-06	-9.093743e-10	-3.760234e+01	-6.184469e+01
2.500000e-07	-5.401463e-06	-9.084669e-10	-3.753661e+01	-6.175294e+01
2.600000e-07	-5.391326e-06	-9.129407e-10	-3.746616e+01	-6.166099e+01
2.700000e-07	-5.380590e-06	-9.036020e-10	-3.739156e+01	-6.156895e+01
2.800000e-07	-5.369382e-06	-9.224238e-10	-3.731366e+01	-6.147692e+01
2.900000e-07	-5.357739e-06	-9.178668e-10	-3.723276e+01	-6.138501e+01
3.000000e-07	-5.345791e-06	-9.113738e-10	-3.714972e+01	-6.129330e+01
3.100000e-07	-5.333436e-06	-8.929697e-10	-3.706387e+01	-6.120186e+01
3.200000e-07	-5.320623e-06	-9.048280e-10	-3.697482e+01	-6.111074e+01
3.300000e-07	-5.307407e-06	-9.069746e-10	-3.688298e+01	-6.101998e+01
3.400000e-07	-5.293831e-06	-8.986732e-10	-3.678864e+01	-6.092959e+01
3.500000e-07	-5.279845e-06	-8.937395e-10	-3.669144e+01	-6.083960e+01
3.600000e-07	-5.265393e-06	-9.144525e-10	-3.659101e+01	-6.075000e+01
3.700000e-07	-5.250441e-06	-8.982248e-10	-3.648710e+01	-6.066074e+01
3.800000e-07	-5.234949e-06	-8.791739e-10	-3.637945e+01	-6.057180e+01
3.900000e-07	-5.218955e-06	-9.008286e-10	-3.626830e+01	-6.048313e+01
4.000000e-07	-5.202542e-06	-9.057559e-10	-3.615424e+01	-6.039464e+01
4.100000e-07	-5.185761e-06	-8.736846e-10	-3.603762e+01	-6.030626e+01
4.200000e-07	-5.168618e-06	-8.813869e-10	-3.591849e+01	-6.021788e+01
4.300000e-07	-5.151162e-06	-9.226385e-10	-3.579718e+01	-6.012941e+01
4.400000e-07	-5.133404e-06	-8.884807e-10	-3.567377e+01	-6.004071e+01
4.500000e-07	-5.115208e-06	-8.614570e-10	-3.554732e+01	-5.995166e+01
4.600000e-07	-5.096532e-06	-8.873111e-10	-3.541754e+01	-5.986211e+01
4.700000e-07	-5.077546e-06	-8.937563e-10	-3.528560e+01	-5.977192e+01
4.800000e-07	-5.058280e-06	-8.586313e-10	-3.515171e+01	-5.968094e+01
4.900000e-07	-5.038781e-06	-8.854251e-10	-3.501620e+01	-5.958900e+01
5.000000e-07	-5.019104e-06	-8.946308e-10	-3.487946e+01	-5.949595e+01
5.100000e-07	-4.999167e-06	-8.632343e-10	-3.474092e+01	-5.940163e+01
5.200000e-07	-4.978937e-06	-8.650075e-10	-3.460033e+01	-5.930587e+01
5.300000e-07	-4.958321e-06	-8.981883e-10	-3.445706e+01	-5.920851e+01
5.400000e-07	-4.937227e-06	-8.611131e-10	-3.431048e+01	-5.910939e+01
5.500000e-07	-4.915770e-06	-8.394099e-10	-3.416136e+01	-5.900836e+01
5.600000e-07	-4.894087e-06	-8.669147e-10	-3.401068e+01	-5.890527e+01
5.700000e-07	-4.872063e-06	-8.720435e-10	-3.385763e+01	-5.879997e+01
5.800000e-07	-4.849666e-06	-8.466137e-10	-3.370198e+01	-5.869235e+01
5.900000e-07	-4.826966e-06	-8.644077e-10	-3.354423e+01	-5.858226e+01
6.000000e-07	-4.803973e-06	-8.726526e-10	-3.338445e+01	-5.846960e+01
6.100000e-07	-4.780760e-06	-8.552151e-10	-3.322313e+01	-5.835426e+01
6.200000e-07	-4.757340e-06	-8.543477e-10	-3.306038e+01	-5.823614e+01
6.300000e-07	-4.733668e-06	-8.649774e-10	-3.289587e+01	-5.811518e+01
6.400000e-07	-4.709671e-06	-8.531928e-10	-3.272911e+01	-5.799129e+01
6.500000e-07	-4.685289e-06	-8.479508e-10	-3.255967e+01	-5.786443e+01
6.600000e-07	-4.660339e-06	-8.533185e-10	-3.238628e+01	-5.773455e+01
6.700000e-07	-4.634854e-06	-8.455612e-10	-3.220918e+01	-5.760162e+01
6.800000e-07	-4.608920e-06	-8.356619e-10	-3.202896e+01	-5.746563e+01
6.900000e-07	-4.582419e-06	-8.365912e-10	-3.184479e+01	-5.732656e+01
7.000000e-07	-4.555461e-06	-8.387432e-10	-3.165745e+01	-5.718442e+01
7.100000e-07	-4.528217e-06	-8.321215e-10	-3.146813e+01	-5.703924e+01
7.200000e-07	-4.500735e-06	-8.302299e-10	-3.127714e+01	-5.689104e+01
7.300000e-07	-4.473091e-06	-8.301423e-10	-3.108503e+01	-5.673985e+01
7.400000e-07	-4.445303e-06	-8.281064e-10	-3.089193e+01	-5.658572e+01
7.500000e-07	-4.417283e-06	-8.189649e-10	-3.069721e+01	-5.642871e+01
7.600000e-07	-4.388994e-06	-8.192216e-10	-3.050061e+01	-5.626888e+01
7.700000e-07	-4.360330e-06	-8.187120e-10	-3.030142e+01	-5.610628e+01
7.800000e-07	-4.331240e-06	-8.187663e-10	-3.009926e+01	-5.594100e+01
7.900000e-07	-4.301843e-06	-8.170859e-10	-2.989498e+01	-5.577309e+01
8.000000e-07	-4.272183e-06	-8.168367e-10	-2.968886e+01	-5.560264e+01
8.100000e-07	-4.242256e-06	-8.045152e-10	-2.948089e+01	-5.542972e+01
8.200000e-07	-4.211976e-06	-7.980161e-10	-2.927046e+01	-5.525440e+01
8.300000e-07	-4.181418e-06	-7.940682e-10	-2.905810e+01	-5.507676e+01
8.400000e-07	-4.150662e-06	-7.909524e-10	-2.884437e+01	-5.489685e+01
8.500000e-07	-4.119583e-06	-7.860356e-10	-2.862839e+01	-5.471475e+01
8.600000e-07	-4.088240e-06	-7.886581e-10	-2.841057e+01	-5.453051e+01
8.700000e-07	-4.056771e-06	-7.870420e-10	-2.819188e+01	-5.434419e+01
8.800000e-07	-4.025163e-06	-7.847176e-10	-2.797223e+01	-5.415582e+01
8.900000e-07	-3.993347e-06	-7.804109e-10	-2.775113e+01	-5.396545e+01
9.000000e-07	-3.961297e-06	-7.723642e-10	-2.752840e+01	-5.377310e+01
9.100000e-07	-3.928924e-06	-7.635835e-10	-2.730344e+01	-5.357878e+01
9.200000e-07	-3.896136e-06	-7.647830e-10	-2.707557e+01	-5.338252e+01
9.300000e-07	-3.862916e-06	-7.655735e-10	-2.684472e+01	-5.318429e+01
9.400000e-07	-3.829245e-06	-7.623519e-10	-2.661073e+01	-5.298410e+01
9.500000e-07	-3.795067e-06	-7.601614e-10	-2.637321e+01	-5.278192e+01
9.600000e-07	-3.760466e-06	-7.576086e-10	-2.613276e+01	-5.257772e+01
9.700000e-07	-3.725584e-06	-7.504295e-10	-2.589035e+01	-5.237145e+01
9.800000e-07	-3.690463e-06	-7.458176e-10	-2.564629e+01	-5.216306e+01
9.900000e-07	-3.655107e-06	-7.479385e-10	-2.540059e+01	-5.195249e+01
1.000000e-06	-3.619550e-06	-7.466566e-10	-2.515349e+01	-5.173966e+01
1.010000e-06	-3.583854e-06	-7.456100e-10	-2.490542e+01	-5.152451e+01
1.020000e-06	-3.547993e-06	-7.451700e-10	-2.465621e+01	-5.130693e+01
1.030000e-06	-3.511956e-06	-7.426006e-10	-2.440578e+01	-5.108684e+01
1.040000e-06	-3.475704e-06	-7.350130e-10	-2.415385e+01	-5.086414e+01
1.050000e-06	-3.439177e-06	-7.322881e-10	-2.390001e+01	-5.063871e+01
1.060000e-06	-3.402384e-06	-7.284882e-10	-2.364433e+01	-5.041046e+01
1.070000e-06	-3.365292e-06	-7.247133e-10	-2.338656e+01	-5.017927e+01
1.080000e-06	-3.327929e-06	-7.236537e-10	-2.312691e+01	-4.994501e+01
1.090000e-06	-3.290405e-06	-7.246526e-10	-2.286615e+01	-4.970759e+01
1.100000e-06	-3.252713e-06	-7.174798e-10	-2.260421e+01	-4.946687e+01
1.110000e-06	-3.214752e-06	-7.128283e-10	-2.234041e+01	-4.922273e+01
1.120000e-06	-3.176536e-06	-7.124212e-10	-2.207483e+01	-4.897507e+01
1.130000e-06	-3.138068e-06	-7.107280e-10	-2.180750e+01	-4.872377e+01
1.140000e-06	-3.099302e-06	-7.050503e-10	-2.153810e+01	-4.846870e+01
1.150000e-06	-3.060356e-06	-7.038205e-10	-2.126746e+01	-4.820977e+01
1.160000e-06	-3.021311e-06	-7.006221e-10	-2.099612e+01	-4.794686e+01
1.170000e-06	-2.982050e-06	-6.935888e-10	-2.072328e+01	-4.767987e+01
1.180000e-06	-2.942600e-06	-6.868272e-10	-2.044913e+01	-4.740869e+01
1.190000e-06	-2.903083e-06	-6.835112e-10	-2.017452e+01	-4.713324e+01
1.200000e-06	-2.863486e-06	-6.781907e-10	-1.989934e+01	-4.685341e+01
1.210000e-06	-2.823771e-06	-6.738783e-10	-1.962335e+01	-4.656912e+01
1.220000e-06	-2.783857e-06	-6.730823e-10	-1.934597e+01	-4.628027e+01
1.230000e-06	-2.743756e-06	-6.702824e-10	-1.906729e+01	-4.598680e+01
1.240000e-06	-2.703497e-06	-6.648152e-10	-1.878752e+01	-4.568860e+01
1.250000e-06	-2.662943e-06	-6.543862e-10	-1.850570e+01	-4.538561e+01
1.260000e-06	-2.622072e-06	-6.470452e-10	-1.822167e+01	-4.507773e+01
1.270000e-06	-2.580899e-06	-6.422676e-10	-1.793554e+01	-4.476491e+01
1.280000e-06	-2.539451e-06	-6.397331e-10	-1.764751e+01	-4.444704e+01
1.290000e-06	-2.497653e-06	-6.398046e-10	-1.735704e+01	-4.412405e+01
1.300000e-06	-2.455478e-06	-6.374935e-10	-1.706395e+01	-4.379585e+01
1.310000e-06	-2.413128e-06	-6.298442e-10	-1.676965e+01	-4.346235e+01
1.320000e-06	-2.370572e-06	-6.204562e-10	-1.647392e+01	-4.312346e+01
1.330000e-06	-2.327702e-06	-6.115353e-10	-1.617600e+01	-4.277907e+01
1.340000e-06	-2.284637e-06	-6.058410e-10	-1.587672e+01	-4.242907e+01
1.350000e-06	-2.241419e-06	-6.020058e-10	-1.557639e+01	-4.207333e+01
1.360000e-06	-2.198059e-06	-5.992554e-10	-1.527506e+01	-4.171173e+01
1.370000e-06	-2.154590e-06	-5.944441e-10	-1.497298e+01	-4.134413e+01
1.380000e-06	-2.110997e-06	-5.867680e-10	-1.467004e+01	-4.097036e+01
1.390000e-06	-2.067324e-06	-5.773618e-10	-1.436654e+01	-4.059027e+01
1.400000e-06	-2.023592e-06	-5.672008e-10	-1.406263e+01	-4.020365e+01
1.410000e-06	-1.979797e-06	-5.587200e-10	-1.375829e+01	-3.981033e+01
1.420000e-06	-1.935904e-06	-5.564757e-10	-1.345326e+01	-3.941007e+01
1.430000e-06	-1.891878e-06	-5.549167e-10	-1.314731e+01	-3.900265e+01
1.440000e-06	-1.847734e-06	-5.490206e-10	-1.284053e+01	-3.858783e+01
1.450000e-06	-1.803477e-06	-5.395928e-10	-1.253298e+01	-3.816533e+01
1.460000e-06	-1.759129e-06	-5.282981e-10	-1.222479e+01	-3.773488e+01
1.470000e-06	-1.714698e-06	-5.156432e-10	-1.191602e+01	-3.729617e+01
1.480000e-06	-1.670086e-06	-5.048627e-10	-1.160600e+01	-3.684890e+01
1.490000e-06	-1.625349e-06	-4.998357e-10	-1.129511e+01	-3.639273e+01
1.500000e-06	-1.580496e-06	-4.977422e-10	-1.098340e+01	-3.592733e+01
1.510000e-06	-1.535434e-06	-4.960822e-10	-1.067025e+01	-3.545233e+01
1.520000e-06	-1.490313e-06	-4.907725e-10	-1.035669e+01	-3.496738e+01
1.530000e-06	-1.445054e-06	-4.796619e-10	-1.004217e+01	-3.447208e+01
1.540000e-06	-1.399639e-06	-4.694805e-10	-9.726568e+00	-3.396605e+01
1.550000e-06	-1.354215e-06	-4.609368e-10	-9.410900e+00	-3.344890e+01
1.560000e-06	-1.308673e-06	-4.521918e-10	-9.094414e+00	-3.292024e+01
1.570000e-06	-1.263002e-06	-4.447996e-10	-8.777033e+00	-3.237966e+01
1.580000e-06	-1.217265e-06	-4.374407e-10	-8.459188e+00	-3.182675e+01
1.590000e-06	-1.171533e-06	-4.300193e-10	-8.141380e+00	-3.126113e+01
1.600000e-06	-1.125735e-06	-4.234009e-10	-7.823116e+00	-3.068240e+01
1.610000e-06	-1.079798e-06	-4.168125e-10	-7.503881e+00	-3.009017e+01
1.620000e-06	-1.033749e-06	-4.069074e-10	-7.183875e+00	-2.948408e+01
1.630000e-06	-9.876001e-07	-3.948196e-10	-6.863170e+00	-2.886376e+01
1.640000e-06	-9.413977e-07	-3.816099e-10	-6.542093e+00	-2.822887e+01
1.650000e-06	-8.951922e-07	-3.691345e-10	-6.220996e+00	-2.757909e+01
1.660000e-06	-8.489618e-07	-3.576793e-10	-5.899725e+00	-2.691411e+01
1.670000e-06	-8.026284e-07	-3.480573e-10	-5.577738e+00	-2.623367e+01
1.680000e-06	-7.561855e-07	-3.394692e-10	-5.254991e+00	-2.553750e+01
1.690000e-06	-7.096636e-07	-3.308957e-10	-4.931694e+00	-2.482541e+01
1.700000e-06	-6.630736e-07	-3.209731e-10	-4.607925e+00	-2.409720e+01
1.710000e-06	-6.165192e-07	-3.093471e-10	-4.284402e+00	-2.335273e+01
1.720000e-06	-5.699676e-07	-2.965843e-10	-3.960899e+00	-2.259189e+01
1.730000e-06	-5.233082e-07	-2.842753e-10	-3.636647e+00	-2.181461e+01
1.740000e-06	-4.765461e-07	-2.730882e-10	-3.311681e+00	-2.102087e+01
1.750000e-06	-4.297673e-07	-2.617757e-10	-2.986599e+00	-2.021069e+01
1.760000e-06	-3.830034e-07	-2.501604e-10	-2.661621e+00	-1.938413e+01
1.770000e-06	-3.362462e-07	-2.385000e-10	-2.336689e+00	-1.854130e+01
1.780000e-06	-2.894245e-07	-2.269706e-10	-2.011310e+00	-1.768236e+01
1.790000e-06	-2.425088e-07	-2.157333e-10	-1.685276e+00	-1.680752e+01
1.800000e-06	-1.956038e-07	-2.041299e-10	-1.359318e+00	-1.591704e+01
1.810000e-06	-1.487363e-07	-1.902235e-10	-1.033619e+00	-1.501121e+01
1.820000e-06	-1.019458e-07	-1.758005e-10	-7.084562e-01	-1.409039e+01
1.830000e-06	-5.514812e-08	-1.618580e-10	-3.832431e-01	-1.315498e+01
1.840000e-06	-8.263187e-09	-1.483991e-10	-5.742371e-02	-1.220543e+01
1.850000e-06	3.860501e-08	-1.355500e-10	2.682794e-01	-1.124224e+01
1.860000e-06	8.545483e-08	-1.227226e-10	5.938547e-01	-1.026595e+01
1.870000e-06	1.323194e-07	-1.083380e-10	9.195328e-01	-9.277129e+00
1.880000e-06	1.791418e-07	-9.311747e-11	1.244917e+00	-8.276416e+00
1.890000e-06	2.260412e-07	-7.771496e-11	1.570838e+00	-7.264471e+00
1.900000e-06	2.729868e-07	-6.311628e-11	1.897078e+00	-6.241995e+00
1.910000e-06	3.198405e-07	-5.045021e-11	2.222681e+00	-5.209724e+00
1.920000e-06	3.665958e-07	-3.730962e-11	2.547599e+00	-4.168425e+00
1.930000e-06	4.132703e-07	-2.211590e-11	2.871956e+00	-3.118895e+00
1.940000e-06	4.599604e-07	-5.797303e-12	3.196422e+00	-2.061955e+00
1.950000e-06	5.066777e-07	1.128559e-11	3.521076e+00	-9.984509e-01
1.960000e-06	5.533100e-07	2.917660e-11	3.845140e+00	7.075518e-02
1.970000e-06	5.998378e-07	4.581248e-11	4.168477e+00	1.144783e+00
1.980000e-06	6.463570e-07	5.957604e-11	4.491755e+00	2.222743e+00
1.990000e-06	6.928532e-07	7.214982e-11	4.814873e+00	3.303732e+00
2.000000e-06	7.392690e-07	8.362826e-11	5.137432e+00	4.386846e+00
2.010000e-06	7.856503e-07	9.437251e-11	5.459752e+00	5.471179e+00
2.020000e-06	8.319835e-07	1.083982e-10	5.781737e+00	6.555823e+00
2.030000e-06	8.782136e-07	1.277430e-10	6.103006e+00	7.639880e+00
2.040000e-06	9.243817e-07	1.482095e-10	6.423844e+00	8.722457e+00
2.050000e-06	9.704998e-07	1.669523e-10	6.744334e+00	9.802675e+00
2.060000e-06	1.016540e-06	1.816836e-10	7.064284e+00	1.087967e+01
2.070000e-06	1.062454e-06	1.915471e-10	7.383354e+00	1.195259e+01
2.080000e-06	1.108351e-06	2.006927e-10	7.702309e+00	1.302061e+01
2.090000e-06	1.154265e-06	2.133858e-10	8.021382e+00	1.408293e+01
2.100000e-06	1.200035e-06	2.307354e-10	8.339452e+00	1.513877e+01
2.110000e-06	1.245652e-06	2.496291e-10	8.656461e+00	1.618738e+01
2.120000e-06	1.291162e-06	2.669681e-10	8.972727e+00	1.722803e+01
2.130000e-06	1.336598e-06	2.817372e-10	9.288474e+00	1.826005e+01
2.140000e-06	1.381952e-06	2.935292e-10	9.603655e+00	1.928277e+01
2.150000e-06	1.427223e-06	3.027428e-10	9.918259e+00	2.029558e+01
2.160000e-06	1.472412e-06	3.124079e-10	1.023229e+01	2.129788e+01
2.170000e-06	1.517453e-06	3.242783e-10	1.054530e+01	2.228913e+01
2.180000e-06	1.562323e-06	3.378790e-10	1.085711e+01	2.326883e+01
2.190000e-06	1.607106e-06	3.541998e-10	1.116833e+01	2.423649e+01
2.200000e-06	1.651862e-06	3.717785e-10	1.147935e+01	2.519167e+01
2.210000e-06	1.696457e-06	3.858836e-10	1.178926e+01	2.613399e+01
2.220000e-06	1.740835e-06	3.957245e-10	1.209765e+01	2.706308e+01
2.230000e-06	1.785179e-06	4.047277e-10	1.240582e+01	2.797862e+01
2.240000e-06	1.829449e-06	4.153090e-10	1.271346e+01	2.888032e+01
2.250000e-06	1.873498e-06	4.268883e-10	1.301958e+01	2.976793e+01
2.260000e-06	1.917390e-06	4.409815e-10	1.332460e+01	3.064123e+01
2.270000e-06	1.961162e-06	4.555860e-10	1.362878e+01	3.150005e+01
2.280000e-06	2.004872e-06	4.672660e-10	1.393254e+01	3.234423e+01
2.290000e-06	2.048575e-06	4.782350e-10	1.423625e+01	3.317367e+01
2.300000e-06	2.092244e-06	4.877131e-10	1.453972e+01	3.398826e+01
2.310000e-06	2.135811e-06	4.948187e-10	1.484248e+01	3.478796e+01
2.320000e-06	2.179259e-06	5.029407e-10	1.514441e+01	3.557272e+01
2.330000e-06	2.222608e-06	5.143156e-10	1.544566e+01	3.634256e+01
2.340000e-06	2.265830e-06	5.268916e-10	1.574602e+01	3.709748e+01
2.350000e-06	2.308874e-06	5.382268e-10	1.604515e+01	3.783753e+01
2.360000e-06	2.351741e-06	5.491213e-10	1.634305e+01	3.856278e+01
2.370000e-06	2.394414e-06	5.595990e-10	1.663960e+01	3.927329e+01
2.380000e-06	2.436827e-06	5.693084e-10	1.693434e+01	3.996917e+01
2.390000e-06	2.478893e-06	5.788118e-10	1.722667e+01	4.065054e+01
2.400000e-06	2.520623e-06	5.883073e-10	1.751667e+01	4.131753e+01
2.410000e-06	2.562109e-06	5.978714e-10	1.780497e+01	4.197028e+01
2.420000e-06	2.603286e-06	6.068998e-10	1.809112e+01	4.260895e+01
2.430000e-06	2.644120e-06	6.151504e-10	1.837489e+01	4.323369e+01
2.440000e-06	2.684681e-06	6.228094e-10	1.865677e+01	4.384470e+01
2.450000e-06	2.725023e-06	6.302069e-10	1.893711e+01	4.444214e+01
2.460000e-06	2.765112e-06	6.379681e-10	1.921570e+01	4.502621e+01
2.470000e-06	2.804988e-06	6.458013e-10	1.949282e+01	4.559710e+01
2.480000e-06	2.844790e-06	6.526199e-10	1.976942e+01	4.615502e+01
2.490000e-06	2.884494e-06	6.591200e-10	2.004533e+01	4.670017e+01
2.500000e-06	2.924003e-06	6.659408e-10	2.031989e+01	4.723275e+01
2.510000e-06	2.963423e-06	6.745828e-10	2.059384e+01	4.775298e+01
2.520000e-06	3.002737e-06	6.853099e-10	2.086704e+01	4.826106e+01
2.530000e-06	3.041794e-06	6.950874e-10	2.113846e+01	4.875722e+01
2.540000e-06	3.080683e-06	7.042039e-10	2.140872e+01	4.924166e+01
2.550000e-06	3.119377e-06	7.127919e-10	2.167761e+01	4.971459e+01
2.560000e-06	3.157793e-06	7.185836e-10	2.194458e+01	5.017624e+01
2.570000e-06	3.195965e-06	7.231664e-10	2.220985e+01	5.062680e+01
2.580000e-06	3.233898e-06	7.305972e-10	2.247346e+01	5.106650e+01
2.590000e-06	3.271657e-06	7.408804e-10	2.273586e+01	5.149554e+01
2.600000e-06	3.309234e-06	7.498530e-10	2.299700e+01	5.191414e+01
2.610000e-06	3.346665e-06	7.561293e-10	2.325711e+01	5.232249e+01
2.620000e-06	3.383881e-06	7.605943e-10	2.351574e+01	5.272081e+01
2.630000e-06	3.420696e-06	7.630088e-10	2.377158e+01	5.310929e+01
2.640000e-06	3.457166e-06	7.643866e-10	2.402502e+01	5.348815e+01
2.650000e-06	3.493394e-06	7.684429e-10	2.427678e+01	5.385756e+01
2.660000e-06	3.529488e-06	7.762907e-10	2.452762e+01	5.421773e+01
2.670000e-06	3.565466e-06	7.834374e-10	2.477764e+01	5.456886e+01
2.680000e-06	3.601291e-06	7.892646e-10	2.502660e+01	5.491113e+01
2.690000e-06	3.636994e-06	7.939805e-10	2.527471e+01	5.524472e+01
2.700000e-06	3.672494e-06	7.975450e-10	2.552141e+01	5.556982e+01
2.710000e-06	3.707758e-06	8.014507e-10	2.576647e+01	5.588660e+01
2.720000e-06	3.742853e-06	8.059024e-10	2.601036e+01	5.619525e+01
2.730000e-06	3.777640e-06	8.097556e-10	2.625211e+01	5.649593e+01
2.740000e-06	3.811887e-06	8.135586e-10	2.649011e+01	5.678881e+01
2.750000e-06	3.845743e-06	8.182153e-10	2.672538e+01	5.707405e+01
2.760000e-06	3.879190e-06	8.223209e-10	2.695781e+01	5.735181e+01
2.770000e-06	3.912153e-06	8.256502e-10	2.718688e+01	5.762224e+01
2.780000e-06	3.944743e-06	8.290679e-10	2.741336e+01	5.788548e+01
2.790000e-06	3.976971e-06	8.327687e-10	2.763732e+01	5.814169e+01
2.800000e-06	4.008989e-06	8.354727e-10	2.785983e+01	5.839100e+01
2.810000e-06	4.040847e-06	8.380341e-10	2.808122e+01	5.863354e+01
2.820000e-06	4.072511e-06	8.414332e-10	2.830127e+01	5.886943e+01
2.830000e-06	4.103981e-06	8.449642e-10	2.851996e+01	5.909881e+01
2.840000e-06	4.135186e-06	8.473402e-10	2.873681e+01	5.932178e+01
2.850000e-06	4.166165e-06	8.485418e-10	2.895210e+01	5.953845e+01
2.860000e-06	4.196838e-06	8.509594e-10	2.916526e+01	5.974894e+01
2.870000e-06	4.227156e-06	8.550620e-10	2.937595e+01	5.995333e+01
2.880000e-06	4.257207e-06	8.575849e-10	2.958478e+01	6.015173e+01
2.890000e-06	4.287004e-06	8.573696e-10	2.979186e+01	6.034422e+01
2.900000e-06	4.316528e-06	8.574537e-10	2.999703e+01	6.053088e+01
