# Temperatura_=_-0.5
# Concentracion g/m^3_=_1620.0
# C_Vs_to_Am_M_A/Vsm_=_65563218390.804596
# pendiente_HvsI_1/m_=_3716.3
# ordenada_HvsI_A/m_=_1297.0
# frecuencia_Hz_=_135098.8139651306

Tiempo_(s)	Campo_(V.s)	Magnetizacion_(V.s)	Campo_(kA/m)	Magnetizacion_(A/m)
0.000000e+00	-5.500828e-06	-1.352965e-09	-3.837903e+01	-8.862220e+01
1.000000e-08	-5.500963e-06	-1.351552e-09	-3.837997e+01	-8.860065e+01
2.000000e-08	-5.500829e-06	-1.354248e-09	-3.837904e+01	-8.857717e+01
3.000000e-08	-5.500312e-06	-1.359094e-09	-3.837542e+01	-8.855171e+01
4.000000e-08	-5.499176e-06	-1.361495e-09	-3.836750e+01	-8.852423e+01
5.000000e-08	-5.497409e-06	-1.357842e-09	-3.835518e+01	-8.849466e+01
6.000000e-08	-5.495040e-06	-1.352550e-09	-3.833864e+01	-8.846294e+01
7.000000e-08	-5.492155e-06	-1.355096e-09	-3.831852e+01	-8.842900e+01
8.000000e-08	-5.488867e-06	-1.358650e-09	-3.829558e+01	-8.839276e+01
9.000000e-08	-5.485178e-06	-1.348498e-09	-3.826984e+01	-8.835415e+01
1.000000e-07	-5.481081e-06	-1.344124e-09	-3.824126e+01	-8.831308e+01
1.100000e-07	-5.476693e-06	-1.342797e-09	-3.821064e+01	-8.826946e+01
1.200000e-07	-5.472063e-06	-1.367412e-09	-3.817833e+01	-8.822319e+01
1.300000e-07	-5.467169e-06	-1.368112e-09	-3.814419e+01	-8.817419e+01
1.400000e-07	-5.461941e-06	-1.342289e-09	-3.810771e+01	-8.812235e+01
1.500000e-07	-5.456272e-06	-1.326564e-09	-3.806817e+01	-8.806758e+01
1.600000e-07	-5.450220e-06	-1.336606e-09	-3.802594e+01	-8.800977e+01
1.700000e-07	-5.443838e-06	-1.357698e-09	-3.798141e+01	-8.794883e+01
1.800000e-07	-5.437016e-06	-1.343546e-09	-3.793381e+01	-8.788465e+01
1.900000e-07	-5.429788e-06	-1.350930e-09	-3.788338e+01	-8.781714e+01
2.000000e-07	-5.422301e-06	-1.356232e-09	-3.783115e+01	-8.774619e+01
2.100000e-07	-5.414516e-06	-1.380476e-09	-3.777684e+01	-8.767173e+01
2.200000e-07	-5.406431e-06	-1.358662e-09	-3.772043e+01	-8.759366e+01
2.300000e-07	-5.398053e-06	-1.352024e-09	-3.766197e+01	-8.751188e+01
2.400000e-07	-5.389174e-06	-1.349443e-09	-3.760002e+01	-8.742633e+01
2.500000e-07	-5.379598e-06	-1.363024e-09	-3.753321e+01	-8.733693e+01
2.600000e-07	-5.369287e-06	-1.353149e-09	-3.746127e+01	-8.724360e+01
2.700000e-07	-5.358415e-06	-1.340594e-09	-3.738542e+01	-8.714628e+01
2.800000e-07	-5.347146e-06	-1.328911e-09	-3.730679e+01	-8.704493e+01
2.900000e-07	-5.335542e-06	-1.325618e-09	-3.722584e+01	-8.693948e+01
3.000000e-07	-5.323597e-06	-1.318964e-09	-3.714249e+01	-8.682991e+01
3.100000e-07	-5.311218e-06	-1.306857e-09	-3.705613e+01	-8.671618e+01
3.200000e-07	-5.298389e-06	-1.314476e-09	-3.696662e+01	-8.659826e+01
3.300000e-07	-5.285156e-06	-1.317585e-09	-3.687430e+01	-8.647615e+01
3.400000e-07	-5.271604e-06	-1.314821e-09	-3.677974e+01	-8.634983e+01
3.500000e-07	-5.257698e-06	-1.299701e-09	-3.668272e+01	-8.621932e+01
3.600000e-07	-5.243295e-06	-1.308207e-09	-3.658223e+01	-8.608462e+01
3.700000e-07	-5.228344e-06	-1.298868e-09	-3.647792e+01	-8.594577e+01
3.800000e-07	-5.212843e-06	-1.293151e-09	-3.636977e+01	-8.580278e+01
3.900000e-07	-5.196791e-06	-1.287658e-09	-3.625778e+01	-8.565571e+01
4.000000e-07	-5.180360e-06	-1.297615e-09	-3.614314e+01	-8.550459e+01
4.100000e-07	-5.163681e-06	-1.279807e-09	-3.602677e+01	-8.534949e+01
4.200000e-07	-5.146654e-06	-1.276235e-09	-3.590797e+01	-8.519048e+01
4.300000e-07	-5.129281e-06	-1.284746e-09	-3.578676e+01	-8.502762e+01
4.400000e-07	-5.111679e-06	-1.286479e-09	-3.566395e+01	-8.486099e+01
4.500000e-07	-5.093725e-06	-1.261593e-09	-3.553869e+01	-8.469069e+01
4.600000e-07	-5.075175e-06	-1.266093e-09	-3.540927e+01	-8.451679e+01
4.700000e-07	-5.056204e-06	-1.274675e-09	-3.527690e+01	-8.433940e+01
4.800000e-07	-5.036984e-06	-1.263747e-09	-3.514281e+01	-8.415862e+01
4.900000e-07	-5.017494e-06	-1.252033e-09	-3.500683e+01	-8.397455e+01
5.000000e-07	-4.997769e-06	-1.266784e-09	-3.486921e+01	-8.378729e+01
5.100000e-07	-4.977777e-06	-1.259232e-09	-3.472973e+01	-8.359696e+01
5.200000e-07	-4.957461e-06	-1.243887e-09	-3.458798e+01	-8.340365e+01
5.300000e-07	-4.936812e-06	-1.251199e-09	-3.444392e+01	-8.320749e+01
5.400000e-07	-4.915820e-06	-1.255348e-09	-3.429746e+01	-8.300857e+01
5.500000e-07	-4.894482e-06	-1.235143e-09	-3.414858e+01	-8.280700e+01
5.600000e-07	-4.872815e-06	-1.234766e-09	-3.399741e+01	-8.260287e+01
5.700000e-07	-4.850807e-06	-1.247359e-09	-3.384386e+01	-8.239630e+01
5.800000e-07	-4.828483e-06	-1.233944e-09	-3.368811e+01	-8.218736e+01
5.900000e-07	-4.805770e-06	-1.224167e-09	-3.352964e+01	-8.197615e+01
6.000000e-07	-4.782673e-06	-1.235922e-09	-3.336849e+01	-8.176275e+01
6.100000e-07	-4.759335e-06	-1.235248e-09	-3.320566e+01	-8.154722e+01
6.200000e-07	-4.735809e-06	-1.219836e-09	-3.304152e+01	-8.132963e+01
6.300000e-07	-4.712088e-06	-1.225887e-09	-3.287603e+01	-8.111003e+01
6.400000e-07	-4.688069e-06	-1.225940e-09	-3.270844e+01	-8.088847e+01
6.500000e-07	-4.663646e-06	-1.213904e-09	-3.253805e+01	-8.066498e+01
6.600000e-07	-4.638814e-06	-1.209088e-09	-3.236479e+01	-8.043959e+01
6.700000e-07	-4.613518e-06	-1.211807e-09	-3.218831e+01	-8.021231e+01
6.800000e-07	-4.587703e-06	-1.195697e-09	-3.200820e+01	-7.998312e+01
6.900000e-07	-4.561261e-06	-1.188412e-09	-3.182371e+01	-7.975203e+01
7.000000e-07	-4.534324e-06	-1.188551e-09	-3.163577e+01	-7.951901e+01
7.100000e-07	-4.507075e-06	-1.183745e-09	-3.144566e+01	-7.928401e+01
7.200000e-07	-4.479626e-06	-1.175577e-09	-3.125415e+01	-7.904700e+01
7.300000e-07	-4.452048e-06	-1.180183e-09	-3.106174e+01	-7.880789e+01
7.400000e-07	-4.424211e-06	-1.174729e-09	-3.086752e+01	-7.856662e+01
7.500000e-07	-4.396074e-06	-1.166331e-09	-3.067121e+01	-7.832310e+01
7.600000e-07	-4.367694e-06	-1.163571e-09	-3.047320e+01	-7.807723e+01
7.700000e-07	-4.339036e-06	-1.159755e-09	-3.027326e+01	-7.782889e+01
7.800000e-07	-4.310013e-06	-1.148055e-09	-3.007076e+01	-7.757797e+01
7.900000e-07	-4.280658e-06	-1.145774e-09	-2.986596e+01	-7.732433e+01
8.000000e-07	-4.251103e-06	-1.142245e-09	-2.965976e+01	-7.706783e+01
8.100000e-07	-4.221296e-06	-1.132623e-09	-2.945179e+01	-7.680832e+01
8.200000e-07	-4.191135e-06	-1.125543e-09	-2.924136e+01	-7.654564e+01
8.300000e-07	-4.160686e-06	-1.123357e-09	-2.902892e+01	-7.627963e+01
8.400000e-07	-4.129968e-06	-1.116385e-09	-2.881460e+01	-7.601011e+01
8.500000e-07	-4.098994e-06	-1.111811e-09	-2.859849e+01	-7.573691e+01
8.600000e-07	-4.067789e-06	-1.112844e-09	-2.838078e+01	-7.545986e+01
8.700000e-07	-4.036336e-06	-1.107203e-09	-2.816133e+01	-7.517876e+01
8.800000e-07	-4.004708e-06	-1.098494e-09	-2.794066e+01	-7.489344e+01
8.900000e-07	-3.972927e-06	-1.092252e-09	-2.771893e+01	-7.460373e+01
9.000000e-07	-3.940814e-06	-1.083980e-09	-2.749488e+01	-7.430943e+01
9.100000e-07	-3.908413e-06	-1.075116e-09	-2.726882e+01	-7.401038e+01
9.200000e-07	-3.875688e-06	-1.074676e-09	-2.704050e+01	-7.370640e+01
9.300000e-07	-3.842468e-06	-1.073952e-09	-2.680873e+01	-7.339733e+01
9.400000e-07	-3.808841e-06	-1.069437e-09	-2.657411e+01	-7.308301e+01
9.500000e-07	-3.774752e-06	-1.064261e-09	-2.633627e+01	-7.276329e+01
9.600000e-07	-3.740282e-06	-1.059656e-09	-2.609578e+01	-7.243802e+01
9.700000e-07	-3.705489e-06	-1.049153e-09	-2.585303e+01	-7.210708e+01
9.800000e-07	-3.670332e-06	-1.042445e-09	-2.560774e+01	-7.177035e+01
9.900000e-07	-3.634953e-06	-1.041220e-09	-2.536090e+01	-7.142773e+01
1.000000e-06	-3.599420e-06	-1.041374e-09	-2.511299e+01	-7.107911e+01
1.010000e-06	-3.563761e-06	-1.038236e-09	-2.486420e+01	-7.072442e+01
1.020000e-06	-3.527964e-06	-1.036516e-09	-2.461444e+01	-7.036360e+01
1.030000e-06	-3.492026e-06	-1.030205e-09	-2.436371e+01	-6.999659e+01
1.040000e-06	-3.455872e-06	-1.020968e-09	-2.411147e+01	-6.962337e+01
1.050000e-06	-3.419451e-06	-1.012106e-09	-2.385735e+01	-6.924391e+01
1.060000e-06	-3.382802e-06	-1.007006e-09	-2.360166e+01	-6.885822e+01
1.070000e-06	-3.345894e-06	-1.001180e-09	-2.334415e+01	-6.846630e+01
1.080000e-06	-3.308608e-06	-9.970804e-10	-2.308401e+01	-6.806818e+01
1.090000e-06	-3.271019e-06	-9.925690e-10	-2.282175e+01	-6.766391e+01
1.100000e-06	-3.233296e-06	-9.845696e-10	-2.255856e+01	-6.725355e+01
1.110000e-06	-3.195362e-06	-9.740657e-10	-2.229389e+01	-6.683716e+01
1.120000e-06	-3.157255e-06	-9.663781e-10	-2.202803e+01	-6.641484e+01
1.130000e-06	-3.119016e-06	-9.612355e-10	-2.176123e+01	-6.598666e+01
1.140000e-06	-3.080530e-06	-9.560456e-10	-2.149272e+01	-6.555275e+01
1.150000e-06	-3.041864e-06	-9.514043e-10	-2.122295e+01	-6.511321e+01
1.160000e-06	-3.002970e-06	-9.469621e-10	-2.095159e+01	-6.466817e+01
1.170000e-06	-2.963787e-06	-9.389538e-10	-2.067821e+01	-6.421775e+01
1.180000e-06	-2.924433e-06	-9.290029e-10	-2.040364e+01	-6.376208e+01
1.190000e-06	-2.884966e-06	-9.193693e-10	-2.012827e+01	-6.330130e+01
1.200000e-06	-2.845375e-06	-9.098491e-10	-1.985205e+01	-6.283554e+01
1.210000e-06	-2.805692e-06	-9.022872e-10	-1.957518e+01	-6.236492e+01
1.220000e-06	-2.765858e-06	-8.969005e-10	-1.929727e+01	-6.188958e+01
1.230000e-06	-2.725829e-06	-8.922772e-10	-1.901799e+01	-6.140963e+01
1.240000e-06	-2.685653e-06	-8.831919e-10	-1.873768e+01	-6.092517e+01
1.250000e-06	-2.645346e-06	-8.750328e-10	-1.845646e+01	-6.043632e+01
1.260000e-06	-2.604809e-06	-8.656901e-10	-1.817363e+01	-5.994315e+01
1.270000e-06	-2.563855e-06	-8.544446e-10	-1.788790e+01	-5.944574e+01
1.280000e-06	-2.522473e-06	-8.435686e-10	-1.759918e+01	-5.894412e+01
1.290000e-06	-2.480805e-06	-8.342783e-10	-1.730846e+01	-5.843834e+01
1.300000e-06	-2.438931e-06	-8.244871e-10	-1.701631e+01	-5.792839e+01
1.310000e-06	-2.396721e-06	-8.140904e-10	-1.672181e+01	-5.741427e+01
1.320000e-06	-2.354199e-06	-8.054753e-10	-1.642514e+01	-5.689592e+01
1.330000e-06	-2.311585e-06	-7.979713e-10	-1.612782e+01	-5.637328e+01
1.340000e-06	-2.268739e-06	-7.896229e-10	-1.582889e+01	-5.584624e+01
1.350000e-06	-2.225597e-06	-7.819627e-10	-1.552789e+01	-5.531468e+01
1.360000e-06	-2.182379e-06	-7.739659e-10	-1.522636e+01	-5.477841e+01
1.370000e-06	-2.139093e-06	-7.641735e-10	-1.492435e+01	-5.423725e+01
1.380000e-06	-2.095673e-06	-7.531357e-10	-1.462141e+01	-5.369097e+01
1.390000e-06	-2.052112e-06	-7.409281e-10	-1.431749e+01	-5.313928e+01
1.400000e-06	-2.008470e-06	-7.292817e-10	-1.401301e+01	-5.258189e+01
1.410000e-06	-1.964714e-06	-7.212048e-10	-1.370772e+01	-5.201847e+01
1.420000e-06	-1.920870e-06	-7.154633e-10	-1.340182e+01	-5.144862e+01
1.430000e-06	-1.876970e-06	-7.108700e-10	-1.309554e+01	-5.087195e+01
1.440000e-06	-1.833003e-06	-7.009511e-10	-1.278878e+01	-5.028802e+01
1.450000e-06	-1.788937e-06	-6.892819e-10	-1.248134e+01	-4.969634e+01
1.460000e-06	-1.744725e-06	-6.769304e-10	-1.217287e+01	-4.909641e+01
1.470000e-06	-1.700363e-06	-6.639976e-10	-1.186336e+01	-4.848769e+01
1.480000e-06	-1.655838e-06	-6.553187e-10	-1.155271e+01	-4.786962e+01
1.490000e-06	-1.611213e-06	-6.508536e-10	-1.124136e+01	-4.724161e+01
1.500000e-06	-1.566492e-06	-6.457477e-10	-1.092935e+01	-4.660304e+01
1.510000e-06	-1.521629e-06	-6.378481e-10	-1.061634e+01	-4.595328e+01
1.520000e-06	-1.476566e-06	-6.266284e-10	-1.030194e+01	-4.529168e+01
1.530000e-06	-1.431402e-06	-6.155425e-10	-9.986827e+00	-4.461757e+01
1.540000e-06	-1.386203e-06	-6.053427e-10	-9.671475e+00	-4.393028e+01
1.550000e-06	-1.340934e-06	-5.933651e-10	-9.355638e+00	-4.322912e+01
1.560000e-06	-1.295610e-06	-5.833205e-10	-9.039415e+00	-4.251340e+01
1.570000e-06	-1.250168e-06	-5.749429e-10	-8.722362e+00	-4.178245e+01
1.580000e-06	-1.204589e-06	-5.632689e-10	-8.404365e+00	-4.103557e+01
1.590000e-06	-1.158892e-06	-5.470306e-10	-8.085540e+00	-4.027209e+01
1.600000e-06	-1.113119e-06	-5.318804e-10	-7.766179e+00	-3.949135e+01
1.610000e-06	-1.067268e-06	-5.159218e-10	-7.446280e+00	-3.869272e+01
1.620000e-06	-1.021326e-06	-4.993436e-10	-7.125746e+00	-3.787557e+01
1.630000e-06	-9.754062e-07	-4.827001e-10	-6.805365e+00	-3.703930e+01
1.640000e-06	-9.294697e-07	-4.697393e-10	-6.484868e+00	-3.618335e+01
1.650000e-06	-8.834438e-07	-4.603215e-10	-6.163747e+00	-3.530719e+01
1.660000e-06	-8.373229e-07	-4.496751e-10	-5.841964e+00	-3.441034e+01
1.670000e-06	-7.911019e-07	-4.350874e-10	-5.519482e+00	-3.349234e+01
1.680000e-06	-7.448963e-07	-4.173894e-10	-5.197108e+00	-3.255278e+01
1.690000e-06	-6.986524e-07	-3.997281e-10	-4.874466e+00	-3.159134e+01
1.700000e-06	-6.523950e-07	-3.819363e-10	-4.551731e+00	-3.060769e+01
1.710000e-06	-6.061135e-07	-3.651224e-10	-4.228826e+00	-2.960161e+01
1.720000e-06	-5.597621e-07	-3.505717e-10	-3.905435e+00	-2.857292e+01
1.730000e-06	-5.133200e-07	-3.378200e-10	-3.581411e+00	-2.752150e+01
1.740000e-06	-4.667435e-07	-3.244015e-10	-3.256448e+00	-2.644730e+01
1.750000e-06	-4.201994e-07	-3.086029e-10	-2.931712e+00	-2.535033e+01
1.760000e-06	-3.736081e-07	-2.920253e-10	-2.606647e+00	-2.423069e+01
1.770000e-06	-3.268466e-07	-2.745799e-10	-2.280394e+00	-2.308852e+01
1.780000e-06	-2.800791e-07	-2.558455e-10	-1.954099e+00	-2.192407e+01
1.790000e-06	-2.333332e-07	-2.371657e-10	-1.627955e+00	-2.073762e+01
1.800000e-06	-1.866000e-07	-2.206936e-10	-1.301900e+00	-1.952955e+01
1.810000e-06	-1.400046e-07	-2.051505e-10	-9.768056e-01	-1.830031e+01
1.820000e-06	-9.333866e-08	-1.884821e-10	-6.512196e-01	-1.705041e+01
1.830000e-06	-4.660557e-08	-1.715490e-10	-3.251650e-01	-1.578044e+01
1.840000e-06	1.323365e-11	-1.541904e-10	9.233055e-05	-1.449106e+01
1.850000e-06	4.658750e-08	-1.372146e-10	3.250389e-01	-1.318300e+01
1.860000e-06	9.318312e-08	-1.180542e-10	6.501344e-01	-1.185705e+01
1.870000e-06	1.397942e-07	-9.624417e-11	9.753380e-01	-1.051406e+01
1.880000e-06	1.864448e-07	-7.503860e-11	1.300817e+00	-9.154941e+00
1.890000e-06	2.332195e-07	-5.674241e-11	1.627162e+00	-7.780679e+00
1.900000e-06	2.799018e-07	-4.104277e-11	1.952862e+00	-6.392295e+00
1.910000e-06	3.264577e-07	-2.361064e-11	2.277680e+00	-4.990867e+00
1.920000e-06	3.729707e-07	-3.480388e-12	2.602200e+00	-3.577520e+00
1.930000e-06	4.194053e-07	1.793363e-11	2.926172e+00	-2.153419e+00
1.940000e-06	4.658316e-07	3.994331e-11	3.250086e+00	-7.197675e-01
1.950000e-06	5.123458e-07	6.115265e-11	3.574613e+00	7.221982e-01
1.960000e-06	5.588412e-07	7.916379e-11	3.899010e+00	2.171214e+00
1.970000e-06	6.051667e-07	9.577315e-11	4.222221e+00	3.625992e+00
1.980000e-06	6.514155e-07	1.130408e-10	4.544896e+00	5.085229e+00
1.990000e-06	6.976641e-07	1.304699e-10	4.867571e+00	6.547606e+00
2.000000e-06	7.438285e-07	1.513658e-10	5.189658e+00	8.011797e+00
2.010000e-06	7.899383e-07	1.744238e-10	5.511364e+00	9.476476e+00
2.020000e-06	8.360373e-07	1.977641e-10	5.832995e+00	1.094032e+01
2.030000e-06	8.820722e-07	2.215164e-10	6.154178e+00	1.240201e+01
2.040000e-06	9.280352e-07	2.423379e-10	6.474860e+00	1.386024e+01
2.050000e-06	9.739650e-07	2.592204e-10	6.795310e+00	1.531372e+01
2.060000e-06	1.019848e-06	2.749783e-10	7.115431e+00	1.676121e+01
2.070000e-06	1.065665e-06	2.935936e-10	7.435099e+00	1.820145e+01
2.080000e-06	1.111406e-06	3.147814e-10	7.754233e+00	1.963325e+01
2.090000e-06	1.157035e-06	3.381526e-10	8.072580e+00	2.105543e+01
2.100000e-06	1.202638e-06	3.610438e-10	8.390752e+00	2.246688e+01
2.110000e-06	1.248133e-06	3.821407e-10	8.708171e+00	2.386650e+01
2.120000e-06	1.293461e-06	4.000825e-10	9.024416e+00	2.525327e+01
2.130000e-06	1.338751e-06	4.151011e-10	9.340402e+00	2.662618e+01
2.140000e-06	1.384013e-06	4.312311e-10	9.656194e+00	2.798432e+01
2.150000e-06	1.429174e-06	4.484544e-10	9.971285e+00	2.932679e+01
2.160000e-06	1.474222e-06	4.669481e-10	1.028558e+01	3.065278e+01
2.170000e-06	1.519098e-06	4.862025e-10	1.059868e+01	3.196153e+01
2.180000e-06	1.563813e-06	5.050971e-10	1.091065e+01	3.325233e+01
2.190000e-06	1.608445e-06	5.246901e-10	1.122205e+01	3.452454e+01
2.200000e-06	1.652983e-06	5.412673e-10	1.153279e+01	3.577758e+01
2.210000e-06	1.697323e-06	5.545637e-10	1.184215e+01	3.701094e+01
2.220000e-06	1.741439e-06	5.660314e-10	1.214994e+01	3.822416e+01
2.230000e-06	1.785472e-06	5.779749e-10	1.245716e+01	3.941685e+01
2.240000e-06	1.829484e-06	5.931529e-10	1.276423e+01	4.058867e+01
2.250000e-06	1.873390e-06	6.108897e-10	1.307056e+01	4.173937e+01
2.260000e-06	1.917163e-06	6.292324e-10	1.337596e+01	4.286871e+01
2.270000e-06	1.960897e-06	6.449601e-10	1.368109e+01	4.397656e+01
2.280000e-06	2.004582e-06	6.585089e-10	1.398588e+01	4.506282e+01
2.290000e-06	2.048197e-06	6.707027e-10	1.429018e+01	4.612743e+01
2.300000e-06	2.091768e-06	6.819157e-10	1.459417e+01	4.717040e+01
2.310000e-06	2.135284e-06	6.948034e-10	1.489778e+01	4.819180e+01
2.320000e-06	2.178745e-06	7.096666e-10	1.520101e+01	4.919172e+01
2.330000e-06	2.222075e-06	7.257265e-10	1.550332e+01	5.017031e+01
2.340000e-06	2.265275e-06	7.423797e-10	1.580472e+01	5.112775e+01
2.350000e-06	2.308278e-06	7.562785e-10	1.610475e+01	5.206426e+01
2.360000e-06	2.350921e-06	7.670729e-10	1.640227e+01	5.298011e+01
2.370000e-06	2.393285e-06	7.764913e-10	1.669784e+01	5.387558e+01
2.380000e-06	2.435322e-06	7.878526e-10	1.699113e+01	5.475098e+01
2.390000e-06	2.476989e-06	8.018478e-10	1.728184e+01	5.560667e+01
2.400000e-06	2.518316e-06	8.170800e-10	1.757018e+01	5.644300e+01
2.410000e-06	2.559365e-06	8.313085e-10	1.785658e+01	5.726035e+01
2.420000e-06	2.600245e-06	8.426754e-10	1.814180e+01	5.805912e+01
2.430000e-06	2.640818e-06	8.521733e-10	1.842487e+01	5.883971e+01
2.440000e-06	2.681022e-06	8.598092e-10	1.870537e+01	5.960256e+01
2.450000e-06	2.721016e-06	8.663249e-10	1.898440e+01	6.034807e+01
2.460000e-06	2.760878e-06	8.735116e-10	1.926252e+01	6.107668e+01
2.470000e-06	2.800658e-06	8.812741e-10	1.954006e+01	6.178882e+01
2.480000e-06	2.840370e-06	8.901779e-10	1.981713e+01	6.248492e+01
2.490000e-06	2.879960e-06	8.995397e-10	2.009335e+01	6.316540e+01
2.500000e-06	2.919404e-06	9.101836e-10	2.036855e+01	6.383069e+01
2.510000e-06	2.958713e-06	9.214826e-10	2.064280e+01	6.448119e+01
2.520000e-06	2.997862e-06	9.309785e-10	2.091595e+01	6.511732e+01
2.530000e-06	3.036759e-06	9.407652e-10	2.118733e+01	6.573947e+01
2.540000e-06	3.075349e-06	9.506850e-10	2.145657e+01	6.634801e+01
2.550000e-06	3.113695e-06	9.593506e-10	2.172411e+01	6.694333e+01
2.560000e-06	3.151869e-06	9.671465e-10	2.199045e+01	6.752578e+01
2.570000e-06	3.189876e-06	9.744747e-10	2.225562e+01	6.809570e+01
2.580000e-06	3.227724e-06	9.824858e-10	2.251968e+01	6.865343e+01
2.590000e-06	3.265399e-06	9.916764e-10	2.278254e+01	6.919926e+01
2.600000e-06	3.302838e-06	1.001019e-09	2.304375e+01	6.973352e+01
2.610000e-06	3.339938e-06	1.008425e-09	2.330259e+01	7.025647e+01
2.620000e-06	3.376833e-06	1.014703e-09	2.356001e+01	7.076839e+01
2.630000e-06	3.413497e-06	1.022399e-09	2.381581e+01	7.126953e+01
2.640000e-06	3.449821e-06	1.030397e-09	2.406924e+01	7.176014e+01
2.650000e-06	3.485904e-06	1.037863e-09	2.432099e+01	7.224042e+01
2.660000e-06	3.521837e-06	1.044799e-09	2.457170e+01	7.271061e+01
2.670000e-06	3.557626e-06	1.052286e-09	2.482140e+01	7.317090e+01
2.680000e-06	3.593275e-06	1.060387e-09	2.507012e+01	7.362147e+01
2.690000e-06	3.628837e-06	1.067299e-09	2.531823e+01	7.406252e+01
2.700000e-06	3.664258e-06	1.073075e-09	2.556536e+01	7.449419e+01
2.710000e-06	3.699482e-06	1.079576e-09	2.581112e+01	7.491665e+01
2.720000e-06	3.734470e-06	1.086115e-09	2.605523e+01	7.533005e+01
2.730000e-06	3.769029e-06	1.091934e-09	2.629634e+01	7.573454e+01
2.740000e-06	3.803051e-06	1.097478e-09	2.653371e+01	7.613024e+01
2.750000e-06	3.836711e-06	1.102124e-09	2.676856e+01	7.651730e+01
2.760000e-06	3.869925e-06	1.106397e-09	2.700029e+01	7.689583e+01
2.770000e-06	3.902619e-06	1.111203e-09	2.722839e+01	7.726596e+01
2.780000e-06	3.934923e-06	1.117373e-09	2.745378e+01	7.762780e+01
2.790000e-06	3.966940e-06	1.124056e-09	2.767716e+01	7.798148e+01
2.800000e-06	3.998736e-06	1.129828e-09	2.789900e+01	7.832711e+01
2.810000e-06	4.030392e-06	1.134499e-09	2.811986e+01	7.866480e+01
2.820000e-06	4.061929e-06	1.138751e-09	2.833989e+01	7.899468e+01
2.830000e-06	4.093244e-06	1.142951e-09	2.855838e+01	7.931685e+01
2.840000e-06	4.124367e-06	1.146412e-09	2.877552e+01	7.963143e+01
2.850000e-06	4.155192e-06	1.151028e-09	2.899059e+01	7.993853e+01
2.860000e-06	4.185666e-06	1.157324e-09	2.920320e+01	8.023828e+01
2.870000e-06	4.215753e-06	1.161790e-09	2.941312e+01	8.053079e+01
2.880000e-06	4.245561e-06	1.164289e-09	2.962109e+01	8.081618e+01
2.890000e-06	4.275210e-06	1.165755e-09	2.982795e+01	8.109458e+01
2.900000e-06	4.304559e-06	1.168251e-09	3.003271e+01	8.136610e+01
