# Temperatura_=_-0.4
# Concentracion g/m^3_=_1620.0
# C_Vs_to_Am_M_A/Vsm_=_65563218390.804596
# pendiente_HvsI_1/m_=_3716.3
# ordenada_HvsI_A/m_=_1297.0
# frecuencia_Hz_=_135094.0391128737

Tiempo_(s)	Campo_(V.s)	Magnetizacion_(V.s)	Campo_(kA/m)	Magnetizacion_(A/m)
0.000000e+00	-5.531261e-06	-1.474795e-09	-3.837713e+01	-9.689893e+01
1.000000e-08	-5.531387e-06	-1.472428e-09	-3.837800e+01	-9.684931e+01
2.000000e-08	-5.531320e-06	-1.471827e-09	-3.837754e+01	-9.679564e+01
3.000000e-08	-5.530923e-06	-1.471645e-09	-3.837479e+01	-9.673805e+01
4.000000e-08	-5.530057e-06	-1.474083e-09	-3.836878e+01	-9.667668e+01
5.000000e-08	-5.528674e-06	-1.477576e-09	-3.835918e+01	-9.661169e+01
6.000000e-08	-5.526710e-06	-1.482782e-09	-3.834556e+01	-9.654324e+01
7.000000e-08	-5.524100e-06	-1.480568e-09	-3.832745e+01	-9.647148e+01
8.000000e-08	-5.520865e-06	-1.456776e-09	-3.830500e+01	-9.639659e+01
9.000000e-08	-5.517073e-06	-1.458458e-09	-3.827869e+01	-9.631875e+01
1.000000e-07	-5.512895e-06	-1.505258e-09	-3.824970e+01	-9.623812e+01
1.100000e-07	-5.508478e-06	-1.549471e-09	-3.821906e+01	-9.615489e+01
1.200000e-07	-5.503841e-06	-1.440382e-09	-3.818688e+01	-9.606922e+01
1.300000e-07	-5.498986e-06	-1.434066e-09	-3.815320e+01	-9.598129e+01
1.400000e-07	-5.493757e-06	-1.476880e-09	-3.811692e+01	-9.589127e+01
1.500000e-07	-5.487974e-06	-1.539639e-09	-3.807680e+01	-9.579932e+01
1.600000e-07	-5.481863e-06	-1.461440e-09	-3.803440e+01	-9.570559e+01
1.700000e-07	-5.475504e-06	-1.408973e-09	-3.799027e+01	-9.561023e+01
1.800000e-07	-5.468644e-06	-1.470550e-09	-3.794268e+01	-9.551337e+01
1.900000e-07	-5.461287e-06	-1.490320e-09	-3.789164e+01	-9.541514e+01
2.000000e-07	-5.453712e-06	-1.470182e-09	-3.783908e+01	-9.531565e+01
2.100000e-07	-5.445963e-06	-1.429245e-09	-3.778531e+01	-9.521500e+01
2.200000e-07	-5.437943e-06	-1.471712e-09	-3.772967e+01	-9.511326e+01
2.300000e-07	-5.429555e-06	-1.459618e-09	-3.767148e+01	-9.501050e+01
2.400000e-07	-5.420752e-06	-1.453417e-09	-3.761039e+01	-9.490677e+01
2.500000e-07	-5.411440e-06	-1.409135e-09	-3.754579e+01	-9.480210e+01
2.600000e-07	-5.401372e-06	-1.437006e-09	-3.747593e+01	-9.469650e+01
2.700000e-07	-5.390563e-06	-1.429045e-09	-3.740094e+01	-9.458996e+01
2.800000e-07	-5.379267e-06	-1.440767e-09	-3.732256e+01	-9.448247e+01
2.900000e-07	-5.367595e-06	-1.410793e-09	-3.724158e+01	-9.437397e+01
3.000000e-07	-5.355537e-06	-1.421788e-09	-3.715792e+01	-9.426440e+01
3.100000e-07	-5.343193e-06	-1.417505e-09	-3.707227e+01	-9.415369e+01
3.200000e-07	-5.330447e-06	-1.427790e-09	-3.698384e+01	-9.404172e+01
3.300000e-07	-5.317091e-06	-1.393066e-09	-3.689117e+01	-9.392838e+01
3.400000e-07	-5.303381e-06	-1.396287e-09	-3.679605e+01	-9.381355e+01
3.500000e-07	-5.289351e-06	-1.412914e-09	-3.669871e+01	-9.369706e+01
3.600000e-07	-5.274864e-06	-1.409954e-09	-3.659819e+01	-9.357875e+01
3.700000e-07	-5.259865e-06	-1.383354e-09	-3.649412e+01	-9.345845e+01
3.800000e-07	-5.244378e-06	-1.405812e-09	-3.638667e+01	-9.333597e+01
3.900000e-07	-5.228465e-06	-1.409807e-09	-3.627626e+01	-9.321111e+01
4.000000e-07	-5.212020e-06	-1.362770e-09	-3.616217e+01	-9.308365e+01
4.100000e-07	-5.195151e-06	-1.387457e-09	-3.604512e+01	-9.295339e+01
4.200000e-07	-5.177966e-06	-1.422885e-09	-3.592589e+01	-9.282009e+01
4.300000e-07	-5.160508e-06	-1.381365e-09	-3.580476e+01	-9.268355e+01
4.400000e-07	-5.142782e-06	-1.339359e-09	-3.568178e+01	-9.254352e+01
4.500000e-07	-5.124731e-06	-1.413004e-09	-3.555654e+01	-9.239979e+01
4.600000e-07	-5.106205e-06	-1.392219e-09	-3.542800e+01	-9.225213e+01
4.700000e-07	-5.087213e-06	-1.330169e-09	-3.529623e+01	-9.210032e+01
4.800000e-07	-5.067895e-06	-1.357800e-09	-3.516219e+01	-9.194416e+01
4.900000e-07	-5.048323e-06	-1.411708e-09	-3.502640e+01	-9.178343e+01
5.000000e-07	-5.028502e-06	-1.332928e-09	-3.488888e+01	-9.161794e+01
5.100000e-07	-5.008502e-06	-1.338202e-09	-3.475011e+01	-9.144751e+01
5.200000e-07	-4.988325e-06	-1.384311e-09	-3.461012e+01	-9.127198e+01
5.300000e-07	-4.967757e-06	-1.346009e-09	-3.446741e+01	-9.109117e+01
5.400000e-07	-4.946740e-06	-1.297802e-09	-3.432159e+01	-9.090497e+01
5.500000e-07	-4.925368e-06	-1.366169e-09	-3.417331e+01	-9.071324e+01
5.600000e-07	-4.903606e-06	-1.348517e-09	-3.402232e+01	-9.051588e+01
5.700000e-07	-4.881523e-06	-1.295853e-09	-3.386910e+01	-9.031281e+01
5.800000e-07	-4.859139e-06	-1.326409e-09	-3.371380e+01	-9.010396e+01
5.900000e-07	-4.836354e-06	-1.351916e-09	-3.355571e+01	-8.988929e+01
6.000000e-07	-4.813195e-06	-1.293105e-09	-3.339503e+01	-8.966878e+01
6.100000e-07	-4.789755e-06	-1.304078e-09	-3.323239e+01	-8.944242e+01
6.200000e-07	-4.766048e-06	-1.336826e-09	-3.306791e+01	-8.921024e+01
6.300000e-07	-4.742147e-06	-1.304423e-09	-3.290208e+01	-8.897226e+01
6.400000e-07	-4.718042e-06	-1.287354e-09	-3.273484e+01	-8.872855e+01
6.500000e-07	-4.693606e-06	-1.312507e-09	-3.256529e+01	-8.847918e+01
6.600000e-07	-4.668746e-06	-1.293743e-09	-3.239281e+01	-8.822424e+01
6.700000e-07	-4.643309e-06	-1.268451e-09	-3.221632e+01	-8.796386e+01
6.800000e-07	-4.617389e-06	-1.287974e-09	-3.203648e+01	-8.769814e+01
6.900000e-07	-4.590968e-06	-1.284639e-09	-3.185317e+01	-8.742724e+01
7.000000e-07	-4.563991e-06	-1.266226e-09	-3.166599e+01	-8.715131e+01
7.100000e-07	-4.536600e-06	-1.266480e-09	-3.147595e+01	-8.687050e+01
7.200000e-07	-4.508897e-06	-1.268256e-09	-3.128374e+01	-8.658500e+01
7.300000e-07	-4.481004e-06	-1.246451e-09	-3.109021e+01	-8.629497e+01
7.400000e-07	-4.452966e-06	-1.246519e-09	-3.089568e+01	-8.600061e+01
7.500000e-07	-4.424786e-06	-1.243741e-09	-3.070016e+01	-8.570209e+01
7.600000e-07	-4.396388e-06	-1.239979e-09	-3.050313e+01	-8.539961e+01
7.700000e-07	-4.367683e-06	-1.231433e-09	-3.030396e+01	-8.509336e+01
7.800000e-07	-4.338589e-06	-1.233540e-09	-3.010211e+01	-8.478350e+01
7.900000e-07	-4.309109e-06	-1.218252e-09	-2.989757e+01	-8.447022e+01
8.000000e-07	-4.279330e-06	-1.213982e-09	-2.969095e+01	-8.415369e+01
8.100000e-07	-4.249311e-06	-1.208511e-09	-2.948268e+01	-8.383406e+01
8.200000e-07	-4.219041e-06	-1.203841e-09	-2.927265e+01	-8.351149e+01
8.300000e-07	-4.188486e-06	-1.190430e-09	-2.906066e+01	-8.318610e+01
8.400000e-07	-4.157621e-06	-1.193761e-09	-2.884651e+01	-8.285802e+01
8.500000e-07	-4.126485e-06	-1.189071e-09	-2.863048e+01	-8.252735e+01
8.600000e-07	-4.095111e-06	-1.181710e-09	-2.841280e+01	-8.219417e+01
8.700000e-07	-4.063532e-06	-1.174906e-09	-2.819370e+01	-8.185855e+01
8.800000e-07	-4.031795e-06	-1.174440e-09	-2.797350e+01	-8.152055e+01
8.900000e-07	-3.999902e-06	-1.163193e-09	-2.775222e+01	-8.118018e+01
9.000000e-07	-3.967816e-06	-1.154192e-09	-2.752960e+01	-8.083745e+01
9.100000e-07	-3.935429e-06	-1.149294e-09	-2.730489e+01	-8.049236e+01
9.200000e-07	-3.902597e-06	-1.144670e-09	-2.707710e+01	-8.014487e+01
9.300000e-07	-3.869337e-06	-1.138908e-09	-2.684633e+01	-7.979492e+01
9.400000e-07	-3.835736e-06	-1.143453e-09	-2.661320e+01	-7.944244e+01
9.500000e-07	-3.801686e-06	-1.139746e-09	-2.637695e+01	-7.908734e+01
9.600000e-07	-3.767153e-06	-1.124144e-09	-2.613735e+01	-7.872951e+01
9.700000e-07	-3.732223e-06	-1.114851e-09	-2.589500e+01	-7.836881e+01
9.800000e-07	-3.696924e-06	-1.109704e-09	-2.565009e+01	-7.800510e+01
9.900000e-07	-3.661345e-06	-1.104988e-09	-2.540323e+01	-7.763822e+01
1.000000e-06	-3.625573e-06	-1.101045e-09	-2.515504e+01	-7.726799e+01
1.010000e-06	-3.589678e-06	-1.106135e-09	-2.490599e+01	-7.689424e+01
1.020000e-06	-3.553715e-06	-1.103596e-09	-2.465647e+01	-7.651676e+01
1.030000e-06	-3.517572e-06	-1.095639e-09	-2.440571e+01	-7.613535e+01
1.040000e-06	-3.481165e-06	-1.085437e-09	-2.415310e+01	-7.574981e+01
1.050000e-06	-3.444552e-06	-1.079584e-09	-2.389908e+01	-7.535991e+01
1.060000e-06	-3.407796e-06	-1.065354e-09	-2.364405e+01	-7.496545e+01
1.070000e-06	-3.370727e-06	-1.059626e-09	-2.338686e+01	-7.456622e+01
1.080000e-06	-3.333287e-06	-1.056316e-09	-2.312709e+01	-7.416199e+01
1.090000e-06	-3.295563e-06	-1.054841e-09	-2.286535e+01	-7.375256e+01
1.100000e-06	-3.257646e-06	-1.047319e-09	-2.260228e+01	-7.333773e+01
1.110000e-06	-3.219558e-06	-1.044788e-09	-2.233802e+01	-7.291730e+01
1.120000e-06	-3.181239e-06	-1.035569e-09	-2.207215e+01	-7.249108e+01
1.130000e-06	-3.142651e-06	-1.023874e-09	-2.180442e+01	-7.205891e+01
1.140000e-06	-3.103789e-06	-1.014684e-09	-2.153479e+01	-7.162061e+01
1.150000e-06	-3.064768e-06	-1.011042e-09	-2.126405e+01	-7.117603e+01
1.160000e-06	-3.025671e-06	-1.003427e-09	-2.099279e+01	-7.072504e+01
1.170000e-06	-2.986378e-06	-9.965302e-10	-2.072016e+01	-7.026752e+01
1.180000e-06	-2.946804e-06	-9.892840e-10	-2.044559e+01	-6.980335e+01
1.190000e-06	-2.907109e-06	-9.824471e-10	-2.017017e+01	-6.933245e+01
1.200000e-06	-2.867320e-06	-9.726048e-10	-1.989411e+01	-6.885474e+01
1.210000e-06	-2.827416e-06	-9.638591e-10	-1.961725e+01	-6.837015e+01
1.220000e-06	-2.787390e-06	-9.539150e-10	-1.933954e+01	-6.787863e+01
1.230000e-06	-2.747178e-06	-9.431025e-10	-1.906053e+01	-6.738015e+01
1.240000e-06	-2.706772e-06	-9.347602e-10	-1.878019e+01	-6.687468e+01
1.250000e-06	-2.666198e-06	-9.282196e-10	-1.849868e+01	-6.636221e+01
1.260000e-06	-2.625447e-06	-9.218720e-10	-1.821594e+01	-6.584273e+01
1.270000e-06	-2.584388e-06	-9.138575e-10	-1.793107e+01	-6.531625e+01
1.280000e-06	-2.543049e-06	-9.067477e-10	-1.764425e+01	-6.478277e+01
1.290000e-06	-2.501406e-06	-8.976182e-10	-1.735532e+01	-6.424231e+01
1.300000e-06	-2.459399e-06	-8.856853e-10	-1.706386e+01	-6.369487e+01
1.310000e-06	-2.417060e-06	-8.736222e-10	-1.677011e+01	-6.314046e+01
1.320000e-06	-2.374359e-06	-8.672257e-10	-1.647384e+01	-6.257909e+01
1.330000e-06	-2.331398e-06	-8.592095e-10	-1.617577e+01	-6.201075e+01
1.340000e-06	-2.288225e-06	-8.507641e-10	-1.587622e+01	-6.143544e+01
1.350000e-06	-2.244884e-06	-8.436134e-10	-1.557551e+01	-6.085312e+01
1.360000e-06	-2.201424e-06	-8.365914e-10	-1.527397e+01	-6.026376e+01
1.370000e-06	-2.157769e-06	-8.268834e-10	-1.497109e+01	-5.966730e+01
1.380000e-06	-2.113965e-06	-8.185243e-10	-1.466717e+01	-5.906366e+01
1.390000e-06	-2.070118e-06	-8.063161e-10	-1.436295e+01	-5.845273e+01
1.400000e-06	-2.026203e-06	-7.932494e-10	-1.405825e+01	-5.783440e+01
1.410000e-06	-1.982240e-06	-7.827562e-10	-1.375323e+01	-5.720849e+01
1.420000e-06	-1.938261e-06	-7.772523e-10	-1.344809e+01	-5.657484e+01
1.430000e-06	-1.894190e-06	-7.697459e-10	-1.314231e+01	-5.593323e+01
1.440000e-06	-1.849927e-06	-7.624230e-10	-1.283521e+01	-5.528340e+01
1.450000e-06	-1.805576e-06	-7.530861e-10	-1.252749e+01	-5.462508e+01
1.460000e-06	-1.761200e-06	-7.414129e-10	-1.221960e+01	-5.395794e+01
1.470000e-06	-1.716728e-06	-7.273231e-10	-1.191105e+01	-5.328164e+01
1.480000e-06	-1.672099e-06	-7.153353e-10	-1.160140e+01	-5.259580e+01
1.490000e-06	-1.627272e-06	-7.056618e-10	-1.129038e+01	-5.189998e+01
1.500000e-06	-1.582252e-06	-7.000748e-10	-1.097802e+01	-5.119375e+01
1.510000e-06	-1.537054e-06	-6.949052e-10	-1.066442e+01	-5.047659e+01
1.520000e-06	-1.491788e-06	-6.880776e-10	-1.035036e+01	-4.974801e+01
1.530000e-06	-1.446485e-06	-6.785435e-10	-1.003604e+01	-4.900745e+01
1.540000e-06	-1.401095e-06	-6.651694e-10	-9.721114e+00	-4.825433e+01
1.550000e-06	-1.355613e-06	-6.508640e-10	-9.405546e+00	-4.748804e+01
1.560000e-06	-1.309968e-06	-6.395554e-10	-9.088855e+00	-4.670798e+01
1.570000e-06	-1.264244e-06	-6.313877e-10	-8.771606e+00	-4.591349e+01
1.580000e-06	-1.218513e-06	-6.236548e-10	-8.454320e+00	-4.510391e+01
1.590000e-06	-1.172656e-06	-6.129798e-10	-8.136148e+00	-4.427858e+01
1.600000e-06	-1.126707e-06	-6.000332e-10	-7.817349e+00	-4.343682e+01
1.610000e-06	-1.080724e-06	-5.867945e-10	-7.498307e+00	-4.257796e+01
1.620000e-06	-1.034643e-06	-5.711137e-10	-7.178585e+00	-4.170132e+01
1.630000e-06	-9.883747e-07	-5.557709e-10	-6.857566e+00	-4.080623e+01
1.640000e-06	-9.420196e-07	-5.425020e-10	-6.535943e+00	-3.989205e+01
1.650000e-06	-8.956739e-07	-5.325848e-10	-6.214387e+00	-3.895812e+01
1.660000e-06	-8.492245e-07	-5.204785e-10	-5.892111e+00	-3.800385e+01
1.670000e-06	-8.027654e-07	-5.057124e-10	-5.569766e+00	-3.702864e+01
1.680000e-06	-7.563722e-07	-4.894595e-10	-5.247880e+00	-3.603194e+01
1.690000e-06	-7.099198e-07	-4.733301e-10	-4.925583e+00	-3.501326e+01
1.700000e-06	-6.633319e-07	-4.552897e-10	-4.602346e+00	-3.397211e+01
1.710000e-06	-6.167111e-07	-4.381745e-10	-4.278880e+00	-3.290808e+01
1.720000e-06	-5.701325e-07	-4.213757e-10	-3.955707e+00	-3.182081e+01
1.730000e-06	-5.234312e-07	-4.059626e-10	-3.631684e+00	-3.071000e+01
1.740000e-06	-4.766691e-07	-3.895322e-10	-3.307237e+00	-2.957541e+01
1.750000e-06	-4.298001e-07	-3.708803e-10	-2.982050e+00	-2.841686e+01
1.760000e-06	-3.828279e-07	-3.525656e-10	-2.656146e+00	-2.723426e+01
1.770000e-06	-3.359182e-07	-3.351331e-10	-2.330676e+00	-2.602757e+01
1.780000e-06	-2.890853e-07	-3.173089e-10	-2.005739e+00	-2.479686e+01
1.790000e-06	-2.422559e-07	-3.004812e-10	-1.680826e+00	-2.354225e+01
1.800000e-06	-1.953238e-07	-2.832660e-10	-1.355200e+00	-2.226395e+01
1.810000e-06	-1.484399e-07	-2.645111e-10	-1.029909e+00	-2.096226e+01
1.820000e-06	-1.015934e-07	-2.443542e-10	-7.048780e-01	-1.963757e+01
1.830000e-06	-5.465971e-08	-2.229868e-10	-3.792414e-01	-1.829033e+01
1.840000e-06	-7.723029e-09	-2.019973e-10	-5.358411e-02	-1.692111e+01
1.850000e-06	3.918261e-08	-1.815007e-10	2.718577e-01	-1.553054e+01
1.860000e-06	8.609379e-08	-1.625576e-10	5.973380e-01	-1.411933e+01
1.870000e-06	1.330017e-07	-1.433797e-10	9.227956e-01	-1.268829e+01
1.880000e-06	1.799018e-07	-1.232402e-10	1.248199e+00	-1.123831e+01
1.890000e-06	2.267990e-07	-1.032041e-10	1.573582e+00	-9.770325e+00
1.900000e-06	2.737169e-07	-8.351607e-11	1.899109e+00	-8.285382e+00
1.910000e-06	3.205584e-07	-6.258999e-11	2.224106e+00	-6.784578e+00
1.920000e-06	3.673054e-07	-3.991792e-11	2.548448e+00	-5.269079e+00
1.930000e-06	4.141002e-07	-1.683180e-11	2.873121e+00	-3.740114e+00
1.940000e-06	4.608975e-07	5.254080e-12	3.197811e+00	-2.198967e+00
1.950000e-06	5.076526e-07	2.594282e-11	3.522208e+00	-6.469733e-01
1.960000e-06	5.543126e-07	4.564213e-11	3.845945e+00	9.144876e-01
1.970000e-06	6.009046e-07	6.726130e-11	4.169211e+00	2.483996e+00
1.980000e-06	6.475190e-07	8.903332e-11	4.492632e+00	4.060098e+00
1.990000e-06	6.941083e-07	1.095067e-10	4.815879e+00	5.641316e+00
2.000000e-06	7.406196e-07	1.297948e-10	5.138585e+00	7.226150e+00
2.010000e-06	7.870310e-07	1.516626e-10	5.460598e+00	8.813086e+00
2.020000e-06	8.333284e-07	1.737156e-10	5.781820e+00	1.040061e+01
2.030000e-06	8.795869e-07	1.972419e-10	6.102771e+00	1.198719e+01
2.040000e-06	9.259030e-07	2.208619e-10	6.424123e+00	1.357132e+01
2.050000e-06	9.722058e-07	2.433609e-10	6.745383e+00	1.515151e+01
2.060000e-06	1.018402e-06	2.660945e-10	7.065905e+00	1.672627e+01
2.070000e-06	1.064459e-06	2.861248e-10	7.385456e+00	1.829414e+01
2.080000e-06	1.110366e-06	3.045329e-10	7.703969e+00	1.985371e+01
2.090000e-06	1.156126e-06	3.249638e-10	8.021459e+00	2.140360e+01
2.100000e-06	1.201878e-06	3.467304e-10	8.338897e+00	2.294246e+01
2.110000e-06	1.247632e-06	3.683718e-10	8.656349e+00	2.446901e+01
2.120000e-06	1.293317e-06	3.896620e-10	8.973321e+00	2.598201e+01
2.130000e-06	1.338904e-06	4.102543e-10	9.289618e+00	2.748029e+01
2.140000e-06	1.384368e-06	4.285501e-10	9.605059e+00	2.896272e+01
2.150000e-06	1.429771e-06	4.450001e-10	9.920073e+00	3.042826e+01
2.160000e-06	1.475099e-06	4.627335e-10	1.023457e+01	3.187593e+01
2.170000e-06	1.520291e-06	4.821180e-10	1.054812e+01	3.330483e+01
2.180000e-06	1.565308e-06	5.027245e-10	1.086046e+01	3.471412e+01
2.190000e-06	1.610201e-06	5.235622e-10	1.117193e+01	3.610306e+01
2.200000e-06	1.655049e-06	5.441356e-10	1.148310e+01	3.747095e+01
2.210000e-06	1.699775e-06	5.622049e-10	1.179342e+01	3.881720e+01
2.220000e-06	1.744259e-06	5.772087e-10	1.210206e+01	4.014128e+01
2.230000e-06	1.788603e-06	5.919721e-10	1.240973e+01	4.144277e+01
2.240000e-06	1.832936e-06	6.095683e-10	1.271732e+01	4.272129e+01
2.250000e-06	1.877130e-06	6.288496e-10	1.302395e+01	4.397654e+01
2.260000e-06	1.921149e-06	6.485722e-10	1.332936e+01	4.520833e+01
2.270000e-06	1.965134e-06	6.672390e-10	1.363454e+01	4.641651e+01
2.280000e-06	2.009096e-06	6.825519e-10	1.393956e+01	4.760100e+01
2.290000e-06	2.052955e-06	6.966478e-10	1.424386e+01	4.876181e+01
2.300000e-06	2.096733e-06	7.113057e-10	1.454761e+01	4.989900e+01
2.310000e-06	2.140432e-06	7.234070e-10	1.485080e+01	5.101270e+01
2.320000e-06	2.184026e-06	7.366574e-10	1.515326e+01	5.210308e+01
2.330000e-06	2.227550e-06	7.538202e-10	1.545524e+01	5.317038e+01
2.340000e-06	2.270909e-06	7.708251e-10	1.575608e+01	5.421489e+01
2.350000e-06	2.314070e-06	7.853629e-10	1.605554e+01	5.523694e+01
2.360000e-06	2.357023e-06	7.977845e-10	1.635356e+01	5.623690e+01
2.370000e-06	2.399704e-06	8.102078e-10	1.664969e+01	5.721518e+01
2.380000e-06	2.442148e-06	8.248062e-10	1.694417e+01	5.817222e+01
2.390000e-06	2.484274e-06	8.393994e-10	1.723645e+01	5.910849e+01
2.400000e-06	2.526018e-06	8.536261e-10	1.752608e+01	6.002449e+01
2.410000e-06	2.567415e-06	8.692783e-10	1.781330e+01	6.092072e+01
2.420000e-06	2.608525e-06	8.823115e-10	1.809854e+01	6.179771e+01
2.430000e-06	2.649391e-06	8.928452e-10	1.838207e+01	6.265600e+01
2.440000e-06	2.689972e-06	9.008131e-10	1.866363e+01	6.349612e+01
2.450000e-06	2.730291e-06	9.086189e-10	1.894337e+01	6.431862e+01
2.460000e-06	2.770448e-06	9.178826e-10	1.922199e+01	6.512404e+01
2.470000e-06	2.810475e-06	9.314672e-10	1.949971e+01	6.591291e+01
2.480000e-06	2.850371e-06	9.462223e-10	1.977652e+01	6.668575e+01
2.490000e-06	2.890151e-06	9.595093e-10	2.005252e+01	6.744310e+01
2.500000e-06	2.929798e-06	9.733696e-10	2.032759e+01	6.818543e+01
2.510000e-06	2.969315e-06	9.859112e-10	2.060177e+01	6.891324e+01
2.520000e-06	3.008712e-06	9.951705e-10	2.087512e+01	6.962699e+01
2.530000e-06	3.047928e-06	1.002951e-09	2.114721e+01	7.032711e+01
2.540000e-06	3.086930e-06	1.012347e-09	2.141782e+01	7.101403e+01
2.550000e-06	3.125651e-06	1.022664e-09	2.168647e+01	7.168814e+01
2.560000e-06	3.164110e-06	1.033105e-09	2.195331e+01	7.234981e+01
2.570000e-06	3.202385e-06	1.044745e-09	2.221887e+01	7.299938e+01
2.580000e-06	3.240477e-06	1.057221e-09	2.248315e+01	7.363716e+01
2.590000e-06	3.278323e-06	1.067921e-09	2.274574e+01	7.426344e+01
2.600000e-06	3.315866e-06	1.076022e-09	2.300622e+01	7.487848e+01
2.610000e-06	3.353215e-06	1.080919e-09	2.326536e+01	7.548252e+01
2.620000e-06	3.390407e-06	1.086651e-09	2.352341e+01	7.607576e+01
2.630000e-06	3.427390e-06	1.094683e-09	2.378000e+01	7.665839e+01
2.640000e-06	3.464112e-06	1.103508e-09	2.403479e+01	7.723057e+01
2.650000e-06	3.500537e-06	1.113965e-09	2.428751e+01	7.779243e+01
2.660000e-06	3.536712e-06	1.126407e-09	2.453850e+01	7.834408e+01
2.670000e-06	3.572696e-06	1.135545e-09	2.478816e+01	7.888563e+01
2.680000e-06	3.608579e-06	1.140662e-09	2.503713e+01	7.941713e+01
2.690000e-06	3.644404e-06	1.144159e-09	2.528569e+01	7.993867e+01
2.700000e-06	3.680061e-06	1.147295e-09	2.553309e+01	8.045027e+01
2.710000e-06	3.715478e-06	1.152600e-09	2.577882e+01	8.095196e+01
2.720000e-06	3.750652e-06	1.160457e-09	2.602287e+01	8.144378e+01
2.730000e-06	3.785439e-06	1.167486e-09	2.626423e+01	8.192572e+01
2.740000e-06	3.819805e-06	1.174160e-09	2.650266e+01	8.239779e+01
2.750000e-06	3.853707e-06	1.179445e-09	2.673789e+01	8.285998e+01
2.760000e-06	3.887034e-06	1.183582e-09	2.696911e+01	8.331230e+01
2.770000e-06	3.919925e-06	1.187982e-09	2.719732e+01	8.375474e+01
2.780000e-06	3.952430e-06	1.192008e-09	2.742285e+01	8.418728e+01
2.790000e-06	3.984601e-06	1.195727e-09	2.764606e+01	8.460992e+01
2.800000e-06	4.016620e-06	1.198519e-09	2.786821e+01	8.502266e+01
2.810000e-06	4.048504e-06	1.200730e-09	2.808943e+01	8.542551e+01
2.820000e-06	4.080229e-06	1.205269e-09	2.830955e+01	8.581847e+01
2.830000e-06	4.111810e-06	1.210951e-09	2.852866e+01	8.620157e+01
2.840000e-06	4.143132e-06	1.218756e-09	2.874598e+01	8.657483e+01
2.850000e-06	4.174071e-06	1.225866e-09	2.896064e+01	8.693829e+01
2.860000e-06	4.204625e-06	1.230855e-09	2.917263e+01	8.729200e+01
2.870000e-06	4.234889e-06	1.233754e-09	2.938261e+01	8.763602e+01
2.880000e-06	4.264919e-06	1.236780e-09	2.959097e+01	8.797042e+01
2.890000e-06	4.294756e-06	1.238399e-09	2.979799e+01	8.829529e+01
2.900000e-06	4.324306e-06	1.241921e-09	3.000300e+01	8.861072e+01
