# Temperatura_=_-0.4
# Concentracion g/m^3_=_1620.0
# C_Vs_to_Am_M_A/Vsm_=_65563218390.804596
# pendiente_HvsI_1/m_=_3716.3
# ordenada_HvsI_A/m_=_1297.0
# frecuencia_Hz_=_135092.9829417852

Tiempo_(s)	Campo_(V.s)	Magnetizacion_(V.s)	Campo_(kA/m)	Magnetizacion_(A/m)
0.000000e+00	-5.531421e-06	-1.572478e-09	-3.837620e+01	-1.010955e+02
1.000000e-08	-5.531719e-06	-1.570364e-09	-3.837828e+01	-1.010476e+02
2.000000e-08	-5.531746e-06	-1.566445e-09	-3.837846e+01	-1.009988e+02
3.000000e-08	-5.531425e-06	-1.562829e-09	-3.837623e+01	-1.009492e+02
4.000000e-08	-5.530646e-06	-1.561759e-09	-3.837083e+01	-1.008989e+02
5.000000e-08	-5.529273e-06	-1.560629e-09	-3.836130e+01	-1.008480e+02
6.000000e-08	-5.527212e-06	-1.560048e-09	-3.834701e+01	-1.007966e+02
7.000000e-08	-5.524598e-06	-1.560086e-09	-3.832887e+01	-1.007447e+02
8.000000e-08	-5.521585e-06	-1.585747e-09	-3.830797e+01	-1.006925e+02
9.000000e-08	-5.518108e-06	-1.606295e-09	-3.828384e+01	-1.006399e+02
1.000000e-07	-5.514081e-06	-1.558918e-09	-3.825590e+01	-1.005870e+02
1.100000e-07	-5.509733e-06	-1.488992e-09	-3.822574e+01	-1.005338e+02
1.200000e-07	-5.505260e-06	-1.550905e-09	-3.819471e+01	-1.004803e+02
1.300000e-07	-5.500586e-06	-1.578440e-09	-3.816227e+01	-1.004265e+02
1.400000e-07	-5.495477e-06	-1.593242e-09	-3.812683e+01	-1.003723e+02
1.500000e-07	-5.489908e-06	-1.491649e-09	-3.808819e+01	-1.003177e+02
1.600000e-07	-5.484056e-06	-1.555750e-09	-3.804759e+01	-1.002626e+02
1.700000e-07	-5.477838e-06	-1.593224e-09	-3.800445e+01	-1.002069e+02
1.800000e-07	-5.471158e-06	-1.576887e-09	-3.795811e+01	-1.001506e+02
1.900000e-07	-5.464014e-06	-1.489399e-09	-3.790854e+01	-1.000936e+02
2.000000e-07	-5.456575e-06	-1.495117e-09	-3.785693e+01	-1.000356e+02
2.100000e-07	-5.448991e-06	-1.555304e-09	-3.780431e+01	-9.997666e+01
2.200000e-07	-5.441180e-06	-1.552133e-09	-3.775013e+01	-9.991652e+01
2.300000e-07	-5.433061e-06	-1.519099e-09	-3.769379e+01	-9.985505e+01
2.400000e-07	-5.424480e-06	-1.491236e-09	-3.763426e+01	-9.979208e+01
2.500000e-07	-5.415194e-06	-1.520459e-09	-3.756984e+01	-9.972743e+01
2.600000e-07	-5.405184e-06	-1.490586e-09	-3.750039e+01	-9.966092e+01
2.700000e-07	-5.394621e-06	-1.514891e-09	-3.742710e+01	-9.959235e+01
2.800000e-07	-5.383584e-06	-1.492815e-09	-3.735053e+01	-9.952151e+01
2.900000e-07	-5.372179e-06	-1.517602e-09	-3.727141e+01	-9.944820e+01
3.000000e-07	-5.360395e-06	-1.485667e-09	-3.718965e+01	-9.937222e+01
3.100000e-07	-5.348215e-06	-1.515944e-09	-3.710515e+01	-9.929334e+01
3.200000e-07	-5.335573e-06	-1.484780e-09	-3.701744e+01	-9.921135e+01
3.300000e-07	-5.322483e-06	-1.512328e-09	-3.692662e+01	-9.912605e+01
3.400000e-07	-5.309046e-06	-1.498345e-09	-3.683340e+01	-9.903721e+01
3.500000e-07	-5.295263e-06	-1.509345e-09	-3.673777e+01	-9.894463e+01
3.600000e-07	-5.280958e-06	-1.480411e-09	-3.663853e+01	-9.884809e+01
3.700000e-07	-5.266256e-06	-1.511908e-09	-3.653652e+01	-9.874741e+01
3.800000e-07	-5.251198e-06	-1.480833e-09	-3.643206e+01	-9.864238e+01
3.900000e-07	-5.235479e-06	-1.470714e-09	-3.632300e+01	-9.853281e+01
4.000000e-07	-5.219258e-06	-1.480892e-09	-3.621046e+01	-9.841853e+01
4.100000e-07	-5.202744e-06	-1.492750e-09	-3.609589e+01	-9.829936e+01
4.200000e-07	-5.185818e-06	-1.451930e-09	-3.597846e+01	-9.817514e+01
4.300000e-07	-5.168499e-06	-1.462786e-09	-3.585830e+01	-9.804573e+01
4.400000e-07	-5.150843e-06	-1.500782e-09	-3.573581e+01	-9.791099e+01
4.500000e-07	-5.132855e-06	-1.450491e-09	-3.561101e+01	-9.777079e+01
4.600000e-07	-5.114379e-06	-1.428864e-09	-3.548283e+01	-9.762502e+01
4.700000e-07	-5.095399e-06	-1.468492e-09	-3.535115e+01	-9.747358e+01
4.800000e-07	-5.076165e-06	-1.470664e-09	-3.521770e+01	-9.731640e+01
4.900000e-07	-5.056711e-06	-1.414410e-09	-3.508274e+01	-9.715340e+01
5.000000e-07	-5.037057e-06	-1.454633e-09	-3.494638e+01	-9.698453e+01
5.100000e-07	-5.017243e-06	-1.456170e-09	-3.480891e+01	-9.680974e+01
5.200000e-07	-4.997093e-06	-1.414867e-09	-3.466911e+01	-9.662901e+01
5.300000e-07	-4.976518e-06	-1.416857e-09	-3.452637e+01	-9.644234e+01
5.400000e-07	-4.955618e-06	-1.468027e-09	-3.438137e+01	-9.624971e+01
5.500000e-07	-4.934421e-06	-1.413974e-09	-3.423431e+01	-9.605116e+01
5.600000e-07	-4.912905e-06	-1.409240e-09	-3.408503e+01	-9.584670e+01
5.700000e-07	-4.890907e-06	-1.444796e-09	-3.393241e+01	-9.563638e+01
5.800000e-07	-4.868556e-06	-1.432411e-09	-3.377734e+01	-9.542025e+01
5.900000e-07	-4.845930e-06	-1.384464e-09	-3.362037e+01	-9.519837e+01
6.000000e-07	-4.822986e-06	-1.424527e-09	-3.346118e+01	-9.497082e+01
6.100000e-07	-4.799741e-06	-1.423870e-09	-3.329991e+01	-9.473768e+01
6.200000e-07	-4.776234e-06	-1.400311e-09	-3.313683e+01	-9.449905e+01
6.300000e-07	-4.752559e-06	-1.409840e-09	-3.297258e+01	-9.425501e+01
6.400000e-07	-4.728568e-06	-1.429518e-09	-3.280612e+01	-9.400567e+01
6.500000e-07	-4.704204e-06	-1.392044e-09	-3.263709e+01	-9.375114e+01
6.600000e-07	-4.679492e-06	-1.390844e-09	-3.246565e+01	-9.349153e+01
6.700000e-07	-4.654309e-06	-1.398400e-09	-3.229093e+01	-9.322694e+01
6.800000e-07	-4.628586e-06	-1.380627e-09	-3.211247e+01	-9.295750e+01
6.900000e-07	-4.602316e-06	-1.372399e-09	-3.193021e+01	-9.268332e+01
7.000000e-07	-4.575491e-06	-1.392415e-09	-3.174410e+01	-9.240450e+01
7.100000e-07	-4.548274e-06	-1.384729e-09	-3.155527e+01	-9.212116e+01
7.200000e-07	-4.520838e-06	-1.369532e-09	-3.136492e+01	-9.183340e+01
7.300000e-07	-4.493236e-06	-1.373546e-09	-3.117342e+01	-9.154131e+01
7.400000e-07	-4.465444e-06	-1.364134e-09	-3.098061e+01	-9.124499e+01
7.500000e-07	-4.437467e-06	-1.347394e-09	-3.078651e+01	-9.094452e+01
7.600000e-07	-4.409285e-06	-1.344275e-09	-3.059098e+01	-9.063999e+01
7.700000e-07	-4.380708e-06	-1.348486e-09	-3.039272e+01	-9.033146e+01
7.800000e-07	-4.351706e-06	-1.334888e-09	-3.019151e+01	-9.001898e+01
7.900000e-07	-4.322448e-06	-1.337717e-09	-2.998852e+01	-8.970261e+01
8.000000e-07	-4.292979e-06	-1.333852e-09	-2.978407e+01	-8.938239e+01
8.100000e-07	-4.263160e-06	-1.320645e-09	-2.957719e+01	-8.905834e+01
8.200000e-07	-4.233026e-06	-1.300083e-09	-2.936812e+01	-8.873047e+01
8.300000e-07	-4.202624e-06	-1.299734e-09	-2.915720e+01	-8.839880e+01
8.400000e-07	-4.171906e-06	-1.285742e-09	-2.894408e+01	-8.806331e+01
8.500000e-07	-4.140854e-06	-1.280353e-09	-2.872865e+01	-8.772399e+01
8.600000e-07	-4.109489e-06	-1.279192e-09	-2.851105e+01	-8.738080e+01
8.700000e-07	-4.077941e-06	-1.285794e-09	-2.829217e+01	-8.703371e+01
8.800000e-07	-4.046245e-06	-1.273895e-09	-2.807227e+01	-8.668267e+01
8.900000e-07	-4.014438e-06	-1.271954e-09	-2.785159e+01	-8.632761e+01
9.000000e-07	-3.982414e-06	-1.260422e-09	-2.762942e+01	-8.596846e+01
9.100000e-07	-3.950051e-06	-1.244417e-09	-2.740489e+01	-8.560515e+01
9.200000e-07	-3.917363e-06	-1.229743e-09	-2.717810e+01	-8.523760e+01
9.300000e-07	-3.884284e-06	-1.229589e-09	-2.694860e+01	-8.486571e+01
9.400000e-07	-3.850767e-06	-1.222056e-09	-2.671607e+01	-8.448938e+01
9.500000e-07	-3.816776e-06	-1.217518e-09	-2.648024e+01	-8.410852e+01
9.600000e-07	-3.782324e-06	-1.216869e-09	-2.624122e+01	-8.372302e+01
9.700000e-07	-3.747479e-06	-1.212649e-09	-2.599947e+01	-8.333277e+01
9.800000e-07	-3.712363e-06	-1.198307e-09	-2.575584e+01	-8.293766e+01
9.900000e-07	-3.676997e-06	-1.189888e-09	-2.551047e+01	-8.253759e+01
1.000000e-06	-3.641421e-06	-1.184665e-09	-2.526365e+01	-8.213246e+01
1.010000e-06	-3.605754e-06	-1.175941e-09	-2.501620e+01	-8.172215e+01
1.020000e-06	-3.569954e-06	-1.172570e-09	-2.476783e+01	-8.130657e+01
1.030000e-06	-3.533997e-06	-1.172457e-09	-2.451837e+01	-8.088562e+01
1.040000e-06	-3.497804e-06	-1.167731e-09	-2.426726e+01	-8.045920e+01
1.050000e-06	-3.461267e-06	-1.159841e-09	-2.401377e+01	-8.002725e+01
1.060000e-06	-3.424459e-06	-1.157529e-09	-2.375840e+01	-7.958967e+01
1.070000e-06	-3.387427e-06	-1.147879e-09	-2.350148e+01	-7.914640e+01
1.080000e-06	-3.350166e-06	-1.138526e-09	-2.324297e+01	-7.869737e+01
1.090000e-06	-3.312676e-06	-1.129350e-09	-2.298287e+01	-7.824254e+01
1.100000e-06	-3.275000e-06	-1.124058e-09	-2.272148e+01	-7.778185e+01
1.110000e-06	-3.237087e-06	-1.113403e-09	-2.245844e+01	-7.731528e+01
1.120000e-06	-3.198905e-06	-1.108703e-09	-2.219354e+01	-7.684279e+01
1.130000e-06	-3.160371e-06	-1.103349e-09	-2.192620e+01	-7.636437e+01
1.140000e-06	-3.121596e-06	-1.099128e-09	-2.165719e+01	-7.588000e+01
1.150000e-06	-3.082672e-06	-1.089354e-09	-2.138713e+01	-7.538969e+01
1.160000e-06	-3.043540e-06	-1.084842e-09	-2.111565e+01	-7.489345e+01
1.170000e-06	-3.004334e-06	-1.077721e-09	-2.084364e+01	-7.439127e+01
1.180000e-06	-2.964978e-06	-1.070427e-09	-2.057059e+01	-7.388319e+01
1.190000e-06	-2.925455e-06	-1.061031e-09	-2.029639e+01	-7.336921e+01
1.200000e-06	-2.885781e-06	-1.054160e-09	-2.002113e+01	-7.284937e+01
1.210000e-06	-2.845965e-06	-1.044702e-09	-1.974490e+01	-7.232368e+01
1.220000e-06	-2.806085e-06	-1.036955e-09	-1.946822e+01	-7.179218e+01
1.230000e-06	-2.766043e-06	-1.028772e-09	-1.919041e+01	-7.125489e+01
1.240000e-06	-2.725765e-06	-1.019036e-09	-1.891096e+01	-7.071182e+01
1.250000e-06	-2.685238e-06	-1.007725e-09	-1.862980e+01	-7.016299e+01
1.260000e-06	-2.644411e-06	-9.995893e-10	-1.834655e+01	-6.960841e+01
1.270000e-06	-2.603295e-06	-9.900865e-10	-1.806128e+01	-6.904807e+01
1.280000e-06	-2.561830e-06	-9.795192e-10	-1.777361e+01	-6.848195e+01
1.290000e-06	-2.520013e-06	-9.690969e-10	-1.748349e+01	-6.791004e+01
1.300000e-06	-2.477967e-06	-9.586977e-10	-1.719178e+01	-6.733228e+01
1.310000e-06	-2.435694e-06	-9.478019e-10	-1.689850e+01	-6.674862e+01
1.320000e-06	-2.393115e-06	-9.367154e-10	-1.660309e+01	-6.615897e+01
1.330000e-06	-2.350260e-06	-9.254605e-10	-1.630577e+01	-6.556324e+01
1.340000e-06	-2.307184e-06	-9.147279e-10	-1.600691e+01	-6.496130e+01
1.350000e-06	-2.263870e-06	-9.036071e-10	-1.570641e+01	-6.435299e+01
1.360000e-06	-2.220389e-06	-8.916283e-10	-1.540474e+01	-6.373815e+01
1.370000e-06	-2.176914e-06	-8.837698e-10	-1.510312e+01	-6.311658e+01
1.380000e-06	-2.133340e-06	-8.745174e-10	-1.480080e+01	-6.248803e+01
1.390000e-06	-2.089619e-06	-8.640800e-10	-1.449748e+01	-6.185225e+01
1.400000e-06	-2.045860e-06	-8.499106e-10	-1.419388e+01	-6.120894e+01
1.410000e-06	-2.002052e-06	-8.374483e-10	-1.388995e+01	-6.055779e+01
1.420000e-06	-1.958124e-06	-8.244802e-10	-1.358518e+01	-5.989844e+01
1.430000e-06	-1.914134e-06	-8.151839e-10	-1.327999e+01	-5.923050e+01
1.440000e-06	-1.869993e-06	-8.066276e-10	-1.297374e+01	-5.855356e+01
1.450000e-06	-1.825721e-06	-7.977162e-10	-1.266659e+01	-5.786716e+01
1.460000e-06	-1.781394e-06	-7.849983e-10	-1.235905e+01	-5.717084e+01
1.470000e-06	-1.736845e-06	-7.720541e-10	-1.204998e+01	-5.646409e+01
1.480000e-06	-1.692117e-06	-7.577115e-10	-1.173966e+01	-5.574637e+01
1.490000e-06	-1.647299e-06	-7.465746e-10	-1.142872e+01	-5.501712e+01
1.500000e-06	-1.602389e-06	-7.364195e-10	-1.111714e+01	-5.427576e+01
1.510000e-06	-1.557300e-06	-7.280769e-10	-1.080433e+01	-5.352170e+01
1.520000e-06	-1.512129e-06	-7.169610e-10	-1.049093e+01	-5.275429e+01
1.530000e-06	-1.466929e-06	-7.046217e-10	-1.017734e+01	-5.197292e+01
1.540000e-06	-1.421585e-06	-6.922096e-10	-9.862755e+00	-5.117692e+01
1.550000e-06	-1.376161e-06	-6.803907e-10	-9.547605e+00	-5.036562e+01
1.560000e-06	-1.330669e-06	-6.661035e-10	-9.231989e+00	-4.953837e+01
1.570000e-06	-1.284994e-06	-6.504304e-10	-8.915105e+00	-4.869449e+01
1.580000e-06	-1.239276e-06	-6.376615e-10	-8.597917e+00	-4.783332e+01
1.590000e-06	-1.193543e-06	-6.223136e-10	-8.280631e+00	-4.695417e+01
1.600000e-06	-1.147690e-06	-6.092596e-10	-7.962511e+00	-4.605641e+01
1.610000e-06	-1.101728e-06	-5.992577e-10	-7.643630e+00	-4.513939e+01
1.620000e-06	-1.055692e-06	-5.879902e-10	-7.324238e+00	-4.420247e+01
1.630000e-06	-1.009528e-06	-5.722445e-10	-7.003957e+00	-4.324507e+01
1.640000e-06	-9.632303e-07	-5.557990e-10	-6.682754e+00	-4.226661e+01
1.650000e-06	-9.169825e-07	-5.401261e-10	-6.361893e+00	-4.126654e+01
1.660000e-06	-8.707615e-07	-5.248677e-10	-6.041218e+00	-4.024435e+01
1.670000e-06	-8.244040e-07	-5.122219e-10	-5.719596e+00	-3.919957e+01
1.680000e-06	-7.779969e-07	-5.009288e-10	-5.397631e+00	-3.813178e+01
1.690000e-06	-7.315019e-07	-4.881053e-10	-5.075055e+00	-3.704061e+01
1.700000e-06	-6.848720e-07	-4.713054e-10	-4.751544e+00	-3.592572e+01
1.710000e-06	-6.383031e-07	-4.529606e-10	-4.428456e+00	-3.478685e+01
1.720000e-06	-5.917416e-07	-4.333330e-10	-4.105418e+00	-3.362378e+01
1.730000e-06	-5.450269e-07	-4.122861e-10	-3.781318e+00	-3.243637e+01
1.740000e-06	-4.982066e-07	-3.950283e-10	-3.456486e+00	-3.122454e+01
1.750000e-06	-4.512581e-07	-3.774228e-10	-3.130764e+00	-2.998826e+01
1.760000e-06	-4.043144e-07	-3.608744e-10	-2.805076e+00	-2.872759e+01
1.770000e-06	-3.575156e-07	-3.424153e-10	-2.480392e+00	-2.744265e+01
1.780000e-06	-3.105942e-07	-3.197909e-10	-2.154858e+00	-2.613364e+01
1.790000e-06	-2.636460e-07	-2.998742e-10	-1.829138e+00	-2.480085e+01
1.800000e-06	-2.167948e-07	-2.850203e-10	-1.504091e+00	-2.344460e+01
1.810000e-06	-1.698888e-07	-2.700030e-10	-1.178664e+00	-2.206534e+01
1.820000e-06	-1.229327e-07	-2.526214e-10	-8.528893e-01	-2.066355e+01
1.830000e-06	-7.603590e-08	-2.334701e-10	-5.275262e-01	-1.923982e+01
1.840000e-06	-2.917372e-08	-2.110689e-10	-2.024031e-01	-1.779479e+01
1.850000e-06	1.770634e-08	-1.869193e-10	1.228441e-01	-1.632918e+01
1.860000e-06	6.457647e-08	-1.665715e-10	4.480223e-01	-1.484379e+01
1.870000e-06	1.114340e-07	-1.462196e-10	7.731129e-01	-1.333949e+01
1.880000e-06	1.582928e-07	-1.255310e-10	1.098213e+00	-1.181720e+01
1.890000e-06	2.052048e-07	-1.066500e-10	1.423681e+00	-1.027791e+01
1.900000e-06	2.520964e-07	-8.657387e-11	1.749009e+00	-8.722692e+00
1.910000e-06	2.988975e-07	-6.396164e-11	2.073708e+00	-7.152647e+00
1.920000e-06	3.457669e-07	-4.017706e-11	2.398881e+00	-5.568944e+00
1.930000e-06	3.926544e-07	-1.505416e-11	2.724180e+00	-3.972800e+00
1.940000e-06	4.393980e-07	1.023899e-11	3.048480e+00	-2.365476e+00
1.950000e-06	4.860949e-07	3.274050e-11	3.372456e+00	-7.482727e-01
1.960000e-06	5.328380e-07	5.313396e-11	3.696753e+00	8.774729e-01
1.970000e-06	5.796118e-07	7.319138e-11	4.021263e+00	2.510394e+00
1.980000e-06	6.262532e-07	9.496262e-11	4.344855e+00	4.149098e+00
1.990000e-06	6.727095e-07	1.171894e-10	4.667162e+00	5.792173e+00
2.000000e-06	7.191420e-07	1.376766e-10	4.989304e+00	7.438193e+00
2.010000e-06	7.655677e-07	1.597365e-10	5.311399e+00	9.085723e+00
2.020000e-06	8.119620e-07	1.827196e-10	5.633276e+00	1.073332e+01
2.030000e-06	8.582744e-07	2.083526e-10	5.954585e+00	1.237956e+01
2.040000e-06	9.044957e-07	2.366480e-10	6.275261e+00	1.402301e+01
2.050000e-06	9.506351e-07	2.614115e-10	6.595369e+00	1.566224e+01
2.060000e-06	9.966807e-07	2.839314e-10	6.914827e+00	1.729587e+01
2.070000e-06	1.042665e-06	3.050750e-10	7.233858e+00	1.892252e+01
2.080000e-06	1.088601e-06	3.260079e-10	7.552561e+00	2.054085e+01
2.090000e-06	1.134506e-06	3.470343e-10	7.871043e+00	2.214954e+01
2.100000e-06	1.180335e-06	3.706759e-10	8.188991e+00	2.374732e+01
2.110000e-06	1.226038e-06	3.956568e-10	8.506076e+00	2.533296e+01
2.120000e-06	1.271583e-06	4.201993e-10	8.822061e+00	2.690528e+01
2.130000e-06	1.317032e-06	4.428853e-10	9.137378e+00	2.846313e+01
2.140000e-06	1.362425e-06	4.633883e-10	9.452311e+00	3.000543e+01
2.150000e-06	1.407835e-06	4.817504e-10	9.767360e+00	3.153116e+01
2.160000e-06	1.453174e-06	5.006682e-10	1.008191e+01	3.303935e+01
2.170000e-06	1.498308e-06	5.214407e-10	1.039505e+01	3.452909e+01
2.180000e-06	1.543306e-06	5.424678e-10	1.070724e+01	3.599954e+01
2.190000e-06	1.588270e-06	5.635539e-10	1.101919e+01	3.744992e+01
2.200000e-06	1.633098e-06	5.845183e-10	1.133020e+01	3.887952e+01
2.210000e-06	1.677729e-06	6.042974e-10	1.163984e+01	4.028769e+01
2.220000e-06	1.722260e-06	6.220062e-10	1.194879e+01	4.167386e+01
2.230000e-06	1.766670e-06	6.375390e-10	1.225691e+01	4.303752e+01
2.240000e-06	1.810941e-06	6.544953e-10	1.256405e+01	4.437823e+01
2.250000e-06	1.855075e-06	6.745177e-10	1.287025e+01	4.569560e+01
2.260000e-06	1.899099e-06	6.930264e-10	1.317568e+01	4.698934e+01
2.270000e-06	1.943057e-06	7.098584e-10	1.348065e+01	4.825920e+01
2.280000e-06	1.986947e-06	7.260309e-10	1.378516e+01	4.950500e+01
2.290000e-06	2.030742e-06	7.399929e-10	1.408900e+01	5.072662e+01
2.300000e-06	2.074426e-06	7.538316e-10	1.439207e+01	5.192400e+01
2.310000e-06	2.118036e-06	7.683834e-10	1.469463e+01	5.309715e+01
2.320000e-06	2.161606e-06	7.837515e-10	1.499691e+01	5.424611e+01
2.330000e-06	2.205152e-06	8.012434e-10	1.529903e+01	5.537099e+01
2.340000e-06	2.248651e-06	8.169800e-10	1.560082e+01	5.647195e+01
2.350000e-06	2.291997e-06	8.319330e-10	1.590155e+01	5.754918e+01
2.360000e-06	2.335109e-06	8.458910e-10	1.620065e+01	5.860294e+01
2.370000e-06	2.377954e-06	8.588320e-10	1.649791e+01	5.963351e+01
2.380000e-06	2.420600e-06	8.735970e-10	1.679378e+01	6.064120e+01
2.390000e-06	2.462949e-06	8.882219e-10	1.708758e+01	6.162638e+01
2.400000e-06	2.504981e-06	9.027293e-10	1.737920e+01	6.258942e+01
2.410000e-06	2.546721e-06	9.137172e-10	1.766878e+01	6.353073e+01
2.420000e-06	2.588226e-06	9.237316e-10	1.795674e+01	6.445075e+01
2.430000e-06	2.629402e-06	9.361116e-10	1.824241e+01	6.534993e+01
2.440000e-06	2.670116e-06	9.521404e-10	1.852488e+01	6.622873e+01
2.450000e-06	2.710554e-06	9.669617e-10	1.880544e+01	6.708765e+01
2.460000e-06	2.750770e-06	9.805096e-10	1.908445e+01	6.792716e+01
2.470000e-06	2.790840e-06	9.926996e-10	1.936245e+01	6.874776e+01
2.480000e-06	2.830810e-06	9.998845e-10	1.963975e+01	6.954996e+01
2.490000e-06	2.870625e-06	1.005992e-09	1.991598e+01	7.033426e+01
2.500000e-06	2.910304e-06	1.013125e-09	2.019127e+01	7.110116e+01
2.510000e-06	2.949889e-06	1.026219e-09	2.046591e+01	7.185116e+01
2.520000e-06	2.989309e-06	1.042829e-09	2.073939e+01	7.258475e+01
2.530000e-06	3.028599e-06	1.057204e-09	2.101198e+01	7.330242e+01
2.540000e-06	3.067719e-06	1.069380e-09	2.128339e+01	7.400463e+01
2.550000e-06	3.106504e-06	1.079468e-09	2.155248e+01	7.469187e+01
2.560000e-06	3.144984e-06	1.086496e-09	2.181945e+01	7.536456e+01
2.570000e-06	3.183308e-06	1.093229e-09	2.208534e+01	7.602316e+01
2.580000e-06	3.221422e-06	1.101145e-09	2.234976e+01	7.666809e+01
2.590000e-06	3.259322e-06	1.112826e-09	2.261271e+01	7.729974e+01
2.600000e-06	3.297103e-06	1.123865e-09	2.287483e+01	7.791853e+01
2.610000e-06	3.334643e-06	1.134210e-09	2.313528e+01	7.852481e+01
2.620000e-06	3.371853e-06	1.143665e-09	2.339343e+01	7.911894e+01
2.630000e-06	3.408854e-06	1.153482e-09	2.365014e+01	7.970127e+01
2.640000e-06	3.445620e-06	1.160383e-09	2.390522e+01	8.027212e+01
2.650000e-06	3.482107e-06	1.165215e-09	2.415836e+01	8.083179e+01
2.660000e-06	3.518355e-06	1.174088e-09	2.440984e+01	8.138058e+01
2.670000e-06	3.554362e-06	1.183771e-09	2.465966e+01	8.191875e+01
2.680000e-06	3.590221e-06	1.191381e-09	2.490844e+01	8.244657e+01
2.690000e-06	3.625979e-06	1.198263e-09	2.515652e+01	8.296428e+01
2.700000e-06	3.661633e-06	1.203365e-09	2.540388e+01	8.347210e+01
2.710000e-06	3.697081e-06	1.209251e-09	2.564982e+01	8.397025e+01
2.720000e-06	3.732342e-06	1.217794e-09	2.589445e+01	8.445894e+01
2.730000e-06	3.767417e-06	1.224073e-09	2.613780e+01	8.493835e+01
2.740000e-06	3.802107e-06	1.230220e-09	2.637847e+01	8.540866e+01
2.750000e-06	3.836377e-06	1.236293e-09	2.661623e+01	8.587005e+01
2.760000e-06	3.870188e-06	1.242952e-09	2.685081e+01	8.632266e+01
2.770000e-06	3.903469e-06	1.249409e-09	2.708171e+01	8.676666e+01
2.780000e-06	3.936302e-06	1.256538e-09	2.730950e+01	8.720218e+01
2.790000e-06	3.968738e-06	1.265389e-09	2.753454e+01	8.762937e+01
2.800000e-06	4.000864e-06	1.271988e-09	2.775742e+01	8.804836e+01
2.810000e-06	4.032756e-06	1.277461e-09	2.797868e+01	8.845926e+01
2.820000e-06	4.064454e-06	1.283394e-09	2.819860e+01	8.886221e+01
2.830000e-06	4.096003e-06	1.287100e-09	2.841748e+01	8.925732e+01
2.840000e-06	4.127402e-06	1.291339e-09	2.863532e+01	8.964471e+01
2.850000e-06	4.158563e-06	1.296618e-09	2.885152e+01	9.002448e+01
2.860000e-06	4.189431e-06	1.303294e-09	2.906567e+01	9.039676e+01
2.870000e-06	4.219935e-06	1.310662e-09	2.927730e+01	9.076164e+01
2.880000e-06	4.250141e-06	1.316687e-09	2.948687e+01	9.111924e+01
2.890000e-06	4.280099e-06	1.320181e-09	2.969471e+01	9.146966e+01
2.900000e-06	4.309719e-06	1.322718e-09	2.990021e+01	9.181301e+01
