# Temperatura_=_11.9
# Concentracion g/m^3_=_1620.0
# C_Vs_to_Am_M_A/Vsm_=_65563218390.804596
# pendiente_HvsI_1/m_=_3716.3
# ordenada_HvsI_A/m_=_1297.0
# frecuencia_Hz_=_135108.24558479406

Tiempo_(s)	Campo_(V.s)	Magnetizacion_(V.s)	Campo_(kA/m)	Magnetizacion_(A/m)
0.000000e+00	-5.529102e-06	-1.177113e-09	-3.837310e+01	-7.656911e+01
1.000000e-08	-5.529386e-06	-1.175619e-09	-3.837507e+01	-7.657915e+01
2.000000e-08	-5.529435e-06	-1.174333e-09	-3.837541e+01	-7.658895e+01
3.000000e-08	-5.529110e-06	-1.175938e-09	-3.837316e+01	-7.659823e+01
4.000000e-08	-5.528253e-06	-1.175956e-09	-3.836721e+01	-7.660669e+01
5.000000e-08	-5.526775e-06	-1.171202e-09	-3.835695e+01	-7.661401e+01
6.000000e-08	-5.524672e-06	-1.159082e-09	-3.834235e+01	-7.661987e+01
7.000000e-08	-5.522019e-06	-1.135891e-09	-3.832394e+01	-7.662394e+01
8.000000e-08	-5.518992e-06	-1.143095e-09	-3.830294e+01	-7.662587e+01
9.000000e-08	-5.515580e-06	-1.213637e-09	-3.827926e+01	-7.662535e+01
1.000000e-07	-5.511567e-06	-1.239095e-09	-3.825141e+01	-7.662202e+01
1.100000e-07	-5.507033e-06	-1.125307e-09	-3.821994e+01	-7.661556e+01
1.200000e-07	-5.502374e-06	-1.075505e-09	-3.818761e+01	-7.660565e+01
1.300000e-07	-5.497646e-06	-1.137736e-09	-3.815479e+01	-7.659198e+01
1.400000e-07	-5.492525e-06	-1.222330e-09	-3.811925e+01	-7.657425e+01
1.500000e-07	-5.486917e-06	-1.127500e-09	-3.808033e+01	-7.655219e+01
1.600000e-07	-5.480984e-06	-1.071643e-09	-3.803915e+01	-7.652552e+01
1.700000e-07	-5.474718e-06	-1.152471e-09	-3.799566e+01	-7.649402e+01
1.800000e-07	-5.467932e-06	-1.202420e-09	-3.794857e+01	-7.645747e+01
1.900000e-07	-5.460689e-06	-1.138061e-09	-3.789830e+01	-7.641567e+01
2.000000e-07	-5.453216e-06	-1.066565e-09	-3.784644e+01	-7.636847e+01
2.100000e-07	-5.445497e-06	-1.122804e-09	-3.779287e+01	-7.631572e+01
2.200000e-07	-5.437518e-06	-1.167424e-09	-3.773749e+01	-7.625731e+01
2.300000e-07	-5.429382e-06	-1.154326e-09	-3.768103e+01	-7.619318e+01
2.400000e-07	-5.420854e-06	-1.110891e-09	-3.762184e+01	-7.612326e+01
2.500000e-07	-5.411605e-06	-1.133848e-09	-3.755765e+01	-7.604755e+01
2.600000e-07	-5.401498e-06	-1.139712e-09	-3.748751e+01	-7.596604e+01
2.700000e-07	-5.390786e-06	-1.136830e-09	-3.741316e+01	-7.587878e+01
2.800000e-07	-5.379647e-06	-1.103730e-09	-3.733586e+01	-7.578583e+01
2.900000e-07	-5.368060e-06	-1.128285e-09	-3.725544e+01	-7.568729e+01
3.000000e-07	-5.356187e-06	-1.136955e-09	-3.717303e+01	-7.558326e+01
3.100000e-07	-5.343983e-06	-1.125196e-09	-3.708834e+01	-7.547390e+01
3.200000e-07	-5.331278e-06	-1.086978e-09	-3.700016e+01	-7.535936e+01
3.300000e-07	-5.318148e-06	-1.111118e-09	-3.690904e+01	-7.523982e+01
3.400000e-07	-5.304744e-06	-1.137838e-09	-3.681601e+01	-7.511549e+01
3.500000e-07	-5.290924e-06	-1.105268e-09	-3.672010e+01	-7.498656e+01
3.600000e-07	-5.276512e-06	-1.074941e-09	-3.662008e+01	-7.485328e+01
3.700000e-07	-5.261695e-06	-1.128298e-09	-3.651725e+01	-7.471586e+01
3.800000e-07	-5.246353e-06	-1.132448e-09	-3.641077e+01	-7.457456e+01
3.900000e-07	-5.230306e-06	-1.068392e-09	-3.629940e+01	-7.442961e+01
4.000000e-07	-5.213887e-06	-1.093057e-09	-3.618544e+01	-7.428126e+01
4.100000e-07	-5.197237e-06	-1.153891e-09	-3.606989e+01	-7.412976e+01
4.200000e-07	-5.180185e-06	-1.095003e-09	-3.595155e+01	-7.397533e+01
4.300000e-07	-5.162716e-06	-1.052156e-09	-3.583031e+01	-7.381823e+01
4.400000e-07	-5.145011e-06	-1.149884e-09	-3.570743e+01	-7.365866e+01
4.500000e-07	-5.126981e-06	-1.137751e-09	-3.558230e+01	-7.349683e+01
4.600000e-07	-5.108447e-06	-1.043026e-09	-3.545367e+01	-7.333296e+01
4.700000e-07	-5.089499e-06	-1.077561e-09	-3.532217e+01	-7.316721e+01
4.800000e-07	-5.070270e-06	-1.147105e-09	-3.518872e+01	-7.299975e+01
4.900000e-07	-5.050785e-06	-1.059504e-09	-3.505348e+01	-7.283072e+01
5.000000e-07	-5.031127e-06	-1.054572e-09	-3.491706e+01	-7.266025e+01
5.100000e-07	-5.011314e-06	-1.126645e-09	-3.477955e+01	-7.248844e+01
5.200000e-07	-4.991128e-06	-1.078916e-09	-3.463946e+01	-7.231537e+01
5.300000e-07	-4.970527e-06	-1.018327e-09	-3.449647e+01	-7.214110e+01
5.400000e-07	-4.949620e-06	-1.106410e-09	-3.435138e+01	-7.196565e+01
5.500000e-07	-4.928300e-06	-1.096140e-09	-3.420341e+01	-7.178903e+01
5.600000e-07	-4.906594e-06	-1.011657e-09	-3.405277e+01	-7.161124e+01
5.700000e-07	-4.884660e-06	-1.054857e-09	-3.390054e+01	-7.143222e+01
5.800000e-07	-4.862405e-06	-1.109255e-09	-3.374609e+01	-7.125192e+01
5.900000e-07	-4.839767e-06	-1.029968e-09	-3.358897e+01	-7.107026e+01
6.000000e-07	-4.816709e-06	-1.026058e-09	-3.342895e+01	-7.088714e+01
6.100000e-07	-4.793307e-06	-1.084737e-09	-3.326653e+01	-7.070243e+01
6.200000e-07	-4.769741e-06	-1.046536e-09	-3.310298e+01	-7.051599e+01
6.300000e-07	-4.745976e-06	-1.014988e-09	-3.293805e+01	-7.032766e+01
6.400000e-07	-4.721994e-06	-1.067802e-09	-3.277160e+01	-7.013728e+01
6.500000e-07	-4.697719e-06	-1.062442e-09	-3.260313e+01	-6.994466e+01
6.600000e-07	-4.673005e-06	-1.022868e-09	-3.243161e+01	-6.974961e+01
6.700000e-07	-4.647784e-06	-1.047573e-09	-3.225658e+01	-6.955192e+01
6.800000e-07	-4.621971e-06	-1.050555e-09	-3.207743e+01	-6.935140e+01
6.900000e-07	-4.595489e-06	-1.011019e-09	-3.189364e+01	-6.914782e+01
7.000000e-07	-4.568461e-06	-1.016832e-09	-3.170606e+01	-6.894097e+01
7.100000e-07	-4.541113e-06	-1.040597e-09	-3.151626e+01	-6.873064e+01
7.200000e-07	-4.513629e-06	-1.020484e-09	-3.132551e+01	-6.851662e+01
7.300000e-07	-4.486077e-06	-1.022001e-09	-3.113430e+01	-6.829870e+01
7.400000e-07	-4.458330e-06	-1.037208e-09	-3.094173e+01	-6.807667e+01
7.500000e-07	-4.430282e-06	-1.020510e-09	-3.074706e+01	-6.785035e+01
7.600000e-07	-4.401940e-06	-1.001403e-09	-3.055037e+01	-6.761956e+01
7.700000e-07	-4.373308e-06	-1.013026e-09	-3.035166e+01	-6.738411e+01
7.800000e-07	-4.344368e-06	-1.001463e-09	-3.015080e+01	-6.714386e+01
7.900000e-07	-4.315086e-06	-9.884223e-10	-2.994759e+01	-6.689866e+01
8.000000e-07	-4.285493e-06	-9.948021e-10	-2.974220e+01	-6.664837e+01
8.100000e-07	-4.255649e-06	-9.934618e-10	-2.953508e+01	-6.639289e+01
8.200000e-07	-4.225431e-06	-9.681311e-10	-2.932536e+01	-6.613211e+01
8.300000e-07	-4.194812e-06	-9.708574e-10	-2.911285e+01	-6.586596e+01
8.400000e-07	-4.163880e-06	-9.724894e-10	-2.889818e+01	-6.559438e+01
8.500000e-07	-4.132744e-06	-9.564767e-10	-2.868209e+01	-6.531732e+01
8.600000e-07	-4.101445e-06	-9.505115e-10	-2.846487e+01	-6.503475e+01
8.700000e-07	-4.069925e-06	-9.597025e-10	-2.824611e+01	-6.474667e+01
8.800000e-07	-4.038270e-06	-9.468222e-10	-2.802643e+01	-6.445309e+01
8.900000e-07	-4.006474e-06	-9.365732e-10	-2.780575e+01	-6.415402e+01
9.000000e-07	-3.974399e-06	-9.381216e-10	-2.758314e+01	-6.384951e+01
9.100000e-07	-3.941954e-06	-9.268161e-10	-2.735797e+01	-6.353961e+01
9.200000e-07	-3.909068e-06	-9.113476e-10	-2.712973e+01	-6.322440e+01
9.300000e-07	-3.875841e-06	-9.185963e-10	-2.689913e+01	-6.290396e+01
9.400000e-07	-3.842201e-06	-9.201408e-10	-2.666567e+01	-6.257837e+01
9.500000e-07	-3.807990e-06	-9.052993e-10	-2.642823e+01	-6.224775e+01
9.600000e-07	-3.773351e-06	-9.035055e-10	-2.618783e+01	-6.191220e+01
9.700000e-07	-3.738342e-06	-9.045908e-10	-2.594486e+01	-6.157186e+01
9.800000e-07	-3.703082e-06	-8.889440e-10	-2.570015e+01	-6.122684e+01
9.900000e-07	-3.667672e-06	-8.758373e-10	-2.545440e+01	-6.087728e+01
1.000000e-06	-3.632074e-06	-8.787624e-10	-2.520734e+01	-6.052332e+01
1.010000e-06	-3.596330e-06	-8.751135e-10	-2.495927e+01	-6.016509e+01
1.020000e-06	-3.560468e-06	-8.734870e-10	-2.471038e+01	-5.980274e+01
1.030000e-06	-3.524461e-06	-8.793422e-10	-2.446048e+01	-5.943640e+01
1.040000e-06	-3.488168e-06	-8.790579e-10	-2.420860e+01	-5.906620e+01
1.050000e-06	-3.451573e-06	-8.649105e-10	-2.395463e+01	-5.869229e+01
1.060000e-06	-3.414782e-06	-8.581303e-10	-2.369929e+01	-5.831478e+01
1.070000e-06	-3.377776e-06	-8.495331e-10	-2.344246e+01	-5.793381e+01
1.080000e-06	-3.340487e-06	-8.359970e-10	-2.318366e+01	-5.754949e+01
1.090000e-06	-3.302854e-06	-8.298359e-10	-2.292249e+01	-5.716192e+01
1.100000e-06	-3.264927e-06	-8.321800e-10	-2.265927e+01	-5.677121e+01
1.110000e-06	-3.226832e-06	-8.253235e-10	-2.239488e+01	-5.637744e+01
1.120000e-06	-3.188546e-06	-8.196358e-10	-2.212916e+01	-5.598071e+01
1.130000e-06	-3.150070e-06	-8.161856e-10	-2.186214e+01	-5.558107e+01
1.140000e-06	-3.111436e-06	-8.090236e-10	-2.159401e+01	-5.517860e+01
1.150000e-06	-3.072583e-06	-7.964279e-10	-2.132435e+01	-5.477332e+01
1.160000e-06	-3.033569e-06	-7.907538e-10	-2.105359e+01	-5.436529e+01
1.170000e-06	-2.994340e-06	-7.865380e-10	-2.078133e+01	-5.395452e+01
1.180000e-06	-2.954873e-06	-7.800470e-10	-2.050743e+01	-5.354103e+01
1.190000e-06	-2.915337e-06	-7.761736e-10	-2.023304e+01	-5.312481e+01
1.200000e-06	-2.875738e-06	-7.723095e-10	-1.995821e+01	-5.270584e+01
1.210000e-06	-2.836003e-06	-7.629467e-10	-1.968245e+01	-5.228410e+01
1.220000e-06	-2.796097e-06	-7.540372e-10	-1.940548e+01	-5.185954e+01
1.230000e-06	-2.755966e-06	-7.481840e-10	-1.912697e+01	-5.143211e+01
1.240000e-06	-2.715657e-06	-7.409385e-10	-1.884722e+01	-5.100174e+01
1.250000e-06	-2.675114e-06	-7.333221e-10	-1.856584e+01	-5.056834e+01
1.260000e-06	-2.634195e-06	-7.280203e-10	-1.828185e+01	-5.013182e+01
1.270000e-06	-2.592919e-06	-7.216723e-10	-1.799539e+01	-4.969206e+01
1.280000e-06	-2.551443e-06	-7.111855e-10	-1.770754e+01	-4.924895e+01
1.290000e-06	-2.509737e-06	-7.030683e-10	-1.741809e+01	-4.880234e+01
1.300000e-06	-2.467726e-06	-6.942675e-10	-1.712653e+01	-4.835207e+01
1.310000e-06	-2.425500e-06	-6.841905e-10	-1.683347e+01	-4.789798e+01
1.320000e-06	-2.383042e-06	-6.738924e-10	-1.653880e+01	-4.743989e+01
1.330000e-06	-2.340330e-06	-6.680374e-10	-1.624237e+01	-4.697758e+01
1.340000e-06	-2.297376e-06	-6.615673e-10	-1.594426e+01	-4.651087e+01
1.350000e-06	-2.254184e-06	-6.562803e-10	-1.564450e+01	-4.603950e+01
1.360000e-06	-2.210778e-06	-6.517919e-10	-1.534326e+01	-4.556324e+01
1.370000e-06	-2.167268e-06	-6.451582e-10	-1.504128e+01	-4.508182e+01
1.380000e-06	-2.123752e-06	-6.334180e-10	-1.473927e+01	-4.459498e+01
1.390000e-06	-2.080139e-06	-6.207283e-10	-1.443659e+01	-4.410241e+01
1.400000e-06	-2.036361e-06	-6.086939e-10	-1.413276e+01	-4.360380e+01
1.410000e-06	-1.992509e-06	-5.982723e-10	-1.382842e+01	-4.309883e+01
1.420000e-06	-1.948646e-06	-5.897283e-10	-1.352400e+01	-4.258716e+01
1.430000e-06	-1.904705e-06	-5.856463e-10	-1.321904e+01	-4.206842e+01
1.440000e-06	-1.860653e-06	-5.804657e-10	-1.291332e+01	-4.154224e+01
1.450000e-06	-1.816442e-06	-5.744133e-10	-1.260648e+01	-4.100823e+01
1.460000e-06	-1.772043e-06	-5.666085e-10	-1.229834e+01	-4.046598e+01
1.470000e-06	-1.727541e-06	-5.547924e-10	-1.198949e+01	-3.991507e+01
1.480000e-06	-1.682934e-06	-5.408645e-10	-1.167991e+01	-3.935506e+01
1.490000e-06	-1.638181e-06	-5.288004e-10	-1.136931e+01	-3.878551e+01
1.500000e-06	-1.593251e-06	-5.210957e-10	-1.105749e+01	-3.820594e+01
1.510000e-06	-1.548129e-06	-5.155465e-10	-1.074433e+01	-3.761588e+01
1.520000e-06	-1.503007e-06	-5.102577e-10	-1.043118e+01	-3.701486e+01
1.530000e-06	-1.457861e-06	-5.023324e-10	-1.011785e+01	-3.640237e+01
1.540000e-06	-1.412549e-06	-4.922355e-10	-9.803380e+00	-3.577793e+01
1.550000e-06	-1.367138e-06	-4.810018e-10	-9.488219e+00	-3.514101e+01
1.560000e-06	-1.321658e-06	-4.688689e-10	-9.172578e+00	-3.449112e+01
1.570000e-06	-1.276072e-06	-4.548422e-10	-8.856205e+00	-3.382775e+01
1.580000e-06	-1.230352e-06	-4.404708e-10	-8.538893e+00	-3.315040e+01
1.590000e-06	-1.184522e-06	-4.254788e-10	-8.220823e+00	-3.245856e+01
1.600000e-06	-1.138557e-06	-4.135024e-10	-7.901821e+00	-3.175174e+01
1.610000e-06	-1.092505e-06	-4.057568e-10	-7.582211e+00	-3.102947e+01
1.620000e-06	-1.046363e-06	-3.998689e-10	-7.261973e+00	-3.029127e+01
1.630000e-06	-1.000088e-06	-3.896170e-10	-6.940817e+00	-2.953670e+01
1.640000e-06	-9.537781e-07	-3.775482e-10	-6.619416e+00	-2.876532e+01
1.650000e-06	-9.074665e-07	-3.655656e-10	-6.298004e+00	-2.797674e+01
1.660000e-06	-8.610979e-07	-3.517853e-10	-5.976196e+00	-2.717057e+01
1.670000e-06	-8.146415e-07	-3.364581e-10	-5.653779e+00	-2.634647e+01
1.680000e-06	-7.681719e-07	-3.233276e-10	-5.331271e+00	-2.550413e+01
1.690000e-06	-7.216625e-07	-3.121717e-10	-5.008486e+00	-2.464328e+01
1.700000e-06	-6.750749e-07	-3.013500e-10	-4.685158e+00	-2.376369e+01
1.710000e-06	-6.285166e-07	-2.908331e-10	-4.362034e+00	-2.286517e+01
1.720000e-06	-5.819198e-07	-2.792084e-10	-4.038643e+00	-2.194760e+01
1.730000e-06	-5.352192e-07	-2.641639e-10	-3.714531e+00	-2.101087e+01
1.740000e-06	-4.884171e-07	-2.464484e-10	-3.389715e+00	-2.005498e+01
1.750000e-06	-4.415670e-07	-2.303145e-10	-3.064566e+00	-1.907993e+01
1.760000e-06	-3.947024e-07	-2.178133e-10	-2.739316e+00	-1.808583e+01
1.770000e-06	-3.477706e-07	-2.054936e-10	-2.413600e+00	-1.707283e+01
1.780000e-06	-3.007833e-07	-1.919020e-10	-2.087498e+00	-1.604113e+01
1.790000e-06	-2.537907e-07	-1.782042e-10	-1.761359e+00	-1.499103e+01
1.800000e-06	-2.069129e-07	-1.642181e-10	-1.436018e+00	-1.392285e+01
1.810000e-06	-1.600928e-07	-1.491425e-10	-1.111077e+00	-1.283703e+01
1.820000e-06	-1.131467e-07	-1.336336e-10	-7.852615e-01	-1.173404e+01
1.830000e-06	-6.618144e-08	-1.173973e-10	-4.593128e-01	-1.061444e+01
1.840000e-06	-1.928050e-08	-1.000454e-10	-1.338106e-01	-9.478833e+00
1.850000e-06	2.762342e-08	-8.187234e-11	1.917122e-01	-8.327912e+00
1.860000e-06	7.456447e-08	-6.436347e-11	5.174927e-01	-7.162426e+00
1.870000e-06	1.215521e-07	-4.724117e-11	8.435964e-01	-5.983188e+00
1.880000e-06	1.685102e-07	-2.886763e-11	1.169495e+00	-4.791072e+00
1.890000e-06	2.154377e-07	-1.182428e-11	1.495182e+00	-3.587011e+00
1.900000e-06	2.623117e-07	3.885304e-12	1.820497e+00	-2.371994e+00
1.910000e-06	3.090508e-07	1.851372e-11	2.144876e+00	-1.147061e+00
1.920000e-06	3.557679e-07	3.455157e-11	2.469102e+00	8.669926e-02
1.930000e-06	4.025452e-07	5.396283e-11	2.793747e+00	1.328154e+00
1.940000e-06	4.493592e-07	7.467086e-11	3.118645e+00	2.576131e+00
1.950000e-06	4.961105e-07	9.294534e-11	3.443109e+00	3.829424e+00
1.960000e-06	5.427746e-07	1.079068e-10	3.766967e+00	5.086798e+00
1.970000e-06	5.893621e-07	1.217404e-10	4.090294e+00	6.346994e+00
1.980000e-06	6.359109e-07	1.378789e-10	4.413353e+00	7.608735e+00
1.990000e-06	6.824298e-07	1.562998e-10	4.736203e+00	8.870732e+00
2.000000e-06	7.288477e-07	1.758643e-10	5.058353e+00	1.013169e+01
2.010000e-06	7.751572e-07	1.957041e-10	5.379750e+00	1.139031e+01
2.020000e-06	8.214942e-07	2.149501e-10	5.701339e+00	1.264531e+01
2.030000e-06	8.677932e-07	2.334295e-10	6.022663e+00	1.389540e+01
2.040000e-06	9.138793e-07	2.516392e-10	6.342510e+00	1.513933e+01
2.050000e-06	9.599268e-07	2.689186e-10	6.662089e+00	1.637587e+01
2.060000e-06	1.006018e-06	2.860582e-10	6.981970e+00	1.760381e+01
2.070000e-06	1.052075e-06	3.024281e-10	7.301617e+00	1.882197e+01
2.080000e-06	1.098086e-06	3.185141e-10	7.620943e+00	2.002923e+01
2.090000e-06	1.144005e-06	3.361346e-10	7.939631e+00	2.122451e+01
2.100000e-06	1.189841e-06	3.560046e-10	8.257740e+00	2.240678e+01
2.110000e-06	1.235618e-06	3.752514e-10	8.575446e+00	2.357506e+01
2.120000e-06	1.281251e-06	3.920318e-10	8.892143e+00	2.472843e+01
2.130000e-06	1.326769e-06	4.069687e-10	9.208048e+00	2.586603e+01
2.140000e-06	1.372210e-06	4.207149e-10	9.523421e+00	2.698708e+01
2.150000e-06	1.417600e-06	4.337505e-10	9.838436e+00	2.809087e+01
2.160000e-06	1.462902e-06	4.476125e-10	1.015284e+01	2.917674e+01
2.170000e-06	1.508127e-06	4.630970e-10	1.046671e+01	3.024411e+01
2.180000e-06	1.553240e-06	4.793190e-10	1.077980e+01	3.129249e+01
2.190000e-06	1.598167e-06	4.971863e-10	1.109161e+01	3.232145e+01
2.200000e-06	1.642962e-06	5.156004e-10	1.140250e+01	3.333064e+01
2.210000e-06	1.687602e-06	5.309982e-10	1.171231e+01	3.431978e+01
2.220000e-06	1.732120e-06	5.423526e-10	1.202127e+01	3.528867e+01
2.230000e-06	1.776521e-06	5.508401e-10	1.232942e+01	3.623718e+01
2.240000e-06	1.820783e-06	5.595944e-10	1.263661e+01	3.716526e+01
2.250000e-06	1.864943e-06	5.699675e-10	1.294308e+01	3.807291e+01
2.260000e-06	1.908941e-06	5.820418e-10	1.324844e+01	3.896020e+01
2.270000e-06	1.952796e-06	5.964691e-10	1.355281e+01	3.982728e+01
2.280000e-06	1.996585e-06	6.102501e-10	1.385671e+01	4.067435e+01
2.290000e-06	2.040319e-06	6.213639e-10	1.416023e+01	4.150165e+01
2.300000e-06	2.084011e-06	6.300192e-10	1.446346e+01	4.230950e+01
2.310000e-06	2.127645e-06	6.384698e-10	1.476630e+01	4.309825e+01
2.320000e-06	2.171207e-06	6.488311e-10	1.506863e+01	4.386829e+01
2.330000e-06	2.214729e-06	6.611200e-10	1.537067e+01	4.462005e+01
2.340000e-06	2.258188e-06	6.718972e-10	1.567229e+01	4.535401e+01
2.350000e-06	2.301488e-06	6.804626e-10	1.597280e+01	4.607066e+01
2.360000e-06	2.344568e-06	6.869574e-10	1.627178e+01	4.677051e+01
2.370000e-06	2.387352e-06	6.923891e-10	1.656871e+01	4.745410e+01
2.380000e-06	2.429874e-06	6.989777e-10	1.686382e+01	4.812199e+01
2.390000e-06	2.472242e-06	7.077172e-10	1.715787e+01	4.877473e+01
2.400000e-06	2.514344e-06	7.172397e-10	1.745006e+01	4.941288e+01
2.410000e-06	2.556065e-06	7.256406e-10	1.773962e+01	5.003701e+01
2.420000e-06	2.597432e-06	7.331607e-10	1.802671e+01	5.064768e+01
2.430000e-06	2.638459e-06	7.403669e-10	1.831145e+01	5.124543e+01
2.440000e-06	2.679154e-06	7.450485e-10	1.859388e+01	5.183080e+01
2.450000e-06	2.719557e-06	7.476478e-10	1.887429e+01	5.240431e+01
2.460000e-06	2.759744e-06	7.521822e-10	1.915319e+01	5.296646e+01
2.470000e-06	2.799735e-06	7.602066e-10	1.943073e+01	5.351774e+01
2.480000e-06	2.839563e-06	7.705477e-10	1.970715e+01	5.405859e+01
2.490000e-06	2.879296e-06	7.799313e-10	1.998290e+01	5.458945e+01
2.500000e-06	2.918948e-06	7.897356e-10	2.025810e+01	5.511072e+01
2.510000e-06	2.958546e-06	7.994733e-10	2.053292e+01	5.562277e+01
2.520000e-06	2.998023e-06	8.050766e-10	2.080689e+01	5.612594e+01
2.530000e-06	3.037284e-06	8.091431e-10	2.107937e+01	5.662054e+01
2.540000e-06	3.076376e-06	8.147302e-10	2.135068e+01	5.710687e+01
2.550000e-06	3.115267e-06	8.212366e-10	2.162059e+01	5.758516e+01
2.560000e-06	3.153873e-06	8.274162e-10	2.188853e+01	5.805564e+01
2.570000e-06	3.192173e-06	8.330775e-10	2.215434e+01	5.851851e+01
2.580000e-06	3.230183e-06	8.396737e-10	2.241813e+01	5.897392e+01
2.590000e-06	3.267984e-06	8.481172e-10	2.268048e+01	5.942202e+01
2.600000e-06	3.305622e-06	8.569593e-10	2.294169e+01	5.986292e+01
2.610000e-06	3.343066e-06	8.645890e-10	2.320156e+01	6.029671e+01
2.620000e-06	3.380287e-06	8.718298e-10	2.345989e+01	6.072347e+01
2.630000e-06	3.417304e-06	8.786344e-10	2.371679e+01	6.114325e+01
2.640000e-06	3.454080e-06	8.835517e-10	2.397203e+01	6.155609e+01
2.650000e-06	3.490513e-06	8.890162e-10	2.422488e+01	6.196201e+01
2.660000e-06	3.526634e-06	8.968780e-10	2.447556e+01	6.236103e+01
2.670000e-06	3.562609e-06	9.040399e-10	2.472524e+01	6.275316e+01
2.680000e-06	3.598442e-06	9.078226e-10	2.497393e+01	6.313839e+01
2.690000e-06	3.634121e-06	9.095910e-10	2.522154e+01	6.351672e+01
2.700000e-06	3.669728e-06	9.123165e-10	2.546867e+01	6.388816e+01
2.710000e-06	3.705226e-06	9.171289e-10	2.571503e+01	6.425270e+01
2.720000e-06	3.740513e-06	9.232215e-10	2.595993e+01	6.461034e+01
2.730000e-06	3.775483e-06	9.295849e-10	2.620262e+01	6.496108e+01
2.740000e-06	3.810122e-06	9.347037e-10	2.644303e+01	6.530495e+01
2.750000e-06	3.844288e-06	9.370250e-10	2.668015e+01	6.564197e+01
2.760000e-06	3.877894e-06	9.381268e-10	2.691338e+01	6.597216e+01
2.770000e-06	3.910990e-06	9.400412e-10	2.714308e+01	6.629557e+01
2.780000e-06	3.943572e-06	9.438300e-10	2.736920e+01	6.661227e+01
2.790000e-06	3.975825e-06	9.501062e-10	2.759304e+01	6.692231e+01
2.800000e-06	4.007859e-06	9.562830e-10	2.781537e+01	6.722577e+01
2.810000e-06	4.039685e-06	9.621057e-10	2.803624e+01	6.752275e+01
2.820000e-06	4.071341e-06	9.669403e-10	2.825594e+01	6.781335e+01
2.830000e-06	4.102869e-06	9.695486e-10	2.847476e+01	6.809769e+01
2.840000e-06	4.134263e-06	9.714329e-10	2.869264e+01	6.837590e+01
2.850000e-06	4.165443e-06	9.725633e-10	2.890903e+01	6.864812e+01
2.860000e-06	4.196308e-06	9.761138e-10	2.912324e+01	6.891448e+01
2.870000e-06	4.226785e-06	9.812771e-10	2.933476e+01	6.917514e+01
2.880000e-06	4.256904e-06	9.851074e-10	2.954379e+01	6.943027e+01
2.890000e-06	4.286686e-06	9.884022e-10	2.975048e+01	6.968003e+01
2.900000e-06	4.316230e-06	9.902513e-10	2.995552e+01	6.992459e+01
2.910000e-06	4.345567e-06	9.927274e-10	3.015913e+01	7.016411e+01
