# Temperatura_=_-0.4
# Concentracion g/m^3_=_1620.0
# C_Vs_to_Am_M_A/Vsm_=_65563218390.804596
# pendiente_HvsI_1/m_=_3716.3
# ordenada_HvsI_A/m_=_1297.0
# frecuencia_Hz_=_135099.09946278148

Tiempo_(s)	Campo_(V.s)	Magnetizacion_(V.s)	Campo_(kA/m)	Magnetizacion_(A/m)
0.000000e+00	-5.500953e-06	-1.682796e-09	-3.836995e+01	-1.074896e+02
1.000000e-08	-5.501112e-06	-1.677897e-09	-3.837106e+01	-1.074660e+02
2.000000e-08	-5.501006e-06	-1.675548e-09	-3.837032e+01	-1.074410e+02
3.000000e-08	-5.500561e-06	-1.675446e-09	-3.836722e+01	-1.074146e+02
4.000000e-08	-5.499664e-06	-1.675802e-09	-3.836096e+01	-1.073867e+02
5.000000e-08	-5.498080e-06	-1.675413e-09	-3.834991e+01	-1.073573e+02
6.000000e-08	-5.495861e-06	-1.671785e-09	-3.833443e+01	-1.073264e+02
7.000000e-08	-5.493126e-06	-1.670762e-09	-3.831536e+01	-1.072939e+02
8.000000e-08	-5.489805e-06	-1.677171e-09	-3.829219e+01	-1.072598e+02
9.000000e-08	-5.486014e-06	-1.705633e-09	-3.826575e+01	-1.072239e+02
1.000000e-07	-5.481825e-06	-1.735496e-09	-3.823653e+01	-1.071862e+02
1.100000e-07	-5.477391e-06	-1.704082e-09	-3.820560e+01	-1.071464e+02
1.200000e-07	-5.472860e-06	-1.636892e-09	-3.817400e+01	-1.071047e+02
1.300000e-07	-5.468109e-06	-1.642384e-09	-3.814086e+01	-1.070606e+02
1.400000e-07	-5.462896e-06	-1.693522e-09	-3.810450e+01	-1.070143e+02
1.500000e-07	-5.457145e-06	-1.713332e-09	-3.806438e+01	-1.069654e+02
1.600000e-07	-5.451016e-06	-1.671060e-09	-3.802163e+01	-1.069140e+02
1.700000e-07	-5.444654e-06	-1.675030e-09	-3.797726e+01	-1.068597e+02
1.800000e-07	-5.437840e-06	-1.708246e-09	-3.792973e+01	-1.068025e+02
1.900000e-07	-5.430567e-06	-1.681021e-09	-3.787900e+01	-1.067422e+02
2.000000e-07	-5.423058e-06	-1.625523e-09	-3.782662e+01	-1.066786e+02
2.100000e-07	-5.415336e-06	-1.628542e-09	-3.777276e+01	-1.066117e+02
2.200000e-07	-5.407409e-06	-1.677795e-09	-3.771747e+01	-1.065412e+02
2.300000e-07	-5.399169e-06	-1.680564e-09	-3.765999e+01	-1.064671e+02
2.400000e-07	-5.390465e-06	-1.654217e-09	-3.759928e+01	-1.063891e+02
2.500000e-07	-5.381136e-06	-1.632664e-09	-3.753421e+01	-1.063071e+02
2.600000e-07	-5.371114e-06	-1.637116e-09	-3.746431e+01	-1.062211e+02
2.700000e-07	-5.360466e-06	-1.636059e-09	-3.739004e+01	-1.061308e+02
2.800000e-07	-5.349286e-06	-1.634228e-09	-3.731205e+01	-1.060361e+02
2.900000e-07	-5.337642e-06	-1.628757e-09	-3.723083e+01	-1.059370e+02
3.000000e-07	-5.325610e-06	-1.638253e-09	-3.714691e+01	-1.058332e+02
3.100000e-07	-5.313243e-06	-1.638228e-09	-3.706065e+01	-1.057248e+02
3.200000e-07	-5.300480e-06	-1.620048e-09	-3.697163e+01	-1.056115e+02
3.300000e-07	-5.287275e-06	-1.592748e-09	-3.687951e+01	-1.054933e+02
3.400000e-07	-5.273733e-06	-1.594751e-09	-3.678506e+01	-1.053700e+02
3.500000e-07	-5.259872e-06	-1.603761e-09	-3.668837e+01	-1.052417e+02
3.600000e-07	-5.245503e-06	-1.591138e-09	-3.658815e+01	-1.051081e+02
3.700000e-07	-5.230708e-06	-1.590301e-09	-3.648496e+01	-1.049693e+02
3.800000e-07	-5.215420e-06	-1.607902e-09	-3.637832e+01	-1.048250e+02
3.900000e-07	-5.199431e-06	-1.592934e-09	-3.626679e+01	-1.046753e+02
4.000000e-07	-5.182927e-06	-1.566943e-09	-3.615167e+01	-1.045201e+02
4.100000e-07	-5.166129e-06	-1.592234e-09	-3.603450e+01	-1.043592e+02
4.200000e-07	-5.149099e-06	-1.598193e-09	-3.591572e+01	-1.041926e+02
4.300000e-07	-5.131736e-06	-1.551062e-09	-3.579461e+01	-1.040203e+02
4.400000e-07	-5.114075e-06	-1.552296e-09	-3.567142e+01	-1.038421e+02
4.500000e-07	-5.096105e-06	-1.595510e-09	-3.554608e+01	-1.036580e+02
4.600000e-07	-5.077668e-06	-1.567686e-09	-3.541748e+01	-1.034679e+02
4.700000e-07	-5.058796e-06	-1.535986e-09	-3.528584e+01	-1.032717e+02
4.800000e-07	-5.039604e-06	-1.578278e-09	-3.515198e+01	-1.030694e+02
4.900000e-07	-5.020115e-06	-1.583250e-09	-3.501604e+01	-1.028610e+02
5.000000e-07	-5.000365e-06	-1.524574e-09	-3.487828e+01	-1.026463e+02
5.100000e-07	-4.980425e-06	-1.528812e-09	-3.473919e+01	-1.024253e+02
5.200000e-07	-4.960249e-06	-1.549926e-09	-3.459846e+01	-1.021980e+02
5.300000e-07	-4.939707e-06	-1.510560e-09	-3.445518e+01	-1.019643e+02
5.400000e-07	-4.918781e-06	-1.505115e-09	-3.430921e+01	-1.017241e+02
5.500000e-07	-4.897557e-06	-1.546418e-09	-3.416118e+01	-1.014774e+02
5.600000e-07	-4.875994e-06	-1.522285e-09	-3.401077e+01	-1.012242e+02
5.700000e-07	-4.854076e-06	-1.489362e-09	-3.385789e+01	-1.009645e+02
5.800000e-07	-4.831892e-06	-1.517256e-09	-3.370315e+01	-1.006981e+02
5.900000e-07	-4.809377e-06	-1.516806e-09	-3.354610e+01	-1.004252e+02
6.000000e-07	-4.786399e-06	-1.479305e-09	-3.338583e+01	-1.001456e+02
6.100000e-07	-4.763046e-06	-1.496176e-09	-3.322294e+01	-9.985944e+01
6.200000e-07	-4.739466e-06	-1.517050e-09	-3.305847e+01	-9.956663e+01
6.300000e-07	-4.715683e-06	-1.491474e-09	-3.289258e+01	-9.926723e+01
6.400000e-07	-4.691712e-06	-1.482971e-09	-3.272538e+01	-9.896124e+01
6.500000e-07	-4.667462e-06	-1.493155e-09	-3.255623e+01	-9.864870e+01
6.600000e-07	-4.642680e-06	-1.470356e-09	-3.238337e+01	-9.832966e+01
6.700000e-07	-4.617384e-06	-1.450001e-09	-3.220693e+01	-9.800415e+01
6.800000e-07	-4.591709e-06	-1.457803e-09	-3.202784e+01	-9.767224e+01
6.900000e-07	-4.565520e-06	-1.456946e-09	-3.184517e+01	-9.733400e+01
7.000000e-07	-4.538742e-06	-1.444748e-09	-3.165839e+01	-9.698951e+01
7.100000e-07	-4.511561e-06	-1.446791e-09	-3.146879e+01	-9.663885e+01
7.200000e-07	-4.484099e-06	-1.446313e-09	-3.127725e+01	-9.628212e+01
7.300000e-07	-4.456430e-06	-1.430853e-09	-3.108425e+01	-9.591943e+01
7.400000e-07	-4.428623e-06	-1.423226e-09	-3.089029e+01	-9.555087e+01
7.500000e-07	-4.400631e-06	-1.420320e-09	-3.069504e+01	-9.517657e+01
7.600000e-07	-4.372375e-06	-1.413388e-09	-3.049796e+01	-9.479666e+01
7.700000e-07	-4.343732e-06	-1.408100e-09	-3.029816e+01	-9.441125e+01
7.800000e-07	-4.314746e-06	-1.407719e-09	-3.009598e+01	-9.402048e+01
7.900000e-07	-4.285421e-06	-1.400895e-09	-2.989144e+01	-9.362448e+01
8.000000e-07	-4.255814e-06	-1.391709e-09	-2.968493e+01	-9.322338e+01
8.100000e-07	-4.225969e-06	-1.381537e-09	-2.947675e+01	-9.281732e+01
8.200000e-07	-4.195857e-06	-1.366994e-09	-2.926672e+01	-9.240642e+01
8.300000e-07	-4.165518e-06	-1.353356e-09	-2.905510e+01	-9.199082e+01
8.400000e-07	-4.134903e-06	-1.346123e-09	-2.884155e+01	-9.157064e+01
8.500000e-07	-4.103944e-06	-1.340778e-09	-2.862561e+01	-9.114599e+01
8.600000e-07	-4.072654e-06	-1.337610e-09	-2.840736e+01	-9.071699e+01
8.700000e-07	-4.041168e-06	-1.337532e-09	-2.818774e+01	-9.028375e+01
8.800000e-07	-4.009566e-06	-1.334910e-09	-2.796731e+01	-8.984634e+01
8.900000e-07	-3.977851e-06	-1.323207e-09	-2.774609e+01	-8.940487e+01
9.000000e-07	-3.945911e-06	-1.310743e-09	-2.752331e+01	-8.895939e+01
9.100000e-07	-3.913661e-06	-1.299211e-09	-2.729835e+01	-8.850997e+01
9.200000e-07	-3.881046e-06	-1.285898e-09	-2.707086e+01	-8.805665e+01
9.300000e-07	-3.848040e-06	-1.278173e-09	-2.684064e+01	-8.759946e+01
9.400000e-07	-3.814632e-06	-1.277872e-09	-2.660762e+01	-8.713842e+01
9.500000e-07	-3.780741e-06	-1.275063e-09	-2.637122e+01	-8.667353e+01
9.600000e-07	-3.746303e-06	-1.268052e-09	-2.613101e+01	-8.620477e+01
9.700000e-07	-3.711468e-06	-1.261227e-09	-2.588803e+01	-8.573211e+01
9.800000e-07	-3.676340e-06	-1.252501e-09	-2.564301e+01	-8.525552e+01
9.900000e-07	-3.640936e-06	-1.239031e-09	-2.539606e+01	-8.477492e+01
1.000000e-06	-3.605350e-06	-1.228812e-09	-2.514784e+01	-8.429024e+01
1.010000e-06	-3.569670e-06	-1.224342e-09	-2.489897e+01	-8.380139e+01
1.020000e-06	-3.533905e-06	-1.217990e-09	-2.464950e+01	-8.330827e+01
1.030000e-06	-3.497952e-06	-1.210702e-09	-2.439872e+01	-8.281077e+01
1.040000e-06	-3.461878e-06	-1.205942e-09	-2.414710e+01	-8.230876e+01
1.050000e-06	-3.425539e-06	-1.198261e-09	-2.389364e+01	-8.180210e+01
1.060000e-06	-3.388854e-06	-1.186013e-09	-2.363775e+01	-8.129065e+01
1.070000e-06	-3.351966e-06	-1.176673e-09	-2.338045e+01	-8.077426e+01
1.080000e-06	-3.314807e-06	-1.169490e-09	-2.312126e+01	-8.025277e+01
1.090000e-06	-3.277302e-06	-1.162467e-09	-2.285966e+01	-7.972601e+01
1.100000e-06	-3.239647e-06	-1.155357e-09	-2.259701e+01	-7.919383e+01
1.110000e-06	-3.201856e-06	-1.145645e-09	-2.233341e+01	-7.865605e+01
1.120000e-06	-3.163762e-06	-1.131305e-09	-2.206770e+01	-7.811252e+01
1.130000e-06	-3.125372e-06	-1.116538e-09	-2.179992e+01	-7.756307e+01
1.140000e-06	-3.086804e-06	-1.105408e-09	-2.153091e+01	-7.700754e+01
1.150000e-06	-3.048149e-06	-1.097514e-09	-2.126128e+01	-7.644578e+01
1.160000e-06	-3.009308e-06	-1.090680e-09	-2.099037e+01	-7.587765e+01
1.170000e-06	-2.970182e-06	-1.084163e-09	-2.071745e+01	-7.530301e+01
1.180000e-06	-2.930881e-06	-1.074818e-09	-2.044333e+01	-7.472172e+01
1.190000e-06	-2.891435e-06	-1.064747e-09	-2.016818e+01	-7.413368e+01
1.200000e-06	-2.851791e-06	-1.053057e-09	-1.989166e+01	-7.353877e+01
1.210000e-06	-2.812043e-06	-1.042180e-09	-1.961441e+01	-7.293689e+01
1.220000e-06	-2.772196e-06	-1.032213e-09	-1.933647e+01	-7.232797e+01
1.230000e-06	-2.732195e-06	-1.022820e-09	-1.905746e+01	-7.171192e+01
1.240000e-06	-2.691997e-06	-1.013484e-09	-1.877707e+01	-7.108870e+01
1.250000e-06	-2.651655e-06	-1.004792e-09	-1.849568e+01	-7.045825e+01
1.260000e-06	-2.611190e-06	-9.946674e-10	-1.821343e+01	-6.982053e+01
1.270000e-06	-2.570429e-06	-9.827022e-10	-1.792911e+01	-6.917552e+01
1.280000e-06	-2.529376e-06	-9.729948e-10	-1.764277e+01	-6.852320e+01
1.290000e-06	-2.488084e-06	-9.625947e-10	-1.735475e+01	-6.786355e+01
1.300000e-06	-2.446421e-06	-9.491537e-10	-1.706414e+01	-6.719658e+01
1.310000e-06	-2.404508e-06	-9.367294e-10	-1.677180e+01	-6.652227e+01
1.320000e-06	-2.362389e-06	-9.258085e-10	-1.647801e+01	-6.584064e+01
1.330000e-06	-2.319954e-06	-9.131449e-10	-1.618202e+01	-6.515169e+01
1.340000e-06	-2.277193e-06	-9.016189e-10	-1.588376e+01	-6.445541e+01
1.350000e-06	-2.234186e-06	-8.922798e-10	-1.558377e+01	-6.375181e+01
1.360000e-06	-2.190960e-06	-8.815911e-10	-1.528227e+01	-6.304087e+01
1.370000e-06	-2.147505e-06	-8.694309e-10	-1.497916e+01	-6.232257e+01
1.380000e-06	-2.103886e-06	-8.571555e-10	-1.467491e+01	-6.159688e+01
1.390000e-06	-2.060197e-06	-8.425600e-10	-1.437017e+01	-6.086376e+01
1.400000e-06	-2.016472e-06	-8.279050e-10	-1.406519e+01	-6.012313e+01
1.410000e-06	-1.972687e-06	-8.160192e-10	-1.375978e+01	-5.937492e+01
1.420000e-06	-1.928830e-06	-8.067867e-10	-1.345387e+01	-5.861902e+01
1.430000e-06	-1.884891e-06	-7.954897e-10	-1.314739e+01	-5.785530e+01
1.440000e-06	-1.840841e-06	-7.825885e-10	-1.284013e+01	-5.708359e+01
1.450000e-06	-1.796722e-06	-7.694148e-10	-1.253240e+01	-5.630372e+01
1.460000e-06	-1.752488e-06	-7.546250e-10	-1.222386e+01	-5.551547e+01
1.470000e-06	-1.708098e-06	-7.384958e-10	-1.191423e+01	-5.471857e+01
1.480000e-06	-1.663638e-06	-7.250625e-10	-1.160412e+01	-5.391277e+01
1.490000e-06	-1.619037e-06	-7.170090e-10	-1.129302e+01	-5.309773e+01
1.500000e-06	-1.574308e-06	-7.095555e-10	-1.098103e+01	-5.227310e+01
1.510000e-06	-1.529482e-06	-6.988294e-10	-1.066836e+01	-5.143852e+01
1.520000e-06	-1.484506e-06	-6.854348e-10	-1.035465e+01	-5.059354e+01
1.530000e-06	-1.439418e-06	-6.709353e-10	-1.004015e+01	-4.973773e+01
1.540000e-06	-1.394266e-06	-6.556576e-10	-9.725206e+00	-4.887060e+01
1.550000e-06	-1.349069e-06	-6.403617e-10	-9.409951e+00	-4.799164e+01
1.560000e-06	-1.303825e-06	-6.271674e-10	-9.094368e+00	-4.710031e+01
1.570000e-06	-1.258460e-06	-6.164069e-10	-8.777939e+00	-4.619604e+01
1.580000e-06	-1.212986e-06	-6.057417e-10	-8.460756e+00	-4.527824e+01
1.590000e-06	-1.167424e-06	-5.927819e-10	-8.142952e+00	-4.434630e+01
1.600000e-06	-1.121708e-06	-5.769260e-10	-7.824076e+00	-4.339960e+01
1.610000e-06	-1.075876e-06	-5.577554e-10	-7.504389e+00	-4.243750e+01
1.620000e-06	-1.029999e-06	-5.383577e-10	-7.184396e+00	-4.145937e+01
1.630000e-06	-9.840694e-07	-5.228543e-10	-6.864028e+00	-4.046455e+01
1.640000e-06	-9.380960e-07	-5.096215e-10	-6.543357e+00	-3.945241e+01
1.650000e-06	-8.920653e-07	-4.959392e-10	-6.222286e+00	-3.842232e+01
1.660000e-06	-8.459798e-07	-4.813929e-10	-5.900833e+00	-3.737366e+01
1.670000e-06	-7.998970e-07	-4.667784e-10	-5.579398e+00	-3.630582e+01
1.680000e-06	-7.537552e-07	-4.523859e-10	-5.257553e+00	-3.521824e+01
1.690000e-06	-7.075071e-07	-4.371626e-10	-4.934965e+00	-3.411038e+01
1.700000e-06	-6.612429e-07	-4.196018e-10	-4.612266e+00	-3.298173e+01
1.710000e-06	-6.150358e-07	-3.982869e-10	-4.289964e+00	-3.183183e+01
1.720000e-06	-5.686703e-07	-3.767529e-10	-3.966558e+00	-3.066027e+01
1.730000e-06	-5.221139e-07	-3.590351e-10	-3.641820e+00	-2.946670e+01
1.740000e-06	-4.755811e-07	-3.427834e-10	-3.317247e+00	-2.825081e+01
1.750000e-06	-4.290885e-07	-3.248694e-10	-2.992955e+00	-2.701238e+01
1.760000e-06	-3.825335e-07	-3.054472e-10	-2.668227e+00	-2.575126e+01
1.770000e-06	-3.359252e-07	-2.848663e-10	-2.343127e+00	-2.446734e+01
1.780000e-06	-2.893644e-07	-2.627366e-10	-2.018359e+00	-2.316062e+01
1.790000e-06	-2.427866e-07	-2.431547e-10	-1.693472e+00	-2.183119e+01
1.800000e-06	-1.961790e-07	-2.266327e-10	-1.368377e+00	-2.047920e+01
1.810000e-06	-1.495749e-07	-2.091361e-10	-1.043307e+00	-1.910489e+01
1.820000e-06	-1.028639e-07	-1.888795e-10	-7.174907e-01	-1.770861e+01
1.830000e-06	-5.610636e-08	-1.670729e-10	-3.913501e-01	-1.629079e+01
1.840000e-06	-9.452514e-09	-1.447152e-10	-6.593267e-02	-1.485195e+01
1.850000e-06	3.723562e-08	-1.226110e-10	2.597239e-01	-1.339270e+01
1.860000e-06	8.395587e-08	-1.015616e-10	5.856044e-01	-1.191375e+01
1.870000e-06	1.306307e-07	-8.004814e-11	9.111682e-01	-1.041589e+01
1.880000e-06	1.772645e-07	-5.856553e-11	1.236446e+00	-8.900017e+00
1.890000e-06	2.238736e-07	-3.874931e-11	1.561551e+00	-7.367095e+00
1.900000e-06	2.705106e-07	-2.064752e-11	1.886851e+00	-5.818180e+00
1.910000e-06	3.170478e-07	2.444308e-13	2.211455e+00	-4.254405e+00
1.920000e-06	3.635481e-07	2.520600e-11	2.535801e+00	-2.676978e+00
1.930000e-06	4.100557e-07	5.242461e-11	2.860198e+00	-1.087177e+00
1.940000e-06	4.564985e-07	7.966797e-11	3.184143e+00	5.136545e-01
1.950000e-06	5.029182e-07	1.031217e-10	3.507928e+00	2.124117e+00
1.960000e-06	5.492548e-07	1.228089e-10	3.831133e+00	3.742760e+00
1.970000e-06	5.955351e-07	1.398534e-10	4.153944e+00	5.368085e+00
1.980000e-06	6.418036e-07	1.583529e-10	4.476674e+00	6.998558e+00
1.990000e-06	6.880306e-07	1.766922e-10	4.799114e+00	8.632616e+00
2.000000e-06	7.342262e-07	1.993760e-10	5.121335e+00	1.026867e+01
2.010000e-06	7.804073e-07	2.263393e-10	5.443455e+00	1.190513e+01
2.020000e-06	8.265943e-07	2.521517e-10	5.765616e+00	1.354038e+01
2.030000e-06	8.727364e-07	2.778615e-10	6.087464e+00	1.517283e+01
2.040000e-06	9.188206e-07	3.016743e-10	6.408908e+00	1.680087e+01
2.050000e-06	9.648488e-07	3.226786e-10	6.729961e+00	1.842294e+01
2.060000e-06	1.010827e-06	3.433454e-10	7.050667e+00	2.003749e+01
2.070000e-06	1.056650e-06	3.644020e-10	7.370285e+00	2.164301e+01
2.080000e-06	1.102301e-06	3.867833e-10	7.688708e+00	2.323802e+01
2.090000e-06	1.147931e-06	4.109649e-10	8.006987e+00	2.482112e+01
2.100000e-06	1.193508e-06	4.348453e-10	8.324895e+00	2.639093e+01
2.110000e-06	1.238972e-06	4.570290e-10	8.642008e+00	2.794616e+01
2.120000e-06	1.284361e-06	4.778688e-10	8.958603e+00	2.948556e+01
2.130000e-06	1.329716e-06	4.975167e-10	9.274960e+00	3.100799e+01
2.140000e-06	1.374957e-06	5.158002e-10	9.590523e+00	3.251237e+01
2.150000e-06	1.420072e-06	5.348751e-10	9.905208e+00	3.399768e+01
2.160000e-06	1.465070e-06	5.541453e-10	1.021908e+01	3.546303e+01
2.170000e-06	1.509946e-06	5.738931e-10	1.053209e+01	3.690759e+01
2.180000e-06	1.554742e-06	5.941019e-10	1.084455e+01	3.833063e+01
2.190000e-06	1.599454e-06	6.144166e-10	1.115642e+01	3.973151e+01
2.200000e-06	1.643978e-06	6.330947e-10	1.146698e+01	4.110969e+01
2.210000e-06	1.688341e-06	6.489671e-10	1.177642e+01	4.246472e+01
2.220000e-06	1.732664e-06	6.630263e-10	1.208559e+01	4.379624e+01
2.230000e-06	1.776932e-06	6.796411e-10	1.239436e+01	4.510398e+01
2.240000e-06	1.821052e-06	6.994293e-10	1.270210e+01	4.638778e+01
2.250000e-06	1.865042e-06	7.200224e-10	1.300894e+01	4.764755e+01
2.260000e-06	1.908960e-06	7.401402e-10	1.331528e+01	4.888328e+01
2.270000e-06	1.952791e-06	7.580713e-10	1.362100e+01	5.009505e+01
2.280000e-06	1.996576e-06	7.725313e-10	1.392641e+01	5.128302e+01
2.290000e-06	2.040300e-06	7.852290e-10	1.423139e+01	5.244742e+01
2.300000e-06	2.083914e-06	7.965372e-10	1.453561e+01	5.358854e+01
2.310000e-06	2.127423e-06	8.087763e-10	1.483909e+01	5.470674e+01
2.320000e-06	2.170841e-06	8.247065e-10	1.514193e+01	5.580243e+01
2.330000e-06	2.214063e-06	8.435340e-10	1.544341e+01	5.687607e+01
2.340000e-06	2.257096e-06	8.614204e-10	1.574357e+01	5.792818e+01
2.350000e-06	2.299967e-06	8.758617e-10	1.604260e+01	5.895930e+01
2.360000e-06	2.342525e-06	8.888307e-10	1.633945e+01	5.997000e+01
2.370000e-06	2.384782e-06	9.015454e-10	1.663420e+01	6.096088e+01
2.380000e-06	2.426696e-06	9.140450e-10	1.692656e+01	6.193256e+01
2.390000e-06	2.468316e-06	9.278092e-10	1.721686e+01	6.288568e+01
2.400000e-06	2.509705e-06	9.425412e-10	1.750556e+01	6.382086e+01
2.410000e-06	2.550871e-06	9.571121e-10	1.779270e+01	6.473875e+01
2.420000e-06	2.591802e-06	9.714422e-10	1.807820e+01	6.563998e+01
2.430000e-06	2.632425e-06	9.837850e-10	1.836155e+01	6.652517e+01
2.440000e-06	2.672813e-06	9.937645e-10	1.864326e+01	6.739492e+01
2.450000e-06	2.713033e-06	1.002895e-09	1.892380e+01	6.824983e+01
2.460000e-06	2.753106e-06	1.014020e-09	1.920332e+01	6.909044e+01
2.470000e-06	2.793038e-06	1.025804e-09	1.948185e+01	6.991729e+01
2.480000e-06	2.832796e-06	1.038586e-09	1.975917e+01	7.073089e+01
2.490000e-06	2.872468e-06	1.052129e-09	2.003588e+01	7.153169e+01
2.500000e-06	2.912024e-06	1.065310e-09	2.031179e+01	7.232014e+01
2.510000e-06	2.951370e-06	1.078150e-09	2.058624e+01	7.309662e+01
2.520000e-06	2.990515e-06	1.089664e-09	2.085928e+01	7.386148e+01
2.530000e-06	3.029448e-06	1.100473e-09	2.113084e+01	7.461504e+01
2.540000e-06	3.068191e-06	1.111599e-09	2.140108e+01	7.535758e+01
2.550000e-06	3.106690e-06	1.122013e-09	2.166962e+01	7.608932e+01
2.560000e-06	3.144950e-06	1.130203e-09	2.193649e+01	7.681047e+01
2.570000e-06	3.183017e-06	1.138081e-09	2.220201e+01	7.752117e+01
2.580000e-06	3.220950e-06	1.148656e-09	2.246660e+01	7.822156e+01
2.590000e-06	3.258706e-06	1.159519e-09	2.272995e+01	7.891171e+01
2.600000e-06	3.296151e-06	1.169212e-09	2.299113e+01	7.959169e+01
2.610000e-06	3.333293e-06	1.177717e-09	2.325021e+01	8.026152e+01
2.620000e-06	3.370195e-06	1.185754e-09	2.350760e+01	8.092121e+01
2.630000e-06	3.406936e-06	1.194330e-09	2.376388e+01	8.157073e+01
2.640000e-06	3.443438e-06	1.202475e-09	2.401849e+01	8.221005e+01
2.650000e-06	3.479609e-06	1.211905e-09	2.427078e+01	8.283911e+01
2.660000e-06	3.515582e-06	1.222326e-09	2.452170e+01	8.345784e+01
2.670000e-06	3.551432e-06	1.232777e-09	2.477176e+01	8.406616e+01
2.680000e-06	3.587168e-06	1.241308e-09	2.502102e+01	8.466401e+01
2.690000e-06	3.622807e-06	1.246550e-09	2.526961e+01	8.525129e+01
2.700000e-06	3.658270e-06	1.250530e-09	2.551697e+01	8.582793e+01
2.710000e-06	3.693481e-06	1.256193e-09	2.576257e+01	8.639386e+01
2.720000e-06	3.728387e-06	1.263368e-09	2.600604e+01	8.694902e+01
2.730000e-06	3.762934e-06	1.271153e-09	2.624701e+01	8.749334e+01
2.740000e-06	3.796993e-06	1.278892e-09	2.648458e+01	8.802680e+01
2.750000e-06	3.830524e-06	1.286199e-09	2.671847e+01	8.854938e+01
2.760000e-06	3.863594e-06	1.292773e-09	2.694913e+01	8.906108e+01
2.770000e-06	3.896263e-06	1.298210e-09	2.717700e+01	8.956192e+01
2.780000e-06	3.928598e-06	1.302803e-09	2.740254e+01	9.005194e+01
2.790000e-06	3.960647e-06	1.307897e-09	2.762609e+01	9.053122e+01
2.800000e-06	3.992524e-06	1.316089e-09	2.784844e+01	9.099985e+01
2.810000e-06	4.024328e-06	1.325830e-09	2.807027e+01	9.145795e+01
2.820000e-06	4.055994e-06	1.333528e-09	2.829115e+01	9.190566e+01
2.830000e-06	4.087364e-06	1.340143e-09	2.850996e+01	9.234315e+01
2.840000e-06	4.118430e-06	1.345825e-09	2.872665e+01	9.277063e+01
2.850000e-06	4.149231e-06	1.350533e-09	2.894149e+01	9.318829e+01
2.860000e-06	4.179782e-06	1.356669e-09	2.915459e+01	9.359639e+01
2.870000e-06	4.210022e-06	1.363565e-09	2.936552e+01	9.399518e+01
2.880000e-06	4.239933e-06	1.369245e-09	2.957415e+01	9.438494e+01
2.890000e-06	4.269515e-06	1.372504e-09	2.978049e+01	9.476597e+01
2.900000e-06	4.298824e-06	1.375048e-09	2.998492e+01	9.513857e+01
