# Temperatura_=_-0.46
# Concentracion g/m^3_=_1620.0
# C_Vs_to_Am_M_A/Vsm_=_65563218390.804596
# pendiente_HvsI_1/m_=_3716.3
# ordenada_HvsI_A/m_=_1297.0
# frecuencia_Hz_=_135094.34399965382

Tiempo_(s)	Campo_(V.s)	Magnetizacion_(V.s)	Campo_(kA/m)	Magnetizacion_(A/m)
0.000000e+00	-5.521313e-06	-1.434623e-09	-3.837250e+01	-9.320496e+01
1.000000e-08	-5.521553e-06	-1.427488e-09	-3.837417e+01	-9.316991e+01
2.000000e-08	-5.521493e-06	-1.421466e-09	-3.837375e+01	-9.313333e+01
3.000000e-08	-5.520958e-06	-1.422084e-09	-3.837003e+01	-9.309506e+01
4.000000e-08	-5.519940e-06	-1.426996e-09	-3.836296e+01	-9.305498e+01
5.000000e-08	-5.518444e-06	-1.429930e-09	-3.835256e+01	-9.301291e+01
6.000000e-08	-5.516421e-06	-1.431110e-09	-3.833850e+01	-9.296869e+01
7.000000e-08	-5.513829e-06	-1.443039e-09	-3.832049e+01	-9.292211e+01
8.000000e-08	-5.510671e-06	-1.479664e-09	-3.829853e+01	-9.287301e+01
9.000000e-08	-5.506975e-06	-1.462138e-09	-3.827285e+01	-9.282116e+01
1.000000e-07	-5.502797e-06	-1.361691e-09	-3.824381e+01	-9.276639e+01
1.100000e-07	-5.498417e-06	-1.360269e-09	-3.821337e+01	-9.270849e+01
1.200000e-07	-5.493909e-06	-1.474211e-09	-3.818204e+01	-9.264727e+01
1.300000e-07	-5.489024e-06	-1.501258e-09	-3.814809e+01	-9.258253e+01
1.400000e-07	-5.483715e-06	-1.394956e-09	-3.811120e+01	-9.251412e+01
1.500000e-07	-5.478090e-06	-1.343554e-09	-3.807210e+01	-9.244184e+01
1.600000e-07	-5.472197e-06	-1.472298e-09	-3.803115e+01	-9.236557e+01
1.700000e-07	-5.465894e-06	-1.509685e-09	-3.798734e+01	-9.228515e+01
1.800000e-07	-5.459102e-06	-1.415047e-09	-3.794014e+01	-9.220047e+01
1.900000e-07	-5.451973e-06	-1.358616e-09	-3.789059e+01	-9.211142e+01
2.000000e-07	-5.444527e-06	-1.445634e-09	-3.783885e+01	-9.201793e+01
2.100000e-07	-5.436760e-06	-1.498925e-09	-3.778487e+01	-9.191993e+01
2.200000e-07	-5.428710e-06	-1.449291e-09	-3.772892e+01	-9.181739e+01
2.300000e-07	-5.420402e-06	-1.397500e-09	-3.767117e+01	-9.171028e+01
2.400000e-07	-5.411714e-06	-1.424974e-09	-3.761080e+01	-9.159862e+01
2.500000e-07	-5.402320e-06	-1.452605e-09	-3.754551e+01	-9.148243e+01
2.600000e-07	-5.392229e-06	-1.417507e-09	-3.747538e+01	-9.136175e+01
2.700000e-07	-5.381546e-06	-1.379623e-09	-3.740113e+01	-9.123666e+01
2.800000e-07	-5.370299e-06	-1.382382e-09	-3.732297e+01	-9.110725e+01
2.900000e-07	-5.358691e-06	-1.408953e-09	-3.724229e+01	-9.097361e+01
3.000000e-07	-5.346749e-06	-1.381094e-09	-3.715930e+01	-9.083586e+01
3.100000e-07	-5.334384e-06	-1.352215e-09	-3.707336e+01	-9.069416e+01
3.200000e-07	-5.321553e-06	-1.363608e-09	-3.698419e+01	-9.054863e+01
3.300000e-07	-5.308287e-06	-1.401417e-09	-3.689199e+01	-9.039943e+01
3.400000e-07	-5.294740e-06	-1.356823e-09	-3.679784e+01	-9.024673e+01
3.500000e-07	-5.280789e-06	-1.319563e-09	-3.670088e+01	-9.009070e+01
3.600000e-07	-5.266388e-06	-1.360762e-09	-3.660080e+01	-8.993151e+01
3.700000e-07	-5.251683e-06	-1.386614e-09	-3.649860e+01	-8.976933e+01
3.800000e-07	-5.236329e-06	-1.331272e-09	-3.639189e+01	-8.960432e+01
3.900000e-07	-5.220294e-06	-1.350901e-09	-3.628045e+01	-8.943665e+01
4.000000e-07	-5.203972e-06	-1.398119e-09	-3.616701e+01	-8.926648e+01
4.100000e-07	-5.187291e-06	-1.325664e-09	-3.605108e+01	-8.909393e+01
4.200000e-07	-5.170263e-06	-1.277560e-09	-3.593274e+01	-8.891916e+01
4.300000e-07	-5.153019e-06	-1.382083e-09	-3.581290e+01	-8.874226e+01
4.400000e-07	-5.135461e-06	-1.380819e-09	-3.569087e+01	-8.856335e+01
4.500000e-07	-5.117460e-06	-1.268102e-09	-3.556577e+01	-8.838250e+01
4.600000e-07	-5.098961e-06	-1.318577e-09	-3.543720e+01	-8.819978e+01
4.700000e-07	-5.080109e-06	-1.402149e-09	-3.530618e+01	-8.801522e+01
4.800000e-07	-5.060931e-06	-1.294452e-09	-3.517290e+01	-8.782885e+01
4.900000e-07	-5.041420e-06	-1.264366e-09	-3.503729e+01	-8.764066e+01
5.000000e-07	-5.021745e-06	-1.373523e-09	-3.490056e+01	-8.745063e+01
5.100000e-07	-5.001885e-06	-1.323785e-09	-3.476253e+01	-8.725871e+01
5.200000e-07	-4.981615e-06	-1.237844e-09	-3.462166e+01	-8.706483e+01
5.300000e-07	-4.960961e-06	-1.337201e-09	-3.447811e+01	-8.686890e+01
5.400000e-07	-4.940002e-06	-1.353057e-09	-3.433245e+01	-8.667081e+01
5.500000e-07	-4.918630e-06	-1.227403e-09	-3.418392e+01	-8.647042e+01
5.600000e-07	-4.896963e-06	-1.267202e-09	-3.403333e+01	-8.626760e+01
5.700000e-07	-4.875149e-06	-1.348661e-09	-3.388173e+01	-8.606216e+01
5.800000e-07	-4.852903e-06	-1.264591e-09	-3.372712e+01	-8.585394e+01
5.900000e-07	-4.830165e-06	-1.243003e-09	-3.356910e+01	-8.564274e+01
6.000000e-07	-4.807137e-06	-1.330006e-09	-3.340906e+01	-8.542837e+01
6.100000e-07	-4.783801e-06	-1.286211e-09	-3.324687e+01	-8.521061e+01
6.200000e-07	-4.760194e-06	-1.226215e-09	-3.308281e+01	-8.498926e+01
6.300000e-07	-4.736364e-06	-1.281645e-09	-3.291719e+01	-8.476409e+01
6.400000e-07	-4.712265e-06	-1.284020e-09	-3.274970e+01	-8.453491e+01
6.500000e-07	-4.687871e-06	-1.227664e-09	-3.258017e+01	-8.430150e+01
6.600000e-07	-4.663084e-06	-1.263296e-09	-3.240791e+01	-8.406366e+01
6.700000e-07	-4.637846e-06	-1.283226e-09	-3.223250e+01	-8.382120e+01
6.800000e-07	-4.612087e-06	-1.235417e-09	-3.205348e+01	-8.357393e+01
6.900000e-07	-4.585737e-06	-1.236089e-09	-3.187035e+01	-8.332169e+01
7.000000e-07	-4.558899e-06	-1.260764e-09	-3.168383e+01	-8.306433e+01
7.100000e-07	-4.531669e-06	-1.226044e-09	-3.149458e+01	-8.280172e+01
7.200000e-07	-4.504193e-06	-1.214645e-09	-3.130363e+01	-8.253375e+01
7.300000e-07	-4.476545e-06	-1.237979e-09	-3.111148e+01	-8.226032e+01
7.400000e-07	-4.448671e-06	-1.225435e-09	-3.091775e+01	-8.198136e+01
7.500000e-07	-4.420579e-06	-1.205599e-09	-3.072252e+01	-8.169684e+01
7.600000e-07	-4.392276e-06	-1.215981e-09	-3.052582e+01	-8.140674e+01
7.700000e-07	-4.363668e-06	-1.207437e-09	-3.032700e+01	-8.111106e+01
7.800000e-07	-4.334693e-06	-1.192786e-09	-3.012562e+01	-8.080984e+01
7.900000e-07	-4.305360e-06	-1.203059e-09	-2.992177e+01	-8.050312e+01
8.000000e-07	-4.275740e-06	-1.200613e-09	-2.971591e+01	-8.019100e+01
8.100000e-07	-4.245937e-06	-1.177680e-09	-2.950878e+01	-7.987357e+01
8.200000e-07	-4.215831e-06	-1.177328e-09	-2.929955e+01	-7.955097e+01
8.300000e-07	-4.185373e-06	-1.181410e-09	-2.908786e+01	-7.922333e+01
8.400000e-07	-4.154671e-06	-1.163547e-09	-2.887449e+01	-7.889082e+01
8.500000e-07	-4.123648e-06	-1.162824e-09	-2.865889e+01	-7.855363e+01
8.600000e-07	-4.092357e-06	-1.175869e-09	-2.844141e+01	-7.821195e+01
8.700000e-07	-4.060819e-06	-1.163433e-09	-2.822223e+01	-7.786598e+01
8.800000e-07	-4.029139e-06	-1.148507e-09	-2.800206e+01	-7.751595e+01
8.900000e-07	-3.997329e-06	-1.154269e-09	-2.778098e+01	-7.716207e+01
9.000000e-07	-3.965175e-06	-1.145453e-09	-2.755752e+01	-7.680457e+01
9.100000e-07	-3.932692e-06	-1.125553e-09	-2.733176e+01	-7.644367e+01
9.200000e-07	-3.899958e-06	-1.129311e-09	-2.710426e+01	-7.607959e+01
9.300000e-07	-3.866865e-06	-1.132944e-09	-2.687427e+01	-7.571256e+01
9.400000e-07	-3.833271e-06	-1.113898e-09	-2.664080e+01	-7.534278e+01
9.500000e-07	-3.799215e-06	-1.108183e-09	-2.640411e+01	-7.497043e+01
9.600000e-07	-3.764772e-06	-1.109935e-09	-2.616474e+01	-7.459571e+01
9.700000e-07	-3.729878e-06	-1.095766e-09	-2.592222e+01	-7.421876e+01
9.800000e-07	-3.694607e-06	-1.085550e-09	-2.567710e+01	-7.383975e+01
9.900000e-07	-3.659128e-06	-1.097009e-09	-2.543052e+01	-7.345877e+01
1.000000e-06	-3.623540e-06	-1.093148e-09	-2.518319e+01	-7.307593e+01
1.010000e-06	-3.587866e-06	-1.078761e-09	-2.493526e+01	-7.269129e+01
1.020000e-06	-3.551989e-06	-1.077856e-09	-2.468592e+01	-7.230489e+01
1.030000e-06	-3.515939e-06	-1.071652e-09	-2.443537e+01	-7.191675e+01
1.040000e-06	-3.479658e-06	-1.051362e-09	-2.418323e+01	-7.152685e+01
1.050000e-06	-3.443154e-06	-1.046884e-09	-2.392953e+01	-7.113513e+01
1.060000e-06	-3.406407e-06	-1.051469e-09	-2.367414e+01	-7.074152e+01
1.070000e-06	-3.369334e-06	-1.044833e-09	-2.341649e+01	-7.034590e+01
1.080000e-06	-3.332017e-06	-1.038433e-09	-2.315714e+01	-6.994813e+01
1.090000e-06	-3.294533e-06	-1.041443e-09	-2.289663e+01	-6.954805e+01
1.100000e-06	-3.256870e-06	-1.029936e-09	-2.263488e+01	-6.914546e+01
1.110000e-06	-3.218920e-06	-1.009544e-09	-2.237113e+01	-6.874013e+01
1.120000e-06	-3.180735e-06	-1.000015e-09	-2.210575e+01	-6.833182e+01
1.130000e-06	-3.142307e-06	-9.935586e-10	-2.183868e+01	-6.792025e+01
1.140000e-06	-3.103604e-06	-9.827037e-10	-2.156970e+01	-6.750513e+01
1.150000e-06	-3.064700e-06	-9.801743e-10	-2.129932e+01	-6.708615e+01
1.160000e-06	-3.025653e-06	-9.862471e-10	-2.102794e+01	-6.666298e+01
1.170000e-06	-2.986446e-06	-9.817545e-10	-2.075546e+01	-6.623529e+01
1.180000e-06	-2.947112e-06	-9.715466e-10	-2.048209e+01	-6.580273e+01
1.190000e-06	-2.907672e-06	-9.631130e-10	-2.020799e+01	-6.536495e+01
1.200000e-06	-2.868032e-06	-9.477395e-10	-1.993249e+01	-6.492158e+01
1.210000e-06	-2.828193e-06	-9.296328e-10	-1.965562e+01	-6.447227e+01
1.220000e-06	-2.788201e-06	-9.242657e-10	-1.937768e+01	-6.401665e+01
1.230000e-06	-2.748012e-06	-9.220908e-10	-1.909837e+01	-6.355438e+01
1.240000e-06	-2.707622e-06	-9.161870e-10	-1.881766e+01	-6.308510e+01
1.250000e-06	-2.667078e-06	-9.113270e-10	-1.853589e+01	-6.260849e+01
1.260000e-06	-2.626361e-06	-9.063912e-10	-1.825291e+01	-6.212422e+01
1.270000e-06	-2.585335e-06	-8.927501e-10	-1.796778e+01	-6.163197e+01
1.280000e-06	-2.543989e-06	-8.774876e-10	-1.768043e+01	-6.113146e+01
1.290000e-06	-2.502389e-06	-8.663787e-10	-1.739132e+01	-6.062240e+01
1.300000e-06	-2.460553e-06	-8.590582e-10	-1.710057e+01	-6.010454e+01
1.310000e-06	-2.418367e-06	-8.515225e-10	-1.680738e+01	-5.957764e+01
1.320000e-06	-2.375834e-06	-8.436811e-10	-1.651178e+01	-5.904148e+01
1.330000e-06	-2.333090e-06	-8.337034e-10	-1.621471e+01	-5.849586e+01
1.340000e-06	-2.290069e-06	-8.211941e-10	-1.591572e+01	-5.794060e+01
1.350000e-06	-2.246811e-06	-8.093577e-10	-1.561508e+01	-5.737554e+01
1.360000e-06	-2.203418e-06	-8.002758e-10	-1.531351e+01	-5.680053e+01
1.370000e-06	-2.159879e-06	-7.912840e-10	-1.501091e+01	-5.621546e+01
1.380000e-06	-2.116217e-06	-7.836814e-10	-1.470747e+01	-5.562021e+01
1.390000e-06	-2.072480e-06	-7.757724e-10	-1.440350e+01	-5.501469e+01
1.400000e-06	-2.028634e-06	-7.663914e-10	-1.409878e+01	-5.439881e+01
1.410000e-06	-1.984744e-06	-7.549892e-10	-1.379375e+01	-5.377250e+01
1.420000e-06	-1.940811e-06	-7.424428e-10	-1.348842e+01	-5.313569e+01
1.430000e-06	-1.896782e-06	-7.314087e-10	-1.318242e+01	-5.248832e+01
1.440000e-06	-1.852735e-06	-7.205331e-10	-1.287630e+01	-5.183032e+01
1.450000e-06	-1.808515e-06	-7.117732e-10	-1.256897e+01	-5.116164e+01
1.460000e-06	-1.764153e-06	-7.039176e-10	-1.226066e+01	-5.048220e+01
1.470000e-06	-1.719719e-06	-6.962817e-10	-1.195185e+01	-4.979192e+01
1.480000e-06	-1.675123e-06	-6.866546e-10	-1.164191e+01	-4.909073e+01
1.490000e-06	-1.630383e-06	-6.743271e-10	-1.133097e+01	-4.837851e+01
1.500000e-06	-1.585429e-06	-6.628290e-10	-1.101855e+01	-4.765517e+01
1.510000e-06	-1.540403e-06	-6.515404e-10	-1.070563e+01	-4.692055e+01
1.520000e-06	-1.495306e-06	-6.385954e-10	-1.039221e+01	-4.617451e+01
1.530000e-06	-1.450056e-06	-6.273217e-10	-1.007773e+01	-4.541687e+01
1.540000e-06	-1.404665e-06	-6.171299e-10	-9.762262e+00	-4.464744e+01
1.550000e-06	-1.359190e-06	-6.067150e-10	-9.446213e+00	-4.386597e+01
1.560000e-06	-1.313675e-06	-5.962581e-10	-9.129890e+00	-4.307223e+01
1.570000e-06	-1.268091e-06	-5.862213e-10	-8.813087e+00	-4.226593e+01
1.580000e-06	-1.222409e-06	-5.749206e-10	-8.495607e+00	-4.144676e+01
1.590000e-06	-1.176622e-06	-5.604535e-10	-8.177392e+00	-4.061440e+01
1.600000e-06	-1.130808e-06	-5.452282e-10	-7.858984e+00	-3.976848e+01
1.610000e-06	-1.084936e-06	-5.316861e-10	-7.540180e+00	-3.890863e+01
1.620000e-06	-1.038923e-06	-5.169760e-10	-7.220397e+00	-3.803444e+01
1.630000e-06	-9.927923e-07	-5.021534e-10	-6.899793e+00	-3.714549e+01
1.640000e-06	-9.465764e-07	-4.902415e-10	-6.578599e+00	-3.624134e+01
1.650000e-06	-9.003219e-07	-4.779740e-10	-6.257135e+00	-3.532153e+01
1.660000e-06	-8.539904e-07	-4.626686e-10	-5.935136e+00	-3.438560e+01
1.670000e-06	-8.075618e-07	-4.470243e-10	-5.612463e+00	-3.343308e+01
1.680000e-06	-7.611938e-07	-4.316499e-10	-5.290211e+00	-3.246349e+01
1.690000e-06	-7.148215e-07	-4.158885e-10	-4.967928e+00	-3.147639e+01
1.700000e-06	-6.683399e-07	-3.995896e-10	-4.644886e+00	-3.047129e+01
1.710000e-06	-6.218786e-07	-3.819984e-10	-4.321985e+00	-2.944777e+01
1.720000e-06	-5.754176e-07	-3.640643e-10	-3.999087e+00	-2.840539e+01
1.730000e-06	-5.288590e-07	-3.477069e-10	-3.675510e+00	-2.734375e+01
1.740000e-06	-4.822437e-07	-3.306094e-10	-3.351539e+00	-2.626250e+01
1.750000e-06	-4.355394e-07	-3.119610e-10	-3.026949e+00	-2.516130e+01
1.760000e-06	-3.887610e-07	-2.946878e-10	-2.701844e+00	-2.403986e+01
1.770000e-06	-3.419450e-07	-2.800130e-10	-2.376479e+00	-2.289795e+01
1.780000e-06	-2.950694e-07	-2.655962e-10	-2.050699e+00	-2.173537e+01
1.790000e-06	-2.482041e-07	-2.513290e-10	-1.724990e+00	-2.055202e+01
1.800000e-06	-2.014294e-07	-2.371689e-10	-1.399912e+00	-1.934782e+01
1.810000e-06	-1.546522e-07	-2.198069e-10	-1.074815e+00	-1.812279e+01
1.820000e-06	-1.077973e-07	-1.989506e-10	-7.491787e-01	-1.687701e+01
1.830000e-06	-6.091643e-08	-1.779928e-10	-4.233622e-01	-1.561064e+01
1.840000e-06	-1.416284e-08	-1.589321e-10	-9.843016e-02	-1.432394e+01
1.850000e-06	3.260261e-08	-1.410310e-10	2.265845e-01	-1.301721e+01
1.860000e-06	7.942882e-08	-1.234755e-10	5.520212e-01	-1.169088e+01
1.870000e-06	1.261657e-07	-1.025693e-10	8.768373e-01	-1.034544e+01
1.880000e-06	1.729223e-07	-8.156399e-11	1.201790e+00	-8.981492e+00
1.890000e-06	2.196873e-07	-6.277583e-11	1.526801e+00	-7.599701e+00
1.900000e-06	2.664572e-07	-4.376845e-11	1.851847e+00	-6.200837e+00
1.910000e-06	3.132161e-07	-2.516342e-11	2.176816e+00	-4.785751e+00
1.920000e-06	3.600106e-07	-5.738488e-12	2.502033e+00	-3.355380e+00
1.930000e-06	4.068528e-07	1.720003e-11	2.827581e+00	-1.910745e+00
1.940000e-06	4.537381e-07	4.042713e-11	3.153428e+00	-4.529445e-01
1.950000e-06	5.005456e-07	6.270641e-11	3.478735e+00	1.016848e+00
1.960000e-06	5.471296e-07	8.544509e-11	3.802488e+00	2.497388e+00
1.970000e-06	5.936870e-07	1.070632e-10	4.126057e+00	3.987366e+00
1.980000e-06	6.402108e-07	1.272672e-10	4.449392e+00	5.485414e+00
1.990000e-06	6.866583e-07	1.451473e-10	4.772197e+00	6.990109e+00
2.000000e-06	7.330766e-07	1.632258e-10	5.094799e+00	8.499986e+00
2.010000e-06	7.793760e-07	1.843810e-10	5.416574e+00	1.001354e+01
2.020000e-06	8.256319e-07	2.066432e-10	5.738048e+00	1.152923e+01
2.030000e-06	8.718151e-07	2.331130e-10	6.059016e+00	1.304550e+01
2.040000e-06	9.179143e-07	2.596497e-10	6.379400e+00	1.456077e+01
2.050000e-06	9.640275e-07	2.804820e-10	6.699882e+00	1.607347e+01
2.060000e-06	1.010087e-06	2.989052e-10	7.019990e+00	1.758202e+01
2.070000e-06	1.056046e-06	3.157447e-10	7.339402e+00	1.908485e+01
2.080000e-06	1.101905e-06	3.332543e-10	7.658114e+00	2.058042e+01
2.090000e-06	1.147670e-06	3.531610e-10	7.976177e+00	2.206721e+01
2.100000e-06	1.193384e-06	3.761455e-10	8.293883e+00	2.354373e+01
2.110000e-06	1.239051e-06	3.976367e-10	8.611265e+00	2.500856e+01
2.120000e-06	1.284659e-06	4.177633e-10	8.928236e+00	2.646030e+01
2.130000e-06	1.330163e-06	4.394867e-10	9.244484e+00	2.789762e+01
2.140000e-06	1.375589e-06	4.595097e-10	9.560187e+00	2.931928e+01
2.150000e-06	1.420956e-06	4.762321e-10	9.875483e+00	3.072407e+01
2.160000e-06	1.466225e-06	4.922596e-10	1.019009e+01	3.211089e+01
2.170000e-06	1.511393e-06	5.101798e-10	1.050401e+01	3.347870e+01
2.180000e-06	1.556318e-06	5.291632e-10	1.081623e+01	3.482658e+01
2.190000e-06	1.601068e-06	5.484148e-10	1.112724e+01	3.615366e+01
2.200000e-06	1.645741e-06	5.672768e-10	1.143772e+01	3.745919e+01
2.210000e-06	1.690309e-06	5.827700e-10	1.174746e+01	3.874251e+01
2.220000e-06	1.734765e-06	5.959512e-10	1.205642e+01	4.000305e+01
2.230000e-06	1.779074e-06	6.093603e-10	1.236436e+01	4.124035e+01
2.240000e-06	1.823201e-06	6.239068e-10	1.267104e+01	4.245403e+01
2.250000e-06	1.867163e-06	6.408176e-10	1.297657e+01	4.364382e+01
2.260000e-06	1.911068e-06	6.597312e-10	1.328170e+01	4.480954e+01
2.270000e-06	1.954959e-06	6.754106e-10	1.358674e+01	4.595111e+01
2.280000e-06	1.998788e-06	6.872813e-10	1.389135e+01	4.706853e+01
2.290000e-06	2.042581e-06	6.994171e-10	1.419570e+01	4.816189e+01
2.300000e-06	2.086292e-06	7.116720e-10	1.449949e+01	4.923136e+01
2.310000e-06	2.129870e-06	7.244203e-10	1.480235e+01	5.027718e+01
2.320000e-06	2.173444e-06	7.405982e-10	1.510519e+01	5.129967e+01
2.330000e-06	2.216987e-06	7.592308e-10	1.540781e+01	5.229922e+01
2.340000e-06	2.260419e-06	7.764308e-10	1.570965e+01	5.327627e+01
2.350000e-06	2.303730e-06	7.909460e-10	1.601066e+01	5.423131e+01
2.360000e-06	2.346800e-06	8.032521e-10	1.630999e+01	5.516487e+01
2.370000e-06	2.389689e-06	8.120626e-10	1.660807e+01	5.607756e+01
2.380000e-06	2.432314e-06	8.193628e-10	1.690431e+01	5.696996e+01
2.390000e-06	2.474470e-06	8.321525e-10	1.719729e+01	5.784272e+01
2.400000e-06	2.516280e-06	8.483058e-10	1.748786e+01	5.869650e+01
2.410000e-06	2.557748e-06	8.646883e-10	1.777606e+01	5.953195e+01
2.420000e-06	2.598834e-06	8.802062e-10	1.806160e+01	6.034975e+01
2.430000e-06	2.639640e-06	8.933672e-10	1.834520e+01	6.115056e+01
2.440000e-06	2.680178e-06	9.030532e-10	1.862693e+01	6.193504e+01
2.450000e-06	2.720441e-06	9.112592e-10	1.890676e+01	6.270383e+01
2.460000e-06	2.760475e-06	9.203026e-10	1.918499e+01	6.345757e+01
2.470000e-06	2.800391e-06	9.301560e-10	1.946240e+01	6.419683e+01
2.480000e-06	2.840236e-06	9.412032e-10	1.973932e+01	6.492221e+01
2.490000e-06	2.879991e-06	9.525458e-10	2.001561e+01	6.563422e+01
2.500000e-06	2.919661e-06	9.647329e-10	2.029131e+01	6.633337e+01
2.510000e-06	2.959173e-06	9.775974e-10	2.056591e+01	6.702012e+01
2.520000e-06	2.998463e-06	9.889417e-10	2.083897e+01	6.769489e+01
2.530000e-06	3.037565e-06	9.989906e-10	2.111073e+01	6.835804e+01
2.540000e-06	3.076534e-06	1.007435e-09	2.138156e+01	6.900992e+01
2.550000e-06	3.115298e-06	1.015554e-09	2.165097e+01	6.965080e+01
2.560000e-06	3.153716e-06	1.024208e-09	2.191797e+01	7.028092e+01
2.570000e-06	3.191871e-06	1.034794e-09	2.218314e+01	7.090048e+01
2.580000e-06	3.229791e-06	1.046011e-09	2.244668e+01	7.150963e+01
2.590000e-06	3.267503e-06	1.055848e-09	2.270878e+01	7.210848e+01
2.600000e-06	3.305120e-06	1.065479e-09	2.297021e+01	7.269710e+01
2.610000e-06	3.342547e-06	1.072166e-09	2.323032e+01	7.327554e+01
2.620000e-06	3.379675e-06	1.079517e-09	2.348836e+01	7.384380e+01
2.630000e-06	3.416456e-06	1.086597e-09	2.374398e+01	7.440184e+01
2.640000e-06	3.452876e-06	1.092626e-09	2.399709e+01	7.494962e+01
2.650000e-06	3.489029e-06	1.099598e-09	2.424835e+01	7.548708e+01
2.660000e-06	3.525057e-06	1.106611e-09	2.449874e+01	7.601410e+01
2.670000e-06	3.560955e-06	1.113269e-09	2.474823e+01	7.653061e+01
2.680000e-06	3.596723e-06	1.119780e-09	2.499682e+01	7.703648e+01
2.690000e-06	3.632410e-06	1.124069e-09	2.524484e+01	7.753159e+01
2.700000e-06	3.667996e-06	1.126534e-09	2.549216e+01	7.801584e+01
2.710000e-06	3.703361e-06	1.131400e-09	2.573794e+01	7.848912e+01
2.720000e-06	3.738429e-06	1.139048e-09	2.598166e+01	7.895131e+01
2.730000e-06	3.773242e-06	1.147216e-09	2.622360e+01	7.940234e+01
2.740000e-06	3.807640e-06	1.154985e-09	2.646266e+01	7.984213e+01
2.750000e-06	3.841476e-06	1.160083e-09	2.669782e+01	8.027063e+01
2.760000e-06	3.874803e-06	1.163337e-09	2.692944e+01	8.068780e+01
2.770000e-06	3.907736e-06	1.166955e-09	2.715832e+01	8.109365e+01
2.780000e-06	3.940242e-06	1.169723e-09	2.738423e+01	8.148820e+01
2.790000e-06	3.972427e-06	1.172833e-09	2.760792e+01	8.187149e+01
2.800000e-06	4.004418e-06	1.177045e-09	2.783025e+01	8.224362e+01
2.810000e-06	4.036203e-06	1.182103e-09	2.805115e+01	8.260471e+01
2.820000e-06	4.067872e-06	1.187915e-09	2.827125e+01	8.295489e+01
2.830000e-06	4.099375e-06	1.194135e-09	2.849019e+01	8.329436e+01
2.840000e-06	4.130685e-06	1.197743e-09	2.870779e+01	8.362332e+01
2.850000e-06	4.161784e-06	1.200040e-09	2.892393e+01	8.394202e+01
2.860000e-06	4.192518e-06	1.203957e-09	2.913752e+01	8.425074e+01
2.870000e-06	4.222799e-06	1.207580e-09	2.934797e+01	8.454978e+01
2.880000e-06	4.252747e-06	1.209098e-09	2.955611e+01	8.483948e+01
2.890000e-06	4.282413e-06	1.209842e-09	2.976229e+01	8.512017e+01
2.900000e-06	4.311853e-06	1.212161e-09	2.996689e+01	8.539225e+01
