# Temperatura_=_-0.4
# Concentracion g/m^3_=_1620.0
# C_Vs_to_Am_M_A/Vsm_=_65563218390.804596
# pendiente_HvsI_1/m_=_3716.3
# ordenada_HvsI_A/m_=_1297.0
# frecuencia_Hz_=_135086.64419658613

Tiempo_(s)	Campo_(V.s)	Magnetizacion_(V.s)	Campo_(kA/m)	Magnetizacion_(A/m)
0.000000e+00	-5.519800e-06	-1.712622e-09	-3.837741e+01	-1.113309e+02
1.000000e-08	-5.519969e-06	-1.709328e-09	-3.837858e+01	-1.112778e+02
2.000000e-08	-5.519763e-06	-1.704512e-09	-3.837715e+01	-1.112212e+02
3.000000e-08	-5.519058e-06	-1.701804e-09	-3.837225e+01	-1.111613e+02
4.000000e-08	-5.517822e-06	-1.700445e-09	-3.836366e+01	-1.110981e+02
5.000000e-08	-5.515948e-06	-1.701097e-09	-3.835063e+01	-1.110318e+02
6.000000e-08	-5.513454e-06	-1.712366e-09	-3.833329e+01	-1.109625e+02
7.000000e-08	-5.510478e-06	-1.729379e-09	-3.831260e+01	-1.108903e+02
8.000000e-08	-5.507013e-06	-1.718350e-09	-3.828851e+01	-1.108152e+02
9.000000e-08	-5.503203e-06	-1.688528e-09	-3.826202e+01	-1.107375e+02
1.000000e-07	-5.499119e-06	-1.694915e-09	-3.823362e+01	-1.106572e+02
1.100000e-07	-5.494705e-06	-1.656737e-09	-3.820293e+01	-1.105743e+02
1.200000e-07	-5.490091e-06	-1.682198e-09	-3.817085e+01	-1.104890e+02
1.300000e-07	-5.485142e-06	-1.704846e-09	-3.813644e+01	-1.104012e+02
1.400000e-07	-5.479738e-06	-1.721422e-09	-3.809888e+01	-1.103110e+02
1.500000e-07	-5.473962e-06	-1.691426e-09	-3.805871e+01	-1.102186e+02
1.600000e-07	-5.467876e-06	-1.674826e-09	-3.801640e+01	-1.101238e+02
1.700000e-07	-5.461393e-06	-1.707200e-09	-3.797132e+01	-1.100267e+02
1.800000e-07	-5.454394e-06	-1.679070e-09	-3.792266e+01	-1.099273e+02
1.900000e-07	-5.447021e-06	-1.665472e-09	-3.787140e+01	-1.098257e+02
2.000000e-07	-5.439482e-06	-1.658672e-09	-3.781898e+01	-1.097217e+02
2.100000e-07	-5.431717e-06	-1.706613e-09	-3.776500e+01	-1.096153e+02
2.200000e-07	-5.423566e-06	-1.659664e-09	-3.770833e+01	-1.095066e+02
2.300000e-07	-5.415083e-06	-1.633984e-09	-3.764935e+01	-1.093954e+02
2.400000e-07	-5.406098e-06	-1.596739e-09	-3.758688e+01	-1.092816e+02
2.500000e-07	-5.396328e-06	-1.628202e-09	-3.751895e+01	-1.091653e+02
2.600000e-07	-5.385778e-06	-1.627442e-09	-3.744560e+01	-1.090463e+02
2.700000e-07	-5.374789e-06	-1.639373e-09	-3.736920e+01	-1.089245e+02
2.800000e-07	-5.363461e-06	-1.619134e-09	-3.729043e+01	-1.087999e+02
2.900000e-07	-5.351757e-06	-1.609594e-09	-3.720906e+01	-1.086722e+02
3.000000e-07	-5.339658e-06	-1.601486e-09	-3.712494e+01	-1.085415e+02
3.100000e-07	-5.327184e-06	-1.613705e-09	-3.703821e+01	-1.084075e+02
3.200000e-07	-5.314247e-06	-1.613061e-09	-3.694827e+01	-1.082701e+02
3.300000e-07	-5.300867e-06	-1.594123e-09	-3.685524e+01	-1.081293e+02
3.400000e-07	-5.287179e-06	-1.617826e-09	-3.676007e+01	-1.079848e+02
3.500000e-07	-5.273071e-06	-1.623417e-09	-3.666198e+01	-1.078365e+02
3.600000e-07	-5.258447e-06	-1.596976e-09	-3.656031e+01	-1.076844e+02
3.700000e-07	-5.243436e-06	-1.577228e-09	-3.645594e+01	-1.075282e+02
3.800000e-07	-5.228035e-06	-1.606016e-09	-3.634886e+01	-1.073678e+02
3.900000e-07	-5.211931e-06	-1.581316e-09	-3.623689e+01	-1.072031e+02
4.000000e-07	-5.195397e-06	-1.573595e-09	-3.612194e+01	-1.070340e+02
4.100000e-07	-5.178681e-06	-1.601353e-09	-3.600572e+01	-1.068602e+02
4.200000e-07	-5.161495e-06	-1.605592e-09	-3.588623e+01	-1.066818e+02
4.300000e-07	-5.143863e-06	-1.546009e-09	-3.576364e+01	-1.064985e+02
4.400000e-07	-5.126006e-06	-1.572861e-09	-3.563948e+01	-1.063103e+02
4.500000e-07	-5.107751e-06	-1.581104e-09	-3.551257e+01	-1.061170e+02
4.600000e-07	-5.089046e-06	-1.538623e-09	-3.538252e+01	-1.059186e+02
4.700000e-07	-5.070019e-06	-1.533251e-09	-3.525023e+01	-1.057150e+02
4.800000e-07	-5.050721e-06	-1.596605e-09	-3.511606e+01	-1.055060e+02
4.900000e-07	-5.031171e-06	-1.550578e-09	-3.498013e+01	-1.052917e+02
5.000000e-07	-5.011422e-06	-1.518677e-09	-3.484282e+01	-1.050719e+02
5.100000e-07	-4.991462e-06	-1.558703e-09	-3.470405e+01	-1.048467e+02
5.200000e-07	-4.971175e-06	-1.557042e-09	-3.456300e+01	-1.046159e+02
5.300000e-07	-4.950526e-06	-1.493565e-09	-3.441943e+01	-1.043796e+02
5.400000e-07	-4.929553e-06	-1.528602e-09	-3.427361e+01	-1.041378e+02
5.500000e-07	-4.908162e-06	-1.547407e-09	-3.412488e+01	-1.038903e+02
5.600000e-07	-4.886346e-06	-1.499441e-09	-3.397321e+01	-1.036373e+02
5.700000e-07	-4.864274e-06	-1.504675e-09	-3.381975e+01	-1.033788e+02
5.800000e-07	-4.841945e-06	-1.543116e-09	-3.366450e+01	-1.031147e+02
5.900000e-07	-4.819158e-06	-1.498182e-09	-3.350607e+01	-1.028451e+02
6.000000e-07	-4.795943e-06	-1.480084e-09	-3.334466e+01	-1.025701e+02
6.100000e-07	-4.772517e-06	-1.522320e-09	-3.318179e+01	-1.022897e+02
6.200000e-07	-4.748928e-06	-1.505814e-09	-3.301779e+01	-1.020039e+02
6.300000e-07	-4.725182e-06	-1.477930e-09	-3.285269e+01	-1.017128e+02
6.400000e-07	-4.701113e-06	-1.500591e-09	-3.268534e+01	-1.014165e+02
6.500000e-07	-4.676525e-06	-1.496908e-09	-3.251439e+01	-1.011150e+02
6.600000e-07	-4.651480e-06	-1.460308e-09	-3.234026e+01	-1.008084e+02
6.700000e-07	-4.625976e-06	-1.476675e-09	-3.216294e+01	-1.004968e+02
6.800000e-07	-4.599960e-06	-1.484493e-09	-3.198205e+01	-1.001803e+02
6.900000e-07	-4.573404e-06	-1.467772e-09	-3.179742e+01	-9.985886e+01
7.000000e-07	-4.546423e-06	-1.464266e-09	-3.160983e+01	-9.953263e+01
7.100000e-07	-4.519143e-06	-1.474735e-09	-3.142016e+01	-9.920167e+01
7.200000e-07	-4.491573e-06	-1.448859e-09	-3.122848e+01	-9.886602e+01
7.300000e-07	-4.463848e-06	-1.441346e-09	-3.103571e+01	-9.852575e+01
7.400000e-07	-4.435944e-06	-1.444733e-09	-3.084171e+01	-9.818091e+01
7.500000e-07	-4.407791e-06	-1.444167e-09	-3.064597e+01	-9.783155e+01
7.600000e-07	-4.379367e-06	-1.433426e-09	-3.044834e+01	-9.747769e+01
7.700000e-07	-4.350635e-06	-1.438563e-09	-3.024858e+01	-9.711936e+01
7.800000e-07	-4.321582e-06	-1.427339e-09	-3.004658e+01	-9.675658e+01
7.900000e-07	-4.292203e-06	-1.414925e-09	-2.984232e+01	-9.638936e+01
8.000000e-07	-4.262478e-06	-1.405453e-09	-2.963565e+01	-9.601770e+01
8.100000e-07	-4.232418e-06	-1.398565e-09	-2.942665e+01	-9.564158e+01
8.200000e-07	-4.202100e-06	-1.379464e-09	-2.921586e+01	-9.526097e+01
8.300000e-07	-4.171461e-06	-1.376490e-09	-2.900284e+01	-9.487584e+01
8.400000e-07	-4.140486e-06	-1.378276e-09	-2.878748e+01	-9.448614e+01
8.500000e-07	-4.109382e-06	-1.371694e-09	-2.857123e+01	-9.409182e+01
8.600000e-07	-4.078122e-06	-1.360953e-09	-2.835389e+01	-9.369279e+01
8.700000e-07	-4.046638e-06	-1.358043e-09	-2.813499e+01	-9.328899e+01
8.800000e-07	-4.015015e-06	-1.347538e-09	-2.791512e+01	-9.288033e+01
8.900000e-07	-3.983201e-06	-1.332771e-09	-2.769393e+01	-9.246670e+01
9.000000e-07	-3.951114e-06	-1.327676e-09	-2.747084e+01	-9.204800e+01
9.100000e-07	-3.918603e-06	-1.323890e-09	-2.724480e+01	-9.162411e+01
9.200000e-07	-3.885515e-06	-1.312803e-09	-2.701475e+01	-9.119492e+01
9.300000e-07	-3.852070e-06	-1.307550e-09	-2.678221e+01	-9.076030e+01
9.400000e-07	-3.818303e-06	-1.308579e-09	-2.654745e+01	-9.032012e+01
9.500000e-07	-3.784139e-06	-1.297698e-09	-2.630992e+01	-8.987425e+01
9.600000e-07	-3.749564e-06	-1.288484e-09	-2.606953e+01	-8.942256e+01
9.700000e-07	-3.714531e-06	-1.280772e-09	-2.582595e+01	-8.896490e+01
9.800000e-07	-3.679212e-06	-1.268700e-09	-2.558039e+01	-8.850116e+01
9.900000e-07	-3.643773e-06	-1.253190e-09	-2.533399e+01	-8.803120e+01
1.000000e-06	-3.608213e-06	-1.254396e-09	-2.508675e+01	-8.755489e+01
1.010000e-06	-3.572433e-06	-1.252575e-09	-2.483799e+01	-8.707212e+01
1.020000e-06	-3.536473e-06	-1.246883e-09	-2.458797e+01	-8.658278e+01
1.030000e-06	-3.500344e-06	-1.238662e-09	-2.433678e+01	-8.608675e+01
1.040000e-06	-3.463957e-06	-1.234388e-09	-2.408379e+01	-8.558394e+01
1.050000e-06	-3.427348e-06	-1.220805e-09	-2.382926e+01	-8.507428e+01
1.060000e-06	-3.390478e-06	-1.208696e-09	-2.357291e+01	-8.455768e+01
1.070000e-06	-3.353283e-06	-1.197478e-09	-2.331431e+01	-8.403408e+01
1.080000e-06	-3.315868e-06	-1.187218e-09	-2.305418e+01	-8.350343e+01
1.090000e-06	-3.278252e-06	-1.174836e-09	-2.279264e+01	-8.296570e+01
1.100000e-06	-3.240470e-06	-1.173027e-09	-2.252996e+01	-8.242087e+01
1.110000e-06	-3.202507e-06	-1.170154e-09	-2.226601e+01	-8.186892e+01
1.120000e-06	-3.164264e-06	-1.164298e-09	-2.200012e+01	-8.130988e+01
1.130000e-06	-3.125771e-06	-1.156346e-09	-2.173249e+01	-8.074374e+01
1.140000e-06	-3.087073e-06	-1.147590e-09	-2.146344e+01	-8.017056e+01
1.150000e-06	-3.048192e-06	-1.131505e-09	-2.119311e+01	-7.959037e+01
1.160000e-06	-3.009135e-06	-1.116791e-09	-2.092156e+01	-7.900324e+01
1.170000e-06	-2.969909e-06	-1.109025e-09	-2.064883e+01	-7.840923e+01
1.180000e-06	-2.930458e-06	-1.102392e-09	-2.037454e+01	-7.780843e+01
1.190000e-06	-2.890793e-06	-1.096190e-09	-2.009876e+01	-7.720092e+01
1.200000e-06	-2.851048e-06	-1.091894e-09	-1.982243e+01	-7.658680e+01
1.210000e-06	-2.811255e-06	-1.086700e-09	-1.954576e+01	-7.596618e+01
1.220000e-06	-2.771263e-06	-1.073769e-09	-1.926771e+01	-7.533914e+01
1.230000e-06	-2.731065e-06	-1.058769e-09	-1.898823e+01	-7.470581e+01
1.240000e-06	-2.690748e-06	-1.046138e-09	-1.870791e+01	-7.406629e+01
1.250000e-06	-2.650148e-06	-1.035753e-09	-1.842564e+01	-7.342068e+01
1.260000e-06	-2.609183e-06	-1.026566e-09	-1.814082e+01	-7.276907e+01
1.270000e-06	-2.567891e-06	-1.021671e-09	-1.785373e+01	-7.211155e+01
1.280000e-06	-2.526371e-06	-1.016285e-09	-1.756505e+01	-7.144820e+01
1.290000e-06	-2.484614e-06	-1.010369e-09	-1.727473e+01	-7.077909e+01
1.300000e-06	-2.442498e-06	-9.999935e-10	-1.698191e+01	-7.010427e+01
1.310000e-06	-2.400144e-06	-9.851667e-10	-1.668744e+01	-6.942375e+01
1.320000e-06	-2.357534e-06	-9.659690e-10	-1.639119e+01	-6.873756e+01
1.330000e-06	-2.314651e-06	-9.501327e-10	-1.609303e+01	-6.804568e+01
1.340000e-06	-2.271628e-06	-9.380333e-10	-1.579390e+01	-6.734806e+01
1.350000e-06	-2.228387e-06	-9.298879e-10	-1.549327e+01	-6.664464e+01
1.360000e-06	-2.184982e-06	-9.209581e-10	-1.519148e+01	-6.593532e+01
1.370000e-06	-2.141510e-06	-9.125402e-10	-1.488923e+01	-6.521996e+01
1.380000e-06	-2.097905e-06	-8.998404e-10	-1.458607e+01	-6.449841e+01
1.390000e-06	-2.054222e-06	-8.835310e-10	-1.428235e+01	-6.377046e+01
1.400000e-06	-2.010458e-06	-8.657133e-10	-1.397808e+01	-6.303588e+01
1.410000e-06	-1.966654e-06	-8.531518e-10	-1.367352e+01	-6.229438e+01
1.420000e-06	-1.922855e-06	-8.432347e-10	-1.336900e+01	-6.154567e+01
1.430000e-06	-1.878895e-06	-8.340585e-10	-1.306336e+01	-6.078937e+01
1.440000e-06	-1.834762e-06	-8.249460e-10	-1.275652e+01	-6.002511e+01
1.450000e-06	-1.790525e-06	-8.154428e-10	-1.244895e+01	-5.925246e+01
1.460000e-06	-1.746081e-06	-8.008553e-10	-1.213994e+01	-5.847094e+01
1.470000e-06	-1.701494e-06	-7.830864e-10	-1.182994e+01	-5.768005e+01
1.480000e-06	-1.656946e-06	-7.648827e-10	-1.152022e+01	-5.687926e+01
1.490000e-06	-1.612244e-06	-7.492996e-10	-1.120942e+01	-5.606799e+01
1.500000e-06	-1.567319e-06	-7.372566e-10	-1.089707e+01	-5.524563e+01
1.510000e-06	-1.522314e-06	-7.282219e-10	-1.058416e+01	-5.441154e+01
1.520000e-06	-1.477153e-06	-7.190569e-10	-1.027018e+01	-5.356508e+01
1.530000e-06	-1.431916e-06	-7.070035e-10	-9.955653e+00	-5.270554e+01
1.540000e-06	-1.386584e-06	-6.930187e-10	-9.640474e+00	-5.183223e+01
1.550000e-06	-1.341146e-06	-6.769688e-10	-9.324559e+00	-5.094441e+01
1.560000e-06	-1.295658e-06	-6.607080e-10	-9.008295e+00	-5.004136e+01
1.570000e-06	-1.250070e-06	-6.442745e-10	-8.691339e+00	-4.912234e+01
1.580000e-06	-1.204424e-06	-6.281193e-10	-8.373977e+00	-4.818658e+01
1.590000e-06	-1.158732e-06	-6.120177e-10	-8.056294e+00	-4.723335e+01
1.600000e-06	-1.112927e-06	-6.013189e-10	-7.737828e+00	-4.626190e+01
1.610000e-06	-1.066941e-06	-5.907707e-10	-7.418102e+00	-4.527151e+01
1.620000e-06	-1.020856e-06	-5.766281e-10	-7.097689e+00	-4.426144e+01
1.630000e-06	-9.747611e-07	-5.607931e-10	-6.777204e+00	-4.323102e+01
1.640000e-06	-9.286025e-07	-5.438608e-10	-6.456278e+00	-4.217957e+01
1.650000e-06	-8.823451e-07	-5.245771e-10	-6.134664e+00	-4.110644e+01
1.660000e-06	-8.360210e-07	-5.066188e-10	-5.812588e+00	-4.001105e+01
1.670000e-06	-7.896695e-07	-4.897858e-10	-5.490320e+00	-3.889281e+01
1.680000e-06	-7.432960e-07	-4.744693e-10	-5.167901e+00	-3.775124e+01
1.690000e-06	-6.968078e-07	-4.600410e-10	-4.844682e+00	-3.658584e+01
1.700000e-06	-6.502525e-07	-4.455938e-10	-4.520998e+00	-3.539623e+01
1.710000e-06	-6.037341e-07	-4.266142e-10	-4.197571e+00	-3.418204e+01
1.720000e-06	-5.572265e-07	-4.057641e-10	-3.874218e+00	-3.294300e+01
1.730000e-06	-5.105811e-07	-3.853860e-10	-3.549908e+00	-3.167889e+01
1.740000e-06	-4.638814e-07	-3.645868e-10	-3.225220e+00	-3.038956e+01
1.750000e-06	-4.172270e-07	-3.460242e-10	-2.900846e+00	-2.907495e+01
1.760000e-06	-3.704847e-07	-3.309691e-10	-2.575862e+00	-2.773506e+01
1.770000e-06	-3.236595e-07	-3.150374e-10	-2.250301e+00	-2.636997e+01
1.780000e-06	-2.768958e-07	-2.958893e-10	-1.925169e+00	-2.497986e+01
1.790000e-06	-2.301483e-07	-2.766327e-10	-1.600148e+00	-2.356497e+01
1.800000e-06	-1.833242e-07	-2.565090e-10	-1.274595e+00	-2.212565e+01
1.810000e-06	-1.364596e-07	-2.340278e-10	-9.487600e-01	-2.066231e+01
1.820000e-06	-8.959421e-08	-2.117827e-10	-6.229200e-01	-1.917546e+01
1.830000e-06	-4.279867e-08	-1.905638e-10	-2.975655e-01	-1.766568e+01
1.840000e-06	3.981742e-09	-1.690068e-10	2.768378e-02	-1.613365e+01
1.850000e-06	5.080574e-08	-1.480112e-10	3.532362e-01	-1.458013e+01
1.860000e-06	9.765888e-08	-1.262658e-10	6.789911e-01	-1.300594e+01
1.870000e-06	1.445490e-07	-1.032254e-10	1.005003e+00	-1.141201e+01
1.880000e-06	1.914795e-07	-8.167138e-11	1.331296e+00	-9.799303e+00
1.890000e-06	2.383873e-07	-6.235101e-11	1.657431e+00	-8.168893e+00
1.900000e-06	2.851605e-07	-4.247860e-11	1.982630e+00	-6.521902e+00
1.910000e-06	3.318689e-07	-1.973420e-11	2.307379e+00	-4.859518e+00
1.920000e-06	3.785977e-07	4.948713e-12	2.632269e+00	-3.182991e+00
1.930000e-06	4.252475e-07	3.004994e-11	2.956611e+00	-1.493621e+00
1.940000e-06	4.718622e-07	5.594339e-11	3.280708e+00	2.072382e-01
1.950000e-06	5.184694e-07	7.992484e-11	3.604753e+00	1.918192e+00
1.960000e-06	5.649351e-07	1.027602e-10	3.927814e+00	3.637808e+00
1.970000e-06	6.113328e-07	1.248871e-10	4.250402e+00	5.364619e+00
1.980000e-06	6.577412e-07	1.463565e-10	4.573065e+00	7.097134e+00
1.990000e-06	7.041453e-07	1.662960e-10	4.895698e+00	8.833842e+00
2.000000e-06	7.505203e-07	1.879823e-10	5.218129e+00	1.057322e+01
2.010000e-06	7.968126e-07	2.126388e-10	5.539985e+00	1.231373e+01
2.020000e-06	8.430612e-07	2.400153e-10	5.861536e+00	1.405384e+01
2.030000e-06	8.892020e-07	2.696098e-10	6.182338e+00	1.579202e+01
2.040000e-06	9.353491e-07	2.959885e-10	6.503185e+00	1.752675e+01
2.050000e-06	9.814362e-07	3.178581e-10	6.823613e+00	1.925655e+01
2.060000e-06	1.027339e-06	3.380692e-10	7.142762e+00	2.097992e+01
2.070000e-06	1.073123e-06	3.581592e-10	7.461084e+00	2.269542e+01
2.080000e-06	1.118871e-06	3.794481e-10	7.779152e+00	2.440163e+01
2.090000e-06	1.164674e-06	4.043733e-10	8.097611e+00	2.609720e+01
2.100000e-06	1.210373e-06	4.314601e-10	8.415341e+00	2.778078e+01
2.110000e-06	1.255924e-06	4.577183e-10	8.732040e+00	2.945110e+01
2.120000e-06	1.301377e-06	4.805698e-10	9.048062e+00	3.110693e+01
2.130000e-06	1.346676e-06	5.007017e-10	9.363008e+00	3.274710e+01
2.140000e-06	1.391975e-06	5.214456e-10	9.677961e+00	3.437052e+01
2.150000e-06	1.437320e-06	5.420374e-10	9.993227e+00	3.597613e+01
2.160000e-06	1.482528e-06	5.617515e-10	1.030754e+01	3.756296e+01
2.170000e-06	1.527580e-06	5.845406e-10	1.062078e+01	3.913011e+01
2.180000e-06	1.572478e-06	6.072581e-10	1.093294e+01	4.067674e+01
2.190000e-06	1.617261e-06	6.286946e-10	1.124430e+01	4.220209e+01
2.200000e-06	1.661987e-06	6.496649e-10	1.155527e+01	4.370547e+01
2.210000e-06	1.706621e-06	6.694898e-10	1.186559e+01	4.518627e+01
2.220000e-06	1.751043e-06	6.863821e-10	1.217444e+01	4.664394e+01
2.230000e-06	1.795243e-06	7.030957e-10	1.248176e+01	4.807801e+01
2.240000e-06	1.839344e-06	7.224927e-10	1.278838e+01	4.948810e+01
2.250000e-06	1.883341e-06	7.437120e-10	1.309427e+01	5.087388e+01
2.260000e-06	1.927259e-06	7.672830e-10	1.339962e+01	5.223510e+01
2.270000e-06	1.971125e-06	7.891202e-10	1.370461e+01	5.357157e+01
2.280000e-06	2.014937e-06	8.063181e-10	1.400922e+01	5.488318e+01
2.290000e-06	2.058681e-06	8.218124e-10	1.431335e+01	5.616987e+01
2.300000e-06	2.102318e-06	8.356049e-10	1.461675e+01	5.743166e+01
2.310000e-06	2.145850e-06	8.483678e-10	1.491941e+01	5.866861e+01
2.320000e-06	2.189296e-06	8.643323e-10	1.522148e+01	5.988084e+01
2.330000e-06	2.232641e-06	8.834939e-10	1.552284e+01	6.106852e+01
2.340000e-06	2.275831e-06	9.033845e-10	1.582313e+01	6.223187e+01
2.350000e-06	2.318823e-06	9.220531e-10	1.612204e+01	6.337116e+01
2.360000e-06	2.361544e-06	9.388651e-10	1.641906e+01	6.448669e+01
2.370000e-06	2.404023e-06	9.515375e-10	1.671441e+01	6.557880e+01
2.380000e-06	2.446314e-06	9.634945e-10	1.700844e+01	6.664786e+01
2.390000e-06	2.488262e-06	9.744275e-10	1.730009e+01	6.769428e+01
2.400000e-06	2.529750e-06	9.871132e-10	1.758855e+01	6.871847e+01
2.410000e-06	2.570966e-06	1.001595e-09	1.787511e+01	6.972089e+01
2.420000e-06	2.611984e-06	1.015050e-09	1.816029e+01	7.070200e+01
2.430000e-06	2.652689e-06	1.028528e-09	1.844330e+01	7.166228e+01
2.440000e-06	2.693279e-06	1.040680e-09	1.872551e+01	7.260220e+01
2.450000e-06	2.733724e-06	1.053290e-09	1.900671e+01	7.352226e+01
2.460000e-06	2.773827e-06	1.065679e-09	1.928554e+01	7.442296e+01
2.470000e-06	2.813730e-06	1.076661e-09	1.956297e+01	7.530479e+01
2.480000e-06	2.853518e-06	1.085159e-09	1.983960e+01	7.616824e+01
2.490000e-06	2.893223e-06	1.093770e-09	2.011566e+01	7.701379e+01
2.500000e-06	2.932840e-06	1.102864e-09	2.039110e+01	7.784193e+01
2.510000e-06	2.972355e-06	1.113593e-09	2.066584e+01	7.865311e+01
2.520000e-06	3.011575e-06	1.125950e-09	2.093852e+01	7.944780e+01
2.530000e-06	3.050605e-06	1.139223e-09	2.120989e+01	8.022643e+01
2.540000e-06	3.089432e-06	1.152575e-09	2.147984e+01	8.098943e+01
2.550000e-06	3.127940e-06	1.162811e-09	2.174757e+01	8.173720e+01
2.560000e-06	3.166326e-06	1.170247e-09	2.201446e+01	8.247015e+01
2.570000e-06	3.204446e-06	1.178283e-09	2.227949e+01	8.318863e+01
2.580000e-06	3.242360e-06	1.190003e-09	2.254309e+01	8.389300e+01
2.590000e-06	3.280128e-06	1.202878e-09	2.280568e+01	8.458361e+01
2.600000e-06	3.317707e-06	1.213552e-09	2.306696e+01	8.526075e+01
2.610000e-06	3.354989e-06	1.223106e-09	2.332617e+01	8.592474e+01
2.620000e-06	3.391918e-06	1.232157e-09	2.358293e+01	8.657585e+01
2.630000e-06	3.428666e-06	1.240566e-09	2.383842e+01	8.721434e+01
2.640000e-06	3.465132e-06	1.248586e-09	2.409196e+01	8.784045e+01
2.650000e-06	3.501301e-06	1.258729e-09	2.434343e+01	8.845441e+01
2.660000e-06	3.537318e-06	1.270812e-09	2.459384e+01	8.905644e+01
2.670000e-06	3.573183e-06	1.281452e-09	2.484321e+01	8.964673e+01
2.680000e-06	3.608955e-06	1.290523e-09	2.509191e+01	9.022546e+01
2.690000e-06	3.644648e-06	1.297821e-09	2.534008e+01	9.079280e+01
2.700000e-06	3.680165e-06	1.303450e-09	2.558701e+01	9.134893e+01
2.710000e-06	3.715453e-06	1.308818e-09	2.583236e+01	9.189399e+01
2.720000e-06	3.750523e-06	1.315117e-09	2.607619e+01	9.242812e+01
2.730000e-06	3.785362e-06	1.322578e-09	2.631842e+01	9.295147e+01
2.740000e-06	3.819654e-06	1.329826e-09	2.655684e+01	9.346416e+01
2.750000e-06	3.853346e-06	1.335155e-09	2.679109e+01	9.396633e+01
2.760000e-06	3.886636e-06	1.340271e-09	2.702254e+01	9.445810e+01
2.770000e-06	3.919497e-06	1.345881e-09	2.725102e+01	9.493960e+01
2.780000e-06	3.951970e-06	1.351449e-09	2.747679e+01	9.541096e+01
2.790000e-06	3.984100e-06	1.358320e-09	2.770018e+01	9.587229e+01
2.800000e-06	4.016041e-06	1.366116e-09	2.792225e+01	9.632372e+01
2.810000e-06	4.047848e-06	1.372975e-09	2.814340e+01	9.676539e+01
2.820000e-06	4.079425e-06	1.381151e-09	2.836294e+01	9.719743e+01
2.830000e-06	4.110801e-06	1.388676e-09	2.858109e+01	9.761998e+01
2.840000e-06	4.141882e-06	1.395186e-09	2.879718e+01	9.803317e+01
2.850000e-06	4.172671e-06	1.399824e-09	2.901126e+01	9.843716e+01
2.860000e-06	4.203176e-06	1.402983e-09	2.922334e+01	9.883209e+01
2.870000e-06	4.233328e-06	1.407265e-09	2.943298e+01	9.921813e+01
2.880000e-06	4.263222e-06	1.410761e-09	2.964082e+01	9.959543e+01
2.890000e-06	4.292803e-06	1.414015e-09	2.984649e+01	9.996417e+01
2.900000e-06	4.322129e-06	1.417371e-09	3.005039e+01	1.003245e+02
