# Temperatura_=_-0.6
# Concentracion g/m^3_=_1620.0
# C_Vs_to_Am_M_A/Vsm_=_65563218390.804596
# pendiente_HvsI_1/m_=_3716.3
# ordenada_HvsI_A/m_=_1297.0
# frecuencia_Hz_=_135095.5538985182

Tiempo_(s)	Campo_(V.s)	Magnetizacion_(V.s)	Campo_(kA/m)	Magnetizacion_(A/m)
0.000000e+00	-5.527181e-06	-1.335632e-09	-3.836508e+01	-8.756261e+01
1.000000e-08	-5.527385e-06	-1.330853e-09	-3.836649e+01	-8.754006e+01
2.000000e-08	-5.527394e-06	-1.328926e-09	-3.836655e+01	-8.751459e+01
3.000000e-08	-5.527059e-06	-1.331128e-09	-3.836423e+01	-8.748623e+01
4.000000e-08	-5.526189e-06	-1.334433e-09	-3.835819e+01	-8.745499e+01
5.000000e-08	-5.524768e-06	-1.331985e-09	-3.834833e+01	-8.742087e+01
6.000000e-08	-5.522769e-06	-1.319150e-09	-3.833446e+01	-8.738390e+01
7.000000e-08	-5.520145e-06	-1.297717e-09	-3.831624e+01	-8.734412e+01
8.000000e-08	-5.516930e-06	-1.322915e-09	-3.829393e+01	-8.730154e+01
9.000000e-08	-5.513239e-06	-1.389737e-09	-3.826830e+01	-8.725621e+01
1.000000e-07	-5.509258e-06	-1.389105e-09	-3.824067e+01	-8.720816e+01
1.100000e-07	-5.504985e-06	-1.289010e-09	-3.821101e+01	-8.715744e+01
1.200000e-07	-5.500489e-06	-1.260327e-09	-3.817980e+01	-8.710409e+01
1.300000e-07	-5.495750e-06	-1.321061e-09	-3.814691e+01	-8.704817e+01
1.400000e-07	-5.490544e-06	-1.373672e-09	-3.811077e+01	-8.698971e+01
1.500000e-07	-5.484862e-06	-1.285291e-09	-3.807133e+01	-8.692876e+01
1.600000e-07	-5.478871e-06	-1.275232e-09	-3.802975e+01	-8.686537e+01
1.700000e-07	-5.472508e-06	-1.332488e-09	-3.798558e+01	-8.679959e+01
1.800000e-07	-5.465673e-06	-1.376530e-09	-3.793814e+01	-8.673146e+01
1.900000e-07	-5.458473e-06	-1.299892e-09	-3.788817e+01	-8.666102e+01
2.000000e-07	-5.451005e-06	-1.266809e-09	-3.783633e+01	-8.658831e+01
2.100000e-07	-5.443264e-06	-1.308462e-09	-3.778260e+01	-8.651335e+01
2.200000e-07	-5.435276e-06	-1.355059e-09	-3.772715e+01	-8.643618e+01
2.300000e-07	-5.427051e-06	-1.324110e-09	-3.767006e+01	-8.635682e+01
2.400000e-07	-5.418441e-06	-1.281458e-09	-3.761029e+01	-8.627528e+01
2.500000e-07	-5.409118e-06	-1.294673e-09	-3.754559e+01	-8.619157e+01
2.600000e-07	-5.398907e-06	-1.295216e-09	-3.747471e+01	-8.610568e+01
2.700000e-07	-5.388182e-06	-1.277382e-09	-3.740027e+01	-8.601762e+01
2.800000e-07	-5.377048e-06	-1.254449e-09	-3.732298e+01	-8.592736e+01
2.900000e-07	-5.365407e-06	-1.292418e-09	-3.724218e+01	-8.583488e+01
3.000000e-07	-5.353421e-06	-1.287680e-09	-3.715898e+01	-8.574016e+01
3.100000e-07	-5.341103e-06	-1.270903e-09	-3.707348e+01	-8.564315e+01
3.200000e-07	-5.328268e-06	-1.234478e-09	-3.698439e+01	-8.554379e+01
3.300000e-07	-5.314875e-06	-1.275403e-09	-3.689143e+01	-8.544205e+01
3.400000e-07	-5.301214e-06	-1.266712e-09	-3.679660e+01	-8.533784e+01
3.500000e-07	-5.287362e-06	-1.246623e-09	-3.670045e+01	-8.523111e+01
3.600000e-07	-5.273070e-06	-1.238764e-09	-3.660125e+01	-8.512176e+01
3.700000e-07	-5.258267e-06	-1.295894e-09	-3.649850e+01	-8.500973e+01
3.800000e-07	-5.242927e-06	-1.261794e-09	-3.639202e+01	-8.489492e+01
3.900000e-07	-5.226952e-06	-1.222369e-09	-3.628114e+01	-8.477723e+01
4.000000e-07	-5.210510e-06	-1.255324e-09	-3.616702e+01	-8.465656e+01
4.100000e-07	-5.193829e-06	-1.289378e-09	-3.605123e+01	-8.453283e+01
4.200000e-07	-5.176831e-06	-1.227470e-09	-3.593324e+01	-8.440591e+01
4.300000e-07	-5.159471e-06	-1.229925e-09	-3.581274e+01	-8.427572e+01
4.400000e-07	-5.141774e-06	-1.292635e-09	-3.568991e+01	-8.414214e+01
4.500000e-07	-5.123674e-06	-1.257195e-09	-3.556427e+01	-8.400506e+01
4.600000e-07	-5.105110e-06	-1.197724e-09	-3.543542e+01	-8.386440e+01
4.700000e-07	-5.086120e-06	-1.243128e-09	-3.530360e+01	-8.372005e+01
4.800000e-07	-5.066766e-06	-1.262363e-09	-3.516926e+01	-8.357191e+01
4.900000e-07	-5.047108e-06	-1.207463e-09	-3.503282e+01	-8.341989e+01
5.000000e-07	-5.027267e-06	-1.231646e-09	-3.489509e+01	-8.326391e+01
5.100000e-07	-5.007293e-06	-1.262664e-09	-3.475645e+01	-8.310390e+01
5.200000e-07	-4.987025e-06	-1.213979e-09	-3.461576e+01	-8.293977e+01
5.300000e-07	-4.966368e-06	-1.205376e-09	-3.447238e+01	-8.277148e+01
5.400000e-07	-4.945414e-06	-1.255559e-09	-3.432694e+01	-8.259896e+01
5.500000e-07	-4.924058e-06	-1.213610e-09	-3.417870e+01	-8.242218e+01
5.600000e-07	-4.902315e-06	-1.179905e-09	-3.402778e+01	-8.224109e+01
5.700000e-07	-4.880334e-06	-1.225458e-09	-3.387521e+01	-8.205568e+01
5.800000e-07	-4.858031e-06	-1.235419e-09	-3.372039e+01	-8.186593e+01
5.900000e-07	-4.835360e-06	-1.186671e-09	-3.356303e+01	-8.167184e+01
6.000000e-07	-4.812407e-06	-1.209753e-09	-3.340371e+01	-8.147341e+01
6.100000e-07	-4.789093e-06	-1.226296e-09	-3.324189e+01	-8.127067e+01
6.200000e-07	-4.765464e-06	-1.196664e-09	-3.307788e+01	-8.106364e+01
6.300000e-07	-4.741637e-06	-1.190910e-09	-3.291249e+01	-8.085236e+01
6.400000e-07	-4.717601e-06	-1.216305e-09	-3.274565e+01	-8.063688e+01
6.500000e-07	-4.693255e-06	-1.192374e-09	-3.257666e+01	-8.041726e+01
6.600000e-07	-4.668489e-06	-1.185243e-09	-3.240475e+01	-8.019355e+01
6.700000e-07	-4.643246e-06	-1.200570e-09	-3.222954e+01	-7.996583e+01
6.800000e-07	-4.617354e-06	-1.194743e-09	-3.204982e+01	-7.973419e+01
6.900000e-07	-4.590860e-06	-1.176047e-09	-3.186592e+01	-7.949869e+01
7.000000e-07	-4.563909e-06	-1.185932e-09	-3.167885e+01	-7.925944e+01
7.100000e-07	-4.536563e-06	-1.181701e-09	-3.148903e+01	-7.901652e+01
7.200000e-07	-4.508996e-06	-1.169954e-09	-3.129768e+01	-7.877002e+01
7.300000e-07	-4.481263e-06	-1.171549e-09	-3.110519e+01	-7.852004e+01
7.400000e-07	-4.453315e-06	-1.169401e-09	-3.091120e+01	-7.826667e+01
7.500000e-07	-4.425174e-06	-1.150934e-09	-3.071586e+01	-7.801001e+01
7.600000e-07	-4.396796e-06	-1.147935e-09	-3.051889e+01	-7.775014e+01
7.700000e-07	-4.368114e-06	-1.152063e-09	-3.031980e+01	-7.748715e+01
7.800000e-07	-4.339133e-06	-1.142012e-09	-3.011864e+01	-7.722112e+01
7.900000e-07	-4.309869e-06	-1.137752e-09	-2.991551e+01	-7.695212e+01
8.000000e-07	-4.280257e-06	-1.137903e-09	-2.970997e+01	-7.668022e+01
8.100000e-07	-4.250367e-06	-1.124676e-09	-2.950250e+01	-7.640548e+01
8.200000e-07	-4.220249e-06	-1.109849e-09	-2.929344e+01	-7.612794e+01
8.300000e-07	-4.189770e-06	-1.114580e-09	-2.908189e+01	-7.584765e+01
8.400000e-07	-4.158970e-06	-1.108224e-09	-2.886810e+01	-7.556463e+01
8.500000e-07	-4.127867e-06	-1.098557e-09	-2.865221e+01	-7.527891e+01
8.600000e-07	-4.096457e-06	-1.098699e-09	-2.843418e+01	-7.499047e+01
8.700000e-07	-4.064840e-06	-1.103039e-09	-2.821473e+01	-7.469933e+01
8.800000e-07	-4.033142e-06	-1.090716e-09	-2.799470e+01	-7.440545e+01
8.900000e-07	-4.001338e-06	-1.089240e-09	-2.777395e+01	-7.410881e+01
9.000000e-07	-3.969332e-06	-1.083875e-09	-2.755179e+01	-7.380936e+01
9.100000e-07	-3.937045e-06	-1.070283e-09	-2.732768e+01	-7.350705e+01
9.200000e-07	-3.904365e-06	-1.060964e-09	-2.710084e+01	-7.320180e+01
9.300000e-07	-3.871271e-06	-1.066179e-09	-2.687113e+01	-7.289354e+01
9.400000e-07	-3.837643e-06	-1.061658e-09	-2.663771e+01	-7.258217e+01
9.500000e-07	-3.803513e-06	-1.053750e-09	-2.640082e+01	-7.226759e+01
9.600000e-07	-3.768948e-06	-1.050799e-09	-2.616089e+01	-7.194970e+01
9.700000e-07	-3.734042e-06	-1.043094e-09	-2.591860e+01	-7.162838e+01
9.800000e-07	-3.698849e-06	-1.027721e-09	-2.567433e+01	-7.130349e+01
9.900000e-07	-3.663347e-06	-1.026685e-09	-2.542790e+01	-7.097491e+01
1.000000e-06	-3.627677e-06	-1.028934e-09	-2.518031e+01	-7.064250e+01
1.010000e-06	-3.591892e-06	-1.026205e-09	-2.493191e+01	-7.030612e+01
1.020000e-06	-3.555999e-06	-1.025853e-09	-2.468278e+01	-6.996563e+01
1.030000e-06	-3.519997e-06	-1.026011e-09	-2.443288e+01	-6.962088e+01
1.040000e-06	-3.483838e-06	-1.017936e-09	-2.418189e+01	-6.927173e+01
1.050000e-06	-3.447422e-06	-1.007839e-09	-2.392913e+01	-6.891803e+01
1.060000e-06	-3.410688e-06	-1.003368e-09	-2.367415e+01	-6.855965e+01
1.070000e-06	-3.373654e-06	-9.959032e-10	-2.341709e+01	-6.819644e+01
1.080000e-06	-3.336378e-06	-9.879474e-10	-2.315835e+01	-6.782827e+01
1.090000e-06	-3.298823e-06	-9.866245e-10	-2.289768e+01	-6.745502e+01
1.100000e-06	-3.260987e-06	-9.842972e-10	-2.263505e+01	-6.707657e+01
1.110000e-06	-3.222926e-06	-9.742363e-10	-2.237086e+01	-6.669280e+01
1.120000e-06	-3.184639e-06	-9.693498e-10	-2.210511e+01	-6.630361e+01
1.130000e-06	-3.146159e-06	-9.661494e-10	-2.183801e+01	-6.590890e+01
1.140000e-06	-3.107485e-06	-9.597669e-10	-2.156957e+01	-6.550858e+01
1.150000e-06	-3.068649e-06	-9.499909e-10	-2.130000e+01	-6.510259e+01
1.160000e-06	-3.029652e-06	-9.437713e-10	-2.102932e+01	-6.469084e+01
1.170000e-06	-2.990412e-06	-9.344342e-10	-2.075694e+01	-6.427328e+01
1.180000e-06	-2.950944e-06	-9.274738e-10	-2.048299e+01	-6.384986e+01
1.190000e-06	-2.911322e-06	-9.229967e-10	-2.020797e+01	-6.342054e+01
1.200000e-06	-2.871586e-06	-9.178140e-10	-1.993216e+01	-6.298528e+01
1.210000e-06	-2.831701e-06	-9.079203e-10	-1.965530e+01	-6.254406e+01
1.220000e-06	-2.791730e-06	-9.012242e-10	-1.937786e+01	-6.209685e+01
1.230000e-06	-2.751699e-06	-8.960303e-10	-1.910000e+01	-6.164365e+01
1.240000e-06	-2.711465e-06	-8.877388e-10	-1.882073e+01	-6.118443e+01
1.250000e-06	-2.671026e-06	-8.787188e-10	-1.854003e+01	-6.071919e+01
1.260000e-06	-2.630353e-06	-8.711126e-10	-1.825772e+01	-6.024792e+01
1.270000e-06	-2.589407e-06	-8.603400e-10	-1.797350e+01	-5.977060e+01
1.280000e-06	-2.548115e-06	-8.509553e-10	-1.768689e+01	-5.928723e+01
1.290000e-06	-2.506470e-06	-8.440831e-10	-1.739782e+01	-5.879779e+01
1.300000e-06	-2.464552e-06	-8.363188e-10	-1.710686e+01	-5.830225e+01
1.310000e-06	-2.422300e-06	-8.256736e-10	-1.681359e+01	-5.780057e+01
1.320000e-06	-2.379733e-06	-8.156868e-10	-1.651812e+01	-5.729273e+01
1.330000e-06	-2.336883e-06	-8.065574e-10	-1.622069e+01	-5.677865e+01
1.340000e-06	-2.293769e-06	-7.978885e-10	-1.592143e+01	-5.625827e+01
1.350000e-06	-2.250483e-06	-7.886903e-10	-1.562097e+01	-5.573150e+01
1.360000e-06	-2.207039e-06	-7.791799e-10	-1.531943e+01	-5.519824e+01
1.370000e-06	-2.163420e-06	-7.714412e-10	-1.501666e+01	-5.465836e+01
1.380000e-06	-2.119688e-06	-7.628993e-10	-1.471310e+01	-5.411173e+01
1.390000e-06	-2.075917e-06	-7.526580e-10	-1.440928e+01	-5.355816e+01
1.400000e-06	-2.032101e-06	-7.409801e-10	-1.410515e+01	-5.299747e+01
1.410000e-06	-1.988200e-06	-7.295800e-10	-1.380042e+01	-5.242944e+01
1.420000e-06	-1.944239e-06	-7.191335e-10	-1.349528e+01	-5.185382e+01
1.430000e-06	-1.900237e-06	-7.116080e-10	-1.318986e+01	-5.127036e+01
1.440000e-06	-1.856133e-06	-7.043839e-10	-1.288373e+01	-5.067874e+01
1.450000e-06	-1.811933e-06	-6.965798e-10	-1.257692e+01	-5.007866e+01
1.460000e-06	-1.767601e-06	-6.864994e-10	-1.226921e+01	-4.946975e+01
1.470000e-06	-1.723031e-06	-6.759542e-10	-1.195984e+01	-4.885164e+01
1.480000e-06	-1.678356e-06	-6.640704e-10	-1.164975e+01	-4.822392e+01
1.490000e-06	-1.633588e-06	-6.539896e-10	-1.133901e+01	-4.758618e+01
1.500000e-06	-1.588659e-06	-6.455026e-10	-1.102715e+01	-4.693795e+01
1.510000e-06	-1.543602e-06	-6.379418e-10	-1.071439e+01	-4.627876e+01
1.520000e-06	-1.498343e-06	-6.299172e-10	-1.040025e+01	-4.560813e+01
1.530000e-06	-1.452974e-06	-6.228822e-10	-1.008533e+01	-4.492553e+01
1.540000e-06	-1.407570e-06	-6.147140e-10	-9.770177e+00	-4.423045e+01
1.550000e-06	-1.362100e-06	-6.059618e-10	-9.454559e+00	-4.352234e+01
1.560000e-06	-1.316519e-06	-5.962412e-10	-9.138177e+00	-4.280064e+01
1.570000e-06	-1.270802e-06	-5.855631e-10	-8.820850e+00	-4.206482e+01
1.580000e-06	-1.225029e-06	-5.716958e-10	-8.503132e+00	-4.131429e+01
1.590000e-06	-1.179224e-06	-5.550615e-10	-8.185191e+00	-4.054850e+01
1.600000e-06	-1.133329e-06	-5.422504e-10	-7.866627e+00	-3.976690e+01
1.610000e-06	-1.087412e-06	-5.336850e-10	-7.547909e+00	-3.896893e+01
1.620000e-06	-1.041427e-06	-5.245023e-10	-7.228716e+00	-3.815406e+01
1.630000e-06	-9.953009e-07	-5.139823e-10	-6.908548e+00	-3.732175e+01
1.640000e-06	-9.490803e-07	-5.027430e-10	-6.587724e+00	-3.647151e+01
1.650000e-06	-9.028056e-07	-4.903119e-10	-6.266523e+00	-3.560286e+01
1.660000e-06	-8.564303e-07	-4.759425e-10	-5.944625e+00	-3.471534e+01
1.670000e-06	-8.099307e-07	-4.596285e-10	-5.621863e+00	-3.380852e+01
1.680000e-06	-7.634127e-07	-4.442836e-10	-5.298974e+00	-3.288203e+01
1.690000e-06	-7.169196e-07	-4.299883e-10	-4.976258e+00	-3.193552e+01
1.700000e-06	-6.704294e-07	-4.146056e-10	-4.653561e+00	-3.096868e+01
1.710000e-06	-6.238914e-07	-3.986336e-10	-4.330533e+00	-2.998125e+01
1.720000e-06	-5.772751e-07	-3.863084e-10	-4.006962e+00	-2.897303e+01
1.730000e-06	-5.306396e-07	-3.732916e-10	-3.683257e+00	-2.794386e+01
1.740000e-06	-4.839162e-07	-3.573581e-10	-3.358943e+00	-2.689364e+01
1.750000e-06	-4.371126e-07	-3.396899e-10	-3.034071e+00	-2.582234e+01
1.760000e-06	-3.902873e-07	-3.200633e-10	-2.709049e+00	-2.472997e+01
1.770000e-06	-3.433702e-07	-2.984163e-10	-2.383389e+00	-2.361662e+01
1.780000e-06	-2.964195e-07	-2.791140e-10	-2.057497e+00	-2.248244e+01
1.790000e-06	-2.494827e-07	-2.639902e-10	-1.731700e+00	-2.132764e+01
1.800000e-06	-2.025906e-07	-2.503204e-10	-1.406215e+00	-2.015249e+01
1.810000e-06	-1.557642e-07	-2.358387e-10	-1.081185e+00	-1.895735e+01
1.820000e-06	-1.089567e-07	-2.197780e-10	-7.562863e-01	-1.774264e+01
1.830000e-06	-6.213030e-08	-1.998227e-10	-4.312567e-01	-1.650883e+01
1.840000e-06	-1.526959e-08	-1.777832e-10	-1.059887e-01	-1.525647e+01
1.850000e-06	3.158924e-08	-1.573687e-10	2.192662e-01	-1.398617e+01
1.860000e-06	7.845914e-08	-1.405317e-10	5.445979e-01	-1.269862e+01
1.870000e-06	1.253448e-07	-1.241713e-10	8.700387e-01	-1.139455e+01
1.880000e-06	1.723074e-07	-1.082572e-10	1.196014e+00	-1.007477e+01
1.890000e-06	2.192305e-07	-9.231689e-11	1.521715e+00	-8.740122e+00
1.900000e-06	2.661598e-07	-7.486040e-11	1.847459e+00	-7.391526e+00
1.910000e-06	3.130735e-07	-5.724702e-11	2.173095e+00	-6.029946e+00
1.920000e-06	3.598640e-07	-3.790983e-11	2.497876e+00	-4.656391e+00
1.930000e-06	4.065691e-07	-1.662956e-11	2.822063e+00	-3.271919e+00
1.940000e-06	4.532346e-07	3.451595e-12	3.145976e+00	-1.877625e+00
1.950000e-06	4.999777e-07	2.188520e-11	3.470428e+00	-4.746404e-01
1.960000e-06	5.466682e-07	4.104456e-11	3.794515e+00	9.358700e-01
1.970000e-06	5.932406e-07	6.186744e-11	4.117781e+00	2.352716e+00
1.980000e-06	6.397619e-07	8.279134e-11	4.440693e+00	3.774684e+00
1.990000e-06	6.862417e-07	1.018627e-10	4.763317e+00	5.200543e+00
2.000000e-06	7.326288e-07	1.200461e-10	5.085298e+00	6.629050e+00
2.010000e-06	7.790588e-07	1.390759e-10	5.407576e+00	8.058954e+00
2.020000e-06	8.254676e-07	1.567666e-10	5.729707e+00	9.489000e+00
2.030000e-06	8.716798e-07	1.753392e-10	6.050474e+00	1.091794e+01
2.040000e-06	9.177673e-07	1.963492e-10	6.370375e+00	1.234452e+01
2.050000e-06	9.638741e-07	2.162698e-10	6.690410e+00	1.376752e+01
2.060000e-06	1.009987e-06	2.375821e-10	7.010486e+00	1.518571e+01
2.070000e-06	1.055963e-06	2.582802e-10	7.329612e+00	1.659791e+01
2.080000e-06	1.101802e-06	2.778084e-10	7.647789e+00	1.800293e+01
2.090000e-06	1.147581e-06	2.962280e-10	7.965551e+00	1.939965e+01
2.100000e-06	1.193411e-06	3.161026e-10	8.283663e+00	2.078694e+01
2.110000e-06	1.239191e-06	3.347202e-10	8.601431e+00	2.216375e+01
2.120000e-06	1.284824e-06	3.501653e-10	8.918174e+00	2.352904e+01
2.130000e-06	1.330348e-06	3.662496e-10	9.234169e+00	2.488183e+01
2.140000e-06	1.375718e-06	3.844265e-10	9.549088e+00	2.622117e+01
2.150000e-06	1.421043e-06	4.025602e-10	9.863693e+00	2.754618e+01
2.160000e-06	1.466241e-06	4.211928e-10	1.017742e+01	2.885602e+01
2.170000e-06	1.511322e-06	4.411270e-10	1.049033e+01	3.014990e+01
2.180000e-06	1.556335e-06	4.588985e-10	1.080278e+01	3.142708e+01
2.190000e-06	1.601184e-06	4.754720e-10	1.111408e+01	3.268691e+01
2.200000e-06	1.645909e-06	4.922271e-10	1.142453e+01	3.392875e+01
2.210000e-06	1.690438e-06	5.066605e-10	1.173361e+01	3.515205e+01
2.220000e-06	1.734793e-06	5.195766e-10	1.204148e+01	3.635631e+01
2.230000e-06	1.779014e-06	5.346686e-10	1.234843e+01	3.754109e+01
2.240000e-06	1.823131e-06	5.512347e-10	1.265466e+01	3.870600e+01
2.250000e-06	1.867236e-06	5.686561e-10	1.296079e+01	3.985072e+01
2.260000e-06	1.911268e-06	5.870503e-10	1.326642e+01	4.097497e+01
2.270000e-06	1.955203e-06	6.037847e-10	1.357138e+01	4.207853e+01
2.280000e-06	1.999074e-06	6.187864e-10	1.387590e+01	4.316126e+01
2.290000e-06	2.042865e-06	6.322460e-10	1.417986e+01	4.422304e+01
2.300000e-06	2.086591e-06	6.470622e-10	1.448337e+01	4.526380e+01
2.310000e-06	2.130273e-06	6.593578e-10	1.478658e+01	4.628355e+01
2.320000e-06	2.173890e-06	6.709440e-10	1.508933e+01	4.728232e+01
2.330000e-06	2.217436e-06	6.854887e-10	1.539159e+01	4.826020e+01
2.340000e-06	2.260813e-06	6.999573e-10	1.569268e+01	4.921730e+01
2.350000e-06	2.304017e-06	7.147051e-10	1.599257e+01	5.015379e+01
2.360000e-06	2.347012e-06	7.279760e-10	1.629100e+01	5.106987e+01
2.370000e-06	2.389771e-06	7.377067e-10	1.658780e+01	5.196577e+01
2.380000e-06	2.432247e-06	7.477165e-10	1.688263e+01	5.284176e+01
2.390000e-06	2.474416e-06	7.606897e-10	1.717533e+01	5.369814e+01
2.400000e-06	2.516226e-06	7.742017e-10	1.746554e+01	5.453521e+01
2.410000e-06	2.557516e-06	7.879665e-10	1.775214e+01	5.535333e+01
2.420000e-06	2.598522e-06	8.011650e-10	1.803677e+01	5.615285e+01
2.430000e-06	2.639331e-06	8.127022e-10	1.832003e+01	5.693415e+01
2.440000e-06	2.679955e-06	8.204616e-10	1.860201e+01	5.769763e+01
2.450000e-06	2.720400e-06	8.266703e-10	1.888275e+01	5.844370e+01
2.460000e-06	2.760604e-06	8.344995e-10	1.916181e+01	5.917276e+01
2.470000e-06	2.800678e-06	8.450552e-10	1.943997e+01	5.988524e+01
2.480000e-06	2.840637e-06	8.579232e-10	1.971733e+01	6.058157e+01
2.490000e-06	2.880466e-06	8.702303e-10	1.999379e+01	6.126218e+01
2.500000e-06	2.920166e-06	8.814364e-10	2.026935e+01	6.192749e+01
2.510000e-06	2.959731e-06	8.926430e-10	2.054398e+01	6.257794e+01
2.520000e-06	2.999152e-06	9.009090e-10	2.081761e+01	6.321395e+01
2.530000e-06	3.038418e-06	9.078358e-10	2.109016e+01	6.383594e+01
2.540000e-06	3.077483e-06	9.153302e-10	2.136132e+01	6.444433e+01
2.550000e-06	3.116268e-06	9.250867e-10	2.163053e+01	6.503952e+01
2.560000e-06	3.154762e-06	9.346249e-10	2.189772e+01	6.562191e+01
2.570000e-06	3.192978e-06	9.444327e-10	2.216299e+01	6.619189e+01
2.580000e-06	3.231043e-06	9.559919e-10	2.242720e+01	6.674982e+01
2.590000e-06	3.268965e-06	9.681347e-10	2.269042e+01	6.729608e+01
2.600000e-06	3.306616e-06	9.780940e-10	2.295177e+01	6.783101e+01
2.610000e-06	3.344004e-06	9.834152e-10	2.321128e+01	6.835496e+01
2.620000e-06	3.381096e-06	9.873438e-10	2.346875e+01	6.886823e+01
2.630000e-06	3.417976e-06	9.942142e-10	2.372473e+01	6.937115e+01
2.640000e-06	3.454678e-06	1.001805e-09	2.397949e+01	6.986401e+01
2.650000e-06	3.491066e-06	1.010583e-09	2.423207e+01	7.034708e+01
2.660000e-06	3.527190e-06	1.021490e-09	2.448281e+01	7.082063e+01
2.670000e-06	3.563160e-06	1.030479e-09	2.473248e+01	7.128491e+01
2.680000e-06	3.599008e-06	1.037637e-09	2.498131e+01	7.174015e+01
2.690000e-06	3.634794e-06	1.041961e-09	2.522971e+01	7.218658e+01
2.700000e-06	3.670497e-06	1.043782e-09	2.547753e+01	7.262440e+01
2.710000e-06	3.706048e-06	1.048010e-09	2.572429e+01	7.305380e+01
2.720000e-06	3.741391e-06	1.056365e-09	2.596961e+01	7.347497e+01
2.730000e-06	3.776390e-06	1.065243e-09	2.621255e+01	7.388806e+01
2.740000e-06	3.810957e-06	1.073406e-09	2.645248e+01	7.429323e+01
2.750000e-06	3.845048e-06	1.079476e-09	2.668911e+01	7.469062e+01
2.760000e-06	3.878575e-06	1.083052e-09	2.692183e+01	7.508037e+01
2.770000e-06	3.911521e-06	1.085899e-09	2.715051e+01	7.546259e+01
2.780000e-06	3.944056e-06	1.091440e-09	2.737635e+01	7.583739e+01
2.790000e-06	3.976361e-06	1.098838e-09	2.760058e+01	7.620486e+01
2.800000e-06	4.008480e-06	1.105657e-09	2.782352e+01	7.656511e+01
2.810000e-06	4.040387e-06	1.111562e-09	2.804500e+01	7.691820e+01
2.820000e-06	4.072126e-06	1.116561e-09	2.826530e+01	7.726421e+01
2.830000e-06	4.103726e-06	1.119774e-09	2.848464e+01	7.760322e+01
2.840000e-06	4.135097e-06	1.122084e-09	2.870240e+01	7.793528e+01
2.850000e-06	4.166129e-06	1.123391e-09	2.891779e+01	7.826044e+01
2.860000e-06	4.196822e-06	1.125661e-09	2.913084e+01	7.857875e+01
2.870000e-06	4.227148e-06	1.131135e-09	2.934134e+01	7.889027e+01
2.880000e-06	4.257103e-06	1.137069e-09	2.954926e+01	7.919502e+01
2.890000e-06	4.286837e-06	1.141623e-09	2.975565e+01	7.949306e+01
2.900000e-06	4.316374e-06	1.144858e-09	2.996066e+01	7.978441e+01
