# Temperatura_=_-0.7
# Concentracion g/m^3_=_1620.0
# C_Vs_to_Am_M_A/Vsm_=_65563218390.804596
# pendiente_HvsI_1/m_=_3716.3
# ordenada_HvsI_A/m_=_1297.0
# frecuencia_Hz_=_135098.18985373632

Tiempo_(s)	Campo_(V.s)	Magnetizacion_(V.s)	Campo_(kA/m)	Magnetizacion_(A/m)
0.000000e+00	-5.507251e-06	-1.282670e-09	-3.837849e+01	-8.417791e+01
1.000000e-08	-5.507296e-06	-1.278741e-09	-3.837880e+01	-8.415187e+01
2.000000e-08	-5.507063e-06	-1.275198e-09	-3.837718e+01	-8.412660e+01
3.000000e-08	-5.506378e-06	-1.273509e-09	-3.837240e+01	-8.410195e+01
4.000000e-08	-5.505117e-06	-1.273952e-09	-3.836362e+01	-8.407773e+01
5.000000e-08	-5.503227e-06	-1.276511e-09	-3.835044e+01	-8.405373e+01
6.000000e-08	-5.500874e-06	-1.280612e-09	-3.833405e+01	-8.402975e+01
7.000000e-08	-5.498045e-06	-1.302260e-09	-3.831434e+01	-8.400553e+01
8.000000e-08	-5.494617e-06	-1.297328e-09	-3.829044e+01	-8.398080e+01
9.000000e-08	-5.490736e-06	-1.240908e-09	-3.826340e+01	-8.395530e+01
1.000000e-07	-5.486561e-06	-1.232002e-09	-3.823431e+01	-8.392874e+01
1.100000e-07	-5.482139e-06	-1.316465e-09	-3.820349e+01	-8.390082e+01
1.200000e-07	-5.477396e-06	-1.314515e-09	-3.817044e+01	-8.387123e+01
1.300000e-07	-5.472374e-06	-1.260869e-09	-3.813544e+01	-8.383965e+01
1.400000e-07	-5.467011e-06	-1.225030e-09	-3.809807e+01	-8.380579e+01
1.500000e-07	-5.461254e-06	-1.324903e-09	-3.805795e+01	-8.376933e+01
1.600000e-07	-5.455075e-06	-1.326607e-09	-3.801489e+01	-8.372995e+01
1.700000e-07	-5.448474e-06	-1.251296e-09	-3.796889e+01	-8.368736e+01
1.800000e-07	-5.441517e-06	-1.216964e-09	-3.792041e+01	-8.364128e+01
1.900000e-07	-5.434220e-06	-1.290697e-09	-3.786956e+01	-8.359140e+01
2.000000e-07	-5.426649e-06	-1.324236e-09	-3.781680e+01	-8.353748e+01
2.100000e-07	-5.418845e-06	-1.288256e-09	-3.776241e+01	-8.347925e+01
2.200000e-07	-5.410778e-06	-1.258900e-09	-3.770619e+01	-8.341650e+01
2.300000e-07	-5.402385e-06	-1.275546e-09	-3.764771e+01	-8.334900e+01
2.400000e-07	-5.393416e-06	-1.297867e-09	-3.758521e+01	-8.327656e+01
2.500000e-07	-5.383722e-06	-1.256439e-09	-3.751765e+01	-8.319903e+01
2.600000e-07	-5.373341e-06	-1.248705e-09	-3.744531e+01	-8.311625e+01
2.700000e-07	-5.362446e-06	-1.257275e-09	-3.736939e+01	-8.302812e+01
2.800000e-07	-5.351241e-06	-1.270834e-09	-3.729130e+01	-8.293454e+01
2.900000e-07	-5.339639e-06	-1.221833e-09	-3.721045e+01	-8.283546e+01
3.000000e-07	-5.327548e-06	-1.222281e-09	-3.712619e+01	-8.273083e+01
3.100000e-07	-5.315031e-06	-1.231256e-09	-3.703897e+01	-8.262065e+01
3.200000e-07	-5.302129e-06	-1.257832e-09	-3.694905e+01	-8.250494e+01
3.300000e-07	-5.288823e-06	-1.217130e-09	-3.685633e+01	-8.238374e+01
3.400000e-07	-5.275142e-06	-1.215794e-09	-3.676099e+01	-8.225712e+01
3.500000e-07	-5.261053e-06	-1.234870e-09	-3.666281e+01	-8.212519e+01
3.600000e-07	-5.246564e-06	-1.248474e-09	-3.656183e+01	-8.198805e+01
3.700000e-07	-5.231560e-06	-1.192519e-09	-3.645728e+01	-8.184584e+01
3.800000e-07	-5.216000e-06	-1.207145e-09	-3.634885e+01	-8.169873e+01
3.900000e-07	-5.199906e-06	-1.245880e-09	-3.623669e+01	-8.154690e+01
4.000000e-07	-5.183305e-06	-1.216957e-09	-3.612100e+01	-8.139053e+01
4.100000e-07	-5.166354e-06	-1.182400e-09	-3.600287e+01	-8.122983e+01
4.200000e-07	-5.149221e-06	-1.239187e-09	-3.588348e+01	-8.106503e+01
4.300000e-07	-5.131898e-06	-1.241120e-09	-3.576276e+01	-8.089634e+01
4.400000e-07	-5.114164e-06	-1.164494e-09	-3.563917e+01	-8.072401e+01
4.500000e-07	-5.095864e-06	-1.187575e-09	-3.551165e+01	-8.054826e+01
4.600000e-07	-5.077135e-06	-1.242919e-09	-3.538113e+01	-8.036935e+01
4.700000e-07	-5.058141e-06	-1.188004e-09	-3.524877e+01	-8.018750e+01
4.800000e-07	-5.038835e-06	-1.162002e-09	-3.511423e+01	-8.000295e+01
4.900000e-07	-5.019246e-06	-1.232437e-09	-3.497772e+01	-7.981593e+01
5.000000e-07	-4.999460e-06	-1.207326e-09	-3.483984e+01	-7.962666e+01
5.100000e-07	-4.979462e-06	-1.156906e-09	-3.470047e+01	-7.943535e+01
5.200000e-07	-4.959106e-06	-1.206008e-09	-3.455862e+01	-7.924219e+01
5.300000e-07	-4.938407e-06	-1.215483e-09	-3.441438e+01	-7.904737e+01
5.400000e-07	-4.917335e-06	-1.135553e-09	-3.426753e+01	-7.885105e+01
5.500000e-07	-4.895913e-06	-1.169744e-09	-3.411825e+01	-7.865339e+01
5.600000e-07	-4.874248e-06	-1.220770e-09	-3.396727e+01	-7.845450e+01
5.700000e-07	-4.852246e-06	-1.166038e-09	-3.381395e+01	-7.825450e+01
5.800000e-07	-4.829811e-06	-1.144783e-09	-3.365760e+01	-7.805346e+01
5.900000e-07	-4.806992e-06	-1.207873e-09	-3.349858e+01	-7.785146e+01
6.000000e-07	-4.783864e-06	-1.179415e-09	-3.333741e+01	-7.764853e+01
6.100000e-07	-4.760503e-06	-1.141432e-09	-3.317462e+01	-7.744469e+01
6.200000e-07	-4.736917e-06	-1.174009e-09	-3.301025e+01	-7.723993e+01
6.300000e-07	-4.713086e-06	-1.178500e-09	-3.284418e+01	-7.703421e+01
6.400000e-07	-4.688958e-06	-1.136941e-09	-3.267603e+01	-7.682749e+01
6.500000e-07	-4.664488e-06	-1.156608e-09	-3.250551e+01	-7.661968e+01
6.600000e-07	-4.639625e-06	-1.163990e-09	-3.233225e+01	-7.641069e+01
6.700000e-07	-4.614233e-06	-1.132220e-09	-3.215530e+01	-7.620040e+01
6.800000e-07	-4.588209e-06	-1.130278e-09	-3.197394e+01	-7.598867e+01
6.900000e-07	-4.561609e-06	-1.147193e-09	-3.178857e+01	-7.577533e+01
7.000000e-07	-4.534665e-06	-1.125762e-09	-3.160081e+01	-7.556022e+01
7.100000e-07	-4.507427e-06	-1.120300e-09	-3.141100e+01	-7.534315e+01
7.200000e-07	-4.479861e-06	-1.129187e-09	-3.121890e+01	-7.512390e+01
7.300000e-07	-4.452085e-06	-1.112165e-09	-3.102533e+01	-7.490228e+01
7.400000e-07	-4.424179e-06	-1.096498e-09	-3.083086e+01	-7.467805e+01
7.500000e-07	-4.396082e-06	-1.104306e-09	-3.063507e+01	-7.445098e+01
7.600000e-07	-4.367611e-06	-1.103325e-09	-3.043666e+01	-7.422083e+01
7.700000e-07	-4.338857e-06	-1.092575e-09	-3.023628e+01	-7.398737e+01
7.800000e-07	-4.309810e-06	-1.094463e-09	-3.003386e+01	-7.375035e+01
7.900000e-07	-4.280407e-06	-1.087392e-09	-2.982895e+01	-7.350954e+01
8.000000e-07	-4.250766e-06	-1.072889e-09	-2.962240e+01	-7.326468e+01
8.100000e-07	-4.220835e-06	-1.066747e-09	-2.941382e+01	-7.301555e+01
8.200000e-07	-4.190578e-06	-1.065550e-09	-2.920297e+01	-7.276192e+01
8.300000e-07	-4.160025e-06	-1.050503e-09	-2.899005e+01	-7.250357e+01
8.400000e-07	-4.129193e-06	-1.049182e-09	-2.877519e+01	-7.224030e+01
8.500000e-07	-4.098112e-06	-1.053535e-09	-2.855860e+01	-7.197190e+01
8.600000e-07	-4.066754e-06	-1.048128e-09	-2.834007e+01	-7.169818e+01
8.700000e-07	-4.035171e-06	-1.038049e-09	-2.811998e+01	-7.141899e+01
8.800000e-07	-4.003417e-06	-1.042434e-09	-2.789869e+01	-7.113416e+01
8.900000e-07	-3.971507e-06	-1.032785e-09	-2.767632e+01	-7.084356e+01
9.000000e-07	-3.939436e-06	-1.019408e-09	-2.745282e+01	-7.054706e+01
9.100000e-07	-3.907074e-06	-1.016678e-09	-2.722730e+01	-7.024456e+01
9.200000e-07	-3.874305e-06	-1.014519e-09	-2.699895e+01	-6.993597e+01
9.300000e-07	-3.841071e-06	-9.998219e-10	-2.676735e+01	-6.962123e+01
9.400000e-07	-3.807395e-06	-9.968537e-10	-2.653267e+01	-6.930028e+01
9.500000e-07	-3.773378e-06	-9.978158e-10	-2.629561e+01	-6.897309e+01
9.600000e-07	-3.739041e-06	-9.880656e-10	-2.605633e+01	-6.863965e+01
9.700000e-07	-3.704195e-06	-9.759945e-10	-2.581350e+01	-6.829996e+01
9.800000e-07	-3.668944e-06	-9.763481e-10	-2.556784e+01	-6.795404e+01
9.900000e-07	-3.633472e-06	-9.700161e-10	-2.532065e+01	-6.760193e+01
1.000000e-06	-3.597821e-06	-9.611121e-10	-2.507221e+01	-6.724367e+01
1.010000e-06	-3.562049e-06	-9.629894e-10	-2.482292e+01	-6.687934e+01
1.020000e-06	-3.526194e-06	-9.624060e-10	-2.457306e+01	-6.650900e+01
1.030000e-06	-3.490164e-06	-9.505473e-10	-2.432198e+01	-6.613275e+01
1.040000e-06	-3.453868e-06	-9.446256e-10	-2.406904e+01	-6.575068e+01
1.050000e-06	-3.417324e-06	-9.420301e-10	-2.381438e+01	-6.536290e+01
1.060000e-06	-3.380501e-06	-9.308708e-10	-2.355776e+01	-6.496953e+01
1.070000e-06	-3.343375e-06	-9.232900e-10	-2.329905e+01	-6.457069e+01
1.080000e-06	-3.305929e-06	-9.224101e-10	-2.303809e+01	-6.416649e+01
1.090000e-06	-3.268268e-06	-9.191273e-10	-2.277564e+01	-6.375707e+01
1.100000e-06	-3.230374e-06	-9.090162e-10	-2.251157e+01	-6.334255e+01
1.110000e-06	-3.192284e-06	-9.050341e-10	-2.224613e+01	-6.292305e+01
1.120000e-06	-3.154087e-06	-8.977800e-10	-2.197995e+01	-6.249871e+01
1.130000e-06	-3.115688e-06	-8.863566e-10	-2.171235e+01	-6.206962e+01
1.140000e-06	-3.077010e-06	-8.786245e-10	-2.144282e+01	-6.163592e+01
1.150000e-06	-3.038122e-06	-8.775789e-10	-2.117182e+01	-6.119770e+01
1.160000e-06	-2.999036e-06	-8.717220e-10	-2.089944e+01	-6.075507e+01
1.170000e-06	-2.959785e-06	-8.646244e-10	-2.062591e+01	-6.030809e+01
1.180000e-06	-2.920409e-06	-8.575864e-10	-2.035151e+01	-5.985686e+01
1.190000e-06	-2.880838e-06	-8.505020e-10	-2.007575e+01	-5.940143e+01
1.200000e-06	-2.841074e-06	-8.419078e-10	-1.979865e+01	-5.894185e+01
1.210000e-06	-2.801170e-06	-8.360183e-10	-1.952057e+01	-5.847816e+01
1.220000e-06	-2.761163e-06	-8.292971e-10	-1.924177e+01	-5.801036e+01
1.230000e-06	-2.721031e-06	-8.209523e-10	-1.896210e+01	-5.753847e+01
1.240000e-06	-2.680806e-06	-8.117247e-10	-1.868179e+01	-5.706246e+01
1.250000e-06	-2.640399e-06	-8.039509e-10	-1.840020e+01	-5.658229e+01
1.260000e-06	-2.599664e-06	-7.950391e-10	-1.811633e+01	-5.609792e+01
1.270000e-06	-2.558622e-06	-7.883083e-10	-1.783032e+01	-5.560927e+01
1.280000e-06	-2.517276e-06	-7.841237e-10	-1.754219e+01	-5.511625e+01
1.290000e-06	-2.475718e-06	-7.808891e-10	-1.725259e+01	-5.461875e+01
1.300000e-06	-2.433924e-06	-7.722614e-10	-1.696133e+01	-5.411662e+01
1.310000e-06	-2.391749e-06	-7.595804e-10	-1.666743e+01	-5.360973e+01
1.320000e-06	-2.349330e-06	-7.487302e-10	-1.637182e+01	-5.309789e+01
1.330000e-06	-2.306676e-06	-7.388216e-10	-1.607458e+01	-5.258091e+01
1.340000e-06	-2.263728e-06	-7.299523e-10	-1.577529e+01	-5.205859e+01
1.350000e-06	-2.220577e-06	-7.241579e-10	-1.547458e+01	-5.153069e+01
1.360000e-06	-2.177223e-06	-7.205923e-10	-1.517246e+01	-5.099695e+01
1.370000e-06	-2.133722e-06	-7.144542e-10	-1.486931e+01	-5.045712e+01
1.380000e-06	-2.090127e-06	-7.064364e-10	-1.456551e+01	-4.991090e+01
1.390000e-06	-2.046357e-06	-6.950826e-10	-1.426049e+01	-4.935799e+01
1.400000e-06	-2.002542e-06	-6.832615e-10	-1.395515e+01	-4.879806e+01
1.410000e-06	-1.958749e-06	-6.710415e-10	-1.364998e+01	-4.823079e+01
1.420000e-06	-1.914845e-06	-6.617013e-10	-1.334402e+01	-4.765581e+01
1.430000e-06	-1.870886e-06	-6.523174e-10	-1.303768e+01	-4.707277e+01
1.440000e-06	-1.826903e-06	-6.422675e-10	-1.273117e+01	-4.648128e+01
1.450000e-06	-1.782803e-06	-6.319642e-10	-1.242386e+01	-4.588095e+01
1.460000e-06	-1.738543e-06	-6.216711e-10	-1.211542e+01	-4.527138e+01
1.470000e-06	-1.694127e-06	-6.094617e-10	-1.180590e+01	-4.465215e+01
1.480000e-06	-1.649639e-06	-5.982242e-10	-1.149587e+01	-4.402285e+01
1.490000e-06	-1.605047e-06	-5.884476e-10	-1.118512e+01	-4.338305e+01
1.500000e-06	-1.560235e-06	-5.791869e-10	-1.087284e+01	-4.273230e+01
1.510000e-06	-1.515242e-06	-5.675426e-10	-1.055929e+01	-4.207018e+01
1.520000e-06	-1.470154e-06	-5.543111e-10	-1.024509e+01	-4.139624e+01
1.530000e-06	-1.424994e-06	-5.413871e-10	-9.930385e+00	-4.071004e+01
1.540000e-06	-1.379729e-06	-5.318268e-10	-9.614941e+00	-4.001114e+01
1.550000e-06	-1.334378e-06	-5.213208e-10	-9.298910e+00	-3.929908e+01
1.560000e-06	-1.288954e-06	-5.082142e-10	-8.982361e+00	-3.857345e+01
1.570000e-06	-1.243463e-06	-4.957078e-10	-8.665348e+00	-3.783380e+01
1.580000e-06	-1.197894e-06	-4.827754e-10	-8.347790e+00	-3.707971e+01
1.590000e-06	-1.152162e-06	-4.697383e-10	-8.029093e+00	-3.631077e+01
1.600000e-06	-1.106339e-06	-4.596360e-10	-7.709766e+00	-3.552657e+01
1.610000e-06	-1.060443e-06	-4.493179e-10	-7.389931e+00	-3.472673e+01
1.620000e-06	-1.014505e-06	-4.356772e-10	-7.069803e+00	-3.391087e+01
1.630000e-06	-9.685704e-07	-4.229489e-10	-6.749696e+00	-3.307863e+01
1.640000e-06	-9.225403e-07	-4.110337e-10	-6.428925e+00	-3.222968e+01
1.650000e-06	-8.764239e-07	-3.982956e-10	-6.107553e+00	-3.136370e+01
1.660000e-06	-8.303124e-07	-3.851428e-10	-5.786215e+00	-3.048041e+01
1.670000e-06	-7.841698e-07	-3.733114e-10	-5.464660e+00	-2.957954e+01
1.680000e-06	-7.379745e-07	-3.614315e-10	-5.142738e+00	-2.866085e+01
1.690000e-06	-6.916837e-07	-3.490320e-10	-4.820150e+00	-2.772415e+01
1.700000e-06	-6.453356e-07	-3.350262e-10	-4.497163e+00	-2.676926e+01
1.710000e-06	-5.989684e-07	-3.186543e-10	-4.174043e+00	-2.579604e+01
1.720000e-06	-5.525252e-07	-3.008059e-10	-3.850393e+00	-2.480440e+01
1.730000e-06	-5.059779e-07	-2.847418e-10	-3.526018e+00	-2.379428e+01
1.740000e-06	-4.593619e-07	-2.692462e-10	-3.201164e+00	-2.276565e+01
1.750000e-06	-4.127502e-07	-2.554527e-10	-2.876340e+00	-2.171854e+01
1.760000e-06	-3.660906e-07	-2.418233e-10	-2.551183e+00	-2.065301e+01
1.770000e-06	-3.194964e-07	-2.281580e-10	-2.226481e+00	-1.956919e+01
1.780000e-06	-2.728815e-07	-2.131881e-10	-1.901635e+00	-1.846722e+01
1.790000e-06	-2.261644e-07	-1.982535e-10	-1.576076e+00	-1.734732e+01
1.800000e-06	-1.793993e-07	-1.829056e-10	-1.250183e+00	-1.620974e+01
1.810000e-06	-1.326164e-07	-1.663341e-10	-9.241667e-01	-1.505479e+01
1.820000e-06	-8.587812e-08	-1.492520e-10	-5.984605e-01	-1.388282e+01
1.830000e-06	-3.913906e-08	-1.314632e-10	-2.727491e-01	-1.269424e+01
1.840000e-06	7.535540e-09	-1.138725e-10	5.251307e-02	-1.148951e+01
1.850000e-06	5.423342e-08	-9.757105e-11	3.779375e-01	-1.026913e+01
1.860000e-06	1.009578e-07	-7.908152e-11	7.035468e-01	-9.033666e+00
1.870000e-06	1.475589e-07	-5.973121e-11	1.028296e+00	-7.783721e+00
1.880000e-06	1.942207e-07	-4.246894e-11	1.353469e+00	-6.519951e+00
1.890000e-06	2.409713e-07	-2.540495e-11	1.679261e+00	-5.243061e+00
1.900000e-06	2.876007e-07	-8.651500e-12	2.004209e+00	-3.953798e+00
1.910000e-06	3.341713e-07	9.303494e-12	2.328746e+00	-2.652956e+00
1.920000e-06	3.807343e-07	2.867391e-11	2.653230e+00	-1.341371e+00
1.930000e-06	4.271947e-07	4.903337e-11	2.977000e+00	-1.991805e-02
1.940000e-06	4.736263e-07	6.903952e-11	3.300569e+00	1.310489e+00
1.950000e-06	5.200425e-07	8.871330e-11	3.624031e+00	2.648901e+00
1.960000e-06	5.664318e-07	1.068282e-10	3.947304e+00	3.994339e+00
1.970000e-06	6.128248e-07	1.251162e-10	4.270605e+00	5.345792e+00
1.980000e-06	6.591030e-07	1.426482e-10	4.593104e+00	6.702225e+00
1.990000e-06	7.053484e-07	1.581379e-10	4.915376e+00	8.062582e+00
2.000000e-06	7.515467e-07	1.759175e-10	5.237319e+00	9.425786e+00
2.010000e-06	7.976963e-07	1.958145e-10	5.558922e+00	1.079075e+01
2.020000e-06	8.438462e-07	2.174185e-10	5.880528e+00	1.215636e+01
2.030000e-06	8.899062e-07	2.405034e-10	6.201507e+00	1.352153e+01
2.040000e-06	9.359343e-07	2.621683e-10	6.522264e+00	1.488512e+01
2.050000e-06	9.819643e-07	2.842391e-10	6.843034e+00	1.624605e+01
2.060000e-06	1.027928e-06	3.039430e-10	7.163339e+00	1.760320e+01
2.070000e-06	1.073739e-06	3.205779e-10	7.482584e+00	1.895547e+01
2.080000e-06	1.119451e-06	3.360598e-10	7.801138e+00	2.030179e+01
2.090000e-06	1.165112e-06	3.555686e-10	8.119342e+00	2.164110e+01
2.100000e-06	1.210669e-06	3.761936e-10	8.436810e+00	2.297234e+01
2.110000e-06	1.256136e-06	3.959911e-10	8.753657e+00	2.429451e+01
2.120000e-06	1.301507e-06	4.156966e-10	9.069839e+00	2.560662e+01
2.130000e-06	1.346771e-06	4.340938e-10	9.385273e+00	2.690771e+01
2.140000e-06	1.391972e-06	4.504949e-10	9.700266e+00	2.819686e+01
2.150000e-06	1.437143e-06	4.650331e-10	1.001505e+01	2.947320e+01
2.160000e-06	1.482204e-06	4.819431e-10	1.032907e+01	3.073587e+01
2.170000e-06	1.527102e-06	5.002177e-10	1.064195e+01	3.198410e+01
2.180000e-06	1.571825e-06	5.189423e-10	1.095361e+01	3.321713e+01
2.190000e-06	1.616421e-06	5.387008e-10	1.126439e+01	3.443426e+01
2.200000e-06	1.660908e-06	5.565340e-10	1.157440e+01	3.563485e+01
2.210000e-06	1.705284e-06	5.717863e-10	1.188365e+01	3.681829e+01
2.220000e-06	1.749595e-06	5.847731e-10	1.219244e+01	3.798404e+01
2.230000e-06	1.793757e-06	5.975986e-10	1.250019e+01	3.913162e+01
2.240000e-06	1.837814e-06	6.133302e-10	1.280721e+01	4.026059e+01
2.250000e-06	1.881811e-06	6.319762e-10	1.311382e+01	4.137056e+01
2.260000e-06	1.925725e-06	6.498332e-10	1.341984e+01	4.246121e+01
2.270000e-06	1.969559e-06	6.643881e-10	1.372531e+01	4.353227e+01
2.280000e-06	2.013317e-06	6.766863e-10	1.403024e+01	4.458351e+01
2.290000e-06	2.057007e-06	6.887043e-10	1.433471e+01	4.561477e+01
2.300000e-06	2.100600e-06	7.000852e-10	1.463850e+01	4.662594e+01
2.310000e-06	2.144053e-06	7.113363e-10	1.494130e+01	4.761693e+01
2.320000e-06	2.187443e-06	7.264971e-10	1.524368e+01	4.858774e+01
2.330000e-06	2.230749e-06	7.421809e-10	1.554547e+01	4.953838e+01
2.340000e-06	2.273851e-06	7.572753e-10	1.584583e+01	5.046892e+01
2.350000e-06	2.316695e-06	7.689728e-10	1.614440e+01	5.137947e+01
2.360000e-06	2.359263e-06	7.812347e-10	1.644104e+01	5.227018e+01
2.370000e-06	2.401567e-06	7.916119e-10	1.673584e+01	5.314122e+01
2.380000e-06	2.443622e-06	8.021564e-10	1.702892e+01	5.399281e+01
2.390000e-06	2.485480e-06	8.145773e-10	1.732061e+01	5.482520e+01
2.400000e-06	2.527013e-06	8.238062e-10	1.761005e+01	5.563864e+01
2.410000e-06	2.568227e-06	8.310137e-10	1.789726e+01	5.643344e+01
2.420000e-06	2.609123e-06	8.395532e-10	1.818224e+01	5.720990e+01
2.430000e-06	2.649727e-06	8.503206e-10	1.846521e+01	5.796835e+01
2.440000e-06	2.690183e-06	8.621791e-10	1.874713e+01	5.870914e+01
2.450000e-06	2.730430e-06	8.737012e-10	1.902760e+01	5.943262e+01
2.460000e-06	2.770462e-06	8.841270e-10	1.930657e+01	6.013917e+01
2.470000e-06	2.810382e-06	8.930426e-10	1.958476e+01	6.082914e+01
2.480000e-06	2.850169e-06	8.996684e-10	1.986203e+01	6.150291e+01
2.490000e-06	2.889765e-06	9.046145e-10	2.013796e+01	6.216086e+01
2.500000e-06	2.929289e-06	9.095729e-10	2.041340e+01	6.280337e+01
2.510000e-06	2.968722e-06	9.180413e-10	2.068819e+01	6.343080e+01
2.520000e-06	3.007926e-06	9.291111e-10	2.096139e+01	6.404351e+01
2.530000e-06	3.046904e-06	9.422328e-10	2.123302e+01	6.464188e+01
2.540000e-06	3.085629e-06	9.542904e-10	2.150288e+01	6.522626e+01
2.550000e-06	3.124104e-06	9.636860e-10	2.177101e+01	6.579698e+01
2.560000e-06	3.162386e-06	9.673334e-10	2.203778e+01	6.635437e+01
2.570000e-06	3.200451e-06	9.696789e-10	2.230305e+01	6.689877e+01
2.580000e-06	3.238269e-06	9.745489e-10	2.256659e+01	6.743048e+01
2.590000e-06	3.275870e-06	9.829130e-10	2.282862e+01	6.794981e+01
2.600000e-06	3.313276e-06	9.912755e-10	2.308930e+01	6.845703e+01
2.610000e-06	3.350455e-06	1.001408e-09	2.334838e+01	6.895242e+01
2.620000e-06	3.387445e-06	1.014002e-09	2.360615e+01	6.943625e+01
2.630000e-06	3.424174e-06	1.023833e-09	2.386211e+01	6.990877e+01
2.640000e-06	3.460580e-06	1.030475e-09	2.411581e+01	7.037021e+01
2.650000e-06	3.496758e-06	1.035969e-09	2.436793e+01	7.082082e+01
2.660000e-06	3.532779e-06	1.041035e-09	2.461895e+01	7.126080e+01
2.670000e-06	3.568615e-06	1.047261e-09	2.486868e+01	7.169038e+01
2.680000e-06	3.604284e-06	1.053797e-09	2.511725e+01	7.210975e+01
2.690000e-06	3.639905e-06	1.058227e-09	2.536548e+01	7.251911e+01
2.700000e-06	3.675348e-06	1.062912e-09	2.561247e+01	7.291866e+01
2.710000e-06	3.710412e-06	1.070193e-09	2.585683e+01	7.330858e+01
2.720000e-06	3.745173e-06	1.077317e-09	2.609906e+01	7.368905e+01
2.730000e-06	3.779594e-06	1.082273e-09	2.633893e+01	7.406025e+01
2.740000e-06	3.813672e-06	1.088509e-09	2.657641e+01	7.442237e+01
2.750000e-06	3.847326e-06	1.093428e-09	2.681094e+01	7.477557e+01
2.760000e-06	3.880476e-06	1.097861e-09	2.704195e+01	7.512003e+01
2.770000e-06	3.913179e-06	1.103359e-09	2.726985e+01	7.545593e+01
2.780000e-06	3.945448e-06	1.110120e-09	2.749473e+01	7.578344e+01
2.790000e-06	3.977434e-06	1.115599e-09	2.771763e+01	7.610275e+01
2.800000e-06	4.009242e-06	1.120831e-09	2.793929e+01	7.641404e+01
2.810000e-06	4.040927e-06	1.126566e-09	2.816009e+01	7.671748e+01
2.820000e-06	4.072459e-06	1.131754e-09	2.837983e+01	7.701327e+01
2.830000e-06	4.103749e-06	1.136904e-09	2.859788e+01	7.730160e+01
2.840000e-06	4.134684e-06	1.141552e-09	2.881345e+01	7.758264e+01
2.850000e-06	4.165367e-06	1.145277e-09	2.902728e+01	7.785661e+01
2.860000e-06	4.195848e-06	1.148944e-09	2.923969e+01	7.812368e+01
2.870000e-06	4.225983e-06	1.152573e-09	2.944969e+01	7.838406e+01
2.880000e-06	4.255820e-06	1.155695e-09	2.965761e+01	7.863795e+01
2.890000e-06	4.285400e-06	1.157993e-09	2.986375e+01	7.888553e+01
2.900000e-06	4.314726e-06	1.160633e-09	3.006812e+01	7.912700e+01
2.910000e-06	4.343754e-06	1.163224e-09	3.027041e+01	7.936256e+01
