# Temperatura_=_-0.35
# Concentracion g/m^3_=_1620.0
# C_Vs_to_Am_M_A/Vsm_=_65563218390.804596
# pendiente_HvsI_1/m_=_3716.3
# ordenada_HvsI_A/m_=_1297.0
# frecuencia_Hz_=_135103.79821248737

Tiempo_(s)	Campo_(V.s)	Magnetizacion_(V.s)	Campo_(kA/m)	Magnetizacion_(A/m)
0.000000e+00	-5.510324e-06	-1.475210e-09	-3.836599e+01	-9.785115e+01
1.000000e-08	-5.510457e-06	-1.469665e-09	-3.836691e+01	-9.782490e+01
2.000000e-08	-5.510198e-06	-1.465796e-09	-3.836511e+01	-9.779813e+01
3.000000e-08	-5.509466e-06	-1.464865e-09	-3.836001e+01	-9.777089e+01
4.000000e-08	-5.508211e-06	-1.465730e-09	-3.835127e+01	-9.774320e+01
5.000000e-08	-5.506386e-06	-1.466885e-09	-3.833856e+01	-9.771506e+01
6.000000e-08	-5.503968e-06	-1.469662e-09	-3.832173e+01	-9.768645e+01
7.000000e-08	-5.501094e-06	-1.492369e-09	-3.830172e+01	-9.765732e+01
8.000000e-08	-5.497780e-06	-1.498159e-09	-3.827864e+01	-9.762760e+01
9.000000e-08	-5.493971e-06	-1.450889e-09	-3.825212e+01	-9.759720e+01
1.000000e-07	-5.489703e-06	-1.422899e-09	-3.822241e+01	-9.756599e+01
1.100000e-07	-5.485154e-06	-1.470681e-09	-3.819074e+01	-9.753384e+01
1.200000e-07	-5.480434e-06	-1.507767e-09	-3.815788e+01	-9.750057e+01
1.300000e-07	-5.475431e-06	-1.485517e-09	-3.812304e+01	-9.746601e+01
1.400000e-07	-5.470019e-06	-1.418757e-09	-3.808536e+01	-9.742994e+01
1.500000e-07	-5.464293e-06	-1.467476e-09	-3.804549e+01	-9.739216e+01
1.600000e-07	-5.458245e-06	-1.497949e-09	-3.800338e+01	-9.735241e+01
1.700000e-07	-5.451788e-06	-1.486479e-09	-3.795842e+01	-9.731044e+01
1.800000e-07	-5.444982e-06	-1.422068e-09	-3.791103e+01	-9.726599e+01
1.900000e-07	-5.437810e-06	-1.449024e-09	-3.786110e+01	-9.721877e+01
2.000000e-07	-5.430278e-06	-1.488808e-09	-3.780866e+01	-9.716852e+01
2.100000e-07	-5.422477e-06	-1.503076e-09	-3.775434e+01	-9.711492e+01
2.200000e-07	-5.414365e-06	-1.479088e-09	-3.769786e+01	-9.705769e+01
2.300000e-07	-5.405860e-06	-1.480323e-09	-3.763865e+01	-9.699652e+01
2.400000e-07	-5.396793e-06	-1.505043e-09	-3.757552e+01	-9.693113e+01
2.500000e-07	-5.387063e-06	-1.501375e-09	-3.750777e+01	-9.686121e+01
2.600000e-07	-5.376744e-06	-1.482542e-09	-3.743592e+01	-9.678647e+01
2.700000e-07	-5.365953e-06	-1.451929e-09	-3.736079e+01	-9.670664e+01
2.800000e-07	-5.354728e-06	-1.462815e-09	-3.728263e+01	-9.662143e+01
2.900000e-07	-5.343065e-06	-1.448825e-09	-3.720143e+01	-9.653059e+01
3.000000e-07	-5.331008e-06	-1.450027e-09	-3.711749e+01	-9.643387e+01
3.100000e-07	-5.318552e-06	-1.441021e-09	-3.703076e+01	-9.633102e+01
3.200000e-07	-5.305667e-06	-1.484731e-09	-3.694104e+01	-9.622185e+01
3.300000e-07	-5.292385e-06	-1.470938e-09	-3.684857e+01	-9.610613e+01
3.400000e-07	-5.278742e-06	-1.444526e-09	-3.675358e+01	-9.598371e+01
3.500000e-07	-5.264590e-06	-1.417950e-09	-3.665504e+01	-9.585441e+01
3.600000e-07	-5.249994e-06	-1.440293e-09	-3.655342e+01	-9.571810e+01
3.700000e-07	-5.234931e-06	-1.413198e-09	-3.644854e+01	-9.557467e+01
3.800000e-07	-5.219342e-06	-1.415550e-09	-3.634000e+01	-9.542402e+01
3.900000e-07	-5.203337e-06	-1.440687e-09	-3.622857e+01	-9.526609e+01
4.000000e-07	-5.186952e-06	-1.438953e-09	-3.611448e+01	-9.510083e+01
4.100000e-07	-5.170248e-06	-1.395906e-09	-3.599818e+01	-9.492823e+01
4.200000e-07	-5.153205e-06	-1.421842e-09	-3.587952e+01	-9.474828e+01
4.300000e-07	-5.135820e-06	-1.440599e-09	-3.575847e+01	-9.456101e+01
4.400000e-07	-5.118115e-06	-1.395351e-09	-3.563520e+01	-9.436648e+01
4.500000e-07	-5.099934e-06	-1.385381e-09	-3.550862e+01	-9.416475e+01
4.600000e-07	-5.081259e-06	-1.430500e-09	-3.537859e+01	-9.395591e+01
4.700000e-07	-5.062284e-06	-1.408766e-09	-3.524648e+01	-9.374007e+01
4.800000e-07	-5.043074e-06	-1.375088e-09	-3.511273e+01	-9.351737e+01
4.900000e-07	-5.023609e-06	-1.412579e-09	-3.497720e+01	-9.328794e+01
5.000000e-07	-5.003897e-06	-1.407254e-09	-3.483996e+01	-9.305195e+01
5.100000e-07	-4.983924e-06	-1.357820e-09	-3.470089e+01	-9.280956e+01
5.200000e-07	-4.963647e-06	-1.378433e-09	-3.455971e+01	-9.256097e+01
5.300000e-07	-4.942909e-06	-1.411061e-09	-3.441532e+01	-9.230637e+01
5.400000e-07	-4.921781e-06	-1.364055e-09	-3.426822e+01	-9.204596e+01
5.500000e-07	-4.900327e-06	-1.362046e-09	-3.411884e+01	-9.177994e+01
5.600000e-07	-4.878485e-06	-1.396750e-09	-3.396676e+01	-9.150854e+01
5.700000e-07	-4.856383e-06	-1.373121e-09	-3.381288e+01	-9.123196e+01
5.800000e-07	-4.834049e-06	-1.338987e-09	-3.365738e+01	-9.095041e+01
5.900000e-07	-4.811349e-06	-1.370837e-09	-3.349932e+01	-9.066410e+01
6.000000e-07	-4.788278e-06	-1.364921e-09	-3.333869e+01	-9.037325e+01
6.100000e-07	-4.764982e-06	-1.337890e-09	-3.317649e+01	-9.007805e+01
6.200000e-07	-4.741480e-06	-1.347190e-09	-3.301286e+01	-8.977869e+01
6.300000e-07	-4.717733e-06	-1.360056e-09	-3.284752e+01	-8.947535e+01
6.400000e-07	-4.693618e-06	-1.332511e-09	-3.267961e+01	-8.916821e+01
6.500000e-07	-4.669008e-06	-1.335187e-09	-3.250827e+01	-8.885742e+01
6.600000e-07	-4.643931e-06	-1.337963e-09	-3.233367e+01	-8.854313e+01
6.700000e-07	-4.618381e-06	-1.319024e-09	-3.215577e+01	-8.822547e+01
6.800000e-07	-4.592321e-06	-1.306817e-09	-3.197433e+01	-8.790455e+01
6.900000e-07	-4.565778e-06	-1.317708e-09	-3.178952e+01	-8.758046e+01
7.000000e-07	-4.538825e-06	-1.303337e-09	-3.160186e+01	-8.725329e+01
7.100000e-07	-4.511582e-06	-1.290835e-09	-3.141218e+01	-8.692310e+01
7.200000e-07	-4.484139e-06	-1.293371e-09	-3.122110e+01	-8.658992e+01
7.300000e-07	-4.456515e-06	-1.291435e-09	-3.102877e+01	-8.625379e+01
7.400000e-07	-4.428648e-06	-1.280380e-09	-3.083475e+01	-8.591471e+01
7.500000e-07	-4.400461e-06	-1.280083e-09	-3.063849e+01	-8.557266e+01
7.600000e-07	-4.371982e-06	-1.275630e-09	-3.044020e+01	-8.522762e+01
7.700000e-07	-4.343286e-06	-1.261525e-09	-3.024041e+01	-8.487954e+01
7.800000e-07	-4.314358e-06	-1.254905e-09	-3.003899e+01	-8.452835e+01
7.900000e-07	-4.285061e-06	-1.250405e-09	-2.983501e+01	-8.417397e+01
8.000000e-07	-4.255392e-06	-1.237711e-09	-2.962844e+01	-8.381632e+01
8.100000e-07	-4.225420e-06	-1.227635e-09	-2.941976e+01	-8.345528e+01
8.200000e-07	-4.195146e-06	-1.228667e-09	-2.920897e+01	-8.309074e+01
8.300000e-07	-4.164596e-06	-1.219970e-09	-2.899626e+01	-8.272256e+01
8.400000e-07	-4.133769e-06	-1.212203e-09	-2.878163e+01	-8.235060e+01
8.500000e-07	-4.102684e-06	-1.210829e-09	-2.856520e+01	-8.197472e+01
8.600000e-07	-4.071378e-06	-1.207571e-09	-2.834723e+01	-8.159477e+01
8.700000e-07	-4.039904e-06	-1.194605e-09	-2.812809e+01	-8.121058e+01
8.800000e-07	-4.008274e-06	-1.192909e-09	-2.790786e+01	-8.082200e+01
8.900000e-07	-3.976472e-06	-1.184776e-09	-2.768644e+01	-8.042887e+01
9.000000e-07	-3.944338e-06	-1.167889e-09	-2.746271e+01	-8.003102e+01
9.100000e-07	-3.911826e-06	-1.154014e-09	-2.723634e+01	-7.962829e+01
9.200000e-07	-3.879034e-06	-1.151579e-09	-2.700803e+01	-7.922054e+01
9.300000e-07	-3.845831e-06	-1.141861e-09	-2.677684e+01	-7.880761e+01
9.400000e-07	-3.812053e-06	-1.137531e-09	-2.654166e+01	-7.838937e+01
9.500000e-07	-3.777810e-06	-1.139959e-09	-2.630324e+01	-7.796566e+01
9.600000e-07	-3.743249e-06	-1.135528e-09	-2.606261e+01	-7.753639e+01
9.700000e-07	-3.708340e-06	-1.118443e-09	-2.581955e+01	-7.710143e+01
9.800000e-07	-3.673130e-06	-1.111140e-09	-2.557440e+01	-7.666067e+01
9.900000e-07	-3.637720e-06	-1.104990e-09	-2.532786e+01	-7.621405e+01
1.000000e-06	-3.602204e-06	-1.094638e-09	-2.508057e+01	-7.576147e+01
1.010000e-06	-3.566579e-06	-1.089563e-09	-2.483253e+01	-7.530290e+01
1.020000e-06	-3.530752e-06	-1.091866e-09	-2.458308e+01	-7.483827e+01
1.030000e-06	-3.494696e-06	-1.085553e-09	-2.433204e+01	-7.436757e+01
1.040000e-06	-3.458398e-06	-1.077198e-09	-2.407932e+01	-7.389078e+01
1.050000e-06	-3.421799e-06	-1.072283e-09	-2.382449e+01	-7.340790e+01
1.060000e-06	-3.384985e-06	-1.061599e-09	-2.356818e+01	-7.291897e+01
1.070000e-06	-3.347976e-06	-1.048347e-09	-2.331050e+01	-7.242401e+01
1.080000e-06	-3.310673e-06	-1.039713e-09	-2.305077e+01	-7.192308e+01
1.090000e-06	-3.273098e-06	-1.032948e-09	-2.278915e+01	-7.141623e+01
1.100000e-06	-3.235262e-06	-1.023116e-09	-2.252572e+01	-7.090355e+01
1.110000e-06	-3.197159e-06	-1.015632e-09	-2.226043e+01	-7.038513e+01
1.120000e-06	-3.158918e-06	-1.010484e-09	-2.199417e+01	-6.986108e+01
1.130000e-06	-3.120562e-06	-1.002986e-09	-2.172711e+01	-6.933149e+01
1.140000e-06	-3.082014e-06	-9.927181e-10	-2.145872e+01	-6.879650e+01
1.150000e-06	-3.043205e-06	-9.869350e-10	-2.118851e+01	-6.825623e+01
1.160000e-06	-3.004160e-06	-9.787886e-10	-2.091666e+01	-6.771081e+01
1.170000e-06	-2.964959e-06	-9.694989e-10	-2.064371e+01	-6.716038e+01
1.180000e-06	-2.925617e-06	-9.615758e-10	-2.036980e+01	-6.660508e+01
1.190000e-06	-2.886155e-06	-9.553769e-10	-2.009504e+01	-6.604504e+01
1.200000e-06	-2.846549e-06	-9.444067e-10	-1.981928e+01	-6.548041e+01
1.210000e-06	-2.806812e-06	-9.356088e-10	-1.954261e+01	-6.491130e+01
1.220000e-06	-2.766896e-06	-9.265630e-10	-1.926469e+01	-6.433785e+01
1.230000e-06	-2.726713e-06	-9.152871e-10	-1.898491e+01	-6.376017e+01
1.240000e-06	-2.686300e-06	-9.030564e-10	-1.870354e+01	-6.317836e+01
1.250000e-06	-2.645706e-06	-8.961942e-10	-1.842090e+01	-6.259252e+01
1.260000e-06	-2.604950e-06	-8.898983e-10	-1.813713e+01	-6.200271e+01
1.270000e-06	-2.563954e-06	-8.822595e-10	-1.785170e+01	-6.140901e+01
1.280000e-06	-2.522545e-06	-8.757146e-10	-1.756338e+01	-6.081145e+01
1.290000e-06	-2.480839e-06	-8.684520e-10	-1.727300e+01	-6.021004e+01
1.300000e-06	-2.439012e-06	-8.546172e-10	-1.698178e+01	-5.960479e+01
1.310000e-06	-2.396846e-06	-8.412575e-10	-1.668819e+01	-5.899566e+01
1.320000e-06	-2.354263e-06	-8.297332e-10	-1.639171e+01	-5.838260e+01
1.330000e-06	-2.311412e-06	-8.193775e-10	-1.609335e+01	-5.776552e+01
1.340000e-06	-2.268441e-06	-8.117890e-10	-1.579416e+01	-5.714432e+01
1.350000e-06	-2.225341e-06	-8.062621e-10	-1.549408e+01	-5.651885e+01
1.360000e-06	-2.182030e-06	-7.983693e-10	-1.519252e+01	-5.588894e+01
1.370000e-06	-2.138560e-06	-7.859616e-10	-1.488986e+01	-5.525439e+01
1.380000e-06	-2.095033e-06	-7.701462e-10	-1.458680e+01	-5.461496e+01
1.390000e-06	-2.051531e-06	-7.518555e-10	-1.428391e+01	-5.397038e+01
1.400000e-06	-2.007912e-06	-7.360605e-10	-1.398021e+01	-5.332035e+01
1.410000e-06	-1.964112e-06	-7.242343e-10	-1.367525e+01	-5.266454e+01
1.420000e-06	-1.920259e-06	-7.165428e-10	-1.336992e+01	-5.200258e+01
1.430000e-06	-1.876376e-06	-7.097725e-10	-1.306439e+01	-5.133408e+01
1.440000e-06	-1.832349e-06	-7.020952e-10	-1.275784e+01	-5.065861e+01
1.450000e-06	-1.788162e-06	-6.917956e-10	-1.245019e+01	-4.997572e+01
1.460000e-06	-1.743895e-06	-6.795019e-10	-1.214198e+01	-4.928492e+01
1.470000e-06	-1.699469e-06	-6.654886e-10	-1.183266e+01	-4.858570e+01
1.480000e-06	-1.654955e-06	-6.531370e-10	-1.152273e+01	-4.787753e+01
1.490000e-06	-1.610357e-06	-6.424701e-10	-1.121221e+01	-4.715985e+01
1.500000e-06	-1.565539e-06	-6.323183e-10	-1.090016e+01	-4.643208e+01
1.510000e-06	-1.520548e-06	-6.214572e-10	-1.058691e+01	-4.569364e+01
1.520000e-06	-1.475431e-06	-6.104708e-10	-1.027278e+01	-4.494390e+01
1.530000e-06	-1.430243e-06	-5.991004e-10	-9.958161e+00	-4.418225e+01
1.540000e-06	-1.384994e-06	-5.905397e-10	-9.643112e+00	-4.340806e+01
1.550000e-06	-1.339602e-06	-5.801847e-10	-9.327062e+00	-4.262068e+01
1.560000e-06	-1.294120e-06	-5.674604e-10	-9.010396e+00	-4.181949e+01
1.570000e-06	-1.248592e-06	-5.534616e-10	-8.693399e+00	-4.100383e+01
1.580000e-06	-1.202993e-06	-5.373771e-10	-8.375915e+00	-4.017309e+01
1.590000e-06	-1.157313e-06	-5.207178e-10	-8.057866e+00	-3.932662e+01
1.600000e-06	-1.111600e-06	-5.070791e-10	-7.739585e+00	-3.846383e+01
1.610000e-06	-1.065829e-06	-4.943365e-10	-7.420905e+00	-3.758411e+01
1.620000e-06	-1.019867e-06	-4.808365e-10	-7.100891e+00	-3.668688e+01
1.630000e-06	-9.737726e-07	-4.680334e-10	-6.779954e+00	-3.577159e+01
1.640000e-06	-9.276702e-07	-4.563499e-10	-6.458963e+00	-3.483772e+01
1.650000e-06	-8.815584e-07	-4.437626e-10	-6.137907e+00	-3.388476e+01
1.660000e-06	-8.353203e-07	-4.286143e-10	-5.815971e+00	-3.291226e+01
1.670000e-06	-7.890078e-07	-4.122422e-10	-5.493517e+00	-3.191981e+01
1.680000e-06	-7.427185e-07	-3.960502e-10	-5.171225e+00	-3.090702e+01
1.690000e-06	-6.964231e-07	-3.803842e-10	-4.848890e+00	-2.987355e+01
1.700000e-06	-6.500590e-07	-3.628202e-10	-4.526078e+00	-2.881913e+01
1.710000e-06	-6.036679e-07	-3.436976e-10	-4.203077e+00	-2.774353e+01
1.720000e-06	-5.572056e-07	-3.243034e-10	-3.879579e+00	-2.664657e+01
1.730000e-06	-5.106113e-07	-3.061584e-10	-3.555164e+00	-2.552814e+01
1.740000e-06	-4.639686e-07	-2.898970e-10	-3.230411e+00	-2.438817e+01
1.750000e-06	-4.172561e-07	-2.746644e-10	-2.905172e+00	-2.322668e+01
1.760000e-06	-3.705193e-07	-2.596903e-10	-2.579764e+00	-2.204374e+01
1.770000e-06	-3.238531e-07	-2.440405e-10	-2.254848e+00	-2.083948e+01
1.780000e-06	-2.772050e-07	-2.280078e-10	-1.930058e+00	-1.961411e+01
1.790000e-06	-2.304834e-07	-2.119710e-10	-1.604755e+00	-1.836790e+01
1.800000e-06	-1.836120e-07	-1.945113e-10	-1.278410e+00	-1.710120e+01
1.810000e-06	-1.367217e-07	-1.774509e-10	-9.519334e-01	-1.581442e+01
1.820000e-06	-8.995755e-08	-1.592851e-10	-6.263352e-01	-1.450805e+01
1.830000e-06	-4.320247e-08	-1.401126e-10	-3.008000e-01	-1.318262e+01
1.840000e-06	3.535805e-09	-1.212627e-10	2.461827e-02	-1.183877e+01
1.850000e-06	5.025559e-08	-1.037581e-10	3.499078e-01	-1.047718e+01
1.860000e-06	9.697021e-08	-8.514541e-11	6.751613e-01	-9.098611e+00
1.870000e-06	1.436028e-07	-6.491343e-11	9.998438e-01	-7.703871e+00
1.880000e-06	1.902791e-07	-4.354508e-11	1.324831e+00	-6.293842e+00
1.890000e-06	2.370455e-07	-2.216969e-11	1.650444e+00	-4.869464e+00
1.900000e-06	2.837879e-07	-3.420733e-12	1.975891e+00	-3.431730e+00
1.910000e-06	3.304657e-07	1.457138e-11	2.300888e+00	-1.981691e+00
1.920000e-06	3.770750e-07	3.574919e-11	2.625409e+00	-5.204419e-01
1.930000e-06	4.236948e-07	5.815290e-11	2.950002e+00	9.508721e-01
1.940000e-06	4.702648e-07	7.894710e-11	3.274249e+00	2.431066e+00
1.950000e-06	5.167180e-07	9.915990e-11	3.597682e+00	3.918917e+00
1.960000e-06	5.631329e-07	1.181953e-10	3.920849e+00	5.413169e+00
1.970000e-06	6.095331e-07	1.361171e-10	4.243913e+00	6.912538e+00
1.980000e-06	6.558513e-07	1.543160e-10	4.566407e+00	8.415717e+00
1.990000e-06	7.021289e-07	1.730519e-10	4.888617e+00	9.921381e+00
2.000000e-06	7.483932e-07	1.935860e-10	5.210736e+00	1.142819e+01
2.010000e-06	7.946290e-07	2.154887e-10	5.532655e+00	1.293480e+01
2.020000e-06	8.408714e-07	2.388695e-10	5.854621e+00	1.443987e+01
2.030000e-06	8.870687e-07	2.634326e-10	6.176272e+00	1.594204e+01
2.040000e-06	9.331659e-07	2.855986e-10	6.497227e+00	1.743998e+01
2.050000e-06	9.791478e-07	3.053334e-10	6.817379e+00	1.893236e+01
2.060000e-06	1.024990e-06	3.231950e-10	7.136558e+00	2.041790e+01
2.070000e-06	1.070783e-06	3.413554e-10	7.455392e+00	2.189529e+01
2.080000e-06	1.116530e-06	3.611593e-10	7.773915e+00	2.336330e+01
2.090000e-06	1.162137e-06	3.838589e-10	8.091454e+00	2.482071e+01
2.100000e-06	1.207712e-06	4.070892e-10	8.408771e+00	2.626634e+01
2.110000e-06	1.253244e-06	4.298945e-10	8.725790e+00	2.769905e+01
2.120000e-06	1.298651e-06	4.514846e-10	9.041938e+00	2.911776e+01
2.130000e-06	1.343964e-06	4.701876e-10	9.357434e+00	3.052143e+01
2.140000e-06	1.389188e-06	4.860198e-10	9.672312e+00	3.190909e+01
2.150000e-06	1.434312e-06	5.007552e-10	9.986492e+00	3.327980e+01
2.160000e-06	1.479326e-06	5.160807e-10	1.029990e+01	3.463271e+01
2.170000e-06	1.524195e-06	5.333310e-10	1.061231e+01	3.596702e+01
2.180000e-06	1.568967e-06	5.520609e-10	1.092403e+01	3.728200e+01
2.190000e-06	1.613684e-06	5.728763e-10	1.123538e+01	3.857698e+01
2.200000e-06	1.658258e-06	5.938471e-10	1.154573e+01	3.985137e+01
2.210000e-06	1.702666e-06	6.114980e-10	1.185492e+01	4.110464e+01
2.220000e-06	1.746970e-06	6.247978e-10	1.216339e+01	4.233635e+01
2.230000e-06	1.791172e-06	6.366206e-10	1.247115e+01	4.354610e+01
2.240000e-06	1.835245e-06	6.506045e-10	1.277801e+01	4.473359e+01
2.250000e-06	1.879191e-06	6.675844e-10	1.308399e+01	4.589858e+01
2.260000e-06	1.923083e-06	6.852874e-10	1.338959e+01	4.704089e+01
2.270000e-06	1.966902e-06	7.010622e-10	1.369468e+01	4.816042e+01
2.280000e-06	2.010589e-06	7.163175e-10	1.399885e+01	4.925713e+01
2.290000e-06	2.054174e-06	7.315044e-10	1.430232e+01	5.033106e+01
2.300000e-06	2.097705e-06	7.448974e-10	1.460540e+01	5.138228e+01
2.310000e-06	2.141200e-06	7.570700e-10	1.490824e+01	5.241096e+01
2.320000e-06	2.184608e-06	7.712609e-10	1.521047e+01	5.341729e+01
2.330000e-06	2.227889e-06	7.872497e-10	1.551182e+01	5.440153e+01
2.340000e-06	2.271070e-06	8.035651e-10	1.581247e+01	5.536399e+01
2.350000e-06	2.314080e-06	8.163447e-10	1.611193e+01	5.630503e+01
2.360000e-06	2.356856e-06	8.281194e-10	1.640976e+01	5.722503e+01
2.370000e-06	2.399409e-06	8.378289e-10	1.670604e+01	5.812444e+01
2.380000e-06	2.441703e-06	8.456148e-10	1.700051e+01	5.900371e+01
2.390000e-06	2.483629e-06	8.550851e-10	1.729242e+01	5.986336e+01
2.400000e-06	2.525153e-06	8.674401e-10	1.758154e+01	6.070389e+01
2.410000e-06	2.566383e-06	8.832330e-10	1.786861e+01	6.152586e+01
2.420000e-06	2.607382e-06	8.988012e-10	1.815406e+01	6.232982e+01
2.430000e-06	2.648096e-06	9.109650e-10	1.843754e+01	6.311635e+01
2.440000e-06	2.688524e-06	9.196380e-10	1.871902e+01	6.388603e+01
2.450000e-06	2.728714e-06	9.263364e-10	1.899884e+01	6.463944e+01
2.460000e-06	2.768720e-06	9.339515e-10	1.927739e+01	6.537717e+01
2.470000e-06	2.808604e-06	9.439830e-10	1.955509e+01	6.609981e+01
2.480000e-06	2.848417e-06	9.549927e-10	1.983228e+01	6.680793e+01
2.490000e-06	2.888091e-06	9.675988e-10	2.010852e+01	6.750210e+01
2.500000e-06	2.927574e-06	9.801967e-10	2.038342e+01	6.818287e+01
2.510000e-06	2.966895e-06	9.917543e-10	2.065719e+01	6.885077e+01
2.520000e-06	3.006029e-06	1.001368e-09	2.092967e+01	6.950633e+01
2.530000e-06	3.044988e-06	1.009488e-09	2.120092e+01	7.015003e+01
2.540000e-06	3.083710e-06	1.017597e-09	2.147053e+01	7.078236e+01
2.550000e-06	3.122165e-06	1.025967e-09	2.173827e+01	7.140376e+01
2.560000e-06	3.160442e-06	1.032128e-09	2.200478e+01	7.201465e+01
2.570000e-06	3.198473e-06	1.040321e-09	2.226957e+01	7.261543e+01
2.580000e-06	3.236224e-06	1.052233e-09	2.253242e+01	7.320645e+01
2.590000e-06	3.273800e-06	1.064414e-09	2.279404e+01	7.378805e+01
2.600000e-06	3.311204e-06	1.074731e-09	2.305447e+01	7.436055e+01
2.610000e-06	3.348395e-06	1.082015e-09	2.331342e+01	7.492420e+01
2.620000e-06	3.385354e-06	1.088302e-09	2.357074e+01	7.547927e+01
2.630000e-06	3.422090e-06	1.093765e-09	2.382652e+01	7.602597e+01
2.640000e-06	3.458580e-06	1.098979e-09	2.408058e+01	7.656449e+01
2.650000e-06	3.494749e-06	1.107114e-09	2.433242e+01	7.709499e+01
2.660000e-06	3.530665e-06	1.117950e-09	2.458248e+01	7.761761e+01
2.670000e-06	3.566466e-06	1.128489e-09	2.483175e+01	7.813247e+01
2.680000e-06	3.602141e-06	1.136926e-09	2.508014e+01	7.863965e+01
2.690000e-06	3.637670e-06	1.140567e-09	2.532751e+01	7.913923e+01
2.700000e-06	3.673084e-06	1.143576e-09	2.557408e+01	7.963126e+01
2.710000e-06	3.708357e-06	1.149396e-09	2.581967e+01	8.011577e+01
2.720000e-06	3.743409e-06	1.157697e-09	2.606372e+01	8.059278e+01
2.730000e-06	3.778193e-06	1.167645e-09	2.630591e+01	8.106231e+01
2.740000e-06	3.812541e-06	1.176503e-09	2.654506e+01	8.152434e+01
2.750000e-06	3.846330e-06	1.182758e-09	2.678032e+01	8.197888e+01
2.760000e-06	3.879597e-06	1.187122e-09	2.701194e+01	8.242589e+01
2.770000e-06	3.912313e-06	1.189928e-09	2.723973e+01	8.286537e+01
2.780000e-06	3.944518e-06	1.193833e-09	2.746396e+01	8.329729e+01
2.790000e-06	3.976477e-06	1.199087e-09	2.768647e+01	8.372163e+01
2.800000e-06	4.008323e-06	1.205009e-09	2.790820e+01	8.413837e+01
2.810000e-06	4.040015e-06	1.211122e-09	2.812886e+01	8.454750e+01
2.820000e-06	4.071564e-06	1.219707e-09	2.834853e+01	8.494899e+01
2.830000e-06	4.102942e-06	1.230485e-09	2.856700e+01	8.534286e+01
2.840000e-06	4.134097e-06	1.238178e-09	2.878391e+01	8.572909e+01
2.850000e-06	4.164955e-06	1.241256e-09	2.899877e+01	8.610772e+01
2.860000e-06	4.195550e-06	1.243809e-09	2.921178e+01	8.647875e+01
2.870000e-06	4.225819e-06	1.246793e-09	2.942253e+01	8.684223e+01
2.880000e-06	4.255720e-06	1.249340e-09	2.963072e+01	8.719819e+01
2.890000e-06	4.285329e-06	1.253131e-09	2.983688e+01	8.754670e+01
2.900000e-06	4.314653e-06	1.259671e-09	3.004105e+01	8.788783e+01
2.910000e-06	4.343740e-06	1.267721e-09	3.024357e+01	8.822164e+01
