# Temperatura_=_-0.3
# Concentracion g/m^3_=_1620.0
# C_Vs_to_Am_M_A/Vsm_=_65563218390.804596
# pendiente_HvsI_1/m_=_3716.3
# ordenada_HvsI_A/m_=_1297.0
# frecuencia_Hz_=_135094.11661215874

Tiempo_(s)	Campo_(V.s)	Magnetizacion_(V.s)	Campo_(kA/m)	Magnetizacion_(A/m)
0.000000e+00	-5.520289e-06	-1.697339e-09	-3.838035e+01	-1.092568e+02
1.000000e-08	-5.520535e-06	-1.693359e-09	-3.838205e+01	-1.092259e+02
2.000000e-08	-5.520564e-06	-1.692094e-09	-3.838225e+01	-1.091929e+02
3.000000e-08	-5.520257e-06	-1.695693e-09	-3.838012e+01	-1.091579e+02
4.000000e-08	-5.519483e-06	-1.698501e-09	-3.837474e+01	-1.091207e+02
5.000000e-08	-5.518187e-06	-1.698243e-09	-3.836573e+01	-1.090815e+02
6.000000e-08	-5.516208e-06	-1.695259e-09	-3.835197e+01	-1.090402e+02
7.000000e-08	-5.513603e-06	-1.698585e-09	-3.833386e+01	-1.089966e+02
8.000000e-08	-5.510565e-06	-1.716948e-09	-3.831274e+01	-1.089509e+02
9.000000e-08	-5.507036e-06	-1.697949e-09	-3.828820e+01	-1.089028e+02
1.000000e-07	-5.503016e-06	-1.628991e-09	-3.826025e+01	-1.088523e+02
1.100000e-07	-5.498720e-06	-1.677719e-09	-3.823038e+01	-1.087994e+02
1.200000e-07	-5.494158e-06	-1.750730e-09	-3.819867e+01	-1.087439e+02
1.300000e-07	-5.489271e-06	-1.719214e-09	-3.816469e+01	-1.086857e+02
1.400000e-07	-5.484078e-06	-1.635647e-09	-3.812858e+01	-1.086247e+02
1.500000e-07	-5.478531e-06	-1.630819e-09	-3.809002e+01	-1.085608e+02
1.600000e-07	-5.472609e-06	-1.743186e-09	-3.804884e+01	-1.084938e+02
1.700000e-07	-5.466353e-06	-1.730767e-09	-3.800535e+01	-1.084236e+02
1.800000e-07	-5.459659e-06	-1.649635e-09	-3.795880e+01	-1.083501e+02
1.900000e-07	-5.452530e-06	-1.620090e-09	-3.790924e+01	-1.082731e+02
2.000000e-07	-5.445091e-06	-1.669751e-09	-3.785752e+01	-1.081925e+02
2.100000e-07	-5.437438e-06	-1.669425e-09	-3.780431e+01	-1.081080e+02
2.200000e-07	-5.429500e-06	-1.624751e-09	-3.774912e+01	-1.080196e+02
2.300000e-07	-5.421207e-06	-1.616427e-09	-3.769147e+01	-1.079271e+02
2.400000e-07	-5.412532e-06	-1.650324e-09	-3.763115e+01	-1.078304e+02
2.500000e-07	-5.403223e-06	-1.647835e-09	-3.756643e+01	-1.077292e+02
2.600000e-07	-5.393161e-06	-1.611960e-09	-3.749647e+01	-1.076234e+02
2.700000e-07	-5.382471e-06	-1.606070e-09	-3.742215e+01	-1.075130e+02
2.800000e-07	-5.371328e-06	-1.608890e-09	-3.734468e+01	-1.073976e+02
2.900000e-07	-5.359839e-06	-1.611430e-09	-3.726480e+01	-1.072773e+02
3.000000e-07	-5.347959e-06	-1.598896e-09	-3.718220e+01	-1.071518e+02
3.100000e-07	-5.335646e-06	-1.599653e-09	-3.709659e+01	-1.070211e+02
3.200000e-07	-5.322921e-06	-1.603542e-09	-3.700813e+01	-1.068849e+02
3.300000e-07	-5.309776e-06	-1.614848e-09	-3.691673e+01	-1.067433e+02
3.400000e-07	-5.296309e-06	-1.589026e-09	-3.682310e+01	-1.065960e+02
3.500000e-07	-5.282469e-06	-1.567328e-09	-3.672688e+01	-1.064430e+02
3.600000e-07	-5.268189e-06	-1.587601e-09	-3.662759e+01	-1.062842e+02
3.700000e-07	-5.253540e-06	-1.592040e-09	-3.652575e+01	-1.061196e+02
3.800000e-07	-5.238394e-06	-1.554604e-09	-3.642044e+01	-1.059489e+02
3.900000e-07	-5.222760e-06	-1.577391e-09	-3.631174e+01	-1.057723e+02
4.000000e-07	-5.206724e-06	-1.600391e-09	-3.620025e+01	-1.055895e+02
4.100000e-07	-5.190206e-06	-1.543581e-09	-3.608541e+01	-1.054007e+02
4.200000e-07	-5.173326e-06	-1.524253e-09	-3.596805e+01	-1.052057e+02
4.300000e-07	-5.156075e-06	-1.596444e-09	-3.584811e+01	-1.050045e+02
4.400000e-07	-5.138481e-06	-1.564366e-09	-3.572578e+01	-1.047971e+02
4.500000e-07	-5.120535e-06	-1.488153e-09	-3.560101e+01	-1.045836e+02
4.600000e-07	-5.102070e-06	-1.550430e-09	-3.547264e+01	-1.043639e+02
4.700000e-07	-5.083187e-06	-1.588006e-09	-3.534135e+01	-1.041381e+02
4.800000e-07	-5.063953e-06	-1.492508e-09	-3.520762e+01	-1.039061e+02
4.900000e-07	-5.044447e-06	-1.499161e-09	-3.507200e+01	-1.036680e+02
5.000000e-07	-5.024760e-06	-1.578117e-09	-3.493513e+01	-1.034240e+02
5.100000e-07	-5.004841e-06	-1.509343e-09	-3.479664e+01	-1.031739e+02
5.200000e-07	-4.984714e-06	-1.463129e-09	-3.465670e+01	-1.029179e+02
5.300000e-07	-4.964242e-06	-1.548574e-09	-3.451437e+01	-1.026561e+02
5.400000e-07	-4.943335e-06	-1.525065e-09	-3.436901e+01	-1.023885e+02
5.500000e-07	-4.922096e-06	-1.437772e-09	-3.422135e+01	-1.021152e+02
5.600000e-07	-4.900473e-06	-1.503319e-09	-3.407101e+01	-1.018363e+02
5.700000e-07	-4.878501e-06	-1.539282e-09	-3.391825e+01	-1.015519e+02
5.800000e-07	-4.856223e-06	-1.453104e-09	-3.376336e+01	-1.012621e+02
5.900000e-07	-4.833575e-06	-1.465188e-09	-3.360589e+01	-1.009671e+02
6.000000e-07	-4.810607e-06	-1.526101e-09	-3.344621e+01	-1.006668e+02
6.100000e-07	-4.787358e-06	-1.464423e-09	-3.328457e+01	-1.003614e+02
6.200000e-07	-4.763873e-06	-1.439889e-09	-3.312129e+01	-1.000510e+02
6.300000e-07	-4.740233e-06	-1.495983e-09	-3.295693e+01	-9.973572e+01
6.400000e-07	-4.716358e-06	-1.469430e-09	-3.279094e+01	-9.941566e+01
6.500000e-07	-4.692076e-06	-1.424901e-09	-3.262212e+01	-9.909092e+01
6.600000e-07	-4.667276e-06	-1.464686e-09	-3.244969e+01	-9.876160e+01
6.700000e-07	-4.641935e-06	-1.458808e-09	-3.227350e+01	-9.842779e+01
6.800000e-07	-4.615989e-06	-1.412872e-09	-3.209311e+01	-9.808957e+01
6.900000e-07	-4.589535e-06	-1.431870e-09	-3.190918e+01	-9.774705e+01
7.000000e-07	-4.562694e-06	-1.444607e-09	-3.172257e+01	-9.740030e+01
7.100000e-07	-4.535505e-06	-1.404717e-09	-3.153354e+01	-9.704938e+01
7.200000e-07	-4.508135e-06	-1.405276e-09	-3.134325e+01	-9.669437e+01
7.300000e-07	-4.480561e-06	-1.423198e-09	-3.115153e+01	-9.633532e+01
7.400000e-07	-4.452751e-06	-1.401159e-09	-3.095818e+01	-9.597228e+01
7.500000e-07	-4.424732e-06	-1.388525e-09	-3.076338e+01	-9.560529e+01
7.600000e-07	-4.396457e-06	-1.400788e-09	-3.056679e+01	-9.523439e+01
7.700000e-07	-4.367929e-06	-1.386376e-09	-3.036845e+01	-9.485958e+01
7.800000e-07	-4.339079e-06	-1.368929e-09	-3.016787e+01	-9.448089e+01
7.900000e-07	-4.309907e-06	-1.372857e-09	-2.996504e+01	-9.409832e+01
8.000000e-07	-4.280443e-06	-1.362723e-09	-2.976019e+01	-9.371184e+01
8.100000e-07	-4.250602e-06	-1.341602e-09	-2.955272e+01	-9.332144e+01
8.200000e-07	-4.220402e-06	-1.341692e-09	-2.934275e+01	-9.292710e+01
8.300000e-07	-4.189991e-06	-1.341442e-09	-2.913131e+01	-9.252876e+01
8.400000e-07	-4.159269e-06	-1.320644e-09	-2.891772e+01	-9.212638e+01
8.500000e-07	-4.128186e-06	-1.314357e-09	-2.870161e+01	-9.171989e+01
8.600000e-07	-4.096882e-06	-1.320760e-09	-2.848397e+01	-9.130922e+01
8.700000e-07	-4.065440e-06	-1.310012e-09	-2.826536e+01	-9.089429e+01
8.800000e-07	-4.033891e-06	-1.298911e-09	-2.804602e+01	-9.047503e+01
8.900000e-07	-4.002155e-06	-1.302144e-09	-2.782537e+01	-9.005131e+01
9.000000e-07	-3.970221e-06	-1.288592e-09	-2.760334e+01	-8.962306e+01
9.100000e-07	-3.938031e-06	-1.266839e-09	-2.737954e+01	-8.919015e+01
9.200000e-07	-3.905416e-06	-1.263794e-09	-2.715278e+01	-8.875248e+01
9.300000e-07	-3.872245e-06	-1.259964e-09	-2.692216e+01	-8.830991e+01
9.400000e-07	-3.838663e-06	-1.243935e-09	-2.668868e+01	-8.786235e+01
9.500000e-07	-3.804747e-06	-1.242518e-09	-2.645287e+01	-8.740965e+01
9.600000e-07	-3.770426e-06	-1.247052e-09	-2.621425e+01	-8.695169e+01
9.700000e-07	-3.735709e-06	-1.233724e-09	-2.597288e+01	-8.648836e+01
9.800000e-07	-3.700623e-06	-1.219519e-09	-2.572894e+01	-8.601951e+01
9.900000e-07	-3.665313e-06	-1.220118e-09	-2.548344e+01	-8.554504e+01
1.000000e-06	-3.629854e-06	-1.212274e-09	-2.523691e+01	-8.506483e+01
1.010000e-06	-3.594228e-06	-1.200238e-09	-2.498922e+01	-8.457875e+01
1.020000e-06	-3.558441e-06	-1.200615e-09	-2.474041e+01	-8.408670e+01
1.030000e-06	-3.522526e-06	-1.198753e-09	-2.449071e+01	-8.358857e+01
1.040000e-06	-3.486415e-06	-1.184275e-09	-2.423964e+01	-8.308427e+01
1.050000e-06	-3.449977e-06	-1.177962e-09	-2.398630e+01	-8.257371e+01
1.060000e-06	-3.413208e-06	-1.174415e-09	-2.373066e+01	-8.205681e+01
1.070000e-06	-3.376167e-06	-1.160294e-09	-2.347313e+01	-8.153349e+01
1.080000e-06	-3.338850e-06	-1.147683e-09	-2.321368e+01	-8.100370e+01
1.090000e-06	-3.301346e-06	-1.144206e-09	-2.295293e+01	-8.046739e+01
1.100000e-06	-3.263650e-06	-1.136135e-09	-2.269084e+01	-7.992451e+01
1.110000e-06	-3.225703e-06	-1.123245e-09	-2.242701e+01	-7.937504e+01
1.120000e-06	-3.187548e-06	-1.116610e-09	-2.216174e+01	-7.881895e+01
1.130000e-06	-3.149154e-06	-1.108986e-09	-2.189480e+01	-7.825624e+01
1.140000e-06	-3.110540e-06	-1.097231e-09	-2.162633e+01	-7.768691e+01
1.150000e-06	-3.071721e-06	-1.089762e-09	-2.135644e+01	-7.711097e+01
1.160000e-06	-3.032702e-06	-1.084601e-09	-2.108515e+01	-7.652844e+01
1.170000e-06	-2.993601e-06	-1.074707e-09	-2.081330e+01	-7.593935e+01
1.180000e-06	-2.954377e-06	-1.065512e-09	-2.054059e+01	-7.534374e+01
1.190000e-06	-2.914988e-06	-1.058579e-09	-2.026674e+01	-7.474165e+01
1.200000e-06	-2.875464e-06	-1.046682e-09	-1.999194e+01	-7.413313e+01
1.210000e-06	-2.835777e-06	-1.031654e-09	-1.971601e+01	-7.351823e+01
1.220000e-06	-2.795913e-06	-1.021786e-09	-1.943886e+01	-7.289701e+01
1.230000e-06	-2.755857e-06	-1.012607e-09	-1.916036e+01	-7.226953e+01
1.240000e-06	-2.715642e-06	-1.001286e-09	-1.888077e+01	-7.163583e+01
1.250000e-06	-2.675297e-06	-9.927360e-10	-1.860026e+01	-7.099598e+01
1.260000e-06	-2.634693e-06	-9.855340e-10	-1.831796e+01	-7.035002e+01
1.270000e-06	-2.593711e-06	-9.727214e-10	-1.803303e+01	-6.969799e+01
1.280000e-06	-2.552444e-06	-9.605975e-10	-1.774612e+01	-6.903993e+01
1.290000e-06	-2.510777e-06	-9.528540e-10	-1.745642e+01	-6.837586e+01
1.300000e-06	-2.468755e-06	-9.427322e-10	-1.716426e+01	-6.770578e+01
1.310000e-06	-2.426526e-06	-9.285701e-10	-1.687066e+01	-6.702970e+01
1.320000e-06	-2.384017e-06	-9.175711e-10	-1.657511e+01	-6.634759e+01
1.330000e-06	-2.341251e-06	-9.072445e-10	-1.627777e+01	-6.565941e+01
1.340000e-06	-2.298287e-06	-8.958707e-10	-1.597906e+01	-6.496510e+01
1.350000e-06	-2.255162e-06	-8.852552e-10	-1.567923e+01	-6.426458e+01
1.360000e-06	-2.211853e-06	-8.755332e-10	-1.537812e+01	-6.355773e+01
1.370000e-06	-2.168421e-06	-8.647015e-10	-1.507615e+01	-6.284442e+01
1.380000e-06	-2.124926e-06	-8.518760e-10	-1.477375e+01	-6.212449e+01
1.390000e-06	-2.081302e-06	-8.369265e-10	-1.447045e+01	-6.139775e+01
1.400000e-06	-2.037601e-06	-8.206217e-10	-1.416662e+01	-6.066399e+01
1.410000e-06	-1.993847e-06	-8.065829e-10	-1.386241e+01	-5.992294e+01
1.420000e-06	-1.950030e-06	-7.954911e-10	-1.355777e+01	-5.917433e+01
1.430000e-06	-1.906136e-06	-7.860612e-10	-1.325259e+01	-5.841784e+01
1.440000e-06	-1.862091e-06	-7.754350e-10	-1.294637e+01	-5.765313e+01
1.450000e-06	-1.817956e-06	-7.642236e-10	-1.263951e+01	-5.687982e+01
1.460000e-06	-1.773729e-06	-7.520327e-10	-1.233202e+01	-5.609751e+01
1.470000e-06	-1.729277e-06	-7.398662e-10	-1.202297e+01	-5.530576e+01
1.480000e-06	-1.684628e-06	-7.263226e-10	-1.171254e+01	-5.450410e+01
1.490000e-06	-1.639915e-06	-7.133143e-10	-1.140167e+01	-5.369203e+01
1.500000e-06	-1.595090e-06	-7.021526e-10	-1.109002e+01	-5.286905e+01
1.510000e-06	-1.550142e-06	-6.923472e-10	-1.077751e+01	-5.203460e+01
1.520000e-06	-1.505128e-06	-6.791321e-10	-1.046455e+01	-5.118811e+01
1.530000e-06	-1.459894e-06	-6.627808e-10	-1.015005e+01	-5.032901e+01
1.540000e-06	-1.414504e-06	-6.490889e-10	-9.834479e+00	-4.945669e+01
1.550000e-06	-1.369116e-06	-6.355624e-10	-9.518914e+00	-4.857053e+01
1.560000e-06	-1.323696e-06	-6.220810e-10	-9.203124e+00	-4.766992e+01
1.570000e-06	-1.278223e-06	-6.097534e-10	-8.886968e+00	-4.675421e+01
1.580000e-06	-1.232632e-06	-5.968357e-10	-8.569991e+00	-4.582278e+01
1.590000e-06	-1.186890e-06	-5.800402e-10	-8.251969e+00	-4.487500e+01
1.600000e-06	-1.141089e-06	-5.631718e-10	-7.933529e+00	-4.391023e+01
1.610000e-06	-1.095323e-06	-5.486317e-10	-7.615340e+00	-4.292786e+01
1.620000e-06	-1.049370e-06	-5.323814e-10	-7.295846e+00	-4.192729e+01
1.630000e-06	-1.003234e-06	-5.152599e-10	-6.975083e+00	-4.090793e+01
1.640000e-06	-9.570527e-07	-5.002111e-10	-6.654001e+00	-3.986922e+01
1.650000e-06	-9.108296e-07	-4.878527e-10	-6.332631e+00	-3.881064e+01
1.660000e-06	-8.645479e-07	-4.740239e-10	-6.010853e+00	-3.773168e+01
1.670000e-06	-8.181010e-07	-4.573898e-10	-5.687926e+00	-3.663187e+01
1.680000e-06	-7.716978e-07	-4.398625e-10	-5.365303e+00	-3.551080e+01
1.690000e-06	-7.253271e-07	-4.215556e-10	-5.042906e+00	-3.436809e+01
1.700000e-06	-6.788550e-07	-4.025308e-10	-4.719805e+00	-3.320340e+01
1.710000e-06	-6.323036e-07	-3.833028e-10	-4.396152e+00	-3.201648e+01
1.720000e-06	-5.857801e-07	-3.642357e-10	-4.072693e+00	-3.080709e+01
1.730000e-06	-5.392272e-07	-3.459984e-10	-3.749029e+00	-2.957509e+01
1.740000e-06	-4.926263e-07	-3.268222e-10	-3.425032e+00	-2.832037e+01
1.750000e-06	-4.459830e-07	-3.062242e-10	-3.100740e+00	-2.704293e+01
1.760000e-06	-3.992244e-07	-2.870048e-10	-2.775646e+00	-2.574279e+01
1.770000e-06	-3.524446e-07	-2.679253e-10	-2.450405e+00	-2.442007e+01
1.780000e-06	-3.056728e-07	-2.477886e-10	-2.125220e+00	-2.307496e+01
1.790000e-06	-2.589388e-07	-2.290715e-10	-1.800297e+00	-2.170772e+01
1.800000e-06	-2.121179e-07	-2.129277e-10	-1.474770e+00	-2.031869e+01
1.810000e-06	-1.651975e-07	-1.938455e-10	-1.148552e+00	-1.890828e+01
1.820000e-06	-1.183238e-07	-1.711229e-10	-8.226580e-01	-1.747698e+01
1.830000e-06	-7.145236e-08	-1.485609e-10	-4.967794e-01	-1.602534e+01
1.840000e-06	-2.453715e-08	-1.267609e-10	-1.705969e-01	-1.455402e+01
1.850000e-06	2.224019e-08	-1.067590e-10	1.546271e-01	-1.306371e+01
1.860000e-06	6.896715e-08	-8.893739e-11	4.795008e-01	-1.155520e+01
1.870000e-06	1.158356e-07	-6.890084e-11	8.053580e-01	-1.002935e+01
1.880000e-06	1.627589e-07	-4.616975e-11	1.131597e+00	-8.487064e+00
1.890000e-06	2.095842e-07	-2.411919e-11	1.457155e+00	-6.929334e+00
1.900000e-06	2.564215e-07	-4.437282e-12	1.782795e+00	-5.357199e+00
1.910000e-06	3.033046e-07	1.491709e-11	2.108755e+00	-3.771759e+00
1.920000e-06	3.501618e-07	3.682869e-11	2.434534e+00	-2.174164e+00
1.930000e-06	3.970188e-07	6.095867e-11	2.760311e+00	-5.656148e-01
1.940000e-06	4.437181e-07	8.456392e-11	3.084993e+00	1.052647e+00
1.950000e-06	4.902965e-07	1.063761e-10	3.408834e+00	2.679342e+00
1.960000e-06	5.368658e-07	1.282810e-10	3.732612e+00	4.313154e+00
1.970000e-06	5.834339e-07	1.513635e-10	4.056381e+00	5.952744e+00
1.980000e-06	6.299776e-07	1.748093e-10	4.379980e+00	7.596747e+00
1.990000e-06	6.764101e-07	1.970476e-10	4.702806e+00	9.243785e+00
2.000000e-06	7.228055e-07	2.184342e-10	5.025375e+00	1.089247e+01
2.010000e-06	7.692239e-07	2.418024e-10	5.348103e+00	1.254140e+01
2.020000e-06	8.155459e-07	2.641375e-10	5.670161e+00	1.418919e+01
2.030000e-06	8.617281e-07	2.894684e-10	5.991248e+00	1.583445e+01
2.040000e-06	9.078726e-07	3.173115e-10	6.312072e+00	1.747581e+01
2.050000e-06	9.539604e-07	3.398589e-10	6.632502e+00	1.911192e+01
2.060000e-06	9.999771e-07	3.612850e-10	6.952437e+00	2.074143e+01
2.070000e-06	1.045938e-06	3.820209e-10	7.271985e+00	2.236305e+01
2.080000e-06	1.091838e-06	4.021650e-10	7.591112e+00	2.397552e+01
2.090000e-06	1.137651e-06	4.228540e-10	7.909629e+00	2.557760e+01
2.100000e-06	1.183388e-06	4.462476e-10	8.227621e+00	2.716811e+01
2.110000e-06	1.229071e-06	4.697287e-10	8.545234e+00	2.874590e+01
2.120000e-06	1.274610e-06	4.930581e-10	8.861849e+00	3.030991e+01
2.130000e-06	1.320076e-06	5.150139e-10	9.177957e+00	3.185908e+01
2.140000e-06	1.365520e-06	5.342449e-10	9.493913e+00	3.339246e+01
2.150000e-06	1.410930e-06	5.528318e-10	9.809624e+00	3.490913e+01
2.160000e-06	1.456218e-06	5.708025e-10	1.012450e+01	3.640823e+01
2.170000e-06	1.501341e-06	5.892334e-10	1.043822e+01	3.788900e+01
2.180000e-06	1.546331e-06	6.095599e-10	1.075101e+01	3.935071e+01
2.190000e-06	1.591180e-06	6.324083e-10	1.106284e+01	4.079271e+01
2.200000e-06	1.635875e-06	6.560412e-10	1.137358e+01	4.221442e+01
2.210000e-06	1.680373e-06	6.763568e-10	1.168296e+01	4.361534e+01
2.220000e-06	1.724710e-06	6.921101e-10	1.199121e+01	4.499502e+01
2.230000e-06	1.769023e-06	7.049858e-10	1.229931e+01	4.635308e+01
2.240000e-06	1.813264e-06	7.199522e-10	1.260689e+01	4.768922e+01
2.250000e-06	1.857316e-06	7.374762e-10	1.291317e+01	4.900319e+01
2.260000e-06	1.901267e-06	7.560963e-10	1.321875e+01	5.029482e+01
2.270000e-06	1.945164e-06	7.750807e-10	1.352394e+01	5.156399e+01
2.280000e-06	1.988962e-06	7.926436e-10	1.382845e+01	5.281064e+01
2.290000e-06	2.032637e-06	8.077760e-10	1.413210e+01	5.403478e+01
2.300000e-06	2.076220e-06	8.207256e-10	1.443512e+01	5.523645e+01
2.310000e-06	2.119738e-06	8.331073e-10	1.473769e+01	5.641576e+01
2.320000e-06	2.163233e-06	8.475300e-10	1.504009e+01	5.757287e+01
2.330000e-06	2.206694e-06	8.644768e-10	1.534225e+01	5.870797e+01
2.340000e-06	2.250041e-06	8.818360e-10	1.564363e+01	5.982130e+01
2.350000e-06	2.293214e-06	8.985086e-10	1.594379e+01	6.091314e+01
2.360000e-06	2.336221e-06	9.119044e-10	1.624280e+01	6.198378e+01
2.370000e-06	2.379048e-06	9.234937e-10	1.654056e+01	6.303357e+01
2.380000e-06	2.421596e-06	9.336876e-10	1.683638e+01	6.406287e+01
2.390000e-06	2.463790e-06	9.454538e-10	1.712974e+01	6.507206e+01
2.400000e-06	2.505640e-06	9.582850e-10	1.742070e+01	6.606154e+01
2.410000e-06	2.547236e-06	9.728005e-10	1.770990e+01	6.703173e+01
2.420000e-06	2.588425e-06	9.875627e-10	1.799627e+01	6.798306e+01
2.430000e-06	2.629279e-06	9.998152e-10	1.828032e+01	6.891596e+01
2.440000e-06	2.669998e-06	1.011589e-09	1.856342e+01	6.983087e+01
2.450000e-06	2.710428e-06	1.022862e-09	1.884452e+01	7.072823e+01
2.460000e-06	2.750599e-06	1.032555e-09	1.912380e+01	7.160847e+01
2.470000e-06	2.790632e-06	1.042025e-09	1.940214e+01	7.247202e+01
2.480000e-06	2.830510e-06	1.052204e-09	1.967939e+01	7.331932e+01
2.490000e-06	2.870203e-06	1.062106e-09	1.995536e+01	7.415077e+01
2.500000e-06	2.909756e-06	1.072725e-09	2.023036e+01	7.496679e+01
2.510000e-06	2.949208e-06	1.087117e-09	2.050465e+01	7.576776e+01
2.520000e-06	2.988517e-06	1.102098e-09	2.077795e+01	7.655407e+01
2.530000e-06	3.027707e-06	1.114211e-09	2.105043e+01	7.732608e+01
2.540000e-06	3.066700e-06	1.125711e-09	2.132153e+01	7.808412e+01
2.550000e-06	3.105446e-06	1.136510e-09	2.159091e+01	7.882854e+01
2.560000e-06	3.143937e-06	1.145225e-09	2.185852e+01	7.955964e+01
2.570000e-06	3.182129e-06	1.154079e-09	2.212406e+01	8.027771e+01
2.580000e-06	3.220147e-06	1.165763e-09	2.238839e+01	8.098304e+01
2.590000e-06	3.257964e-06	1.178586e-09	2.265131e+01	8.167587e+01
2.600000e-06	3.295543e-06	1.190074e-09	2.291258e+01	8.235645e+01
2.610000e-06	3.332981e-06	1.198475e-09	2.317288e+01	8.302501e+01
2.620000e-06	3.370191e-06	1.205653e-09	2.343158e+01	8.368175e+01
2.630000e-06	3.407152e-06	1.213970e-09	2.368856e+01	8.432686e+01
2.640000e-06	3.443954e-06	1.221106e-09	2.394442e+01	8.496052e+01
2.650000e-06	3.480491e-06	1.229406e-09	2.419845e+01	8.558291e+01
2.660000e-06	3.516681e-06	1.242118e-09	2.445006e+01	8.619417e+01
2.670000e-06	3.552576e-06	1.253593e-09	2.469962e+01	8.679445e+01
2.680000e-06	3.588300e-06	1.262647e-09	2.494800e+01	8.738388e+01
2.690000e-06	3.623947e-06	1.268412e-09	2.519584e+01	8.796259e+01
2.700000e-06	3.659561e-06	1.272026e-09	2.544345e+01	8.853071e+01
2.710000e-06	3.695020e-06	1.277399e-09	2.568998e+01	8.908835e+01
2.720000e-06	3.730231e-06	1.285137e-09	2.593479e+01	8.963561e+01
2.730000e-06	3.765152e-06	1.294135e-09	2.617758e+01	9.017262e+01
2.740000e-06	3.799789e-06	1.303321e-09	2.641840e+01	9.069948e+01
2.750000e-06	3.833988e-06	1.311742e-09	2.665617e+01	9.121629e+01
2.760000e-06	3.867510e-06	1.319452e-09	2.688924e+01	9.172317e+01
2.770000e-06	3.900525e-06	1.324694e-09	2.711878e+01	9.222023e+01
2.780000e-06	3.933199e-06	1.328515e-09	2.734594e+01	9.270759e+01
2.790000e-06	3.965525e-06	1.335041e-09	2.757069e+01	9.318535e+01
2.800000e-06	3.997624e-06	1.340438e-09	2.779387e+01	9.365365e+01
2.810000e-06	4.029532e-06	1.346250e-09	2.801571e+01	9.411260e+01
2.820000e-06	4.061237e-06	1.355920e-09	2.823614e+01	9.456234e+01
2.830000e-06	4.092782e-06	1.364430e-09	2.845546e+01	9.500300e+01
2.840000e-06	4.124121e-06	1.370002e-09	2.867335e+01	9.543473e+01
2.850000e-06	4.155242e-06	1.373842e-09	2.888972e+01	9.585766e+01
2.860000e-06	4.186020e-06	1.377098e-09	2.910371e+01	9.627195e+01
2.870000e-06	4.216403e-06	1.380581e-09	2.931495e+01	9.667774e+01
2.880000e-06	4.246461e-06	1.384550e-09	2.952393e+01	9.707521e+01
2.890000e-06	4.276239e-06	1.388212e-09	2.973097e+01	9.746450e+01
2.900000e-06	4.305763e-06	1.391771e-09	2.993623e+01	9.784579e+01
