# Temperatura_=_-0.4
# Concentracion g/m^3_=_1620.0
# C_Vs_to_Am_M_A/Vsm_=_65563218390.804596
# pendiente_HvsI_1/m_=_3716.3
# ordenada_HvsI_A/m_=_1297.0
# frecuencia_Hz_=_135088.57672786588

Tiempo_(s)	Campo_(V.s)	Magnetizacion_(V.s)	Campo_(kA/m)	Magnetizacion_(A/m)
0.000000e+00	-5.533554e-06	-1.772131e-09	-3.836957e+01	-1.127823e+02
1.000000e-08	-5.533821e-06	-1.770880e-09	-3.837141e+01	-1.127602e+02
2.000000e-08	-5.533821e-06	-1.770252e-09	-3.837142e+01	-1.127336e+02
3.000000e-08	-5.533474e-06	-1.769358e-09	-3.836901e+01	-1.127025e+02
4.000000e-08	-5.532727e-06	-1.767252e-09	-3.836383e+01	-1.126671e+02
5.000000e-08	-5.531517e-06	-1.763457e-09	-3.835544e+01	-1.126274e+02
6.000000e-08	-5.529709e-06	-1.761015e-09	-3.834290e+01	-1.125834e+02
7.000000e-08	-5.527204e-06	-1.773581e-09	-3.832553e+01	-1.125354e+02
8.000000e-08	-5.524143e-06	-1.803921e-09	-3.830431e+01	-1.124834e+02
9.000000e-08	-5.520688e-06	-1.775983e-09	-3.828035e+01	-1.124274e+02
1.000000e-07	-5.516780e-06	-1.697280e-09	-3.825325e+01	-1.123676e+02
1.100000e-07	-5.512514e-06	-1.724953e-09	-3.822367e+01	-1.123041e+02
1.200000e-07	-5.508090e-06	-1.774549e-09	-3.819300e+01	-1.122368e+02
1.300000e-07	-5.503504e-06	-1.830307e-09	-3.816120e+01	-1.121659e+02
1.400000e-07	-5.498463e-06	-1.773318e-09	-3.812624e+01	-1.120915e+02
1.500000e-07	-5.492947e-06	-1.706024e-09	-3.808799e+01	-1.120136e+02
1.600000e-07	-5.487178e-06	-1.775736e-09	-3.804799e+01	-1.119322e+02
1.700000e-07	-5.480909e-06	-1.788612e-09	-3.800453e+01	-1.118475e+02
1.800000e-07	-5.474169e-06	-1.782411e-09	-3.795779e+01	-1.117593e+02
1.900000e-07	-5.467115e-06	-1.662627e-09	-3.790887e+01	-1.116679e+02
2.000000e-07	-5.459794e-06	-1.701715e-09	-3.785811e+01	-1.115731e+02
2.100000e-07	-5.452198e-06	-1.747857e-09	-3.780544e+01	-1.114750e+02
2.200000e-07	-5.444305e-06	-1.778892e-09	-3.775071e+01	-1.113736e+02
2.300000e-07	-5.436126e-06	-1.703864e-09	-3.769400e+01	-1.112689e+02
2.400000e-07	-5.427557e-06	-1.691978e-09	-3.763458e+01	-1.111608e+02
2.500000e-07	-5.418434e-06	-1.698193e-09	-3.757132e+01	-1.110494e+02
2.600000e-07	-5.408559e-06	-1.701884e-09	-3.750285e+01	-1.109346e+02
2.700000e-07	-5.398008e-06	-1.676285e-09	-3.742969e+01	-1.108164e+02
2.800000e-07	-5.387064e-06	-1.671310e-09	-3.735381e+01	-1.106948e+02
2.900000e-07	-5.375711e-06	-1.694131e-09	-3.727508e+01	-1.105696e+02
3.000000e-07	-5.363912e-06	-1.672433e-09	-3.719327e+01	-1.104408e+02
3.100000e-07	-5.351775e-06	-1.675260e-09	-3.710911e+01	-1.103084e+02
3.200000e-07	-5.339175e-06	-1.670215e-09	-3.702174e+01	-1.101723e+02
3.300000e-07	-5.326058e-06	-1.691144e-09	-3.693079e+01	-1.100324e+02
3.400000e-07	-5.312575e-06	-1.650386e-09	-3.683730e+01	-1.098887e+02
3.500000e-07	-5.298705e-06	-1.655418e-09	-3.674112e+01	-1.097410e+02
3.600000e-07	-5.284318e-06	-1.645612e-09	-3.664136e+01	-1.095892e+02
3.700000e-07	-5.269473e-06	-1.648470e-09	-3.653843e+01	-1.094334e+02
3.800000e-07	-5.254194e-06	-1.622390e-09	-3.643248e+01	-1.092734e+02
3.900000e-07	-5.238476e-06	-1.664625e-09	-3.632350e+01	-1.091090e+02
4.000000e-07	-5.222342e-06	-1.646540e-09	-3.621162e+01	-1.089403e+02
4.100000e-07	-5.205860e-06	-1.624295e-09	-3.609734e+01	-1.087672e+02
4.200000e-07	-5.188993e-06	-1.618450e-09	-3.598038e+01	-1.085895e+02
4.300000e-07	-5.171741e-06	-1.654753e-09	-3.586076e+01	-1.084073e+02
4.400000e-07	-5.154239e-06	-1.613963e-09	-3.573940e+01	-1.082203e+02
4.500000e-07	-5.136407e-06	-1.602740e-09	-3.561575e+01	-1.080285e+02
4.600000e-07	-5.118097e-06	-1.619606e-09	-3.548879e+01	-1.078320e+02
4.700000e-07	-5.099302e-06	-1.619687e-09	-3.535847e+01	-1.076305e+02
4.800000e-07	-5.080181e-06	-1.590025e-09	-3.522588e+01	-1.074241e+02
4.900000e-07	-5.060835e-06	-1.613906e-09	-3.509174e+01	-1.072127e+02
5.000000e-07	-5.041221e-06	-1.611940e-09	-3.495573e+01	-1.069962e+02
5.100000e-07	-5.021361e-06	-1.578387e-09	-3.481803e+01	-1.067746e+02
5.200000e-07	-5.001228e-06	-1.589023e-09	-3.467842e+01	-1.065479e+02
5.300000e-07	-4.980751e-06	-1.614418e-09	-3.453644e+01	-1.063160e+02
5.400000e-07	-4.959894e-06	-1.583102e-09	-3.439182e+01	-1.060789e+02
5.500000e-07	-4.938756e-06	-1.563775e-09	-3.424525e+01	-1.058366e+02
5.600000e-07	-4.917210e-06	-1.586966e-09	-3.409585e+01	-1.055890e+02
5.700000e-07	-4.895229e-06	-1.572204e-09	-3.394343e+01	-1.053362e+02
5.800000e-07	-4.872993e-06	-1.558067e-09	-3.378925e+01	-1.050781e+02
5.900000e-07	-4.850445e-06	-1.568776e-09	-3.363290e+01	-1.048147e+02
6.000000e-07	-4.827634e-06	-1.564661e-09	-3.347472e+01	-1.045461e+02
6.100000e-07	-4.804608e-06	-1.540843e-09	-3.331506e+01	-1.042722e+02
6.200000e-07	-4.781259e-06	-1.558116e-09	-3.315316e+01	-1.039930e+02
6.300000e-07	-4.757536e-06	-1.552149e-09	-3.298867e+01	-1.037086e+02
6.400000e-07	-4.733545e-06	-1.538621e-09	-3.282232e+01	-1.034189e+02
6.500000e-07	-4.709287e-06	-1.541993e-09	-3.265411e+01	-1.031240e+02
6.600000e-07	-4.684545e-06	-1.550239e-09	-3.248255e+01	-1.028238e+02
6.700000e-07	-4.659202e-06	-1.519126e-09	-3.230682e+01	-1.025184e+02
6.800000e-07	-4.633363e-06	-1.516123e-09	-3.212766e+01	-1.022078e+02
6.900000e-07	-4.607139e-06	-1.512234e-09	-3.194582e+01	-1.018919e+02
7.000000e-07	-4.580561e-06	-1.501209e-09	-3.176153e+01	-1.015709e+02
7.100000e-07	-4.553584e-06	-1.490849e-09	-3.157447e+01	-1.012446e+02
7.200000e-07	-4.526189e-06	-1.502354e-09	-3.138451e+01	-1.009132e+02
7.300000e-07	-4.498434e-06	-1.489019e-09	-3.119206e+01	-1.005765e+02
7.400000e-07	-4.470461e-06	-1.482018e-09	-3.099810e+01	-1.002346e+02
7.500000e-07	-4.442351e-06	-1.479335e-09	-3.080318e+01	-9.988747e+01
7.600000e-07	-4.413997e-06	-1.470743e-09	-3.060657e+01	-9.953509e+01
7.700000e-07	-4.385417e-06	-1.452416e-09	-3.040840e+01	-9.917745e+01
7.800000e-07	-4.356560e-06	-1.453484e-09	-3.020831e+01	-9.881451e+01
7.900000e-07	-4.327303e-06	-1.451030e-09	-3.000544e+01	-9.844625e+01
8.000000e-07	-4.297733e-06	-1.440016e-09	-2.980040e+01	-9.807265e+01
8.100000e-07	-4.267888e-06	-1.431042e-09	-2.959346e+01	-9.769366e+01
8.200000e-07	-4.237742e-06	-1.427606e-09	-2.938443e+01	-9.730924e+01
8.300000e-07	-4.207369e-06	-1.416305e-09	-2.917382e+01	-9.691935e+01
8.400000e-07	-4.176719e-06	-1.403599e-09	-2.896129e+01	-9.652394e+01
8.500000e-07	-4.145702e-06	-1.400697e-09	-2.874622e+01	-9.612297e+01
8.600000e-07	-4.114312e-06	-1.395995e-09	-2.852856e+01	-9.571637e+01
8.700000e-07	-4.082693e-06	-1.390670e-09	-2.830932e+01	-9.530410e+01
8.800000e-07	-4.050990e-06	-1.385593e-09	-2.808949e+01	-9.488610e+01
8.900000e-07	-4.019158e-06	-1.380805e-09	-2.786877e+01	-9.446231e+01
9.000000e-07	-3.987036e-06	-1.362074e-09	-2.764604e+01	-9.403267e+01
9.100000e-07	-3.954544e-06	-1.350737e-09	-2.742074e+01	-9.359713e+01
9.200000e-07	-3.921765e-06	-1.341910e-09	-2.719345e+01	-9.315563e+01
9.300000e-07	-3.888696e-06	-1.335313e-09	-2.696415e+01	-9.270812e+01
9.400000e-07	-3.855228e-06	-1.328280e-09	-2.673208e+01	-9.225455e+01
9.500000e-07	-3.821306e-06	-1.328157e-09	-2.649687e+01	-9.179486e+01
9.600000e-07	-3.786896e-06	-1.318793e-09	-2.625827e+01	-9.132900e+01
9.700000e-07	-3.752145e-06	-1.307804e-09	-2.601730e+01	-9.085695e+01
9.800000e-07	-3.717095e-06	-1.293326e-09	-2.577427e+01	-9.037866e+01
9.900000e-07	-3.681633e-06	-1.284918e-09	-2.552837e+01	-8.989411e+01
1.000000e-06	-3.646006e-06	-1.272889e-09	-2.528134e+01	-8.940325e+01
1.010000e-06	-3.610328e-06	-1.270571e-09	-2.503395e+01	-8.890609e+01
1.020000e-06	-3.574498e-06	-1.269864e-09	-2.478550e+01	-8.840260e+01
1.030000e-06	-3.538468e-06	-1.267010e-09	-2.453567e+01	-8.789279e+01
1.040000e-06	-3.502218e-06	-1.257859e-09	-2.428432e+01	-8.737664e+01
1.050000e-06	-3.465707e-06	-1.250943e-09	-2.403115e+01	-8.685417e+01
1.060000e-06	-3.429004e-06	-1.237518e-09	-2.377665e+01	-8.632540e+01
1.070000e-06	-3.392039e-06	-1.223474e-09	-2.352034e+01	-8.579035e+01
1.080000e-06	-3.354814e-06	-1.213789e-09	-2.326222e+01	-8.524905e+01
1.090000e-06	-3.317394e-06	-1.209197e-09	-2.300275e+01	-8.470153e+01
1.100000e-06	-3.279701e-06	-1.202453e-09	-2.274139e+01	-8.414783e+01
1.110000e-06	-3.241696e-06	-1.194432e-09	-2.247786e+01	-8.358801e+01
1.120000e-06	-3.203447e-06	-1.185005e-09	-2.221264e+01	-8.302210e+01
1.130000e-06	-3.164975e-06	-1.173123e-09	-2.194588e+01	-8.245018e+01
1.140000e-06	-3.126305e-06	-1.163724e-09	-2.167774e+01	-8.187228e+01
1.150000e-06	-3.087466e-06	-1.156099e-09	-2.140843e+01	-8.128848e+01
1.160000e-06	-3.048401e-06	-1.148252e-09	-2.113755e+01	-8.069884e+01
1.170000e-06	-3.009182e-06	-1.137764e-09	-2.086561e+01	-8.010341e+01
1.180000e-06	-2.969806e-06	-1.128874e-09	-2.059258e+01	-7.950224e+01
1.190000e-06	-2.930265e-06	-1.118537e-09	-2.031840e+01	-7.889540e+01
1.200000e-06	-2.890608e-06	-1.108472e-09	-2.004342e+01	-7.828293e+01
1.210000e-06	-2.850774e-06	-1.096495e-09	-1.976722e+01	-7.766488e+01
1.220000e-06	-2.810755e-06	-1.087197e-09	-1.948973e+01	-7.704128e+01
1.230000e-06	-2.770622e-06	-1.077062e-09	-1.921144e+01	-7.641215e+01
1.240000e-06	-2.730290e-06	-1.068617e-09	-1.893178e+01	-7.577751e+01
1.250000e-06	-2.689732e-06	-1.059755e-09	-1.865055e+01	-7.513736e+01
1.260000e-06	-2.648869e-06	-1.052069e-09	-1.836721e+01	-7.449169e+01
1.270000e-06	-2.607746e-06	-1.039663e-09	-1.808206e+01	-7.384047e+01
1.280000e-06	-2.566384e-06	-1.026926e-09	-1.779526e+01	-7.318366e+01
1.290000e-06	-2.524748e-06	-1.013813e-09	-1.750656e+01	-7.252118e+01
1.300000e-06	-2.482852e-06	-1.003147e-09	-1.721605e+01	-7.185295e+01
1.310000e-06	-2.440656e-06	-9.938396e-10	-1.692346e+01	-7.117886e+01
1.320000e-06	-2.398192e-06	-9.847275e-10	-1.662902e+01	-7.049879e+01
1.330000e-06	-2.355464e-06	-9.738659e-10	-1.633274e+01	-6.981258e+01
1.340000e-06	-2.312464e-06	-9.610046e-10	-1.603458e+01	-6.912004e+01
1.350000e-06	-2.269263e-06	-9.476577e-10	-1.573503e+01	-6.842098e+01
1.360000e-06	-2.225936e-06	-9.356014e-10	-1.543460e+01	-6.771515e+01
1.370000e-06	-2.182472e-06	-9.230256e-10	-1.513322e+01	-6.700230e+01
1.380000e-06	-2.138903e-06	-9.128373e-10	-1.483112e+01	-6.628215e+01
1.390000e-06	-2.095185e-06	-9.010087e-10	-1.452798e+01	-6.555436e+01
1.400000e-06	-2.051330e-06	-8.881582e-10	-1.422388e+01	-6.481861e+01
1.410000e-06	-2.007459e-06	-8.750218e-10	-1.391969e+01	-6.407451e+01
1.420000e-06	-1.963521e-06	-8.639142e-10	-1.361502e+01	-6.332168e+01
1.430000e-06	-1.919396e-06	-8.537736e-10	-1.330906e+01	-6.255968e+01
1.440000e-06	-1.875164e-06	-8.414732e-10	-1.300235e+01	-6.178806e+01
1.450000e-06	-1.830944e-06	-8.285006e-10	-1.269573e+01	-6.100635e+01
1.460000e-06	-1.786655e-06	-8.152699e-10	-1.238863e+01	-6.021404e+01
1.470000e-06	-1.742151e-06	-8.014209e-10	-1.208005e+01	-5.941063e+01
1.480000e-06	-1.697516e-06	-7.863903e-10	-1.177055e+01	-5.859556e+01
1.490000e-06	-1.652805e-06	-7.721303e-10	-1.146052e+01	-5.776827e+01
1.500000e-06	-1.607982e-06	-7.589185e-10	-1.114972e+01	-5.692820e+01
1.510000e-06	-1.562983e-06	-7.465571e-10	-1.083770e+01	-5.607475e+01
1.520000e-06	-1.517801e-06	-7.344849e-10	-1.052440e+01	-5.520732e+01
1.530000e-06	-1.472537e-06	-7.247508e-10	-1.021055e+01	-5.432530e+01
1.540000e-06	-1.427281e-06	-7.147415e-10	-9.896738e+00	-5.342809e+01
1.550000e-06	-1.381907e-06	-7.032312e-10	-9.582118e+00	-5.251506e+01
1.560000e-06	-1.336366e-06	-6.864789e-10	-9.266337e+00	-5.158560e+01
1.570000e-06	-1.290704e-06	-6.675450e-10	-8.949718e+00	-5.063910e+01
1.580000e-06	-1.244901e-06	-6.508662e-10	-8.632119e+00	-4.967496e+01
1.590000e-06	-1.199063e-06	-6.348296e-10	-8.314281e+00	-4.869258e+01
1.600000e-06	-1.153159e-06	-6.193876e-10	-7.995982e+00	-4.769138e+01
1.610000e-06	-1.107147e-06	-6.070209e-10	-7.676935e+00	-4.667081e+01
1.620000e-06	-1.061050e-06	-5.925220e-10	-7.357303e+00	-4.563032e+01
1.630000e-06	-1.014810e-06	-5.775061e-10	-7.036676e+00	-4.456941e+01
1.640000e-06	-9.685088e-07	-5.618319e-10	-6.715622e+00	-4.348759e+01
1.650000e-06	-9.221874e-07	-5.457907e-10	-6.394430e+00	-4.238441e+01
1.660000e-06	-8.757675e-07	-5.277118e-10	-6.072556e+00	-4.125945e+01
1.670000e-06	-8.292765e-07	-5.109658e-10	-5.750188e+00	-4.011235e+01
1.680000e-06	-7.827886e-07	-4.971352e-10	-5.427842e+00	-3.894276e+01
1.690000e-06	-7.362812e-07	-4.817163e-10	-5.105361e+00	-3.775040e+01
1.700000e-06	-6.897196e-07	-4.647420e-10	-4.782503e+00	-3.653503e+01
1.710000e-06	-6.430810e-07	-4.447644e-10	-4.459112e+00	-3.529646e+01
1.720000e-06	-5.963065e-07	-4.224947e-10	-4.134778e+00	-3.403457e+01
1.730000e-06	-5.494966e-07	-4.010274e-10	-3.810199e+00	-3.274928e+01
1.740000e-06	-5.027046e-07	-3.813599e-10	-3.485744e+00	-3.144057e+01
1.750000e-06	-4.559403e-07	-3.621670e-10	-3.161482e+00	-3.010849e+01
1.760000e-06	-4.091801e-07	-3.461807e-10	-2.837247e+00	-2.875315e+01
1.770000e-06	-3.623132e-07	-3.299786e-10	-2.512273e+00	-2.737471e+01
1.780000e-06	-3.153048e-07	-3.088115e-10	-2.186318e+00	-2.597342e+01
1.790000e-06	-2.683271e-07	-2.847634e-10	-1.860575e+00	-2.454957e+01
1.800000e-06	-2.214267e-07	-2.635262e-10	-1.535369e+00	-2.310355e+01
1.810000e-06	-1.745571e-07	-2.426109e-10	-1.210376e+00	-2.163577e+01
1.820000e-06	-1.276138e-07	-2.212821e-10	-8.848717e-01	-2.014676e+01
1.830000e-06	-8.058846e-08	-2.016463e-10	-5.587989e-01	-1.863707e+01
1.840000e-06	-3.366844e-08	-1.811826e-10	-2.334564e-01	-1.710735e+01
1.850000e-06	1.315523e-08	-1.581478e-10	9.121813e-02	-1.555829e+01
1.860000e-06	5.995596e-08	-1.347864e-10	4.157336e-01	-1.399065e+01
1.870000e-06	1.068255e-07	-1.108200e-10	7.407260e-01	-1.240527e+01
1.880000e-06	1.537986e-07	-8.694459e-11	1.066437e+00	-1.080302e+01
1.890000e-06	2.007964e-07	-6.536514e-11	1.392319e+00	-9.184848e+00
1.900000e-06	2.477205e-07	-4.504645e-11	1.717690e+00	-7.551747e+00
1.910000e-06	2.946348e-07	-2.528789e-11	2.042993e+00	-5.904766e+00
1.920000e-06	3.415485e-07	-3.887400e-12	2.368291e+00	-4.245001e+00
1.930000e-06	3.884625e-07	2.185511e-11	2.693592e+00	-2.573593e+00
1.940000e-06	4.353558e-07	4.846044e-11	3.018749e+00	-8.917252e-01
1.950000e-06	4.822285e-07	7.183011e-11	3.343764e+00	7.993817e-01
1.960000e-06	5.290236e-07	9.361608e-11	3.668240e+00	2.498473e+00
1.970000e-06	5.756074e-07	1.143776e-10	3.991251e+00	4.204265e+00
1.980000e-06	6.221267e-07	1.358790e-10	4.313816e+00	5.915447e+00
1.990000e-06	6.686240e-07	1.592632e-10	4.636227e+00	7.630690e+00
2.000000e-06	7.151415e-07	1.815246e-10	4.958778e+00	9.348647e+00
2.010000e-06	7.616786e-07	2.047757e-10	5.281466e+00	1.106796e+01
2.020000e-06	8.080847e-07	2.277792e-10	5.603244e+00	1.278726e+01
2.030000e-06	8.543666e-07	2.524250e-10	5.924163e+00	1.450519e+01
2.040000e-06	9.006590e-07	2.796296e-10	6.245153e+00	1.622038e+01
2.050000e-06	9.469508e-07	3.050753e-10	6.566140e+00	1.793147e+01
2.060000e-06	9.930798e-07	3.305774e-10	6.885997e+00	1.963712e+01
2.070000e-06	1.039109e-06	3.548598e-10	7.205163e+00	2.133600e+01
2.080000e-06	1.085055e-06	3.780744e-10	7.523753e+00	2.302680e+01
2.090000e-06	1.130877e-06	4.001760e-10	7.841483e+00	2.470824e+01
2.100000e-06	1.176760e-06	4.231328e-10	8.159633e+00	2.637907e+01
2.110000e-06	1.222574e-06	4.463486e-10	8.477307e+00	2.803808e+01
2.120000e-06	1.268228e-06	4.704925e-10	8.793869e+00	2.968407e+01
2.130000e-06	1.313808e-06	4.934309e-10	9.109922e+00	3.131592e+01
2.140000e-06	1.359308e-06	5.147824e-10	9.425420e+00	3.293252e+01
2.150000e-06	1.404730e-06	5.365338e-10	9.740370e+00	3.453284e+01
2.160000e-06	1.450054e-06	5.571761e-10	1.005465e+01	3.611588e+01
2.170000e-06	1.495263e-06	5.779895e-10	1.036812e+01	3.768071e+01
2.180000e-06	1.540412e-06	6.001399e-10	1.068119e+01	3.922643e+01
2.190000e-06	1.585492e-06	6.221774e-10	1.099377e+01	4.075222e+01
2.200000e-06	1.630323e-06	6.440925e-10	1.130463e+01	4.225733e+01
2.210000e-06	1.675020e-06	6.653024e-10	1.161456e+01	4.374104e+01
2.220000e-06	1.719691e-06	6.835578e-10	1.192431e+01	4.520272e+01
2.230000e-06	1.764197e-06	6.996067e-10	1.223291e+01	4.664180e+01
2.240000e-06	1.808595e-06	7.177323e-10	1.254077e+01	4.805777e+01
2.250000e-06	1.852876e-06	7.371151e-10	1.284781e+01	4.945017e+01
2.260000e-06	1.896949e-06	7.565249e-10	1.315341e+01	5.081865e+01
2.270000e-06	1.940970e-06	7.758417e-10	1.345865e+01	5.216287e+01
2.280000e-06	1.984898e-06	7.946131e-10	1.376325e+01	5.348259e+01
2.290000e-06	2.028737e-06	8.129408e-10	1.406722e+01	5.477763e+01
2.300000e-06	2.072536e-06	8.303558e-10	1.437092e+01	5.604785e+01
2.310000e-06	2.116241e-06	8.455836e-10	1.467398e+01	5.729321e+01
2.320000e-06	2.159789e-06	8.594333e-10	1.497593e+01	5.851368e+01
2.330000e-06	2.203245e-06	8.751049e-10	1.527726e+01	5.970933e+01
2.340000e-06	2.246685e-06	8.913392e-10	1.557847e+01	6.088026e+01
2.350000e-06	2.289982e-06	9.076161e-10	1.587869e+01	6.202663e+01
2.360000e-06	2.333008e-06	9.238454e-10	1.617704e+01	6.314864e+01
2.370000e-06	2.375781e-06	9.410202e-10	1.647362e+01	6.424656e+01
2.380000e-06	2.418336e-06	9.565735e-10	1.676870e+01	6.532069e+01
2.390000e-06	2.460604e-06	9.699326e-10	1.706178e+01	6.637136e+01
2.400000e-06	2.502726e-06	9.822744e-10	1.735386e+01	6.739895e+01
2.410000e-06	2.544592e-06	9.953296e-10	1.764416e+01	6.840388e+01
2.420000e-06	2.585988e-06	1.009376e-09	1.793120e+01	6.938659e+01
2.430000e-06	2.627101e-06	1.024299e-09	1.821627e+01	7.034754e+01
2.440000e-06	2.668009e-06	1.038813e-09	1.849993e+01	7.128723e+01
2.450000e-06	2.708608e-06	1.050610e-09	1.878144e+01	7.220618e+01
2.460000e-06	2.748918e-06	1.061383e-09	1.906095e+01	7.310492e+01
2.470000e-06	2.789042e-06	1.072500e-09	1.933917e+01	7.398399e+01
2.480000e-06	2.829028e-06	1.083781e-09	1.961643e+01	7.484396e+01
2.490000e-06	2.868853e-06	1.094565e-09	1.989258e+01	7.568537e+01
2.500000e-06	2.908536e-06	1.105882e-09	2.016774e+01	7.650880e+01
2.510000e-06	2.948117e-06	1.120441e-09	2.044219e+01	7.731481e+01
2.520000e-06	2.987580e-06	1.135200e-09	2.071582e+01	7.810398e+01
2.530000e-06	3.026951e-06	1.148115e-09	2.098883e+01	7.887685e+01
2.540000e-06	3.066084e-06	1.159883e-09	2.126017e+01	7.963397e+01
2.550000e-06	3.104965e-06	1.168546e-09	2.152977e+01	8.037590e+01
2.560000e-06	3.143708e-06	1.173333e-09	2.179842e+01	8.110315e+01
2.570000e-06	3.182213e-06	1.179130e-09	2.206541e+01	8.181624e+01
2.580000e-06	3.220420e-06	1.189400e-09	2.233034e+01	8.251567e+01
2.590000e-06	3.258411e-06	1.201973e-09	2.259377e+01	8.320192e+01
2.600000e-06	3.296160e-06	1.214949e-09	2.285552e+01	8.387543e+01
2.610000e-06	3.333682e-06	1.226186e-09	2.311569e+01	8.453665e+01
2.620000e-06	3.371001e-06	1.235419e-09	2.337446e+01	8.518599e+01
2.630000e-06	3.408052e-06	1.243748e-09	2.363137e+01	8.582385e+01
2.640000e-06	3.444865e-06	1.251217e-09	2.388663e+01	8.645058e+01
2.650000e-06	3.481456e-06	1.259369e-09	2.414035e+01	8.706654e+01
2.660000e-06	3.517814e-06	1.270969e-09	2.439246e+01	8.767203e+01
2.670000e-06	3.553896e-06	1.283274e-09	2.464265e+01	8.826736e+01
2.680000e-06	3.589804e-06	1.293385e-09	2.489164e+01	8.885279e+01
2.690000e-06	3.625617e-06	1.301869e-09	2.513997e+01	8.942856e+01
2.700000e-06	3.661290e-06	1.309358e-09	2.538732e+01	8.999490e+01
2.710000e-06	3.696729e-06	1.316364e-09	2.563305e+01	9.055201e+01
2.720000e-06	3.731975e-06	1.324090e-09	2.587745e+01	9.110006e+01
2.730000e-06	3.766990e-06	1.331471e-09	2.612024e+01	9.163920e+01
2.740000e-06	3.801699e-06	1.339079e-09	2.636091e+01	9.216958e+01
2.750000e-06	3.836084e-06	1.347013e-09	2.659933e+01	9.269131e+01
2.760000e-06	3.869927e-06	1.354546e-09	2.683400e+01	9.320450e+01
2.770000e-06	3.903188e-06	1.360875e-09	2.706463e+01	9.370921e+01
2.780000e-06	3.935982e-06	1.365589e-09	2.729203e+01	9.420554e+01
2.790000e-06	3.968432e-06	1.372408e-09	2.751703e+01	9.469352e+01
2.800000e-06	4.000643e-06	1.380349e-09	2.774039e+01	9.517322e+01
2.810000e-06	4.032658e-06	1.386321e-09	2.796238e+01	9.564466e+01
2.820000e-06	4.064449e-06	1.392323e-09	2.818282e+01	9.610789e+01
2.830000e-06	4.096052e-06	1.400125e-09	2.840195e+01	9.656291e+01
2.840000e-06	4.127459e-06	1.407639e-09	2.861973e+01	9.700975e+01
2.850000e-06	4.158588e-06	1.412762e-09	2.883558e+01	9.744843e+01
2.860000e-06	4.189515e-06	1.417381e-09	2.905002e+01	9.787896e+01
2.870000e-06	4.220170e-06	1.422596e-09	2.926258e+01	9.830135e+01
2.880000e-06	4.250410e-06	1.428385e-09	2.947226e+01	9.871562e+01
2.890000e-06	4.280304e-06	1.433831e-09	2.967955e+01	9.912180e+01
2.900000e-06	4.309969e-06	1.438501e-09	2.988525e+01	9.951990e+01
