# Temperatura_=_-0.4
# Concentracion g/m^3_=_1620.0
# C_Vs_to_Am_M_A/Vsm_=_65563218390.804596
# pendiente_HvsI_1/m_=_3716.3
# ordenada_HvsI_A/m_=_1297.0
# frecuencia_Hz_=_135096.94138873785

Tiempo_(s)	Campo_(V.s)	Magnetizacion_(V.s)	Campo_(kA/m)	Magnetizacion_(A/m)
0.000000e+00	-5.512612e-06	-1.666823e-09	-3.836054e+01	-1.079425e+02
1.000000e-08	-5.512794e-06	-1.661826e-09	-3.836180e+01	-1.079137e+02
2.000000e-08	-5.512765e-06	-1.657977e-09	-3.836160e+01	-1.078830e+02
3.000000e-08	-5.512416e-06	-1.657185e-09	-3.835917e+01	-1.078504e+02
4.000000e-08	-5.511616e-06	-1.660277e-09	-3.835360e+01	-1.078159e+02
5.000000e-08	-5.510209e-06	-1.669163e-09	-3.834381e+01	-1.077794e+02
6.000000e-08	-5.508179e-06	-1.683339e-09	-3.832969e+01	-1.077410e+02
7.000000e-08	-5.505654e-06	-1.679452e-09	-3.831211e+01	-1.077007e+02
8.000000e-08	-5.502589e-06	-1.633390e-09	-3.829079e+01	-1.076583e+02
9.000000e-08	-5.498944e-06	-1.614770e-09	-3.826542e+01	-1.076139e+02
1.000000e-07	-5.494882e-06	-1.689496e-09	-3.823715e+01	-1.075673e+02
1.100000e-07	-5.490415e-06	-1.750564e-09	-3.820607e+01	-1.075184e+02
1.200000e-07	-5.485687e-06	-1.676668e-09	-3.817317e+01	-1.074672e+02
1.300000e-07	-5.480892e-06	-1.591586e-09	-3.813980e+01	-1.074135e+02
1.400000e-07	-5.475782e-06	-1.652342e-09	-3.810425e+01	-1.073572e+02
1.500000e-07	-5.470160e-06	-1.727428e-09	-3.806512e+01	-1.072981e+02
1.600000e-07	-5.464181e-06	-1.683879e-09	-3.802352e+01	-1.072362e+02
1.700000e-07	-5.457953e-06	-1.596143e-09	-3.798018e+01	-1.071713e+02
1.800000e-07	-5.451282e-06	-1.642214e-09	-3.793375e+01	-1.071032e+02
1.900000e-07	-5.444163e-06	-1.706176e-09	-3.788422e+01	-1.070318e+02
2.000000e-07	-5.436711e-06	-1.675401e-09	-3.783236e+01	-1.069569e+02
2.100000e-07	-5.428994e-06	-1.605857e-09	-3.777866e+01	-1.068783e+02
2.200000e-07	-5.421009e-06	-1.621780e-09	-3.772310e+01	-1.067960e+02
2.300000e-07	-5.412694e-06	-1.662639e-09	-3.766524e+01	-1.067097e+02
2.400000e-07	-5.403988e-06	-1.652273e-09	-3.760465e+01	-1.066193e+02
2.500000e-07	-5.394762e-06	-1.613476e-09	-3.754045e+01	-1.065247e+02
2.600000e-07	-5.384815e-06	-1.609427e-09	-3.747123e+01	-1.064256e+02
2.700000e-07	-5.374148e-06	-1.631305e-09	-3.739700e+01	-1.063220e+02
2.800000e-07	-5.363006e-06	-1.617597e-09	-3.731948e+01	-1.062137e+02
2.900000e-07	-5.351405e-06	-1.592105e-09	-3.723875e+01	-1.061006e+02
3.000000e-07	-5.339409e-06	-1.590580e-09	-3.715527e+01	-1.059826e+02
3.100000e-07	-5.327052e-06	-1.624610e-09	-3.706928e+01	-1.058595e+02
3.200000e-07	-5.314350e-06	-1.614408e-09	-3.698089e+01	-1.057313e+02
3.300000e-07	-5.301248e-06	-1.580875e-09	-3.688972e+01	-1.055979e+02
3.400000e-07	-5.287745e-06	-1.575442e-09	-3.679576e+01	-1.054591e+02
3.500000e-07	-5.273925e-06	-1.610322e-09	-3.669958e+01	-1.053149e+02
3.600000e-07	-5.259680e-06	-1.589860e-09	-3.660046e+01	-1.051653e+02
3.700000e-07	-5.244947e-06	-1.568590e-09	-3.649794e+01	-1.050101e+02
3.800000e-07	-5.229829e-06	-1.594331e-09	-3.639273e+01	-1.048494e+02
3.900000e-07	-5.214161e-06	-1.605613e-09	-3.628370e+01	-1.046831e+02
4.000000e-07	-5.197768e-06	-1.544776e-09	-3.616964e+01	-1.045111e+02
4.100000e-07	-5.181029e-06	-1.557461e-09	-3.605315e+01	-1.043335e+02
4.200000e-07	-5.164073e-06	-1.610031e-09	-3.593516e+01	-1.041502e+02
4.300000e-07	-5.146721e-06	-1.565262e-09	-3.581441e+01	-1.039612e+02
4.400000e-07	-5.129105e-06	-1.515379e-09	-3.569183e+01	-1.037665e+02
4.500000e-07	-5.111305e-06	-1.581775e-09	-3.556796e+01	-1.035661e+02
4.600000e-07	-5.093086e-06	-1.594581e-09	-3.544118e+01	-1.033601e+02
4.700000e-07	-5.074274e-06	-1.515119e-09	-3.531028e+01	-1.031484e+02
4.800000e-07	-5.055050e-06	-1.533315e-09	-3.517650e+01	-1.029312e+02
4.900000e-07	-5.035580e-06	-1.581841e-09	-3.504102e+01	-1.027083e+02
5.000000e-07	-5.015888e-06	-1.525205e-09	-3.490399e+01	-1.024799e+02
5.100000e-07	-4.996007e-06	-1.505133e-09	-3.476564e+01	-1.022459e+02
5.200000e-07	-4.975842e-06	-1.563823e-09	-3.462532e+01	-1.020065e+02
5.300000e-07	-4.955302e-06	-1.525946e-09	-3.448238e+01	-1.017616e+02
5.400000e-07	-4.934428e-06	-1.477491e-09	-3.433713e+01	-1.015113e+02
5.500000e-07	-4.913195e-06	-1.534612e-09	-3.418938e+01	-1.012556e+02
5.600000e-07	-4.891585e-06	-1.545791e-09	-3.403900e+01	-1.009946e+02
5.700000e-07	-4.869627e-06	-1.479148e-09	-3.388620e+01	-1.007283e+02
5.800000e-07	-4.847321e-06	-1.501802e-09	-3.373098e+01	-1.004568e+02
5.900000e-07	-4.824733e-06	-1.529966e-09	-3.357380e+01	-1.001800e+02
6.000000e-07	-4.801774e-06	-1.476593e-09	-3.341404e+01	-9.989809e+01
6.100000e-07	-4.778485e-06	-1.471316e-09	-3.325197e+01	-9.961102e+01
6.200000e-07	-4.754952e-06	-1.516666e-09	-3.308822e+01	-9.931884e+01
6.300000e-07	-4.731151e-06	-1.487268e-09	-3.292259e+01	-9.902159e+01
6.400000e-07	-4.707181e-06	-1.466750e-09	-3.275580e+01	-9.871929e+01
6.500000e-07	-4.682951e-06	-1.494038e-09	-3.258719e+01	-9.841197e+01
6.600000e-07	-4.658370e-06	-1.476040e-09	-3.241613e+01	-9.809966e+01
6.700000e-07	-4.633252e-06	-1.439408e-09	-3.224134e+01	-9.778237e+01
6.800000e-07	-4.607540e-06	-1.458225e-09	-3.206243e+01	-9.746013e+01
6.900000e-07	-4.581367e-06	-1.457154e-09	-3.188029e+01	-9.713295e+01
7.000000e-07	-4.554661e-06	-1.430571e-09	-3.169446e+01	-9.680084e+01
7.100000e-07	-4.527530e-06	-1.440883e-09	-3.150566e+01	-9.646382e+01
7.200000e-07	-4.500110e-06	-1.447494e-09	-3.131485e+01	-9.612189e+01
7.300000e-07	-4.472406e-06	-1.419994e-09	-3.112207e+01	-9.577507e+01
7.400000e-07	-4.444526e-06	-1.415814e-09	-3.092806e+01	-9.542336e+01
7.500000e-07	-4.416486e-06	-1.419868e-09	-3.073293e+01	-9.506675e+01
7.600000e-07	-4.388198e-06	-1.399948e-09	-3.053609e+01	-9.470525e+01
7.700000e-07	-4.359582e-06	-1.394475e-09	-3.033696e+01	-9.433886e+01
7.800000e-07	-4.330623e-06	-1.402552e-09	-3.013544e+01	-9.396758e+01
7.900000e-07	-4.301346e-06	-1.386935e-09	-2.993171e+01	-9.359140e+01
8.000000e-07	-4.271760e-06	-1.371706e-09	-2.972584e+01	-9.321031e+01
8.100000e-07	-4.241960e-06	-1.375918e-09	-2.951847e+01	-9.282431e+01
8.200000e-07	-4.211903e-06	-1.361042e-09	-2.930931e+01	-9.243339e+01
8.300000e-07	-4.181539e-06	-1.341171e-09	-2.909801e+01	-9.203754e+01
8.400000e-07	-4.150850e-06	-1.344789e-09	-2.888446e+01	-9.163674e+01
8.500000e-07	-4.119870e-06	-1.346951e-09	-2.866888e+01	-9.123100e+01
8.600000e-07	-4.088616e-06	-1.332656e-09	-2.845139e+01	-9.082029e+01
8.700000e-07	-4.057099e-06	-1.330719e-09	-2.823208e+01	-9.040460e+01
8.800000e-07	-4.025389e-06	-1.330894e-09	-2.801142e+01	-8.998392e+01
8.900000e-07	-3.993512e-06	-1.315869e-09	-2.778959e+01	-8.955823e+01
9.000000e-07	-3.961472e-06	-1.301732e-09	-2.756664e+01	-8.912751e+01
9.100000e-07	-3.929198e-06	-1.300799e-09	-2.734205e+01	-8.869176e+01
9.200000e-07	-3.896549e-06	-1.289113e-09	-2.711486e+01	-8.825095e+01
9.300000e-07	-3.863467e-06	-1.275020e-09	-2.688465e+01	-8.780507e+01
9.400000e-07	-3.830074e-06	-1.277198e-09	-2.665228e+01	-8.735409e+01
9.500000e-07	-3.796261e-06	-1.277855e-09	-2.641698e+01	-8.689800e+01
9.600000e-07	-3.761855e-06	-1.261816e-09	-2.617757e+01	-8.643678e+01
9.700000e-07	-3.727066e-06	-1.252394e-09	-2.593548e+01	-8.597041e+01
9.800000e-07	-3.691971e-06	-1.248165e-09	-2.569127e+01	-8.549886e+01
9.900000e-07	-3.656537e-06	-1.235768e-09	-2.544469e+01	-8.502213e+01
1.000000e-06	-3.620926e-06	-1.226145e-09	-2.519689e+01	-8.454017e+01
1.010000e-06	-3.585265e-06	-1.226689e-09	-2.494873e+01	-8.405298e+01
1.020000e-06	-3.549502e-06	-1.221542e-09	-2.469987e+01	-8.356053e+01
1.030000e-06	-3.513535e-06	-1.211865e-09	-2.444959e+01	-8.306279e+01
1.040000e-06	-3.477374e-06	-1.207211e-09	-2.419795e+01	-8.255974e+01
1.050000e-06	-3.440935e-06	-1.201830e-09	-2.394438e+01	-8.205135e+01
1.060000e-06	-3.404176e-06	-1.191461e-09	-2.368859e+01	-8.153761e+01
1.070000e-06	-3.367142e-06	-1.182762e-09	-2.343088e+01	-8.101848e+01
1.080000e-06	-3.329812e-06	-1.175942e-09	-2.317111e+01	-8.049394e+01
1.090000e-06	-3.292208e-06	-1.165810e-09	-2.290944e+01	-7.996396e+01
1.100000e-06	-3.254484e-06	-1.157054e-09	-2.264693e+01	-7.942851e+01
1.110000e-06	-3.216589e-06	-1.150100e-09	-2.238323e+01	-7.888757e+01
1.120000e-06	-3.178405e-06	-1.140141e-09	-2.211752e+01	-7.834111e+01
1.130000e-06	-3.140026e-06	-1.128226e-09	-2.185045e+01	-7.778909e+01
1.140000e-06	-3.101414e-06	-1.120873e-09	-2.158177e+01	-7.723149e+01
1.150000e-06	-3.062582e-06	-1.113249e-09	-2.131154e+01	-7.666827e+01
1.160000e-06	-3.023624e-06	-1.105699e-09	-2.104045e+01	-7.609941e+01
1.170000e-06	-2.984503e-06	-1.099038e-09	-2.076821e+01	-7.552486e+01
1.180000e-06	-2.945145e-06	-1.090267e-09	-2.049434e+01	-7.494460e+01
1.190000e-06	-2.905542e-06	-1.078326e-09	-2.021875e+01	-7.435857e+01
1.200000e-06	-2.865822e-06	-1.065875e-09	-1.994236e+01	-7.376675e+01
1.210000e-06	-2.826083e-06	-1.053643e-09	-1.966582e+01	-7.316908e+01
1.220000e-06	-2.786199e-06	-1.042393e-09	-1.938828e+01	-7.256552e+01
1.230000e-06	-2.746131e-06	-1.030458e-09	-1.910947e+01	-7.195601e+01
1.240000e-06	-2.705937e-06	-1.021929e-09	-1.882977e+01	-7.134051e+01
1.250000e-06	-2.665570e-06	-1.014635e-09	-1.854887e+01	-7.071894e+01
1.260000e-06	-2.625023e-06	-1.008564e-09	-1.826671e+01	-7.009124e+01
1.270000e-06	-2.584278e-06	-9.987928e-10	-1.798318e+01	-6.945733e+01
1.280000e-06	-2.543243e-06	-9.858968e-10	-1.769763e+01	-6.881714e+01
1.290000e-06	-2.501803e-06	-9.742410e-10	-1.740926e+01	-6.817057e+01
1.300000e-06	-2.459967e-06	-9.613192e-10	-1.711814e+01	-6.751752e+01
1.310000e-06	-2.417888e-06	-9.475795e-10	-1.682532e+01	-6.685788e+01
1.320000e-06	-2.375575e-06	-9.364952e-10	-1.653088e+01	-6.619153e+01
1.330000e-06	-2.333049e-06	-9.287339e-10	-1.623495e+01	-6.551834e+01
1.340000e-06	-2.290250e-06	-9.198078e-10	-1.593713e+01	-6.483817e+01
1.350000e-06	-2.247074e-06	-9.098207e-10	-1.563668e+01	-6.415085e+01
1.360000e-06	-2.203717e-06	-8.995851e-10	-1.533497e+01	-6.345621e+01
1.370000e-06	-2.160266e-06	-8.880445e-10	-1.503261e+01	-6.275406e+01
1.380000e-06	-2.116735e-06	-8.756243e-10	-1.472969e+01	-6.204420e+01
1.390000e-06	-2.073105e-06	-8.629725e-10	-1.442608e+01	-6.132641e+01
1.400000e-06	-2.029333e-06	-8.500092e-10	-1.412149e+01	-6.060045e+01
1.410000e-06	-1.985504e-06	-8.371216e-10	-1.381650e+01	-5.986607e+01
1.420000e-06	-1.941574e-06	-8.227667e-10	-1.351080e+01	-5.912298e+01
1.430000e-06	-1.897556e-06	-8.098151e-10	-1.320449e+01	-5.837090e+01
1.440000e-06	-1.853521e-06	-7.975821e-10	-1.289807e+01	-5.760952e+01
1.450000e-06	-1.809384e-06	-7.864757e-10	-1.259094e+01	-5.683850e+01
1.460000e-06	-1.765106e-06	-7.748174e-10	-1.228282e+01	-5.605750e+01
1.470000e-06	-1.720704e-06	-7.629038e-10	-1.197384e+01	-5.526616e+01
1.480000e-06	-1.676159e-06	-7.502832e-10	-1.166387e+01	-5.446408e+01
1.490000e-06	-1.631491e-06	-7.383385e-10	-1.135303e+01	-5.365086e+01
1.500000e-06	-1.586694e-06	-7.271367e-10	-1.104131e+01	-5.282609e+01
1.510000e-06	-1.541754e-06	-7.148851e-10	-1.072858e+01	-5.198934e+01
1.520000e-06	-1.496785e-06	-7.018828e-10	-1.041565e+01	-5.114016e+01
1.530000e-06	-1.451682e-06	-6.890794e-10	-1.010180e+01	-5.027808e+01
1.540000e-06	-1.406400e-06	-6.767452e-10	-9.786694e+00	-4.940265e+01
1.550000e-06	-1.361112e-06	-6.638734e-10	-9.471551e+00	-4.851337e+01
1.560000e-06	-1.315744e-06	-6.512265e-10	-9.155852e+00	-4.760976e+01
1.570000e-06	-1.270248e-06	-6.411304e-10	-8.839260e+00	-4.669134e+01
1.580000e-06	-1.224693e-06	-6.301973e-10	-8.522252e+00	-4.575761e+01
1.590000e-06	-1.179069e-06	-6.148115e-10	-8.204767e+00	-4.480807e+01
1.600000e-06	-1.133337e-06	-5.980295e-10	-7.886537e+00	-4.384225e+01
1.610000e-06	-1.087521e-06	-5.789893e-10	-7.567713e+00	-4.285965e+01
1.620000e-06	-1.041627e-06	-5.576598e-10	-7.248358e+00	-4.185980e+01
1.630000e-06	-9.956603e-07	-5.398090e-10	-6.928487e+00	-4.084225e+01
1.640000e-06	-9.496636e-07	-5.274554e-10	-6.608410e+00	-3.980654e+01
1.650000e-06	-9.035721e-07	-5.165132e-10	-6.287674e+00	-3.875226e+01
1.660000e-06	-8.573795e-07	-5.039479e-10	-5.966235e+00	-3.767901e+01
1.670000e-06	-8.111618e-07	-4.886227e-10	-5.644620e+00	-3.658640e+01
1.680000e-06	-7.648173e-07	-4.698220e-10	-5.322123e+00	-3.547410e+01
1.690000e-06	-7.184044e-07	-4.488703e-10	-4.999150e+00	-3.434179e+01
1.700000e-06	-6.719915e-07	-4.280093e-10	-4.676177e+00	-3.318920e+01
1.710000e-06	-6.255510e-07	-4.077695e-10	-4.353013e+00	-3.201611e+01
1.720000e-06	-5.791651e-07	-3.889773e-10	-4.030228e+00	-3.082231e+01
1.730000e-06	-5.326970e-07	-3.724442e-10	-3.706871e+00	-2.960768e+01
1.740000e-06	-4.860420e-07	-3.573928e-10	-3.382213e+00	-2.837212e+01
1.750000e-06	-4.394199e-07	-3.401187e-10	-3.057785e+00	-2.711559e+01
1.760000e-06	-3.928287e-07	-3.204601e-10	-2.733572e+00	-2.583811e+01
1.770000e-06	-3.461157e-07	-3.002408e-10	-2.408511e+00	-2.453977e+01
1.780000e-06	-2.993948e-07	-2.806834e-10	-2.083394e+00	-2.322071e+01
1.790000e-06	-2.527484e-07	-2.625403e-10	-1.758797e+00	-2.188112e+01
1.800000e-06	-2.060856e-07	-2.470124e-10	-1.434085e+00	-2.052127e+01
1.810000e-06	-1.593252e-07	-2.296786e-10	-1.108694e+00	-1.914150e+01
1.820000e-06	-1.125374e-07	-2.098808e-10	-7.831125e-01	-1.774220e+01
1.830000e-06	-6.580522e-08	-1.899161e-10	-4.579179e-01	-1.632384e+01
1.840000e-06	-1.909607e-08	-1.675960e-10	-1.328835e-01	-1.488695e+01
1.850000e-06	2.760296e-08	-1.453129e-10	1.920803e-01	-1.343214e+01
1.860000e-06	7.436567e-08	-1.262115e-10	5.174873e-01	-1.196007e+01
1.870000e-06	1.212607e-07	-1.054640e-10	8.438149e-01	-1.047148e+01
1.880000e-06	1.680672e-07	-8.255226e-11	1.169527e+00	-8.967155e+00
1.890000e-06	2.147506e-07	-6.163087e-11	1.494382e+00	-7.447966e+00
1.900000e-06	2.614740e-07	-4.261900e-11	1.819515e+00	-5.914829e+00
1.910000e-06	3.082228e-07	-2.182960e-11	2.144826e+00	-4.368721e+00
1.920000e-06	3.549051e-07	2.507314e-12	2.469673e+00	-2.810674e+00
1.930000e-06	4.015325e-07	2.784600e-11	2.794139e+00	-1.241771e+00
1.940000e-06	4.481486e-07	5.276443e-11	3.118525e+00	3.368565e-01
1.950000e-06	4.946758e-07	7.600755e-11	3.442293e+00	1.924036e+00
1.960000e-06	5.411124e-07	9.801171e-11	3.765431e+00	3.518553e+00
1.970000e-06	5.875120e-07	1.184878e-10	4.088312e+00	5.119160e+00
1.980000e-06	6.338454e-07	1.383643e-10	4.410731e+00	6.724581e+00
1.990000e-06	6.802142e-07	1.571237e-10	4.733397e+00	8.333513e+00
2.000000e-06	7.266271e-07	1.762924e-10	5.056370e+00	9.944635e+00
2.010000e-06	7.728513e-07	2.011325e-10	5.378029e+00	1.155661e+01
2.020000e-06	8.190254e-07	2.274367e-10	5.699340e+00	1.316810e+01
2.030000e-06	8.652598e-07	2.547339e-10	6.021071e+00	1.477776e+01
2.040000e-06	9.114014e-07	2.826422e-10	6.342156e+00	1.638424e+01
2.050000e-06	9.574527e-07	3.058007e-10	6.662612e+00	1.798621e+01
2.060000e-06	1.003438e-06	3.260320e-10	6.982606e+00	1.958235e+01
2.070000e-06	1.049390e-06	3.447308e-10	7.302372e+00	2.117135e+01
2.080000e-06	1.095319e-06	3.644033e-10	7.621980e+00	2.275196e+01
2.090000e-06	1.141143e-06	3.871616e-10	7.940855e+00	2.432291e+01
2.100000e-06	1.186825e-06	4.128555e-10	8.258745e+00	2.588301e+01
2.110000e-06	1.232474e-06	4.373153e-10	8.576402e+00	2.743108e+01
2.120000e-06	1.278053e-06	4.592921e-10	8.893566e+00	2.896600e+01
2.130000e-06	1.323486e-06	4.798502e-10	9.209722e+00	3.048671e+01
2.140000e-06	1.368828e-06	5.000749e-10	9.525244e+00	3.199217e+01
2.150000e-06	1.414024e-06	5.183964e-10	9.839746e+00	3.348143e+01
2.160000e-06	1.459092e-06	5.351365e-10	1.015337e+01	3.495359e+01
2.170000e-06	1.504088e-06	5.539957e-10	1.046648e+01	3.640780e+01
2.180000e-06	1.549001e-06	5.749330e-10	1.077901e+01	3.784329e+01
2.190000e-06	1.593807e-06	5.976667e-10	1.109080e+01	3.925936e+01
2.200000e-06	1.638563e-06	6.198388e-10	1.140224e+01	4.065537e+01
2.210000e-06	1.683158e-06	6.378584e-10	1.171257e+01	4.203075e+01
2.220000e-06	1.727467e-06	6.532219e-10	1.202090e+01	4.338501e+01
2.230000e-06	1.771735e-06	6.678650e-10	1.232894e+01	4.471773e+01
2.240000e-06	1.816027e-06	6.830238e-10	1.263716e+01	4.602855e+01
2.250000e-06	1.860153e-06	7.009668e-10	1.294422e+01	4.731720e+01
2.260000e-06	1.904191e-06	7.223040e-10	1.325067e+01	4.858345e+01
2.270000e-06	1.948170e-06	7.415130e-10	1.355670e+01	4.982717e+01
2.280000e-06	1.992009e-06	7.569371e-10	1.386176e+01	5.104828e+01
2.290000e-06	2.035781e-06	7.723483e-10	1.416636e+01	5.224676e+01
2.300000e-06	2.079515e-06	7.867307e-10	1.447069e+01	5.342266e+01
2.310000e-06	2.123176e-06	7.999556e-10	1.477452e+01	5.457608e+01
2.320000e-06	2.166744e-06	8.157969e-10	1.507769e+01	5.570719e+01
2.330000e-06	2.210222e-06	8.353751e-10	1.538024e+01	5.681620e+01
2.340000e-06	2.253540e-06	8.546689e-10	1.568168e+01	5.790338e+01
2.350000e-06	2.296638e-06	8.691332e-10	1.598158e+01	5.896901e+01
2.360000e-06	2.339366e-06	8.803247e-10	1.627891e+01	6.001345e+01
2.370000e-06	2.381859e-06	8.921012e-10	1.657461e+01	6.103708e+01
2.380000e-06	2.424081e-06	9.045692e-10	1.686842e+01	6.204031e+01
2.390000e-06	2.465878e-06	9.193432e-10	1.715927e+01	6.302359e+01
2.400000e-06	2.507430e-06	9.337309e-10	1.744841e+01	6.398736e+01
2.410000e-06	2.548717e-06	9.489996e-10	1.773572e+01	6.493211e+01
2.420000e-06	2.589734e-06	9.649112e-10	1.802114e+01	6.585834e+01
2.430000e-06	2.630559e-06	9.791112e-10	1.830524e+01	6.676656e+01
2.440000e-06	2.671168e-06	9.911408e-10	1.858782e+01	6.765726e+01
2.450000e-06	2.711501e-06	1.000828e-09	1.886848e+01	6.853097e+01
2.460000e-06	2.751614e-06	1.010524e-09	1.914762e+01	6.938819e+01
2.470000e-06	2.791595e-06	1.020741e-09	1.942583e+01	7.022944e+01
2.480000e-06	2.831512e-06	1.030368e-09	1.970360e+01	7.105520e+01
2.490000e-06	2.871266e-06	1.040082e-09	1.998024e+01	7.186597e+01
2.500000e-06	2.910871e-06	1.052658e-09	2.025584e+01	7.266222e+01
2.510000e-06	2.950416e-06	1.068247e-09	2.053102e+01	7.344440e+01
2.520000e-06	2.989780e-06	1.082706e-09	2.080494e+01	7.421295e+01
2.530000e-06	3.028907e-06	1.096211e-09	2.107721e+01	7.496828e+01
2.540000e-06	3.067756e-06	1.109282e-09	2.134755e+01	7.571078e+01
2.550000e-06	3.106265e-06	1.119938e-09	2.161552e+01	7.644084e+01
2.560000e-06	3.144607e-06	1.126903e-09	2.188233e+01	7.715878e+01
2.570000e-06	3.182826e-06	1.132194e-09	2.214828e+01	7.786494e+01
2.580000e-06	3.220750e-06	1.142468e-09	2.241218e+01	7.855960e+01
2.590000e-06	3.258454e-06	1.156839e-09	2.267455e+01	7.924304e+01
2.600000e-06	3.296042e-06	1.171700e-09	2.293612e+01	7.991551e+01
2.610000e-06	3.333460e-06	1.184945e-09	2.319650e+01	8.057721e+01
2.620000e-06	3.370585e-06	1.195118e-09	2.345484e+01	8.122835e+01
2.630000e-06	3.407416e-06	1.203615e-09	2.371114e+01	8.186911e+01
2.640000e-06	3.444075e-06	1.210411e-09	2.396623e+01	8.249963e+01
2.650000e-06	3.480516e-06	1.216821e-09	2.421981e+01	8.312005e+01
2.660000e-06	3.516731e-06	1.226509e-09	2.447183e+01	8.373048e+01
2.670000e-06	3.552748e-06	1.237542e-09	2.472245e+01	8.433103e+01
2.680000e-06	3.588650e-06	1.247051e-09	2.497229e+01	8.492177e+01
2.690000e-06	3.624458e-06	1.253433e-09	2.522146e+01	8.550278e+01
2.700000e-06	3.660075e-06	1.258169e-09	2.546931e+01	8.607412e+01
2.710000e-06	3.695450e-06	1.264845e-09	2.571547e+01	8.663584e+01
2.720000e-06	3.730561e-06	1.272984e-09	2.595980e+01	8.718800e+01
2.730000e-06	3.765350e-06	1.279908e-09	2.620189e+01	8.773062e+01
2.740000e-06	3.799681e-06	1.286719e-09	2.644078e+01	8.826375e+01
2.750000e-06	3.833504e-06	1.293526e-09	2.667615e+01	8.878742e+01
2.760000e-06	3.866823e-06	1.299243e-09	2.690800e+01	8.930169e+01
2.770000e-06	3.899633e-06	1.303759e-09	2.713632e+01	8.980658e+01
2.780000e-06	3.932073e-06	1.308478e-09	2.736206e+01	9.030215e+01
2.790000e-06	3.964299e-06	1.314860e-09	2.758631e+01	9.078845e+01
2.800000e-06	3.996342e-06	1.321103e-09	2.780929e+01	9.126555e+01
2.810000e-06	4.028175e-06	1.327131e-09	2.803080e+01	9.173350e+01
2.820000e-06	4.059826e-06	1.332794e-09	2.825105e+01	9.219239e+01
2.830000e-06	4.091346e-06	1.339129e-09	2.847039e+01	9.264230e+01
2.840000e-06	4.122652e-06	1.345926e-09	2.868824e+01	9.308333e+01
2.850000e-06	4.153699e-06	1.349225e-09	2.890429e+01	9.351560e+01
2.860000e-06	4.184438e-06	1.352750e-09	2.911819e+01	9.393921e+01
2.870000e-06	4.214846e-06	1.358392e-09	2.932979e+01	9.435430e+01
2.880000e-06	4.244949e-06	1.362709e-09	2.953927e+01	9.476102e+01
2.890000e-06	4.274823e-06	1.367239e-09	2.974715e+01	9.515950e+01
2.900000e-06	4.304353e-06	1.372157e-09	2.995264e+01	9.554991e+01
