# Temperatura_=_-0.3
# Concentracion g/m^3_=_1620.0
# C_Vs_to_Am_M_A/Vsm_=_65563218390.804596
# pendiente_HvsI_1/m_=_3716.3
# ordenada_HvsI_A/m_=_1297.0
# frecuencia_Hz_=_135093.9368000923

Tiempo_(s)	Campo_(V.s)	Magnetizacion_(V.s)	Campo_(kA/m)	Magnetizacion_(A/m)
0.000000e+00	-5.520161e-06	-1.685763e-09	-3.838005e+01	-1.080540e+02
1.000000e-08	-5.520517e-06	-1.680216e-09	-3.838252e+01	-1.079928e+02
2.000000e-08	-5.520618e-06	-1.676337e-09	-3.838323e+01	-1.079283e+02
3.000000e-08	-5.520321e-06	-1.675224e-09	-3.838117e+01	-1.078606e+02
4.000000e-08	-5.519516e-06	-1.676738e-09	-3.837557e+01	-1.077898e+02
5.000000e-08	-5.518280e-06	-1.677741e-09	-3.836697e+01	-1.077163e+02
6.000000e-08	-5.516494e-06	-1.678165e-09	-3.835456e+01	-1.076402e+02
7.000000e-08	-5.514069e-06	-1.679217e-09	-3.833770e+01	-1.075616e+02
8.000000e-08	-5.511043e-06	-1.684486e-09	-3.831666e+01	-1.074808e+02
9.000000e-08	-5.507463e-06	-1.683155e-09	-3.829177e+01	-1.073979e+02
1.000000e-07	-5.503498e-06	-1.671190e-09	-3.826420e+01	-1.073130e+02
1.100000e-07	-5.499242e-06	-1.664527e-09	-3.823461e+01	-1.072263e+02
1.200000e-07	-5.494756e-06	-1.683284e-09	-3.820342e+01	-1.071379e+02
1.300000e-07	-5.490050e-06	-1.687462e-09	-3.817070e+01	-1.070479e+02
1.400000e-07	-5.485093e-06	-1.644878e-09	-3.813624e+01	-1.069564e+02
1.500000e-07	-5.479673e-06	-1.643411e-09	-3.809855e+01	-1.068634e+02
1.600000e-07	-5.473772e-06	-1.681663e-09	-3.805752e+01	-1.067691e+02
1.700000e-07	-5.467561e-06	-1.699274e-09	-3.801434e+01	-1.066735e+02
1.800000e-07	-5.460962e-06	-1.643178e-09	-3.796846e+01	-1.065765e+02
1.900000e-07	-5.453969e-06	-1.602901e-09	-3.791984e+01	-1.064782e+02
2.000000e-07	-5.446634e-06	-1.622751e-09	-3.786884e+01	-1.063786e+02
2.100000e-07	-5.439027e-06	-1.644813e-09	-3.781595e+01	-1.062777e+02
2.200000e-07	-5.431131e-06	-1.636195e-09	-3.776105e+01	-1.061753e+02
2.300000e-07	-5.422922e-06	-1.610500e-09	-3.770398e+01	-1.060715e+02
2.400000e-07	-5.414323e-06	-1.604404e-09	-3.764419e+01	-1.059661e+02
2.500000e-07	-5.405137e-06	-1.594536e-09	-3.758032e+01	-1.058590e+02
2.600000e-07	-5.395210e-06	-1.575878e-09	-3.751131e+01	-1.057502e+02
2.700000e-07	-5.384702e-06	-1.563031e-09	-3.743824e+01	-1.056395e+02
2.800000e-07	-5.373773e-06	-1.584128e-09	-3.736226e+01	-1.055267e+02
2.900000e-07	-5.362374e-06	-1.587182e-09	-3.728301e+01	-1.054117e+02
3.000000e-07	-5.350610e-06	-1.576617e-09	-3.720121e+01	-1.052943e+02
3.100000e-07	-5.338525e-06	-1.571770e-09	-3.711719e+01	-1.051743e+02
3.200000e-07	-5.326090e-06	-1.578012e-09	-3.703073e+01	-1.050515e+02
3.300000e-07	-5.313200e-06	-1.567079e-09	-3.694112e+01	-1.049258e+02
3.400000e-07	-5.299865e-06	-1.550827e-09	-3.684840e+01	-1.047969e+02
3.500000e-07	-5.286116e-06	-1.544333e-09	-3.675280e+01	-1.046645e+02
3.600000e-07	-5.271890e-06	-1.556823e-09	-3.665390e+01	-1.045286e+02
3.700000e-07	-5.257242e-06	-1.561368e-09	-3.655205e+01	-1.043887e+02
3.800000e-07	-5.242203e-06	-1.551177e-09	-3.644749e+01	-1.042448e+02
3.900000e-07	-5.226578e-06	-1.540525e-09	-3.633886e+01	-1.040966e+02
4.000000e-07	-5.210517e-06	-1.542040e-09	-3.622719e+01	-1.039439e+02
4.100000e-07	-5.194103e-06	-1.532140e-09	-3.611307e+01	-1.037865e+02
4.200000e-07	-5.177229e-06	-1.525179e-09	-3.599575e+01	-1.036240e+02
4.300000e-07	-5.160073e-06	-1.542358e-09	-3.587647e+01	-1.034564e+02
4.400000e-07	-5.142617e-06	-1.542589e-09	-3.575510e+01	-1.032835e+02
4.500000e-07	-5.124786e-06	-1.514883e-09	-3.563113e+01	-1.031050e+02
4.600000e-07	-5.106533e-06	-1.510479e-09	-3.550422e+01	-1.029208e+02
4.700000e-07	-5.087796e-06	-1.531675e-09	-3.537395e+01	-1.027306e+02
4.800000e-07	-5.068754e-06	-1.508770e-09	-3.524155e+01	-1.025345e+02
4.900000e-07	-5.049483e-06	-1.491385e-09	-3.510756e+01	-1.023321e+02
5.000000e-07	-5.029882e-06	-1.511512e-09	-3.497129e+01	-1.021235e+02
5.100000e-07	-5.010096e-06	-1.506796e-09	-3.483372e+01	-1.019085e+02
5.200000e-07	-4.990111e-06	-1.472793e-09	-3.469477e+01	-1.016870e+02
5.300000e-07	-4.969712e-06	-1.490931e-09	-3.455294e+01	-1.014589e+02
5.400000e-07	-4.948955e-06	-1.503136e-09	-3.440863e+01	-1.012242e+02
5.500000e-07	-4.927881e-06	-1.469441e-09	-3.426211e+01	-1.009829e+02
5.600000e-07	-4.906389e-06	-1.465128e-09	-3.411268e+01	-1.007350e+02
5.700000e-07	-4.884582e-06	-1.492315e-09	-3.396106e+01	-1.004804e+02
5.800000e-07	-4.862454e-06	-1.466533e-09	-3.380721e+01	-1.002192e+02
5.900000e-07	-4.839902e-06	-1.445011e-09	-3.365042e+01	-9.995141e+01
6.000000e-07	-4.817021e-06	-1.466976e-09	-3.349133e+01	-9.967713e+01
6.100000e-07	-4.793821e-06	-1.465912e-09	-3.333003e+01	-9.939642e+01
6.200000e-07	-4.770382e-06	-1.440844e-09	-3.316706e+01	-9.910937e+01
6.300000e-07	-4.746756e-06	-1.453655e-09	-3.300279e+01	-9.881609e+01
6.400000e-07	-4.722892e-06	-1.460005e-09	-3.283687e+01	-9.851670e+01
6.500000e-07	-4.698716e-06	-1.435007e-09	-3.266879e+01	-9.821132e+01
6.600000e-07	-4.673970e-06	-1.428395e-09	-3.249673e+01	-9.790012e+01
6.700000e-07	-4.648774e-06	-1.433301e-09	-3.232155e+01	-9.758323e+01
6.800000e-07	-4.623123e-06	-1.418050e-09	-3.214321e+01	-9.726083e+01
6.900000e-07	-4.596842e-06	-1.409573e-09	-3.196049e+01	-9.693307e+01
7.000000e-07	-4.570090e-06	-1.420746e-09	-3.177449e+01	-9.660014e+01
7.100000e-07	-4.542960e-06	-1.415703e-09	-3.158586e+01	-9.626220e+01
7.200000e-07	-4.515560e-06	-1.405193e-09	-3.139536e+01	-9.591942e+01
7.300000e-07	-4.487965e-06	-1.407773e-09	-3.120350e+01	-9.557199e+01
7.400000e-07	-4.460229e-06	-1.402220e-09	-3.101066e+01	-9.522007e+01
7.500000e-07	-4.432292e-06	-1.385926e-09	-3.081642e+01	-9.486383e+01
7.600000e-07	-4.404064e-06	-1.381994e-09	-3.062016e+01	-9.450342e+01
7.700000e-07	-4.375557e-06	-1.380989e-09	-3.042196e+01	-9.413900e+01
7.800000e-07	-4.346683e-06	-1.373742e-09	-3.022120e+01	-9.377071e+01
7.900000e-07	-4.317529e-06	-1.368005e-09	-3.001851e+01	-9.339866e+01
8.000000e-07	-4.288149e-06	-1.365041e-09	-2.981424e+01	-9.302299e+01
8.100000e-07	-4.258496e-06	-1.351520e-09	-2.960807e+01	-9.264378e+01
8.200000e-07	-4.228531e-06	-1.338981e-09	-2.939973e+01	-9.226113e+01
8.300000e-07	-4.198214e-06	-1.332088e-09	-2.918894e+01	-9.187510e+01
8.400000e-07	-4.167555e-06	-1.324014e-09	-2.897578e+01	-9.148574e+01
8.500000e-07	-4.136551e-06	-1.314937e-09	-2.876022e+01	-9.109308e+01
8.600000e-07	-4.105319e-06	-1.315499e-09	-2.854307e+01	-9.069714e+01
8.700000e-07	-4.073892e-06	-1.314759e-09	-2.832457e+01	-9.029791e+01
8.800000e-07	-4.042331e-06	-1.307199e-09	-2.810514e+01	-8.989536e+01
8.900000e-07	-4.010566e-06	-1.301091e-09	-2.788429e+01	-8.948945e+01
9.000000e-07	-3.978563e-06	-1.292914e-09	-2.766178e+01	-8.908011e+01
9.100000e-07	-3.946370e-06	-1.277431e-09	-2.743795e+01	-8.866727e+01
9.200000e-07	-3.913831e-06	-1.269015e-09	-2.721171e+01	-8.825082e+01
9.300000e-07	-3.880897e-06	-1.265321e-09	-2.698274e+01	-8.783064e+01
9.400000e-07	-3.847534e-06	-1.260280e-09	-2.675077e+01	-8.740661e+01
9.500000e-07	-3.813659e-06	-1.255440e-09	-2.651525e+01	-8.697856e+01
9.600000e-07	-3.779297e-06	-1.254035e-09	-2.627634e+01	-8.654634e+01
9.700000e-07	-3.744536e-06	-1.244571e-09	-2.603466e+01	-8.610977e+01
9.800000e-07	-3.709416e-06	-1.231196e-09	-2.579048e+01	-8.566868e+01
9.900000e-07	-3.674093e-06	-1.224714e-09	-2.554489e+01	-8.522285e+01
1.000000e-06	-3.638642e-06	-1.219231e-09	-2.529840e+01	-8.477210e+01
1.010000e-06	-3.603035e-06	-1.212257e-09	-2.505084e+01	-8.431622e+01
1.020000e-06	-3.567323e-06	-1.209505e-09	-2.480254e+01	-8.385499e+01
1.030000e-06	-3.531454e-06	-1.209018e-09	-2.455316e+01	-8.338822e+01
1.040000e-06	-3.495377e-06	-1.201623e-09	-2.430232e+01	-8.291568e+01
1.050000e-06	-3.459031e-06	-1.192873e-09	-2.404962e+01	-8.243718e+01
1.060000e-06	-3.422386e-06	-1.185934e-09	-2.379484e+01	-8.195251e+01
1.070000e-06	-3.385480e-06	-1.176760e-09	-2.353824e+01	-8.146148e+01
1.080000e-06	-3.348379e-06	-1.164244e-09	-2.328029e+01	-8.096390e+01
1.090000e-06	-3.311022e-06	-1.157287e-09	-2.302056e+01	-8.045960e+01
1.100000e-06	-3.273365e-06	-1.150073e-09	-2.275874e+01	-7.994842e+01
1.110000e-06	-3.235471e-06	-1.139649e-09	-2.249527e+01	-7.943021e+01
1.120000e-06	-3.197345e-06	-1.131397e-09	-2.223020e+01	-7.890483e+01
1.130000e-06	-3.159004e-06	-1.125455e-09	-2.196362e+01	-7.837216e+01
1.140000e-06	-3.120427e-06	-1.115127e-09	-2.169541e+01	-7.783211e+01
1.150000e-06	-3.081578e-06	-1.105699e-09	-2.142530e+01	-7.728459e+01
1.160000e-06	-3.042587e-06	-1.097821e-09	-2.115421e+01	-7.672953e+01
1.170000e-06	-3.003445e-06	-1.088642e-09	-2.088207e+01	-7.616689e+01
1.180000e-06	-2.964072e-06	-1.078481e-09	-2.060832e+01	-7.559664e+01
1.190000e-06	-2.924548e-06	-1.070573e-09	-2.033352e+01	-7.501876e+01
1.200000e-06	-2.884899e-06	-1.062427e-09	-2.005785e+01	-7.443325e+01
1.210000e-06	-2.845126e-06	-1.053494e-09	-1.978132e+01	-7.384016e+01
1.220000e-06	-2.805302e-06	-1.043634e-09	-1.950444e+01	-7.323949e+01
1.230000e-06	-2.765374e-06	-1.032820e-09	-1.922683e+01	-7.263132e+01
1.240000e-06	-2.725236e-06	-1.022363e-09	-1.894776e+01	-7.201570e+01
1.250000e-06	-2.684860e-06	-1.014099e-09	-1.866704e+01	-7.139271e+01
1.260000e-06	-2.644227e-06	-1.006986e-09	-1.838453e+01	-7.076243e+01
1.270000e-06	-2.603292e-06	-9.984191e-10	-1.809992e+01	-7.012494e+01
1.280000e-06	-2.561994e-06	-9.890778e-10	-1.781279e+01	-6.948035e+01
1.290000e-06	-2.520523e-06	-9.780223e-10	-1.752445e+01	-6.882874e+01
1.300000e-06	-2.478817e-06	-9.667314e-10	-1.723448e+01	-6.817020e+01
1.310000e-06	-2.436721e-06	-9.520031e-10	-1.694180e+01	-6.750483e+01
1.320000e-06	-2.394344e-06	-9.373402e-10	-1.664717e+01	-6.683270e+01
1.330000e-06	-2.351628e-06	-9.269074e-10	-1.635018e+01	-6.615388e+01
1.340000e-06	-2.308599e-06	-9.172830e-10	-1.605101e+01	-6.546844e+01
1.350000e-06	-2.265400e-06	-9.082848e-10	-1.575066e+01	-6.477640e+01
1.360000e-06	-2.222056e-06	-8.987538e-10	-1.544930e+01	-6.407780e+01
1.370000e-06	-2.178621e-06	-8.878680e-10	-1.514731e+01	-6.337263e+01
1.380000e-06	-2.135145e-06	-8.758567e-10	-1.484503e+01	-6.266086e+01
1.390000e-06	-2.091566e-06	-8.617449e-10	-1.454204e+01	-6.194245e+01
1.400000e-06	-2.047896e-06	-8.477772e-10	-1.423841e+01	-6.121730e+01
1.410000e-06	-2.004132e-06	-8.358601e-10	-1.393414e+01	-6.048531e+01
1.420000e-06	-1.960289e-06	-8.251642e-10	-1.362931e+01	-5.974632e+01
1.430000e-06	-1.916456e-06	-8.140601e-10	-1.332455e+01	-5.900015e+01
1.440000e-06	-1.872512e-06	-8.016210e-10	-1.301902e+01	-5.824656e+01
1.450000e-06	-1.828340e-06	-7.899144e-10	-1.271191e+01	-5.748531e+01
1.460000e-06	-1.784041e-06	-7.800258e-10	-1.240391e+01	-5.671609e+01
1.470000e-06	-1.739517e-06	-7.698243e-10	-1.209435e+01	-5.593855e+01
1.480000e-06	-1.694889e-06	-7.577292e-10	-1.178407e+01	-5.515231e+01
1.490000e-06	-1.650255e-06	-7.467873e-10	-1.147374e+01	-5.435696e+01
1.500000e-06	-1.605432e-06	-7.369970e-10	-1.116210e+01	-5.355202e+01
1.510000e-06	-1.560444e-06	-7.247214e-10	-1.084931e+01	-5.273701e+01
1.520000e-06	-1.515328e-06	-7.114787e-10	-1.053563e+01	-5.191139e+01
1.530000e-06	-1.470106e-06	-6.957832e-10	-1.022121e+01	-5.107459e+01
1.540000e-06	-1.424819e-06	-6.810168e-10	-9.906344e+00	-5.022601e+01
1.550000e-06	-1.379490e-06	-6.682299e-10	-9.591189e+00	-4.936502e+01
1.560000e-06	-1.334137e-06	-6.557482e-10	-9.275860e+00	-4.849097e+01
1.570000e-06	-1.288703e-06	-6.430447e-10	-8.959973e+00	-4.760317e+01
1.580000e-06	-1.243069e-06	-6.308782e-10	-8.642691e+00	-4.670094e+01
1.590000e-06	-1.197330e-06	-6.142949e-10	-8.324684e+00	-4.578356e+01
1.600000e-06	-1.151609e-06	-5.957198e-10	-8.006798e+00	-4.485031e+01
1.610000e-06	-1.105864e-06	-5.793051e-10	-7.688745e+00	-4.390047e+01
1.620000e-06	-1.059980e-06	-5.621644e-10	-7.369731e+00	-4.293333e+01
1.630000e-06	-1.013967e-06	-5.457384e-10	-7.049811e+00	-4.194815e+01
1.640000e-06	-9.678582e-07	-5.334120e-10	-6.729233e+00	-4.094424e+01
1.650000e-06	-9.216271e-07	-5.232056e-10	-6.407801e+00	-3.992090e+01
1.660000e-06	-8.753027e-07	-5.101605e-10	-6.085722e+00	-3.887748e+01
1.670000e-06	-8.289429e-07	-4.928281e-10	-5.763396e+00	-3.781332e+01
1.680000e-06	-7.826079e-07	-4.736703e-10	-5.441242e+00	-3.672783e+01
1.690000e-06	-7.362083e-07	-4.552649e-10	-5.118639e+00	-3.562045e+01
1.700000e-06	-6.897562e-07	-4.354972e-10	-4.795672e+00	-3.449065e+01
1.710000e-06	-6.432983e-07	-4.175080e-10	-4.472663e+00	-3.333796e+01
1.720000e-06	-5.967221e-07	-3.994832e-10	-4.148833e+00	-3.216199e+01
1.730000e-06	-5.501047e-07	-3.841994e-10	-3.824716e+00	-3.096236e+01
1.740000e-06	-5.035621e-07	-3.682189e-10	-3.501119e+00	-2.973880e+01
1.750000e-06	-4.568789e-07	-3.506486e-10	-3.176544e+00	-2.849110e+01
1.760000e-06	-4.101155e-07	-3.314769e-10	-2.851412e+00	-2.721911e+01
1.770000e-06	-3.633913e-07	-3.105219e-10	-2.526552e+00	-2.592277e+01
1.780000e-06	-3.166457e-07	-2.840201e-10	-2.201545e+00	-2.460211e+01
1.790000e-06	-2.698900e-07	-2.593595e-10	-1.876465e+00	-2.325722e+01
1.800000e-06	-2.231045e-07	-2.415347e-10	-1.551180e+00	-2.188829e+01
1.810000e-06	-1.762658e-07	-2.274858e-10	-1.225524e+00	-2.049560e+01
1.820000e-06	-1.294196e-07	-2.156544e-10	-8.998162e-01	-1.907952e+01
1.830000e-06	-8.263445e-08	-1.980126e-10	-5.745330e-01	-1.764051e+01
1.840000e-06	-3.573509e-08	-1.763567e-10	-2.484556e-01	-1.617911e+01
1.850000e-06	1.113457e-08	-1.498467e-10	7.741540e-02	-1.469597e+01
1.860000e-06	5.795645e-08	-1.240053e-10	4.029541e-01	-1.319180e+01
1.870000e-06	1.048262e-07	-9.810007e-11	7.288256e-01	-1.166743e+01
1.880000e-06	1.517041e-07	-7.748728e-11	1.054754e+00	-1.012375e+01
1.890000e-06	1.985527e-07	-6.306281e-11	1.380478e+00	-8.561745e+00
1.900000e-06	2.453265e-07	-5.213508e-11	1.705683e+00	-6.982474e+00
1.910000e-06	2.921407e-07	-3.734238e-11	2.031168e+00	-5.387074e+00
1.920000e-06	3.390361e-07	-1.585354e-11	2.357218e+00	-3.776752e+00
1.930000e-06	3.859416e-07	1.181048e-11	2.683339e+00	-2.152782e+00
1.940000e-06	4.326685e-07	4.254775e-11	3.008216e+00	-5.164981e-01
1.950000e-06	4.792900e-07	7.102426e-11	3.332362e+00	1.130709e+00
1.960000e-06	5.259457e-07	9.355676e-11	3.656746e+00	2.787401e+00
1.970000e-06	5.724972e-07	1.090844e-10	3.980404e+00	4.452093e+00
1.980000e-06	6.188800e-07	1.231529e-10	4.302891e+00	6.123267e+00
1.990000e-06	6.652534e-07	1.403851e-10	4.625311e+00	7.799374e+00
2.000000e-06	7.116654e-07	1.604261e-10	4.948000e+00	9.478840e+00
2.010000e-06	7.579859e-07	1.848251e-10	5.270052e+00	1.116008e+01
2.020000e-06	8.042408e-07	2.122050e-10	5.591649e+00	1.284149e+01
2.030000e-06	8.505383e-07	2.415965e-10	5.913542e+00	1.452149e+01
2.040000e-06	8.967888e-07	2.734475e-10	6.235108e+00	1.619847e+01
2.050000e-06	9.429063e-07	2.987340e-10	6.555749e+00	1.787086e+01
2.060000e-06	9.889468e-07	3.152503e-10	6.875856e+00	1.953711e+01
2.070000e-06	1.034960e-06	3.280100e-10	7.195769e+00	2.119568e+01
2.080000e-06	1.080914e-06	3.425488e-10	7.515277e+00	2.284508e+01
2.090000e-06	1.126778e-06	3.642437e-10	7.834155e+00	2.448385e+01
2.100000e-06	1.172549e-06	3.929976e-10	8.152388e+00	2.611059e+01
2.110000e-06	1.218263e-06	4.245727e-10	8.470221e+00	2.772393e+01
2.120000e-06	1.263865e-06	4.543109e-10	8.787279e+00	2.932259e+01
2.130000e-06	1.309274e-06	4.759923e-10	9.102994e+00	3.090533e+01
2.140000e-06	1.354667e-06	4.908006e-10	9.418600e+00	3.247097e+01
2.150000e-06	1.399979e-06	5.030928e-10	9.733639e+00	3.401843e+01
2.160000e-06	1.445176e-06	5.168227e-10	1.004789e+01	3.554668e+01
2.170000e-06	1.490366e-06	5.362418e-10	1.036207e+01	3.705478e+01
2.180000e-06	1.535465e-06	5.600467e-10	1.067563e+01	3.854188e+01
2.190000e-06	1.580461e-06	5.882923e-10	1.098848e+01	4.000718e+01
2.200000e-06	1.625211e-06	6.176099e-10	1.129961e+01	4.145001e+01
2.210000e-06	1.669801e-06	6.382968e-10	1.160964e+01	4.286974e+01
2.220000e-06	1.714311e-06	6.511715e-10	1.191910e+01	4.426586e+01
2.230000e-06	1.758698e-06	6.598410e-10	1.222771e+01	4.563793e+01
2.240000e-06	1.802951e-06	6.710509e-10	1.253539e+01	4.698559e+01
2.250000e-06	1.847020e-06	6.870525e-10	1.284179e+01	4.830858e+01
2.260000e-06	1.890972e-06	7.089030e-10	1.314737e+01	4.960671e+01
2.270000e-06	1.934825e-06	7.328978e-10	1.345227e+01	5.087986e+01
2.280000e-06	1.978628e-06	7.541430e-10	1.375682e+01	5.212802e+01
2.290000e-06	2.022401e-06	7.707359e-10	1.406116e+01	5.335121e+01
2.300000e-06	2.066108e-06	7.833440e-10	1.436504e+01	5.454955e+01
2.310000e-06	2.109705e-06	7.937783e-10	1.466816e+01	5.572322e+01
2.320000e-06	2.153242e-06	8.067496e-10	1.497086e+01	5.687246e+01
2.330000e-06	2.196725e-06	8.233162e-10	1.527318e+01	5.799757e+01
2.340000e-06	2.240094e-06	8.413337e-10	1.557471e+01	5.909890e+01
2.350000e-06	2.283268e-06	8.583823e-10	1.587489e+01	6.017685e+01
2.360000e-06	2.326291e-06	8.741623e-10	1.617402e+01	6.123187e+01
2.370000e-06	2.369121e-06	8.871144e-10	1.647180e+01	6.226444e+01
2.380000e-06	2.411683e-06	8.974859e-10	1.676772e+01	6.327508e+01
2.390000e-06	2.454003e-06	9.082897e-10	1.706196e+01	6.426433e+01
2.400000e-06	2.495998e-06	9.207871e-10	1.735394e+01	6.523275e+01
2.410000e-06	2.537534e-06	9.357922e-10	1.764272e+01	6.618094e+01
2.420000e-06	2.578689e-06	9.515861e-10	1.792887e+01	6.710949e+01
2.430000e-06	2.619632e-06	9.673673e-10	1.821353e+01	6.801901e+01
2.440000e-06	2.660315e-06	9.814392e-10	1.849639e+01	6.891010e+01
2.450000e-06	2.700724e-06	9.914693e-10	1.877734e+01	6.978338e+01
2.460000e-06	2.740951e-06	9.986326e-10	1.905703e+01	7.063944e+01
2.470000e-06	2.781031e-06	1.006690e-09	1.933569e+01	7.147889e+01
2.480000e-06	2.820899e-06	1.017535e-09	1.961288e+01	7.230231e+01
2.490000e-06	2.860562e-06	1.031057e-09	1.988865e+01	7.311025e+01
2.500000e-06	2.900127e-06	1.046927e-09	2.016373e+01	7.390326e+01
2.510000e-06	2.939600e-06	1.063414e-09	2.043817e+01	7.468187e+01
2.520000e-06	2.978916e-06	1.076333e-09	2.071152e+01	7.544657e+01
2.530000e-06	3.018118e-06	1.085236e-09	2.098408e+01	7.619783e+01
2.540000e-06	3.057087e-06	1.090833e-09	2.125502e+01	7.693610e+01
2.550000e-06	3.095740e-06	1.096708e-09	2.152376e+01	7.766179e+01
2.560000e-06	3.134230e-06	1.103471e-09	2.179138e+01	7.837528e+01
2.570000e-06	3.172576e-06	1.112707e-09	2.205799e+01	7.907692e+01
2.580000e-06	3.210653e-06	1.126869e-09	2.232272e+01	7.976704e+01
2.590000e-06	3.248515e-06	1.144094e-09	2.258596e+01	8.044592e+01
2.600000e-06	3.286237e-06	1.158582e-09	2.284823e+01	8.111381e+01
2.610000e-06	3.323679e-06	1.168065e-09	2.310856e+01	8.177095e+01
2.620000e-06	3.360828e-06	1.174565e-09	2.336684e+01	8.241754e+01
2.630000e-06	3.397751e-06	1.180024e-09	2.362356e+01	8.305374e+01
2.640000e-06	3.434454e-06	1.185139e-09	2.387875e+01	8.367969e+01
2.650000e-06	3.470870e-06	1.193073e-09	2.413194e+01	8.429552e+01
2.660000e-06	3.506971e-06	1.205663e-09	2.438294e+01	8.490132e+01
2.670000e-06	3.542928e-06	1.220236e-09	2.463294e+01	8.549716e+01
2.680000e-06	3.578731e-06	1.233685e-09	2.488186e+01	8.608310e+01
2.690000e-06	3.614398e-06	1.243005e-09	2.512984e+01	8.665919e+01
2.700000e-06	3.649976e-06	1.244701e-09	2.537721e+01	8.722544e+01
2.710000e-06	3.685384e-06	1.244369e-09	2.562339e+01	8.778187e+01
2.720000e-06	3.720523e-06	1.248264e-09	2.586770e+01	8.832848e+01
2.730000e-06	3.755442e-06	1.255469e-09	2.611048e+01	8.886528e+01
2.740000e-06	3.790143e-06	1.265357e-09	2.635175e+01	8.939225e+01
2.750000e-06	3.824369e-06	1.275846e-09	2.658971e+01	8.990940e+01
2.760000e-06	3.858111e-06	1.285670e-09	2.682431e+01	9.041670e+01
2.770000e-06	3.891363e-06	1.292519e-09	2.705550e+01	9.091416e+01
2.780000e-06	3.924100e-06	1.296175e-09	2.728311e+01	9.140177e+01
2.790000e-06	3.956438e-06	1.300566e-09	2.750795e+01	9.187955e+01
2.800000e-06	3.988493e-06	1.304733e-09	2.773082e+01	9.234749e+01
2.810000e-06	4.020366e-06	1.308764e-09	2.795242e+01	9.280564e+01
2.820000e-06	4.052052e-06	1.316455e-09	2.817272e+01	9.325402e+01
2.830000e-06	4.083532e-06	1.325436e-09	2.839159e+01	9.369268e+01
2.840000e-06	4.114792e-06	1.334982e-09	2.860894e+01	9.412168e+01
2.850000e-06	4.145883e-06	1.342385e-09	2.882510e+01	9.454110e+01
2.860000e-06	4.176714e-06	1.346693e-09	2.903946e+01	9.495101e+01
2.870000e-06	4.207206e-06	1.349701e-09	2.925147e+01	9.535154e+01
2.880000e-06	4.237336e-06	1.354220e-09	2.946095e+01	9.574280e+01
2.890000e-06	4.267185e-06	1.359726e-09	2.966848e+01	9.612491e+01
2.900000e-06	4.296740e-06	1.364946e-09	2.987397e+01	9.649804e+01
