# Temperatura_=_-0.5
# Concentracion g/m^3_=_1620.0
# C_Vs_to_Am_M_A/Vsm_=_65563218390.804596
# pendiente_HvsI_1/m_=_3716.3
# ordenada_HvsI_A/m_=_1297.0
# frecuencia_Hz_=_135092.32996647127

Tiempo_(s)	Campo_(V.s)	Magnetizacion_(V.s)	Campo_(kA/m)	Magnetizacion_(A/m)
0.000000e+00	-5.509665e-06	-1.414072e-09	-3.837922e+01	-9.114631e+01
1.000000e-08	-5.509739e-06	-1.409689e-09	-3.837973e+01	-9.112663e+01
2.000000e-08	-5.509410e-06	-1.409166e-09	-3.837744e+01	-9.110506e+01
3.000000e-08	-5.508691e-06	-1.411503e-09	-3.837243e+01	-9.108152e+01
4.000000e-08	-5.507514e-06	-1.414063e-09	-3.836424e+01	-9.105594e+01
5.000000e-08	-5.505644e-06	-1.416099e-09	-3.835121e+01	-9.102822e+01
6.000000e-08	-5.503197e-06	-1.418742e-09	-3.833416e+01	-9.099828e+01
7.000000e-08	-5.500309e-06	-1.414522e-09	-3.831405e+01	-9.096603e+01
8.000000e-08	-5.496947e-06	-1.421342e-09	-3.829062e+01	-9.093139e+01
9.000000e-08	-5.493165e-06	-1.424961e-09	-3.826428e+01	-9.089425e+01
1.000000e-07	-5.488992e-06	-1.439157e-09	-3.823521e+01	-9.085454e+01
1.100000e-07	-5.484508e-06	-1.412239e-09	-3.820398e+01	-9.081216e+01
1.200000e-07	-5.479892e-06	-1.406393e-09	-3.817182e+01	-9.076703e+01
1.300000e-07	-5.475016e-06	-1.404810e-09	-3.813786e+01	-9.071905e+01
1.400000e-07	-5.469626e-06	-1.420333e-09	-3.810032e+01	-9.066815e+01
1.500000e-07	-5.463845e-06	-1.395372e-09	-3.806004e+01	-9.061424e+01
1.600000e-07	-5.457852e-06	-1.411985e-09	-3.801830e+01	-9.055724e+01
1.700000e-07	-5.451438e-06	-1.395152e-09	-3.797362e+01	-9.049708e+01
1.800000e-07	-5.444545e-06	-1.431567e-09	-3.792560e+01	-9.043368e+01
1.900000e-07	-5.437277e-06	-1.392347e-09	-3.787498e+01	-9.036697e+01
2.000000e-07	-5.429716e-06	-1.397098e-09	-3.782231e+01	-9.029689e+01
2.100000e-07	-5.421821e-06	-1.378242e-09	-3.776731e+01	-9.022337e+01
2.200000e-07	-5.413732e-06	-1.396039e-09	-3.771097e+01	-9.014635e+01
2.300000e-07	-5.405353e-06	-1.383630e-09	-3.765260e+01	-9.006578e+01
2.400000e-07	-5.396305e-06	-1.364302e-09	-3.758957e+01	-8.998160e+01
2.500000e-07	-5.386449e-06	-1.354388e-09	-3.752092e+01	-8.989377e+01
2.600000e-07	-5.375935e-06	-1.348185e-09	-3.744768e+01	-8.980225e+01
2.700000e-07	-5.364953e-06	-1.350938e-09	-3.737118e+01	-8.970699e+01
2.800000e-07	-5.353552e-06	-1.327199e-09	-3.729176e+01	-8.960797e+01
2.900000e-07	-5.341886e-06	-1.331245e-09	-3.721051e+01	-8.950515e+01
3.000000e-07	-5.329886e-06	-1.310293e-09	-3.712692e+01	-8.939851e+01
3.100000e-07	-5.317424e-06	-1.329244e-09	-3.704011e+01	-8.928802e+01
3.200000e-07	-5.304501e-06	-1.292839e-09	-3.695009e+01	-8.917367e+01
3.300000e-07	-5.291147e-06	-1.315221e-09	-3.685707e+01	-8.905545e+01
3.400000e-07	-5.277420e-06	-1.292025e-09	-3.676145e+01	-8.893335e+01
3.500000e-07	-5.263240e-06	-1.313397e-09	-3.666267e+01	-8.880737e+01
3.600000e-07	-5.248554e-06	-1.282038e-09	-3.656037e+01	-8.867750e+01
3.700000e-07	-5.233489e-06	-1.301378e-09	-3.645543e+01	-8.854377e+01
3.800000e-07	-5.217916e-06	-1.285510e-09	-3.634695e+01	-8.840617e+01
3.900000e-07	-5.201850e-06	-1.295326e-09	-3.623504e+01	-8.826473e+01
4.000000e-07	-5.185402e-06	-1.280038e-09	-3.612046e+01	-8.811947e+01
4.100000e-07	-5.168622e-06	-1.293251e-09	-3.600358e+01	-8.797041e+01
4.200000e-07	-5.151472e-06	-1.282102e-09	-3.588412e+01	-8.781758e+01
4.300000e-07	-5.133953e-06	-1.281886e-09	-3.576208e+01	-8.766102e+01
4.400000e-07	-5.116198e-06	-1.272397e-09	-3.563841e+01	-8.750078e+01
4.500000e-07	-5.098048e-06	-1.278954e-09	-3.551198e+01	-8.733688e+01
4.600000e-07	-5.079290e-06	-1.274147e-09	-3.538132e+01	-8.716939e+01
4.700000e-07	-5.060216e-06	-1.272658e-09	-3.524845e+01	-8.699835e+01
4.800000e-07	-5.040953e-06	-1.266790e-09	-3.511427e+01	-8.682383e+01
4.900000e-07	-5.021387e-06	-1.270833e-09	-3.497797e+01	-8.664588e+01
5.000000e-07	-5.001661e-06	-1.265926e-09	-3.484056e+01	-8.646457e+01
5.100000e-07	-4.981717e-06	-1.253985e-09	-3.470164e+01	-8.627996e+01
5.200000e-07	-4.961394e-06	-1.252053e-09	-3.456007e+01	-8.609214e+01
5.300000e-07	-4.940657e-06	-1.252899e-09	-3.441562e+01	-8.590116e+01
5.400000e-07	-4.919557e-06	-1.251140e-09	-3.426864e+01	-8.570710e+01
5.500000e-07	-4.898185e-06	-1.244995e-09	-3.411977e+01	-8.551005e+01
5.600000e-07	-4.876557e-06	-1.257138e-09	-3.396911e+01	-8.531008e+01
5.700000e-07	-4.854480e-06	-1.250479e-09	-3.381533e+01	-8.510726e+01
5.800000e-07	-4.831987e-06	-1.248096e-09	-3.365865e+01	-8.490167e+01
5.900000e-07	-4.809240e-06	-1.240083e-09	-3.350020e+01	-8.469339e+01
6.000000e-07	-4.786175e-06	-1.240570e-09	-3.333953e+01	-8.448250e+01
6.100000e-07	-4.762825e-06	-1.224125e-09	-3.317688e+01	-8.426906e+01
6.200000e-07	-4.739237e-06	-1.230487e-09	-3.301257e+01	-8.405314e+01
6.300000e-07	-4.715346e-06	-1.226266e-09	-3.284615e+01	-8.383482e+01
6.400000e-07	-4.691137e-06	-1.228170e-09	-3.267752e+01	-8.361414e+01
6.500000e-07	-4.666520e-06	-1.221869e-09	-3.250604e+01	-8.339117e+01
6.600000e-07	-4.641364e-06	-1.229124e-09	-3.233081e+01	-8.316596e+01
6.700000e-07	-4.615869e-06	-1.216171e-09	-3.215322e+01	-8.293854e+01
6.800000e-07	-4.590008e-06	-1.215954e-09	-3.197307e+01	-8.270896e+01
6.900000e-07	-4.563422e-06	-1.210770e-09	-3.178788e+01	-8.247723e+01
7.000000e-07	-4.536251e-06	-1.211815e-09	-3.159861e+01	-8.224337e+01
7.100000e-07	-4.508905e-06	-1.201184e-09	-3.140813e+01	-8.200739e+01
7.200000e-07	-4.481423e-06	-1.205479e-09	-3.121669e+01	-8.176929e+01
7.300000e-07	-4.453770e-06	-1.201716e-09	-3.102407e+01	-8.152905e+01
7.400000e-07	-4.425913e-06	-1.198909e-09	-3.083002e+01	-8.128665e+01
7.500000e-07	-4.397792e-06	-1.192795e-09	-3.063413e+01	-8.104204e+01
7.600000e-07	-4.369370e-06	-1.191736e-09	-3.043615e+01	-8.079519e+01
7.700000e-07	-4.340582e-06	-1.182194e-09	-3.023562e+01	-8.054603e+01
7.800000e-07	-4.311426e-06	-1.175119e-09	-3.003253e+01	-8.029449e+01
7.900000e-07	-4.281999e-06	-1.169846e-09	-2.982754e+01	-8.004048e+01
8.000000e-07	-4.252375e-06	-1.162207e-09	-2.962119e+01	-7.978391e+01
8.100000e-07	-4.222452e-06	-1.156382e-09	-2.941275e+01	-7.952467e+01
8.200000e-07	-4.192208e-06	-1.152489e-09	-2.920208e+01	-7.926264e+01
8.300000e-07	-4.161684e-06	-1.151376e-09	-2.898945e+01	-7.899768e+01
8.400000e-07	-4.130825e-06	-1.143164e-09	-2.877450e+01	-7.872967e+01
8.500000e-07	-4.099613e-06	-1.138497e-09	-2.855708e+01	-7.845845e+01
8.600000e-07	-4.068208e-06	-1.129879e-09	-2.833832e+01	-7.818386e+01
8.700000e-07	-4.036701e-06	-1.124737e-09	-2.811884e+01	-7.790573e+01
8.800000e-07	-4.005035e-06	-1.116879e-09	-2.789827e+01	-7.762391e+01
8.900000e-07	-3.973131e-06	-1.116460e-09	-2.767603e+01	-7.733819e+01
9.000000e-07	-3.941003e-06	-1.107254e-09	-2.745224e+01	-7.704842e+01
9.100000e-07	-3.908664e-06	-1.101500e-09	-2.722697e+01	-7.675440e+01
9.200000e-07	-3.875960e-06	-1.091068e-09	-2.699916e+01	-7.645594e+01
9.300000e-07	-3.842861e-06	-1.087804e-09	-2.676860e+01	-7.615286e+01
9.400000e-07	-3.809201e-06	-1.078256e-09	-2.653413e+01	-7.584498e+01
9.500000e-07	-3.775082e-06	-1.075616e-09	-2.629646e+01	-7.553211e+01
9.600000e-07	-3.740607e-06	-1.068752e-09	-2.605632e+01	-7.521407e+01
9.700000e-07	-3.705662e-06	-1.065709e-09	-2.581290e+01	-7.489069e+01
9.800000e-07	-3.670406e-06	-1.059590e-09	-2.556731e+01	-7.456181e+01
9.900000e-07	-3.634967e-06	-1.059201e-09	-2.532045e+01	-7.422726e+01
1.000000e-06	-3.599376e-06	-1.054457e-09	-2.507253e+01	-7.388691e+01
1.010000e-06	-3.563645e-06	-1.050730e-09	-2.482363e+01	-7.354061e+01
1.020000e-06	-3.527807e-06	-1.044557e-09	-2.457399e+01	-7.318823e+01
1.030000e-06	-3.491796e-06	-1.039420e-09	-2.432315e+01	-7.282967e+01
1.040000e-06	-3.455507e-06	-1.034063e-09	-2.407037e+01	-7.246483e+01
1.050000e-06	-3.418870e-06	-1.031230e-09	-2.381516e+01	-7.209361e+01
1.060000e-06	-3.381966e-06	-1.025440e-09	-2.355809e+01	-7.171597e+01
1.070000e-06	-3.344897e-06	-1.015910e-09	-2.329988e+01	-7.133183e+01
1.080000e-06	-3.307551e-06	-1.007643e-09	-2.303974e+01	-7.094117e+01
1.090000e-06	-3.269931e-06	-1.000908e-09	-2.277768e+01	-7.054396e+01
1.100000e-06	-3.232124e-06	-9.944641e-10	-2.251432e+01	-7.014020e+01
1.110000e-06	-3.194142e-06	-9.899340e-10	-2.224975e+01	-6.972989e+01
1.120000e-06	-3.155941e-06	-9.869223e-10	-2.198365e+01	-6.931307e+01
1.130000e-06	-3.117421e-06	-9.794837e-10	-2.171533e+01	-6.888978e+01
1.140000e-06	-3.078770e-06	-9.734550e-10	-2.144609e+01	-6.846006e+01
1.150000e-06	-3.040024e-06	-9.678924e-10	-2.117620e+01	-6.802398e+01
1.160000e-06	-3.001079e-06	-9.646716e-10	-2.090491e+01	-6.758162e+01
1.170000e-06	-2.961936e-06	-9.579733e-10	-2.063225e+01	-6.713306e+01
1.180000e-06	-2.922497e-06	-9.552214e-10	-2.035752e+01	-6.667840e+01
1.190000e-06	-2.882878e-06	-9.491464e-10	-2.008155e+01	-6.621774e+01
1.200000e-06	-2.843257e-06	-9.411203e-10	-1.980556e+01	-6.575117e+01
1.210000e-06	-2.803537e-06	-9.321385e-10	-1.952887e+01	-6.527882e+01
1.220000e-06	-2.763640e-06	-9.261277e-10	-1.925096e+01	-6.480077e+01
1.230000e-06	-2.723637e-06	-9.157087e-10	-1.897231e+01	-6.431713e+01
1.240000e-06	-2.683413e-06	-9.090062e-10	-1.869212e+01	-6.382800e+01
1.250000e-06	-2.642909e-06	-9.041669e-10	-1.840998e+01	-6.333347e+01
1.260000e-06	-2.602084e-06	-9.009185e-10	-1.812559e+01	-6.283361e+01
1.270000e-06	-2.561001e-06	-8.953211e-10	-1.783942e+01	-6.232849e+01
1.280000e-06	-2.519634e-06	-8.899707e-10	-1.755127e+01	-6.181815e+01
1.290000e-06	-2.477971e-06	-8.813654e-10	-1.726105e+01	-6.130263e+01
1.300000e-06	-2.435960e-06	-8.711205e-10	-1.696841e+01	-6.078194e+01
1.310000e-06	-2.393626e-06	-8.615832e-10	-1.667352e+01	-6.025607e+01
1.320000e-06	-2.351076e-06	-8.549601e-10	-1.637712e+01	-5.972496e+01
1.330000e-06	-2.308248e-06	-8.470518e-10	-1.607879e+01	-5.918857e+01
1.340000e-06	-2.265221e-06	-8.391683e-10	-1.577907e+01	-5.864678e+01
1.350000e-06	-2.221938e-06	-8.313578e-10	-1.547757e+01	-5.809949e+01
1.360000e-06	-2.178499e-06	-8.228188e-10	-1.517499e+01	-5.754651e+01
1.370000e-06	-2.135075e-06	-8.117728e-10	-1.487250e+01	-5.698767e+01
1.380000e-06	-2.091599e-06	-8.013358e-10	-1.456966e+01	-5.642273e+01
1.390000e-06	-2.047994e-06	-7.900334e-10	-1.426591e+01	-5.585142e+01
1.400000e-06	-2.004312e-06	-7.781979e-10	-1.396164e+01	-5.527345e+01
1.410000e-06	-1.960563e-06	-7.670963e-10	-1.365689e+01	-5.468847e+01
1.420000e-06	-1.916659e-06	-7.583937e-10	-1.335106e+01	-5.409610e+01
1.430000e-06	-1.872665e-06	-7.514015e-10	-1.304461e+01	-5.349595e+01
1.440000e-06	-1.828672e-06	-7.418812e-10	-1.273816e+01	-5.288755e+01
1.450000e-06	-1.784598e-06	-7.332812e-10	-1.243115e+01	-5.227043e+01
1.460000e-06	-1.740356e-06	-7.241562e-10	-1.212297e+01	-5.164407e+01
1.470000e-06	-1.695919e-06	-7.140810e-10	-1.181343e+01	-5.100793e+01
1.480000e-06	-1.651273e-06	-7.033750e-10	-1.150243e+01	-5.036143e+01
1.490000e-06	-1.606484e-06	-6.939233e-10	-1.119045e+01	-4.970398e+01
1.500000e-06	-1.561534e-06	-6.825532e-10	-1.087733e+01	-4.903494e+01
1.510000e-06	-1.516499e-06	-6.706838e-10	-1.056362e+01	-4.835368e+01
1.520000e-06	-1.471455e-06	-6.572175e-10	-1.024986e+01	-4.765952e+01
1.530000e-06	-1.426261e-06	-6.457291e-10	-9.935049e+00	-4.695181e+01
1.540000e-06	-1.380997e-06	-6.336098e-10	-9.619744e+00	-4.622984e+01
1.550000e-06	-1.335665e-06	-6.240334e-10	-9.303975e+00	-4.549293e+01
1.560000e-06	-1.290229e-06	-6.117022e-10	-8.987473e+00	-4.474039e+01
1.570000e-06	-1.244730e-06	-5.990514e-10	-8.670540e+00	-4.397152e+01
1.580000e-06	-1.199142e-06	-5.854139e-10	-8.352982e+00	-4.318565e+01
1.590000e-06	-1.153361e-06	-5.719574e-10	-8.034083e+00	-4.238210e+01
1.600000e-06	-1.107423e-06	-5.585079e-10	-7.714087e+00	-4.156022e+01
1.610000e-06	-1.061495e-06	-5.438529e-10	-7.394160e+00	-4.071938e+01
1.620000e-06	-1.015657e-06	-5.297712e-10	-7.074860e+00	-3.985897e+01
1.630000e-06	-9.698095e-07	-5.165168e-10	-6.755498e+00	-3.897842e+01
1.640000e-06	-9.238363e-07	-5.028831e-10	-6.435258e+00	-3.807719e+01
1.650000e-06	-8.777314e-07	-4.879901e-10	-6.114100e+00	-3.715478e+01
1.660000e-06	-8.313437e-07	-4.721271e-10	-5.790973e+00	-3.621073e+01
1.670000e-06	-7.849160e-07	-4.556592e-10	-5.467567e+00	-3.524463e+01
1.680000e-06	-7.386862e-07	-4.412480e-10	-5.145540e+00	-3.425614e+01
1.690000e-06	-6.923731e-07	-4.262367e-10	-4.822932e+00	-3.324494e+01
1.700000e-06	-6.459486e-07	-4.105812e-10	-4.499548e+00	-3.221081e+01
1.710000e-06	-5.993554e-07	-3.938945e-10	-4.174989e+00	-3.115355e+01
1.720000e-06	-5.527217e-07	-3.765920e-10	-3.850148e+00	-3.007307e+01
1.730000e-06	-5.061619e-07	-3.583771e-10	-3.525822e+00	-2.896931e+01
1.740000e-06	-4.594735e-07	-3.383927e-10	-3.200600e+00	-2.784230e+01
1.750000e-06	-4.127653e-07	-3.204236e-10	-2.875240e+00	-2.669213e+01
1.760000e-06	-3.661591e-07	-3.061093e-10	-2.550590e+00	-2.551898e+01
1.770000e-06	-3.195332e-07	-2.920877e-10	-2.225804e+00	-2.432307e+01
1.780000e-06	-2.727802e-07	-2.768434e-10	-1.900132e+00	-2.310472e+01
1.790000e-06	-2.259667e-07	-2.594829e-10	-1.574039e+00	-2.186433e+01
1.800000e-06	-1.792102e-07	-2.411323e-10	-1.248342e+00	-2.060234e+01
1.810000e-06	-1.325045e-07	-2.206140e-10	-9.229997e-01	-1.931930e+01
1.820000e-06	-8.577069e-08	-1.986210e-10	-5.974614e-01	-1.801580e+01
1.830000e-06	-3.902951e-08	-1.780055e-10	-2.718717e-01	-1.669252e+01
1.840000e-06	7.694484e-09	-1.592485e-10	5.359823e-02	-1.535020e+01
1.850000e-06	5.435979e-08	-1.459871e-10	3.786593e-01	-1.398964e+01
1.860000e-06	1.009934e-07	-1.299377e-10	7.034995e-01	-1.261170e+01
1.870000e-06	1.477671e-07	-1.109582e-10	1.029316e+00	-1.121731e+01
1.880000e-06	1.946387e-07	-9.179960e-11	1.355814e+00	-9.807443e+00
1.890000e-06	2.413963e-07	-7.318393e-11	1.681518e+00	-8.383135e+00
1.900000e-06	2.880860e-07	-5.606320e-11	2.006749e+00	-6.945460e+00
1.910000e-06	3.347553e-07	-3.578784e-11	2.331838e+00	-5.495538e+00
1.920000e-06	3.813339e-07	-1.512405e-11	2.656295e+00	-4.034524e+00
1.930000e-06	4.279152e-07	7.338216e-12	2.980771e+00	-2.563612e+00
1.940000e-06	4.745201e-07	3.003827e-11	3.305411e+00	-1.084019e+00
1.950000e-06	5.210012e-07	5.155295e-11	3.629190e+00	4.030085e-01
1.960000e-06	5.673552e-07	7.157077e-11	3.952082e+00	1.896210e+00
1.970000e-06	6.137782e-07	9.092976e-11	4.275455e+00	3.394309e+00
1.980000e-06	6.602483e-07	1.101014e-10	4.599157e+00	4.896020e+00
1.990000e-06	7.065867e-07	1.271103e-10	4.921941e+00	6.400056e+00
2.000000e-06	7.527999e-07	1.466283e-10	5.243852e+00	7.905127e+00
2.010000e-06	7.990169e-07	1.698524e-10	5.565791e+00	9.409955e+00
2.020000e-06	8.451890e-07	1.953410e-10	5.887417e+00	1.091327e+01
2.030000e-06	8.912724e-07	2.233971e-10	6.208424e+00	1.241381e+01
2.040000e-06	9.372449e-07	2.449569e-10	6.528660e+00	1.391035e+01
2.050000e-06	9.831396e-07	2.616330e-10	6.848353e+00	1.540167e+01
2.060000e-06	1.029018e-06	2.773150e-10	7.167931e+00	1.688659e+01
2.070000e-06	1.074807e-06	2.942683e-10	7.486888e+00	1.836396e+01
2.080000e-06	1.120485e-06	3.132649e-10	7.805076e+00	1.983266e+01
2.090000e-06	1.166119e-06	3.373583e-10	8.122948e+00	2.129162e+01
2.100000e-06	1.211667e-06	3.638654e-10	8.440232e+00	2.273979e+01
2.110000e-06	1.257082e-06	3.874935e-10	8.756577e+00	2.417619e+01
2.120000e-06	1.302418e-06	4.068046e-10	9.072381e+00	2.559987e+01
2.130000e-06	1.347753e-06	4.232776e-10	9.388173e+00	2.700992e+01
2.140000e-06	1.393065e-06	4.399726e-10	9.703814e+00	2.840549e+01
2.150000e-06	1.438263e-06	4.581463e-10	1.001865e+01	2.978580e+01
2.160000e-06	1.483398e-06	4.781594e-10	1.033305e+01	3.115008e+01
2.170000e-06	1.528387e-06	4.998814e-10	1.064644e+01	3.249765e+01
2.180000e-06	1.573274e-06	5.210940e-10	1.095911e+01	3.382786e+01
2.190000e-06	1.618074e-06	5.404706e-10	1.127118e+01	3.514012e+01
2.200000e-06	1.662601e-06	5.578608e-10	1.158134e+01	3.643390e+01
2.210000e-06	1.706988e-06	5.715726e-10	1.189053e+01	3.770871e+01
2.220000e-06	1.751365e-06	5.845436e-10	1.219965e+01	3.896412e+01
2.230000e-06	1.795507e-06	6.007304e-10	1.250714e+01	4.019974e+01
2.240000e-06	1.839431e-06	6.199661e-10	1.281311e+01	4.141525e+01
2.250000e-06	1.883276e-06	6.392328e-10	1.311852e+01	4.261035e+01
2.260000e-06	1.927031e-06	6.594467e-10	1.342331e+01	4.378481e+01
2.270000e-06	1.970726e-06	6.783860e-10	1.372768e+01	4.493845e+01
2.280000e-06	2.014387e-06	6.939812e-10	1.403182e+01	4.607109e+01
2.290000e-06	2.058009e-06	7.072280e-10	1.433568e+01	4.718265e+01
2.300000e-06	2.101557e-06	7.196278e-10	1.463902e+01	4.827304e+01
2.310000e-06	2.145069e-06	7.328263e-10	1.494212e+01	4.934224e+01
2.320000e-06	2.188514e-06	7.502879e-10	1.524475e+01	5.039026e+01
2.330000e-06	2.231864e-06	7.701346e-10	1.554671e+01	5.141712e+01
2.340000e-06	2.275088e-06	7.869670e-10	1.584780e+01	5.242289e+01
2.350000e-06	2.318134e-06	7.993558e-10	1.614766e+01	5.340767e+01
2.360000e-06	2.360973e-06	8.105502e-10	1.644606e+01	5.437159e+01
2.370000e-06	2.403447e-06	8.190481e-10	1.674193e+01	5.531480e+01
2.380000e-06	2.445489e-06	8.295764e-10	1.703478e+01	5.623746e+01
2.390000e-06	2.487210e-06	8.431891e-10	1.732540e+01	5.713976e+01
2.400000e-06	2.528672e-06	8.564867e-10	1.761422e+01	5.802192e+01
2.410000e-06	2.569863e-06	8.712235e-10	1.790115e+01	5.888417e+01
2.420000e-06	2.610761e-06	8.829967e-10	1.818603e+01	5.972675e+01
2.430000e-06	2.651305e-06	8.925424e-10	1.846846e+01	6.054992e+01
2.440000e-06	2.691605e-06	9.006897e-10	1.874918e+01	6.135395e+01
2.450000e-06	2.731773e-06	9.111566e-10	1.902898e+01	6.213913e+01
2.460000e-06	2.771747e-06	9.208979e-10	1.930743e+01	6.290574e+01
2.470000e-06	2.811524e-06	9.311380e-10	1.958451e+01	6.365410e+01
2.480000e-06	2.851137e-06	9.420141e-10	1.986045e+01	6.438451e+01
2.490000e-06	2.890674e-06	9.503398e-10	2.013586e+01	6.509729e+01
2.500000e-06	2.930162e-06	9.586967e-10	2.041092e+01	6.579276e+01
2.510000e-06	2.969533e-06	9.666493e-10	2.068517e+01	6.647126e+01
2.520000e-06	3.008659e-06	9.767072e-10	2.095772e+01	6.713311e+01
2.530000e-06	3.047548e-06	9.880612e-10	2.122860e+01	6.777867e+01
2.540000e-06	3.086251e-06	9.999170e-10	2.149820e+01	6.840826e+01
2.550000e-06	3.124644e-06	1.009337e-09	2.176564e+01	6.902225e+01
2.560000e-06	3.162809e-06	1.014893e-09	2.203149e+01	6.962097e+01
2.570000e-06	3.200777e-06	1.021983e-09	2.229597e+01	7.020478e+01
2.580000e-06	3.238581e-06	1.030752e-09	2.255930e+01	7.077404e+01
2.590000e-06	3.276199e-06	1.037946e-09	2.282134e+01	7.132909e+01
2.600000e-06	3.313562e-06	1.047052e-09	2.308161e+01	7.187030e+01
2.610000e-06	3.350821e-06	1.053906e-09	2.334115e+01	7.239803e+01
2.620000e-06	3.387910e-06	1.060072e-09	2.359950e+01	7.291262e+01
2.630000e-06	3.424636e-06	1.065410e-09	2.385532e+01	7.341446e+01
2.640000e-06	3.460960e-06	1.070510e-09	2.410835e+01	7.390388e+01
2.650000e-06	3.497000e-06	1.077252e-09	2.435940e+01	7.438126e+01
2.660000e-06	3.532880e-06	1.082396e-09	2.460933e+01	7.484694e+01
2.670000e-06	3.568638e-06	1.088255e-09	2.485842e+01	7.530130e+01
2.680000e-06	3.604281e-06	1.093970e-09	2.510670e+01	7.574467e+01
2.690000e-06	3.639823e-06	1.097085e-09	2.535428e+01	7.617742e+01
2.700000e-06	3.675221e-06	1.100464e-09	2.560085e+01	7.659989e+01
2.710000e-06	3.710499e-06	1.106902e-09	2.584659e+01	7.701243e+01
2.720000e-06	3.745495e-06	1.114961e-09	2.609037e+01	7.741538e+01
2.730000e-06	3.780097e-06	1.120969e-09	2.633139e+01	7.780908e+01
2.740000e-06	3.814308e-06	1.124852e-09	2.656971e+01	7.819385e+01
2.750000e-06	3.848013e-06	1.130214e-09	2.680449e+01	7.857002e+01
2.760000e-06	3.881210e-06	1.135628e-09	2.703573e+01	7.893790e+01
2.770000e-06	3.913901e-06	1.137294e-09	2.726344e+01	7.929781e+01
2.780000e-06	3.946217e-06	1.139351e-09	2.748856e+01	7.965004e+01
2.790000e-06	3.978260e-06	1.145176e-09	2.771176e+01	7.999489e+01
2.800000e-06	4.010042e-06	1.149467e-09	2.793315e+01	8.033262e+01
2.810000e-06	4.041641e-06	1.153254e-09	2.815326e+01	8.066351e+01
2.820000e-06	4.073095e-06	1.157767e-09	2.837236e+01	8.098782e+01
2.830000e-06	4.104395e-06	1.162744e-09	2.859039e+01	8.130578e+01
2.840000e-06	4.135450e-06	1.166768e-09	2.880671e+01	8.161763e+01
2.850000e-06	4.166321e-06	1.170146e-09	2.902175e+01	8.192357e+01
2.860000e-06	4.196894e-06	1.173712e-09	2.923472e+01	8.222383e+01
2.870000e-06	4.227041e-06	1.176533e-09	2.944472e+01	8.251857e+01
2.880000e-06	4.256828e-06	1.179153e-09	2.965220e+01	8.280797e+01
2.890000e-06	4.286317e-06	1.181192e-09	2.985762e+01	8.309218e+01
2.900000e-06	4.315557e-06	1.185245e-09	3.006130e+01	8.337135e+01
