# Temperatura_=_-8.49
# Concentracion g/m^3_=_1620.0
# C_Vs_to_Am_M_A/Vsm_=_65563218390.804596
# pendiente_HvsI_1/m_=_3716.3
# ordenada_HvsI_A/m_=_1297.0
# frecuencia_Hz_=_135098.8857730452

Tiempo_(s)	Campo_(V.s)	Magnetizacion_(V.s)	Campo_(kA/m)	Magnetizacion_(A/m)
0.000000e+00	-5.528181e-06	-8.724025e-10	-3.837212e+01	-5.702178e+01
1.000000e-08	-5.528456e-06	-8.713942e-10	-3.837403e+01	-5.698212e+01
2.000000e-08	-5.528434e-06	-8.707652e-10	-3.837388e+01	-5.694009e+01
3.000000e-08	-5.527921e-06	-8.724007e-10	-3.837032e+01	-5.689581e+01
4.000000e-08	-5.526828e-06	-8.746724e-10	-3.836273e+01	-5.684942e+01
5.000000e-08	-5.525159e-06	-8.727392e-10	-3.835115e+01	-5.680104e+01
6.000000e-08	-5.522945e-06	-8.653108e-10	-3.833578e+01	-5.675085e+01
7.000000e-08	-5.520181e-06	-8.567197e-10	-3.831659e+01	-5.669900e+01
8.000000e-08	-5.516896e-06	-8.635378e-10	-3.829379e+01	-5.664567e+01
9.000000e-08	-5.513229e-06	-9.039774e-10	-3.826834e+01	-5.659105e+01
1.000000e-07	-5.509212e-06	-9.062989e-10	-3.824045e+01	-5.653531e+01
1.100000e-07	-5.504803e-06	-8.295467e-10	-3.820985e+01	-5.647867e+01
1.200000e-07	-5.500141e-06	-8.246857e-10	-3.817749e+01	-5.642130e+01
1.300000e-07	-5.495331e-06	-8.868388e-10	-3.814410e+01	-5.636341e+01
1.400000e-07	-5.490113e-06	-9.063360e-10	-3.810789e+01	-5.630518e+01
1.500000e-07	-5.484404e-06	-8.455158e-10	-3.806826e+01	-5.624681e+01
1.600000e-07	-5.478443e-06	-8.051023e-10	-3.802688e+01	-5.618847e+01
1.700000e-07	-5.472211e-06	-8.937057e-10	-3.798363e+01	-5.613033e+01
1.800000e-07	-5.465402e-06	-8.832682e-10	-3.793637e+01	-5.607257e+01
1.900000e-07	-5.458155e-06	-8.331489e-10	-3.788606e+01	-5.601534e+01
2.000000e-07	-5.450739e-06	-7.843551e-10	-3.783458e+01	-5.595876e+01
2.100000e-07	-5.443116e-06	-8.509902e-10	-3.778167e+01	-5.590298e+01
2.200000e-07	-5.435101e-06	-8.542475e-10	-3.772604e+01	-5.584810e+01
2.300000e-07	-5.426658e-06	-8.267101e-10	-3.766743e+01	-5.579421e+01
2.400000e-07	-5.417856e-06	-7.950705e-10	-3.760634e+01	-5.574138e+01
2.500000e-07	-5.408447e-06	-8.147881e-10	-3.754103e+01	-5.568967e+01
2.600000e-07	-5.398196e-06	-8.187533e-10	-3.746987e+01	-5.563912e+01
2.700000e-07	-5.387443e-06	-8.088014e-10	-3.739523e+01	-5.558975e+01
2.800000e-07	-5.376304e-06	-8.052421e-10	-3.731792e+01	-5.554154e+01
2.900000e-07	-5.364657e-06	-8.026639e-10	-3.723708e+01	-5.549448e+01
3.000000e-07	-5.352646e-06	-8.152540e-10	-3.715370e+01	-5.544852e+01
3.100000e-07	-5.340261e-06	-8.027160e-10	-3.706774e+01	-5.540360e+01
3.200000e-07	-5.327466e-06	-8.064094e-10	-3.697892e+01	-5.535963e+01
3.300000e-07	-5.314233e-06	-7.960495e-10	-3.688707e+01	-5.531653e+01
3.400000e-07	-5.300667e-06	-8.273721e-10	-3.679291e+01	-5.527416e+01
3.500000e-07	-5.286715e-06	-8.015735e-10	-3.669606e+01	-5.523239e+01
3.600000e-07	-5.272209e-06	-7.961389e-10	-3.659537e+01	-5.519109e+01
3.700000e-07	-5.257286e-06	-8.014545e-10	-3.649179e+01	-5.515008e+01
3.800000e-07	-5.241984e-06	-8.162137e-10	-3.638558e+01	-5.510920e+01
3.900000e-07	-5.225862e-06	-7.728878e-10	-3.627367e+01	-5.506826e+01
4.000000e-07	-5.209158e-06	-8.002621e-10	-3.615773e+01	-5.502708e+01
4.100000e-07	-5.192365e-06	-8.244179e-10	-3.604116e+01	-5.498545e+01
4.200000e-07	-5.175334e-06	-7.901097e-10	-3.592295e+01	-5.494318e+01
4.300000e-07	-5.157985e-06	-7.631492e-10	-3.580253e+01	-5.490007e+01
4.400000e-07	-5.140342e-06	-8.272816e-10	-3.568006e+01	-5.485590e+01
4.500000e-07	-5.122340e-06	-8.077523e-10	-3.555510e+01	-5.481049e+01
4.600000e-07	-5.103801e-06	-7.537706e-10	-3.542643e+01	-5.476362e+01
4.700000e-07	-5.084813e-06	-7.911606e-10	-3.529462e+01	-5.471512e+01
4.800000e-07	-5.065575e-06	-8.276553e-10	-3.516109e+01	-5.466478e+01
4.900000e-07	-5.046087e-06	-7.633846e-10	-3.502582e+01	-5.461244e+01
5.000000e-07	-5.026410e-06	-7.749057e-10	-3.488924e+01	-5.455793e+01
5.100000e-07	-5.006573e-06	-8.254293e-10	-3.475154e+01	-5.450109e+01
5.200000e-07	-4.986336e-06	-7.766905e-10	-3.461108e+01	-5.444179e+01
5.300000e-07	-4.965559e-06	-7.530037e-10	-3.446686e+01	-5.437989e+01
5.400000e-07	-4.944454e-06	-8.211632e-10	-3.432036e+01	-5.431527e+01
5.500000e-07	-4.923026e-06	-8.024175e-10	-3.417163e+01	-5.424785e+01
5.600000e-07	-4.901199e-06	-7.420074e-10	-3.402012e+01	-5.417754e+01
5.700000e-07	-4.879091e-06	-7.908063e-10	-3.386667e+01	-5.410428e+01
5.800000e-07	-4.856737e-06	-8.080577e-10	-3.371151e+01	-5.402802e+01
5.900000e-07	-4.834001e-06	-7.534674e-10	-3.355369e+01	-5.394872e+01
6.000000e-07	-4.810857e-06	-7.732674e-10	-3.339304e+01	-5.386637e+01
6.100000e-07	-4.787479e-06	-8.206079e-10	-3.323078e+01	-5.378098e+01
6.200000e-07	-4.763918e-06	-7.775426e-10	-3.306723e+01	-5.369256e+01
6.300000e-07	-4.740112e-06	-7.728545e-10	-3.290199e+01	-5.360114e+01
6.400000e-07	-4.716048e-06	-8.043132e-10	-3.273496e+01	-5.350676e+01
6.500000e-07	-4.691664e-06	-7.820109e-10	-3.256570e+01	-5.340948e+01
6.600000e-07	-4.666732e-06	-7.525028e-10	-3.239265e+01	-5.330938e+01
6.700000e-07	-4.641190e-06	-7.837870e-10	-3.221536e+01	-5.320652e+01
6.800000e-07	-4.615120e-06	-7.763441e-10	-3.203440e+01	-5.310100e+01
6.900000e-07	-4.588582e-06	-7.577084e-10	-3.185019e+01	-5.299290e+01
7.000000e-07	-4.561610e-06	-7.725569e-10	-3.166298e+01	-5.288232e+01
7.100000e-07	-4.534287e-06	-7.825843e-10	-3.147332e+01	-5.276937e+01
7.200000e-07	-4.506760e-06	-7.564389e-10	-3.128225e+01	-5.265415e+01
7.300000e-07	-4.479113e-06	-7.628901e-10	-3.109035e+01	-5.253676e+01
7.400000e-07	-4.451321e-06	-7.687129e-10	-3.089744e+01	-5.241729e+01
7.500000e-07	-4.423247e-06	-7.557756e-10	-3.070257e+01	-5.229585e+01
7.600000e-07	-4.394760e-06	-7.514467e-10	-3.050484e+01	-5.217252e+01
7.700000e-07	-4.365922e-06	-7.625326e-10	-3.030467e+01	-5.204739e+01
7.800000e-07	-4.336790e-06	-7.516052e-10	-3.010246e+01	-5.192053e+01
7.900000e-07	-4.307385e-06	-7.455517e-10	-2.989835e+01	-5.179202e+01
8.000000e-07	-4.277759e-06	-7.500017e-10	-2.969271e+01	-5.166190e+01
8.100000e-07	-4.247919e-06	-7.424497e-10	-2.948559e+01	-5.153021e+01
8.200000e-07	-4.217796e-06	-7.298537e-10	-2.927650e+01	-5.139699e+01
8.300000e-07	-4.187341e-06	-7.344120e-10	-2.906511e+01	-5.126225e+01
8.400000e-07	-4.156565e-06	-7.366397e-10	-2.885148e+01	-5.112600e+01
8.500000e-07	-4.125482e-06	-7.270303e-10	-2.863573e+01	-5.098821e+01
8.600000e-07	-4.094167e-06	-7.300717e-10	-2.841837e+01	-5.084886e+01
8.700000e-07	-4.062665e-06	-7.345989e-10	-2.819971e+01	-5.070790e+01
8.800000e-07	-4.031056e-06	-7.272747e-10	-2.798030e+01	-5.056529e+01
8.900000e-07	-3.999307e-06	-7.202631e-10	-2.775993e+01	-5.042093e+01
9.000000e-07	-3.967232e-06	-7.216606e-10	-2.753729e+01	-5.027475e+01
9.100000e-07	-3.934738e-06	-7.100419e-10	-2.731174e+01	-5.012665e+01
9.200000e-07	-3.901851e-06	-7.025993e-10	-2.708346e+01	-4.997651e+01
9.300000e-07	-3.868503e-06	-7.060467e-10	-2.685199e+01	-4.982421e+01
9.400000e-07	-3.834710e-06	-7.089703e-10	-2.661743e+01	-4.966961e+01
9.500000e-07	-3.800464e-06	-7.002008e-10	-2.637972e+01	-4.951257e+01
9.600000e-07	-3.765759e-06	-7.024019e-10	-2.613882e+01	-4.935294e+01
9.700000e-07	-3.730777e-06	-7.001184e-10	-2.589601e+01	-4.919056e+01
9.800000e-07	-3.695559e-06	-6.889523e-10	-2.565155e+01	-4.902527e+01
9.900000e-07	-3.660112e-06	-6.797723e-10	-2.540551e+01	-4.885690e+01
1.000000e-06	-3.624507e-06	-6.827740e-10	-2.515837e+01	-4.868530e+01
1.010000e-06	-3.588815e-06	-6.794197e-10	-2.491063e+01	-4.851029e+01
1.020000e-06	-3.553050e-06	-6.795475e-10	-2.466237e+01	-4.833172e+01
1.030000e-06	-3.517087e-06	-6.828970e-10	-2.441275e+01	-4.814942e+01
1.040000e-06	-3.480819e-06	-6.806518e-10	-2.416100e+01	-4.796325e+01
1.050000e-06	-3.444216e-06	-6.702183e-10	-2.390694e+01	-4.777305e+01
1.060000e-06	-3.407305e-06	-6.663806e-10	-2.365073e+01	-4.757868e+01
1.070000e-06	-3.370135e-06	-6.615886e-10	-2.339273e+01	-4.738002e+01
1.080000e-06	-3.332714e-06	-6.536889e-10	-2.313298e+01	-4.717696e+01
1.090000e-06	-3.295086e-06	-6.513498e-10	-2.287180e+01	-4.696938e+01
1.100000e-06	-3.257316e-06	-6.557716e-10	-2.260963e+01	-4.675718e+01
1.110000e-06	-3.219308e-06	-6.541774e-10	-2.234581e+01	-4.654030e+01
1.120000e-06	-3.181035e-06	-6.485827e-10	-2.208015e+01	-4.631866e+01
1.130000e-06	-3.142509e-06	-6.478490e-10	-2.181273e+01	-4.609221e+01
1.140000e-06	-3.103719e-06	-6.452734e-10	-2.154349e+01	-4.586091e+01
1.150000e-06	-3.064756e-06	-6.390898e-10	-2.127303e+01	-4.562472e+01
1.160000e-06	-3.025701e-06	-6.368700e-10	-2.100195e+01	-4.538366e+01
1.170000e-06	-2.986562e-06	-6.371340e-10	-2.073028e+01	-4.513770e+01
1.180000e-06	-2.947211e-06	-6.321904e-10	-2.045713e+01	-4.488686e+01
1.190000e-06	-2.907641e-06	-6.281566e-10	-2.018247e+01	-4.463118e+01
1.200000e-06	-2.867930e-06	-6.237627e-10	-1.990683e+01	-4.437067e+01
1.210000e-06	-2.828092e-06	-6.196595e-10	-1.963030e+01	-4.410539e+01
1.220000e-06	-2.788092e-06	-6.151359e-10	-1.935266e+01	-4.383538e+01
1.230000e-06	-2.747864e-06	-6.152035e-10	-1.907343e+01	-4.356069e+01
1.240000e-06	-2.707445e-06	-6.120612e-10	-1.879288e+01	-4.328140e+01
1.250000e-06	-2.666794e-06	-6.073297e-10	-1.851071e+01	-4.299754e+01
1.260000e-06	-2.625907e-06	-6.021626e-10	-1.822690e+01	-4.270920e+01
1.270000e-06	-2.584882e-06	-5.984095e-10	-1.794214e+01	-4.241641e+01
1.280000e-06	-2.543512e-06	-5.922995e-10	-1.765499e+01	-4.211924e+01
1.290000e-06	-2.501662e-06	-5.870420e-10	-1.736449e+01	-4.181774e+01
1.300000e-06	-2.459550e-06	-5.798010e-10	-1.707219e+01	-4.151194e+01
1.310000e-06	-2.417219e-06	-5.718633e-10	-1.677836e+01	-4.120187e+01
1.320000e-06	-2.374585e-06	-5.657687e-10	-1.648243e+01	-4.088755e+01
1.330000e-06	-2.331746e-06	-5.636896e-10	-1.618508e+01	-4.056897e+01
1.340000e-06	-2.288729e-06	-5.613348e-10	-1.588649e+01	-4.024613e+01
1.350000e-06	-2.245496e-06	-5.576740e-10	-1.558640e+01	-3.991898e+01
1.360000e-06	-2.202114e-06	-5.525788e-10	-1.528528e+01	-3.958747e+01
1.370000e-06	-2.158658e-06	-5.460308e-10	-1.498364e+01	-3.925153e+01
1.380000e-06	-2.115099e-06	-5.382994e-10	-1.468129e+01	-3.891107e+01
1.390000e-06	-2.071431e-06	-5.305750e-10	-1.437818e+01	-3.856595e+01
1.400000e-06	-2.027717e-06	-5.252788e-10	-1.407476e+01	-3.821603e+01
1.410000e-06	-1.983911e-06	-5.212174e-10	-1.377069e+01	-3.786115e+01
1.420000e-06	-1.939930e-06	-5.198161e-10	-1.346541e+01	-3.750111e+01
1.430000e-06	-1.895821e-06	-5.170108e-10	-1.315925e+01	-3.713568e+01
1.440000e-06	-1.851658e-06	-5.089743e-10	-1.285270e+01	-3.676462e+01
1.450000e-06	-1.807428e-06	-4.999775e-10	-1.254569e+01	-3.638766e+01
1.460000e-06	-1.762991e-06	-4.938280e-10	-1.223724e+01	-3.600450e+01
1.470000e-06	-1.718339e-06	-4.875006e-10	-1.192731e+01	-3.561482e+01
1.480000e-06	-1.673580e-06	-4.800141e-10	-1.161663e+01	-3.521828e+01
1.490000e-06	-1.628789e-06	-4.727569e-10	-1.130572e+01	-3.481453e+01
1.500000e-06	-1.583913e-06	-4.665314e-10	-1.099423e+01	-3.440317e+01
1.510000e-06	-1.538859e-06	-4.597589e-10	-1.068151e+01	-3.398381e+01
1.520000e-06	-1.493667e-06	-4.531820e-10	-1.036781e+01	-3.355605e+01
1.530000e-06	-1.448310e-06	-4.445021e-10	-1.005299e+01	-3.311945e+01
1.540000e-06	-1.402871e-06	-4.346206e-10	-9.737584e+00	-3.267358e+01
1.550000e-06	-1.357385e-06	-4.271247e-10	-9.421857e+00	-3.221800e+01
1.560000e-06	-1.311793e-06	-4.217711e-10	-9.105396e+00	-3.175227e+01
1.570000e-06	-1.266042e-06	-4.144873e-10	-8.787828e+00	-3.127593e+01
1.580000e-06	-1.220245e-06	-4.062709e-10	-8.469942e+00	-3.078854e+01
1.590000e-06	-1.174447e-06	-3.977296e-10	-8.152055e+00	-3.028966e+01
1.600000e-06	-1.128586e-06	-3.907536e-10	-7.833723e+00	-2.977886e+01
1.610000e-06	-1.082617e-06	-3.838918e-10	-7.514644e+00	-2.925571e+01
1.620000e-06	-1.036530e-06	-3.747274e-10	-7.194743e+00	-2.871981e+01
1.630000e-06	-9.904205e-07	-3.660846e-10	-6.874691e+00	-2.817076e+01
1.640000e-06	-9.442277e-07	-3.588806e-10	-6.554059e+00	-2.760821e+01
1.650000e-06	-8.979160e-07	-3.499507e-10	-6.232600e+00	-2.703180e+01
1.660000e-06	-8.515599e-07	-3.405874e-10	-5.910834e+00	-2.644122e+01
1.670000e-06	-8.051324e-07	-3.317778e-10	-5.588572e+00	-2.583617e+01
1.680000e-06	-7.586603e-07	-3.224336e-10	-5.266001e+00	-2.521640e+01
1.690000e-06	-7.121973e-07	-3.111196e-10	-4.943492e+00	-2.458169e+01
1.700000e-06	-6.656807e-07	-3.004432e-10	-4.620612e+00	-2.393185e+01
1.710000e-06	-6.190429e-07	-2.911587e-10	-4.296891e+00	-2.326672e+01
1.720000e-06	-5.723556e-07	-2.815746e-10	-3.972825e+00	-2.258621e+01
1.730000e-06	-5.257114e-07	-2.712838e-10	-3.649060e+00	-2.189025e+01
1.740000e-06	-4.790208e-07	-2.609988e-10	-3.324971e+00	-2.117882e+01
1.750000e-06	-4.322561e-07	-2.521744e-10	-3.000369e+00	-2.045193e+01
1.760000e-06	-3.853391e-07	-2.432814e-10	-2.674709e+00	-1.970966e+01
1.770000e-06	-3.383658e-07	-2.318836e-10	-2.348659e+00	-1.895211e+01
1.780000e-06	-2.914272e-07	-2.191538e-10	-2.022850e+00	-1.817945e+01
1.790000e-06	-2.444562e-07	-2.076854e-10	-1.696816e+00	-1.739188e+01
1.800000e-06	-1.975084e-07	-1.972538e-10	-1.370942e+00	-1.658964e+01
1.810000e-06	-1.505712e-07	-1.873966e-10	-1.045143e+00	-1.577304e+01
1.820000e-06	-1.036652e-07	-1.761770e-10	-7.195589e-01	-1.494240e+01
1.830000e-06	-5.672880e-08	-1.643436e-10	-3.937651e-01	-1.409812e+01
1.840000e-06	-9.760801e-09	-1.519063e-10	-6.775152e-02	-1.324060e+01
1.850000e-06	3.716004e-08	-1.397373e-10	2.579347e-01	-1.237032e+01
1.860000e-06	8.402826e-08	-1.267513e-10	5.832556e-01	-1.148776e+01
1.870000e-06	1.308447e-07	-1.123602e-10	9.082171e-01	-1.059347e+01
1.880000e-06	1.776760e-07	-9.840394e-11	1.233282e+00	-9.688021e+00
1.890000e-06	2.244861e-07	-8.644470e-11	1.558199e+00	-8.772004e+00
1.900000e-06	2.712911e-07	-7.489581e-11	1.883082e+00	-7.846054e+00
1.910000e-06	3.181859e-07	-6.341786e-11	2.208587e+00	-6.910828e+00
1.920000e-06	3.651574e-07	-4.948461e-11	2.534625e+00	-5.967006e+00
1.930000e-06	4.120048e-07	-3.323114e-11	2.859801e+00	-5.015292e+00
1.940000e-06	4.586689e-07	-1.816344e-11	3.183705e+00	-4.056405e+00
1.950000e-06	5.053055e-07	-4.406302e-12	3.507419e+00	-3.091085e+00
1.960000e-06	5.519608e-07	9.833562e-12	3.831262e+00	-2.120079e+00
1.970000e-06	5.985447e-07	2.348771e-11	4.154609e+00	-1.144150e+00
1.980000e-06	6.450202e-07	3.569994e-11	4.477204e+00	-1.640637e-01
1.990000e-06	6.915087e-07	4.630641e-11	4.799890e+00	8.194057e-01
2.000000e-06	7.380669e-07	5.761914e-11	5.123058e+00	1.805483e+00
2.010000e-06	7.845979e-07	7.127885e-11	5.446038e+00	2.793395e+00
2.020000e-06	8.309585e-07	8.533080e-11	5.767836e+00	3.782369e+00
2.030000e-06	8.772248e-07	1.011088e-10	6.088979e+00	4.771638e+00
2.040000e-06	9.234573e-07	1.162015e-10	6.409887e+00	5.760444e+00
2.050000e-06	9.696464e-07	1.295897e-10	6.730494e+00	6.748038e+00
2.060000e-06	1.015757e-06	1.433172e-10	7.050555e+00	7.733680e+00
2.070000e-06	1.061804e-06	1.571050e-10	7.370178e+00	8.716648e+00
2.080000e-06	1.107780e-06	1.701982e-10	7.689302e+00	9.696232e+00
2.090000e-06	1.153583e-06	1.845147e-10	8.007229e+00	1.067174e+01
2.100000e-06	1.199283e-06	1.998787e-10	8.324443e+00	1.164250e+01
2.110000e-06	1.244949e-06	2.148142e-10	8.641422e+00	1.260785e+01
2.120000e-06	1.290564e-06	2.281822e-10	8.958040e+00	1.356717e+01
2.130000e-06	1.336081e-06	2.401457e-10	9.273986e+00	1.451983e+01
2.140000e-06	1.381535e-06	2.523845e-10	9.589486e+00	1.546526e+01
2.150000e-06	1.426927e-06	2.633452e-10	9.904565e+00	1.640288e+01
2.160000e-06	1.472166e-06	2.734765e-10	1.021858e+01	1.733215e+01
2.170000e-06	1.517325e-06	2.859413e-10	1.053204e+01	1.825256e+01
2.180000e-06	1.562393e-06	2.997458e-10	1.084486e+01	1.916361e+01
2.190000e-06	1.607304e-06	3.138424e-10	1.115659e+01	2.006483e+01
2.200000e-06	1.652048e-06	3.273000e-10	1.146717e+01	2.095578e+01
2.210000e-06	1.696661e-06	3.390196e-10	1.177683e+01	2.183605e+01
2.220000e-06	1.741102e-06	3.484063e-10	1.208531e+01	2.270523e+01
2.230000e-06	1.785356e-06	3.576103e-10	1.239249e+01	2.356297e+01
2.240000e-06	1.829543e-06	3.681048e-10	1.269919e+01	2.440893e+01
2.250000e-06	1.873594e-06	3.789080e-10	1.300496e+01	2.524278e+01
2.260000e-06	1.917512e-06	3.931666e-10	1.330980e+01	2.606423e+01
2.270000e-06	1.961352e-06	4.081136e-10	1.361411e+01	2.687302e+01
2.280000e-06	2.005136e-06	4.214506e-10	1.391802e+01	2.766890e+01
2.290000e-06	2.048885e-06	4.307142e-10	1.422169e+01	2.845165e+01
2.300000e-06	2.092578e-06	4.354098e-10	1.452497e+01	2.922108e+01
2.310000e-06	2.136224e-06	4.410941e-10	1.482792e+01	2.997701e+01
2.320000e-06	2.179813e-06	4.500067e-10	1.513048e+01	3.071930e+01
2.330000e-06	2.223248e-06	4.644455e-10	1.543197e+01	3.144782e+01
2.340000e-06	2.266589e-06	4.790281e-10	1.573281e+01	3.216246e+01
2.350000e-06	2.309859e-06	4.909036e-10	1.603315e+01	3.286314e+01
2.360000e-06	2.352920e-06	4.995166e-10	1.633205e+01	3.354980e+01
2.370000e-06	2.395746e-06	5.055653e-10	1.662932e+01	3.422239e+01
2.380000e-06	2.438264e-06	5.123408e-10	1.692444e+01	3.488090e+01
2.390000e-06	2.480450e-06	5.218207e-10	1.721726e+01	3.552533e+01
2.400000e-06	2.522373e-06	5.312363e-10	1.750826e+01	3.615569e+01
2.410000e-06	2.564044e-06	5.414329e-10	1.779750e+01	3.677203e+01
2.420000e-06	2.605375e-06	5.512176e-10	1.808439e+01	3.737440e+01
2.430000e-06	2.646323e-06	5.588499e-10	1.836862e+01	3.796288e+01
2.440000e-06	2.687061e-06	5.630233e-10	1.865138e+01	3.853757e+01
2.450000e-06	2.727551e-06	5.637138e-10	1.893244e+01	3.909858e+01
2.460000e-06	2.767685e-06	5.687664e-10	1.921101e+01	3.964603e+01
2.470000e-06	2.807640e-06	5.796636e-10	1.948835e+01	4.018008e+01
2.480000e-06	2.847463e-06	5.908618e-10	1.976477e+01	4.070088e+01
2.490000e-06	2.887111e-06	5.982980e-10	2.003997e+01	4.120861e+01
2.500000e-06	2.926683e-06	6.038049e-10	2.031464e+01	4.170346e+01
2.510000e-06	2.966162e-06	6.091385e-10	2.058868e+01	4.218564e+01
2.520000e-06	3.005476e-06	6.144292e-10	2.086156e+01	4.265536e+01
2.530000e-06	3.044592e-06	6.224161e-10	2.113307e+01	4.311285e+01
2.540000e-06	3.083515e-06	6.335665e-10	2.140325e+01	4.355836e+01
2.550000e-06	3.122231e-06	6.413837e-10	2.167198e+01	4.399212e+01
2.560000e-06	3.160713e-06	6.442154e-10	2.193909e+01	4.441441e+01
2.570000e-06	3.198905e-06	6.474958e-10	2.220419e+01	4.482548e+01
2.580000e-06	3.236933e-06	6.544361e-10	2.246815e+01	4.522560e+01
2.590000e-06	3.274771e-06	6.621837e-10	2.273079e+01	4.561507e+01
2.600000e-06	3.312359e-06	6.712599e-10	2.299169e+01	4.599415e+01
2.610000e-06	3.349759e-06	6.790384e-10	2.325130e+01	4.636315e+01
2.620000e-06	3.386904e-06	6.857884e-10	2.350913e+01	4.672233e+01
2.630000e-06	3.423880e-06	6.897751e-10	2.376578e+01	4.707199e+01
2.640000e-06	3.460585e-06	6.909178e-10	2.402056e+01	4.741243e+01
2.650000e-06	3.496960e-06	6.906295e-10	2.427304e+01	4.774392e+01
2.660000e-06	3.533061e-06	6.949647e-10	2.452363e+01	4.806674e+01
2.670000e-06	3.568950e-06	7.010263e-10	2.477274e+01	4.838118e+01
2.680000e-06	3.604683e-06	7.064867e-10	2.502077e+01	4.868750e+01
2.690000e-06	3.640291e-06	7.122488e-10	2.526793e+01	4.898597e+01
2.700000e-06	3.675788e-06	7.148075e-10	2.551432e+01	4.927685e+01
2.710000e-06	3.711167e-06	7.204342e-10	2.575989e+01	4.956038e+01
2.720000e-06	3.746360e-06	7.251860e-10	2.600417e+01	4.983681e+01
2.730000e-06	3.781281e-06	7.255331e-10	2.624657e+01	5.010636e+01
2.740000e-06	3.815833e-06	7.264373e-10	2.648640e+01	5.036924e+01
2.750000e-06	3.849894e-06	7.298818e-10	2.672283e+01	5.062566e+01
2.760000e-06	3.883418e-06	7.354917e-10	2.695552e+01	5.087581e+01
2.770000e-06	3.916518e-06	7.412953e-10	2.718527e+01	5.111986e+01
2.780000e-06	3.949233e-06	7.477181e-10	2.741235e+01	5.135798e+01
2.790000e-06	3.981530e-06	7.525388e-10	2.763653e+01	5.159032e+01
2.800000e-06	4.013512e-06	7.528597e-10	2.785853e+01	5.181701e+01
2.810000e-06	4.045262e-06	7.528481e-10	2.807891e+01	5.203817e+01
2.820000e-06	4.076874e-06	7.529870e-10	2.829833e+01	5.225392e+01
2.830000e-06	4.108377e-06	7.571878e-10	2.851700e+01	5.246434e+01
2.840000e-06	4.139698e-06	7.632688e-10	2.873441e+01	5.266951e+01
2.850000e-06	4.170697e-06	7.671615e-10	2.894957e+01	5.286951e+01
2.860000e-06	4.201314e-06	7.688594e-10	2.916209e+01	5.306439e+01
2.870000e-06	4.231648e-06	7.690495e-10	2.937265e+01	5.325420e+01
2.880000e-06	4.261691e-06	7.676018e-10	2.958118e+01	5.343896e+01
2.890000e-06	4.291428e-06	7.655568e-10	2.978759e+01	5.361872e+01
2.900000e-06	4.320915e-06	7.677151e-10	2.999227e+01	5.379348e+01
