# Temperatura_=_-0.4
# Concentracion g/m^3_=_1620.0
# C_Vs_to_Am_M_A/Vsm_=_65563218390.804596
# pendiente_HvsI_1/m_=_3716.3
# ordenada_HvsI_A/m_=_1297.0
# frecuencia_Hz_=_135085.93382716537

Tiempo_(s)	Campo_(V.s)	Magnetizacion_(V.s)	Campo_(kA/m)	Magnetizacion_(A/m)
0.000000e+00	-5.513982e-06	-1.752397e-09	-3.839681e+01	-1.124522e+02
1.000000e-08	-5.514170e-06	-1.745462e-09	-3.839811e+01	-1.123771e+02
2.000000e-08	-5.514097e-06	-1.738319e-09	-3.839761e+01	-1.122997e+02
3.000000e-08	-5.513673e-06	-1.734664e-09	-3.839465e+01	-1.122202e+02
4.000000e-08	-5.512752e-06	-1.735910e-09	-3.838824e+01	-1.121388e+02
5.000000e-08	-5.511211e-06	-1.742085e-09	-3.837751e+01	-1.120558e+02
6.000000e-08	-5.509014e-06	-1.754992e-09	-3.836221e+01	-1.119714e+02
7.000000e-08	-5.506250e-06	-1.759120e-09	-3.834296e+01	-1.118858e+02
8.000000e-08	-5.502952e-06	-1.763799e-09	-3.832000e+01	-1.117990e+02
9.000000e-08	-5.499283e-06	-1.729296e-09	-3.829445e+01	-1.117114e+02
1.000000e-07	-5.495275e-06	-1.685075e-09	-3.826654e+01	-1.116230e+02
1.100000e-07	-5.490910e-06	-1.762441e-09	-3.823614e+01	-1.115339e+02
1.200000e-07	-5.486279e-06	-1.796090e-09	-3.820389e+01	-1.114443e+02
1.300000e-07	-5.481286e-06	-1.738893e-09	-3.816913e+01	-1.113542e+02
1.400000e-07	-5.475971e-06	-1.675218e-09	-3.813211e+01	-1.112637e+02
1.500000e-07	-5.470405e-06	-1.716655e-09	-3.809336e+01	-1.111728e+02
1.600000e-07	-5.464508e-06	-1.840203e-09	-3.805229e+01	-1.110816e+02
1.700000e-07	-5.458073e-06	-1.756928e-09	-3.800748e+01	-1.109899e+02
1.800000e-07	-5.451220e-06	-1.684359e-09	-3.795976e+01	-1.108979e+02
1.900000e-07	-5.444081e-06	-1.666612e-09	-3.791005e+01	-1.108054e+02
2.000000e-07	-5.436581e-06	-1.781932e-09	-3.785782e+01	-1.107123e+02
2.100000e-07	-5.428717e-06	-1.742460e-09	-3.780306e+01	-1.106185e+02
2.200000e-07	-5.420591e-06	-1.686877e-09	-3.774648e+01	-1.105240e+02
2.300000e-07	-5.412240e-06	-1.659335e-09	-3.768832e+01	-1.104286e+02
2.400000e-07	-5.403442e-06	-1.718167e-09	-3.762706e+01	-1.103321e+02
2.500000e-07	-5.394021e-06	-1.683985e-09	-3.756145e+01	-1.102343e+02
2.600000e-07	-5.383929e-06	-1.644980e-09	-3.749118e+01	-1.101350e+02
2.700000e-07	-5.373126e-06	-1.657628e-09	-3.741595e+01	-1.100341e+02
2.800000e-07	-5.361775e-06	-1.671859e-09	-3.733691e+01	-1.099312e+02
2.900000e-07	-5.350103e-06	-1.662676e-09	-3.725563e+01	-1.098261e+02
3.000000e-07	-5.338122e-06	-1.633309e-09	-3.717220e+01	-1.097185e+02
3.100000e-07	-5.325802e-06	-1.660007e-09	-3.708641e+01	-1.096082e+02
3.200000e-07	-5.313105e-06	-1.645099e-09	-3.699800e+01	-1.094949e+02
3.300000e-07	-5.300056e-06	-1.657740e-09	-3.690713e+01	-1.093782e+02
3.400000e-07	-5.286601e-06	-1.619288e-09	-3.681343e+01	-1.092579e+02
3.500000e-07	-5.272679e-06	-1.629299e-09	-3.671649e+01	-1.091337e+02
3.600000e-07	-5.258293e-06	-1.627215e-09	-3.661631e+01	-1.090051e+02
3.700000e-07	-5.243494e-06	-1.645082e-09	-3.651326e+01	-1.088720e+02
3.800000e-07	-5.228166e-06	-1.606021e-09	-3.640652e+01	-1.087340e+02
3.900000e-07	-5.212331e-06	-1.634836e-09	-3.629625e+01	-1.085908e+02
4.000000e-07	-5.196086e-06	-1.633098e-09	-3.618313e+01	-1.084420e+02
4.100000e-07	-5.179392e-06	-1.607566e-09	-3.606688e+01	-1.082875e+02
4.200000e-07	-5.162348e-06	-1.588508e-09	-3.594819e+01	-1.081268e+02
4.300000e-07	-5.145021e-06	-1.646454e-09	-3.582753e+01	-1.079597e+02
4.400000e-07	-5.127344e-06	-1.598721e-09	-3.570444e+01	-1.077859e+02
4.500000e-07	-5.109280e-06	-1.559145e-09	-3.557865e+01	-1.076052e+02
4.600000e-07	-5.090768e-06	-1.607028e-09	-3.544974e+01	-1.074173e+02
4.700000e-07	-5.071908e-06	-1.640847e-09	-3.531841e+01	-1.072221e+02
4.800000e-07	-5.052751e-06	-1.558570e-09	-3.518501e+01	-1.070192e+02
4.900000e-07	-5.033244e-06	-1.573070e-09	-3.504917e+01	-1.068085e+02
5.000000e-07	-5.013523e-06	-1.615412e-09	-3.491184e+01	-1.065899e+02
5.100000e-07	-4.993630e-06	-1.560107e-09	-3.477332e+01	-1.063632e+02
5.200000e-07	-4.973449e-06	-1.531252e-09	-3.463279e+01	-1.061283e+02
5.300000e-07	-4.952874e-06	-1.597991e-09	-3.448951e+01	-1.058851e+02
5.400000e-07	-4.931952e-06	-1.563797e-09	-3.434382e+01	-1.056336e+02
5.500000e-07	-4.910680e-06	-1.502852e-09	-3.419569e+01	-1.053736e+02
5.600000e-07	-4.889029e-06	-1.562847e-09	-3.404492e+01	-1.051052e+02
5.700000e-07	-4.867065e-06	-1.578128e-09	-3.389198e+01	-1.048284e+02
5.800000e-07	-4.844783e-06	-1.505326e-09	-3.373682e+01	-1.045432e+02
5.900000e-07	-4.822144e-06	-1.519730e-09	-3.357917e+01	-1.042497e+02
6.000000e-07	-4.799045e-06	-1.564920e-09	-3.341832e+01	-1.039480e+02
6.100000e-07	-4.775638e-06	-1.504169e-09	-3.325532e+01	-1.036381e+02
6.200000e-07	-4.752108e-06	-1.497966e-09	-3.309147e+01	-1.033202e+02
6.300000e-07	-4.728361e-06	-1.540397e-09	-3.292611e+01	-1.029945e+02
6.400000e-07	-4.704312e-06	-1.516744e-09	-3.275864e+01	-1.026611e+02
6.500000e-07	-4.679874e-06	-1.477612e-09	-3.258846e+01	-1.023203e+02
6.600000e-07	-4.655049e-06	-1.514897e-09	-3.241560e+01	-1.019721e+02
6.700000e-07	-4.629781e-06	-1.496523e-09	-3.223964e+01	-1.016169e+02
6.800000e-07	-4.603980e-06	-1.469117e-09	-3.205997e+01	-1.012549e+02
6.900000e-07	-4.577579e-06	-1.484266e-09	-3.187613e+01	-1.008863e+02
7.000000e-07	-4.550686e-06	-1.497987e-09	-3.168886e+01	-1.005113e+02
7.100000e-07	-4.523374e-06	-1.460370e-09	-3.149867e+01	-1.001303e+02
7.200000e-07	-4.495769e-06	-1.467457e-09	-3.130644e+01	-9.974354e+01
7.300000e-07	-4.468066e-06	-1.470808e-09	-3.111353e+01	-9.935121e+01
7.400000e-07	-4.440283e-06	-1.450542e-09	-3.092006e+01	-9.895361e+01
7.500000e-07	-4.412272e-06	-1.435912e-09	-3.072501e+01	-9.855100e+01
7.600000e-07	-4.383927e-06	-1.449458e-09	-3.052763e+01	-9.814363e+01
7.700000e-07	-4.355210e-06	-1.435134e-09	-3.032766e+01	-9.773176e+01
7.800000e-07	-4.326158e-06	-1.425849e-09	-3.012535e+01	-9.731562e+01
7.900000e-07	-4.296827e-06	-1.426141e-09	-2.992110e+01	-9.689543e+01
8.000000e-07	-4.267186e-06	-1.415348e-09	-2.971470e+01	-9.647141e+01
8.100000e-07	-4.237209e-06	-1.394231e-09	-2.950595e+01	-9.604374e+01
8.200000e-07	-4.206954e-06	-1.393238e-09	-2.929527e+01	-9.561260e+01
8.300000e-07	-4.176475e-06	-1.387839e-09	-2.908303e+01	-9.517815e+01
8.400000e-07	-4.145683e-06	-1.371754e-09	-2.886861e+01	-9.474051e+01
8.500000e-07	-4.114568e-06	-1.369680e-09	-2.865194e+01	-9.429979e+01
8.600000e-07	-4.083184e-06	-1.372436e-09	-2.843340e+01	-9.385609e+01
8.700000e-07	-4.051603e-06	-1.362610e-09	-2.821348e+01	-9.340946e+01
8.800000e-07	-4.019841e-06	-1.351928e-09	-2.799230e+01	-9.295993e+01
8.900000e-07	-3.987964e-06	-1.352597e-09	-2.777033e+01	-9.250752e+01
9.000000e-07	-3.955870e-06	-1.336720e-09	-2.754684e+01	-9.205221e+01
9.100000e-07	-3.923434e-06	-1.322295e-09	-2.732097e+01	-9.159397e+01
9.200000e-07	-3.890708e-06	-1.317145e-09	-2.709308e+01	-9.113271e+01
9.300000e-07	-3.857668e-06	-1.311666e-09	-2.686301e+01	-9.066836e+01
9.400000e-07	-3.824140e-06	-1.293810e-09	-2.662953e+01	-9.020081e+01
9.500000e-07	-3.790081e-06	-1.295060e-09	-2.639236e+01	-8.972990e+01
9.600000e-07	-3.755575e-06	-1.292912e-09	-2.615208e+01	-8.925550e+01
9.700000e-07	-3.720736e-06	-1.281937e-09	-2.590948e+01	-8.877742e+01
9.800000e-07	-3.685598e-06	-1.269416e-09	-2.566479e+01	-8.829546e+01
9.900000e-07	-3.650166e-06	-1.270935e-09	-2.541806e+01	-8.780943e+01
1.000000e-06	-3.614591e-06	-1.257859e-09	-2.517033e+01	-8.731910e+01
1.010000e-06	-3.578856e-06	-1.248030e-09	-2.492149e+01	-8.682423e+01
1.020000e-06	-3.542990e-06	-1.245577e-09	-2.467173e+01	-8.632459e+01
1.030000e-06	-3.506965e-06	-1.242082e-09	-2.442087e+01	-8.581992e+01
1.040000e-06	-3.470685e-06	-1.227149e-09	-2.416824e+01	-8.530998e+01
1.050000e-06	-3.434155e-06	-1.221636e-09	-2.391386e+01	-8.479452e+01
1.060000e-06	-3.397423e-06	-1.212609e-09	-2.365808e+01	-8.427327e+01
1.070000e-06	-3.360464e-06	-1.198000e-09	-2.340071e+01	-8.374600e+01
1.080000e-06	-3.323202e-06	-1.185907e-09	-2.314124e+01	-8.321247e+01
1.090000e-06	-3.285731e-06	-1.181712e-09	-2.288030e+01	-8.267243e+01
1.100000e-06	-3.248013e-06	-1.170168e-09	-2.261765e+01	-8.212568e+01
1.110000e-06	-3.210051e-06	-1.158708e-09	-2.235330e+01	-8.157200e+01
1.120000e-06	-3.171884e-06	-1.153612e-09	-2.208753e+01	-8.101120e+01
1.130000e-06	-3.133545e-06	-1.144723e-09	-2.182055e+01	-8.044310e+01
1.140000e-06	-3.094947e-06	-1.130304e-09	-2.155177e+01	-7.986754e+01
1.150000e-06	-3.056082e-06	-1.118706e-09	-2.128114e+01	-7.928438e+01
1.160000e-06	-3.017098e-06	-1.112063e-09	-2.100967e+01	-7.869351e+01
1.170000e-06	-2.977958e-06	-1.100968e-09	-2.073711e+01	-7.809483e+01
1.180000e-06	-2.938587e-06	-1.091611e-09	-2.046295e+01	-7.748825e+01
1.190000e-06	-2.899065e-06	-1.083299e-09	-2.018774e+01	-7.687372e+01
1.200000e-06	-2.859387e-06	-1.072241e-09	-1.991144e+01	-7.625121e+01
1.210000e-06	-2.819536e-06	-1.059156e-09	-1.963393e+01	-7.562071e+01
1.220000e-06	-2.779613e-06	-1.051243e-09	-1.935593e+01	-7.498222e+01
1.230000e-06	-2.739506e-06	-1.039613e-09	-1.907664e+01	-7.433576e+01
1.240000e-06	-2.699155e-06	-1.027852e-09	-1.879566e+01	-7.368138e+01
1.250000e-06	-2.658640e-06	-1.017537e-09	-1.851354e+01	-7.301913e+01
1.260000e-06	-2.617985e-06	-1.011073e-09	-1.823043e+01	-7.234909e+01
1.270000e-06	-2.577021e-06	-9.997451e-10	-1.794518e+01	-7.167133e+01
1.280000e-06	-2.535687e-06	-9.920332e-10	-1.765734e+01	-7.098594e+01
1.290000e-06	-2.494140e-06	-9.852770e-10	-1.736803e+01	-7.029303e+01
1.300000e-06	-2.452417e-06	-9.757756e-10	-1.707749e+01	-6.959268e+01
1.310000e-06	-2.410333e-06	-9.594247e-10	-1.678444e+01	-6.888500e+01
1.320000e-06	-2.367907e-06	-9.450987e-10	-1.648900e+01	-6.817007e+01
1.330000e-06	-2.325297e-06	-9.296713e-10	-1.619229e+01	-6.744799e+01
1.340000e-06	-2.282455e-06	-9.166183e-10	-1.589396e+01	-6.671882e+01
1.350000e-06	-2.239334e-06	-9.054852e-10	-1.559368e+01	-6.598263e+01
1.360000e-06	-2.196017e-06	-8.991673e-10	-1.529204e+01	-6.523946e+01
1.370000e-06	-2.152581e-06	-8.915905e-10	-1.498957e+01	-6.448934e+01
1.380000e-06	-2.109035e-06	-8.828481e-10	-1.468634e+01	-6.373225e+01
1.390000e-06	-2.065357e-06	-8.701099e-10	-1.438219e+01	-6.296817e+01
1.400000e-06	-2.021588e-06	-8.548536e-10	-1.407740e+01	-6.219704e+01
1.410000e-06	-1.977769e-06	-8.407268e-10	-1.377226e+01	-6.141876e+01
1.420000e-06	-1.933893e-06	-8.294651e-10	-1.346673e+01	-6.063321e+01
1.430000e-06	-1.889941e-06	-8.202200e-10	-1.316067e+01	-5.984020e+01
1.440000e-06	-1.845941e-06	-8.110883e-10	-1.285428e+01	-5.903954e+01
1.450000e-06	-1.801901e-06	-8.024927e-10	-1.254760e+01	-5.823098e+01
1.460000e-06	-1.757672e-06	-7.927379e-10	-1.223961e+01	-5.741421e+01
1.470000e-06	-1.713280e-06	-7.819412e-10	-1.193048e+01	-5.658890e+01
1.480000e-06	-1.668866e-06	-7.688145e-10	-1.162120e+01	-5.575468e+01
1.490000e-06	-1.624293e-06	-7.564987e-10	-1.131082e+01	-5.491111e+01
1.500000e-06	-1.579523e-06	-7.441217e-10	-1.099907e+01	-5.405773e+01
1.510000e-06	-1.534604e-06	-7.331285e-10	-1.068627e+01	-5.319403e+01
1.520000e-06	-1.489471e-06	-7.180187e-10	-1.037198e+01	-5.231946e+01
1.530000e-06	-1.444267e-06	-7.001174e-10	-1.005720e+01	-5.143343e+01
1.540000e-06	-1.399055e-06	-6.805593e-10	-9.742370e+00	-5.053531e+01
1.550000e-06	-1.353785e-06	-6.624099e-10	-9.427128e+00	-4.962444e+01
1.560000e-06	-1.308387e-06	-6.442359e-10	-9.110998e+00	-4.870015e+01
1.570000e-06	-1.262845e-06	-6.311745e-10	-8.793863e+00	-4.776171e+01
1.580000e-06	-1.217204e-06	-6.189795e-10	-8.476042e+00	-4.680840e+01
1.590000e-06	-1.171490e-06	-6.039219e-10	-8.157710e+00	-4.583946e+01
1.600000e-06	-1.125675e-06	-5.894564e-10	-7.838678e+00	-4.485414e+01
1.610000e-06	-1.079712e-06	-5.763719e-10	-7.518611e+00	-4.385166e+01
1.620000e-06	-1.033711e-06	-5.600028e-10	-7.198283e+00	-4.283127e+01
1.630000e-06	-9.876550e-07	-5.426237e-10	-6.877571e+00	-4.179220e+01
1.640000e-06	-9.415361e-07	-5.246781e-10	-6.556420e+00	-4.073370e+01
1.650000e-06	-8.954145e-07	-5.087522e-10	-6.235250e+00	-3.965504e+01
1.660000e-06	-8.492190e-07	-4.934913e-10	-5.913566e+00	-3.855552e+01
1.670000e-06	-8.028787e-07	-4.777014e-10	-5.590874e+00	-3.743446e+01
1.680000e-06	-7.565230e-07	-4.629003e-10	-5.268075e+00	-3.629123e+01
1.690000e-06	-7.101931e-07	-4.484926e-10	-4.945454e+00	-3.512524e+01
1.700000e-06	-6.637506e-07	-4.313778e-10	-4.622051e+00	-3.393594e+01
1.710000e-06	-6.172056e-07	-4.112301e-10	-4.297933e+00	-3.272285e+01
1.720000e-06	-5.706958e-07	-3.893731e-10	-3.974060e+00	-3.148554e+01
1.730000e-06	-5.241999e-07	-3.663956e-10	-3.650284e+00	-3.022367e+01
1.740000e-06	-4.775731e-07	-3.456216e-10	-3.325597e+00	-2.893695e+01
1.750000e-06	-4.308898e-07	-3.276457e-10	-3.000516e+00	-2.762517e+01
1.760000e-06	-3.842228e-07	-3.112009e-10	-2.675549e+00	-2.628822e+01
1.770000e-06	-3.376349e-07	-2.947689e-10	-2.351132e+00	-2.492606e+01
1.780000e-06	-2.910968e-07	-2.766355e-10	-2.027063e+00	-2.353875e+01
1.790000e-06	-2.444226e-07	-2.566660e-10	-1.702046e+00	-2.212643e+01
1.800000e-06	-1.976539e-07	-2.360838e-10	-1.376370e+00	-2.068935e+01
1.810000e-06	-1.508665e-07	-2.122468e-10	-1.050564e+00	-1.922784e+01
1.820000e-06	-1.041504e-07	-1.879791e-10	-7.252547e-01	-1.774234e+01
1.830000e-06	-5.749388e-08	-1.644306e-10	-4.003607e-01	-1.623340e+01
1.840000e-06	-1.075986e-08	-1.415987e-10	-7.492668e-02	-1.470163e+01
1.850000e-06	3.601333e-08	-1.202930e-10	2.507801e-01	-1.314777e+01
1.860000e-06	8.271662e-08	-9.994876e-11	5.760001e-01	-1.157265e+01
1.870000e-06	1.294267e-07	-7.684362e-11	9.012671e-01	-9.977189e+00
1.880000e-06	1.761397e-07	-5.307897e-11	1.226555e+00	-8.362386e+00
1.890000e-06	2.227893e-07	-3.215254e-11	1.551401e+00	-6.729339e+00
1.900000e-06	2.694151e-07	-1.277914e-11	1.876081e+00	-5.079227e+00
1.910000e-06	3.161480e-07	6.783653e-12	2.201508e+00	-3.413302e+00
1.920000e-06	3.628858e-07	2.792604e-11	2.526968e+00	-1.732894e+00
1.930000e-06	4.094973e-07	5.184726e-11	2.851549e+00	-3.939316e-02
1.940000e-06	4.560939e-07	7.593425e-11	3.176026e+00	1.665745e+00
1.950000e-06	5.026111e-07	1.000424e-10	3.499950e+00	3.381016e+00
1.960000e-06	5.490946e-07	1.249867e-10	3.823639e+00	5.104864e+00
1.970000e-06	5.957032e-07	1.482806e-10	4.148200e+00	6.835700e+00
1.980000e-06	6.422431e-07	1.715781e-10	4.472282e+00	8.571900e+00
1.990000e-06	6.885263e-07	1.937866e-10	4.794577e+00	1.031182e+01
2.000000e-06	7.346940e-07	2.133736e-10	5.116068e+00	1.205379e+01
2.010000e-06	7.808522e-07	2.374050e-10	5.437492e+00	1.379616e+01
2.020000e-06	8.270223e-07	2.602370e-10	5.758999e+00	1.553724e+01
2.030000e-06	8.730861e-07	2.863914e-10	6.079766e+00	1.727539e+01
2.040000e-06	9.190225e-07	3.155965e-10	6.399645e+00	1.900897e+01
2.050000e-06	9.649536e-07	3.427064e-10	6.719489e+00	2.073635e+01
2.060000e-06	1.010846e-06	3.667705e-10	7.039059e+00	2.245596e+01
2.070000e-06	1.056662e-06	3.899601e-10	7.358105e+00	2.416626e+01
2.080000e-06	1.102496e-06	4.105970e-10	7.677267e+00	2.586575e+01
2.090000e-06	1.148253e-06	4.284184e-10	7.995901e+00	2.755300e+01
2.100000e-06	1.193905e-06	4.512417e-10	8.313797e+00	2.922662e+01
2.110000e-06	1.239474e-06	4.762492e-10	8.631119e+00	3.088530e+01
2.120000e-06	1.285016e-06	5.022497e-10	8.948257e+00	3.252781e+01
2.130000e-06	1.330447e-06	5.278151e-10	9.264612e+00	3.415296e+01
2.140000e-06	1.375727e-06	5.516018e-10	9.579922e+00	3.575969e+01
2.150000e-06	1.420948e-06	5.707318e-10	9.894822e+00	3.734699e+01
2.160000e-06	1.465934e-06	5.871416e-10	1.020808e+01	3.891393e+01
2.170000e-06	1.510808e-06	6.052539e-10	1.052056e+01	4.045971e+01
2.180000e-06	1.555679e-06	6.252927e-10	1.083302e+01	4.198358e+01
2.190000e-06	1.600406e-06	6.464381e-10	1.114448e+01	4.348491e+01
2.200000e-06	1.645037e-06	6.719128e-10	1.145528e+01	4.496313e+01
2.210000e-06	1.689609e-06	6.943181e-10	1.176565e+01	4.641779e+01
2.220000e-06	1.734062e-06	7.107927e-10	1.207520e+01	4.784852e+01
2.230000e-06	1.778373e-06	7.244830e-10	1.238376e+01	4.925504e+01
2.240000e-06	1.822506e-06	7.395860e-10	1.269108e+01	5.063716e+01
2.250000e-06	1.866446e-06	7.578905e-10	1.299706e+01	5.199476e+01
2.260000e-06	1.910290e-06	7.795213e-10	1.330237e+01	5.332782e+01
2.270000e-06	1.954074e-06	8.017796e-10	1.360727e+01	5.463638e+01
2.280000e-06	1.997826e-06	8.216543e-10	1.391193e+01	5.592057e+01
2.290000e-06	2.041550e-06	8.375358e-10	1.421641e+01	5.718058e+01
2.300000e-06	2.085183e-06	8.517071e-10	1.452025e+01	5.841665e+01
2.310000e-06	2.128653e-06	8.643842e-10	1.482295e+01	5.962911e+01
2.320000e-06	2.172031e-06	8.804672e-10	1.512501e+01	6.081830e+01
2.330000e-06	2.215357e-06	9.018080e-10	1.542672e+01	6.198464e+01
2.340000e-06	2.258583e-06	9.237924e-10	1.572772e+01	6.312858e+01
2.350000e-06	2.301682e-06	9.414811e-10	1.602784e+01	6.425061e+01
2.360000e-06	2.344561e-06	9.560034e-10	1.632643e+01	6.535124e+01
2.370000e-06	2.387160e-06	9.692895e-10	1.662308e+01	6.643101e+01
2.380000e-06	2.429436e-06	9.813113e-10	1.691746e+01	6.749046e+01
2.390000e-06	2.471374e-06	9.960330e-10	1.720950e+01	6.853017e+01
2.400000e-06	2.512957e-06	1.011555e-09	1.749906e+01	6.955070e+01
2.410000e-06	2.554187e-06	1.027479e-09	1.778617e+01	7.055263e+01
2.420000e-06	2.595119e-06	1.042664e-09	1.807120e+01	7.153651e+01
2.430000e-06	2.635867e-06	1.056888e-09	1.835495e+01	7.250291e+01
2.440000e-06	2.676392e-06	1.067809e-09	1.863715e+01	7.345237e+01
2.450000e-06	2.716655e-06	1.077804e-09	1.891752e+01	7.438540e+01
2.460000e-06	2.756796e-06	1.089690e-09	1.919704e+01	7.530250e+01
2.470000e-06	2.796800e-06	1.101445e-09	1.947561e+01	7.620415e+01
2.480000e-06	2.836598e-06	1.113677e-09	1.975275e+01	7.709078e+01
2.490000e-06	2.876308e-06	1.126958e-09	2.002927e+01	7.796282e+01
2.500000e-06	2.915966e-06	1.139750e-09	2.030543e+01	7.882064e+01
2.510000e-06	2.955446e-06	1.153915e-09	2.058035e+01	7.966458e+01
2.520000e-06	2.994699e-06	1.165313e-09	2.085369e+01	8.049495e+01
2.530000e-06	3.033770e-06	1.174083e-09	2.112577e+01	8.131202e+01
2.540000e-06	3.072596e-06	1.184906e-09	2.139613e+01	8.211602e+01
2.550000e-06	3.111177e-06	1.198716e-09	2.166479e+01	8.290715e+01
2.560000e-06	3.149572e-06	1.211001e-09	2.193215e+01	8.368557e+01
2.570000e-06	3.187745e-06	1.222500e-09	2.219798e+01	8.445141e+01
2.580000e-06	3.225724e-06	1.234919e-09	2.246244e+01	8.520476e+01
2.590000e-06	3.263457e-06	1.247076e-09	2.272520e+01	8.594567e+01
2.600000e-06	3.300933e-06	1.257141e-09	2.298616e+01	8.667419e+01
2.610000e-06	3.338188e-06	1.265447e-09	2.324559e+01	8.739031e+01
2.620000e-06	3.375243e-06	1.274775e-09	2.350362e+01	8.809401e+01
2.630000e-06	3.412078e-06	1.283594e-09	2.376013e+01	8.878526e+01
2.640000e-06	3.448566e-06	1.290801e-09	2.401421e+01	8.946399e+01
2.650000e-06	3.484814e-06	1.301897e-09	2.426662e+01	9.013014e+01
2.660000e-06	3.520882e-06	1.316962e-09	2.451778e+01	9.078362e+01
2.670000e-06	3.556749e-06	1.328035e-09	2.476755e+01	9.142433e+01
2.680000e-06	3.592510e-06	1.335069e-09	2.501657e+01	9.205218e+01
2.690000e-06	3.628179e-06	1.339238e-09	2.526495e+01	9.266708e+01
2.700000e-06	3.663668e-06	1.342068e-09	2.551208e+01	9.326892e+01
2.710000e-06	3.698972e-06	1.346906e-09	2.575792e+01	9.385762e+01
2.720000e-06	3.733973e-06	1.355481e-09	2.600165e+01	9.443310e+01
2.730000e-06	3.768570e-06	1.365484e-09	2.624257e+01	9.499529e+01
2.740000e-06	3.802895e-06	1.377288e-09	2.648159e+01	9.554413e+01
2.750000e-06	3.836722e-06	1.386584e-09	2.671715e+01	9.607960e+01
2.760000e-06	3.869942e-06	1.392388e-09	2.694848e+01	9.660168e+01
2.770000e-06	3.902723e-06	1.396226e-09	2.717675e+01	9.711037e+01
2.780000e-06	3.935170e-06	1.399441e-09	2.740269e+01	9.760571e+01
2.790000e-06	3.967399e-06	1.404736e-09	2.762712e+01	9.808775e+01
2.800000e-06	3.999427e-06	1.411055e-09	2.785015e+01	9.855658e+01
2.810000e-06	4.031240e-06	1.416247e-09	2.807168e+01	9.901230e+01
2.820000e-06	4.062854e-06	1.421328e-09	2.829183e+01	9.945506e+01
2.830000e-06	4.094268e-06	1.427361e-09	2.851058e+01	9.988503e+01
2.840000e-06	4.125481e-06	1.434740e-09	2.872793e+01	1.003024e+02
2.850000e-06	4.156484e-06	1.439126e-09	2.894382e+01	1.007074e+02
2.860000e-06	4.187156e-06	1.442386e-09	2.915741e+01	1.011002e+02
2.870000e-06	4.217447e-06	1.448081e-09	2.936834e+01	1.014812e+02
2.880000e-06	4.247380e-06	1.449345e-09	2.957678e+01	1.018507e+02
2.890000e-06	4.277093e-06	1.451800e-09	2.978369e+01	1.022089e+02
2.900000e-06	4.306652e-06	1.455439e-09	2.998953e+01	1.025563e+02
