# Temperatura_=_-1.3
# Concentracion g/m^3_=_1620.0
# C_Vs_to_Am_M_A/Vsm_=_65563218390.804596
# pendiente_HvsI_1/m_=_3716.3
# ordenada_HvsI_A/m_=_1297.0
# frecuencia_Hz_=_135099.24172648194

Tiempo_(s)	Campo_(V.s)	Magnetizacion_(V.s)	Campo_(kA/m)	Magnetizacion_(A/m)
0.000000e+00	-5.504159e-06	-1.166382e-09	-3.836969e+01	-7.726718e+01
1.000000e-08	-5.504297e-06	-1.161965e-09	-3.837065e+01	-7.723406e+01
2.000000e-08	-5.504121e-06	-1.160139e-09	-3.836942e+01	-7.719889e+01
3.000000e-08	-5.503509e-06	-1.160374e-09	-3.836515e+01	-7.716154e+01
4.000000e-08	-5.502357e-06	-1.161129e-09	-3.835713e+01	-7.712188e+01
5.000000e-08	-5.500627e-06	-1.160307e-09	-3.834506e+01	-7.707981e+01
6.000000e-08	-5.498276e-06	-1.161058e-09	-3.832868e+01	-7.703518e+01
7.000000e-08	-5.495379e-06	-1.164090e-09	-3.830848e+01	-7.698789e+01
8.000000e-08	-5.492073e-06	-1.167769e-09	-3.828544e+01	-7.693780e+01
9.000000e-08	-5.488363e-06	-1.179670e-09	-3.825957e+01	-7.688481e+01
1.000000e-07	-5.484144e-06	-1.175479e-09	-3.823017e+01	-7.682879e+01
1.100000e-07	-5.479597e-06	-1.077988e-09	-3.819847e+01	-7.676965e+01
1.200000e-07	-5.475006e-06	-1.127990e-09	-3.816646e+01	-7.670728e+01
1.300000e-07	-5.470087e-06	-1.184933e-09	-3.813217e+01	-7.664158e+01
1.400000e-07	-5.464704e-06	-1.213730e-09	-3.809465e+01	-7.657248e+01
1.500000e-07	-5.458968e-06	-1.113456e-09	-3.805466e+01	-7.649988e+01
1.600000e-07	-5.452905e-06	-1.085157e-09	-3.801240e+01	-7.642373e+01
1.700000e-07	-5.446409e-06	-1.183531e-09	-3.796711e+01	-7.634395e+01
1.800000e-07	-5.439338e-06	-1.192120e-09	-3.791782e+01	-7.626051e+01
1.900000e-07	-5.431922e-06	-1.137689e-09	-3.786612e+01	-7.617335e+01
2.000000e-07	-5.424341e-06	-1.094146e-09	-3.781328e+01	-7.608244e+01
2.100000e-07	-5.416522e-06	-1.198530e-09	-3.775877e+01	-7.598777e+01
2.200000e-07	-5.408444e-06	-1.211445e-09	-3.770245e+01	-7.588932e+01
2.300000e-07	-5.400063e-06	-1.174006e-09	-3.764403e+01	-7.578710e+01
2.400000e-07	-5.391162e-06	-1.106662e-09	-3.758198e+01	-7.568111e+01
2.500000e-07	-5.381479e-06	-1.167131e-09	-3.751448e+01	-7.557137e+01
2.600000e-07	-5.371051e-06	-1.168068e-09	-3.744178e+01	-7.545792e+01
2.700000e-07	-5.360034e-06	-1.147959e-09	-3.736499e+01	-7.534079e+01
2.800000e-07	-5.348571e-06	-1.100336e-09	-3.728508e+01	-7.522004e+01
2.900000e-07	-5.336802e-06	-1.135415e-09	-3.720304e+01	-7.509571e+01
3.000000e-07	-5.324787e-06	-1.136016e-09	-3.711928e+01	-7.496789e+01
3.100000e-07	-5.312466e-06	-1.107419e-09	-3.703339e+01	-7.483664e+01
3.200000e-07	-5.299591e-06	-1.085787e-09	-3.694364e+01	-7.470204e+01
3.300000e-07	-5.286338e-06	-1.122478e-09	-3.685125e+01	-7.456419e+01
3.400000e-07	-5.272811e-06	-1.135664e-09	-3.675695e+01	-7.442318e+01
3.500000e-07	-5.258826e-06	-1.092841e-09	-3.665946e+01	-7.427911e+01
3.600000e-07	-5.244279e-06	-1.079884e-09	-3.655806e+01	-7.413209e+01
3.700000e-07	-5.229291e-06	-1.119892e-09	-3.645357e+01	-7.398223e+01
3.800000e-07	-5.213690e-06	-1.114233e-09	-3.634482e+01	-7.382964e+01
3.900000e-07	-5.197475e-06	-1.062212e-09	-3.623178e+01	-7.367444e+01
4.000000e-07	-5.180967e-06	-1.109977e-09	-3.611671e+01	-7.351675e+01
4.100000e-07	-5.164262e-06	-1.139596e-09	-3.600025e+01	-7.335669e+01
4.200000e-07	-5.147180e-06	-1.075690e-09	-3.588117e+01	-7.319437e+01
4.300000e-07	-5.129717e-06	-1.046041e-09	-3.575944e+01	-7.302992e+01
4.400000e-07	-5.112047e-06	-1.145947e-09	-3.563626e+01	-7.286347e+01
4.500000e-07	-5.093910e-06	-1.098207e-09	-3.550983e+01	-7.269511e+01
4.600000e-07	-5.075271e-06	-1.021772e-09	-3.537990e+01	-7.252498e+01
4.700000e-07	-5.056309e-06	-1.084763e-09	-3.524771e+01	-7.235318e+01
4.800000e-07	-5.037078e-06	-1.151819e-09	-3.511365e+01	-7.217983e+01
4.900000e-07	-5.017571e-06	-1.042491e-09	-3.497767e+01	-7.200502e+01
5.000000e-07	-4.997803e-06	-1.056760e-09	-3.483986e+01	-7.182885e+01
5.100000e-07	-4.977840e-06	-1.129234e-09	-3.470070e+01	-7.165142e+01
5.200000e-07	-4.957581e-06	-1.069918e-09	-3.455947e+01	-7.147282e+01
5.300000e-07	-4.936870e-06	-1.008318e-09	-3.441510e+01	-7.129311e+01
5.400000e-07	-4.915769e-06	-1.106207e-09	-3.426800e+01	-7.111238e+01
5.500000e-07	-4.894408e-06	-1.084709e-09	-3.411909e+01	-7.093069e+01
5.600000e-07	-4.872793e-06	-1.006329e-09	-3.396841e+01	-7.074810e+01
5.700000e-07	-4.850824e-06	-1.062085e-09	-3.381527e+01	-7.056464e+01
5.800000e-07	-4.828485e-06	-1.107810e-09	-3.365954e+01	-7.038035e+01
5.900000e-07	-4.805688e-06	-1.020517e-09	-3.350062e+01	-7.019527e+01
6.000000e-07	-4.782488e-06	-1.029850e-09	-3.333890e+01	-7.000941e+01
6.100000e-07	-4.759056e-06	-1.087291e-09	-3.317555e+01	-6.982278e+01
6.200000e-07	-4.735488e-06	-1.040330e-09	-3.301125e+01	-6.963537e+01
6.300000e-07	-4.711751e-06	-1.020825e-09	-3.284579e+01	-6.944716e+01
6.400000e-07	-4.687743e-06	-1.070571e-09	-3.267843e+01	-6.925813e+01
6.500000e-07	-4.663261e-06	-1.048810e-09	-3.250776e+01	-6.906825e+01
6.600000e-07	-4.638336e-06	-1.010347e-09	-3.233401e+01	-6.887746e+01
6.700000e-07	-4.612955e-06	-1.046181e-09	-3.215708e+01	-6.868570e+01
6.800000e-07	-4.586874e-06	-1.041956e-09	-3.197526e+01	-6.849291e+01
6.900000e-07	-4.560223e-06	-1.014656e-09	-3.178948e+01	-6.829900e+01
7.000000e-07	-4.533200e-06	-1.031172e-09	-3.160110e+01	-6.810389e+01
7.100000e-07	-4.505873e-06	-1.043893e-09	-3.141060e+01	-6.790746e+01
7.200000e-07	-4.478324e-06	-1.012485e-09	-3.121855e+01	-6.770961e+01
7.300000e-07	-4.450654e-06	-1.022196e-09	-3.102567e+01	-6.751021e+01
7.400000e-07	-4.422826e-06	-1.022893e-09	-3.083168e+01	-6.730914e+01
7.500000e-07	-4.394782e-06	-1.004083e-09	-3.063618e+01	-6.710626e+01
7.600000e-07	-4.366449e-06	-9.999384e-10	-3.043867e+01	-6.690141e+01
7.700000e-07	-4.337694e-06	-1.016192e-09	-3.023822e+01	-6.669444e+01
7.800000e-07	-4.308532e-06	-9.946777e-10	-3.003493e+01	-6.648519e+01
7.900000e-07	-4.279145e-06	-9.938397e-10	-2.983007e+01	-6.627349e+01
8.000000e-07	-4.249616e-06	-9.986676e-10	-2.962422e+01	-6.605917e+01
8.100000e-07	-4.219831e-06	-9.837307e-10	-2.941660e+01	-6.584206e+01
8.200000e-07	-4.189688e-06	-9.627755e-10	-2.920646e+01	-6.562197e+01
8.300000e-07	-4.159197e-06	-9.769375e-10	-2.899391e+01	-6.539871e+01
8.400000e-07	-4.128338e-06	-9.728000e-10	-2.877879e+01	-6.517212e+01
8.500000e-07	-4.097195e-06	-9.579469e-10	-2.856169e+01	-6.494200e+01
8.600000e-07	-4.065869e-06	-9.602653e-10	-2.834332e+01	-6.470816e+01
8.700000e-07	-4.034385e-06	-9.681393e-10	-2.812384e+01	-6.447044e+01
8.800000e-07	-4.002786e-06	-9.525218e-10	-2.790356e+01	-6.422865e+01
8.900000e-07	-3.971000e-06	-9.486498e-10	-2.768198e+01	-6.398261e+01
9.000000e-07	-3.938951e-06	-9.529725e-10	-2.745857e+01	-6.373217e+01
9.100000e-07	-3.906577e-06	-9.393962e-10	-2.723289e+01	-6.347715e+01
9.200000e-07	-3.873823e-06	-9.252149e-10	-2.700456e+01	-6.321740e+01
9.300000e-07	-3.840678e-06	-9.314655e-10	-2.677351e+01	-6.295278e+01
9.400000e-07	-3.807055e-06	-9.290806e-10	-2.653912e+01	-6.268316e+01
9.500000e-07	-3.773014e-06	-9.124682e-10	-2.630182e+01	-6.240839e+01
9.600000e-07	-3.738560e-06	-9.126551e-10	-2.606164e+01	-6.212838e+01
9.700000e-07	-3.703579e-06	-9.105909e-10	-2.581778e+01	-6.184301e+01
9.800000e-07	-3.668242e-06	-8.967242e-10	-2.557144e+01	-6.155220e+01
9.900000e-07	-3.632759e-06	-8.877129e-10	-2.532409e+01	-6.125587e+01
1.000000e-06	-3.597183e-06	-8.938224e-10	-2.507609e+01	-6.095396e+01
1.010000e-06	-3.561489e-06	-8.887588e-10	-2.482727e+01	-6.064642e+01
1.020000e-06	-3.525647e-06	-8.867523e-10	-2.457741e+01	-6.033322e+01
1.030000e-06	-3.489586e-06	-8.875873e-10	-2.432603e+01	-6.001433e+01
1.040000e-06	-3.453370e-06	-8.859767e-10	-2.407357e+01	-5.968977e+01
1.050000e-06	-3.416900e-06	-8.726723e-10	-2.381933e+01	-5.935952e+01
1.060000e-06	-3.380070e-06	-8.677233e-10	-2.356259e+01	-5.902363e+01
1.070000e-06	-3.342968e-06	-8.592584e-10	-2.330395e+01	-5.868213e+01
1.080000e-06	-3.305666e-06	-8.513204e-10	-2.304391e+01	-5.833508e+01
1.090000e-06	-3.268164e-06	-8.460654e-10	-2.278249e+01	-5.798254e+01
1.100000e-06	-3.230449e-06	-8.473959e-10	-2.251958e+01	-5.762458e+01
1.110000e-06	-3.192512e-06	-8.411152e-10	-2.225512e+01	-5.726131e+01
1.120000e-06	-3.154352e-06	-8.368249e-10	-2.198910e+01	-5.689282e+01
1.130000e-06	-3.115992e-06	-8.313544e-10	-2.172169e+01	-5.651921e+01
1.140000e-06	-3.077330e-06	-8.228873e-10	-2.145218e+01	-5.614060e+01
1.150000e-06	-3.038433e-06	-8.119897e-10	-2.118102e+01	-5.575712e+01
1.160000e-06	-2.999357e-06	-8.077731e-10	-2.090862e+01	-5.536889e+01
1.170000e-06	-2.960050e-06	-8.022809e-10	-2.063461e+01	-5.497604e+01
1.180000e-06	-2.920584e-06	-7.965077e-10	-2.035950e+01	-5.457869e+01
1.190000e-06	-2.881034e-06	-7.938653e-10	-2.008379e+01	-5.417697e+01
1.200000e-06	-2.841372e-06	-7.904126e-10	-1.980731e+01	-5.377101e+01
1.210000e-06	-2.801600e-06	-7.811284e-10	-1.953005e+01	-5.336092e+01
1.220000e-06	-2.761712e-06	-7.715814e-10	-1.925199e+01	-5.294682e+01
1.230000e-06	-2.721644e-06	-7.643172e-10	-1.897268e+01	-5.252881e+01
1.240000e-06	-2.681469e-06	-7.553196e-10	-1.869261e+01	-5.210697e+01
1.250000e-06	-2.641098e-06	-7.506085e-10	-1.841119e+01	-5.168138e+01
1.260000e-06	-2.600376e-06	-7.469991e-10	-1.812731e+01	-5.125211e+01
1.270000e-06	-2.559396e-06	-7.423177e-10	-1.784164e+01	-5.081919e+01
1.280000e-06	-2.518224e-06	-7.335161e-10	-1.755463e+01	-5.038264e+01
1.290000e-06	-2.476742e-06	-7.253521e-10	-1.726545e+01	-4.994248e+01
1.300000e-06	-2.434904e-06	-7.159538e-10	-1.697381e+01	-4.949867e+01
1.310000e-06	-2.392693e-06	-7.092155e-10	-1.667955e+01	-4.905117e+01
1.320000e-06	-2.350123e-06	-7.034690e-10	-1.638279e+01	-4.859991e+01
1.330000e-06	-2.307349e-06	-6.989736e-10	-1.608461e+01	-4.814479e+01
1.340000e-06	-2.264364e-06	-6.924093e-10	-1.578496e+01	-4.768567e+01
1.350000e-06	-2.221103e-06	-6.861328e-10	-1.548339e+01	-4.722241e+01
1.360000e-06	-2.177678e-06	-6.762210e-10	-1.518067e+01	-4.675481e+01
1.370000e-06	-2.134165e-06	-6.664762e-10	-1.487734e+01	-4.628266e+01
1.380000e-06	-2.090542e-06	-6.569477e-10	-1.457324e+01	-4.580570e+01
1.390000e-06	-2.046880e-06	-6.489378e-10	-1.426887e+01	-4.532367e+01
1.400000e-06	-2.003186e-06	-6.408709e-10	-1.396428e+01	-4.483624e+01
1.410000e-06	-1.959463e-06	-6.348641e-10	-1.365949e+01	-4.434309e+01
1.420000e-06	-1.915665e-06	-6.274426e-10	-1.335417e+01	-4.384383e+01
1.430000e-06	-1.871742e-06	-6.186192e-10	-1.304798e+01	-4.333809e+01
1.440000e-06	-1.827699e-06	-6.091109e-10	-1.274096e+01	-4.282543e+01
1.450000e-06	-1.783472e-06	-5.992797e-10	-1.243265e+01	-4.230542e+01
1.460000e-06	-1.739126e-06	-5.878665e-10	-1.212351e+01	-4.177757e+01
1.470000e-06	-1.694747e-06	-5.768522e-10	-1.181414e+01	-4.124141e+01
1.480000e-06	-1.650234e-06	-5.672871e-10	-1.150384e+01	-4.069642e+01
1.490000e-06	-1.605600e-06	-5.604853e-10	-1.119269e+01	-4.014208e+01
1.500000e-06	-1.560831e-06	-5.555860e-10	-1.088061e+01	-3.957785e+01
1.510000e-06	-1.515808e-06	-5.516017e-10	-1.056675e+01	-3.900318e+01
1.520000e-06	-1.470617e-06	-5.443466e-10	-1.025172e+01	-3.841752e+01
1.530000e-06	-1.425413e-06	-5.334546e-10	-9.936607e+00	-3.782031e+01
1.540000e-06	-1.380205e-06	-5.196778e-10	-9.621457e+00	-3.721099e+01
1.550000e-06	-1.334925e-06	-5.037890e-10	-9.305807e+00	-3.658901e+01
1.560000e-06	-1.289497e-06	-4.889308e-10	-8.989131e+00	-3.595380e+01
1.570000e-06	-1.244002e-06	-4.777868e-10	-8.671985e+00	-3.530484e+01
1.580000e-06	-1.198477e-06	-4.681527e-10	-8.354626e+00	-3.464159e+01
1.590000e-06	-1.152839e-06	-4.611953e-10	-8.036485e+00	-3.396355e+01
1.600000e-06	-1.107100e-06	-4.562769e-10	-7.717630e+00	-3.327022e+01
1.610000e-06	-1.061226e-06	-4.459951e-10	-7.397846e+00	-3.256115e+01
1.620000e-06	-1.015254e-06	-4.326067e-10	-7.077372e+00	-3.183590e+01
1.630000e-06	-9.692537e-07	-4.176252e-10	-6.756702e+00	-3.109406e+01
1.640000e-06	-9.233091e-07	-4.041542e-10	-6.436421e+00	-3.033527e+01
1.650000e-06	-8.773361e-07	-3.899709e-10	-6.115941e+00	-2.955919e+01
1.660000e-06	-8.312433e-07	-3.764513e-10	-5.794627e+00	-2.876553e+01
1.670000e-06	-7.850359e-07	-3.640476e-10	-5.472513e+00	-2.795405e+01
1.680000e-06	-7.387477e-07	-3.556430e-10	-5.149836e+00	-2.712454e+01
1.690000e-06	-6.924392e-07	-3.469648e-10	-4.827018e+00	-2.627684e+01
1.700000e-06	-6.460459e-07	-3.366772e-10	-4.503609e+00	-2.541087e+01
1.710000e-06	-5.995985e-07	-3.221337e-10	-4.179822e+00	-2.452655e+01
1.720000e-06	-5.531922e-07	-3.057200e-10	-3.856322e+00	-2.362390e+01
1.730000e-06	-5.068084e-07	-2.891298e-10	-3.532980e+00	-2.270298e+01
1.740000e-06	-4.602424e-07	-2.713890e-10	-3.208366e+00	-2.176388e+01
1.750000e-06	-4.135978e-07	-2.560474e-10	-2.883205e+00	-2.080678e+01
1.760000e-06	-3.670389e-07	-2.444438e-10	-2.558641e+00	-1.983191e+01
1.770000e-06	-3.204390e-07	-2.313710e-10	-2.233792e+00	-1.883953e+01
1.780000e-06	-2.738063e-07	-2.187191e-10	-1.908713e+00	-1.782999e+01
1.790000e-06	-2.271644e-07	-2.073611e-10	-1.583571e+00	-1.680367e+01
1.800000e-06	-1.804869e-07	-1.940921e-10	-1.258181e+00	-1.576101e+01
1.810000e-06	-1.338040e-07	-1.789601e-10	-9.327525e-01	-1.470251e+01
1.820000e-06	-8.708631e-08	-1.618324e-10	-6.070818e-01	-1.362870e+01
1.830000e-06	-4.036797e-08	-1.440075e-10	-2.814065e-01	-1.254018e+01
1.840000e-06	6.333885e-09	-1.273210e-10	4.415374e-02	-1.143759e+01
1.850000e-06	5.305936e-08	-1.141894e-10	3.698787e-01	-1.032160e+01
1.860000e-06	9.967831e-08	-9.876689e-11	6.948611e-01	-9.192936e+00
1.870000e-06	1.462443e-07	-8.052253e-11	1.019474e+00	-8.052353e+00
1.880000e-06	1.928717e-07	-6.426773e-11	1.344515e+00	-6.900645e+00
1.890000e-06	2.395396e-07	-4.819334e-11	1.669839e+00	-5.738633e+00
1.900000e-06	2.862376e-07	-3.237471e-11	1.995372e+00	-4.567170e+00
1.910000e-06	3.329097e-07	-1.766041e-11	2.320725e+00	-3.387130e+00
1.920000e-06	3.795759e-07	-3.765248e-13	2.646037e+00	-2.199407e+00
1.930000e-06	4.262478e-07	1.770439e-11	2.971389e+00	-1.004913e+00
1.940000e-06	4.728069e-07	3.539863e-11	3.295953e+00	1.954263e-01
1.950000e-06	5.192334e-07	5.201448e-11	3.619595e+00	1.400678e+00
1.960000e-06	5.656017e-07	6.720508e-11	3.942830e+00	2.609903e+00
1.970000e-06	6.119115e-07	8.305376e-11	4.265657e+00	3.822161e+00
1.980000e-06	6.581792e-07	9.921241e-11	4.588190e+00	5.036511e+00
1.990000e-06	7.044407e-07	1.138214e-10	4.910681e+00	6.252021e+00
2.000000e-06	7.506406e-07	1.309410e-10	5.232742e+00	7.467764e+00
2.010000e-06	7.967915e-07	1.473195e-10	5.554462e+00	8.682830e+00
2.020000e-06	8.429043e-07	1.637030e-10	5.875916e+00	9.896318e+00
2.030000e-06	8.889549e-07	1.825718e-10	6.196936e+00	1.110735e+01
2.040000e-06	9.349375e-07	2.017645e-10	6.517482e+00	1.231506e+01
2.050000e-06	9.808429e-07	2.206835e-10	6.837491e+00	1.351863e+01
2.060000e-06	1.026716e-06	2.385886e-10	7.157273e+00	1.471723e+01
2.070000e-06	1.072481e-06	2.551469e-10	7.476302e+00	1.591009e+01
2.080000e-06	1.118128e-06	2.714318e-10	7.794508e+00	1.709644e+01
2.090000e-06	1.163781e-06	2.888090e-10	8.112760e+00	1.827558e+01
2.100000e-06	1.209350e-06	3.058224e-10	8.430424e+00	1.944680e+01
2.110000e-06	1.254816e-06	3.221248e-10	8.747364e+00	2.060946e+01
2.120000e-06	1.300243e-06	3.369440e-10	9.064043e+00	2.176292e+01
2.130000e-06	1.345551e-06	3.518206e-10	9.379882e+00	2.290661e+01
2.140000e-06	1.390698e-06	3.668883e-10	9.694605e+00	2.403997e+01
2.150000e-06	1.435772e-06	3.824621e-10	1.000882e+01	2.516248e+01
2.160000e-06	1.480787e-06	3.995105e-10	1.032262e+01	2.627366e+01
2.170000e-06	1.525673e-06	4.162595e-10	1.063552e+01	2.737307e+01
2.180000e-06	1.570332e-06	4.331661e-10	1.094684e+01	2.846029e+01
2.190000e-06	1.614843e-06	4.503553e-10	1.125713e+01	2.953495e+01
2.200000e-06	1.659313e-06	4.659533e-10	1.156713e+01	3.059669e+01
2.210000e-06	1.703702e-06	4.781175e-10	1.187657e+01	3.164522e+01
2.220000e-06	1.747959e-06	4.890225e-10	1.218508e+01	3.268024e+01
2.230000e-06	1.791997e-06	5.044236e-10	1.249207e+01	3.370151e+01
2.240000e-06	1.835956e-06	5.214550e-10	1.279851e+01	3.470880e+01
2.250000e-06	1.879922e-06	5.398884e-10	1.310500e+01	3.570191e+01
2.260000e-06	1.923759e-06	5.559285e-10	1.341059e+01	3.668068e+01
2.270000e-06	1.967497e-06	5.687641e-10	1.371549e+01	3.764496e+01
2.280000e-06	2.011216e-06	5.804897e-10	1.402026e+01	3.859463e+01
2.290000e-06	2.054896e-06	5.928963e-10	1.432476e+01	3.952958e+01
2.300000e-06	2.098508e-06	6.037635e-10	1.462877e+01	4.044974e+01
2.310000e-06	2.142073e-06	6.162485e-10	1.493247e+01	4.135503e+01
2.320000e-06	2.185563e-06	6.322045e-10	1.523564e+01	4.224541e+01
2.330000e-06	2.228870e-06	6.468123e-10	1.553753e+01	4.312085e+01
2.340000e-06	2.272042e-06	6.596041e-10	1.583849e+01	4.398134e+01
2.350000e-06	2.315069e-06	6.711019e-10	1.613843e+01	4.482686e+01
2.360000e-06	2.357796e-06	6.827712e-10	1.643628e+01	4.565742e+01
2.370000e-06	2.400203e-06	6.940872e-10	1.673190e+01	4.647305e+01
2.380000e-06	2.442336e-06	7.050324e-10	1.702561e+01	4.727377e+01
2.390000e-06	2.484168e-06	7.164399e-10	1.731722e+01	4.805962e+01
2.400000e-06	2.525674e-06	7.278764e-10	1.760657e+01	4.883064e+01
2.410000e-06	2.566738e-06	7.367673e-10	1.789282e+01	4.958689e+01
2.420000e-06	2.607434e-06	7.439988e-10	1.817651e+01	5.032843e+01
2.430000e-06	2.647980e-06	7.492075e-10	1.845916e+01	5.105532e+01
2.440000e-06	2.688375e-06	7.559582e-10	1.874076e+01	5.176764e+01
2.450000e-06	2.728565e-06	7.639205e-10	1.902092e+01	5.246547e+01
2.460000e-06	2.768551e-06	7.734766e-10	1.929967e+01	5.314889e+01
2.470000e-06	2.808347e-06	7.838316e-10	1.957709e+01	5.381800e+01
2.480000e-06	2.848033e-06	7.940474e-10	1.985374e+01	5.447291e+01
2.490000e-06	2.887637e-06	8.037297e-10	2.012982e+01	5.511370e+01
2.500000e-06	2.927117e-06	8.119880e-10	2.040503e+01	5.574050e+01
2.510000e-06	2.966484e-06	8.192095e-10	2.067946e+01	5.635343e+01
2.520000e-06	3.005666e-06	8.260797e-10	2.095261e+01	5.695261e+01
2.530000e-06	3.044598e-06	8.344083e-10	2.122400e+01	5.753818e+01
2.540000e-06	3.083344e-06	8.449609e-10	2.149410e+01	5.811028e+01
2.550000e-06	3.121942e-06	8.536459e-10	2.176317e+01	5.866905e+01
2.560000e-06	3.160227e-06	8.605091e-10	2.203006e+01	5.921467e+01
2.570000e-06	3.198194e-06	8.675460e-10	2.229473e+01	5.974728e+01
2.580000e-06	3.235969e-06	8.763713e-10	2.255805e+01	6.026708e+01
2.590000e-06	3.273550e-06	8.861263e-10	2.282003e+01	6.077424e+01
2.600000e-06	3.311018e-06	8.936078e-10	2.308123e+01	6.126896e+01
2.610000e-06	3.348256e-06	8.981387e-10	2.334081e+01	6.175144e+01
2.620000e-06	3.385135e-06	9.016966e-10	2.359789e+01	6.222189e+01
2.630000e-06	3.421728e-06	9.073322e-10	2.385299e+01	6.268054e+01
2.640000e-06	3.458026e-06	9.155397e-10	2.410603e+01	6.312761e+01
2.650000e-06	3.494049e-06	9.252123e-10	2.435714e+01	6.356335e+01
2.660000e-06	3.529942e-06	9.338471e-10	2.460735e+01	6.398799e+01
2.670000e-06	3.565704e-06	9.410578e-10	2.485665e+01	6.440180e+01
2.680000e-06	3.601350e-06	9.468522e-10	2.510514e+01	6.480504e+01
2.690000e-06	3.636998e-06	9.486034e-10	2.535365e+01	6.519797e+01
2.700000e-06	3.672535e-06	9.503676e-10	2.560137e+01	6.558086e+01
2.710000e-06	3.707815e-06	9.553901e-10	2.584731e+01	6.595400e+01
2.720000e-06	3.742755e-06	9.609032e-10	2.609088e+01	6.631767e+01
2.730000e-06	3.777360e-06	9.679207e-10	2.633211e+01	6.667216e+01
2.740000e-06	3.811569e-06	9.722376e-10	2.657059e+01	6.701774e+01
2.750000e-06	3.845281e-06	9.754771e-10	2.680559e+01	6.735472e+01
2.760000e-06	3.878492e-06	9.771364e-10	2.703711e+01	6.768338e+01
2.770000e-06	3.911163e-06	9.807676e-10	2.726485e+01	6.800400e+01
2.780000e-06	3.943371e-06	9.877870e-10	2.748938e+01	6.831687e+01
2.790000e-06	3.975344e-06	9.945168e-10	2.771226e+01	6.862227e+01
2.800000e-06	4.007188e-06	9.992295e-10	2.793425e+01	6.892047e+01
2.810000e-06	4.038892e-06	1.001541e-09	2.815526e+01	6.921175e+01
2.820000e-06	4.070367e-06	1.003220e-09	2.837467e+01	6.949636e+01
2.830000e-06	4.101586e-06	1.005345e-09	2.859230e+01	6.977456e+01
2.840000e-06	4.132621e-06	1.007058e-09	2.880865e+01	7.004659e+01
2.850000e-06	4.163352e-06	1.010248e-09	2.902288e+01	7.031268e+01
2.860000e-06	4.193777e-06	1.014848e-09	2.923497e+01	7.057305e+01
2.870000e-06	4.223873e-06	1.020820e-09	2.944477e+01	7.082792e+01
2.880000e-06	4.253651e-06	1.026052e-09	2.965235e+01	7.107747e+01
2.890000e-06	4.283182e-06	1.027688e-09	2.985822e+01	7.132188e+01
2.900000e-06	4.312410e-06	1.028220e-09	3.006197e+01	7.156132e+01
