# Temperatura_=_-0.7
# Concentracion g/m^3_=_1620.0
# C_Vs_to_Am_M_A/Vsm_=_65563218390.804596
# pendiente_HvsI_1/m_=_3716.3
# ordenada_HvsI_A/m_=_1297.0
# frecuencia_Hz_=_135098.4114779814

Tiempo_(s)	Campo_(V.s)	Magnetizacion_(V.s)	Campo_(kA/m)	Magnetizacion_(A/m)
0.000000e+00	-5.521601e-06	-1.246157e-09	-3.837638e+01	-8.205512e+01
1.000000e-08	-5.521804e-06	-1.242308e-09	-3.837778e+01	-8.204550e+01
2.000000e-08	-5.521696e-06	-1.236169e-09	-3.837703e+01	-8.203693e+01
3.000000e-08	-5.521294e-06	-1.233661e-09	-3.837424e+01	-8.202924e+01
4.000000e-08	-5.520501e-06	-1.234996e-09	-3.836873e+01	-8.202225e+01
5.000000e-08	-5.519070e-06	-1.235232e-09	-3.835878e+01	-8.201576e+01
6.000000e-08	-5.517059e-06	-1.234168e-09	-3.834481e+01	-8.200956e+01
7.000000e-08	-5.514572e-06	-1.235181e-09	-3.832752e+01	-8.200339e+01
8.000000e-08	-5.511555e-06	-1.266662e-09	-3.830655e+01	-8.199699e+01
9.000000e-08	-5.508023e-06	-1.302607e-09	-3.828200e+01	-8.199009e+01
1.000000e-07	-5.504069e-06	-1.234158e-09	-3.825453e+01	-8.198240e+01
1.100000e-07	-5.499742e-06	-1.144614e-09	-3.822445e+01	-8.197362e+01
1.200000e-07	-5.495322e-06	-1.208430e-09	-3.819373e+01	-8.196344e+01
1.300000e-07	-5.490712e-06	-1.332858e-09	-3.816169e+01	-8.195154e+01
1.400000e-07	-5.485567e-06	-1.277004e-09	-3.812593e+01	-8.193760e+01
1.500000e-07	-5.479914e-06	-1.154213e-09	-3.808664e+01	-8.192129e+01
1.600000e-07	-5.473914e-06	-1.184454e-09	-3.804494e+01	-8.190231e+01
1.700000e-07	-5.467647e-06	-1.320007e-09	-3.800138e+01	-8.188032e+01
1.800000e-07	-5.460916e-06	-1.280518e-09	-3.795460e+01	-8.185501e+01
1.900000e-07	-5.453727e-06	-1.164099e-09	-3.790464e+01	-8.182607e+01
2.000000e-07	-5.446252e-06	-1.193556e-09	-3.785268e+01	-8.179322e+01
2.100000e-07	-5.438547e-06	-1.312583e-09	-3.779913e+01	-8.175616e+01
2.200000e-07	-5.430633e-06	-1.325009e-09	-3.774413e+01	-8.171463e+01
2.300000e-07	-5.422500e-06	-1.222288e-09	-3.768760e+01	-8.166837e+01
2.400000e-07	-5.413902e-06	-1.208763e-09	-3.762784e+01	-8.161715e+01
2.500000e-07	-5.404574e-06	-1.259109e-09	-3.756301e+01	-8.156076e+01
2.600000e-07	-5.394557e-06	-1.278211e-09	-3.749339e+01	-8.149900e+01
2.700000e-07	-5.384066e-06	-1.227888e-09	-3.742048e+01	-8.143170e+01
2.800000e-07	-5.373127e-06	-1.224696e-09	-3.734445e+01	-8.135872e+01
2.900000e-07	-5.361665e-06	-1.250039e-09	-3.726478e+01	-8.127994e+01
3.000000e-07	-5.349887e-06	-1.250532e-09	-3.718292e+01	-8.119526e+01
3.100000e-07	-5.337752e-06	-1.199997e-09	-3.709858e+01	-8.110462e+01
3.200000e-07	-5.325036e-06	-1.194242e-09	-3.701020e+01	-8.100797e+01
3.300000e-07	-5.311919e-06	-1.235727e-09	-3.691904e+01	-8.090531e+01
3.400000e-07	-5.298568e-06	-1.247199e-09	-3.682624e+01	-8.079664e+01
3.500000e-07	-5.284774e-06	-1.186640e-09	-3.673037e+01	-8.068202e+01
3.600000e-07	-5.270497e-06	-1.193301e-09	-3.663114e+01	-8.056149e+01
3.700000e-07	-5.255925e-06	-1.244989e-09	-3.652987e+01	-8.043517e+01
3.800000e-07	-5.240887e-06	-1.207093e-09	-3.642535e+01	-8.030316e+01
3.900000e-07	-5.225053e-06	-1.158199e-09	-3.631530e+01	-8.016560e+01
4.000000e-07	-5.208686e-06	-1.232109e-09	-3.620154e+01	-8.002266e+01
4.100000e-07	-5.192046e-06	-1.252675e-09	-3.608589e+01	-7.987452e+01
4.200000e-07	-5.175037e-06	-1.149230e-09	-3.596767e+01	-7.972138e+01
4.300000e-07	-5.157674e-06	-1.177982e-09	-3.584700e+01	-7.956346e+01
4.400000e-07	-5.140082e-06	-1.274364e-09	-3.572473e+01	-7.940100e+01
4.500000e-07	-5.122200e-06	-1.186670e-09	-3.560045e+01	-7.923423e+01
4.600000e-07	-5.103769e-06	-1.108287e-09	-3.547234e+01	-7.906343e+01
4.700000e-07	-5.084888e-06	-1.235511e-09	-3.534112e+01	-7.888884e+01
4.800000e-07	-5.065799e-06	-1.245607e-09	-3.520844e+01	-7.871075e+01
4.900000e-07	-5.046359e-06	-1.128732e-09	-3.507334e+01	-7.852944e+01
5.000000e-07	-5.026618e-06	-1.181690e-09	-3.493613e+01	-7.834517e+01
5.100000e-07	-5.006754e-06	-1.252251e-09	-3.479807e+01	-7.815823e+01
5.200000e-07	-4.986633e-06	-1.133825e-09	-3.465823e+01	-7.796888e+01
5.300000e-07	-4.966088e-06	-1.137895e-09	-3.451543e+01	-7.777741e+01
5.400000e-07	-4.945180e-06	-1.245859e-09	-3.437012e+01	-7.758405e+01
5.500000e-07	-4.923911e-06	-1.173039e-09	-3.422230e+01	-7.738908e+01
5.600000e-07	-4.902249e-06	-1.097077e-09	-3.407174e+01	-7.719271e+01
5.700000e-07	-4.880293e-06	-1.212874e-09	-3.391914e+01	-7.699518e+01
5.800000e-07	-4.858026e-06	-1.211003e-09	-3.376438e+01	-7.679669e+01
5.900000e-07	-4.835409e-06	-1.109090e-09	-3.360719e+01	-7.659743e+01
6.000000e-07	-4.812425e-06	-1.166143e-09	-3.344744e+01	-7.639756e+01
6.100000e-07	-4.789136e-06	-1.217540e-09	-3.328558e+01	-7.619724e+01
6.200000e-07	-4.765618e-06	-1.125865e-09	-3.312212e+01	-7.599659e+01
6.300000e-07	-4.741843e-06	-1.132044e-09	-3.295688e+01	-7.579572e+01
6.400000e-07	-4.717872e-06	-1.193943e-09	-3.279028e+01	-7.559470e+01
6.500000e-07	-4.693575e-06	-1.137708e-09	-3.262141e+01	-7.539358e+01
6.600000e-07	-4.668930e-06	-1.111469e-09	-3.245012e+01	-7.519240e+01
6.700000e-07	-4.643835e-06	-1.167031e-09	-3.227570e+01	-7.499116e+01
6.800000e-07	-4.618042e-06	-1.143445e-09	-3.209644e+01	-7.478982e+01
6.900000e-07	-4.591701e-06	-1.103133e-09	-3.191336e+01	-7.458836e+01
7.000000e-07	-4.564852e-06	-1.143141e-09	-3.172675e+01	-7.438669e+01
7.100000e-07	-4.537570e-06	-1.141295e-09	-3.153713e+01	-7.418471e+01
7.200000e-07	-4.510001e-06	-1.099539e-09	-3.134553e+01	-7.398231e+01
7.300000e-07	-4.482284e-06	-1.117664e-09	-3.115289e+01	-7.377935e+01
7.400000e-07	-4.454476e-06	-1.129375e-09	-3.095962e+01	-7.357564e+01
7.500000e-07	-4.426467e-06	-1.089528e-09	-3.076494e+01	-7.337102e+01
7.600000e-07	-4.398154e-06	-1.095476e-09	-3.056817e+01	-7.316528e+01
7.700000e-07	-4.369542e-06	-1.115235e-09	-3.036930e+01	-7.295820e+01
7.800000e-07	-4.340621e-06	-1.094087e-09	-3.016830e+01	-7.274953e+01
7.900000e-07	-4.311319e-06	-1.087560e-09	-2.996464e+01	-7.253904e+01
8.000000e-07	-4.281698e-06	-1.106948e-09	-2.975877e+01	-7.232646e+01
8.100000e-07	-4.251837e-06	-1.080175e-09	-2.955123e+01	-7.211152e+01
8.200000e-07	-4.221709e-06	-1.057128e-09	-2.934183e+01	-7.189394e+01
8.300000e-07	-4.191329e-06	-1.073198e-09	-2.913068e+01	-7.167345e+01
8.400000e-07	-4.160688e-06	-1.071254e-09	-2.891772e+01	-7.144975e+01
8.500000e-07	-4.129683e-06	-1.049097e-09	-2.870223e+01	-7.122255e+01
8.600000e-07	-4.098390e-06	-1.064896e-09	-2.848474e+01	-7.099159e+01
8.700000e-07	-4.066926e-06	-1.072520e-09	-2.826606e+01	-7.075656e+01
8.800000e-07	-4.035231e-06	-1.049876e-09	-2.804577e+01	-7.051720e+01
8.900000e-07	-4.003383e-06	-1.046851e-09	-2.782442e+01	-7.027324e+01
9.000000e-07	-3.971432e-06	-1.053920e-09	-2.760235e+01	-7.002441e+01
9.100000e-07	-3.939224e-06	-1.031710e-09	-2.737850e+01	-6.977048e+01
9.200000e-07	-3.906549e-06	-1.021686e-09	-2.715140e+01	-6.951121e+01
9.300000e-07	-3.873488e-06	-1.032502e-09	-2.692161e+01	-6.924638e+01
9.400000e-07	-3.840082e-06	-1.021344e-09	-2.668944e+01	-6.897579e+01
9.500000e-07	-3.806217e-06	-1.000888e-09	-2.645406e+01	-6.869925e+01
9.600000e-07	-3.771895e-06	-1.009020e-09	-2.621552e+01	-6.841660e+01
9.700000e-07	-3.737093e-06	-1.010843e-09	-2.597364e+01	-6.812769e+01
9.800000e-07	-3.701968e-06	-9.919651e-10	-2.572951e+01	-6.783240e+01
9.900000e-07	-3.666638e-06	-9.914435e-10	-2.548396e+01	-6.753061e+01
1.000000e-06	-3.631113e-06	-9.953594e-10	-2.523706e+01	-6.722225e+01
1.010000e-06	-3.595461e-06	-9.810416e-10	-2.498927e+01	-6.690726e+01
1.020000e-06	-3.559667e-06	-9.729554e-10	-2.474049e+01	-6.658559e+01
1.030000e-06	-3.523722e-06	-9.781103e-10	-2.449066e+01	-6.625724e+01
1.040000e-06	-3.487614e-06	-9.669525e-10	-2.423971e+01	-6.592219e+01
1.050000e-06	-3.451258e-06	-9.575375e-10	-2.398702e+01	-6.558048e+01
1.060000e-06	-3.414599e-06	-9.633140e-10	-2.373223e+01	-6.523214e+01
1.070000e-06	-3.377625e-06	-9.610708e-10	-2.347525e+01	-6.487725e+01
1.080000e-06	-3.340343e-06	-9.453918e-10	-2.321614e+01	-6.451587e+01
1.090000e-06	-3.302817e-06	-9.407855e-10	-2.295532e+01	-6.414811e+01
1.100000e-06	-3.265128e-06	-9.375089e-10	-2.269338e+01	-6.377407e+01
1.110000e-06	-3.227249e-06	-9.277208e-10	-2.243011e+01	-6.339387e+01
1.120000e-06	-3.189159e-06	-9.212208e-10	-2.216537e+01	-6.300766e+01
1.130000e-06	-3.150828e-06	-9.197836e-10	-2.189897e+01	-6.261557e+01
1.140000e-06	-3.112162e-06	-9.081491e-10	-2.163023e+01	-6.221775e+01
1.150000e-06	-3.073249e-06	-8.998255e-10	-2.135977e+01	-6.181437e+01
1.160000e-06	-3.034259e-06	-8.993275e-10	-2.108878e+01	-6.140557e+01
1.170000e-06	-2.995106e-06	-8.947759e-10	-2.081667e+01	-6.099151e+01
1.180000e-06	-2.955724e-06	-8.837415e-10	-2.054295e+01	-6.057235e+01
1.190000e-06	-2.916205e-06	-8.787257e-10	-2.026828e+01	-6.014825e+01
1.200000e-06	-2.876559e-06	-8.728568e-10	-1.999274e+01	-5.971935e+01
1.210000e-06	-2.836763e-06	-8.633540e-10	-1.971614e+01	-5.928578e+01
1.220000e-06	-2.796841e-06	-8.578967e-10	-1.943868e+01	-5.884767e+01
1.230000e-06	-2.756806e-06	-8.542076e-10	-1.916042e+01	-5.840513e+01
1.240000e-06	-2.716644e-06	-8.437221e-10	-1.888129e+01	-5.795826e+01
1.250000e-06	-2.676254e-06	-8.337482e-10	-1.860057e+01	-5.750713e+01
1.260000e-06	-2.635631e-06	-8.296462e-10	-1.831823e+01	-5.705181e+01
1.270000e-06	-2.594806e-06	-8.218056e-10	-1.803449e+01	-5.659232e+01
1.280000e-06	-2.553584e-06	-8.131450e-10	-1.774799e+01	-5.612869e+01
1.290000e-06	-2.511974e-06	-8.073464e-10	-1.745879e+01	-5.566088e+01
1.300000e-06	-2.470219e-06	-8.014516e-10	-1.716858e+01	-5.518888e+01
1.310000e-06	-2.428209e-06	-7.902364e-10	-1.687660e+01	-5.471260e+01
1.320000e-06	-2.385764e-06	-7.792920e-10	-1.658160e+01	-5.423196e+01
1.330000e-06	-2.343022e-06	-7.692438e-10	-1.628453e+01	-5.374682e+01
1.340000e-06	-2.300003e-06	-7.578591e-10	-1.598554e+01	-5.325702e+01
1.350000e-06	-2.256733e-06	-7.483038e-10	-1.568481e+01	-5.276238e+01
1.360000e-06	-2.213323e-06	-7.429920e-10	-1.538310e+01	-5.226267e+01
1.370000e-06	-2.169837e-06	-7.367357e-10	-1.508086e+01	-5.175764e+01
1.380000e-06	-2.126274e-06	-7.320561e-10	-1.477808e+01	-5.124701e+01
1.390000e-06	-2.082565e-06	-7.254380e-10	-1.447429e+01	-5.073046e+01
1.400000e-06	-2.038812e-06	-7.148545e-10	-1.417021e+01	-5.020764e+01
1.410000e-06	-1.995047e-06	-7.031487e-10	-1.386603e+01	-4.967819e+01
1.420000e-06	-1.951143e-06	-6.936238e-10	-1.356089e+01	-4.914171e+01
1.430000e-06	-1.907134e-06	-6.847839e-10	-1.325501e+01	-4.859775e+01
1.440000e-06	-1.863120e-06	-6.755451e-10	-1.294911e+01	-4.804587e+01
1.450000e-06	-1.818964e-06	-6.649346e-10	-1.264221e+01	-4.748559e+01
1.460000e-06	-1.774610e-06	-6.553831e-10	-1.233394e+01	-4.691640e+01
1.470000e-06	-1.730132e-06	-6.475357e-10	-1.202480e+01	-4.633781e+01
1.480000e-06	-1.685448e-06	-6.396791e-10	-1.171424e+01	-4.574926e+01
1.490000e-06	-1.640656e-06	-6.310893e-10	-1.140293e+01	-4.515020e+01
1.500000e-06	-1.595817e-06	-6.214829e-10	-1.109129e+01	-4.454009e+01
1.510000e-06	-1.550845e-06	-6.094419e-10	-1.077872e+01	-4.391835e+01
1.520000e-06	-1.505720e-06	-5.952133e-10	-1.046509e+01	-4.328440e+01
1.530000e-06	-1.460459e-06	-5.817709e-10	-1.015052e+01	-4.263768e+01
1.540000e-06	-1.415125e-06	-5.709278e-10	-9.835438e+00	-4.197760e+01
1.550000e-06	-1.369777e-06	-5.614559e-10	-9.520259e+00	-4.130359e+01
1.560000e-06	-1.324345e-06	-5.514011e-10	-9.204495e+00	-4.061510e+01
1.570000e-06	-1.278783e-06	-5.416712e-10	-8.887827e+00	-3.991156e+01
1.580000e-06	-1.233103e-06	-5.323804e-10	-8.570345e+00	-3.919243e+01
1.590000e-06	-1.187346e-06	-5.196295e-10	-8.252326e+00	-3.845721e+01
1.600000e-06	-1.141552e-06	-5.063601e-10	-7.934044e+00	-3.770538e+01
1.610000e-06	-1.095701e-06	-4.953813e-10	-7.615373e+00	-3.693647e+01
1.620000e-06	-1.049791e-06	-4.832218e-10	-7.296286e+00	-3.615003e+01
1.630000e-06	-1.003723e-06	-4.702299e-10	-6.976104e+00	-3.534564e+01
1.640000e-06	-9.575912e-07	-4.588168e-10	-6.655475e+00	-3.452292e+01
1.650000e-06	-9.113926e-07	-4.480395e-10	-6.334385e+00	-3.368152e+01
1.660000e-06	-8.650827e-07	-4.344683e-10	-6.012520e+00	-3.282113e+01
1.670000e-06	-8.187125e-07	-4.209041e-10	-5.690236e+00	-3.194149e+01
1.680000e-06	-7.723465e-07	-4.086411e-10	-5.367983e+00	-3.104236e+01
1.690000e-06	-7.260569e-07	-3.960890e-10	-5.046259e+00	-3.012358e+01
1.700000e-06	-6.795987e-07	-3.826196e-10	-4.723364e+00	-2.918501e+01
1.710000e-06	-6.329868e-07	-3.687499e-10	-4.399401e+00	-2.822658e+01
1.720000e-06	-5.864121e-07	-3.528442e-10	-4.075696e+00	-2.724826e+01
1.730000e-06	-5.398096e-07	-3.369690e-10	-3.751799e+00	-2.625008e+01
1.740000e-06	-4.930787e-07	-3.202604e-10	-3.427009e+00	-2.523211e+01
1.750000e-06	-4.463316e-07	-3.036320e-10	-3.102105e+00	-2.419450e+01
1.760000e-06	-3.996171e-07	-2.882211e-10	-2.777429e+00	-2.313744e+01
1.770000e-06	-3.528954e-07	-2.732082e-10	-2.452703e+00	-2.206117e+01
1.780000e-06	-3.061786e-07	-2.583780e-10	-2.128011e+00	-2.096599e+01
1.790000e-06	-2.594280e-07	-2.449928e-10	-1.803083e+00	-1.985226e+01
1.800000e-06	-2.125970e-07	-2.325872e-10	-1.477597e+00	-1.872040e+01
1.810000e-06	-1.657256e-07	-2.167451e-10	-1.151831e+00	-1.757088e+01
1.820000e-06	-1.188471e-07	-1.983042e-10	-8.260144e-01	-1.640420e+01
1.830000e-06	-7.201823e-08	-1.794692e-10	-5.005430e-01	-1.522095e+01
1.840000e-06	-2.533972e-08	-1.606024e-10	-1.761168e-01	-1.402174e+01
1.850000e-06	2.127640e-08	-1.435988e-10	1.478758e-01	-1.280725e+01
1.860000e-06	6.798780e-08	-1.278450e-10	4.725306e-01	-1.157818e+01
1.870000e-06	1.147883e-07	-1.096674e-10	7.978046e-01	-1.033530e+01
1.880000e-06	1.616404e-07	-9.123702e-11	1.123438e+00	-9.079409e+00
1.890000e-06	2.084598e-07	-7.562370e-11	1.448843e+00	-7.811343e+00
1.900000e-06	2.552247e-07	-6.185364e-11	1.773869e+00	-6.531977e+00
1.910000e-06	3.019798e-07	-4.703717e-11	2.098828e+00	-5.242217e+00
1.920000e-06	3.487636e-07	-2.899379e-11	2.423985e+00	-3.943001e+00
1.930000e-06	3.955113e-07	-6.964511e-12	2.748893e+00	-2.635289e+00
1.940000e-06	4.422090e-07	1.553040e-11	3.073452e+00	-1.320068e+00
1.950000e-06	4.888878e-07	3.661026e-11	3.397881e+00	1.659517e-03
1.960000e-06	5.354226e-07	5.682017e-11	3.721308e+00	1.328873e+00
1.970000e-06	5.818827e-07	7.312481e-11	4.044216e+00	2.660540e+00
1.980000e-06	6.283290e-07	8.749514e-11	4.367028e+00	3.995621e+00
1.990000e-06	6.747155e-07	1.025545e-10	4.689425e+00	5.333070e+00
2.000000e-06	7.210043e-07	1.171585e-10	5.011143e+00	6.671841e+00
2.010000e-06	7.672548e-07	1.363854e-10	5.332594e+00	8.010889e+00
2.020000e-06	8.134828e-07	1.576638e-10	5.653889e+00	9.349177e+00
2.030000e-06	8.597097e-07	1.807251e-10	5.975176e+00	1.068567e+01
2.040000e-06	9.059470e-07	2.052414e-10	6.296537e+00	1.201936e+01
2.050000e-06	9.520982e-07	2.256875e-10	6.617298e+00	1.334925e+01
2.060000e-06	9.981541e-07	2.441494e-10	6.937397e+00	1.467434e+01
2.070000e-06	1.044140e-06	2.605154e-10	7.257012e+00	1.599368e+01
2.080000e-06	1.090054e-06	2.757925e-10	7.576119e+00	1.730634e+01
2.090000e-06	1.135847e-06	2.921876e-10	7.894395e+00	1.861140e+01
2.100000e-06	1.181559e-06	3.112975e-10	8.212099e+00	1.990799e+01
2.110000e-06	1.227274e-06	3.316944e-10	8.529829e+00	2.119525e+01
2.120000e-06	1.272920e-06	3.518648e-10	8.847083e+00	2.247238e+01
2.130000e-06	1.318464e-06	3.714981e-10	9.163623e+00	2.373860e+01
2.140000e-06	1.363884e-06	3.900166e-10	9.479302e+00	2.499317e+01
2.150000e-06	1.409198e-06	4.068700e-10	9.794245e+00	2.623538e+01
2.160000e-06	1.454472e-06	4.217986e-10	1.010891e+01	2.746458e+01
2.170000e-06	1.499654e-06	4.362850e-10	1.042294e+01	2.868013e+01
2.180000e-06	1.544625e-06	4.511064e-10	1.073549e+01	2.988147e+01
2.190000e-06	1.589468e-06	4.672703e-10	1.104716e+01	3.106806e+01
2.200000e-06	1.634226e-06	4.858491e-10	1.135824e+01	3.223939e+01
2.210000e-06	1.678744e-06	5.019700e-10	1.166765e+01	3.339502e+01
2.220000e-06	1.723100e-06	5.159333e-10	1.197593e+01	3.453453e+01
2.230000e-06	1.767429e-06	5.293882e-10	1.228403e+01	3.565756e+01
2.240000e-06	1.811646e-06	5.426874e-10	1.259135e+01	3.676378e+01
2.250000e-06	1.855767e-06	5.583360e-10	1.289800e+01	3.785289e+01
2.260000e-06	1.899807e-06	5.755829e-10	1.320409e+01	3.892465e+01
2.270000e-06	1.943723e-06	5.917658e-10	1.350931e+01	3.997886e+01
2.280000e-06	1.987599e-06	6.065322e-10	1.381426e+01	4.101534e+01
2.290000e-06	2.031462e-06	6.190010e-10	1.411912e+01	4.203395e+01
2.300000e-06	2.075292e-06	6.305726e-10	1.442374e+01	4.303460e+01
2.310000e-06	2.119014e-06	6.421194e-10	1.472763e+01	4.401721e+01
2.320000e-06	2.162595e-06	6.552422e-10	1.503053e+01	4.498175e+01
2.330000e-06	2.206073e-06	6.699633e-10	1.533271e+01	4.592822e+01
2.340000e-06	2.249463e-06	6.849346e-10	1.563428e+01	4.685664e+01
2.350000e-06	2.292671e-06	7.002266e-10	1.593458e+01	4.776705e+01
2.360000e-06	2.335591e-06	7.123553e-10	1.623289e+01	4.865954e+01
2.370000e-06	2.378286e-06	7.224239e-10	1.652962e+01	4.953419e+01
2.380000e-06	2.420618e-06	7.316280e-10	1.682384e+01	5.039113e+01
2.390000e-06	2.462580e-06	7.418355e-10	1.711549e+01	5.123050e+01
2.400000e-06	2.504348e-06	7.537631e-10	1.740579e+01	5.205244e+01
2.410000e-06	2.545825e-06	7.668703e-10	1.769406e+01	5.285714e+01
2.420000e-06	2.587014e-06	7.780357e-10	1.798033e+01	5.364477e+01
2.430000e-06	2.627951e-06	7.887297e-10	1.826485e+01	5.441554e+01
2.440000e-06	2.668632e-06	7.995975e-10	1.854759e+01	5.516965e+01
2.450000e-06	2.709128e-06	8.096462e-10	1.882905e+01	5.590733e+01
2.460000e-06	2.749428e-06	8.193364e-10	1.910915e+01	5.662880e+01
2.470000e-06	2.789526e-06	8.290511e-10	1.938783e+01	5.733430e+01
2.480000e-06	2.829496e-06	8.370417e-10	1.966564e+01	5.802407e+01
2.490000e-06	2.869352e-06	8.419852e-10	1.994265e+01	5.869836e+01
2.500000e-06	2.909037e-06	8.495160e-10	2.021847e+01	5.935741e+01
2.510000e-06	2.948594e-06	8.612990e-10	2.049339e+01	6.000148e+01
2.520000e-06	2.987982e-06	8.709949e-10	2.076715e+01	6.063083e+01
2.530000e-06	3.027115e-06	8.795018e-10	2.103913e+01	6.124571e+01
2.540000e-06	3.066148e-06	8.898560e-10	2.131042e+01	6.184639e+01
2.550000e-06	3.104965e-06	8.994622e-10	2.158021e+01	6.243312e+01
2.560000e-06	3.143439e-06	9.062961e-10	2.184761e+01	6.300616e+01
2.570000e-06	3.181674e-06	9.128078e-10	2.211336e+01	6.356577e+01
2.580000e-06	3.219712e-06	9.213484e-10	2.237773e+01	6.411222e+01
2.590000e-06	3.257550e-06	9.299120e-10	2.264071e+01	6.464576e+01
2.600000e-06	3.295162e-06	9.380065e-10	2.290212e+01	6.516665e+01
2.610000e-06	3.332624e-06	9.460951e-10	2.316249e+01	6.567514e+01
2.620000e-06	3.369902e-06	9.545455e-10	2.342158e+01	6.617150e+01
2.630000e-06	3.406911e-06	9.635909e-10	2.367880e+01	6.665598e+01
2.640000e-06	3.443612e-06	9.713440e-10	2.393388e+01	6.712884e+01
2.650000e-06	3.480023e-06	9.785236e-10	2.418695e+01	6.759033e+01
2.660000e-06	3.516242e-06	9.873247e-10	2.443868e+01	6.804070e+01
2.670000e-06	3.552301e-06	9.943810e-10	2.468930e+01	6.848022e+01
2.680000e-06	3.588192e-06	9.991612e-10	2.493874e+01	6.890913e+01
2.690000e-06	3.623935e-06	1.002709e-09	2.518717e+01	6.932770e+01
2.700000e-06	3.659586e-06	1.005203e-09	2.543495e+01	6.973616e+01
2.710000e-06	3.695111e-06	1.010707e-09	2.568186e+01	7.013478e+01
2.720000e-06	3.730380e-06	1.019540e-09	2.592698e+01	7.052380e+01
2.730000e-06	3.765337e-06	1.028446e-09	2.616995e+01	7.090348e+01
2.740000e-06	3.799843e-06	1.037608e-09	2.640977e+01	7.127407e+01
2.750000e-06	3.833800e-06	1.044827e-09	2.664578e+01	7.163582e+01
2.760000e-06	3.867353e-06	1.049259e-09	2.687897e+01	7.198897e+01
2.770000e-06	3.900452e-06	1.051537e-09	2.710902e+01	7.233377e+01
2.780000e-06	3.933087e-06	1.053561e-09	2.733585e+01	7.267047e+01
2.790000e-06	3.965376e-06	1.058086e-09	2.756026e+01	7.299931e+01
2.800000e-06	3.997403e-06	1.063743e-09	2.778285e+01	7.332053e+01
2.810000e-06	4.029282e-06	1.069550e-09	2.800442e+01	7.363436e+01
2.820000e-06	4.061032e-06	1.074903e-09	2.822509e+01	7.394104e+01
2.830000e-06	4.092599e-06	1.079868e-09	2.844448e+01	7.424079e+01
2.840000e-06	4.123955e-06	1.086082e-09	2.866242e+01	7.453384e+01
2.850000e-06	4.155066e-06	1.091014e-09	2.887864e+01	7.482040e+01
2.860000e-06	4.185853e-06	1.095106e-09	2.909262e+01	7.510068e+01
2.870000e-06	4.216308e-06	1.100703e-09	2.930429e+01	7.537489e+01
2.880000e-06	4.246411e-06	1.105190e-09	2.951351e+01	7.564321e+01
2.890000e-06	4.276194e-06	1.105580e-09	2.972051e+01	7.590584e+01
2.900000e-06	4.305745e-06	1.104532e-09	2.992590e+01	7.616295e+01
