# Temperatura_=_-12.09
# Concentracion g/m^3_=_1620.0
# C_Vs_to_Am_M_A/Vsm_=_65563218390.804596
# pendiente_HvsI_1/m_=_3716.3
# ordenada_HvsI_A/m_=_1297.0
# frecuencia_Hz_=_135101.90431821172

Tiempo_(s)	Campo_(V.s)	Magnetizacion_(V.s)	Campo_(kA/m)	Magnetizacion_(A/m)
0.000000e+00	-5.505510e-06	-7.932342e-10	-3.836514e+01	-5.244562e+01
1.000000e-08	-5.505608e-06	-7.868708e-10	-3.836582e+01	-5.239991e+01
2.000000e-08	-5.505415e-06	-7.854919e-10	-3.836447e+01	-5.235405e+01
3.000000e-08	-5.504877e-06	-7.889474e-10	-3.836072e+01	-5.230822e+01
4.000000e-08	-5.503878e-06	-7.934533e-10	-3.835376e+01	-5.226261e+01
5.000000e-08	-5.502383e-06	-7.987389e-10	-3.834334e+01	-5.221741e+01
6.000000e-08	-5.500248e-06	-8.050017e-10	-3.832847e+01	-5.217277e+01
7.000000e-08	-5.497517e-06	-8.166802e-10	-3.830943e+01	-5.212884e+01
8.000000e-08	-5.494302e-06	-8.033399e-10	-3.828703e+01	-5.208578e+01
9.000000e-08	-5.490569e-06	-7.384698e-10	-3.826102e+01	-5.204369e+01
1.000000e-07	-5.486492e-06	-7.307017e-10	-3.823261e+01	-5.200269e+01
1.100000e-07	-5.482167e-06	-8.157014e-10	-3.820247e+01	-5.196288e+01
1.200000e-07	-5.477542e-06	-8.499548e-10	-3.817024e+01	-5.192432e+01
1.300000e-07	-5.472589e-06	-7.642418e-10	-3.813572e+01	-5.188708e+01
1.400000e-07	-5.467321e-06	-7.329002e-10	-3.809901e+01	-5.185120e+01
1.500000e-07	-5.461687e-06	-8.078619e-10	-3.805975e+01	-5.181671e+01
1.600000e-07	-5.455664e-06	-8.586346e-10	-3.801778e+01	-5.178362e+01
1.700000e-07	-5.449193e-06	-7.530281e-10	-3.797269e+01	-5.175192e+01
1.800000e-07	-5.442312e-06	-7.143366e-10	-3.792473e+01	-5.172158e+01
1.900000e-07	-5.435164e-06	-7.857083e-10	-3.787493e+01	-5.169258e+01
2.000000e-07	-5.427739e-06	-8.410672e-10	-3.782319e+01	-5.166485e+01
2.100000e-07	-5.420031e-06	-7.836997e-10	-3.776947e+01	-5.163834e+01
2.200000e-07	-5.412108e-06	-7.409675e-10	-3.771426e+01	-5.161296e+01
2.300000e-07	-5.403762e-06	-7.667165e-10	-3.765610e+01	-5.158863e+01
2.400000e-07	-5.394813e-06	-7.884782e-10	-3.759374e+01	-5.156525e+01
2.500000e-07	-5.385268e-06	-7.596130e-10	-3.752723e+01	-5.154270e+01
2.600000e-07	-5.375107e-06	-7.367080e-10	-3.745642e+01	-5.152086e+01
2.700000e-07	-5.364322e-06	-7.657808e-10	-3.738126e+01	-5.149962e+01
2.800000e-07	-5.353028e-06	-7.705476e-10	-3.730256e+01	-5.147884e+01
2.900000e-07	-5.341430e-06	-7.533823e-10	-3.722174e+01	-5.145839e+01
3.000000e-07	-5.329474e-06	-7.283645e-10	-3.713843e+01	-5.143813e+01
3.100000e-07	-5.317128e-06	-7.475222e-10	-3.705240e+01	-5.141791e+01
3.200000e-07	-5.304419e-06	-7.551736e-10	-3.696383e+01	-5.139760e+01
3.300000e-07	-5.291319e-06	-7.537280e-10	-3.687254e+01	-5.137705e+01
3.400000e-07	-5.277794e-06	-7.211780e-10	-3.677830e+01	-5.135613e+01
3.500000e-07	-5.263913e-06	-7.487742e-10	-3.668156e+01	-5.133470e+01
3.600000e-07	-5.249594e-06	-7.603241e-10	-3.658178e+01	-5.131262e+01
3.700000e-07	-5.234672e-06	-7.335900e-10	-3.647780e+01	-5.128977e+01
3.800000e-07	-5.219193e-06	-7.154811e-10	-3.636993e+01	-5.126603e+01
3.900000e-07	-5.203207e-06	-7.685254e-10	-3.625853e+01	-5.124126e+01
4.000000e-07	-5.186802e-06	-7.485679e-10	-3.614422e+01	-5.121537e+01
4.100000e-07	-5.169954e-06	-7.081989e-10	-3.602681e+01	-5.118826e+01
4.200000e-07	-5.152728e-06	-7.580758e-10	-3.590677e+01	-5.115981e+01
4.300000e-07	-5.135275e-06	-7.891440e-10	-3.578515e+01	-5.112995e+01
4.400000e-07	-5.117461e-06	-7.010519e-10	-3.566101e+01	-5.109860e+01
4.500000e-07	-5.099290e-06	-6.959148e-10	-3.553439e+01	-5.106568e+01
4.600000e-07	-5.080825e-06	-7.780355e-10	-3.540572e+01	-5.103113e+01
4.700000e-07	-5.061988e-06	-7.362420e-10	-3.527445e+01	-5.099489e+01
4.800000e-07	-5.042735e-06	-6.824248e-10	-3.514029e+01	-5.095693e+01
4.900000e-07	-5.023181e-06	-7.575331e-10	-3.500402e+01	-5.091719e+01
5.000000e-07	-5.003432e-06	-7.710450e-10	-3.486640e+01	-5.087565e+01
5.100000e-07	-4.983423e-06	-6.912670e-10	-3.472697e+01	-5.083228e+01
5.200000e-07	-4.963136e-06	-7.319768e-10	-3.458560e+01	-5.078707e+01
5.300000e-07	-4.942562e-06	-7.714381e-10	-3.444223e+01	-5.074000e+01
5.400000e-07	-4.921588e-06	-6.936978e-10	-3.429608e+01	-5.069108e+01
5.500000e-07	-4.900162e-06	-6.912951e-10	-3.414677e+01	-5.064029e+01
5.600000e-07	-4.878425e-06	-7.755379e-10	-3.399530e+01	-5.058765e+01
5.700000e-07	-4.856498e-06	-7.302733e-10	-3.384249e+01	-5.053317e+01
5.800000e-07	-4.834246e-06	-6.864715e-10	-3.368743e+01	-5.047684e+01
5.900000e-07	-4.811587e-06	-7.447453e-10	-3.352953e+01	-5.041870e+01
6.000000e-07	-4.788583e-06	-7.452252e-10	-3.336923e+01	-5.035875e+01
6.100000e-07	-4.765263e-06	-6.874162e-10	-3.320673e+01	-5.029701e+01
6.200000e-07	-4.741702e-06	-7.246329e-10	-3.304254e+01	-5.023351e+01
6.300000e-07	-4.717936e-06	-7.462934e-10	-3.287692e+01	-5.016825e+01
6.400000e-07	-4.693851e-06	-7.048244e-10	-3.270909e+01	-5.010126e+01
6.500000e-07	-4.669405e-06	-7.070668e-10	-3.253874e+01	-5.003256e+01
6.600000e-07	-4.644617e-06	-7.346014e-10	-3.236600e+01	-4.996215e+01
6.700000e-07	-4.619364e-06	-7.050397e-10	-3.219002e+01	-4.989005e+01
6.800000e-07	-4.593592e-06	-6.994976e-10	-3.201043e+01	-4.981627e+01
6.900000e-07	-4.567205e-06	-7.217503e-10	-3.182655e+01	-4.974081e+01
7.000000e-07	-4.540230e-06	-7.119772e-10	-3.163858e+01	-4.966369e+01
7.100000e-07	-4.512957e-06	-6.983526e-10	-3.144853e+01	-4.958490e+01
7.200000e-07	-4.485463e-06	-7.147384e-10	-3.125694e+01	-4.950443e+01
7.300000e-07	-4.457738e-06	-7.114459e-10	-3.106374e+01	-4.942227e+01
7.400000e-07	-4.429840e-06	-6.970382e-10	-3.086933e+01	-4.933842e+01
7.500000e-07	-4.401758e-06	-7.021572e-10	-3.067364e+01	-4.925286e+01
7.600000e-07	-4.373325e-06	-7.042364e-10	-3.047551e+01	-4.916556e+01
7.700000e-07	-4.344519e-06	-6.953109e-10	-3.027477e+01	-4.907651e+01
7.800000e-07	-4.315483e-06	-6.951755e-10	-3.007243e+01	-4.898566e+01
7.900000e-07	-4.286165e-06	-6.953354e-10	-2.986813e+01	-4.889299e+01
8.000000e-07	-4.256505e-06	-6.842852e-10	-2.966144e+01	-4.879845e+01
8.100000e-07	-4.226535e-06	-6.838265e-10	-2.945260e+01	-4.870201e+01
8.200000e-07	-4.196311e-06	-6.878338e-10	-2.924198e+01	-4.860361e+01
8.300000e-07	-4.165807e-06	-6.823722e-10	-2.902942e+01	-4.850321e+01
8.400000e-07	-4.135012e-06	-6.775894e-10	-2.881482e+01	-4.840076e+01
8.500000e-07	-4.104041e-06	-6.878651e-10	-2.859900e+01	-4.829619e+01
8.600000e-07	-4.072848e-06	-6.872122e-10	-2.838163e+01	-4.818945e+01
8.700000e-07	-4.041364e-06	-6.817817e-10	-2.816224e+01	-4.808047e+01
8.800000e-07	-4.009663e-06	-6.833948e-10	-2.794133e+01	-4.796919e+01
8.900000e-07	-3.977775e-06	-6.842232e-10	-2.771912e+01	-4.785553e+01
9.000000e-07	-3.945654e-06	-6.706237e-10	-2.749528e+01	-4.773944e+01
9.100000e-07	-3.913287e-06	-6.693428e-10	-2.726973e+01	-4.762084e+01
9.200000e-07	-3.880660e-06	-6.722621e-10	-2.704237e+01	-4.749966e+01
9.300000e-07	-3.847655e-06	-6.666965e-10	-2.681237e+01	-4.737581e+01
9.400000e-07	-3.814198e-06	-6.629778e-10	-2.657923e+01	-4.724923e+01
9.500000e-07	-3.780301e-06	-6.717258e-10	-2.634302e+01	-4.711984e+01
9.600000e-07	-3.745917e-06	-6.707571e-10	-2.610341e+01	-4.698756e+01
9.700000e-07	-3.711153e-06	-6.654867e-10	-2.586116e+01	-4.685231e+01
9.800000e-07	-3.676083e-06	-6.680058e-10	-2.561677e+01	-4.671401e+01
9.900000e-07	-3.640678e-06	-6.698605e-10	-2.537006e+01	-4.657259e+01
1.000000e-06	-3.605031e-06	-6.630405e-10	-2.512165e+01	-4.642796e+01
1.010000e-06	-3.569239e-06	-6.643425e-10	-2.487223e+01	-4.628004e+01
1.020000e-06	-3.533328e-06	-6.685083e-10	-2.462199e+01	-4.612875e+01
1.030000e-06	-3.497278e-06	-6.633078e-10	-2.437077e+01	-4.597401e+01
1.040000e-06	-3.461009e-06	-6.591244e-10	-2.411804e+01	-4.581574e+01
1.050000e-06	-3.424463e-06	-6.604632e-10	-2.386336e+01	-4.565386e+01
1.060000e-06	-3.387671e-06	-6.563640e-10	-2.360698e+01	-4.548827e+01
1.070000e-06	-3.350695e-06	-6.474669e-10	-2.334931e+01	-4.531891e+01
1.080000e-06	-3.313489e-06	-6.441758e-10	-2.309004e+01	-4.514569e+01
1.090000e-06	-3.275956e-06	-6.411629e-10	-2.282849e+01	-4.496853e+01
1.100000e-06	-3.238230e-06	-6.368989e-10	-2.256559e+01	-4.478733e+01
1.110000e-06	-3.200347e-06	-6.371690e-10	-2.230161e+01	-4.460202e+01
1.120000e-06	-3.162231e-06	-6.408479e-10	-2.203600e+01	-4.441252e+01
1.130000e-06	-3.123857e-06	-6.373743e-10	-2.176859e+01	-4.421874e+01
1.140000e-06	-3.085217e-06	-6.320859e-10	-2.149933e+01	-4.402059e+01
1.150000e-06	-3.046401e-06	-6.294376e-10	-2.122884e+01	-4.381799e+01
1.160000e-06	-3.007427e-06	-6.271698e-10	-2.095725e+01	-4.361086e+01
1.170000e-06	-2.968205e-06	-6.216005e-10	-2.068393e+01	-4.339910e+01
1.180000e-06	-2.928766e-06	-6.194419e-10	-2.040910e+01	-4.318262e+01
1.190000e-06	-2.889192e-06	-6.172211e-10	-2.013333e+01	-4.296135e+01
1.200000e-06	-2.849543e-06	-6.121874e-10	-1.985703e+01	-4.273520e+01
1.210000e-06	-2.809769e-06	-6.061654e-10	-1.957987e+01	-4.250406e+01
1.220000e-06	-2.769815e-06	-6.019014e-10	-1.930145e+01	-4.226786e+01
1.230000e-06	-2.729768e-06	-5.937502e-10	-1.902238e+01	-4.202650e+01
1.240000e-06	-2.689578e-06	-5.874122e-10	-1.874232e+01	-4.177990e+01
1.250000e-06	-2.649226e-06	-5.851722e-10	-1.846112e+01	-4.152795e+01
1.260000e-06	-2.608681e-06	-5.862838e-10	-1.817859e+01	-4.127057e+01
1.270000e-06	-2.567776e-06	-5.847054e-10	-1.789354e+01	-4.100767e+01
1.280000e-06	-2.526525e-06	-5.819152e-10	-1.760608e+01	-4.073914e+01
1.290000e-06	-2.485043e-06	-5.780719e-10	-1.731702e+01	-4.046489e+01
1.300000e-06	-2.443234e-06	-5.716001e-10	-1.702567e+01	-4.018483e+01
1.310000e-06	-2.401107e-06	-5.660838e-10	-1.673211e+01	-3.989886e+01
1.320000e-06	-2.358765e-06	-5.636543e-10	-1.643705e+01	-3.960687e+01
1.330000e-06	-2.316121e-06	-5.615961e-10	-1.613988e+01	-3.930877e+01
1.340000e-06	-2.273118e-06	-5.588065e-10	-1.584021e+01	-3.900445e+01
1.350000e-06	-2.229921e-06	-5.565336e-10	-1.553920e+01	-3.869380e+01
1.360000e-06	-2.186677e-06	-5.529320e-10	-1.523786e+01	-3.837673e+01
1.370000e-06	-2.143309e-06	-5.467826e-10	-1.493565e+01	-3.805311e+01
1.380000e-06	-2.099763e-06	-5.383978e-10	-1.463220e+01	-3.772285e+01
1.390000e-06	-2.056105e-06	-5.304969e-10	-1.432796e+01	-3.738581e+01
1.400000e-06	-2.012400e-06	-5.229220e-10	-1.402340e+01	-3.704189e+01
1.410000e-06	-1.968603e-06	-5.173447e-10	-1.371821e+01	-3.669097e+01
1.420000e-06	-1.924693e-06	-5.157119e-10	-1.341222e+01	-3.633292e+01
1.430000e-06	-1.880674e-06	-5.156688e-10	-1.310547e+01	-3.596760e+01
1.440000e-06	-1.836549e-06	-5.132731e-10	-1.279799e+01	-3.559490e+01
1.450000e-06	-1.792362e-06	-5.090859e-10	-1.249007e+01	-3.521467e+01
1.460000e-06	-1.748078e-06	-5.011536e-10	-1.218147e+01	-3.482677e+01
1.470000e-06	-1.703623e-06	-4.922615e-10	-1.187169e+01	-3.443105e+01
1.480000e-06	-1.659095e-06	-4.839745e-10	-1.156140e+01	-3.402737e+01
1.490000e-06	-1.614510e-06	-4.799803e-10	-1.125071e+01	-3.361557e+01
1.500000e-06	-1.569785e-06	-4.775241e-10	-1.093904e+01	-3.319550e+01
1.510000e-06	-1.524893e-06	-4.738488e-10	-1.062621e+01	-3.276698e+01
1.520000e-06	-1.479877e-06	-4.672880e-10	-1.031252e+01	-3.232984e+01
1.530000e-06	-1.434651e-06	-4.589510e-10	-9.997365e+00	-3.188392e+01
1.540000e-06	-1.389260e-06	-4.489270e-10	-9.681052e+00	-3.142903e+01
1.550000e-06	-1.343886e-06	-4.398763e-10	-9.364864e+00	-3.096498e+01
1.560000e-06	-1.298438e-06	-4.313483e-10	-9.048164e+00	-3.049160e+01
1.570000e-06	-1.252886e-06	-4.240680e-10	-8.730735e+00	-3.000870e+01
1.580000e-06	-1.207258e-06	-4.183973e-10	-8.412775e+00	-2.951606e+01
1.590000e-06	-1.161567e-06	-4.140887e-10	-8.094378e+00	-2.901351e+01
1.600000e-06	-1.115815e-06	-4.096238e-10	-7.775557e+00	-2.850084e+01
1.610000e-06	-1.069969e-06	-4.013005e-10	-7.456075e+00	-2.797785e+01
1.620000e-06	-1.023995e-06	-3.910423e-10	-7.135708e+00	-2.744435e+01
1.630000e-06	-9.778806e-07	-3.803798e-10	-6.814358e+00	-2.690013e+01
1.640000e-06	-9.317814e-07	-3.701206e-10	-6.493116e+00	-2.634500e+01
1.650000e-06	-8.856809e-07	-3.589228e-10	-6.171865e+00	-2.577877e+01
1.660000e-06	-8.394908e-07	-3.503027e-10	-5.849989e+00	-2.520125e+01
1.670000e-06	-7.933134e-07	-3.415824e-10	-5.528202e+00	-2.461225e+01
1.680000e-06	-7.470951e-07	-3.325449e-10	-5.206130e+00	-2.401160e+01
1.690000e-06	-7.007944e-07	-3.244341e-10	-4.883484e+00	-2.339914e+01
1.700000e-06	-6.544766e-07	-3.153973e-10	-4.560719e+00	-2.277470e+01
1.710000e-06	-6.080638e-07	-3.052298e-10	-4.237291e+00	-2.213816e+01
1.720000e-06	-5.616076e-07	-2.936916e-10	-3.913561e+00	-2.148937e+01
1.730000e-06	-5.151639e-07	-2.834549e-10	-3.589919e+00	-2.082823e+01
1.740000e-06	-4.686662e-07	-2.752798e-10	-3.265899e+00	-2.015464e+01
1.750000e-06	-4.220951e-07	-2.658622e-10	-2.941369e+00	-1.946853e+01
1.760000e-06	-3.754186e-07	-2.570040e-10	-2.616104e+00	-1.876985e+01
1.770000e-06	-3.287479e-07	-2.476327e-10	-2.290879e+00	-1.805855e+01
1.780000e-06	-2.820226e-07	-2.390294e-10	-1.965274e+00	-1.733464e+01
1.790000e-06	-2.352010e-07	-2.310221e-10	-1.638997e+00	-1.659814e+01
1.800000e-06	-1.884362e-07	-2.208682e-10	-1.313117e+00	-1.584909e+01
1.810000e-06	-1.416813e-07	-2.085790e-10	-9.873059e-01	-1.508758e+01
1.820000e-06	-9.495281e-08	-1.959096e-10	-6.616784e-01	-1.431372e+01
1.830000e-06	-4.825974e-08	-1.839150e-10	-3.362979e-01	-1.352764e+01
1.840000e-06	-1.557938e-09	-1.725493e-10	-1.085648e-02	-1.272954e+01
1.850000e-06	4.514257e-08	-1.618616e-10	3.145759e-01	-1.191961e+01
1.860000e-06	9.183255e-08	-1.496911e-10	6.399349e-01	-1.109811e+01
1.870000e-06	1.384535e-07	-1.367537e-10	9.648132e-01	-1.026532e+01
1.880000e-06	1.850371e-07	-1.248180e-10	1.289431e+00	-9.421575e+00
1.890000e-06	2.316333e-07	-1.137850e-10	1.614136e+00	-8.567222e+00
1.900000e-06	2.782604e-07	-1.036749e-10	1.939057e+00	-7.702663e+00
1.910000e-06	3.248995e-07	-9.385951e-11	2.264062e+00	-6.828334e+00
1.920000e-06	3.715342e-07	-8.148582e-11	2.589035e+00	-5.944707e+00
1.930000e-06	4.180606e-07	-6.616213e-11	2.913254e+00	-5.052293e+00
1.940000e-06	4.645471e-07	-5.104544e-11	3.237195e+00	-4.151638e+00
1.950000e-06	5.110506e-07	-3.781646e-11	3.561255e+00	-3.243322e+00
1.960000e-06	5.574939e-07	-2.620273e-11	3.884895e+00	-2.327960e+00
1.970000e-06	6.039072e-07	-1.579673e-11	4.208326e+00	-1.406200e+00
1.980000e-06	6.502343e-07	-4.910697e-12	4.531156e+00	-4.787176e-01
1.990000e-06	6.965060e-07	6.640943e-12	4.853601e+00	4.537803e-01
2.000000e-06	7.427728e-07	2.052653e-11	5.176010e+00	1.390562e+00
2.010000e-06	7.889861e-07	3.484754e-11	5.498047e+00	2.330870e+00
2.020000e-06	8.351590e-07	5.056146e-11	5.819803e+00	3.273928e+00
2.030000e-06	8.812630e-07	6.761892e-11	6.141079e+00	4.218941e+00
2.040000e-06	9.272868e-07	8.276561e-11	6.461796e+00	5.165096e+00
2.050000e-06	9.732656e-07	9.562032e-11	6.782199e+00	6.111569e+00
2.060000e-06	1.019205e-06	1.063450e-10	7.102329e+00	7.057527e+00
2.070000e-06	1.065094e-06	1.164885e-10	7.422107e+00	8.002131e+00
2.080000e-06	1.110804e-06	1.279065e-10	7.740635e+00	8.944540e+00
2.090000e-06	1.156405e-06	1.423648e-10	8.058405e+00	9.883914e+00
2.100000e-06	1.202054e-06	1.594607e-10	8.376513e+00	1.081941e+01
2.110000e-06	1.247644e-06	1.756249e-10	8.694206e+00	1.175022e+01
2.120000e-06	1.293066e-06	1.883589e-10	9.010730e+00	1.267550e+01
2.130000e-06	1.338433e-06	1.996647e-10	9.326868e+00	1.359447e+01
2.140000e-06	1.383657e-06	2.119330e-10	9.642013e+00	1.450634e+01
2.150000e-06	1.428716e-06	2.229079e-10	9.956002e+00	1.541034e+01
2.160000e-06	1.473749e-06	2.327893e-10	1.026982e+01	1.630575e+01
2.170000e-06	1.518742e-06	2.440004e-10	1.058335e+01	1.719186e+01
2.180000e-06	1.563661e-06	2.567573e-10	1.089637e+01	1.806798e+01
2.190000e-06	1.608387e-06	2.718916e-10	1.120804e+01	1.893348e+01
2.200000e-06	1.652963e-06	2.866737e-10	1.151867e+01	1.978775e+01
2.210000e-06	1.697432e-06	2.965958e-10	1.182855e+01	2.063023e+01
2.220000e-06	1.741717e-06	3.024540e-10	1.213715e+01	2.146037e+01
2.230000e-06	1.785838e-06	3.087068e-10	1.244461e+01	2.227771e+01
2.240000e-06	1.829846e-06	3.172450e-10	1.275128e+01	2.308179e+01
2.250000e-06	1.873819e-06	3.290182e-10	1.305770e+01	2.387222e+01
2.260000e-06	1.917753e-06	3.439062e-10	1.336386e+01	2.464866e+01
2.270000e-06	1.961602e-06	3.589976e-10	1.366942e+01	2.541080e+01
2.280000e-06	2.005378e-06	3.711471e-10	1.397447e+01	2.615837e+01
2.290000e-06	2.049082e-06	3.810293e-10	1.427902e+01	2.689118e+01
2.300000e-06	2.092725e-06	3.889533e-10	1.458315e+01	2.760906e+01
2.310000e-06	2.136303e-06	3.965815e-10	1.488682e+01	2.831189e+01
2.320000e-06	2.179781e-06	4.061163e-10	1.518980e+01	2.899959e+01
2.330000e-06	2.223077e-06	4.179814e-10	1.549151e+01	2.967216e+01
2.340000e-06	2.266170e-06	4.315041e-10	1.579180e+01	3.032959e+01
2.350000e-06	2.309071e-06	4.438501e-10	1.609076e+01	3.097194e+01
2.360000e-06	2.351681e-06	4.527589e-10	1.638768e+01	3.159931e+01
2.370000e-06	2.394056e-06	4.586452e-10	1.668297e+01	3.221182e+01
2.380000e-06	2.436101e-06	4.640218e-10	1.697596e+01	3.280965e+01
2.390000e-06	2.477769e-06	4.700283e-10	1.726633e+01	3.339299e+01
2.400000e-06	2.519166e-06	4.771819e-10	1.755480e+01	3.396207e+01
2.410000e-06	2.560236e-06	4.869896e-10	1.784100e+01	3.451713e+01
2.420000e-06	2.601080e-06	4.987093e-10	1.812562e+01	3.505846e+01
2.430000e-06	2.641700e-06	5.092801e-10	1.840868e+01	3.558634e+01
2.440000e-06	2.682041e-06	5.161346e-10	1.868979e+01	3.610109e+01
2.450000e-06	2.722209e-06	5.217313e-10	1.896971e+01	3.660304e+01
2.460000e-06	2.762252e-06	5.279578e-10	1.924875e+01	3.709252e+01
2.470000e-06	2.802161e-06	5.322716e-10	1.952685e+01	3.756987e+01
2.480000e-06	2.841938e-06	5.365643e-10	1.980403e+01	3.803544e+01
2.490000e-06	2.881608e-06	5.432754e-10	2.008048e+01	3.848959e+01
2.500000e-06	2.921184e-06	5.517611e-10	2.035626e+01	3.893266e+01
2.510000e-06	2.960531e-06	5.608194e-10	2.063045e+01	3.936499e+01
2.520000e-06	2.999664e-06	5.689141e-10	2.090315e+01	3.978692e+01
2.530000e-06	3.038673e-06	5.750307e-10	2.117499e+01	4.019878e+01
2.540000e-06	3.077513e-06	5.807876e-10	2.144564e+01	4.060089e+01
2.550000e-06	3.116049e-06	5.849751e-10	2.171418e+01	4.099355e+01
2.560000e-06	3.154306e-06	5.864825e-10	2.198077e+01	4.137705e+01
2.570000e-06	3.192364e-06	5.907010e-10	2.224598e+01	4.175166e+01
2.580000e-06	3.230229e-06	6.011805e-10	2.250984e+01	4.211764e+01
2.590000e-06	3.267994e-06	6.136173e-10	2.277301e+01	4.247522e+01
2.600000e-06	3.305553e-06	6.234068e-10	2.303474e+01	4.282461e+01
2.610000e-06	3.342778e-06	6.293921e-10	2.329414e+01	4.316602e+01
2.620000e-06	3.379742e-06	6.330352e-10	2.355172e+01	4.349961e+01
2.630000e-06	3.416439e-06	6.350962e-10	2.380745e+01	4.382555e+01
2.640000e-06	3.452792e-06	6.364661e-10	2.406077e+01	4.414396e+01
2.650000e-06	3.488925e-06	6.410289e-10	2.431257e+01	4.445496e+01
2.660000e-06	3.524973e-06	6.483430e-10	2.456377e+01	4.475866e+01
2.670000e-06	3.560848e-06	6.544548e-10	2.481376e+01	4.505511e+01
2.680000e-06	3.596546e-06	6.588086e-10	2.506252e+01	4.534440e+01
2.690000e-06	3.632141e-06	6.607933e-10	2.531056e+01	4.562656e+01
2.700000e-06	3.667578e-06	6.610245e-10	2.555750e+01	4.590163e+01
2.710000e-06	3.702779e-06	6.631555e-10	2.580281e+01	4.616963e+01
2.720000e-06	3.737730e-06	6.668511e-10	2.604636e+01	4.643056e+01
2.730000e-06	3.772317e-06	6.719090e-10	2.628738e+01	4.668443e+01
2.740000e-06	3.806427e-06	6.785410e-10	2.652508e+01	4.693124e+01
2.750000e-06	3.840048e-06	6.834960e-10	2.675936e+01	4.717098e+01
2.760000e-06	3.873185e-06	6.851606e-10	2.699028e+01	4.740363e+01
2.770000e-06	3.905897e-06	6.863387e-10	2.721823e+01	4.762918e+01
2.780000e-06	3.938254e-06	6.876876e-10	2.744371e+01	4.784763e+01
2.790000e-06	3.970375e-06	6.907169e-10	2.766755e+01	4.805896e+01
2.800000e-06	4.002333e-06	6.935967e-10	2.789025e+01	4.826319e+01
2.810000e-06	4.034085e-06	6.950790e-10	2.811151e+01	4.846030e+01
2.820000e-06	4.065644e-06	6.958164e-10	2.833143e+01	4.865033e+01
2.830000e-06	4.096998e-06	6.943146e-10	2.854992e+01	4.883330e+01
2.840000e-06	4.128064e-06	6.941860e-10	2.876640e+01	4.900924e+01
2.850000e-06	4.158808e-06	6.959134e-10	2.898064e+01	4.917822e+01
2.860000e-06	4.189253e-06	7.017748e-10	2.919280e+01	4.934030e+01
2.870000e-06	4.219416e-06	7.076997e-10	2.940299e+01	4.949556e+01
2.880000e-06	4.249329e-06	7.136765e-10	2.961144e+01	4.964411e+01
2.890000e-06	4.278966e-06	7.160380e-10	2.981796e+01	4.978606e+01
2.900000e-06	4.308312e-06	7.127032e-10	3.002246e+01	4.992155e+01
