# Temperatura_=_-0.3
# Concentracion g/m^3_=_1620.0
# C_Vs_to_Am_M_A/Vsm_=_65563218390.804596
# pendiente_HvsI_1/m_=_3716.3
# ordenada_HvsI_A/m_=_1297.0
# frecuencia_Hz_=_135101.96911146224

Tiempo_(s)	Campo_(V.s)	Magnetizacion_(V.s)	Campo_(kA/m)	Magnetizacion_(A/m)
0.000000e+00	-5.528157e-06	-1.521294e-09	-3.837197e+01	-9.843092e+01
1.000000e-08	-5.528432e-06	-1.517195e-09	-3.837388e+01	-9.840212e+01
2.000000e-08	-5.528537e-06	-1.515064e-09	-3.837461e+01	-9.837216e+01
3.000000e-08	-5.528317e-06	-1.517707e-09	-3.837308e+01	-9.834106e+01
4.000000e-08	-5.527645e-06	-1.523298e-09	-3.836841e+01	-9.830881e+01
5.000000e-08	-5.526490e-06	-1.525939e-09	-3.836040e+01	-9.827538e+01
6.000000e-08	-5.524688e-06	-1.523135e-09	-3.834789e+01	-9.824074e+01
7.000000e-08	-5.522156e-06	-1.519146e-09	-3.833032e+01	-9.820482e+01
8.000000e-08	-5.519021e-06	-1.544385e-09	-3.830855e+01	-9.816755e+01
9.000000e-08	-5.515456e-06	-1.548581e-09	-3.828381e+01	-9.812884e+01
1.000000e-07	-5.511486e-06	-1.469970e-09	-3.825625e+01	-9.808860e+01
1.100000e-07	-5.507167e-06	-1.431830e-09	-3.822627e+01	-9.804668e+01
1.200000e-07	-5.502677e-06	-1.535421e-09	-3.819511e+01	-9.800297e+01
1.300000e-07	-5.497930e-06	-1.593227e-09	-3.816216e+01	-9.795731e+01
1.400000e-07	-5.492760e-06	-1.534112e-09	-3.812627e+01	-9.790953e+01
1.500000e-07	-5.487254e-06	-1.425746e-09	-3.808805e+01	-9.785947e+01
1.600000e-07	-5.481467e-06	-1.523097e-09	-3.804788e+01	-9.780693e+01
1.700000e-07	-5.475316e-06	-1.588869e-09	-3.800519e+01	-9.775171e+01
1.800000e-07	-5.468707e-06	-1.535647e-09	-3.795931e+01	-9.769362e+01
1.900000e-07	-5.461680e-06	-1.444475e-09	-3.791054e+01	-9.763243e+01
2.000000e-07	-5.454345e-06	-1.499578e-09	-3.785962e+01	-9.756793e+01
2.100000e-07	-5.446759e-06	-1.572465e-09	-3.780697e+01	-9.749988e+01
2.200000e-07	-5.438871e-06	-1.545036e-09	-3.775222e+01	-9.742807e+01
2.300000e-07	-5.430748e-06	-1.482185e-09	-3.769584e+01	-9.735225e+01
2.400000e-07	-5.422283e-06	-1.491611e-09	-3.763708e+01	-9.727219e+01
2.500000e-07	-5.413122e-06	-1.542388e-09	-3.757349e+01	-9.718766e+01
2.600000e-07	-5.403254e-06	-1.515586e-09	-3.750499e+01	-9.709843e+01
2.700000e-07	-5.392775e-06	-1.481819e-09	-3.743225e+01	-9.700426e+01
2.800000e-07	-5.381738e-06	-1.463172e-09	-3.735565e+01	-9.690495e+01
2.900000e-07	-5.370245e-06	-1.501920e-09	-3.727587e+01	-9.680026e+01
3.000000e-07	-5.358451e-06	-1.481228e-09	-3.719401e+01	-9.668999e+01
3.100000e-07	-5.346290e-06	-1.468684e-09	-3.710959e+01	-9.657394e+01
3.200000e-07	-5.333575e-06	-1.450502e-09	-3.702134e+01	-9.645193e+01
3.300000e-07	-5.320506e-06	-1.499267e-09	-3.693062e+01	-9.632378e+01
3.400000e-07	-5.307169e-06	-1.475378e-09	-3.683805e+01	-9.618932e+01
3.500000e-07	-5.293419e-06	-1.439106e-09	-3.674261e+01	-9.604841e+01
3.600000e-07	-5.279228e-06	-1.439575e-09	-3.664410e+01	-9.590091e+01
3.700000e-07	-5.264643e-06	-1.486506e-09	-3.654287e+01	-9.574672e+01
3.800000e-07	-5.249549e-06	-1.438978e-09	-3.643810e+01	-9.558573e+01
3.900000e-07	-5.233850e-06	-1.434092e-09	-3.632913e+01	-9.541787e+01
4.000000e-07	-5.217731e-06	-1.483166e-09	-3.621725e+01	-9.524307e+01
4.100000e-07	-5.201238e-06	-1.455050e-09	-3.610276e+01	-9.506130e+01
4.200000e-07	-5.184312e-06	-1.377071e-09	-3.598528e+01	-9.487255e+01
4.300000e-07	-5.167031e-06	-1.440419e-09	-3.586532e+01	-9.467681e+01
4.400000e-07	-5.149508e-06	-1.488406e-09	-3.574370e+01	-9.447410e+01
4.500000e-07	-5.131694e-06	-1.392007e-09	-3.562005e+01	-9.426448e+01
4.600000e-07	-5.113324e-06	-1.385178e-09	-3.549254e+01	-9.404801e+01
4.700000e-07	-5.094506e-06	-1.478295e-09	-3.536192e+01	-9.382477e+01
4.800000e-07	-5.075375e-06	-1.429018e-09	-3.522913e+01	-9.359487e+01
4.900000e-07	-5.055853e-06	-1.350979e-09	-3.509361e+01	-9.335844e+01
5.000000e-07	-5.036112e-06	-1.431405e-09	-3.495659e+01	-9.311562e+01
5.100000e-07	-5.016192e-06	-1.431240e-09	-3.481832e+01	-9.286658e+01
5.200000e-07	-4.995989e-06	-1.342403e-09	-3.467809e+01	-9.261149e+01
5.300000e-07	-4.975409e-06	-1.388140e-09	-3.453524e+01	-9.235055e+01
5.400000e-07	-4.954485e-06	-1.450026e-09	-3.439000e+01	-9.208397e+01
5.500000e-07	-4.933227e-06	-1.350837e-09	-3.424244e+01	-9.181197e+01
5.600000e-07	-4.911688e-06	-1.345981e-09	-3.409294e+01	-9.153478e+01
5.700000e-07	-4.889866e-06	-1.426719e-09	-3.394147e+01	-9.125264e+01
5.800000e-07	-4.867658e-06	-1.384638e-09	-3.378732e+01	-9.096581e+01
5.900000e-07	-4.845065e-06	-1.327393e-09	-3.363050e+01	-9.067454e+01
6.000000e-07	-4.822111e-06	-1.400054e-09	-3.347117e+01	-9.037908e+01
6.100000e-07	-4.798833e-06	-1.393381e-09	-3.330960e+01	-9.007970e+01
6.200000e-07	-4.775276e-06	-1.332097e-09	-3.314608e+01	-8.977666e+01
6.300000e-07	-4.751559e-06	-1.359829e-09	-3.298146e+01	-8.947021e+01
6.400000e-07	-4.727665e-06	-1.387257e-09	-3.281560e+01	-8.916060e+01
6.500000e-07	-4.703448e-06	-1.333404e-09	-3.264751e+01	-8.884808e+01
6.600000e-07	-4.678849e-06	-1.343831e-09	-3.247676e+01	-8.853288e+01
6.700000e-07	-4.653792e-06	-1.370683e-09	-3.230284e+01	-8.821522e+01
6.800000e-07	-4.628129e-06	-1.335911e-09	-3.212470e+01	-8.789532e+01
6.900000e-07	-4.601856e-06	-1.318813e-09	-3.194234e+01	-8.757336e+01
7.000000e-07	-4.575094e-06	-1.347232e-09	-3.175658e+01	-8.724953e+01
7.100000e-07	-4.548012e-06	-1.326331e-09	-3.156860e+01	-8.692398e+01
7.200000e-07	-4.520605e-06	-1.302744e-09	-3.137836e+01	-8.659684e+01
7.300000e-07	-4.492963e-06	-1.320083e-09	-3.118649e+01	-8.626824e+01
7.400000e-07	-4.465196e-06	-1.316166e-09	-3.099376e+01	-8.593827e+01
7.500000e-07	-4.437155e-06	-1.293294e-09	-3.079912e+01	-8.560698e+01
7.600000e-07	-4.408848e-06	-1.300696e-09	-3.060264e+01	-8.527443e+01
7.700000e-07	-4.380238e-06	-1.303619e-09	-3.040405e+01	-8.494063e+01
7.800000e-07	-4.351291e-06	-1.280210e-09	-3.020312e+01	-8.460556e+01
7.900000e-07	-4.322067e-06	-1.279287e-09	-3.000028e+01	-8.426919e+01
8.000000e-07	-4.292581e-06	-1.280934e-09	-2.979561e+01	-8.393145e+01
8.100000e-07	-4.262867e-06	-1.258781e-09	-2.958936e+01	-8.359225e+01
8.200000e-07	-4.232864e-06	-1.245077e-09	-2.938109e+01	-8.325147e+01
8.300000e-07	-4.202526e-06	-1.255539e-09	-2.917051e+01	-8.290897e+01
8.400000e-07	-4.171800e-06	-1.241457e-09	-2.895724e+01	-8.256458e+01
8.500000e-07	-4.140668e-06	-1.229944e-09	-2.874115e+01	-8.221811e+01
8.600000e-07	-4.109341e-06	-1.237376e-09	-2.852370e+01	-8.186933e+01
8.700000e-07	-4.077922e-06	-1.235887e-09	-2.830561e+01	-8.151802e+01
8.800000e-07	-4.046345e-06	-1.215695e-09	-2.808643e+01	-8.116393e+01
8.900000e-07	-4.014606e-06	-1.218831e-09	-2.786613e+01	-8.080677e+01
9.000000e-07	-3.982679e-06	-1.213972e-09	-2.764451e+01	-8.044626e+01
9.100000e-07	-3.950477e-06	-1.193580e-09	-2.742100e+01	-8.008212e+01
9.200000e-07	-3.917867e-06	-1.185973e-09	-2.719464e+01	-7.971401e+01
9.300000e-07	-3.884837e-06	-1.191337e-09	-2.696538e+01	-7.934164e+01
9.400000e-07	-3.851326e-06	-1.177194e-09	-2.673277e+01	-7.896468e+01
9.500000e-07	-3.817302e-06	-1.168042e-09	-2.649660e+01	-7.858281e+01
9.600000e-07	-3.782895e-06	-1.171424e-09	-2.625778e+01	-7.819570e+01
9.700000e-07	-3.748128e-06	-1.160455e-09	-2.601646e+01	-7.780304e+01
9.800000e-07	-3.713028e-06	-1.136917e-09	-2.577282e+01	-7.740451e+01
9.900000e-07	-3.677635e-06	-1.131542e-09	-2.552715e+01	-7.699982e+01
1.000000e-06	-3.642029e-06	-1.126262e-09	-2.528000e+01	-7.658867e+01
1.010000e-06	-3.606315e-06	-1.112675e-09	-2.503211e+01	-7.617079e+01
1.020000e-06	-3.570461e-06	-1.110299e-09	-2.478323e+01	-7.574592e+01
1.030000e-06	-3.534395e-06	-1.112130e-09	-2.453289e+01	-7.531381e+01
1.040000e-06	-3.498169e-06	-1.099870e-09	-2.428144e+01	-7.487425e+01
1.050000e-06	-3.461702e-06	-1.090276e-09	-2.402832e+01	-7.442704e+01
1.060000e-06	-3.424882e-06	-1.089295e-09	-2.377275e+01	-7.397202e+01
1.070000e-06	-3.387847e-06	-1.077459e-09	-2.351568e+01	-7.350905e+01
1.080000e-06	-3.350607e-06	-1.064005e-09	-2.325718e+01	-7.303800e+01
1.090000e-06	-3.313146e-06	-1.059487e-09	-2.299716e+01	-7.255880e+01
1.100000e-06	-3.275399e-06	-1.054992e-09	-2.273516e+01	-7.207138e+01
1.110000e-06	-3.237349e-06	-1.043170e-09	-2.247104e+01	-7.157573e+01
1.120000e-06	-3.199143e-06	-1.039090e-09	-2.220585e+01	-7.107184e+01
1.130000e-06	-3.160720e-06	-1.033289e-09	-2.193914e+01	-7.055976e+01
1.140000e-06	-3.122070e-06	-1.018158e-09	-2.167087e+01	-7.003955e+01
1.150000e-06	-3.083286e-06	-1.003578e-09	-2.140166e+01	-6.951130e+01
1.160000e-06	-3.044320e-06	-9.984377e-10	-2.113119e+01	-6.897513e+01
1.170000e-06	-3.005131e-06	-9.890890e-10	-2.085917e+01	-6.843118e+01
1.180000e-06	-2.965765e-06	-9.790023e-10	-2.058593e+01	-6.787964e+01
1.190000e-06	-2.926292e-06	-9.730869e-10	-2.031194e+01	-6.732068e+01
1.200000e-06	-2.886680e-06	-9.656902e-10	-2.003699e+01	-6.675453e+01
1.210000e-06	-2.846890e-06	-9.535472e-10	-1.976079e+01	-6.618140e+01
1.220000e-06	-2.806979e-06	-9.467619e-10	-1.948377e+01	-6.560154e+01
1.230000e-06	-2.766945e-06	-9.405967e-10	-1.920588e+01	-6.501520e+01
1.240000e-06	-2.726734e-06	-9.312011e-10	-1.892677e+01	-6.442263e+01
1.250000e-06	-2.686277e-06	-9.230129e-10	-1.864595e+01	-6.382410e+01
1.260000e-06	-2.645479e-06	-9.185830e-10	-1.836276e+01	-6.321987e+01
1.270000e-06	-2.604462e-06	-9.089225e-10	-1.807805e+01	-6.261018e+01
1.280000e-06	-2.563203e-06	-8.992867e-10	-1.779167e+01	-6.199530e+01
1.290000e-06	-2.521580e-06	-8.929677e-10	-1.750276e+01	-6.137544e+01
1.300000e-06	-2.479705e-06	-8.850575e-10	-1.721210e+01	-6.075083e+01
1.310000e-06	-2.437612e-06	-8.724005e-10	-1.691992e+01	-6.012168e+01
1.320000e-06	-2.395199e-06	-8.601298e-10	-1.662552e+01	-5.948814e+01
1.330000e-06	-2.352426e-06	-8.500681e-10	-1.632863e+01	-5.885037e+01
1.340000e-06	-2.309386e-06	-8.382839e-10	-1.602988e+01	-5.820849e+01
1.350000e-06	-2.266172e-06	-8.281128e-10	-1.572992e+01	-5.756257e+01
1.360000e-06	-2.222845e-06	-8.199851e-10	-1.542918e+01	-5.691265e+01
1.370000e-06	-2.179364e-06	-8.122949e-10	-1.512737e+01	-5.625874e+01
1.380000e-06	-2.135762e-06	-8.035391e-10	-1.482472e+01	-5.560079e+01
1.390000e-06	-2.092094e-06	-7.922316e-10	-1.452162e+01	-5.493873e+01
1.400000e-06	-2.048283e-06	-7.768894e-10	-1.421751e+01	-5.427240e+01
1.410000e-06	-2.004384e-06	-7.608281e-10	-1.391280e+01	-5.360164e+01
1.420000e-06	-1.960469e-06	-7.480703e-10	-1.360798e+01	-5.292621e+01
1.430000e-06	-1.916402e-06	-7.389655e-10	-1.330210e+01	-5.224582e+01
1.440000e-06	-1.872233e-06	-7.284457e-10	-1.299552e+01	-5.156015e+01
1.450000e-06	-1.828006e-06	-7.190594e-10	-1.268853e+01	-5.086880e+01
1.460000e-06	-1.783627e-06	-7.087619e-10	-1.238049e+01	-5.017135e+01
1.470000e-06	-1.739108e-06	-6.980738e-10	-1.207147e+01	-4.946732e+01
1.480000e-06	-1.694453e-06	-6.850684e-10	-1.176151e+01	-4.875617e+01
1.490000e-06	-1.649646e-06	-6.721403e-10	-1.145050e+01	-4.803733e+01
1.500000e-06	-1.604763e-06	-6.605681e-10	-1.113896e+01	-4.731019e+01
1.510000e-06	-1.559845e-06	-6.503156e-10	-1.082717e+01	-4.657409e+01
1.520000e-06	-1.514765e-06	-6.400683e-10	-1.051427e+01	-4.582835e+01
1.530000e-06	-1.469608e-06	-6.301130e-10	-1.020082e+01	-4.507224e+01
1.540000e-06	-1.424402e-06	-6.203273e-10	-9.887037e+00	-4.430503e+01
1.550000e-06	-1.379020e-06	-6.104680e-10	-9.572033e+00	-4.352593e+01
1.560000e-06	-1.333501e-06	-5.983719e-10	-9.256078e+00	-4.273417e+01
1.570000e-06	-1.287953e-06	-5.852420e-10	-8.939924e+00	-4.192894e+01
1.580000e-06	-1.242355e-06	-5.731026e-10	-8.623417e+00	-4.110944e+01
1.590000e-06	-1.196585e-06	-5.586944e-10	-8.305721e+00	-4.027487e+01
1.600000e-06	-1.150624e-06	-5.433800e-10	-7.986697e+00	-3.942442e+01
1.610000e-06	-1.104560e-06	-5.286958e-10	-7.666954e+00	-3.855730e+01
1.620000e-06	-1.058432e-06	-5.135618e-10	-7.346773e+00	-3.767275e+01
1.630000e-06	-1.012302e-06	-4.971215e-10	-7.026577e+00	-3.677000e+01
1.640000e-06	-9.661915e-07	-4.800113e-10	-6.706515e+00	-3.584836e+01
1.650000e-06	-9.200378e-07	-4.646125e-10	-6.386154e+00	-3.490712e+01
1.660000e-06	-8.738072e-07	-4.513643e-10	-6.065259e+00	-3.394566e+01
1.670000e-06	-8.274861e-07	-4.374249e-10	-5.743735e+00	-3.296337e+01
1.680000e-06	-7.811007e-07	-4.224673e-10	-5.421765e+00	-3.195971e+01
1.690000e-06	-7.346544e-07	-4.062997e-10	-5.099373e+00	-3.093421e+01
1.700000e-06	-6.881143e-07	-3.885115e-10	-4.776329e+00	-2.988644e+01
1.710000e-06	-6.414594e-07	-3.686486e-10	-4.452489e+00	-2.881606e+01
1.720000e-06	-5.948141e-07	-3.474424e-10	-4.128716e+00	-2.772278e+01
1.730000e-06	-5.481837e-07	-3.270758e-10	-3.805045e+00	-2.660640e+01
1.740000e-06	-5.015540e-07	-3.080792e-10	-3.481380e+00	-2.546681e+01
1.750000e-06	-4.549255e-07	-2.893497e-10	-3.157723e+00	-2.430396e+01
1.760000e-06	-4.082124e-07	-2.719661e-10	-2.833478e+00	-2.311789e+01
1.770000e-06	-3.613963e-07	-2.542345e-10	-2.508519e+00	-2.190874e+01
1.780000e-06	-3.144990e-07	-2.355723e-10	-2.182996e+00	-2.067673e+01
1.790000e-06	-2.674665e-07	-2.171622e-10	-1.856535e+00	-1.942216e+01
1.800000e-06	-2.204546e-07	-2.004051e-10	-1.530217e+00	-1.814545e+01
1.810000e-06	-1.735692e-07	-1.825404e-10	-1.204776e+00	-1.684707e+01
1.820000e-06	-1.267026e-07	-1.622541e-10	-8.794664e-01	-1.552759e+01
1.830000e-06	-7.987962e-08	-1.408297e-10	-5.544593e-01	-1.418769e+01
1.840000e-06	-3.303161e-08	-1.200510e-10	-2.292786e-01	-1.282811e+01
1.850000e-06	1.385857e-08	-1.005233e-10	9.619491e-02	-1.144966e+01
1.860000e-06	6.077351e-08	-8.380678e-11	4.218403e-01	-1.005327e+01
1.870000e-06	1.077216e-07	-6.386585e-11	7.477159e-01	-8.639903e+00
1.880000e-06	1.546767e-07	-4.285754e-11	1.073640e+00	-7.210616e+00
1.890000e-06	2.016475e-07	-2.594534e-11	1.399673e+00	-5.766523e+00
1.900000e-06	2.484976e-07	-7.076302e-12	1.724868e+00	-4.308802e+00
1.910000e-06	2.952655e-07	1.220610e-11	2.049493e+00	-2.838683e+00
1.920000e-06	3.420756e-07	3.443197e-11	2.374410e+00	-1.357449e+00
1.930000e-06	3.888836e-07	5.842714e-11	2.699314e+00	1.335756e-01
1.940000e-06	4.356809e-07	8.139633e-11	3.024142e+00	1.633030e+00
1.950000e-06	4.823900e-07	1.027223e-10	3.348359e+00	3.139520e+00
1.960000e-06	5.290136e-07	1.213066e-10	3.671982e+00	4.651631e+00
1.970000e-06	5.756241e-07	1.370064e-10	3.995514e+00	6.167928e+00
1.980000e-06	6.221654e-07	1.545692e-10	4.318566e+00	7.686968e+00
1.990000e-06	6.686806e-07	1.731993e-10	4.641437e+00	9.207304e+00
2.000000e-06	7.152208e-07	1.912340e-10	4.964481e+00	1.072749e+01
2.010000e-06	7.616773e-07	2.125619e-10	5.286944e+00	1.224609e+01
2.020000e-06	8.080692e-07	2.334054e-10	5.608959e+00	1.376170e+01
2.030000e-06	8.543957e-07	2.565589e-10	5.930520e+00	1.527291e+01
2.040000e-06	9.006106e-07	2.822409e-10	6.251306e+00	1.677835e+01
2.050000e-06	9.467491e-07	3.056410e-10	6.571562e+00	1.827671e+01
2.060000e-06	9.928858e-07	3.264362e-10	6.891805e+00	1.976669e+01
2.070000e-06	1.039041e-06	3.457062e-10	7.212180e+00	2.124703e+01
2.080000e-06	1.085090e-06	3.650897e-10	7.531809e+00	2.271656e+01
2.090000e-06	1.130958e-06	3.821676e-10	7.850189e+00	2.417412e+01
2.100000e-06	1.176731e-06	4.019181e-10	8.167907e+00	2.561865e+01
2.110000e-06	1.222461e-06	4.248742e-10	8.485332e+00	2.704911e+01
2.120000e-06	1.268120e-06	4.486873e-10	8.802257e+00	2.846456e+01
2.130000e-06	1.313715e-06	4.713074e-10	9.118739e+00	2.986411e+01
2.140000e-06	1.359225e-06	4.903593e-10	9.434637e+00	3.124695e+01
2.150000e-06	1.404651e-06	5.064257e-10	9.749943e+00	3.261233e+01
2.160000e-06	1.449995e-06	5.199725e-10	1.006468e+01	3.395958e+01
2.170000e-06	1.495217e-06	5.362350e-10	1.037858e+01	3.528810e+01
2.180000e-06	1.540346e-06	5.541833e-10	1.069183e+01	3.659737e+01
2.190000e-06	1.585347e-06	5.758523e-10	1.100419e+01	3.788694e+01
2.200000e-06	1.630175e-06	5.999304e-10	1.131535e+01	3.915641e+01
2.210000e-06	1.674877e-06	6.213960e-10	1.162563e+01	4.040550e+01
2.220000e-06	1.719510e-06	6.396451e-10	1.193544e+01	4.163394e+01
2.230000e-06	1.764016e-06	6.537517e-10	1.224437e+01	4.284158e+01
2.240000e-06	1.808344e-06	6.684358e-10	1.255205e+01	4.402830e+01
2.250000e-06	1.852519e-06	6.840841e-10	1.285868e+01	4.519404e+01
2.260000e-06	1.896533e-06	7.008819e-10	1.316419e+01	4.633883e+01
2.270000e-06	1.940434e-06	7.203492e-10	1.346891e+01	4.746272e+01
2.280000e-06	1.984273e-06	7.383010e-10	1.377321e+01	4.856584e+01
2.290000e-06	2.028076e-06	7.527908e-10	1.407725e+01	4.964834e+01
2.300000e-06	2.071873e-06	7.642534e-10	1.438126e+01	5.071043e+01
2.310000e-06	2.115625e-06	7.735881e-10	1.468495e+01	5.175235e+01
2.320000e-06	2.159242e-06	7.848643e-10	1.498770e+01	5.277440e+01
2.330000e-06	2.202752e-06	7.999204e-10	1.528971e+01	5.377688e+01
2.340000e-06	2.246144e-06	8.172239e-10	1.559090e+01	5.476013e+01
2.350000e-06	2.289368e-06	8.339034e-10	1.589093e+01	5.572451e+01
2.360000e-06	2.332430e-06	8.492294e-10	1.618983e+01	5.667040e+01
2.370000e-06	2.375283e-06	8.629797e-10	1.648728e+01	5.759820e+01
2.380000e-06	2.417885e-06	8.724571e-10	1.678299e+01	5.850831e+01
2.390000e-06	2.460209e-06	8.819392e-10	1.707677e+01	5.940115e+01
2.400000e-06	2.502132e-06	8.927065e-10	1.736776e+01	6.027712e+01
2.410000e-06	2.543601e-06	9.047697e-10	1.765561e+01	6.113665e+01
2.420000e-06	2.584730e-06	9.191406e-10	1.794109e+01	6.198015e+01
2.430000e-06	2.625641e-06	9.338894e-10	1.822506e+01	6.280802e+01
2.440000e-06	2.666364e-06	9.471974e-10	1.850773e+01	6.362066e+01
2.450000e-06	2.706827e-06	9.560030e-10	1.878859e+01	6.441845e+01
2.460000e-06	2.747074e-06	9.617189e-10	1.906795e+01	6.520177e+01
2.470000e-06	2.787174e-06	9.695351e-10	1.934630e+01	6.597098e+01
2.480000e-06	2.827090e-06	9.793846e-10	1.962336e+01	6.672641e+01
2.490000e-06	2.866860e-06	9.899931e-10	1.989941e+01	6.746841e+01
2.500000e-06	2.906506e-06	1.001716e-09	2.017460e+01	6.819726e+01
2.510000e-06	2.946018e-06	1.014437e-09	2.044886e+01	6.891326e+01
2.520000e-06	2.985384e-06	1.027732e-09	2.072211e+01	6.961668e+01
2.530000e-06	3.024585e-06	1.040252e-09	2.099421e+01	7.030777e+01
2.540000e-06	3.063673e-06	1.051215e-09	2.126553e+01	7.098675e+01
2.550000e-06	3.102534e-06	1.061121e-09	2.153526e+01	7.165385e+01
2.560000e-06	3.141123e-06	1.068900e-09	2.180312e+01	7.230926e+01
2.570000e-06	3.179573e-06	1.074030e-09	2.207001e+01	7.295315e+01
2.580000e-06	3.217763e-06	1.080272e-09	2.233509e+01	7.358568e+01
2.590000e-06	3.255651e-06	1.089198e-09	2.259808e+01	7.420702e+01
2.600000e-06	3.293324e-06	1.098607e-09	2.285958e+01	7.481728e+01
2.610000e-06	3.330764e-06	1.107973e-09	2.311945e+01	7.541659e+01
2.620000e-06	3.368024e-06	1.116709e-09	2.337808e+01	7.600507e+01
2.630000e-06	3.405108e-06	1.124776e-09	2.363549e+01	7.658282e+01
2.640000e-06	3.441908e-06	1.132964e-09	2.389092e+01	7.714993e+01
2.650000e-06	3.478448e-06	1.138940e-09	2.414456e+01	7.770650e+01
2.660000e-06	3.514774e-06	1.148048e-09	2.439670e+01	7.825261e+01
2.670000e-06	3.550825e-06	1.156567e-09	2.464694e+01	7.878835e+01
2.680000e-06	3.586680e-06	1.161611e-09	2.489581e+01	7.931381e+01
2.690000e-06	3.622446e-06	1.167358e-09	2.514407e+01	7.982906e+01
2.700000e-06	3.658123e-06	1.172982e-09	2.539171e+01	8.033421e+01
2.710000e-06	3.693606e-06	1.180357e-09	2.563801e+01	8.082933e+01
2.720000e-06	3.728852e-06	1.188379e-09	2.588265e+01	8.131453e+01
2.730000e-06	3.763780e-06	1.196596e-09	2.612510e+01	8.178990e+01
2.740000e-06	3.798226e-06	1.202575e-09	2.636419e+01	8.225556e+01
2.750000e-06	3.832266e-06	1.205784e-09	2.660047e+01	8.271162e+01
2.760000e-06	3.865833e-06	1.207841e-09	2.683347e+01	8.315821e+01
2.770000e-06	3.898990e-06	1.211234e-09	2.706361e+01	8.359545e+01
2.780000e-06	3.931840e-06	1.215842e-09	2.729164e+01	8.402349e+01
2.790000e-06	3.964308e-06	1.222384e-09	2.751700e+01	8.444248e+01
2.800000e-06	3.996468e-06	1.229359e-09	2.774023e+01	8.485257e+01
2.810000e-06	4.028395e-06	1.234489e-09	2.796184e+01	8.525393e+01
2.820000e-06	4.060173e-06	1.239073e-09	2.818242e+01	8.564674e+01
2.830000e-06	4.091820e-06	1.243653e-09	2.840208e+01	8.603117e+01
2.840000e-06	4.123278e-06	1.249059e-09	2.862044e+01	8.640742e+01
2.850000e-06	4.154463e-06	1.256792e-09	2.883690e+01	8.677568e+01
2.860000e-06	4.185333e-06	1.264672e-09	2.905117e+01	8.713614e+01
2.870000e-06	4.215862e-06	1.269881e-09	2.926308e+01	8.748902e+01
2.880000e-06	4.246122e-06	1.270453e-09	2.947313e+01	8.783452e+01
2.890000e-06	4.276121e-06	1.268877e-09	2.968135e+01	8.817284e+01
2.900000e-06	4.305781e-06	1.268665e-09	2.988723e+01	8.850420e+01
