# Temperatura_=_-1.98
# Concentracion g/m^3_=_1620.0
# C_Vs_to_Am_M_A/Vsm_=_65563218390.804596
# pendiente_HvsI_1/m_=_3716.3
# ordenada_HvsI_A/m_=_1297.0
# frecuencia_Hz_=_135099.15136909063

Tiempo_(s)	Campo_(V.s)	Magnetizacion_(V.s)	Campo_(kA/m)	Magnetizacion_(A/m)
0.000000e+00	-5.517412e-06	-1.093920e-09	-3.837090e+01	-7.106415e+01
1.000000e-08	-5.517670e-06	-1.091252e-09	-3.837269e+01	-7.103822e+01
2.000000e-08	-5.517590e-06	-1.090878e-09	-3.837213e+01	-7.101024e+01
3.000000e-08	-5.517024e-06	-1.094444e-09	-3.836820e+01	-7.098000e+01
4.000000e-08	-5.515857e-06	-1.099159e-09	-3.836008e+01	-7.094728e+01
5.000000e-08	-5.514122e-06	-1.096745e-09	-3.834801e+01	-7.091186e+01
6.000000e-08	-5.511846e-06	-1.078345e-09	-3.833218e+01	-7.087352e+01
7.000000e-08	-5.509014e-06	-1.046880e-09	-3.831249e+01	-7.083204e+01
8.000000e-08	-5.505746e-06	-1.077418e-09	-3.828976e+01	-7.078721e+01
9.000000e-08	-5.502106e-06	-1.200896e-09	-3.826445e+01	-7.073881e+01
1.000000e-07	-5.497999e-06	-1.212193e-09	-3.823588e+01	-7.068663e+01
1.100000e-07	-5.493516e-06	-1.021782e-09	-3.820471e+01	-7.063048e+01
1.200000e-07	-5.488948e-06	-9.876572e-10	-3.817294e+01	-7.057018e+01
1.300000e-07	-5.484202e-06	-1.117908e-09	-3.813993e+01	-7.050555e+01
1.400000e-07	-5.478939e-06	-1.209559e-09	-3.810333e+01	-7.043643e+01
1.500000e-07	-5.473182e-06	-1.049092e-09	-3.806329e+01	-7.036268e+01
1.600000e-07	-5.467255e-06	-9.839302e-10	-3.802208e+01	-7.028419e+01
1.700000e-07	-5.460987e-06	-1.152562e-09	-3.797849e+01	-7.020085e+01
1.800000e-07	-5.454039e-06	-1.211414e-09	-3.793017e+01	-7.011258e+01
1.900000e-07	-5.446733e-06	-1.074562e-09	-3.787936e+01	-7.001932e+01
2.000000e-07	-5.439318e-06	-9.533175e-10	-3.782779e+01	-6.992104e+01
2.100000e-07	-5.431594e-06	-1.081512e-09	-3.777407e+01	-6.981772e+01
2.200000e-07	-5.423498e-06	-1.158427e-09	-3.771777e+01	-6.970938e+01
2.300000e-07	-5.415131e-06	-1.108933e-09	-3.765958e+01	-6.959606e+01
2.400000e-07	-5.406420e-06	-1.018386e-09	-3.759900e+01	-6.947783e+01
2.500000e-07	-5.396950e-06	-1.073151e-09	-3.753314e+01	-6.935477e+01
2.600000e-07	-5.386499e-06	-1.085893e-09	-3.746046e+01	-6.922700e+01
2.700000e-07	-5.375474e-06	-1.038504e-09	-3.738378e+01	-6.909464e+01
2.800000e-07	-5.364135e-06	-9.905147e-10	-3.730493e+01	-6.895788e+01
2.900000e-07	-5.352433e-06	-1.052666e-09	-3.722354e+01	-6.881687e+01
3.000000e-07	-5.340440e-06	-1.074686e-09	-3.714014e+01	-6.867183e+01
3.100000e-07	-5.328089e-06	-1.020754e-09	-3.705424e+01	-6.852298e+01
3.200000e-07	-5.315239e-06	-9.802694e-10	-3.696488e+01	-6.837055e+01
3.300000e-07	-5.301985e-06	-1.032550e-09	-3.687270e+01	-6.821479e+01
3.400000e-07	-5.288367e-06	-1.061452e-09	-3.677800e+01	-6.805598e+01
3.500000e-07	-5.274282e-06	-9.860139e-10	-3.668004e+01	-6.789437e+01
3.600000e-07	-5.259597e-06	-9.774697e-10	-3.657792e+01	-6.773027e+01
3.700000e-07	-5.244549e-06	-1.059644e-09	-3.647326e+01	-6.756395e+01
3.800000e-07	-5.229121e-06	-1.037367e-09	-3.636597e+01	-6.739570e+01
3.900000e-07	-5.212918e-06	-9.346273e-10	-3.625329e+01	-6.722582e+01
4.000000e-07	-5.196329e-06	-1.012244e-09	-3.613792e+01	-6.705460e+01
4.100000e-07	-5.179658e-06	-1.076918e-09	-3.602198e+01	-6.688232e+01
4.200000e-07	-5.162619e-06	-9.585151e-10	-3.590348e+01	-6.670926e+01
4.300000e-07	-5.145149e-06	-9.280824e-10	-3.578198e+01	-6.653567e+01
4.400000e-07	-5.127439e-06	-1.092471e-09	-3.565882e+01	-6.636183e+01
4.500000e-07	-5.109415e-06	-1.033014e-09	-3.553347e+01	-6.618796e+01
4.600000e-07	-5.090834e-06	-8.955009e-10	-3.540425e+01	-6.601428e+01
4.700000e-07	-5.071874e-06	-9.917230e-10	-3.527240e+01	-6.584100e+01
4.800000e-07	-5.052716e-06	-1.071725e-09	-3.513916e+01	-6.566829e+01
4.900000e-07	-5.033288e-06	-9.237856e-10	-3.500405e+01	-6.549632e+01
5.000000e-07	-5.013633e-06	-9.504703e-10	-3.486736e+01	-6.532522e+01
5.100000e-07	-4.993770e-06	-1.056351e-09	-3.472922e+01	-6.515509e+01
5.200000e-07	-4.973553e-06	-9.557587e-10	-3.458862e+01	-6.498601e+01
5.300000e-07	-4.952889e-06	-9.044764e-10	-3.444491e+01	-6.481803e+01
5.400000e-07	-4.931819e-06	-1.052773e-09	-3.429838e+01	-6.465118e+01
5.500000e-07	-4.910413e-06	-1.003015e-09	-3.414951e+01	-6.448545e+01
5.600000e-07	-4.888591e-06	-8.807454e-10	-3.399775e+01	-6.432082e+01
5.700000e-07	-4.866513e-06	-9.745861e-10	-3.384421e+01	-6.415721e+01
5.800000e-07	-4.844181e-06	-1.023495e-09	-3.368890e+01	-6.399454e+01
5.900000e-07	-4.821339e-06	-9.083499e-10	-3.353005e+01	-6.383269e+01
6.000000e-07	-4.798162e-06	-9.434815e-10	-3.336886e+01	-6.367152e+01
6.100000e-07	-4.774762e-06	-1.019944e-09	-3.320613e+01	-6.351087e+01
6.200000e-07	-4.751194e-06	-9.407126e-10	-3.304222e+01	-6.335054e+01
6.300000e-07	-4.727471e-06	-9.233761e-10	-3.287724e+01	-6.319033e+01
6.400000e-07	-4.703473e-06	-9.908527e-10	-3.271035e+01	-6.303000e+01
6.500000e-07	-4.679048e-06	-9.485558e-10	-3.254048e+01	-6.286931e+01
6.600000e-07	-4.654130e-06	-9.059831e-10	-3.236719e+01	-6.270800e+01
6.700000e-07	-4.628646e-06	-9.610249e-10	-3.218996e+01	-6.254578e+01
6.800000e-07	-4.602476e-06	-9.468755e-10	-3.200796e+01	-6.238238e+01
6.900000e-07	-4.575731e-06	-9.084565e-10	-3.182196e+01	-6.221750e+01
7.000000e-07	-4.548637e-06	-9.398491e-10	-3.163354e+01	-6.205085e+01
7.100000e-07	-4.521295e-06	-9.464402e-10	-3.144339e+01	-6.188212e+01
7.200000e-07	-4.493783e-06	-9.015475e-10	-3.125206e+01	-6.171101e+01
7.300000e-07	-4.466186e-06	-9.200295e-10	-3.106013e+01	-6.153723e+01
7.400000e-07	-4.438406e-06	-9.278248e-10	-3.086693e+01	-6.136048e+01
7.500000e-07	-4.410361e-06	-8.957973e-10	-3.067189e+01	-6.118049e+01
7.600000e-07	-4.382042e-06	-8.936267e-10	-3.047495e+01	-6.099697e+01
7.700000e-07	-4.353439e-06	-9.115460e-10	-3.027603e+01	-6.080967e+01
7.800000e-07	-4.324479e-06	-8.833048e-10	-3.007463e+01	-6.061833e+01
7.900000e-07	-4.295131e-06	-8.843516e-10	-2.987053e+01	-6.042274e+01
8.000000e-07	-4.265489e-06	-9.013602e-10	-2.966438e+01	-6.022267e+01
8.100000e-07	-4.235550e-06	-8.786146e-10	-2.945617e+01	-6.001794e+01
8.200000e-07	-4.205306e-06	-8.523027e-10	-2.924584e+01	-5.980837e+01
8.300000e-07	-4.174753e-06	-8.737773e-10	-2.903336e+01	-5.959381e+01
8.400000e-07	-4.143833e-06	-8.709760e-10	-2.881833e+01	-5.937415e+01
8.500000e-07	-4.112668e-06	-8.520189e-10	-2.860159e+01	-5.914927e+01
8.600000e-07	-4.081372e-06	-8.657227e-10	-2.838394e+01	-5.891909e+01
8.700000e-07	-4.049913e-06	-8.757493e-10	-2.816516e+01	-5.868357e+01
8.800000e-07	-4.018297e-06	-8.498680e-10	-2.794529e+01	-5.844267e+01
8.900000e-07	-3.986544e-06	-8.444414e-10	-2.772446e+01	-5.819638e+01
9.000000e-07	-3.954550e-06	-8.506642e-10	-2.750195e+01	-5.794473e+01
9.100000e-07	-3.922151e-06	-8.273658e-10	-2.727664e+01	-5.768775e+01
9.200000e-07	-3.889258e-06	-8.142520e-10	-2.704788e+01	-5.742549e+01
9.300000e-07	-3.855968e-06	-8.318088e-10	-2.681637e+01	-5.715805e+01
9.400000e-07	-3.822272e-06	-8.315293e-10	-2.658202e+01	-5.688551e+01
9.500000e-07	-3.788027e-06	-8.155411e-10	-2.634387e+01	-5.660799e+01
9.600000e-07	-3.753327e-06	-8.222421e-10	-2.610255e+01	-5.632562e+01
9.700000e-07	-3.718345e-06	-8.178044e-10	-2.585926e+01	-5.603854e+01
9.800000e-07	-3.683112e-06	-7.943858e-10	-2.561424e+01	-5.574691e+01
9.900000e-07	-3.647694e-06	-7.860944e-10	-2.536792e+01	-5.545088e+01
1.000000e-06	-3.612155e-06	-7.951506e-10	-2.512077e+01	-5.515063e+01
1.010000e-06	-3.576498e-06	-7.880230e-10	-2.487279e+01	-5.484633e+01
1.020000e-06	-3.540716e-06	-7.875597e-10	-2.462394e+01	-5.453816e+01
1.030000e-06	-3.504784e-06	-7.934665e-10	-2.437405e+01	-5.422628e+01
1.040000e-06	-3.468592e-06	-7.869110e-10	-2.412236e+01	-5.391089e+01
1.050000e-06	-3.432011e-06	-7.710982e-10	-2.386795e+01	-5.359213e+01
1.060000e-06	-3.395136e-06	-7.676595e-10	-2.361150e+01	-5.327019e+01
1.070000e-06	-3.358017e-06	-7.573185e-10	-2.335336e+01	-5.294521e+01
1.080000e-06	-3.320627e-06	-7.449325e-10	-2.309333e+01	-5.261733e+01
1.090000e-06	-3.283075e-06	-7.438666e-10	-2.283218e+01	-5.228670e+01
1.100000e-06	-3.245317e-06	-7.477521e-10	-2.256958e+01	-5.195341e+01
1.110000e-06	-3.207329e-06	-7.398582e-10	-2.230540e+01	-5.161759e+01
1.120000e-06	-3.169073e-06	-7.364031e-10	-2.203934e+01	-5.127931e+01
1.130000e-06	-3.130542e-06	-7.351427e-10	-2.177139e+01	-5.093864e+01
1.140000e-06	-3.091815e-06	-7.268142e-10	-2.150206e+01	-5.059563e+01
1.150000e-06	-3.052923e-06	-7.166839e-10	-2.123158e+01	-5.025030e+01
1.160000e-06	-3.013921e-06	-7.151602e-10	-2.096034e+01	-4.990267e+01
1.170000e-06	-2.974720e-06	-7.103186e-10	-2.068772e+01	-4.955272e+01
1.180000e-06	-2.935303e-06	-7.029428e-10	-2.041359e+01	-4.920042e+01
1.190000e-06	-2.895798e-06	-7.009166e-10	-2.013886e+01	-4.884570e+01
1.200000e-06	-2.856191e-06	-6.958072e-10	-1.986341e+01	-4.848850e+01
1.210000e-06	-2.816464e-06	-6.852835e-10	-1.958712e+01	-4.812872e+01
1.220000e-06	-2.776548e-06	-6.791022e-10	-1.930953e+01	-4.776622e+01
1.230000e-06	-2.736339e-06	-6.752722e-10	-1.902990e+01	-4.740088e+01
1.240000e-06	-2.695958e-06	-6.674597e-10	-1.874907e+01	-4.703253e+01
1.250000e-06	-2.655451e-06	-6.651321e-10	-1.846736e+01	-4.666099e+01
1.260000e-06	-2.614784e-06	-6.641538e-10	-1.818454e+01	-4.628607e+01
1.270000e-06	-2.573766e-06	-6.605170e-10	-1.789928e+01	-4.590756e+01
1.280000e-06	-2.532325e-06	-6.528277e-10	-1.761108e+01	-4.552522e+01
1.290000e-06	-2.490597e-06	-6.443965e-10	-1.732088e+01	-4.513881e+01
1.300000e-06	-2.448571e-06	-6.340668e-10	-1.702861e+01	-4.474807e+01
1.310000e-06	-2.406237e-06	-6.261688e-10	-1.673420e+01	-4.435274e+01
1.320000e-06	-2.363703e-06	-6.192833e-10	-1.643840e+01	-4.395253e+01
1.330000e-06	-2.320930e-06	-6.139576e-10	-1.614093e+01	-4.354715e+01
1.340000e-06	-2.277884e-06	-6.096580e-10	-1.584157e+01	-4.313631e+01
1.350000e-06	-2.234675e-06	-6.077317e-10	-1.554107e+01	-4.271969e+01
1.360000e-06	-2.191271e-06	-6.032186e-10	-1.523922e+01	-4.229699e+01
1.370000e-06	-2.147718e-06	-5.960340e-10	-1.493633e+01	-4.186789e+01
1.380000e-06	-2.104122e-06	-5.850066e-10	-1.463314e+01	-4.143208e+01
1.390000e-06	-2.060460e-06	-5.724359e-10	-1.432949e+01	-4.098922e+01
1.400000e-06	-2.016744e-06	-5.605865e-10	-1.402547e+01	-4.053900e+01
1.410000e-06	-1.972966e-06	-5.539475e-10	-1.372101e+01	-4.008110e+01
1.420000e-06	-1.929125e-06	-5.494052e-10	-1.341612e+01	-3.961518e+01
1.430000e-06	-1.885192e-06	-5.448808e-10	-1.311059e+01	-3.914093e+01
1.440000e-06	-1.841111e-06	-5.397514e-10	-1.280403e+01	-3.865803e+01
1.450000e-06	-1.796965e-06	-5.330387e-10	-1.249701e+01	-3.816616e+01
1.460000e-06	-1.752662e-06	-5.228290e-10	-1.218890e+01	-3.766500e+01
1.470000e-06	-1.708220e-06	-5.119774e-10	-1.187983e+01	-3.715425e+01
1.480000e-06	-1.663692e-06	-5.031464e-10	-1.157016e+01	-3.663360e+01
1.490000e-06	-1.618942e-06	-4.962428e-10	-1.125895e+01	-3.610275e+01
1.500000e-06	-1.573983e-06	-4.901501e-10	-1.094628e+01	-3.556140e+01
1.510000e-06	-1.528968e-06	-4.847328e-10	-1.063322e+01	-3.500925e+01
1.520000e-06	-1.483893e-06	-4.776799e-10	-1.031975e+01	-3.444603e+01
1.530000e-06	-1.438670e-06	-4.690886e-10	-1.000525e+01	-3.387146e+01
1.540000e-06	-1.393367e-06	-4.603060e-10	-9.690180e+00	-3.328525e+01
1.550000e-06	-1.348040e-06	-4.508110e-10	-9.374957e+00	-3.268714e+01
1.560000e-06	-1.302599e-06	-4.417348e-10	-9.058937e+00	-3.207687e+01
1.570000e-06	-1.256996e-06	-4.333907e-10	-8.741792e+00	-3.145418e+01
1.580000e-06	-1.211346e-06	-4.245373e-10	-8.424319e+00	-3.081884e+01
1.590000e-06	-1.165635e-06	-4.142732e-10	-8.106417e+00	-3.017059e+01
1.600000e-06	-1.119797e-06	-4.044559e-10	-7.787642e+00	-2.950920e+01
1.610000e-06	-1.073866e-06	-3.931896e-10	-7.468212e+00	-2.883446e+01
1.620000e-06	-1.027857e-06	-3.828201e-10	-7.148243e+00	-2.814616e+01
1.630000e-06	-9.818181e-07	-3.719161e-10	-6.828063e+00	-2.744408e+01
1.640000e-06	-9.357437e-07	-3.607335e-10	-6.507638e+00	-2.672803e+01
1.650000e-06	-8.895511e-07	-3.493973e-10	-6.186391e+00	-2.599784e+01
1.660000e-06	-8.432777e-07	-3.383390e-10	-5.864583e+00	-2.525334e+01
1.670000e-06	-7.970081e-07	-3.242539e-10	-5.542800e+00	-2.449437e+01
1.680000e-06	-7.506057e-07	-3.091466e-10	-5.220094e+00	-2.372079e+01
1.690000e-06	-7.040097e-07	-2.946219e-10	-4.896042e+00	-2.293249e+01
1.700000e-06	-6.574838e-07	-2.816299e-10	-4.572477e+00	-2.212935e+01
1.710000e-06	-6.109969e-07	-2.692052e-10	-4.249183e+00	-2.131128e+01
1.720000e-06	-5.644957e-07	-2.584279e-10	-3.925791e+00	-2.047823e+01
1.730000e-06	-5.179737e-07	-2.468479e-10	-3.602253e+00	-1.963015e+01
1.740000e-06	-4.713819e-07	-2.324062e-10	-3.278230e+00	-1.876701e+01
1.750000e-06	-4.246997e-07	-2.176240e-10	-2.953578e+00	-1.788882e+01
1.760000e-06	-3.779782e-07	-2.044356e-10	-2.628653e+00	-1.699561e+01
1.770000e-06	-3.312670e-07	-1.914395e-10	-2.303800e+00	-1.608744e+01
1.780000e-06	-2.844640e-07	-1.788561e-10	-1.978308e+00	-1.516440e+01
1.790000e-06	-2.376195e-07	-1.682805e-10	-1.652527e+00	-1.422660e+01
1.800000e-06	-1.908241e-07	-1.558886e-10	-1.327088e+00	-1.327420e+01
1.810000e-06	-1.440270e-07	-1.395923e-10	-1.001637e+00	-1.230739e+01
1.820000e-06	-9.713934e-08	-1.235084e-10	-6.755564e-01	-1.132639e+01
1.830000e-06	-5.021415e-08	-1.094251e-10	-3.492148e-01	-1.033146e+01
1.840000e-06	-3.352439e-09	-9.548075e-11	-2.331457e-02	-9.322889e+00
1.850000e-06	4.349585e-08	-8.231070e-11	3.024923e-01	-8.301022e+00
1.860000e-06	9.032938e-08	-6.822236e-11	6.281965e-01	-7.266232e+00
1.870000e-06	1.370981e-07	-5.221271e-11	9.534500e-01	-6.218934e+00
1.880000e-06	1.839190e-07	-3.478110e-11	1.279066e+00	-5.159583e+00
1.890000e-06	2.307187e-07	-1.821718e-11	1.604536e+00	-4.088676e+00
1.900000e-06	2.774172e-07	-3.380891e-12	1.929300e+00	-3.006749e+00
1.910000e-06	3.241269e-07	9.852667e-12	2.254144e+00	-1.914379e+00
1.920000e-06	3.708398e-07	2.403114e-11	2.579009e+00	-8.121826e-01
1.930000e-06	4.174749e-07	3.912618e-11	2.903333e+00	2.991859e-01
1.940000e-06	4.641570e-07	5.438331e-11	3.227984e+00	1.419034e+00
1.950000e-06	5.108526e-07	7.005597e-11	3.552729e+00	2.546634e+00
1.960000e-06	5.574161e-07	8.699602e-11	3.876556e+00	3.681221e+00
1.970000e-06	6.038933e-07	1.049727e-10	4.199781e+00	4.822001e+00
1.980000e-06	6.502820e-07	1.213561e-10	4.522392e+00	5.968148e+00
1.990000e-06	6.965964e-07	1.345176e-10	4.844486e+00	7.118808e+00
2.000000e-06	7.428719e-07	1.492979e-10	5.166309e+00	8.273101e+00
2.010000e-06	7.891732e-07	1.663507e-10	5.488312e+00	9.430124e+00
2.020000e-06	8.354400e-07	1.847624e-10	5.810075e+00	1.058896e+01
2.030000e-06	8.816025e-07	2.047210e-10	6.131113e+00	1.174866e+01
2.040000e-06	9.277413e-07	2.239313e-10	6.451986e+00	1.290829e+01
2.050000e-06	9.738098e-07	2.401802e-10	6.772369e+00	1.406687e+01
2.060000e-06	1.019731e-06	2.545466e-10	7.091727e+00	1.522345e+01
2.070000e-06	1.065571e-06	2.686805e-10	7.410520e+00	1.637706e+01
2.080000e-06	1.111349e-06	2.838110e-10	7.728888e+00	1.752673e+01
2.090000e-06	1.157051e-06	3.012132e-10	8.046719e+00	1.867149e+01
2.100000e-06	1.202730e-06	3.192215e-10	8.364396e+00	1.981041e+01
2.110000e-06	1.248319e-06	3.361074e-10	8.681447e+00	2.094255e+01
2.120000e-06	1.293766e-06	3.516480e-10	8.997505e+00	2.206698e+01
2.130000e-06	1.339177e-06	3.655870e-10	9.313320e+00	2.318281e+01
2.140000e-06	1.384540e-06	3.775256e-10	9.628794e+00	2.428916e+01
2.150000e-06	1.429776e-06	3.896520e-10	9.943387e+00	2.538519e+01
2.160000e-06	1.474914e-06	4.028555e-10	1.025730e+01	2.647009e+01
2.170000e-06	1.520041e-06	4.188202e-10	1.057114e+01	2.754307e+01
2.180000e-06	1.565072e-06	4.370042e-10	1.088431e+01	2.860341e+01
2.190000e-06	1.609803e-06	4.555178e-10	1.119539e+01	2.965040e+01
2.200000e-06	1.654364e-06	4.718151e-10	1.150529e+01	3.068338e+01
2.210000e-06	1.698809e-06	4.851547e-10	1.181438e+01	3.170174e+01
2.220000e-06	1.743142e-06	4.963246e-10	1.212270e+01	3.270492e+01
2.230000e-06	1.787406e-06	5.072715e-10	1.243053e+01	3.369241e+01
2.240000e-06	1.831516e-06	5.194124e-10	1.273729e+01	3.466374e+01
2.250000e-06	1.875517e-06	5.331110e-10	1.304330e+01	3.561850e+01
2.260000e-06	1.919453e-06	5.488443e-10	1.334885e+01	3.655633e+01
2.270000e-06	1.963260e-06	5.639497e-10	1.365351e+01	3.747691e+01
2.280000e-06	2.006943e-06	5.764320e-10	1.395730e+01	3.838000e+01
2.290000e-06	2.050541e-06	5.882744e-10	1.426051e+01	3.926539e+01
2.300000e-06	2.094102e-06	6.001160e-10	1.456345e+01	4.013292e+01
2.310000e-06	2.137649e-06	6.102163e-10	1.486630e+01	4.098249e+01
2.320000e-06	2.181103e-06	6.200192e-10	1.516850e+01	4.181406e+01
2.330000e-06	2.224389e-06	6.325333e-10	1.546953e+01	4.262761e+01
2.340000e-06	2.267514e-06	6.459417e-10	1.576944e+01	4.342319e+01
2.350000e-06	2.310587e-06	6.584091e-10	1.606900e+01	4.420087e+01
2.360000e-06	2.353512e-06	6.701488e-10	1.636752e+01	4.496079e+01
2.370000e-06	2.396109e-06	6.800513e-10	1.666376e+01	4.570310e+01
2.380000e-06	2.438430e-06	6.912969e-10	1.695808e+01	4.642802e+01
2.390000e-06	2.480535e-06	7.023352e-10	1.725090e+01	4.713576e+01
2.400000e-06	2.522276e-06	7.134577e-10	1.754119e+01	4.782660e+01
2.410000e-06	2.563659e-06	7.249779e-10	1.782899e+01	4.850083e+01
2.420000e-06	2.604738e-06	7.350295e-10	1.811467e+01	4.915876e+01
2.430000e-06	2.645496e-06	7.433493e-10	1.839812e+01	4.980074e+01
2.440000e-06	2.686012e-06	7.485022e-10	1.867989e+01	5.042711e+01
2.450000e-06	2.726293e-06	7.535723e-10	1.896003e+01	5.103824e+01
2.460000e-06	2.766369e-06	7.586653e-10	1.923874e+01	5.163451e+01
2.470000e-06	2.806281e-06	7.656631e-10	1.951631e+01	5.221632e+01
2.480000e-06	2.846055e-06	7.747511e-10	1.979292e+01	5.278405e+01
2.490000e-06	2.885676e-06	7.838591e-10	2.006846e+01	5.333810e+01
2.500000e-06	2.925125e-06	7.922444e-10	2.034281e+01	5.387887e+01
2.510000e-06	2.964497e-06	8.001586e-10	2.061662e+01	5.440675e+01
2.520000e-06	3.003771e-06	8.076454e-10	2.088976e+01	5.492213e+01
2.530000e-06	3.042791e-06	8.145833e-10	2.116112e+01	5.542538e+01
2.540000e-06	3.081578e-06	8.215792e-10	2.143087e+01	5.591688e+01
2.550000e-06	3.120202e-06	8.267697e-10	2.169948e+01	5.639697e+01
2.560000e-06	3.158551e-06	8.318317e-10	2.196617e+01	5.686601e+01
2.570000e-06	3.196637e-06	8.391529e-10	2.223104e+01	5.732432e+01
2.580000e-06	3.234549e-06	8.472182e-10	2.249470e+01	5.777221e+01
2.590000e-06	3.272356e-06	8.550316e-10	2.275763e+01	5.820999e+01
2.600000e-06	3.310033e-06	8.615576e-10	2.301965e+01	5.863793e+01
2.610000e-06	3.347395e-06	8.680944e-10	2.327949e+01	5.905629e+01
2.620000e-06	3.384437e-06	8.739074e-10	2.353710e+01	5.946531e+01
2.630000e-06	3.421166e-06	8.799047e-10	2.379253e+01	5.986522e+01
2.640000e-06	3.457560e-06	8.868905e-10	2.404564e+01	6.025622e+01
2.650000e-06	3.493684e-06	8.934472e-10	2.429686e+01	6.063850e+01
2.660000e-06	3.529591e-06	9.004143e-10	2.454657e+01	6.101223e+01
2.670000e-06	3.565335e-06	9.054836e-10	2.479515e+01	6.137757e+01
2.680000e-06	3.600939e-06	9.096956e-10	2.504277e+01	6.173466e+01
2.690000e-06	3.636462e-06	9.124936e-10	2.528981e+01	6.208363e+01
2.700000e-06	3.671870e-06	9.160760e-10	2.553605e+01	6.242457e+01
2.710000e-06	3.707099e-06	9.230782e-10	2.578105e+01	6.275761e+01
2.720000e-06	3.742105e-06	9.306486e-10	2.602450e+01	6.308282e+01
2.730000e-06	3.776862e-06	9.357090e-10	2.626622e+01	6.340029e+01
2.740000e-06	3.811314e-06	9.383385e-10	2.650582e+01	6.371008e+01
2.750000e-06	3.845250e-06	9.403418e-10	2.674183e+01	6.401228e+01
2.760000e-06	3.878685e-06	9.425245e-10	2.697435e+01	6.430693e+01
2.770000e-06	3.911688e-06	9.451396e-10	2.720387e+01	6.459409e+01
2.780000e-06	3.944194e-06	9.480683e-10	2.742993e+01	6.487383e+01
2.790000e-06	3.976311e-06	9.513258e-10	2.765329e+01	6.514619e+01
2.800000e-06	4.008179e-06	9.558711e-10	2.787492e+01	6.541123e+01
2.810000e-06	4.039899e-06	9.615436e-10	2.809551e+01	6.566900e+01
2.820000e-06	4.071459e-06	9.667531e-10	2.831500e+01	6.591957e+01
2.830000e-06	4.102843e-06	9.712243e-10	2.853326e+01	6.616300e+01
2.840000e-06	4.134086e-06	9.746241e-10	2.875054e+01	6.639934e+01
2.850000e-06	4.165083e-06	9.768833e-10	2.896611e+01	6.662868e+01
2.860000e-06	4.195740e-06	9.775485e-10	2.917931e+01	6.685108e+01
2.870000e-06	4.226089e-06	9.782831e-10	2.939038e+01	6.706663e+01
2.880000e-06	4.256137e-06	9.786232e-10	2.959934e+01	6.727542e+01
2.890000e-06	4.285841e-06	9.782974e-10	2.980592e+01	6.747754e+01
2.900000e-06	4.315200e-06	9.799759e-10	3.001010e+01	6.767308e+01
