# Temperatura_=_-0.4
# Concentracion g/m^3_=_1620.0
# C_Vs_to_Am_M_A/Vsm_=_65563218390.804596
# pendiente_HvsI_1/m_=_3716.3
# ordenada_HvsI_A/m_=_1297.0
# frecuencia_Hz_=_135089.62062368833

Tiempo_(s)	Campo_(V.s)	Magnetizacion_(V.s)	Campo_(kA/m)	Magnetizacion_(A/m)
0.000000e+00	-5.542206e-06	-1.555990e-09	-3.837890e+01	-1.007375e+02
1.000000e-08	-5.542559e-06	-1.554774e-09	-3.838134e+01	-1.006981e+02
2.000000e-08	-5.542550e-06	-1.554425e-09	-3.838128e+01	-1.006593e+02
3.000000e-08	-5.542047e-06	-1.553990e-09	-3.837780e+01	-1.006214e+02
4.000000e-08	-5.540996e-06	-1.553971e-09	-3.837052e+01	-1.005846e+02
5.000000e-08	-5.539315e-06	-1.553117e-09	-3.835888e+01	-1.005490e+02
6.000000e-08	-5.537043e-06	-1.546166e-09	-3.834314e+01	-1.005147e+02
7.000000e-08	-5.534146e-06	-1.538768e-09	-3.832309e+01	-1.004820e+02
8.000000e-08	-5.530801e-06	-1.566229e-09	-3.829992e+01	-1.004507e+02
9.000000e-08	-5.527132e-06	-1.614623e-09	-3.827451e+01	-1.004211e+02
1.000000e-07	-5.523069e-06	-1.590045e-09	-3.824638e+01	-1.003931e+02
1.100000e-07	-5.518600e-06	-1.537811e-09	-3.821543e+01	-1.003668e+02
1.200000e-07	-5.513945e-06	-1.521217e-09	-3.818320e+01	-1.003420e+02
1.300000e-07	-5.509146e-06	-1.567250e-09	-3.814996e+01	-1.003188e+02
1.400000e-07	-5.503879e-06	-1.571921e-09	-3.811349e+01	-1.002970e+02
1.500000e-07	-5.498148e-06	-1.526218e-09	-3.807380e+01	-1.002765e+02
1.600000e-07	-5.492165e-06	-1.546203e-09	-3.803237e+01	-1.002572e+02
1.700000e-07	-5.485852e-06	-1.588477e-09	-3.798866e+01	-1.002388e+02
1.800000e-07	-5.478961e-06	-1.579468e-09	-3.794093e+01	-1.002210e+02
1.900000e-07	-5.471656e-06	-1.518651e-09	-3.789035e+01	-1.002038e+02
2.000000e-07	-5.464163e-06	-1.500055e-09	-3.783846e+01	-1.001868e+02
2.100000e-07	-5.456374e-06	-1.518455e-09	-3.778453e+01	-1.001697e+02
2.200000e-07	-5.448257e-06	-1.532292e-09	-3.772832e+01	-1.001521e+02
2.300000e-07	-5.439914e-06	-1.514580e-09	-3.767054e+01	-1.001338e+02
2.400000e-07	-5.431191e-06	-1.514196e-09	-3.761014e+01	-1.001144e+02
2.500000e-07	-5.421753e-06	-1.509509e-09	-3.754478e+01	-1.000934e+02
2.600000e-07	-5.411500e-06	-1.509898e-09	-3.747378e+01	-1.000706e+02
2.700000e-07	-5.400661e-06	-1.512475e-09	-3.739872e+01	-1.000456e+02
2.800000e-07	-5.389437e-06	-1.511830e-09	-3.732100e+01	-1.000179e+02
2.900000e-07	-5.377819e-06	-1.504378e-09	-3.724054e+01	-9.998710e+01
3.000000e-07	-5.365810e-06	-1.517008e-09	-3.715739e+01	-9.995286e+01
3.100000e-07	-5.353414e-06	-1.531566e-09	-3.707154e+01	-9.991476e+01
3.200000e-07	-5.340611e-06	-1.513129e-09	-3.698289e+01	-9.987240e+01
3.300000e-07	-5.327429e-06	-1.502336e-09	-3.689160e+01	-9.982540e+01
3.400000e-07	-5.313865e-06	-1.516589e-09	-3.679767e+01	-9.977339e+01
3.500000e-07	-5.299859e-06	-1.511432e-09	-3.670069e+01	-9.971600e+01
3.600000e-07	-5.285264e-06	-1.495115e-09	-3.659962e+01	-9.965290e+01
3.700000e-07	-5.270176e-06	-1.506064e-09	-3.649514e+01	-9.958376e+01
3.800000e-07	-5.254696e-06	-1.501796e-09	-3.638794e+01	-9.950829e+01
3.900000e-07	-5.238679e-06	-1.482811e-09	-3.627702e+01	-9.942621e+01
4.000000e-07	-5.222256e-06	-1.489943e-09	-3.616330e+01	-9.933725e+01
4.100000e-07	-5.205543e-06	-1.501498e-09	-3.604756e+01	-9.924121e+01
4.200000e-07	-5.188486e-06	-1.470160e-09	-3.592944e+01	-9.913788e+01
4.300000e-07	-5.171100e-06	-1.475585e-09	-3.580905e+01	-9.902710e+01
4.400000e-07	-5.153389e-06	-1.499993e-09	-3.568640e+01	-9.890873e+01
4.500000e-07	-5.135233e-06	-1.478959e-09	-3.556068e+01	-9.878267e+01
4.600000e-07	-5.116589e-06	-1.453435e-09	-3.543157e+01	-9.864884e+01
4.700000e-07	-5.097538e-06	-1.480141e-09	-3.529964e+01	-9.850719e+01
4.800000e-07	-5.078245e-06	-1.473467e-09	-3.516604e+01	-9.835773e+01
4.900000e-07	-5.058739e-06	-1.445990e-09	-3.503096e+01	-9.820047e+01
5.000000e-07	-5.039007e-06	-1.466743e-09	-3.489432e+01	-9.803545e+01
5.100000e-07	-5.019078e-06	-1.478014e-09	-3.475632e+01	-9.786275e+01
5.200000e-07	-4.998835e-06	-1.436145e-09	-3.461614e+01	-9.768247e+01
5.300000e-07	-4.978190e-06	-1.442364e-09	-3.447318e+01	-9.749475e+01
5.400000e-07	-4.957222e-06	-1.472383e-09	-3.432798e+01	-9.729973e+01
5.500000e-07	-4.935894e-06	-1.444964e-09	-3.418028e+01	-9.709760e+01
5.600000e-07	-4.914188e-06	-1.430588e-09	-3.402997e+01	-9.688853e+01
5.700000e-07	-4.892230e-06	-1.462182e-09	-3.387792e+01	-9.667274e+01
5.800000e-07	-4.869959e-06	-1.446540e-09	-3.372369e+01	-9.645045e+01
5.900000e-07	-4.847260e-06	-1.413705e-09	-3.356650e+01	-9.622190e+01
6.000000e-07	-4.824219e-06	-1.437592e-09	-3.340695e+01	-9.598733e+01
6.100000e-07	-4.800887e-06	-1.447644e-09	-3.324538e+01	-9.574698e+01
6.200000e-07	-4.777289e-06	-1.422572e-09	-3.308197e+01	-9.550111e+01
6.300000e-07	-4.753474e-06	-1.432188e-09	-3.291706e+01	-9.524996e+01
6.400000e-07	-4.729397e-06	-1.446542e-09	-3.275033e+01	-9.499380e+01
6.500000e-07	-4.704966e-06	-1.417318e-09	-3.258114e+01	-9.473285e+01
6.600000e-07	-4.680142e-06	-1.410927e-09	-3.240924e+01	-9.446736e+01
6.700000e-07	-4.654793e-06	-1.427284e-09	-3.223371e+01	-9.419754e+01
6.800000e-07	-4.628801e-06	-1.409402e-09	-3.205371e+01	-9.392361e+01
6.900000e-07	-4.602145e-06	-1.387720e-09	-3.186912e+01	-9.364576e+01
7.000000e-07	-4.575050e-06	-1.401533e-09	-3.168150e+01	-9.336417e+01
7.100000e-07	-4.547747e-06	-1.397136e-09	-3.149243e+01	-9.307899e+01
7.200000e-07	-4.520217e-06	-1.377027e-09	-3.130179e+01	-9.279036e+01
7.300000e-07	-4.492544e-06	-1.380502e-09	-3.111015e+01	-9.249839e+01
7.400000e-07	-4.464671e-06	-1.385202e-09	-3.091714e+01	-9.220317e+01
7.500000e-07	-4.436518e-06	-1.365229e-09	-3.072218e+01	-9.190476e+01
7.600000e-07	-4.408061e-06	-1.361759e-09	-3.052512e+01	-9.160321e+01
7.700000e-07	-4.379230e-06	-1.363692e-09	-3.032547e+01	-9.129851e+01
7.800000e-07	-4.350021e-06	-1.346840e-09	-3.012320e+01	-9.099067e+01
7.900000e-07	-4.320581e-06	-1.335412e-09	-2.991934e+01	-9.067963e+01
8.000000e-07	-4.290939e-06	-1.340107e-09	-2.971407e+01	-9.036534e+01
8.100000e-07	-4.261011e-06	-1.327395e-09	-2.950683e+01	-9.004770e+01
8.200000e-07	-4.230771e-06	-1.308929e-09	-2.929742e+01	-8.972661e+01
8.300000e-07	-4.200179e-06	-1.307486e-09	-2.908558e+01	-8.940191e+01
8.400000e-07	-4.169286e-06	-1.302961e-09	-2.887164e+01	-8.907347e+01
8.500000e-07	-4.138159e-06	-1.289254e-09	-2.865610e+01	-8.874111e+01
8.600000e-07	-4.106879e-06	-1.290095e-09	-2.843948e+01	-8.840462e+01
8.700000e-07	-4.075421e-06	-1.293303e-09	-2.822165e+01	-8.806382e+01
8.800000e-07	-4.043767e-06	-1.282569e-09	-2.800245e+01	-8.771847e+01
8.900000e-07	-4.011959e-06	-1.274744e-09	-2.778218e+01	-8.736835e+01
9.000000e-07	-3.979955e-06	-1.269334e-09	-2.756056e+01	-8.701323e+01
9.100000e-07	-3.947500e-06	-1.254708e-09	-2.733582e+01	-8.665286e+01
9.200000e-07	-3.914480e-06	-1.243065e-09	-2.710716e+01	-8.628700e+01
9.300000e-07	-3.881074e-06	-1.243696e-09	-2.687582e+01	-8.591542e+01
9.400000e-07	-3.847253e-06	-1.240436e-09	-2.664162e+01	-8.553786e+01
9.500000e-07	-3.812917e-06	-1.232500e-09	-2.640384e+01	-8.515411e+01
9.600000e-07	-3.778157e-06	-1.228398e-09	-2.616314e+01	-8.476394e+01
9.700000e-07	-3.743102e-06	-1.220519e-09	-2.592039e+01	-8.436713e+01
9.800000e-07	-3.707831e-06	-1.202909e-09	-2.567614e+01	-8.396350e+01
9.900000e-07	-3.672367e-06	-1.194466e-09	-2.543056e+01	-8.355286e+01
1.000000e-06	-3.636755e-06	-1.191416e-09	-2.518395e+01	-8.313505e+01
1.010000e-06	-3.601079e-06	-1.184296e-09	-2.493690e+01	-8.270993e+01
1.020000e-06	-3.565256e-06	-1.176498e-09	-2.468883e+01	-8.227738e+01
1.030000e-06	-3.529112e-06	-1.174444e-09	-2.443854e+01	-8.183731e+01
1.040000e-06	-3.492662e-06	-1.166614e-09	-2.418613e+01	-8.138964e+01
1.050000e-06	-3.456042e-06	-1.158417e-09	-2.393255e+01	-8.093433e+01
1.060000e-06	-3.419215e-06	-1.155356e-09	-2.367753e+01	-8.047136e+01
1.070000e-06	-3.382059e-06	-1.150664e-09	-2.342022e+01	-8.000074e+01
1.080000e-06	-3.344601e-06	-1.138185e-09	-2.316083e+01	-7.952250e+01
1.090000e-06	-3.306851e-06	-1.128902e-09	-2.289942e+01	-7.903670e+01
1.100000e-06	-3.268879e-06	-1.121938e-09	-2.263647e+01	-7.854344e+01
1.110000e-06	-3.230755e-06	-1.109038e-09	-2.237247e+01	-7.804281e+01
1.120000e-06	-3.192442e-06	-1.098318e-09	-2.210715e+01	-7.753496e+01
1.130000e-06	-3.153910e-06	-1.094304e-09	-2.184033e+01	-7.702004e+01
1.140000e-06	-3.115060e-06	-1.089501e-09	-2.157130e+01	-7.649822e+01
1.150000e-06	-3.075966e-06	-1.081083e-09	-2.130058e+01	-7.596971e+01
1.160000e-06	-3.036712e-06	-1.074633e-09	-2.102875e+01	-7.543470e+01
1.170000e-06	-2.997341e-06	-1.067195e-09	-2.075611e+01	-7.489343e+01
1.180000e-06	-2.957907e-06	-1.055172e-09	-2.048304e+01	-7.434612e+01
1.190000e-06	-2.918333e-06	-1.044629e-09	-2.020899e+01	-7.379302e+01
1.200000e-06	-2.878544e-06	-1.036548e-09	-1.993346e+01	-7.323436e+01
1.210000e-06	-2.838554e-06	-1.027698e-09	-1.965654e+01	-7.267039e+01
1.220000e-06	-2.798470e-06	-1.020767e-09	-1.937896e+01	-7.210135e+01
1.230000e-06	-2.758266e-06	-1.015557e-09	-1.910055e+01	-7.152747e+01
1.240000e-06	-2.717861e-06	-1.008098e-09	-1.882076e+01	-7.094897e+01
1.250000e-06	-2.677080e-06	-9.965760e-10	-1.853836e+01	-7.036606e+01
1.260000e-06	-2.635983e-06	-9.878615e-10	-1.825376e+01	-6.977893e+01
1.270000e-06	-2.594795e-06	-9.749332e-10	-1.796855e+01	-6.918775e+01
1.280000e-06	-2.553168e-06	-9.607906e-10	-1.768029e+01	-6.859267e+01
1.290000e-06	-2.511147e-06	-9.510088e-10	-1.738929e+01	-6.799379e+01
1.300000e-06	-2.468842e-06	-9.431811e-10	-1.709634e+01	-6.739120e+01
1.310000e-06	-2.426245e-06	-9.324414e-10	-1.680136e+01	-6.678495e+01
1.320000e-06	-2.383467e-06	-9.213069e-10	-1.650513e+01	-6.617506e+01
1.330000e-06	-2.340402e-06	-9.122038e-10	-1.620691e+01	-6.556150e+01
1.340000e-06	-2.297191e-06	-9.024584e-10	-1.590768e+01	-6.494419e+01
1.350000e-06	-2.253850e-06	-8.920308e-10	-1.560755e+01	-6.432302e+01
1.360000e-06	-2.210362e-06	-8.815045e-10	-1.530641e+01	-6.369784e+01
1.370000e-06	-2.166781e-06	-8.722299e-10	-1.500461e+01	-6.306844e+01
1.380000e-06	-2.123136e-06	-8.627641e-10	-1.470238e+01	-6.243456e+01
1.390000e-06	-2.079435e-06	-8.512862e-10	-1.439976e+01	-6.179590e+01
1.400000e-06	-2.035599e-06	-8.392265e-10	-1.409620e+01	-6.115210e+01
1.410000e-06	-1.991675e-06	-8.276219e-10	-1.379203e+01	-6.050277e+01
1.420000e-06	-1.947677e-06	-8.168339e-10	-1.348735e+01	-5.984745e+01
1.430000e-06	-1.903566e-06	-8.070447e-10	-1.318189e+01	-5.918565e+01
1.440000e-06	-1.859303e-06	-7.980418e-10	-1.287538e+01	-5.851683e+01
1.450000e-06	-1.814912e-06	-7.895340e-10	-1.256798e+01	-5.784040e+01
1.460000e-06	-1.770384e-06	-7.792172e-10	-1.225963e+01	-5.715572e+01
1.470000e-06	-1.725689e-06	-7.670570e-10	-1.195012e+01	-5.646214e+01
1.480000e-06	-1.680810e-06	-7.549657e-10	-1.163934e+01	-5.575894e+01
1.490000e-06	-1.635799e-06	-7.447733e-10	-1.132765e+01	-5.504540e+01
1.500000e-06	-1.590777e-06	-7.349749e-10	-1.101588e+01	-5.432074e+01
1.510000e-06	-1.545710e-06	-7.259782e-10	-1.070380e+01	-5.358417e+01
1.520000e-06	-1.500453e-06	-7.149295e-10	-1.039040e+01	-5.283487e+01
1.530000e-06	-1.455120e-06	-7.030282e-10	-1.007648e+01	-5.207203e+01
1.540000e-06	-1.409679e-06	-6.919001e-10	-9.761805e+00	-5.129478e+01
1.550000e-06	-1.364046e-06	-6.810902e-10	-9.445801e+00	-5.050229e+01
1.560000e-06	-1.318397e-06	-6.721152e-10	-9.129689e+00	-4.969370e+01
1.570000e-06	-1.272638e-06	-6.629020e-10	-8.812818e+00	-4.886816e+01
1.580000e-06	-1.226769e-06	-6.517941e-10	-8.495179e+00	-4.802483e+01
1.590000e-06	-1.180845e-06	-6.347032e-10	-8.177164e+00	-4.716288e+01
1.600000e-06	-1.134870e-06	-6.157169e-10	-7.858794e+00	-4.628150e+01
1.610000e-06	-1.088811e-06	-5.980145e-10	-7.539844e+00	-4.537992e+01
1.620000e-06	-1.042611e-06	-5.809953e-10	-7.219918e+00	-4.445737e+01
1.630000e-06	-9.963448e-07	-5.675863e-10	-6.899530e+00	-4.351313e+01
1.640000e-06	-9.500322e-07	-5.562038e-10	-6.578822e+00	-4.254653e+01
1.650000e-06	-9.036161e-07	-5.460609e-10	-6.257398e+00	-4.155693e+01
1.660000e-06	-8.570559e-07	-5.310924e-10	-5.934976e+00	-4.054375e+01
1.670000e-06	-8.104635e-07	-5.144105e-10	-5.612331e+00	-3.950645e+01
1.680000e-06	-7.638797e-07	-4.964213e-10	-5.289746e+00	-3.844458e+01
1.690000e-06	-7.172679e-07	-4.786692e-10	-4.966967e+00	-3.735771e+01
1.700000e-06	-6.705746e-07	-4.623277e-10	-4.643623e+00	-3.624550e+01
1.710000e-06	-6.238086e-07	-4.447591e-10	-4.319776e+00	-3.510770e+01
1.720000e-06	-5.770500e-07	-4.261811e-10	-3.995980e+00	-3.394409e+01
1.730000e-06	-5.302331e-07	-4.079720e-10	-3.671780e+00	-3.275455e+01
1.740000e-06	-4.834090e-07	-3.891092e-10	-3.347531e+00	-3.153904e+01
1.750000e-06	-4.365888e-07	-3.695912e-10	-3.023308e+00	-3.029760e+01
1.760000e-06	-3.897182e-07	-3.534021e-10	-2.698737e+00	-2.903033e+01
1.770000e-06	-3.427731e-07	-3.378742e-10	-2.373649e+00	-2.773744e+01
1.780000e-06	-2.957705e-07	-3.202255e-10	-2.048164e+00	-2.641921e+01
1.790000e-06	-2.486672e-07	-3.017561e-10	-1.721981e+00	-2.507601e+01
1.800000e-06	-2.015419e-07	-2.831202e-10	-1.395646e+00	-2.370828e+01
1.810000e-06	-1.544935e-07	-2.607833e-10	-1.069843e+00	-2.231654e+01
1.820000e-06	-1.074822e-07	-2.381910e-10	-7.442974e-01	-2.090142e+01
1.830000e-06	-6.041109e-08	-2.174538e-10	-4.183372e-01	-1.946359e+01
1.840000e-06	-1.329599e-08	-1.993098e-10	-9.207259e-02	-1.800383e+01
1.850000e-06	3.377317e-08	-1.827426e-10	2.338738e-01	-1.652298e+01
1.860000e-06	8.079724e-08	-1.669333e-10	5.595081e-01	-1.502194e+01
1.870000e-06	1.277355e-07	-1.460498e-10	8.845478e-01	-1.350171e+01
1.880000e-06	1.747696e-07	-1.221883e-10	1.210252e+00	-1.196332e+01
1.890000e-06	2.218771e-07	-9.907559e-11	1.536464e+00	-1.040789e+01
1.900000e-06	2.688978e-07	-7.811474e-11	1.862075e+00	-8.836589e+00
1.910000e-06	3.159778e-07	-5.888177e-11	2.188096e+00	-7.250627e+00
1.920000e-06	3.630433e-07	-4.080046e-11	2.514017e+00	-5.651274e+00
1.930000e-06	4.099494e-07	-1.921844e-11	2.838834e+00	-4.039844e+00
1.940000e-06	4.567925e-07	7.183819e-12	3.163216e+00	-2.417683e+00
1.950000e-06	5.035989e-07	3.087574e-11	3.487343e+00	-7.861765e-01
1.960000e-06	5.503714e-07	5.372965e-11	3.811235e+00	8.532666e-01
1.970000e-06	5.971984e-07	7.184407e-11	4.135504e+00	2.499213e+00
1.980000e-06	6.439212e-07	8.906877e-11	4.459052e+00	4.150213e+00
1.990000e-06	6.904869e-07	1.064295e-10	4.781512e+00	5.804806e+00
2.000000e-06	7.370951e-07	1.284382e-10	5.104267e+00	7.461525e+00
2.010000e-06	7.836047e-07	1.559617e-10	5.426338e+00	9.118902e+00
2.020000e-06	8.300322e-07	1.825766e-10	5.747841e+00	1.077548e+01
2.030000e-06	8.764017e-07	2.100582e-10	6.068943e+00	1.242980e+01
2.040000e-06	9.227468e-07	2.335368e-10	6.389876e+00	1.408043e+01
2.050000e-06	9.691098e-07	2.509386e-10	6.710932e+00	1.572595e+01
2.060000e-06	1.015354e-06	2.707402e-10	7.031165e+00	1.736498e+01
2.070000e-06	1.061478e-06	2.929050e-10	7.350566e+00	1.899616e+01
2.080000e-06	1.107436e-06	3.170581e-10	7.668818e+00	2.061817e+01
2.090000e-06	1.153294e-06	3.402036e-10	7.986378e+00	2.222972e+01
2.100000e-06	1.199128e-06	3.651112e-10	8.303770e+00	2.382956e+01
2.110000e-06	1.244942e-06	3.903303e-10	8.621025e+00	2.541652e+01
2.120000e-06	1.290631e-06	4.110081e-10	8.937414e+00	2.698945e+01
2.130000e-06	1.336172e-06	4.309998e-10	9.252780e+00	2.854725e+01
2.140000e-06	1.381655e-06	4.515928e-10	9.567740e+00	3.008891e+01
2.150000e-06	1.427095e-06	4.731568e-10	9.882406e+00	3.161343e+01
2.160000e-06	1.472438e-06	4.919659e-10	1.019640e+01	3.311992e+01
2.170000e-06	1.517730e-06	5.105356e-10	1.051004e+01	3.460753e+01
2.180000e-06	1.562912e-06	5.284854e-10	1.082292e+01	3.607547e+01
2.190000e-06	1.607882e-06	5.487715e-10	1.113433e+01	3.752303e+01
2.200000e-06	1.652696e-06	5.718495e-10	1.144466e+01	3.894955e+01
2.210000e-06	1.697441e-06	5.937851e-10	1.175451e+01	4.035445e+01
2.220000e-06	1.742077e-06	6.144188e-10	1.206361e+01	4.173722e+01
2.230000e-06	1.786524e-06	6.337549e-10	1.237139e+01	4.309740e+01
2.240000e-06	1.830892e-06	6.503823e-10	1.267864e+01	4.443462e+01
2.250000e-06	1.875091e-06	6.660671e-10	1.298471e+01	4.574855e+01
2.260000e-06	1.919077e-06	6.833969e-10	1.328930e+01	4.703894e+01
2.270000e-06	1.963007e-06	7.039667e-10	1.359351e+01	4.830561e+01
2.280000e-06	2.006874e-06	7.250006e-10	1.389728e+01	4.954842e+01
2.290000e-06	2.050598e-06	7.459155e-10	1.420006e+01	5.076731e+01
2.300000e-06	2.094287e-06	7.629384e-10	1.450261e+01	5.196226e+01
2.310000e-06	2.137978e-06	7.765785e-10	1.480516e+01	5.313331e+01
2.320000e-06	2.181582e-06	7.901731e-10	1.510711e+01	5.428057e+01
2.330000e-06	2.225101e-06	8.044202e-10	1.540847e+01	5.540417e+01
2.340000e-06	2.268519e-06	8.200470e-10	1.570913e+01	5.650431e+01
2.350000e-06	2.311780e-06	8.364075e-10	1.600871e+01	5.758122e+01
2.360000e-06	2.354916e-06	8.535953e-10	1.630742e+01	5.863517e+01
2.370000e-06	2.397898e-06	8.669814e-10	1.660506e+01	5.966647e+01
2.380000e-06	2.440581e-06	8.760399e-10	1.690064e+01	6.067548e+01
2.390000e-06	2.482918e-06	8.894001e-10	1.719381e+01	6.166256e+01
2.400000e-06	2.524972e-06	9.042754e-10	1.748503e+01	6.262812e+01
2.410000e-06	2.566710e-06	9.210527e-10	1.777406e+01	6.357258e+01
2.420000e-06	2.608068e-06	9.338006e-10	1.806046e+01	6.449638e+01
2.430000e-06	2.649136e-06	9.431246e-10	1.834485e+01	6.539998e+01
2.440000e-06	2.689915e-06	9.509134e-10	1.862724e+01	6.628387e+01
2.450000e-06	2.730420e-06	9.593400e-10	1.890772e+01	6.714851e+01
2.460000e-06	2.770718e-06	9.712655e-10	1.918678e+01	6.799441e+01
2.470000e-06	2.810783e-06	9.867570e-10	1.946423e+01	6.882205e+01
2.480000e-06	2.850639e-06	1.005537e-09	1.974022e+01	6.963193e+01
2.490000e-06	2.890347e-06	1.017919e-09	2.001519e+01	7.042454e+01
2.500000e-06	2.929988e-06	1.026775e-09	2.028970e+01	7.120037e+01
2.510000e-06	2.969527e-06	1.032990e-09	2.056350e+01	7.195990e+01
2.520000e-06	3.008895e-06	1.038605e-09	2.083612e+01	7.270360e+01
2.530000e-06	3.048142e-06	1.046311e-09	2.110790e+01	7.343193e+01
2.540000e-06	3.087261e-06	1.060937e-09	2.137879e+01	7.414533e+01
2.550000e-06	3.126211e-06	1.078112e-09	2.164852e+01	7.484425e+01
2.560000e-06	3.164859e-06	1.091720e-09	2.191615e+01	7.552908e+01
2.570000e-06	3.203121e-06	1.101314e-09	2.218110e+01	7.620024e+01
2.580000e-06	3.241137e-06	1.107825e-09	2.244436e+01	7.685810e+01
2.590000e-06	3.279006e-06	1.114132e-09	2.270660e+01	7.750301e+01
2.600000e-06	3.316682e-06	1.122120e-09	2.296750e+01	7.813532e+01
2.610000e-06	3.354150e-06	1.128686e-09	2.322696e+01	7.875535e+01
2.620000e-06	3.391394e-06	1.139202e-09	2.348487e+01	7.936339e+01
2.630000e-06	3.428359e-06	1.152363e-09	2.374084e+01	7.995972e+01
2.640000e-06	3.465007e-06	1.164566e-09	2.399463e+01	8.054460e+01
2.650000e-06	3.501437e-06	1.175771e-09	2.424689e+01	8.111826e+01
2.660000e-06	3.537720e-06	1.185338e-09	2.449815e+01	8.168093e+01
2.670000e-06	3.573712e-06	1.189162e-09	2.474739e+01	8.223279e+01
2.680000e-06	3.609482e-06	1.189369e-09	2.499509e+01	8.277404e+01
2.690000e-06	3.645161e-06	1.189521e-09	2.524216e+01	8.330483e+01
2.700000e-06	3.680695e-06	1.193667e-09	2.548823e+01	8.382532e+01
2.710000e-06	3.716084e-06	1.204222e-09	2.573330e+01	8.433563e+01
2.720000e-06	3.751367e-06	1.219486e-09	2.597762e+01	8.483589e+01
2.730000e-06	3.786390e-06	1.231926e-09	2.622015e+01	8.532621e+01
2.740000e-06	3.820996e-06	1.238553e-09	2.645979e+01	8.580668e+01
2.750000e-06	3.855212e-06	1.242016e-09	2.669673e+01	8.627739e+01
2.760000e-06	3.888897e-06	1.243317e-09	2.693000e+01	8.673843e+01
2.770000e-06	3.922032e-06	1.247166e-09	2.715945e+01	8.718986e+01
2.780000e-06	3.954760e-06	1.252064e-09	2.738608e+01	8.763177e+01
2.790000e-06	3.987086e-06	1.262106e-09	2.760994e+01	8.806422e+01
2.800000e-06	4.019096e-06	1.273916e-09	2.783160e+01	8.848727e+01
2.810000e-06	4.050934e-06	1.283452e-09	2.805208e+01	8.890100e+01
2.820000e-06	4.082610e-06	1.290583e-09	2.827143e+01	8.930547e+01
2.830000e-06	4.114111e-06	1.296507e-09	2.848957e+01	8.970075e+01
2.840000e-06	4.145517e-06	1.299839e-09	2.870705e+01	9.008692e+01
2.850000e-06	4.176730e-06	1.300330e-09	2.892319e+01	9.046405e+01
2.860000e-06	4.207524e-06	1.301879e-09	2.913643e+01	9.083224e+01
2.870000e-06	4.237937e-06	1.306354e-09	2.934704e+01	9.119156e+01
2.880000e-06	4.268090e-06	1.310126e-09	2.955585e+01	9.154213e+01
2.890000e-06	4.297934e-06	1.313867e-09	2.976252e+01	9.188404e+01
2.900000e-06	4.327509e-06	1.320210e-09	2.996731e+01	9.221741e+01
