# Temperatura_=_-0.4
# Concentracion g/m^3_=_1620.0
# C_Vs_to_Am_M_A/Vsm_=_65563218390.804596
# pendiente_HvsI_1/m_=_3716.3
# ordenada_HvsI_A/m_=_1297.0
# frecuencia_Hz_=_135092.63165370224

Tiempo_(s)	Campo_(V.s)	Magnetizacion_(V.s)	Campo_(kA/m)	Magnetizacion_(A/m)
0.000000e+00	-5.528335e-06	-1.518383e-09	-3.837989e+01	-9.826027e+01
1.000000e-08	-5.528554e-06	-1.515956e-09	-3.838141e+01	-9.824557e+01
2.000000e-08	-5.528483e-06	-1.515116e-09	-3.838092e+01	-9.822540e+01
3.000000e-08	-5.528031e-06	-1.515637e-09	-3.837778e+01	-9.819965e+01
4.000000e-08	-5.527055e-06	-1.516018e-09	-3.837101e+01	-9.816824e+01
5.000000e-08	-5.525510e-06	-1.514905e-09	-3.836028e+01	-9.813111e+01
6.000000e-08	-5.523374e-06	-1.510505e-09	-3.834545e+01	-9.808822e+01
7.000000e-08	-5.520683e-06	-1.521517e-09	-3.832677e+01	-9.803955e+01
8.000000e-08	-5.517578e-06	-1.554095e-09	-3.830521e+01	-9.798512e+01
9.000000e-08	-5.514025e-06	-1.545796e-09	-3.828054e+01	-9.792496e+01
1.000000e-07	-5.509943e-06	-1.487534e-09	-3.825220e+01	-9.785911e+01
1.100000e-07	-5.505502e-06	-1.475411e-09	-3.822138e+01	-9.778767e+01
1.200000e-07	-5.500893e-06	-1.530486e-09	-3.818938e+01	-9.771072e+01
1.300000e-07	-5.495978e-06	-1.540996e-09	-3.815525e+01	-9.762839e+01
1.400000e-07	-5.490653e-06	-1.471822e-09	-3.811829e+01	-9.754081e+01
1.500000e-07	-5.484972e-06	-1.457701e-09	-3.807885e+01	-9.744815e+01
1.600000e-07	-5.479043e-06	-1.527442e-09	-3.803768e+01	-9.735058e+01
1.700000e-07	-5.472608e-06	-1.547155e-09	-3.799301e+01	-9.724829e+01
1.800000e-07	-5.465677e-06	-1.513940e-09	-3.794489e+01	-9.714148e+01
1.900000e-07	-5.458454e-06	-1.471584e-09	-3.789475e+01	-9.703038e+01
2.000000e-07	-5.450977e-06	-1.498956e-09	-3.784284e+01	-9.691520e+01
2.100000e-07	-5.443307e-06	-1.482584e-09	-3.778959e+01	-9.679617e+01
2.200000e-07	-5.435368e-06	-1.464021e-09	-3.773448e+01	-9.667355e+01
2.300000e-07	-5.426995e-06	-1.428340e-09	-3.767635e+01	-9.654756e+01
2.400000e-07	-5.418085e-06	-1.442142e-09	-3.761449e+01	-9.641846e+01
2.500000e-07	-5.408628e-06	-1.438490e-09	-3.754884e+01	-9.628648e+01
2.600000e-07	-5.398466e-06	-1.423411e-09	-3.747829e+01	-9.615186e+01
2.700000e-07	-5.387580e-06	-1.405250e-09	-3.740272e+01	-9.601484e+01
2.800000e-07	-5.376299e-06	-1.407822e-09	-3.732440e+01	-9.587565e+01
2.900000e-07	-5.364827e-06	-1.403657e-09	-3.724476e+01	-9.573450e+01
3.000000e-07	-5.352974e-06	-1.387709e-09	-3.716246e+01	-9.559160e+01
3.100000e-07	-5.340663e-06	-1.379248e-09	-3.707700e+01	-9.544715e+01
3.200000e-07	-5.327876e-06	-1.378463e-09	-3.698822e+01	-9.530132e+01
3.300000e-07	-5.314633e-06	-1.400929e-09	-3.689629e+01	-9.515427e+01
3.400000e-07	-5.301037e-06	-1.379358e-09	-3.680190e+01	-9.500617e+01
3.500000e-07	-5.286939e-06	-1.379377e-09	-3.670403e+01	-9.485713e+01
3.600000e-07	-5.272322e-06	-1.384188e-09	-3.660255e+01	-9.470726e+01
3.700000e-07	-5.257333e-06	-1.390347e-09	-3.649849e+01	-9.455666e+01
3.800000e-07	-5.241840e-06	-1.356236e-09	-3.639093e+01	-9.440541e+01
3.900000e-07	-5.225714e-06	-1.383825e-09	-3.627898e+01	-9.425354e+01
4.000000e-07	-5.209133e-06	-1.396475e-09	-3.616386e+01	-9.410109e+01
4.100000e-07	-5.192360e-06	-1.367577e-09	-3.604742e+01	-9.394807e+01
4.200000e-07	-5.175311e-06	-1.355760e-09	-3.592906e+01	-9.379447e+01
4.300000e-07	-5.157940e-06	-1.406932e-09	-3.580846e+01	-9.364026e+01
4.400000e-07	-5.140249e-06	-1.387630e-09	-3.568564e+01	-9.348539e+01
4.500000e-07	-5.122051e-06	-1.350508e-09	-3.555931e+01	-9.332978e+01
4.600000e-07	-5.103326e-06	-1.378323e-09	-3.542931e+01	-9.317336e+01
4.700000e-07	-5.084170e-06	-1.403177e-09	-3.529632e+01	-9.301602e+01
4.800000e-07	-5.064800e-06	-1.353803e-09	-3.516184e+01	-9.285765e+01
4.900000e-07	-5.045281e-06	-1.364652e-09	-3.502634e+01	-9.269810e+01
5.000000e-07	-5.025606e-06	-1.396074e-09	-3.488975e+01	-9.253725e+01
5.100000e-07	-5.005725e-06	-1.359245e-09	-3.475172e+01	-9.237492e+01
5.200000e-07	-4.985461e-06	-1.337761e-09	-3.461105e+01	-9.221095e+01
5.300000e-07	-4.964740e-06	-1.383287e-09	-3.446719e+01	-9.204517e+01
5.400000e-07	-4.943666e-06	-1.365091e-09	-3.432089e+01	-9.187739e+01
5.500000e-07	-4.922257e-06	-1.323080e-09	-3.417226e+01	-9.170743e+01
5.600000e-07	-4.900512e-06	-1.356422e-09	-3.402130e+01	-9.153510e+01
5.700000e-07	-4.878481e-06	-1.371084e-09	-3.386835e+01	-9.136020e+01
5.800000e-07	-4.856130e-06	-1.331897e-09	-3.371318e+01	-9.118254e+01
5.900000e-07	-4.833378e-06	-1.341183e-09	-3.355523e+01	-9.100192e+01
6.000000e-07	-4.810235e-06	-1.366081e-09	-3.339456e+01	-9.081816e+01
6.100000e-07	-4.786880e-06	-1.331559e-09	-3.323242e+01	-9.063106e+01
6.200000e-07	-4.763370e-06	-1.321054e-09	-3.306920e+01	-9.044043e+01
6.300000e-07	-4.739628e-06	-1.341697e-09	-3.290437e+01	-9.024611e+01
6.400000e-07	-4.715569e-06	-1.327950e-09	-3.273735e+01	-9.004792e+01
6.500000e-07	-4.691036e-06	-1.307129e-09	-3.256703e+01	-8.984569e+01
6.600000e-07	-4.666012e-06	-1.327088e-09	-3.239330e+01	-8.963926e+01
6.700000e-07	-4.640538e-06	-1.318502e-09	-3.221645e+01	-8.942850e+01
6.800000e-07	-4.614461e-06	-1.301923e-09	-3.203542e+01	-8.921325e+01
6.900000e-07	-4.587797e-06	-1.309956e-09	-3.185030e+01	-8.899338e+01
7.000000e-07	-4.560692e-06	-1.314190e-09	-3.166213e+01	-8.876879e+01
7.100000e-07	-4.533367e-06	-1.287924e-09	-3.147243e+01	-8.853935e+01
7.200000e-07	-4.505886e-06	-1.287508e-09	-3.128165e+01	-8.830496e+01
7.300000e-07	-4.478189e-06	-1.289257e-09	-3.108936e+01	-8.806554e+01
7.400000e-07	-4.450341e-06	-1.278703e-09	-3.089603e+01	-8.782101e+01
7.500000e-07	-4.422311e-06	-1.274879e-09	-3.070144e+01	-8.757128e+01
7.600000e-07	-4.393994e-06	-1.285175e-09	-3.050484e+01	-8.731630e+01
7.700000e-07	-4.365328e-06	-1.272965e-09	-3.030584e+01	-8.705601e+01
7.800000e-07	-4.336346e-06	-1.264919e-09	-3.010463e+01	-8.679036e+01
7.900000e-07	-4.307023e-06	-1.266189e-09	-2.990106e+01	-8.651931e+01
8.000000e-07	-4.277350e-06	-1.256611e-09	-2.969506e+01	-8.624284e+01
8.100000e-07	-4.247323e-06	-1.237882e-09	-2.948660e+01	-8.596090e+01
8.200000e-07	-4.217055e-06	-1.235995e-09	-2.927647e+01	-8.567348e+01
8.300000e-07	-4.186531e-06	-1.230615e-09	-2.906456e+01	-8.538056e+01
8.400000e-07	-4.155731e-06	-1.217259e-09	-2.885073e+01	-8.508213e+01
8.500000e-07	-4.124740e-06	-1.216682e-09	-2.863558e+01	-8.477818e+01
8.600000e-07	-4.093415e-06	-1.219310e-09	-2.841811e+01	-8.446869e+01
8.700000e-07	-4.061883e-06	-1.208262e-09	-2.819920e+01	-8.415367e+01
8.800000e-07	-4.030234e-06	-1.200263e-09	-2.797948e+01	-8.383310e+01
8.900000e-07	-3.998372e-06	-1.201912e-09	-2.775828e+01	-8.350700e+01
9.000000e-07	-3.966308e-06	-1.189739e-09	-2.753568e+01	-8.317535e+01
9.100000e-07	-3.933946e-06	-1.177019e-09	-2.731101e+01	-8.283815e+01
9.200000e-07	-3.901089e-06	-1.175421e-09	-2.708291e+01	-8.249541e+01
9.300000e-07	-3.867702e-06	-1.173584e-09	-2.685112e+01	-8.214713e+01
9.400000e-07	-3.833821e-06	-1.163726e-09	-2.661591e+01	-8.179330e+01
9.500000e-07	-3.799506e-06	-1.164244e-09	-2.637767e+01	-8.143392e+01
9.600000e-07	-3.764879e-06	-1.162029e-09	-2.613728e+01	-8.106900e+01
9.700000e-07	-3.729944e-06	-1.150051e-09	-2.589475e+01	-8.069853e+01
9.800000e-07	-3.694612e-06	-1.138323e-09	-2.564946e+01	-8.032251e+01
9.900000e-07	-3.659057e-06	-1.138276e-09	-2.540262e+01	-7.994094e+01
1.000000e-06	-3.623417e-06	-1.130804e-09	-2.515519e+01	-7.955382e+01
1.010000e-06	-3.587607e-06	-1.124741e-09	-2.490659e+01	-7.916115e+01
1.020000e-06	-3.551694e-06	-1.124397e-09	-2.465727e+01	-7.876294e+01
1.030000e-06	-3.515656e-06	-1.120927e-09	-2.440708e+01	-7.835918e+01
1.040000e-06	-3.479367e-06	-1.110912e-09	-2.415514e+01	-7.794988e+01
1.050000e-06	-3.442723e-06	-1.108811e-09	-2.390074e+01	-7.753504e+01
1.060000e-06	-3.405789e-06	-1.103771e-09	-2.364433e+01	-7.711467e+01
1.070000e-06	-3.368652e-06	-1.093787e-09	-2.338651e+01	-7.668879e+01
1.080000e-06	-3.331270e-06	-1.086382e-09	-2.312700e+01	-7.625739e+01
1.090000e-06	-3.293697e-06	-1.082915e-09	-2.286615e+01	-7.582049e+01
1.100000e-06	-3.255889e-06	-1.072599e-09	-2.260367e+01	-7.537812e+01
1.110000e-06	-3.217769e-06	-1.062544e-09	-2.233903e+01	-7.493028e+01
1.120000e-06	-3.179436e-06	-1.056978e-09	-2.207291e+01	-7.447699e+01
1.130000e-06	-3.140978e-06	-1.049583e-09	-2.180591e+01	-7.401828e+01
1.140000e-06	-3.102272e-06	-1.040602e-09	-2.153720e+01	-7.355417e+01
1.150000e-06	-3.063359e-06	-1.034699e-09	-2.126705e+01	-7.308469e+01
1.160000e-06	-3.024205e-06	-1.029329e-09	-2.099523e+01	-7.260985e+01
1.170000e-06	-2.984792e-06	-1.020686e-09	-2.072161e+01	-7.212968e+01
1.180000e-06	-2.945257e-06	-1.014610e-09	-2.044714e+01	-7.164421e+01
1.190000e-06	-2.905671e-06	-1.009871e-09	-2.017232e+01	-7.115344e+01
1.200000e-06	-2.866007e-06	-1.002342e-09	-1.989696e+01	-7.065741e+01
1.210000e-06	-2.826199e-06	-9.936311e-10	-1.962060e+01	-7.015612e+01
1.220000e-06	-2.786258e-06	-9.864085e-10	-1.934331e+01	-6.964959e+01
1.230000e-06	-2.746167e-06	-9.758492e-10	-1.906498e+01	-6.913780e+01
1.240000e-06	-2.705784e-06	-9.657582e-10	-1.878463e+01	-6.862077e+01
1.250000e-06	-2.665136e-06	-9.585691e-10	-1.850243e+01	-6.809846e+01
1.260000e-06	-2.624293e-06	-9.537404e-10	-1.821888e+01	-6.757086e+01
1.270000e-06	-2.583162e-06	-9.452968e-10	-1.793334e+01	-6.703792e+01
1.280000e-06	-2.541702e-06	-9.379946e-10	-1.764550e+01	-6.649959e+01
1.290000e-06	-2.499906e-06	-9.305434e-10	-1.735534e+01	-6.595580e+01
1.300000e-06	-2.457806e-06	-9.195250e-10	-1.706306e+01	-6.540647e+01
1.310000e-06	-2.415350e-06	-9.055033e-10	-1.676832e+01	-6.485148e+01
1.320000e-06	-2.372636e-06	-8.938782e-10	-1.647178e+01	-6.429071e+01
1.330000e-06	-2.329734e-06	-8.825023e-10	-1.617394e+01	-6.372402e+01
1.340000e-06	-2.286612e-06	-8.731627e-10	-1.587457e+01	-6.315122e+01
1.350000e-06	-2.243316e-06	-8.659650e-10	-1.557399e+01	-6.257213e+01
1.360000e-06	-2.199895e-06	-8.596097e-10	-1.527255e+01	-6.198653e+01
1.370000e-06	-2.156357e-06	-8.506682e-10	-1.497029e+01	-6.139417e+01
1.380000e-06	-2.112746e-06	-8.418680e-10	-1.466752e+01	-6.079476e+01
1.390000e-06	-2.069060e-06	-8.289072e-10	-1.436423e+01	-6.018802e+01
1.400000e-06	-2.025315e-06	-8.129056e-10	-1.406054e+01	-5.957361e+01
1.410000e-06	-1.981523e-06	-7.999247e-10	-1.375652e+01	-5.895117e+01
1.420000e-06	-1.937622e-06	-7.905017e-10	-1.345174e+01	-5.832031e+01
1.430000e-06	-1.893525e-06	-7.821225e-10	-1.314560e+01	-5.768062e+01
1.440000e-06	-1.849336e-06	-7.741021e-10	-1.283882e+01	-5.703165e+01
1.450000e-06	-1.805098e-06	-7.666277e-10	-1.253170e+01	-5.637293e+01
1.460000e-06	-1.760713e-06	-7.575118e-10	-1.222357e+01	-5.570398e+01
1.470000e-06	-1.716226e-06	-7.457052e-10	-1.191472e+01	-5.502426e+01
1.480000e-06	-1.671529e-06	-7.320111e-10	-1.160442e+01	-5.433324e+01
1.490000e-06	-1.626642e-06	-7.200532e-10	-1.129280e+01	-5.363035e+01
1.500000e-06	-1.581670e-06	-7.098799e-10	-1.098058e+01	-5.291501e+01
1.510000e-06	-1.536559e-06	-7.007332e-10	-1.066740e+01	-5.218663e+01
1.520000e-06	-1.491287e-06	-6.890844e-10	-1.035310e+01	-5.144458e+01
1.530000e-06	-1.445903e-06	-6.774111e-10	-1.003803e+01	-5.068826e+01
1.540000e-06	-1.400468e-06	-6.659151e-10	-9.722606e+00	-4.991702e+01
1.550000e-06	-1.354931e-06	-6.536787e-10	-9.406471e+00	-4.913023e+01
1.560000e-06	-1.309281e-06	-6.389411e-10	-9.089544e+00	-4.832727e+01
1.570000e-06	-1.263543e-06	-6.252286e-10	-8.772018e+00	-4.750749e+01
1.580000e-06	-1.217779e-06	-6.119286e-10	-8.454303e+00	-4.667027e+01
1.590000e-06	-1.171976e-06	-5.980088e-10	-8.136323e+00	-4.581499e+01
1.600000e-06	-1.126133e-06	-5.846021e-10	-7.818060e+00	-4.494106e+01
1.610000e-06	-1.080227e-06	-5.718638e-10	-7.499362e+00	-4.404790e+01
1.620000e-06	-1.034084e-06	-5.580781e-10	-7.179020e+00	-4.313493e+01
1.630000e-06	-9.878515e-07	-5.432628e-10	-6.858056e+00	-4.220164e+01
1.640000e-06	-9.416126e-07	-5.284137e-10	-6.537048e+00	-4.124752e+01
1.650000e-06	-8.952390e-07	-5.129107e-10	-6.215104e+00	-4.027211e+01
1.660000e-06	-8.489229e-07	-4.974067e-10	-5.893559e+00	-3.927497e+01
1.670000e-06	-8.025791e-07	-4.827812e-10	-5.571822e+00	-3.825573e+01
1.680000e-06	-7.560633e-07	-4.679654e-10	-5.248891e+00	-3.721403e+01
1.690000e-06	-7.095405e-07	-4.543442e-10	-4.925911e+00	-3.614961e+01
1.700000e-06	-6.629747e-07	-4.417064e-10	-4.602633e+00	-3.506221e+01
1.710000e-06	-6.163273e-07	-4.269804e-10	-4.278788e+00	-3.395166e+01
1.720000e-06	-5.696633e-07	-4.093895e-10	-3.954829e+00	-3.281784e+01
1.730000e-06	-5.229598e-07	-3.900665e-10	-3.630594e+00	-3.166069e+01
1.740000e-06	-4.761415e-07	-3.704933e-10	-3.305563e+00	-3.048022e+01
1.750000e-06	-4.292979e-07	-3.499646e-10	-2.980356e+00	-2.927648e+01
1.760000e-06	-3.824801e-07	-3.309212e-10	-2.655329e+00	-2.804963e+01
1.770000e-06	-3.355886e-07	-3.146504e-10	-2.329789e+00	-2.679985e+01
1.780000e-06	-2.886188e-07	-2.998732e-10	-2.003706e+00	-2.552743e+01
1.790000e-06	-2.416391e-07	-2.855029e-10	-1.677555e+00	-2.423271e+01
1.800000e-06	-1.946667e-07	-2.707122e-10	-1.351454e+00	-2.291610e+01
1.810000e-06	-1.477630e-07	-2.513433e-10	-1.025829e+00	-2.157808e+01
1.820000e-06	-1.008479e-07	-2.289935e-10	-7.001264e-01	-2.021920e+01
1.830000e-06	-5.387986e-08	-2.068377e-10	-3.740553e-01	-1.884007e+01
1.840000e-06	-6.956228e-09	-1.858553e-10	-4.829289e-02	-1.744137e+01
1.850000e-06	3.995855e-08	-1.680175e-10	2.774081e-01	-1.602386e+01
1.860000e-06	8.689163e-08	-1.520566e-10	6.032361e-01	-1.458834e+01
1.870000e-06	1.338174e-07	-1.347660e-10	9.290136e-01	-1.313567e+01
1.880000e-06	1.807244e-07	-1.160958e-10	1.254660e+00	-1.166677e+01
1.890000e-06	2.276513e-07	-9.720267e-11	1.580446e+00	-1.018263e+01
1.900000e-06	2.746076e-07	-7.633960e-11	1.906435e+00	-8.684274e+00
1.910000e-06	3.215833e-07	-5.420128e-11	2.232559e+00	-7.172767e+00
1.920000e-06	3.684435e-07	-3.139758e-11	2.557881e+00	-5.649226e+00
1.930000e-06	4.152688e-07	-7.521793e-12	2.882961e+00	-4.114804e+00
1.940000e-06	4.620696e-07	1.437446e-11	3.207870e+00	-2.570689e+00
1.950000e-06	5.086573e-07	3.406182e-11	3.531301e+00	-1.018097e+00
1.960000e-06	5.551125e-07	5.385641e-11	3.853811e+00	5.417313e-01
1.970000e-06	6.015880e-07	7.354560e-11	4.176462e+00	2.107533e+00
1.980000e-06	6.481274e-07	9.231154e-11	4.499557e+00	3.678031e+00
1.990000e-06	6.946044e-07	1.119319e-10	4.822219e+00	5.251935e+00
2.000000e-06	7.410381e-07	1.326911e-10	5.144580e+00	6.827951e+00
2.010000e-06	7.874266e-07	1.543679e-10	5.466627e+00	8.404782e+00
2.020000e-06	8.337672e-07	1.783045e-10	5.788342e+00	9.981133e+00
2.030000e-06	8.800513e-07	2.059462e-10	6.109664e+00	1.155572e+01
2.040000e-06	9.262717e-07	2.326503e-10	6.430545e+00	1.312726e+01
2.050000e-06	9.724133e-07	2.545977e-10	6.750878e+00	1.469451e+01
2.060000e-06	1.018467e-06	2.736966e-10	7.070600e+00	1.625621e+01
2.070000e-06	1.064465e-06	2.919524e-10	7.389938e+00	1.781117e+01
2.080000e-06	1.110415e-06	3.110048e-10	7.708941e+00	1.935818e+01
2.090000e-06	1.156244e-06	3.327338e-10	8.027101e+00	2.089611e+01
2.100000e-06	1.201915e-06	3.599869e-10	8.344167e+00	2.242381e+01
2.110000e-06	1.247535e-06	3.866940e-10	8.660880e+00	2.394023e+01
2.120000e-06	1.293125e-06	4.089076e-10	8.977386e+00	2.544430e+01
2.130000e-06	1.338644e-06	4.269704e-10	9.293398e+00	2.693504e+01
2.140000e-06	1.384042e-06	4.435588e-10	9.608568e+00	2.841149e+01
2.150000e-06	1.429371e-06	4.605316e-10	9.923260e+00	2.987274e+01
2.160000e-06	1.474576e-06	4.783363e-10	1.023709e+01	3.131794e+01
2.170000e-06	1.519670e-06	4.965163e-10	1.055015e+01	3.274628e+01
2.180000e-06	1.564682e-06	5.150788e-10	1.086264e+01	3.415700e+01
2.190000e-06	1.609560e-06	5.351792e-10	1.117420e+01	3.554941e+01
2.200000e-06	1.654281e-06	5.558083e-10	1.148467e+01	3.692286e+01
2.210000e-06	1.698957e-06	5.725503e-10	1.179483e+01	3.827675e+01
2.220000e-06	1.743550e-06	5.857199e-10	1.210441e+01	3.961053e+01
2.230000e-06	1.787888e-06	6.008367e-10	1.241223e+01	4.092373e+01
2.240000e-06	1.832080e-06	6.180601e-10	1.271903e+01	4.221591e+01
2.250000e-06	1.876179e-06	6.374709e-10	1.302518e+01	4.348668e+01
2.260000e-06	1.920155e-06	6.575843e-10	1.333047e+01	4.473572e+01
2.270000e-06	1.964046e-06	6.757242e-10	1.363518e+01	4.596274e+01
2.280000e-06	2.007829e-06	6.904187e-10	1.393914e+01	4.716753e+01
2.290000e-06	2.051499e-06	7.029500e-10	1.424232e+01	4.834990e+01
2.300000e-06	2.095138e-06	7.159388e-10	1.454528e+01	4.950971e+01
2.310000e-06	2.138748e-06	7.290105e-10	1.484804e+01	5.064690e+01
2.320000e-06	2.182285e-06	7.436751e-10	1.515029e+01	5.176141e+01
2.330000e-06	2.225727e-06	7.596809e-10	1.545188e+01	5.285324e+01
2.340000e-06	2.269072e-06	7.747871e-10	1.575280e+01	5.392245e+01
2.350000e-06	2.312270e-06	7.900036e-10	1.605270e+01	5.496910e+01
2.360000e-06	2.355217e-06	8.034714e-10	1.635085e+01	5.599334e+01
2.370000e-06	2.397946e-06	8.147116e-10	1.664749e+01	5.699530e+01
2.380000e-06	2.440432e-06	8.250885e-10	1.694244e+01	5.797518e+01
2.390000e-06	2.482655e-06	8.362214e-10	1.723557e+01	5.893321e+01
2.400000e-06	2.524591e-06	8.470172e-10	1.752671e+01	5.986962e+01
2.410000e-06	2.566217e-06	8.591231e-10	1.781569e+01	6.078471e+01
2.420000e-06	2.607515e-06	8.735532e-10	1.810240e+01	6.167878e+01
2.430000e-06	2.648383e-06	8.882138e-10	1.838612e+01	6.255215e+01
2.440000e-06	2.688940e-06	9.015417e-10	1.866769e+01	6.340518e+01
2.450000e-06	2.729192e-06	9.117871e-10	1.894713e+01	6.423825e+01
2.460000e-06	2.769254e-06	9.206908e-10	1.922526e+01	6.505173e+01
2.470000e-06	2.809230e-06	9.292228e-10	1.950278e+01	6.584604e+01
2.480000e-06	2.849009e-06	9.376495e-10	1.977895e+01	6.662161e+01
2.490000e-06	2.888658e-06	9.462100e-10	2.005421e+01	6.737885e+01
2.500000e-06	2.928243e-06	9.560498e-10	2.032902e+01	6.811823e+01
2.510000e-06	2.967729e-06	9.696573e-10	2.060315e+01	6.884020e+01
2.520000e-06	3.007033e-06	9.831500e-10	2.087602e+01	6.954522e+01
2.530000e-06	3.046181e-06	9.951663e-10	2.114780e+01	7.023377e+01
2.540000e-06	3.085165e-06	1.006714e-09	2.141843e+01	7.090631e+01
2.550000e-06	3.123841e-06	1.015372e-09	2.168694e+01	7.156333e+01
2.560000e-06	3.162221e-06	1.021626e-09	2.195339e+01	7.220531e+01
2.570000e-06	3.200390e-06	1.027407e-09	2.221837e+01	7.283274e+01
2.580000e-06	3.238385e-06	1.036984e-09	2.248215e+01	7.344608e+01
2.590000e-06	3.276281e-06	1.050036e-09	2.274524e+01	7.404582e+01
2.600000e-06	3.313982e-06	1.060974e-09	2.300697e+01	7.463243e+01
2.610000e-06	3.351392e-06	1.068578e-09	2.326669e+01	7.520638e+01
2.620000e-06	3.388531e-06	1.075001e-09	2.352452e+01	7.576813e+01
2.630000e-06	3.425306e-06	1.080576e-09	2.377983e+01	7.631814e+01
2.640000e-06	3.461842e-06	1.086799e-09	2.403348e+01	7.685684e+01
2.650000e-06	3.498208e-06	1.096310e-09	2.428595e+01	7.738468e+01
2.660000e-06	3.534294e-06	1.107095e-09	2.453647e+01	7.790206e+01
2.670000e-06	3.570174e-06	1.116149e-09	2.478556e+01	7.840941e+01
2.680000e-06	3.605922e-06	1.123364e-09	2.503374e+01	7.890712e+01
2.690000e-06	3.641545e-06	1.127878e-09	2.528105e+01	7.939556e+01
2.700000e-06	3.677016e-06	1.130897e-09	2.552730e+01	7.987509e+01
2.710000e-06	3.712330e-06	1.136320e-09	2.577247e+01	8.034607e+01
2.720000e-06	3.747457e-06	1.144553e-09	2.601633e+01	8.080882e+01
2.730000e-06	3.782322e-06	1.153058e-09	2.625838e+01	8.126364e+01
2.740000e-06	3.816742e-06	1.160897e-09	2.649734e+01	8.171084e+01
2.750000e-06	3.850733e-06	1.166999e-09	2.673331e+01	8.215067e+01
2.760000e-06	3.884378e-06	1.173420e-09	2.696689e+01	8.258339e+01
2.770000e-06	3.917476e-06	1.177634e-09	2.719667e+01	8.300922e+01
2.780000e-06	3.950061e-06	1.180750e-09	2.742289e+01	8.342836e+01
2.790000e-06	3.982323e-06	1.187845e-09	2.764686e+01	8.384101e+01
2.800000e-06	4.014309e-06	1.196050e-09	2.786892e+01	8.424732e+01
2.810000e-06	4.046087e-06	1.203524e-09	2.808954e+01	8.464744e+01
2.820000e-06	4.077747e-06	1.210158e-09	2.830934e+01	8.504147e+01
2.830000e-06	4.109267e-06	1.217433e-09	2.852816e+01	8.542952e+01
2.840000e-06	4.140563e-06	1.225190e-09	2.874543e+01	8.581167e+01
2.850000e-06	4.171523e-06	1.231147e-09	2.896036e+01	8.618797e+01
2.860000e-06	4.202140e-06	1.236293e-09	2.917292e+01	8.655846e+01
2.870000e-06	4.232400e-06	1.240854e-09	2.938300e+01	8.692315e+01
2.880000e-06	4.262371e-06	1.244131e-09	2.959107e+01	8.728205e+01
2.890000e-06	4.292126e-06	1.244889e-09	2.979764e+01	8.763514e+01
2.900000e-06	4.321532e-06	1.245555e-09	3.000179e+01	8.798238e+01
