# Temperatura_=_-0.3
# Concentracion g/m^3_=_1620.0
# C_Vs_to_Am_M_A/Vsm_=_65563218390.804596
# pendiente_HvsI_1/m_=_3716.3
# ordenada_HvsI_A/m_=_1297.0
# frecuencia_Hz_=_135096.97210427196

Tiempo_(s)	Campo_(V.s)	Magnetizacion_(V.s)	Campo_(kA/m)	Magnetizacion_(A/m)
0.000000e+00	-5.506173e-06	-1.689788e-09	-3.837681e+01	-1.086046e+02
1.000000e-08	-5.506449e-06	-1.691075e-09	-3.837873e+01	-1.085578e+02
2.000000e-08	-5.506453e-06	-1.690225e-09	-3.837876e+01	-1.085085e+02
3.000000e-08	-5.506043e-06	-1.688070e-09	-3.837590e+01	-1.084569e+02
4.000000e-08	-5.505071e-06	-1.685454e-09	-3.836913e+01	-1.084029e+02
5.000000e-08	-5.503634e-06	-1.688887e-09	-3.835911e+01	-1.083469e+02
6.000000e-08	-5.501637e-06	-1.707614e-09	-3.834519e+01	-1.082888e+02
7.000000e-08	-5.499058e-06	-1.733784e-09	-3.832722e+01	-1.082288e+02
8.000000e-08	-5.496004e-06	-1.729847e-09	-3.830594e+01	-1.081670e+02
9.000000e-08	-5.492506e-06	-1.639527e-09	-3.828155e+01	-1.081034e+02
1.000000e-07	-5.488550e-06	-1.516631e-09	-3.825398e+01	-1.080381e+02
1.100000e-07	-5.484227e-06	-1.605062e-09	-3.822385e+01	-1.079711e+02
1.200000e-07	-5.479720e-06	-1.765349e-09	-3.819244e+01	-1.079026e+02
1.300000e-07	-5.474937e-06	-1.765265e-09	-3.815910e+01	-1.078324e+02
1.400000e-07	-5.469773e-06	-1.653639e-09	-3.812311e+01	-1.077606e+02
1.500000e-07	-5.464299e-06	-1.632131e-09	-3.808496e+01	-1.076872e+02
1.600000e-07	-5.458507e-06	-1.763453e-09	-3.804458e+01	-1.076122e+02
1.700000e-07	-5.452253e-06	-1.704663e-09	-3.800100e+01	-1.075355e+02
1.800000e-07	-5.445503e-06	-1.583480e-09	-3.795395e+01	-1.074571e+02
1.900000e-07	-5.438474e-06	-1.574199e-09	-3.790496e+01	-1.073768e+02
2.000000e-07	-5.431216e-06	-1.708763e-09	-3.785437e+01	-1.072946e+02
2.100000e-07	-5.423616e-06	-1.726602e-09	-3.780140e+01	-1.072103e+02
2.200000e-07	-5.415699e-06	-1.651951e-09	-3.774622e+01	-1.071238e+02
2.300000e-07	-5.407490e-06	-1.599463e-09	-3.768901e+01	-1.070351e+02
2.400000e-07	-5.398778e-06	-1.626602e-09	-3.762829e+01	-1.069438e+02
2.500000e-07	-5.389427e-06	-1.633080e-09	-3.756311e+01	-1.068499e+02
2.600000e-07	-5.379470e-06	-1.613439e-09	-3.749372e+01	-1.067531e+02
2.700000e-07	-5.369019e-06	-1.619276e-09	-3.742088e+01	-1.066532e+02
2.800000e-07	-5.358084e-06	-1.620607e-09	-3.734466e+01	-1.065501e+02
2.900000e-07	-5.346673e-06	-1.607503e-09	-3.726513e+01	-1.064435e+02
3.000000e-07	-5.334916e-06	-1.562363e-09	-3.718318e+01	-1.063332e+02
3.100000e-07	-5.322649e-06	-1.559898e-09	-3.709768e+01	-1.062189e+02
3.200000e-07	-5.309882e-06	-1.571767e-09	-3.700870e+01	-1.061005e+02
3.300000e-07	-5.296784e-06	-1.607221e-09	-3.691742e+01	-1.059777e+02
3.400000e-07	-5.283432e-06	-1.583812e-09	-3.682435e+01	-1.058503e+02
3.500000e-07	-5.269650e-06	-1.570903e-09	-3.672829e+01	-1.057179e+02
3.600000e-07	-5.255362e-06	-1.579879e-09	-3.662871e+01	-1.055806e+02
3.700000e-07	-5.240808e-06	-1.579257e-09	-3.652728e+01	-1.054379e+02
3.800000e-07	-5.225852e-06	-1.521279e-09	-3.642304e+01	-1.052897e+02
3.900000e-07	-5.210275e-06	-1.556265e-09	-3.631447e+01	-1.051358e+02
4.000000e-07	-5.194285e-06	-1.583715e-09	-3.620302e+01	-1.049761e+02
4.100000e-07	-5.177935e-06	-1.534159e-09	-3.608906e+01	-1.048103e+02
4.200000e-07	-5.161081e-06	-1.518684e-09	-3.597159e+01	-1.046384e+02
4.300000e-07	-5.143843e-06	-1.610573e-09	-3.585145e+01	-1.044601e+02
4.400000e-07	-5.126246e-06	-1.564031e-09	-3.572880e+01	-1.042753e+02
4.500000e-07	-5.108258e-06	-1.468523e-09	-3.560343e+01	-1.040841e+02
4.600000e-07	-5.089963e-06	-1.536162e-09	-3.547592e+01	-1.038862e+02
4.700000e-07	-5.071272e-06	-1.591641e-09	-3.534564e+01	-1.036817e+02
4.800000e-07	-5.052183e-06	-1.488280e-09	-3.521260e+01	-1.034705e+02
4.900000e-07	-5.032852e-06	-1.490870e-09	-3.507787e+01	-1.032525e+02
5.000000e-07	-5.013353e-06	-1.580846e-09	-3.494197e+01	-1.030279e+02
5.100000e-07	-4.993610e-06	-1.515203e-09	-3.480436e+01	-1.027967e+02
5.200000e-07	-4.973456e-06	-1.469327e-09	-3.466389e+01	-1.025588e+02
5.300000e-07	-4.952949e-06	-1.562869e-09	-3.452096e+01	-1.023144e+02
5.400000e-07	-4.932136e-06	-1.539606e-09	-3.437590e+01	-1.020636e+02
5.500000e-07	-4.911000e-06	-1.439045e-09	-3.422858e+01	-1.018065e+02
5.600000e-07	-4.889580e-06	-1.511072e-09	-3.407929e+01	-1.015432e+02
5.700000e-07	-4.867804e-06	-1.555097e-09	-3.392752e+01	-1.012738e+02
5.800000e-07	-4.845702e-06	-1.462583e-09	-3.377347e+01	-1.009986e+02
5.900000e-07	-4.823176e-06	-1.465922e-09	-3.361647e+01	-1.007177e+02
6.000000e-07	-4.800181e-06	-1.538068e-09	-3.345620e+01	-1.004312e+02
6.100000e-07	-4.776920e-06	-1.475302e-09	-3.329408e+01	-1.001394e+02
6.200000e-07	-4.753526e-06	-1.447108e-09	-3.313103e+01	-9.984249e+01
6.300000e-07	-4.729953e-06	-1.506746e-09	-3.296673e+01	-9.954063e+01
6.400000e-07	-4.706068e-06	-1.490155e-09	-3.280025e+01	-9.923402e+01
6.500000e-07	-4.681850e-06	-1.435530e-09	-3.263146e+01	-9.892287e+01
6.600000e-07	-4.657133e-06	-1.473883e-09	-3.245919e+01	-9.860736e+01
6.700000e-07	-4.631864e-06	-1.471597e-09	-3.228307e+01	-9.828769e+01
6.800000e-07	-4.606218e-06	-1.423688e-09	-3.210432e+01	-9.796404e+01
6.900000e-07	-4.580084e-06	-1.432996e-09	-3.192217e+01	-9.763656e+01
7.000000e-07	-4.553468e-06	-1.457788e-09	-3.173667e+01	-9.730541e+01
7.100000e-07	-4.526559e-06	-1.421202e-09	-3.154911e+01	-9.697073e+01
7.200000e-07	-4.499327e-06	-1.414598e-09	-3.135931e+01	-9.663264e+01
7.300000e-07	-4.471840e-06	-1.429008e-09	-3.116773e+01	-9.629123e+01
7.400000e-07	-4.444127e-06	-1.410931e-09	-3.097458e+01	-9.594659e+01
7.500000e-07	-4.416165e-06	-1.394554e-09	-3.077969e+01	-9.559878e+01
7.600000e-07	-4.387941e-06	-1.410963e-09	-3.058298e+01	-9.524783e+01
7.700000e-07	-4.359395e-06	-1.410440e-09	-3.038402e+01	-9.489376e+01
7.800000e-07	-4.330597e-06	-1.393051e-09	-3.018330e+01	-9.453654e+01
7.900000e-07	-4.301525e-06	-1.389702e-09	-2.998068e+01	-9.417614e+01
8.000000e-07	-4.272116e-06	-1.379041e-09	-2.977571e+01	-9.381249e+01
8.100000e-07	-4.242410e-06	-1.355394e-09	-2.956866e+01	-9.344551e+01
8.200000e-07	-4.212387e-06	-1.350887e-09	-2.935941e+01	-9.307509e+01
8.300000e-07	-4.181982e-06	-1.357518e-09	-2.914749e+01	-9.270109e+01
8.400000e-07	-4.151271e-06	-1.344915e-09	-2.893344e+01	-9.232335e+01
8.500000e-07	-4.120281e-06	-1.339964e-09	-2.871745e+01	-9.194169e+01
8.600000e-07	-4.089012e-06	-1.343712e-09	-2.849951e+01	-9.155592e+01
8.700000e-07	-4.057591e-06	-1.332307e-09	-2.828051e+01	-9.116582e+01
8.800000e-07	-4.026032e-06	-1.315054e-09	-2.806055e+01	-9.077116e+01
8.900000e-07	-3.994253e-06	-1.317089e-09	-2.783906e+01	-9.037169e+01
9.000000e-07	-3.962291e-06	-1.306594e-09	-2.761629e+01	-8.996717e+01
9.100000e-07	-3.930057e-06	-1.291436e-09	-2.739163e+01	-8.955732e+01
9.200000e-07	-3.897454e-06	-1.290326e-09	-2.716440e+01	-8.914188e+01
9.300000e-07	-3.864458e-06	-1.290087e-09	-2.693442e+01	-8.872058e+01
9.400000e-07	-3.831009e-06	-1.272186e-09	-2.670129e+01	-8.829315e+01
9.500000e-07	-3.797208e-06	-1.266795e-09	-2.646570e+01	-8.785933e+01
9.600000e-07	-3.762958e-06	-1.266982e-09	-2.622698e+01	-8.741884e+01
9.700000e-07	-3.728247e-06	-1.252624e-09	-2.598506e+01	-8.697144e+01
9.800000e-07	-3.693235e-06	-1.235294e-09	-2.574103e+01	-8.651689e+01
9.900000e-07	-3.657962e-06	-1.235923e-09	-2.549518e+01	-8.605497e+01
1.000000e-06	-3.622553e-06	-1.228346e-09	-2.524839e+01	-8.558546e+01
1.010000e-06	-3.586985e-06	-1.217190e-09	-2.500049e+01	-8.510818e+01
1.020000e-06	-3.551204e-06	-1.218786e-09	-2.475110e+01	-8.462296e+01
1.030000e-06	-3.515284e-06	-1.218647e-09	-2.450075e+01	-8.412966e+01
1.040000e-06	-3.479194e-06	-1.203683e-09	-2.424921e+01	-8.362816e+01
1.050000e-06	-3.442794e-06	-1.195298e-09	-2.399551e+01	-8.311837e+01
1.060000e-06	-3.406114e-06	-1.190192e-09	-2.373986e+01	-8.260024e+01
1.070000e-06	-3.369294e-06	-1.174222e-09	-2.348323e+01	-8.207372e+01
1.080000e-06	-3.332276e-06	-1.160750e-09	-2.322523e+01	-8.153883e+01
1.090000e-06	-3.294919e-06	-1.158687e-09	-2.296486e+01	-8.099558e+01
1.100000e-06	-3.257243e-06	-1.151197e-09	-2.270226e+01	-8.044403e+01
1.110000e-06	-3.219317e-06	-1.136906e-09	-2.243793e+01	-7.988428e+01
1.120000e-06	-3.181254e-06	-1.131875e-09	-2.217264e+01	-7.931644e+01
1.130000e-06	-3.143075e-06	-1.126653e-09	-2.190654e+01	-7.874065e+01
1.140000e-06	-3.104663e-06	-1.114387e-09	-2.163881e+01	-7.815710e+01
1.150000e-06	-3.065985e-06	-1.103571e-09	-2.136924e+01	-7.756596e+01
1.160000e-06	-3.027072e-06	-1.097435e-09	-2.109802e+01	-7.696746e+01
1.170000e-06	-2.987981e-06	-1.085351e-09	-2.082557e+01	-7.636183e+01
1.180000e-06	-2.948731e-06	-1.073955e-09	-2.055200e+01	-7.574932e+01
1.190000e-06	-2.909323e-06	-1.067385e-09	-2.027734e+01	-7.513021e+01
1.200000e-06	-2.869738e-06	-1.059129e-09	-2.000144e+01	-7.450477e+01
1.210000e-06	-2.830069e-06	-1.045947e-09	-1.972496e+01	-7.387327e+01
1.220000e-06	-2.790303e-06	-1.038721e-09	-1.944779e+01	-7.323600e+01
1.230000e-06	-2.750385e-06	-1.029590e-09	-1.916957e+01	-7.259325e+01
1.240000e-06	-2.710293e-06	-1.015695e-09	-1.889015e+01	-7.194530e+01
1.250000e-06	-2.669982e-06	-1.003557e-09	-1.860918e+01	-7.129240e+01
1.260000e-06	-2.629376e-06	-9.970976e-10	-1.832617e+01	-7.063482e+01
1.270000e-06	-2.588602e-06	-9.883447e-10	-1.804199e+01	-6.997279e+01
1.280000e-06	-2.547668e-06	-9.783227e-10	-1.775668e+01	-6.930653e+01
1.290000e-06	-2.506298e-06	-9.677667e-10	-1.746835e+01	-6.863623e+01
1.300000e-06	-2.464593e-06	-9.558898e-10	-1.717767e+01	-6.796204e+01
1.310000e-06	-2.422583e-06	-9.404139e-10	-1.688487e+01	-6.728408e+01
1.320000e-06	-2.380216e-06	-9.278658e-10	-1.658958e+01	-6.660246e+01
1.330000e-06	-2.337606e-06	-9.180552e-10	-1.629260e+01	-6.591721e+01
1.340000e-06	-2.294834e-06	-9.077396e-10	-1.599449e+01	-6.522833e+01
1.350000e-06	-2.251953e-06	-8.980495e-10	-1.569561e+01	-6.453579e+01
1.360000e-06	-2.208885e-06	-8.886479e-10	-1.539544e+01	-6.383950e+01
1.370000e-06	-2.165607e-06	-8.766641e-10	-1.509380e+01	-6.313931e+01
1.380000e-06	-2.122179e-06	-8.625181e-10	-1.479112e+01	-6.243504e+01
1.390000e-06	-2.078637e-06	-8.472643e-10	-1.448764e+01	-6.172643e+01
1.400000e-06	-2.035019e-06	-8.309292e-10	-1.418363e+01	-6.101319e+01
1.410000e-06	-1.991319e-06	-8.166931e-10	-1.387906e+01	-6.029497e+01
1.420000e-06	-1.947558e-06	-8.055845e-10	-1.357405e+01	-5.957136e+01
1.430000e-06	-1.903691e-06	-7.977006e-10	-1.326831e+01	-5.884189e+01
1.440000e-06	-1.859674e-06	-7.885554e-10	-1.296152e+01	-5.810607e+01
1.450000e-06	-1.815536e-06	-7.774552e-10	-1.265389e+01	-5.736333e+01
1.460000e-06	-1.771344e-06	-7.642792e-10	-1.234587e+01	-5.661306e+01
1.470000e-06	-1.727075e-06	-7.511819e-10	-1.203733e+01	-5.585462e+01
1.480000e-06	-1.682624e-06	-7.360119e-10	-1.172752e+01	-5.508730e+01
1.490000e-06	-1.637991e-06	-7.221562e-10	-1.141644e+01	-5.431038e+01
1.500000e-06	-1.593253e-06	-7.129262e-10	-1.110462e+01	-5.352310e+01
1.510000e-06	-1.548459e-06	-7.057777e-10	-1.079241e+01	-5.272465e+01
1.520000e-06	-1.503570e-06	-6.959032e-10	-1.047955e+01	-5.191422e+01
1.530000e-06	-1.458498e-06	-6.846455e-10	-1.016541e+01	-5.109097e+01
1.540000e-06	-1.413270e-06	-6.731365e-10	-9.850176e+00	-5.025405e+01
1.550000e-06	-1.367945e-06	-6.616506e-10	-9.534274e+00	-4.940258e+01
1.560000e-06	-1.322534e-06	-6.474175e-10	-9.217770e+00	-4.853571e+01
1.570000e-06	-1.277101e-06	-6.322908e-10	-8.901109e+00	-4.765257e+01
1.580000e-06	-1.231664e-06	-6.181232e-10	-8.584427e+00	-4.675231e+01
1.590000e-06	-1.186094e-06	-6.011193e-10	-8.266815e+00	-4.583408e+01
1.600000e-06	-1.140442e-06	-5.850663e-10	-7.948631e+00	-4.489707e+01
1.610000e-06	-1.094706e-06	-5.716061e-10	-7.629856e+00	-4.394049e+01
1.620000e-06	-1.048800e-06	-5.554691e-10	-7.309901e+00	-4.296357e+01
1.630000e-06	-1.002816e-06	-5.399343e-10	-6.989404e+00	-4.196560e+01
1.640000e-06	-9.567339e-07	-5.257377e-10	-6.668224e+00	-4.094590e+01
1.650000e-06	-9.105933e-07	-5.112753e-10	-6.346634e+00	-3.990384e+01
1.660000e-06	-8.644506e-07	-4.965192e-10	-6.025030e+00	-3.883886e+01
1.670000e-06	-8.182475e-07	-4.817489e-10	-5.703005e+00	-3.775045e+01
1.680000e-06	-7.720096e-07	-4.665556e-10	-5.380737e+00	-3.663817e+01
1.690000e-06	-7.257187e-07	-4.501426e-10	-5.058099e+00	-3.550163e+01
1.700000e-06	-6.793926e-07	-4.319839e-10	-4.735216e+00	-3.434054e+01
1.710000e-06	-6.330607e-07	-4.139665e-10	-4.412293e+00	-3.315466e+01
1.720000e-06	-5.866579e-07	-3.945800e-10	-4.088876e+00	-3.194387e+01
1.730000e-06	-5.402407e-07	-3.745288e-10	-3.765359e+00	-3.070808e+01
1.740000e-06	-4.937364e-07	-3.547006e-10	-3.441234e+00	-2.944732e+01
1.750000e-06	-4.471236e-07	-3.353135e-10	-3.116353e+00	-2.816170e+01
1.760000e-06	-4.004998e-07	-3.180795e-10	-2.791395e+00	-2.685141e+01
1.770000e-06	-3.539141e-07	-3.002507e-10	-2.466703e+00	-2.551672e+01
1.780000e-06	-3.073554e-07	-2.807830e-10	-2.142199e+00	-2.415801e+01
1.790000e-06	-2.607372e-07	-2.592782e-10	-1.817281e+00	-2.277571e+01
1.800000e-06	-2.140466e-07	-2.392486e-10	-1.491858e+00	-2.137036e+01
1.810000e-06	-1.672627e-07	-2.162803e-10	-1.165784e+00	-1.994259e+01
1.820000e-06	-1.204783e-07	-1.935317e-10	-8.397069e-01	-1.849309e+01
1.830000e-06	-7.374383e-08	-1.735577e-10	-5.139782e-01	-1.702264e+01
1.840000e-06	-2.701848e-08	-1.552926e-10	-1.883128e-01	-1.553209e+01
1.850000e-06	1.967324e-08	-1.363957e-10	1.371181e-01	-1.402237e+01
1.860000e-06	6.637624e-08	-1.180288e-10	4.626277e-01	-1.249446e+01
1.870000e-06	1.130917e-07	-9.729576e-11	7.882241e-01	-1.094942e+01
1.880000e-06	1.597662e-07	-7.384388e-11	1.113535e+00	-9.388358e+00
1.890000e-06	2.064682e-07	-5.049466e-11	1.439038e+00	-7.812450e+00
1.900000e-06	2.531678e-07	-2.844364e-11	1.764524e+00	-6.222906e+00
1.910000e-06	2.998478e-07	-1.033199e-11	2.089873e+00	-4.620985e+00
1.920000e-06	3.464629e-07	6.525756e-12	2.414770e+00	-3.007984e+00
1.930000e-06	3.930029e-07	2.782038e-11	2.739143e+00	-1.385229e+00
1.940000e-06	4.395998e-07	5.173262e-11	3.063914e+00	2.459255e-01
1.950000e-06	4.861185e-07	7.445406e-11	3.388138e+00	1.884106e+00
1.960000e-06	5.325249e-07	9.736232e-11	3.711581e+00	3.527924e+00
1.970000e-06	5.789119e-07	1.210300e-10	4.034888e+00	5.175983e+00
1.980000e-06	6.252368e-07	1.442573e-10	4.357763e+00	6.826885e+00
1.990000e-06	6.714814e-07	1.657174e-10	4.680077e+00	8.479234e+00
2.000000e-06	7.176618e-07	1.850429e-10	5.001944e+00	1.013164e+01
2.010000e-06	7.638642e-07	2.066435e-10	5.323964e+00	1.178274e+01
2.020000e-06	8.100874e-07	2.297734e-10	5.646130e+00	1.343117e+01
2.030000e-06	8.561873e-07	2.535012e-10	5.967436e+00	1.507561e+01
2.040000e-06	9.021202e-07	2.797950e-10	6.287579e+00	1.671475e+01
2.050000e-06	9.480094e-07	3.044547e-10	6.607416e+00	1.834734e+01
2.060000e-06	9.939121e-07	3.258223e-10	6.927348e+00	1.997213e+01
2.070000e-06	1.039820e-06	3.459094e-10	7.247317e+00	2.158795e+01
2.080000e-06	1.085670e-06	3.654576e-10	7.566880e+00	2.319366e+01
2.090000e-06	1.131366e-06	3.891627e-10	7.885368e+00	2.478815e+01
2.100000e-06	1.176882e-06	4.149201e-10	8.202607e+00	2.637039e+01
2.110000e-06	1.222245e-06	4.386057e-10	8.518777e+00	2.793938e+01
2.120000e-06	1.267573e-06	4.612238e-10	8.834704e+00	2.949420e+01
2.130000e-06	1.312901e-06	4.802197e-10	9.150629e+00	3.103396e+01
2.140000e-06	1.358176e-06	4.979110e-10	9.466185e+00	3.255784e+01
2.150000e-06	1.403371e-06	5.169946e-10	9.781183e+00	3.406508e+01
2.160000e-06	1.448470e-06	5.368061e-10	1.009552e+01	3.555499e+01
2.170000e-06	1.493449e-06	5.571030e-10	1.040901e+01	3.702693e+01
2.180000e-06	1.538271e-06	5.778021e-10	1.072141e+01	3.848030e+01
2.190000e-06	1.582972e-06	5.986248e-10	1.103297e+01	3.991459e+01
2.200000e-06	1.627558e-06	6.211030e-10	1.134372e+01	4.132934e+01
2.210000e-06	1.672023e-06	6.390980e-10	1.165363e+01	4.272415e+01
2.220000e-06	1.716377e-06	6.562391e-10	1.196277e+01	4.409866e+01
2.230000e-06	1.760568e-06	6.737235e-10	1.227077e+01	4.545258e+01
2.240000e-06	1.804619e-06	6.933991e-10	1.257779e+01	4.678567e+01
2.250000e-06	1.848610e-06	7.150580e-10	1.288440e+01	4.809774e+01
2.260000e-06	1.892541e-06	7.351499e-10	1.319059e+01	4.938866e+01
2.270000e-06	1.936344e-06	7.517887e-10	1.349589e+01	5.065833e+01
2.280000e-06	1.980075e-06	7.663899e-10	1.380069e+01	5.190671e+01
2.290000e-06	2.023795e-06	7.821877e-10	1.410540e+01	5.313379e+01
2.300000e-06	2.067468e-06	8.008539e-10	1.440980e+01	5.433960e+01
2.310000e-06	2.111078e-06	8.180128e-10	1.471374e+01	5.552423e+01
2.320000e-06	2.154597e-06	8.353107e-10	1.501706e+01	5.668778e+01
2.330000e-06	2.197963e-06	8.524123e-10	1.531931e+01	5.783039e+01
2.340000e-06	2.241129e-06	8.672541e-10	1.562017e+01	5.895224e+01
2.350000e-06	2.284137e-06	8.795064e-10	1.591993e+01	6.005350e+01
2.360000e-06	2.326943e-06	8.907037e-10	1.621828e+01	6.113442e+01
2.370000e-06	2.369440e-06	9.040513e-10	1.651447e+01	6.219524e+01
2.380000e-06	2.411740e-06	9.182852e-10	1.680930e+01	6.323620e+01
2.390000e-06	2.453711e-06	9.353792e-10	1.710182e+01	6.425761e+01
2.400000e-06	2.495191e-06	9.519425e-10	1.739093e+01	6.525975e+01
2.410000e-06	2.536479e-06	9.668425e-10	1.767870e+01	6.624293e+01
2.420000e-06	2.577598e-06	9.806108e-10	1.796529e+01	6.720748e+01
2.430000e-06	2.618470e-06	9.931954e-10	1.825015e+01	6.815370e+01
2.440000e-06	2.659125e-06	1.003929e-09	1.853351e+01	6.908196e+01
2.450000e-06	2.699550e-06	1.014725e-09	1.881527e+01	6.999257e+01
2.460000e-06	2.739784e-06	1.026487e-09	1.909569e+01	7.088589e+01
2.470000e-06	2.779767e-06	1.038519e-09	1.937436e+01	7.176226e+01
2.480000e-06	2.819560e-06	1.051417e-09	1.965171e+01	7.262203e+01
2.490000e-06	2.859254e-06	1.064430e-09	1.992837e+01	7.346554e+01
2.500000e-06	2.898836e-06	1.076834e-09	2.020425e+01	7.429314e+01
2.510000e-06	2.938327e-06	1.091070e-09	2.047949e+01	7.510516e+01
2.520000e-06	2.977666e-06	1.104603e-09	2.075367e+01	7.590194e+01
2.530000e-06	3.016764e-06	1.116236e-09	2.102618e+01	7.668383e+01
2.540000e-06	3.055618e-06	1.126446e-09	2.129698e+01	7.745113e+01
2.550000e-06	3.094275e-06	1.136301e-09	2.156641e+01	7.820418e+01
2.560000e-06	3.132710e-06	1.144079e-09	2.183430e+01	7.894329e+01
2.570000e-06	3.170859e-06	1.151201e-09	2.210019e+01	7.966876e+01
2.580000e-06	3.208842e-06	1.161925e-09	2.236492e+01	8.038091e+01
2.590000e-06	3.246594e-06	1.175328e-09	2.262804e+01	8.108001e+01
2.600000e-06	3.284059e-06	1.188256e-09	2.288917e+01	8.176636e+01
2.610000e-06	3.321367e-06	1.197680e-09	2.314920e+01	8.244022e+01
2.620000e-06	3.358489e-06	1.204657e-09	2.340793e+01	8.310188e+01
2.630000e-06	3.395409e-06	1.212320e-09	2.366525e+01	8.375158e+01
2.640000e-06	3.432003e-06	1.219354e-09	2.392030e+01	8.438959e+01
2.650000e-06	3.468316e-06	1.227408e-09	2.417340e+01	8.501613e+01
2.660000e-06	3.504470e-06	1.237831e-09	2.442538e+01	8.563144e+01
2.670000e-06	3.540412e-06	1.247441e-09	2.467589e+01	8.623575e+01
2.680000e-06	3.576174e-06	1.256216e-09	2.492514e+01	8.682928e+01
2.690000e-06	3.611800e-06	1.263481e-09	2.517345e+01	8.741222e+01
2.700000e-06	3.647317e-06	1.268826e-09	2.542100e+01	8.798479e+01
2.710000e-06	3.682635e-06	1.275847e-09	2.566715e+01	8.854716e+01
2.720000e-06	3.717614e-06	1.285922e-09	2.591095e+01	8.909952e+01
2.730000e-06	3.752297e-06	1.294837e-09	2.615268e+01	8.964204e+01
2.740000e-06	3.786686e-06	1.301799e-09	2.639236e+01	9.017488e+01
2.750000e-06	3.820581e-06	1.308046e-09	2.662861e+01	9.069821e+01
2.760000e-06	3.853989e-06	1.314032e-09	2.686145e+01	9.121218e+01
2.770000e-06	3.887055e-06	1.318126e-09	2.709192e+01	9.171691e+01
2.780000e-06	3.919837e-06	1.321588e-09	2.732039e+01	9.221256e+01
2.790000e-06	3.952229e-06	1.328115e-09	2.754616e+01	9.269924e+01
2.800000e-06	3.984246e-06	1.336497e-09	2.776931e+01	9.317707e+01
2.810000e-06	4.016035e-06	1.345779e-09	2.799088e+01	9.364618e+01
2.820000e-06	4.047661e-06	1.355002e-09	2.821130e+01	9.410666e+01
2.830000e-06	4.079150e-06	1.361505e-09	2.843078e+01	9.455861e+01
2.840000e-06	4.110400e-06	1.367627e-09	2.864858e+01	9.500215e+01
2.850000e-06	4.141376e-06	1.372558e-09	2.886448e+01	9.543734e+01
2.860000e-06	4.172064e-06	1.376298e-09	2.907837e+01	9.586429e+01
2.870000e-06	4.202429e-06	1.381720e-09	2.929000e+01	9.628306e+01
2.880000e-06	4.232480e-06	1.389389e-09	2.949945e+01	9.669375e+01
2.890000e-06	4.262298e-06	1.396075e-09	2.970727e+01	9.709641e+01
2.900000e-06	4.291833e-06	1.400441e-09	2.991313e+01	9.749113e+01
