# Temperatura_=_14.7
# Concentracion g/m^3_=_1620.0
# C_Vs_to_Am_M_A/Vsm_=_65563218390.804596
# pendiente_HvsI_1/m_=_3716.3
# ordenada_HvsI_A/m_=_1297.0
# frecuencia_Hz_=_135103.8950913907

Tiempo_(s)	Campo_(V.s)	Magnetizacion_(V.s)	Campo_(kA/m)	Magnetizacion_(A/m)
0.000000e+00	-5.533712e-06	-1.126200e-09	-3.836468e+01	-7.265093e+01
1.000000e-08	-5.533885e-06	-1.119521e-09	-3.836588e+01	-7.262761e+01
2.000000e-08	-5.533739e-06	-1.113674e-09	-3.836487e+01	-7.260194e+01
3.000000e-08	-5.533125e-06	-1.110800e-09	-3.836061e+01	-7.257386e+01
4.000000e-08	-5.532019e-06	-1.108401e-09	-3.835294e+01	-7.254330e+01
5.000000e-08	-5.530447e-06	-1.110716e-09	-3.834205e+01	-7.251020e+01
6.000000e-08	-5.528362e-06	-1.120958e-09	-3.832759e+01	-7.247450e+01
7.000000e-08	-5.525716e-06	-1.136025e-09	-3.830924e+01	-7.243614e+01
8.000000e-08	-5.522524e-06	-1.132140e-09	-3.828712e+01	-7.239505e+01
9.000000e-08	-5.518847e-06	-1.070449e-09	-3.826163e+01	-7.235118e+01
1.000000e-07	-5.514781e-06	-1.020747e-09	-3.823343e+01	-7.230450e+01
1.100000e-07	-5.510424e-06	-1.108876e-09	-3.820323e+01	-7.225494e+01
1.200000e-07	-5.505730e-06	-1.224444e-09	-3.817069e+01	-7.220247e+01
1.300000e-07	-5.500636e-06	-1.139627e-09	-3.813537e+01	-7.214705e+01
1.400000e-07	-5.495287e-06	-1.026616e-09	-3.809828e+01	-7.208865e+01
1.500000e-07	-5.489718e-06	-1.052268e-09	-3.805968e+01	-7.202724e+01
1.600000e-07	-5.483746e-06	-1.179242e-09	-3.801828e+01	-7.196282e+01
1.700000e-07	-5.477261e-06	-1.117111e-09	-3.797331e+01	-7.189535e+01
1.800000e-07	-5.470415e-06	-9.958132e-10	-3.792585e+01	-7.182484e+01
1.900000e-07	-5.463282e-06	-1.056549e-09	-3.787640e+01	-7.175128e+01
2.000000e-07	-5.455798e-06	-1.167125e-09	-3.782451e+01	-7.167468e+01
2.100000e-07	-5.448022e-06	-1.154392e-09	-3.777060e+01	-7.159504e+01
2.200000e-07	-5.439940e-06	-1.039216e-09	-3.771457e+01	-7.151238e+01
2.300000e-07	-5.431551e-06	-1.045306e-09	-3.765641e+01	-7.142672e+01
2.400000e-07	-5.422697e-06	-1.084856e-09	-3.759503e+01	-7.133807e+01
2.500000e-07	-5.413204e-06	-1.093208e-09	-3.752921e+01	-7.124647e+01
2.600000e-07	-5.403032e-06	-1.054084e-09	-3.745869e+01	-7.115195e+01
2.700000e-07	-5.392225e-06	-1.066793e-09	-3.738377e+01	-7.105454e+01
2.800000e-07	-5.380908e-06	-1.075655e-09	-3.730531e+01	-7.095428e+01
2.900000e-07	-5.369202e-06	-1.074626e-09	-3.722415e+01	-7.085121e+01
3.000000e-07	-5.357137e-06	-1.050930e-09	-3.714051e+01	-7.074536e+01
3.100000e-07	-5.344638e-06	-1.052114e-09	-3.705385e+01	-7.063678e+01
3.200000e-07	-5.331736e-06	-1.060841e-09	-3.696440e+01	-7.052551e+01
3.300000e-07	-5.318497e-06	-1.077692e-09	-3.687262e+01	-7.041160e+01
3.400000e-07	-5.304906e-06	-1.049206e-09	-3.677839e+01	-7.029508e+01
3.500000e-07	-5.290918e-06	-1.027363e-09	-3.668142e+01	-7.017600e+01
3.600000e-07	-5.276560e-06	-1.054446e-09	-3.658187e+01	-7.005439e+01
3.700000e-07	-5.261772e-06	-1.049224e-09	-3.647935e+01	-6.993030e+01
3.800000e-07	-5.246239e-06	-1.009485e-09	-3.637166e+01	-6.980375e+01
3.900000e-07	-5.230224e-06	-1.040190e-09	-3.626063e+01	-6.967479e+01
4.000000e-07	-5.214014e-06	-1.076236e-09	-3.614825e+01	-6.954345e+01
4.100000e-07	-5.197301e-06	-1.009860e-09	-3.603238e+01	-6.940974e+01
4.200000e-07	-5.180140e-06	-1.011622e-09	-3.591340e+01	-6.927371e+01
4.300000e-07	-5.162734e-06	-1.089360e-09	-3.579273e+01	-6.913536e+01
4.400000e-07	-5.144997e-06	-1.042620e-09	-3.566976e+01	-6.899471e+01
4.500000e-07	-5.126768e-06	-9.509396e-10	-3.554338e+01	-6.885179e+01
4.600000e-07	-5.108080e-06	-1.043015e-09	-3.541381e+01	-6.870659e+01
4.700000e-07	-5.089038e-06	-1.079871e-09	-3.528180e+01	-6.855914e+01
4.800000e-07	-5.069639e-06	-9.740870e-10	-3.514731e+01	-6.840942e+01
4.900000e-07	-5.049995e-06	-9.866932e-10	-3.501112e+01	-6.825745e+01
5.000000e-07	-5.030248e-06	-1.081325e-09	-3.487422e+01	-6.810321e+01
5.100000e-07	-5.010246e-06	-9.979900e-10	-3.473555e+01	-6.794670e+01
5.200000e-07	-4.989903e-06	-9.615612e-10	-3.459451e+01	-6.778792e+01
5.300000e-07	-4.969296e-06	-1.055087e-09	-3.445164e+01	-6.762684e+01
5.400000e-07	-4.948297e-06	-1.019782e-09	-3.430605e+01	-6.746347e+01
5.500000e-07	-4.926862e-06	-9.246594e-10	-3.415745e+01	-6.729777e+01
5.600000e-07	-4.905147e-06	-1.012751e-09	-3.400690e+01	-6.712974e+01
5.700000e-07	-4.883132e-06	-1.043009e-09	-3.385428e+01	-6.695935e+01
5.800000e-07	-4.860665e-06	-9.442448e-10	-3.369852e+01	-6.678657e+01
5.900000e-07	-4.837840e-06	-9.701185e-10	-3.354027e+01	-6.661140e+01
6.000000e-07	-4.814859e-06	-1.041870e-09	-3.338094e+01	-6.643379e+01
6.100000e-07	-4.791611e-06	-9.691025e-10	-3.321977e+01	-6.625374e+01
6.200000e-07	-4.768097e-06	-9.484476e-10	-3.305675e+01	-6.607120e+01
6.300000e-07	-4.744279e-06	-1.017192e-09	-3.289162e+01	-6.588616e+01
6.400000e-07	-4.720120e-06	-9.852600e-10	-3.272413e+01	-6.569859e+01
6.500000e-07	-4.695609e-06	-9.401894e-10	-3.255419e+01	-6.550846e+01
6.600000e-07	-4.670610e-06	-9.879375e-10	-3.238088e+01	-6.531574e+01
6.700000e-07	-4.645039e-06	-9.855763e-10	-3.220360e+01	-6.512041e+01
6.800000e-07	-4.618946e-06	-9.356084e-10	-3.202270e+01	-6.492243e+01
6.900000e-07	-4.592426e-06	-9.614726e-10	-3.183884e+01	-6.472179e+01
7.000000e-07	-4.565435e-06	-9.785602e-10	-3.165171e+01	-6.451844e+01
7.100000e-07	-4.538068e-06	-9.422725e-10	-3.146198e+01	-6.431237e+01
7.200000e-07	-4.510481e-06	-9.429441e-10	-3.127072e+01	-6.410353e+01
7.300000e-07	-4.482691e-06	-9.670531e-10	-3.107805e+01	-6.389191e+01
7.400000e-07	-4.454690e-06	-9.420199e-10	-3.088393e+01	-6.367747e+01
7.500000e-07	-4.426457e-06	-9.314817e-10	-3.068819e+01	-6.346017e+01
7.600000e-07	-4.397932e-06	-9.443351e-10	-3.049043e+01	-6.323999e+01
7.700000e-07	-4.369115e-06	-9.342748e-10	-3.029065e+01	-6.301689e+01
7.800000e-07	-4.340020e-06	-9.161973e-10	-3.008893e+01	-6.279084e+01
7.900000e-07	-4.310635e-06	-9.276964e-10	-2.988521e+01	-6.256179e+01
8.000000e-07	-4.280968e-06	-9.215445e-10	-2.967953e+01	-6.232971e+01
8.100000e-07	-4.251002e-06	-9.051916e-10	-2.947178e+01	-6.209455e+01
8.200000e-07	-4.220733e-06	-9.063466e-10	-2.926192e+01	-6.185628e+01
8.300000e-07	-4.190116e-06	-9.077315e-10	-2.904966e+01	-6.161486e+01
8.400000e-07	-4.159123e-06	-8.853410e-10	-2.883479e+01	-6.137022e+01
8.500000e-07	-4.127873e-06	-8.813459e-10	-2.861814e+01	-6.112234e+01
8.600000e-07	-4.096481e-06	-8.881311e-10	-2.840050e+01	-6.087115e+01
8.700000e-07	-4.064951e-06	-8.785025e-10	-2.818190e+01	-6.061660e+01
8.800000e-07	-4.033259e-06	-8.700184e-10	-2.796219e+01	-6.035865e+01
8.900000e-07	-4.001402e-06	-8.776778e-10	-2.774133e+01	-6.009723e+01
9.000000e-07	-3.969306e-06	-8.681895e-10	-2.751881e+01	-5.983229e+01
9.100000e-07	-3.936809e-06	-8.529445e-10	-2.729351e+01	-5.956377e+01
9.200000e-07	-3.903840e-06	-8.554539e-10	-2.706494e+01	-5.929162e+01
9.300000e-07	-3.870447e-06	-8.506304e-10	-2.683343e+01	-5.901578e+01
9.400000e-07	-3.836606e-06	-8.333451e-10	-2.659881e+01	-5.873618e+01
9.500000e-07	-3.802299e-06	-8.350699e-10	-2.636096e+01	-5.845278e+01
9.600000e-07	-3.767552e-06	-8.431789e-10	-2.612007e+01	-5.816551e+01
9.700000e-07	-3.732482e-06	-8.305741e-10	-2.587693e+01	-5.787433e+01
9.800000e-07	-3.697221e-06	-8.230196e-10	-2.563247e+01	-5.757917e+01
9.900000e-07	-3.661772e-06	-8.268353e-10	-2.538671e+01	-5.728000e+01
1.000000e-06	-3.626146e-06	-8.204581e-10	-2.513971e+01	-5.697675e+01
1.010000e-06	-3.590368e-06	-8.102433e-10	-2.489167e+01	-5.666939e+01
1.020000e-06	-3.554426e-06	-8.135914e-10	-2.464248e+01	-5.635788e+01
1.030000e-06	-3.518278e-06	-8.081941e-10	-2.439187e+01	-5.604218e+01
1.040000e-06	-3.481926e-06	-7.955846e-10	-2.413985e+01	-5.572226e+01
1.050000e-06	-3.445337e-06	-7.932566e-10	-2.388618e+01	-5.539809e+01
1.060000e-06	-3.408451e-06	-7.952761e-10	-2.363046e+01	-5.506966e+01
1.070000e-06	-3.371244e-06	-7.836285e-10	-2.337251e+01	-5.473695e+01
1.080000e-06	-3.333759e-06	-7.769662e-10	-2.311262e+01	-5.439996e+01
1.090000e-06	-3.296086e-06	-7.759541e-10	-2.285144e+01	-5.405867e+01
1.100000e-06	-3.258167e-06	-7.674489e-10	-2.258855e+01	-5.371309e+01
1.110000e-06	-3.219989e-06	-7.558169e-10	-2.232387e+01	-5.336323e+01
1.120000e-06	-3.181667e-06	-7.567116e-10	-2.205819e+01	-5.300911e+01
1.130000e-06	-3.143035e-06	-7.539703e-10	-2.179035e+01	-5.265074e+01
1.140000e-06	-3.104087e-06	-7.474611e-10	-2.152033e+01	-5.228814e+01
1.150000e-06	-3.065015e-06	-7.473332e-10	-2.124945e+01	-5.192135e+01
1.160000e-06	-3.025811e-06	-7.480394e-10	-2.097765e+01	-5.155040e+01
1.170000e-06	-2.986477e-06	-7.391000e-10	-2.070495e+01	-5.117532e+01
1.180000e-06	-2.946966e-06	-7.282484e-10	-2.043103e+01	-5.079614e+01
1.190000e-06	-2.907324e-06	-7.203735e-10	-2.015619e+01	-5.041290e+01
1.200000e-06	-2.867586e-06	-7.095999e-10	-1.988069e+01	-5.002563e+01
1.210000e-06	-2.827748e-06	-7.010178e-10	-1.960450e+01	-4.963437e+01
1.220000e-06	-2.787859e-06	-7.009122e-10	-1.932795e+01	-4.923914e+01
1.230000e-06	-2.747783e-06	-6.998183e-10	-1.905011e+01	-4.883998e+01
1.240000e-06	-2.707458e-06	-6.935277e-10	-1.877054e+01	-4.843689e+01
1.250000e-06	-2.666876e-06	-6.889151e-10	-1.848919e+01	-4.802988e+01
1.260000e-06	-2.625984e-06	-6.833629e-10	-1.820569e+01	-4.761897e+01
1.270000e-06	-2.584760e-06	-6.725494e-10	-1.791989e+01	-4.720412e+01
1.280000e-06	-2.543207e-06	-6.627454e-10	-1.763180e+01	-4.678533e+01
1.290000e-06	-2.501234e-06	-6.584654e-10	-1.734081e+01	-4.636253e+01
1.300000e-06	-2.458928e-06	-6.533339e-10	-1.704751e+01	-4.593569e+01
1.310000e-06	-2.416413e-06	-6.488350e-10	-1.675276e+01	-4.550472e+01
1.320000e-06	-2.373615e-06	-6.442661e-10	-1.645604e+01	-4.506953e+01
1.330000e-06	-2.330562e-06	-6.399622e-10	-1.615756e+01	-4.463000e+01
1.340000e-06	-2.287309e-06	-6.301685e-10	-1.585769e+01	-4.418598e+01
1.350000e-06	-2.243934e-06	-6.205897e-10	-1.555698e+01	-4.373732e+01
1.360000e-06	-2.200470e-06	-6.116490e-10	-1.525564e+01	-4.328382e+01
1.370000e-06	-2.156930e-06	-6.016728e-10	-1.495379e+01	-4.282526e+01
1.380000e-06	-2.113322e-06	-5.922618e-10	-1.465145e+01	-4.236139e+01
1.390000e-06	-2.069661e-06	-5.855734e-10	-1.434875e+01	-4.189195e+01
1.400000e-06	-2.025944e-06	-5.784351e-10	-1.404567e+01	-4.141663e+01
1.410000e-06	-1.982087e-06	-5.699310e-10	-1.374161e+01	-4.093510e+01
1.420000e-06	-1.938073e-06	-5.627035e-10	-1.343647e+01	-4.044701e+01
1.430000e-06	-1.894001e-06	-5.566605e-10	-1.313092e+01	-3.995195e+01
1.440000e-06	-1.849878e-06	-5.468758e-10	-1.282502e+01	-3.944952e+01
1.450000e-06	-1.805572e-06	-5.354817e-10	-1.251785e+01	-3.893927e+01
1.460000e-06	-1.761065e-06	-5.231102e-10	-1.220929e+01	-3.842073e+01
1.470000e-06	-1.716509e-06	-5.104844e-10	-1.190039e+01	-3.789342e+01
1.480000e-06	-1.671867e-06	-4.989472e-10	-1.159089e+01	-3.735681e+01
1.490000e-06	-1.626946e-06	-4.920868e-10	-1.127945e+01	-3.681037e+01
1.500000e-06	-1.581837e-06	-4.889437e-10	-1.096672e+01	-3.625354e+01
1.510000e-06	-1.536701e-06	-4.848122e-10	-1.065380e+01	-3.568575e+01
1.520000e-06	-1.491510e-06	-4.780960e-10	-1.034049e+01	-3.510642e+01
1.530000e-06	-1.446157e-06	-4.676647e-10	-1.002606e+01	-3.451496e+01
1.540000e-06	-1.400657e-06	-4.572086e-10	-9.710616e+00	-3.391075e+01
1.550000e-06	-1.355069e-06	-4.463308e-10	-9.394560e+00	-3.329321e+01
1.560000e-06	-1.309379e-06	-4.354767e-10	-9.077799e+00	-3.266173e+01
1.570000e-06	-1.263669e-06	-4.241353e-10	-8.760894e+00	-3.201571e+01
1.580000e-06	-1.217897e-06	-4.137932e-10	-8.443557e+00	-3.135455e+01
1.590000e-06	-1.171949e-06	-4.033076e-10	-8.125006e+00	-3.067769e+01
1.600000e-06	-1.125921e-06	-3.930935e-10	-7.805897e+00	-2.998456e+01
1.610000e-06	-1.079924e-06	-3.813428e-10	-7.487010e+00	-2.927463e+01
1.620000e-06	-1.033900e-06	-3.675541e-10	-7.167930e+00	-2.854738e+01
1.630000e-06	-9.877404e-07	-3.515883e-10	-6.847907e+00	-2.780233e+01
1.640000e-06	-9.414968e-07	-3.370037e-10	-6.527305e+00	-2.703904e+01
1.650000e-06	-8.951672e-07	-3.239523e-10	-6.206106e+00	-2.625709e+01
1.660000e-06	-8.487157e-07	-3.114979e-10	-5.884063e+00	-2.545611e+01
1.670000e-06	-8.021442e-07	-2.996835e-10	-5.561187e+00	-2.463579e+01
1.680000e-06	-7.554471e-07	-2.893271e-10	-5.237441e+00	-2.379586e+01
1.690000e-06	-7.087131e-07	-2.785581e-10	-4.913438e+00	-2.293610e+01
1.700000e-06	-6.620255e-07	-2.666541e-10	-4.589758e+00	-2.205636e+01
1.710000e-06	-6.154673e-07	-2.530384e-10	-4.266974e+00	-2.115654e+01
1.720000e-06	-5.688397e-07	-2.374164e-10	-3.943710e+00	-2.023661e+01
1.730000e-06	-5.220457e-07	-2.209559e-10	-3.619292e+00	-1.929659e+01
1.740000e-06	-4.752278e-07	-2.055848e-10	-3.294708e+00	-1.833659e+01
1.750000e-06	-4.284218e-07	-1.926231e-10	-2.970206e+00	-1.735678e+01
1.760000e-06	-3.815633e-07	-1.803331e-10	-2.645341e+00	-1.635741e+01
1.770000e-06	-3.345858e-07	-1.675445e-10	-2.319651e+00	-1.533877e+01
1.780000e-06	-2.876028e-07	-1.535906e-10	-1.993922e+00	-1.430127e+01
1.790000e-06	-2.406580e-07	-1.401172e-10	-1.668458e+00	-1.324535e+01
1.800000e-06	-1.937026e-07	-1.260294e-10	-1.342921e+00	-1.217156e+01
1.810000e-06	-1.467475e-07	-1.095703e-10	-1.017386e+00	-1.108048e+01
1.820000e-06	-9.982622e-08	-9.085796e-11	-6.920854e-01	-9.972792e+00
1.830000e-06	-5.288179e-08	-7.370676e-11	-3.666242e-01	-8.849233e+00
1.840000e-06	-5.893215e-09	-5.847751e-11	-4.085708e-02	-7.710610e+00
1.850000e-06	4.100181e-08	-4.411643e-11	2.842615e-01	-6.557789e+00
1.860000e-06	8.784961e-08	-2.961606e-11	6.090527e-01	-5.391700e+00
1.870000e-06	1.347803e-07	-1.231073e-11	9.344187e-01	-4.213329e+00
1.880000e-06	1.817245e-07	5.172824e-12	1.259878e+00	-3.023712e+00
1.890000e-06	2.286055e-07	2.133330e-11	1.584900e+00	-1.823939e+00
1.900000e-06	2.754908e-07	3.546184e-11	1.909951e+00	-6.151398e-01
1.910000e-06	3.223858e-07	5.027432e-11	2.235069e+00	6.015135e-01
1.920000e-06	3.692557e-07	6.800082e-11	2.560014e+00	1.824815e+00
1.930000e-06	4.161118e-07	8.665382e-11	2.884862e+00	3.053531e+00
1.940000e-06	4.629717e-07	1.066045e-10	3.209737e+00	4.286401e+00
1.950000e-06	5.097917e-07	1.246777e-10	3.534336e+00	5.522148e+00
1.960000e-06	5.565373e-07	1.412161e-10	3.858418e+00	6.759484e+00
1.970000e-06	6.032165e-07	1.571612e-10	4.182041e+00	7.997110e+00
1.980000e-06	6.497999e-07	1.732149e-10	4.504999e+00	9.233731e+00
1.990000e-06	6.962909e-07	1.907154e-10	4.827316e+00	1.046805e+01
2.000000e-06	7.427384e-07	2.102842e-10	5.149332e+00	1.169880e+01
2.010000e-06	7.892064e-07	2.310968e-10	5.471491e+00	1.292469e+01
2.020000e-06	8.355829e-07	2.507919e-10	5.793014e+00	1.414450e+01
2.030000e-06	8.818068e-07	2.703739e-10	6.113480e+00	1.535701e+01
2.040000e-06	9.279730e-07	2.891942e-10	6.433546e+00	1.656102e+01
2.050000e-06	9.741473e-07	3.046811e-10	6.753668e+00	1.775541e+01
2.060000e-06	1.020239e-06	3.195448e-10	7.073215e+00	1.893905e+01
2.070000e-06	1.066194e-06	3.349706e-10	7.391816e+00	2.011089e+01
2.080000e-06	1.112150e-06	3.509710e-10	7.710430e+00	2.126993e+01
2.090000e-06	1.158050e-06	3.681839e-10	8.028649e+00	2.241522e+01
2.100000e-06	1.203807e-06	3.860904e-10	8.345873e+00	2.354585e+01
2.110000e-06	1.249523e-06	4.025442e-10	8.662817e+00	2.466098e+01
2.120000e-06	1.295197e-06	4.164108e-10	8.979473e+00	2.575986e+01
2.130000e-06	1.340814e-06	4.292774e-10	9.295729e+00	2.684177e+01
2.140000e-06	1.386341e-06	4.415321e-10	9.611368e+00	2.790606e+01
2.150000e-06	1.431753e-06	4.520120e-10	9.926205e+00	2.895216e+01
2.160000e-06	1.477057e-06	4.628009e-10	1.024029e+01	2.997958e+01
2.170000e-06	1.522252e-06	4.756145e-10	1.055362e+01	3.098786e+01
2.180000e-06	1.567352e-06	4.904566e-10	1.086629e+01	3.197665e+01
2.190000e-06	1.612292e-06	5.064718e-10	1.117786e+01	3.294564e+01
2.200000e-06	1.657073e-06	5.211036e-10	1.148833e+01	3.389459e+01
2.210000e-06	1.701665e-06	5.318164e-10	1.179747e+01	3.482335e+01
2.220000e-06	1.746150e-06	5.394607e-10	1.210589e+01	3.573181e+01
2.230000e-06	1.790551e-06	5.479399e-10	1.241372e+01	3.661993e+01
2.240000e-06	1.834827e-06	5.577085e-10	1.272067e+01	3.748772e+01
2.250000e-06	1.878983e-06	5.694832e-10	1.302680e+01	3.833526e+01
2.260000e-06	1.923030e-06	5.832769e-10	1.333218e+01	3.916269e+01
2.270000e-06	1.966960e-06	5.971590e-10	1.363674e+01	3.997018e+01
2.280000e-06	2.010748e-06	6.106047e-10	1.394032e+01	4.075796e+01
2.290000e-06	2.054472e-06	6.229260e-10	1.424345e+01	4.152631e+01
2.300000e-06	2.098120e-06	6.331378e-10	1.454606e+01	4.227553e+01
2.310000e-06	2.141733e-06	6.408199e-10	1.484842e+01	4.300598e+01
2.320000e-06	2.185342e-06	6.488116e-10	1.515076e+01	4.371804e+01
2.330000e-06	2.228867e-06	6.572844e-10	1.545252e+01	4.441211e+01
2.340000e-06	2.272206e-06	6.650111e-10	1.575298e+01	4.508864e+01
2.350000e-06	2.315392e-06	6.740743e-10	1.605239e+01	4.574808e+01
2.360000e-06	2.358381e-06	6.837561e-10	1.635042e+01	4.639090e+01
2.370000e-06	2.401105e-06	6.932568e-10	1.664663e+01	4.701759e+01
2.380000e-06	2.443575e-06	7.011766e-10	1.694107e+01	4.762864e+01
2.390000e-06	2.485750e-06	7.085032e-10	1.723346e+01	4.822456e+01
2.400000e-06	2.527657e-06	7.157721e-10	1.752400e+01	4.880584e+01
2.410000e-06	2.569302e-06	7.231386e-10	1.781272e+01	4.937299e+01
2.420000e-06	2.610568e-06	7.291214e-10	1.809881e+01	4.992651e+01
2.430000e-06	2.651477e-06	7.338421e-10	1.838243e+01	5.046689e+01
2.440000e-06	2.692247e-06	7.386763e-10	1.866509e+01	5.099461e+01
2.450000e-06	2.732873e-06	7.443141e-10	1.894674e+01	5.151015e+01
2.460000e-06	2.773297e-06	7.524414e-10	1.922699e+01	5.201396e+01
2.470000e-06	2.813491e-06	7.608508e-10	1.950566e+01	5.250648e+01
2.480000e-06	2.853418e-06	7.690605e-10	1.978247e+01	5.298813e+01
2.490000e-06	2.893102e-06	7.767482e-10	2.005759e+01	5.345934e+01
2.500000e-06	2.932629e-06	7.823707e-10	2.033163e+01	5.392047e+01
2.510000e-06	2.972062e-06	7.879977e-10	2.060501e+01	5.437191e+01
2.520000e-06	3.011381e-06	7.934518e-10	2.087761e+01	5.481399e+01
2.530000e-06	3.050518e-06	7.992478e-10	2.114894e+01	5.524704e+01
2.540000e-06	3.089488e-06	8.073803e-10	2.141912e+01	5.567138e+01
2.550000e-06	3.128276e-06	8.165430e-10	2.168803e+01	5.608727e+01
2.560000e-06	3.166781e-06	8.240446e-10	2.195498e+01	5.649500e+01
2.570000e-06	3.205034e-06	8.298172e-10	2.222019e+01	5.689480e+01
2.580000e-06	3.243090e-06	8.354444e-10	2.248403e+01	5.728689e+01
2.590000e-06	3.280900e-06	8.387798e-10	2.274616e+01	5.767149e+01
2.600000e-06	3.318448e-06	8.410540e-10	2.300648e+01	5.804879e+01
2.610000e-06	3.355867e-06	8.454700e-10	2.326590e+01	5.841895e+01
2.620000e-06	3.393103e-06	8.521361e-10	2.352405e+01	5.878214e+01
2.630000e-06	3.430032e-06	8.594474e-10	2.378008e+01	5.913851e+01
2.640000e-06	3.466731e-06	8.657277e-10	2.403450e+01	5.948818e+01
2.650000e-06	3.503190e-06	8.720648e-10	2.428727e+01	5.983129e+01
2.660000e-06	3.539366e-06	8.760023e-10	2.453808e+01	6.016793e+01
2.670000e-06	3.575287e-06	8.765176e-10	2.478712e+01	6.049823e+01
2.680000e-06	3.611022e-06	8.774528e-10	2.503486e+01	6.082227e+01
2.690000e-06	3.646633e-06	8.793174e-10	2.528175e+01	6.114015e+01
2.700000e-06	3.682114e-06	8.831276e-10	2.552774e+01	6.145196e+01
2.710000e-06	3.717451e-06	8.904547e-10	2.577272e+01	6.175778e+01
2.720000e-06	3.752631e-06	8.988935e-10	2.601662e+01	6.205769e+01
2.730000e-06	3.787544e-06	9.043126e-10	2.625867e+01	6.235178e+01
2.740000e-06	3.822022e-06	9.074709e-10	2.649770e+01	6.264012e+01
2.750000e-06	3.856045e-06	9.086622e-10	2.673358e+01	6.292281e+01
2.760000e-06	3.889643e-06	9.080226e-10	2.696652e+01	6.319991e+01
2.770000e-06	3.922786e-06	9.072948e-10	2.719629e+01	6.347152e+01
2.780000e-06	3.955442e-06	9.095894e-10	2.742269e+01	6.373773e+01
2.790000e-06	3.987685e-06	9.155068e-10	2.764623e+01	6.399861e+01
2.800000e-06	4.019676e-06	9.215977e-10	2.786802e+01	6.425426e+01
2.810000e-06	4.051466e-06	9.269860e-10	2.808842e+01	6.450478e+01
2.820000e-06	4.083001e-06	9.311699e-10	2.830704e+01	6.475026e+01
2.830000e-06	4.114385e-06	9.333630e-10	2.852463e+01	6.499080e+01
2.840000e-06	4.145655e-06	9.341100e-10	2.874142e+01	6.522650e+01
2.850000e-06	4.176727e-06	9.353152e-10	2.895684e+01	6.545745e+01
2.860000e-06	4.207542e-06	9.371515e-10	2.917048e+01	6.568377e+01
2.870000e-06	4.237990e-06	9.410559e-10	2.938157e+01	6.590556e+01
2.880000e-06	4.268052e-06	9.456401e-10	2.958999e+01	6.612291e+01
2.890000e-06	4.297815e-06	9.488093e-10	2.979633e+01	6.633594e+01
2.900000e-06	4.327271e-06	9.512023e-10	3.000055e+01	6.654474e+01
2.910000e-06	4.356464e-06	9.523981e-10	3.020294e+01	6.674942e+01
