# Temperatura_=_-0.3
# Concentracion g/m^3_=_1620.0
# C_Vs_to_Am_M_A/Vsm_=_65563218390.804596
# pendiente_HvsI_1/m_=_3716.3
# ordenada_HvsI_A/m_=_1297.0
# frecuencia_Hz_=_135105.38176314277

Tiempo_(s)	Campo_(V.s)	Magnetizacion_(V.s)	Campo_(kA/m)	Magnetizacion_(A/m)
0.000000e+00	-5.512865e-06	-1.522765e-09	-3.837224e+01	-9.982513e+01
1.000000e-08	-5.513084e-06	-1.521031e-09	-3.837377e+01	-9.981065e+01
2.000000e-08	-5.513004e-06	-1.520222e-09	-3.837321e+01	-9.979500e+01
3.000000e-08	-5.512455e-06	-1.519475e-09	-3.836939e+01	-9.977808e+01
4.000000e-08	-5.511390e-06	-1.519443e-09	-3.836198e+01	-9.975975e+01
5.000000e-08	-5.509694e-06	-1.518465e-09	-3.835017e+01	-9.973986e+01
6.000000e-08	-5.507321e-06	-1.514004e-09	-3.833366e+01	-9.971823e+01
7.000000e-08	-5.504492e-06	-1.529290e-09	-3.831396e+01	-9.969467e+01
8.000000e-08	-5.501262e-06	-1.546546e-09	-3.829148e+01	-9.966898e+01
9.000000e-08	-5.497515e-06	-1.513669e-09	-3.826540e+01	-9.964094e+01
1.000000e-07	-5.493326e-06	-1.483821e-09	-3.823624e+01	-9.961030e+01
1.100000e-07	-5.488874e-06	-1.554270e-09	-3.820526e+01	-9.957682e+01
1.200000e-07	-5.484186e-06	-1.543234e-09	-3.817262e+01	-9.954025e+01
1.300000e-07	-5.479222e-06	-1.503632e-09	-3.813807e+01	-9.950033e+01
1.400000e-07	-5.473978e-06	-1.454458e-09	-3.810157e+01	-9.945680e+01
1.500000e-07	-5.468355e-06	-1.527096e-09	-3.806243e+01	-9.940938e+01
1.600000e-07	-5.462243e-06	-1.572556e-09	-3.801989e+01	-9.935783e+01
1.700000e-07	-5.455782e-06	-1.498973e-09	-3.797492e+01	-9.930187e+01
1.800000e-07	-5.448988e-06	-1.465687e-09	-3.792763e+01	-9.924125e+01
1.900000e-07	-5.441790e-06	-1.483461e-09	-3.787753e+01	-9.917572e+01
2.000000e-07	-5.434353e-06	-1.543988e-09	-3.782576e+01	-9.910504e+01
2.100000e-07	-5.426700e-06	-1.514637e-09	-3.777250e+01	-9.902900e+01
2.200000e-07	-5.418795e-06	-1.517422e-09	-3.771747e+01	-9.894736e+01
2.300000e-07	-5.410495e-06	-1.515790e-09	-3.765970e+01	-9.885995e+01
2.400000e-07	-5.401569e-06	-1.543476e-09	-3.759757e+01	-9.876656e+01
2.500000e-07	-5.392026e-06	-1.502668e-09	-3.753114e+01	-9.866705e+01
2.600000e-07	-5.381902e-06	-1.493229e-09	-3.746068e+01	-9.856126e+01
2.700000e-07	-5.371089e-06	-1.489519e-09	-3.738541e+01	-9.844907e+01
2.800000e-07	-5.359739e-06	-1.516094e-09	-3.730641e+01	-9.833038e+01
2.900000e-07	-5.348114e-06	-1.504739e-09	-3.722549e+01	-9.820511e+01
3.000000e-07	-5.336155e-06	-1.496059e-09	-3.714225e+01	-9.807319e+01
3.100000e-07	-5.323752e-06	-1.494704e-09	-3.705592e+01	-9.793459e+01
3.200000e-07	-5.310978e-06	-1.516004e-09	-3.696701e+01	-9.778929e+01
3.300000e-07	-5.297853e-06	-1.507849e-09	-3.687565e+01	-9.763729e+01
3.400000e-07	-5.284341e-06	-1.467982e-09	-3.678161e+01	-9.747862e+01
3.500000e-07	-5.270449e-06	-1.480601e-09	-3.668491e+01	-9.731334e+01
3.600000e-07	-5.256025e-06	-1.506548e-09	-3.658451e+01	-9.714149e+01
3.700000e-07	-5.240960e-06	-1.479615e-09	-3.647965e+01	-9.696318e+01
3.800000e-07	-5.225383e-06	-1.459485e-09	-3.637123e+01	-9.677849e+01
3.900000e-07	-5.209398e-06	-1.507155e-09	-3.625997e+01	-9.658755e+01
4.000000e-07	-5.193029e-06	-1.478646e-09	-3.614603e+01	-9.639049e+01
4.100000e-07	-5.176301e-06	-1.431881e-09	-3.602960e+01	-9.618745e+01
4.200000e-07	-5.159258e-06	-1.476151e-09	-3.591097e+01	-9.597859e+01
4.300000e-07	-5.141972e-06	-1.513223e-09	-3.579065e+01	-9.576407e+01
4.400000e-07	-5.124330e-06	-1.419775e-09	-3.566785e+01	-9.554406e+01
4.500000e-07	-5.106237e-06	-1.427787e-09	-3.554191e+01	-9.531875e+01
4.600000e-07	-5.087772e-06	-1.494659e-09	-3.541339e+01	-9.508830e+01
4.700000e-07	-5.068935e-06	-1.444264e-09	-3.528227e+01	-9.485291e+01
4.800000e-07	-5.049733e-06	-1.385026e-09	-3.514862e+01	-9.461276e+01
4.900000e-07	-5.030294e-06	-1.476539e-09	-3.501331e+01	-9.436801e+01
5.000000e-07	-5.010637e-06	-1.464294e-09	-3.487649e+01	-9.411886e+01
5.100000e-07	-4.990699e-06	-1.380981e-09	-3.473771e+01	-9.386547e+01
5.200000e-07	-4.970462e-06	-1.427067e-09	-3.459685e+01	-9.360799e+01
5.300000e-07	-4.949921e-06	-1.475366e-09	-3.445388e+01	-9.334659e+01
5.400000e-07	-4.928985e-06	-1.376508e-09	-3.430815e+01	-9.308141e+01
5.500000e-07	-4.907643e-06	-1.379668e-09	-3.415960e+01	-9.281257e+01
5.600000e-07	-4.886009e-06	-1.450873e-09	-3.400902e+01	-9.254019e+01
5.700000e-07	-4.864072e-06	-1.399283e-09	-3.385632e+01	-9.226438e+01
5.800000e-07	-4.841745e-06	-1.357231e-09	-3.370092e+01	-9.198522e+01
5.900000e-07	-4.819071e-06	-1.427243e-09	-3.354310e+01	-9.170280e+01
6.000000e-07	-4.796091e-06	-1.411243e-09	-3.338314e+01	-9.141715e+01
6.100000e-07	-4.772830e-06	-1.353570e-09	-3.322124e+01	-9.112833e+01
6.200000e-07	-4.749297e-06	-1.389701e-09	-3.305744e+01	-9.083636e+01
6.300000e-07	-4.725554e-06	-1.398858e-09	-3.289217e+01	-9.054124e+01
6.400000e-07	-4.701613e-06	-1.350796e-09	-3.272553e+01	-9.024296e+01
6.500000e-07	-4.677272e-06	-1.365569e-09	-3.255611e+01	-8.994150e+01
6.600000e-07	-4.652453e-06	-1.385894e-09	-3.238335e+01	-8.963682e+01
6.700000e-07	-4.627075e-06	-1.344442e-09	-3.220671e+01	-8.932886e+01
6.800000e-07	-4.601063e-06	-1.344181e-09	-3.202565e+01	-8.901754e+01
6.900000e-07	-4.574502e-06	-1.361936e-09	-3.184077e+01	-8.870279e+01
7.000000e-07	-4.547553e-06	-1.340274e-09	-3.165320e+01	-8.838450e+01
7.100000e-07	-4.520320e-06	-1.325906e-09	-3.146364e+01	-8.806257e+01
7.200000e-07	-4.492858e-06	-1.343790e-09	-3.127250e+01	-8.773687e+01
7.300000e-07	-4.465196e-06	-1.326718e-09	-3.107995e+01	-8.740728e+01
7.400000e-07	-4.437314e-06	-1.312661e-09	-3.088588e+01	-8.707366e+01
7.500000e-07	-4.409285e-06	-1.312881e-09	-3.069078e+01	-8.673587e+01
7.600000e-07	-4.380987e-06	-1.303177e-09	-3.049382e+01	-8.639376e+01
7.700000e-07	-4.352310e-06	-1.282489e-09	-3.029421e+01	-8.604719e+01
7.800000e-07	-4.323329e-06	-1.286801e-09	-3.009249e+01	-8.569600e+01
7.900000e-07	-4.294007e-06	-1.278431e-09	-2.988839e+01	-8.534004e+01
8.000000e-07	-4.264406e-06	-1.264874e-09	-2.968236e+01	-8.497917e+01
8.100000e-07	-4.234602e-06	-1.260956e-09	-2.947491e+01	-8.461322e+01
8.200000e-07	-4.204511e-06	-1.261990e-09	-2.926546e+01	-8.424207e+01
8.300000e-07	-4.174022e-06	-1.243709e-09	-2.905324e+01	-8.386556e+01
8.400000e-07	-4.143165e-06	-1.236453e-09	-2.883846e+01	-8.348357e+01
8.500000e-07	-4.112068e-06	-1.235741e-09	-2.862201e+01	-8.309598e+01
8.600000e-07	-4.080776e-06	-1.225536e-09	-2.840420e+01	-8.270267e+01
8.700000e-07	-4.049317e-06	-1.214899e-09	-2.818523e+01	-8.230353e+01
8.800000e-07	-4.017694e-06	-1.218989e-09	-2.796512e+01	-8.189848e+01
8.900000e-07	-3.985871e-06	-1.212678e-09	-2.774362e+01	-8.148742e+01
9.000000e-07	-3.953778e-06	-1.193854e-09	-2.752023e+01	-8.107029e+01
9.100000e-07	-3.921403e-06	-1.185954e-09	-2.729488e+01	-8.064704e+01
9.200000e-07	-3.888696e-06	-1.180208e-09	-2.706723e+01	-8.021761e+01
9.300000e-07	-3.855444e-06	-1.165409e-09	-2.683578e+01	-7.978197e+01
9.400000e-07	-3.821632e-06	-1.159171e-09	-2.660043e+01	-7.934011e+01
9.500000e-07	-3.787460e-06	-1.164835e-09	-2.636258e+01	-7.889203e+01
9.600000e-07	-3.752921e-06	-1.155909e-09	-2.612217e+01	-7.843774e+01
9.700000e-07	-3.718022e-06	-1.141719e-09	-2.587926e+01	-7.797726e+01
9.800000e-07	-3.682863e-06	-1.136074e-09	-2.563453e+01	-7.751062e+01
9.900000e-07	-3.647477e-06	-1.130553e-09	-2.538823e+01	-7.703789e+01
1.000000e-06	-3.611963e-06	-1.115998e-09	-2.514103e+01	-7.655911e+01
1.010000e-06	-3.576365e-06	-1.112746e-09	-2.489326e+01	-7.607437e+01
1.020000e-06	-3.540593e-06	-1.110691e-09	-2.464427e+01	-7.558375e+01
1.030000e-06	-3.504587e-06	-1.101356e-09	-2.439364e+01	-7.508735e+01
1.040000e-06	-3.468319e-06	-1.090218e-09	-2.414120e+01	-7.458527e+01
1.050000e-06	-3.431777e-06	-1.084916e-09	-2.388685e+01	-7.407762e+01
1.060000e-06	-3.394995e-06	-1.071386e-09	-2.363083e+01	-7.356453e+01
1.070000e-06	-3.357885e-06	-1.058248e-09	-2.337252e+01	-7.304611e+01
1.080000e-06	-3.320498e-06	-1.052657e-09	-2.311229e+01	-7.252251e+01
1.090000e-06	-3.282925e-06	-1.050912e-09	-2.285076e+01	-7.199386e+01
1.100000e-06	-3.245121e-06	-1.042679e-09	-2.258763e+01	-7.146028e+01
1.110000e-06	-3.207084e-06	-1.038826e-09	-2.232287e+01	-7.092194e+01
1.120000e-06	-3.168867e-06	-1.032345e-09	-2.205687e+01	-7.037895e+01
1.130000e-06	-3.130457e-06	-1.019551e-09	-2.178951e+01	-6.983146e+01
1.140000e-06	-3.091816e-06	-1.007600e-09	-2.152055e+01	-6.927960e+01
1.150000e-06	-3.052999e-06	-1.000781e-09	-2.125037e+01	-6.872350e+01
1.160000e-06	-3.013997e-06	-9.911227e-10	-2.097890e+01	-6.816329e+01
1.170000e-06	-2.974790e-06	-9.804586e-10	-2.070600e+01	-6.759908e+01
1.180000e-06	-2.935405e-06	-9.733749e-10	-2.043186e+01	-6.703098e+01
1.190000e-06	-2.895908e-06	-9.656117e-10	-2.015694e+01	-6.645909e+01
1.200000e-06	-2.856304e-06	-9.537815e-10	-1.988128e+01	-6.588350e+01
1.210000e-06	-2.816588e-06	-9.437847e-10	-1.960483e+01	-6.530428e+01
1.220000e-06	-2.776749e-06	-9.347765e-10	-1.932754e+01	-6.472149e+01
1.230000e-06	-2.736669e-06	-9.226956e-10	-1.904856e+01	-6.413519e+01
1.240000e-06	-2.696352e-06	-9.125298e-10	-1.876793e+01	-6.354539e+01
1.250000e-06	-2.655849e-06	-9.047746e-10	-1.848601e+01	-6.295212e+01
1.260000e-06	-2.615035e-06	-8.967421e-10	-1.820193e+01	-6.235537e+01
1.270000e-06	-2.573962e-06	-8.868894e-10	-1.791603e+01	-6.175511e+01
1.280000e-06	-2.532694e-06	-8.789308e-10	-1.762879e+01	-6.115130e+01
1.290000e-06	-2.491045e-06	-8.709732e-10	-1.733890e+01	-6.054387e+01
1.300000e-06	-2.449065e-06	-8.596794e-10	-1.704669e+01	-5.993273e+01
1.310000e-06	-2.406857e-06	-8.462791e-10	-1.675291e+01	-5.931778e+01
1.320000e-06	-2.364304e-06	-8.365860e-10	-1.645672e+01	-5.869888e+01
1.330000e-06	-2.321410e-06	-8.261306e-10	-1.615815e+01	-5.807587e+01
1.340000e-06	-2.278335e-06	-8.153689e-10	-1.585833e+01	-5.744856e+01
1.350000e-06	-2.235158e-06	-8.053921e-10	-1.555779e+01	-5.681675e+01
1.360000e-06	-2.191831e-06	-7.962658e-10	-1.525622e+01	-5.618020e+01
1.370000e-06	-2.148370e-06	-7.853147e-10	-1.495371e+01	-5.553866e+01
1.380000e-06	-2.104912e-06	-7.749670e-10	-1.465122e+01	-5.489183e+01
1.390000e-06	-2.061416e-06	-7.626726e-10	-1.434847e+01	-5.423941e+01
1.400000e-06	-2.017735e-06	-7.492164e-10	-1.404442e+01	-5.358106e+01
1.410000e-06	-1.973932e-06	-7.366641e-10	-1.373953e+01	-5.291642e+01
1.420000e-06	-1.930076e-06	-7.272819e-10	-1.343428e+01	-5.224511e+01
1.430000e-06	-1.886117e-06	-7.160446e-10	-1.312830e+01	-5.156671e+01
1.440000e-06	-1.842005e-06	-7.025363e-10	-1.282126e+01	-5.088080e+01
1.450000e-06	-1.797745e-06	-6.879992e-10	-1.251319e+01	-5.018692e+01
1.460000e-06	-1.753373e-06	-6.729980e-10	-1.220434e+01	-4.948460e+01
1.470000e-06	-1.708958e-06	-6.573585e-10	-1.189519e+01	-4.877334e+01
1.480000e-06	-1.664485e-06	-6.443746e-10	-1.158563e+01	-4.805264e+01
1.490000e-06	-1.619871e-06	-6.347611e-10	-1.127510e+01	-4.732195e+01
1.500000e-06	-1.575108e-06	-6.263161e-10	-1.096352e+01	-4.658074e+01
1.510000e-06	-1.530212e-06	-6.152541e-10	-1.065103e+01	-4.582846e+01
1.520000e-06	-1.485143e-06	-6.002964e-10	-1.033733e+01	-4.506453e+01
1.530000e-06	-1.439907e-06	-5.838781e-10	-1.002246e+01	-4.428839e+01
1.540000e-06	-1.394546e-06	-5.698478e-10	-9.706721e+00	-4.349944e+01
1.550000e-06	-1.349091e-06	-5.580799e-10	-9.390336e+00	-4.269712e+01
1.560000e-06	-1.303566e-06	-5.464636e-10	-9.073462e+00	-4.188082e+01
1.570000e-06	-1.257952e-06	-5.363289e-10	-8.755962e+00	-4.104997e+01
1.580000e-06	-1.212288e-06	-5.266652e-10	-8.438116e+00	-4.020400e+01
1.590000e-06	-1.166514e-06	-5.152166e-10	-8.119509e+00	-3.934233e+01
1.600000e-06	-1.120612e-06	-5.015370e-10	-7.800008e+00	-3.846440e+01
1.610000e-06	-1.074725e-06	-4.878208e-10	-7.480612e+00	-3.756968e+01
1.620000e-06	-1.028813e-06	-4.727401e-10	-7.161041e+00	-3.665764e+01
1.630000e-06	-9.828382e-07	-4.585294e-10	-6.841036e+00	-3.572778e+01
1.640000e-06	-9.368948e-07	-4.446468e-10	-6.521247e+00	-3.477963e+01
1.650000e-06	-8.908741e-07	-4.329940e-10	-6.200920e+00	-3.381272e+01
1.660000e-06	-8.446815e-07	-4.206517e-10	-5.879397e+00	-3.282666e+01
1.670000e-06	-7.984110e-07	-4.068637e-10	-5.557332e+00	-3.182105e+01
1.680000e-06	-7.521211e-07	-3.912106e-10	-5.235132e+00	-3.079556e+01
1.690000e-06	-7.057395e-07	-3.743351e-10	-4.912293e+00	-2.974989e+01
1.700000e-06	-6.592806e-07	-3.565246e-10	-4.588916e+00	-2.868378e+01
1.710000e-06	-6.128254e-07	-3.389132e-10	-4.265565e+00	-2.759703e+01
1.720000e-06	-5.663360e-07	-3.230811e-10	-3.941976e+00	-2.648949e+01
1.730000e-06	-5.197921e-07	-3.091683e-10	-3.618008e+00	-2.536105e+01
1.740000e-06	-4.732117e-07	-2.940897e-10	-3.293785e+00	-2.421167e+01
1.750000e-06	-4.266108e-07	-2.765033e-10	-2.969420e+00	-2.304136e+01
1.760000e-06	-3.800181e-07	-2.576698e-10	-2.645113e+00	-2.185021e+01
1.770000e-06	-3.333763e-07	-2.374704e-10	-2.320462e+00	-2.063836e+01
1.780000e-06	-2.865551e-07	-2.170367e-10	-1.994564e+00	-1.940600e+01
1.790000e-06	-2.396351e-07	-1.999015e-10	-1.667978e+00	-1.815341e+01
1.800000e-06	-1.927903e-07	-1.849323e-10	-1.341915e+00	-1.688093e+01
1.810000e-06	-1.459608e-07	-1.693052e-10	-1.015959e+00	-1.558896e+01
1.820000e-06	-9.911455e-08	-1.513866e-10	-6.898859e-01	-1.427797e+01
1.830000e-06	-5.230169e-08	-1.305207e-10	-3.640454e-01	-1.294850e+01
1.840000e-06	-5.542577e-09	-1.100534e-10	-3.857905e-02	-1.160115e+01
1.850000e-06	4.120738e-08	-9.030712e-11	2.868235e-01	-1.023660e+01
1.860000e-06	8.800898e-08	-6.989640e-11	6.125856e-01	-8.855591e+00
1.870000e-06	1.348334e-07	-4.829462e-11	9.385066e-01	-7.458912e+00
1.880000e-06	1.815921e-07	-2.916276e-11	1.263970e+00	-6.047426e+00
1.890000e-06	2.283852e-07	-1.308433e-11	1.589673e+00	-4.622055e+00
1.900000e-06	2.752315e-07	1.810700e-12	1.915746e+00	-3.183772e+00
1.910000e-06	3.220058e-07	2.023983e-11	2.241318e+00	-1.733608e+00
1.920000e-06	3.687247e-07	4.328906e-11	2.566505e+00	-2.726387e-01
1.930000e-06	4.153506e-07	6.829698e-11	2.891044e+00	1.198011e+00
1.940000e-06	4.619219e-07	9.264718e-11	3.215203e+00	2.677177e+00
1.950000e-06	5.085499e-07	1.151323e-10	3.539757e+00	4.163656e+00
1.960000e-06	5.551858e-07	1.355143e-10	3.864365e+00	5.656212e+00
1.970000e-06	6.017304e-07	1.552075e-10	4.188338e+00	7.153582e+00
1.980000e-06	6.481314e-07	1.736701e-10	4.511313e+00	8.654480e+00
1.990000e-06	6.944156e-07	1.899922e-10	4.833473e+00	1.015760e+01
2.000000e-06	7.406776e-07	2.081320e-10	5.155479e+00	1.166163e+01
2.010000e-06	7.869335e-07	2.288869e-10	5.477443e+00	1.316525e+01
2.020000e-06	8.331023e-07	2.513363e-10	5.798801e+00	1.466712e+01
2.030000e-06	8.791826e-07	2.763768e-10	6.119542e+00	1.616593e+01
2.040000e-06	9.252266e-07	3.009502e-10	6.440031e+00	1.766037e+01
2.050000e-06	9.712710e-07	3.230596e-10	6.760523e+00	1.914914e+01
2.060000e-06	1.017274e-06	3.432996e-10	7.080724e+00	2.063096e+01
2.070000e-06	1.063154e-06	3.625107e-10	7.400075e+00	2.210459e+01
2.080000e-06	1.108951e-06	3.820836e-10	7.718844e+00	2.356881e+01
2.090000e-06	1.154685e-06	4.031117e-10	8.037177e+00	2.502244e+01
2.100000e-06	1.200280e-06	4.250676e-10	8.354535e+00	2.646432e+01
2.110000e-06	1.245799e-06	4.464151e-10	8.671375e+00	2.789337e+01
2.120000e-06	1.291321e-06	4.665203e-10	8.988226e+00	2.930853e+01
2.130000e-06	1.336762e-06	4.855543e-10	9.304521e+00	3.070882e+01
2.140000e-06	1.382137e-06	5.038164e-10	9.620349e+00	3.209329e+01
2.150000e-06	1.427431e-06	5.212777e-10	9.935618e+00	3.346106e+01
2.160000e-06	1.472569e-06	5.388925e-10	1.024980e+01	3.481133e+01
2.170000e-06	1.517500e-06	5.571322e-10	1.056254e+01	3.614333e+01
2.180000e-06	1.562303e-06	5.765802e-10	1.087439e+01	3.745639e+01
2.190000e-06	1.607089e-06	5.961577e-10	1.118613e+01	3.874990e+01
2.200000e-06	1.651766e-06	6.142142e-10	1.149710e+01	4.002329e+01
2.210000e-06	1.696315e-06	6.300816e-10	1.180719e+01	4.127611e+01
2.220000e-06	1.740684e-06	6.431988e-10	1.211601e+01	4.250795e+01
2.230000e-06	1.784856e-06	6.556740e-10	1.242347e+01	4.371848e+01
2.240000e-06	1.828972e-06	6.699126e-10	1.273054e+01	4.490742e+01
2.250000e-06	1.873016e-06	6.871022e-10	1.303711e+01	4.607459e+01
2.260000e-06	1.916920e-06	7.078280e-10	1.334270e+01	4.721986e+01
2.270000e-06	1.960706e-06	7.280094e-10	1.364748e+01	4.834317e+01
2.280000e-06	2.004399e-06	7.440965e-10	1.395160e+01	4.944452e+01
2.290000e-06	2.048006e-06	7.564239e-10	1.425512e+01	5.052398e+01
2.300000e-06	2.091592e-06	7.666608e-10	1.455851e+01	5.158166e+01
2.310000e-06	2.135129e-06	7.775217e-10	1.486154e+01	5.261773e+01
2.320000e-06	2.178566e-06	7.913710e-10	1.516389e+01	5.363244e+01
2.330000e-06	2.221901e-06	8.070877e-10	1.546552e+01	5.462604e+01
2.340000e-06	2.265132e-06	8.226706e-10	1.576643e+01	5.559886e+01
2.350000e-06	2.308227e-06	8.367902e-10	1.606639e+01	5.655127e+01
2.360000e-06	2.351062e-06	8.499716e-10	1.636455e+01	5.748364e+01
2.370000e-06	2.393707e-06	8.631414e-10	1.666137e+01	5.839642e+01
2.380000e-06	2.436150e-06	8.751659e-10	1.695680e+01	5.929005e+01
2.390000e-06	2.478217e-06	8.870231e-10	1.724961e+01	6.016500e+01
2.400000e-06	2.519911e-06	8.981714e-10	1.753982e+01	6.102178e+01
2.410000e-06	2.561218e-06	9.094288e-10	1.782733e+01	6.186089e+01
2.420000e-06	2.602205e-06	9.210164e-10	1.811262e+01	6.268284e+01
2.430000e-06	2.642911e-06	9.306968e-10	1.839596e+01	6.348818e+01
2.440000e-06	2.683326e-06	9.402758e-10	1.867727e+01	6.427741e+01
2.450000e-06	2.723540e-06	9.498802e-10	1.895717e+01	6.505108e+01
2.460000e-06	2.763604e-06	9.621937e-10	1.923604e+01	6.580969e+01
2.470000e-06	2.803483e-06	9.751860e-10	1.951362e+01	6.655377e+01
2.480000e-06	2.843221e-06	9.872015e-10	1.979021e+01	6.728381e+01
2.490000e-06	2.882875e-06	9.959343e-10	2.006623e+01	6.800030e+01
2.500000e-06	2.922382e-06	1.001864e-09	2.034121e+01	6.870371e+01
2.510000e-06	2.961774e-06	1.009434e-09	2.061540e+01	6.939449e+01
2.520000e-06	3.001055e-06	1.018122e-09	2.088881e+01	7.007308e+01
2.530000e-06	3.040197e-06	1.028505e-09	2.116126e+01	7.073987e+01
2.540000e-06	3.079104e-06	1.041934e-09	2.143207e+01	7.139526e+01
2.550000e-06	3.117708e-06	1.055029e-09	2.170077e+01	7.203961e+01
2.560000e-06	3.156020e-06	1.066338e-09	2.196745e+01	7.267324e+01
2.570000e-06	3.194074e-06	1.076896e-09	2.223232e+01	7.329648e+01
2.580000e-06	3.231917e-06	1.086862e-09	2.249573e+01	7.390960e+01
2.590000e-06	3.269500e-06	1.095875e-09	2.275732e+01	7.451287e+01
2.600000e-06	3.306913e-06	1.103248e-09	2.301774e+01	7.510651e+01
2.610000e-06	3.344258e-06	1.109372e-09	2.327767e+01	7.569074e+01
2.620000e-06	3.381359e-06	1.114125e-09	2.353591e+01	7.626574e+01
2.630000e-06	3.418114e-06	1.121229e-09	2.379175e+01	7.683169e+01
2.640000e-06	3.454620e-06	1.130553e-09	2.404585e+01	7.738872e+01
2.650000e-06	3.490864e-06	1.141522e-09	2.429812e+01	7.793695e+01
2.660000e-06	3.526859e-06	1.151890e-09	2.454867e+01	7.847651e+01
2.670000e-06	3.562677e-06	1.159366e-09	2.479798e+01	7.900749e+01
2.680000e-06	3.598344e-06	1.164684e-09	2.504624e+01	7.952995e+01
2.690000e-06	3.633900e-06	1.168446e-09	2.529372e+01	8.004399e+01
2.700000e-06	3.669354e-06	1.172305e-09	2.554050e+01	8.054964e+01
2.710000e-06	3.704693e-06	1.180745e-09	2.578648e+01	8.104697e+01
2.720000e-06	3.739886e-06	1.191571e-09	2.603144e+01	8.153602e+01
2.730000e-06	3.774757e-06	1.203148e-09	2.627416e+01	8.201684e+01
2.740000e-06	3.809169e-06	1.213222e-09	2.651368e+01	8.248947e+01
2.750000e-06	3.843051e-06	1.220796e-09	2.674952e+01	8.295394e+01
2.760000e-06	3.876341e-06	1.226728e-09	2.698123e+01	8.341031e+01
2.770000e-06	3.909111e-06	1.229410e-09	2.720933e+01	8.385861e+01
2.780000e-06	3.941522e-06	1.233514e-09	2.743493e+01	8.429891e+01
2.790000e-06	3.973704e-06	1.239652e-09	2.765893e+01	8.473125e+01
2.800000e-06	4.005630e-06	1.246705e-09	2.788115e+01	8.515570e+01
2.810000e-06	4.037326e-06	1.254931e-09	2.810177e+01	8.557233e+01
2.820000e-06	4.068860e-06	1.261255e-09	2.832126e+01	8.598123e+01
2.830000e-06	4.100281e-06	1.267386e-09	2.853996e+01	8.638247e+01
2.840000e-06	4.131500e-06	1.269605e-09	2.875727e+01	8.677615e+01
2.850000e-06	4.162338e-06	1.268910e-09	2.897191e+01	8.716238e+01
2.860000e-06	4.192924e-06	1.271726e-09	2.918481e+01	8.754128e+01
2.870000e-06	4.223262e-06	1.278406e-09	2.939598e+01	8.791296e+01
2.880000e-06	4.253209e-06	1.288745e-09	2.960442e+01	8.827755e+01
2.890000e-06	4.282816e-06	1.296219e-09	2.981050e+01	8.863519e+01
2.900000e-06	4.312128e-06	1.300445e-09	3.001452e+01	8.898603e+01
2.910000e-06	4.341248e-06	1.301036e-09	3.021721e+01	8.933020e+01
