# Temperatura_=_-18.05
# Concentracion g/m^3_=_1620.0
# C_Vs_to_Am_M_A/Vsm_=_65563218390.804596
# pendiente_HvsI_1/m_=_3716.3
# ordenada_HvsI_A/m_=_1297.0
# frecuencia_Hz_=_135101.55258041775

Tiempo_(s)	Campo_(V.s)	Magnetizacion_(V.s)	Campo_(kA/m)	Magnetizacion_(A/m)
0.000000e+00	-5.525331e-06	-7.805163e-10	-3.837658e+01	-5.122752e+01
1.000000e-08	-5.525497e-06	-7.779259e-10	-3.837774e+01	-5.121316e+01
2.000000e-08	-5.525455e-06	-7.771199e-10	-3.837744e+01	-5.119595e+01
3.000000e-08	-5.525139e-06	-7.795987e-10	-3.837525e+01	-5.117588e+01
4.000000e-08	-5.524455e-06	-7.835614e-10	-3.837050e+01	-5.115295e+01
5.000000e-08	-5.523158e-06	-7.865375e-10	-3.836149e+01	-5.112715e+01
6.000000e-08	-5.521162e-06	-7.849310e-10	-3.834763e+01	-5.109853e+01
7.000000e-08	-5.518563e-06	-7.828591e-10	-3.832958e+01	-5.106710e+01
8.000000e-08	-5.515437e-06	-7.935594e-10	-3.830786e+01	-5.103294e+01
9.000000e-08	-5.511871e-06	-8.039021e-10	-3.828309e+01	-5.099610e+01
1.000000e-07	-5.507898e-06	-7.970579e-10	-3.825550e+01	-5.095668e+01
1.100000e-07	-5.503516e-06	-7.900574e-10	-3.822507e+01	-5.091478e+01
1.200000e-07	-5.498891e-06	-7.681123e-10	-3.819294e+01	-5.087052e+01
1.300000e-07	-5.494140e-06	-7.731451e-10	-3.815994e+01	-5.082402e+01
1.400000e-07	-5.489070e-06	-7.809673e-10	-3.812473e+01	-5.077545e+01
1.500000e-07	-5.483523e-06	-7.808925e-10	-3.808620e+01	-5.072494e+01
1.600000e-07	-5.477585e-06	-7.956660e-10	-3.804496e+01	-5.067269e+01
1.700000e-07	-5.471323e-06	-7.963478e-10	-3.800147e+01	-5.061886e+01
1.800000e-07	-5.464580e-06	-8.105935e-10	-3.795463e+01	-5.056365e+01
1.900000e-07	-5.457340e-06	-7.777221e-10	-3.790435e+01	-5.050725e+01
2.000000e-07	-5.449787e-06	-7.533121e-10	-3.785188e+01	-5.044988e+01
2.100000e-07	-5.442019e-06	-7.353351e-10	-3.779793e+01	-5.039174e+01
2.200000e-07	-5.434036e-06	-7.556196e-10	-3.774249e+01	-5.033304e+01
2.300000e-07	-5.425798e-06	-7.456362e-10	-3.768527e+01	-5.027400e+01
2.400000e-07	-5.417143e-06	-7.315948e-10	-3.762515e+01	-5.021483e+01
2.500000e-07	-5.407812e-06	-7.144916e-10	-3.756035e+01	-5.015573e+01
2.600000e-07	-5.397742e-06	-7.081327e-10	-3.749040e+01	-5.009692e+01
2.700000e-07	-5.387103e-06	-6.974455e-10	-3.741651e+01	-5.003858e+01
2.800000e-07	-5.376058e-06	-6.948642e-10	-3.733980e+01	-4.998092e+01
2.900000e-07	-5.364586e-06	-7.056281e-10	-3.726012e+01	-4.992410e+01
3.000000e-07	-5.352666e-06	-7.066924e-10	-3.717733e+01	-4.986830e+01
3.100000e-07	-5.340407e-06	-7.072525e-10	-3.709218e+01	-4.981367e+01
3.200000e-07	-5.327705e-06	-7.026007e-10	-3.700395e+01	-4.976036e+01
3.300000e-07	-5.314460e-06	-7.090795e-10	-3.691196e+01	-4.970848e+01
3.400000e-07	-5.300867e-06	-6.919015e-10	-3.681755e+01	-4.965815e+01
3.500000e-07	-5.286963e-06	-6.926148e-10	-3.672098e+01	-4.960945e+01
3.600000e-07	-5.272639e-06	-6.965722e-10	-3.662149e+01	-4.956245e+01
3.700000e-07	-5.257775e-06	-7.048238e-10	-3.651825e+01	-4.951721e+01
3.800000e-07	-5.242460e-06	-6.990804e-10	-3.641188e+01	-4.947375e+01
3.900000e-07	-5.226608e-06	-7.134553e-10	-3.630178e+01	-4.943209e+01
4.000000e-07	-5.210103e-06	-7.029426e-10	-3.618714e+01	-4.939221e+01
4.100000e-07	-5.193243e-06	-6.918122e-10	-3.607004e+01	-4.935410e+01
4.200000e-07	-5.176188e-06	-6.967713e-10	-3.595158e+01	-4.931769e+01
4.300000e-07	-5.158813e-06	-7.148273e-10	-3.583091e+01	-4.928293e+01
4.400000e-07	-5.141121e-06	-6.991454e-10	-3.570802e+01	-4.924972e+01
4.500000e-07	-5.123143e-06	-7.010381e-10	-3.558316e+01	-4.921796e+01
4.600000e-07	-5.104702e-06	-7.152929e-10	-3.545507e+01	-4.918754e+01
4.700000e-07	-5.085826e-06	-7.022333e-10	-3.532397e+01	-4.915832e+01
4.800000e-07	-5.066655e-06	-6.805508e-10	-3.519082e+01	-4.913015e+01
4.900000e-07	-5.047179e-06	-7.060006e-10	-3.505554e+01	-4.910287e+01
5.000000e-07	-5.027456e-06	-7.161080e-10	-3.491855e+01	-4.907632e+01
5.100000e-07	-5.007561e-06	-6.920374e-10	-3.478037e+01	-4.905030e+01
5.200000e-07	-4.987457e-06	-6.961204e-10	-3.464074e+01	-4.902464e+01
5.300000e-07	-4.967022e-06	-7.160311e-10	-3.449880e+01	-4.899915e+01
5.400000e-07	-4.946156e-06	-6.950943e-10	-3.435388e+01	-4.897364e+01
5.500000e-07	-4.924903e-06	-6.811027e-10	-3.420627e+01	-4.894790e+01
5.600000e-07	-4.903297e-06	-6.996829e-10	-3.405620e+01	-4.892175e+01
5.700000e-07	-4.881429e-06	-6.971834e-10	-3.390431e+01	-4.889499e+01
5.800000e-07	-4.859307e-06	-6.919388e-10	-3.375066e+01	-4.886744e+01
5.900000e-07	-4.836758e-06	-7.131583e-10	-3.359404e+01	-4.883892e+01
6.000000e-07	-4.813801e-06	-7.213381e-10	-3.343460e+01	-4.880925e+01
6.100000e-07	-4.790583e-06	-7.032536e-10	-3.327334e+01	-4.877826e+01
6.200000e-07	-4.767081e-06	-7.056536e-10	-3.311010e+01	-4.874582e+01
6.300000e-07	-4.743251e-06	-7.072044e-10	-3.294459e+01	-4.871177e+01
6.400000e-07	-4.719167e-06	-6.990298e-10	-3.277731e+01	-4.867599e+01
6.500000e-07	-4.694852e-06	-6.994172e-10	-3.260843e+01	-4.863835e+01
6.600000e-07	-4.670095e-06	-7.139542e-10	-3.243648e+01	-4.859877e+01
6.700000e-07	-4.644763e-06	-7.123543e-10	-3.226053e+01	-4.855716e+01
6.800000e-07	-4.618933e-06	-7.097910e-10	-3.208113e+01	-4.851343e+01
6.900000e-07	-4.592624e-06	-7.096871e-10	-3.189840e+01	-4.846755e+01
7.000000e-07	-4.565782e-06	-7.089515e-10	-3.171196e+01	-4.841946e+01
7.100000e-07	-4.538545e-06	-7.006475e-10	-3.152279e+01	-4.836915e+01
7.200000e-07	-4.511080e-06	-7.005076e-10	-3.133203e+01	-4.831660e+01
7.300000e-07	-4.483380e-06	-7.018166e-10	-3.113964e+01	-4.826181e+01
7.400000e-07	-4.455495e-06	-7.050925e-10	-3.094596e+01	-4.820481e+01
7.500000e-07	-4.427495e-06	-7.031524e-10	-3.075148e+01	-4.814561e+01
7.600000e-07	-4.399348e-06	-7.043070e-10	-3.055599e+01	-4.808425e+01
7.700000e-07	-4.370889e-06	-7.036738e-10	-3.035832e+01	-4.802079e+01
7.800000e-07	-4.341978e-06	-7.002298e-10	-3.015752e+01	-4.795528e+01
7.900000e-07	-4.312726e-06	-6.963988e-10	-2.995435e+01	-4.788777e+01
8.000000e-07	-4.283206e-06	-6.963280e-10	-2.974932e+01	-4.781833e+01
8.100000e-07	-4.253394e-06	-6.912413e-10	-2.954225e+01	-4.774703e+01
8.200000e-07	-4.223323e-06	-6.840056e-10	-2.933339e+01	-4.767395e+01
8.300000e-07	-4.192993e-06	-6.817859e-10	-2.912273e+01	-4.759914e+01
8.400000e-07	-4.162282e-06	-6.814026e-10	-2.890943e+01	-4.752268e+01
8.500000e-07	-4.131204e-06	-6.813329e-10	-2.869357e+01	-4.744463e+01
8.600000e-07	-4.099915e-06	-6.833557e-10	-2.847625e+01	-4.736504e+01
8.700000e-07	-4.068467e-06	-6.855452e-10	-2.825783e+01	-4.728396e+01
8.800000e-07	-4.036825e-06	-6.834271e-10	-2.803805e+01	-4.720144e+01
8.900000e-07	-4.004956e-06	-6.811712e-10	-2.781671e+01	-4.711751e+01
9.000000e-07	-3.972916e-06	-6.746811e-10	-2.759417e+01	-4.703217e+01
9.100000e-07	-3.940629e-06	-6.689281e-10	-2.736992e+01	-4.694544e+01
9.200000e-07	-3.908029e-06	-6.671746e-10	-2.714349e+01	-4.685731e+01
9.300000e-07	-3.875030e-06	-6.695699e-10	-2.691430e+01	-4.676775e+01
9.400000e-07	-3.841489e-06	-6.697238e-10	-2.668134e+01	-4.667673e+01
9.500000e-07	-3.807465e-06	-6.710842e-10	-2.644502e+01	-4.658419e+01
9.600000e-07	-3.773082e-06	-6.705555e-10	-2.620621e+01	-4.649007e+01
9.700000e-07	-3.738300e-06	-6.667066e-10	-2.596463e+01	-4.639427e+01
9.800000e-07	-3.703133e-06	-6.602512e-10	-2.572038e+01	-4.629670e+01
9.900000e-07	-3.667662e-06	-6.590865e-10	-2.547401e+01	-4.619724e+01
1.000000e-06	-3.631992e-06	-6.582465e-10	-2.522626e+01	-4.609575e+01
1.010000e-06	-3.596253e-06	-6.601251e-10	-2.497803e+01	-4.599209e+01
1.020000e-06	-3.560404e-06	-6.618167e-10	-2.472904e+01	-4.588610e+01
1.030000e-06	-3.524391e-06	-6.599145e-10	-2.447891e+01	-4.577762e+01
1.040000e-06	-3.488210e-06	-6.529746e-10	-2.422761e+01	-4.566644e+01
1.050000e-06	-3.451800e-06	-6.512115e-10	-2.397473e+01	-4.555240e+01
1.060000e-06	-3.415123e-06	-6.501777e-10	-2.371998e+01	-4.543527e+01
1.070000e-06	-3.378136e-06	-6.470580e-10	-2.346309e+01	-4.531487e+01
1.080000e-06	-3.340910e-06	-6.445976e-10	-2.320453e+01	-4.519097e+01
1.090000e-06	-3.303462e-06	-6.463161e-10	-2.294443e+01	-4.506337e+01
1.100000e-06	-3.265751e-06	-6.468719e-10	-2.268250e+01	-4.493184e+01
1.110000e-06	-3.227762e-06	-6.434409e-10	-2.241865e+01	-4.479619e+01
1.120000e-06	-3.189536e-06	-6.406758e-10	-2.215315e+01	-4.465618e+01
1.130000e-06	-3.151091e-06	-6.374625e-10	-2.188612e+01	-4.451162e+01
1.140000e-06	-3.112449e-06	-6.328595e-10	-2.161774e+01	-4.436231e+01
1.150000e-06	-3.073545e-06	-6.312014e-10	-2.134753e+01	-4.420805e+01
1.160000e-06	-3.034347e-06	-6.324971e-10	-2.107527e+01	-4.404866e+01
1.170000e-06	-2.994975e-06	-6.315671e-10	-2.080182e+01	-4.388396e+01
1.180000e-06	-2.955487e-06	-6.302845e-10	-2.052754e+01	-4.371379e+01
1.190000e-06	-2.915903e-06	-6.293289e-10	-2.025261e+01	-4.353800e+01
1.200000e-06	-2.876166e-06	-6.260351e-10	-1.997662e+01	-4.335647e+01
1.210000e-06	-2.836310e-06	-6.204732e-10	-1.969979e+01	-4.316906e+01
1.220000e-06	-2.796340e-06	-6.169337e-10	-1.942218e+01	-4.297567e+01
1.230000e-06	-2.756179e-06	-6.135480e-10	-1.914324e+01	-4.277621e+01
1.240000e-06	-2.715809e-06	-6.094467e-10	-1.886284e+01	-4.257061e+01
1.250000e-06	-2.675254e-06	-6.047434e-10	-1.858117e+01	-4.235881e+01
1.260000e-06	-2.634456e-06	-6.040290e-10	-1.829780e+01	-4.214076e+01
1.270000e-06	-2.593366e-06	-6.030120e-10	-1.801241e+01	-4.191643e+01
1.280000e-06	-2.552017e-06	-5.999855e-10	-1.772522e+01	-4.168581e+01
1.290000e-06	-2.510383e-06	-5.966544e-10	-1.743604e+01	-4.144889e+01
1.300000e-06	-2.468458e-06	-5.936477e-10	-1.714485e+01	-4.120568e+01
1.310000e-06	-2.426278e-06	-5.869541e-10	-1.685188e+01	-4.095619e+01
1.320000e-06	-2.383713e-06	-5.794918e-10	-1.655625e+01	-4.070045e+01
1.330000e-06	-2.340911e-06	-5.736010e-10	-1.625897e+01	-4.043849e+01
1.340000e-06	-2.297995e-06	-5.698115e-10	-1.596089e+01	-4.017035e+01
1.350000e-06	-2.254833e-06	-5.691195e-10	-1.566110e+01	-3.989606e+01
1.360000e-06	-2.211469e-06	-5.707823e-10	-1.535991e+01	-3.961567e+01
1.370000e-06	-2.167975e-06	-5.703576e-10	-1.505783e+01	-3.932920e+01
1.380000e-06	-2.124385e-06	-5.668443e-10	-1.475507e+01	-3.903669e+01
1.390000e-06	-2.080719e-06	-5.606823e-10	-1.445179e+01	-3.873817e+01
1.400000e-06	-2.037004e-06	-5.536563e-10	-1.414816e+01	-3.843365e+01
1.410000e-06	-1.993238e-06	-5.475264e-10	-1.384417e+01	-3.812314e+01
1.420000e-06	-1.949342e-06	-5.434054e-10	-1.353930e+01	-3.780663e+01
1.430000e-06	-1.905276e-06	-5.411133e-10	-1.323323e+01	-3.748410e+01
1.440000e-06	-1.861125e-06	-5.378956e-10	-1.292658e+01	-3.715550e+01
1.450000e-06	-1.816917e-06	-5.350860e-10	-1.261952e+01	-3.682079e+01
1.460000e-06	-1.772562e-06	-5.323147e-10	-1.231146e+01	-3.647989e+01
1.470000e-06	-1.728065e-06	-5.286311e-10	-1.200240e+01	-3.613268e+01
1.480000e-06	-1.683429e-06	-5.228460e-10	-1.169237e+01	-3.577907e+01
1.490000e-06	-1.638717e-06	-5.163681e-10	-1.138182e+01	-3.541888e+01
1.500000e-06	-1.593872e-06	-5.096776e-10	-1.107035e+01	-3.505197e+01
1.510000e-06	-1.548784e-06	-5.031066e-10	-1.075719e+01	-3.467813e+01
1.520000e-06	-1.503548e-06	-4.976284e-10	-1.044300e+01	-3.429715e+01
1.530000e-06	-1.458280e-06	-4.936644e-10	-1.012859e+01	-3.390878e+01
1.540000e-06	-1.412954e-06	-4.914471e-10	-9.813773e+00	-3.351275e+01
1.550000e-06	-1.367441e-06	-4.891256e-10	-9.497659e+00	-3.310879e+01
1.560000e-06	-1.321830e-06	-4.852889e-10	-9.180863e+00	-3.269657e+01
1.570000e-06	-1.276229e-06	-4.793282e-10	-8.864141e+00	-3.227577e+01
1.580000e-06	-1.230556e-06	-4.719423e-10	-8.546913e+00	-3.184604e+01
1.590000e-06	-1.184747e-06	-4.619147e-10	-8.228745e+00	-3.140702e+01
1.600000e-06	-1.138857e-06	-4.503588e-10	-7.910010e+00	-3.095832e+01
1.610000e-06	-1.092893e-06	-4.412393e-10	-7.590764e+00	-3.049956e+01
1.620000e-06	-1.046855e-06	-4.313814e-10	-7.271003e+00	-3.003034e+01
1.630000e-06	-1.000772e-06	-4.215215e-10	-6.950933e+00	-2.955027e+01
1.640000e-06	-9.544148e-07	-4.143705e-10	-6.628956e+00	-2.905892e+01
1.650000e-06	-9.079490e-07	-4.081903e-10	-6.306225e+00	-2.855591e+01
1.660000e-06	-8.616146e-07	-3.990081e-10	-5.984405e+00	-2.804083e+01
1.670000e-06	-8.152723e-07	-3.878061e-10	-5.662532e+00	-2.751330e+01
1.680000e-06	-7.688850e-07	-3.774276e-10	-5.340346e+00	-2.697294e+01
1.690000e-06	-7.224449e-07	-3.690616e-10	-5.017793e+00	-2.641939e+01
1.700000e-06	-6.759103e-07	-3.612005e-10	-4.694583e+00	-2.585231e+01
1.710000e-06	-6.292463e-07	-3.527170e-10	-4.370475e+00	-2.527138e+01
1.720000e-06	-5.825296e-07	-3.441335e-10	-4.046001e+00	-2.467631e+01
1.730000e-06	-5.358186e-07	-3.350918e-10	-3.721566e+00	-2.406685e+01
1.740000e-06	-4.891751e-07	-3.244334e-10	-3.397601e+00	-2.344278e+01
1.750000e-06	-4.425523e-07	-3.124524e-10	-3.073778e+00	-2.280390e+01
1.760000e-06	-3.957981e-07	-3.018406e-10	-2.749044e+00	-2.215007e+01
1.770000e-06	-3.489949e-07	-2.930106e-10	-2.423969e+00	-2.148118e+01
1.780000e-06	-3.022439e-07	-2.843315e-10	-2.099256e+00	-2.079718e+01
1.790000e-06	-2.554655e-07	-2.756073e-10	-1.774354e+00	-2.009807e+01
1.800000e-06	-2.085708e-07	-2.666019e-10	-1.448643e+00	-1.938387e+01
1.810000e-06	-1.616549e-07	-2.558971e-10	-1.122786e+00	-1.865468e+01
1.820000e-06	-1.147373e-07	-2.431741e-10	-7.969161e-01	-1.791065e+01
1.830000e-06	-6.778595e-08	-2.288345e-10	-4.708121e-01	-1.715198e+01
1.840000e-06	-2.097472e-08	-2.141406e-10	-1.456814e-01	-1.637890e+01
1.850000e-06	2.576062e-08	-2.010943e-10	1.789222e-01	-1.559173e+01
1.860000e-06	7.261952e-08	-1.915365e-10	5.043841e-01	-1.479083e+01
1.870000e-06	1.195739e-07	-1.828808e-10	8.305094e-01	-1.397661e+01
1.880000e-06	1.665083e-07	-1.754281e-10	1.156495e+00	-1.314953e+01
1.890000e-06	2.133923e-07	-1.681900e-10	1.482132e+00	-1.231010e+01
1.900000e-06	2.601861e-07	-1.578882e-10	1.807141e+00	-1.145889e+01
1.910000e-06	3.069595e-07	-1.453523e-10	2.132009e+00	-1.059650e+01
1.920000e-06	3.537848e-07	-1.306053e-10	2.457237e+00	-9.723590e+00
1.930000e-06	4.005005e-07	-1.137195e-10	2.781705e+00	-8.840846e+00
1.940000e-06	4.471740e-07	-9.873276e-11	3.105879e+00	-7.949002e+00
1.950000e-06	4.938273e-07	-8.627546e-11	3.429913e+00	-7.048822e+00
1.960000e-06	5.404272e-07	-7.526598e-11	3.753576e+00	-6.141104e+00
1.970000e-06	5.869739e-07	-6.557428e-11	4.076869e+00	-5.226670e+00
1.980000e-06	6.334865e-07	-5.588742e-11	4.399925e+00	-4.306368e+00
1.990000e-06	6.799708e-07	-4.586192e-11	4.722786e+00	-3.381063e+00
2.000000e-06	7.264070e-07	-3.483030e-11	5.045311e+00	-2.451636e+00
2.010000e-06	7.728343e-07	-1.941463e-11	5.367776e+00	-1.518979e+00
2.020000e-06	8.191870e-07	-3.475064e-12	5.689722e+00	-5.839887e-01
2.030000e-06	8.654622e-07	1.229477e-11	6.011130e+00	3.524340e-01
2.040000e-06	9.116220e-07	2.843960e-11	6.331736e+00	1.289392e+00
2.050000e-06	9.577557e-07	4.024613e-11	6.652161e+00	2.225993e+00
2.060000e-06	1.003854e-06	4.983443e-11	6.972336e+00	3.161357e+00
2.070000e-06	1.049851e-06	5.881674e-11	7.291816e+00	4.094618e+00
2.080000e-06	1.095826e-06	6.947177e-11	7.611141e+00	5.024927e+00
2.090000e-06	1.141687e-06	8.234038e-11	7.929665e+00	5.951457e+00
2.100000e-06	1.187450e-06	1.000222e-10	8.247516e+00	6.873407e+00
2.110000e-06	1.233149e-06	1.198133e-10	8.564924e+00	7.790003e+00
2.120000e-06	1.278657e-06	1.362390e-10	8.881005e+00	8.700503e+00
2.130000e-06	1.324076e-06	1.489937e-10	9.196461e+00	9.604199e+00
2.140000e-06	1.369437e-06	1.588106e-10	9.511520e+00	1.050042e+01
2.150000e-06	1.414727e-06	1.661546e-10	9.826085e+00	1.138852e+01
2.160000e-06	1.460001e-06	1.739989e-10	1.014054e+01	1.226792e+01
2.170000e-06	1.505183e-06	1.864563e-10	1.045436e+01	1.313805e+01
2.180000e-06	1.550134e-06	2.001039e-10	1.076657e+01	1.399840e+01
2.190000e-06	1.594902e-06	2.140825e-10	1.107751e+01	1.484850e+01
2.200000e-06	1.639640e-06	2.292754e-10	1.138824e+01	1.568792e+01
2.210000e-06	1.684269e-06	2.417524e-10	1.169821e+01	1.651627e+01
2.220000e-06	1.728669e-06	2.512275e-10	1.200659e+01	1.733322e+01
2.230000e-06	1.772940e-06	2.586409e-10	1.231408e+01	1.813845e+01
2.240000e-06	1.817165e-06	2.671431e-10	1.262125e+01	1.893170e+01
2.250000e-06	1.861303e-06	2.777676e-10	1.292782e+01	1.971276e+01
2.260000e-06	1.905347e-06	2.900411e-10	1.323372e+01	2.048143e+01
2.270000e-06	1.949292e-06	3.025665e-10	1.353895e+01	2.123757e+01
2.280000e-06	1.993165e-06	3.132998e-10	1.384367e+01	2.198106e+01
2.290000e-06	2.036968e-06	3.241581e-10	1.414791e+01	2.271183e+01
2.300000e-06	2.080693e-06	3.349663e-10	1.445160e+01	2.342982e+01
2.310000e-06	2.124343e-06	3.438162e-10	1.475477e+01	2.413501e+01
2.320000e-06	2.167933e-06	3.530111e-10	1.505753e+01	2.482740e+01
2.330000e-06	2.211490e-06	3.638236e-10	1.536006e+01	2.550703e+01
2.340000e-06	2.254948e-06	3.734647e-10	1.566190e+01	2.617395e+01
2.350000e-06	2.298165e-06	3.834595e-10	1.596207e+01	2.682821e+01
2.360000e-06	2.341152e-06	3.945855e-10	1.626064e+01	2.746991e+01
2.370000e-06	2.383880e-06	4.046246e-10	1.655741e+01	2.809914e+01
2.380000e-06	2.426246e-06	4.126144e-10	1.685166e+01	2.871602e+01
2.390000e-06	2.468344e-06	4.196449e-10	1.714406e+01	2.932067e+01
2.400000e-06	2.510138e-06	4.253105e-10	1.743434e+01	2.991320e+01
2.410000e-06	2.551601e-06	4.312918e-10	1.772233e+01	3.049376e+01
2.420000e-06	2.592885e-06	4.400382e-10	1.800907e+01	3.106248e+01
2.430000e-06	2.633892e-06	4.509134e-10	1.829389e+01	3.161951e+01
2.440000e-06	2.674561e-06	4.601430e-10	1.857636e+01	3.216497e+01
2.450000e-06	2.715023e-06	4.671491e-10	1.885738e+01	3.269901e+01
2.460000e-06	2.755282e-06	4.739410e-10	1.913701e+01	3.322177e+01
2.470000e-06	2.795337e-06	4.793324e-10	1.941522e+01	3.373337e+01
2.480000e-06	2.835236e-06	4.838423e-10	1.969234e+01	3.423395e+01
2.490000e-06	2.875020e-06	4.880133e-10	1.996866e+01	3.472364e+01
2.500000e-06	2.914708e-06	4.950063e-10	2.024432e+01	3.520255e+01
2.510000e-06	2.954267e-06	5.056796e-10	2.051907e+01	3.567080e+01
2.520000e-06	2.993599e-06	5.156676e-10	2.079226e+01	3.612850e+01
2.530000e-06	3.032629e-06	5.230415e-10	2.106334e+01	3.657575e+01
2.540000e-06	3.071526e-06	5.298607e-10	2.133351e+01	3.701267e+01
2.550000e-06	3.110339e-06	5.373013e-10	2.160308e+01	3.743933e+01
2.560000e-06	3.148907e-06	5.413017e-10	2.187096e+01	3.785585e+01
2.570000e-06	3.187175e-06	5.431212e-10	2.213675e+01	3.826231e+01
2.580000e-06	3.225210e-06	5.484527e-10	2.240093e+01	3.865880e+01
2.590000e-06	3.263157e-06	5.562583e-10	2.266449e+01	3.904540e+01
2.600000e-06	3.300955e-06	5.619920e-10	2.292702e+01	3.942220e+01
2.610000e-06	3.338453e-06	5.661454e-10	2.318746e+01	3.978929e+01
2.620000e-06	3.375614e-06	5.715339e-10	2.344557e+01	4.014676e+01
2.630000e-06	3.412463e-06	5.780766e-10	2.370150e+01	4.049470e+01
2.640000e-06	3.449048e-06	5.839625e-10	2.395561e+01	4.083320e+01
2.650000e-06	3.485469e-06	5.888243e-10	2.420857e+01	4.116236e+01
2.660000e-06	3.521697e-06	5.935751e-10	2.446020e+01	4.148229e+01
2.670000e-06	3.557717e-06	5.959047e-10	2.471038e+01	4.179308e+01
2.680000e-06	3.593618e-06	5.965696e-10	2.495973e+01	4.209487e+01
2.690000e-06	3.629358e-06	5.979877e-10	2.520796e+01	4.238776e+01
2.700000e-06	3.664914e-06	6.001570e-10	2.545492e+01	4.267189e+01
2.710000e-06	3.700335e-06	6.057612e-10	2.570094e+01	4.294740e+01
2.720000e-06	3.735576e-06	6.138998e-10	2.594571e+01	4.321443e+01
2.730000e-06	3.770499e-06	6.187725e-10	2.618827e+01	4.347314e+01
2.740000e-06	3.804969e-06	6.202299e-10	2.642768e+01	4.372370e+01
2.750000e-06	3.838979e-06	6.210578e-10	2.666390e+01	4.396626e+01
2.760000e-06	3.872460e-06	6.220536e-10	2.689645e+01	4.420102e+01
2.770000e-06	3.905412e-06	6.222233e-10	2.712532e+01	4.442817e+01
2.780000e-06	3.938051e-06	6.244056e-10	2.735202e+01	4.464789e+01
2.790000e-06	3.970401e-06	6.293905e-10	2.757670e+01	4.486039e+01
2.800000e-06	4.002466e-06	6.335299e-10	2.779941e+01	4.506588e+01
2.810000e-06	4.034342e-06	6.355452e-10	2.802081e+01	4.526458e+01
2.820000e-06	4.066078e-06	6.354150e-10	2.824123e+01	4.545671e+01
2.830000e-06	4.097678e-06	6.353800e-10	2.846071e+01	4.564249e+01
2.840000e-06	4.129013e-06	6.376435e-10	2.867835e+01	4.582215e+01
2.850000e-06	4.160069e-06	6.412414e-10	2.889405e+01	4.599591e+01
2.860000e-06	4.190849e-06	6.455131e-10	2.910784e+01	4.616402e+01
2.870000e-06	4.221299e-06	6.511727e-10	2.931933e+01	4.632669e+01
2.880000e-06	4.251452e-06	6.530809e-10	2.952877e+01	4.648416e+01
2.890000e-06	4.281272e-06	6.527616e-10	2.973588e+01	4.663665e+01
2.900000e-06	4.310795e-06	6.502410e-10	2.994093e+01	4.678438e+01
