# Temperatura_=_-0.7
# Concentracion g/m^3_=_1620.0
# C_Vs_to_Am_M_A/Vsm_=_65563218390.804596
# pendiente_HvsI_1/m_=_3716.3
# ordenada_HvsI_A/m_=_1297.0
# frecuencia_Hz_=_135096.78420650915

Tiempo_(s)	Campo_(V.s)	Magnetizacion_(V.s)	Campo_(kA/m)	Magnetizacion_(A/m)
0.000000e+00	-5.532462e-06	-1.295692e-09	-3.837771e+01	-8.461384e+01
1.000000e-08	-5.532662e-06	-1.289782e-09	-3.837910e+01	-8.457415e+01
2.000000e-08	-5.532627e-06	-1.286117e-09	-3.837886e+01	-8.453306e+01
3.000000e-08	-5.532312e-06	-1.286479e-09	-3.837668e+01	-8.449063e+01
4.000000e-08	-5.531599e-06	-1.288176e-09	-3.837173e+01	-8.444693e+01
5.000000e-08	-5.530312e-06	-1.291232e-09	-3.836280e+01	-8.440198e+01
6.000000e-08	-5.528473e-06	-1.298851e-09	-3.835005e+01	-8.435582e+01
7.000000e-08	-5.526002e-06	-1.293650e-09	-3.833290e+01	-8.430846e+01
8.000000e-08	-5.522859e-06	-1.277591e-09	-3.831111e+01	-8.425992e+01
9.000000e-08	-5.519247e-06	-1.253308e-09	-3.828604e+01	-8.421020e+01
1.000000e-07	-5.515279e-06	-1.284619e-09	-3.825852e+01	-8.415928e+01
1.100000e-07	-5.510948e-06	-1.317684e-09	-3.822848e+01	-8.410713e+01
1.200000e-07	-5.506304e-06	-1.291586e-09	-3.819626e+01	-8.405373e+01
1.300000e-07	-5.501433e-06	-1.229807e-09	-3.816248e+01	-8.399902e+01
1.400000e-07	-5.496324e-06	-1.268866e-09	-3.812704e+01	-8.394294e+01
1.500000e-07	-5.490820e-06	-1.304668e-09	-3.808886e+01	-8.388543e+01
1.600000e-07	-5.484990e-06	-1.322222e-09	-3.804842e+01	-8.382641e+01
1.700000e-07	-5.478865e-06	-1.229751e-09	-3.800592e+01	-8.376580e+01
1.800000e-07	-5.472254e-06	-1.249762e-09	-3.796006e+01	-8.370348e+01
1.900000e-07	-5.465115e-06	-1.275626e-09	-3.791054e+01	-8.363938e+01
2.000000e-07	-5.457600e-06	-1.307515e-09	-3.785841e+01	-8.357336e+01
2.100000e-07	-5.449850e-06	-1.259424e-09	-3.780465e+01	-8.350531e+01
2.200000e-07	-5.441932e-06	-1.271319e-09	-3.774972e+01	-8.343512e+01
2.300000e-07	-5.433754e-06	-1.292704e-09	-3.769299e+01	-8.336265e+01
2.400000e-07	-5.425298e-06	-1.283078e-09	-3.763434e+01	-8.328778e+01
2.500000e-07	-5.416289e-06	-1.251839e-09	-3.757184e+01	-8.321037e+01
2.600000e-07	-5.406398e-06	-1.242296e-09	-3.750323e+01	-8.313030e+01
2.700000e-07	-5.395847e-06	-1.279617e-09	-3.743004e+01	-8.304742e+01
2.800000e-07	-5.384833e-06	-1.266997e-09	-3.735364e+01	-8.296161e+01
2.900000e-07	-5.373356e-06	-1.261417e-09	-3.727403e+01	-8.287274e+01
3.000000e-07	-5.361484e-06	-1.232865e-09	-3.719167e+01	-8.278068e+01
3.100000e-07	-5.349328e-06	-1.266516e-09	-3.710735e+01	-8.268532e+01
3.200000e-07	-5.336777e-06	-1.233476e-09	-3.702029e+01	-8.258654e+01
3.300000e-07	-5.323731e-06	-1.240988e-09	-3.692979e+01	-8.248424e+01
3.400000e-07	-5.310258e-06	-1.213422e-09	-3.683632e+01	-8.237830e+01
3.500000e-07	-5.296470e-06	-1.251540e-09	-3.674068e+01	-8.226865e+01
3.600000e-07	-5.282271e-06	-1.230706e-09	-3.664219e+01	-8.215520e+01
3.700000e-07	-5.267401e-06	-1.242059e-09	-3.653903e+01	-8.203788e+01
3.800000e-07	-5.252029e-06	-1.227095e-09	-3.643240e+01	-8.191662e+01
3.900000e-07	-5.236229e-06	-1.239893e-09	-3.632280e+01	-8.179137e+01
4.000000e-07	-5.219930e-06	-1.201160e-09	-3.620973e+01	-8.166211e+01
4.100000e-07	-5.203354e-06	-1.207402e-09	-3.609475e+01	-8.152879e+01
4.200000e-07	-5.186433e-06	-1.227630e-09	-3.597737e+01	-8.139140e+01
4.300000e-07	-5.169010e-06	-1.224636e-09	-3.585651e+01	-8.124995e+01
4.400000e-07	-5.151279e-06	-1.185267e-09	-3.573352e+01	-8.110443e+01
4.500000e-07	-5.133347e-06	-1.208094e-09	-3.560913e+01	-8.095487e+01
4.600000e-07	-5.114979e-06	-1.226447e-09	-3.548171e+01	-8.080129e+01
4.700000e-07	-5.096166e-06	-1.189162e-09	-3.535121e+01	-8.064375e+01
4.800000e-07	-5.077048e-06	-1.176576e-09	-3.521859e+01	-8.048229e+01
4.900000e-07	-5.057607e-06	-1.213571e-09	-3.508373e+01	-8.031697e+01
5.000000e-07	-5.037909e-06	-1.204491e-09	-3.494709e+01	-8.014786e+01
5.100000e-07	-5.018061e-06	-1.172446e-09	-3.480941e+01	-7.997505e+01
5.200000e-07	-4.998001e-06	-1.201976e-09	-3.467026e+01	-7.979861e+01
5.300000e-07	-4.977535e-06	-1.201237e-09	-3.452829e+01	-7.961864e+01
5.400000e-07	-4.956591e-06	-1.163394e-09	-3.438300e+01	-7.943523e+01
5.500000e-07	-4.935285e-06	-1.169253e-09	-3.423520e+01	-7.924849e+01
5.600000e-07	-4.913689e-06	-1.205399e-09	-3.408540e+01	-7.905852e+01
5.700000e-07	-4.891811e-06	-1.173681e-09	-3.393364e+01	-7.886541e+01
5.800000e-07	-4.869569e-06	-1.172052e-09	-3.377934e+01	-7.866928e+01
5.900000e-07	-4.846902e-06	-1.196545e-09	-3.362211e+01	-7.847023e+01
6.000000e-07	-4.823912e-06	-1.186865e-09	-3.346263e+01	-7.826836e+01
6.100000e-07	-4.800668e-06	-1.154709e-09	-3.330139e+01	-7.806376e+01
6.200000e-07	-4.777168e-06	-1.179443e-09	-3.313838e+01	-7.785653e+01
6.300000e-07	-4.753422e-06	-1.169589e-09	-3.297365e+01	-7.764675e+01
6.400000e-07	-4.729414e-06	-1.153889e-09	-3.280711e+01	-7.743450e+01
6.500000e-07	-4.705142e-06	-1.159790e-09	-3.263874e+01	-7.721985e+01
6.600000e-07	-4.680456e-06	-1.170912e-09	-3.246750e+01	-7.700287e+01
6.700000e-07	-4.655199e-06	-1.146041e-09	-3.229230e+01	-7.678360e+01
6.800000e-07	-4.629455e-06	-1.153919e-09	-3.211372e+01	-7.656209e+01
6.900000e-07	-4.603104e-06	-1.153571e-09	-3.193092e+01	-7.633837e+01
7.000000e-07	-4.576169e-06	-1.140410e-09	-3.174408e+01	-7.611244e+01
7.100000e-07	-4.548930e-06	-1.132609e-09	-3.155513e+01	-7.588432e+01
7.200000e-07	-4.521474e-06	-1.138998e-09	-3.136467e+01	-7.565399e+01
7.300000e-07	-4.493848e-06	-1.121829e-09	-3.117303e+01	-7.542144e+01
7.400000e-07	-4.466044e-06	-1.117063e-09	-3.098016e+01	-7.518663e+01
7.500000e-07	-4.438016e-06	-1.117715e-09	-3.078574e+01	-7.494952e+01
7.600000e-07	-4.409728e-06	-1.111421e-09	-3.058951e+01	-7.471003e+01
7.700000e-07	-4.381157e-06	-1.109385e-09	-3.039132e+01	-7.446809e+01
7.800000e-07	-4.352242e-06	-1.114353e-09	-3.019074e+01	-7.422363e+01
7.900000e-07	-4.322943e-06	-1.105234e-09	-2.998749e+01	-7.397654e+01
8.000000e-07	-4.293355e-06	-1.094425e-09	-2.978225e+01	-7.372672e+01
8.100000e-07	-4.263439e-06	-1.096147e-09	-2.957472e+01	-7.347404e+01
8.200000e-07	-4.233157e-06	-1.084222e-09	-2.936467e+01	-7.321838e+01
8.300000e-07	-4.202641e-06	-1.072319e-09	-2.915299e+01	-7.295960e+01
8.400000e-07	-4.171845e-06	-1.071958e-09	-2.893936e+01	-7.269756e+01
8.500000e-07	-4.140708e-06	-1.076570e-09	-2.872337e+01	-7.243212e+01
8.600000e-07	-4.109281e-06	-1.068292e-09	-2.850536e+01	-7.216312e+01
8.700000e-07	-4.077714e-06	-1.069209e-09	-2.828639e+01	-7.189040e+01
8.800000e-07	-4.046102e-06	-1.063878e-09	-2.806710e+01	-7.161380e+01
8.900000e-07	-4.014301e-06	-1.056187e-09	-2.784650e+01	-7.133318e+01
9.000000e-07	-3.982308e-06	-1.042740e-09	-2.762457e+01	-7.104838e+01
9.100000e-07	-3.950081e-06	-1.040754e-09	-2.740102e+01	-7.075923e+01
9.200000e-07	-3.917415e-06	-1.030636e-09	-2.717442e+01	-7.046560e+01
9.300000e-07	-3.884337e-06	-1.023297e-09	-2.694497e+01	-7.016733e+01
9.400000e-07	-3.850823e-06	-1.019036e-09	-2.671248e+01	-6.986429e+01
9.500000e-07	-3.816748e-06	-1.019741e-09	-2.647611e+01	-6.955636e+01
9.600000e-07	-3.782230e-06	-1.010833e-09	-2.623666e+01	-6.924340e+01
9.700000e-07	-3.747434e-06	-1.007036e-09	-2.599529e+01	-6.892532e+01
9.800000e-07	-3.712376e-06	-1.001936e-09	-2.575210e+01	-6.860200e+01
9.900000e-07	-3.677060e-06	-9.969338e-10	-2.550712e+01	-6.827338e+01
1.000000e-06	-3.641556e-06	-9.881894e-10	-2.526083e+01	-6.793937e+01
1.010000e-06	-3.605875e-06	-9.868637e-10	-2.501332e+01	-6.759991e+01
1.020000e-06	-3.570042e-06	-9.828014e-10	-2.476475e+01	-6.725496e+01
1.030000e-06	-3.534079e-06	-9.768609e-10	-2.451529e+01	-6.690449e+01
1.040000e-06	-3.497930e-06	-9.691158e-10	-2.426452e+01	-6.654848e+01
1.050000e-06	-3.461422e-06	-9.641081e-10	-2.401128e+01	-6.618693e+01
1.060000e-06	-3.424580e-06	-9.588993e-10	-2.375571e+01	-6.581985e+01
1.070000e-06	-3.387588e-06	-9.532849e-10	-2.349911e+01	-6.544727e+01
1.080000e-06	-3.350288e-06	-9.478666e-10	-2.324036e+01	-6.506923e+01
1.090000e-06	-3.312731e-06	-9.412306e-10	-2.297983e+01	-6.468579e+01
1.100000e-06	-3.275056e-06	-9.338959e-10	-2.271849e+01	-6.429700e+01
1.110000e-06	-3.237163e-06	-9.257002e-10	-2.245563e+01	-6.390296e+01
1.120000e-06	-3.199001e-06	-9.203964e-10	-2.219091e+01	-6.350373e+01
1.130000e-06	-3.160532e-06	-9.135050e-10	-2.192406e+01	-6.309942e+01
1.140000e-06	-3.121751e-06	-9.093399e-10	-2.165504e+01	-6.269013e+01
1.150000e-06	-3.082787e-06	-9.034601e-10	-2.138475e+01	-6.227596e+01
1.160000e-06	-3.043715e-06	-8.994269e-10	-2.111372e+01	-6.185704e+01
1.170000e-06	-3.004495e-06	-8.930402e-10	-2.084166e+01	-6.143346e+01
1.180000e-06	-2.965147e-06	-8.867939e-10	-2.056870e+01	-6.100535e+01
1.190000e-06	-2.925617e-06	-8.782221e-10	-2.029449e+01	-6.057282e+01
1.200000e-06	-2.885942e-06	-8.726811e-10	-2.001927e+01	-6.013597e+01
1.210000e-06	-2.846174e-06	-8.636350e-10	-1.974341e+01	-5.969490e+01
1.220000e-06	-2.806263e-06	-8.565387e-10	-1.946655e+01	-5.924970e+01
1.230000e-06	-2.766169e-06	-8.483105e-10	-1.918843e+01	-5.880046e+01
1.240000e-06	-2.725894e-06	-8.407398e-10	-1.890905e+01	-5.834724e+01
1.250000e-06	-2.685426e-06	-8.326263e-10	-1.862833e+01	-5.789011e+01
1.260000e-06	-2.644706e-06	-8.284653e-10	-1.834586e+01	-5.742909e+01
1.270000e-06	-2.603674e-06	-8.240059e-10	-1.806123e+01	-5.696420e+01
1.280000e-06	-2.562268e-06	-8.201917e-10	-1.777400e+01	-5.649544e+01
1.290000e-06	-2.520497e-06	-8.146475e-10	-1.748425e+01	-5.602279e+01
1.300000e-06	-2.478575e-06	-8.086317e-10	-1.719344e+01	-5.554620e+01
1.310000e-06	-2.436421e-06	-7.971957e-10	-1.690102e+01	-5.506559e+01
1.320000e-06	-2.393805e-06	-7.831917e-10	-1.660540e+01	-5.458085e+01
1.330000e-06	-2.350974e-06	-7.707692e-10	-1.630829e+01	-5.409186e+01
1.340000e-06	-2.308005e-06	-7.608743e-10	-1.601022e+01	-5.359846e+01
1.350000e-06	-2.264774e-06	-7.541190e-10	-1.571034e+01	-5.310045e+01
1.360000e-06	-2.221324e-06	-7.509002e-10	-1.540894e+01	-5.259761e+01
1.370000e-06	-2.177737e-06	-7.490058e-10	-1.510658e+01	-5.208969e+01
1.380000e-06	-2.134107e-06	-7.460124e-10	-1.480393e+01	-5.157640e+01
1.390000e-06	-2.090389e-06	-7.392642e-10	-1.450066e+01	-5.105743e+01
1.400000e-06	-2.046583e-06	-7.276296e-10	-1.419679e+01	-5.053243e+01
1.410000e-06	-2.002699e-06	-7.142150e-10	-1.389237e+01	-5.000103e+01
1.420000e-06	-1.958721e-06	-7.020306e-10	-1.358731e+01	-4.946280e+01
1.430000e-06	-1.914702e-06	-6.938479e-10	-1.328195e+01	-4.891733e+01
1.440000e-06	-1.870605e-06	-6.848132e-10	-1.297606e+01	-4.836413e+01
1.450000e-06	-1.826361e-06	-6.777927e-10	-1.266915e+01	-4.780274e+01
1.460000e-06	-1.781942e-06	-6.716020e-10	-1.236102e+01	-4.723262e+01
1.470000e-06	-1.737395e-06	-6.640268e-10	-1.205201e+01	-4.665325e+01
1.480000e-06	-1.692745e-06	-6.531468e-10	-1.174227e+01	-4.606407e+01
1.490000e-06	-1.648004e-06	-6.421851e-10	-1.143192e+01	-4.546452e+01
1.500000e-06	-1.603173e-06	-6.319071e-10	-1.112093e+01	-4.485399e+01
1.510000e-06	-1.558136e-06	-6.232025e-10	-1.080852e+01	-4.423190e+01
1.520000e-06	-1.512931e-06	-6.127203e-10	-1.049494e+01	-4.359763e+01
1.530000e-06	-1.467607e-06	-6.012704e-10	-1.018053e+01	-4.295058e+01
1.540000e-06	-1.422082e-06	-5.895334e-10	-9.864736e+00	-4.229012e+01
1.550000e-06	-1.376500e-06	-5.796286e-10	-9.548539e+00	-4.161565e+01
1.560000e-06	-1.330945e-06	-5.691537e-10	-9.232530e+00	-4.092656e+01
1.570000e-06	-1.285293e-06	-5.611581e-10	-8.915851e+00	-4.022224e+01
1.580000e-06	-1.239511e-06	-5.526820e-10	-8.598273e+00	-3.950210e+01
1.590000e-06	-1.193689e-06	-5.414702e-10	-8.280413e+00	-3.876557e+01
1.600000e-06	-1.147785e-06	-5.290619e-10	-7.961986e+00	-3.801209e+01
1.610000e-06	-1.101740e-06	-5.157721e-10	-7.642577e+00	-3.724113e+01
1.620000e-06	-1.055691e-06	-5.011873e-10	-7.323146e+00	-3.645218e+01
1.630000e-06	-1.009618e-06	-4.862426e-10	-7.003542e+00	-3.564477e+01
1.640000e-06	-9.634440e-07	-4.716893e-10	-6.683242e+00	-3.481844e+01
1.650000e-06	-9.170826e-07	-4.583545e-10	-6.361641e+00	-3.397279e+01
1.660000e-06	-8.705676e-07	-4.466194e-10	-6.038975e+00	-3.310746e+01
1.670000e-06	-8.240830e-07	-4.350856e-10	-5.716519e+00	-3.222210e+01
1.680000e-06	-7.775750e-07	-4.235462e-10	-5.393901e+00	-3.131645e+01
1.690000e-06	-7.310826e-07	-4.099951e-10	-5.071392e+00	-3.039025e+01
1.700000e-06	-6.846082e-07	-3.954503e-10	-4.749007e+00	-2.944334e+01
1.710000e-06	-6.380241e-07	-3.799916e-10	-4.425861e+00	-2.847558e+01
1.720000e-06	-5.913298e-07	-3.633806e-10	-4.101951e+00	-2.748689e+01
1.730000e-06	-5.445741e-07	-3.455396e-10	-3.777615e+00	-2.647724e+01
1.740000e-06	-4.978571e-07	-3.284241e-10	-3.453547e+00	-2.544668e+01
1.750000e-06	-4.511687e-07	-3.127776e-10	-3.129678e+00	-2.439530e+01
1.760000e-06	-4.044340e-07	-2.990012e-10	-2.805488e+00	-2.332324e+01
1.770000e-06	-3.575622e-07	-2.851061e-10	-2.480346e+00	-2.223072e+01
1.780000e-06	-3.105987e-07	-2.680663e-10	-2.154568e+00	-2.111802e+01
1.790000e-06	-2.636586e-07	-2.507511e-10	-1.828953e+00	-1.998546e+01
1.800000e-06	-2.167457e-07	-2.350757e-10	-1.503527e+00	-1.883345e+01
1.810000e-06	-1.698029e-07	-2.168201e-10	-1.177893e+00	-1.766242e+01
1.820000e-06	-1.228471e-07	-1.977035e-10	-8.521687e-01	-1.647290e+01
1.830000e-06	-7.591324e-08	-1.783231e-10	-5.265968e-01	-1.526545e+01
1.840000e-06	-2.891488e-08	-1.589415e-10	-2.005774e-01	-1.404069e+01
1.850000e-06	1.807365e-08	-1.393531e-10	1.253737e-01	-1.279930e+01
1.860000e-06	6.509819e-08	-1.225221e-10	4.515747e-01	-1.154201e+01
1.870000e-06	1.122033e-07	-1.060323e-10	7.783345e-01	-1.026959e+01
1.880000e-06	1.592518e-07	-8.837956e-11	1.104702e+00	-8.982877e+00
1.890000e-06	2.062604e-07	-7.207078e-11	1.430792e+00	-7.682736e+00
1.900000e-06	2.532513e-07	-5.703724e-11	1.756760e+00	-6.370078e+00
1.910000e-06	3.001646e-07	-4.102893e-11	2.082189e+00	-5.045854e+00
1.920000e-06	3.470686e-07	-2.169894e-11	2.407554e+00	-3.711047e+00
1.930000e-06	3.939522e-07	-8.104883e-13	2.732777e+00	-2.366675e+00
1.940000e-06	4.406996e-07	1.980130e-11	3.057056e+00	-1.013781e+00
1.950000e-06	4.873289e-07	4.051399e-11	3.380515e+00	3.465662e-01
1.960000e-06	5.339919e-07	6.000367e-11	3.704208e+00	1.713277e+00
1.970000e-06	5.806632e-07	7.821270e-11	4.027959e+00	3.085246e+00
1.980000e-06	6.272067e-07	9.620751e-11	4.350823e+00	4.461355e+00
1.990000e-06	6.736982e-07	1.131349e-10	4.673326e+00	5.840476e+00
2.000000e-06	7.202228e-07	1.295247e-10	4.996059e+00	7.221477e+00
2.010000e-06	7.666922e-07	1.484327e-10	5.318409e+00	8.603225e+00
2.020000e-06	8.130974e-07	1.666113e-10	5.640314e+00	9.984591e+00
2.030000e-06	8.595225e-07	1.872939e-10	5.962356e+00	1.136445e+01
2.040000e-06	9.059126e-07	2.110210e-10	6.284157e+00	1.274169e+01
2.050000e-06	9.521405e-07	2.327092e-10	6.604832e+00	1.411521e+01
2.060000e-06	9.982197e-07	2.545251e-10	6.924475e+00	1.548394e+01
2.070000e-06	1.044369e-06	2.721634e-10	7.244603e+00	1.684681e+01
2.080000e-06	1.090482e-06	2.892551e-10	7.564484e+00	1.820278e+01
2.090000e-06	1.136381e-06	3.030506e-10	7.882872e+00	1.955086e+01
2.100000e-06	1.182189e-06	3.202037e-10	8.200640e+00	2.089006e+01
2.110000e-06	1.227896e-06	3.389277e-10	8.517701e+00	2.221944e+01
2.120000e-06	1.273491e-06	3.574311e-10	8.833984e+00	2.353810e+01
2.130000e-06	1.319070e-06	3.789902e-10	9.150154e+00	2.484516e+01
2.140000e-06	1.364554e-06	3.997250e-10	9.465669e+00	2.613979e+01
2.150000e-06	1.409919e-06	4.191343e-10	9.780363e+00	2.742121e+01
2.160000e-06	1.455244e-06	4.344864e-10	1.009477e+01	2.868867e+01
2.170000e-06	1.500433e-06	4.504739e-10	1.040824e+01	2.994148e+01
2.180000e-06	1.545449e-06	4.641818e-10	1.072051e+01	3.117898e+01
2.190000e-06	1.590373e-06	4.789969e-10	1.103214e+01	3.240058e+01
2.200000e-06	1.635163e-06	4.972176e-10	1.134284e+01	3.360571e+01
2.210000e-06	1.679737e-06	5.149003e-10	1.165204e+01	3.479386e+01
2.220000e-06	1.724145e-06	5.310421e-10	1.196009e+01	3.596458e+01
2.230000e-06	1.768542e-06	5.455744e-10	1.226807e+01	3.711745e+01
2.240000e-06	1.812888e-06	5.618668e-10	1.257569e+01	3.825212e+01
2.250000e-06	1.857091e-06	5.794621e-10	1.288231e+01	3.936827e+01
2.260000e-06	1.901172e-06	5.978430e-10	1.318810e+01	4.046562e+01
2.270000e-06	1.945119e-06	6.146024e-10	1.349295e+01	4.154397e+01
2.280000e-06	1.988929e-06	6.273729e-10	1.379685e+01	4.260313e+01
2.290000e-06	2.032678e-06	6.406783e-10	1.410033e+01	4.364298e+01
2.300000e-06	2.076416e-06	6.540155e-10	1.440373e+01	4.466342e+01
2.310000e-06	2.120104e-06	6.671937e-10	1.470679e+01	4.566440e+01
2.320000e-06	2.163738e-06	6.800380e-10	1.500947e+01	4.664593e+01
2.330000e-06	2.207285e-06	6.954513e-10	1.531155e+01	4.760801e+01
2.340000e-06	2.250685e-06	7.122408e-10	1.561260e+01	4.855073e+01
2.350000e-06	2.293890e-06	7.262335e-10	1.591232e+01	4.947418e+01
2.360000e-06	2.336956e-06	7.389997e-10	1.621105e+01	5.037849e+01
2.370000e-06	2.379934e-06	7.511199e-10	1.650918e+01	5.126381e+01
2.380000e-06	2.422600e-06	7.620165e-10	1.680515e+01	5.213033e+01
2.390000e-06	2.464873e-06	7.727949e-10	1.709839e+01	5.297826e+01
2.400000e-06	2.506795e-06	7.833133e-10	1.738920e+01	5.380784e+01
2.410000e-06	2.548448e-06	7.957758e-10	1.767813e+01	5.461932e+01
2.420000e-06	2.589858e-06	8.101322e-10	1.796539e+01	5.541297e+01
2.430000e-06	2.630972e-06	8.226568e-10	1.825059e+01	5.618907e+01
2.440000e-06	2.671779e-06	8.334402e-10	1.853366e+01	5.694792e+01
2.450000e-06	2.712232e-06	8.428262e-10	1.881428e+01	5.768984e+01
2.460000e-06	2.752429e-06	8.512145e-10	1.909311e+01	5.841514e+01
2.470000e-06	2.792489e-06	8.601005e-10	1.937100e+01	5.912416e+01
2.480000e-06	2.832450e-06	8.695055e-10	1.964821e+01	5.981722e+01
2.490000e-06	2.872277e-06	8.781634e-10	1.992448e+01	6.049466e+01
2.500000e-06	2.911950e-06	8.869167e-10	2.019968e+01	6.115682e+01
2.510000e-06	2.951444e-06	8.965978e-10	2.047365e+01	6.180403e+01
2.520000e-06	2.990853e-06	9.069580e-10	2.074702e+01	6.243663e+01
2.530000e-06	3.030218e-06	9.160925e-10	2.102009e+01	6.305495e+01
2.540000e-06	3.069374e-06	9.269871e-10	2.129171e+01	6.365932e+01
2.550000e-06	3.108268e-06	9.382912e-10	2.156151e+01	6.425007e+01
2.560000e-06	3.146886e-06	9.460206e-10	2.182940e+01	6.482750e+01
2.570000e-06	3.185251e-06	9.522933e-10	2.209552e+01	6.539193e+01
2.580000e-06	3.223428e-06	9.601342e-10	2.236035e+01	6.594366e+01
2.590000e-06	3.261341e-06	9.681284e-10	2.262335e+01	6.648297e+01
2.600000e-06	3.299008e-06	9.741115e-10	2.288464e+01	6.701016e+01
2.610000e-06	3.336520e-06	9.793642e-10	2.314485e+01	6.752549e+01
2.620000e-06	3.373819e-06	9.862545e-10	2.340359e+01	6.802922e+01
2.630000e-06	3.410909e-06	9.943109e-10	2.366088e+01	6.852161e+01
2.640000e-06	3.447707e-06	1.003336e-09	2.391614e+01	6.900291e+01
2.650000e-06	3.484207e-06	1.013806e-09	2.416933e+01	6.947333e+01
2.660000e-06	3.520523e-06	1.024636e-09	2.442125e+01	6.993311e+01
2.670000e-06	3.556587e-06	1.030266e-09	2.467142e+01	7.038246e+01
2.680000e-06	3.592406e-06	1.033562e-09	2.491989e+01	7.082158e+01
2.690000e-06	3.628096e-06	1.037137e-09	2.516747e+01	7.125067e+01
2.700000e-06	3.663668e-06	1.038753e-09	2.541422e+01	7.166991e+01
2.710000e-06	3.699058e-06	1.043798e-09	2.565972e+01	7.207948e+01
2.720000e-06	3.734292e-06	1.052907e-09	2.590413e+01	7.247956e+01
2.730000e-06	3.769412e-06	1.062575e-09	2.614775e+01	7.287030e+01
2.740000e-06	3.804166e-06	1.072047e-09	2.638883e+01	7.325188e+01
2.750000e-06	3.838346e-06	1.078776e-09	2.662593e+01	7.362443e+01
2.760000e-06	3.872032e-06	1.081431e-09	2.685961e+01	7.398811e+01
2.770000e-06	3.905251e-06	1.080467e-09	2.709004e+01	7.434307e+01
2.780000e-06	3.938037e-06	1.079406e-09	2.731747e+01	7.468945e+01
2.790000e-06	3.970472e-06	1.082070e-09	2.754247e+01	7.502739e+01
2.800000e-06	4.002560e-06	1.086954e-09	2.776505e+01	7.535702e+01
2.810000e-06	4.034423e-06	1.093688e-09	2.798609e+01	7.567849e+01
2.820000e-06	4.066147e-06	1.100172e-09	2.820615e+01	7.599192e+01
2.830000e-06	4.097697e-06	1.105449e-09	2.842501e+01	7.629746e+01
2.840000e-06	4.129063e-06	1.110311e-09	2.864258e+01	7.659525e+01
2.850000e-06	4.160238e-06	1.112796e-09	2.885884e+01	7.688541e+01
2.860000e-06	4.191072e-06	1.114759e-09	2.907273e+01	7.716808e+01
2.870000e-06	4.221563e-06	1.117946e-09	2.928424e+01	7.744342e+01
2.880000e-06	4.251807e-06	1.120637e-09	2.949404e+01	7.771155e+01
2.890000e-06	4.281722e-06	1.122209e-09	2.970155e+01	7.797262e+01
2.900000e-06	4.311354e-06	1.124062e-09	2.990711e+01	7.822677e+01
