# Temperatura_=_14.0
# Concentracion g/m^3_=_1620.0
# C_Vs_to_Am_M_A/Vsm_=_65563218390.804596
# pendiente_HvsI_1/m_=_3716.3
# ordenada_HvsI_A/m_=_1297.0
# frecuencia_Hz_=_135106.79836543006

Tiempo_(s)	Campo_(V.s)	Magnetizacion_(V.s)	Campo_(kA/m)	Magnetizacion_(A/m)
0.000000e+00	-5.521275e-06	-1.136728e-09	-3.837517e+01	-7.344287e+01
1.000000e-08	-5.521656e-06	-1.132148e-09	-3.837782e+01	-7.341074e+01
2.000000e-08	-5.521742e-06	-1.127260e-09	-3.837842e+01	-7.337569e+01
3.000000e-08	-5.521487e-06	-1.125590e-09	-3.837665e+01	-7.333759e+01
4.000000e-08	-5.520778e-06	-1.128023e-09	-3.837172e+01	-7.329633e+01
5.000000e-08	-5.519449e-06	-1.137429e-09	-3.836248e+01	-7.325178e+01
6.000000e-08	-5.517467e-06	-1.153415e-09	-3.834871e+01	-7.320384e+01
7.000000e-08	-5.514977e-06	-1.152026e-09	-3.833140e+01	-7.315240e+01
8.000000e-08	-5.512033e-06	-1.119437e-09	-3.831094e+01	-7.309737e+01
9.000000e-08	-5.508640e-06	-1.084154e-09	-3.828736e+01	-7.303866e+01
1.000000e-07	-5.504864e-06	-1.092962e-09	-3.826111e+01	-7.297620e+01
1.100000e-07	-5.500631e-06	-1.150261e-09	-3.823169e+01	-7.290992e+01
1.200000e-07	-5.496046e-06	-1.176693e-09	-3.819982e+01	-7.283976e+01
1.300000e-07	-5.491339e-06	-1.123028e-09	-3.816710e+01	-7.276568e+01
1.400000e-07	-5.486369e-06	-1.107799e-09	-3.813256e+01	-7.268766e+01
1.500000e-07	-5.480935e-06	-1.115107e-09	-3.809479e+01	-7.260568e+01
1.600000e-07	-5.475111e-06	-1.162643e-09	-3.805432e+01	-7.251974e+01
1.700000e-07	-5.469000e-06	-1.126306e-09	-3.801184e+01	-7.242985e+01
1.800000e-07	-5.462497e-06	-1.100595e-09	-3.796664e+01	-7.233604e+01
1.900000e-07	-5.455571e-06	-1.094013e-09	-3.791850e+01	-7.223836e+01
2.000000e-07	-5.448286e-06	-1.115627e-09	-3.786787e+01	-7.213685e+01
2.100000e-07	-5.440665e-06	-1.110986e-09	-3.781490e+01	-7.203160e+01
2.200000e-07	-5.432743e-06	-1.077290e-09	-3.775984e+01	-7.192267e+01
2.300000e-07	-5.424561e-06	-1.061246e-09	-3.770297e+01	-7.181017e+01
2.400000e-07	-5.416073e-06	-1.060955e-09	-3.764397e+01	-7.169420e+01
2.500000e-07	-5.407061e-06	-1.072934e-09	-3.758134e+01	-7.157488e+01
2.600000e-07	-5.397318e-06	-1.045466e-09	-3.751362e+01	-7.145232e+01
2.700000e-07	-5.386857e-06	-1.043214e-09	-3.744091e+01	-7.132667e+01
2.800000e-07	-5.375866e-06	-1.043323e-09	-3.736452e+01	-7.119806e+01
2.900000e-07	-5.364434e-06	-1.055025e-09	-3.728506e+01	-7.106664e+01
3.000000e-07	-5.352672e-06	-1.028635e-09	-3.720331e+01	-7.093255e+01
3.100000e-07	-5.340586e-06	-1.044648e-09	-3.711931e+01	-7.079594e+01
3.200000e-07	-5.328046e-06	-1.047058e-09	-3.703215e+01	-7.065697e+01
3.300000e-07	-5.315105e-06	-1.050983e-09	-3.694220e+01	-7.051579e+01
3.400000e-07	-5.301727e-06	-1.019659e-09	-3.684922e+01	-7.037254e+01
3.500000e-07	-5.287907e-06	-1.021875e-09	-3.675317e+01	-7.022738e+01
3.600000e-07	-5.273637e-06	-1.018351e-09	-3.665398e+01	-7.008045e+01
3.700000e-07	-5.258956e-06	-1.025603e-09	-3.655194e+01	-6.993187e+01
3.800000e-07	-5.243880e-06	-1.024491e-09	-3.644716e+01	-6.978178e+01
3.900000e-07	-5.228261e-06	-1.034269e-09	-3.633860e+01	-6.963030e+01
4.000000e-07	-5.212103e-06	-1.023309e-09	-3.622630e+01	-6.947754e+01
4.100000e-07	-5.195501e-06	-1.018292e-09	-3.611091e+01	-6.932360e+01
4.200000e-07	-5.178607e-06	-1.027625e-09	-3.599348e+01	-6.916857e+01
4.300000e-07	-5.161467e-06	-1.031686e-09	-3.587435e+01	-6.901253e+01
4.400000e-07	-5.144034e-06	-1.013786e-09	-3.575319e+01	-6.885553e+01
4.500000e-07	-5.126265e-06	-1.006353e-09	-3.562969e+01	-6.869764e+01
4.600000e-07	-5.108047e-06	-1.024860e-09	-3.550306e+01	-6.853888e+01
4.700000e-07	-5.089296e-06	-1.020306e-09	-3.537274e+01	-6.837929e+01
4.800000e-07	-5.070149e-06	-1.005025e-09	-3.523966e+01	-6.821888e+01
4.900000e-07	-5.050802e-06	-1.006126e-09	-3.510519e+01	-6.805765e+01
5.000000e-07	-5.031245e-06	-1.020005e-09	-3.496926e+01	-6.789557e+01
5.100000e-07	-5.011454e-06	-9.999178e-10	-3.483170e+01	-6.773262e+01
5.200000e-07	-4.991440e-06	-9.983035e-10	-3.469260e+01	-6.756877e+01
5.300000e-07	-4.971030e-06	-1.007343e-09	-3.455074e+01	-6.740395e+01
5.400000e-07	-4.950162e-06	-9.979910e-10	-3.440570e+01	-6.723811e+01
5.500000e-07	-4.929017e-06	-9.705542e-10	-3.425873e+01	-6.707116e+01
5.600000e-07	-4.907632e-06	-9.901327e-10	-3.411010e+01	-6.690303e+01
5.700000e-07	-4.885911e-06	-9.982704e-10	-3.395913e+01	-6.673363e+01
5.800000e-07	-4.863777e-06	-9.830745e-10	-3.380528e+01	-6.656284e+01
5.900000e-07	-4.841259e-06	-9.792623e-10	-3.364877e+01	-6.639057e+01
6.000000e-07	-4.818396e-06	-9.978713e-10	-3.348987e+01	-6.621670e+01
6.100000e-07	-4.795204e-06	-9.810521e-10	-3.332867e+01	-6.604110e+01
6.200000e-07	-4.771764e-06	-9.720738e-10	-3.316576e+01	-6.586367e+01
6.300000e-07	-4.748111e-06	-9.795869e-10	-3.300136e+01	-6.568426e+01
6.400000e-07	-4.724242e-06	-9.759042e-10	-3.283546e+01	-6.550276e+01
6.500000e-07	-4.700037e-06	-9.558341e-10	-3.266722e+01	-6.531903e+01
6.600000e-07	-4.675379e-06	-9.627648e-10	-3.249584e+01	-6.513294e+01
6.700000e-07	-4.650230e-06	-9.625781e-10	-3.232104e+01	-6.494436e+01
6.800000e-07	-4.624536e-06	-9.505180e-10	-3.214246e+01	-6.475317e+01
6.900000e-07	-4.598368e-06	-9.507373e-10	-3.196058e+01	-6.455924e+01
7.000000e-07	-4.571778e-06	-9.577133e-10	-3.177577e+01	-6.436244e+01
7.100000e-07	-4.544760e-06	-9.477063e-10	-3.158799e+01	-6.416266e+01
7.200000e-07	-4.517419e-06	-9.422537e-10	-3.139795e+01	-6.395978e+01
7.300000e-07	-4.489850e-06	-9.497466e-10	-3.120634e+01	-6.375368e+01
7.400000e-07	-4.462129e-06	-9.448031e-10	-3.101367e+01	-6.354425e+01
7.500000e-07	-4.434177e-06	-9.325559e-10	-3.081939e+01	-6.333139e+01
7.600000e-07	-4.405924e-06	-9.331203e-10	-3.062302e+01	-6.311501e+01
7.700000e-07	-4.377408e-06	-9.392749e-10	-3.042482e+01	-6.289500e+01
7.800000e-07	-4.348637e-06	-9.304473e-10	-3.022485e+01	-6.267127e+01
7.900000e-07	-4.319543e-06	-9.270883e-10	-3.002263e+01	-6.244373e+01
8.000000e-07	-4.290051e-06	-9.259622e-10	-2.981765e+01	-6.221232e+01
8.100000e-07	-4.260237e-06	-9.189321e-10	-2.961043e+01	-6.197693e+01
8.200000e-07	-4.230105e-06	-9.068220e-10	-2.940100e+01	-6.173751e+01
8.300000e-07	-4.199684e-06	-9.069896e-10	-2.918956e+01	-6.149398e+01
8.400000e-07	-4.169017e-06	-8.994631e-10	-2.897641e+01	-6.124627e+01
8.500000e-07	-4.138067e-06	-8.929984e-10	-2.876129e+01	-6.099432e+01
8.600000e-07	-4.106850e-06	-8.924807e-10	-2.854433e+01	-6.073807e+01
8.700000e-07	-4.075471e-06	-8.947984e-10	-2.832623e+01	-6.047746e+01
8.800000e-07	-4.043935e-06	-8.874602e-10	-2.810704e+01	-6.021244e+01
8.900000e-07	-4.012145e-06	-8.877617e-10	-2.788609e+01	-5.994294e+01
9.000000e-07	-3.980132e-06	-8.845470e-10	-2.766358e+01	-5.966891e+01
9.100000e-07	-3.947878e-06	-8.757157e-10	-2.743941e+01	-5.939032e+01
9.200000e-07	-3.915314e-06	-8.679629e-10	-2.721307e+01	-5.910710e+01
9.300000e-07	-3.882336e-06	-8.652445e-10	-2.698386e+01	-5.881921e+01
9.400000e-07	-3.848857e-06	-8.569325e-10	-2.675117e+01	-5.852660e+01
9.500000e-07	-3.814906e-06	-8.522961e-10	-2.651519e+01	-5.822924e+01
9.600000e-07	-3.780500e-06	-8.512101e-10	-2.627606e+01	-5.792708e+01
9.700000e-07	-3.745703e-06	-8.464182e-10	-2.603420e+01	-5.762008e+01
9.800000e-07	-3.710621e-06	-8.383004e-10	-2.579037e+01	-5.730821e+01
9.900000e-07	-3.675319e-06	-8.360908e-10	-2.554501e+01	-5.699142e+01
1.000000e-06	-3.639851e-06	-8.322421e-10	-2.529849e+01	-5.666970e+01
1.010000e-06	-3.604250e-06	-8.252866e-10	-2.505105e+01	-5.634301e+01
1.020000e-06	-3.568527e-06	-8.242242e-10	-2.480276e+01	-5.601133e+01
1.030000e-06	-3.532626e-06	-8.232654e-10	-2.455323e+01	-5.567464e+01
1.040000e-06	-3.496484e-06	-8.160639e-10	-2.430203e+01	-5.533293e+01
1.050000e-06	-3.460103e-06	-8.101883e-10	-2.404916e+01	-5.498620e+01
1.060000e-06	-3.423467e-06	-8.078642e-10	-2.379453e+01	-5.463444e+01
1.070000e-06	-3.386518e-06	-7.996503e-10	-2.353771e+01	-5.427765e+01
1.080000e-06	-3.349308e-06	-7.934807e-10	-2.327909e+01	-5.391586e+01
1.090000e-06	-3.311982e-06	-7.914597e-10	-2.301966e+01	-5.354908e+01
1.100000e-06	-3.274403e-06	-7.881342e-10	-2.275847e+01	-5.317735e+01
1.110000e-06	-3.236561e-06	-7.787904e-10	-2.249545e+01	-5.280069e+01
1.120000e-06	-3.198478e-06	-7.742634e-10	-2.223076e+01	-5.241916e+01
1.130000e-06	-3.160067e-06	-7.673400e-10	-2.196379e+01	-5.203281e+01
1.140000e-06	-3.121480e-06	-7.562344e-10	-2.169559e+01	-5.164170e+01
1.150000e-06	-3.082694e-06	-7.466236e-10	-2.142601e+01	-5.124590e+01
1.160000e-06	-3.043637e-06	-7.420429e-10	-2.115455e+01	-5.084550e+01
1.170000e-06	-3.004402e-06	-7.360788e-10	-2.088185e+01	-5.044059e+01
1.180000e-06	-2.965066e-06	-7.299893e-10	-2.060845e+01	-5.003125e+01
1.190000e-06	-2.925598e-06	-7.257778e-10	-2.033413e+01	-4.961759e+01
1.200000e-06	-2.886019e-06	-7.218858e-10	-2.005904e+01	-4.919972e+01
1.210000e-06	-2.846339e-06	-7.137596e-10	-1.978325e+01	-4.877775e+01
1.220000e-06	-2.806471e-06	-7.068702e-10	-1.950615e+01	-4.835179e+01
1.230000e-06	-2.766456e-06	-6.973030e-10	-1.922802e+01	-4.792196e+01
1.240000e-06	-2.726276e-06	-6.872751e-10	-1.894876e+01	-4.748839e+01
1.250000e-06	-2.685776e-06	-6.787210e-10	-1.866726e+01	-4.705117e+01
1.260000e-06	-2.644987e-06	-6.744044e-10	-1.838377e+01	-4.661044e+01
1.270000e-06	-2.604045e-06	-6.689352e-10	-1.809920e+01	-4.616628e+01
1.280000e-06	-2.562915e-06	-6.633078e-10	-1.781334e+01	-4.571882e+01
1.290000e-06	-2.521517e-06	-6.574295e-10	-1.752560e+01	-4.526812e+01
1.300000e-06	-2.479762e-06	-6.495093e-10	-1.723538e+01	-4.481428e+01
1.310000e-06	-2.437631e-06	-6.391437e-10	-1.694256e+01	-4.435736e+01
1.320000e-06	-2.395199e-06	-6.279876e-10	-1.664763e+01	-4.389741e+01
1.330000e-06	-2.352503e-06	-6.197685e-10	-1.635088e+01	-4.343445e+01
1.340000e-06	-2.309610e-06	-6.115496e-10	-1.605276e+01	-4.296850e+01
1.350000e-06	-2.266544e-06	-6.061968e-10	-1.575343e+01	-4.249953e+01
1.360000e-06	-2.223315e-06	-6.013421e-10	-1.545297e+01	-4.202752e+01
1.370000e-06	-2.179892e-06	-5.940662e-10	-1.515116e+01	-4.155237e+01
1.380000e-06	-2.136315e-06	-5.839206e-10	-1.484828e+01	-4.107401e+01
1.390000e-06	-2.092701e-06	-5.741188e-10	-1.454514e+01	-4.059229e+01
1.400000e-06	-2.049029e-06	-5.636265e-10	-1.424161e+01	-4.010705e+01
1.410000e-06	-2.005296e-06	-5.534213e-10	-1.393765e+01	-3.961809e+01
1.420000e-06	-1.961508e-06	-5.444223e-10	-1.363330e+01	-3.912518e+01
1.430000e-06	-1.917628e-06	-5.376496e-10	-1.332832e+01	-3.862803e+01
1.440000e-06	-1.873680e-06	-5.299512e-10	-1.302286e+01	-3.812635e+01
1.450000e-06	-1.829582e-06	-5.232901e-10	-1.271636e+01	-3.761977e+01
1.460000e-06	-1.785260e-06	-5.154691e-10	-1.240831e+01	-3.710792e+01
1.470000e-06	-1.740786e-06	-5.065618e-10	-1.209919e+01	-3.659035e+01
1.480000e-06	-1.696217e-06	-4.967521e-10	-1.178942e+01	-3.606662e+01
1.490000e-06	-1.651583e-06	-4.899677e-10	-1.147919e+01	-3.553622e+01
1.500000e-06	-1.606806e-06	-4.838671e-10	-1.116798e+01	-3.499862e+01
1.510000e-06	-1.561811e-06	-4.779386e-10	-1.085524e+01	-3.445325e+01
1.520000e-06	-1.516643e-06	-4.709896e-10	-1.054130e+01	-3.389950e+01
1.530000e-06	-1.471412e-06	-4.609593e-10	-1.022693e+01	-3.333677e+01
1.540000e-06	-1.426160e-06	-4.503601e-10	-9.912408e+00	-3.276438e+01
1.550000e-06	-1.380856e-06	-4.411971e-10	-9.597528e+00	-3.218168e+01
1.560000e-06	-1.335428e-06	-4.302768e-10	-9.281780e+00	-3.158797e+01
1.570000e-06	-1.289835e-06	-4.181817e-10	-8.964896e+00	-3.098254e+01
1.580000e-06	-1.244197e-06	-4.076552e-10	-8.647690e+00	-3.036467e+01
1.590000e-06	-1.198525e-06	-3.949208e-10	-8.330250e+00	-2.973366e+01
1.600000e-06	-1.152723e-06	-3.814146e-10	-8.011908e+00	-2.908877e+01
1.610000e-06	-1.106802e-06	-3.706510e-10	-7.692738e+00	-2.842929e+01
1.620000e-06	-1.060768e-06	-3.590523e-10	-7.372781e+00	-2.775452e+01
1.630000e-06	-1.014693e-06	-3.446038e-10	-7.052538e+00	-2.706376e+01
1.640000e-06	-9.685699e-07	-3.314889e-10	-6.731966e+00	-2.635634e+01
1.650000e-06	-9.223037e-07	-3.206170e-10	-6.410397e+00	-2.563163e+01
1.660000e-06	-8.759351e-07	-3.088369e-10	-6.088116e+00	-2.488900e+01
1.670000e-06	-8.295094e-07	-2.977629e-10	-5.765437e+00	-2.412788e+01
1.680000e-06	-7.830600e-07	-2.909115e-10	-5.442595e+00	-2.334775e+01
1.690000e-06	-7.366003e-07	-2.826567e-10	-5.119680e+00	-2.254812e+01
1.700000e-06	-6.901506e-07	-2.724686e-10	-4.796835e+00	-2.172855e+01
1.710000e-06	-6.437259e-07	-2.585606e-10	-4.474165e+00	-2.088869e+01
1.720000e-06	-5.971914e-07	-2.432825e-10	-4.150730e+00	-2.002821e+01
1.730000e-06	-5.505119e-07	-2.275635e-10	-3.826288e+00	-1.914689e+01
1.740000e-06	-5.037966e-07	-2.117614e-10	-3.501597e+00	-1.824454e+01
1.750000e-06	-4.570520e-07	-1.981096e-10	-3.176702e+00	-1.732109e+01
1.760000e-06	-4.103254e-07	-1.887812e-10	-2.851933e+00	-1.637650e+01
1.770000e-06	-3.635311e-07	-1.786836e-10	-2.526693e+00	-1.541084e+01
1.780000e-06	-3.166416e-07	-1.661436e-10	-2.200791e+00	-1.442427e+01
1.790000e-06	-2.697847e-07	-1.492394e-10	-1.875116e+00	-1.341702e+01
1.800000e-06	-2.230117e-07	-1.328237e-10	-1.550024e+00	-1.238940e+01
1.810000e-06	-1.762287e-07	-1.158029e-10	-1.224863e+00	-1.134182e+01
1.820000e-06	-1.292792e-07	-9.938763e-11	-8.985446e-01	-1.027477e+01
1.830000e-06	-8.233519e-08	-8.625494e-11	-5.722640e-01	-9.188834e+00
1.840000e-06	-3.552606e-08	-7.220051e-11	-2.469210e-01	-8.084670e+00
1.850000e-06	1.128911e-08	-5.813113e-11	7.846407e-02	-6.963026e+00
1.860000e-06	5.814676e-08	-4.520850e-11	4.041443e-01	-5.824729e+00
1.870000e-06	1.050481e-07	-2.913560e-11	7.301280e-01	-4.670683e+00
1.880000e-06	1.519695e-07	-1.023097e-11	1.056252e+00	-3.501870e+00
1.890000e-06	1.988250e-07	8.531394e-12	1.381917e+00	-2.319338e+00
1.900000e-06	2.456371e-07	2.767162e-11	1.707281e+00	-1.124204e+00
1.910000e-06	2.924424e-07	4.371714e-11	2.032597e+00	8.235558e-02
1.920000e-06	3.391690e-07	5.880835e-11	2.357366e+00	1.299107e+00
1.930000e-06	3.858562e-07	7.456352e-11	2.681862e+00	2.524767e+00
1.940000e-06	4.325816e-07	9.289383e-11	3.006623e+00	3.758011e+00
1.950000e-06	4.792195e-07	1.101182e-10	3.330776e+00	4.997474e+00
1.960000e-06	5.258484e-07	1.276836e-10	3.654866e+00	6.241762e+00
1.970000e-06	5.724917e-07	1.459078e-10	3.979057e+00	7.489459e+00
1.980000e-06	6.190037e-07	1.637766e-10	4.302335e+00	8.739131e+00
1.990000e-06	6.654594e-07	1.802142e-10	4.625221e+00	9.989335e+00
2.000000e-06	7.119477e-07	1.943446e-10	4.948334e+00	1.123863e+01
2.010000e-06	7.584322e-07	2.086576e-10	5.271421e+00	1.248557e+01
2.020000e-06	8.047968e-07	2.231507e-10	5.593674e+00	1.372873e+01
2.030000e-06	8.510833e-07	2.384226e-10	5.915385e+00	1.496671e+01
2.040000e-06	8.973653e-07	2.592462e-10	6.237064e+00	1.619813e+01
2.050000e-06	9.435753e-07	2.809371e-10	6.558244e+00	1.742164e+01
2.060000e-06	9.897170e-07	3.019754e-10	6.878947e+00	1.863595e+01
2.070000e-06	1.035739e-06	3.196494e-10	7.198818e+00	1.983978e+01
2.080000e-06	1.081620e-06	3.333409e-10	7.517711e+00	2.103193e+01
2.090000e-06	1.127463e-06	3.442735e-10	7.836338e+00	2.221126e+01
2.100000e-06	1.173231e-06	3.581652e-10	8.154445e+00	2.337667e+01
2.110000e-06	1.218870e-06	3.746499e-10	8.471657e+00	2.452715e+01
2.120000e-06	1.264418e-06	3.914052e-10	8.788235e+00	2.566175e+01
2.130000e-06	1.309950e-06	4.086772e-10	9.104700e+00	2.677959e+01
2.140000e-06	1.355440e-06	4.265663e-10	9.420876e+00	2.787987e+01
2.150000e-06	1.400762e-06	4.426817e-10	9.735882e+00	2.896188e+01
2.160000e-06	1.445957e-06	4.555998e-10	1.005001e+01	3.002498e+01
2.170000e-06	1.491034e-06	4.676605e-10	1.036331e+01	3.106862e+01
2.180000e-06	1.535993e-06	4.788675e-10	1.067579e+01	3.209232e+01
2.190000e-06	1.580917e-06	4.920048e-10	1.098803e+01	3.309569e+01
2.200000e-06	1.625702e-06	5.072065e-10	1.129931e+01	3.407842e+01
2.210000e-06	1.670314e-06	5.214427e-10	1.160938e+01	3.504029e+01
2.220000e-06	1.714795e-06	5.340844e-10	1.191854e+01	3.598115e+01
2.230000e-06	1.759168e-06	5.457432e-10	1.222696e+01	3.690093e+01
2.240000e-06	1.803410e-06	5.576398e-10	1.253445e+01	3.779963e+01
2.250000e-06	1.847519e-06	5.708773e-10	1.284103e+01	3.867733e+01
2.260000e-06	1.891533e-06	5.834136e-10	1.314694e+01	3.953417e+01
2.270000e-06	1.935422e-06	5.959563e-10	1.345199e+01	4.037035e+01
2.280000e-06	1.979245e-06	6.082342e-10	1.375658e+01	4.118613e+01
2.290000e-06	2.023004e-06	6.198988e-10	1.406072e+01	4.198184e+01
2.300000e-06	2.066686e-06	6.294437e-10	1.436433e+01	4.275785e+01
2.310000e-06	2.110316e-06	6.381755e-10	1.466758e+01	4.351456e+01
2.320000e-06	2.153887e-06	6.471410e-10	1.497042e+01	4.425244e+01
2.330000e-06	2.197321e-06	6.577503e-10	1.527230e+01	4.497196e+01
2.340000e-06	2.240543e-06	6.685750e-10	1.557271e+01	4.567364e+01
2.350000e-06	2.283662e-06	6.784847e-10	1.587241e+01	4.635803e+01
2.360000e-06	2.326630e-06	6.865782e-10	1.617105e+01	4.702567e+01
2.370000e-06	2.369334e-06	6.950719e-10	1.646787e+01	4.767715e+01
2.380000e-06	2.411861e-06	7.038539e-10	1.676344e+01	4.831303e+01
2.390000e-06	2.454193e-06	7.125414e-10	1.705767e+01	4.893390e+01
2.400000e-06	2.496172e-06	7.198562e-10	1.734944e+01	4.954034e+01
2.410000e-06	2.537790e-06	7.268688e-10	1.763870e+01	5.013292e+01
2.420000e-06	2.579112e-06	7.350606e-10	1.792590e+01	5.071220e+01
2.430000e-06	2.620132e-06	7.438770e-10	1.821102e+01	5.127875e+01
2.440000e-06	2.660965e-06	7.525639e-10	1.849482e+01	5.183307e+01
2.450000e-06	2.701588e-06	7.595799e-10	1.877717e+01	5.237570e+01
2.460000e-06	2.741889e-06	7.658854e-10	1.905728e+01	5.290710e+01
2.470000e-06	2.781894e-06	7.726992e-10	1.933533e+01	5.342776e+01
2.480000e-06	2.821694e-06	7.794350e-10	1.961196e+01	5.393809e+01
2.490000e-06	2.861389e-06	7.837080e-10	1.988785e+01	5.443850e+01
2.500000e-06	2.900949e-06	7.879215e-10	2.016281e+01	5.492937e+01
2.510000e-06	2.940386e-06	7.956028e-10	2.043691e+01	5.541104e+01
2.520000e-06	2.979716e-06	8.048933e-10	2.071027e+01	5.588381e+01
2.530000e-06	3.018839e-06	8.130356e-10	2.098219e+01	5.634797e+01
2.540000e-06	3.057844e-06	8.208765e-10	2.125329e+01	5.680375e+01
2.550000e-06	3.096692e-06	8.280435e-10	2.152331e+01	5.725138e+01
2.560000e-06	3.135257e-06	8.323942e-10	2.179135e+01	5.769105e+01
2.570000e-06	3.173572e-06	8.349397e-10	2.205765e+01	5.812290e+01
2.580000e-06	3.211571e-06	8.391830e-10	2.232176e+01	5.854707e+01
2.590000e-06	3.249330e-06	8.457714e-10	2.258420e+01	5.896366e+01
2.600000e-06	3.286953e-06	8.541344e-10	2.284570e+01	5.937275e+01
2.610000e-06	3.324421e-06	8.614020e-10	2.310611e+01	5.977441e+01
2.620000e-06	3.361693e-06	8.657756e-10	2.336517e+01	6.016867e+01
2.630000e-06	3.398740e-06	8.686348e-10	2.362266e+01	6.055557e+01
2.640000e-06	3.435546e-06	8.719661e-10	2.387848e+01	6.093511e+01
2.650000e-06	3.472126e-06	8.768473e-10	2.413273e+01	6.130729e+01
2.660000e-06	3.508462e-06	8.864355e-10	2.438528e+01	6.167211e+01
2.670000e-06	3.544511e-06	8.952338e-10	2.463583e+01	6.202955e+01
2.680000e-06	3.580302e-06	9.007673e-10	2.488460e+01	6.237961e+01
2.690000e-06	3.615941e-06	9.045725e-10	2.513230e+01	6.272225e+01
2.700000e-06	3.651504e-06	9.043723e-10	2.537948e+01	6.305746e+01
2.710000e-06	3.686933e-06	9.060435e-10	2.562573e+01	6.338524e+01
2.720000e-06	3.722120e-06	9.115058e-10	2.587029e+01	6.370556e+01
2.730000e-06	3.757087e-06	9.172734e-10	2.611333e+01	6.401844e+01
2.740000e-06	3.791807e-06	9.219103e-10	2.635465e+01	6.432389e+01
2.750000e-06	3.826059e-06	9.263049e-10	2.659271e+01	6.462191e+01
2.760000e-06	3.859827e-06	9.305597e-10	2.682741e+01	6.491255e+01
2.770000e-06	3.893173e-06	9.334928e-10	2.705918e+01	6.519585e+01
2.780000e-06	3.926067e-06	9.347841e-10	2.728781e+01	6.547186e+01
2.790000e-06	3.958567e-06	9.372552e-10	2.751370e+01	6.574065e+01
2.800000e-06	3.990774e-06	9.415614e-10	2.773755e+01	6.600232e+01
2.810000e-06	4.022721e-06	9.455859e-10	2.795959e+01	6.625695e+01
2.820000e-06	4.054419e-06	9.479332e-10	2.817991e+01	6.650466e+01
2.830000e-06	4.085932e-06	9.513230e-10	2.839894e+01	6.674558e+01
2.840000e-06	4.117284e-06	9.562731e-10	2.861685e+01	6.697985e+01
2.850000e-06	4.148441e-06	9.593022e-10	2.883340e+01	6.720762e+01
2.860000e-06	4.179366e-06	9.630508e-10	2.904834e+01	6.742905e+01
2.870000e-06	4.209911e-06	9.681280e-10	2.926065e+01	6.764430e+01
2.880000e-06	4.240113e-06	9.699910e-10	2.947056e+01	6.785357e+01
2.890000e-06	4.270085e-06	9.676494e-10	2.967888e+01	6.805704e+01
2.900000e-06	4.299770e-06	9.636276e-10	2.988520e+01	6.825489e+01
2.910000e-06	4.329173e-06	9.626299e-10	3.008956e+01	6.844734e+01
