# Temperatura_=_-0.7
# Concentracion g/m^3_=_1620.0
# C_Vs_to_Am_M_A/Vsm_=_65563218390.804596
# pendiente_HvsI_1/m_=_3716.3
# ordenada_HvsI_A/m_=_1297.0
# frecuencia_Hz_=_135096.33683157392

Tiempo_(s)	Campo_(V.s)	Magnetizacion_(V.s)	Campo_(kA/m)	Magnetizacion_(A/m)
0.000000e+00	-5.516903e-06	-1.272142e-09	-3.838175e+01	-8.323513e+01
1.000000e-08	-5.517256e-06	-1.272631e-09	-3.838420e+01	-8.322234e+01
2.000000e-08	-5.517326e-06	-1.273431e-09	-3.838469e+01	-8.320923e+01
3.000000e-08	-5.516984e-06	-1.274562e-09	-3.838231e+01	-8.319558e+01
4.000000e-08	-5.516260e-06	-1.273917e-09	-3.837727e+01	-8.318117e+01
5.000000e-08	-5.515067e-06	-1.268654e-09	-3.836897e+01	-8.316576e+01
6.000000e-08	-5.513210e-06	-1.261760e-09	-3.835605e+01	-8.314909e+01
7.000000e-08	-5.510706e-06	-1.252057e-09	-3.833863e+01	-8.313092e+01
8.000000e-08	-5.507708e-06	-1.273015e-09	-3.831778e+01	-8.311099e+01
9.000000e-08	-5.504297e-06	-1.332687e-09	-3.829404e+01	-8.308902e+01
1.000000e-07	-5.500432e-06	-1.323765e-09	-3.826715e+01	-8.306476e+01
1.100000e-07	-5.496061e-06	-1.205861e-09	-3.823675e+01	-8.303795e+01
1.200000e-07	-5.491510e-06	-1.171602e-09	-3.820508e+01	-8.300831e+01
1.300000e-07	-5.486913e-06	-1.308842e-09	-3.817310e+01	-8.297561e+01
1.400000e-07	-5.481835e-06	-1.371863e-09	-3.813777e+01	-8.293959e+01
1.500000e-07	-5.476271e-06	-1.240165e-09	-3.809906e+01	-8.290001e+01
1.600000e-07	-5.470430e-06	-1.164139e-09	-3.805843e+01	-8.285666e+01
1.700000e-07	-5.464315e-06	-1.299393e-09	-3.801588e+01	-8.280932e+01
1.800000e-07	-5.457741e-06	-1.383219e-09	-3.797015e+01	-8.275779e+01
1.900000e-07	-5.450703e-06	-1.237910e-09	-3.792118e+01	-8.270190e+01
2.000000e-07	-5.443431e-06	-1.134908e-09	-3.787059e+01	-8.264148e+01
2.100000e-07	-5.435851e-06	-1.242267e-09	-3.781786e+01	-8.257640e+01
2.200000e-07	-5.427967e-06	-1.363725e-09	-3.776301e+01	-8.250652e+01
2.300000e-07	-5.419875e-06	-1.309988e-09	-3.770671e+01	-8.243175e+01
2.400000e-07	-5.411410e-06	-1.225043e-09	-3.764782e+01	-8.235202e+01
2.500000e-07	-5.402310e-06	-1.248861e-09	-3.758451e+01	-8.226725e+01
2.600000e-07	-5.392466e-06	-1.296531e-09	-3.751602e+01	-8.217742e+01
2.700000e-07	-5.381987e-06	-1.253293e-09	-3.744312e+01	-8.208252e+01
2.800000e-07	-5.371059e-06	-1.190779e-09	-3.736709e+01	-8.198254e+01
2.900000e-07	-5.359667e-06	-1.214599e-09	-3.728783e+01	-8.187753e+01
3.000000e-07	-5.347864e-06	-1.258392e-09	-3.720572e+01	-8.176752e+01
3.100000e-07	-5.335721e-06	-1.223817e-09	-3.712124e+01	-8.165260e+01
3.200000e-07	-5.323126e-06	-1.169594e-09	-3.703361e+01	-8.153286e+01
3.300000e-07	-5.310069e-06	-1.208270e-09	-3.694277e+01	-8.140839e+01
3.400000e-07	-5.296694e-06	-1.258912e-09	-3.684973e+01	-8.127933e+01
3.500000e-07	-5.282983e-06	-1.199944e-09	-3.675433e+01	-8.114580e+01
3.600000e-07	-5.268730e-06	-1.138450e-09	-3.665517e+01	-8.100798e+01
3.700000e-07	-5.253939e-06	-1.200102e-09	-3.655227e+01	-8.086602e+01
3.800000e-07	-5.238796e-06	-1.224591e-09	-3.644692e+01	-8.072009e+01
3.900000e-07	-5.223167e-06	-1.151784e-09	-3.633819e+01	-8.057039e+01
4.000000e-07	-5.206992e-06	-1.175181e-09	-3.622566e+01	-8.041710e+01
4.100000e-07	-5.190438e-06	-1.260011e-09	-3.611049e+01	-8.026042e+01
4.200000e-07	-5.173535e-06	-1.184264e-09	-3.599290e+01	-8.010054e+01
4.300000e-07	-5.156210e-06	-1.116927e-09	-3.587236e+01	-7.993766e+01
4.400000e-07	-5.138608e-06	-1.222780e-09	-3.574990e+01	-7.977199e+01
4.500000e-07	-5.120799e-06	-1.227153e-09	-3.562601e+01	-7.960372e+01
4.600000e-07	-5.102469e-06	-1.090449e-09	-3.549848e+01	-7.943303e+01
4.700000e-07	-5.083597e-06	-1.143368e-09	-3.536718e+01	-7.926012e+01
4.800000e-07	-5.064485e-06	-1.254132e-09	-3.523422e+01	-7.908515e+01
4.900000e-07	-5.045201e-06	-1.162114e-09	-3.510006e+01	-7.890829e+01
5.000000e-07	-5.025663e-06	-1.123631e-09	-3.496413e+01	-7.872971e+01
5.100000e-07	-5.005900e-06	-1.227057e-09	-3.482664e+01	-7.854954e+01
5.200000e-07	-4.985883e-06	-1.173123e-09	-3.468738e+01	-7.836791e+01
5.300000e-07	-4.965412e-06	-1.089094e-09	-3.454496e+01	-7.818493e+01
5.400000e-07	-4.944565e-06	-1.194260e-09	-3.439992e+01	-7.800071e+01
5.500000e-07	-4.923439e-06	-1.209859e-09	-3.425294e+01	-7.781532e+01
5.600000e-07	-4.901900e-06	-1.085786e-09	-3.410309e+01	-7.762884e+01
5.700000e-07	-4.880026e-06	-1.132351e-09	-3.395092e+01	-7.744131e+01
5.800000e-07	-4.857884e-06	-1.218885e-09	-3.379687e+01	-7.725276e+01
5.900000e-07	-4.835372e-06	-1.134125e-09	-3.364026e+01	-7.706321e+01
6.000000e-07	-4.812487e-06	-1.111989e-09	-3.348104e+01	-7.687264e+01
6.100000e-07	-4.789328e-06	-1.193064e-09	-3.331992e+01	-7.668104e+01
6.200000e-07	-4.765869e-06	-1.152856e-09	-3.315671e+01	-7.648838e+01
6.300000e-07	-4.742189e-06	-1.099170e-09	-3.299197e+01	-7.629458e+01
6.400000e-07	-4.718288e-06	-1.153951e-09	-3.282568e+01	-7.609959e+01
6.500000e-07	-4.694021e-06	-1.150886e-09	-3.265686e+01	-7.590331e+01
6.600000e-07	-4.669295e-06	-1.102109e-09	-3.248483e+01	-7.570565e+01
6.700000e-07	-4.644152e-06	-1.129313e-09	-3.230991e+01	-7.550649e+01
6.800000e-07	-4.618585e-06	-1.140935e-09	-3.213204e+01	-7.530570e+01
6.900000e-07	-4.592433e-06	-1.100686e-09	-3.195010e+01	-7.510315e+01
7.000000e-07	-4.565775e-06	-1.109684e-09	-3.176463e+01	-7.489868e+01
7.100000e-07	-4.538768e-06	-1.125279e-09	-3.157675e+01	-7.469215e+01
7.200000e-07	-4.511466e-06	-1.096377e-09	-3.138680e+01	-7.448339e+01
7.300000e-07	-4.483920e-06	-1.097053e-09	-3.119516e+01	-7.427223e+01
7.400000e-07	-4.456178e-06	-1.119410e-09	-3.100215e+01	-7.405850e+01
7.500000e-07	-4.428321e-06	-1.099449e-09	-3.080835e+01	-7.384203e+01
7.600000e-07	-4.400257e-06	-1.085794e-09	-3.061311e+01	-7.362263e+01
7.700000e-07	-4.371842e-06	-1.091891e-09	-3.041542e+01	-7.340013e+01
7.800000e-07	-4.343016e-06	-1.072731e-09	-3.021487e+01	-7.317435e+01
7.900000e-07	-4.313839e-06	-1.061395e-09	-3.001189e+01	-7.294511e+01
8.000000e-07	-4.284395e-06	-1.076983e-09	-2.980704e+01	-7.271226e+01
8.100000e-07	-4.254568e-06	-1.068413e-09	-2.959953e+01	-7.247561e+01
8.200000e-07	-4.224395e-06	-1.047682e-09	-2.938961e+01	-7.223502e+01
8.300000e-07	-4.194031e-06	-1.057340e-09	-2.917837e+01	-7.199033e+01
8.400000e-07	-4.163454e-06	-1.058063e-09	-2.896564e+01	-7.174139e+01
8.500000e-07	-4.132573e-06	-1.029991e-09	-2.875080e+01	-7.148807e+01
8.600000e-07	-4.101442e-06	-1.025298e-09	-2.853422e+01	-7.123024e+01
8.700000e-07	-4.070127e-06	-1.035460e-09	-2.831635e+01	-7.096779e+01
8.800000e-07	-4.038656e-06	-1.020743e-09	-2.809741e+01	-7.070060e+01
8.900000e-07	-4.006989e-06	-1.012609e-09	-2.787710e+01	-7.042859e+01
9.000000e-07	-3.975080e-06	-1.026440e-09	-2.765510e+01	-7.015166e+01
9.100000e-07	-3.942937e-06	-1.014826e-09	-2.743147e+01	-6.986976e+01
9.200000e-07	-3.910410e-06	-9.939391e-10	-2.720518e+01	-6.958281e+01
9.300000e-07	-3.877411e-06	-1.002223e-09	-2.697560e+01	-6.929077e+01
9.400000e-07	-3.844007e-06	-1.005165e-09	-2.674321e+01	-6.899360e+01
9.500000e-07	-3.810146e-06	-9.863177e-10	-2.650764e+01	-6.869128e+01
9.600000e-07	-3.775819e-06	-9.845645e-10	-2.626882e+01	-6.838379e+01
9.700000e-07	-3.741099e-06	-9.904171e-10	-2.602726e+01	-6.807112e+01
9.800000e-07	-3.706029e-06	-9.749257e-10	-2.578328e+01	-6.775329e+01
9.900000e-07	-3.670699e-06	-9.628896e-10	-2.553749e+01	-6.743031e+01
1.000000e-06	-3.635188e-06	-9.690233e-10	-2.529043e+01	-6.710221e+01
1.010000e-06	-3.599553e-06	-9.644997e-10	-2.504252e+01	-6.676901e+01
1.020000e-06	-3.563830e-06	-9.564052e-10	-2.479398e+01	-6.643076e+01
1.030000e-06	-3.528009e-06	-9.630158e-10	-2.454478e+01	-6.608752e+01
1.040000e-06	-3.491970e-06	-9.601302e-10	-2.429405e+01	-6.573932e+01
1.050000e-06	-3.455574e-06	-9.450740e-10	-2.404084e+01	-6.538624e+01
1.060000e-06	-3.418881e-06	-9.382818e-10	-2.378556e+01	-6.502833e+01
1.070000e-06	-3.381976e-06	-9.345965e-10	-2.352881e+01	-6.466566e+01
1.080000e-06	-3.344812e-06	-9.223960e-10	-2.327025e+01	-6.429830e+01
1.090000e-06	-3.307413e-06	-9.185257e-10	-2.301006e+01	-6.392632e+01
1.100000e-06	-3.269819e-06	-9.227895e-10	-2.274852e+01	-6.354980e+01
1.110000e-06	-3.231962e-06	-9.177337e-10	-2.248514e+01	-6.316879e+01
1.120000e-06	-3.193915e-06	-9.087991e-10	-2.222044e+01	-6.278337e+01
1.130000e-06	-3.155680e-06	-9.068937e-10	-2.195444e+01	-6.239360e+01
1.140000e-06	-3.117153e-06	-8.976667e-10	-2.168640e+01	-6.199955e+01
1.150000e-06	-3.078332e-06	-8.816318e-10	-2.141632e+01	-6.160126e+01
1.160000e-06	-3.039280e-06	-8.752729e-10	-2.114463e+01	-6.119879e+01
1.170000e-06	-3.000075e-06	-8.719119e-10	-2.087188e+01	-6.079218e+01
1.180000e-06	-2.960742e-06	-8.651701e-10	-2.059823e+01	-6.038146e+01
1.190000e-06	-2.921290e-06	-8.626941e-10	-2.032376e+01	-5.996666e+01
1.200000e-06	-2.881694e-06	-8.601691e-10	-2.004829e+01	-5.954780e+01
1.210000e-06	-2.841973e-06	-8.502435e-10	-1.977194e+01	-5.912487e+01
1.220000e-06	-2.802115e-06	-8.395253e-10	-1.949464e+01	-5.869788e+01
1.230000e-06	-2.762082e-06	-8.356246e-10	-1.921613e+01	-5.826680e+01
1.240000e-06	-2.721913e-06	-8.294552e-10	-1.893667e+01	-5.783160e+01
1.250000e-06	-2.681435e-06	-8.227024e-10	-1.865506e+01	-5.739223e+01
1.260000e-06	-2.640673e-06	-8.193983e-10	-1.837148e+01	-5.694864e+01
1.270000e-06	-2.599788e-06	-8.143804e-10	-1.808703e+01	-5.650073e+01
1.280000e-06	-2.558753e-06	-8.050778e-10	-1.780154e+01	-5.604843e+01
1.290000e-06	-2.517428e-06	-7.961845e-10	-1.751404e+01	-5.559161e+01
1.300000e-06	-2.475635e-06	-7.891890e-10	-1.722329e+01	-5.513015e+01
1.310000e-06	-2.433519e-06	-7.801027e-10	-1.693028e+01	-5.466391e+01
1.320000e-06	-2.391163e-06	-7.709978e-10	-1.663560e+01	-5.419271e+01
1.330000e-06	-2.348532e-06	-7.640536e-10	-1.633902e+01	-5.371639e+01
1.340000e-06	-2.305701e-06	-7.557979e-10	-1.604104e+01	-5.323473e+01
1.350000e-06	-2.262694e-06	-7.465280e-10	-1.574183e+01	-5.274751e+01
1.360000e-06	-2.219404e-06	-7.365842e-10	-1.544066e+01	-5.225451e+01
1.370000e-06	-2.175914e-06	-7.263493e-10	-1.513809e+01	-5.175544e+01
1.380000e-06	-2.132381e-06	-7.159576e-10	-1.483523e+01	-5.125005e+01
1.390000e-06	-2.088756e-06	-7.050469e-10	-1.453172e+01	-5.073802e+01
1.400000e-06	-2.045038e-06	-6.949452e-10	-1.422757e+01	-5.021905e+01
1.410000e-06	-2.001280e-06	-6.865998e-10	-1.392314e+01	-4.969279e+01
1.420000e-06	-1.957412e-06	-6.795504e-10	-1.361795e+01	-4.915891e+01
1.430000e-06	-1.913486e-06	-6.723032e-10	-1.331235e+01	-4.861701e+01
1.440000e-06	-1.869429e-06	-6.627365e-10	-1.300584e+01	-4.806673e+01
1.450000e-06	-1.825222e-06	-6.498577e-10	-1.269828e+01	-4.750765e+01
1.460000e-06	-1.780942e-06	-6.362294e-10	-1.239023e+01	-4.693936e+01
1.470000e-06	-1.736545e-06	-6.234459e-10	-1.208135e+01	-4.636142e+01
1.480000e-06	-1.692005e-06	-6.124851e-10	-1.177148e+01	-4.577340e+01
1.490000e-06	-1.647312e-06	-6.036895e-10	-1.146054e+01	-4.517483e+01
1.500000e-06	-1.602512e-06	-5.985298e-10	-1.114887e+01	-4.456524e+01
1.510000e-06	-1.557621e-06	-5.938337e-10	-1.083655e+01	-4.394417e+01
1.520000e-06	-1.512652e-06	-5.857579e-10	-1.052370e+01	-4.331112e+01
1.530000e-06	-1.467586e-06	-5.754225e-10	-1.021017e+01	-4.266562e+01
1.540000e-06	-1.422365e-06	-5.657301e-10	-9.895563e+00	-4.200718e+01
1.550000e-06	-1.377006e-06	-5.553478e-10	-9.579996e+00	-4.133530e+01
1.560000e-06	-1.331545e-06	-5.442819e-10	-9.263713e+00	-4.064949e+01
1.570000e-06	-1.286014e-06	-5.327721e-10	-8.946952e+00	-3.994927e+01
1.580000e-06	-1.240432e-06	-5.229814e-10	-8.629831e+00	-3.923415e+01
1.590000e-06	-1.194754e-06	-5.121489e-10	-8.312046e+00	-3.850368e+01
1.600000e-06	-1.149024e-06	-5.003922e-10	-7.993896e+00	-3.775738e+01
1.610000e-06	-1.103240e-06	-4.898928e-10	-7.675372e+00	-3.699481e+01
1.620000e-06	-1.057340e-06	-4.787839e-10	-7.356040e+00	-3.621554e+01
1.630000e-06	-1.011376e-06	-4.656078e-10	-7.036260e+00	-3.541916e+01
1.640000e-06	-9.652706e-07	-4.513982e-10	-6.715501e+00	-3.460527e+01
1.650000e-06	-9.190693e-07	-4.380621e-10	-6.394073e+00	-3.377351e+01
1.660000e-06	-8.728776e-07	-4.249414e-10	-6.072713e+00	-3.292354e+01
1.670000e-06	-8.265651e-07	-4.115987e-10	-5.750511e+00	-3.205506e+01
1.680000e-06	-7.802760e-07	-3.972008e-10	-5.428472e+00	-3.116778e+01
1.690000e-06	-7.339775e-07	-3.834436e-10	-5.106368e+00	-3.026147e+01
1.700000e-06	-6.875512e-07	-3.707121e-10	-4.783374e+00	-2.933591e+01
1.710000e-06	-6.410901e-07	-3.559931e-10	-4.460139e+00	-2.839095e+01
1.720000e-06	-5.945189e-07	-3.400227e-10	-4.136138e+00	-2.742647e+01
1.730000e-06	-5.479305e-07	-3.252588e-10	-3.812017e+00	-2.644238e+01
1.740000e-06	-5.013581e-07	-3.111050e-10	-3.488008e+00	-2.543865e+01
1.750000e-06	-4.547189e-07	-2.955528e-10	-3.163533e+00	-2.441531e+01
1.760000e-06	-4.080134e-07	-2.783087e-10	-2.838597e+00	-2.337241e+01
1.770000e-06	-3.612324e-07	-2.603085e-10	-2.513137e+00	-2.231008e+01
1.780000e-06	-3.144986e-07	-2.422297e-10	-2.188004e+00	-2.122848e+01
1.790000e-06	-2.677796e-07	-2.266107e-10	-1.862974e+00	-2.012785e+01
1.800000e-06	-2.209779e-07	-2.132973e-10	-1.537369e+00	-1.900845e+01
1.810000e-06	-1.740889e-07	-2.002998e-10	-1.211157e+00	-1.787062e+01
1.820000e-06	-1.271369e-07	-1.880965e-10	-8.845067e-01	-1.671475e+01
1.830000e-06	-8.023990e-08	-1.738248e-10	-5.582384e-01	-1.554128e+01
1.840000e-06	-3.342013e-08	-1.561354e-10	-2.325078e-01	-1.435070e+01
1.850000e-06	1.333630e-08	-1.378722e-10	9.278222e-02	-1.314358e+01
1.860000e-06	6.009748e-08	-1.181013e-10	4.181053e-01	-1.192050e+01
1.870000e-06	1.069073e-07	-9.507371e-11	7.437669e-01	-1.068213e+01
1.880000e-06	1.537167e-07	-7.397142e-11	1.069425e+00	-9.429176e+00
1.890000e-06	2.005179e-07	-5.963609e-11	1.395027e+00	-8.162386e+00
1.900000e-06	2.472859e-07	-4.876058e-11	1.720397e+00	-6.882564e+00
1.910000e-06	2.940713e-07	-3.710059e-11	2.045889e+00	-5.590555e+00
1.920000e-06	3.409285e-07	-2.172895e-11	2.371880e+00	-4.287246e+00
1.930000e-06	3.876396e-07	-6.165927e-13	2.696854e+00	-2.973562e+00
1.940000e-06	4.341616e-07	2.342237e-11	3.020513e+00	-1.650464e+00
1.950000e-06	4.806572e-07	4.608556e-11	3.343989e+00	-3.189486e-01
1.960000e-06	5.271310e-07	6.652288e-11	3.667313e+00	1.019962e+00
1.970000e-06	5.735656e-07	8.359156e-11	3.990364e+00	2.365218e+00
1.980000e-06	6.198968e-07	9.937662e-11	4.312695e+00	3.715748e+00
1.990000e-06	6.661863e-07	1.142336e-10	4.634737e+00	5.070462e+00
2.000000e-06	7.124769e-07	1.278692e-10	4.956786e+00	6.428255e+00
2.010000e-06	7.588020e-07	1.464255e-10	5.279075e+00	7.788015e+00
2.020000e-06	8.051000e-07	1.666765e-10	5.601176e+00	9.148621e+00
2.030000e-06	8.512924e-07	1.874250e-10	5.922542e+00	1.050895e+01
2.040000e-06	8.974588e-07	2.090235e-10	6.243726e+00	1.186788e+01
2.050000e-06	9.435479e-07	2.277481e-10	6.564374e+00	1.322430e+01
2.060000e-06	9.895185e-07	2.466155e-10	6.884197e+00	1.457711e+01
2.070000e-06	1.035411e-06	2.657114e-10	7.203474e+00	1.592521e+01
2.080000e-06	1.081253e-06	2.837979e-10	7.522402e+00	1.726754e+01
2.090000e-06	1.126990e-06	3.013064e-10	7.840602e+00	1.860304e+01
2.100000e-06	1.172674e-06	3.209168e-10	8.158435e+00	1.993070e+01
2.110000e-06	1.218328e-06	3.401733e-10	8.476054e+00	2.124951e+01
2.120000e-06	1.263903e-06	3.583251e-10	8.793121e+00	2.255851e+01
2.130000e-06	1.309393e-06	3.756827e-10	9.109604e+00	2.385677e+01
2.140000e-06	1.354807e-06	3.929387e-10	9.425554e+00	2.514341e+01
2.150000e-06	1.400146e-06	4.098158e-10	9.740983e+00	2.641758e+01
2.160000e-06	1.445361e-06	4.269887e-10	1.005554e+01	2.767846e+01
2.170000e-06	1.490495e-06	4.461433e-10	1.036955e+01	2.892529e+01
2.180000e-06	1.535515e-06	4.634018e-10	1.068276e+01	3.015737e+01
2.190000e-06	1.580436e-06	4.807703e-10	1.099528e+01	3.137402e+01
2.200000e-06	1.625200e-06	4.998910e-10	1.130671e+01	3.257463e+01
2.210000e-06	1.669743e-06	5.170957e-10	1.161660e+01	3.375862e+01
2.220000e-06	1.714162e-06	5.308707e-10	1.192563e+01	3.492548e+01
2.230000e-06	1.758439e-06	5.421167e-10	1.223367e+01	3.607475e+01
2.240000e-06	1.802600e-06	5.551749e-10	1.254090e+01	3.720600e+01
2.250000e-06	1.846669e-06	5.712946e-10	1.284749e+01	3.831889e+01
2.260000e-06	1.890637e-06	5.895804e-10	1.315338e+01	3.941309e+01
2.270000e-06	1.934532e-06	6.083736e-10	1.345877e+01	4.048833e+01
2.280000e-06	1.978319e-06	6.245846e-10	1.376340e+01	4.154442e+01
2.290000e-06	2.022001e-06	6.380053e-10	1.406730e+01	4.258117e+01
2.300000e-06	2.065660e-06	6.497674e-10	1.437104e+01	4.359847e+01
2.310000e-06	2.109300e-06	6.591123e-10	1.467465e+01	4.459625e+01
2.320000e-06	2.152852e-06	6.697237e-10	1.497765e+01	4.557447e+01
2.330000e-06	2.196300e-06	6.846875e-10	1.527992e+01	4.653313e+01
2.340000e-06	2.239602e-06	6.994187e-10	1.558117e+01	4.747229e+01
2.350000e-06	2.282781e-06	7.126654e-10	1.588158e+01	4.839202e+01
2.360000e-06	2.325824e-06	7.255584e-10	1.618103e+01	4.929245e+01
2.370000e-06	2.368628e-06	7.384417e-10	1.647882e+01	5.017372e+01
2.380000e-06	2.411200e-06	7.504019e-10	1.677500e+01	5.103601e+01
2.390000e-06	2.453391e-06	7.629422e-10	1.706853e+01	5.187952e+01
2.400000e-06	2.495110e-06	7.740052e-10	1.735877e+01	5.270449e+01
2.410000e-06	2.536466e-06	7.844800e-10	1.764649e+01	5.351116e+01
2.420000e-06	2.577652e-06	7.963281e-10	1.793303e+01	5.429981e+01
2.430000e-06	2.618691e-06	8.079127e-10	1.821854e+01	5.507073e+01
2.440000e-06	2.659460e-06	8.182456e-10	1.850218e+01	5.582421e+01
2.450000e-06	2.699909e-06	8.256989e-10	1.878358e+01	5.656057e+01
2.460000e-06	2.740077e-06	8.313726e-10	1.906304e+01	5.728013e+01
2.470000e-06	2.780054e-06	8.383745e-10	1.934117e+01	5.798324e+01
2.480000e-06	2.819886e-06	8.474375e-10	1.961828e+01	5.867023e+01
2.490000e-06	2.859616e-06	8.577670e-10	1.989469e+01	5.934144e+01
2.500000e-06	2.899241e-06	8.686133e-10	2.017036e+01	5.999721e+01
2.510000e-06	2.938755e-06	8.787263e-10	2.044526e+01	6.063791e+01
2.520000e-06	2.978180e-06	8.866461e-10	2.071955e+01	6.126387e+01
2.530000e-06	3.017428e-06	8.929982e-10	2.099260e+01	6.187544e+01
2.540000e-06	3.056401e-06	8.975829e-10	2.126374e+01	6.247297e+01
2.550000e-06	3.095086e-06	9.030383e-10	2.153288e+01	6.305679e+01
2.560000e-06	3.133565e-06	9.115209e-10	2.180058e+01	6.362725e+01
2.570000e-06	3.171869e-06	9.221041e-10	2.206707e+01	6.418466e+01
2.580000e-06	3.209947e-06	9.347648e-10	2.233198e+01	6.472935e+01
2.590000e-06	3.247799e-06	9.470186e-10	2.259532e+01	6.526165e+01
2.600000e-06	3.285446e-06	9.553577e-10	2.285723e+01	6.578186e+01
2.610000e-06	3.322900e-06	9.595169e-10	2.311781e+01	6.629029e+01
2.620000e-06	3.360133e-06	9.612440e-10	2.337684e+01	6.678724e+01
2.630000e-06	3.397086e-06	9.651202e-10	2.363393e+01	6.727299e+01
2.640000e-06	3.433807e-06	9.732344e-10	2.388940e+01	6.774784e+01
2.650000e-06	3.470284e-06	9.833957e-10	2.414317e+01	6.821206e+01
2.660000e-06	3.506459e-06	9.984466e-10	2.439485e+01	6.866591e+01
2.670000e-06	3.542491e-06	1.008223e-09	2.464553e+01	6.910967e+01
2.680000e-06	3.578337e-06	1.011916e-09	2.489491e+01	6.954359e+01
2.690000e-06	3.613962e-06	1.013809e-09	2.514276e+01	6.996792e+01
2.700000e-06	3.649477e-06	1.016461e-09	2.538984e+01	7.038291e+01
2.710000e-06	3.684860e-06	1.021878e-09	2.563600e+01	7.078880e+01
2.720000e-06	3.720060e-06	1.030794e-09	2.588090e+01	7.118582e+01
2.730000e-06	3.755063e-06	1.040366e-09	2.612442e+01	7.157420e+01
2.740000e-06	3.789754e-06	1.044373e-09	2.636577e+01	7.195417e+01
2.750000e-06	3.823979e-06	1.046501e-09	2.660387e+01	7.232595e+01
2.760000e-06	3.857597e-06	1.049451e-09	2.683776e+01	7.268975e+01
2.770000e-06	3.890626e-06	1.053757e-09	2.706754e+01	7.304578e+01
2.780000e-06	3.923242e-06	1.059384e-09	2.729446e+01	7.339425e+01
2.790000e-06	3.955586e-06	1.066139e-09	2.751948e+01	7.373535e+01
2.800000e-06	3.987694e-06	1.070931e-09	2.774286e+01	7.406927e+01
2.810000e-06	4.019576e-06	1.074094e-09	2.796467e+01	7.439622e+01
2.820000e-06	4.051302e-06	1.077819e-09	2.818539e+01	7.471637e+01
2.830000e-06	4.082844e-06	1.081357e-09	2.840483e+01	7.502989e+01
2.840000e-06	4.114171e-06	1.084252e-09	2.862278e+01	7.533696e+01
2.850000e-06	4.145306e-06	1.087962e-09	2.883938e+01	7.563775e+01
2.860000e-06	4.176168e-06	1.091604e-09	2.905410e+01	7.593240e+01
2.870000e-06	4.206667e-06	1.096151e-09	2.926628e+01	7.622108e+01
2.880000e-06	4.236857e-06	1.099871e-09	2.947632e+01	7.650391e+01
2.890000e-06	4.266790e-06	1.103134e-09	2.968456e+01	7.678103e+01
2.900000e-06	4.296426e-06	1.104925e-09	2.989074e+01	7.705256e+01
