# Temperatura_=_-0.4
# Concentracion g/m^3_=_1620.0
# C_Vs_to_Am_M_A/Vsm_=_65563218390.804596
# pendiente_HvsI_1/m_=_3716.3
# ordenada_HvsI_A/m_=_1297.0
# frecuencia_Hz_=_135091.97011173255

Tiempo_(s)	Campo_(V.s)	Magnetizacion_(V.s)	Campo_(kA/m)	Magnetizacion_(A/m)
0.000000e+00	-5.488550e-06	-1.667528e-09	-3.837110e+01	-1.072684e+02
1.000000e-08	-5.488788e-06	-1.666192e-09	-3.837276e+01	-1.072297e+02
2.000000e-08	-5.488853e-06	-1.665265e-09	-3.837321e+01	-1.071867e+02
3.000000e-08	-5.488625e-06	-1.669077e-09	-3.837162e+01	-1.071394e+02
4.000000e-08	-5.487922e-06	-1.674342e-09	-3.836671e+01	-1.070877e+02
5.000000e-08	-5.486664e-06	-1.674507e-09	-3.835791e+01	-1.070319e+02
6.000000e-08	-5.484854e-06	-1.667754e-09	-3.834526e+01	-1.069718e+02
7.000000e-08	-5.482423e-06	-1.646488e-09	-3.832826e+01	-1.069077e+02
8.000000e-08	-5.479435e-06	-1.644377e-09	-3.830737e+01	-1.068396e+02
9.000000e-08	-5.476019e-06	-1.703897e-09	-3.828349e+01	-1.067675e+02
1.000000e-07	-5.472136e-06	-1.743118e-09	-3.825634e+01	-1.066916e+02
1.100000e-07	-5.467881e-06	-1.654029e-09	-3.822660e+01	-1.066119e+02
1.200000e-07	-5.463417e-06	-1.604864e-09	-3.819539e+01	-1.065286e+02
1.300000e-07	-5.458773e-06	-1.640140e-09	-3.816292e+01	-1.064418e+02
1.400000e-07	-5.453718e-06	-1.717790e-09	-3.812758e+01	-1.063516e+02
1.500000e-07	-5.448190e-06	-1.657492e-09	-3.808894e+01	-1.062580e+02
1.600000e-07	-5.442417e-06	-1.616008e-09	-3.804858e+01	-1.061613e+02
1.700000e-07	-5.436368e-06	-1.673337e-09	-3.800629e+01	-1.060615e+02
1.800000e-07	-5.429756e-06	-1.710007e-09	-3.796006e+01	-1.059586e+02
1.900000e-07	-5.422639e-06	-1.658001e-09	-3.791031e+01	-1.058529e+02
2.000000e-07	-5.415273e-06	-1.576302e-09	-3.785881e+01	-1.057444e+02
2.100000e-07	-5.407714e-06	-1.606969e-09	-3.780596e+01	-1.056331e+02
2.200000e-07	-5.399848e-06	-1.636354e-09	-3.775097e+01	-1.055192e+02
2.300000e-07	-5.391724e-06	-1.630657e-09	-3.769417e+01	-1.054027e+02
2.400000e-07	-5.383386e-06	-1.584230e-09	-3.763588e+01	-1.052837e+02
2.500000e-07	-5.374400e-06	-1.587933e-09	-3.757306e+01	-1.051621e+02
2.600000e-07	-5.364437e-06	-1.571871e-09	-3.750341e+01	-1.050381e+02
2.700000e-07	-5.353907e-06	-1.577955e-09	-3.742979e+01	-1.049116e+02
2.800000e-07	-5.343041e-06	-1.565260e-09	-3.735383e+01	-1.047825e+02
2.900000e-07	-5.331698e-06	-1.559191e-09	-3.727453e+01	-1.046510e+02
3.000000e-07	-5.319907e-06	-1.547315e-09	-3.719209e+01	-1.045169e+02
3.100000e-07	-5.307795e-06	-1.575645e-09	-3.710742e+01	-1.043802e+02
3.200000e-07	-5.295324e-06	-1.567875e-09	-3.702023e+01	-1.042409e+02
3.300000e-07	-5.282296e-06	-1.544899e-09	-3.692915e+01	-1.040987e+02
3.400000e-07	-5.268887e-06	-1.551367e-09	-3.683541e+01	-1.039538e+02
3.500000e-07	-5.255177e-06	-1.564805e-09	-3.673956e+01	-1.038058e+02
3.600000e-07	-5.240963e-06	-1.540126e-09	-3.664019e+01	-1.036548e+02
3.700000e-07	-5.226373e-06	-1.539853e-09	-3.653819e+01	-1.035006e+02
3.800000e-07	-5.211484e-06	-1.556082e-09	-3.643410e+01	-1.033430e+02
3.900000e-07	-5.195862e-06	-1.531710e-09	-3.632488e+01	-1.031818e+02
4.000000e-07	-5.179460e-06	-1.524936e-09	-3.621022e+01	-1.030170e+02
4.100000e-07	-5.162814e-06	-1.556340e-09	-3.609384e+01	-1.028484e+02
4.200000e-07	-5.146054e-06	-1.542455e-09	-3.597667e+01	-1.026757e+02
4.300000e-07	-5.128979e-06	-1.495817e-09	-3.585730e+01	-1.024989e+02
4.400000e-07	-5.111587e-06	-1.535156e-09	-3.573571e+01	-1.023176e+02
4.500000e-07	-5.093887e-06	-1.550147e-09	-3.561196e+01	-1.021319e+02
4.600000e-07	-5.075776e-06	-1.500884e-09	-3.548535e+01	-1.019414e+02
4.700000e-07	-5.057135e-06	-1.491013e-09	-3.535502e+01	-1.017460e+02
4.800000e-07	-5.038026e-06	-1.534510e-09	-3.522143e+01	-1.015457e+02
4.900000e-07	-5.018694e-06	-1.493608e-09	-3.508628e+01	-1.013401e+02
5.000000e-07	-4.999183e-06	-1.473244e-09	-3.494988e+01	-1.011292e+02
5.100000e-07	-4.979466e-06	-1.506570e-09	-3.481203e+01	-1.009129e+02
5.200000e-07	-4.959539e-06	-1.497394e-09	-3.467272e+01	-1.006909e+02
5.300000e-07	-4.939249e-06	-1.453932e-09	-3.453087e+01	-1.004633e+02
5.400000e-07	-4.918534e-06	-1.495571e-09	-3.438605e+01	-1.002299e+02
5.500000e-07	-4.897455e-06	-1.502200e-09	-3.423868e+01	-9.999071e+01
5.600000e-07	-4.876023e-06	-1.452311e-09	-3.408885e+01	-9.974556e+01
5.700000e-07	-4.854244e-06	-1.455509e-09	-3.393659e+01	-9.949447e+01
5.800000e-07	-4.832219e-06	-1.487857e-09	-3.378261e+01	-9.923741e+01
5.900000e-07	-4.809906e-06	-1.447743e-09	-3.362662e+01	-9.897436e+01
6.000000e-07	-4.787128e-06	-1.436271e-09	-3.346737e+01	-9.870534e+01
6.100000e-07	-4.763976e-06	-1.468511e-09	-3.330552e+01	-9.843037e+01
6.200000e-07	-4.740655e-06	-1.458376e-09	-3.314247e+01	-9.814949e+01
6.300000e-07	-4.717116e-06	-1.434018e-09	-3.297791e+01	-9.786277e+01
6.400000e-07	-4.693324e-06	-1.452273e-09	-3.281158e+01	-9.757027e+01
6.500000e-07	-4.669260e-06	-1.447875e-09	-3.264335e+01	-9.727208e+01
6.600000e-07	-4.644797e-06	-1.418973e-09	-3.247232e+01	-9.696830e+01
6.700000e-07	-4.619884e-06	-1.422338e-09	-3.229815e+01	-9.665905e+01
6.800000e-07	-4.594524e-06	-1.425522e-09	-3.212085e+01	-9.634443e+01
6.900000e-07	-4.568599e-06	-1.406246e-09	-3.193961e+01	-9.602458e+01
7.000000e-07	-4.542052e-06	-1.400211e-09	-3.175402e+01	-9.569964e+01
7.100000e-07	-4.515014e-06	-1.410141e-09	-3.156499e+01	-9.536973e+01
7.200000e-07	-4.487613e-06	-1.398404e-09	-3.137343e+01	-9.503501e+01
7.300000e-07	-4.459980e-06	-1.389639e-09	-3.118025e+01	-9.469560e+01
7.400000e-07	-4.432256e-06	-1.388583e-09	-3.098642e+01	-9.435166e+01
7.500000e-07	-4.404453e-06	-1.384932e-09	-3.079205e+01	-9.400331e+01
7.600000e-07	-4.376451e-06	-1.371397e-09	-3.059628e+01	-9.365069e+01
7.700000e-07	-4.348167e-06	-1.366629e-09	-3.039855e+01	-9.329392e+01
7.800000e-07	-4.319478e-06	-1.355286e-09	-3.019798e+01	-9.293311e+01
7.900000e-07	-4.290372e-06	-1.346132e-09	-2.999450e+01	-9.256837e+01
8.000000e-07	-4.260981e-06	-1.341424e-09	-2.978902e+01	-9.219978e+01
8.100000e-07	-4.231385e-06	-1.340501e-09	-2.958211e+01	-9.182741e+01
8.200000e-07	-4.201554e-06	-1.327262e-09	-2.937356e+01	-9.145134e+01
8.300000e-07	-4.171460e-06	-1.320704e-09	-2.916317e+01	-9.107161e+01
8.400000e-07	-4.140954e-06	-1.315134e-09	-2.894990e+01	-9.068823e+01
8.500000e-07	-4.110055e-06	-1.306761e-09	-2.873388e+01	-9.030122e+01
8.600000e-07	-4.078932e-06	-1.297311e-09	-2.851629e+01	-8.991057e+01
8.700000e-07	-4.047653e-06	-1.299689e-09	-2.829762e+01	-8.951624e+01
8.800000e-07	-4.016249e-06	-1.295950e-09	-2.807807e+01	-8.911820e+01
8.900000e-07	-3.984646e-06	-1.288467e-09	-2.785713e+01	-8.871637e+01
9.000000e-07	-3.952833e-06	-1.281363e-09	-2.763472e+01	-8.831067e+01
9.100000e-07	-3.920801e-06	-1.270656e-09	-2.741078e+01	-8.790099e+01
9.200000e-07	-3.888453e-06	-1.254056e-09	-2.718463e+01	-8.748721e+01
9.300000e-07	-3.855704e-06	-1.246659e-09	-2.695568e+01	-8.706920e+01
9.400000e-07	-3.822608e-06	-1.244882e-09	-2.672430e+01	-8.664681e+01
9.500000e-07	-3.789216e-06	-1.233501e-09	-2.649085e+01	-8.621987e+01
9.600000e-07	-3.755343e-06	-1.224926e-09	-2.625404e+01	-8.578820e+01
9.700000e-07	-3.720836e-06	-1.223044e-09	-2.601280e+01	-8.535163e+01
9.800000e-07	-3.685873e-06	-1.216503e-09	-2.576837e+01	-8.490995e+01
9.900000e-07	-3.650620e-06	-1.205962e-09	-2.552192e+01	-8.446298e+01
1.000000e-06	-3.615145e-06	-1.203168e-09	-2.527390e+01	-8.401050e+01
1.010000e-06	-3.579518e-06	-1.198731e-09	-2.502483e+01	-8.355231e+01
1.020000e-06	-3.543785e-06	-1.190148e-09	-2.477502e+01	-8.308821e+01
1.030000e-06	-3.507963e-06	-1.182198e-09	-2.452458e+01	-8.261800e+01
1.040000e-06	-3.472015e-06	-1.179297e-09	-2.427326e+01	-8.214149e+01
1.050000e-06	-3.435861e-06	-1.172570e-09	-2.402051e+01	-8.165848e+01
1.060000e-06	-3.399435e-06	-1.164647e-09	-2.376585e+01	-8.116879e+01
1.070000e-06	-3.362780e-06	-1.156153e-09	-2.350959e+01	-8.067227e+01
1.080000e-06	-3.325861e-06	-1.147319e-09	-2.325149e+01	-8.016874e+01
1.090000e-06	-3.288641e-06	-1.134323e-09	-2.299128e+01	-7.965808e+01
1.100000e-06	-3.251195e-06	-1.125362e-09	-2.272949e+01	-7.914015e+01
1.110000e-06	-3.213483e-06	-1.115267e-09	-2.246584e+01	-7.861486e+01
1.120000e-06	-3.175583e-06	-1.107699e-09	-2.220088e+01	-7.808210e+01
1.130000e-06	-3.137476e-06	-1.101381e-09	-2.193446e+01	-7.754182e+01
1.140000e-06	-3.099052e-06	-1.095418e-09	-2.166584e+01	-7.699395e+01
1.150000e-06	-3.060422e-06	-1.086935e-09	-2.139577e+01	-7.643847e+01
1.160000e-06	-3.021564e-06	-1.077494e-09	-2.112411e+01	-7.587536e+01
1.170000e-06	-2.982545e-06	-1.067797e-09	-2.085132e+01	-7.530463e+01
1.180000e-06	-2.943427e-06	-1.056438e-09	-2.057784e+01	-7.472631e+01
1.190000e-06	-2.904064e-06	-1.043975e-09	-2.030265e+01	-7.414044e+01
1.200000e-06	-2.864496e-06	-1.035310e-09	-2.002603e+01	-7.354708e+01
1.210000e-06	-2.824840e-06	-1.028423e-09	-1.974879e+01	-7.294631e+01
1.220000e-06	-2.785043e-06	-1.021057e-09	-1.947056e+01	-7.233820e+01
1.230000e-06	-2.745056e-06	-1.014181e-09	-1.919101e+01	-7.172286e+01
1.240000e-06	-2.704952e-06	-1.007695e-09	-1.891063e+01	-7.110040e+01
1.250000e-06	-2.664748e-06	-9.997118e-10	-1.862957e+01	-7.047092e+01
1.260000e-06	-2.624358e-06	-9.888055e-10	-1.834720e+01	-6.983455e+01
1.270000e-06	-2.583763e-06	-9.763210e-10	-1.806339e+01	-6.919140e+01
1.280000e-06	-2.542943e-06	-9.664953e-10	-1.777801e+01	-6.854159e+01
1.290000e-06	-2.501918e-06	-9.572464e-10	-1.749120e+01	-6.788522e+01
1.300000e-06	-2.460763e-06	-9.457712e-10	-1.720348e+01	-6.722241e+01
1.310000e-06	-2.419313e-06	-9.354294e-10	-1.691370e+01	-6.655322e+01
1.320000e-06	-2.377450e-06	-9.244492e-10	-1.662103e+01	-6.587775e+01
1.330000e-06	-2.335207e-06	-9.132159e-10	-1.632571e+01	-6.519605e+01
1.340000e-06	-2.292606e-06	-9.012770e-10	-1.602788e+01	-6.450815e+01
1.350000e-06	-2.249772e-06	-8.910823e-10	-1.572842e+01	-6.381406e+01
1.360000e-06	-2.206746e-06	-8.797360e-10	-1.542762e+01	-6.311376e+01
1.370000e-06	-2.163518e-06	-8.690953e-10	-1.512541e+01	-6.240722e+01
1.380000e-06	-2.120088e-06	-8.599146e-10	-1.482178e+01	-6.169434e+01
1.390000e-06	-2.076488e-06	-8.470728e-10	-1.451697e+01	-6.097503e+01
1.400000e-06	-2.032840e-06	-8.302883e-10	-1.421182e+01	-6.024912e+01
1.410000e-06	-1.989143e-06	-8.170269e-10	-1.390633e+01	-5.951643e+01
1.420000e-06	-1.945384e-06	-8.045106e-10	-1.360041e+01	-5.877674e+01
1.430000e-06	-1.901549e-06	-7.937422e-10	-1.329395e+01	-5.802977e+01
1.440000e-06	-1.857631e-06	-7.837120e-10	-1.298692e+01	-5.727522e+01
1.450000e-06	-1.813666e-06	-7.747356e-10	-1.267955e+01	-5.651274e+01
1.460000e-06	-1.769657e-06	-7.623500e-10	-1.237188e+01	-5.574194e+01
1.470000e-06	-1.725577e-06	-7.477806e-10	-1.206371e+01	-5.496238e+01
1.480000e-06	-1.681394e-06	-7.329089e-10	-1.175482e+01	-5.417361e+01
1.490000e-06	-1.637041e-06	-7.184265e-10	-1.144475e+01	-5.337510e+01
1.500000e-06	-1.592549e-06	-7.049924e-10	-1.113369e+01	-5.256632e+01
1.510000e-06	-1.547973e-06	-6.939025e-10	-1.082206e+01	-5.174669e+01
1.520000e-06	-1.503321e-06	-6.837368e-10	-1.050990e+01	-5.091560e+01
1.530000e-06	-1.458456e-06	-6.727965e-10	-1.019624e+01	-5.007242e+01
1.540000e-06	-1.413370e-06	-6.618747e-10	-9.881035e+00	-4.921648e+01
1.550000e-06	-1.368349e-06	-6.513089e-10	-9.566291e+00	-4.834712e+01
1.560000e-06	-1.323309e-06	-6.393076e-10	-9.251409e+00	-4.746362e+01
1.570000e-06	-1.278065e-06	-6.248896e-10	-8.935105e+00	-4.656530e+01
1.580000e-06	-1.232643e-06	-6.111335e-10	-8.617553e+00	-4.565142e+01
1.590000e-06	-1.187114e-06	-5.957325e-10	-8.299255e+00	-4.472128e+01
1.600000e-06	-1.141529e-06	-5.797253e-10	-7.980565e+00	-4.377416e+01
1.610000e-06	-1.095810e-06	-5.652853e-10	-7.660939e+00	-4.280935e+01
1.620000e-06	-1.050009e-06	-5.516779e-10	-7.340734e+00	-4.182618e+01
1.630000e-06	-1.004201e-06	-5.364590e-10	-7.020485e+00	-4.082396e+01
1.640000e-06	-9.583685e-07	-5.208047e-10	-6.700067e+00	-3.980204e+01
1.650000e-06	-9.125697e-07	-5.064431e-10	-6.379882e+00	-3.875982e+01
1.660000e-06	-8.666919e-07	-4.914011e-10	-6.059145e+00	-3.769672e+01
1.670000e-06	-8.206237e-07	-4.743712e-10	-5.737077e+00	-3.661218e+01
1.680000e-06	-7.744799e-07	-4.578148e-10	-5.414480e+00	-3.550573e+01
1.690000e-06	-7.283335e-07	-4.412561e-10	-5.091865e+00	-3.437692e+01
1.700000e-06	-6.821037e-07	-4.246973e-10	-4.768667e+00	-3.322536e+01
1.710000e-06	-6.358211e-07	-4.047516e-10	-4.445100e+00	-3.205073e+01
1.720000e-06	-5.895598e-07	-3.845384e-10	-4.121682e+00	-3.085276e+01
1.730000e-06	-5.432352e-07	-3.661495e-10	-3.797821e+00	-2.963127e+01
1.740000e-06	-4.968812e-07	-3.484235e-10	-3.473755e+00	-2.838613e+01
1.750000e-06	-4.504899e-07	-3.306861e-10	-3.149428e+00	-2.711730e+01
1.760000e-06	-4.040475e-07	-3.125424e-10	-2.824743e+00	-2.582480e+01
1.770000e-06	-3.575183e-07	-2.939606e-10	-2.499453e+00	-2.450874e+01
1.780000e-06	-3.110304e-07	-2.728368e-10	-2.174450e+00	-2.316931e+01
1.790000e-06	-2.645601e-07	-2.513483e-10	-1.849570e+00	-2.180679e+01
1.800000e-06	-2.180233e-07	-2.324141e-10	-1.524227e+00	-2.042152e+01
1.810000e-06	-1.714867e-07	-2.132303e-10	-1.198883e+00	-1.901395e+01
1.820000e-06	-1.248683e-07	-1.935596e-10	-8.729689e-01	-1.758458e+01
1.830000e-06	-7.820985e-08	-1.737150e-10	-5.467743e-01	-1.613402e+01
1.840000e-06	-3.161689e-08	-1.539214e-10	-2.210374e-01	-1.466294e+01
1.850000e-06	1.490550e-08	-1.342548e-10	1.042061e-01	-1.317210e+01
1.860000e-06	6.135920e-08	-1.149716e-10	4.289693e-01	-1.166232e+01
1.870000e-06	1.077864e-07	-9.343292e-11	7.535473e-01	-1.013451e+01
1.880000e-06	1.542894e-07	-6.857305e-11	1.078655e+00	-8.589631e+00
1.890000e-06	2.008494e-07	-4.439383e-11	1.404162e+00	-7.028726e+00
1.900000e-06	2.473974e-07	-2.257388e-11	1.729584e+00	-5.452886e+00
1.910000e-06	2.939192e-07	-3.460109e-12	2.054824e+00	-3.863262e+00
1.920000e-06	3.403984e-07	1.597516e-11	2.379765e+00	-2.261058e+00
1.930000e-06	3.868106e-07	3.703708e-11	2.704238e+00	-6.475207e-01
1.940000e-06	4.331810e-07	5.967978e-11	3.028419e+00	9.760584e-01
1.950000e-06	4.794714e-07	8.475747e-11	3.352041e+00	2.608354e+00
1.960000e-06	5.257290e-07	1.096636e-10	3.675433e+00	4.248012e+00
1.970000e-06	5.719364e-07	1.312468e-10	3.998474e+00	5.893653e+00
1.980000e-06	6.180772e-07	1.527169e-10	4.321050e+00	7.543879e+00
1.990000e-06	6.642230e-07	1.749776e-10	4.643661e+00	9.197281e+00
2.000000e-06	7.103300e-07	1.954066e-10	4.966001e+00	1.085244e+01
2.010000e-06	7.563353e-07	2.184350e-10	5.287629e+00	1.250795e+01
2.020000e-06	8.023417e-07	2.419510e-10	5.609265e+00	1.416239e+01
2.030000e-06	8.483054e-07	2.663126e-10	5.930603e+00	1.581437e+01
2.040000e-06	8.941954e-07	2.929910e-10	6.251425e+00	1.746250e+01
2.050000e-06	9.401213e-07	3.178963e-10	6.572499e+00	1.910542e+01
2.060000e-06	9.859950e-07	3.418479e-10	6.893207e+00	2.074180e+01
2.070000e-06	1.031819e-06	3.624482e-10	7.213567e+00	2.237033e+01
2.080000e-06	1.077528e-06	3.818484e-10	7.533124e+00	2.398975e+01
2.090000e-06	1.123037e-06	4.029252e-10	7.851284e+00	2.559883e+01
2.100000e-06	1.168440e-06	4.276814e-10	8.168704e+00	2.719639e+01
2.110000e-06	1.213828e-06	4.522984e-10	8.486017e+00	2.878131e+01
2.120000e-06	1.259145e-06	4.752661e-10	8.802834e+00	3.035249e+01
2.130000e-06	1.304375e-06	4.962816e-10	9.119040e+00	3.190891e+01
2.140000e-06	1.349481e-06	5.162301e-10	9.434384e+00	3.344960e+01
2.150000e-06	1.394441e-06	5.345006e-10	9.748697e+00	3.497364e+01
2.160000e-06	1.439389e-06	5.517128e-10	1.006294e+01	3.648019e+01
2.170000e-06	1.484278e-06	5.719365e-10	1.037676e+01	3.796844e+01
2.180000e-06	1.529026e-06	5.931772e-10	1.068960e+01	3.943768e+01
2.190000e-06	1.573614e-06	6.144694e-10	1.100132e+01	4.088724e+01
2.200000e-06	1.618038e-06	6.374404e-10	1.131189e+01	4.231651e+01
2.210000e-06	1.662350e-06	6.584613e-10	1.162168e+01	4.372495e+01
2.220000e-06	1.706579e-06	6.745521e-10	1.193090e+01	4.511209e+01
2.230000e-06	1.750729e-06	6.894549e-10	1.223955e+01	4.647752e+01
2.240000e-06	1.794805e-06	7.057439e-10	1.254769e+01	4.782087e+01
2.250000e-06	1.838780e-06	7.213100e-10	1.285513e+01	4.914185e+01
2.260000e-06	1.882658e-06	7.394059e-10	1.316188e+01	5.044023e+01
2.270000e-06	1.926448e-06	7.614087e-10	1.346802e+01	5.171583e+01
2.280000e-06	1.970167e-06	7.803421e-10	1.377367e+01	5.296851e+01
2.290000e-06	2.013832e-06	7.966171e-10	1.407893e+01	5.419820e+01
2.300000e-06	2.057439e-06	8.133582e-10	1.438380e+01	5.540487e+01
2.310000e-06	2.100964e-06	8.295671e-10	1.468808e+01	5.658855e+01
2.320000e-06	2.144400e-06	8.446958e-10	1.499176e+01	5.774930e+01
2.330000e-06	2.187727e-06	8.602922e-10	1.529466e+01	5.888721e+01
2.340000e-06	2.230916e-06	8.761195e-10	1.559660e+01	6.000245e+01
2.350000e-06	2.273878e-06	8.911180e-10	1.589695e+01	6.109519e+01
2.360000e-06	2.316535e-06	9.051393e-10	1.619517e+01	6.216564e+01
2.370000e-06	2.358836e-06	9.194714e-10	1.649090e+01	6.321405e+01
2.380000e-06	2.400800e-06	9.330429e-10	1.678427e+01	6.424069e+01
2.390000e-06	2.442442e-06	9.469073e-10	1.707540e+01	6.524586e+01
2.400000e-06	2.483619e-06	9.608595e-10	1.736327e+01	6.622987e+01
2.410000e-06	2.524599e-06	9.751173e-10	1.764977e+01	6.719308e+01
2.420000e-06	2.565396e-06	9.888019e-10	1.793498e+01	6.813583e+01
2.430000e-06	2.605849e-06	1.002148e-09	1.821779e+01	6.905850e+01
2.440000e-06	2.646162e-06	1.014268e-09	1.849963e+01	6.996147e+01
2.450000e-06	2.686304e-06	1.023215e-09	1.878027e+01	7.084515e+01
2.460000e-06	2.726265e-06	1.031597e-09	1.905964e+01	7.170993e+01
2.470000e-06	2.766142e-06	1.042849e-09	1.933842e+01	7.255623e+01
2.480000e-06	2.805900e-06	1.053957e-09	1.961638e+01	7.338446e+01
2.490000e-06	2.845548e-06	1.062115e-09	1.989356e+01	7.419505e+01
2.500000e-06	2.885102e-06	1.072344e-09	2.017009e+01	7.498841e+01
2.510000e-06	2.924531e-06	1.085176e-09	2.044574e+01	7.576497e+01
2.520000e-06	2.963793e-06	1.097522e-09	2.072022e+01	7.652515e+01
2.530000e-06	3.002847e-06	1.109232e-09	2.099325e+01	7.726937e+01
2.540000e-06	3.041644e-06	1.121376e-09	2.126449e+01	7.799804e+01
2.550000e-06	3.080142e-06	1.131881e-09	2.153363e+01	7.871158e+01
2.560000e-06	3.118380e-06	1.138889e-09	2.180096e+01	7.941038e+01
2.570000e-06	3.156446e-06	1.145702e-09	2.206708e+01	8.009486e+01
2.580000e-06	3.194381e-06	1.155213e-09	2.233229e+01	8.076540e+01
2.590000e-06	3.232077e-06	1.168553e-09	2.259583e+01	8.142240e+01
2.600000e-06	3.269526e-06	1.182953e-09	2.285764e+01	8.206622e+01
2.610000e-06	3.306756e-06	1.194323e-09	2.311792e+01	8.269724e+01
2.620000e-06	3.343784e-06	1.201322e-09	2.337678e+01	8.331581e+01
2.630000e-06	3.380561e-06	1.207151e-09	2.363390e+01	8.392229e+01
2.640000e-06	3.417036e-06	1.212723e-09	2.388890e+01	8.451703e+01
2.650000e-06	3.453282e-06	1.218719e-09	2.414230e+01	8.510034e+01
2.660000e-06	3.489328e-06	1.229240e-09	2.439430e+01	8.567255e+01
2.670000e-06	3.525222e-06	1.240457e-09	2.464524e+01	8.623397e+01
2.680000e-06	3.561018e-06	1.249938e-09	2.489549e+01	8.678489e+01
2.690000e-06	3.596682e-06	1.258353e-09	2.514483e+01	8.732560e+01
2.700000e-06	3.632226e-06	1.264058e-09	2.539332e+01	8.785638e+01
2.710000e-06	3.667560e-06	1.269022e-09	2.564034e+01	8.837748e+01
2.720000e-06	3.702565e-06	1.276588e-09	2.588506e+01	8.888916e+01
2.730000e-06	3.737255e-06	1.285250e-09	2.612759e+01	8.939165e+01
2.740000e-06	3.771578e-06	1.292717e-09	2.636755e+01	8.988519e+01
2.750000e-06	3.805438e-06	1.297686e-09	2.660426e+01	9.036997e+01
2.760000e-06	3.838837e-06	1.303735e-09	2.683776e+01	9.084620e+01
2.770000e-06	3.871703e-06	1.309338e-09	2.706753e+01	9.131407e+01
2.780000e-06	3.904091e-06	1.313553e-09	2.729396e+01	9.177375e+01
2.790000e-06	3.936170e-06	1.320492e-09	2.751823e+01	9.222540e+01
2.800000e-06	3.968068e-06	1.328280e-09	2.774123e+01	9.266916e+01
2.810000e-06	3.999832e-06	1.335148e-09	2.796329e+01	9.310518e+01
2.820000e-06	4.031422e-06	1.339906e-09	2.818414e+01	9.353357e+01
2.830000e-06	4.062922e-06	1.345341e-09	2.840436e+01	9.395445e+01
2.840000e-06	4.094227e-06	1.353267e-09	2.862322e+01	9.436791e+01
2.850000e-06	4.125180e-06	1.359992e-09	2.883962e+01	9.477403e+01
2.860000e-06	4.155815e-06	1.366651e-09	2.905379e+01	9.517290e+01
2.870000e-06	4.186065e-06	1.372044e-09	2.926528e+01	9.556457e+01
2.880000e-06	4.215981e-06	1.375166e-09	2.947442e+01	9.594910e+01
2.890000e-06	4.245682e-06	1.378374e-09	2.968206e+01	9.632653e+01
2.900000e-06	4.275164e-06	1.381297e-09	2.988817e+01	9.669690e+01
