# Temperatura_=_11.7
# Concentracion g/m^3_=_1620.0
# C_Vs_to_Am_M_A/Vsm_=_65563218390.804596
# pendiente_HvsI_1/m_=_3716.3
# ordenada_HvsI_A/m_=_1297.0
# frecuencia_Hz_=_135107.468155837

Tiempo_(s)	Campo_(V.s)	Magnetizacion_(V.s)	Campo_(kA/m)	Magnetizacion_(A/m)
0.000000e+00	-5.522473e-06	-1.225553e-09	-3.836628e+01	-8.007743e+01
1.000000e-08	-5.522630e-06	-1.222440e-09	-3.836737e+01	-8.006272e+01
2.000000e-08	-5.522475e-06	-1.222419e-09	-3.836629e+01	-8.004581e+01
3.000000e-08	-5.521891e-06	-1.224888e-09	-3.836224e+01	-8.002651e+01
4.000000e-08	-5.520811e-06	-1.227623e-09	-3.835473e+01	-8.000460e+01
5.000000e-08	-5.519089e-06	-1.229597e-09	-3.834277e+01	-7.997989e+01
6.000000e-08	-5.516801e-06	-1.233339e-09	-3.832688e+01	-7.995216e+01
7.000000e-08	-5.514091e-06	-1.239634e-09	-3.830805e+01	-7.992120e+01
8.000000e-08	-5.510875e-06	-1.204440e-09	-3.828571e+01	-7.988681e+01
9.000000e-08	-5.507115e-06	-1.170449e-09	-3.825959e+01	-7.984879e+01
1.000000e-07	-5.502871e-06	-1.242550e-09	-3.823010e+01	-7.980695e+01
1.100000e-07	-5.498340e-06	-1.294782e-09	-3.819862e+01	-7.976110e+01
1.200000e-07	-5.493656e-06	-1.226686e-09	-3.816608e+01	-7.971108e+01
1.300000e-07	-5.488708e-06	-1.165328e-09	-3.813171e+01	-7.965674e+01
1.400000e-07	-5.483391e-06	-1.192417e-09	-3.809477e+01	-7.959794e+01
1.500000e-07	-5.477641e-06	-1.291287e-09	-3.805482e+01	-7.953455e+01
1.600000e-07	-5.471421e-06	-1.211394e-09	-3.801161e+01	-7.946647e+01
1.700000e-07	-5.464880e-06	-1.169569e-09	-3.796617e+01	-7.939363e+01
1.800000e-07	-5.457936e-06	-1.202525e-09	-3.791792e+01	-7.931595e+01
1.900000e-07	-5.450570e-06	-1.270285e-09	-3.786675e+01	-7.923340e+01
2.000000e-07	-5.442933e-06	-1.219490e-09	-3.781369e+01	-7.914596e+01
2.100000e-07	-5.435019e-06	-1.192337e-09	-3.775871e+01	-7.905362e+01
2.200000e-07	-5.426837e-06	-1.224238e-09	-3.770187e+01	-7.895642e+01
2.300000e-07	-5.418308e-06	-1.253372e-09	-3.764262e+01	-7.885438e+01
2.400000e-07	-5.409262e-06	-1.225656e-09	-3.757977e+01	-7.874758e+01
2.500000e-07	-5.399573e-06	-1.190036e-09	-3.751246e+01	-7.863609e+01
2.600000e-07	-5.389161e-06	-1.202716e-09	-3.744012e+01	-7.852001e+01
2.700000e-07	-5.378199e-06	-1.201729e-09	-3.736397e+01	-7.839945e+01
2.800000e-07	-5.366881e-06	-1.195117e-09	-3.728534e+01	-7.827454e+01
2.900000e-07	-5.355179e-06	-1.164768e-09	-3.720404e+01	-7.814543e+01
3.000000e-07	-5.343084e-06	-1.192935e-09	-3.712001e+01	-7.801224e+01
3.100000e-07	-5.330569e-06	-1.187149e-09	-3.703307e+01	-7.787516e+01
3.200000e-07	-5.317650e-06	-1.191873e-09	-3.694332e+01	-7.773434e+01
3.300000e-07	-5.304330e-06	-1.149918e-09	-3.685078e+01	-7.758995e+01
3.400000e-07	-5.290644e-06	-1.166688e-09	-3.675569e+01	-7.744215e+01
3.500000e-07	-5.276539e-06	-1.166998e-09	-3.665771e+01	-7.729112e+01
3.600000e-07	-5.261907e-06	-1.158126e-09	-3.655605e+01	-7.713703e+01
3.700000e-07	-5.246773e-06	-1.131359e-09	-3.645091e+01	-7.698003e+01
3.800000e-07	-5.231191e-06	-1.187072e-09	-3.634266e+01	-7.682029e+01
3.900000e-07	-5.215101e-06	-1.178968e-09	-3.623088e+01	-7.665793e+01
4.000000e-07	-5.198557e-06	-1.122019e-09	-3.611594e+01	-7.649310e+01
4.100000e-07	-5.181711e-06	-1.134783e-09	-3.599891e+01	-7.632592e+01
4.200000e-07	-5.164551e-06	-1.197091e-09	-3.587969e+01	-7.615650e+01
4.300000e-07	-5.147066e-06	-1.133777e-09	-3.575822e+01	-7.598492e+01
4.400000e-07	-5.129243e-06	-1.095401e-09	-3.563440e+01	-7.581126e+01
4.500000e-07	-5.111016e-06	-1.175572e-09	-3.550777e+01	-7.563558e+01
4.600000e-07	-5.092366e-06	-1.174243e-09	-3.537820e+01	-7.545792e+01
4.700000e-07	-5.073285e-06	-1.085472e-09	-3.524564e+01	-7.527828e+01
4.800000e-07	-5.053890e-06	-1.125008e-09	-3.511089e+01	-7.509669e+01
4.900000e-07	-5.034341e-06	-1.178488e-09	-3.497508e+01	-7.491310e+01
5.000000e-07	-5.014637e-06	-1.098562e-09	-3.483819e+01	-7.472750e+01
5.100000e-07	-4.994648e-06	-1.091330e-09	-3.469932e+01	-7.453982e+01
5.200000e-07	-4.974318e-06	-1.159864e-09	-3.455808e+01	-7.435000e+01
5.300000e-07	-4.953561e-06	-1.117007e-09	-3.441388e+01	-7.415794e+01
5.400000e-07	-4.932386e-06	-1.067714e-09	-3.426677e+01	-7.396354e+01
5.500000e-07	-4.910930e-06	-1.142652e-09	-3.411771e+01	-7.376668e+01
5.600000e-07	-4.889150e-06	-1.132919e-09	-3.396640e+01	-7.356724e+01
5.700000e-07	-4.866967e-06	-1.064817e-09	-3.381229e+01	-7.336509e+01
5.800000e-07	-4.844456e-06	-1.099399e-09	-3.365589e+01	-7.316006e+01
5.900000e-07	-4.821685e-06	-1.135401e-09	-3.349770e+01	-7.295202e+01
6.000000e-07	-4.798635e-06	-1.070653e-09	-3.333756e+01	-7.274080e+01
6.100000e-07	-4.775348e-06	-1.078160e-09	-3.317578e+01	-7.252625e+01
6.200000e-07	-4.751748e-06	-1.113800e-09	-3.301182e+01	-7.230820e+01
6.300000e-07	-4.727826e-06	-1.082543e-09	-3.284563e+01	-7.208651e+01
6.400000e-07	-4.703685e-06	-1.059936e-09	-3.267792e+01	-7.186102e+01
6.500000e-07	-4.679294e-06	-1.092236e-09	-3.250847e+01	-7.163158e+01
6.600000e-07	-4.654420e-06	-1.066973e-09	-3.233566e+01	-7.139807e+01
6.700000e-07	-4.628997e-06	-1.044261e-09	-3.215903e+01	-7.116034e+01
6.800000e-07	-4.602980e-06	-1.063074e-09	-3.197829e+01	-7.091830e+01
6.900000e-07	-4.576243e-06	-1.065969e-09	-3.179254e+01	-7.067183e+01
7.000000e-07	-4.549059e-06	-1.042190e-09	-3.160368e+01	-7.042085e+01
7.100000e-07	-4.521706e-06	-1.049729e-09	-3.141366e+01	-7.016529e+01
7.200000e-07	-4.494192e-06	-1.047113e-09	-3.122251e+01	-6.990509e+01
7.300000e-07	-4.466449e-06	-1.032863e-09	-3.102977e+01	-6.964023e+01
7.400000e-07	-4.438521e-06	-1.033211e-09	-3.083574e+01	-6.937068e+01
7.500000e-07	-4.410392e-06	-1.034759e-09	-3.064032e+01	-6.909644e+01
7.600000e-07	-4.381948e-06	-1.021752e-09	-3.044271e+01	-6.881752e+01
7.700000e-07	-4.353113e-06	-1.018183e-09	-3.024238e+01	-6.853397e+01
7.800000e-07	-4.323864e-06	-1.016737e-09	-3.003919e+01	-6.824584e+01
7.900000e-07	-4.294321e-06	-1.003100e-09	-2.983394e+01	-6.795319e+01
8.000000e-07	-4.264549e-06	-9.973351e-10	-2.962710e+01	-6.765611e+01
8.100000e-07	-4.234454e-06	-9.944128e-10	-2.941803e+01	-6.735470e+01
8.200000e-07	-4.204077e-06	-9.820236e-10	-2.920699e+01	-6.704907e+01
8.300000e-07	-4.173498e-06	-9.703224e-10	-2.899455e+01	-6.673935e+01
8.400000e-07	-4.142635e-06	-9.744095e-10	-2.878013e+01	-6.642566e+01
8.500000e-07	-4.111455e-06	-9.704914e-10	-2.856352e+01	-6.610816e+01
8.600000e-07	-4.080003e-06	-9.651524e-10	-2.834501e+01	-6.578698e+01
8.700000e-07	-4.048361e-06	-9.630622e-10	-2.812518e+01	-6.546228e+01
8.800000e-07	-4.016667e-06	-9.632679e-10	-2.790500e+01	-6.513421e+01
8.900000e-07	-3.984868e-06	-9.474574e-10	-2.768408e+01	-6.480292e+01
9.000000e-07	-3.952760e-06	-9.386928e-10	-2.746101e+01	-6.446856e+01
9.100000e-07	-3.920283e-06	-9.302555e-10	-2.723539e+01	-6.413128e+01
9.200000e-07	-3.887436e-06	-9.185187e-10	-2.700719e+01	-6.379122e+01
9.300000e-07	-3.854097e-06	-9.095786e-10	-2.677557e+01	-6.344850e+01
9.400000e-07	-3.820243e-06	-9.145563e-10	-2.654038e+01	-6.310324e+01
9.500000e-07	-3.785903e-06	-9.124952e-10	-2.630181e+01	-6.275556e+01
9.600000e-07	-3.751030e-06	-9.054710e-10	-2.605953e+01	-6.240554e+01
9.700000e-07	-3.715823e-06	-8.988803e-10	-2.581494e+01	-6.205326e+01
9.800000e-07	-3.680486e-06	-8.931751e-10	-2.556944e+01	-6.169879e+01
9.900000e-07	-3.645026e-06	-8.779584e-10	-2.532309e+01	-6.134217e+01
1.000000e-06	-3.609417e-06	-8.685916e-10	-2.507571e+01	-6.098342e+01
1.010000e-06	-3.573641e-06	-8.661894e-10	-2.482716e+01	-6.062256e+01
1.020000e-06	-3.537707e-06	-8.640284e-10	-2.457752e+01	-6.025957e+01
1.030000e-06	-3.501550e-06	-8.617696e-10	-2.432632e+01	-5.989442e+01
1.040000e-06	-3.465100e-06	-8.645808e-10	-2.407309e+01	-5.952706e+01
1.050000e-06	-3.428405e-06	-8.639353e-10	-2.381816e+01	-5.915742e+01
1.060000e-06	-3.391484e-06	-8.542460e-10	-2.356166e+01	-5.878542e+01
1.070000e-06	-3.354376e-06	-8.442474e-10	-2.330386e+01	-5.841096e+01
1.080000e-06	-3.317026e-06	-8.356933e-10	-2.304438e+01	-5.803391e+01
1.090000e-06	-3.279324e-06	-8.249148e-10	-2.278245e+01	-5.765414e+01
1.100000e-06	-3.241364e-06	-8.168354e-10	-2.251873e+01	-5.727150e+01
1.110000e-06	-3.203313e-06	-8.157170e-10	-2.225438e+01	-5.688584e+01
1.120000e-06	-3.165053e-06	-8.137226e-10	-2.198857e+01	-5.649698e+01
1.130000e-06	-3.126550e-06	-8.107126e-10	-2.172109e+01	-5.610476e+01
1.140000e-06	-3.087859e-06	-8.053193e-10	-2.145229e+01	-5.570897e+01
1.150000e-06	-3.048895e-06	-7.984406e-10	-2.118159e+01	-5.530944e+01
1.160000e-06	-3.009757e-06	-7.855163e-10	-2.090969e+01	-5.490596e+01
1.170000e-06	-2.970498e-06	-7.729064e-10	-2.063694e+01	-5.449836e+01
1.180000e-06	-2.931128e-06	-7.633596e-10	-2.036343e+01	-5.408643e+01
1.190000e-06	-2.891611e-06	-7.602400e-10	-2.008889e+01	-5.366998e+01
1.200000e-06	-2.851926e-06	-7.587113e-10	-1.981319e+01	-5.324884e+01
1.210000e-06	-2.812126e-06	-7.569462e-10	-1.953669e+01	-5.282281e+01
1.220000e-06	-2.772176e-06	-7.503447e-10	-1.925914e+01	-5.239172e+01
1.230000e-06	-2.732050e-06	-7.419322e-10	-1.898037e+01	-5.195542e+01
1.240000e-06	-2.691727e-06	-7.299718e-10	-1.870024e+01	-5.151374e+01
1.250000e-06	-2.651146e-06	-7.199177e-10	-1.841831e+01	-5.106653e+01
1.260000e-06	-2.610247e-06	-7.109024e-10	-1.813417e+01	-5.061367e+01
1.270000e-06	-2.569014e-06	-7.044371e-10	-1.784771e+01	-5.015502e+01
1.280000e-06	-2.527445e-06	-6.996513e-10	-1.755892e+01	-4.969047e+01
1.290000e-06	-2.485574e-06	-6.948673e-10	-1.726803e+01	-4.921991e+01
1.300000e-06	-2.443459e-06	-6.868877e-10	-1.697545e+01	-4.874325e+01
1.310000e-06	-2.401151e-06	-6.760706e-10	-1.668152e+01	-4.826041e+01
1.320000e-06	-2.358614e-06	-6.659124e-10	-1.638600e+01	-4.777129e+01
1.330000e-06	-2.315764e-06	-6.553971e-10	-1.608831e+01	-4.727584e+01
1.340000e-06	-2.272645e-06	-6.468249e-10	-1.578875e+01	-4.677398e+01
1.350000e-06	-2.229405e-06	-6.428648e-10	-1.548835e+01	-4.626565e+01
1.360000e-06	-2.186053e-06	-6.404251e-10	-1.518717e+01	-4.575078e+01
1.370000e-06	-2.142564e-06	-6.365255e-10	-1.488504e+01	-4.522932e+01
1.380000e-06	-2.098977e-06	-6.292490e-10	-1.458222e+01	-4.470119e+01
1.390000e-06	-2.055289e-06	-6.177314e-10	-1.427871e+01	-4.416633e+01
1.400000e-06	-2.011533e-06	-6.056422e-10	-1.397472e+01	-4.362465e+01
1.410000e-06	-1.967677e-06	-5.951441e-10	-1.367004e+01	-4.307606e+01
1.420000e-06	-1.923736e-06	-5.878535e-10	-1.336477e+01	-4.252047e+01
1.430000e-06	-1.879693e-06	-5.816964e-10	-1.305879e+01	-4.195776e+01
1.440000e-06	-1.835525e-06	-5.755347e-10	-1.275194e+01	-4.138778e+01
1.450000e-06	-1.791242e-06	-5.680429e-10	-1.244430e+01	-4.081039e+01
1.460000e-06	-1.746808e-06	-5.591946e-10	-1.213560e+01	-4.022541e+01
1.470000e-06	-1.702248e-06	-5.474966e-10	-1.182603e+01	-3.963264e+01
1.480000e-06	-1.657511e-06	-5.362799e-10	-1.151523e+01	-3.903186e+01
1.490000e-06	-1.612580e-06	-5.264550e-10	-1.120308e+01	-3.842281e+01
1.500000e-06	-1.567560e-06	-5.188025e-10	-1.089031e+01	-3.780523e+01
1.510000e-06	-1.522449e-06	-5.120451e-10	-1.057691e+01	-3.717879e+01
1.520000e-06	-1.477223e-06	-5.044145e-10	-1.026271e+01	-3.654317e+01
1.530000e-06	-1.431854e-06	-4.954547e-10	-9.947522e+00	-3.589801e+01
1.540000e-06	-1.386387e-06	-4.851940e-10	-9.631651e+00	-3.524291e+01
1.550000e-06	-1.340901e-06	-4.731264e-10	-9.315646e+00	-3.457746e+01
1.560000e-06	-1.295344e-06	-4.612417e-10	-8.999147e+00	-3.390121e+01
1.570000e-06	-1.249684e-06	-4.503107e-10	-8.681929e+00	-3.321369e+01
1.580000e-06	-1.203877e-06	-4.389885e-10	-8.363699e+00	-3.251441e+01
1.590000e-06	-1.158008e-06	-4.283021e-10	-8.045032e+00	-3.180286e+01
1.600000e-06	-1.112127e-06	-4.190898e-10	-7.726280e+00	-3.107852e+01
1.610000e-06	-1.066133e-06	-4.069963e-10	-7.406750e+00	-3.034084e+01
1.620000e-06	-1.019997e-06	-3.919831e-10	-7.086223e+00	-2.958927e+01
1.630000e-06	-9.737786e-07	-3.780248e-10	-6.765133e+00	-2.882327e+01
1.640000e-06	-9.275232e-07	-3.657929e-10	-6.443783e+00	-2.804227e+01
1.650000e-06	-8.811647e-07	-3.539627e-10	-6.121717e+00	-2.724573e+01
1.660000e-06	-8.347438e-07	-3.433410e-10	-5.799217e+00	-2.643309e+01
1.670000e-06	-7.882978e-07	-3.330922e-10	-5.476542e+00	-2.560384e+01
1.680000e-06	-7.418788e-07	-3.214590e-10	-5.154055e+00	-2.475746e+01
1.690000e-06	-6.954478e-07	-3.090552e-10	-4.831486e+00	-2.389348e+01
1.700000e-06	-6.489227e-07	-2.946802e-10	-4.508262e+00	-2.301143e+01
1.710000e-06	-6.024098e-07	-2.793515e-10	-4.185122e+00	-2.211091e+01
1.720000e-06	-5.558248e-07	-2.644516e-10	-3.861482e+00	-2.119155e+01
1.730000e-06	-5.091055e-07	-2.507363e-10	-3.536909e+00	-2.025301e+01
1.740000e-06	-4.623340e-07	-2.362982e-10	-3.211974e+00	-1.929503e+01
1.750000e-06	-4.155340e-07	-2.217344e-10	-2.886840e+00	-1.831740e+01
1.760000e-06	-3.686930e-07	-2.091849e-10	-2.561421e+00	-1.731996e+01
1.770000e-06	-3.218765e-07	-1.965938e-10	-2.236173e+00	-1.630264e+01
1.780000e-06	-2.750953e-07	-1.829397e-10	-1.911170e+00	-1.526543e+01
1.790000e-06	-2.282634e-07	-1.702086e-10	-1.585814e+00	-1.420840e+01
1.800000e-06	-1.814181e-07	-1.555790e-10	-1.260366e+00	-1.313168e+01
1.810000e-06	-1.345972e-07	-1.386087e-10	-9.350874e-01	-1.203553e+01
1.820000e-06	-8.775987e-08	-1.214560e-10	-6.096942e-01	-1.092024e+01
1.830000e-06	-4.090126e-08	-1.038085e-10	-2.841534e-01	-9.786226e+00
1.840000e-06	5.960609e-09	-8.637033e-11	4.141014e-02	-8.633974e+00
1.850000e-06	5.289074e-08	-7.275266e-11	3.674479e-01	-7.464063e+00
1.860000e-06	9.984525e-08	-5.848229e-11	6.936550e-01	-6.277158e+00
1.870000e-06	1.467632e-07	-4.093327e-11	1.019608e+00	-5.074013e+00
1.880000e-06	1.936598e-07	-2.347497e-11	1.345413e+00	-3.855468e+00
1.890000e-06	2.405548e-07	-5.983079e-12	1.671207e+00	-2.622445e+00
1.900000e-06	2.874442e-07	1.208843e-11	1.996961e+00	-1.375948e+00
1.910000e-06	3.342511e-07	3.032733e-11	2.322143e+00	-1.170582e-01
1.920000e-06	3.809769e-07	4.923774e-11	2.646761e+00	1.153071e+00
1.930000e-06	4.277261e-07	6.906135e-11	2.971542e+00	2.433219e+00
1.940000e-06	4.744577e-07	8.794391e-11	3.296201e+00	3.722099e+00
1.950000e-06	5.211245e-07	1.047035e-10	3.620408e+00	5.018371e+00
1.960000e-06	5.677322e-07	1.216745e-10	3.944207e+00	6.320643e+00
1.970000e-06	6.142785e-07	1.399377e-10	4.267578e+00	7.627478e+00
1.980000e-06	6.608516e-07	1.578302e-10	4.591135e+00	8.937405e+00
1.990000e-06	7.073533e-07	1.752416e-10	4.914196e+00	1.024892e+01
2.000000e-06	7.537670e-07	1.941047e-10	5.236646e+00	1.156051e+01
2.010000e-06	8.001552e-07	2.123936e-10	5.558919e+00	1.287063e+01
2.020000e-06	8.464979e-07	2.314800e-10	5.880876e+00	1.417775e+01
2.030000e-06	8.928209e-07	2.540569e-10	6.202695e+00	1.548032e+01
2.040000e-06	9.390608e-07	2.762123e-10	6.523938e+00	1.677684e+01
2.050000e-06	9.851707e-07	2.968111e-10	6.844278e+00	1.806579e+01
2.060000e-06	1.031193e-06	3.138631e-10	7.164010e+00	1.934571e+01
2.070000e-06	1.077124e-06	3.292528e-10	7.483107e+00	2.061516e+01
2.080000e-06	1.122924e-06	3.446083e-10	7.801289e+00	2.187274e+01
2.090000e-06	1.168631e-06	3.618772e-10	8.118834e+00	2.311711e+01
2.100000e-06	1.214269e-06	3.782177e-10	8.435889e+00	2.434701e+01
2.110000e-06	1.259819e-06	3.935342e-10	8.752340e+00	2.556120e+01
2.120000e-06	1.305293e-06	4.100802e-10	9.068265e+00	2.675856e+01
2.130000e-06	1.350732e-06	4.271855e-10	9.383945e+00	2.793800e+01
2.140000e-06	1.396100e-06	4.443459e-10	9.699129e+00	2.909856e+01
2.150000e-06	1.441340e-06	4.598582e-10	1.001342e+01	3.023934e+01
2.160000e-06	1.486479e-06	4.734052e-10	1.032702e+01	3.135953e+01
2.170000e-06	1.531561e-06	4.863839e-10	1.064022e+01	3.245842e+01
2.180000e-06	1.576535e-06	4.993473e-10	1.095266e+01	3.353539e+01
2.190000e-06	1.621387e-06	5.121663e-10	1.126426e+01	3.458992e+01
2.200000e-06	1.666127e-06	5.255587e-10	1.157509e+01	3.562160e+01
2.210000e-06	1.710622e-06	5.390437e-10	1.188421e+01	3.663011e+01
2.220000e-06	1.754936e-06	5.534556e-10	1.219207e+01	3.761522e+01
2.230000e-06	1.799216e-06	5.676217e-10	1.249970e+01	3.857679e+01
2.240000e-06	1.843457e-06	5.812307e-10	1.280705e+01	3.951481e+01
2.250000e-06	1.887582e-06	5.939587e-10	1.311360e+01	4.042933e+01
2.260000e-06	1.931585e-06	6.060660e-10	1.341930e+01	4.132049e+01
2.270000e-06	1.975498e-06	6.163786e-10	1.372438e+01	4.218854e+01
2.280000e-06	2.019297e-06	6.257184e-10	1.402867e+01	4.303377e+01
2.290000e-06	2.062986e-06	6.358978e-10	1.433218e+01	4.385658e+01
2.300000e-06	2.106607e-06	6.462968e-10	1.463523e+01	4.465743e+01
2.310000e-06	2.150193e-06	6.570423e-10	1.493804e+01	4.543683e+01
2.320000e-06	2.193659e-06	6.703544e-10	1.524001e+01	4.619536e+01
2.330000e-06	2.236996e-06	6.847727e-10	1.554109e+01	4.693366e+01
2.340000e-06	2.280170e-06	6.969691e-10	1.584103e+01	4.765239e+01
2.350000e-06	2.323108e-06	7.056612e-10	1.613933e+01	4.835227e+01
2.360000e-06	2.365793e-06	7.124619e-10	1.643587e+01	4.903405e+01
2.370000e-06	2.408254e-06	7.178899e-10	1.673087e+01	4.969848e+01
2.380000e-06	2.450515e-06	7.253314e-10	1.702447e+01	5.034636e+01
2.390000e-06	2.492503e-06	7.353088e-10	1.731617e+01	5.097846e+01
2.400000e-06	2.534227e-06	7.463545e-10	1.760603e+01	5.159560e+01
2.410000e-06	2.575698e-06	7.589739e-10	1.789415e+01	5.219857e+01
2.420000e-06	2.616841e-06	7.698006e-10	1.817998e+01	5.278815e+01
2.430000e-06	2.657584e-06	7.791217e-10	1.846304e+01	5.336510e+01
2.440000e-06	2.698005e-06	7.856429e-10	1.874385e+01	5.393019e+01
2.450000e-06	2.738267e-06	7.909113e-10	1.902356e+01	5.448414e+01
2.460000e-06	2.778336e-06	7.969553e-10	1.930194e+01	5.502763e+01
2.470000e-06	2.818242e-06	8.047069e-10	1.957917e+01	5.556133e+01
2.480000e-06	2.858060e-06	8.130827e-10	1.985580e+01	5.608587e+01
2.490000e-06	2.897767e-06	8.211960e-10	2.013166e+01	5.660181e+01
2.500000e-06	2.937328e-06	8.311843e-10	2.040650e+01	5.710971e+01
2.510000e-06	2.976737e-06	8.412062e-10	2.068029e+01	5.761006e+01
2.520000e-06	3.016003e-06	8.500687e-10	2.095308e+01	5.810329e+01
2.530000e-06	3.055109e-06	8.562352e-10	2.122476e+01	5.858982e+01
2.540000e-06	3.094002e-06	8.624127e-10	2.149496e+01	5.906998e+01
2.550000e-06	3.132650e-06	8.683236e-10	2.176347e+01	5.954408e+01
2.560000e-06	3.171059e-06	8.729765e-10	2.203030e+01	6.001238e+01
2.570000e-06	3.209157e-06	8.797283e-10	2.229498e+01	6.047508e+01
2.580000e-06	3.247040e-06	8.889960e-10	2.255817e+01	6.093236e+01
2.590000e-06	3.284735e-06	8.984456e-10	2.282004e+01	6.138432e+01
2.600000e-06	3.322204e-06	9.072445e-10	2.308035e+01	6.183106e+01
2.610000e-06	3.359462e-06	9.143217e-10	2.333919e+01	6.227262e+01
2.620000e-06	3.396468e-06	9.209394e-10	2.359629e+01	6.270900e+01
2.630000e-06	3.433293e-06	9.277625e-10	2.385212e+01	6.314019e+01
2.640000e-06	3.469905e-06	9.344605e-10	2.410647e+01	6.356614e+01
2.650000e-06	3.506204e-06	9.427746e-10	2.435865e+01	6.398678e+01
2.660000e-06	3.542292e-06	9.506345e-10	2.460937e+01	6.440201e+01
2.670000e-06	3.578230e-06	9.573686e-10	2.485904e+01	6.481172e+01
2.680000e-06	3.613997e-06	9.621274e-10	2.510753e+01	6.521580e+01
2.690000e-06	3.649601e-06	9.635262e-10	2.535488e+01	6.561411e+01
2.700000e-06	3.685062e-06	9.655481e-10	2.560123e+01	6.600653e+01
2.710000e-06	3.720304e-06	9.717224e-10	2.584607e+01	6.639291e+01
2.720000e-06	3.755231e-06	9.794405e-10	2.608872e+01	6.677311e+01
2.730000e-06	3.789823e-06	9.868937e-10	2.632904e+01	6.714702e+01
2.740000e-06	3.824019e-06	9.940861e-10	2.656661e+01	6.751450e+01
2.750000e-06	3.857778e-06	1.000332e-09	2.680114e+01	6.787546e+01
2.760000e-06	3.891035e-06	1.003001e-09	2.703219e+01	6.822978e+01
2.770000e-06	3.923856e-06	1.004621e-09	2.726021e+01	6.857740e+01
2.780000e-06	3.956378e-06	1.009193e-09	2.748615e+01	6.891825e+01
2.790000e-06	3.988550e-06	1.015173e-09	2.770966e+01	6.925228e+01
2.800000e-06	4.020452e-06	1.020363e-09	2.793129e+01	6.957947e+01
2.810000e-06	4.052204e-06	1.025341e-09	2.815188e+01	6.989981e+01
2.820000e-06	4.083761e-06	1.029981e-09	2.837112e+01	7.021332e+01
2.830000e-06	4.115158e-06	1.035298e-09	2.858924e+01	7.052004e+01
2.840000e-06	4.146299e-06	1.039231e-09	2.880558e+01	7.082002e+01
2.850000e-06	4.177103e-06	1.040917e-09	2.901959e+01	7.111334e+01
2.860000e-06	4.207581e-06	1.043209e-09	2.923133e+01	7.140010e+01
2.870000e-06	4.237786e-06	1.046430e-09	2.944117e+01	7.168042e+01
2.880000e-06	4.267771e-06	1.047996e-09	2.964949e+01	7.195442e+01
2.890000e-06	4.297420e-06	1.048093e-09	2.985547e+01	7.222224e+01
2.900000e-06	4.326780e-06	1.049751e-09	3.005945e+01	7.248406e+01
2.910000e-06	4.355850e-06	1.054183e-09	3.026140e+01	7.274004e+01
