# Temperatura_=_-11.1
# Concentracion g/m^3_=_1620.0
# C_Vs_to_Am_M_A/Vsm_=_65563218390.804596
# pendiente_HvsI_1/m_=_3716.3
# ordenada_HvsI_A/m_=_1297.0
# frecuencia_Hz_=_135103.59667014232

Tiempo_(s)	Campo_(V.s)	Magnetizacion_(V.s)	Campo_(kA/m)	Magnetizacion_(A/m)
0.000000e+00	-5.506613e-06	-8.247671e-10	-3.836884e+01	-5.400633e+01
1.000000e-08	-5.506771e-06	-8.226127e-10	-3.836994e+01	-5.400339e+01
2.000000e-08	-5.506621e-06	-8.207839e-10	-3.836890e+01	-5.400154e+01
3.000000e-08	-5.506070e-06	-8.207828e-10	-3.836506e+01	-5.400071e+01
4.000000e-08	-5.505042e-06	-8.208906e-10	-3.835790e+01	-5.400083e+01
5.000000e-08	-5.503475e-06	-8.220083e-10	-3.834697e+01	-5.400182e+01
6.000000e-08	-5.501395e-06	-8.323432e-10	-3.833248e+01	-5.400359e+01
7.000000e-08	-5.498730e-06	-8.555160e-10	-3.831392e+01	-5.400602e+01
8.000000e-08	-5.495452e-06	-8.454786e-10	-3.829107e+01	-5.400898e+01
9.000000e-08	-5.491684e-06	-7.817746e-10	-3.826482e+01	-5.401235e+01
1.000000e-07	-5.487577e-06	-7.375802e-10	-3.823620e+01	-5.401599e+01
1.100000e-07	-5.483219e-06	-7.755434e-10	-3.820583e+01	-5.401974e+01
1.200000e-07	-5.478615e-06	-8.850587e-10	-3.817375e+01	-5.402346e+01
1.300000e-07	-5.473694e-06	-8.758330e-10	-3.813947e+01	-5.402697e+01
1.400000e-07	-5.468443e-06	-7.766210e-10	-3.810288e+01	-5.403013e+01
1.500000e-07	-5.462902e-06	-7.840246e-10	-3.806427e+01	-5.403276e+01
1.600000e-07	-5.456925e-06	-8.502209e-10	-3.802263e+01	-5.403471e+01
1.700000e-07	-5.450418e-06	-8.874819e-10	-3.797729e+01	-5.403582e+01
1.800000e-07	-5.443504e-06	-7.582774e-10	-3.792911e+01	-5.403594e+01
1.900000e-07	-5.436352e-06	-7.603976e-10	-3.787928e+01	-5.403490e+01
2.000000e-07	-5.428915e-06	-8.276867e-10	-3.782746e+01	-5.403258e+01
2.100000e-07	-5.421201e-06	-9.027814e-10	-3.777371e+01	-5.402882e+01
2.200000e-07	-5.413247e-06	-8.326334e-10	-3.771829e+01	-5.402350e+01
2.300000e-07	-5.404920e-06	-7.987709e-10	-3.766027e+01	-5.401651e+01
2.400000e-07	-5.396120e-06	-8.183727e-10	-3.759895e+01	-5.400773e+01
2.500000e-07	-5.386713e-06	-8.497626e-10	-3.753340e+01	-5.399707e+01
2.600000e-07	-5.376654e-06	-8.116697e-10	-3.746331e+01	-5.398443e+01
2.700000e-07	-5.366057e-06	-7.822563e-10	-3.738948e+01	-5.396975e+01
2.800000e-07	-5.354914e-06	-8.053025e-10	-3.731184e+01	-5.395296e+01
2.900000e-07	-5.343204e-06	-8.074240e-10	-3.723024e+01	-5.393402e+01
3.000000e-07	-5.331058e-06	-7.881045e-10	-3.714561e+01	-5.391287e+01
3.100000e-07	-5.318564e-06	-7.578891e-10	-3.705856e+01	-5.388951e+01
3.200000e-07	-5.305702e-06	-8.013943e-10	-3.696894e+01	-5.386391e+01
3.300000e-07	-5.292570e-06	-7.982124e-10	-3.687744e+01	-5.383607e+01
3.400000e-07	-5.279126e-06	-7.923132e-10	-3.678376e+01	-5.380600e+01
3.500000e-07	-5.265144e-06	-7.572100e-10	-3.668634e+01	-5.377373e+01
3.600000e-07	-5.250640e-06	-7.919430e-10	-3.658528e+01	-5.373926e+01
3.700000e-07	-5.235682e-06	-7.830552e-10	-3.648106e+01	-5.370266e+01
3.800000e-07	-5.220207e-06	-7.804393e-10	-3.637323e+01	-5.366395e+01
3.900000e-07	-5.204128e-06	-7.669971e-10	-3.626120e+01	-5.362319e+01
4.000000e-07	-5.187676e-06	-7.960241e-10	-3.614656e+01	-5.358044e+01
4.100000e-07	-5.170900e-06	-7.694279e-10	-3.602967e+01	-5.353576e+01
4.200000e-07	-5.153719e-06	-7.718169e-10	-3.590995e+01	-5.348922e+01
4.300000e-07	-5.136219e-06	-7.972188e-10	-3.578802e+01	-5.344088e+01
4.400000e-07	-5.118465e-06	-8.091122e-10	-3.566431e+01	-5.339081e+01
4.500000e-07	-5.100421e-06	-7.515571e-10	-3.553859e+01	-5.333909e+01
4.600000e-07	-5.081930e-06	-7.640452e-10	-3.540975e+01	-5.328577e+01
4.700000e-07	-5.063032e-06	-8.013896e-10	-3.527806e+01	-5.323094e+01
4.800000e-07	-5.043835e-06	-7.810338e-10	-3.514430e+01	-5.317465e+01
4.900000e-07	-5.024357e-06	-7.498170e-10	-3.500859e+01	-5.311697e+01
5.000000e-07	-5.004666e-06	-7.916514e-10	-3.487139e+01	-5.305795e+01
5.100000e-07	-4.984764e-06	-7.912965e-10	-3.473271e+01	-5.299765e+01
5.200000e-07	-4.964570e-06	-7.533448e-10	-3.459201e+01	-5.293611e+01
5.300000e-07	-4.944047e-06	-7.759384e-10	-3.444900e+01	-5.287336e+01
5.400000e-07	-4.923170e-06	-7.926079e-10	-3.430354e+01	-5.280945e+01
5.500000e-07	-4.901861e-06	-7.451577e-10	-3.415506e+01	-5.274439e+01
5.600000e-07	-4.880226e-06	-7.475805e-10	-3.400432e+01	-5.267821e+01
5.700000e-07	-4.858359e-06	-8.013431e-10	-3.385195e+01	-5.261092e+01
5.800000e-07	-4.836091e-06	-7.736233e-10	-3.369680e+01	-5.254251e+01
5.900000e-07	-4.813390e-06	-7.480366e-10	-3.353862e+01	-5.247298e+01
6.000000e-07	-4.790406e-06	-7.848815e-10	-3.337847e+01	-5.240231e+01
6.100000e-07	-4.767165e-06	-7.914193e-10	-3.321653e+01	-5.233049e+01
6.200000e-07	-4.743609e-06	-7.484224e-10	-3.305240e+01	-5.225748e+01
6.300000e-07	-4.719806e-06	-7.746090e-10	-3.288654e+01	-5.218326e+01
6.400000e-07	-4.695784e-06	-7.895175e-10	-3.271916e+01	-5.210777e+01
6.500000e-07	-4.671426e-06	-7.659973e-10	-3.254945e+01	-5.203096e+01
6.600000e-07	-4.646520e-06	-7.617545e-10	-3.237591e+01	-5.195280e+01
6.700000e-07	-4.621118e-06	-7.855299e-10	-3.219891e+01	-5.187321e+01
6.800000e-07	-4.595328e-06	-7.614520e-10	-3.201921e+01	-5.179213e+01
6.900000e-07	-4.569055e-06	-7.632730e-10	-3.183615e+01	-5.170949e+01
7.000000e-07	-4.542257e-06	-7.800969e-10	-3.164943e+01	-5.162524e+01
7.100000e-07	-4.515045e-06	-7.755536e-10	-3.145982e+01	-5.153929e+01
7.200000e-07	-4.487589e-06	-7.574285e-10	-3.126851e+01	-5.145157e+01
7.300000e-07	-4.459987e-06	-7.741706e-10	-3.107619e+01	-5.136201e+01
7.400000e-07	-4.432192e-06	-7.687056e-10	-3.088252e+01	-5.127054e+01
7.500000e-07	-4.404135e-06	-7.567822e-10	-3.068702e+01	-5.117708e+01
7.600000e-07	-4.375723e-06	-7.603175e-10	-3.048905e+01	-5.108156e+01
7.700000e-07	-4.346987e-06	-7.688455e-10	-3.028882e+01	-5.098390e+01
7.800000e-07	-4.318017e-06	-7.595514e-10	-3.008697e+01	-5.088405e+01
7.900000e-07	-4.288777e-06	-7.611090e-10	-2.988323e+01	-5.078194e+01
8.000000e-07	-4.259303e-06	-7.588464e-10	-2.967786e+01	-5.067750e+01
8.100000e-07	-4.229553e-06	-7.426454e-10	-2.947057e+01	-5.057067e+01
8.200000e-07	-4.199405e-06	-7.358145e-10	-2.926051e+01	-5.046140e+01
8.300000e-07	-4.168920e-06	-7.410440e-10	-2.904809e+01	-5.034965e+01
8.400000e-07	-4.138138e-06	-7.388135e-10	-2.883361e+01	-5.023535e+01
8.500000e-07	-4.107065e-06	-7.358370e-10	-2.861711e+01	-5.011848e+01
8.600000e-07	-4.075821e-06	-7.444209e-10	-2.839940e+01	-4.999898e+01
8.700000e-07	-4.044417e-06	-7.409232e-10	-2.818058e+01	-4.987683e+01
8.800000e-07	-4.012844e-06	-7.318224e-10	-2.796059e+01	-4.975200e+01
8.900000e-07	-3.981076e-06	-7.271100e-10	-2.773924e+01	-4.962445e+01
9.000000e-07	-3.949032e-06	-7.235125e-10	-2.751596e+01	-4.949417e+01
9.100000e-07	-3.916582e-06	-7.097706e-10	-2.728986e+01	-4.936114e+01
9.200000e-07	-3.883786e-06	-7.130513e-10	-2.706135e+01	-4.922533e+01
9.300000e-07	-3.850730e-06	-7.174017e-10	-2.683102e+01	-4.908673e+01
9.400000e-07	-3.817267e-06	-7.157704e-10	-2.659786e+01	-4.894534e+01
9.500000e-07	-3.783381e-06	-7.122229e-10	-2.636175e+01	-4.880113e+01
9.600000e-07	-3.749025e-06	-7.179507e-10	-2.612236e+01	-4.865410e+01
9.700000e-07	-3.714271e-06	-7.076700e-10	-2.588021e+01	-4.850425e+01
9.800000e-07	-3.679196e-06	-7.002544e-10	-2.563581e+01	-4.835155e+01
9.900000e-07	-3.643813e-06	-7.015698e-10	-2.538927e+01	-4.819600e+01
1.000000e-06	-3.608263e-06	-7.045154e-10	-2.514156e+01	-4.803759e+01
1.010000e-06	-3.572573e-06	-6.985078e-10	-2.489288e+01	-4.787631e+01
1.020000e-06	-3.536728e-06	-7.031060e-10	-2.464312e+01	-4.771214e+01
1.030000e-06	-3.500731e-06	-7.048237e-10	-2.439230e+01	-4.754507e+01
1.040000e-06	-3.464524e-06	-6.995235e-10	-2.414003e+01	-4.737508e+01
1.050000e-06	-3.428035e-06	-6.935442e-10	-2.388578e+01	-4.720215e+01
1.060000e-06	-3.391274e-06	-6.932632e-10	-2.362963e+01	-4.702625e+01
1.070000e-06	-3.354287e-06	-6.853543e-10	-2.337192e+01	-4.684736e+01
1.080000e-06	-3.317061e-06	-6.789735e-10	-2.311253e+01	-4.666543e+01
1.090000e-06	-3.279600e-06	-6.798872e-10	-2.285152e+01	-4.648045e+01
1.100000e-06	-3.241963e-06	-6.798589e-10	-2.258927e+01	-4.629235e+01
1.110000e-06	-3.204040e-06	-6.745914e-10	-2.232503e+01	-4.610110e+01
1.120000e-06	-3.165889e-06	-6.704378e-10	-2.205920e+01	-4.590665e+01
1.130000e-06	-3.127575e-06	-6.677878e-10	-2.179224e+01	-4.570894e+01
1.140000e-06	-3.089014e-06	-6.612696e-10	-2.152356e+01	-4.550791e+01
1.150000e-06	-3.050124e-06	-6.575105e-10	-2.125258e+01	-4.530350e+01
1.160000e-06	-3.011012e-06	-6.562057e-10	-2.098006e+01	-4.509563e+01
1.170000e-06	-2.971815e-06	-6.532819e-10	-2.070694e+01	-4.488423e+01
1.180000e-06	-2.932488e-06	-6.473614e-10	-2.043291e+01	-4.466922e+01
1.190000e-06	-2.893049e-06	-6.466625e-10	-2.015812e+01	-4.445052e+01
1.200000e-06	-2.853431e-06	-6.433719e-10	-1.988206e+01	-4.422803e+01
1.210000e-06	-2.813653e-06	-6.403010e-10	-1.960490e+01	-4.400167e+01
1.220000e-06	-2.773747e-06	-6.374622e-10	-1.932684e+01	-4.377133e+01
1.230000e-06	-2.733656e-06	-6.351462e-10	-1.904750e+01	-4.353690e+01
1.240000e-06	-2.693361e-06	-6.281937e-10	-1.876673e+01	-4.329828e+01
1.250000e-06	-2.652880e-06	-6.261610e-10	-1.848467e+01	-4.305537e+01
1.260000e-06	-2.612137e-06	-6.228034e-10	-1.820078e+01	-4.280803e+01
1.270000e-06	-2.571092e-06	-6.185535e-10	-1.791479e+01	-4.255614e+01
1.280000e-06	-2.529865e-06	-6.129214e-10	-1.762753e+01	-4.229959e+01
1.290000e-06	-2.488390e-06	-6.094628e-10	-1.733855e+01	-4.203824e+01
1.300000e-06	-2.446605e-06	-6.041319e-10	-1.704739e+01	-4.177194e+01
1.310000e-06	-2.404558e-06	-5.976003e-10	-1.675442e+01	-4.150057e+01
1.320000e-06	-2.362228e-06	-5.906772e-10	-1.645947e+01	-4.122397e+01
1.330000e-06	-2.319602e-06	-5.854618e-10	-1.616247e+01	-4.094199e+01
1.340000e-06	-2.276745e-06	-5.804123e-10	-1.586385e+01	-4.065447e+01
1.350000e-06	-2.233699e-06	-5.776439e-10	-1.556391e+01	-4.036125e+01
1.360000e-06	-2.190479e-06	-5.735071e-10	-1.526277e+01	-4.006216e+01
1.370000e-06	-2.147056e-06	-5.678246e-10	-1.496021e+01	-3.975703e+01
1.380000e-06	-2.103487e-06	-5.627321e-10	-1.465662e+01	-3.944567e+01
1.390000e-06	-2.059833e-06	-5.567161e-10	-1.435245e+01	-3.912789e+01
1.400000e-06	-2.016054e-06	-5.489984e-10	-1.404741e+01	-3.880350e+01
1.410000e-06	-1.972205e-06	-5.418480e-10	-1.374188e+01	-3.847229e+01
1.420000e-06	-1.928335e-06	-5.366413e-10	-1.343621e+01	-3.813406e+01
1.430000e-06	-1.884375e-06	-5.315729e-10	-1.312990e+01	-3.778859e+01
1.440000e-06	-1.840314e-06	-5.265085e-10	-1.282289e+01	-3.743564e+01
1.450000e-06	-1.796143e-06	-5.202802e-10	-1.251512e+01	-3.707499e+01
1.460000e-06	-1.751888e-06	-5.135774e-10	-1.220676e+01	-3.670640e+01
1.470000e-06	-1.707511e-06	-5.060202e-10	-1.189755e+01	-3.632962e+01
1.480000e-06	-1.662978e-06	-4.989146e-10	-1.158726e+01	-3.594439e+01
1.490000e-06	-1.618362e-06	-4.921755e-10	-1.127638e+01	-3.555045e+01
1.500000e-06	-1.573586e-06	-4.885092e-10	-1.096440e+01	-3.514752e+01
1.510000e-06	-1.528674e-06	-4.844672e-10	-1.065146e+01	-3.473534e+01
1.520000e-06	-1.483723e-06	-4.790988e-10	-1.033825e+01	-3.431362e+01
1.530000e-06	-1.438663e-06	-4.718838e-10	-1.002428e+01	-3.388208e+01
1.540000e-06	-1.393466e-06	-4.637144e-10	-9.709355e+00	-3.344041e+01
1.550000e-06	-1.348158e-06	-4.544856e-10	-9.393660e+00	-3.298833e+01
1.560000e-06	-1.302724e-06	-4.459010e-10	-9.077091e+00	-3.252554e+01
1.570000e-06	-1.257221e-06	-4.366649e-10	-8.760033e+00	-3.205173e+01
1.580000e-06	-1.211643e-06	-4.290219e-10	-8.442458e+00	-3.156662e+01
1.590000e-06	-1.165957e-06	-4.222378e-10	-8.124123e+00	-3.106989e+01
1.600000e-06	-1.120201e-06	-4.162933e-10	-7.805308e+00	-3.056126e+01
1.610000e-06	-1.074357e-06	-4.078851e-10	-7.485879e+00	-3.004044e+01
1.620000e-06	-1.028422e-06	-3.954427e-10	-7.165812e+00	-2.950714e+01
1.630000e-06	-9.824352e-07	-3.825800e-10	-6.845387e+00	-2.896108e+01
1.640000e-06	-9.363425e-07	-3.720785e-10	-6.524224e+00	-2.840200e+01
1.650000e-06	-8.901610e-07	-3.626071e-10	-6.202441e+00	-2.782965e+01
1.660000e-06	-8.439670e-07	-3.540846e-10	-5.880572e+00	-2.724378e+01
1.670000e-06	-7.977469e-07	-3.456217e-10	-5.558521e+00	-2.664416e+01
1.680000e-06	-7.514430e-07	-3.359078e-10	-5.235886e+00	-2.603060e+01
1.690000e-06	-7.050407e-07	-3.243097e-10	-4.912565e+00	-2.540290e+01
1.700000e-06	-6.585714e-07	-3.122123e-10	-4.588777e+00	-2.476091e+01
1.710000e-06	-6.121159e-07	-3.009079e-10	-4.265086e+00	-2.410448e+01
1.720000e-06	-5.656978e-07	-2.908095e-10	-3.941655e+00	-2.343350e+01
1.730000e-06	-5.191613e-07	-2.797647e-10	-3.617399e+00	-2.274789e+01
1.740000e-06	-4.725912e-07	-2.682783e-10	-3.292910e+00	-2.204759e+01
1.750000e-06	-4.260283e-07	-2.586425e-10	-2.968470e+00	-2.133259e+01
1.760000e-06	-3.793752e-07	-2.498999e-10	-2.643401e+00	-2.060290e+01
1.770000e-06	-3.326857e-07	-2.396855e-10	-2.318079e+00	-1.985856e+01
1.780000e-06	-2.859626e-07	-2.288275e-10	-1.992523e+00	-1.909966e+01
1.790000e-06	-2.391750e-07	-2.200400e-10	-1.666518e+00	-1.832634e+01
1.800000e-06	-1.924102e-07	-2.095428e-10	-1.340671e+00	-1.753875e+01
1.810000e-06	-1.457649e-07	-1.986871e-10	-1.015657e+00	-1.673710e+01
1.820000e-06	-9.908366e-08	-1.841331e-10	-6.903926e-01	-1.592164e+01
1.830000e-06	-5.228364e-08	-1.705211e-10	-3.643007e-01	-1.509266e+01
1.840000e-06	-5.460389e-09	-1.580253e-10	-3.804676e-02	-1.425048e+01
1.850000e-06	4.126872e-08	-1.480556e-10	2.875511e-01	-1.339549e+01
1.860000e-06	8.794078e-08	-1.388117e-10	6.127516e-01	-1.252809e+01
1.870000e-06	1.345857e-07	-1.276157e-10	9.377626e-01	-1.164874e+01
1.880000e-06	1.812268e-07	-1.130989e-10	1.262747e+00	-1.075794e+01
1.890000e-06	2.278909e-07	-9.827643e-11	1.587892e+00	-9.856223e+00
1.900000e-06	2.745833e-07	-8.608088e-11	1.913235e+00	-8.944166e+00
1.910000e-06	3.212669e-07	-7.639265e-11	2.238515e+00	-8.022379e+00
1.920000e-06	3.679088e-07	-6.595195e-11	2.563506e+00	-7.091507e+00
1.930000e-06	4.145133e-07	-5.348615e-11	2.888235e+00	-6.152231e+00
1.940000e-06	4.610468e-07	-4.218344e-11	3.212470e+00	-5.205258e+00
1.950000e-06	5.074964e-07	-2.864988e-11	3.536121e+00	-4.251328e+00
1.960000e-06	5.539289e-07	-1.353151e-11	3.859652e+00	-3.291204e+00
1.970000e-06	6.003501e-07	9.432385e-13	4.183105e+00	-2.325671e+00
1.980000e-06	6.466703e-07	1.331417e-11	4.505853e+00	-1.355536e+00
1.990000e-06	6.928884e-07	2.304829e-11	4.827890e+00	-3.816216e-01
2.000000e-06	7.390381e-07	3.260752e-11	5.149451e+00	5.952359e-01
2.010000e-06	7.852136e-07	4.493875e-11	5.471191e+00	1.574190e+00
2.020000e-06	8.313665e-07	5.877721e-11	5.792774e+00	2.554389e+00
2.030000e-06	8.774265e-07	7.613904e-11	6.113710e+00	3.534975e+00
2.040000e-06	9.234624e-07	9.297863e-11	6.434478e+00	4.515093e+00
2.050000e-06	9.694332e-07	1.069142e-10	6.754793e+00	5.493890e+00
2.060000e-06	1.015352e-06	1.199686e-10	7.074745e+00	6.470522e+00
2.070000e-06	1.061256e-06	1.316605e-10	7.394592e+00	7.444154e+00
2.080000e-06	1.107042e-06	1.414050e-10	7.713621e+00	8.413964e+00
2.090000e-06	1.152710e-06	1.549034e-10	8.031825e+00	9.379150e+00
2.100000e-06	1.198303e-06	1.709844e-10	8.349505e+00	1.033893e+01
2.110000e-06	1.243815e-06	1.872831e-10	8.666621e+00	1.129254e+01
2.120000e-06	1.289248e-06	2.022345e-10	8.983191e+00	1.223924e+01
2.130000e-06	1.334591e-06	2.157995e-10	9.299129e+00	1.317834e+01
2.140000e-06	1.379866e-06	2.274339e-10	9.614593e+00	1.410915e+01
2.150000e-06	1.425101e-06	2.375123e-10	9.929781e+00	1.503103e+01
2.160000e-06	1.470213e-06	2.477943e-10	1.024412e+01	1.594337e+01
2.170000e-06	1.515163e-06	2.588241e-10	1.055731e+01	1.684560e+01
2.180000e-06	1.559953e-06	2.728792e-10	1.086940e+01	1.773720e+01
2.190000e-06	1.604588e-06	2.882155e-10	1.118041e+01	1.861765e+01
2.200000e-06	1.649116e-06	3.033718e-10	1.149067e+01	1.948650e+01
2.210000e-06	1.693546e-06	3.149964e-10	1.180025e+01	2.034335e+01
2.220000e-06	1.737890e-06	3.217597e-10	1.210922e+01	2.118781e+01
2.230000e-06	1.782119e-06	3.276822e-10	1.241740e+01	2.201954e+01
2.240000e-06	1.826187e-06	3.361498e-10	1.272446e+01	2.283826e+01
2.250000e-06	1.870150e-06	3.482686e-10	1.303078e+01	2.364371e+01
2.260000e-06	1.914025e-06	3.638060e-10	1.333649e+01	2.443567e+01
2.270000e-06	1.957843e-06	3.785634e-10	1.364181e+01	2.521396e+01
2.280000e-06	2.001615e-06	3.903952e-10	1.394681e+01	2.597844e+01
2.290000e-06	2.045362e-06	4.000375e-10	1.425162e+01	2.672900e+01
2.300000e-06	2.089056e-06	4.075844e-10	1.455607e+01	2.746556e+01
2.310000e-06	2.132647e-06	4.150697e-10	1.485981e+01	2.818810e+01
2.320000e-06	2.176148e-06	4.248474e-10	1.516291e+01	2.889659e+01
2.330000e-06	2.219554e-06	4.366303e-10	1.546535e+01	2.959105e+01
2.340000e-06	2.262856e-06	4.483012e-10	1.576707e+01	3.027152e+01
2.350000e-06	2.305926e-06	4.589506e-10	1.606718e+01	3.093806e+01
2.360000e-06	2.348616e-06	4.694849e-10	1.636463e+01	3.159077e+01
2.370000e-06	2.390954e-06	4.793890e-10	1.665963e+01	3.222974e+01
2.380000e-06	2.433017e-06	4.863226e-10	1.695271e+01	3.285510e+01
2.390000e-06	2.474820e-06	4.922668e-10	1.724399e+01	3.346698e+01
2.400000e-06	2.516375e-06	4.983910e-10	1.753353e+01	3.406553e+01
2.410000e-06	2.557598e-06	5.058989e-10	1.782077e+01	3.465091e+01
2.420000e-06	2.598413e-06	5.136374e-10	1.810515e+01	3.522327e+01
2.430000e-06	2.638965e-06	5.215318e-10	1.838771e+01	3.578280e+01
2.440000e-06	2.679405e-06	5.311830e-10	1.866949e+01	3.632965e+01
2.450000e-06	2.719662e-06	5.396372e-10	1.894999e+01	3.686402e+01
2.460000e-06	2.759730e-06	5.471233e-10	1.922918e+01	3.738607e+01
2.470000e-06	2.799614e-06	5.531117e-10	1.950708e+01	3.789599e+01
2.480000e-06	2.839326e-06	5.589503e-10	1.978378e+01	3.839394e+01
2.490000e-06	2.878945e-06	5.642740e-10	2.005984e+01	3.888009e+01
2.500000e-06	2.918460e-06	5.698528e-10	2.033517e+01	3.935461e+01
2.510000e-06	2.957851e-06	5.749402e-10	2.060964e+01	3.981765e+01
2.520000e-06	2.997069e-06	5.800335e-10	2.088290e+01	4.026938e+01
2.530000e-06	3.036013e-06	5.860819e-10	2.115426e+01	4.070995e+01
2.540000e-06	3.074656e-06	5.928649e-10	2.142351e+01	4.113949e+01
2.550000e-06	3.113102e-06	5.977423e-10	2.169139e+01	4.155814e+01
2.560000e-06	3.151385e-06	6.018056e-10	2.195814e+01	4.196604e+01
2.570000e-06	3.189404e-06	6.083402e-10	2.222305e+01	4.236331e+01
2.580000e-06	3.227190e-06	6.145507e-10	2.248633e+01	4.275007e+01
2.590000e-06	3.264840e-06	6.187283e-10	2.274867e+01	4.312645e+01
2.600000e-06	3.302378e-06	6.205490e-10	2.301023e+01	4.349255e+01
2.610000e-06	3.339754e-06	6.222460e-10	2.327065e+01	4.384849e+01
2.620000e-06	3.376805e-06	6.260269e-10	2.352882e+01	4.419437e+01
2.630000e-06	3.413546e-06	6.314452e-10	2.378482e+01	4.453032e+01
2.640000e-06	3.450051e-06	6.392022e-10	2.403918e+01	4.485643e+01
2.650000e-06	3.486311e-06	6.485781e-10	2.429183e+01	4.517283e+01
2.660000e-06	3.522333e-06	6.566592e-10	2.454283e+01	4.547962e+01
2.670000e-06	3.558173e-06	6.607629e-10	2.479255e+01	4.577694e+01
2.680000e-06	3.593920e-06	6.592243e-10	2.504162e+01	4.606490e+01
2.690000e-06	3.629554e-06	6.556474e-10	2.528991e+01	4.634363e+01
2.700000e-06	3.664998e-06	6.539552e-10	2.553688e+01	4.661328e+01
2.710000e-06	3.700216e-06	6.578388e-10	2.578227e+01	4.687399e+01
2.720000e-06	3.735139e-06	6.655141e-10	2.602561e+01	4.712592e+01
2.730000e-06	3.769683e-06	6.741013e-10	2.626630e+01	4.736923e+01
2.740000e-06	3.803801e-06	6.806031e-10	2.650403e+01	4.760411e+01
2.750000e-06	3.837464e-06	6.832038e-10	2.673858e+01	4.783073e+01
2.760000e-06	3.870689e-06	6.824651e-10	2.697009e+01	4.804929e+01
2.770000e-06	3.903488e-06	6.794157e-10	2.719863e+01	4.826001e+01
2.780000e-06	3.935869e-06	6.771801e-10	2.742425e+01	4.846311e+01
2.790000e-06	3.967974e-06	6.784521e-10	2.764795e+01	4.865881e+01
2.800000e-06	3.999935e-06	6.830633e-10	2.787064e+01	4.884736e+01
2.810000e-06	4.031698e-06	6.913232e-10	2.809196e+01	4.902900e+01
2.820000e-06	4.063298e-06	6.991743e-10	2.831215e+01	4.920401e+01
2.830000e-06	4.094728e-06	7.051595e-10	2.853114e+01	4.937264e+01
2.840000e-06	4.125894e-06	7.083444e-10	2.874830e+01	4.953518e+01
2.850000e-06	4.156809e-06	7.081688e-10	2.896371e+01	4.969191e+01
2.860000e-06	4.187477e-06	7.071883e-10	2.917740e+01	4.984312e+01
2.870000e-06	4.217790e-06	7.067007e-10	2.938861e+01	4.998909e+01
2.880000e-06	4.247766e-06	7.075634e-10	2.959748e+01	5.013013e+01
2.890000e-06	4.277451e-06	7.090143e-10	2.980432e+01	5.026653e+01
2.900000e-06	4.306796e-06	7.123216e-10	3.000879e+01	5.039859e+01
