# Temperatura_=_-0.4
# Concentracion g/m^3_=_1620.0
# C_Vs_to_Am_M_A/Vsm_=_65563218390.804596
# pendiente_HvsI_1/m_=_3716.3
# ordenada_HvsI_A/m_=_1297.0
# frecuencia_Hz_=_135092.35522054514

Tiempo_(s)	Campo_(V.s)	Magnetizacion_(V.s)	Campo_(kA/m)	Magnetizacion_(A/m)
0.000000e+00	-5.525865e-06	-1.522010e-09	-3.838039e+01	-9.956190e+01
1.000000e-08	-5.526046e-06	-1.518914e-09	-3.838165e+01	-9.951397e+01
2.000000e-08	-5.525948e-06	-1.516552e-09	-3.838097e+01	-9.946565e+01
3.000000e-08	-5.525343e-06	-1.516832e-09	-3.837677e+01	-9.941710e+01
4.000000e-08	-5.524176e-06	-1.516246e-09	-3.836866e+01	-9.936846e+01
5.000000e-08	-5.522428e-06	-1.513991e-09	-3.835652e+01	-9.931986e+01
6.000000e-08	-5.520168e-06	-1.511737e-09	-3.834082e+01	-9.927140e+01
7.000000e-08	-5.517490e-06	-1.524683e-09	-3.832222e+01	-9.922316e+01
8.000000e-08	-5.514295e-06	-1.562843e-09	-3.830003e+01	-9.917521e+01
9.000000e-08	-5.510656e-06	-1.539664e-09	-3.827476e+01	-9.912758e+01
1.000000e-07	-5.506611e-06	-1.455518e-09	-3.824666e+01	-9.908030e+01
1.100000e-07	-5.502195e-06	-1.457788e-09	-3.821599e+01	-9.903336e+01
1.200000e-07	-5.497509e-06	-1.580111e-09	-3.818344e+01	-9.898674e+01
1.300000e-07	-5.492500e-06	-1.562226e-09	-3.814865e+01	-9.894037e+01
1.400000e-07	-5.487106e-06	-1.472348e-09	-3.811119e+01	-9.889420e+01
1.500000e-07	-5.481390e-06	-1.445144e-09	-3.807148e+01	-9.884814e+01
1.600000e-07	-5.475409e-06	-1.587703e-09	-3.802994e+01	-9.880206e+01
1.700000e-07	-5.468950e-06	-1.568116e-09	-3.798508e+01	-9.875583e+01
1.800000e-07	-5.462000e-06	-1.441827e-09	-3.793681e+01	-9.870931e+01
1.900000e-07	-5.454826e-06	-1.418521e-09	-3.788698e+01	-9.866233e+01
2.000000e-07	-5.447332e-06	-1.518063e-09	-3.783493e+01	-9.861469e+01
2.100000e-07	-5.439507e-06	-1.549749e-09	-3.778058e+01	-9.856620e+01
2.200000e-07	-5.431500e-06	-1.472879e-09	-3.772497e+01	-9.851665e+01
2.300000e-07	-5.423229e-06	-1.456933e-09	-3.766752e+01	-9.846581e+01
2.400000e-07	-5.414327e-06	-1.475059e-09	-3.760569e+01	-9.841345e+01
2.500000e-07	-5.404629e-06	-1.491535e-09	-3.753834e+01	-9.835933e+01
2.600000e-07	-5.394367e-06	-1.450071e-09	-3.746706e+01	-9.830319e+01
2.700000e-07	-5.383566e-06	-1.468745e-09	-3.739204e+01	-9.824479e+01
2.800000e-07	-5.372193e-06	-1.464387e-09	-3.731305e+01	-9.818388e+01
2.900000e-07	-5.360510e-06	-1.478314e-09	-3.723190e+01	-9.812020e+01
3.000000e-07	-5.348535e-06	-1.456645e-09	-3.714873e+01	-9.805349e+01
3.100000e-07	-5.336176e-06	-1.464172e-09	-3.706289e+01	-9.798352e+01
3.200000e-07	-5.323377e-06	-1.449445e-09	-3.697400e+01	-9.791003e+01
3.300000e-07	-5.310202e-06	-1.478409e-09	-3.688248e+01	-9.783278e+01
3.400000e-07	-5.296683e-06	-1.450693e-09	-3.678858e+01	-9.775156e+01
3.500000e-07	-5.282660e-06	-1.430174e-09	-3.669119e+01	-9.766614e+01
3.600000e-07	-5.268166e-06	-1.444175e-09	-3.659052e+01	-9.757631e+01
3.700000e-07	-5.253215e-06	-1.467567e-09	-3.648667e+01	-9.748187e+01
3.800000e-07	-5.237609e-06	-1.420743e-09	-3.637828e+01	-9.738265e+01
3.900000e-07	-5.221555e-06	-1.435806e-09	-3.626678e+01	-9.727847e+01
4.000000e-07	-5.205208e-06	-1.479489e-09	-3.615324e+01	-9.716918e+01
4.100000e-07	-5.188438e-06	-1.426235e-09	-3.603676e+01	-9.705464e+01
4.200000e-07	-5.171322e-06	-1.389136e-09	-3.591788e+01	-9.693472e+01
4.300000e-07	-5.153918e-06	-1.466797e-09	-3.579700e+01	-9.680932e+01
4.400000e-07	-5.136193e-06	-1.461180e-09	-3.567389e+01	-9.667834e+01
4.500000e-07	-5.118047e-06	-1.359580e-09	-3.554785e+01	-9.654171e+01
4.600000e-07	-5.099433e-06	-1.417965e-09	-3.541857e+01	-9.639936e+01
4.700000e-07	-5.080460e-06	-1.484105e-09	-3.528679e+01	-9.625125e+01
4.800000e-07	-5.061207e-06	-1.395215e-09	-3.515307e+01	-9.609735e+01
4.900000e-07	-5.041690e-06	-1.370748e-09	-3.501751e+01	-9.593764e+01
5.000000e-07	-5.021982e-06	-1.475578e-09	-3.488063e+01	-9.577210e+01
5.100000e-07	-5.001997e-06	-1.414383e-09	-3.474181e+01	-9.560076e+01
5.200000e-07	-4.981674e-06	-1.351204e-09	-3.460066e+01	-9.542362e+01
5.300000e-07	-4.961019e-06	-1.435752e-09	-3.445721e+01	-9.524071e+01
5.400000e-07	-4.940017e-06	-1.437251e-09	-3.431133e+01	-9.505207e+01
5.500000e-07	-4.918681e-06	-1.325678e-09	-3.416314e+01	-9.485774e+01
5.600000e-07	-4.897035e-06	-1.392129e-09	-3.401279e+01	-9.465778e+01
5.700000e-07	-4.874947e-06	-1.452437e-09	-3.385938e+01	-9.445223e+01
5.800000e-07	-4.852399e-06	-1.365428e-09	-3.370277e+01	-9.424116e+01
5.900000e-07	-4.829601e-06	-1.352425e-09	-3.354442e+01	-9.402463e+01
6.000000e-07	-4.806565e-06	-1.433652e-09	-3.338443e+01	-9.380269e+01
6.100000e-07	-4.783235e-06	-1.376697e-09	-3.322239e+01	-9.357542e+01
6.200000e-07	-4.759678e-06	-1.337541e-09	-3.305877e+01	-9.334287e+01
6.300000e-07	-4.735855e-06	-1.398026e-09	-3.289330e+01	-9.310511e+01
6.400000e-07	-4.711739e-06	-1.393551e-09	-3.272581e+01	-9.286219e+01
6.500000e-07	-4.687170e-06	-1.342748e-09	-3.255516e+01	-9.261416e+01
6.600000e-07	-4.662127e-06	-1.380568e-09	-3.238122e+01	-9.236107e+01
6.700000e-07	-4.636645e-06	-1.387057e-09	-3.220423e+01	-9.210296e+01
6.800000e-07	-4.610646e-06	-1.335734e-09	-3.202366e+01	-9.183988e+01
6.900000e-07	-4.584186e-06	-1.342709e-09	-3.183987e+01	-9.157184e+01
7.000000e-07	-4.557282e-06	-1.365660e-09	-3.165301e+01	-9.129886e+01
7.100000e-07	-4.530039e-06	-1.338672e-09	-3.146379e+01	-9.102097e+01
7.200000e-07	-4.502579e-06	-1.333683e-09	-3.127307e+01	-9.073817e+01
7.300000e-07	-4.474907e-06	-1.354411e-09	-3.108087e+01	-9.045045e+01
7.400000e-07	-4.446972e-06	-1.333445e-09	-3.088684e+01	-9.015781e+01
7.500000e-07	-4.418852e-06	-1.314653e-09	-3.069153e+01	-8.986024e+01
7.600000e-07	-4.390524e-06	-1.318427e-09	-3.049478e+01	-8.955770e+01
7.700000e-07	-4.361791e-06	-1.312913e-09	-3.029521e+01	-8.925016e+01
7.800000e-07	-4.332724e-06	-1.296684e-09	-3.009332e+01	-8.893760e+01
7.900000e-07	-4.303402e-06	-1.302381e-09	-2.988966e+01	-8.861996e+01
8.000000e-07	-4.273752e-06	-1.294587e-09	-2.968372e+01	-8.829721e+01
8.100000e-07	-4.243787e-06	-1.279269e-09	-2.947561e+01	-8.796928e+01
8.200000e-07	-4.213539e-06	-1.274674e-09	-2.926551e+01	-8.763612e+01
8.300000e-07	-4.183037e-06	-1.277033e-09	-2.905366e+01	-8.729768e+01
8.400000e-07	-4.152227e-06	-1.256674e-09	-2.883966e+01	-8.695389e+01
8.500000e-07	-4.121168e-06	-1.251307e-09	-2.862394e+01	-8.660470e+01
8.600000e-07	-4.089921e-06	-1.255451e-09	-2.840691e+01	-8.625004e+01
8.700000e-07	-4.058424e-06	-1.247477e-09	-2.818814e+01	-8.588986e+01
8.800000e-07	-4.026741e-06	-1.232671e-09	-2.796809e+01	-8.552410e+01
8.900000e-07	-3.994868e-06	-1.238949e-09	-2.774672e+01	-8.515270e+01
9.000000e-07	-3.962678e-06	-1.230660e-09	-2.752314e+01	-8.477561e+01
9.100000e-07	-3.930197e-06	-1.216269e-09	-2.729754e+01	-8.439280e+01
9.200000e-07	-3.897306e-06	-1.214364e-09	-2.706909e+01	-8.400421e+01
9.300000e-07	-3.864033e-06	-1.213037e-09	-2.683799e+01	-8.360982e+01
9.400000e-07	-3.830357e-06	-1.195333e-09	-2.660409e+01	-8.320959e+01
9.500000e-07	-3.796048e-06	-1.189239e-09	-2.636579e+01	-8.280352e+01
9.600000e-07	-3.761324e-06	-1.191110e-09	-2.612461e+01	-8.239157e+01
9.700000e-07	-3.726329e-06	-1.179192e-09	-2.588155e+01	-8.197377e+01
9.800000e-07	-3.691084e-06	-1.166716e-09	-2.563676e+01	-8.155010e+01
9.900000e-07	-3.655683e-06	-1.169432e-09	-2.539088e+01	-8.112058e+01
1.000000e-06	-3.620178e-06	-1.165717e-09	-2.514427e+01	-8.068524e+01
1.010000e-06	-3.584498e-06	-1.151720e-09	-2.489645e+01	-8.024410e+01
1.020000e-06	-3.548633e-06	-1.151434e-09	-2.464735e+01	-7.979721e+01
1.030000e-06	-3.512558e-06	-1.150849e-09	-2.439679e+01	-7.934461e+01
1.040000e-06	-3.476251e-06	-1.139017e-09	-2.414461e+01	-7.888637e+01
1.050000e-06	-3.439672e-06	-1.131522e-09	-2.389055e+01	-7.842253e+01
1.060000e-06	-3.402851e-06	-1.130836e-09	-2.363480e+01	-7.795319e+01
1.070000e-06	-3.365842e-06	-1.117017e-09	-2.337776e+01	-7.747840e+01
1.080000e-06	-3.328416e-06	-1.105366e-09	-2.311781e+01	-7.699825e+01
1.090000e-06	-3.290708e-06	-1.100260e-09	-2.285591e+01	-7.651283e+01
1.100000e-06	-3.252926e-06	-1.093020e-09	-2.259349e+01	-7.602222e+01
1.110000e-06	-3.214883e-06	-1.080125e-09	-2.232926e+01	-7.552652e+01
1.120000e-06	-3.176578e-06	-1.078318e-09	-2.206320e+01	-7.502581e+01
1.130000e-06	-3.138099e-06	-1.074904e-09	-2.179594e+01	-7.452020e+01
1.140000e-06	-3.099414e-06	-1.063973e-09	-2.152726e+01	-7.400976e+01
1.150000e-06	-3.060580e-06	-1.051123e-09	-2.125753e+01	-7.349459e+01
1.160000e-06	-3.021548e-06	-1.045592e-09	-2.098643e+01	-7.297476e+01
1.170000e-06	-2.982263e-06	-1.035958e-09	-2.071358e+01	-7.245036e+01
1.180000e-06	-2.942811e-06	-1.025249e-09	-2.043956e+01	-7.192145e+01
1.190000e-06	-2.903226e-06	-1.016623e-09	-2.016462e+01	-7.138809e+01
1.200000e-06	-2.863516e-06	-1.007675e-09	-1.988881e+01	-7.085034e+01
1.210000e-06	-2.823733e-06	-9.946995e-10	-1.961249e+01	-7.030822e+01
1.220000e-06	-2.783816e-06	-9.873053e-10	-1.933524e+01	-6.976177e+01
1.230000e-06	-2.743688e-06	-9.809558e-10	-1.905653e+01	-6.921100e+01
1.240000e-06	-2.703332e-06	-9.711450e-10	-1.877624e+01	-6.865589e+01
1.250000e-06	-2.662733e-06	-9.619401e-10	-1.849425e+01	-6.809644e+01
1.260000e-06	-2.621933e-06	-9.522555e-10	-1.821087e+01	-6.753259e+01
1.270000e-06	-2.580694e-06	-9.404277e-10	-1.792444e+01	-6.696429e+01
1.280000e-06	-2.539102e-06	-9.308258e-10	-1.763556e+01	-6.639146e+01
1.290000e-06	-2.497282e-06	-9.238871e-10	-1.734510e+01	-6.581399e+01
1.300000e-06	-2.455202e-06	-9.157064e-10	-1.705282e+01	-6.523175e+01
1.310000e-06	-2.412888e-06	-9.054991e-10	-1.675893e+01	-6.464460e+01
1.320000e-06	-2.370252e-06	-8.968337e-10	-1.646280e+01	-6.405237e+01
1.330000e-06	-2.327362e-06	-8.880380e-10	-1.616490e+01	-6.345486e+01
1.340000e-06	-2.284269e-06	-8.763147e-10	-1.586560e+01	-6.285184e+01
1.350000e-06	-2.241017e-06	-8.651224e-10	-1.556519e+01	-6.224306e+01
1.360000e-06	-2.197633e-06	-8.531781e-10	-1.526385e+01	-6.162826e+01
1.370000e-06	-2.154132e-06	-8.422851e-10	-1.496172e+01	-6.100712e+01
1.380000e-06	-2.110552e-06	-8.322264e-10	-1.465903e+01	-6.037934e+01
1.390000e-06	-2.066911e-06	-8.233317e-10	-1.435591e+01	-5.974454e+01
1.400000e-06	-2.023128e-06	-8.134309e-10	-1.405181e+01	-5.910236e+01
1.410000e-06	-1.979289e-06	-8.037479e-10	-1.374733e+01	-5.845240e+01
1.420000e-06	-1.935462e-06	-7.934240e-10	-1.344293e+01	-5.779422e+01
1.430000e-06	-1.891592e-06	-7.833095e-10	-1.313822e+01	-5.712739e+01
1.440000e-06	-1.847567e-06	-7.710849e-10	-1.283244e+01	-5.645142e+01
1.450000e-06	-1.803341e-06	-7.603136e-10	-1.252527e+01	-5.576583e+01
1.460000e-06	-1.758999e-06	-7.487629e-10	-1.221729e+01	-5.507011e+01
1.470000e-06	-1.714517e-06	-7.381558e-10	-1.190833e+01	-5.436372e+01
1.480000e-06	-1.669804e-06	-7.264161e-10	-1.159778e+01	-5.364612e+01
1.490000e-06	-1.624902e-06	-7.160628e-10	-1.128590e+01	-5.291675e+01
1.500000e-06	-1.579944e-06	-7.070469e-10	-1.097365e+01	-5.217502e+01
1.510000e-06	-1.534848e-06	-6.982479e-10	-1.066042e+01	-5.142036e+01
1.520000e-06	-1.489666e-06	-6.853080e-10	-1.034661e+01	-5.065216e+01
1.530000e-06	-1.444458e-06	-6.713062e-10	-1.003261e+01	-4.986982e+01
1.540000e-06	-1.399133e-06	-6.566065e-10	-9.717802e+00	-4.907273e+01
1.550000e-06	-1.353657e-06	-6.425302e-10	-9.401948e+00	-4.826029e+01
1.560000e-06	-1.308068e-06	-6.309738e-10	-9.085300e+00	-4.743188e+01
1.570000e-06	-1.262480e-06	-6.210449e-10	-8.768669e+00	-4.658689e+01
1.580000e-06	-1.216784e-06	-6.089697e-10	-8.451284e+00	-4.572473e+01
1.590000e-06	-1.170938e-06	-5.930517e-10	-8.132855e+00	-4.484481e+01
1.600000e-06	-1.125042e-06	-5.775826e-10	-7.814080e+00	-4.394654e+01
1.610000e-06	-1.079110e-06	-5.630659e-10	-7.495053e+00	-4.302936e+01
1.620000e-06	-1.033152e-06	-5.479073e-10	-7.175847e+00	-4.209273e+01
1.630000e-06	-9.870337e-07	-5.324207e-10	-6.855531e+00	-4.113611e+01
1.640000e-06	-9.407294e-07	-5.188198e-10	-6.533920e+00	-4.015902e+01
1.650000e-06	-8.944135e-07	-5.049437e-10	-6.212229e+00	-3.916096e+01
1.660000e-06	-8.480541e-07	-4.890869e-10	-5.890236e+00	-3.814152e+01
1.670000e-06	-8.015554e-07	-4.723011e-10	-5.567275e+00	-3.710026e+01
1.680000e-06	-7.551038e-07	-4.566371e-10	-5.244641e+00	-3.603683e+01
1.690000e-06	-7.087026e-07	-4.389346e-10	-4.922357e+00	-3.495089e+01
1.700000e-06	-6.622348e-07	-4.220000e-10	-4.599611e+00	-3.384215e+01
1.710000e-06	-6.157418e-07	-4.045990e-10	-4.276690e+00	-3.271037e+01
1.720000e-06	-5.691007e-07	-3.869903e-10	-3.952740e+00	-3.155536e+01
1.730000e-06	-5.222803e-07	-3.692381e-10	-3.627545e+00	-3.037698e+01
1.740000e-06	-4.754618e-07	-3.512958e-10	-3.302362e+00	-2.917513e+01
1.750000e-06	-4.286627e-07	-3.342184e-10	-2.977315e+00	-2.794978e+01
1.760000e-06	-3.818501e-07	-3.171370e-10	-2.652174e+00	-2.670097e+01
1.770000e-06	-3.350345e-07	-2.987093e-10	-2.327012e+00	-2.542878e+01
1.780000e-06	-2.882186e-07	-2.797376e-10	-2.001848e+00	-2.413336e+01
1.790000e-06	-2.413743e-07	-2.608557e-10	-1.676487e+00	-2.281493e+01
1.800000e-06	-1.944980e-07	-2.436547e-10	-1.350903e+00	-2.147376e+01
1.810000e-06	-1.476742e-07	-2.252019e-10	-1.025684e+00	-2.011020e+01
1.820000e-06	-1.008801e-07	-2.056424e-10	-7.006715e-01	-1.872467e+01
1.830000e-06	-5.404293e-08	-1.856325e-10	-3.753600e-01	-1.731764e+01
1.840000e-06	-7.143405e-09	-1.645721e-10	-4.961516e-02	-1.588968e+01
1.850000e-06	3.975619e-08	-1.439061e-10	2.761302e-01	-1.444139e+01
1.860000e-06	8.661677e-08	-1.244785e-10	6.016046e-01	-1.297346e+01
1.870000e-06	1.334061e-07	-1.027762e-10	9.265837e-01	-1.148665e+01
1.880000e-06	1.801732e-07	-7.951004e-11	1.251409e+00	-9.981773e+00
1.890000e-06	2.269150e-07	-6.064700e-11	1.576058e+00	-8.459711e+00
1.900000e-06	2.736962e-07	-4.229594e-11	1.900982e+00	-6.921412e+00
1.910000e-06	3.205552e-07	-2.312321e-11	2.226445e+00	-5.367883e+00
1.920000e-06	3.673381e-07	-2.664875e-12	2.551379e+00	-3.800188e+00
1.930000e-06	4.140909e-07	2.158468e-11	2.876106e+00	-2.219448e+00
1.940000e-06	4.609279e-07	4.798282e-11	3.201416e+00	-6.268371e-01
1.950000e-06	5.076204e-07	7.166301e-11	3.525723e+00	9.764234e-01
1.960000e-06	5.541975e-07	9.578590e-11	3.849229e+00	2.589065e+00
1.970000e-06	6.007571e-07	1.202557e-10	4.172612e+00	4.209779e+00
1.980000e-06	6.472329e-07	1.401536e-10	4.495414e+00	5.837218e+00
1.990000e-06	6.937145e-07	1.584839e-10	4.818256e+00	7.470003e+00
2.000000e-06	7.401288e-07	1.799115e-10	5.140631e+00	9.106725e+00
2.010000e-06	7.865291e-07	2.022021e-10	5.462908e+00	1.074595e+01
2.020000e-06	8.329023e-07	2.251089e-10	5.784997e+00	1.238624e+01
2.030000e-06	8.791742e-07	2.530020e-10	6.106383e+00	1.402612e+01
2.040000e-06	9.253301e-07	2.824107e-10	6.426963e+00	1.566413e+01
2.050000e-06	9.714354e-07	3.070778e-10	6.747191e+00	1.729880e+01
2.060000e-06	1.017531e-06	3.290537e-10	7.067355e+00	1.892865e+01
2.070000e-06	1.063504e-06	3.490850e-10	7.386661e+00	2.055223e+01
2.080000e-06	1.109395e-06	3.672098e-10	7.705404e+00	2.216809e+01
2.090000e-06	1.155178e-06	3.885155e-10	8.023393e+00	2.377481e+01
2.100000e-06	1.200840e-06	4.136397e-10	8.340543e+00	2.537100e+01
2.110000e-06	1.246489e-06	4.392824e-10	8.657604e+00	2.695528e+01
2.120000e-06	1.292059e-06	4.617274e-10	8.974110e+00	2.852633e+01
2.130000e-06	1.337516e-06	4.828799e-10	9.289837e+00	3.008286e+01
2.140000e-06	1.382932e-06	5.024632e-10	9.605275e+00	3.162362e+01
2.150000e-06	1.428255e-06	5.198632e-10	9.920071e+00	3.314743e+01
2.160000e-06	1.473437e-06	5.390355e-10	1.023389e+01	3.465315e+01
2.170000e-06	1.518564e-06	5.590080e-10	1.054732e+01	3.613971e+01
2.180000e-06	1.563640e-06	5.789433e-10	1.086040e+01	3.760610e+01
2.190000e-06	1.608556e-06	5.993370e-10	1.117237e+01	3.905137e+01
2.200000e-06	1.653271e-06	6.179894e-10	1.148294e+01	4.047465e+01
2.210000e-06	1.697860e-06	6.342470e-10	1.179264e+01	4.187513e+01
2.220000e-06	1.742408e-06	6.476933e-10	1.210205e+01	4.325211e+01
2.230000e-06	1.786773e-06	6.613483e-10	1.241019e+01	4.460491e+01
2.240000e-06	1.830805e-06	6.777706e-10	1.271602e+01	4.593299e+01
2.250000e-06	1.874777e-06	6.960581e-10	1.302143e+01	4.723584e+01
2.260000e-06	1.918730e-06	7.157604e-10	1.332671e+01	4.851306e+01
2.270000e-06	1.962544e-06	7.343662e-10	1.363102e+01	4.976432e+01
2.280000e-06	2.006327e-06	7.507871e-10	1.393512e+01	5.098938e+01
2.290000e-06	2.050022e-06	7.658678e-10	1.423861e+01	5.218806e+01
2.300000e-06	2.093652e-06	7.799657e-10	1.454165e+01	5.336027e+01
2.310000e-06	2.137269e-06	7.929315e-10	1.484460e+01	5.450601e+01
2.320000e-06	2.180739e-06	8.075723e-10	1.514652e+01	5.562532e+01
2.330000e-06	2.224119e-06	8.239326e-10	1.544782e+01	5.671835e+01
2.340000e-06	2.267466e-06	8.405847e-10	1.574889e+01	5.778529e+01
2.350000e-06	2.310677e-06	8.549116e-10	1.604902e+01	5.882641e+01
2.360000e-06	2.353680e-06	8.670938e-10	1.634769e+01	5.984205e+01
2.370000e-06	2.396502e-06	8.801892e-10	1.664512e+01	6.083258e+01
2.380000e-06	2.438982e-06	8.933788e-10	1.694016e+01	6.179847e+01
2.390000e-06	2.481013e-06	9.053769e-10	1.723210e+01	6.274019e+01
2.400000e-06	2.522817e-06	9.169923e-10	1.752245e+01	6.365828e+01
2.410000e-06	2.564331e-06	9.317217e-10	1.781079e+01	6.455334e+01
2.420000e-06	2.605465e-06	9.469880e-10	1.809649e+01	6.542596e+01
2.430000e-06	2.646350e-06	9.595725e-10	1.838046e+01	6.627680e+01
2.440000e-06	2.686907e-06	9.687243e-10	1.866216e+01	6.710653e+01
2.450000e-06	2.727162e-06	9.751816e-10	1.894175e+01	6.791584e+01
2.460000e-06	2.767221e-06	9.821592e-10	1.921998e+01	6.870544e+01
2.470000e-06	2.807109e-06	9.931970e-10	1.949703e+01	6.947605e+01
2.480000e-06	2.846865e-06	1.005496e-09	1.977316e+01	7.022839e+01
2.490000e-06	2.886492e-06	1.017641e-09	2.004839e+01	7.096319e+01
2.500000e-06	2.925980e-06	1.030733e-09	2.032266e+01	7.168116e+01
2.510000e-06	2.965360e-06	1.041816e-09	2.059617e+01	7.238303e+01
2.520000e-06	3.004690e-06	1.048655e-09	2.086934e+01	7.306948e+01
2.530000e-06	3.043872e-06	1.054776e-09	2.114148e+01	7.374121e+01
2.540000e-06	3.082822e-06	1.064759e-09	2.141201e+01	7.439888e+01
2.550000e-06	3.121482e-06	1.077051e-09	2.168053e+01	7.504312e+01
2.560000e-06	3.159859e-06	1.087716e-09	2.194709e+01	7.567455e+01
2.570000e-06	3.197980e-06	1.099087e-09	2.221186e+01	7.629375e+01
2.580000e-06	3.235976e-06	1.113004e-09	2.247576e+01	7.690127e+01
2.590000e-06	3.273750e-06	1.124048e-09	2.273812e+01	7.749762e+01
2.600000e-06	3.311297e-06	1.130516e-09	2.299891e+01	7.808329e+01
2.610000e-06	3.348711e-06	1.134750e-09	2.325877e+01	7.865873e+01
2.620000e-06	3.385776e-06	1.139778e-09	2.351621e+01	7.922432e+01
2.630000e-06	3.422593e-06	1.145248e-09	2.377193e+01	7.978045e+01
2.640000e-06	3.459284e-06	1.151481e-09	2.402677e+01	8.032744e+01
2.650000e-06	3.495706e-06	1.161395e-09	2.427974e+01	8.086557e+01
2.660000e-06	3.531793e-06	1.172600e-09	2.453039e+01	8.139511e+01
2.670000e-06	3.567683e-06	1.182177e-09	2.477966e+01	8.191625e+01
2.680000e-06	3.603436e-06	1.190134e-09	2.502799e+01	8.242918e+01
2.690000e-06	3.639043e-06	1.193487e-09	2.527530e+01	8.293405e+01
2.700000e-06	3.674485e-06	1.195411e-09	2.552146e+01	8.343096e+01
2.710000e-06	3.709803e-06	1.200409e-09	2.576677e+01	8.391999e+01
2.720000e-06	3.744960e-06	1.208274e-09	2.601096e+01	8.440119e+01
2.730000e-06	3.779745e-06	1.216671e-09	2.625255e+01	8.487459e+01
2.740000e-06	3.814252e-06	1.226054e-09	2.649223e+01	8.534019e+01
2.750000e-06	3.848330e-06	1.235115e-09	2.672892e+01	8.579796e+01
2.760000e-06	3.881811e-06	1.242391e-09	2.696147e+01	8.624788e+01
2.770000e-06	3.914803e-06	1.248112e-09	2.719061e+01	8.668988e+01
2.780000e-06	3.947344e-06	1.251963e-09	2.741663e+01	8.712391e+01
2.790000e-06	3.979593e-06	1.254855e-09	2.764062e+01	8.754988e+01
2.800000e-06	4.011592e-06	1.257873e-09	2.786287e+01	8.796772e+01
2.810000e-06	4.043342e-06	1.264191e-09	2.808339e+01	8.837735e+01
2.820000e-06	4.074928e-06	1.273168e-09	2.830277e+01	8.877867e+01
2.830000e-06	4.106439e-06	1.282714e-09	2.852164e+01	8.917162e+01
2.840000e-06	4.137756e-06	1.291157e-09	2.873916e+01	8.955610e+01
2.850000e-06	4.168832e-06	1.295377e-09	2.895500e+01	8.993204e+01
2.860000e-06	4.199556e-06	1.296362e-09	2.916840e+01	9.029939e+01
2.870000e-06	4.229895e-06	1.296243e-09	2.937911e+01	9.065810e+01
2.880000e-06	4.259930e-06	1.296766e-09	2.958772e+01	9.100812e+01
2.890000e-06	4.289656e-06	1.299347e-09	2.979419e+01	9.134944e+01
2.900000e-06	4.319100e-06	1.304925e-09	2.999869e+01	9.168204e+01
