# Temperatura_=_-3.05
# Concentracion g/m^3_=_1620.0
# C_Vs_to_Am_M_A/Vsm_=_65563218390.804596
# pendiente_HvsI_1/m_=_3716.3
# ordenada_HvsI_A/m_=_1297.0
# frecuencia_Hz_=_135099.37427547143

Tiempo_(s)	Campo_(V.s)	Magnetizacion_(V.s)	Campo_(kA/m)	Magnetizacion_(A/m)
0.000000e+00	-5.528610e-06	-1.025390e-09	-3.837991e+01	-6.604168e+01
1.000000e-08	-5.528929e-06	-1.023120e-09	-3.838212e+01	-6.598505e+01
2.000000e-08	-5.528913e-06	-1.020715e-09	-3.838201e+01	-6.592532e+01
3.000000e-08	-5.528404e-06	-1.019854e-09	-3.837848e+01	-6.586261e+01
4.000000e-08	-5.527375e-06	-1.018032e-09	-3.837133e+01	-6.579707e+01
5.000000e-08	-5.525867e-06	-1.017327e-09	-3.836086e+01	-6.572883e+01
6.000000e-08	-5.523883e-06	-1.028398e-09	-3.834709e+01	-6.565805e+01
7.000000e-08	-5.521439e-06	-1.045851e-09	-3.833013e+01	-6.558489e+01
8.000000e-08	-5.518512e-06	-1.030636e-09	-3.830981e+01	-6.550952e+01
9.000000e-08	-5.515069e-06	-9.801205e-10	-3.828591e+01	-6.543209e+01
1.000000e-07	-5.511128e-06	-9.516709e-10	-3.825854e+01	-6.535278e+01
1.100000e-07	-5.506775e-06	-9.700656e-10	-3.822833e+01	-6.527175e+01
1.200000e-07	-5.502220e-06	-1.039748e-09	-3.819671e+01	-6.518917e+01
1.300000e-07	-5.497434e-06	-1.061138e-09	-3.816348e+01	-6.510521e+01
1.400000e-07	-5.492289e-06	-1.008465e-09	-3.812776e+01	-6.502002e+01
1.500000e-07	-5.486735e-06	-9.905834e-10	-3.808921e+01	-6.493376e+01
1.600000e-07	-5.480786e-06	-1.020967e-09	-3.804791e+01	-6.484657e+01
1.700000e-07	-5.474507e-06	-1.064017e-09	-3.800432e+01	-6.475861e+01
1.800000e-07	-5.467794e-06	-9.807162e-10	-3.795772e+01	-6.467000e+01
1.900000e-07	-5.460668e-06	-9.266300e-10	-3.790825e+01	-6.458086e+01
2.000000e-07	-5.453316e-06	-9.510682e-10	-3.785721e+01	-6.449131e+01
2.100000e-07	-5.445782e-06	-1.029472e-09	-3.780491e+01	-6.440145e+01
2.200000e-07	-5.437858e-06	-1.004137e-09	-3.774990e+01	-6.431137e+01
2.300000e-07	-5.429509e-06	-9.530003e-10	-3.769194e+01	-6.422115e+01
2.400000e-07	-5.420754e-06	-9.409099e-10	-3.763117e+01	-6.413087e+01
2.500000e-07	-5.411394e-06	-9.605391e-10	-3.756618e+01	-6.404057e+01
2.600000e-07	-5.401321e-06	-9.474299e-10	-3.749626e+01	-6.395031e+01
2.700000e-07	-5.390743e-06	-9.272539e-10	-3.742283e+01	-6.386011e+01
2.800000e-07	-5.379746e-06	-9.408638e-10	-3.734648e+01	-6.377000e+01
2.900000e-07	-5.368203e-06	-9.487062e-10	-3.726635e+01	-6.367998e+01
3.000000e-07	-5.356236e-06	-9.427035e-10	-3.718328e+01	-6.359006e+01
3.100000e-07	-5.343994e-06	-9.284839e-10	-3.709829e+01	-6.350022e+01
3.200000e-07	-5.331341e-06	-9.489287e-10	-3.701045e+01	-6.341045e+01
3.300000e-07	-5.318194e-06	-9.399366e-10	-3.691918e+01	-6.332072e+01
3.400000e-07	-5.304733e-06	-9.390547e-10	-3.682574e+01	-6.323098e+01
3.500000e-07	-5.290957e-06	-9.163198e-10	-3.673011e+01	-6.314120e+01
3.600000e-07	-5.276541e-06	-9.215951e-10	-3.663003e+01	-6.305131e+01
3.700000e-07	-5.261480e-06	-9.245275e-10	-3.652548e+01	-6.296127e+01
3.800000e-07	-5.246082e-06	-9.399590e-10	-3.641858e+01	-6.287100e+01
3.900000e-07	-5.230211e-06	-9.201020e-10	-3.630840e+01	-6.278045e+01
4.000000e-07	-5.213864e-06	-9.201069e-10	-3.619492e+01	-6.268955e+01
4.100000e-07	-5.197232e-06	-9.229595e-10	-3.607946e+01	-6.259821e+01
4.200000e-07	-5.180290e-06	-9.238865e-10	-3.596185e+01	-6.250636e+01
4.300000e-07	-5.162957e-06	-9.200593e-10	-3.584152e+01	-6.241394e+01
4.400000e-07	-5.145353e-06	-9.383542e-10	-3.571931e+01	-6.232085e+01
4.500000e-07	-5.127388e-06	-9.182731e-10	-3.559460e+01	-6.222704e+01
4.600000e-07	-5.108911e-06	-8.977053e-10	-3.546633e+01	-6.213241e+01
4.700000e-07	-5.089991e-06	-9.191630e-10	-3.533499e+01	-6.203691e+01
4.800000e-07	-5.070799e-06	-9.349644e-10	-3.520175e+01	-6.194045e+01
4.900000e-07	-5.051426e-06	-9.009921e-10	-3.506727e+01	-6.184297e+01
5.000000e-07	-5.031833e-06	-9.039122e-10	-3.493125e+01	-6.174440e+01
5.100000e-07	-5.011995e-06	-9.270623e-10	-3.479354e+01	-6.164467e+01
5.200000e-07	-4.991823e-06	-9.026730e-10	-3.465350e+01	-6.154373e+01
5.300000e-07	-4.971310e-06	-8.891360e-10	-3.451110e+01	-6.144151e+01
5.400000e-07	-4.950503e-06	-9.142533e-10	-3.436666e+01	-6.133795e+01
5.500000e-07	-4.929362e-06	-8.955328e-10	-3.421989e+01	-6.123300e+01
5.600000e-07	-4.907816e-06	-8.691853e-10	-3.407032e+01	-6.112660e+01
5.700000e-07	-4.885902e-06	-9.083722e-10	-3.391819e+01	-6.101870e+01
5.800000e-07	-4.863677e-06	-9.167601e-10	-3.376391e+01	-6.090926e+01
5.900000e-07	-4.841048e-06	-8.783981e-10	-3.360681e+01	-6.079822e+01
6.000000e-07	-4.818024e-06	-8.846062e-10	-3.344698e+01	-6.068553e+01
6.100000e-07	-4.794690e-06	-9.067596e-10	-3.328499e+01	-6.057114e+01
6.200000e-07	-4.771174e-06	-8.743384e-10	-3.312175e+01	-6.045500e+01
6.300000e-07	-4.747530e-06	-8.741717e-10	-3.295760e+01	-6.033707e+01
6.400000e-07	-4.723624e-06	-9.009172e-10	-3.279165e+01	-6.021728e+01
6.500000e-07	-4.699328e-06	-8.884991e-10	-3.262298e+01	-6.009558e+01
6.600000e-07	-4.674473e-06	-8.693742e-10	-3.245044e+01	-5.997191e+01
6.700000e-07	-4.649095e-06	-8.875822e-10	-3.227426e+01	-5.984622e+01
6.800000e-07	-4.623194e-06	-8.747241e-10	-3.209446e+01	-5.971842e+01
6.900000e-07	-4.596778e-06	-8.569056e-10	-3.191107e+01	-5.958847e+01
7.000000e-07	-4.569938e-06	-8.677300e-10	-3.172475e+01	-5.945628e+01
7.100000e-07	-4.542740e-06	-8.744260e-10	-3.153594e+01	-5.932177e+01
7.200000e-07	-4.515305e-06	-8.571685e-10	-3.134549e+01	-5.918486e+01
7.300000e-07	-4.487672e-06	-8.678455e-10	-3.115366e+01	-5.904546e+01
7.400000e-07	-4.459861e-06	-8.728497e-10	-3.096059e+01	-5.890347e+01
7.500000e-07	-4.431851e-06	-8.568347e-10	-3.076615e+01	-5.875880e+01
7.600000e-07	-4.403554e-06	-8.515013e-10	-3.056970e+01	-5.861135e+01
7.700000e-07	-4.374917e-06	-8.616124e-10	-3.037091e+01	-5.846100e+01
7.800000e-07	-4.345953e-06	-8.546681e-10	-3.016984e+01	-5.830764e+01
7.900000e-07	-4.316643e-06	-8.460362e-10	-2.996637e+01	-5.815116e+01
8.000000e-07	-4.287089e-06	-8.464639e-10	-2.976120e+01	-5.799143e+01
8.100000e-07	-4.257334e-06	-8.374046e-10	-2.955464e+01	-5.782832e+01
8.200000e-07	-4.227275e-06	-8.271441e-10	-2.934597e+01	-5.766173e+01
8.300000e-07	-4.196843e-06	-8.297433e-10	-2.913471e+01	-5.749150e+01
8.400000e-07	-4.166106e-06	-8.305459e-10	-2.892133e+01	-5.731753e+01
8.500000e-07	-4.135127e-06	-8.242077e-10	-2.870627e+01	-5.713968e+01
8.600000e-07	-4.103871e-06	-8.269256e-10	-2.848929e+01	-5.695782e+01
8.700000e-07	-4.072432e-06	-8.282263e-10	-2.827104e+01	-5.677182e+01
8.800000e-07	-4.040791e-06	-8.177551e-10	-2.805138e+01	-5.658158e+01
8.900000e-07	-4.008937e-06	-8.081429e-10	-2.783025e+01	-5.638696e+01
9.000000e-07	-3.976837e-06	-8.068809e-10	-2.760742e+01	-5.618785e+01
9.100000e-07	-3.944341e-06	-7.980744e-10	-2.738183e+01	-5.598416e+01
9.200000e-07	-3.911467e-06	-7.934838e-10	-2.715362e+01	-5.577577e+01
9.300000e-07	-3.878246e-06	-7.932355e-10	-2.692299e+01	-5.556259e+01
9.400000e-07	-3.844530e-06	-7.922695e-10	-2.668893e+01	-5.534455e+01
9.500000e-07	-3.810339e-06	-7.838774e-10	-2.645157e+01	-5.512156e+01
9.600000e-07	-3.775771e-06	-7.846873e-10	-2.621160e+01	-5.489357e+01
9.700000e-07	-3.740889e-06	-7.818582e-10	-2.596945e+01	-5.466051e+01
9.800000e-07	-3.705731e-06	-7.725243e-10	-2.572538e+01	-5.442236e+01
9.900000e-07	-3.670306e-06	-7.676880e-10	-2.547946e+01	-5.417907e+01
1.000000e-06	-3.634736e-06	-7.701426e-10	-2.523253e+01	-5.393064e+01
1.010000e-06	-3.599077e-06	-7.676180e-10	-2.498499e+01	-5.367706e+01
1.020000e-06	-3.563259e-06	-7.676147e-10	-2.473634e+01	-5.341833e+01
1.030000e-06	-3.527206e-06	-7.696395e-10	-2.448605e+01	-5.315448e+01
1.040000e-06	-3.490956e-06	-7.648712e-10	-2.423441e+01	-5.288554e+01
1.050000e-06	-3.454449e-06	-7.563010e-10	-2.398097e+01	-5.261156e+01
1.060000e-06	-3.417575e-06	-7.526791e-10	-2.372499e+01	-5.233260e+01
1.070000e-06	-3.380474e-06	-7.465422e-10	-2.346743e+01	-5.204871e+01
1.080000e-06	-3.343218e-06	-7.380116e-10	-2.320879e+01	-5.175999e+01
1.090000e-06	-3.305684e-06	-7.346381e-10	-2.294823e+01	-5.146652e+01
1.100000e-06	-3.267895e-06	-7.338552e-10	-2.268590e+01	-5.116839e+01
1.110000e-06	-3.229898e-06	-7.292531e-10	-2.242213e+01	-5.086571e+01
1.120000e-06	-3.191549e-06	-7.240625e-10	-2.215590e+01	-5.055859e+01
1.130000e-06	-3.152945e-06	-7.198034e-10	-2.188791e+01	-5.024714e+01
1.140000e-06	-3.114197e-06	-7.124605e-10	-2.161892e+01	-4.993148e+01
1.150000e-06	-3.075307e-06	-7.064891e-10	-2.134894e+01	-4.961173e+01
1.160000e-06	-3.036317e-06	-7.051374e-10	-2.107828e+01	-4.928800e+01
1.170000e-06	-2.997096e-06	-7.040932e-10	-2.080600e+01	-4.896042e+01
1.180000e-06	-2.957654e-06	-6.974980e-10	-2.053219e+01	-4.862909e+01
1.190000e-06	-2.918129e-06	-6.933783e-10	-2.025781e+01	-4.829412e+01
1.200000e-06	-2.878486e-06	-6.887293e-10	-1.998260e+01	-4.795561e+01
1.210000e-06	-2.838635e-06	-6.822276e-10	-1.970595e+01	-4.761365e+01
1.220000e-06	-2.798594e-06	-6.750530e-10	-1.942799e+01	-4.726832e+01
1.230000e-06	-2.758504e-06	-6.709729e-10	-1.914968e+01	-4.691969e+01
1.240000e-06	-2.718354e-06	-6.652933e-10	-1.887096e+01	-4.656781e+01
1.250000e-06	-2.677896e-06	-6.614238e-10	-1.859010e+01	-4.621270e+01
1.260000e-06	-2.637036e-06	-6.587403e-10	-1.830645e+01	-4.585440e+01
1.270000e-06	-2.595960e-06	-6.546989e-10	-1.802129e+01	-4.549289e+01
1.280000e-06	-2.554713e-06	-6.488514e-10	-1.773495e+01	-4.512817e+01
1.290000e-06	-2.513137e-06	-6.436343e-10	-1.744633e+01	-4.476017e+01
1.300000e-06	-2.471244e-06	-6.375702e-10	-1.715551e+01	-4.438884e+01
1.310000e-06	-2.428993e-06	-6.310413e-10	-1.686220e+01	-4.401408e+01
1.320000e-06	-2.386441e-06	-6.251739e-10	-1.656680e+01	-4.363578e+01
1.330000e-06	-2.343649e-06	-6.203578e-10	-1.626973e+01	-4.325380e+01
1.340000e-06	-2.300590e-06	-6.157868e-10	-1.597082e+01	-4.286797e+01
1.350000e-06	-2.257339e-06	-6.109379e-10	-1.567057e+01	-4.247810e+01
1.360000e-06	-2.213935e-06	-6.048440e-10	-1.536925e+01	-4.208396e+01
1.370000e-06	-2.170422e-06	-5.980058e-10	-1.506719e+01	-4.168533e+01
1.380000e-06	-2.126823e-06	-5.905379e-10	-1.476452e+01	-4.128192e+01
1.390000e-06	-2.083189e-06	-5.830064e-10	-1.446161e+01	-4.087345e+01
1.400000e-06	-2.039500e-06	-5.745151e-10	-1.415832e+01	-4.045960e+01
1.410000e-06	-1.995680e-06	-5.646319e-10	-1.385411e+01	-4.004002e+01
1.420000e-06	-1.951751e-06	-5.573087e-10	-1.354916e+01	-3.961436e+01
1.430000e-06	-1.907751e-06	-5.529693e-10	-1.324371e+01	-3.918223e+01
1.440000e-06	-1.863691e-06	-5.488209e-10	-1.293784e+01	-3.874323e+01
1.450000e-06	-1.819514e-06	-5.431098e-10	-1.263116e+01	-3.829695e+01
1.460000e-06	-1.775097e-06	-5.346607e-10	-1.232282e+01	-3.784295e+01
1.470000e-06	-1.730528e-06	-5.249771e-10	-1.201342e+01	-3.738079e+01
1.480000e-06	-1.685869e-06	-5.161470e-10	-1.170339e+01	-3.691000e+01
1.490000e-06	-1.641161e-06	-5.094680e-10	-1.139303e+01	-3.643013e+01
1.500000e-06	-1.596358e-06	-5.059197e-10	-1.108200e+01	-3.594070e+01
1.510000e-06	-1.551366e-06	-5.010315e-10	-1.076967e+01	-3.544124e+01
1.520000e-06	-1.506193e-06	-4.946871e-10	-1.045607e+01	-3.493127e+01
1.530000e-06	-1.460813e-06	-4.868958e-10	-1.014104e+01	-3.441031e+01
1.540000e-06	-1.415356e-06	-4.784159e-10	-9.825477e+00	-3.387790e+01
1.550000e-06	-1.369845e-06	-4.687562e-10	-9.509535e+00	-3.333358e+01
1.560000e-06	-1.324240e-06	-4.579299e-10	-9.192945e+00	-3.277688e+01
1.570000e-06	-1.278590e-06	-4.493213e-10	-8.876037e+00	-3.220736e+01
1.580000e-06	-1.232975e-06	-4.422157e-10	-8.559379e+00	-3.162460e+01
1.590000e-06	-1.187282e-06	-4.331800e-10	-8.242173e+00	-3.102819e+01
1.600000e-06	-1.141401e-06	-4.211331e-10	-7.923668e+00	-3.041774e+01
1.610000e-06	-1.095419e-06	-4.094274e-10	-7.604457e+00	-2.979288e+01
1.620000e-06	-1.049382e-06	-3.975459e-10	-7.284867e+00	-2.915326e+01
1.630000e-06	-1.003247e-06	-3.849194e-10	-6.964597e+00	-2.849857e+01
1.640000e-06	-9.569867e-07	-3.756479e-10	-6.643453e+00	-2.782853e+01
1.650000e-06	-9.106790e-07	-3.676667e-10	-6.321982e+00	-2.714287e+01
1.660000e-06	-8.642622e-07	-3.588957e-10	-5.999754e+00	-2.644138e+01
1.670000e-06	-8.177015e-07	-3.478077e-10	-5.676527e+00	-2.572386e+01
1.680000e-06	-7.711854e-07	-3.341673e-10	-5.353610e+00	-2.499016e+01
1.690000e-06	-7.246109e-07	-3.218732e-10	-5.030287e+00	-2.424017e+01
1.700000e-06	-6.779226e-07	-3.118951e-10	-4.706175e+00	-2.347381e+01
1.710000e-06	-6.312240e-07	-3.015206e-10	-4.381991e+00	-2.269105e+01
1.720000e-06	-5.845984e-07	-2.893454e-10	-4.058313e+00	-2.189188e+01
1.730000e-06	-5.379668e-07	-2.754830e-10	-3.734594e+00	-2.107635e+01
1.740000e-06	-4.911977e-07	-2.628432e-10	-3.409921e+00	-2.024456e+01
1.750000e-06	-4.443771e-07	-2.497161e-10	-3.084890e+00	-1.939661e+01
1.760000e-06	-3.974990e-07	-2.369553e-10	-2.759459e+00	-1.853270e+01
1.770000e-06	-3.506709e-07	-2.259239e-10	-2.434376e+00	-1.765302e+01
1.780000e-06	-3.038653e-07	-2.147313e-10	-2.109449e+00	-1.675783e+01
1.790000e-06	-2.569649e-07	-2.020475e-10	-1.783864e+00	-1.584742e+01
1.800000e-06	-2.100689e-07	-1.882855e-10	-1.458309e+00	-1.492214e+01
1.810000e-06	-1.632226e-07	-1.734903e-10	-1.133100e+00	-1.398235e+01
1.820000e-06	-1.163681e-07	-1.579231e-10	-8.078337e-01	-1.302846e+01
1.830000e-06	-6.949199e-08	-1.426968e-10	-4.824171e-01	-1.206094e+01
1.840000e-06	-2.254093e-08	-1.276263e-10	-1.564803e-01	-1.108026e+01
1.850000e-06	2.442952e-08	-1.136938e-10	1.695910e-01	-1.008694e+01
1.860000e-06	7.134415e-08	-1.014684e-10	4.952749e-01	-9.081548e+00
1.870000e-06	1.182584e-07	-8.668505e-11	8.209561e-01	-8.064665e+00
1.880000e-06	1.651517e-07	-7.015397e-11	1.146492e+00	-7.036910e+00
1.890000e-06	2.119853e-07	-5.633146e-11	1.471613e+00	-5.998930e+00
1.900000e-06	2.588406e-07	-4.346341e-11	1.796885e+00	-4.951397e+00
1.910000e-06	3.058017e-07	-3.115845e-11	2.122892e+00	-3.895009e+00
1.920000e-06	3.527673e-07	-1.804637e-11	2.448930e+00	-2.830487e+00
1.930000e-06	3.996181e-07	-9.327434e-13	2.774170e+00	-1.758571e+00
1.940000e-06	4.463801e-07	1.730972e-11	3.098795e+00	-6.800200e-01
1.950000e-06	4.930937e-07	3.362248e-11	3.423083e+00	4.043894e-01
1.960000e-06	5.398240e-07	4.832186e-11	3.747487e+00	1.493868e+00
1.970000e-06	5.864592e-07	6.140240e-11	4.071231e+00	2.587614e+00
1.980000e-06	6.330060e-07	7.472802e-11	4.394361e+00	3.684817e+00
1.990000e-06	6.795688e-07	8.812848e-11	4.717602e+00	4.784658e+00
2.000000e-06	7.260525e-07	1.026756e-10	5.040295e+00	5.886313e+00
2.010000e-06	7.724585e-07	1.198791e-10	5.362448e+00	6.988956e+00
2.020000e-06	8.188078e-07	1.362562e-10	5.684208e+00	8.091760e+00
2.030000e-06	8.650647e-07	1.538104e-10	6.005325e+00	9.193899e+00
2.040000e-06	9.112540e-07	1.731458e-10	6.325974e+00	1.029455e+01
2.050000e-06	9.573829e-07	1.891764e-10	6.646203e+00	1.139290e+01
2.060000e-06	1.003453e-06	2.033449e-10	6.966023e+00	1.248814e+01
2.070000e-06	1.049525e-06	2.166921e-10	7.285862e+00	1.357946e+01
2.080000e-06	1.095598e-06	2.302793e-10	7.605698e+00	1.466609e+01
2.090000e-06	1.141575e-06	2.451231e-10	7.924877e+00	1.574726e+01
2.100000e-06	1.187376e-06	2.630262e-10	8.242826e+00	1.682220e+01
2.110000e-06	1.233068e-06	2.800917e-10	8.560023e+00	1.789017e+01
2.120000e-06	1.278656e-06	2.955141e-10	8.876497e+00	1.895046e+01
2.130000e-06	1.324159e-06	3.111653e-10	9.192386e+00	2.000238e+01
2.140000e-06	1.369594e-06	3.261129e-10	9.507793e+00	2.104524e+01
2.150000e-06	1.414957e-06	3.390262e-10	9.822704e+00	2.207839e+01
2.160000e-06	1.460298e-06	3.514331e-10	1.013747e+01	2.310121e+01
2.170000e-06	1.505550e-06	3.658420e-10	1.045161e+01	2.411310e+01
2.180000e-06	1.550641e-06	3.801831e-10	1.076463e+01	2.511350e+01
2.190000e-06	1.595632e-06	3.961903e-10	1.107696e+01	2.610186e+01
2.200000e-06	1.640469e-06	4.139933e-10	1.138822e+01	2.707768e+01
2.210000e-06	1.685077e-06	4.292378e-10	1.169790e+01	2.804048e+01
2.220000e-06	1.729614e-06	4.406560e-10	1.200707e+01	2.898981e+01
2.230000e-06	1.774054e-06	4.495394e-10	1.231558e+01	2.992527e+01
2.240000e-06	1.818353e-06	4.600150e-10	1.262311e+01	3.084647e+01
2.250000e-06	1.862481e-06	4.740235e-10	1.292944e+01	3.175309e+01
2.260000e-06	1.906442e-06	4.903637e-10	1.323462e+01	3.264481e+01
2.270000e-06	1.950380e-06	5.071705e-10	1.353964e+01	3.352135e+01
2.280000e-06	1.994252e-06	5.223820e-10	1.384420e+01	3.438250e+01
2.290000e-06	2.037977e-06	5.327274e-10	1.414775e+01	3.522803e+01
2.300000e-06	2.081617e-06	5.401373e-10	1.445070e+01	3.605780e+01
2.310000e-06	2.125254e-06	5.452176e-10	1.475363e+01	3.687167e+01
2.320000e-06	2.168811e-06	5.520843e-10	1.505600e+01	3.766954e+01
2.330000e-06	2.212299e-06	5.641808e-10	1.535790e+01	3.845137e+01
2.340000e-06	2.255681e-06	5.791015e-10	1.565906e+01	3.921711e+01
2.350000e-06	2.298889e-06	5.951205e-10	1.595901e+01	3.996677e+01
2.360000e-06	2.341840e-06	6.068247e-10	1.625718e+01	4.070041e+01
2.370000e-06	2.384539e-06	6.145543e-10	1.655360e+01	4.141807e+01
2.380000e-06	2.427006e-06	6.196927e-10	1.684841e+01	4.211987e+01
2.390000e-06	2.469139e-06	6.255088e-10	1.714090e+01	4.280592e+01
2.400000e-06	2.511082e-06	6.315024e-10	1.743207e+01	4.347639e+01
2.410000e-06	2.552791e-06	6.405880e-10	1.772161e+01	4.413146e+01
2.420000e-06	2.594184e-06	6.522680e-10	1.800896e+01	4.477132e+01
2.430000e-06	2.635248e-06	6.639797e-10	1.829403e+01	4.539620e+01
2.440000e-06	2.675950e-06	6.738372e-10	1.857659e+01	4.600636e+01
2.450000e-06	2.716348e-06	6.808143e-10	1.885703e+01	4.660205e+01
2.460000e-06	2.756547e-06	6.866562e-10	1.913609e+01	4.718356e+01
2.470000e-06	2.796594e-06	6.927972e-10	1.941411e+01	4.775118e+01
2.480000e-06	2.836509e-06	6.999919e-10	1.969119e+01	4.830522e+01
2.490000e-06	2.876260e-06	7.079560e-10	1.996715e+01	4.884600e+01
2.500000e-06	2.915854e-06	7.153558e-10	2.024201e+01	4.937386e+01
2.510000e-06	2.955327e-06	7.249641e-10	2.051604e+01	4.988911e+01
2.520000e-06	2.994628e-06	7.333371e-10	2.078887e+01	5.039211e+01
2.530000e-06	3.033766e-06	7.386935e-10	2.106056e+01	5.088318e+01
2.540000e-06	3.072669e-06	7.445870e-10	2.133063e+01	5.136268e+01
2.550000e-06	3.111331e-06	7.507210e-10	2.159903e+01	5.183094e+01
2.560000e-06	3.149800e-06	7.553056e-10	2.186608e+01	5.228829e+01
2.570000e-06	3.188065e-06	7.600002e-10	2.213171e+01	5.273507e+01
2.580000e-06	3.226095e-06	7.692997e-10	2.239572e+01	5.317159e+01
2.590000e-06	3.263932e-06	7.796707e-10	2.265839e+01	5.359816e+01
2.600000e-06	3.301597e-06	7.883440e-10	2.291986e+01	5.401509e+01
2.610000e-06	3.339089e-06	7.943831e-10	2.318013e+01	5.442267e+01
2.620000e-06	3.376313e-06	7.981444e-10	2.343855e+01	5.482118e+01
2.630000e-06	3.413210e-06	8.016448e-10	2.369468e+01	5.521086e+01
2.640000e-06	3.449871e-06	8.052478e-10	2.394919e+01	5.559198e+01
2.650000e-06	3.486302e-06	8.108745e-10	2.420210e+01	5.596475e+01
2.660000e-06	3.522549e-06	8.209287e-10	2.445372e+01	5.632940e+01
2.670000e-06	3.558628e-06	8.314857e-10	2.470419e+01	5.668610e+01
2.680000e-06	3.594500e-06	8.408043e-10	2.495321e+01	5.703505e+01
2.690000e-06	3.630151e-06	8.451015e-10	2.520070e+01	5.737640e+01
2.700000e-06	3.665628e-06	8.442249e-10	2.544699e+01	5.771029e+01
2.710000e-06	3.700990e-06	8.439709e-10	2.569247e+01	5.803683e+01
2.720000e-06	3.736231e-06	8.473953e-10	2.593712e+01	5.835615e+01
2.730000e-06	3.771216e-06	8.529900e-10	2.617998e+01	5.866831e+01
2.740000e-06	3.805777e-06	8.599580e-10	2.641991e+01	5.897340e+01
2.750000e-06	3.839888e-06	8.660383e-10	2.665671e+01	5.927146e+01
2.760000e-06	3.873500e-06	8.702548e-10	2.689004e+01	5.956254e+01
2.770000e-06	3.906602e-06	8.725808e-10	2.711984e+01	5.984667e+01
2.780000e-06	3.939397e-06	8.740389e-10	2.734751e+01	6.012387e+01
2.790000e-06	3.971923e-06	8.769294e-10	2.757330e+01	6.039412e+01
2.800000e-06	4.004054e-06	8.798087e-10	2.779636e+01	6.065744e+01
2.810000e-06	4.035852e-06	8.839092e-10	2.801710e+01	6.091380e+01
2.820000e-06	4.067419e-06	8.898232e-10	2.823624e+01	6.116320e+01
2.830000e-06	4.098847e-06	8.950712e-10	2.845442e+01	6.140559e+01
2.840000e-06	4.130084e-06	8.994298e-10	2.867126e+01	6.164097e+01
2.850000e-06	4.161049e-06	9.023551e-10	2.888623e+01	6.186930e+01
2.860000e-06	4.191790e-06	9.027022e-10	2.909963e+01	6.209055e+01
2.870000e-06	4.222210e-06	9.030366e-10	2.931081e+01	6.230469e+01
2.880000e-06	4.252343e-06	9.058590e-10	2.951999e+01	6.251172e+01
2.890000e-06	4.282264e-06	9.083752e-10	2.972770e+01	6.271161e+01
2.900000e-06	4.311901e-06	9.085483e-10	2.993345e+01	6.290435e+01
