# Temperatura_=_-0.5
# Concentracion g/m^3_=_1620.0
# C_Vs_to_Am_M_A/Vsm_=_65563218390.804596
# pendiente_HvsI_1/m_=_3716.3
# ordenada_HvsI_A/m_=_1297.0
# frecuencia_Hz_=_135094.65776254918

Tiempo_(s)	Campo_(V.s)	Magnetizacion_(V.s)	Campo_(kA/m)	Magnetizacion_(A/m)
0.000000e+00	-5.524808e-06	-1.385219e-09	-3.837708e+01	-8.956644e+01
1.000000e-08	-5.525100e-06	-1.381361e-09	-3.837911e+01	-8.953659e+01
2.000000e-08	-5.525161e-06	-1.379567e-09	-3.837953e+01	-8.950470e+01
3.000000e-08	-5.524982e-06	-1.380283e-09	-3.837829e+01	-8.947066e+01
4.000000e-08	-5.524357e-06	-1.382983e-09	-3.837395e+01	-8.943433e+01
5.000000e-08	-5.523193e-06	-1.385870e-09	-3.836586e+01	-8.939558e+01
6.000000e-08	-5.521336e-06	-1.383859e-09	-3.835296e+01	-8.935427e+01
7.000000e-08	-5.518791e-06	-1.370224e-09	-3.833528e+01	-8.931028e+01
8.000000e-08	-5.515725e-06	-1.368292e-09	-3.831398e+01	-8.926346e+01
9.000000e-08	-5.512209e-06	-1.389297e-09	-3.828956e+01	-8.921369e+01
1.000000e-07	-5.508317e-06	-1.443091e-09	-3.826253e+01	-8.916084e+01
1.100000e-07	-5.503966e-06	-1.453270e-09	-3.823230e+01	-8.910480e+01
1.200000e-07	-5.499263e-06	-1.326570e-09	-3.819964e+01	-8.904543e+01
1.300000e-07	-5.494491e-06	-1.323094e-09	-3.816649e+01	-8.898265e+01
1.400000e-07	-5.489491e-06	-1.396311e-09	-3.813176e+01	-8.891633e+01
1.500000e-07	-5.483991e-06	-1.437059e-09	-3.809355e+01	-8.884641e+01
1.600000e-07	-5.478070e-06	-1.372318e-09	-3.805242e+01	-8.877279e+01
1.700000e-07	-5.471853e-06	-1.309087e-09	-3.800924e+01	-8.869540e+01
1.800000e-07	-5.465264e-06	-1.433147e-09	-3.796346e+01	-8.861419e+01
1.900000e-07	-5.458093e-06	-1.416061e-09	-3.791365e+01	-8.852911e+01
2.000000e-07	-5.450604e-06	-1.369754e-09	-3.786163e+01	-8.844012e+01
2.100000e-07	-5.443028e-06	-1.294198e-09	-3.780901e+01	-8.834720e+01
2.200000e-07	-5.435174e-06	-1.404435e-09	-3.775445e+01	-8.825033e+01
2.300000e-07	-5.427026e-06	-1.420397e-09	-3.769786e+01	-8.814950e+01
2.400000e-07	-5.418533e-06	-1.392774e-09	-3.763886e+01	-8.804473e+01
2.500000e-07	-5.409418e-06	-1.331092e-09	-3.757554e+01	-8.793603e+01
2.600000e-07	-5.399519e-06	-1.369876e-09	-3.750678e+01	-8.782343e+01
2.700000e-07	-5.388915e-06	-1.359773e-09	-3.743312e+01	-8.770695e+01
2.800000e-07	-5.377817e-06	-1.318649e-09	-3.735603e+01	-8.758666e+01
2.900000e-07	-5.366319e-06	-1.305886e-09	-3.727616e+01	-8.746258e+01
3.000000e-07	-5.354471e-06	-1.337078e-09	-3.719386e+01	-8.733478e+01
3.100000e-07	-5.342313e-06	-1.357742e-09	-3.710941e+01	-8.720332e+01
3.200000e-07	-5.329736e-06	-1.309770e-09	-3.702205e+01	-8.706826e+01
3.300000e-07	-5.316649e-06	-1.314146e-09	-3.693114e+01	-8.692966e+01
3.400000e-07	-5.303190e-06	-1.311702e-09	-3.683765e+01	-8.678761e+01
3.500000e-07	-5.289400e-06	-1.329656e-09	-3.674186e+01	-8.664216e+01
3.600000e-07	-5.275125e-06	-1.268775e-09	-3.664270e+01	-8.649339e+01
3.700000e-07	-5.260385e-06	-1.282748e-09	-3.654031e+01	-8.634136e+01
3.800000e-07	-5.245259e-06	-1.308447e-09	-3.643525e+01	-8.618615e+01
3.900000e-07	-5.229626e-06	-1.323063e-09	-3.632665e+01	-8.602782e+01
4.000000e-07	-5.213369e-06	-1.257464e-09	-3.621372e+01	-8.586643e+01
4.100000e-07	-5.196620e-06	-1.303823e-09	-3.609738e+01	-8.570204e+01
4.200000e-07	-5.179599e-06	-1.325340e-09	-3.597915e+01	-8.553470e+01
4.300000e-07	-5.162327e-06	-1.273619e-09	-3.585917e+01	-8.536447e+01
4.400000e-07	-5.144772e-06	-1.227396e-09	-3.573723e+01	-8.519140e+01
4.500000e-07	-5.127019e-06	-1.322462e-09	-3.561391e+01	-8.501551e+01
4.600000e-07	-5.108791e-06	-1.295088e-09	-3.548729e+01	-8.483684e+01
4.700000e-07	-5.089932e-06	-1.227956e-09	-3.535629e+01	-8.465543e+01
4.800000e-07	-5.070687e-06	-1.270589e-09	-3.522261e+01	-8.447130e+01
4.900000e-07	-5.051243e-06	-1.340039e-09	-3.508754e+01	-8.428447e+01
5.000000e-07	-5.031585e-06	-1.253562e-09	-3.495100e+01	-8.409495e+01
5.100000e-07	-5.011768e-06	-1.244218e-09	-3.481334e+01	-8.390275e+01
5.200000e-07	-4.991686e-06	-1.297840e-09	-3.467384e+01	-8.370788e+01
5.300000e-07	-4.971167e-06	-1.256558e-09	-3.453131e+01	-8.351034e+01
5.400000e-07	-4.950268e-06	-1.213952e-09	-3.438614e+01	-8.331013e+01
5.500000e-07	-4.929037e-06	-1.288547e-09	-3.423866e+01	-8.310725e+01
5.600000e-07	-4.907442e-06	-1.273601e-09	-3.408865e+01	-8.290169e+01
5.700000e-07	-4.885559e-06	-1.201885e-09	-3.393665e+01	-8.269344e+01
5.800000e-07	-4.863383e-06	-1.247546e-09	-3.378261e+01	-8.248250e+01
5.900000e-07	-4.840774e-06	-1.279768e-09	-3.362556e+01	-8.226886e+01
6.000000e-07	-4.817729e-06	-1.218783e-09	-3.346548e+01	-8.205251e+01
6.100000e-07	-4.794442e-06	-1.221239e-09	-3.330372e+01	-8.183345e+01
6.200000e-07	-4.771006e-06	-1.269598e-09	-3.314093e+01	-8.161166e+01
6.300000e-07	-4.747354e-06	-1.225910e-09	-3.297664e+01	-8.138715e+01
6.400000e-07	-4.723477e-06	-1.217280e-09	-3.281078e+01	-8.115991e+01
6.500000e-07	-4.699368e-06	-1.246804e-09	-3.264331e+01	-8.092993e+01
6.600000e-07	-4.674862e-06	-1.230674e-09	-3.247308e+01	-8.069723e+01
6.700000e-07	-4.649731e-06	-1.197781e-09	-3.229851e+01	-8.046180e+01
6.800000e-07	-4.623967e-06	-1.229690e-09	-3.211955e+01	-8.022365e+01
6.900000e-07	-4.597641e-06	-1.214119e-09	-3.193668e+01	-7.998280e+01
7.000000e-07	-4.570891e-06	-1.199362e-09	-3.175087e+01	-7.973923e+01
7.100000e-07	-4.543772e-06	-1.209550e-09	-3.156249e+01	-7.949298e+01
7.200000e-07	-4.516321e-06	-1.215218e-09	-3.137180e+01	-7.924405e+01
7.300000e-07	-4.488653e-06	-1.189272e-09	-3.117962e+01	-7.899246e+01
7.400000e-07	-4.460841e-06	-1.207589e-09	-3.098643e+01	-7.873822e+01
7.500000e-07	-4.432843e-06	-1.200993e-09	-3.079194e+01	-7.848133e+01
7.600000e-07	-4.404564e-06	-1.183975e-09	-3.059551e+01	-7.822182e+01
7.700000e-07	-4.376011e-06	-1.182485e-09	-3.039717e+01	-7.795970e+01
7.800000e-07	-4.347164e-06	-1.187656e-09	-3.019679e+01	-7.769496e+01
7.900000e-07	-4.317916e-06	-1.161810e-09	-2.999362e+01	-7.742761e+01
8.000000e-07	-4.288327e-06	-1.165681e-09	-2.978809e+01	-7.715766e+01
8.100000e-07	-4.258488e-06	-1.170936e-09	-2.958082e+01	-7.688510e+01
8.200000e-07	-4.228467e-06	-1.152809e-09	-2.937228e+01	-7.660990e+01
8.300000e-07	-4.198232e-06	-1.139178e-09	-2.916226e+01	-7.633206e+01
8.400000e-07	-4.167638e-06	-1.149506e-09	-2.894974e+01	-7.605155e+01
8.500000e-07	-4.136651e-06	-1.142438e-09	-2.873450e+01	-7.576833e+01
8.600000e-07	-4.105376e-06	-1.129465e-09	-2.851725e+01	-7.548236e+01
8.700000e-07	-4.073892e-06	-1.137464e-09	-2.829855e+01	-7.519359e+01
8.800000e-07	-4.042188e-06	-1.136930e-09	-2.807833e+01	-7.490194e+01
8.900000e-07	-4.010367e-06	-1.121476e-09	-2.785729e+01	-7.460736e+01
9.000000e-07	-3.978464e-06	-1.115394e-09	-2.763568e+01	-7.430975e+01
9.100000e-07	-3.946250e-06	-1.116475e-09	-2.741191e+01	-7.400902e+01
9.200000e-07	-3.913621e-06	-1.098136e-09	-2.718526e+01	-7.370507e+01
9.300000e-07	-3.880557e-06	-1.090441e-09	-2.695559e+01	-7.339778e+01
9.400000e-07	-3.847062e-06	-1.090379e-09	-2.672292e+01	-7.308703e+01
9.500000e-07	-3.813193e-06	-1.083063e-09	-2.648766e+01	-7.277268e+01
9.600000e-07	-3.778853e-06	-1.067938e-09	-2.624912e+01	-7.245459e+01
9.700000e-07	-3.744125e-06	-1.071065e-09	-2.600789e+01	-7.213261e+01
9.800000e-07	-3.709144e-06	-1.062637e-09	-2.576489e+01	-7.180659e+01
9.900000e-07	-3.673895e-06	-1.052919e-09	-2.552005e+01	-7.147635e+01
1.000000e-06	-3.638378e-06	-1.046941e-09	-2.527334e+01	-7.114173e+01
1.010000e-06	-3.602654e-06	-1.049365e-09	-2.502518e+01	-7.080257e+01
1.020000e-06	-3.566779e-06	-1.038623e-09	-2.477599e+01	-7.045868e+01
1.030000e-06	-3.530791e-06	-1.034004e-09	-2.452600e+01	-7.010989e+01
1.040000e-06	-3.494653e-06	-1.028742e-09	-2.427497e+01	-6.975602e+01
1.050000e-06	-3.458295e-06	-1.024892e-09	-2.402242e+01	-6.939691e+01
1.060000e-06	-3.421717e-06	-1.015850e-09	-2.376833e+01	-6.903238e+01
1.070000e-06	-3.384830e-06	-1.012241e-09	-2.351211e+01	-6.866228e+01
1.080000e-06	-3.347647e-06	-1.001982e-09	-2.325382e+01	-6.828645e+01
1.090000e-06	-3.310186e-06	-9.928228e-10	-2.299360e+01	-6.790473e+01
1.100000e-06	-3.272511e-06	-9.862015e-10	-2.273191e+01	-6.751699e+01
1.110000e-06	-3.234678e-06	-9.811218e-10	-2.246910e+01	-6.712311e+01
1.120000e-06	-3.196579e-06	-9.731431e-10	-2.220446e+01	-6.672297e+01
1.130000e-06	-3.158184e-06	-9.673103e-10	-2.193775e+01	-6.631646e+01
1.140000e-06	-3.119595e-06	-9.601651e-10	-2.166970e+01	-6.590350e+01
1.150000e-06	-3.080855e-06	-9.507540e-10	-2.140060e+01	-6.548402e+01
1.160000e-06	-3.041950e-06	-9.426708e-10	-2.113036e+01	-6.505796e+01
1.170000e-06	-3.002789e-06	-9.351731e-10	-2.085833e+01	-6.462528e+01
1.180000e-06	-2.963363e-06	-9.266253e-10	-2.058447e+01	-6.418596e+01
1.190000e-06	-2.923809e-06	-9.197800e-10	-2.030971e+01	-6.373998e+01
1.200000e-06	-2.884060e-06	-9.145685e-10	-2.003360e+01	-6.328735e+01
1.210000e-06	-2.844149e-06	-9.056412e-10	-1.975636e+01	-6.282809e+01
1.220000e-06	-2.804146e-06	-8.978735e-10	-1.947849e+01	-6.236223e+01
1.230000e-06	-2.764027e-06	-8.910688e-10	-1.919981e+01	-6.188983e+01
1.240000e-06	-2.723735e-06	-8.828233e-10	-1.891993e+01	-6.141095e+01
1.250000e-06	-2.683270e-06	-8.691905e-10	-1.863885e+01	-6.092564e+01
1.260000e-06	-2.642560e-06	-8.624574e-10	-1.835607e+01	-6.043399e+01
1.270000e-06	-2.601529e-06	-8.542116e-10	-1.807105e+01	-5.993609e+01
1.280000e-06	-2.560320e-06	-8.478736e-10	-1.778480e+01	-5.943201e+01
1.290000e-06	-2.518979e-06	-8.424392e-10	-1.749763e+01	-5.892184e+01
1.300000e-06	-2.477356e-06	-8.369090e-10	-1.720850e+01	-5.840568e+01
1.310000e-06	-2.435299e-06	-8.244275e-10	-1.691636e+01	-5.788360e+01
1.320000e-06	-2.392905e-06	-8.145371e-10	-1.662188e+01	-5.735567e+01
1.330000e-06	-2.350239e-06	-8.063711e-10	-1.632551e+01	-5.682197e+01
1.340000e-06	-2.307343e-06	-7.996189e-10	-1.602754e+01	-5.628253e+01
1.350000e-06	-2.264281e-06	-7.933767e-10	-1.572842e+01	-5.573741e+01
1.360000e-06	-2.221029e-06	-7.885996e-10	-1.542798e+01	-5.518660e+01
1.370000e-06	-2.177580e-06	-7.793972e-10	-1.512617e+01	-5.463012e+01
1.380000e-06	-2.133994e-06	-7.705295e-10	-1.482340e+01	-5.406792e+01
1.390000e-06	-2.090319e-06	-7.589545e-10	-1.452002e+01	-5.349994e+01
1.400000e-06	-2.046572e-06	-7.487122e-10	-1.421614e+01	-5.292610e+01
1.410000e-06	-2.002746e-06	-7.365089e-10	-1.391171e+01	-5.234627e+01
1.420000e-06	-1.958861e-06	-7.266546e-10	-1.360687e+01	-5.176029e+01
1.430000e-06	-1.914887e-06	-7.205284e-10	-1.330142e+01	-5.116797e+01
1.440000e-06	-1.870745e-06	-7.132689e-10	-1.299479e+01	-5.056908e+01
1.450000e-06	-1.826507e-06	-7.040857e-10	-1.268750e+01	-4.996334e+01
1.460000e-06	-1.782133e-06	-6.932695e-10	-1.237927e+01	-4.935043e+01
1.470000e-06	-1.737670e-06	-6.802929e-10	-1.207041e+01	-4.873001e+01
1.480000e-06	-1.693127e-06	-6.666225e-10	-1.176100e+01	-4.810167e+01
1.490000e-06	-1.648425e-06	-6.577347e-10	-1.145049e+01	-4.746497e+01
1.500000e-06	-1.603527e-06	-6.523704e-10	-1.113861e+01	-4.681944e+01
1.510000e-06	-1.558412e-06	-6.451939e-10	-1.082523e+01	-4.616455e+01
1.520000e-06	-1.513207e-06	-6.354615e-10	-1.051122e+01	-4.549976e+01
1.530000e-06	-1.467942e-06	-6.244293e-10	-1.019679e+01	-4.482446e+01
1.540000e-06	-1.422571e-06	-6.119530e-10	-9.881635e+00	-4.413803e+01
1.550000e-06	-1.377077e-06	-6.010873e-10	-9.565614e+00	-4.343982e+01
1.560000e-06	-1.331519e-06	-5.887919e-10	-9.249157e+00	-4.272915e+01
1.570000e-06	-1.285961e-06	-5.755025e-10	-8.932695e+00	-4.200530e+01
1.580000e-06	-1.240316e-06	-5.614964e-10	-8.615630e+00	-4.126755e+01
1.590000e-06	-1.194557e-06	-5.490619e-10	-8.297773e+00	-4.051517e+01
1.600000e-06	-1.148727e-06	-5.358752e-10	-7.979424e+00	-3.974740e+01
1.610000e-06	-1.102763e-06	-5.230183e-10	-7.660144e+00	-3.896349e+01
1.620000e-06	-1.056652e-06	-5.094234e-10	-7.339844e+00	-3.816269e+01
1.630000e-06	-1.010458e-06	-4.972428e-10	-7.018965e+00	-3.734425e+01
1.640000e-06	-9.642837e-07	-4.829270e-10	-6.698222e+00	-3.650745e+01
1.650000e-06	-9.181127e-07	-4.672153e-10	-6.377504e+00	-3.565156e+01
1.660000e-06	-8.718246e-07	-4.515505e-10	-6.055972e+00	-3.477590e+01
1.670000e-06	-8.254204e-07	-4.366148e-10	-5.733633e+00	-3.387981e+01
1.680000e-06	-7.789242e-07	-4.210795e-10	-5.410656e+00	-3.296267e+01
1.690000e-06	-7.324829e-07	-4.080332e-10	-5.088060e+00	-3.202389e+01
1.700000e-06	-6.860705e-07	-3.949841e-10	-4.765664e+00	-3.106295e+01
1.710000e-06	-6.395656e-07	-3.802517e-10	-4.442627e+00	-3.007938e+01
1.720000e-06	-5.929070e-07	-3.629235e-10	-4.118521e+00	-2.907275e+01
1.730000e-06	-5.460924e-07	-3.449868e-10	-3.793332e+00	-2.804271e+01
1.740000e-06	-4.993040e-07	-3.264880e-10	-3.468325e+00	-2.698899e+01
1.750000e-06	-4.524743e-07	-3.076740e-10	-3.143031e+00	-2.591137e+01
1.760000e-06	-4.056027e-07	-2.917157e-10	-2.817445e+00	-2.480973e+01
1.770000e-06	-3.588108e-07	-2.774206e-10	-2.492414e+00	-2.368403e+01
1.780000e-06	-3.120718e-07	-2.624305e-10	-2.167750e+00	-2.253429e+01
1.790000e-06	-2.652383e-07	-2.473593e-10	-1.842430e+00	-2.136066e+01
1.800000e-06	-2.183086e-07	-2.313948e-10	-1.516441e+00	-2.016333e+01
1.810000e-06	-1.713610e-07	-2.123994e-10	-1.190328e+00	-1.894263e+01
1.820000e-06	-1.243867e-07	-1.934865e-10	-8.640300e-01	-1.769895e+01
1.830000e-06	-7.747874e-08	-1.745925e-10	-5.381920e-01	-1.643278e+01
1.840000e-06	-3.062243e-08	-1.556890e-10	-2.127132e-01	-1.514471e+01
1.850000e-06	1.619212e-08	-1.373825e-10	1.124756e-01	-1.383540e+01
1.860000e-06	6.299984e-08	-1.199728e-10	4.376170e-01	-1.250563e+01
1.870000e-06	1.098314e-07	-9.902531e-11	7.629238e-01	-1.115624e+01
1.880000e-06	1.566897e-07	-7.807453e-11	1.088417e+00	-9.788168e+00
1.890000e-06	2.035495e-07	-6.034823e-11	1.413920e+00	-8.402422e+00
1.900000e-06	2.504286e-07	-4.527310e-11	1.739557e+00	-7.000093e+00
1.910000e-06	2.972811e-07	-3.080625e-11	2.065009e+00	-5.582344e+00
1.920000e-06	3.441067e-07	-1.345667e-11	2.390275e+00	-4.150400e+00
1.930000e-06	3.909675e-07	9.018302e-12	2.715785e+00	-2.705550e+00
1.940000e-06	4.377131e-07	3.242213e-11	3.040495e+00	-1.249137e+00
1.950000e-06	4.843945e-07	5.556298e-11	3.364759e+00	2.174469e-01
1.960000e-06	5.310166e-07	7.760512e-11	3.688611e+00	1.692770e+00
1.970000e-06	5.774829e-07	9.710001e-11	4.011381e+00	3.175364e+00
1.980000e-06	6.239428e-07	1.150091e-10	4.334106e+00	4.663734e+00
1.990000e-06	6.703931e-07	1.323219e-10	4.656764e+00	6.156364e+00
2.000000e-06	7.167625e-07	1.479826e-10	4.978861e+00	7.651726e+00
2.010000e-06	7.630627e-07	1.661376e-10	5.300477e+00	9.148287e+00
2.020000e-06	8.093432e-07	1.854788e-10	5.621956e+00	1.064452e+01
2.030000e-06	8.556549e-07	2.082454e-10	5.943652e+00	1.213889e+01
2.040000e-06	9.018971e-07	2.333699e-10	6.264865e+00	1.362991e+01
2.050000e-06	9.479955e-07	2.554064e-10	6.585079e+00	1.511609e+01
2.060000e-06	9.940516e-07	2.767835e-10	6.905000e+00	1.659598e+01
2.070000e-06	1.040146e-06	2.965015e-10	7.225186e+00	1.806817e+01
2.080000e-06	1.086200e-06	3.155139e-10	7.545094e+00	1.953129e+01
2.090000e-06	1.132150e-06	3.333865e-10	7.864277e+00	2.098403e+01
2.100000e-06	1.177983e-06	3.533119e-10	8.182644e+00	2.242512e+01
2.110000e-06	1.223675e-06	3.733116e-10	8.500039e+00	2.385335e+01
2.120000e-06	1.269232e-06	3.934320e-10	8.816490e+00	2.526759e+01
2.130000e-06	1.314760e-06	4.131531e-10	9.132745e+00	2.666678e+01
2.140000e-06	1.360252e-06	4.320399e-10	9.448743e+00	2.804990e+01
2.150000e-06	1.405632e-06	4.485753e-10	9.763967e+00	2.941603e+01
2.160000e-06	1.450892e-06	4.643104e-10	1.007836e+01	3.076433e+01
2.170000e-06	1.496008e-06	4.821494e-10	1.039175e+01	3.209403e+01
2.180000e-06	1.540996e-06	5.014137e-10	1.070425e+01	3.340444e+01
2.190000e-06	1.585862e-06	5.209588e-10	1.101591e+01	3.469494e+01
2.200000e-06	1.630612e-06	5.407189e-10	1.132675e+01	3.596502e+01
2.210000e-06	1.675248e-06	5.581377e-10	1.163681e+01	3.721421e+01
2.220000e-06	1.719774e-06	5.721696e-10	1.194610e+01	3.844216e+01
2.230000e-06	1.764177e-06	5.845267e-10	1.225454e+01	3.964855e+01
2.240000e-06	1.808432e-06	5.996055e-10	1.256194e+01	4.083317e+01
2.250000e-06	1.852577e-06	6.178402e-10	1.286859e+01	4.199587e+01
2.260000e-06	1.896660e-06	6.382166e-10	1.317481e+01	4.313657e+01
2.270000e-06	1.940637e-06	6.578786e-10	1.348028e+01	4.425525e+01
2.280000e-06	1.984495e-06	6.755671e-10	1.378494e+01	4.535196e+01
2.290000e-06	2.028312e-06	6.907327e-10	1.408930e+01	4.642679e+01
2.300000e-06	2.072063e-06	7.025342e-10	1.439321e+01	4.747990e+01
2.310000e-06	2.115716e-06	7.120702e-10	1.469644e+01	4.851150e+01
2.320000e-06	2.159285e-06	7.232046e-10	1.499908e+01	4.952182e+01
2.330000e-06	2.202768e-06	7.393642e-10	1.530113e+01	5.051116e+01
2.340000e-06	2.246077e-06	7.560969e-10	1.560197e+01	5.147983e+01
2.350000e-06	2.289244e-06	7.707943e-10	1.590182e+01	5.242818e+01
2.360000e-06	2.332257e-06	7.841878e-10	1.620060e+01	5.335658e+01
2.370000e-06	2.375016e-06	7.976170e-10	1.649762e+01	5.426543e+01
2.380000e-06	2.417504e-06	8.091055e-10	1.679275e+01	5.515512e+01
2.390000e-06	2.459708e-06	8.217212e-10	1.708592e+01	5.602607e+01
2.400000e-06	2.501633e-06	8.359385e-10	1.737714e+01	5.687870e+01
2.410000e-06	2.543237e-06	8.496183e-10	1.766614e+01	5.771345e+01
2.420000e-06	2.584560e-06	8.613198e-10	1.795318e+01	5.853072e+01
2.430000e-06	2.625578e-06	8.726923e-10	1.823810e+01	5.933093e+01
2.440000e-06	2.666284e-06	8.835583e-10	1.852086e+01	6.011450e+01
2.450000e-06	2.706691e-06	8.926279e-10	1.880154e+01	6.088182e+01
2.460000e-06	2.746893e-06	9.011419e-10	1.908079e+01	6.163328e+01
2.470000e-06	2.786938e-06	9.126122e-10	1.935896e+01	6.236923e+01
2.480000e-06	2.826841e-06	9.248853e-10	1.963614e+01	6.309004e+01
2.490000e-06	2.866664e-06	9.349499e-10	1.991276e+01	6.379602e+01
2.500000e-06	2.906368e-06	9.444419e-10	2.018856e+01	6.448750e+01
2.510000e-06	2.945870e-06	9.550777e-10	2.046295e+01	6.516477e+01
2.520000e-06	2.985151e-06	9.651408e-10	2.073581e+01	6.582809e+01
2.530000e-06	3.024296e-06	9.739600e-10	2.100772e+01	6.647772e+01
2.540000e-06	3.063241e-06	9.835933e-10	2.127825e+01	6.711389e+01
2.550000e-06	3.102026e-06	9.935853e-10	2.154767e+01	6.773680e+01
2.560000e-06	3.140597e-06	1.002029e-09	2.181559e+01	6.834666e+01
2.570000e-06	3.178871e-06	1.010036e-09	2.208145e+01	6.894364e+01
2.580000e-06	3.216931e-06	1.018235e-09	2.234583e+01	6.952790e+01
2.590000e-06	3.254804e-06	1.027215e-09	2.260891e+01	7.009958e+01
2.600000e-06	3.292523e-06	1.035167e-09	2.287091e+01	7.065883e+01
2.610000e-06	3.329996e-06	1.041592e-09	2.313121e+01	7.120577e+01
2.620000e-06	3.367216e-06	1.048467e-09	2.338976e+01	7.174051e+01
2.630000e-06	3.404232e-06	1.056120e-09	2.364688e+01	7.226318e+01
2.640000e-06	3.440983e-06	1.063005e-09	2.390216e+01	7.277387e+01
2.650000e-06	3.477439e-06	1.069029e-09	2.415540e+01	7.327269e+01
2.660000e-06	3.513691e-06	1.078030e-09	2.440722e+01	7.375976e+01
2.670000e-06	3.549791e-06	1.087032e-09	2.465798e+01	7.423518e+01
2.680000e-06	3.585660e-06	1.094532e-09	2.490714e+01	7.469906e+01
2.690000e-06	3.621371e-06	1.100983e-09	2.515520e+01	7.515154e+01
2.700000e-06	3.656999e-06	1.104387e-09	2.540268e+01	7.559273e+01
2.710000e-06	3.692478e-06	1.107567e-09	2.564913e+01	7.602278e+01
2.720000e-06	3.727710e-06	1.114102e-09	2.589386e+01	7.644183e+01
2.730000e-06	3.762628e-06	1.119048e-09	2.613642e+01	7.685005e+01
2.740000e-06	3.797216e-06	1.122905e-09	2.637668e+01	7.724761e+01
2.750000e-06	3.831383e-06	1.128429e-09	2.661401e+01	7.763470e+01
2.760000e-06	3.865034e-06	1.134964e-09	2.684776e+01	7.801151e+01
2.770000e-06	3.898145e-06	1.139137e-09	2.707776e+01	7.837826e+01
2.780000e-06	3.930843e-06	1.143114e-09	2.730489e+01	7.873519e+01
2.790000e-06	3.963283e-06	1.148792e-09	2.753023e+01	7.908252e+01
2.800000e-06	3.995425e-06	1.152812e-09	2.775350e+01	7.942051e+01
2.810000e-06	4.027298e-06	1.155587e-09	2.797490e+01	7.974943e+01
2.820000e-06	4.059057e-06	1.157455e-09	2.819551e+01	8.006955e+01
2.830000e-06	4.090669e-06	1.158873e-09	2.841509e+01	8.038115e+01
2.840000e-06	4.121993e-06	1.161747e-09	2.863268e+01	8.068452e+01
2.850000e-06	4.153126e-06	1.165418e-09	2.884894e+01	8.097997e+01
2.860000e-06	4.184029e-06	1.170792e-09	2.906360e+01	8.126780e+01
2.870000e-06	4.214507e-06	1.177821e-09	2.927531e+01	8.154831e+01
2.880000e-06	4.244594e-06	1.184337e-09	2.948431e+01	8.182180e+01
2.890000e-06	4.274460e-06	1.189223e-09	2.969176e+01	8.208858e+01
2.900000e-06	4.304160e-06	1.191698e-09	2.989807e+01	8.234895e+01
