# Temperatura_=_-13.23
# Concentracion g/m^3_=_1620.0
# C_Vs_to_Am_M_A/Vsm_=_65563218390.804596
# pendiente_HvsI_1/m_=_3716.3
# ordenada_HvsI_A/m_=_1297.0
# frecuencia_Hz_=_135103.58022947778

Tiempo_(s)	Campo_(V.s)	Magnetizacion_(V.s)	Campo_(kA/m)	Magnetizacion_(A/m)
0.000000e+00	-5.513482e-06	-8.268650e-10	-3.836307e+01	-5.296437e+01
1.000000e-08	-5.513774e-06	-8.258042e-10	-3.836510e+01	-5.294036e+01
2.000000e-08	-5.513842e-06	-8.255491e-10	-3.836557e+01	-5.291570e+01
3.000000e-08	-5.513699e-06	-8.287179e-10	-3.836458e+01	-5.289040e+01
4.000000e-08	-5.513157e-06	-8.322462e-10	-3.836081e+01	-5.286450e+01
5.000000e-08	-5.511928e-06	-8.305396e-10	-3.835226e+01	-5.283803e+01
6.000000e-08	-5.510004e-06	-8.249773e-10	-3.833887e+01	-5.281105e+01
7.000000e-08	-5.507534e-06	-8.178042e-10	-3.832169e+01	-5.278359e+01
8.000000e-08	-5.504601e-06	-8.393854e-10	-3.830128e+01	-5.275570e+01
9.000000e-08	-5.501173e-06	-8.630036e-10	-3.827742e+01	-5.272743e+01
1.000000e-07	-5.497280e-06	-8.142950e-10	-3.825034e+01	-5.269884e+01
1.100000e-07	-5.493043e-06	-7.531907e-10	-3.822085e+01	-5.266999e+01
1.200000e-07	-5.488658e-06	-8.254017e-10	-3.819034e+01	-5.264092e+01
1.300000e-07	-5.484065e-06	-8.872337e-10	-3.815839e+01	-5.261171e+01
1.400000e-07	-5.478988e-06	-8.583940e-10	-3.812306e+01	-5.258240e+01
1.500000e-07	-5.473464e-06	-7.469607e-10	-3.808462e+01	-5.255305e+01
1.600000e-07	-5.467613e-06	-8.120504e-10	-3.804391e+01	-5.252374e+01
1.700000e-07	-5.461448e-06	-8.978373e-10	-3.800102e+01	-5.249450e+01
1.800000e-07	-5.454813e-06	-8.571714e-10	-3.795485e+01	-5.246538e+01
1.900000e-07	-5.447732e-06	-7.584917e-10	-3.790558e+01	-5.243645e+01
2.000000e-07	-5.440391e-06	-7.812109e-10	-3.785450e+01	-5.240773e+01
2.100000e-07	-5.432745e-06	-8.572907e-10	-3.780130e+01	-5.237927e+01
2.200000e-07	-5.424760e-06	-8.330156e-10	-3.774574e+01	-5.235110e+01
2.300000e-07	-5.416615e-06	-7.752720e-10	-3.768907e+01	-5.232323e+01
2.400000e-07	-5.408209e-06	-7.679453e-10	-3.763058e+01	-5.229568e+01
2.500000e-07	-5.399187e-06	-8.163160e-10	-3.756780e+01	-5.226846e+01
2.600000e-07	-5.389439e-06	-7.964296e-10	-3.749997e+01	-5.224157e+01
2.700000e-07	-5.379046e-06	-7.768407e-10	-3.742766e+01	-5.221499e+01
2.800000e-07	-5.368064e-06	-7.635429e-10	-3.735125e+01	-5.218869e+01
2.900000e-07	-5.356615e-06	-7.929886e-10	-3.727158e+01	-5.216265e+01
3.000000e-07	-5.344890e-06	-7.721258e-10	-3.719000e+01	-5.213682e+01
3.100000e-07	-5.332817e-06	-7.685366e-10	-3.710600e+01	-5.211115e+01
3.200000e-07	-5.320205e-06	-7.605767e-10	-3.701824e+01	-5.208557e+01
3.300000e-07	-5.307158e-06	-7.960388e-10	-3.692746e+01	-5.206001e+01
3.400000e-07	-5.293819e-06	-7.844802e-10	-3.683464e+01	-5.203439e+01
3.500000e-07	-5.280085e-06	-7.596763e-10	-3.673908e+01	-5.200861e+01
3.600000e-07	-5.265938e-06	-7.543473e-10	-3.664065e+01	-5.198256e+01
3.700000e-07	-5.251407e-06	-7.899227e-10	-3.653954e+01	-5.195616e+01
3.800000e-07	-5.236344e-06	-7.614751e-10	-3.643473e+01	-5.192927e+01
3.900000e-07	-5.220629e-06	-7.501343e-10	-3.632539e+01	-5.190178e+01
4.000000e-07	-5.204427e-06	-7.939869e-10	-3.621265e+01	-5.187357e+01
4.100000e-07	-5.187861e-06	-7.934525e-10	-3.609739e+01	-5.184450e+01
4.200000e-07	-5.170911e-06	-7.328674e-10	-3.597945e+01	-5.181445e+01
4.300000e-07	-5.153650e-06	-7.636175e-10	-3.585934e+01	-5.178329e+01
4.400000e-07	-5.136178e-06	-8.140059e-10	-3.573777e+01	-5.175088e+01
4.500000e-07	-5.118425e-06	-7.414131e-10	-3.561424e+01	-5.171711e+01
4.600000e-07	-5.100165e-06	-7.225181e-10	-3.548719e+01	-5.168184e+01
4.700000e-07	-5.081408e-06	-8.033624e-10	-3.535668e+01	-5.164496e+01
4.800000e-07	-5.062310e-06	-7.903620e-10	-3.522379e+01	-5.160635e+01
4.900000e-07	-5.042916e-06	-7.182632e-10	-3.508885e+01	-5.156591e+01
5.000000e-07	-5.023306e-06	-7.794644e-10	-3.495241e+01	-5.152355e+01
5.100000e-07	-5.003528e-06	-7.921559e-10	-3.481479e+01	-5.147918e+01
5.200000e-07	-4.983520e-06	-7.146808e-10	-3.467557e+01	-5.143271e+01
5.300000e-07	-4.963176e-06	-7.389034e-10	-3.453401e+01	-5.138410e+01
5.400000e-07	-4.942468e-06	-8.117554e-10	-3.438992e+01	-5.133328e+01
5.500000e-07	-4.921335e-06	-7.391889e-10	-3.424288e+01	-5.128022e+01
5.600000e-07	-4.899817e-06	-7.197920e-10	-3.409316e+01	-5.122490e+01
5.700000e-07	-4.878090e-06	-7.931640e-10	-3.394198e+01	-5.116730e+01
5.800000e-07	-4.856074e-06	-7.711882e-10	-3.378880e+01	-5.110743e+01
5.900000e-07	-4.833565e-06	-7.064779e-10	-3.363217e+01	-5.104532e+01
6.000000e-07	-4.810650e-06	-7.639990e-10	-3.347274e+01	-5.098098e+01
6.100000e-07	-4.787412e-06	-7.804939e-10	-3.331104e+01	-5.091448e+01
6.200000e-07	-4.763847e-06	-7.315892e-10	-3.314707e+01	-5.084586e+01
6.300000e-07	-4.740117e-06	-7.495124e-10	-3.298196e+01	-5.077520e+01
6.400000e-07	-4.716225e-06	-7.845985e-10	-3.281572e+01	-5.070258e+01
6.500000e-07	-4.692002e-06	-7.433143e-10	-3.264717e+01	-5.062810e+01
6.600000e-07	-4.667325e-06	-7.415006e-10	-3.247547e+01	-5.055185e+01
6.700000e-07	-4.642111e-06	-7.694870e-10	-3.230003e+01	-5.047394e+01
6.800000e-07	-4.616352e-06	-7.477664e-10	-3.212080e+01	-5.039449e+01
6.900000e-07	-4.590176e-06	-7.297183e-10	-3.193866e+01	-5.031362e+01
7.000000e-07	-4.563626e-06	-7.534446e-10	-3.175393e+01	-5.023144e+01
7.100000e-07	-4.536619e-06	-7.496177e-10	-3.156601e+01	-5.014807e+01
7.200000e-07	-4.509250e-06	-7.310879e-10	-3.137558e+01	-5.006364e+01
7.300000e-07	-4.481671e-06	-7.436290e-10	-3.118368e+01	-4.997826e+01
7.400000e-07	-4.453927e-06	-7.478716e-10	-3.099063e+01	-4.989203e+01
7.500000e-07	-4.425950e-06	-7.329771e-10	-3.079597e+01	-4.980506e+01
7.600000e-07	-4.397711e-06	-7.303491e-10	-3.059948e+01	-4.971745e+01
7.700000e-07	-4.369233e-06	-7.376873e-10	-3.040133e+01	-4.962926e+01
7.800000e-07	-4.340386e-06	-7.284030e-10	-3.020061e+01	-4.954057e+01
7.900000e-07	-4.311158e-06	-7.298047e-10	-2.999725e+01	-4.945143e+01
8.000000e-07	-4.281631e-06	-7.350626e-10	-2.979179e+01	-4.936187e+01
8.100000e-07	-4.251846e-06	-7.286448e-10	-2.958455e+01	-4.927192e+01
8.200000e-07	-4.221863e-06	-7.177661e-10	-2.937593e+01	-4.918155e+01
8.300000e-07	-4.191576e-06	-7.240762e-10	-2.916519e+01	-4.909077e+01
8.400000e-07	-4.160911e-06	-7.164711e-10	-2.895182e+01	-4.899951e+01
8.500000e-07	-4.129914e-06	-7.088751e-10	-2.873614e+01	-4.890772e+01
8.600000e-07	-4.098707e-06	-7.133508e-10	-2.851900e+01	-4.881530e+01
8.700000e-07	-4.067244e-06	-7.199908e-10	-2.830008e+01	-4.872214e+01
8.800000e-07	-4.035549e-06	-7.104205e-10	-2.807954e+01	-4.862812e+01
8.900000e-07	-4.003805e-06	-7.120610e-10	-2.785866e+01	-4.853307e+01
9.000000e-07	-3.971917e-06	-7.127278e-10	-2.763679e+01	-4.843681e+01
9.100000e-07	-3.939753e-06	-6.998173e-10	-2.741299e+01	-4.833916e+01
9.200000e-07	-3.907298e-06	-6.915269e-10	-2.718717e+01	-4.823988e+01
9.300000e-07	-3.874460e-06	-6.984815e-10	-2.695868e+01	-4.813876e+01
9.400000e-07	-3.841110e-06	-6.947367e-10	-2.672663e+01	-4.803553e+01
9.500000e-07	-3.807377e-06	-6.894517e-10	-2.649191e+01	-4.792993e+01
9.600000e-07	-3.773228e-06	-6.953133e-10	-2.625430e+01	-4.782169e+01
9.700000e-07	-3.738669e-06	-6.956771e-10	-2.601384e+01	-4.771050e+01
9.800000e-07	-3.703772e-06	-6.832391e-10	-2.577102e+01	-4.759609e+01
9.900000e-07	-3.668542e-06	-6.810132e-10	-2.552589e+01	-4.747813e+01
1.000000e-06	-3.633112e-06	-6.824566e-10	-2.527937e+01	-4.735634e+01
1.010000e-06	-3.597489e-06	-6.737378e-10	-2.503150e+01	-4.723040e+01
1.020000e-06	-3.561664e-06	-6.713176e-10	-2.478223e+01	-4.710001e+01
1.030000e-06	-3.525736e-06	-6.765796e-10	-2.453224e+01	-4.696487e+01
1.040000e-06	-3.489672e-06	-6.744350e-10	-2.428131e+01	-4.682469e+01
1.050000e-06	-3.453356e-06	-6.700134e-10	-2.402861e+01	-4.667920e+01
1.060000e-06	-3.416769e-06	-6.733326e-10	-2.377404e+01	-4.652813e+01
1.070000e-06	-3.379889e-06	-6.687312e-10	-2.351743e+01	-4.637124e+01
1.080000e-06	-3.342727e-06	-6.566278e-10	-2.325885e+01	-4.620828e+01
1.090000e-06	-3.305328e-06	-6.511419e-10	-2.299863e+01	-4.603906e+01
1.100000e-06	-3.267734e-06	-6.510871e-10	-2.273705e+01	-4.586338e+01
1.110000e-06	-3.229936e-06	-6.448963e-10	-2.247405e+01	-4.568108e+01
1.120000e-06	-3.191920e-06	-6.451634e-10	-2.220953e+01	-4.549203e+01
1.130000e-06	-3.153660e-06	-6.484945e-10	-2.194331e+01	-4.529612e+01
1.140000e-06	-3.115160e-06	-6.478902e-10	-2.167543e+01	-4.509328e+01
1.150000e-06	-3.076469e-06	-6.419147e-10	-2.140622e+01	-4.488344e+01
1.160000e-06	-3.037534e-06	-6.405310e-10	-2.113531e+01	-4.466658e+01
1.170000e-06	-2.998329e-06	-6.363370e-10	-2.086252e+01	-4.444273e+01
1.180000e-06	-2.958911e-06	-6.290543e-10	-2.058824e+01	-4.421191e+01
1.190000e-06	-2.919353e-06	-6.254814e-10	-2.031300e+01	-4.397420e+01
1.200000e-06	-2.879699e-06	-6.246847e-10	-2.003708e+01	-4.372968e+01
1.210000e-06	-2.839964e-06	-6.200634e-10	-1.976060e+01	-4.347849e+01
1.220000e-06	-2.800106e-06	-6.192880e-10	-1.948327e+01	-4.322076e+01
1.230000e-06	-2.760113e-06	-6.197786e-10	-1.920500e+01	-4.295667e+01
1.240000e-06	-2.720013e-06	-6.143035e-10	-1.892598e+01	-4.268641e+01
1.250000e-06	-2.679719e-06	-6.063102e-10	-1.864561e+01	-4.241018e+01
1.260000e-06	-2.639175e-06	-6.020877e-10	-1.836351e+01	-4.212821e+01
1.270000e-06	-2.598368e-06	-5.972515e-10	-1.807957e+01	-4.184074e+01
1.280000e-06	-2.557256e-06	-5.909616e-10	-1.779351e+01	-4.154801e+01
1.290000e-06	-2.515838e-06	-5.872482e-10	-1.750532e+01	-4.125027e+01
1.300000e-06	-2.474034e-06	-5.862356e-10	-1.721445e+01	-4.094777e+01
1.310000e-06	-2.431977e-06	-5.828407e-10	-1.692181e+01	-4.064076e+01
1.320000e-06	-2.389643e-06	-5.754186e-10	-1.662725e+01	-4.032950e+01
1.330000e-06	-2.346900e-06	-5.691551e-10	-1.632984e+01	-4.001421e+01
1.340000e-06	-2.303950e-06	-5.625478e-10	-1.603099e+01	-3.969511e+01
1.350000e-06	-2.260863e-06	-5.577123e-10	-1.573120e+01	-3.937242e+01
1.360000e-06	-2.217563e-06	-5.560066e-10	-1.542991e+01	-3.904631e+01
1.370000e-06	-2.174067e-06	-5.559558e-10	-1.512726e+01	-3.871695e+01
1.380000e-06	-2.130464e-06	-5.538354e-10	-1.482387e+01	-3.838448e+01
1.390000e-06	-2.086782e-06	-5.489785e-10	-1.451993e+01	-3.804898e+01
1.400000e-06	-2.043042e-06	-5.400115e-10	-1.421558e+01	-3.771054e+01
1.410000e-06	-1.999198e-06	-5.290581e-10	-1.391051e+01	-3.736918e+01
1.420000e-06	-1.955261e-06	-5.201351e-10	-1.360480e+01	-3.702490e+01
1.430000e-06	-1.911316e-06	-5.163931e-10	-1.329903e+01	-3.667765e+01
1.440000e-06	-1.867375e-06	-5.149229e-10	-1.299328e+01	-3.632735e+01
1.450000e-06	-1.823305e-06	-5.137295e-10	-1.268664e+01	-3.597386e+01
1.460000e-06	-1.779052e-06	-5.124895e-10	-1.237873e+01	-3.561701e+01
1.470000e-06	-1.734681e-06	-5.087707e-10	-1.206999e+01	-3.525659e+01
1.480000e-06	-1.690228e-06	-4.984935e-10	-1.176069e+01	-3.489232e+01
1.490000e-06	-1.645638e-06	-4.861716e-10	-1.145043e+01	-3.452390e+01
1.500000e-06	-1.600891e-06	-4.773818e-10	-1.113908e+01	-3.415098e+01
1.510000e-06	-1.556057e-06	-4.735725e-10	-1.082712e+01	-3.377316e+01
1.520000e-06	-1.511086e-06	-4.694235e-10	-1.051421e+01	-3.339003e+01
1.530000e-06	-1.465964e-06	-4.655927e-10	-1.020025e+01	-3.300112e+01
1.540000e-06	-1.420723e-06	-4.627743e-10	-9.885461e+00	-3.260591e+01
1.550000e-06	-1.375373e-06	-4.587735e-10	-9.569909e+00	-3.220389e+01
1.560000e-06	-1.329903e-06	-4.505794e-10	-9.253528e+00	-3.179449e+01
1.570000e-06	-1.284270e-06	-4.402705e-10	-8.936012e+00	-3.137712e+01
1.580000e-06	-1.238583e-06	-4.298004e-10	-8.618123e+00	-3.095120e+01
1.590000e-06	-1.192944e-06	-4.201192e-10	-8.300564e+00	-3.051610e+01
1.600000e-06	-1.147247e-06	-4.138043e-10	-7.982597e+00	-3.007119e+01
1.610000e-06	-1.101471e-06	-4.100591e-10	-7.664086e+00	-2.961584e+01
1.620000e-06	-1.055634e-06	-4.033454e-10	-7.345154e+00	-2.914943e+01
1.630000e-06	-1.009662e-06	-3.925294e-10	-7.025279e+00	-2.867132e+01
1.640000e-06	-9.635528e-07	-3.828320e-10	-6.704446e+00	-2.818090e+01
1.650000e-06	-9.173491e-07	-3.749043e-10	-6.382959e+00	-2.767756e+01
1.660000e-06	-8.710923e-07	-3.670444e-10	-6.061101e+00	-2.716074e+01
1.670000e-06	-8.248502e-07	-3.584747e-10	-5.739347e+00	-2.662988e+01
1.680000e-06	-7.785624e-07	-3.500421e-10	-5.417275e+00	-2.608445e+01
1.690000e-06	-7.321950e-07	-3.414034e-10	-5.094648e+00	-2.552398e+01
1.700000e-06	-6.858073e-07	-3.332993e-10	-4.771880e+00	-2.494801e+01
1.710000e-06	-6.393471e-07	-3.240146e-10	-4.448607e+00	-2.435615e+01
1.720000e-06	-5.927840e-07	-3.152137e-10	-4.124619e+00	-2.374806e+01
1.730000e-06	-5.461894e-07	-3.062129e-10	-3.800412e+00	-2.312343e+01
1.740000e-06	-4.995650e-07	-2.955230e-10	-3.475997e+00	-2.248203e+01
1.750000e-06	-4.529315e-07	-2.849950e-10	-3.151519e+00	-2.182368e+01
1.760000e-06	-4.063389e-07	-2.746924e-10	-2.827326e+00	-2.114827e+01
1.770000e-06	-3.596338e-07	-2.635725e-10	-2.502349e+00	-2.045574e+01
1.780000e-06	-3.127946e-07	-2.515540e-10	-2.176440e+00	-1.974612e+01
1.790000e-06	-2.659997e-07	-2.397862e-10	-1.850838e+00	-1.901948e+01
1.800000e-06	-2.192336e-07	-2.309689e-10	-1.525438e+00	-1.827598e+01
1.810000e-06	-1.723839e-07	-2.211871e-10	-1.199455e+00	-1.751584e+01
1.820000e-06	-1.255722e-07	-2.091671e-10	-8.737375e-01	-1.673935e+01
1.830000e-06	-7.882641e-08	-1.958332e-10	-5.484779e-01	-1.594686e+01
1.840000e-06	-3.208173e-08	-1.827324e-10	-2.232262e-01	-1.513880e+01
1.850000e-06	1.465166e-08	-1.708227e-10	1.019469e-01	-1.431566e+01
1.860000e-06	6.144686e-08	-1.612082e-10	4.275502e-01	-1.347798e+01
1.870000e-06	1.081827e-07	-1.495467e-10	7.527406e-01	-1.262637e+01
1.880000e-06	1.548772e-07	-1.370743e-10	1.077643e+00	-1.176150e+01
1.890000e-06	2.016295e-07	-1.267617e-10	1.402948e+00	-1.088409e+01
1.900000e-06	2.483956e-07	-1.161814e-10	1.728349e+00	-9.994892e+00
1.910000e-06	2.951415e-07	-1.050935e-10	2.053609e+00	-9.094724e+00
1.920000e-06	3.418502e-07	-9.242098e-11	2.378610e+00	-8.184434e+00
1.930000e-06	3.885435e-07	-7.855327e-11	2.703504e+00	-7.264908e+00
1.940000e-06	4.352017e-07	-6.532689e-11	3.028154e+00	-6.337059e+00
1.950000e-06	4.817744e-07	-5.349841e-11	3.352209e+00	-5.401826e+00
1.960000e-06	5.283032e-07	-4.235196e-11	3.675959e+00	-4.460170e+00
1.970000e-06	5.748633e-07	-3.172688e-11	3.999926e+00	-3.513062e+00
1.980000e-06	6.213538e-07	-1.919045e-11	4.323409e+00	-2.561484e+00
1.990000e-06	6.677230e-07	-6.326442e-12	4.646049e+00	-1.606422e+00
2.000000e-06	7.140341e-07	5.073192e-12	4.968283e+00	-6.488606e-01
2.010000e-06	7.602866e-07	1.998945e-11	5.290110e+00	3.102248e-01
2.020000e-06	8.065243e-07	3.427023e-11	5.611835e+00	1.269869e+00
2.030000e-06	8.527197e-07	4.739748e-11	5.933265e+00	2.229124e+00
2.040000e-06	8.988650e-07	6.370778e-11	6.254346e+00	3.187062e+00
2.050000e-06	9.449981e-07	7.856473e-11	6.575342e+00	4.142783e+00
2.060000e-06	9.910362e-07	9.195441e-11	6.895677e+00	5.095414e+00
2.070000e-06	1.036942e-06	1.044611e-10	7.215094e+00	6.044117e+00
2.080000e-06	1.082764e-06	1.167914e-10	7.533925e+00	6.988091e+00
2.090000e-06	1.128556e-06	1.289312e-10	7.852549e+00	7.926572e+00
2.100000e-06	1.174307e-06	1.431228e-10	8.170885e+00	8.858840e+00
2.110000e-06	1.219956e-06	1.570966e-10	8.488515e+00	9.784218e+00
2.120000e-06	1.265478e-06	1.706561e-10	8.805256e+00	1.070208e+01
2.130000e-06	1.310918e-06	1.850422e-10	9.121433e+00	1.161183e+01
2.140000e-06	1.356331e-06	1.990697e-10	9.437417e+00	1.251295e+01
2.150000e-06	1.401669e-06	2.115756e-10	9.752878e+00	1.340494e+01
2.160000e-06	1.446898e-06	2.228880e-10	1.006759e+01	1.428736e+01
2.170000e-06	1.492002e-06	2.337644e-10	1.038142e+01	1.515983e+01
2.180000e-06	1.536944e-06	2.443267e-10	1.069413e+01	1.602200e+01
2.190000e-06	1.581804e-06	2.551134e-10	1.100626e+01	1.687358e+01
2.200000e-06	1.626521e-06	2.703274e-10	1.131741e+01	1.771431e+01
2.210000e-06	1.670989e-06	2.841792e-10	1.162682e+01	1.854398e+01
2.220000e-06	1.715332e-06	2.958903e-10	1.193536e+01	1.936243e+01
2.230000e-06	1.759636e-06	3.061608e-10	1.224363e+01	2.016953e+01
2.240000e-06	1.803821e-06	3.164135e-10	1.255107e+01	2.096518e+01
2.250000e-06	1.847875e-06	3.269712e-10	1.285760e+01	2.174932e+01
2.260000e-06	1.891821e-06	3.385572e-10	1.316338e+01	2.252193e+01
2.270000e-06	1.935663e-06	3.505408e-10	1.346843e+01	2.328300e+01
2.280000e-06	1.979436e-06	3.616575e-10	1.377301e+01	2.403255e+01
2.290000e-06	2.023156e-06	3.734863e-10	1.407722e+01	2.477063e+01
2.300000e-06	2.066833e-06	3.857910e-10	1.438112e+01	2.549731e+01
2.310000e-06	2.110487e-06	3.962932e-10	1.468487e+01	2.621265e+01
2.320000e-06	2.154097e-06	4.041025e-10	1.498831e+01	2.691675e+01
2.330000e-06	2.197634e-06	4.126817e-10	1.529124e+01	2.760970e+01
2.340000e-06	2.241066e-06	4.212119e-10	1.559344e+01	2.829162e+01
2.350000e-06	2.284228e-06	4.315601e-10	1.589377e+01	2.896259e+01
2.360000e-06	2.327135e-06	4.407852e-10	1.619231e+01	2.962275e+01
2.370000e-06	2.369914e-06	4.499373e-10	1.648998e+01	3.027218e+01
2.380000e-06	2.412471e-06	4.607081e-10	1.678609e+01	3.091099e+01
2.390000e-06	2.454710e-06	4.733278e-10	1.707999e+01	3.153928e+01
2.400000e-06	2.496619e-06	4.834653e-10	1.737159e+01	3.215714e+01
2.410000e-06	2.538094e-06	4.916759e-10	1.766018e+01	3.276464e+01
2.420000e-06	2.579149e-06	5.004863e-10	1.794584e+01	3.336187e+01
2.430000e-06	2.619900e-06	5.089299e-10	1.822939e+01	3.394887e+01
2.440000e-06	2.660391e-06	5.149840e-10	1.851113e+01	3.452570e+01
2.450000e-06	2.700667e-06	5.208300e-10	1.879137e+01	3.509239e+01
2.460000e-06	2.740752e-06	5.270913e-10	1.907029e+01	3.564897e+01
2.470000e-06	2.780695e-06	5.341645e-10	1.934821e+01	3.619545e+01
2.480000e-06	2.820505e-06	5.412327e-10	1.962521e+01	3.673184e+01
2.490000e-06	2.860189e-06	5.494338e-10	1.990133e+01	3.725812e+01
2.500000e-06	2.899834e-06	5.580768e-10	2.017718e+01	3.777427e+01
2.510000e-06	2.939363e-06	5.666222e-10	2.045223e+01	3.828027e+01
2.520000e-06	2.978664e-06	5.745438e-10	2.072569e+01	3.877609e+01
2.530000e-06	3.017767e-06	5.805942e-10	2.099777e+01	3.926167e+01
2.540000e-06	3.056680e-06	5.866620e-10	2.126853e+01	3.973699e+01
2.550000e-06	3.095332e-06	5.935996e-10	2.153747e+01	4.020199e+01
2.560000e-06	3.133698e-06	5.984892e-10	2.180442e+01	4.065662e+01
2.570000e-06	3.171931e-06	6.014840e-10	2.207045e+01	4.110084e+01
2.580000e-06	3.209995e-06	6.068445e-10	2.233530e+01	4.153459e+01
2.590000e-06	3.247812e-06	6.148685e-10	2.259843e+01	4.195785e+01
2.600000e-06	3.285484e-06	6.222109e-10	2.286055e+01	4.237056e+01
2.610000e-06	3.322967e-06	6.267932e-10	2.312136e+01	4.277270e+01
2.620000e-06	3.360133e-06	6.311291e-10	2.337996e+01	4.316426e+01
2.630000e-06	3.396995e-06	6.351086e-10	2.363645e+01	4.354522e+01
2.640000e-06	3.433596e-06	6.381565e-10	2.389112e+01	4.391559e+01
2.650000e-06	3.469941e-06	6.419679e-10	2.414401e+01	4.427539e+01
2.660000e-06	3.506065e-06	6.490226e-10	2.439537e+01	4.462465e+01
2.670000e-06	3.541991e-06	6.540855e-10	2.464534e+01	4.496341e+01
2.680000e-06	3.577780e-06	6.574167e-10	2.489436e+01	4.529175e+01
2.690000e-06	3.613471e-06	6.609448e-10	2.514270e+01	4.560973e+01
2.700000e-06	3.649027e-06	6.626692e-10	2.539010e+01	4.591746e+01
2.710000e-06	3.684390e-06	6.654341e-10	2.563616e+01	4.621506e+01
2.720000e-06	3.719600e-06	6.702950e-10	2.588116e+01	4.650266e+01
2.730000e-06	3.754531e-06	6.741760e-10	2.612420e+01	4.678041e+01
2.740000e-06	3.789014e-06	6.774523e-10	2.636414e+01	4.704848e+01
2.750000e-06	3.823049e-06	6.808249e-10	2.660096e+01	4.730704e+01
2.760000e-06	3.856656e-06	6.839904e-10	2.683480e+01	4.755631e+01
2.770000e-06	3.889769e-06	6.865169e-10	2.706520e+01	4.779650e+01
2.780000e-06	3.922403e-06	6.887734e-10	2.729227e+01	4.802783e+01
2.790000e-06	3.954710e-06	6.930782e-10	2.751706e+01	4.825056e+01
2.800000e-06	3.986786e-06	6.981947e-10	2.774024e+01	4.846492e+01
2.810000e-06	4.018664e-06	7.019140e-10	2.796206e+01	4.867118e+01
2.820000e-06	4.050367e-06	7.036548e-10	2.818265e+01	4.886962e+01
2.830000e-06	4.081947e-06	7.046781e-10	2.840238e+01	4.906051e+01
2.840000e-06	4.113319e-06	7.087316e-10	2.862067e+01	4.924414e+01
2.850000e-06	4.144442e-06	7.136025e-10	2.883723e+01	4.942078e+01
2.860000e-06	4.175207e-06	7.177938e-10	2.905129e+01	4.959073e+01
2.870000e-06	4.205550e-06	7.201864e-10	2.926242e+01	4.975427e+01
2.880000e-06	4.235590e-06	7.200274e-10	2.947144e+01	4.991168e+01
2.890000e-06	4.265383e-06	7.184398e-10	2.967874e+01	5.006326e+01
2.900000e-06	4.294957e-06	7.173412e-10	2.988452e+01	5.020927e+01
