# Temperatura_=_0.69
# Concentracion g/m^3_=_1620.0
# C_Vs_to_Am_M_A/Vsm_=_65563218390.804596
# pendiente_HvsI_1/m_=_3716.3
# ordenada_HvsI_A/m_=_1297.0
# frecuencia_Hz_=_135109.72710722015

Tiempo_(s)	Campo_(V.s)	Magnetizacion_(V.s)	Campo_(kA/m)	Magnetizacion_(A/m)
0.000000e+00	-5.510967e-06	-1.401145e-09	-3.836826e+01	-8.985981e+01
1.000000e-08	-5.511255e-06	-1.392410e-09	-3.837026e+01	-8.982455e+01
2.000000e-08	-5.511340e-06	-1.383221e-09	-3.837086e+01	-8.978802e+01
3.000000e-08	-5.511074e-06	-1.379402e-09	-3.836901e+01	-8.975033e+01
4.000000e-08	-5.510317e-06	-1.380652e-09	-3.836373e+01	-8.971155e+01
5.000000e-08	-5.509015e-06	-1.384295e-09	-3.835467e+01	-8.967173e+01
6.000000e-08	-5.507066e-06	-1.385970e-09	-3.834110e+01	-8.963090e+01
7.000000e-08	-5.504465e-06	-1.382072e-09	-3.832299e+01	-8.958909e+01
8.000000e-08	-5.501413e-06	-1.395482e-09	-3.830174e+01	-8.954631e+01
9.000000e-08	-5.497968e-06	-1.424622e-09	-3.827776e+01	-8.950252e+01
1.000000e-07	-5.494035e-06	-1.414550e-09	-3.825038e+01	-8.945769e+01
1.100000e-07	-5.489664e-06	-1.367071e-09	-3.821994e+01	-8.941177e+01
1.200000e-07	-5.485125e-06	-1.371823e-09	-3.818834e+01	-8.936468e+01
1.300000e-07	-5.480443e-06	-1.366941e-09	-3.815574e+01	-8.931634e+01
1.400000e-07	-5.475404e-06	-1.396028e-09	-3.812066e+01	-8.926663e+01
1.500000e-07	-5.469946e-06	-1.359033e-09	-3.808266e+01	-8.921544e+01
1.600000e-07	-5.464125e-06	-1.384720e-09	-3.804214e+01	-8.916262e+01
1.700000e-07	-5.457969e-06	-1.393486e-09	-3.799927e+01	-8.910803e+01
1.800000e-07	-5.451355e-06	-1.374554e-09	-3.795323e+01	-8.905152e+01
1.900000e-07	-5.444255e-06	-1.358537e-09	-3.790380e+01	-8.899290e+01
2.000000e-07	-5.436818e-06	-1.359559e-09	-3.785202e+01	-8.893199e+01
2.100000e-07	-5.429177e-06	-1.400298e-09	-3.779882e+01	-8.886862e+01
2.200000e-07	-5.421277e-06	-1.388593e-09	-3.774382e+01	-8.880258e+01
2.300000e-07	-5.413120e-06	-1.388059e-09	-3.768703e+01	-8.873367e+01
2.400000e-07	-5.404670e-06	-1.366175e-09	-3.762820e+01	-8.866170e+01
2.500000e-07	-5.395550e-06	-1.377664e-09	-3.756471e+01	-8.858646e+01
2.600000e-07	-5.385585e-06	-1.344545e-09	-3.749533e+01	-8.850774e+01
2.700000e-07	-5.374970e-06	-1.350768e-09	-3.742142e+01	-8.842535e+01
2.800000e-07	-5.363839e-06	-1.333403e-09	-3.734393e+01	-8.833907e+01
2.900000e-07	-5.352252e-06	-1.347890e-09	-3.726326e+01	-8.824872e+01
3.000000e-07	-5.340337e-06	-1.328128e-09	-3.718030e+01	-8.815411e+01
3.100000e-07	-5.328073e-06	-1.327617e-09	-3.709492e+01	-8.805504e+01
3.200000e-07	-5.315404e-06	-1.310416e-09	-3.700671e+01	-8.795135e+01
3.300000e-07	-5.302329e-06	-1.323522e-09	-3.691569e+01	-8.784287e+01
3.400000e-07	-5.288902e-06	-1.318517e-09	-3.682221e+01	-8.772943e+01
3.500000e-07	-5.275156e-06	-1.306129e-09	-3.672651e+01	-8.761089e+01
3.600000e-07	-5.260896e-06	-1.309838e-09	-3.662722e+01	-8.748711e+01
3.700000e-07	-5.246195e-06	-1.330610e-09	-3.652487e+01	-8.735798e+01
3.800000e-07	-5.231030e-06	-1.307454e-09	-3.641929e+01	-8.722337e+01
3.900000e-07	-5.215236e-06	-1.283801e-09	-3.630933e+01	-8.708319e+01
4.000000e-07	-5.198909e-06	-1.310904e-09	-3.619566e+01	-8.693736e+01
4.100000e-07	-5.182236e-06	-1.316696e-09	-3.607958e+01	-8.678580e+01
4.200000e-07	-5.165331e-06	-1.288433e-09	-3.596188e+01	-8.662846e+01
4.300000e-07	-5.148142e-06	-1.291766e-09	-3.584221e+01	-8.646529e+01
4.400000e-07	-5.130661e-06	-1.322556e-09	-3.572050e+01	-8.629627e+01
4.500000e-07	-5.112840e-06	-1.278881e-09	-3.559643e+01	-8.612137e+01
4.600000e-07	-5.094553e-06	-1.267783e-09	-3.546912e+01	-8.594060e+01
4.700000e-07	-5.075830e-06	-1.297114e-09	-3.533877e+01	-8.575396e+01
4.800000e-07	-5.056799e-06	-1.296379e-09	-3.520627e+01	-8.556147e+01
4.900000e-07	-5.037435e-06	-1.255927e-09	-3.507145e+01	-8.536318e+01
5.000000e-07	-5.017820e-06	-1.290078e-09	-3.493489e+01	-8.515911e+01
5.100000e-07	-4.998058e-06	-1.283111e-09	-3.479730e+01	-8.494934e+01
5.200000e-07	-4.978013e-06	-1.243819e-09	-3.465774e+01	-8.473392e+01
5.300000e-07	-4.957551e-06	-1.251796e-09	-3.451529e+01	-8.451292e+01
5.400000e-07	-4.936726e-06	-1.287271e-09	-3.437030e+01	-8.428644e+01
5.500000e-07	-4.915512e-06	-1.240653e-09	-3.422261e+01	-8.405455e+01
5.600000e-07	-4.893942e-06	-1.239118e-09	-3.407243e+01	-8.381736e+01
5.700000e-07	-4.872098e-06	-1.273985e-09	-3.392035e+01	-8.357496e+01
5.800000e-07	-4.849868e-06	-1.256043e-09	-3.376558e+01	-8.332746e+01
5.900000e-07	-4.827209e-06	-1.219942e-09	-3.360782e+01	-8.307497e+01
6.000000e-07	-4.804235e-06	-1.250279e-09	-3.344787e+01	-8.281760e+01
6.100000e-07	-4.780990e-06	-1.246205e-09	-3.328604e+01	-8.255547e+01
6.200000e-07	-4.757503e-06	-1.218836e-09	-3.312252e+01	-8.228868e+01
6.300000e-07	-4.733827e-06	-1.235377e-09	-3.295768e+01	-8.201735e+01
6.400000e-07	-4.709888e-06	-1.248656e-09	-3.279102e+01	-8.174160e+01
6.500000e-07	-4.685668e-06	-1.218308e-09	-3.262239e+01	-8.146153e+01
6.600000e-07	-4.661022e-06	-1.216606e-09	-3.245080e+01	-8.117725e+01
6.700000e-07	-4.635841e-06	-1.228181e-09	-3.227549e+01	-8.088887e+01
6.800000e-07	-4.610132e-06	-1.205323e-09	-3.209649e+01	-8.059649e+01
6.900000e-07	-4.583846e-06	-1.200526e-09	-3.191349e+01	-8.030020e+01
7.000000e-07	-4.556954e-06	-1.214174e-09	-3.172626e+01	-8.000010e+01
7.100000e-07	-4.529629e-06	-1.204372e-09	-3.153602e+01	-7.969627e+01
7.200000e-07	-4.502139e-06	-1.188707e-09	-3.134463e+01	-7.938878e+01
7.300000e-07	-4.474536e-06	-1.198556e-09	-3.115246e+01	-7.907772e+01
7.400000e-07	-4.446762e-06	-1.186067e-09	-3.095909e+01	-7.876314e+01
7.500000e-07	-4.418749e-06	-1.168855e-09	-3.076406e+01	-7.844510e+01
7.600000e-07	-4.390514e-06	-1.168334e-09	-3.056748e+01	-7.812364e+01
7.700000e-07	-4.362020e-06	-1.173409e-09	-3.036910e+01	-7.779881e+01
7.800000e-07	-4.333199e-06	-1.158468e-09	-3.016844e+01	-7.747064e+01
7.900000e-07	-4.304011e-06	-1.161250e-09	-2.996523e+01	-7.713916e+01
8.000000e-07	-4.274517e-06	-1.162064e-09	-2.975989e+01	-7.680437e+01
8.100000e-07	-4.244768e-06	-1.149944e-09	-2.955278e+01	-7.646628e+01
8.200000e-07	-4.214708e-06	-1.133589e-09	-2.934349e+01	-7.612490e+01
8.300000e-07	-4.184330e-06	-1.135554e-09	-2.913199e+01	-7.578021e+01
8.400000e-07	-4.153649e-06	-1.123293e-09	-2.891838e+01	-7.543219e+01
8.500000e-07	-4.122606e-06	-1.113476e-09	-2.870226e+01	-7.508082e+01
8.600000e-07	-4.091214e-06	-1.115449e-09	-2.848371e+01	-7.472607e+01
8.700000e-07	-4.059634e-06	-1.118255e-09	-2.826384e+01	-7.436790e+01
8.800000e-07	-4.027989e-06	-1.105805e-09	-2.804352e+01	-7.400625e+01
8.900000e-07	-3.996277e-06	-1.104200e-09	-2.782274e+01	-7.364108e+01
9.000000e-07	-3.964398e-06	-1.098915e-09	-2.760079e+01	-7.327233e+01
9.100000e-07	-3.932179e-06	-1.081845e-09	-2.737648e+01	-7.289994e+01
9.200000e-07	-3.899577e-06	-1.071503e-09	-2.714949e+01	-7.252383e+01
9.300000e-07	-3.866612e-06	-1.072815e-09	-2.691999e+01	-7.214394e+01
9.400000e-07	-3.833145e-06	-1.065437e-09	-2.668699e+01	-7.176019e+01
9.500000e-07	-3.799201e-06	-1.056760e-09	-2.645066e+01	-7.137251e+01
9.600000e-07	-3.764872e-06	-1.057929e-09	-2.621166e+01	-7.098081e+01
9.700000e-07	-3.730149e-06	-1.050348e-09	-2.596991e+01	-7.058501e+01
9.800000e-07	-3.695092e-06	-1.037073e-09	-2.572584e+01	-7.018504e+01
9.900000e-07	-3.659731e-06	-1.031169e-09	-2.547965e+01	-6.978081e+01
1.000000e-06	-3.624116e-06	-1.025251e-09	-2.523169e+01	-6.937224e+01
1.010000e-06	-3.588368e-06	-1.012013e-09	-2.498281e+01	-6.895926e+01
1.020000e-06	-3.552580e-06	-1.008364e-09	-2.473365e+01	-6.854178e+01
1.030000e-06	-3.516706e-06	-1.006717e-09	-2.448388e+01	-6.811974e+01
1.040000e-06	-3.480665e-06	-9.988837e-10	-2.423296e+01	-6.769305e+01
1.050000e-06	-3.444390e-06	-9.899787e-10	-2.398041e+01	-6.726167e+01
1.060000e-06	-3.407849e-06	-9.879382e-10	-2.372600e+01	-6.682552e+01
1.070000e-06	-3.371031e-06	-9.780255e-10	-2.346967e+01	-6.638454e+01
1.080000e-06	-3.333848e-06	-9.684765e-10	-2.321079e+01	-6.593870e+01
1.090000e-06	-3.296339e-06	-9.624088e-10	-2.294965e+01	-6.548793e+01
1.100000e-06	-3.258587e-06	-9.582979e-10	-2.268682e+01	-6.503220e+01
1.110000e-06	-3.220666e-06	-9.467186e-10	-2.242280e+01	-6.457148e+01
1.120000e-06	-3.182629e-06	-9.410128e-10	-2.215799e+01	-6.410574e+01
1.130000e-06	-3.144435e-06	-9.341063e-10	-2.189208e+01	-6.363495e+01
1.140000e-06	-3.105980e-06	-9.228472e-10	-2.162434e+01	-6.315910e+01
1.150000e-06	-3.067157e-06	-9.114543e-10	-2.135405e+01	-6.267819e+01
1.160000e-06	-3.028150e-06	-9.048363e-10	-2.108247e+01	-6.219220e+01
1.170000e-06	-2.989084e-06	-8.947955e-10	-2.081049e+01	-6.170114e+01
1.180000e-06	-2.949832e-06	-8.858454e-10	-2.053722e+01	-6.120502e+01
1.190000e-06	-2.910344e-06	-8.807974e-10	-2.026229e+01	-6.070385e+01
1.200000e-06	-2.870721e-06	-8.745434e-10	-1.998643e+01	-6.019763e+01
1.210000e-06	-2.831043e-06	-8.629197e-10	-1.971018e+01	-5.968639e+01
1.220000e-06	-2.791229e-06	-8.537419e-10	-1.943299e+01	-5.917015e+01
1.230000e-06	-2.751272e-06	-8.437083e-10	-1.915481e+01	-5.864892e+01
1.240000e-06	-2.711156e-06	-8.306271e-10	-1.887552e+01	-5.812273e+01
1.250000e-06	-2.670791e-06	-8.214595e-10	-1.859448e+01	-5.759159e+01
1.260000e-06	-2.630203e-06	-8.149100e-10	-1.831190e+01	-5.705552e+01
1.270000e-06	-2.589375e-06	-8.081767e-10	-1.802766e+01	-5.651452e+01
1.280000e-06	-2.548296e-06	-8.007897e-10	-1.774165e+01	-5.596861e+01
1.290000e-06	-2.506911e-06	-7.950318e-10	-1.745352e+01	-5.541777e+01
1.300000e-06	-2.465276e-06	-7.848741e-10	-1.716366e+01	-5.486201e+01
1.310000e-06	-2.423325e-06	-7.711817e-10	-1.687159e+01	-5.430131e+01
1.320000e-06	-2.380866e-06	-7.583862e-10	-1.657598e+01	-5.373562e+01
1.330000e-06	-2.338069e-06	-7.474664e-10	-1.627802e+01	-5.316491e+01
1.340000e-06	-2.295097e-06	-7.365473e-10	-1.597884e+01	-5.258911e+01
1.350000e-06	-2.251962e-06	-7.296170e-10	-1.567853e+01	-5.200816e+01
1.360000e-06	-2.208702e-06	-7.228207e-10	-1.537735e+01	-5.142195e+01
1.370000e-06	-2.165280e-06	-7.159952e-10	-1.507504e+01	-5.083039e+01
1.380000e-06	-2.121693e-06	-7.080703e-10	-1.477158e+01	-5.023333e+01
1.390000e-06	-2.078058e-06	-6.974678e-10	-1.446778e+01	-4.963062e+01
1.400000e-06	-2.034382e-06	-6.819042e-10	-1.416370e+01	-4.902210e+01
1.410000e-06	-1.990630e-06	-6.681318e-10	-1.385909e+01	-4.840755e+01
1.420000e-06	-1.946797e-06	-6.564424e-10	-1.355392e+01	-4.778675e+01
1.430000e-06	-1.902885e-06	-6.470719e-10	-1.324820e+01	-4.715946e+01
1.440000e-06	-1.858889e-06	-6.384854e-10	-1.294189e+01	-4.652541e+01
1.450000e-06	-1.814794e-06	-6.308972e-10	-1.263490e+01	-4.588429e+01
1.460000e-06	-1.770563e-06	-6.203476e-10	-1.232695e+01	-4.523578e+01
1.470000e-06	-1.726146e-06	-6.073138e-10	-1.201771e+01	-4.457952e+01
1.480000e-06	-1.681564e-06	-5.946865e-10	-1.170732e+01	-4.391515e+01
1.490000e-06	-1.636903e-06	-5.851013e-10	-1.139639e+01	-4.324227e+01
1.500000e-06	-1.592129e-06	-5.763169e-10	-1.108466e+01	-4.256044e+01
1.510000e-06	-1.547208e-06	-5.669064e-10	-1.077192e+01	-4.186922e+01
1.520000e-06	-1.502208e-06	-5.579928e-10	-1.045862e+01	-4.116815e+01
1.530000e-06	-1.457102e-06	-5.493714e-10	-1.014459e+01	-4.045673e+01
1.540000e-06	-1.411900e-06	-5.394202e-10	-9.829881e+00	-3.973447e+01
1.550000e-06	-1.366586e-06	-5.285658e-10	-9.514395e+00	-3.900085e+01
1.560000e-06	-1.321079e-06	-5.149641e-10	-9.197567e+00	-3.825533e+01
1.570000e-06	-1.275520e-06	-5.016984e-10	-8.880382e+00	-3.749737e+01
1.580000e-06	-1.229949e-06	-4.916228e-10	-8.563106e+00	-3.672642e+01
1.590000e-06	-1.184275e-06	-4.807304e-10	-8.245116e+00	-3.594193e+01
1.600000e-06	-1.138505e-06	-4.680170e-10	-7.926457e+00	-3.514334e+01
1.610000e-06	-1.092664e-06	-4.538655e-10	-7.607303e+00	-3.433011e+01
1.620000e-06	-1.046831e-06	-4.380140e-10	-7.288212e+00	-3.350168e+01
1.630000e-06	-1.000946e-06	-4.213540e-10	-6.968749e+00	-3.265753e+01
1.640000e-06	-9.549615e-07	-4.074041e-10	-6.648599e+00	-3.179713e+01
1.650000e-06	-9.088783e-07	-3.957703e-10	-6.327760e+00	-3.091998e+01
1.660000e-06	-8.626850e-07	-3.849859e-10	-6.006154e+00	-3.002560e+01
1.670000e-06	-8.164889e-07	-3.709149e-10	-5.684530e+00	-2.911355e+01
1.680000e-06	-7.702822e-07	-3.561841e-10	-5.362831e+00	-2.818339e+01
1.690000e-06	-7.239987e-07	-3.410606e-10	-5.040598e+00	-2.723474e+01
1.700000e-06	-6.775761e-07	-3.259706e-10	-4.717396e+00	-2.626726e+01
1.710000e-06	-6.310210e-07	-3.096049e-10	-4.393272e+00	-2.528064e+01
1.720000e-06	-5.844826e-07	-2.935490e-10	-4.069264e+00	-2.427463e+01
1.730000e-06	-5.378646e-07	-2.767688e-10	-3.744701e+00	-2.324901e+01
1.740000e-06	-4.911917e-07	-2.599674e-10	-3.419758e+00	-2.220364e+01
1.750000e-06	-4.445873e-07	-2.442212e-10	-3.095290e+00	-2.113842e+01
1.760000e-06	-3.979878e-07	-2.290945e-10	-2.770857e+00	-2.005331e+01
1.770000e-06	-3.513974e-07	-2.133592e-10	-2.446486e+00	-1.894836e+01
1.780000e-06	-3.046882e-07	-1.970882e-10	-2.121290e+00	-1.782365e+01
1.790000e-06	-2.578323e-07	-1.806480e-10	-1.795071e+00	-1.667936e+01
1.800000e-06	-2.109523e-07	-1.647076e-10	-1.468684e+00	-1.551570e+01
1.810000e-06	-1.641563e-07	-1.480091e-10	-1.142883e+00	-1.433300e+01
1.820000e-06	-1.174890e-07	-1.299754e-10	-8.179777e-01	-1.313163e+01
1.830000e-06	-7.076443e-08	-1.109611e-10	-4.926736e-01	-1.191204e+01
1.840000e-06	-2.391972e-08	-9.147135e-11	-1.665330e-01	-1.067476e+01
1.850000e-06	2.286832e-08	-7.263745e-11	1.592130e-01	-9.420379e+00
1.860000e-06	6.962645e-08	-5.499539e-11	4.847508e-01	-8.149575e+00
1.870000e-06	1.164297e-07	-3.641972e-11	8.106028e-01	-6.863085e+00
1.880000e-06	1.632593e-07	-1.668593e-11	1.136638e+00	-5.561721e+00
1.890000e-06	2.100963e-07	3.806760e-13	1.462725e+00	-4.246360e+00
1.900000e-06	2.568579e-07	1.631761e-11	1.788287e+00	-2.917943e+00
1.910000e-06	3.035788e-07	3.286201e-11	2.113565e+00	-1.577474e+00
1.920000e-06	3.502562e-07	5.248369e-11	2.438541e+00	-2.260148e-01
1.930000e-06	3.968554e-07	7.539639e-11	2.762972e+00	1.135320e+00
1.940000e-06	4.433904e-07	9.783283e-11	3.086957e+00	2.505363e+00
1.950000e-06	4.898377e-07	1.183278e-10	3.410331e+00	3.882905e+00
1.960000e-06	5.362755e-07	1.372765e-10	3.733638e+00	5.266693e+00
1.970000e-06	5.827208e-07	1.539445e-10	4.056998e+00	6.655442e+00
1.980000e-06	6.291667e-07	1.705283e-10	4.380362e+00	8.047835e+00
1.990000e-06	6.755575e-07	1.869400e-10	4.703342e+00	9.442531e+00
2.000000e-06	7.218609e-07	2.026998e-10	5.025714e+00	1.083817e+01
2.010000e-06	7.681220e-07	2.215522e-10	5.347792e+00	1.223339e+01
2.020000e-06	8.143185e-07	2.423295e-10	5.669419e+00	1.362681e+01
2.030000e-06	8.604792e-07	2.648790e-10	5.990797e+00	1.501705e+01
2.040000e-06	9.065857e-07	2.892264e-10	6.311799e+00	1.640276e+01
2.050000e-06	9.526087e-07	3.101977e-10	6.632218e+00	1.778256e+01
2.060000e-06	9.985816e-07	3.283221e-10	6.952289e+00	1.915514e+01
2.070000e-06	1.044515e-06	3.440491e-10	7.272085e+00	2.051917e+01
2.080000e-06	1.090357e-06	3.581609e-10	7.591243e+00	2.187340e+01
2.090000e-06	1.136148e-06	3.740241e-10	7.910049e+00	2.321656e+01
2.100000e-06	1.181860e-06	3.942700e-10	8.228305e+00	2.454748e+01
2.110000e-06	1.227399e-06	4.151383e-10	8.545352e+00	2.586500e+01
2.120000e-06	1.272839e-06	4.363479e-10	8.861715e+00	2.716802e+01
2.130000e-06	1.318235e-06	4.560830e-10	9.177769e+00	2.845552e+01
2.140000e-06	1.363591e-06	4.727069e-10	9.493545e+00	2.972652e+01
2.150000e-06	1.408857e-06	4.865090e-10	9.808694e+00	3.098011e+01
2.160000e-06	1.454023e-06	4.993285e-10	1.012315e+01	3.221547e+01
2.170000e-06	1.499103e-06	5.138045e-10	1.043700e+01	3.343181e+01
2.180000e-06	1.543997e-06	5.294247e-10	1.074956e+01	3.462846e+01
2.190000e-06	1.588738e-06	5.464642e-10	1.106106e+01	3.580481e+01
2.200000e-06	1.633355e-06	5.653728e-10	1.137169e+01	3.696031e+01
2.210000e-06	1.677838e-06	5.823291e-10	1.168139e+01	3.809453e+01
2.220000e-06	1.722194e-06	5.955883e-10	1.199019e+01	3.920709e+01
2.230000e-06	1.766407e-06	6.077013e-10	1.229802e+01	4.029769e+01
2.240000e-06	1.810507e-06	6.204588e-10	1.260505e+01	4.136612e+01
2.250000e-06	1.854529e-06	6.357806e-10	1.291154e+01	4.241226e+01
2.260000e-06	1.898495e-06	6.530798e-10	1.321763e+01	4.343604e+01
2.270000e-06	1.942349e-06	6.699302e-10	1.352295e+01	4.443747e+01
2.280000e-06	1.986109e-06	6.835278e-10	1.382762e+01	4.541666e+01
2.290000e-06	2.029830e-06	6.947465e-10	1.413201e+01	4.637376e+01
2.300000e-06	2.073511e-06	7.045133e-10	1.443613e+01	4.730900e+01
2.310000e-06	2.117140e-06	7.135303e-10	1.473987e+01	4.822267e+01
2.320000e-06	2.160676e-06	7.249468e-10	1.504298e+01	4.911510e+01
2.330000e-06	2.204074e-06	7.401884e-10	1.534513e+01	4.998671e+01
2.340000e-06	2.247315e-06	7.550581e-10	1.564618e+01	5.083795e+01
2.350000e-06	2.290439e-06	7.676713e-10	1.594642e+01	5.166930e+01
2.360000e-06	2.333383e-06	7.781292e-10	1.624540e+01	5.248131e+01
2.370000e-06	2.376062e-06	7.868551e-10	1.654253e+01	5.327454e+01
2.380000e-06	2.418354e-06	7.934059e-10	1.683698e+01	5.404959e+01
2.390000e-06	2.460267e-06	8.020933e-10	1.712878e+01	5.480708e+01
2.400000e-06	2.501851e-06	8.134448e-10	1.741830e+01	5.554766e+01
2.410000e-06	2.543065e-06	8.261851e-10	1.770524e+01	5.627198e+01
2.420000e-06	2.583964e-06	8.411027e-10	1.798998e+01	5.698069e+01
2.430000e-06	2.624651e-06	8.548026e-10	1.827325e+01	5.767447e+01
2.440000e-06	2.665136e-06	8.638307e-10	1.855511e+01	5.835399e+01
2.450000e-06	2.705374e-06	8.697079e-10	1.883526e+01	5.901988e+01
2.460000e-06	2.745486e-06	8.772114e-10	1.911453e+01	5.967281e+01
2.470000e-06	2.785488e-06	8.859484e-10	1.939303e+01	6.031340e+01
2.480000e-06	2.825335e-06	8.939522e-10	1.967045e+01	6.094227e+01
2.490000e-06	2.865044e-06	9.020885e-10	1.994691e+01	6.155999e+01
2.500000e-06	2.904650e-06	9.111124e-10	2.022265e+01	6.216714e+01
2.510000e-06	2.944132e-06	9.214976e-10	2.049753e+01	6.276424e+01
2.520000e-06	2.983441e-06	9.328042e-10	2.077121e+01	6.335180e+01
2.530000e-06	3.022522e-06	9.445770e-10	2.104329e+01	6.393029e+01
2.540000e-06	3.061385e-06	9.552909e-10	2.131387e+01	6.450013e+01
2.550000e-06	3.100030e-06	9.643274e-10	2.158292e+01	6.506172e+01
2.560000e-06	3.138433e-06	9.714636e-10	2.185029e+01	6.561541e+01
2.570000e-06	3.176676e-06	9.764171e-10	2.211654e+01	6.616153e+01
2.580000e-06	3.214676e-06	9.829253e-10	2.238110e+01	6.670036e+01
2.590000e-06	3.252384e-06	9.920546e-10	2.264363e+01	6.723213e+01
2.600000e-06	3.289872e-06	1.000308e-09	2.290463e+01	6.775706e+01
2.610000e-06	3.327160e-06	1.007447e-09	2.316424e+01	6.827529e+01
2.620000e-06	3.364288e-06	1.014883e-09	2.342273e+01	6.878698e+01
2.630000e-06	3.401172e-06	1.021703e-09	2.367952e+01	6.929221e+01
2.640000e-06	3.437721e-06	1.028118e-09	2.393398e+01	6.979104e+01
2.650000e-06	3.474005e-06	1.034775e-09	2.418660e+01	7.028352e+01
2.660000e-06	3.510130e-06	1.042667e-09	2.443810e+01	7.076965e+01
2.670000e-06	3.546118e-06	1.050339e-09	2.468866e+01	7.124941e+01
2.680000e-06	3.581945e-06	1.056996e-09	2.493809e+01	7.172276e+01
2.690000e-06	3.617612e-06	1.061473e-09	2.518641e+01	7.218964e+01
2.700000e-06	3.653156e-06	1.063233e-09	2.543387e+01	7.264998e+01
2.710000e-06	3.688560e-06	1.066800e-09	2.568036e+01	7.310369e+01
2.720000e-06	3.723659e-06	1.074041e-09	2.592473e+01	7.355066e+01
2.730000e-06	3.758405e-06	1.081922e-09	2.616663e+01	7.399079e+01
2.740000e-06	3.792838e-06	1.089233e-09	2.640636e+01	7.442397e+01
2.750000e-06	3.826805e-06	1.095656e-09	2.664284e+01	7.485007e+01
2.760000e-06	3.860273e-06	1.099919e-09	2.687586e+01	7.526900e+01
2.770000e-06	3.893335e-06	1.102590e-09	2.710604e+01	7.568064e+01
2.780000e-06	3.925912e-06	1.103924e-09	2.733284e+01	7.608490e+01
2.790000e-06	3.958052e-06	1.107424e-09	2.755661e+01	7.648167e+01
2.800000e-06	3.990055e-06	1.113240e-09	2.777942e+01	7.687088e+01
2.810000e-06	4.021988e-06	1.118966e-09	2.800174e+01	7.725246e+01
2.820000e-06	4.053706e-06	1.122787e-09	2.822256e+01	7.762637e+01
2.830000e-06	4.085207e-06	1.126525e-09	2.844189e+01	7.799255e+01
2.840000e-06	4.116530e-06	1.133391e-09	2.865996e+01	7.835100e+01
2.850000e-06	4.147586e-06	1.139144e-09	2.887618e+01	7.870172e+01
2.860000e-06	4.178274e-06	1.145066e-09	2.908983e+01	7.904471e+01
2.870000e-06	4.208620e-06	1.148694e-09	2.930110e+01	7.938003e+01
2.880000e-06	4.238680e-06	1.151034e-09	2.951038e+01	7.970774e+01
2.890000e-06	4.268441e-06	1.151984e-09	2.971759e+01	8.002790e+01
2.900000e-06	4.297907e-06	1.150137e-09	2.992273e+01	8.034062e+01
2.910000e-06	4.327161e-06	1.151755e-09	3.012641e+01	8.064602e+01
