# Temperatura_=_6.22
# Concentracion g/m^3_=_1620.0
# C_Vs_to_Am_M_A/Vsm_=_65563218390.804596
# pendiente_HvsI_1/m_=_3716.3
# ordenada_HvsI_A/m_=_1297.0
# frecuencia_Hz_=_135109.6773105909

Tiempo_(s)	Campo_(V.s)	Magnetizacion_(V.s)	Campo_(kA/m)	Magnetizacion_(A/m)
0.000000e+00	-5.513026e-06	-1.354113e-09	-3.837182e+01	-8.643878e+01
1.000000e-08	-5.513212e-06	-1.356966e-09	-3.837311e+01	-8.639300e+01
2.000000e-08	-5.513119e-06	-1.357249e-09	-3.837246e+01	-8.634282e+01
3.000000e-08	-5.512535e-06	-1.355016e-09	-3.836840e+01	-8.628833e+01
4.000000e-08	-5.511409e-06	-1.350970e-09	-3.836056e+01	-8.622957e+01
5.000000e-08	-5.509780e-06	-1.351537e-09	-3.834923e+01	-8.616665e+01
6.000000e-08	-5.507546e-06	-1.359477e-09	-3.833367e+01	-8.609964e+01
7.000000e-08	-5.504717e-06	-1.336994e-09	-3.831399e+01	-8.602864e+01
8.000000e-08	-5.501423e-06	-1.296758e-09	-3.829105e+01	-8.595376e+01
9.000000e-08	-5.497680e-06	-1.334472e-09	-3.826501e+01	-8.587511e+01
1.000000e-07	-5.493504e-06	-1.400122e-09	-3.823594e+01	-8.579279e+01
1.100000e-07	-5.488984e-06	-1.361552e-09	-3.820448e+01	-8.570694e+01
1.200000e-07	-5.484305e-06	-1.327490e-09	-3.817191e+01	-8.561768e+01
1.300000e-07	-5.479407e-06	-1.322844e-09	-3.813782e+01	-8.552514e+01
1.400000e-07	-5.474092e-06	-1.380101e-09	-3.810083e+01	-8.542944e+01
1.500000e-07	-5.468324e-06	-1.342137e-09	-3.806068e+01	-8.533072e+01
1.600000e-07	-5.462267e-06	-1.305963e-09	-3.801853e+01	-8.522910e+01
1.700000e-07	-5.455873e-06	-1.341597e-09	-3.797402e+01	-8.512472e+01
1.800000e-07	-5.448955e-06	-1.339745e-09	-3.792587e+01	-8.501771e+01
1.900000e-07	-5.441646e-06	-1.315049e-09	-3.787500e+01	-8.490818e+01
2.000000e-07	-5.434105e-06	-1.269305e-09	-3.782251e+01	-8.479625e+01
2.100000e-07	-5.426335e-06	-1.299692e-09	-3.776843e+01	-8.468204e+01
2.200000e-07	-5.418196e-06	-1.296172e-09	-3.771178e+01	-8.456564e+01
2.300000e-07	-5.409692e-06	-1.298545e-09	-3.765259e+01	-8.444715e+01
2.400000e-07	-5.400822e-06	-1.276384e-09	-3.759085e+01	-8.432666e+01
2.500000e-07	-5.391245e-06	-1.288229e-09	-3.752419e+01	-8.420425e+01
2.600000e-07	-5.380913e-06	-1.269887e-09	-3.745228e+01	-8.407997e+01
2.700000e-07	-5.370139e-06	-1.276043e-09	-3.737729e+01	-8.395388e+01
2.800000e-07	-5.358904e-06	-1.264661e-09	-3.729910e+01	-8.382601e+01
2.900000e-07	-5.347131e-06	-1.269015e-09	-3.721715e+01	-8.369640e+01
3.000000e-07	-5.334978e-06	-1.271652e-09	-3.713257e+01	-8.356506e+01
3.100000e-07	-5.322520e-06	-1.286660e-09	-3.704586e+01	-8.343198e+01
3.200000e-07	-5.309613e-06	-1.272788e-09	-3.695602e+01	-8.329714e+01
3.300000e-07	-5.296251e-06	-1.254704e-09	-3.686301e+01	-8.316053e+01
3.400000e-07	-5.282650e-06	-1.270259e-09	-3.676835e+01	-8.302209e+01
3.500000e-07	-5.268680e-06	-1.257526e-09	-3.667112e+01	-8.288176e+01
3.600000e-07	-5.254035e-06	-1.234850e-09	-3.656918e+01	-8.273948e+01
3.700000e-07	-5.238922e-06	-1.255713e-09	-3.646400e+01	-8.259516e+01
3.800000e-07	-5.223302e-06	-1.278522e-09	-3.635528e+01	-8.244870e+01
3.900000e-07	-5.207060e-06	-1.221110e-09	-3.624223e+01	-8.229999e+01
4.000000e-07	-5.190554e-06	-1.219210e-09	-3.612734e+01	-8.214893e+01
4.100000e-07	-5.173823e-06	-1.258326e-09	-3.601090e+01	-8.199537e+01
4.200000e-07	-5.156704e-06	-1.237286e-09	-3.589174e+01	-8.183918e+01
4.300000e-07	-5.139209e-06	-1.194571e-09	-3.576997e+01	-8.168022e+01
4.400000e-07	-5.121449e-06	-1.252669e-09	-3.564636e+01	-8.151834e+01
4.500000e-07	-5.103335e-06	-1.248221e-09	-3.552028e+01	-8.135339e+01
4.600000e-07	-5.084714e-06	-1.187712e-09	-3.539067e+01	-8.118520e+01
4.700000e-07	-5.065691e-06	-1.201604e-09	-3.525827e+01	-8.101362e+01
4.800000e-07	-5.046423e-06	-1.242720e-09	-3.512416e+01	-8.083849e+01
4.900000e-07	-5.026915e-06	-1.186348e-09	-3.498839e+01	-8.065965e+01
5.000000e-07	-5.007129e-06	-1.194211e-09	-3.485067e+01	-8.047695e+01
5.100000e-07	-4.987078e-06	-1.239700e-09	-3.471111e+01	-8.029023e+01
5.200000e-07	-4.966692e-06	-1.202328e-09	-3.456922e+01	-8.009935e+01
5.300000e-07	-4.945946e-06	-1.166114e-09	-3.442482e+01	-7.990418e+01
5.400000e-07	-4.924926e-06	-1.220757e-09	-3.427852e+01	-7.970457e+01
5.500000e-07	-4.903594e-06	-1.200942e-09	-3.413004e+01	-7.950042e+01
5.600000e-07	-4.881861e-06	-1.152181e-09	-3.397878e+01	-7.929161e+01
5.700000e-07	-4.859736e-06	-1.189661e-09	-3.382478e+01	-7.907804e+01
5.800000e-07	-4.837261e-06	-1.209615e-09	-3.366835e+01	-7.885962e+01
5.900000e-07	-4.814469e-06	-1.162022e-09	-3.350971e+01	-7.863628e+01
6.000000e-07	-4.791411e-06	-1.178632e-09	-3.334923e+01	-7.840797e+01
6.100000e-07	-4.768060e-06	-1.205437e-09	-3.318669e+01	-7.817462e+01
6.200000e-07	-4.744347e-06	-1.164951e-09	-3.302165e+01	-7.793622e+01
6.300000e-07	-4.720382e-06	-1.156904e-09	-3.285485e+01	-7.769274e+01
6.400000e-07	-4.696235e-06	-1.183710e-09	-3.268678e+01	-7.744417e+01
6.500000e-07	-4.671736e-06	-1.160972e-09	-3.251626e+01	-7.719054e+01
6.600000e-07	-4.646753e-06	-1.137345e-09	-3.234238e+01	-7.693185e+01
6.700000e-07	-4.621198e-06	-1.160909e-09	-3.216451e+01	-7.666816e+01
6.800000e-07	-4.595123e-06	-1.154253e-09	-3.198302e+01	-7.639949e+01
6.900000e-07	-4.568630e-06	-1.136804e-09	-3.179862e+01	-7.612592e+01
7.000000e-07	-4.541722e-06	-1.146064e-09	-3.161134e+01	-7.584752e+01
7.100000e-07	-4.514475e-06	-1.149551e-09	-3.142169e+01	-7.556435e+01
7.200000e-07	-4.486979e-06	-1.125884e-09	-3.123032e+01	-7.527652e+01
7.300000e-07	-4.459270e-06	-1.128833e-09	-3.103745e+01	-7.498411e+01
7.400000e-07	-4.431316e-06	-1.128956e-09	-3.084289e+01	-7.468723e+01
7.500000e-07	-4.403125e-06	-1.115014e-09	-3.064667e+01	-7.438598e+01
7.600000e-07	-4.374709e-06	-1.105716e-09	-3.044889e+01	-7.408045e+01
7.700000e-07	-4.346093e-06	-1.111207e-09	-3.024972e+01	-7.377077e+01
7.800000e-07	-4.317181e-06	-1.097645e-09	-3.004849e+01	-7.345704e+01
7.900000e-07	-4.287836e-06	-1.089944e-09	-2.984424e+01	-7.313936e+01
8.000000e-07	-4.258177e-06	-1.089795e-09	-2.963780e+01	-7.281784e+01
8.100000e-07	-4.228292e-06	-1.083245e-09	-2.942980e+01	-7.249257e+01
8.200000e-07	-4.198125e-06	-1.066319e-09	-2.921983e+01	-7.216363e+01
8.300000e-07	-4.167676e-06	-1.066755e-09	-2.900790e+01	-7.183113e+01
8.400000e-07	-4.136886e-06	-1.062721e-09	-2.879359e+01	-7.149513e+01
8.500000e-07	-4.105760e-06	-1.050772e-09	-2.857695e+01	-7.115569e+01
8.600000e-07	-4.074414e-06	-1.048542e-09	-2.835877e+01	-7.081287e+01
8.700000e-07	-4.042962e-06	-1.051890e-09	-2.813986e+01	-7.046671e+01
8.800000e-07	-4.011363e-06	-1.040890e-09	-2.791993e+01	-7.011725e+01
8.900000e-07	-3.979514e-06	-1.031662e-09	-2.769825e+01	-6.976451e+01
9.000000e-07	-3.947427e-06	-1.028477e-09	-2.747492e+01	-6.940848e+01
9.100000e-07	-3.915013e-06	-1.017092e-09	-2.724931e+01	-6.904917e+01
9.200000e-07	-3.882183e-06	-1.007116e-09	-2.702081e+01	-6.868655e+01
9.300000e-07	-3.848970e-06	-1.009544e-09	-2.678964e+01	-6.832060e+01
9.400000e-07	-3.815297e-06	-1.007491e-09	-2.655527e+01	-6.795126e+01
9.500000e-07	-3.781036e-06	-9.965365e-10	-2.631681e+01	-6.757848e+01
9.600000e-07	-3.746353e-06	-9.932524e-10	-2.607540e+01	-6.720219e+01
9.700000e-07	-3.711442e-06	-9.863052e-10	-2.583241e+01	-6.682232e+01
9.800000e-07	-3.676292e-06	-9.727091e-10	-2.558776e+01	-6.643877e+01
9.900000e-07	-3.640919e-06	-9.635220e-10	-2.534156e+01	-6.605146e+01
1.000000e-06	-3.605414e-06	-9.652336e-10	-2.509444e+01	-6.566028e+01
1.010000e-06	-3.569731e-06	-9.598358e-10	-2.484608e+01	-6.526512e+01
1.020000e-06	-3.533843e-06	-9.549212e-10	-2.459629e+01	-6.486586e+01
1.030000e-06	-3.497804e-06	-9.510588e-10	-2.434545e+01	-6.446240e+01
1.040000e-06	-3.461561e-06	-9.451233e-10	-2.409319e+01	-6.405461e+01
1.050000e-06	-3.425072e-06	-9.311482e-10	-2.383922e+01	-6.364239e+01
1.060000e-06	-3.388289e-06	-9.228649e-10	-2.358321e+01	-6.322560e+01
1.070000e-06	-3.351219e-06	-9.146619e-10	-2.332519e+01	-6.280415e+01
1.080000e-06	-3.313884e-06	-9.048023e-10	-2.306533e+01	-6.237792e+01
1.090000e-06	-3.276260e-06	-8.967465e-10	-2.280346e+01	-6.194681e+01
1.100000e-06	-3.238380e-06	-8.953891e-10	-2.253980e+01	-6.151072e+01
1.110000e-06	-3.200252e-06	-8.883686e-10	-2.227443e+01	-6.106957e+01
1.120000e-06	-3.162004e-06	-8.797482e-10	-2.200821e+01	-6.062328e+01
1.130000e-06	-3.123666e-06	-8.733966e-10	-2.174137e+01	-6.017179e+01
1.140000e-06	-3.085030e-06	-8.645402e-10	-2.147246e+01	-5.971502e+01
1.150000e-06	-3.046111e-06	-8.527463e-10	-2.120157e+01	-5.925295e+01
1.160000e-06	-3.007058e-06	-8.453255e-10	-2.092975e+01	-5.878552e+01
1.170000e-06	-2.967839e-06	-8.368998e-10	-2.065678e+01	-5.831273e+01
1.180000e-06	-2.928399e-06	-8.280285e-10	-2.038227e+01	-5.783456e+01
1.190000e-06	-2.888838e-06	-8.229549e-10	-2.010692e+01	-5.735100e+01
1.200000e-06	-2.849199e-06	-8.200656e-10	-1.983102e+01	-5.686208e+01
1.210000e-06	-2.809415e-06	-8.111738e-10	-1.955412e+01	-5.636781e+01
1.220000e-06	-2.769400e-06	-8.010958e-10	-1.927560e+01	-5.586822e+01
1.230000e-06	-2.729185e-06	-7.919747e-10	-1.899570e+01	-5.536334e+01
1.240000e-06	-2.688819e-06	-7.821095e-10	-1.871475e+01	-5.485324e+01
1.250000e-06	-2.648202e-06	-7.753676e-10	-1.843204e+01	-5.433794e+01
1.260000e-06	-2.607340e-06	-7.695372e-10	-1.814763e+01	-5.381751e+01
1.270000e-06	-2.566284e-06	-7.648956e-10	-1.786187e+01	-5.329199e+01
1.280000e-06	-2.524945e-06	-7.552970e-10	-1.757414e+01	-5.276145e+01
1.290000e-06	-2.483262e-06	-7.441087e-10	-1.728403e+01	-5.222592e+01
1.300000e-06	-2.441324e-06	-7.317601e-10	-1.699213e+01	-5.168546e+01
1.310000e-06	-2.399161e-06	-7.221499e-10	-1.669866e+01	-5.114010e+01
1.320000e-06	-2.356709e-06	-7.142941e-10	-1.640319e+01	-5.058986e+01
1.330000e-06	-2.313973e-06	-7.083381e-10	-1.610574e+01	-5.003476e+01
1.340000e-06	-2.271016e-06	-7.018265e-10	-1.580675e+01	-4.947480e+01
1.350000e-06	-2.227812e-06	-6.958363e-10	-1.550604e+01	-4.890995e+01
1.360000e-06	-2.184406e-06	-6.856466e-10	-1.520393e+01	-4.834018e+01
1.370000e-06	-2.140923e-06	-6.725740e-10	-1.490128e+01	-4.776542e+01
1.380000e-06	-2.097366e-06	-6.590837e-10	-1.459811e+01	-4.718559e+01
1.390000e-06	-2.053717e-06	-6.486588e-10	-1.429430e+01	-4.660058e+01
1.400000e-06	-2.009972e-06	-6.411836e-10	-1.398982e+01	-4.601023e+01
1.410000e-06	-1.966088e-06	-6.362843e-10	-1.368439e+01	-4.541439e+01
1.420000e-06	-1.922043e-06	-6.299912e-10	-1.337782e+01	-4.481284e+01
1.430000e-06	-1.877910e-06	-6.208912e-10	-1.307065e+01	-4.420536e+01
1.440000e-06	-1.833718e-06	-6.093725e-10	-1.276306e+01	-4.359167e+01
1.450000e-06	-1.789474e-06	-5.976841e-10	-1.245512e+01	-4.297149e+01
1.460000e-06	-1.745130e-06	-5.849345e-10	-1.214647e+01	-4.234446e+01
1.470000e-06	-1.700527e-06	-5.729759e-10	-1.183603e+01	-4.171022e+01
1.480000e-06	-1.655833e-06	-5.631635e-10	-1.152494e+01	-4.106838e+01
1.490000e-06	-1.611142e-06	-5.556069e-10	-1.121389e+01	-4.041850e+01
1.500000e-06	-1.566330e-06	-5.490352e-10	-1.090198e+01	-3.976011e+01
1.510000e-06	-1.521343e-06	-5.393612e-10	-1.058887e+01	-3.909273e+01
1.520000e-06	-1.476187e-06	-5.265685e-10	-1.027457e+01	-3.841583e+01
1.530000e-06	-1.430943e-06	-5.128988e-10	-9.959666e+00	-3.772888e+01
1.540000e-06	-1.385624e-06	-4.997236e-10	-9.644235e+00	-3.703130e+01
1.550000e-06	-1.340163e-06	-4.865859e-10	-9.327814e+00	-3.632252e+01
1.560000e-06	-1.294557e-06	-4.735116e-10	-9.010386e+00	-3.560193e+01
1.570000e-06	-1.248845e-06	-4.616887e-10	-8.692224e+00	-3.486892e+01
1.580000e-06	-1.203142e-06	-4.503786e-10	-8.374118e+00	-3.412289e+01
1.590000e-06	-1.157528e-06	-4.399865e-10	-8.056639e+00	-3.336319e+01
1.600000e-06	-1.111834e-06	-4.295664e-10	-7.738595e+00	-3.258923e+01
1.610000e-06	-1.065927e-06	-4.160442e-10	-7.419076e+00	-3.180037e+01
1.620000e-06	-1.019902e-06	-4.029423e-10	-7.098730e+00	-3.099602e+01
1.630000e-06	-9.738161e-07	-3.898802e-10	-6.777964e+00	-3.017560e+01
1.640000e-06	-9.275888e-07	-3.774914e-10	-6.456212e+00	-2.933853e+01
1.650000e-06	-8.812950e-07	-3.647290e-10	-6.133998e+00	-2.848427e+01
1.660000e-06	-8.350449e-07	-3.521212e-10	-5.812088e+00	-2.761231e+01
1.670000e-06	-7.887216e-07	-3.375869e-10	-5.489667e+00	-2.672219e+01
1.680000e-06	-7.422909e-07	-3.225412e-10	-5.166500e+00	-2.581345e+01
1.690000e-06	-6.958844e-07	-3.072370e-10	-4.843501e+00	-2.488572e+01
1.700000e-06	-6.494478e-07	-2.920655e-10	-4.520293e+00	-2.393866e+01
1.710000e-06	-6.029120e-07	-2.759826e-10	-4.196394e+00	-2.297198e+01
1.720000e-06	-5.563613e-07	-2.611029e-10	-3.872391e+00	-2.198545e+01
1.730000e-06	-5.097520e-07	-2.464551e-10	-3.547981e+00	-2.097891e+01
1.740000e-06	-4.630769e-07	-2.302948e-10	-3.223112e+00	-1.995226e+01
1.750000e-06	-4.163905e-07	-2.141958e-10	-2.898165e+00	-1.890548e+01
1.760000e-06	-3.697285e-07	-1.992137e-10	-2.573388e+00	-1.783859e+01
1.770000e-06	-3.230941e-07	-1.840784e-10	-2.248803e+00	-1.675173e+01
1.780000e-06	-2.763791e-07	-1.686435e-10	-1.923656e+00	-1.564507e+01
1.790000e-06	-2.295342e-07	-1.545208e-10	-1.597606e+00	-1.451888e+01
1.800000e-06	-1.826845e-07	-1.396822e-10	-1.271523e+00	-1.337352e+01
1.810000e-06	-1.359489e-07	-1.231402e-10	-9.462329e-01	-1.220939e+01
1.820000e-06	-8.924740e-08	-1.058225e-10	-6.211806e-01	-1.102701e+01
1.830000e-06	-4.251746e-08	-8.789543e-11	-2.959304e-01	-9.826947e+00
1.840000e-06	4.273306e-09	-6.978081e-11	2.974310e-02	-8.609857e+00
1.850000e-06	5.103817e-08	-5.400131e-11	3.552363e-01	-7.376468e+00
1.860000e-06	9.777939e-08	-3.705387e-11	6.805651e-01	-6.127579e+00
1.870000e-06	1.446171e-07	-1.729558e-11	1.006565e+00	-4.864059e+00
1.880000e-06	1.914800e-07	1.727296e-12	1.332741e+00	-3.586842e+00
1.890000e-06	2.382736e-07	1.908081e-11	1.658435e+00	-2.296928e+00
1.900000e-06	2.849513e-07	3.759382e-11	1.983321e+00	-9.953697e-01
1.910000e-06	3.315851e-07	5.595877e-11	2.307902e+00	3.167214e-01
1.920000e-06	3.782897e-07	7.645548e-11	2.632976e+00	1.638187e+00
1.930000e-06	4.249994e-07	9.710432e-11	2.958085e+00	2.967825e+00
1.940000e-06	4.716900e-07	1.150585e-10	3.283061e+00	4.304394e+00
1.950000e-06	5.183213e-07	1.327558e-10	3.607625e+00	5.646620e+00
1.960000e-06	5.648385e-07	1.514974e-10	3.931394e+00	6.993203e+00
1.970000e-06	6.112744e-07	1.712838e-10	4.254598e+00	8.342822e+00
1.980000e-06	6.575938e-07	1.917302e-10	4.576991e+00	9.694142e+00
1.990000e-06	7.038767e-07	2.115561e-10	4.899129e+00	1.104582e+01
2.000000e-06	7.502047e-07	2.298738e-10	5.221582e+00	1.239651e+01
2.010000e-06	7.965165e-07	2.453096e-10	5.543922e+00	1.374487e+01
2.020000e-06	8.427304e-07	2.607419e-10	5.865581e+00	1.508957e+01
2.030000e-06	8.889015e-07	2.795508e-10	6.186941e+00	1.642929e+01
2.040000e-06	9.350452e-07	3.009342e-10	6.508110e+00	1.776276e+01
2.050000e-06	9.811032e-07	3.225901e-10	6.828684e+00	1.908871e+01
2.060000e-06	1.027040e-06	3.428298e-10	7.148414e+00	2.040591e+01
2.070000e-06	1.072775e-06	3.620053e-10	7.466736e+00	2.171317e+01
2.080000e-06	1.118409e-06	3.793273e-10	7.784358e+00	2.300936e+01
2.090000e-06	1.164069e-06	3.961947e-10	8.102164e+00	2.429338e+01
2.100000e-06	1.209730e-06	4.121742e-10	8.419975e+00	2.556420e+01
2.110000e-06	1.255289e-06	4.280589e-10	8.737077e+00	2.682082e+01
2.120000e-06	1.300693e-06	4.446122e-10	9.053096e+00	2.806234e+01
2.130000e-06	1.346000e-06	4.613507e-10	9.368443e+00	2.928790e+01
2.140000e-06	1.391266e-06	4.775987e-10	9.683503e+00	3.049671e+01
2.150000e-06	1.436493e-06	4.947759e-10	9.998293e+00	3.168805e+01
2.160000e-06	1.481583e-06	5.118911e-10	1.031213e+01	3.286127e+01
2.170000e-06	1.526484e-06	5.292416e-10	1.062465e+01	3.401578e+01
2.180000e-06	1.571268e-06	5.457931e-10	1.093635e+01	3.515110e+01
2.190000e-06	1.615981e-06	5.613674e-10	1.124756e+01	3.626678e+01
2.200000e-06	1.660630e-06	5.745941e-10	1.155833e+01	3.736246e+01
2.210000e-06	1.705170e-06	5.857101e-10	1.186834e+01	3.843785e+01
2.220000e-06	1.749542e-06	5.975367e-10	1.217718e+01	3.949273e+01
2.230000e-06	1.793706e-06	6.127815e-10	1.248457e+01	4.052695e+01
2.240000e-06	1.837769e-06	6.301605e-10	1.279125e+01	4.154044e+01
2.250000e-06	1.881738e-06	6.451019e-10	1.309729e+01	4.253315e+01
2.260000e-06	1.925604e-06	6.584446e-10	1.340261e+01	4.350515e+01
2.270000e-06	1.969455e-06	6.707370e-10	1.370782e+01	4.445652e+01
2.280000e-06	2.013251e-06	6.838605e-10	1.401265e+01	4.538743e+01
2.290000e-06	2.056959e-06	6.973340e-10	1.431686e+01	4.629808e+01
2.300000e-06	2.100569e-06	7.091400e-10	1.462040e+01	4.718873e+01
2.310000e-06	2.144102e-06	7.191706e-10	1.492340e+01	4.805967e+01
2.320000e-06	2.187549e-06	7.296145e-10	1.522580e+01	4.891124e+01
2.330000e-06	2.230872e-06	7.406736e-10	1.552733e+01	4.974382e+01
2.340000e-06	2.273994e-06	7.520833e-10	1.582747e+01	5.055782e+01
2.350000e-06	2.316884e-06	7.637027e-10	1.612600e+01	5.135366e+01
2.360000e-06	2.359528e-06	7.768304e-10	1.642281e+01	5.213181e+01
2.370000e-06	2.402022e-06	7.902139e-10	1.671857e+01	5.289274e+01
2.380000e-06	2.444287e-06	8.027374e-10	1.701275e+01	5.363693e+01
2.390000e-06	2.486099e-06	8.110971e-10	1.730377e+01	5.436490e+01
2.400000e-06	2.527574e-06	8.161996e-10	1.759245e+01	5.507715e+01
2.410000e-06	2.568762e-06	8.234719e-10	1.787912e+01	5.577418e+01
2.420000e-06	2.609578e-06	8.349494e-10	1.816321e+01	5.645650e+01
2.430000e-06	2.650131e-06	8.481293e-10	1.844547e+01	5.712463e+01
2.440000e-06	2.690548e-06	8.605057e-10	1.872678e+01	5.777906e+01
2.450000e-06	2.730790e-06	8.683524e-10	1.900687e+01	5.842027e+01
2.460000e-06	2.770855e-06	8.737738e-10	1.928573e+01	5.904874e+01
2.470000e-06	2.810781e-06	8.790367e-10	1.956362e+01	5.966493e+01
2.480000e-06	2.850567e-06	8.853804e-10	1.984054e+01	6.026929e+01
2.490000e-06	2.890211e-06	8.924195e-10	2.011647e+01	6.086223e+01
2.500000e-06	2.929680e-06	9.024027e-10	2.039119e+01	6.144417e+01
2.510000e-06	2.968990e-06	9.146693e-10	2.066480e+01	6.201547e+01
2.520000e-06	3.008167e-06	9.245665e-10	2.093748e+01	6.257651e+01
2.530000e-06	3.047213e-06	9.329742e-10	2.120924e+01	6.312761e+01
2.540000e-06	3.086031e-06	9.393971e-10	2.147942e+01	6.366909e+01
2.550000e-06	3.124558e-06	9.445977e-10	2.174758e+01	6.420123e+01
2.560000e-06	3.162849e-06	9.492686e-10	2.201410e+01	6.472431e+01
2.570000e-06	3.200931e-06	9.556108e-10	2.227915e+01	6.523855e+01
2.580000e-06	3.238816e-06	9.648639e-10	2.254284e+01	6.574418e+01
2.590000e-06	3.276527e-06	9.750604e-10	2.280531e+01	6.624139e+01
2.600000e-06	3.314051e-06	9.833320e-10	2.306649e+01	6.673036e+01
2.610000e-06	3.351348e-06	9.891109e-10	2.332609e+01	6.721124e+01
2.620000e-06	3.388364e-06	9.929679e-10	2.358373e+01	6.768417e+01
2.630000e-06	3.425057e-06	9.967748e-10	2.383911e+01	6.814926e+01
2.640000e-06	3.461470e-06	9.999556e-10	2.409256e+01	6.860662e+01
2.650000e-06	3.497725e-06	1.006683e-09	2.434490e+01	6.905633e+01
2.660000e-06	3.533787e-06	1.014385e-09	2.459590e+01	6.949847e+01
2.670000e-06	3.569592e-06	1.020950e-09	2.484511e+01	6.993311e+01
2.680000e-06	3.605230e-06	1.027172e-09	2.509316e+01	7.036028e+01
2.690000e-06	3.640795e-06	1.030474e-09	2.534069e+01	7.078005e+01
2.700000e-06	3.676281e-06	1.034108e-09	2.558769e+01	7.119244e+01
2.710000e-06	3.711587e-06	1.040403e-09	2.583342e+01	7.159750e+01
2.720000e-06	3.746551e-06	1.045683e-09	2.607678e+01	7.199524e+01
2.730000e-06	3.781094e-06	1.049429e-09	2.631721e+01	7.238571e+01
2.740000e-06	3.815247e-06	1.051816e-09	2.655492e+01	7.276892e+01
2.750000e-06	3.848927e-06	1.054472e-09	2.678934e+01	7.314491e+01
2.760000e-06	3.882094e-06	1.059392e-09	2.702019e+01	7.351370e+01
2.770000e-06	3.914851e-06	1.067055e-09	2.724818e+01	7.387533e+01
2.780000e-06	3.947270e-06	1.075561e-09	2.747383e+01	7.422983e+01
2.790000e-06	3.979389e-06	1.081796e-09	2.769738e+01	7.457724e+01
2.800000e-06	4.011272e-06	1.086299e-09	2.791929e+01	7.491761e+01
2.810000e-06	4.042979e-06	1.089170e-09	2.813998e+01	7.525099e+01
2.820000e-06	4.074537e-06	1.090609e-09	2.835963e+01	7.557743e+01
2.830000e-06	4.105946e-06	1.093655e-09	2.857825e+01	7.589700e+01
2.840000e-06	4.137089e-06	1.098652e-09	2.879501e+01	7.620978e+01
2.850000e-06	4.167912e-06	1.103146e-09	2.900954e+01	7.651582e+01
2.860000e-06	4.198406e-06	1.107651e-09	2.922178e+01	7.681523e+01
2.870000e-06	4.228557e-06	1.112194e-09	2.943165e+01	7.710808e+01
2.880000e-06	4.258431e-06	1.115240e-09	2.963957e+01	7.739448e+01
2.890000e-06	4.288072e-06	1.117420e-09	2.984588e+01	7.767453e+01
2.900000e-06	4.317470e-06	1.119309e-09	3.005050e+01	7.794833e+01
2.910000e-06	4.346571e-06	1.123124e-09	3.025305e+01	7.821600e+01
