# Temperatura_=_-9.93
# Concentracion g/m^3_=_1620.0
# C_Vs_to_Am_M_A/Vsm_=_65563218390.804596
# pendiente_HvsI_1/m_=_3716.3
# ordenada_HvsI_A/m_=_1297.0
# frecuencia_Hz_=_135101.12105530303

Tiempo_(s)	Campo_(V.s)	Magnetizacion_(V.s)	Campo_(kA/m)	Magnetizacion_(A/m)
0.000000e+00	-5.512821e-06	-8.340732e-10	-3.837563e+01	-5.448018e+01
1.000000e-08	-5.513003e-06	-8.311731e-10	-3.837689e+01	-5.447451e+01
2.000000e-08	-5.512911e-06	-8.284042e-10	-3.837625e+01	-5.447063e+01
3.000000e-08	-5.512461e-06	-8.269239e-10	-3.837312e+01	-5.446849e+01
4.000000e-08	-5.511592e-06	-8.274671e-10	-3.836707e+01	-5.446804e+01
5.000000e-08	-5.510211e-06	-8.299583e-10	-3.835746e+01	-5.446923e+01
6.000000e-08	-5.508160e-06	-8.357556e-10	-3.834318e+01	-5.447195e+01
7.000000e-08	-5.505399e-06	-8.454023e-10	-3.832396e+01	-5.447611e+01
8.000000e-08	-5.502118e-06	-8.294672e-10	-3.830112e+01	-5.448159e+01
9.000000e-08	-5.498466e-06	-8.128539e-10	-3.827570e+01	-5.448828e+01
1.000000e-07	-5.494435e-06	-8.442744e-10	-3.824764e+01	-5.449601e+01
1.100000e-07	-5.490048e-06	-8.636388e-10	-3.821710e+01	-5.450465e+01
1.200000e-07	-5.485424e-06	-8.163451e-10	-3.818491e+01	-5.451404e+01
1.300000e-07	-5.480597e-06	-8.000117e-10	-3.815131e+01	-5.452400e+01
1.400000e-07	-5.475434e-06	-8.144355e-10	-3.811537e+01	-5.453435e+01
1.500000e-07	-5.469842e-06	-8.732455e-10	-3.807644e+01	-5.454493e+01
1.600000e-07	-5.463834e-06	-8.176873e-10	-3.803462e+01	-5.455554e+01
1.700000e-07	-5.457429e-06	-8.135872e-10	-3.799003e+01	-5.456601e+01
1.800000e-07	-5.450546e-06	-8.185674e-10	-3.794212e+01	-5.457613e+01
1.900000e-07	-5.443260e-06	-8.545195e-10	-3.789140e+01	-5.458572e+01
2.000000e-07	-5.435706e-06	-8.013308e-10	-3.783881e+01	-5.459460e+01
2.100000e-07	-5.427942e-06	-7.856947e-10	-3.778477e+01	-5.460259e+01
2.200000e-07	-5.419888e-06	-7.952848e-10	-3.772870e+01	-5.460951e+01
2.300000e-07	-5.411499e-06	-8.223672e-10	-3.767031e+01	-5.461518e+01
2.400000e-07	-5.402654e-06	-8.126131e-10	-3.760874e+01	-5.461945e+01
2.500000e-07	-5.393185e-06	-7.885356e-10	-3.754282e+01	-5.462216e+01
2.600000e-07	-5.383047e-06	-8.020034e-10	-3.747225e+01	-5.462315e+01
2.700000e-07	-5.372326e-06	-8.030288e-10	-3.739762e+01	-5.462231e+01
2.800000e-07	-5.361141e-06	-8.051318e-10	-3.731976e+01	-5.461948e+01
2.900000e-07	-5.349483e-06	-7.817122e-10	-3.723860e+01	-5.461457e+01
3.000000e-07	-5.337449e-06	-8.096236e-10	-3.715484e+01	-5.460747e+01
3.100000e-07	-5.325047e-06	-8.052779e-10	-3.706850e+01	-5.459809e+01
3.200000e-07	-5.312282e-06	-8.189543e-10	-3.697964e+01	-5.458635e+01
3.300000e-07	-5.299077e-06	-7.786357e-10	-3.688772e+01	-5.457219e+01
3.400000e-07	-5.285423e-06	-8.040502e-10	-3.679267e+01	-5.455555e+01
3.500000e-07	-5.271415e-06	-7.937031e-10	-3.669516e+01	-5.453639e+01
3.600000e-07	-5.257007e-06	-7.919998e-10	-3.659486e+01	-5.451469e+01
3.700000e-07	-5.242042e-06	-7.664779e-10	-3.649069e+01	-5.449044e+01
3.800000e-07	-5.226584e-06	-8.128680e-10	-3.638308e+01	-5.446363e+01
3.900000e-07	-5.210612e-06	-7.996454e-10	-3.627190e+01	-5.443427e+01
4.000000e-07	-5.194104e-06	-7.756268e-10	-3.615698e+01	-5.440239e+01
4.100000e-07	-5.177279e-06	-7.878876e-10	-3.603987e+01	-5.436801e+01
4.200000e-07	-5.160190e-06	-8.219107e-10	-3.592091e+01	-5.433118e+01
4.300000e-07	-5.142719e-06	-7.710147e-10	-3.579929e+01	-5.429195e+01
4.400000e-07	-5.124874e-06	-7.611970e-10	-3.567507e+01	-5.425037e+01
4.500000e-07	-5.106751e-06	-8.104808e-10	-3.554891e+01	-5.420650e+01
4.600000e-07	-5.088257e-06	-8.007404e-10	-3.542017e+01	-5.416043e+01
4.700000e-07	-5.069389e-06	-7.573890e-10	-3.528882e+01	-5.411222e+01
4.800000e-07	-5.050259e-06	-7.988534e-10	-3.515565e+01	-5.406196e+01
4.900000e-07	-5.030797e-06	-8.188987e-10	-3.502018e+01	-5.400972e+01
5.000000e-07	-5.011000e-06	-7.675210e-10	-3.488237e+01	-5.395559e+01
5.100000e-07	-4.991016e-06	-7.803028e-10	-3.474326e+01	-5.389966e+01
5.200000e-07	-4.970792e-06	-8.119124e-10	-3.460247e+01	-5.384200e+01
5.300000e-07	-4.950109e-06	-7.722850e-10	-3.445849e+01	-5.378271e+01
5.400000e-07	-4.929013e-06	-7.568465e-10	-3.431164e+01	-5.372186e+01
5.500000e-07	-4.907650e-06	-8.094749e-10	-3.416294e+01	-5.365952e+01
5.600000e-07	-4.885938e-06	-7.889226e-10	-3.401179e+01	-5.359577e+01
5.700000e-07	-4.863872e-06	-7.635362e-10	-3.385819e+01	-5.353068e+01
5.800000e-07	-4.841524e-06	-7.955806e-10	-3.370262e+01	-5.346430e+01
5.900000e-07	-4.818833e-06	-8.066753e-10	-3.354466e+01	-5.339669e+01
6.000000e-07	-4.795861e-06	-7.670547e-10	-3.338475e+01	-5.332790e+01
6.100000e-07	-4.772607e-06	-7.896350e-10	-3.322288e+01	-5.325795e+01
6.200000e-07	-4.749044e-06	-8.007032e-10	-3.305885e+01	-5.318687e+01
6.300000e-07	-4.725242e-06	-7.799908e-10	-3.289317e+01	-5.311469e+01
6.400000e-07	-4.701192e-06	-7.777094e-10	-3.272575e+01	-5.304141e+01
6.500000e-07	-4.676809e-06	-8.025987e-10	-3.255601e+01	-5.296703e+01
6.600000e-07	-4.651961e-06	-7.816905e-10	-3.238304e+01	-5.289153e+01
6.700000e-07	-4.626660e-06	-7.806066e-10	-3.220692e+01	-5.281490e+01
6.800000e-07	-4.600904e-06	-7.914994e-10	-3.202763e+01	-5.273709e+01
6.900000e-07	-4.574603e-06	-7.861419e-10	-3.184454e+01	-5.265807e+01
7.000000e-07	-4.547700e-06	-7.712363e-10	-3.165726e+01	-5.257777e+01
7.100000e-07	-4.520369e-06	-7.833835e-10	-3.146701e+01	-5.249614e+01
7.200000e-07	-4.492842e-06	-7.774294e-10	-3.127539e+01	-5.241310e+01
7.300000e-07	-4.465158e-06	-7.717210e-10	-3.108267e+01	-5.232855e+01
7.400000e-07	-4.437310e-06	-7.762931e-10	-3.088882e+01	-5.224242e+01
7.500000e-07	-4.409222e-06	-7.751890e-10	-3.069330e+01	-5.215460e+01
7.600000e-07	-4.380849e-06	-7.655736e-10	-3.049579e+01	-5.206497e+01
7.700000e-07	-4.352251e-06	-7.690465e-10	-3.029672e+01	-5.197342e+01
7.800000e-07	-4.323344e-06	-7.703581e-10	-3.009549e+01	-5.187984e+01
7.900000e-07	-4.294021e-06	-7.638047e-10	-2.989137e+01	-5.178408e+01
8.000000e-07	-4.264351e-06	-7.670931e-10	-2.968482e+01	-5.168601e+01
8.100000e-07	-4.234419e-06	-7.667498e-10	-2.947647e+01	-5.158551e+01
8.200000e-07	-4.204242e-06	-7.548331e-10	-2.926640e+01	-5.148242e+01
8.300000e-07	-4.173843e-06	-7.441132e-10	-2.905479e+01	-5.137661e+01
8.400000e-07	-4.143135e-06	-7.457490e-10	-2.884102e+01	-5.126793e+01
8.500000e-07	-4.112058e-06	-7.403501e-10	-2.862469e+01	-5.115625e+01
8.600000e-07	-4.080673e-06	-7.409630e-10	-2.840621e+01	-5.104141e+01
8.700000e-07	-4.049107e-06	-7.486032e-10	-2.818648e+01	-5.092329e+01
8.800000e-07	-4.017417e-06	-7.557504e-10	-2.796588e+01	-5.080174e+01
8.900000e-07	-3.985545e-06	-7.454302e-10	-2.774402e+01	-5.067663e+01
9.000000e-07	-3.953459e-06	-7.433321e-10	-2.752065e+01	-5.054783e+01
9.100000e-07	-3.921079e-06	-7.372506e-10	-2.729526e+01	-5.041522e+01
9.200000e-07	-3.888371e-06	-7.268358e-10	-2.706757e+01	-5.027870e+01
9.300000e-07	-3.855293e-06	-7.185529e-10	-2.683731e+01	-5.013814e+01
9.400000e-07	-3.821691e-06	-7.266548e-10	-2.660340e+01	-4.999345e+01
9.500000e-07	-3.787517e-06	-7.285942e-10	-2.636551e+01	-4.984454e+01
9.600000e-07	-3.752928e-06	-7.279648e-10	-2.612473e+01	-4.969133e+01
9.700000e-07	-3.717989e-06	-7.268621e-10	-2.588152e+01	-4.953375e+01
9.800000e-07	-3.682712e-06	-7.264745e-10	-2.563595e+01	-4.937173e+01
9.900000e-07	-3.647217e-06	-7.168439e-10	-2.538886e+01	-4.920524e+01
1.000000e-06	-3.611591e-06	-7.112979e-10	-2.514086e+01	-4.903423e+01
1.010000e-06	-3.575840e-06	-7.083576e-10	-2.489199e+01	-4.885867e+01
1.020000e-06	-3.539960e-06	-7.063991e-10	-2.464222e+01	-4.867855e+01
1.030000e-06	-3.503928e-06	-7.040370e-10	-2.439140e+01	-4.849387e+01
1.040000e-06	-3.467746e-06	-7.081696e-10	-2.413954e+01	-4.830464e+01
1.050000e-06	-3.431293e-06	-7.077583e-10	-2.388578e+01	-4.811087e+01
1.060000e-06	-3.394484e-06	-7.022156e-10	-2.362954e+01	-4.791260e+01
1.070000e-06	-3.357388e-06	-6.979324e-10	-2.337131e+01	-4.770986e+01
1.080000e-06	-3.320067e-06	-6.921420e-10	-2.311151e+01	-4.750271e+01
1.090000e-06	-3.282564e-06	-6.857606e-10	-2.285045e+01	-4.729122e+01
1.100000e-06	-3.244857e-06	-6.812671e-10	-2.258796e+01	-4.707544e+01
1.110000e-06	-3.206918e-06	-6.809805e-10	-2.232387e+01	-4.685545e+01
1.120000e-06	-3.168758e-06	-6.792439e-10	-2.205823e+01	-4.663135e+01
1.130000e-06	-3.130421e-06	-6.787322e-10	-2.179136e+01	-4.640322e+01
1.140000e-06	-3.091884e-06	-6.777570e-10	-2.152310e+01	-4.617115e+01
1.150000e-06	-3.053139e-06	-6.759804e-10	-2.125339e+01	-4.593525e+01
1.160000e-06	-3.014174e-06	-6.716422e-10	-2.098214e+01	-4.569561e+01
1.170000e-06	-2.974980e-06	-6.693370e-10	-2.070931e+01	-4.545234e+01
1.180000e-06	-2.935671e-06	-6.653431e-10	-2.043568e+01	-4.520554e+01
1.190000e-06	-2.896213e-06	-6.647201e-10	-2.016100e+01	-4.495531e+01
1.200000e-06	-2.856532e-06	-6.630234e-10	-1.988478e+01	-4.470174e+01
1.210000e-06	-2.816730e-06	-6.610015e-10	-1.960771e+01	-4.444493e+01
1.220000e-06	-2.776778e-06	-6.548966e-10	-1.932960e+01	-4.418496e+01
1.230000e-06	-2.736662e-06	-6.506765e-10	-1.905034e+01	-4.392191e+01
1.240000e-06	-2.696466e-06	-6.450083e-10	-1.877053e+01	-4.365585e+01
1.250000e-06	-2.656000e-06	-6.412460e-10	-1.848884e+01	-4.338683e+01
1.260000e-06	-2.615255e-06	-6.363289e-10	-1.820521e+01	-4.311490e+01
1.270000e-06	-2.574274e-06	-6.336908e-10	-1.791993e+01	-4.284009e+01
1.280000e-06	-2.532966e-06	-6.308321e-10	-1.763238e+01	-4.256241e+01
1.290000e-06	-2.491403e-06	-6.263181e-10	-1.734305e+01	-4.228186e+01
1.300000e-06	-2.449580e-06	-6.197260e-10	-1.705192e+01	-4.199841e+01
1.310000e-06	-2.407464e-06	-6.126231e-10	-1.675874e+01	-4.171204e+01
1.320000e-06	-2.365048e-06	-6.056812e-10	-1.646347e+01	-4.142267e+01
1.330000e-06	-2.322327e-06	-5.984135e-10	-1.616609e+01	-4.113022e+01
1.340000e-06	-2.279357e-06	-5.934256e-10	-1.586697e+01	-4.083459e+01
1.350000e-06	-2.236227e-06	-5.929057e-10	-1.556673e+01	-4.053565e+01
1.360000e-06	-2.192897e-06	-5.913915e-10	-1.526511e+01	-4.023324e+01
1.370000e-06	-2.149346e-06	-5.877374e-10	-1.496194e+01	-3.992719e+01
1.380000e-06	-2.105723e-06	-5.838133e-10	-1.465827e+01	-3.961729e+01
1.390000e-06	-2.062113e-06	-5.778066e-10	-1.435470e+01	-3.930332e+01
1.400000e-06	-2.018376e-06	-5.700950e-10	-1.405024e+01	-3.898502e+01
1.410000e-06	-1.974511e-06	-5.631630e-10	-1.374488e+01	-3.866212e+01
1.420000e-06	-1.930571e-06	-5.583940e-10	-1.343902e+01	-3.833430e+01
1.430000e-06	-1.886545e-06	-5.523010e-10	-1.313254e+01	-3.800126e+01
1.440000e-06	-1.842474e-06	-5.478610e-10	-1.282576e+01	-3.766263e+01
1.450000e-06	-1.798304e-06	-5.440718e-10	-1.251828e+01	-3.731805e+01
1.460000e-06	-1.754032e-06	-5.399404e-10	-1.221010e+01	-3.696712e+01
1.470000e-06	-1.709657e-06	-5.328157e-10	-1.190120e+01	-3.660943e+01
1.480000e-06	-1.665074e-06	-5.245182e-10	-1.159085e+01	-3.624455e+01
1.490000e-06	-1.620352e-06	-5.167117e-10	-1.127953e+01	-3.587203e+01
1.500000e-06	-1.575595e-06	-5.105493e-10	-1.096797e+01	-3.549141e+01
1.510000e-06	-1.530699e-06	-5.029159e-10	-1.065544e+01	-3.510223e+01
1.520000e-06	-1.485642e-06	-4.950343e-10	-1.034179e+01	-3.470398e+01
1.530000e-06	-1.440509e-06	-4.885350e-10	-1.002762e+01	-3.429619e+01
1.540000e-06	-1.395336e-06	-4.826815e-10	-9.713158e+00	-3.387835e+01
1.550000e-06	-1.349986e-06	-4.740960e-10	-9.397468e+00	-3.344997e+01
1.560000e-06	-1.304468e-06	-4.640244e-10	-9.080609e+00	-3.301053e+01
1.570000e-06	-1.258927e-06	-4.537149e-10	-8.763589e+00	-3.255956e+01
1.580000e-06	-1.213331e-06	-4.435951e-10	-8.446192e+00	-3.209655e+01
1.590000e-06	-1.167628e-06	-4.329433e-10	-8.128044e+00	-3.162102e+01
1.600000e-06	-1.121820e-06	-4.246620e-10	-7.809170e+00	-3.113250e+01
1.610000e-06	-1.075906e-06	-4.181885e-10	-7.489550e+00	-3.063054e+01
1.620000e-06	-1.029903e-06	-4.100656e-10	-7.169316e+00	-3.011469e+01
1.630000e-06	-9.837975e-07	-4.002011e-10	-6.848371e+00	-2.958454e+01
1.640000e-06	-9.375978e-07	-3.904208e-10	-6.526768e+00	-2.903969e+01
1.650000e-06	-8.913809e-07	-3.796384e-10	-6.205044e+00	-2.847978e+01
1.660000e-06	-8.451750e-07	-3.687027e-10	-5.883398e+00	-2.790446e+01
1.670000e-06	-7.989512e-07	-3.580454e-10	-5.561626e+00	-2.731344e+01
1.680000e-06	-7.526333e-07	-3.490649e-10	-5.239200e+00	-2.670643e+01
1.690000e-06	-7.062861e-07	-3.417074e-10	-4.916570e+00	-2.608322e+01
1.700000e-06	-6.599255e-07	-3.340755e-10	-4.593847e+00	-2.544359e+01
1.710000e-06	-6.134854e-07	-3.254735e-10	-4.270570e+00	-2.478741e+01
1.720000e-06	-5.668853e-07	-3.156860e-10	-3.946179e+00	-2.411455e+01
1.730000e-06	-5.202628e-07	-3.041872e-10	-3.621632e+00	-2.342496e+01
1.740000e-06	-4.736814e-07	-2.895954e-10	-3.297372e+00	-2.271862e+01
1.750000e-06	-4.270387e-07	-2.766591e-10	-2.972684e+00	-2.199556e+01
1.760000e-06	-3.803913e-07	-2.674106e-10	-2.647964e+00	-2.125587e+01
1.770000e-06	-3.337198e-07	-2.596367e-10	-2.323076e+00	-2.049966e+01
1.780000e-06	-2.869896e-07	-2.505813e-10	-1.997781e+00	-1.972712e+01
1.790000e-06	-2.401843e-07	-2.415431e-10	-1.671961e+00	-1.893848e+01
1.800000e-06	-1.934089e-07	-2.310626e-10	-1.346350e+00	-1.813402e+01
1.810000e-06	-1.466818e-07	-2.180781e-10	-1.021076e+00	-1.731407e+01
1.820000e-06	-9.997960e-08	-2.047636e-10	-6.959740e-01	-1.647902e+01
1.830000e-06	-5.328905e-08	-1.919695e-10	-3.709536e-01	-1.562928e+01
1.840000e-06	-6.639464e-09	-1.790473e-10	-4.621837e-02	-1.476533e+01
1.850000e-06	4.010462e-08	-1.686722e-10	2.791747e-01	-1.388770e+01
1.860000e-06	8.692573e-08	-1.587758e-10	6.051039e-01	-1.299694e+01
1.870000e-06	1.336072e-07	-1.474983e-10	9.300607e-01	-1.209367e+01
1.880000e-06	1.802647e-07	-1.352519e-10	1.254852e+00	-1.117852e+01
1.890000e-06	2.269828e-07	-1.229052e-10	1.580063e+00	-1.025219e+01
1.900000e-06	2.737200e-07	-1.109313e-10	1.905409e+00	-9.315393e+00
1.910000e-06	3.203815e-07	-9.959826e-11	2.230227e+00	-8.368872e+00
1.920000e-06	3.670153e-07	-8.616354e-11	2.554852e+00	-7.413409e+00
1.930000e-06	4.136753e-07	-7.041311e-11	2.879659e+00	-6.449807e+00
1.940000e-06	4.602857e-07	-5.563235e-11	3.204122e+00	-5.478892e+00
1.950000e-06	5.068590e-07	-4.303682e-11	3.528326e+00	-4.501508e+00
1.960000e-06	5.533925e-07	-3.128962e-11	3.852253e+00	-3.518517e+00
1.970000e-06	5.998159e-07	-1.972327e-11	4.175414e+00	-2.530789e+00
1.980000e-06	6.462346e-07	-8.443887e-12	4.498542e+00	-1.539205e+00
1.990000e-06	6.926418e-07	3.271150e-12	4.821590e+00	-5.446508e-01
2.000000e-06	7.389152e-07	1.740711e-11	5.143706e+00	4.519885e-01
2.010000e-06	7.850697e-07	3.197729e-11	5.464995e+00	1.449829e+00
2.020000e-06	8.311509e-07	4.619299e-11	5.785774e+00	2.447993e+00
2.030000e-06	8.772502e-07	6.247828e-11	6.106678e+00	3.445612e+00
2.040000e-06	9.233444e-07	7.888115e-11	6.427548e+00	4.441829e+00
2.050000e-06	9.694027e-07	9.275130e-11	6.748167e+00	5.435805e+00
2.060000e-06	1.015429e-06	1.044809e-10	7.068563e+00	6.426719e+00
2.070000e-06	1.061370e-06	1.161280e-10	7.388363e+00	7.413769e+00
2.080000e-06	1.107232e-06	1.283676e-10	7.707619e+00	8.396180e+00
2.090000e-06	1.153035e-06	1.446144e-10	8.026459e+00	9.373202e+00
2.100000e-06	1.198728e-06	1.597794e-10	8.344535e+00	1.034412e+01
2.110000e-06	1.244347e-06	1.746271e-10	8.662094e+00	1.130823e+01
2.120000e-06	1.289891e-06	1.892835e-10	8.979136e+00	1.226489e+01
2.130000e-06	1.335287e-06	2.033348e-10	9.295145e+00	1.321348e+01
2.140000e-06	1.380579e-06	2.171197e-10	9.610428e+00	1.415339e+01
2.150000e-06	1.425801e-06	2.296774e-10	9.925230e+00	1.508410e+01
2.160000e-06	1.470910e-06	2.418372e-10	1.023924e+01	1.600507e+01
2.170000e-06	1.515951e-06	2.549939e-10	1.055277e+01	1.691584e+01
2.180000e-06	1.560855e-06	2.663162e-10	1.086536e+01	1.781596e+01
2.190000e-06	1.605519e-06	2.794906e-10	1.117627e+01	1.870504e+01
2.200000e-06	1.650045e-06	2.927756e-10	1.148623e+01	1.958271e+01
2.210000e-06	1.694550e-06	3.017831e-10	1.179603e+01	2.044865e+01
2.220000e-06	1.738997e-06	3.103222e-10	1.210543e+01	2.130258e+01
2.230000e-06	1.783281e-06	3.204340e-10	1.241370e+01	2.214423e+01
2.240000e-06	1.827402e-06	3.353944e-10	1.272084e+01	2.297339e+01
2.250000e-06	1.871420e-06	3.508906e-10	1.302725e+01	2.378988e+01
2.260000e-06	1.915349e-06	3.656632e-10	1.333305e+01	2.459354e+01
2.270000e-06	1.959176e-06	3.774684e-10	1.363813e+01	2.538425e+01
2.280000e-06	2.003002e-06	3.858524e-10	1.394321e+01	2.616192e+01
2.290000e-06	2.046818e-06	3.936156e-10	1.424823e+01	2.692647e+01
2.300000e-06	2.090564e-06	4.029383e-10	1.455275e+01	2.767787e+01
2.310000e-06	2.134222e-06	4.119183e-10	1.485666e+01	2.841610e+01
2.320000e-06	2.177771e-06	4.257802e-10	1.515981e+01	2.914115e+01
2.330000e-06	2.221211e-06	4.424976e-10	1.546220e+01	2.985305e+01
2.340000e-06	2.264564e-06	4.570520e-10	1.576399e+01	3.055184e+01
2.350000e-06	2.307742e-06	4.668460e-10	1.606456e+01	3.123756e+01
2.360000e-06	2.350627e-06	4.720609e-10	1.636309e+01	3.191029e+01
2.370000e-06	2.393190e-06	4.769242e-10	1.665938e+01	3.257009e+01
2.380000e-06	2.435358e-06	4.856706e-10	1.695292e+01	3.321705e+01
2.390000e-06	2.477239e-06	4.968157e-10	1.724445e+01	3.385127e+01
2.400000e-06	2.518814e-06	5.069889e-10	1.753386e+01	3.447283e+01
2.410000e-06	2.559962e-06	5.171412e-10	1.782030e+01	3.508185e+01
2.420000e-06	2.600821e-06	5.280277e-10	1.810473e+01	3.567842e+01
2.430000e-06	2.641491e-06	5.368011e-10	1.838784e+01	3.626265e+01
2.440000e-06	2.681957e-06	5.411948e-10	1.866953e+01	3.683465e+01
2.450000e-06	2.722178e-06	5.454142e-10	1.894952e+01	3.739451e+01
2.460000e-06	2.762222e-06	5.516201e-10	1.922827e+01	3.794235e+01
2.470000e-06	2.802141e-06	5.587902e-10	1.950615e+01	3.847826e+01
2.480000e-06	2.841939e-06	5.646720e-10	1.978319e+01	3.900234e+01
2.490000e-06	2.881635e-06	5.696837e-10	2.005952e+01	3.951469e+01
2.500000e-06	2.921239e-06	5.752263e-10	2.033521e+01	4.001539e+01
2.510000e-06	2.960737e-06	5.844285e-10	2.061016e+01	4.050453e+01
2.520000e-06	3.000090e-06	5.931783e-10	2.088410e+01	4.098220e+01
2.530000e-06	3.039263e-06	6.016438e-10	2.115679e+01	4.144847e+01
2.540000e-06	3.078137e-06	6.124136e-10	2.142740e+01	4.190344e+01
2.550000e-06	3.116756e-06	6.200259e-10	2.169624e+01	4.234717e+01
2.560000e-06	3.155189e-06	6.216220e-10	2.196377e+01	4.277973e+01
2.570000e-06	3.193348e-06	6.231292e-10	2.222941e+01	4.320121e+01
2.580000e-06	3.231251e-06	6.294050e-10	2.249325e+01	4.361168e+01
2.590000e-06	3.268932e-06	6.381901e-10	2.275555e+01	4.401121e+01
2.600000e-06	3.306412e-06	6.451801e-10	2.301646e+01	4.439989e+01
2.610000e-06	3.343728e-06	6.507746e-10	2.327622e+01	4.477778e+01
2.620000e-06	3.380823e-06	6.561192e-10	2.353445e+01	4.514498e+01
2.630000e-06	3.417640e-06	6.604569e-10	2.379074e+01	4.550158e+01
2.640000e-06	3.454160e-06	6.635972e-10	2.404496e+01	4.584766e+01
2.650000e-06	3.490393e-06	6.686292e-10	2.429718e+01	4.618334e+01
2.660000e-06	3.526416e-06	6.752743e-10	2.454794e+01	4.650871e+01
2.670000e-06	3.562330e-06	6.802150e-10	2.479795e+01	4.682391e+01
2.680000e-06	3.598136e-06	6.835070e-10	2.504720e+01	4.712905e+01
2.690000e-06	3.633777e-06	6.864916e-10	2.529530e+01	4.742427e+01
2.700000e-06	3.669249e-06	6.903988e-10	2.554223e+01	4.770972e+01
2.710000e-06	3.704576e-06	6.960652e-10	2.578814e+01	4.798555e+01
2.720000e-06	3.739628e-06	7.024239e-10	2.603215e+01	4.825195e+01
2.730000e-06	3.774272e-06	7.067696e-10	2.627331e+01	4.850908e+01
2.740000e-06	3.808505e-06	7.091828e-10	2.651161e+01	4.875714e+01
2.750000e-06	3.842280e-06	7.123763e-10	2.674672e+01	4.899634e+01
2.760000e-06	3.875604e-06	7.159431e-10	2.697870e+01	4.922689e+01
2.770000e-06	3.908466e-06	7.174798e-10	2.720746e+01	4.944902e+01
2.780000e-06	3.940872e-06	7.197399e-10	2.743304e+01	4.966296e+01
2.790000e-06	3.973045e-06	7.239046e-10	2.765700e+01	4.986897e+01
2.800000e-06	4.005040e-06	7.264103e-10	2.787973e+01	5.006731e+01
2.810000e-06	4.036830e-06	7.282626e-10	2.810102e+01	5.025822e+01
2.820000e-06	4.068486e-06	7.300642e-10	2.832138e+01	5.044200e+01
2.830000e-06	4.099975e-06	7.314854e-10	2.854058e+01	5.061892e+01
2.840000e-06	4.131164e-06	7.341673e-10	2.875769e+01	5.078926e+01
2.850000e-06	4.162053e-06	7.376839e-10	2.897272e+01	5.095332e+01
2.860000e-06	4.192636e-06	7.417280e-10	2.918561e+01	5.111138e+01
2.870000e-06	4.222854e-06	7.450264e-10	2.939596e+01	5.126374e+01
2.880000e-06	4.252822e-06	7.470414e-10	2.960457e+01	5.141069e+01
2.890000e-06	4.282571e-06	7.478339e-10	2.981166e+01	5.155252e+01
2.900000e-06	4.311996e-06	7.488075e-10	3.001649e+01	5.168952e+01
