# Temperatura_=_-0.5
# Concentracion g/m^3_=_1620.0
# C_Vs_to_Am_M_A/Vsm_=_65563218390.804596
# pendiente_HvsI_1/m_=_3716.3
# ordenada_HvsI_A/m_=_1297.0
# frecuencia_Hz_=_135095.50631782543

Tiempo_(s)	Campo_(V.s)	Magnetizacion_(V.s)	Campo_(kA/m)	Magnetizacion_(A/m)
0.000000e+00	-5.521185e-06	-1.377914e-09	-3.837808e+01	-8.996089e+01
1.000000e-08	-5.521332e-06	-1.374237e-09	-3.837910e+01	-8.992648e+01
2.000000e-08	-5.521125e-06	-1.375642e-09	-3.837766e+01	-8.989048e+01
3.000000e-08	-5.520446e-06	-1.381997e-09	-3.837294e+01	-8.985274e+01
4.000000e-08	-5.519242e-06	-1.387288e-09	-3.836457e+01	-8.981316e+01
5.000000e-08	-5.517394e-06	-1.394529e-09	-3.835173e+01	-8.977156e+01
6.000000e-08	-5.514946e-06	-1.388536e-09	-3.833471e+01	-8.972782e+01
7.000000e-08	-5.512001e-06	-1.360708e-09	-3.831424e+01	-8.968175e+01
8.000000e-08	-5.508630e-06	-1.344048e-09	-3.829080e+01	-8.963321e+01
9.000000e-08	-5.504839e-06	-1.390354e-09	-3.826445e+01	-8.958200e+01
1.000000e-07	-5.500600e-06	-1.398769e-09	-3.823499e+01	-8.952797e+01
1.100000e-07	-5.496085e-06	-1.386385e-09	-3.820361e+01	-8.947093e+01
1.200000e-07	-5.491402e-06	-1.335583e-09	-3.817106e+01	-8.941072e+01
1.300000e-07	-5.486443e-06	-1.370702e-09	-3.813658e+01	-8.934716e+01
1.400000e-07	-5.481083e-06	-1.388742e-09	-3.809932e+01	-8.928008e+01
1.500000e-07	-5.475296e-06	-1.379138e-09	-3.805910e+01	-8.920934e+01
1.600000e-07	-5.469219e-06	-1.346741e-09	-3.801686e+01	-8.913478e+01
1.700000e-07	-5.462709e-06	-1.367927e-09	-3.797160e+01	-8.905627e+01
1.800000e-07	-5.455646e-06	-1.383676e-09	-3.792251e+01	-8.897367e+01
1.900000e-07	-5.448282e-06	-1.361658e-09	-3.787132e+01	-8.888689e+01
2.000000e-07	-5.440682e-06	-1.351601e-09	-3.781850e+01	-8.879582e+01
2.100000e-07	-5.432811e-06	-1.380900e-09	-3.776378e+01	-8.870038e+01
2.200000e-07	-5.424595e-06	-1.403064e-09	-3.770667e+01	-8.860051e+01
2.300000e-07	-5.416031e-06	-1.374972e-09	-3.764714e+01	-8.849618e+01
2.400000e-07	-5.406988e-06	-1.367968e-09	-3.758429e+01	-8.838734e+01
2.500000e-07	-5.397129e-06	-1.358113e-09	-3.751576e+01	-8.827400e+01
2.600000e-07	-5.386570e-06	-1.357195e-09	-3.744236e+01	-8.815617e+01
2.700000e-07	-5.375573e-06	-1.324029e-09	-3.736592e+01	-8.803388e+01
2.800000e-07	-5.364215e-06	-1.328755e-09	-3.728697e+01	-8.790719e+01
2.900000e-07	-5.352497e-06	-1.326501e-09	-3.720551e+01	-8.777617e+01
3.000000e-07	-5.340375e-06	-1.348222e-09	-3.712126e+01	-8.764090e+01
3.100000e-07	-5.327872e-06	-1.323121e-09	-3.703434e+01	-8.750149e+01
3.200000e-07	-5.314987e-06	-1.325512e-09	-3.694478e+01	-8.735807e+01
3.300000e-07	-5.301671e-06	-1.318955e-09	-3.685222e+01	-8.721077e+01
3.400000e-07	-5.287949e-06	-1.327246e-09	-3.675684e+01	-8.705974e+01
3.500000e-07	-5.273649e-06	-1.292254e-09	-3.665744e+01	-8.690515e+01
3.600000e-07	-5.258796e-06	-1.308581e-09	-3.655420e+01	-8.674717e+01
3.700000e-07	-5.243618e-06	-1.326999e-09	-3.644869e+01	-8.658597e+01
3.800000e-07	-5.227985e-06	-1.317276e-09	-3.634002e+01	-8.642176e+01
3.900000e-07	-5.211812e-06	-1.282277e-09	-3.622761e+01	-8.625471e+01
4.000000e-07	-5.195283e-06	-1.304202e-09	-3.611272e+01	-8.608503e+01
4.100000e-07	-5.178445e-06	-1.317379e-09	-3.599567e+01	-8.591290e+01
4.200000e-07	-5.161189e-06	-1.282760e-09	-3.587572e+01	-8.573853e+01
4.300000e-07	-5.143597e-06	-1.286783e-09	-3.575344e+01	-8.556209e+01
4.400000e-07	-5.125748e-06	-1.320628e-09	-3.562937e+01	-8.538377e+01
4.500000e-07	-5.107526e-06	-1.302832e-09	-3.550271e+01	-8.520373e+01
4.600000e-07	-5.088813e-06	-1.267863e-09	-3.537263e+01	-8.502215e+01
4.700000e-07	-5.069733e-06	-1.294946e-09	-3.524001e+01	-8.483917e+01
4.800000e-07	-5.050378e-06	-1.289534e-09	-3.510547e+01	-8.465492e+01
4.900000e-07	-5.030754e-06	-1.261998e-09	-3.496906e+01	-8.446952e+01
5.000000e-07	-5.010940e-06	-1.271574e-09	-3.483133e+01	-8.428308e+01
5.100000e-07	-4.990905e-06	-1.289565e-09	-3.469207e+01	-8.409568e+01
5.200000e-07	-4.970521e-06	-1.254321e-09	-3.455038e+01	-8.390737e+01
5.300000e-07	-4.949802e-06	-1.263015e-09	-3.440636e+01	-8.371820e+01
5.400000e-07	-4.928709e-06	-1.280842e-09	-3.425974e+01	-8.352819e+01
5.500000e-07	-4.907211e-06	-1.260622e-09	-3.411031e+01	-8.333734e+01
5.600000e-07	-4.885390e-06	-1.242584e-09	-3.395863e+01	-8.314562e+01
5.700000e-07	-4.863265e-06	-1.270389e-09	-3.380483e+01	-8.295298e+01
5.800000e-07	-4.840821e-06	-1.253468e-09	-3.364883e+01	-8.275936e+01
5.900000e-07	-4.818034e-06	-1.236347e-09	-3.349043e+01	-8.256466e+01
6.000000e-07	-4.794949e-06	-1.248131e-09	-3.332997e+01	-8.236876e+01
6.100000e-07	-4.771575e-06	-1.249213e-09	-3.316750e+01	-8.217154e+01
6.200000e-07	-4.747951e-06	-1.226034e-09	-3.300328e+01	-8.197285e+01
6.300000e-07	-4.724106e-06	-1.241685e-09	-3.283753e+01	-8.177250e+01
6.400000e-07	-4.699922e-06	-1.245453e-09	-3.266943e+01	-8.157031e+01
6.500000e-07	-4.675320e-06	-1.226896e-09	-3.249842e+01	-8.136608e+01
6.600000e-07	-4.650282e-06	-1.223246e-09	-3.232438e+01	-8.115959e+01
6.700000e-07	-4.624697e-06	-1.227507e-09	-3.214654e+01	-8.095061e+01
6.800000e-07	-4.598566e-06	-1.207957e-09	-3.196490e+01	-8.073891e+01
6.900000e-07	-4.571867e-06	-1.205733e-09	-3.177931e+01	-8.052423e+01
7.000000e-07	-4.544667e-06	-1.214394e-09	-3.159024e+01	-8.030632e+01
7.100000e-07	-4.517194e-06	-1.203164e-09	-3.139928e+01	-8.008493e+01
7.200000e-07	-4.489588e-06	-1.198714e-09	-3.120739e+01	-7.985981e+01
7.300000e-07	-4.461887e-06	-1.209721e-09	-3.101483e+01	-7.963070e+01
7.400000e-07	-4.434003e-06	-1.200592e-09	-3.082101e+01	-7.939734e+01
7.500000e-07	-4.405870e-06	-1.183973e-09	-3.062545e+01	-7.915949e+01
7.600000e-07	-4.377424e-06	-1.191394e-09	-3.042773e+01	-7.891691e+01
7.700000e-07	-4.348555e-06	-1.184427e-09	-3.022705e+01	-7.866937e+01
7.800000e-07	-4.319282e-06	-1.168777e-09	-3.002358e+01	-7.841666e+01
7.900000e-07	-4.289794e-06	-1.167614e-09	-2.981860e+01	-7.815857e+01
8.000000e-07	-4.260082e-06	-1.166482e-09	-2.961208e+01	-7.789491e+01
8.100000e-07	-4.230086e-06	-1.143166e-09	-2.940358e+01	-7.762551e+01
8.200000e-07	-4.199793e-06	-1.138289e-09	-2.919300e+01	-7.735021e+01
8.300000e-07	-4.169233e-06	-1.140852e-09	-2.898058e+01	-7.706887e+01
8.400000e-07	-4.138429e-06	-1.132971e-09	-2.876646e+01	-7.678138e+01
8.500000e-07	-4.107311e-06	-1.123734e-09	-2.855016e+01	-7.648765e+01
8.600000e-07	-4.075942e-06	-1.130388e-09	-2.833211e+01	-7.618759e+01
8.700000e-07	-4.044391e-06	-1.121688e-09	-2.811279e+01	-7.588116e+01
8.800000e-07	-4.012606e-06	-1.112428e-09	-2.789186e+01	-7.556831e+01
8.900000e-07	-3.980650e-06	-1.110609e-09	-2.766973e+01	-7.524904e+01
9.000000e-07	-3.948509e-06	-1.105773e-09	-2.744631e+01	-7.492337e+01
9.100000e-07	-3.916046e-06	-1.089525e-09	-2.722066e+01	-7.459131e+01
9.200000e-07	-3.883241e-06	-1.087507e-09	-2.699263e+01	-7.425292e+01
9.300000e-07	-3.849947e-06	-1.090087e-09	-2.676120e+01	-7.390827e+01
9.400000e-07	-3.816047e-06	-1.085202e-09	-2.652556e+01	-7.355745e+01
9.500000e-07	-3.781676e-06	-1.079813e-09	-2.628665e+01	-7.320055e+01
9.600000e-07	-3.746967e-06	-1.078643e-09	-2.604538e+01	-7.283771e+01
9.700000e-07	-3.711900e-06	-1.068772e-09	-2.580163e+01	-7.246904e+01
9.800000e-07	-3.676503e-06	-1.058015e-09	-2.555559e+01	-7.209470e+01
9.900000e-07	-3.640978e-06	-1.053689e-09	-2.530865e+01	-7.171485e+01
1.000000e-06	-3.605393e-06	-1.047456e-09	-2.506129e+01	-7.132964e+01
1.010000e-06	-3.569652e-06	-1.041123e-09	-2.481286e+01	-7.093925e+01
1.020000e-06	-3.533794e-06	-1.040472e-09	-2.456361e+01	-7.054385e+01
1.030000e-06	-3.497792e-06	-1.037604e-09	-2.431336e+01	-7.014362e+01
1.040000e-06	-3.461466e-06	-1.029573e-09	-2.406085e+01	-6.973875e+01
1.050000e-06	-3.424791e-06	-1.026066e-09	-2.380592e+01	-6.932940e+01
1.060000e-06	-3.387946e-06	-1.020860e-09	-2.354981e+01	-6.891576e+01
1.070000e-06	-3.350872e-06	-1.011278e-09	-2.329210e+01	-6.849800e+01
1.080000e-06	-3.313506e-06	-1.000495e-09	-2.303237e+01	-6.807628e+01
1.090000e-06	-3.275927e-06	-9.950012e-10	-2.277116e+01	-6.765076e+01
1.100000e-06	-3.238117e-06	-9.847220e-10	-2.250834e+01	-6.722158e+01
1.110000e-06	-3.200021e-06	-9.759840e-10	-2.224353e+01	-6.678887e+01
1.120000e-06	-3.161705e-06	-9.711752e-10	-2.197720e+01	-6.635276e+01
1.130000e-06	-3.123204e-06	-9.678900e-10	-2.170957e+01	-6.591336e+01
1.140000e-06	-3.084426e-06	-9.609637e-10	-2.144002e+01	-6.547075e+01
1.150000e-06	-3.045523e-06	-9.574055e-10	-2.116961e+01	-6.502500e+01
1.160000e-06	-3.006511e-06	-9.527046e-10	-2.089843e+01	-6.457617e+01
1.170000e-06	-2.967253e-06	-9.437143e-10	-2.062554e+01	-6.412429e+01
1.180000e-06	-2.927826e-06	-9.334615e-10	-2.035149e+01	-6.366939e+01
1.190000e-06	-2.888288e-06	-9.263113e-10	-2.007666e+01	-6.321146e+01
1.200000e-06	-2.848592e-06	-9.164790e-10	-1.980073e+01	-6.275046e+01
1.210000e-06	-2.808776e-06	-9.086632e-10	-1.952397e+01	-6.228636e+01
1.220000e-06	-2.768828e-06	-9.013767e-10	-1.924629e+01	-6.181909e+01
1.230000e-06	-2.728672e-06	-8.932484e-10	-1.896716e+01	-6.134856e+01
1.240000e-06	-2.688358e-06	-8.862318e-10	-1.868693e+01	-6.087465e+01
1.250000e-06	-2.647831e-06	-8.814650e-10	-1.840523e+01	-6.039724e+01
1.260000e-06	-2.606987e-06	-8.741814e-10	-1.812132e+01	-5.991618e+01
1.270000e-06	-2.565710e-06	-8.655250e-10	-1.783440e+01	-5.943128e+01
1.280000e-06	-2.524110e-06	-8.580022e-10	-1.754523e+01	-5.894235e+01
1.290000e-06	-2.482141e-06	-8.494221e-10	-1.725350e+01	-5.844918e+01
1.300000e-06	-2.439881e-06	-8.375687e-10	-1.695975e+01	-5.795153e+01
1.310000e-06	-2.397432e-06	-8.267337e-10	-1.666469e+01	-5.744916e+01
1.320000e-06	-2.354683e-06	-8.180046e-10	-1.636754e+01	-5.694178e+01
1.330000e-06	-2.311663e-06	-8.100811e-10	-1.606850e+01	-5.642912e+01
1.340000e-06	-2.268421e-06	-8.045400e-10	-1.576792e+01	-5.591086e+01
1.350000e-06	-2.225093e-06	-7.983547e-10	-1.546675e+01	-5.538668e+01
1.360000e-06	-2.181626e-06	-7.905486e-10	-1.516461e+01	-5.485625e+01
1.370000e-06	-2.138036e-06	-7.803112e-10	-1.486161e+01	-5.431920e+01
1.380000e-06	-2.094421e-06	-7.666514e-10	-1.455844e+01	-5.377519e+01
1.390000e-06	-2.050806e-06	-7.487959e-10	-1.425527e+01	-5.322383e+01
1.400000e-06	-2.007095e-06	-7.331374e-10	-1.395144e+01	-5.266472e+01
1.410000e-06	-1.963291e-06	-7.213049e-10	-1.364695e+01	-5.209746e+01
1.420000e-06	-1.919398e-06	-7.140826e-10	-1.334185e+01	-5.152165e+01
1.430000e-06	-1.875364e-06	-7.102899e-10	-1.303577e+01	-5.093685e+01
1.440000e-06	-1.831247e-06	-7.071533e-10	-1.272911e+01	-5.034264e+01
1.450000e-06	-1.786952e-06	-6.982677e-10	-1.242121e+01	-4.973857e+01
1.460000e-06	-1.742429e-06	-6.853356e-10	-1.211172e+01	-4.912421e+01
1.470000e-06	-1.697879e-06	-6.703620e-10	-1.180206e+01	-4.849908e+01
1.480000e-06	-1.653260e-06	-6.570543e-10	-1.149190e+01	-4.786275e+01
1.490000e-06	-1.608454e-06	-6.465800e-10	-1.118045e+01	-4.721473e+01
1.500000e-06	-1.563518e-06	-6.399410e-10	-1.086811e+01	-4.655458e+01
1.510000e-06	-1.518403e-06	-6.326928e-10	-1.055451e+01	-4.588180e+01
1.520000e-06	-1.473110e-06	-6.222994e-10	-1.023967e+01	-4.519595e+01
1.530000e-06	-1.427783e-06	-6.122437e-10	-9.924602e+00	-4.449654e+01
1.540000e-06	-1.382425e-06	-6.048601e-10	-9.609316e+00	-4.378311e+01
1.550000e-06	-1.336990e-06	-5.949707e-10	-9.293497e+00	-4.305520e+01
1.560000e-06	-1.291436e-06	-5.848033e-10	-8.976843e+00	-4.231233e+01
1.570000e-06	-1.245663e-06	-5.744368e-10	-8.658675e+00	-4.155405e+01
1.580000e-06	-1.199884e-06	-5.603850e-10	-8.340461e+00	-4.077991e+01
1.590000e-06	-1.154187e-06	-5.452132e-10	-8.022824e+00	-3.998948e+01
1.600000e-06	-1.108372e-06	-5.325638e-10	-7.704355e+00	-3.918231e+01
1.610000e-06	-1.062503e-06	-5.207649e-10	-7.385517e+00	-3.835800e+01
1.620000e-06	-1.016481e-06	-5.084682e-10	-7.065619e+00	-3.751613e+01
1.630000e-06	-9.703022e-07	-4.975256e-10	-6.744627e+00	-3.665631e+01
1.640000e-06	-9.242005e-07	-4.856962e-10	-6.424171e+00	-3.577819e+01
1.650000e-06	-8.779710e-07	-4.722825e-10	-6.102827e+00	-3.488140e+01
1.660000e-06	-8.316035e-07	-4.573899e-10	-5.780524e+00	-3.396563e+01
1.670000e-06	-7.851772e-07	-4.433249e-10	-5.457812e+00	-3.303056e+01
1.680000e-06	-7.386521e-07	-4.284807e-10	-5.134414e+00	-3.207593e+01
1.690000e-06	-6.921870e-07	-4.134798e-10	-4.811432e+00	-3.110150e+01
1.700000e-06	-6.457253e-07	-3.971660e-10	-4.488474e+00	-3.010704e+01
1.710000e-06	-5.992446e-07	-3.808173e-10	-4.165384e+00	-2.909239e+01
1.720000e-06	-5.526737e-07	-3.646916e-10	-3.841667e+00	-2.805740e+01
1.730000e-06	-5.059732e-07	-3.474506e-10	-3.517049e+00	-2.700197e+01
1.740000e-06	-4.592241e-07	-3.305767e-10	-3.192093e+00	-2.592605e+01
1.750000e-06	-4.124459e-07	-3.149119e-10	-2.866936e+00	-2.482961e+01
1.760000e-06	-3.656417e-07	-2.994532e-10	-2.541596e+00	-2.371270e+01
1.770000e-06	-3.187974e-07	-2.829384e-10	-2.215979e+00	-2.257539e+01
1.780000e-06	-2.719747e-07	-2.653256e-10	-1.890512e+00	-2.141781e+01
1.790000e-06	-2.250819e-07	-2.494619e-10	-1.564558e+00	-2.024015e+01
1.800000e-06	-1.780998e-07	-2.339608e-10	-1.237982e+00	-1.904264e+01
1.810000e-06	-1.311937e-07	-2.172856e-10	-9.119348e-01	-1.782557e+01
1.820000e-06	-8.432281e-08	-1.988909e-10	-5.861327e-01	-1.658930e+01
1.830000e-06	-3.744440e-08	-1.797343e-10	-2.602782e-01	-1.533422e+01
1.840000e-06	9.458026e-09	-1.612220e-10	6.574328e-02	-1.406080e+01
1.850000e-06	5.642203e-08	-1.438387e-10	3.921928e-01	-1.276956e+01
1.860000e-06	1.034038e-07	-1.262307e-10	7.187660e-01	-1.146109e+01
1.870000e-06	1.503497e-07	-1.070756e-10	1.045090e+00	-1.013600e+01
1.880000e-06	1.971567e-07	-8.702541e-11	1.370448e+00	-8.795015e+00
1.890000e-06	2.439256e-07	-6.705320e-11	1.695541e+00	-7.438871e+00
1.900000e-06	2.907052e-07	-4.666987e-11	2.020708e+00	-6.068378e+00
1.910000e-06	3.374576e-07	-2.515828e-11	2.345687e+00	-4.684398e+00
1.920000e-06	3.842164e-07	-2.828277e-12	2.670711e+00	-3.287845e+00
1.930000e-06	4.308962e-07	1.932965e-11	2.995185e+00	-1.879683e+00
1.940000e-06	4.774494e-07	3.823189e-11	3.318779e+00	-4.609220e-01
1.950000e-06	5.240314e-07	5.426032e-11	3.642573e+00	9.673819e-01
1.960000e-06	5.706728e-07	7.133081e-11	3.966779e+00	2.404132e+00
1.970000e-06	6.172043e-07	9.092558e-11	4.290223e+00	3.848192e+00
1.980000e-06	6.635816e-07	1.117141e-10	4.612594e+00	5.298395e+00
1.990000e-06	7.099168e-07	1.326093e-10	4.934673e+00	6.753539e+00
2.000000e-06	7.562864e-07	1.566797e-10	5.256990e+00	8.212401e+00
2.010000e-06	8.026533e-07	1.809836e-10	5.579290e+00	9.673733e+00
2.020000e-06	8.488684e-07	2.035933e-10	5.900534e+00	1.113627e+01
2.030000e-06	8.949180e-07	2.263093e-10	6.220627e+00	1.259874e+01
2.040000e-06	9.409365e-07	2.459468e-10	6.540504e+00	1.405986e+01
2.050000e-06	9.869375e-07	2.634924e-10	6.860260e+00	1.551835e+01
2.060000e-06	1.032888e-06	2.808601e-10	7.179663e+00	1.697292e+01
2.070000e-06	1.078767e-06	2.997520e-10	7.498569e+00	1.842230e+01
2.080000e-06	1.124575e-06	3.199760e-10	7.816988e+00	1.986524e+01
2.090000e-06	1.170305e-06	3.438462e-10	8.134858e+00	2.130050e+01
2.100000e-06	1.215953e-06	3.681434e-10	8.452163e+00	2.272685e+01
2.110000e-06	1.261533e-06	3.913439e-10	8.768992e+00	2.414312e+01
2.120000e-06	1.307032e-06	4.128236e-10	9.085255e+00	2.554814e+01
2.130000e-06	1.352400e-06	4.312651e-10	9.400612e+00	2.694081e+01
2.140000e-06	1.397707e-06	4.463915e-10	9.715541e+00	2.832005e+01
2.150000e-06	1.442966e-06	4.608499e-10	1.003014e+01	2.968484e+01
2.160000e-06	1.488087e-06	4.782400e-10	1.034378e+01	3.103420e+01
2.170000e-06	1.533050e-06	4.976920e-10	1.065632e+01	3.236721e+01
2.180000e-06	1.577832e-06	5.198577e-10	1.096760e+01	3.368302e+01
2.190000e-06	1.622546e-06	5.434364e-10	1.127841e+01	3.498081e+01
2.200000e-06	1.667155e-06	5.626478e-10	1.158849e+01	3.625985e+01
2.210000e-06	1.711630e-06	5.779290e-10	1.189764e+01	3.751946e+01
2.220000e-06	1.756004e-06	5.896096e-10	1.220608e+01	3.875904e+01
2.230000e-06	1.800220e-06	6.043516e-10	1.251344e+01	3.997804e+01
2.240000e-06	1.844294e-06	6.189843e-10	1.281979e+01	4.117600e+01
2.250000e-06	1.888257e-06	6.309266e-10	1.312538e+01	4.235252e+01
2.260000e-06	1.932187e-06	6.469669e-10	1.343074e+01	4.350726e+01
2.270000e-06	1.976022e-06	6.633826e-10	1.373545e+01	4.463996e+01
2.280000e-06	2.019715e-06	6.803515e-10	1.403916e+01	4.575043e+01
2.290000e-06	2.063380e-06	6.960209e-10	1.434267e+01	4.683853e+01
2.300000e-06	2.107009e-06	7.106946e-10	1.464594e+01	4.790421e+01
2.310000e-06	2.150548e-06	7.231025e-10	1.494858e+01	4.894746e+01
2.320000e-06	2.194041e-06	7.368431e-10	1.525091e+01	4.996835e+01
2.330000e-06	2.237438e-06	7.503942e-10	1.555256e+01	5.096700e+01
2.340000e-06	2.280668e-06	7.629368e-10	1.585305e+01	5.194357e+01
2.350000e-06	2.323691e-06	7.752697e-10	1.615211e+01	5.289830e+01
2.360000e-06	2.366490e-06	7.866453e-10	1.644961e+01	5.383146e+01
2.370000e-06	2.408983e-06	7.972139e-10	1.674498e+01	5.474337e+01
2.380000e-06	2.451109e-06	8.092175e-10	1.703780e+01	5.563439e+01
2.390000e-06	2.492992e-06	8.221391e-10	1.732893e+01	5.650491e+01
2.400000e-06	2.534630e-06	8.347911e-10	1.761836e+01	5.735537e+01
2.410000e-06	2.576017e-06	8.474843e-10	1.790604e+01	5.818621e+01
2.420000e-06	2.617104e-06	8.614558e-10	1.819164e+01	5.899792e+01
2.430000e-06	2.657838e-06	8.738811e-10	1.847478e+01	5.979100e+01
2.440000e-06	2.698323e-06	8.824584e-10	1.875620e+01	6.056595e+01
2.450000e-06	2.738574e-06	8.890523e-10	1.903598e+01	6.132331e+01
2.460000e-06	2.778609e-06	8.965418e-10	1.931428e+01	6.206361e+01
2.470000e-06	2.818452e-06	9.063169e-10	1.959122e+01	6.278738e+01
2.480000e-06	2.858172e-06	9.169449e-10	1.986732e+01	6.349516e+01
2.490000e-06	2.897852e-06	9.295722e-10	2.014313e+01	6.418746e+01
2.500000e-06	2.937366e-06	9.438176e-10	2.041780e+01	6.486483e+01
2.510000e-06	2.976659e-06	9.568704e-10	2.069093e+01	6.552775e+01
2.520000e-06	3.015811e-06	9.667092e-10	2.096307e+01	6.617674e+01
2.530000e-06	3.054794e-06	9.766231e-10	2.123405e+01	6.681226e+01
2.540000e-06	3.093542e-06	9.845687e-10	2.150339e+01	6.743479e+01
2.550000e-06	3.132102e-06	9.916513e-10	2.177142e+01	6.804475e+01
2.560000e-06	3.170407e-06	9.957582e-10	2.203768e+01	6.864257e+01
2.570000e-06	3.208438e-06	1.000538e-09	2.230204e+01	6.922863e+01
2.580000e-06	3.246291e-06	1.010456e-09	2.256515e+01	6.980331e+01
2.590000e-06	3.283921e-06	1.021372e-09	2.282672e+01	7.036695e+01
2.600000e-06	3.321355e-06	1.033731e-09	2.308693e+01	7.091985e+01
2.610000e-06	3.358590e-06	1.044744e-09	2.334575e+01	7.146232e+01
2.620000e-06	3.395523e-06	1.054194e-09	2.360247e+01	7.199462e+01
2.630000e-06	3.432244e-06	1.060854e-09	2.385772e+01	7.251697e+01
2.640000e-06	3.468793e-06	1.064608e-09	2.411178e+01	7.302960e+01
2.650000e-06	3.505003e-06	1.070818e-09	2.436348e+01	7.353269e+01
2.660000e-06	3.540938e-06	1.078175e-09	2.461326e+01	7.402641e+01
2.670000e-06	3.576721e-06	1.085513e-09	2.486199e+01	7.451089e+01
2.680000e-06	3.612357e-06	1.091527e-09	2.510971e+01	7.498627e+01
2.690000e-06	3.647853e-06	1.097479e-09	2.535644e+01	7.545266e+01
2.700000e-06	3.683159e-06	1.105406e-09	2.560185e+01	7.591012e+01
2.710000e-06	3.718346e-06	1.114413e-09	2.584644e+01	7.635876e+01
2.720000e-06	3.753395e-06	1.122620e-09	2.609007e+01	7.679861e+01
2.730000e-06	3.788142e-06	1.128907e-09	2.633160e+01	7.722974e+01
2.740000e-06	3.822414e-06	1.134787e-09	2.656982e+01	7.765219e+01
2.750000e-06	3.856140e-06	1.140042e-09	2.680425e+01	7.806599e+01
2.760000e-06	3.889458e-06	1.144801e-09	2.703585e+01	7.847118e+01
2.770000e-06	3.922355e-06	1.148387e-09	2.726451e+01	7.886778e+01
2.780000e-06	3.954821e-06	1.153683e-09	2.749019e+01	7.925582e+01
2.790000e-06	3.987005e-06	1.161316e-09	2.771390e+01	7.963533e+01
2.800000e-06	4.018918e-06	1.170183e-09	2.793573e+01	8.000634e+01
2.810000e-06	4.050593e-06	1.179582e-09	2.815591e+01	8.036889e+01
2.820000e-06	4.082111e-06	1.187036e-09	2.837499e+01	8.072302e+01
2.830000e-06	4.113449e-06	1.193179e-09	2.859283e+01	8.106877e+01
2.840000e-06	4.144537e-06	1.195717e-09	2.880891e+01	8.140621e+01
2.850000e-06	4.175307e-06	1.196684e-09	2.902280e+01	8.173538e+01
2.860000e-06	4.205776e-06	1.198828e-09	2.923459e+01	8.205638e+01
2.870000e-06	4.235957e-06	1.201160e-09	2.944439e+01	8.236926e+01
2.880000e-06	4.265796e-06	1.204911e-09	2.965179e+01	8.267414e+01
2.890000e-06	4.295330e-06	1.209841e-09	2.985709e+01	8.297110e+01
2.900000e-06	4.324613e-06	1.215180e-09	3.006064e+01	8.326026e+01
