# Temperatura_=_7.06
# Concentracion g/m^3_=_1620.0
# C_Vs_to_Am_M_A/Vsm_=_65563218390.804596
# pendiente_HvsI_1/m_=_3716.3
# ordenada_HvsI_A/m_=_1297.0
# frecuencia_Hz_=_135109.8791532507

Tiempo_(s)	Campo_(V.s)	Magnetizacion_(V.s)	Campo_(kA/m)	Magnetizacion_(A/m)
0.000000e+00	-5.517911e-06	-1.294633e-09	-3.835949e+01	-8.309593e+01
1.000000e-08	-5.518081e-06	-1.293586e-09	-3.836068e+01	-8.304128e+01
2.000000e-08	-5.517942e-06	-1.294032e-09	-3.835971e+01	-8.298346e+01
3.000000e-08	-5.517349e-06	-1.294978e-09	-3.835558e+01	-8.292253e+01
4.000000e-08	-5.516167e-06	-1.293847e-09	-3.834737e+01	-8.285857e+01
5.000000e-08	-5.514382e-06	-1.291087e-09	-3.833496e+01	-8.279163e+01
6.000000e-08	-5.512014e-06	-1.289715e-09	-3.831850e+01	-8.272179e+01
7.000000e-08	-5.509151e-06	-1.296258e-09	-3.829859e+01	-8.264910e+01
8.000000e-08	-5.505775e-06	-1.269956e-09	-3.827513e+01	-8.257362e+01
9.000000e-08	-5.501901e-06	-1.224892e-09	-3.824819e+01	-8.249542e+01
1.000000e-07	-5.497745e-06	-1.278657e-09	-3.821930e+01	-8.241455e+01
1.100000e-07	-5.493292e-06	-1.375768e-09	-3.818835e+01	-8.233105e+01
1.200000e-07	-5.488517e-06	-1.306034e-09	-3.815515e+01	-8.224497e+01
1.300000e-07	-5.483463e-06	-1.234008e-09	-3.812002e+01	-8.215636e+01
1.400000e-07	-5.478076e-06	-1.233258e-09	-3.808257e+01	-8.206524e+01
1.500000e-07	-5.472260e-06	-1.356880e-09	-3.804213e+01	-8.197165e+01
1.600000e-07	-5.466081e-06	-1.301969e-09	-3.799918e+01	-8.187561e+01
1.700000e-07	-5.459563e-06	-1.200881e-09	-3.795386e+01	-8.177714e+01
1.800000e-07	-5.452541e-06	-1.223332e-09	-3.790505e+01	-8.167625e+01
1.900000e-07	-5.445180e-06	-1.314659e-09	-3.785388e+01	-8.157293e+01
2.000000e-07	-5.437625e-06	-1.316446e-09	-3.780136e+01	-8.146720e+01
2.100000e-07	-5.429877e-06	-1.239479e-09	-3.774749e+01	-8.135903e+01
2.200000e-07	-5.421843e-06	-1.249693e-09	-3.769165e+01	-8.124842e+01
2.300000e-07	-5.413326e-06	-1.281483e-09	-3.763243e+01	-8.113533e+01
2.400000e-07	-5.404224e-06	-1.283645e-09	-3.756916e+01	-8.101975e+01
2.500000e-07	-5.394473e-06	-1.216471e-09	-3.750137e+01	-8.090162e+01
2.600000e-07	-5.384063e-06	-1.228673e-09	-3.742901e+01	-8.078092e+01
2.700000e-07	-5.373035e-06	-1.230187e-09	-3.735234e+01	-8.065760e+01
2.800000e-07	-5.361635e-06	-1.234660e-09	-3.727309e+01	-8.053161e+01
2.900000e-07	-5.349917e-06	-1.193489e-09	-3.719163e+01	-8.040288e+01
3.000000e-07	-5.337800e-06	-1.212109e-09	-3.710739e+01	-8.027136e+01
3.100000e-07	-5.325345e-06	-1.214977e-09	-3.702081e+01	-8.013700e+01
3.200000e-07	-5.312518e-06	-1.223174e-09	-3.693164e+01	-7.999972e+01
3.300000e-07	-5.299159e-06	-1.182365e-09	-3.683877e+01	-7.985945e+01
3.400000e-07	-5.285317e-06	-1.183175e-09	-3.674254e+01	-7.971614e+01
3.500000e-07	-5.271137e-06	-1.204024e-09	-3.664396e+01	-7.956971e+01
3.600000e-07	-5.256577e-06	-1.198068e-09	-3.654274e+01	-7.942010e+01
3.700000e-07	-5.241517e-06	-1.150015e-09	-3.643805e+01	-7.926723e+01
3.800000e-07	-5.225901e-06	-1.183083e-09	-3.632949e+01	-7.911106e+01
3.900000e-07	-5.209792e-06	-1.211177e-09	-3.621751e+01	-7.895151e+01
4.000000e-07	-5.193212e-06	-1.151607e-09	-3.610225e+01	-7.878853e+01
4.100000e-07	-5.176332e-06	-1.149291e-09	-3.598490e+01	-7.862206e+01
4.200000e-07	-5.159218e-06	-1.230479e-09	-3.586592e+01	-7.845206e+01
4.300000e-07	-5.141809e-06	-1.196504e-09	-3.574490e+01	-7.827849e+01
4.400000e-07	-5.124080e-06	-1.106667e-09	-3.562165e+01	-7.810131e+01
4.500000e-07	-5.105976e-06	-1.181914e-09	-3.549579e+01	-7.792048e+01
4.600000e-07	-5.087460e-06	-1.217904e-09	-3.536708e+01	-7.773599e+01
4.700000e-07	-5.068456e-06	-1.118669e-09	-3.523496e+01	-7.754783e+01
4.800000e-07	-5.049091e-06	-1.118941e-09	-3.510034e+01	-7.735597e+01
4.900000e-07	-5.029553e-06	-1.215378e-09	-3.496452e+01	-7.716043e+01
5.000000e-07	-5.009841e-06	-1.143689e-09	-3.482749e+01	-7.696122e+01
5.100000e-07	-4.989863e-06	-1.102693e-09	-3.468860e+01	-7.675834e+01
5.200000e-07	-4.969500e-06	-1.186048e-09	-3.454704e+01	-7.655182e+01
5.300000e-07	-4.948714e-06	-1.168569e-09	-3.440254e+01	-7.634170e+01
5.400000e-07	-4.927541e-06	-1.075047e-09	-3.425535e+01	-7.612801e+01
5.500000e-07	-4.906050e-06	-1.149295e-09	-3.410595e+01	-7.591080e+01
5.600000e-07	-4.884229e-06	-1.176492e-09	-3.395425e+01	-7.569012e+01
5.700000e-07	-4.862009e-06	-1.086074e-09	-3.379978e+01	-7.546604e+01
5.800000e-07	-4.839416e-06	-1.095203e-09	-3.364272e+01	-7.523862e+01
5.900000e-07	-4.816510e-06	-1.162024e-09	-3.348348e+01	-7.500793e+01
6.000000e-07	-4.793327e-06	-1.095552e-09	-3.332231e+01	-7.477403e+01
6.100000e-07	-4.769943e-06	-1.078387e-09	-3.315976e+01	-7.453701e+01
6.200000e-07	-4.746381e-06	-1.136889e-09	-3.299596e+01	-7.429695e+01
6.300000e-07	-4.722524e-06	-1.113523e-09	-3.283010e+01	-7.405393e+01
6.400000e-07	-4.698353e-06	-1.072534e-09	-3.266208e+01	-7.380801e+01
6.500000e-07	-4.673789e-06	-1.112824e-09	-3.249131e+01	-7.355930e+01
6.600000e-07	-4.648692e-06	-1.099786e-09	-3.231684e+01	-7.330785e+01
6.700000e-07	-4.623069e-06	-1.056442e-09	-3.213872e+01	-7.305374e+01
6.800000e-07	-4.596931e-06	-1.078121e-09	-3.195701e+01	-7.279705e+01
6.900000e-07	-4.570319e-06	-1.086197e-09	-3.177200e+01	-7.253784e+01
7.000000e-07	-4.543263e-06	-1.055131e-09	-3.158392e+01	-7.227615e+01
7.100000e-07	-4.515906e-06	-1.066286e-09	-3.139374e+01	-7.201205e+01
7.200000e-07	-4.488376e-06	-1.081063e-09	-3.120235e+01	-7.174558e+01
7.300000e-07	-4.460674e-06	-1.055203e-09	-3.100977e+01	-7.147675e+01
7.400000e-07	-4.432760e-06	-1.055649e-09	-3.081572e+01	-7.120561e+01
7.500000e-07	-4.404588e-06	-1.064743e-09	-3.061987e+01	-7.093215e+01
7.600000e-07	-4.376137e-06	-1.047620e-09	-3.042209e+01	-7.065638e+01
7.700000e-07	-4.347385e-06	-1.035208e-09	-3.022221e+01	-7.037828e+01
7.800000e-07	-4.318290e-06	-1.042138e-09	-3.001995e+01	-7.009782e+01
7.900000e-07	-4.288836e-06	-1.022924e-09	-2.981519e+01	-6.981497e+01
8.000000e-07	-4.259151e-06	-1.013589e-09	-2.960883e+01	-6.952968e+01
8.100000e-07	-4.229239e-06	-1.022118e-09	-2.940088e+01	-6.924187e+01
8.200000e-07	-4.198992e-06	-1.020586e-09	-2.919061e+01	-6.895148e+01
8.300000e-07	-4.168355e-06	-1.004497e-09	-2.897763e+01	-6.865840e+01
8.400000e-07	-4.137370e-06	-1.013599e-09	-2.876222e+01	-6.836253e+01
8.500000e-07	-4.106139e-06	-1.012939e-09	-2.854511e+01	-6.806375e+01
8.600000e-07	-4.074753e-06	-9.971654e-10	-2.832692e+01	-6.776195e+01
8.700000e-07	-4.043261e-06	-9.872487e-10	-2.810800e+01	-6.745697e+01
8.800000e-07	-4.011615e-06	-9.878464e-10	-2.788800e+01	-6.714867e+01
8.900000e-07	-3.979734e-06	-9.680297e-10	-2.766637e+01	-6.683689e+01
9.000000e-07	-3.947484e-06	-9.560817e-10	-2.744217e+01	-6.652147e+01
9.100000e-07	-3.914902e-06	-9.582233e-10	-2.721567e+01	-6.620223e+01
9.200000e-07	-3.881960e-06	-9.536261e-10	-2.698666e+01	-6.587899e+01
9.300000e-07	-3.848608e-06	-9.432911e-10	-2.675481e+01	-6.555158e+01
9.400000e-07	-3.814883e-06	-9.500519e-10	-2.652036e+01	-6.521981e+01
9.500000e-07	-3.780711e-06	-9.514696e-10	-2.628280e+01	-6.488350e+01
9.600000e-07	-3.746021e-06	-9.363579e-10	-2.604164e+01	-6.454246e+01
9.700000e-07	-3.710952e-06	-9.245866e-10	-2.579785e+01	-6.419652e+01
9.800000e-07	-3.675660e-06	-9.197335e-10	-2.555250e+01	-6.384550e+01
9.900000e-07	-3.640205e-06	-9.093323e-10	-2.530603e+01	-6.348923e+01
1.000000e-06	-3.604665e-06	-9.048857e-10	-2.505896e+01	-6.312754e+01
1.010000e-06	-3.568961e-06	-9.136983e-10	-2.481075e+01	-6.276028e+01
1.020000e-06	-3.533023e-06	-9.142400e-10	-2.456092e+01	-6.238732e+01
1.030000e-06	-3.496857e-06	-9.062384e-10	-2.430950e+01	-6.200851e+01
1.040000e-06	-3.460463e-06	-9.009199e-10	-2.405650e+01	-6.162374e+01
1.050000e-06	-3.423828e-06	-8.940957e-10	-2.380182e+01	-6.123291e+01
1.060000e-06	-3.386927e-06	-8.778374e-10	-2.354528e+01	-6.083592e+01
1.070000e-06	-3.349813e-06	-8.673230e-10	-2.328727e+01	-6.043271e+01
1.080000e-06	-3.312482e-06	-8.603120e-10	-2.302776e+01	-6.002321e+01
1.090000e-06	-3.274832e-06	-8.536021e-10	-2.276602e+01	-5.960740e+01
1.100000e-06	-3.236940e-06	-8.455375e-10	-2.250261e+01	-5.918525e+01
1.110000e-06	-3.198905e-06	-8.418034e-10	-2.223819e+01	-5.875675e+01
1.120000e-06	-3.160757e-06	-8.329493e-10	-2.197299e+01	-5.832193e+01
1.130000e-06	-3.122260e-06	-8.254260e-10	-2.170537e+01	-5.788083e+01
1.140000e-06	-3.083308e-06	-8.196503e-10	-2.143458e+01	-5.743348e+01
1.150000e-06	-3.044227e-06	-8.153403e-10	-2.116290e+01	-5.697996e+01
1.160000e-06	-3.005097e-06	-8.066371e-10	-2.089087e+01	-5.652035e+01
1.170000e-06	-2.965844e-06	-7.970911e-10	-2.061800e+01	-5.605475e+01
1.180000e-06	-2.926465e-06	-7.851420e-10	-2.034424e+01	-5.558328e+01
1.190000e-06	-2.886909e-06	-7.747731e-10	-2.006926e+01	-5.510606e+01
1.200000e-06	-2.847219e-06	-7.655183e-10	-1.979334e+01	-5.462321e+01
1.210000e-06	-2.807431e-06	-7.600281e-10	-1.951674e+01	-5.413489e+01
1.220000e-06	-2.767485e-06	-7.558310e-10	-1.923904e+01	-5.364124e+01
1.230000e-06	-2.727304e-06	-7.503844e-10	-1.895971e+01	-5.314242e+01
1.240000e-06	-2.686795e-06	-7.452794e-10	-1.867810e+01	-5.263857e+01
1.250000e-06	-2.646044e-06	-7.400979e-10	-1.839481e+01	-5.212985e+01
1.260000e-06	-2.605161e-06	-7.316482e-10	-1.811060e+01	-5.161642e+01
1.270000e-06	-2.563955e-06	-7.182614e-10	-1.782414e+01	-5.109841e+01
1.280000e-06	-2.522374e-06	-7.059030e-10	-1.753508e+01	-5.057596e+01
1.290000e-06	-2.480604e-06	-6.964137e-10	-1.724469e+01	-5.004919e+01
1.300000e-06	-2.438565e-06	-6.860397e-10	-1.695245e+01	-4.951822e+01
1.310000e-06	-2.396231e-06	-6.782326e-10	-1.665815e+01	-4.898314e+01
1.320000e-06	-2.353664e-06	-6.736701e-10	-1.636223e+01	-4.844401e+01
1.330000e-06	-2.310843e-06	-6.690769e-10	-1.606455e+01	-4.790090e+01
1.340000e-06	-2.267762e-06	-6.647867e-10	-1.576506e+01	-4.735382e+01
1.350000e-06	-2.224473e-06	-6.582008e-10	-1.546412e+01	-4.680279e+01
1.360000e-06	-2.181054e-06	-6.505234e-10	-1.516228e+01	-4.624776e+01
1.370000e-06	-2.137509e-06	-6.379558e-10	-1.485957e+01	-4.568869e+01
1.380000e-06	-2.093886e-06	-6.255422e-10	-1.455631e+01	-4.512547e+01
1.390000e-06	-2.050222e-06	-6.106602e-10	-1.425276e+01	-4.455799e+01
1.400000e-06	-2.006499e-06	-5.967550e-10	-1.394881e+01	-4.398608e+01
1.410000e-06	-1.962680e-06	-5.868510e-10	-1.364419e+01	-4.340955e+01
1.420000e-06	-1.918781e-06	-5.823627e-10	-1.333901e+01	-4.282816e+01
1.430000e-06	-1.874748e-06	-5.791975e-10	-1.303290e+01	-4.224164e+01
1.440000e-06	-1.830518e-06	-5.742502e-10	-1.272542e+01	-4.164968e+01
1.450000e-06	-1.786112e-06	-5.674070e-10	-1.241672e+01	-4.105193e+01
1.460000e-06	-1.741654e-06	-5.550099e-10	-1.210766e+01	-4.044802e+01
1.470000e-06	-1.697180e-06	-5.369739e-10	-1.179848e+01	-3.983753e+01
1.480000e-06	-1.652547e-06	-5.194675e-10	-1.148820e+01	-3.922000e+01
1.490000e-06	-1.607708e-06	-5.052121e-10	-1.117648e+01	-3.859495e+01
1.500000e-06	-1.562731e-06	-4.953101e-10	-1.086381e+01	-3.796187e+01
1.510000e-06	-1.517633e-06	-4.894408e-10	-1.055030e+01	-3.732022e+01
1.520000e-06	-1.472445e-06	-4.845868e-10	-1.023616e+01	-3.666942e+01
1.530000e-06	-1.427174e-06	-4.793473e-10	-9.921451e+00	-3.600889e+01
1.540000e-06	-1.381849e-06	-4.716853e-10	-9.606358e+00	-3.533802e+01
1.550000e-06	-1.336451e-06	-4.588038e-10	-9.290758e+00	-3.465619e+01
1.560000e-06	-1.290924e-06	-4.445963e-10	-8.974264e+00	-3.396275e+01
1.570000e-06	-1.245315e-06	-4.318936e-10	-8.657202e+00	-3.325708e+01
1.580000e-06	-1.199654e-06	-4.188406e-10	-8.339768e+00	-3.253850e+01
1.590000e-06	-1.153896e-06	-4.068626e-10	-8.021670e+00	-3.180640e+01
1.600000e-06	-1.108015e-06	-3.958507e-10	-7.702716e+00	-3.106011e+01
1.610000e-06	-1.062095e-06	-3.833474e-10	-7.383485e+00	-3.029902e+01
1.620000e-06	-1.016127e-06	-3.697461e-10	-7.063924e+00	-2.952250e+01
1.630000e-06	-9.700693e-07	-3.590889e-10	-6.743741e+00	-2.872997e+01
1.640000e-06	-9.238772e-07	-3.488556e-10	-6.422622e+00	-2.792085e+01
1.650000e-06	-8.775574e-07	-3.378311e-10	-6.100616e+00	-2.709460e+01
1.660000e-06	-8.312348e-07	-3.241440e-10	-5.778590e+00	-2.625072e+01
1.670000e-06	-7.849308e-07	-3.088512e-10	-5.456693e+00	-2.538874e+01
1.680000e-06	-7.385839e-07	-2.926376e-10	-5.134498e+00	-2.450824e+01
1.690000e-06	-6.921994e-07	-2.761233e-10	-4.812041e+00	-2.360883e+01
1.700000e-06	-6.457492e-07	-2.608803e-10	-4.489128e+00	-2.269020e+01
1.710000e-06	-5.992505e-07	-2.477622e-10	-4.165878e+00	-2.175208e+01
1.720000e-06	-5.526671e-07	-2.362567e-10	-3.842039e+00	-2.079425e+01
1.730000e-06	-5.059832e-07	-2.259782e-10	-3.517501e+00	-1.981658e+01
1.740000e-06	-4.592844e-07	-2.135325e-10	-3.192860e+00	-1.881898e+01
1.750000e-06	-4.124822e-07	-1.977659e-10	-2.867499e+00	-1.780144e+01
1.760000e-06	-3.655989e-07	-1.803349e-10	-2.541575e+00	-1.676401e+01
1.770000e-06	-3.187926e-07	-1.614511e-10	-2.216187e+00	-1.570684e+01
1.780000e-06	-2.721021e-07	-1.419950e-10	-1.891603e+00	-1.463011e+01
1.790000e-06	-2.253391e-07	-1.264656e-10	-1.566515e+00	-1.353412e+01
1.800000e-06	-1.785037e-07	-1.131611e-10	-1.240925e+00	-1.241922e+01
1.810000e-06	-1.317368e-07	-9.875606e-11	-9.158098e-01	-1.128583e+01
1.820000e-06	-8.492257e-08	-8.472915e-11	-5.903659e-01	-1.013446e+01
1.830000e-06	-3.802860e-08	-7.127961e-11	-2.643677e-01	-8.965690e+00
1.840000e-06	8.848553e-09	-5.600895e-11	6.151349e-02	-7.780168e+00
1.850000e-06	5.566986e-08	-3.893198e-11	3.870065e-01	-6.578617e+00
1.860000e-06	1.024417e-07	-1.988941e-11	7.121555e-01	-5.361828e+00
1.870000e-06	1.491814e-07	3.695953e-13	1.037082e+00	-4.130657e+00
1.880000e-06	1.959614e-07	1.896904e-11	1.362287e+00	-2.886025e+00
1.890000e-06	2.428176e-07	3.619602e-11	1.688023e+00	-1.628910e+00
1.900000e-06	2.896553e-07	5.351375e-11	2.013630e+00	-3.603465e-01
1.910000e-06	3.363531e-07	7.064092e-11	2.338264e+00	9.185780e-01
1.920000e-06	3.830577e-07	8.633416e-11	2.662946e+00	2.206731e+00
1.930000e-06	4.298389e-07	1.015788e-10	2.988160e+00	3.502936e+00
1.940000e-06	4.765349e-07	1.183488e-10	3.312782e+00	4.805982e+00
1.950000e-06	5.231365e-07	1.368599e-10	3.636748e+00	6.114623e+00
1.960000e-06	5.696456e-07	1.556566e-10	3.960070e+00	7.427589e+00
1.970000e-06	6.160674e-07	1.759522e-10	4.282786e+00	8.743589e+00
1.980000e-06	6.624768e-07	1.944509e-10	4.605416e+00	1.006132e+01
1.990000e-06	7.088772e-07	2.108691e-10	4.927983e+00	1.137945e+01
2.000000e-06	7.552001e-07	2.298618e-10	5.250011e+00	1.269669e+01
2.010000e-06	8.014031e-07	2.480608e-10	5.571205e+00	1.401170e+01
2.020000e-06	8.475350e-07	2.664949e-10	5.891905e+00	1.532318e+01
2.030000e-06	8.937178e-07	2.875546e-10	6.212960e+00	1.662983e+01
2.040000e-06	9.399247e-07	3.059322e-10	6.534182e+00	1.793039e+01
2.050000e-06	9.860372e-07	3.226118e-10	6.854747e+00	1.922360e+01
2.060000e-06	1.032028e-06	3.383954e-10	7.174464e+00	2.050826e+01
2.070000e-06	1.077906e-06	3.542813e-10	7.493405e+00	2.178317e+01
2.080000e-06	1.123756e-06	3.713208e-10	7.812145e+00	2.304719e+01
2.090000e-06	1.169500e-06	3.926743e-10	8.130149e+00	2.429923e+01
2.100000e-06	1.215091e-06	4.148249e-10	8.447090e+00	2.553825e+01
2.110000e-06	1.260557e-06	4.331633e-10	8.763155e+00	2.676325e+01
2.120000e-06	1.305908e-06	4.467399e-10	9.078428e+00	2.797329e+01
2.130000e-06	1.351257e-06	4.589447e-10	9.393684e+00	2.916749e+01
2.140000e-06	1.396590e-06	4.697617e-10	9.708836e+00	3.034505e+01
2.150000e-06	1.441814e-06	4.807806e-10	1.002322e+01	3.150522e+01
2.160000e-06	1.486888e-06	4.968610e-10	1.033657e+01	3.264730e+01
2.170000e-06	1.531800e-06	5.155522e-10	1.064879e+01	3.377070e+01
2.180000e-06	1.576586e-06	5.350493e-10	1.096013e+01	3.487486e+01
2.190000e-06	1.621335e-06	5.542917e-10	1.127122e+01	3.595932e+01
2.200000e-06	1.665972e-06	5.706065e-10	1.158153e+01	3.702366e+01
2.210000e-06	1.710418e-06	5.803320e-10	1.189051e+01	3.806757e+01
2.220000e-06	1.754783e-06	5.888813e-10	1.219892e+01	3.909078e+01
2.230000e-06	1.799080e-06	5.965421e-10	1.250687e+01	4.009309e+01
2.240000e-06	1.843265e-06	6.089800e-10	1.281404e+01	4.107438e+01
2.250000e-06	1.887286e-06	6.248015e-10	1.312006e+01	4.203459e+01
2.260000e-06	1.931154e-06	6.413838e-10	1.342502e+01	4.297373e+01
2.270000e-06	1.974938e-06	6.552204e-10	1.372940e+01	4.389186e+01
2.280000e-06	2.018689e-06	6.670672e-10	1.403355e+01	4.478911e+01
2.290000e-06	2.062405e-06	6.801847e-10	1.433746e+01	4.566566e+01
2.300000e-06	2.106007e-06	6.901321e-10	1.464057e+01	4.652175e+01
2.310000e-06	2.149492e-06	6.990055e-10	1.494287e+01	4.735765e+01
2.320000e-06	2.192961e-06	7.108195e-10	1.524505e+01	4.817370e+01
2.330000e-06	2.236308e-06	7.233662e-10	1.554640e+01	4.897027e+01
2.340000e-06	2.279433e-06	7.317885e-10	1.584619e+01	4.974777e+01
2.350000e-06	2.322378e-06	7.384974e-10	1.614474e+01	5.050665e+01
2.360000e-06	2.365187e-06	7.463134e-10	1.644234e+01	5.124737e+01
2.370000e-06	2.407801e-06	7.561840e-10	1.673858e+01	5.197044e+01
2.380000e-06	2.450010e-06	7.682018e-10	1.703202e+01	5.267638e+01
2.390000e-06	2.491851e-06	7.825635e-10	1.732288e+01	5.336573e+01
2.400000e-06	2.533419e-06	7.959789e-10	1.761186e+01	5.403904e+01
2.410000e-06	2.574766e-06	8.076026e-10	1.789930e+01	5.469688e+01
2.420000e-06	2.615883e-06	8.146833e-10	1.818513e+01	5.533982e+01
2.430000e-06	2.656694e-06	8.193858e-10	1.846884e+01	5.596843e+01
2.440000e-06	2.697256e-06	8.230730e-10	1.875082e+01	5.658329e+01
2.450000e-06	2.737582e-06	8.290367e-10	1.903116e+01	5.718495e+01
2.460000e-06	2.777712e-06	8.372985e-10	1.931013e+01	5.777398e+01
2.470000e-06	2.817730e-06	8.475877e-10	1.958833e+01	5.835092e+01
2.480000e-06	2.857543e-06	8.592772e-10	1.986511e+01	5.891631e+01
2.490000e-06	2.897145e-06	8.713787e-10	2.014041e+01	5.947066e+01
2.500000e-06	2.936682e-06	8.823628e-10	2.041526e+01	6.001448e+01
2.510000e-06	2.976072e-06	8.909702e-10	2.068910e+01	6.054825e+01
2.520000e-06	3.015246e-06	8.973064e-10	2.096143e+01	6.107241e+01
2.530000e-06	3.054256e-06	9.026642e-10	2.123262e+01	6.158741e+01
2.540000e-06	3.093070e-06	9.089641e-10	2.150245e+01	6.209364e+01
2.550000e-06	3.131650e-06	9.140226e-10	2.177065e+01	6.259149e+01
2.560000e-06	3.170005e-06	9.175488e-10	2.203729e+01	6.308131e+01
2.570000e-06	3.208164e-06	9.245505e-10	2.230256e+01	6.356343e+01
2.580000e-06	3.246166e-06	9.360482e-10	2.256674e+01	6.403814e+01
2.590000e-06	3.283968e-06	9.482089e-10	2.282954e+01	6.450571e+01
2.600000e-06	3.321473e-06	9.583169e-10	2.309026e+01	6.496639e+01
2.610000e-06	3.358663e-06	9.651155e-10	2.334880e+01	6.542039e+01
2.620000e-06	3.395587e-06	9.698682e-10	2.360549e+01	6.586789e+01
2.630000e-06	3.432311e-06	9.730558e-10	2.386079e+01	6.630906e+01
2.640000e-06	3.468829e-06	9.770700e-10	2.411465e+01	6.674404e+01
2.650000e-06	3.505096e-06	9.846356e-10	2.436678e+01	6.717293e+01
2.660000e-06	3.541126e-06	9.936531e-10	2.461725e+01	6.759583e+01
2.670000e-06	3.576957e-06	1.000006e-09	2.486634e+01	6.801281e+01
2.680000e-06	3.612645e-06	1.005386e-09	2.511443e+01	6.842390e+01
2.690000e-06	3.648204e-06	1.009649e-09	2.536164e+01	6.882915e+01
2.700000e-06	3.683583e-06	1.015060e-09	2.560758e+01	6.922857e+01
2.710000e-06	3.718750e-06	1.021674e-09	2.585206e+01	6.962216e+01
2.720000e-06	3.753690e-06	1.028115e-09	2.609496e+01	7.000990e+01
2.730000e-06	3.788252e-06	1.033373e-09	2.633522e+01	7.039178e+01
2.740000e-06	3.822385e-06	1.037401e-09	2.657251e+01	7.076774e+01
2.750000e-06	3.856104e-06	1.039377e-09	2.680692e+01	7.113776e+01
2.760000e-06	3.889331e-06	1.040083e-09	2.703791e+01	7.150179e+01
2.770000e-06	3.922206e-06	1.041319e-09	2.726645e+01	7.185977e+01
2.780000e-06	3.954737e-06	1.045389e-09	2.749259e+01	7.221165e+01
2.790000e-06	3.986890e-06	1.051753e-09	2.771612e+01	7.255737e+01
2.800000e-06	4.018806e-06	1.059866e-09	2.793799e+01	7.289687e+01
2.810000e-06	4.050544e-06	1.068411e-09	2.815863e+01	7.323012e+01
2.820000e-06	4.082116e-06	1.074272e-09	2.837811e+01	7.355704e+01
2.830000e-06	4.113485e-06	1.076419e-09	2.859618e+01	7.387761e+01
2.840000e-06	4.144639e-06	1.074590e-09	2.881276e+01	7.419177e+01
2.850000e-06	4.175572e-06	1.071086e-09	2.902780e+01	7.449950e+01
2.860000e-06	4.206132e-06	1.070227e-09	2.924025e+01	7.480076e+01
2.870000e-06	4.236275e-06	1.073940e-09	2.944980e+01	7.509555e+01
2.880000e-06	4.266165e-06	1.080405e-09	2.965758e+01	7.538384e+01
2.890000e-06	4.295832e-06	1.088902e-09	2.986382e+01	7.566565e+01
2.900000e-06	4.325191e-06	1.098020e-09	3.006792e+01	7.594097e+01
2.910000e-06	4.354238e-06	1.104578e-09	3.026985e+01	7.620983e+01
