# Temperatura_=_4.24
# Concentracion g/m^3_=_1620.0
# C_Vs_to_Am_M_A/Vsm_=_65563218390.804596
# pendiente_HvsI_1/m_=_3716.3
# ordenada_HvsI_A/m_=_1297.0
# frecuencia_Hz_=_135106.74731448104

Tiempo_(s)	Campo_(V.s)	Magnetizacion_(V.s)	Campo_(kA/m)	Magnetizacion_(A/m)
0.000000e+00	-5.516290e-06	-1.396753e-09	-3.836019e+01	-8.968173e+01
1.000000e-08	-5.516378e-06	-1.392812e-09	-3.836080e+01	-8.969127e+01
2.000000e-08	-5.516318e-06	-1.392491e-09	-3.836038e+01	-8.970027e+01
3.000000e-08	-5.515878e-06	-1.397350e-09	-3.835733e+01	-8.970848e+01
4.000000e-08	-5.514881e-06	-1.401971e-09	-3.835039e+01	-8.971562e+01
5.000000e-08	-5.513348e-06	-1.401070e-09	-3.833973e+01	-8.972142e+01
6.000000e-08	-5.511273e-06	-1.391864e-09	-3.832530e+01	-8.972558e+01
7.000000e-08	-5.508672e-06	-1.387352e-09	-3.830722e+01	-8.972780e+01
8.000000e-08	-5.505522e-06	-1.404673e-09	-3.828531e+01	-8.972777e+01
9.000000e-08	-5.501817e-06	-1.433784e-09	-3.825954e+01	-8.972519e+01
1.000000e-07	-5.497648e-06	-1.417066e-09	-3.823055e+01	-8.971974e+01
1.100000e-07	-5.493116e-06	-1.365127e-09	-3.819904e+01	-8.971112e+01
1.200000e-07	-5.488424e-06	-1.363775e-09	-3.816641e+01	-8.969901e+01
1.300000e-07	-5.483554e-06	-1.396439e-09	-3.813254e+01	-8.968312e+01
1.400000e-07	-5.478250e-06	-1.390559e-09	-3.809566e+01	-8.966316e+01
1.500000e-07	-5.472465e-06	-1.354692e-09	-3.805543e+01	-8.963884e+01
1.600000e-07	-5.466364e-06	-1.349560e-09	-3.801301e+01	-8.960991e+01
1.700000e-07	-5.459944e-06	-1.407629e-09	-3.796836e+01	-8.957609e+01
1.800000e-07	-5.453069e-06	-1.413011e-09	-3.792055e+01	-8.953716e+01
1.900000e-07	-5.445737e-06	-1.400394e-09	-3.786956e+01	-8.949289e+01
2.000000e-07	-5.438170e-06	-1.366767e-09	-3.781695e+01	-8.944307e+01
2.100000e-07	-5.430481e-06	-1.382489e-09	-3.776347e+01	-8.938751e+01
2.200000e-07	-5.422486e-06	-1.378981e-09	-3.770788e+01	-8.932605e+01
2.300000e-07	-5.414157e-06	-1.373725e-09	-3.764996e+01	-8.925854e+01
2.400000e-07	-5.405376e-06	-1.360742e-09	-3.758889e+01	-8.918485e+01
2.500000e-07	-5.395857e-06	-1.375283e-09	-3.752270e+01	-8.910488e+01
2.600000e-07	-5.385653e-06	-1.377566e-09	-3.745174e+01	-8.901853e+01
2.700000e-07	-5.374988e-06	-1.351231e-09	-3.737757e+01	-8.892574e+01
2.800000e-07	-5.363744e-06	-1.322795e-09	-3.729939e+01	-8.882646e+01
2.900000e-07	-5.351958e-06	-1.320711e-09	-3.721743e+01	-8.872067e+01
3.000000e-07	-5.339914e-06	-1.341492e-09	-3.713367e+01	-8.860835e+01
3.100000e-07	-5.327572e-06	-1.325383e-09	-3.704785e+01	-8.848952e+01
3.200000e-07	-5.314775e-06	-1.316569e-09	-3.695886e+01	-8.836421e+01
3.300000e-07	-5.301511e-06	-1.321932e-09	-3.686662e+01	-8.823245e+01
3.400000e-07	-5.287876e-06	-1.338184e-09	-3.677180e+01	-8.809431e+01
3.500000e-07	-5.273869e-06	-1.296654e-09	-3.667440e+01	-8.794986e+01
3.600000e-07	-5.259522e-06	-1.291230e-09	-3.657463e+01	-8.779918e+01
3.700000e-07	-5.244758e-06	-1.301455e-09	-3.647196e+01	-8.764237e+01
3.800000e-07	-5.229346e-06	-1.303107e-09	-3.636479e+01	-8.747954e+01
3.900000e-07	-5.213313e-06	-1.284204e-09	-3.625329e+01	-8.731080e+01
4.000000e-07	-5.196843e-06	-1.318963e-09	-3.613876e+01	-8.713628e+01
4.100000e-07	-5.180015e-06	-1.313375e-09	-3.602174e+01	-8.695611e+01
4.200000e-07	-5.162880e-06	-1.273145e-09	-3.590258e+01	-8.677043e+01
4.300000e-07	-5.145461e-06	-1.276372e-09	-3.578145e+01	-8.657936e+01
4.400000e-07	-5.127716e-06	-1.311362e-09	-3.565805e+01	-8.638306e+01
4.500000e-07	-5.109608e-06	-1.270060e-09	-3.553213e+01	-8.618166e+01
4.600000e-07	-5.091082e-06	-1.252491e-09	-3.540330e+01	-8.597532e+01
4.700000e-07	-5.072069e-06	-1.292791e-09	-3.527108e+01	-8.576417e+01
4.800000e-07	-5.052675e-06	-1.287453e-09	-3.513622e+01	-8.554835e+01
4.900000e-07	-5.033058e-06	-1.246003e-09	-3.499980e+01	-8.532800e+01
5.000000e-07	-5.013273e-06	-1.277306e-09	-3.486222e+01	-8.510326e+01
5.100000e-07	-4.993291e-06	-1.286750e-09	-3.472326e+01	-8.487426e+01
5.200000e-07	-4.972995e-06	-1.233787e-09	-3.458212e+01	-8.464112e+01
5.300000e-07	-4.952365e-06	-1.240434e-09	-3.443866e+01	-8.440396e+01
5.400000e-07	-4.931425e-06	-1.279855e-09	-3.429305e+01	-8.416291e+01
5.500000e-07	-4.910085e-06	-1.245886e-09	-3.414465e+01	-8.391806e+01
5.600000e-07	-4.888334e-06	-1.223176e-09	-3.399339e+01	-8.366953e+01
5.700000e-07	-4.866320e-06	-1.258845e-09	-3.384031e+01	-8.341740e+01
5.800000e-07	-4.844006e-06	-1.242389e-09	-3.368513e+01	-8.316176e+01
5.900000e-07	-4.821289e-06	-1.212700e-09	-3.352716e+01	-8.290270e+01
6.000000e-07	-4.798222e-06	-1.239561e-09	-3.336675e+01	-8.264029e+01
6.100000e-07	-4.774783e-06	-1.247885e-09	-3.320376e+01	-8.237458e+01
6.200000e-07	-4.751035e-06	-1.213185e-09	-3.303862e+01	-8.210565e+01
6.300000e-07	-4.727133e-06	-1.227818e-09	-3.287241e+01	-8.183354e+01
6.400000e-07	-4.703055e-06	-1.237276e-09	-3.270497e+01	-8.155829e+01
6.500000e-07	-4.678690e-06	-1.207807e-09	-3.253553e+01	-8.127994e+01
6.600000e-07	-4.653891e-06	-1.202699e-09	-3.236308e+01	-8.099851e+01
6.700000e-07	-4.628566e-06	-1.221655e-09	-3.218697e+01	-8.071403e+01
6.800000e-07	-4.602703e-06	-1.197599e-09	-3.200712e+01	-8.042650e+01
6.900000e-07	-4.576410e-06	-1.189630e-09	-3.182428e+01	-8.013594e+01
7.000000e-07	-4.549608e-06	-1.203343e-09	-3.163790e+01	-7.984234e+01
7.100000e-07	-4.522278e-06	-1.191967e-09	-3.144785e+01	-7.954570e+01
7.200000e-07	-4.494650e-06	-1.170436e-09	-3.125572e+01	-7.924599e+01
7.300000e-07	-4.466847e-06	-1.182551e-09	-3.106238e+01	-7.894319e+01
7.400000e-07	-4.438912e-06	-1.176972e-09	-3.086812e+01	-7.863728e+01
7.500000e-07	-4.410781e-06	-1.161586e-09	-3.067250e+01	-7.832822e+01
7.600000e-07	-4.382399e-06	-1.166219e-09	-3.047513e+01	-7.801596e+01
7.700000e-07	-4.353693e-06	-1.164329e-09	-3.027551e+01	-7.770046e+01
7.800000e-07	-4.324650e-06	-1.141469e-09	-3.007354e+01	-7.738167e+01
7.900000e-07	-4.295247e-06	-1.141710e-09	-2.986907e+01	-7.705951e+01
8.000000e-07	-4.265537e-06	-1.145640e-09	-2.966247e+01	-7.673392e+01
8.100000e-07	-4.235624e-06	-1.125485e-09	-2.945446e+01	-7.640484e+01
8.200000e-07	-4.205434e-06	-1.113071e-09	-2.924452e+01	-7.607218e+01
8.300000e-07	-4.174937e-06	-1.116746e-09	-2.903244e+01	-7.573586e+01
8.400000e-07	-4.144057e-06	-1.104975e-09	-2.881770e+01	-7.539579e+01
8.500000e-07	-4.112898e-06	-1.091452e-09	-2.860102e+01	-7.505188e+01
8.600000e-07	-4.081514e-06	-1.096496e-09	-2.838278e+01	-7.470403e+01
8.700000e-07	-4.049861e-06	-1.091175e-09	-2.816266e+01	-7.435214e+01
8.800000e-07	-4.018035e-06	-1.077984e-09	-2.794135e+01	-7.399611e+01
8.900000e-07	-3.986102e-06	-1.075811e-09	-2.771929e+01	-7.363584e+01
9.000000e-07	-3.954014e-06	-1.072671e-09	-2.749614e+01	-7.327121e+01
9.100000e-07	-3.921664e-06	-1.053253e-09	-2.727119e+01	-7.290213e+01
9.200000e-07	-3.888929e-06	-1.044853e-09	-2.704355e+01	-7.252846e+01
9.300000e-07	-3.855810e-06	-1.044570e-09	-2.681324e+01	-7.215012e+01
9.400000e-07	-3.822309e-06	-1.036274e-09	-2.658028e+01	-7.176700e+01
9.500000e-07	-3.788261e-06	-1.027508e-09	-2.634350e+01	-7.137897e+01
9.600000e-07	-3.753696e-06	-1.029956e-09	-2.610314e+01	-7.098595e+01
9.700000e-07	-3.718720e-06	-1.020138e-09	-2.585992e+01	-7.058783e+01
9.800000e-07	-3.683406e-06	-1.006249e-09	-2.561434e+01	-7.018452e+01
9.900000e-07	-3.647900e-06	-1.001205e-09	-2.536744e+01	-6.977593e+01
1.000000e-06	-3.612243e-06	-9.987522e-10	-2.511948e+01	-6.936197e+01
1.010000e-06	-3.576430e-06	-9.880334e-10	-2.487043e+01	-6.894257e+01
1.020000e-06	-3.540502e-06	-9.846502e-10	-2.462060e+01	-6.851767e+01
1.030000e-06	-3.504401e-06	-9.827904e-10	-2.436955e+01	-6.808719e+01
1.040000e-06	-3.468054e-06	-9.737376e-10	-2.411679e+01	-6.765110e+01
1.050000e-06	-3.431479e-06	-9.643585e-10	-2.386245e+01	-6.720936e+01
1.060000e-06	-3.394660e-06	-9.587878e-10	-2.360641e+01	-6.676194e+01
1.070000e-06	-3.357570e-06	-9.459234e-10	-2.334849e+01	-6.630882e+01
1.080000e-06	-3.320241e-06	-9.335428e-10	-2.308890e+01	-6.585000e+01
1.090000e-06	-3.282684e-06	-9.303795e-10	-2.282773e+01	-6.538550e+01
1.100000e-06	-3.244841e-06	-9.276443e-10	-2.256457e+01	-6.491534e+01
1.110000e-06	-3.206782e-06	-9.207952e-10	-2.229991e+01	-6.443954e+01
1.120000e-06	-3.168618e-06	-9.164591e-10	-2.203452e+01	-6.395817e+01
1.130000e-06	-3.130187e-06	-9.101353e-10	-2.176727e+01	-6.347128e+01
1.140000e-06	-3.091462e-06	-8.962714e-10	-2.149798e+01	-6.297894e+01
1.150000e-06	-3.052565e-06	-8.849965e-10	-2.122749e+01	-6.248124e+01
1.160000e-06	-3.013434e-06	-8.803521e-10	-2.095537e+01	-6.197828e+01
1.170000e-06	-2.974093e-06	-8.756380e-10	-2.068179e+01	-6.147016e+01
1.180000e-06	-2.934625e-06	-8.691693e-10	-2.040733e+01	-6.095700e+01
1.190000e-06	-2.895020e-06	-8.649506e-10	-2.013192e+01	-6.043892e+01
1.200000e-06	-2.855284e-06	-8.566662e-10	-1.985559e+01	-5.991604e+01
1.210000e-06	-2.815399e-06	-8.453383e-10	-1.957824e+01	-5.938850e+01
1.220000e-06	-2.775407e-06	-8.344889e-10	-1.930014e+01	-5.885643e+01
1.230000e-06	-2.735294e-06	-8.249673e-10	-1.902119e+01	-5.831996e+01
1.240000e-06	-2.695019e-06	-8.140100e-10	-1.874112e+01	-5.777923e+01
1.250000e-06	-2.654622e-06	-8.091156e-10	-1.846020e+01	-5.723437e+01
1.260000e-06	-2.614025e-06	-8.058795e-10	-1.817789e+01	-5.668550e+01
1.270000e-06	-2.573160e-06	-7.995952e-10	-1.789371e+01	-5.613272e+01
1.280000e-06	-2.532017e-06	-7.918393e-10	-1.760760e+01	-5.557615e+01
1.290000e-06	-2.490523e-06	-7.848053e-10	-1.731905e+01	-5.501586e+01
1.300000e-06	-2.448636e-06	-7.738159e-10	-1.702777e+01	-5.445194e+01
1.310000e-06	-2.406501e-06	-7.615286e-10	-1.673477e+01	-5.388442e+01
1.320000e-06	-2.364122e-06	-7.512893e-10	-1.644006e+01	-5.331333e+01
1.330000e-06	-2.321450e-06	-7.425327e-10	-1.614333e+01	-5.273869e+01
1.340000e-06	-2.278500e-06	-7.341254e-10	-1.584465e+01	-5.216047e+01
1.350000e-06	-2.235263e-06	-7.274741e-10	-1.554398e+01	-5.157861e+01
1.360000e-06	-2.191879e-06	-7.208004e-10	-1.524229e+01	-5.099303e+01
1.370000e-06	-2.148376e-06	-7.127945e-10	-1.493977e+01	-5.040362e+01
1.380000e-06	-2.104727e-06	-7.023535e-10	-1.463624e+01	-4.981023e+01
1.390000e-06	-2.060957e-06	-6.898932e-10	-1.433186e+01	-4.921266e+01
1.400000e-06	-2.017097e-06	-6.787437e-10	-1.402686e+01	-4.861068e+01
1.410000e-06	-1.973201e-06	-6.699980e-10	-1.372161e+01	-4.800405e+01
1.420000e-06	-1.929257e-06	-6.618521e-10	-1.341602e+01	-4.739244e+01
1.430000e-06	-1.885187e-06	-6.523315e-10	-1.310956e+01	-4.677552e+01
1.440000e-06	-1.841039e-06	-6.405531e-10	-1.280256e+01	-4.615290e+01
1.450000e-06	-1.796815e-06	-6.284809e-10	-1.249502e+01	-4.552416e+01
1.460000e-06	-1.752461e-06	-6.175349e-10	-1.218658e+01	-4.488883e+01
1.470000e-06	-1.707981e-06	-6.048671e-10	-1.187727e+01	-4.424643e+01
1.480000e-06	-1.663407e-06	-5.927906e-10	-1.156730e+01	-4.359641e+01
1.490000e-06	-1.618673e-06	-5.840025e-10	-1.125622e+01	-4.293820e+01
1.500000e-06	-1.573693e-06	-5.761851e-10	-1.094343e+01	-4.227121e+01
1.510000e-06	-1.528532e-06	-5.679199e-10	-1.062939e+01	-4.159481e+01
1.520000e-06	-1.483230e-06	-5.587361e-10	-1.031436e+01	-4.090834e+01
1.530000e-06	-1.437888e-06	-5.465476e-10	-9.999046e+00	-4.021113e+01
1.540000e-06	-1.392510e-06	-5.330327e-10	-9.683491e+00	-3.950248e+01
1.550000e-06	-1.347092e-06	-5.191062e-10	-9.367658e+00	-3.878169e+01
1.560000e-06	-1.301623e-06	-5.062149e-10	-9.051461e+00	-3.804803e+01
1.570000e-06	-1.256023e-06	-4.949924e-10	-8.734365e+00	-3.730078e+01
1.580000e-06	-1.210322e-06	-4.843271e-10	-8.416561e+00	-3.653922e+01
1.590000e-06	-1.164573e-06	-4.724271e-10	-8.098424e+00	-3.576263e+01
1.600000e-06	-1.118791e-06	-4.587534e-10	-7.780051e+00	-3.497031e+01
1.610000e-06	-1.072874e-06	-4.432748e-10	-7.460748e+00	-3.416156e+01
1.620000e-06	-1.026811e-06	-4.282633e-10	-7.140426e+00	-3.333571e+01
1.630000e-06	-9.807238e-07	-4.135214e-10	-6.819937e+00	-3.249213e+01
1.640000e-06	-9.346417e-07	-3.990240e-10	-6.499483e+00	-3.163019e+01
1.650000e-06	-8.884387e-07	-3.858880e-10	-6.178188e+00	-3.074934e+01
1.660000e-06	-8.420094e-07	-3.739237e-10	-5.855319e+00	-2.984903e+01
1.670000e-06	-7.955512e-07	-3.614687e-10	-5.532250e+00	-2.892880e+01
1.680000e-06	-7.491471e-07	-3.489143e-10	-5.209556e+00	-2.798821e+01
1.690000e-06	-7.027255e-07	-3.347448e-10	-4.886741e+00	-2.702691e+01
1.700000e-06	-6.562501e-07	-3.191707e-10	-4.563553e+00	-2.604458e+01
1.710000e-06	-6.097070e-07	-3.033103e-10	-4.239892e+00	-2.504099e+01
1.720000e-06	-5.630982e-07	-2.877321e-10	-3.915776e+00	-2.401598e+01
1.730000e-06	-5.163999e-07	-2.731284e-10	-3.591037e+00	-2.296947e+01
1.740000e-06	-4.697282e-07	-2.588254e-10	-3.266482e+00	-2.190143e+01
1.750000e-06	-4.230644e-07	-2.426581e-10	-2.941983e+00	-2.081194e+01
1.760000e-06	-3.763965e-07	-2.258725e-10	-2.617455e+00	-1.970115e+01
1.770000e-06	-3.296438e-07	-2.100531e-10	-2.292338e+00	-1.856930e+01
1.780000e-06	-2.828733e-07	-1.944646e-10	-1.967096e+00	-1.741670e+01
1.790000e-06	-2.360954e-07	-1.805482e-10	-1.641803e+00	-1.624377e+01
1.800000e-06	-1.892605e-07	-1.663894e-10	-1.316114e+00	-1.505100e+01
1.810000e-06	-1.425307e-07	-1.497721e-10	-9.911564e-01	-1.383895e+01
1.820000e-06	-9.581206e-08	-1.316024e-10	-6.662755e-01	-1.260829e+01
1.830000e-06	-4.902515e-08	-1.131050e-10	-3.409201e-01	-1.135976e+01
1.840000e-06	-2.158297e-09	-9.326512e-11	-1.500876e-02	-1.009417e+01
1.850000e-06	4.479959e-08	-7.529047e-11	3.115356e-01	-8.812418e+00
1.860000e-06	9.168596e-08	-5.817934e-11	6.375827e-01	-7.515466e+00
1.870000e-06	1.384514e-07	-4.001950e-11	9.627890e-01	-6.204346e+00
1.880000e-06	1.852055e-07	-2.367144e-11	1.287916e+00	-4.880152e+00
1.890000e-06	2.320155e-07	-8.897567e-12	1.613432e+00	-3.544037e+00
1.900000e-06	2.788255e-07	6.377046e-12	1.938948e+00	-2.197204e+00
1.910000e-06	3.255437e-07	2.301736e-11	2.263825e+00	-8.409048e-01
1.920000e-06	3.721989e-07	4.290296e-11	2.588265e+00	5.235700e-01
1.930000e-06	4.188810e-07	6.375349e-11	2.912892e+00	1.894896e+00
1.940000e-06	4.655973e-07	8.420462e-11	3.237756e+00	3.271720e+00
1.950000e-06	5.122192e-07	1.045789e-10	3.561964e+00	4.652672e+00
1.960000e-06	5.587032e-07	1.230743e-10	3.885213e+00	6.036367e+00
1.970000e-06	6.051141e-07	1.400433e-10	4.207953e+00	7.421412e+00
1.980000e-06	6.514842e-07	1.566070e-10	4.530410e+00	8.806418e+00
1.990000e-06	6.978275e-07	1.722336e-10	4.852681e+00	1.019000e+01
2.000000e-06	7.441842e-07	1.889640e-10	5.175045e+00	1.157080e+01
2.010000e-06	7.904722e-07	2.084597e-10	5.496930e+00	1.294747e+01
2.020000e-06	8.366959e-07	2.303364e-10	5.818370e+00	1.431868e+01
2.030000e-06	8.829325e-07	2.545265e-10	6.139898e+00	1.568317e+01
2.040000e-06	9.291465e-07	2.761465e-10	6.461269e+00	1.703968e+01
2.050000e-06	9.753080e-07	2.954545e-10	6.782276e+00	1.838702e+01
2.060000e-06	1.021351e-06	3.131901e-10	7.102455e+00	1.972405e+01
2.070000e-06	1.067298e-06	3.291849e-10	7.421975e+00	2.104969e+01
2.080000e-06	1.113135e-06	3.470250e-10	7.740722e+00	2.236290e+01
2.090000e-06	1.158881e-06	3.663803e-10	8.058836e+00	2.366273e+01
2.100000e-06	1.204575e-06	3.869224e-10	8.376593e+00	2.494829e+01
2.110000e-06	1.250151e-06	4.059233e-10	8.693532e+00	2.621875e+01
2.120000e-06	1.295635e-06	4.226078e-10	9.009824e+00	2.747337e+01
2.130000e-06	1.341015e-06	4.394832e-10	9.325396e+00	2.871147e+01
2.140000e-06	1.386271e-06	4.570330e-10	9.640103e+00	2.993245e+01
2.150000e-06	1.431467e-06	4.739328e-10	9.954398e+00	3.113581e+01
2.160000e-06	1.476535e-06	4.908310e-10	1.026780e+01	3.232108e+01
2.170000e-06	1.521493e-06	5.084682e-10	1.058043e+01	3.348792e+01
2.180000e-06	1.566361e-06	5.255191e-10	1.089245e+01	3.463601e+01
2.190000e-06	1.611129e-06	5.419558e-10	1.120376e+01	3.576516e+01
2.200000e-06	1.655837e-06	5.558433e-10	1.151466e+01	3.687519e+01
2.210000e-06	1.700356e-06	5.671433e-10	1.182425e+01	3.796605e+01
2.220000e-06	1.744675e-06	5.790310e-10	1.213244e+01	3.903771e+01
2.230000e-06	1.788912e-06	5.940751e-10	1.244007e+01	4.009022e+01
2.240000e-06	1.833094e-06	6.117729e-10	1.274730e+01	4.112370e+01
2.250000e-06	1.877179e-06	6.297901e-10	1.305387e+01	4.213829e+01
2.260000e-06	1.921147e-06	6.467491e-10	1.335962e+01	4.313420e+01
2.270000e-06	1.965034e-06	6.602245e-10	1.366482e+01	4.411170e+01
2.280000e-06	2.008909e-06	6.704866e-10	1.396992e+01	4.507108e+01
2.290000e-06	2.052782e-06	6.818694e-10	1.427501e+01	4.601267e+01
2.300000e-06	2.096618e-06	6.930370e-10	1.457984e+01	4.693683e+01
2.310000e-06	2.140324e-06	7.042092e-10	1.488377e+01	4.784394e+01
2.320000e-06	2.183875e-06	7.176572e-10	1.518663e+01	4.873441e+01
2.330000e-06	2.227325e-06	7.340408e-10	1.548878e+01	4.960866e+01
2.340000e-06	2.270539e-06	7.503549e-10	1.578929e+01	5.046712e+01
2.350000e-06	2.313394e-06	7.641981e-10	1.608731e+01	5.131023e+01
2.360000e-06	2.355970e-06	7.758132e-10	1.638338e+01	5.213843e+01
2.370000e-06	2.398289e-06	7.842610e-10	1.667766e+01	5.295215e+01
2.380000e-06	2.440357e-06	7.928008e-10	1.697020e+01	5.375182e+01
2.390000e-06	2.482137e-06	8.046840e-10	1.726074e+01	5.453785e+01
2.400000e-06	2.523664e-06	8.173132e-10	1.754952e+01	5.531065e+01
2.410000e-06	2.564898e-06	8.305867e-10	1.783626e+01	5.607061e+01
2.420000e-06	2.605815e-06	8.444804e-10	1.812080e+01	5.681809e+01
2.430000e-06	2.646496e-06	8.550091e-10	1.840369e+01	5.755343e+01
2.440000e-06	2.686940e-06	8.601766e-10	1.868494e+01	5.827695e+01
2.450000e-06	2.727167e-06	8.645192e-10	1.896468e+01	5.898895e+01
2.460000e-06	2.767251e-06	8.728280e-10	1.924342e+01	5.968970e+01
2.470000e-06	2.807224e-06	8.826723e-10	1.952139e+01	6.037944e+01
2.480000e-06	2.847073e-06	8.927425e-10	1.979850e+01	6.105839e+01
2.490000e-06	2.886829e-06	9.036521e-10	2.007496e+01	6.172672e+01
2.500000e-06	2.926458e-06	9.145712e-10	2.035054e+01	6.238461e+01
2.510000e-06	2.965922e-06	9.232644e-10	2.062497e+01	6.303220e+01
2.520000e-06	3.005194e-06	9.297903e-10	2.089807e+01	6.366958e+01
2.530000e-06	3.044180e-06	9.365511e-10	2.116918e+01	6.429686e+01
2.540000e-06	3.082936e-06	9.441494e-10	2.143868e+01	6.491410e+01
2.550000e-06	3.121473e-06	9.509644e-10	2.170667e+01	6.552135e+01
2.560000e-06	3.159725e-06	9.588698e-10	2.197268e+01	6.611865e+01
2.570000e-06	3.197766e-06	9.698712e-10	2.223721e+01	6.670601e+01
2.580000e-06	3.235700e-06	9.816090e-10	2.250100e+01	6.728345e+01
2.590000e-06	3.273513e-06	9.907700e-10	2.276395e+01	6.785096e+01
2.600000e-06	3.311078e-06	9.951015e-10	2.302518e+01	6.840853e+01
2.610000e-06	3.348421e-06	9.959040e-10	2.328487e+01	6.895615e+01
2.620000e-06	3.385514e-06	9.971682e-10	2.354281e+01	6.949382e+01
2.630000e-06	3.422325e-06	1.003740e-09	2.379879e+01	7.002152e+01
2.640000e-06	3.458884e-06	1.012957e-09	2.405302e+01	7.053924e+01
2.650000e-06	3.495206e-06	1.024938e-09	2.430561e+01	7.104699e+01
2.660000e-06	3.531357e-06	1.038519e-09	2.455700e+01	7.154477e+01
2.670000e-06	3.567381e-06	1.047654e-09	2.480751e+01	7.203261e+01
2.680000e-06	3.603283e-06	1.051409e-09	2.505717e+01	7.251054e+01
2.690000e-06	3.639013e-06	1.049287e-09	2.530564e+01	7.297861e+01
2.700000e-06	3.674589e-06	1.049142e-09	2.555303e+01	7.343687e+01
2.710000e-06	3.709961e-06	1.055243e-09	2.579901e+01	7.388542e+01
2.720000e-06	3.744975e-06	1.064720e-09	2.604249e+01	7.432435e+01
2.730000e-06	3.779615e-06	1.073627e-09	2.628338e+01	7.475378e+01
2.740000e-06	3.813896e-06	1.083459e-09	2.652177e+01	7.517383e+01
2.750000e-06	3.847691e-06	1.092138e-09	2.675678e+01	7.558468e+01
2.760000e-06	3.880907e-06	1.096162e-09	2.698776e+01	7.598648e+01
2.770000e-06	3.913630e-06	1.097796e-09	2.721532e+01	7.637942e+01
2.780000e-06	3.946005e-06	1.101014e-09	2.744045e+01	7.676372e+01
2.790000e-06	3.978152e-06	1.105642e-09	2.766401e+01	7.713959e+01
2.800000e-06	4.010124e-06	1.111516e-09	2.788633e+01	7.750726e+01
2.810000e-06	4.041953e-06	1.118321e-09	2.810768e+01	7.786700e+01
2.820000e-06	4.073647e-06	1.125415e-09	2.832807e+01	7.821904e+01
2.830000e-06	4.105138e-06	1.131895e-09	2.854706e+01	7.856366e+01
2.840000e-06	4.136301e-06	1.136524e-09	2.876377e+01	7.890112e+01
2.850000e-06	4.167127e-06	1.141549e-09	2.897813e+01	7.923172e+01
2.860000e-06	4.197692e-06	1.146349e-09	2.919068e+01	7.955571e+01
2.870000e-06	4.227951e-06	1.150383e-09	2.940110e+01	7.987338e+01
2.880000e-06	4.257870e-06	1.151313e-09	2.960916e+01	8.018500e+01
2.890000e-06	4.287533e-06	1.152071e-09	2.981544e+01	8.049084e+01
2.900000e-06	4.316935e-06	1.155872e-09	3.001989e+01	8.079115e+01
2.910000e-06	4.345980e-06	1.160419e-09	3.022188e+01	8.108618e+01
