# Temperatura_=_-11.37
# Concentracion g/m^3_=_1620.0
# C_Vs_to_Am_M_A/Vsm_=_65563218390.804596
# pendiente_HvsI_1/m_=_3716.3
# ordenada_HvsI_A/m_=_1297.0
# frecuencia_Hz_=_135102.35434253787

Tiempo_(s)	Campo_(V.s)	Magnetizacion_(V.s)	Campo_(kA/m)	Magnetizacion_(A/m)
0.000000e+00	-5.504276e-06	-8.502319e-10	-3.836428e+01	-5.430759e+01
1.000000e-08	-5.504646e-06	-8.490504e-10	-3.836686e+01	-5.430740e+01
2.000000e-08	-5.504727e-06	-8.474661e-10	-3.836743e+01	-5.430561e+01
3.000000e-08	-5.504460e-06	-8.481203e-10	-3.836556e+01	-5.430202e+01
4.000000e-08	-5.503702e-06	-8.497303e-10	-3.836028e+01	-5.429642e+01
5.000000e-08	-5.502475e-06	-8.525286e-10	-3.835173e+01	-5.428862e+01
6.000000e-08	-5.500796e-06	-8.615794e-10	-3.834003e+01	-5.427844e+01
7.000000e-08	-5.498475e-06	-8.632418e-10	-3.832385e+01	-5.426572e+01
8.000000e-08	-5.495528e-06	-8.635020e-10	-3.830331e+01	-5.425032e+01
9.000000e-08	-5.492100e-06	-8.318236e-10	-3.827941e+01	-5.423209e+01
1.000000e-07	-5.488197e-06	-7.869615e-10	-3.825221e+01	-5.421094e+01
1.100000e-07	-5.483973e-06	-8.004550e-10	-3.822277e+01	-5.418678e+01
1.200000e-07	-5.479565e-06	-8.994741e-10	-3.819205e+01	-5.415953e+01
1.300000e-07	-5.474878e-06	-8.920028e-10	-3.815938e+01	-5.412915e+01
1.400000e-07	-5.469850e-06	-8.351622e-10	-3.812433e+01	-5.409562e+01
1.500000e-07	-5.464362e-06	-7.841457e-10	-3.808608e+01	-5.405895e+01
1.600000e-07	-5.458454e-06	-8.955211e-10	-3.804491e+01	-5.401916e+01
1.700000e-07	-5.452207e-06	-8.964710e-10	-3.800136e+01	-5.397630e+01
1.800000e-07	-5.445551e-06	-8.323171e-10	-3.795497e+01	-5.393043e+01
1.900000e-07	-5.438518e-06	-7.629178e-10	-3.790595e+01	-5.388166e+01
2.000000e-07	-5.431228e-06	-8.350191e-10	-3.785514e+01	-5.383009e+01
2.100000e-07	-5.423625e-06	-8.516758e-10	-3.780215e+01	-5.377586e+01
2.200000e-07	-5.415607e-06	-8.160162e-10	-3.774627e+01	-5.371912e+01
2.300000e-07	-5.407344e-06	-7.757414e-10	-3.768867e+01	-5.366003e+01
2.400000e-07	-5.398872e-06	-7.994295e-10	-3.762963e+01	-5.359878e+01
2.500000e-07	-5.389757e-06	-8.196716e-10	-3.756609e+01	-5.353556e+01
2.600000e-07	-5.379965e-06	-7.745339e-10	-3.749784e+01	-5.347057e+01
2.700000e-07	-5.369663e-06	-7.642401e-10	-3.742604e+01	-5.340404e+01
2.800000e-07	-5.358655e-06	-7.639428e-10	-3.734931e+01	-5.333617e+01
2.900000e-07	-5.347105e-06	-7.935278e-10	-3.726882e+01	-5.326719e+01
3.000000e-07	-5.335275e-06	-7.568858e-10	-3.718636e+01	-5.319733e+01
3.100000e-07	-5.323093e-06	-7.756751e-10	-3.710145e+01	-5.312680e+01
3.200000e-07	-5.310480e-06	-7.615809e-10	-3.701354e+01	-5.305583e+01
3.300000e-07	-5.297509e-06	-7.987693e-10	-3.692314e+01	-5.298464e+01
3.400000e-07	-5.284160e-06	-7.513606e-10	-3.683009e+01	-5.291342e+01
3.500000e-07	-5.270370e-06	-7.453535e-10	-3.673398e+01	-5.284237e+01
3.600000e-07	-5.256043e-06	-7.345894e-10	-3.663412e+01	-5.277168e+01
3.700000e-07	-5.241311e-06	-7.816721e-10	-3.653144e+01	-5.270153e+01
3.800000e-07	-5.226310e-06	-7.466992e-10	-3.642688e+01	-5.263205e+01
3.900000e-07	-5.210782e-06	-7.632535e-10	-3.631866e+01	-5.256341e+01
4.000000e-07	-5.194678e-06	-7.777488e-10	-3.620641e+01	-5.249570e+01
4.100000e-07	-5.178192e-06	-7.603236e-10	-3.609151e+01	-5.242904e+01
4.200000e-07	-5.161303e-06	-7.163264e-10	-3.597379e+01	-5.236351e+01
4.300000e-07	-5.144068e-06	-7.686016e-10	-3.585366e+01	-5.229917e+01
4.400000e-07	-5.126633e-06	-7.754081e-10	-3.573214e+01	-5.223605e+01
4.500000e-07	-5.108815e-06	-7.129752e-10	-3.560796e+01	-5.217417e+01
4.600000e-07	-5.090458e-06	-7.296026e-10	-3.548001e+01	-5.211353e+01
4.700000e-07	-5.071743e-06	-7.955453e-10	-3.534957e+01	-5.205410e+01
4.800000e-07	-5.052802e-06	-7.475069e-10	-3.521755e+01	-5.199584e+01
4.900000e-07	-5.033547e-06	-7.130923e-10	-3.508334e+01	-5.193867e+01
5.000000e-07	-5.013964e-06	-7.799584e-10	-3.494685e+01	-5.188252e+01
5.100000e-07	-4.994141e-06	-7.637718e-10	-3.480869e+01	-5.182728e+01
5.200000e-07	-4.974027e-06	-7.100706e-10	-3.466849e+01	-5.177281e+01
5.300000e-07	-4.953594e-06	-7.615316e-10	-3.452608e+01	-5.171900e+01
5.400000e-07	-4.932853e-06	-7.910113e-10	-3.438152e+01	-5.166567e+01
5.500000e-07	-4.911731e-06	-7.098999e-10	-3.423430e+01	-5.161267e+01
5.600000e-07	-4.890266e-06	-7.337048e-10	-3.408469e+01	-5.155983e+01
5.700000e-07	-4.868512e-06	-7.898785e-10	-3.393307e+01	-5.150694e+01
5.800000e-07	-4.846355e-06	-7.466686e-10	-3.377863e+01	-5.145383e+01
5.900000e-07	-4.823776e-06	-7.168819e-10	-3.362126e+01	-5.140029e+01
6.000000e-07	-4.800906e-06	-7.832000e-10	-3.346186e+01	-5.134611e+01
6.100000e-07	-4.777732e-06	-7.578436e-10	-3.330034e+01	-5.129110e+01
6.200000e-07	-4.754311e-06	-7.230250e-10	-3.313710e+01	-5.123504e+01
6.300000e-07	-4.730698e-06	-7.557783e-10	-3.297252e+01	-5.117773e+01
6.400000e-07	-4.706819e-06	-7.710653e-10	-3.280608e+01	-5.111897e+01
6.500000e-07	-4.682653e-06	-7.274538e-10	-3.263765e+01	-5.105857e+01
6.600000e-07	-4.658116e-06	-7.534390e-10	-3.246662e+01	-5.099633e+01
6.700000e-07	-4.633132e-06	-7.630096e-10	-3.229249e+01	-5.093207e+01
6.800000e-07	-4.607615e-06	-7.370659e-10	-3.211464e+01	-5.086563e+01
6.900000e-07	-4.581527e-06	-7.346675e-10	-3.193280e+01	-5.079683e+01
7.000000e-07	-4.554949e-06	-7.588185e-10	-3.174756e+01	-5.072553e+01
7.100000e-07	-4.527975e-06	-7.348726e-10	-3.155955e+01	-5.065159e+01
7.200000e-07	-4.500649e-06	-7.301151e-10	-3.136910e+01	-5.057488e+01
7.300000e-07	-4.472996e-06	-7.453436e-10	-3.117636e+01	-5.049528e+01
7.400000e-07	-4.445171e-06	-7.412949e-10	-3.098242e+01	-5.041270e+01
7.500000e-07	-4.417213e-06	-7.262492e-10	-3.078755e+01	-5.032705e+01
7.600000e-07	-4.388987e-06	-7.343641e-10	-3.059082e+01	-5.023826e+01
7.700000e-07	-4.360444e-06	-7.315406e-10	-3.039188e+01	-5.014626e+01
7.800000e-07	-4.331652e-06	-7.185872e-10	-3.019121e+01	-5.005101e+01
7.900000e-07	-4.302571e-06	-7.202725e-10	-2.998851e+01	-4.995247e+01
8.000000e-07	-4.273102e-06	-7.201306e-10	-2.978311e+01	-4.985061e+01
8.100000e-07	-4.243338e-06	-7.107312e-10	-2.957566e+01	-4.974544e+01
8.200000e-07	-4.213375e-06	-7.071998e-10	-2.936682e+01	-4.963694e+01
8.300000e-07	-4.183132e-06	-7.119941e-10	-2.915603e+01	-4.952512e+01
8.400000e-07	-4.152582e-06	-7.011527e-10	-2.894310e+01	-4.941000e+01
8.500000e-07	-4.121747e-06	-7.002609e-10	-2.872819e+01	-4.929159e+01
8.600000e-07	-4.090553e-06	-7.046457e-10	-2.851077e+01	-4.916993e+01
8.700000e-07	-4.059193e-06	-7.061408e-10	-2.829219e+01	-4.904505e+01
8.800000e-07	-4.027779e-06	-6.963628e-10	-2.807324e+01	-4.891699e+01
8.900000e-07	-3.996132e-06	-7.022042e-10	-2.785266e+01	-4.878577e+01
9.000000e-07	-3.964193e-06	-6.966651e-10	-2.763005e+01	-4.865145e+01
9.100000e-07	-3.931992e-06	-6.867270e-10	-2.740561e+01	-4.851407e+01
9.200000e-07	-3.899490e-06	-6.803720e-10	-2.717908e+01	-4.837365e+01
9.300000e-07	-3.866639e-06	-6.836568e-10	-2.695011e+01	-4.823024e+01
9.400000e-07	-3.833335e-06	-6.742635e-10	-2.671798e+01	-4.808388e+01
9.500000e-07	-3.799642e-06	-6.756666e-10	-2.648314e+01	-4.793458e+01
9.600000e-07	-3.765571e-06	-6.804990e-10	-2.624567e+01	-4.778239e+01
9.700000e-07	-3.731012e-06	-6.777423e-10	-2.600480e+01	-4.762731e+01
9.800000e-07	-3.696101e-06	-6.658902e-10	-2.576147e+01	-4.746937e+01
9.900000e-07	-3.660859e-06	-6.679424e-10	-2.551584e+01	-4.730856e+01
1.000000e-06	-3.625338e-06	-6.654504e-10	-2.526826e+01	-4.714490e+01
1.010000e-06	-3.589667e-06	-6.600276e-10	-2.501964e+01	-4.697838e+01
1.020000e-06	-3.553900e-06	-6.590093e-10	-2.477034e+01	-4.680898e+01
1.030000e-06	-3.518005e-06	-6.626975e-10	-2.452016e+01	-4.663669e+01
1.040000e-06	-3.481939e-06	-6.550170e-10	-2.426879e+01	-4.646148e+01
1.050000e-06	-3.445667e-06	-6.526699e-10	-2.401597e+01	-4.628331e+01
1.060000e-06	-3.409129e-06	-6.568817e-10	-2.376131e+01	-4.610216e+01
1.070000e-06	-3.372344e-06	-6.540330e-10	-2.350492e+01	-4.591797e+01
1.080000e-06	-3.335279e-06	-6.490635e-10	-2.324658e+01	-4.573070e+01
1.090000e-06	-3.297967e-06	-6.486722e-10	-2.298652e+01	-4.554028e+01
1.100000e-06	-3.260461e-06	-6.463097e-10	-2.272511e+01	-4.534666e+01
1.110000e-06	-3.222715e-06	-6.357956e-10	-2.246201e+01	-4.514978e+01
1.120000e-06	-3.184694e-06	-6.326183e-10	-2.219701e+01	-4.494956e+01
1.130000e-06	-3.146417e-06	-6.323591e-10	-2.193022e+01	-4.474594e+01
1.140000e-06	-3.107896e-06	-6.327093e-10	-2.166174e+01	-4.453884e+01
1.150000e-06	-3.069139e-06	-6.320592e-10	-2.139161e+01	-4.432819e+01
1.160000e-06	-3.030204e-06	-6.346160e-10	-2.112023e+01	-4.411391e+01
1.170000e-06	-2.991162e-06	-6.297179e-10	-2.084812e+01	-4.389593e+01
1.180000e-06	-2.951935e-06	-6.215459e-10	-2.057470e+01	-4.367416e+01
1.190000e-06	-2.912505e-06	-6.143535e-10	-2.029989e+01	-4.344854e+01
1.200000e-06	-2.872933e-06	-6.111494e-10	-2.002407e+01	-4.321897e+01
1.210000e-06	-2.833212e-06	-6.059767e-10	-1.974722e+01	-4.298540e+01
1.220000e-06	-2.793383e-06	-6.069336e-10	-1.946961e+01	-4.274772e+01
1.230000e-06	-2.753409e-06	-6.051596e-10	-1.919100e+01	-4.250589e+01
1.240000e-06	-2.713310e-06	-6.018178e-10	-1.891152e+01	-4.225980e+01
1.250000e-06	-2.673064e-06	-5.953919e-10	-1.863100e+01	-4.200939e+01
1.260000e-06	-2.632426e-06	-5.924894e-10	-1.834776e+01	-4.175459e+01
1.270000e-06	-2.591483e-06	-5.857748e-10	-1.806239e+01	-4.149530e+01
1.280000e-06	-2.550417e-06	-5.792426e-10	-1.777617e+01	-4.123146e+01
1.290000e-06	-2.509175e-06	-5.768679e-10	-1.748871e+01	-4.096298e+01
1.300000e-06	-2.467769e-06	-5.787783e-10	-1.720011e+01	-4.068977e+01
1.310000e-06	-2.426051e-06	-5.773246e-10	-1.690934e+01	-4.041176e+01
1.320000e-06	-2.383892e-06	-5.738517e-10	-1.661550e+01	-4.012883e+01
1.330000e-06	-2.341327e-06	-5.692261e-10	-1.631883e+01	-3.984090e+01
1.340000e-06	-2.298442e-06	-5.593936e-10	-1.601992e+01	-3.954787e+01
1.350000e-06	-2.255388e-06	-5.490676e-10	-1.571984e+01	-3.924961e+01
1.360000e-06	-2.212211e-06	-5.447060e-10	-1.541890e+01	-3.894602e+01
1.370000e-06	-2.168856e-06	-5.427869e-10	-1.511672e+01	-3.863695e+01
1.380000e-06	-2.125311e-06	-5.410087e-10	-1.481321e+01	-3.832228e+01
1.390000e-06	-2.081682e-06	-5.399673e-10	-1.450912e+01	-3.800184e+01
1.400000e-06	-2.038004e-06	-5.352001e-10	-1.420470e+01	-3.767549e+01
1.410000e-06	-1.994240e-06	-5.280489e-10	-1.389966e+01	-3.734304e+01
1.420000e-06	-1.950388e-06	-5.194895e-10	-1.359402e+01	-3.700431e+01
1.430000e-06	-1.906441e-06	-5.145323e-10	-1.328771e+01	-3.665909e+01
1.440000e-06	-1.862398e-06	-5.103094e-10	-1.298073e+01	-3.630718e+01
1.450000e-06	-1.818229e-06	-5.064224e-10	-1.267288e+01	-3.594834e+01
1.460000e-06	-1.774005e-06	-5.026756e-10	-1.236465e+01	-3.558232e+01
1.470000e-06	-1.729701e-06	-5.006784e-10	-1.205585e+01	-3.520888e+01
1.480000e-06	-1.685277e-06	-4.950390e-10	-1.174622e+01	-3.482774e+01
1.490000e-06	-1.640744e-06	-4.874614e-10	-1.143583e+01	-3.443861e+01
1.500000e-06	-1.596052e-06	-4.804283e-10	-1.112433e+01	-3.404120e+01
1.510000e-06	-1.551172e-06	-4.721873e-10	-1.081152e+01	-3.363520e+01
1.520000e-06	-1.506127e-06	-4.612668e-10	-1.049756e+01	-3.322029e+01
1.530000e-06	-1.460943e-06	-4.523046e-10	-1.018264e+01	-3.279613e+01
1.540000e-06	-1.415711e-06	-4.451135e-10	-9.867370e+00	-3.236241e+01
1.550000e-06	-1.370456e-06	-4.421542e-10	-9.551945e+00	-3.191876e+01
1.560000e-06	-1.325118e-06	-4.355888e-10	-9.235946e+00	-3.146485e+01
1.570000e-06	-1.279720e-06	-4.270353e-10	-8.919529e+00	-3.100032e+01
1.580000e-06	-1.234275e-06	-4.173300e-10	-8.602782e+00	-3.052482e+01
1.590000e-06	-1.188701e-06	-4.059585e-10	-8.285133e+00	-3.003800e+01
1.600000e-06	-1.143001e-06	-3.961876e-10	-7.966605e+00	-2.953953e+01
1.610000e-06	-1.097283e-06	-3.878401e-10	-7.647956e+00	-2.902906e+01
1.620000e-06	-1.051423e-06	-3.785051e-10	-7.328321e+00	-2.850627e+01
1.630000e-06	-1.005460e-06	-3.683618e-10	-7.007960e+00	-2.797084e+01
1.640000e-06	-9.594232e-07	-3.605783e-10	-6.687088e+00	-2.742247e+01
1.650000e-06	-9.132832e-07	-3.541745e-10	-6.365497e+00	-2.686088e+01
1.660000e-06	-8.671731e-07	-3.447071e-10	-6.044114e+00	-2.628581e+01
1.670000e-06	-8.209726e-07	-3.343882e-10	-5.722101e+00	-2.569702e+01
1.680000e-06	-7.747158e-07	-3.263741e-10	-5.399696e+00	-2.509429e+01
1.690000e-06	-7.285635e-07	-3.183867e-10	-5.078018e+00	-2.447746e+01
1.700000e-06	-6.823952e-07	-3.101007e-10	-4.756230e+00	-2.384635e+01
1.710000e-06	-6.361550e-07	-3.003418e-10	-4.433940e+00	-2.320086e+01
1.720000e-06	-5.898485e-07	-2.901027e-10	-4.111188e+00	-2.254089e+01
1.730000e-06	-5.434462e-07	-2.798904e-10	-3.787769e+00	-2.186640e+01
1.740000e-06	-4.969682e-07	-2.703590e-10	-3.463821e+00	-2.117739e+01
1.750000e-06	-4.504083e-07	-2.617636e-10	-3.139303e+00	-2.047387e+01
1.760000e-06	-4.038391e-07	-2.526256e-10	-2.814720e+00	-1.975593e+01
1.770000e-06	-3.572386e-07	-2.417262e-10	-2.489919e+00	-1.902369e+01
1.780000e-06	-3.105936e-07	-2.296347e-10	-2.164808e+00	-1.827730e+01
1.790000e-06	-2.639293e-07	-2.163982e-10	-1.839562e+00	-1.751697e+01
1.800000e-06	-2.172484e-07	-2.061494e-10	-1.514201e+00	-1.674294e+01
1.810000e-06	-1.705548e-07	-1.976383e-10	-1.188751e+00	-1.595551e+01
1.820000e-06	-1.238405e-07	-1.902919e-10	-8.631569e-01	-1.515501e+01
1.830000e-06	-7.720905e-08	-1.804642e-10	-5.381397e-01	-1.434183e+01
1.840000e-06	-3.063784e-08	-1.689190e-10	-2.135428e-01	-1.351637e+01
1.850000e-06	1.596346e-08	-1.569902e-10	1.112638e-01	-1.267910e+01
1.860000e-06	6.263472e-08	-1.451004e-10	4.365580e-01	-1.183053e+01
1.870000e-06	1.092529e-07	-1.304819e-10	7.614822e-01	-1.097118e+01
1.880000e-06	1.558050e-07	-1.159363e-10	1.085946e+00	-1.010163e+01
1.890000e-06	2.023421e-07	-1.056278e-10	1.410305e+00	-9.222479e+00
1.900000e-06	2.489338e-07	-9.801338e-11	1.735045e+00	-8.334364e+00
1.910000e-06	2.956514e-07	-9.016786e-11	2.060663e+00	-7.437944e+00
1.920000e-06	3.423155e-07	-7.957207e-11	2.385906e+00	-6.533903e+00
1.930000e-06	3.889619e-07	-6.521794e-11	2.711027e+00	-5.622948e+00
1.940000e-06	4.356502e-07	-4.881125e-11	3.036441e+00	-4.705802e+00
1.950000e-06	4.821946e-07	-3.361071e-11	3.360851e+00	-3.783203e+00
1.960000e-06	5.286756e-07	-2.053374e-11	3.684819e+00	-2.855902e+00
1.970000e-06	5.751271e-07	-9.695502e-12	4.008581e+00	-1.924656e+00
1.980000e-06	6.214341e-07	5.456936e-14	4.331336e+00	-9.902261e-01
1.990000e-06	6.676916e-07	1.199959e-11	4.653747e+00	-5.337597e-02
2.000000e-06	7.138878e-07	2.337905e-11	4.975730e+00	8.851339e-01
2.010000e-06	7.600432e-07	3.799418e-11	5.297429e+00	1.824548e+00
2.020000e-06	8.061634e-07	5.205527e-11	5.618882e+00	2.764120e+00
2.030000e-06	8.522086e-07	6.463986e-11	5.939813e+00	3.703115e+00
2.040000e-06	8.982356e-07	7.932914e-11	6.260617e+00	4.640812e+00
2.050000e-06	9.441962e-07	9.305193e-11	6.580958e+00	5.576508e+00
2.060000e-06	9.901419e-07	1.082191e-10	6.901195e+00	6.509520e+00
2.070000e-06	1.036043e-06	1.227726e-10	7.221124e+00	7.439184e+00
2.080000e-06	1.081839e-06	1.371071e-10	7.540315e+00	8.364863e+00
2.090000e-06	1.127541e-06	1.487139e-10	7.858851e+00	9.285944e+00
2.100000e-06	1.173116e-06	1.601729e-10	8.176510e+00	1.020184e+01
2.110000e-06	1.218612e-06	1.707617e-10	8.493607e+00	1.111200e+01
2.120000e-06	1.264058e-06	1.825563e-10	8.810365e+00	1.201589e+01
2.130000e-06	1.309461e-06	1.955390e-10	9.126819e+00	1.291302e+01
2.140000e-06	1.354785e-06	2.093486e-10	9.442720e+00	1.380291e+01
2.150000e-06	1.399977e-06	2.239803e-10	9.757710e+00	1.468513e+01
2.160000e-06	1.445030e-06	2.376447e-10	1.007172e+01	1.555928e+01
2.170000e-06	1.490022e-06	2.497846e-10	1.038531e+01	1.642497e+01
2.180000e-06	1.534917e-06	2.608924e-10	1.069823e+01	1.728186e+01
2.190000e-06	1.579707e-06	2.704630e-10	1.101041e+01	1.812964e+01
2.200000e-06	1.624386e-06	2.822640e-10	1.132181e+01	1.896802e+01
2.210000e-06	1.668876e-06	2.935475e-10	1.163190e+01	1.979673e+01
2.220000e-06	1.713258e-06	3.057277e-10	1.194125e+01	2.061553e+01
2.230000e-06	1.757513e-06	3.185199e-10	1.224970e+01	2.142421e+01
2.240000e-06	1.801600e-06	3.316063e-10	1.255698e+01	2.222258e+01
2.250000e-06	1.845608e-06	3.447305e-10	1.286371e+01	2.301047e+01
2.260000e-06	1.889519e-06	3.556449e-10	1.316977e+01	2.378772e+01
2.270000e-06	1.933368e-06	3.650978e-10	1.347539e+01	2.455421e+01
2.280000e-06	1.977170e-06	3.719443e-10	1.378069e+01	2.530981e+01
2.290000e-06	2.020898e-06	3.795087e-10	1.408546e+01	2.605441e+01
2.300000e-06	2.064610e-06	3.899912e-10	1.439014e+01	2.678792e+01
2.310000e-06	2.108289e-06	4.001783e-10	1.469457e+01	2.751027e+01
2.320000e-06	2.151905e-06	4.106843e-10	1.499857e+01	2.822136e+01
2.330000e-06	2.195411e-06	4.236656e-10	1.530181e+01	2.892113e+01
2.340000e-06	2.238756e-06	4.358406e-10	1.560392e+01	2.960952e+01
2.350000e-06	2.281897e-06	4.467533e-10	1.590461e+01	3.028647e+01
2.360000e-06	2.324738e-06	4.544293e-10	1.620320e+01	3.095193e+01
2.370000e-06	2.367181e-06	4.601608e-10	1.649903e+01	3.160583e+01
2.380000e-06	2.409332e-06	4.662044e-10	1.679282e+01	3.224812e+01
2.390000e-06	2.451320e-06	4.758795e-10	1.708547e+01	3.287876e+01
2.400000e-06	2.493073e-06	4.860182e-10	1.737648e+01	3.349768e+01
2.410000e-06	2.534450e-06	4.970412e-10	1.766488e+01	3.410485e+01
2.420000e-06	2.575405e-06	5.077745e-10	1.795033e+01	3.470021e+01
2.430000e-06	2.616111e-06	5.165731e-10	1.823405e+01	3.528370e+01
2.440000e-06	2.656598e-06	5.228604e-10	1.851624e+01	3.585527e+01
2.450000e-06	2.696821e-06	5.258427e-10	1.879659e+01	3.641489e+01
2.460000e-06	2.736944e-06	5.296969e-10	1.907624e+01	3.696249e+01
2.470000e-06	2.776955e-06	5.372611e-10	1.935512e+01	3.749803e+01
2.480000e-06	2.816803e-06	5.455316e-10	1.963285e+01	3.802148e+01
2.490000e-06	2.856502e-06	5.521218e-10	1.990955e+01	3.853280e+01
2.500000e-06	2.896050e-06	5.576085e-10	2.018520e+01	3.903195e+01
2.510000e-06	2.935502e-06	5.644541e-10	2.046017e+01	3.951892e+01
2.520000e-06	2.974833e-06	5.720118e-10	2.073430e+01	3.999369e+01
2.530000e-06	3.013989e-06	5.791328e-10	2.100722e+01	4.045625e+01
2.540000e-06	3.052918e-06	5.855072e-10	2.127855e+01	4.090661e+01
2.550000e-06	3.091590e-06	5.929389e-10	2.154809e+01	4.134479e+01
2.560000e-06	3.129982e-06	5.998050e-10	2.181568e+01	4.177083e+01
2.570000e-06	3.168072e-06	6.045643e-10	2.208116e+01	4.218476e+01
2.580000e-06	3.206011e-06	6.095103e-10	2.234560e+01	4.258667e+01
2.590000e-06	3.243835e-06	6.148211e-10	2.260922e+01	4.297663e+01
2.600000e-06	3.281437e-06	6.186848e-10	2.287131e+01	4.335474e+01
2.610000e-06	3.318831e-06	6.210216e-10	2.313194e+01	4.372112e+01
2.620000e-06	3.355960e-06	6.270440e-10	2.339072e+01	4.407591e+01
2.630000e-06	3.392782e-06	6.336907e-10	2.364737e+01	4.441928e+01
2.640000e-06	3.429402e-06	6.385214e-10	2.390261e+01	4.475140e+01
2.650000e-06	3.465752e-06	6.426456e-10	2.415596e+01	4.507248e+01
2.660000e-06	3.501826e-06	6.485073e-10	2.440739e+01	4.538274e+01
2.670000e-06	3.537775e-06	6.534109e-10	2.465795e+01	4.568242e+01
2.680000e-06	3.573622e-06	6.575440e-10	2.490781e+01	4.597179e+01
2.690000e-06	3.609319e-06	6.606984e-10	2.515661e+01	4.625113e+01
2.700000e-06	3.644920e-06	6.620558e-10	2.540475e+01	4.652074e+01
2.710000e-06	3.680371e-06	6.654339e-10	2.565184e+01	4.678094e+01
2.720000e-06	3.715485e-06	6.717701e-10	2.589657e+01	4.703206e+01
2.730000e-06	3.750270e-06	6.764126e-10	2.613902e+01	4.727445e+01
2.740000e-06	3.784702e-06	6.787806e-10	2.637902e+01	4.750847e+01
2.750000e-06	3.818610e-06	6.822107e-10	2.661535e+01	4.773449e+01
2.760000e-06	3.851979e-06	6.871921e-10	2.684792e+01	4.795288e+01
2.770000e-06	3.884948e-06	6.918440e-10	2.707772e+01	4.816403e+01
2.780000e-06	3.917528e-06	6.948689e-10	2.730480e+01	4.836834e+01
2.790000e-06	3.949807e-06	6.972271e-10	2.752978e+01	4.856617e+01
2.800000e-06	3.981885e-06	6.995347e-10	2.775336e+01	4.875794e+01
2.810000e-06	4.013761e-06	7.033555e-10	2.797553e+01	4.894401e+01
2.820000e-06	4.045479e-06	7.070988e-10	2.819660e+01	4.912477e+01
2.830000e-06	4.077011e-06	7.096337e-10	2.841638e+01	4.930058e+01
2.840000e-06	4.108274e-06	7.114516e-10	2.863428e+01	4.947182e+01
2.850000e-06	4.139294e-06	7.123555e-10	2.885049e+01	4.963881e+01
2.860000e-06	4.170039e-06	7.139789e-10	2.906477e+01	4.980190e+01
2.870000e-06	4.200440e-06	7.168387e-10	2.927667e+01	4.996139e+01
2.880000e-06	4.230532e-06	7.197794e-10	2.948641e+01	5.011758e+01
2.890000e-06	4.260310e-06	7.215409e-10	2.969396e+01	5.027075e+01
2.900000e-06	4.289753e-06	7.223804e-10	2.989917e+01	5.042113e+01
