# Temperatura_=_-24.72
# Concentracion g/m^3_=_1620.0
# C_Vs_to_Am_M_A/Vsm_=_65563218390.804596
# pendiente_HvsI_1/m_=_3716.3
# ordenada_HvsI_A/m_=_1297.0
# frecuencia_Hz_=_135101.5758512678

Tiempo_(s)	Campo_(V.s)	Magnetizacion_(V.s)	Campo_(kA/m)	Magnetizacion_(A/m)
0.000000e+00	-5.534036e-06	-7.060748e-10	-3.837683e+01	-4.586329e+01
1.000000e-08	-5.534268e-06	-7.056083e-10	-3.837844e+01	-4.584024e+01
2.000000e-08	-5.534309e-06	-7.036310e-10	-3.837872e+01	-4.581579e+01
3.000000e-08	-5.534077e-06	-7.031323e-10	-3.837711e+01	-4.579000e+01
4.000000e-08	-5.533386e-06	-7.034970e-10	-3.837232e+01	-4.576288e+01
5.000000e-08	-5.532122e-06	-7.028393e-10	-3.836355e+01	-4.573450e+01
6.000000e-08	-5.530247e-06	-7.044520e-10	-3.835055e+01	-4.570490e+01
7.000000e-08	-5.527767e-06	-7.103446e-10	-3.833335e+01	-4.567413e+01
8.000000e-08	-5.524716e-06	-7.126107e-10	-3.831220e+01	-4.564225e+01
9.000000e-08	-5.521151e-06	-6.918407e-10	-3.828747e+01	-4.560932e+01
1.000000e-07	-5.517202e-06	-6.911072e-10	-3.826009e+01	-4.557542e+01
1.100000e-07	-5.512894e-06	-7.207652e-10	-3.823022e+01	-4.554061e+01
1.200000e-07	-5.508337e-06	-7.087620e-10	-3.819861e+01	-4.550498e+01
1.300000e-07	-5.503571e-06	-6.826715e-10	-3.816556e+01	-4.546861e+01
1.400000e-07	-5.498488e-06	-6.775403e-10	-3.813032e+01	-4.543159e+01
1.500000e-07	-5.492978e-06	-7.080332e-10	-3.809211e+01	-4.539401e+01
1.600000e-07	-5.486990e-06	-7.187731e-10	-3.805058e+01	-4.535597e+01
1.700000e-07	-5.480704e-06	-6.818716e-10	-3.800698e+01	-4.531758e+01
1.800000e-07	-5.474076e-06	-7.058479e-10	-3.796103e+01	-4.527893e+01
1.900000e-07	-5.466949e-06	-7.141994e-10	-3.791160e+01	-4.524014e+01
2.000000e-07	-5.459435e-06	-7.064120e-10	-3.785949e+01	-4.520132e+01
2.100000e-07	-5.451723e-06	-6.437770e-10	-3.780601e+01	-4.516257e+01
2.200000e-07	-5.443812e-06	-6.581655e-10	-3.775115e+01	-4.512402e+01
2.300000e-07	-5.435630e-06	-6.709211e-10	-3.769441e+01	-4.508577e+01
2.400000e-07	-5.427139e-06	-6.840822e-10	-3.763553e+01	-4.504794e+01
2.500000e-07	-5.418030e-06	-6.582273e-10	-3.757236e+01	-4.501064e+01
2.600000e-07	-5.408125e-06	-6.511916e-10	-3.750368e+01	-4.497397e+01
2.700000e-07	-5.397494e-06	-6.477409e-10	-3.742995e+01	-4.493805e+01
2.800000e-07	-5.386313e-06	-6.422183e-10	-3.735241e+01	-4.490298e+01
2.900000e-07	-5.374805e-06	-6.330848e-10	-3.727261e+01	-4.486885e+01
3.000000e-07	-5.362961e-06	-6.335414e-10	-3.719048e+01	-4.483575e+01
3.100000e-07	-5.350751e-06	-6.526382e-10	-3.710581e+01	-4.480376e+01
3.200000e-07	-5.338125e-06	-6.503283e-10	-3.701825e+01	-4.477297e+01
3.300000e-07	-5.324980e-06	-6.561314e-10	-3.692709e+01	-4.474344e+01
3.400000e-07	-5.311423e-06	-6.382248e-10	-3.683308e+01	-4.471522e+01
3.500000e-07	-5.297536e-06	-6.458943e-10	-3.673678e+01	-4.468838e+01
3.600000e-07	-5.283227e-06	-6.298520e-10	-3.663754e+01	-4.466293e+01
3.700000e-07	-5.268413e-06	-6.317846e-10	-3.653482e+01	-4.463891e+01
3.800000e-07	-5.253155e-06	-6.314992e-10	-3.642901e+01	-4.461634e+01
3.900000e-07	-5.237411e-06	-6.608626e-10	-3.631982e+01	-4.459521e+01
4.000000e-07	-5.221100e-06	-6.435120e-10	-3.620671e+01	-4.457551e+01
4.100000e-07	-5.204399e-06	-6.366065e-10	-3.609090e+01	-4.455722e+01
4.200000e-07	-5.187378e-06	-6.458875e-10	-3.597286e+01	-4.454032e+01
4.300000e-07	-5.169987e-06	-6.540224e-10	-3.585226e+01	-4.452473e+01
4.400000e-07	-5.152326e-06	-6.204466e-10	-3.572979e+01	-4.451042e+01
4.500000e-07	-5.134452e-06	-6.346721e-10	-3.560584e+01	-4.449729e+01
4.600000e-07	-5.116134e-06	-6.540767e-10	-3.547881e+01	-4.448527e+01
4.700000e-07	-5.097308e-06	-6.392629e-10	-3.534825e+01	-4.447426e+01
4.800000e-07	-5.078126e-06	-6.150035e-10	-3.521524e+01	-4.446415e+01
4.900000e-07	-5.058670e-06	-6.427209e-10	-3.508031e+01	-4.445483e+01
5.000000e-07	-5.038996e-06	-6.417024e-10	-3.494388e+01	-4.444615e+01
5.100000e-07	-5.019088e-06	-6.217546e-10	-3.480583e+01	-4.443800e+01
5.200000e-07	-4.998955e-06	-6.302992e-10	-3.466621e+01	-4.443021e+01
5.300000e-07	-4.978508e-06	-6.436940e-10	-3.452441e+01	-4.442266e+01
5.400000e-07	-4.957661e-06	-6.218984e-10	-3.437985e+01	-4.441516e+01
5.500000e-07	-4.936450e-06	-6.222554e-10	-3.423275e+01	-4.440757e+01
5.600000e-07	-4.914903e-06	-6.397633e-10	-3.408333e+01	-4.439973e+01
5.700000e-07	-4.892989e-06	-6.246847e-10	-3.393136e+01	-4.439145e+01
5.800000e-07	-4.870723e-06	-6.162990e-10	-3.377696e+01	-4.438259e+01
5.900000e-07	-4.848162e-06	-6.350366e-10	-3.362050e+01	-4.437297e+01
6.000000e-07	-4.825279e-06	-6.392159e-10	-3.346182e+01	-4.436244e+01
6.100000e-07	-4.802112e-06	-6.266729e-10	-3.330116e+01	-4.435081e+01
6.200000e-07	-4.778650e-06	-6.399178e-10	-3.313846e+01	-4.433796e+01
6.300000e-07	-4.754863e-06	-6.424578e-10	-3.297351e+01	-4.432371e+01
6.400000e-07	-4.730863e-06	-6.307224e-10	-3.280707e+01	-4.430793e+01
6.500000e-07	-4.706644e-06	-6.264580e-10	-3.263912e+01	-4.429049e+01
6.600000e-07	-4.681972e-06	-6.374273e-10	-3.246803e+01	-4.427124e+01
6.700000e-07	-4.656763e-06	-6.276843e-10	-3.229321e+01	-4.425008e+01
6.800000e-07	-4.631041e-06	-6.291845e-10	-3.211484e+01	-4.422690e+01
6.900000e-07	-4.604710e-06	-6.357106e-10	-3.193224e+01	-4.420160e+01
7.000000e-07	-4.577865e-06	-6.407007e-10	-3.174608e+01	-4.417409e+01
7.100000e-07	-4.550661e-06	-6.329336e-10	-3.155743e+01	-4.414431e+01
7.200000e-07	-4.523194e-06	-6.375983e-10	-3.136695e+01	-4.411218e+01
7.300000e-07	-4.495528e-06	-6.352414e-10	-3.117509e+01	-4.407767e+01
7.400000e-07	-4.467646e-06	-6.350561e-10	-3.098174e+01	-4.404074e+01
7.500000e-07	-4.439623e-06	-6.332784e-10	-3.078741e+01	-4.400136e+01
7.600000e-07	-4.411324e-06	-6.409961e-10	-3.059117e+01	-4.395952e+01
7.700000e-07	-4.382633e-06	-6.417007e-10	-3.039221e+01	-4.391522e+01
7.800000e-07	-4.353622e-06	-6.408911e-10	-3.019102e+01	-4.386848e+01
7.900000e-07	-4.324291e-06	-6.378015e-10	-2.998762e+01	-4.381932e+01
8.000000e-07	-4.294679e-06	-6.365151e-10	-2.978227e+01	-4.376778e+01
8.100000e-07	-4.264886e-06	-6.310640e-10	-2.957567e+01	-4.371389e+01
8.200000e-07	-4.234880e-06	-6.270751e-10	-2.936758e+01	-4.365771e+01
8.300000e-07	-4.204451e-06	-6.239063e-10	-2.915657e+01	-4.359930e+01
8.400000e-07	-4.173648e-06	-6.233936e-10	-2.894296e+01	-4.353872e+01
8.500000e-07	-4.142638e-06	-6.245406e-10	-2.872791e+01	-4.347605e+01
8.600000e-07	-4.111337e-06	-6.247148e-10	-2.851085e+01	-4.341136e+01
8.700000e-07	-4.079765e-06	-6.246498e-10	-2.829191e+01	-4.334474e+01
8.800000e-07	-4.048075e-06	-6.236976e-10	-2.807215e+01	-4.327625e+01
8.900000e-07	-4.016225e-06	-6.244811e-10	-2.785128e+01	-4.320599e+01
9.000000e-07	-3.984155e-06	-6.206381e-10	-2.762889e+01	-4.313403e+01
9.100000e-07	-3.951798e-06	-6.172726e-10	-2.740450e+01	-4.306045e+01
9.200000e-07	-3.919027e-06	-6.130552e-10	-2.717724e+01	-4.298533e+01
9.300000e-07	-3.885820e-06	-6.115953e-10	-2.694696e+01	-4.290874e+01
9.400000e-07	-3.852193e-06	-6.110537e-10	-2.671377e+01	-4.283074e+01
9.500000e-07	-3.818118e-06	-6.151540e-10	-2.647747e+01	-4.275140e+01
9.600000e-07	-3.783628e-06	-6.153292e-10	-2.623829e+01	-4.267076e+01
9.700000e-07	-3.748837e-06	-6.139841e-10	-2.599703e+01	-4.258887e+01
9.800000e-07	-3.713758e-06	-6.090680e-10	-2.575376e+01	-4.250577e+01
9.900000e-07	-3.678369e-06	-6.094792e-10	-2.550835e+01	-4.242147e+01
1.000000e-06	-3.642747e-06	-6.086297e-10	-2.526132e+01	-4.233599e+01
1.010000e-06	-3.606967e-06	-6.111342e-10	-2.501320e+01	-4.224933e+01
1.020000e-06	-3.570968e-06	-6.125681e-10	-2.476356e+01	-4.216149e+01
1.030000e-06	-3.534805e-06	-6.130970e-10	-2.451278e+01	-4.207244e+01
1.040000e-06	-3.498554e-06	-6.070100e-10	-2.426139e+01	-4.198214e+01
1.050000e-06	-3.462083e-06	-6.052454e-10	-2.400848e+01	-4.189056e+01
1.060000e-06	-3.425270e-06	-6.028289e-10	-2.375319e+01	-4.179764e+01
1.070000e-06	-3.388187e-06	-6.001949e-10	-2.349603e+01	-4.170330e+01
1.080000e-06	-3.350913e-06	-5.969737e-10	-2.323755e+01	-4.160747e+01
1.090000e-06	-3.313386e-06	-5.972508e-10	-2.297731e+01	-4.151005e+01
1.100000e-06	-3.275588e-06	-5.970543e-10	-2.271519e+01	-4.141094e+01
1.110000e-06	-3.237605e-06	-5.958237e-10	-2.245179e+01	-4.131003e+01
1.120000e-06	-3.199456e-06	-5.953932e-10	-2.218724e+01	-4.120719e+01
1.130000e-06	-3.161110e-06	-5.948062e-10	-2.192132e+01	-4.110230e+01
1.140000e-06	-3.122538e-06	-5.923897e-10	-2.165384e+01	-4.099521e+01
1.150000e-06	-3.083648e-06	-5.898890e-10	-2.138415e+01	-4.088577e+01
1.160000e-06	-3.044481e-06	-5.887590e-10	-2.111254e+01	-4.077383e+01
1.170000e-06	-3.005166e-06	-5.888094e-10	-2.083989e+01	-4.065923e+01
1.180000e-06	-2.965722e-06	-5.885258e-10	-2.056636e+01	-4.054180e+01
1.190000e-06	-2.926173e-06	-5.874305e-10	-2.029210e+01	-4.042137e+01
1.200000e-06	-2.886487e-06	-5.879519e-10	-2.001690e+01	-4.029777e+01
1.210000e-06	-2.846632e-06	-5.863092e-10	-1.974052e+01	-4.017082e+01
1.220000e-06	-2.806705e-06	-5.842997e-10	-1.946363e+01	-4.004035e+01
1.230000e-06	-2.766630e-06	-5.810467e-10	-1.918572e+01	-3.990616e+01
1.240000e-06	-2.726319e-06	-5.776817e-10	-1.890618e+01	-3.976809e+01
1.250000e-06	-2.685775e-06	-5.738901e-10	-1.862502e+01	-3.962594e+01
1.260000e-06	-2.644883e-06	-5.743684e-10	-1.834145e+01	-3.947955e+01
1.270000e-06	-2.603785e-06	-5.731433e-10	-1.805644e+01	-3.932872e+01
1.280000e-06	-2.562459e-06	-5.736665e-10	-1.776986e+01	-3.917328e+01
1.290000e-06	-2.520848e-06	-5.739140e-10	-1.748130e+01	-3.901304e+01
1.300000e-06	-2.479032e-06	-5.713356e-10	-1.719132e+01	-3.884784e+01
1.310000e-06	-2.436862e-06	-5.650123e-10	-1.689888e+01	-3.867748e+01
1.320000e-06	-2.394368e-06	-5.592659e-10	-1.660420e+01	-3.850181e+01
1.330000e-06	-2.351532e-06	-5.552676e-10	-1.630715e+01	-3.832064e+01
1.340000e-06	-2.308339e-06	-5.540360e-10	-1.600761e+01	-3.813380e+01
1.350000e-06	-2.265018e-06	-5.538924e-10	-1.570720e+01	-3.794112e+01
1.360000e-06	-2.221595e-06	-5.555029e-10	-1.540607e+01	-3.774242e+01
1.370000e-06	-2.178022e-06	-5.543981e-10	-1.510391e+01	-3.753753e+01
1.380000e-06	-2.134362e-06	-5.517359e-10	-1.480114e+01	-3.732627e+01
1.390000e-06	-2.090599e-06	-5.483062e-10	-1.449766e+01	-3.710848e+01
1.400000e-06	-2.046731e-06	-5.443799e-10	-1.419344e+01	-3.688397e+01
1.410000e-06	-2.002803e-06	-5.396774e-10	-1.388882e+01	-3.665256e+01
1.420000e-06	-1.958823e-06	-5.359889e-10	-1.358383e+01	-3.641407e+01
1.430000e-06	-1.914798e-06	-5.340312e-10	-1.327853e+01	-3.616832e+01
1.440000e-06	-1.870584e-06	-5.320344e-10	-1.297192e+01	-3.591511e+01
1.450000e-06	-1.826202e-06	-5.307649e-10	-1.266415e+01	-3.565425e+01
1.460000e-06	-1.781870e-06	-5.289528e-10	-1.235672e+01	-3.538554e+01
1.470000e-06	-1.737406e-06	-5.257267e-10	-1.204837e+01	-3.510877e+01
1.480000e-06	-1.692718e-06	-5.201413e-10	-1.173848e+01	-3.482373e+01
1.490000e-06	-1.647892e-06	-5.155733e-10	-1.142762e+01	-3.453021e+01
1.500000e-06	-1.602957e-06	-5.120395e-10	-1.111601e+01	-3.422797e+01
1.510000e-06	-1.557932e-06	-5.077940e-10	-1.080378e+01	-3.391680e+01
1.520000e-06	-1.512823e-06	-5.026833e-10	-1.049096e+01	-3.359645e+01
1.530000e-06	-1.467533e-06	-4.990604e-10	-1.017689e+01	-3.326668e+01
1.540000e-06	-1.422026e-06	-4.975927e-10	-9.861313e+00	-3.292724e+01
1.550000e-06	-1.376410e-06	-4.971082e-10	-9.544977e+00	-3.257788e+01
1.560000e-06	-1.330793e-06	-4.935656e-10	-9.228639e+00	-3.221835e+01
1.570000e-06	-1.285168e-06	-4.880795e-10	-8.912240e+00	-3.184838e+01
1.580000e-06	-1.239367e-06	-4.802161e-10	-8.594626e+00	-3.146770e+01
1.590000e-06	-1.193464e-06	-4.697239e-10	-8.276304e+00	-3.107606e+01
1.600000e-06	-1.147537e-06	-4.607474e-10	-7.957818e+00	-3.067319e+01
1.610000e-06	-1.101562e-06	-4.549473e-10	-7.638992e+00	-3.025882e+01
1.620000e-06	-1.055496e-06	-4.489794e-10	-7.319537e+00	-2.983269e+01
1.630000e-06	-1.009358e-06	-4.428404e-10	-6.999587e+00	-2.939454e+01
1.640000e-06	-9.632096e-07	-4.370731e-10	-6.679561e+00	-2.894412e+01
1.650000e-06	-9.169220e-07	-4.300448e-10	-6.358570e+00	-2.848119e+01
1.660000e-06	-8.705129e-07	-4.200074e-10	-6.036738e+00	-2.800550e+01
1.670000e-06	-8.241078e-07	-4.095156e-10	-5.714933e+00	-2.751684e+01
1.680000e-06	-7.776503e-07	-4.005401e-10	-5.392765e+00	-2.701500e+01
1.690000e-06	-7.311675e-07	-3.937545e-10	-5.070420e+00	-2.649977e+01
1.700000e-06	-6.846744e-07	-3.867751e-10	-4.748005e+00	-2.597099e+01
1.710000e-06	-6.381177e-07	-3.776523e-10	-4.425149e+00	-2.542850e+01
1.720000e-06	-5.915013e-07	-3.666480e-10	-4.101878e+00	-2.487217e+01
1.730000e-06	-5.448947e-07	-3.566075e-10	-3.778676e+00	-2.430188e+01
1.740000e-06	-4.982170e-07	-3.467388e-10	-3.454981e+00	-2.371755e+01
1.750000e-06	-4.513637e-07	-3.352225e-10	-3.130067e+00	-2.311912e+01
1.760000e-06	-4.045534e-07	-3.236024e-10	-2.805453e+00	-2.250657e+01
1.770000e-06	-3.577747e-07	-3.129369e-10	-2.481057e+00	-2.187991e+01
1.780000e-06	-3.108835e-07	-3.022677e-10	-2.155881e+00	-2.123917e+01
1.790000e-06	-2.639752e-07	-2.919954e-10	-1.830586e+00	-2.058442e+01
1.800000e-06	-2.170521e-07	-2.842319e-10	-1.505190e+00	-1.991579e+01
1.810000e-06	-1.701690e-07	-2.754058e-10	-1.180070e+00	-1.923340e+01
1.820000e-06	-1.232984e-07	-2.641700e-10	-8.550365e-01	-1.853745e+01
1.830000e-06	-7.636126e-08	-2.523314e-10	-5.295417e-01	-1.782817e+01
1.840000e-06	-2.939441e-08	-2.402228e-10	-2.038411e-01	-1.710580e+01
1.850000e-06	1.760496e-08	-2.275951e-10	1.220850e-01	-1.637065e+01
1.860000e-06	6.459010e-08	-2.170267e-10	4.479123e-01	-1.562307e+01
1.870000e-06	1.115616e-07	-2.056908e-10	7.736449e-01	-1.486342e+01
1.880000e-06	1.584291e-07	-1.935209e-10	1.098656e+00	-1.409213e+01
1.890000e-06	2.052206e-07	-1.841243e-10	1.423141e+00	-1.330965e+01
1.900000e-06	2.520581e-07	-1.756450e-10	1.747945e+00	-1.251646e+01
1.910000e-06	2.989201e-07	-1.658265e-10	2.072918e+00	-1.171310e+01
1.920000e-06	3.457714e-07	-1.549762e-10	2.397818e+00	-1.090012e+01
1.930000e-06	3.926552e-07	-1.421578e-10	2.722943e+00	-1.007810e+01
1.940000e-06	4.395619e-07	-1.292872e-10	3.048226e+00	-9.247671e+00
1.950000e-06	4.863961e-07	-1.174182e-10	3.373006e+00	-8.409474e+00
1.960000e-06	5.331173e-07	-1.064231e-10	3.697003e+00	-7.564181e+00
1.970000e-06	5.797425e-07	-9.555681e-11	4.020335e+00	-6.712484e+00
1.980000e-06	6.263125e-07	-8.334983e-11	4.343284e+00	-5.855095e+00
1.990000e-06	6.728846e-07	-7.267299e-11	4.666247e+00	-4.992744e+00
2.000000e-06	7.194029e-07	-6.355822e-11	4.988837e+00	-4.126174e+00
2.010000e-06	7.658144e-07	-4.945149e-11	5.310686e+00	-3.256138e+00
2.020000e-06	8.121911e-07	-3.383460e-11	5.632294e+00	-2.383398e+00
2.030000e-06	8.585595e-07	-1.751980e-11	5.953845e+00	-1.508719e+00
2.040000e-06	9.048620e-07	-8.440534e-13	6.274938e+00	-6.328676e-01
2.050000e-06	9.510754e-07	1.282714e-11	6.595414e+00	2.433910e-01
2.060000e-06	9.972641e-07	2.454240e-11	6.915718e+00	1.119298e+00
2.070000e-06	1.043356e-06	3.429088e-11	7.235353e+00	1.994101e+00
2.080000e-06	1.089347e-06	4.439799e-11	7.554283e+00	2.867061e+00
2.090000e-06	1.135304e-06	5.520112e-11	7.872980e+00	3.737453e+00
2.100000e-06	1.181193e-06	6.898103e-11	8.191209e+00	4.604567e+00
2.110000e-06	1.226945e-06	8.340056e-11	8.508485e+00	5.467715e+00
2.120000e-06	1.272565e-06	9.646653e-11	8.824844e+00	6.326229e+00
2.130000e-06	1.318115e-06	1.068664e-10	9.140720e+00	7.179468e+00
2.140000e-06	1.363652e-06	1.168133e-10	9.456505e+00	8.026816e+00
2.150000e-06	1.409160e-06	1.271057e-10	9.772087e+00	8.867686e+00
2.160000e-06	1.454536e-06	1.385611e-10	1.008676e+01	9.701520e+00
2.170000e-06	1.499752e-06	1.512219e-10	1.040031e+01	1.052779e+01
2.180000e-06	1.544917e-06	1.626727e-10	1.071352e+01	1.134601e+01
2.190000e-06	1.590011e-06	1.744470e-10	1.102624e+01	1.215572e+01
2.200000e-06	1.634865e-06	1.874372e-10	1.133728e+01	1.295649e+01
2.210000e-06	1.679497e-06	1.978407e-10	1.164679e+01	1.374793e+01
2.220000e-06	1.724042e-06	2.063480e-10	1.195570e+01	1.452969e+01
2.230000e-06	1.768533e-06	2.155062e-10	1.226423e+01	1.530145e+01
2.240000e-06	1.812896e-06	2.260519e-10	1.257187e+01	1.606292e+01
2.250000e-06	1.857115e-06	2.370439e-10	1.287852e+01	1.681386e+01
2.260000e-06	1.901180e-06	2.492401e-10	1.318410e+01	1.755403e+01
2.270000e-06	1.945156e-06	2.614499e-10	1.348905e+01	1.828327e+01
2.280000e-06	1.989085e-06	2.714754e-10	1.379369e+01	1.900141e+01
2.290000e-06	2.032926e-06	2.798760e-10	1.409771e+01	1.970833e+01
2.300000e-06	2.076736e-06	2.884354e-10	1.440152e+01	2.040393e+01
2.310000e-06	2.120470e-06	2.962727e-10	1.470480e+01	2.108814e+01
2.320000e-06	2.164080e-06	3.037223e-10	1.500723e+01	2.176093e+01
2.330000e-06	2.207621e-06	3.153448e-10	1.530917e+01	2.242226e+01
2.340000e-06	2.251115e-06	3.266756e-10	1.561079e+01	2.307213e+01
2.350000e-06	2.294482e-06	3.371538e-10	1.591152e+01	2.371057e+01
2.360000e-06	2.337653e-06	3.491593e-10	1.621090e+01	2.433761e+01
2.370000e-06	2.380667e-06	3.597482e-10	1.650919e+01	2.495329e+01
2.380000e-06	2.423490e-06	3.675226e-10	1.680615e+01	2.555769e+01
2.390000e-06	2.466029e-06	3.732408e-10	1.710115e+01	2.615087e+01
2.400000e-06	2.508078e-06	3.777563e-10	1.739275e+01	2.673291e+01
2.410000e-06	2.549608e-06	3.821235e-10	1.768074e+01	2.730391e+01
2.420000e-06	2.590810e-06	3.911045e-10	1.796647e+01	2.786395e+01
2.430000e-06	2.631816e-06	4.033145e-10	1.825083e+01	2.841314e+01
2.440000e-06	2.672590e-06	4.130954e-10	1.853359e+01	2.895157e+01
2.450000e-06	2.713006e-06	4.200899e-10	1.881386e+01	2.947933e+01
2.460000e-06	2.753199e-06	4.250058e-10	1.909258e+01	2.999653e+01
2.470000e-06	2.793286e-06	4.291241e-10	1.937057e+01	3.050326e+01
2.480000e-06	2.833231e-06	4.349830e-10	1.964758e+01	3.099960e+01
2.490000e-06	2.873064e-06	4.440542e-10	1.992381e+01	3.148565e+01
2.500000e-06	2.912767e-06	4.543930e-10	2.019914e+01	3.196148e+01
2.510000e-06	2.952353e-06	4.640585e-10	2.047366e+01	3.242716e+01
2.520000e-06	2.991851e-06	4.721967e-10	2.074756e+01	3.288276e+01
2.530000e-06	3.031202e-06	4.762270e-10	2.102045e+01	3.332835e+01
2.540000e-06	3.070377e-06	4.782873e-10	2.129211e+01	3.376397e+01
2.550000e-06	3.109227e-06	4.836182e-10	2.156153e+01	3.418968e+01
2.560000e-06	3.147749e-06	4.892820e-10	2.182867e+01	3.460552e+01
2.570000e-06	3.186081e-06	4.968092e-10	2.209448e+01	3.501152e+01
2.580000e-06	3.224180e-06	5.056401e-10	2.235869e+01	3.540773e+01
2.590000e-06	3.262041e-06	5.136249e-10	2.262124e+01	3.579415e+01
2.600000e-06	3.299757e-06	5.182835e-10	2.288280e+01	3.617082e+01
2.610000e-06	3.337297e-06	5.202835e-10	2.314312e+01	3.653777e+01
2.620000e-06	3.374606e-06	5.239442e-10	2.340185e+01	3.689500e+01
2.630000e-06	3.411651e-06	5.307883e-10	2.365874e+01	3.724254e+01
2.640000e-06	3.448366e-06	5.369654e-10	2.391335e+01	3.758042e+01
2.650000e-06	3.484729e-06	5.422540e-10	2.416552e+01	3.790865e+01
2.660000e-06	3.520872e-06	5.463096e-10	2.441616e+01	3.822725e+01
2.670000e-06	3.556913e-06	5.485598e-10	2.466610e+01	3.853627e+01
2.680000e-06	3.592807e-06	5.505831e-10	2.491500e+01	3.883573e+01
2.690000e-06	3.628575e-06	5.538744e-10	2.516305e+01	3.912568e+01
2.700000e-06	3.664217e-06	5.551002e-10	2.541021e+01	3.940617e+01
2.710000e-06	3.699745e-06	5.568940e-10	2.565658e+01	3.967725e+01
2.720000e-06	3.735099e-06	5.632454e-10	2.590176e+01	3.993900e+01
2.730000e-06	3.770166e-06	5.682659e-10	2.614494e+01	4.019149e+01
2.740000e-06	3.804817e-06	5.719118e-10	2.638523e+01	4.043482e+01
2.750000e-06	3.839003e-06	5.714069e-10	2.662230e+01	4.066908e+01
2.760000e-06	3.872735e-06	5.722122e-10	2.685622e+01	4.089439e+01
2.770000e-06	3.905976e-06	5.732314e-10	2.708674e+01	4.111089e+01
2.780000e-06	3.938681e-06	5.750472e-10	2.731354e+01	4.131870e+01
2.790000e-06	3.970893e-06	5.805238e-10	2.753692e+01	4.151800e+01
2.800000e-06	4.002894e-06	5.856222e-10	2.775883e+01	4.170893e+01
2.810000e-06	4.034784e-06	5.882661e-10	2.797998e+01	4.189169e+01
2.820000e-06	4.066562e-06	5.871206e-10	2.820035e+01	4.206647e+01
2.830000e-06	4.098229e-06	5.856874e-10	2.841995e+01	4.223347e+01
2.840000e-06	4.129709e-06	5.869437e-10	2.863825e+01	4.239291e+01
2.850000e-06	4.160887e-06	5.873756e-10	2.885447e+01	4.254502e+01
2.860000e-06	4.191753e-06	5.887117e-10	2.906851e+01	4.269004e+01
2.870000e-06	4.222371e-06	5.914534e-10	2.928084e+01	4.282823e+01
2.880000e-06	4.252667e-06	5.946870e-10	2.949093e+01	4.295983e+01
2.890000e-06	4.282583e-06	5.945656e-10	2.969839e+01	4.308511e+01
2.900000e-06	4.312120e-06	5.920287e-10	2.990322e+01	4.320435e+01
