# Temperatura_=_14.2
# Concentracion g/m^3_=_1620.0
# C_Vs_to_Am_M_A/Vsm_=_65563218390.804596
# pendiente_HvsI_1/m_=_3716.3
# ordenada_HvsI_A/m_=_1297.0
# frecuencia_Hz_=_135102.82549641334

Tiempo_(s)	Campo_(V.s)	Magnetizacion_(V.s)	Campo_(kA/m)	Magnetizacion_(A/m)
0.000000e+00	-5.524695e-06	-1.143464e-09	-3.837786e+01	-7.414943e+01
1.000000e-08	-5.524783e-06	-1.142491e-09	-3.837848e+01	-7.411814e+01
2.000000e-08	-5.524599e-06	-1.140318e-09	-3.837719e+01	-7.408305e+01
3.000000e-08	-5.523972e-06	-1.138433e-09	-3.837284e+01	-7.404405e+01
4.000000e-08	-5.522822e-06	-1.137746e-09	-3.836485e+01	-7.400102e+01
5.000000e-08	-5.521162e-06	-1.137066e-09	-3.835332e+01	-7.395386e+01
6.000000e-08	-5.518872e-06	-1.140431e-09	-3.833741e+01	-7.390249e+01
7.000000e-08	-5.515980e-06	-1.158157e-09	-3.831732e+01	-7.384685e+01
8.000000e-08	-5.512561e-06	-1.139776e-09	-3.829357e+01	-7.378689e+01
9.000000e-08	-5.508664e-06	-1.079689e-09	-3.826650e+01	-7.372258e+01
1.000000e-07	-5.504476e-06	-1.097499e-09	-3.823741e+01	-7.365391e+01
1.100000e-07	-5.500051e-06	-1.177643e-09	-3.820667e+01	-7.358090e+01
1.200000e-07	-5.495276e-06	-1.187710e-09	-3.817350e+01	-7.350357e+01
1.300000e-07	-5.490203e-06	-1.116806e-09	-3.813826e+01	-7.342197e+01
1.400000e-07	-5.484739e-06	-1.063572e-09	-3.810030e+01	-7.333618e+01
1.500000e-07	-5.478801e-06	-1.162218e-09	-3.805906e+01	-7.324628e+01
1.600000e-07	-5.472606e-06	-1.174974e-09	-3.801602e+01	-7.315239e+01
1.700000e-07	-5.466065e-06	-1.125184e-09	-3.797058e+01	-7.305463e+01
1.800000e-07	-5.459035e-06	-1.049905e-09	-3.792174e+01	-7.295313e+01
1.900000e-07	-5.451652e-06	-1.101271e-09	-3.787046e+01	-7.284805e+01
2.000000e-07	-5.443981e-06	-1.116728e-09	-3.781718e+01	-7.273957e+01
2.100000e-07	-5.436150e-06	-1.094817e-09	-3.776277e+01	-7.262785e+01
2.200000e-07	-5.428106e-06	-1.057836e-09	-3.770689e+01	-7.251308e+01
2.300000e-07	-5.419567e-06	-1.070349e-09	-3.764758e+01	-7.239546e+01
2.400000e-07	-5.410450e-06	-1.085637e-09	-3.758425e+01	-7.227518e+01
2.500000e-07	-5.400732e-06	-1.058169e-09	-3.751674e+01	-7.215244e+01
2.600000e-07	-5.390346e-06	-1.046089e-09	-3.744459e+01	-7.202744e+01
2.700000e-07	-5.379410e-06	-1.040643e-09	-3.736862e+01	-7.190038e+01
2.800000e-07	-5.368029e-06	-1.067565e-09	-3.728957e+01	-7.177144e+01
2.900000e-07	-5.356284e-06	-1.057122e-09	-3.720798e+01	-7.164082e+01
3.000000e-07	-5.344177e-06	-1.067442e-09	-3.712387e+01	-7.150867e+01
3.100000e-07	-5.331594e-06	-1.058426e-09	-3.703647e+01	-7.137518e+01
3.200000e-07	-5.318614e-06	-1.086442e-09	-3.694630e+01	-7.124048e+01
3.300000e-07	-5.305268e-06	-1.049754e-09	-3.685359e+01	-7.110472e+01
3.400000e-07	-5.291474e-06	-1.032576e-09	-3.675777e+01	-7.096800e+01
3.500000e-07	-5.277292e-06	-1.027447e-09	-3.665925e+01	-7.083044e+01
3.600000e-07	-5.262613e-06	-1.054984e-09	-3.655728e+01	-7.069210e+01
3.700000e-07	-5.247372e-06	-1.028395e-09	-3.645141e+01	-7.055306e+01
3.800000e-07	-5.231681e-06	-1.053177e-09	-3.634241e+01	-7.041336e+01
3.900000e-07	-5.215544e-06	-1.066105e-09	-3.623031e+01	-7.027301e+01
4.000000e-07	-5.199008e-06	-1.030717e-09	-3.611544e+01	-7.013201e+01
4.100000e-07	-5.182140e-06	-9.964501e-10	-3.599827e+01	-6.999035e+01
4.200000e-07	-5.164947e-06	-1.052394e-09	-3.587883e+01	-6.984798e+01
4.300000e-07	-5.147372e-06	-1.046413e-09	-3.575675e+01	-6.970484e+01
4.400000e-07	-5.129383e-06	-9.900395e-10	-3.563179e+01	-6.956086e+01
4.500000e-07	-5.111023e-06	-1.017483e-09	-3.550425e+01	-6.941593e+01
4.600000e-07	-5.092301e-06	-1.064426e-09	-3.537419e+01	-6.926994e+01
4.700000e-07	-5.073177e-06	-1.010797e-09	-3.524134e+01	-6.912277e+01
4.800000e-07	-5.053768e-06	-9.955137e-10	-3.510652e+01	-6.897427e+01
4.900000e-07	-5.034229e-06	-1.051281e-09	-3.497079e+01	-6.882429e+01
5.000000e-07	-5.014487e-06	-1.022745e-09	-3.483365e+01	-6.867268e+01
5.100000e-07	-4.994426e-06	-9.814079e-10	-3.469429e+01	-6.851927e+01
5.200000e-07	-4.973979e-06	-1.030591e-09	-3.455226e+01	-6.836388e+01
5.300000e-07	-4.953080e-06	-1.042058e-09	-3.440708e+01	-6.820634e+01
5.400000e-07	-4.931806e-06	-9.781003e-10	-3.425930e+01	-6.804649e+01
5.500000e-07	-4.910250e-06	-9.998724e-10	-3.410955e+01	-6.788414e+01
5.600000e-07	-4.888462e-06	-1.032457e-09	-3.395820e+01	-6.771913e+01
5.700000e-07	-4.866385e-06	-9.951120e-10	-3.380484e+01	-6.755131e+01
5.800000e-07	-4.843914e-06	-9.838201e-10	-3.364875e+01	-6.738052e+01
5.900000e-07	-4.821052e-06	-1.027613e-09	-3.348993e+01	-6.720661e+01
6.000000e-07	-4.797923e-06	-1.003223e-09	-3.332926e+01	-6.702947e+01
6.100000e-07	-4.774525e-06	-9.828136e-10	-3.316673e+01	-6.684898e+01
6.200000e-07	-4.750805e-06	-1.001551e-09	-3.300196e+01	-6.666502e+01
6.300000e-07	-4.726842e-06	-1.002749e-09	-3.283549e+01	-6.647753e+01
6.400000e-07	-4.702560e-06	-9.761305e-10	-3.266682e+01	-6.628643e+01
6.500000e-07	-4.677889e-06	-9.921608e-10	-3.249544e+01	-6.609167e+01
6.600000e-07	-4.652809e-06	-9.919127e-10	-3.232121e+01	-6.589322e+01
6.700000e-07	-4.627226e-06	-9.755496e-10	-3.214350e+01	-6.569105e+01
6.800000e-07	-4.601098e-06	-9.727930e-10	-3.196200e+01	-6.548518e+01
6.900000e-07	-4.574426e-06	-9.829582e-10	-3.177672e+01	-6.527562e+01
7.000000e-07	-4.547345e-06	-9.697542e-10	-3.158860e+01	-6.506241e+01
7.100000e-07	-4.520038e-06	-9.674447e-10	-3.139891e+01	-6.484559e+01
7.200000e-07	-4.492508e-06	-9.692612e-10	-3.120767e+01	-6.462523e+01
7.300000e-07	-4.464754e-06	-9.678960e-10	-3.101487e+01	-6.440141e+01
7.400000e-07	-4.436744e-06	-9.627778e-10	-3.082029e+01	-6.417420e+01
7.500000e-07	-4.408463e-06	-9.601228e-10	-3.062384e+01	-6.394371e+01
7.600000e-07	-4.379982e-06	-9.502237e-10	-3.042599e+01	-6.371004e+01
7.700000e-07	-4.351243e-06	-9.429573e-10	-3.022636e+01	-6.347329e+01
7.800000e-07	-4.322145e-06	-9.403660e-10	-3.002423e+01	-6.323358e+01
7.900000e-07	-4.292672e-06	-9.343234e-10	-2.981949e+01	-6.299101e+01
8.000000e-07	-4.262833e-06	-9.292819e-10	-2.961221e+01	-6.274569e+01
8.100000e-07	-4.232694e-06	-9.269841e-10	-2.940284e+01	-6.249773e+01
8.200000e-07	-4.202321e-06	-9.237160e-10	-2.919185e+01	-6.224722e+01
8.300000e-07	-4.171727e-06	-9.122840e-10	-2.897933e+01	-6.199425e+01
8.400000e-07	-4.140865e-06	-9.087867e-10	-2.876494e+01	-6.173889e+01
8.500000e-07	-4.109678e-06	-9.073857e-10	-2.854830e+01	-6.148122e+01
8.600000e-07	-4.078208e-06	-9.052643e-10	-2.832969e+01	-6.122128e+01
8.700000e-07	-4.046560e-06	-8.990289e-10	-2.810984e+01	-6.095911e+01
8.800000e-07	-4.014758e-06	-8.991546e-10	-2.788893e+01	-6.069472e+01
8.900000e-07	-3.982770e-06	-8.886993e-10	-2.766672e+01	-6.042811e+01
9.000000e-07	-3.950582e-06	-8.780903e-10	-2.744312e+01	-6.015926e+01
9.100000e-07	-3.918047e-06	-8.714574e-10	-2.721712e+01	-5.988812e+01
9.200000e-07	-3.885077e-06	-8.692791e-10	-2.698808e+01	-5.961464e+01
9.300000e-07	-3.851689e-06	-8.588111e-10	-2.675616e+01	-5.933873e+01
9.400000e-07	-3.817922e-06	-8.567640e-10	-2.652158e+01	-5.906028e+01
9.500000e-07	-3.783777e-06	-8.568213e-10	-2.628440e+01	-5.877918e+01
9.600000e-07	-3.749194e-06	-8.514595e-10	-2.604416e+01	-5.849528e+01
9.700000e-07	-3.714267e-06	-8.405445e-10	-2.580154e+01	-5.820843e+01
9.800000e-07	-3.679054e-06	-8.390247e-10	-2.555693e+01	-5.791844e+01
9.900000e-07	-3.643574e-06	-8.344188e-10	-2.531046e+01	-5.762514e+01
1.000000e-06	-3.607883e-06	-8.288239e-10	-2.506253e+01	-5.732831e+01
1.010000e-06	-3.571964e-06	-8.274250e-10	-2.481301e+01	-5.702774e+01
1.020000e-06	-3.535914e-06	-8.271476e-10	-2.456259e+01	-5.672322e+01
1.030000e-06	-3.499798e-06	-8.203445e-10	-2.431171e+01	-5.641452e+01
1.040000e-06	-3.463491e-06	-8.168668e-10	-2.405949e+01	-5.610141e+01
1.050000e-06	-3.426917e-06	-8.134972e-10	-2.380543e+01	-5.578367e+01
1.060000e-06	-3.390055e-06	-8.058569e-10	-2.354936e+01	-5.546106e+01
1.070000e-06	-3.352916e-06	-7.967275e-10	-2.329138e+01	-5.513337e+01
1.080000e-06	-3.315502e-06	-7.906646e-10	-2.303148e+01	-5.480039e+01
1.090000e-06	-3.277830e-06	-7.857615e-10	-2.276979e+01	-5.446192e+01
1.100000e-06	-3.239976e-06	-7.782203e-10	-2.250682e+01	-5.411777e+01
1.110000e-06	-3.201893e-06	-7.757946e-10	-2.224228e+01	-5.376777e+01
1.120000e-06	-3.163501e-06	-7.732914e-10	-2.197558e+01	-5.341178e+01
1.130000e-06	-3.124837e-06	-7.684221e-10	-2.170700e+01	-5.304966e+01
1.140000e-06	-3.085941e-06	-7.604457e-10	-2.143681e+01	-5.268131e+01
1.150000e-06	-3.046930e-06	-7.561854e-10	-2.116581e+01	-5.230664e+01
1.160000e-06	-3.007846e-06	-7.505915e-10	-2.089431e+01	-5.192559e+01
1.170000e-06	-2.968524e-06	-7.444164e-10	-2.062116e+01	-5.153814e+01
1.180000e-06	-2.928985e-06	-7.401446e-10	-2.034649e+01	-5.114428e+01
1.190000e-06	-2.889384e-06	-7.384675e-10	-2.007141e+01	-5.074402e+01
1.200000e-06	-2.849692e-06	-7.324577e-10	-1.979568e+01	-5.033742e+01
1.210000e-06	-2.809862e-06	-7.258826e-10	-1.951900e+01	-4.992456e+01
1.220000e-06	-2.769831e-06	-7.165721e-10	-1.924091e+01	-4.950552e+01
1.230000e-06	-2.729562e-06	-7.068322e-10	-1.896118e+01	-4.908043e+01
1.240000e-06	-2.689148e-06	-6.962754e-10	-1.868045e+01	-4.864943e+01
1.250000e-06	-2.648485e-06	-6.905879e-10	-1.839797e+01	-4.821268e+01
1.260000e-06	-2.607419e-06	-6.860483e-10	-1.811271e+01	-4.777037e+01
1.270000e-06	-2.566053e-06	-6.812884e-10	-1.782535e+01	-4.732267e+01
1.280000e-06	-2.524511e-06	-6.762765e-10	-1.753678e+01	-4.686978e+01
1.290000e-06	-2.482799e-06	-6.707630e-10	-1.724702e+01	-4.641192e+01
1.300000e-06	-2.440845e-06	-6.611688e-10	-1.695558e+01	-4.594928e+01
1.310000e-06	-2.398597e-06	-6.501280e-10	-1.666210e+01	-4.548207e+01
1.320000e-06	-2.356011e-06	-6.416202e-10	-1.636628e+01	-4.501049e+01
1.330000e-06	-2.313091e-06	-6.341315e-10	-1.606813e+01	-4.453471e+01
1.340000e-06	-2.269931e-06	-6.274388e-10	-1.576831e+01	-4.405493e+01
1.350000e-06	-2.226646e-06	-6.219804e-10	-1.546762e+01	-4.357127e+01
1.360000e-06	-2.183226e-06	-6.151466e-10	-1.516600e+01	-4.308387e+01
1.370000e-06	-2.139571e-06	-6.076315e-10	-1.486275e+01	-4.259282e+01
1.380000e-06	-2.095832e-06	-6.006053e-10	-1.455891e+01	-4.209818e+01
1.390000e-06	-2.052094e-06	-5.919012e-10	-1.425508e+01	-4.159998e+01
1.400000e-06	-2.008247e-06	-5.821838e-10	-1.395050e+01	-4.109820e+01
1.410000e-06	-1.964298e-06	-5.731683e-10	-1.364520e+01	-4.059278e+01
1.420000e-06	-1.920279e-06	-5.674082e-10	-1.333942e+01	-4.008361e+01
1.430000e-06	-1.876138e-06	-5.601170e-10	-1.303279e+01	-3.957053e+01
1.440000e-06	-1.831956e-06	-5.518157e-10	-1.272587e+01	-3.905333e+01
1.450000e-06	-1.787797e-06	-5.439071e-10	-1.241912e+01	-3.853174e+01
1.460000e-06	-1.743490e-06	-5.369931e-10	-1.211133e+01	-3.800543e+01
1.470000e-06	-1.698930e-06	-5.290643e-10	-1.180180e+01	-3.747404e+01
1.480000e-06	-1.654242e-06	-5.222884e-10	-1.149136e+01	-3.693712e+01
1.490000e-06	-1.609429e-06	-5.158674e-10	-1.118007e+01	-3.639418e+01
1.500000e-06	-1.564403e-06	-5.070998e-10	-1.086729e+01	-3.584469e+01
1.510000e-06	-1.519348e-06	-4.955826e-10	-1.055431e+01	-3.528803e+01
1.520000e-06	-1.474271e-06	-4.841674e-10	-1.024118e+01	-3.472357e+01
1.530000e-06	-1.429054e-06	-4.742414e-10	-9.927071e+00	-3.415062e+01
1.540000e-06	-1.383680e-06	-4.677088e-10	-9.611878e+00	-3.356843e+01
1.550000e-06	-1.338153e-06	-4.586564e-10	-9.295619e+00	-3.297624e+01
1.560000e-06	-1.292513e-06	-4.469013e-10	-8.978573e+00	-3.237324e+01
1.570000e-06	-1.246786e-06	-4.344035e-10	-8.660927e+00	-3.175859e+01
1.580000e-06	-1.200968e-06	-4.206649e-10	-8.342646e+00	-3.113143e+01
1.590000e-06	-1.155027e-06	-4.081318e-10	-8.023513e+00	-3.049090e+01
1.600000e-06	-1.109051e-06	-3.984425e-10	-7.704140e+00	-2.983612e+01
1.610000e-06	-1.062995e-06	-3.885687e-10	-7.384205e+00	-2.916620e+01
1.620000e-06	-1.016798e-06	-3.771056e-10	-7.063290e+00	-2.848027e+01
1.630000e-06	-9.704930e-07	-3.653840e-10	-6.741629e+00	-2.777747e+01
1.640000e-06	-9.241083e-07	-3.543666e-10	-6.419413e+00	-2.705696e+01
1.650000e-06	-8.777687e-07	-3.428526e-10	-6.097510e+00	-2.631794e+01
1.660000e-06	-8.315091e-07	-3.301719e-10	-5.776163e+00	-2.555963e+01
1.670000e-06	-7.852253e-07	-3.188867e-10	-5.454648e+00	-2.478131e+01
1.680000e-06	-7.388322e-07	-3.088132e-10	-5.132374e+00	-2.398232e+01
1.690000e-06	-6.923794e-07	-2.966162e-10	-4.809684e+00	-2.316204e+01
1.700000e-06	-6.459177e-07	-2.831033e-10	-4.486933e+00	-2.231994e+01
1.710000e-06	-5.993794e-07	-2.704863e-10	-4.163650e+00	-2.145555e+01
1.720000e-06	-5.527336e-07	-2.565087e-10	-3.839621e+00	-2.056850e+01
1.730000e-06	-5.060656e-07	-2.408857e-10	-3.515437e+00	-1.965847e+01
1.740000e-06	-4.593603e-07	-2.247352e-10	-3.190994e+00	-1.872529e+01
1.750000e-06	-4.126416e-07	-2.090510e-10	-2.866457e+00	-1.776884e+01
1.760000e-06	-3.659046e-07	-1.941709e-10	-2.541794e+00	-1.678912e+01
1.770000e-06	-3.190504e-07	-1.805444e-10	-2.216316e+00	-1.578624e+01
1.780000e-06	-2.721964e-07	-1.657517e-10	-1.890841e+00	-1.476042e+01
1.790000e-06	-2.253594e-07	-1.518010e-10	-1.565482e+00	-1.371197e+01
1.800000e-06	-1.784942e-07	-1.378219e-10	-1.239929e+00	-1.264133e+01
1.810000e-06	-1.315710e-07	-1.219799e-10	-9.139717e-01	-1.154905e+01
1.820000e-06	-8.454924e-08	-1.054094e-10	-5.873300e-01	-1.043577e+01
1.830000e-06	-3.759529e-08	-8.845594e-11	-2.611595e-01	-9.302270e+00
1.840000e-06	9.300050e-09	-7.026779e-11	6.460376e-02	-8.149411e+00
1.850000e-06	5.627174e-08	-5.209986e-11	3.908974e-01	-6.978166e+00
1.860000e-06	1.031749e-07	-3.327230e-11	7.167152e-01	-5.789605e+00
1.870000e-06	1.500504e-07	-1.351064e-11	1.042341e+00	-4.584893e+00
1.880000e-06	1.969782e-07	3.648948e-12	1.368329e+00	-3.365282e+00
1.890000e-06	2.438449e-07	1.623650e-11	1.693894e+00	-2.132105e+00
1.900000e-06	2.906771e-07	2.783173e-11	2.019218e+00	-8.867695e-01
1.910000e-06	3.375371e-07	4.194692e-11	2.344736e+00	3.692496e-01
1.920000e-06	3.844008e-07	6.111558e-11	2.670279e+00	1.634419e+00
1.930000e-06	4.312129e-07	8.238037e-11	2.995464e+00	2.907156e+00
1.940000e-06	4.780042e-07	1.054591e-10	3.320505e+00	4.185837e+00
1.950000e-06	5.247855e-07	1.278088e-10	3.645476e+00	5.468805e+00
1.960000e-06	5.714341e-07	1.469674e-10	3.969526e+00	6.754384e+00
1.970000e-06	6.179392e-07	1.635884e-10	4.292578e+00	8.040885e+00
1.980000e-06	6.643605e-07	1.775802e-10	4.615049e+00	9.326616e+00
1.990000e-06	7.107718e-07	1.894658e-10	4.937449e+00	1.060989e+01
2.000000e-06	7.572599e-07	2.044356e-10	5.260384e+00	1.188905e+01
2.010000e-06	8.037147e-07	2.236909e-10	5.583086e+00	1.316245e+01
2.020000e-06	8.499782e-07	2.468551e-10	5.904461e+00	1.442848e+01
2.030000e-06	8.961112e-07	2.719435e-10	6.224929e+00	1.568560e+01
2.040000e-06	9.421820e-07	2.927554e-10	6.544964e+00	1.693229e+01
2.050000e-06	9.882517e-07	3.101926e-10	6.864992e+00	1.816711e+01
2.060000e-06	1.034248e-06	3.233108e-10	7.184506e+00	1.938869e+01
2.070000e-06	1.080112e-06	3.352328e-10	7.503106e+00	2.059574e+01
2.080000e-06	1.125972e-06	3.486844e-10	7.821678e+00	2.178704e+01
2.090000e-06	1.171777e-06	3.668253e-10	8.139869e+00	2.296147e+01
2.100000e-06	1.217499e-06	3.865470e-10	8.457483e+00	2.411800e+01
2.110000e-06	1.263148e-06	4.050304e-10	8.774585e+00	2.525568e+01
2.120000e-06	1.308672e-06	4.203237e-10	9.090822e+00	2.637370e+01
2.130000e-06	1.354092e-06	4.334961e-10	9.406342e+00	2.747131e+01
2.140000e-06	1.399475e-06	4.458883e-10	9.721595e+00	2.854789e+01
2.150000e-06	1.444781e-06	4.573750e-10	1.003632e+01	2.960292e+01
2.160000e-06	1.489951e-06	4.694074e-10	1.035010e+01	3.063598e+01
2.170000e-06	1.535036e-06	4.830923e-10	1.066329e+01	3.164677e+01
2.180000e-06	1.579981e-06	4.979212e-10	1.097550e+01	3.263506e+01
2.190000e-06	1.624717e-06	5.133970e-10	1.128626e+01	3.360076e+01
2.200000e-06	1.669328e-06	5.258716e-10	1.159616e+01	3.454384e+01
2.210000e-06	1.713824e-06	5.361967e-10	1.190525e+01	3.546440e+01
2.220000e-06	1.758212e-06	5.450623e-10	1.221360e+01	3.636259e+01
2.230000e-06	1.802454e-06	5.533451e-10	1.252093e+01	3.723867e+01
2.240000e-06	1.846554e-06	5.641754e-10	1.282728e+01	3.809296e+01
2.250000e-06	1.890570e-06	5.787950e-10	1.313304e+01	3.892587e+01
2.260000e-06	1.934496e-06	5.937641e-10	1.343818e+01	3.973787e+01
2.270000e-06	1.978348e-06	6.065007e-10	1.374280e+01	4.052947e+01
2.280000e-06	2.022128e-06	6.174748e-10	1.404692e+01	4.130125e+01
2.290000e-06	2.065858e-06	6.255154e-10	1.435070e+01	4.205382e+01
2.300000e-06	2.109561e-06	6.315377e-10	1.465428e+01	4.278784e+01
2.310000e-06	2.153205e-06	6.385455e-10	1.495746e+01	4.350399e+01
2.320000e-06	2.196743e-06	6.487980e-10	1.525990e+01	4.420298e+01
2.330000e-06	2.240091e-06	6.612609e-10	1.556102e+01	4.488552e+01
2.340000e-06	2.283316e-06	6.753304e-10	1.586129e+01	4.555232e+01
2.350000e-06	2.326408e-06	6.863792e-10	1.616063e+01	4.620413e+01
2.360000e-06	2.369238e-06	6.931581e-10	1.645816e+01	4.684165e+01
2.370000e-06	2.411740e-06	6.988269e-10	1.675340e+01	4.746559e+01
2.380000e-06	2.453881e-06	7.059557e-10	1.704613e+01	4.807663e+01
2.390000e-06	2.495740e-06	7.110740e-10	1.733692e+01	4.867543e+01
2.400000e-06	2.537302e-06	7.165500e-10	1.762563e+01	4.926263e+01
2.410000e-06	2.578636e-06	7.243536e-10	1.791276e+01	4.983882e+01
2.420000e-06	2.619793e-06	7.323459e-10	1.819866e+01	5.040456e+01
2.430000e-06	2.660612e-06	7.411799e-10	1.848222e+01	5.096038e+01
2.440000e-06	2.701066e-06	7.499405e-10	1.876323e+01	5.150674e+01
2.450000e-06	2.741326e-06	7.577128e-10	1.904290e+01	5.204409e+01
2.460000e-06	2.781466e-06	7.638125e-10	1.932174e+01	5.257281e+01
2.470000e-06	2.821483e-06	7.664552e-10	1.959972e+01	5.309324e+01
2.480000e-06	2.861350e-06	7.683734e-10	1.987666e+01	5.360566e+01
2.490000e-06	2.901024e-06	7.722530e-10	2.015226e+01	5.411033e+01
2.500000e-06	2.940602e-06	7.816255e-10	2.042719e+01	5.460744e+01
2.510000e-06	2.980102e-06	7.923730e-10	2.070159e+01	5.509715e+01
2.520000e-06	3.019366e-06	8.028562e-10	2.097434e+01	5.557956e+01
2.530000e-06	3.058373e-06	8.126234e-10	2.124530e+01	5.605475e+01
2.540000e-06	3.097114e-06	8.198067e-10	2.151442e+01	5.652275e+01
2.550000e-06	3.135566e-06	8.224878e-10	2.178153e+01	5.698357e+01
2.560000e-06	3.173839e-06	8.239808e-10	2.204740e+01	5.743716e+01
2.570000e-06	3.211945e-06	8.294753e-10	2.231211e+01	5.788347e+01
2.580000e-06	3.249855e-06	8.389791e-10	2.257545e+01	5.832242e+01
2.590000e-06	3.287554e-06	8.488288e-10	2.283733e+01	5.875391e+01
2.600000e-06	3.325012e-06	8.545091e-10	2.309754e+01	5.917782e+01
2.610000e-06	3.362323e-06	8.577402e-10	2.335673e+01	5.959403e+01
2.620000e-06	3.399413e-06	8.607617e-10	2.361437e+01	6.000240e+01
2.630000e-06	3.436176e-06	8.641135e-10	2.386975e+01	6.040279e+01
2.640000e-06	3.472632e-06	8.681543e-10	2.412299e+01	6.079508e+01
2.650000e-06	3.508898e-06	8.766407e-10	2.437492e+01	6.117914e+01
2.660000e-06	3.545033e-06	8.853790e-10	2.462593e+01	6.155484e+01
2.670000e-06	3.580939e-06	8.909919e-10	2.487536e+01	6.192209e+01
2.680000e-06	3.616679e-06	8.934335e-10	2.512363e+01	6.228079e+01
2.690000e-06	3.652314e-06	8.941205e-10	2.537118e+01	6.263086e+01
2.700000e-06	3.687814e-06	8.960686e-10	2.561778e+01	6.297227e+01
2.710000e-06	3.723057e-06	9.026266e-10	2.586260e+01	6.330498e+01
2.720000e-06	3.758042e-06	9.103043e-10	2.610563e+01	6.362898e+01
2.730000e-06	3.792706e-06	9.166834e-10	2.634642e+01	6.394431e+01
2.740000e-06	3.826854e-06	9.210173e-10	2.658363e+01	6.425101e+01
2.750000e-06	3.860543e-06	9.241429e-10	2.681766e+01	6.454916e+01
2.760000e-06	3.893782e-06	9.255419e-10	2.704856e+01	6.483886e+01
2.770000e-06	3.926526e-06	9.261775e-10	2.727602e+01	6.512025e+01
2.780000e-06	3.958898e-06	9.299265e-10	2.750089e+01	6.539348e+01
2.790000e-06	3.990940e-06	9.344507e-10	2.772348e+01	6.565874e+01
2.800000e-06	4.022748e-06	9.378161e-10	2.794443e+01	6.591624e+01
2.810000e-06	4.054427e-06	9.396671e-10	2.816449e+01	6.616620e+01
2.820000e-06	4.085995e-06	9.417812e-10	2.838378e+01	6.640888e+01
2.830000e-06	4.117410e-06	9.457856e-10	2.860201e+01	6.664455e+01
2.840000e-06	4.148563e-06	9.493712e-10	2.881842e+01	6.687348e+01
2.850000e-06	4.179383e-06	9.538540e-10	2.903251e+01	6.709597e+01
2.860000e-06	4.209847e-06	9.593754e-10	2.924414e+01	6.731234e+01
2.870000e-06	4.239994e-06	9.631767e-10	2.945355e+01	6.752288e+01
2.880000e-06	4.269878e-06	9.645968e-10	2.966115e+01	6.772793e+01
2.890000e-06	4.299547e-06	9.652837e-10	2.986725e+01	6.792778e+01
2.900000e-06	4.328971e-06	9.674930e-10	3.007164e+01	6.812277e+01
2.910000e-06	4.358022e-06	9.708656e-10	3.027345e+01	6.831320e+01
