# Temperatura_=_13.7
# Concentracion g/m^3_=_1620.0
# C_Vs_to_Am_M_A/Vsm_=_65563218390.804596
# pendiente_HvsI_1/m_=_3716.3
# ordenada_HvsI_A/m_=_1297.0
# frecuencia_Hz_=_135107.4145039944

Tiempo_(s)	Campo_(V.s)	Magnetizacion_(V.s)	Campo_(kA/m)	Magnetizacion_(A/m)
0.000000e+00	-5.520869e-06	-1.184327e-09	-3.836076e+01	-7.569111e+01
1.000000e-08	-5.521223e-06	-1.179920e-09	-3.836322e+01	-7.565511e+01
2.000000e-08	-5.521336e-06	-1.177133e-09	-3.836401e+01	-7.561487e+01
3.000000e-08	-5.521137e-06	-1.176387e-09	-3.836262e+01	-7.557030e+01
4.000000e-08	-5.520375e-06	-1.178133e-09	-3.835733e+01	-7.552134e+01
5.000000e-08	-5.519116e-06	-1.179870e-09	-3.834858e+01	-7.546793e+01
6.000000e-08	-5.517317e-06	-1.178282e-09	-3.833608e+01	-7.541004e+01
7.000000e-08	-5.514855e-06	-1.170280e-09	-3.831898e+01	-7.534765e+01
8.000000e-08	-5.511884e-06	-1.173037e-09	-3.829833e+01	-7.528075e+01
9.000000e-08	-5.508489e-06	-1.174555e-09	-3.827474e+01	-7.520938e+01
1.000000e-07	-5.504659e-06	-1.161717e-09	-3.824813e+01	-7.513356e+01
1.100000e-07	-5.500454e-06	-1.169823e-09	-3.821891e+01	-7.505335e+01
1.200000e-07	-5.495967e-06	-1.198623e-09	-3.818774e+01	-7.496882e+01
1.300000e-07	-5.491270e-06	-1.180934e-09	-3.815510e+01	-7.488006e+01
1.400000e-07	-5.486284e-06	-1.148934e-09	-3.812045e+01	-7.478717e+01
1.500000e-07	-5.480874e-06	-1.139681e-09	-3.808287e+01	-7.469027e+01
1.600000e-07	-5.475049e-06	-1.187524e-09	-3.804239e+01	-7.458951e+01
1.700000e-07	-5.468913e-06	-1.177614e-09	-3.799975e+01	-7.448503e+01
1.800000e-07	-5.462379e-06	-1.139205e-09	-3.795435e+01	-7.437699e+01
1.900000e-07	-5.455437e-06	-1.121576e-09	-3.790612e+01	-7.426556e+01
2.000000e-07	-5.448177e-06	-1.157537e-09	-3.785568e+01	-7.415094e+01
2.100000e-07	-5.440570e-06	-1.152355e-09	-3.780282e+01	-7.403329e+01
2.200000e-07	-5.432613e-06	-1.115236e-09	-3.774753e+01	-7.391283e+01
2.300000e-07	-5.424375e-06	-1.097809e-09	-3.769029e+01	-7.378974e+01
2.400000e-07	-5.415837e-06	-1.120557e-09	-3.763097e+01	-7.366423e+01
2.500000e-07	-5.406741e-06	-1.126302e-09	-3.756776e+01	-7.353650e+01
2.600000e-07	-5.396870e-06	-1.093511e-09	-3.749918e+01	-7.340675e+01
2.700000e-07	-5.386382e-06	-1.086584e-09	-3.742630e+01	-7.327517e+01
2.800000e-07	-5.375454e-06	-1.099759e-09	-3.735037e+01	-7.314195e+01
2.900000e-07	-5.364036e-06	-1.104761e-09	-3.727103e+01	-7.300726e+01
3.000000e-07	-5.352318e-06	-1.081384e-09	-3.718962e+01	-7.287129e+01
3.100000e-07	-5.340321e-06	-1.088924e-09	-3.710626e+01	-7.273418e+01
3.200000e-07	-5.327825e-06	-1.092354e-09	-3.701943e+01	-7.259609e+01
3.300000e-07	-5.314846e-06	-1.096519e-09	-3.692925e+01	-7.245714e+01
3.400000e-07	-5.301478e-06	-1.070042e-09	-3.683636e+01	-7.231745e+01
3.500000e-07	-5.287770e-06	-1.070205e-09	-3.674112e+01	-7.217713e+01
3.600000e-07	-5.273603e-06	-1.076978e-09	-3.664268e+01	-7.203624e+01
3.700000e-07	-5.258890e-06	-1.086938e-09	-3.654045e+01	-7.189485e+01
3.800000e-07	-5.243746e-06	-1.064723e-09	-3.643523e+01	-7.175301e+01
3.900000e-07	-5.228139e-06	-1.070417e-09	-3.632678e+01	-7.161074e+01
4.000000e-07	-5.212032e-06	-1.083132e-09	-3.621486e+01	-7.146803e+01
4.100000e-07	-5.195512e-06	-1.069786e-09	-3.610008e+01	-7.132488e+01
4.200000e-07	-5.178649e-06	-1.054565e-09	-3.598291e+01	-7.118124e+01
4.300000e-07	-5.161495e-06	-1.086112e-09	-3.586372e+01	-7.103705e+01
4.400000e-07	-5.144060e-06	-1.084467e-09	-3.574257e+01	-7.089225e+01
4.500000e-07	-5.126248e-06	-1.046837e-09	-3.561881e+01	-7.074673e+01
4.600000e-07	-5.107940e-06	-1.058293e-09	-3.549160e+01	-7.060039e+01
4.700000e-07	-5.089174e-06	-1.087502e-09	-3.536120e+01	-7.045310e+01
4.800000e-07	-5.070002e-06	-1.052619e-09	-3.522799e+01	-7.030471e+01
4.900000e-07	-5.050593e-06	-1.039446e-09	-3.509313e+01	-7.015508e+01
5.000000e-07	-5.031075e-06	-1.078648e-09	-3.495752e+01	-7.000403e+01
5.100000e-07	-5.011350e-06	-1.064510e-09	-3.482046e+01	-6.985139e+01
5.200000e-07	-4.991322e-06	-1.032182e-09	-3.468130e+01	-6.969697e+01
5.300000e-07	-4.970903e-06	-1.063603e-09	-3.453943e+01	-6.954059e+01
5.400000e-07	-4.950068e-06	-1.069999e-09	-3.439465e+01	-6.938204e+01
5.500000e-07	-4.928891e-06	-1.022466e-09	-3.424751e+01	-6.922113e+01
5.600000e-07	-4.907444e-06	-1.036068e-09	-3.409849e+01	-6.905767e+01
5.700000e-07	-4.885724e-06	-1.063054e-09	-3.394757e+01	-6.889145e+01
5.800000e-07	-4.863596e-06	-1.030506e-09	-3.379382e+01	-6.872228e+01
5.900000e-07	-4.841049e-06	-1.018981e-09	-3.363716e+01	-6.854997e+01
6.000000e-07	-4.818156e-06	-1.052111e-09	-3.347809e+01	-6.837434e+01
6.100000e-07	-4.794965e-06	-1.035813e-09	-3.331695e+01	-6.819522e+01
6.200000e-07	-4.771541e-06	-1.017245e-09	-3.315419e+01	-6.801245e+01
6.300000e-07	-4.747896e-06	-1.034203e-09	-3.298990e+01	-6.782586e+01
6.400000e-07	-4.724009e-06	-1.031537e-09	-3.282393e+01	-6.763532e+01
6.500000e-07	-4.699827e-06	-1.006751e-09	-3.265590e+01	-6.744071e+01
6.600000e-07	-4.675234e-06	-1.016980e-09	-3.248502e+01	-6.724191e+01
6.700000e-07	-4.650222e-06	-1.015042e-09	-3.231123e+01	-6.703883e+01
6.800000e-07	-4.624720e-06	-9.973503e-10	-3.213403e+01	-6.683138e+01
6.900000e-07	-4.598603e-06	-9.984357e-10	-3.195256e+01	-6.661950e+01
7.000000e-07	-4.571877e-06	-1.004706e-09	-3.176686e+01	-6.640314e+01
7.100000e-07	-4.544732e-06	-9.897842e-10	-3.157825e+01	-6.618226e+01
7.200000e-07	-4.517377e-06	-9.898282e-10	-3.138818e+01	-6.595686e+01
7.300000e-07	-4.489830e-06	-9.901889e-10	-3.119678e+01	-6.572692e+01
7.400000e-07	-4.462131e-06	-9.780257e-10	-3.100431e+01	-6.549247e+01
7.500000e-07	-4.434220e-06	-9.697001e-10	-3.081038e+01	-6.525352e+01
7.600000e-07	-4.405991e-06	-9.685218e-10	-3.061423e+01	-6.501011e+01
7.700000e-07	-4.377465e-06	-9.595394e-10	-3.041603e+01	-6.476231e+01
7.800000e-07	-4.348670e-06	-9.532438e-10	-3.021595e+01	-6.451016e+01
7.900000e-07	-4.319576e-06	-9.551496e-10	-3.001379e+01	-6.425375e+01
8.000000e-07	-4.290174e-06	-9.500486e-10	-2.980950e+01	-6.399314e+01
8.100000e-07	-4.260461e-06	-9.435576e-10	-2.960304e+01	-6.372844e+01
8.200000e-07	-4.230449e-06	-9.407512e-10	-2.939451e+01	-6.345972e+01
8.300000e-07	-4.200117e-06	-9.336349e-10	-2.918375e+01	-6.318709e+01
8.400000e-07	-4.169534e-06	-9.203432e-10	-2.897125e+01	-6.291064e+01
8.500000e-07	-4.138647e-06	-9.150919e-10	-2.875664e+01	-6.263046e+01
8.600000e-07	-4.107405e-06	-9.138462e-10	-2.853957e+01	-6.234665e+01
8.700000e-07	-4.076004e-06	-9.092437e-10	-2.832138e+01	-6.205931e+01
8.800000e-07	-4.044504e-06	-9.053046e-10	-2.810251e+01	-6.176852e+01
8.900000e-07	-4.012817e-06	-9.078771e-10	-2.788234e+01	-6.147436e+01
9.000000e-07	-3.980930e-06	-9.019798e-10	-2.766077e+01	-6.117691e+01
9.100000e-07	-3.948827e-06	-8.918424e-10	-2.743771e+01	-6.087625e+01
9.200000e-07	-3.916269e-06	-8.841742e-10	-2.721149e+01	-6.057241e+01
9.300000e-07	-3.883144e-06	-8.779004e-10	-2.698133e+01	-6.026547e+01
9.400000e-07	-3.849637e-06	-8.698409e-10	-2.674851e+01	-5.995545e+01
9.500000e-07	-3.815784e-06	-8.702534e-10	-2.651329e+01	-5.964238e+01
9.600000e-07	-3.781443e-06	-8.716181e-10	-2.627468e+01	-5.932628e+01
9.700000e-07	-3.746672e-06	-8.653010e-10	-2.603308e+01	-5.900716e+01
9.800000e-07	-3.711628e-06	-8.567923e-10	-2.578958e+01	-5.868502e+01
9.900000e-07	-3.676356e-06	-8.518923e-10	-2.554450e+01	-5.835982e+01
1.000000e-06	-3.640867e-06	-8.425356e-10	-2.529791e+01	-5.803155e+01
1.010000e-06	-3.605247e-06	-8.353845e-10	-2.505041e+01	-5.770017e+01
1.020000e-06	-3.569509e-06	-8.352857e-10	-2.480209e+01	-5.736562e+01
1.030000e-06	-3.533624e-06	-8.379238e-10	-2.455275e+01	-5.702786e+01
1.040000e-06	-3.497591e-06	-8.342926e-10	-2.430238e+01	-5.668681e+01
1.050000e-06	-3.461272e-06	-8.298432e-10	-2.405003e+01	-5.634240e+01
1.060000e-06	-3.424604e-06	-8.235084e-10	-2.379524e+01	-5.599456e+01
1.070000e-06	-3.387646e-06	-8.124282e-10	-2.353844e+01	-5.564320e+01
1.080000e-06	-3.350377e-06	-8.017806e-10	-2.327949e+01	-5.528823e+01
1.090000e-06	-3.312879e-06	-7.970791e-10	-2.301895e+01	-5.492957e+01
1.100000e-06	-3.275253e-06	-7.936433e-10	-2.275750e+01	-5.456711e+01
1.110000e-06	-3.237405e-06	-7.881992e-10	-2.249452e+01	-5.420078e+01
1.120000e-06	-3.199285e-06	-7.861144e-10	-2.222965e+01	-5.383047e+01
1.130000e-06	-3.160944e-06	-7.839484e-10	-2.196325e+01	-5.345611e+01
1.140000e-06	-3.122409e-06	-7.781489e-10	-2.169549e+01	-5.307760e+01
1.150000e-06	-3.083613e-06	-7.704922e-10	-2.142593e+01	-5.269486e+01
1.160000e-06	-3.044590e-06	-7.637736e-10	-2.115478e+01	-5.230783e+01
1.170000e-06	-3.005468e-06	-7.558172e-10	-2.088295e+01	-5.191642e+01
1.180000e-06	-2.966157e-06	-7.487976e-10	-2.060980e+01	-5.152059e+01
1.190000e-06	-2.926653e-06	-7.443445e-10	-2.033532e+01	-5.112026e+01
1.200000e-06	-2.887079e-06	-7.408403e-10	-2.006035e+01	-5.071539e+01
1.210000e-06	-2.847413e-06	-7.351837e-10	-1.978473e+01	-5.030594e+01
1.220000e-06	-2.807552e-06	-7.291157e-10	-1.950777e+01	-4.989187e+01
1.230000e-06	-2.767518e-06	-7.215845e-10	-1.922960e+01	-4.947315e+01
1.240000e-06	-2.727363e-06	-7.131407e-10	-1.895059e+01	-4.904976e+01
1.250000e-06	-2.686976e-06	-7.040007e-10	-1.866997e+01	-4.862168e+01
1.260000e-06	-2.646309e-06	-6.961761e-10	-1.838740e+01	-4.818889e+01
1.270000e-06	-2.605419e-06	-6.896103e-10	-1.810328e+01	-4.775139e+01
1.280000e-06	-2.564272e-06	-6.831434e-10	-1.781738e+01	-4.730916e+01
1.290000e-06	-2.522693e-06	-6.764727e-10	-1.752848e+01	-4.686219e+01
1.300000e-06	-2.480681e-06	-6.698067e-10	-1.723657e+01	-4.641047e+01
1.310000e-06	-2.438382e-06	-6.599341e-10	-1.694266e+01	-4.595399e+01
1.320000e-06	-2.395823e-06	-6.495348e-10	-1.664695e+01	-4.549273e+01
1.330000e-06	-2.353012e-06	-6.401665e-10	-1.634948e+01	-4.502665e+01
1.340000e-06	-2.309992e-06	-6.322195e-10	-1.605056e+01	-4.455572e+01
1.350000e-06	-2.266858e-06	-6.240592e-10	-1.575086e+01	-4.407989e+01
1.360000e-06	-2.223576e-06	-6.179863e-10	-1.545012e+01	-4.359910e+01
1.370000e-06	-2.180123e-06	-6.116913e-10	-1.514819e+01	-4.311328e+01
1.380000e-06	-2.136554e-06	-6.033031e-10	-1.484546e+01	-4.262231e+01
1.390000e-06	-2.092876e-06	-5.938036e-10	-1.454197e+01	-4.212610e+01
1.400000e-06	-2.049130e-06	-5.840878e-10	-1.423801e+01	-4.162449e+01
1.410000e-06	-2.005321e-06	-5.751488e-10	-1.393361e+01	-4.111733e+01
1.420000e-06	-1.961460e-06	-5.678920e-10	-1.362885e+01	-4.060443e+01
1.430000e-06	-1.917508e-06	-5.626611e-10	-1.332346e+01	-4.008558e+01
1.440000e-06	-1.873485e-06	-5.547537e-10	-1.301757e+01	-3.956054e+01
1.450000e-06	-1.829394e-06	-5.438043e-10	-1.271121e+01	-3.902903e+01
1.460000e-06	-1.785129e-06	-5.328740e-10	-1.240365e+01	-3.849075e+01
1.470000e-06	-1.740724e-06	-5.233101e-10	-1.209511e+01	-3.794539e+01
1.480000e-06	-1.696207e-06	-5.146057e-10	-1.178579e+01	-3.739257e+01
1.490000e-06	-1.651538e-06	-5.073969e-10	-1.147541e+01	-3.683191e+01
1.500000e-06	-1.606793e-06	-5.022590e-10	-1.116451e+01	-3.626300e+01
1.510000e-06	-1.561923e-06	-4.971950e-10	-1.085274e+01	-3.568538e+01
1.520000e-06	-1.516882e-06	-4.901819e-10	-1.053978e+01	-3.509859e+01
1.530000e-06	-1.471685e-06	-4.815893e-10	-1.022574e+01	-3.450212e+01
1.540000e-06	-1.426375e-06	-4.704684e-10	-9.910909e+00	-3.389546e+01
1.550000e-06	-1.381035e-06	-4.614857e-10	-9.595869e+00	-3.327807e+01
1.560000e-06	-1.335549e-06	-4.529903e-10	-9.279822e+00	-3.264939e+01
1.570000e-06	-1.289931e-06	-4.434184e-10	-8.962853e+00	-3.200885e+01
1.580000e-06	-1.244236e-06	-4.309912e-10	-8.645349e+00	-3.135586e+01
1.590000e-06	-1.198454e-06	-4.167838e-10	-8.327240e+00	-3.068984e+01
1.600000e-06	-1.152622e-06	-4.043736e-10	-8.008788e+00	-3.001018e+01
1.610000e-06	-1.106700e-06	-3.942933e-10	-7.689707e+00	-2.931630e+01
1.620000e-06	-1.060728e-06	-3.833407e-10	-7.370276e+00	-2.860760e+01
1.630000e-06	-1.014739e-06	-3.704795e-10	-7.050730e+00	-2.788351e+01
1.640000e-06	-9.686384e-07	-3.571798e-10	-6.730409e+00	-2.714346e+01
1.650000e-06	-9.223564e-07	-3.451091e-10	-6.408827e+00	-2.638691e+01
1.660000e-06	-8.759920e-07	-3.325437e-10	-6.086672e+00	-2.561333e+01
1.670000e-06	-8.295756e-07	-3.187421e-10	-5.764156e+00	-2.482224e+01
1.680000e-06	-7.831114e-07	-3.070595e-10	-5.441308e+00	-2.401317e+01
1.690000e-06	-7.367302e-07	-2.964708e-10	-5.119037e+00	-2.318572e+01
1.700000e-06	-6.904122e-07	-2.845516e-10	-4.797205e+00	-2.233950e+01
1.710000e-06	-6.439966e-07	-2.701413e-10	-4.474694e+00	-2.147419e+01
1.720000e-06	-5.974162e-07	-2.562406e-10	-4.151038e+00	-2.058951e+01
1.730000e-06	-5.507344e-07	-2.421438e-10	-3.826679e+00	-1.968526e+01
1.740000e-06	-5.039347e-07	-2.257439e-10	-3.501500e+00	-1.876127e+01
1.750000e-06	-4.570836e-07	-2.089061e-10	-3.175963e+00	-1.781746e+01
1.760000e-06	-4.103070e-07	-1.931729e-10	-2.850944e+00	-1.685381e+01
1.770000e-06	-3.636308e-07	-1.796837e-10	-2.526623e+00	-1.587035e+01
1.780000e-06	-3.169085e-07	-1.668210e-10	-2.201981e+00	-1.486723e+01
1.790000e-06	-2.700616e-07	-1.532885e-10	-1.876475e+00	-1.384462e+01
1.800000e-06	-2.232009e-07	-1.417611e-10	-1.550871e+00	-1.280281e+01
1.810000e-06	-1.763898e-07	-1.285743e-10	-1.225613e+00	-1.174214e+01
1.820000e-06	-1.296079e-07	-1.114901e-10	-9.005570e-01	-1.066305e+01
1.830000e-06	-8.269832e-08	-9.298317e-11	-5.746144e-01	-9.566035e+00
1.840000e-06	-3.578383e-08	-7.484283e-11	-2.486375e-01	-8.451690e+00
1.850000e-06	1.101142e-08	-5.708119e-11	7.651084e-02	-7.320673e+00
1.860000e-06	5.783716e-08	-4.058512e-11	4.018711e-01	-6.173718e+00
1.870000e-06	1.046814e-07	-2.356413e-11	7.273598e-01	-5.011635e+00
1.880000e-06	1.514903e-07	-5.798279e-12	1.052603e+00	-3.835301e+00
1.890000e-06	1.983033e-07	9.839735e-12	1.377875e+00	-2.645662e+00
1.900000e-06	2.451249e-07	2.502141e-11	1.703206e+00	-1.443725e+00
1.910000e-06	2.919233e-07	4.031154e-11	2.028376e+00	-2.305580e-01
1.920000e-06	3.387416e-07	5.729012e-11	2.353685e+00	9.927176e-01
1.930000e-06	3.856268e-07	7.888316e-11	2.679458e+00	2.224931e+00
1.940000e-06	4.324823e-07	1.030000e-10	3.005025e+00	3.464866e+00
1.950000e-06	4.791887e-07	1.245708e-10	3.329556e+00	4.711269e+00
1.960000e-06	5.257631e-07	1.400202e-10	3.653170e+00	5.962853e+00
1.970000e-06	5.722965e-07	1.529034e-10	3.976499e+00	7.218306e+00
1.980000e-06	6.188022e-07	1.663383e-10	4.299635e+00	8.476292e+00
1.990000e-06	6.651769e-07	1.827207e-10	4.621861e+00	9.735465e+00
2.000000e-06	7.114776e-07	2.011736e-10	4.943574e+00	1.099447e+01
2.010000e-06	7.578898e-07	2.222729e-10	5.266060e+00	1.225195e+01
2.020000e-06	8.043619e-07	2.427868e-10	5.588963e+00	1.350656e+01
2.030000e-06	8.507978e-07	2.625247e-10	5.911615e+00	1.475695e+01
2.040000e-06	8.971574e-07	2.818764e-10	6.233737e+00	1.600181e+01
2.050000e-06	9.434255e-07	2.968463e-10	6.555222e+00	1.723985e+01
2.060000e-06	9.895953e-07	3.117229e-10	6.876024e+00	1.846981e+01
2.070000e-06	1.035620e-06	3.283459e-10	7.195819e+00	1.969045e+01
2.080000e-06	1.081521e-06	3.449182e-10	7.514752e+00	2.090059e+01
2.090000e-06	1.127344e-06	3.631741e-10	7.833146e+00	2.209911e+01
2.100000e-06	1.173110e-06	3.858389e-10	8.151143e+00	2.328491e+01
2.110000e-06	1.218822e-06	4.048461e-10	8.468763e+00	2.445696e+01
2.120000e-06	1.264407e-06	4.183200e-10	8.785507e+00	2.561431e+01
2.130000e-06	1.309827e-06	4.297606e-10	9.101097e+00	2.675605e+01
2.140000e-06	1.355163e-06	4.428893e-10	9.416106e+00	2.788135e+01
2.150000e-06	1.400450e-06	4.573216e-10	9.730774e+00	2.898944e+01
2.160000e-06	1.445703e-06	4.719348e-10	1.004520e+01	3.007964e+01
2.170000e-06	1.490911e-06	4.876537e-10	1.035933e+01	3.115131e+01
2.180000e-06	1.535985e-06	5.039817e-10	1.067251e+01	3.220393e+01
2.190000e-06	1.580901e-06	5.203870e-10	1.098460e+01	3.323703e+01
2.200000e-06	1.625665e-06	5.367524e-10	1.129564e+01	3.425020e+01
2.210000e-06	1.670301e-06	5.512051e-10	1.160578e+01	3.524314e+01
2.220000e-06	1.714841e-06	5.618840e-10	1.191526e+01	3.621559e+01
2.230000e-06	1.759200e-06	5.700135e-10	1.222349e+01	3.716740e+01
2.240000e-06	1.803382e-06	5.803246e-10	1.253048e+01	3.809846e+01
2.250000e-06	1.847502e-06	5.936270e-10	1.283703e+01	3.900874e+01
2.260000e-06	1.891516e-06	6.094248e-10	1.314286e+01	3.989827e+01
2.270000e-06	1.935391e-06	6.251261e-10	1.344772e+01	4.076715e+01
2.280000e-06	1.979193e-06	6.376122e-10	1.375207e+01	4.161554e+01
2.290000e-06	2.022914e-06	6.462555e-10	1.405586e+01	4.244365e+01
2.300000e-06	2.066573e-06	6.545962e-10	1.435921e+01	4.325174e+01
2.310000e-06	2.110148e-06	6.624640e-10	1.466198e+01	4.404013e+01
2.320000e-06	2.153636e-06	6.701793e-10	1.496415e+01	4.480918e+01
2.330000e-06	2.197063e-06	6.819811e-10	1.526590e+01	4.555927e+01
2.340000e-06	2.240370e-06	6.961500e-10	1.556681e+01	4.629085e+01
2.350000e-06	2.283538e-06	7.089710e-10	1.586676e+01	4.700437e+01
2.360000e-06	2.326528e-06	7.190477e-10	1.616546e+01	4.770031e+01
2.370000e-06	2.369314e-06	7.274439e-10	1.646275e+01	4.837919e+01
2.380000e-06	2.411845e-06	7.342324e-10	1.675827e+01	4.904152e+01
2.390000e-06	2.454080e-06	7.430418e-10	1.705173e+01	4.968785e+01
2.400000e-06	2.496139e-06	7.518179e-10	1.734397e+01	5.031872e+01
2.410000e-06	2.537930e-06	7.601216e-10	1.763435e+01	5.093467e+01
2.420000e-06	2.579314e-06	7.696795e-10	1.792190e+01	5.153625e+01
2.430000e-06	2.620328e-06	7.799316e-10	1.820687e+01	5.212401e+01
2.440000e-06	2.661086e-06	7.886305e-10	1.849007e+01	5.269848e+01
2.450000e-06	2.701625e-06	7.954218e-10	1.877175e+01	5.326019e+01
2.460000e-06	2.741915e-06	8.015927e-10	1.905170e+01	5.380965e+01
2.470000e-06	2.782032e-06	8.073064e-10	1.933045e+01	5.434736e+01
2.480000e-06	2.821997e-06	8.130092e-10	1.960813e+01	5.487380e+01
2.490000e-06	2.861806e-06	8.202196e-10	1.988474e+01	5.538942e+01
2.500000e-06	2.901474e-06	8.296164e-10	2.016037e+01	5.589465e+01
2.510000e-06	2.940996e-06	8.400168e-10	2.043498e+01	5.638993e+01
2.520000e-06	2.980350e-06	8.473785e-10	2.070843e+01	5.687562e+01
2.530000e-06	3.019567e-06	8.521881e-10	2.098092e+01	5.735210e+01
2.540000e-06	3.058593e-06	8.573890e-10	2.125208e+01	5.781970e+01
2.550000e-06	3.097377e-06	8.640564e-10	2.152156e+01	5.827873e+01
2.560000e-06	3.135944e-06	8.693721e-10	2.178954e+01	5.872948e+01
2.570000e-06	3.174253e-06	8.733533e-10	2.205572e+01	5.917221e+01
2.580000e-06	3.212330e-06	8.805548e-10	2.232029e+01	5.960715e+01
2.590000e-06	3.250177e-06	8.896240e-10	2.258327e+01	6.003451e+01
2.600000e-06	3.287809e-06	8.980193e-10	2.284475e+01	6.045449e+01
2.610000e-06	3.325280e-06	9.041448e-10	2.310511e+01	6.086724e+01
2.620000e-06	3.362615e-06	9.073801e-10	2.336453e+01	6.127290e+01
2.630000e-06	3.399731e-06	9.090543e-10	2.362242e+01	6.167162e+01
2.640000e-06	3.436504e-06	9.110336e-10	2.387793e+01	6.206348e+01
2.650000e-06	3.473043e-06	9.149099e-10	2.413181e+01	6.244859e+01
2.660000e-06	3.509355e-06	9.228077e-10	2.438412e+01	6.282701e+01
2.670000e-06	3.545363e-06	9.312572e-10	2.463431e+01	6.319881e+01
2.680000e-06	3.581167e-06	9.387981e-10	2.488309e+01	6.356404e+01
2.690000e-06	3.616796e-06	9.448757e-10	2.513065e+01	6.392274e+01
2.700000e-06	3.652268e-06	9.447486e-10	2.537713e+01	6.427494e+01
2.710000e-06	3.687653e-06	9.437352e-10	2.562299e+01	6.462068e+01
2.720000e-06	3.722873e-06	9.474666e-10	2.586771e+01	6.495996e+01
2.730000e-06	3.757808e-06	9.525889e-10	2.611045e+01	6.529282e+01
2.740000e-06	3.792416e-06	9.578072e-10	2.635092e+01	6.561926e+01
2.750000e-06	3.826725e-06	9.634109e-10	2.658931e+01	6.593930e+01
2.760000e-06	3.860652e-06	9.684538e-10	2.682505e+01	6.625295e+01
2.770000e-06	3.894054e-06	9.728360e-10	2.705713e+01	6.656023e+01
2.780000e-06	3.926894e-06	9.755593e-10	2.728532e+01	6.686116e+01
2.790000e-06	3.959240e-06	9.779946e-10	2.751006e+01	6.715576e+01
2.800000e-06	3.991257e-06	9.789990e-10	2.773253e+01	6.744404e+01
2.810000e-06	4.023087e-06	9.794213e-10	2.795369e+01	6.772605e+01
2.820000e-06	4.054792e-06	9.832692e-10	2.817399e+01	6.800180e+01
2.830000e-06	4.086355e-06	9.894412e-10	2.839330e+01	6.827134e+01
2.840000e-06	4.117734e-06	9.961973e-10	2.861133e+01	6.853470e+01
2.850000e-06	4.148846e-06	9.998351e-10	2.882751e+01	6.879194e+01
2.860000e-06	4.179659e-06	1.000318e-09	2.904160e+01	6.904310e+01
2.870000e-06	4.210213e-06	1.000306e-09	2.925390e+01	6.928823e+01
2.880000e-06	4.240383e-06	9.998991e-10	2.946354e+01	6.952739e+01
2.890000e-06	4.270188e-06	1.001401e-09	2.967063e+01	6.976065e+01
2.900000e-06	4.299758e-06	1.005411e-09	2.987609e+01	6.998806e+01
2.910000e-06	4.329070e-06	1.010921e-09	3.007976e+01	7.020971e+01
