# Temperatura_=_6.96
# Concentracion g/m^3_=_1620.0
# C_Vs_to_Am_M_A/Vsm_=_65563218390.804596
# pendiente_HvsI_1/m_=_3716.3
# ordenada_HvsI_A/m_=_1297.0
# frecuencia_Hz_=_135109.80509448753

Tiempo_(s)	Campo_(V.s)	Magnetizacion_(V.s)	Campo_(kA/m)	Magnetizacion_(A/m)
0.000000e+00	-5.498408e-06	-1.274041e-09	-3.836355e+01	-8.190559e+01
1.000000e-08	-5.498749e-06	-1.270438e-09	-3.836593e+01	-8.186466e+01
2.000000e-08	-5.498825e-06	-1.266245e-09	-3.836646e+01	-8.182299e+01
3.000000e-08	-5.498674e-06	-1.262363e-09	-3.836540e+01	-8.178063e+01
4.000000e-08	-5.498055e-06	-1.260420e-09	-3.836109e+01	-8.173759e+01
5.000000e-08	-5.496822e-06	-1.260450e-09	-3.835248e+01	-8.169387e+01
6.000000e-08	-5.495068e-06	-1.263398e-09	-3.834025e+01	-8.164948e+01
7.000000e-08	-5.492652e-06	-1.278804e-09	-3.832338e+01	-8.160436e+01
8.000000e-08	-5.489610e-06	-1.297444e-09	-3.830216e+01	-8.155848e+01
9.000000e-08	-5.486135e-06	-1.285162e-09	-3.827792e+01	-8.151178e+01
1.000000e-07	-5.482302e-06	-1.232438e-09	-3.825117e+01	-8.146416e+01
1.100000e-07	-5.478165e-06	-1.194235e-09	-3.822231e+01	-8.141554e+01
1.200000e-07	-5.473840e-06	-1.218104e-09	-3.819213e+01	-8.136581e+01
1.300000e-07	-5.469270e-06	-1.271554e-09	-3.816025e+01	-8.131484e+01
1.400000e-07	-5.464314e-06	-1.251898e-09	-3.812567e+01	-8.126250e+01
1.500000e-07	-5.458950e-06	-1.223916e-09	-3.808824e+01	-8.120865e+01
1.600000e-07	-5.453181e-06	-1.246729e-09	-3.804799e+01	-8.115312e+01
1.700000e-07	-5.447025e-06	-1.310657e-09	-3.800504e+01	-8.109576e+01
1.800000e-07	-5.440327e-06	-1.295786e-09	-3.795831e+01	-8.103639e+01
1.900000e-07	-5.433235e-06	-1.208947e-09	-3.790882e+01	-8.097483e+01
2.000000e-07	-5.425973e-06	-1.192821e-09	-3.785816e+01	-8.091091e+01
2.100000e-07	-5.418410e-06	-1.246554e-09	-3.780539e+01	-8.084444e+01
2.200000e-07	-5.410529e-06	-1.292721e-09	-3.775040e+01	-8.077522e+01
2.300000e-07	-5.402415e-06	-1.245386e-09	-3.769379e+01	-8.070308e+01
2.400000e-07	-5.393963e-06	-1.215866e-09	-3.763482e+01	-8.062782e+01
2.500000e-07	-5.385017e-06	-1.236684e-09	-3.757239e+01	-8.054925e+01
2.600000e-07	-5.375316e-06	-1.248829e-09	-3.750471e+01	-8.046721e+01
2.700000e-07	-5.364892e-06	-1.209750e-09	-3.743198e+01	-8.038150e+01
2.800000e-07	-5.353966e-06	-1.188142e-09	-3.735575e+01	-8.029195e+01
2.900000e-07	-5.342567e-06	-1.209678e-09	-3.727622e+01	-8.019841e+01
3.000000e-07	-5.330855e-06	-1.225852e-09	-3.719450e+01	-8.010071e+01
3.100000e-07	-5.318858e-06	-1.203907e-09	-3.711079e+01	-7.999870e+01
3.200000e-07	-5.306494e-06	-1.186922e-09	-3.702453e+01	-7.989225e+01
3.300000e-07	-5.293674e-06	-1.203355e-09	-3.693508e+01	-7.978123e+01
3.400000e-07	-5.280387e-06	-1.207857e-09	-3.684237e+01	-7.966551e+01
3.500000e-07	-5.266709e-06	-1.178656e-09	-3.674694e+01	-7.954499e+01
3.600000e-07	-5.252587e-06	-1.160102e-09	-3.664840e+01	-7.941957e+01
3.700000e-07	-5.237948e-06	-1.181465e-09	-3.654626e+01	-7.928918e+01
3.800000e-07	-5.222840e-06	-1.188041e-09	-3.644085e+01	-7.915373e+01
3.900000e-07	-5.207145e-06	-1.167681e-09	-3.633135e+01	-7.901319e+01
4.000000e-07	-5.190884e-06	-1.169926e-09	-3.621789e+01	-7.886749e+01
4.100000e-07	-5.174272e-06	-1.185881e-09	-3.610198e+01	-7.871661e+01
4.200000e-07	-5.157412e-06	-1.177229e-09	-3.598435e+01	-7.856054e+01
4.300000e-07	-5.140246e-06	-1.169413e-09	-3.586458e+01	-7.839925e+01
4.400000e-07	-5.122798e-06	-1.178183e-09	-3.574284e+01	-7.823277e+01
4.500000e-07	-5.105087e-06	-1.165141e-09	-3.561926e+01	-7.806111e+01
4.600000e-07	-5.086953e-06	-1.132640e-09	-3.549274e+01	-7.788429e+01
4.700000e-07	-5.068236e-06	-1.142992e-09	-3.536215e+01	-7.770236e+01
4.800000e-07	-5.049043e-06	-1.165845e-09	-3.522823e+01	-7.751536e+01
4.900000e-07	-5.029680e-06	-1.161668e-09	-3.509314e+01	-7.732337e+01
5.000000e-07	-5.010143e-06	-1.153548e-09	-3.495682e+01	-7.712644e+01
5.100000e-07	-4.990425e-06	-1.158582e-09	-3.481924e+01	-7.692466e+01
5.200000e-07	-4.970480e-06	-1.145389e-09	-3.468009e+01	-7.671811e+01
5.300000e-07	-4.950161e-06	-1.138350e-09	-3.453831e+01	-7.650687e+01
5.400000e-07	-4.929446e-06	-1.144669e-09	-3.439378e+01	-7.629106e+01
5.500000e-07	-4.908359e-06	-1.131576e-09	-3.424665e+01	-7.607076e+01
5.600000e-07	-4.886924e-06	-1.114044e-09	-3.409709e+01	-7.584608e+01
5.700000e-07	-4.865196e-06	-1.127414e-09	-3.394550e+01	-7.561714e+01
5.800000e-07	-4.843174e-06	-1.129992e-09	-3.379184e+01	-7.538405e+01
5.900000e-07	-4.820812e-06	-1.113085e-09	-3.363582e+01	-7.514690e+01
6.000000e-07	-4.798074e-06	-1.115112e-09	-3.347717e+01	-7.490583e+01
6.100000e-07	-4.775029e-06	-1.123373e-09	-3.331638e+01	-7.466093e+01
6.200000e-07	-4.751723e-06	-1.114722e-09	-3.315377e+01	-7.441231e+01
6.300000e-07	-4.728173e-06	-1.116322e-09	-3.298945e+01	-7.416008e+01
6.400000e-07	-4.704399e-06	-1.122829e-09	-3.282358e+01	-7.390435e+01
6.500000e-07	-4.680342e-06	-1.108363e-09	-3.265573e+01	-7.364522e+01
6.600000e-07	-4.655966e-06	-1.100519e-09	-3.248566e+01	-7.338276e+01
6.700000e-07	-4.631115e-06	-1.101149e-09	-3.231226e+01	-7.311708e+01
6.800000e-07	-4.605570e-06	-1.087102e-09	-3.213403e+01	-7.284826e+01
6.900000e-07	-4.579395e-06	-1.081490e-09	-3.195140e+01	-7.257636e+01
7.000000e-07	-4.552759e-06	-1.097489e-09	-3.176555e+01	-7.230146e+01
7.100000e-07	-4.525772e-06	-1.093816e-09	-3.157726e+01	-7.202362e+01
7.200000e-07	-4.498519e-06	-1.080941e-09	-3.138711e+01	-7.174287e+01
7.300000e-07	-4.471065e-06	-1.087760e-09	-3.119556e+01	-7.145927e+01
7.400000e-07	-4.443471e-06	-1.085292e-09	-3.100303e+01	-7.117285e+01
7.500000e-07	-4.415691e-06	-1.059048e-09	-3.080920e+01	-7.088362e+01
7.600000e-07	-4.387669e-06	-1.052805e-09	-3.061369e+01	-7.059161e+01
7.700000e-07	-4.359307e-06	-1.056910e-09	-3.041580e+01	-7.029681e+01
7.800000e-07	-4.330516e-06	-1.045596e-09	-3.021492e+01	-6.999921e+01
7.900000e-07	-4.301375e-06	-1.043961e-09	-3.001159e+01	-6.969880e+01
8.000000e-07	-4.271974e-06	-1.054907e-09	-2.980646e+01	-6.939556e+01
8.100000e-07	-4.242295e-06	-1.041710e-09	-2.959939e+01	-6.908944e+01
8.200000e-07	-4.212378e-06	-1.022238e-09	-2.939065e+01	-6.878041e+01
8.300000e-07	-4.182221e-06	-1.020667e-09	-2.918024e+01	-6.846841e+01
8.400000e-07	-4.151757e-06	-1.014422e-09	-2.896768e+01	-6.815338e+01
8.500000e-07	-4.120940e-06	-9.984848e-10	-2.875266e+01	-6.783525e+01
8.600000e-07	-4.089803e-06	-1.000171e-09	-2.853541e+01	-6.751395e+01
8.700000e-07	-4.058411e-06	-1.004937e-09	-2.831638e+01	-6.718940e+01
8.800000e-07	-4.026872e-06	-9.963966e-10	-2.809633e+01	-6.686151e+01
8.900000e-07	-3.995255e-06	-9.928824e-10	-2.787573e+01	-6.653019e+01
9.000000e-07	-3.963478e-06	-9.930050e-10	-2.765402e+01	-6.619534e+01
9.100000e-07	-3.931480e-06	-9.811097e-10	-2.743076e+01	-6.585687e+01
9.200000e-07	-3.899175e-06	-9.720121e-10	-2.720536e+01	-6.551468e+01
9.300000e-07	-3.866463e-06	-9.719603e-10	-2.697712e+01	-6.516866e+01
9.400000e-07	-3.833271e-06	-9.644671e-10	-2.674554e+01	-6.481871e+01
9.500000e-07	-3.799570e-06	-9.517001e-10	-2.651040e+01	-6.446474e+01
9.600000e-07	-3.765336e-06	-9.466268e-10	-2.627154e+01	-6.410664e+01
9.700000e-07	-3.730664e-06	-9.391662e-10	-2.602963e+01	-6.374432e+01
9.800000e-07	-3.695713e-06	-9.258724e-10	-2.578577e+01	-6.337768e+01
9.900000e-07	-3.660508e-06	-9.226554e-10	-2.554014e+01	-6.300664e+01
1.000000e-06	-3.625098e-06	-9.238710e-10	-2.529307e+01	-6.263112e+01
1.010000e-06	-3.589554e-06	-9.195908e-10	-2.504507e+01	-6.225103e+01
1.020000e-06	-3.553926e-06	-9.146630e-10	-2.479649e+01	-6.186632e+01
1.030000e-06	-3.518180e-06	-9.116543e-10	-2.454708e+01	-6.147691e+01
1.040000e-06	-3.482168e-06	-9.004227e-10	-2.429582e+01	-6.108276e+01
1.050000e-06	-3.445914e-06	-8.889645e-10	-2.404287e+01	-6.068383e+01
1.060000e-06	-3.409421e-06	-8.840285e-10	-2.378824e+01	-6.028008e+01
1.070000e-06	-3.372610e-06	-8.755374e-10	-2.353141e+01	-5.987148e+01
1.080000e-06	-3.335506e-06	-8.627168e-10	-2.327253e+01	-5.945802e+01
1.090000e-06	-3.298109e-06	-8.604896e-10	-2.301160e+01	-5.903971e+01
1.100000e-06	-3.260509e-06	-8.590509e-10	-2.274926e+01	-5.861654e+01
1.110000e-06	-3.222799e-06	-8.523707e-10	-2.248615e+01	-5.818854e+01
1.120000e-06	-3.184943e-06	-8.475381e-10	-2.222202e+01	-5.775573e+01
1.130000e-06	-3.146837e-06	-8.442651e-10	-2.195615e+01	-5.731816e+01
1.140000e-06	-3.108441e-06	-8.342339e-10	-2.168825e+01	-5.687586e+01
1.150000e-06	-3.069817e-06	-8.230230e-10	-2.141876e+01	-5.642889e+01
1.160000e-06	-3.030979e-06	-8.151578e-10	-2.114778e+01	-5.597733e+01
1.170000e-06	-2.991910e-06	-8.060700e-10	-2.087518e+01	-5.552123e+01
1.180000e-06	-2.952683e-06	-7.968854e-10	-2.060149e+01	-5.506067e+01
1.190000e-06	-2.913335e-06	-7.922249e-10	-2.032695e+01	-5.459574e+01
1.200000e-06	-2.873840e-06	-7.876463e-10	-2.005138e+01	-5.412651e+01
1.210000e-06	-2.834186e-06	-7.812571e-10	-1.977471e+01	-5.365308e+01
1.220000e-06	-2.794401e-06	-7.784875e-10	-1.949713e+01	-5.317553e+01
1.230000e-06	-2.754563e-06	-7.739965e-10	-1.921917e+01	-5.269394e+01
1.240000e-06	-2.714567e-06	-7.593453e-10	-1.894010e+01	-5.220840e+01
1.250000e-06	-2.674445e-06	-7.427222e-10	-1.866016e+01	-5.171898e+01
1.260000e-06	-2.634104e-06	-7.317612e-10	-1.837870e+01	-5.122574e+01
1.270000e-06	-2.593474e-06	-7.237150e-10	-1.809521e+01	-5.072876e+01
1.280000e-06	-2.552643e-06	-7.202827e-10	-1.781033e+01	-5.022808e+01
1.290000e-06	-2.511506e-06	-7.184689e-10	-1.752330e+01	-4.972373e+01
1.300000e-06	-2.470019e-06	-7.158175e-10	-1.723384e+01	-4.921574e+01
1.310000e-06	-2.428154e-06	-7.078131e-10	-1.694174e+01	-4.870411e+01
1.320000e-06	-2.386027e-06	-6.990165e-10	-1.664781e+01	-4.818883e+01
1.330000e-06	-2.343713e-06	-6.899464e-10	-1.635258e+01	-4.766986e+01
1.340000e-06	-2.301119e-06	-6.789851e-10	-1.605539e+01	-4.714714e+01
1.350000e-06	-2.258195e-06	-6.692077e-10	-1.575590e+01	-4.662059e+01
1.360000e-06	-2.215028e-06	-6.608893e-10	-1.545472e+01	-4.609010e+01
1.370000e-06	-2.171763e-06	-6.515029e-10	-1.515285e+01	-4.555554e+01
1.380000e-06	-2.128372e-06	-6.428114e-10	-1.485010e+01	-4.501674e+01
1.390000e-06	-2.084831e-06	-6.338170e-10	-1.454630e+01	-4.447351e+01
1.400000e-06	-2.041220e-06	-6.237166e-10	-1.424202e+01	-4.392562e+01
1.410000e-06	-1.997563e-06	-6.134669e-10	-1.393742e+01	-4.337281e+01
1.420000e-06	-1.953836e-06	-6.053234e-10	-1.363233e+01	-4.281481e+01
1.430000e-06	-1.910026e-06	-5.988412e-10	-1.332666e+01	-4.225128e+01
1.440000e-06	-1.866097e-06	-5.901582e-10	-1.302015e+01	-4.168188e+01
1.450000e-06	-1.822066e-06	-5.788104e-10	-1.271294e+01	-4.110622e+01
1.460000e-06	-1.777951e-06	-5.656683e-10	-1.240514e+01	-4.052389e+01
1.470000e-06	-1.733667e-06	-5.539113e-10	-1.209616e+01	-3.993445e+01
1.480000e-06	-1.689287e-06	-5.434006e-10	-1.178651e+01	-3.933742e+01
1.490000e-06	-1.644819e-06	-5.332509e-10	-1.147624e+01	-3.873231e+01
1.500000e-06	-1.600193e-06	-5.257770e-10	-1.116488e+01	-3.811858e+01
1.510000e-06	-1.555494e-06	-5.206459e-10	-1.085301e+01	-3.749569e+01
1.520000e-06	-1.510638e-06	-5.140218e-10	-1.054004e+01	-3.686307e+01
1.530000e-06	-1.465549e-06	-5.052729e-10	-1.022544e+01	-3.622013e+01
1.540000e-06	-1.420325e-06	-4.954932e-10	-9.909909e+00	-3.556627e+01
1.550000e-06	-1.375004e-06	-4.837380e-10	-9.593689e+00	-3.490087e+01
1.560000e-06	-1.329616e-06	-4.697633e-10	-9.277013e+00	-3.422331e+01
1.570000e-06	-1.284169e-06	-4.562378e-10	-8.959918e+00	-3.353297e+01
1.580000e-06	-1.238658e-06	-4.435687e-10	-8.642379e+00	-3.282920e+01
1.590000e-06	-1.193073e-06	-4.295479e-10	-8.324324e+00	-3.211138e+01
1.600000e-06	-1.147407e-06	-4.172964e-10	-8.005700e+00	-3.137890e+01
1.610000e-06	-1.101689e-06	-4.082475e-10	-7.686713e+00	-3.063114e+01
1.620000e-06	-1.055932e-06	-3.977523e-10	-7.367457e+00	-2.986751e+01
1.630000e-06	-1.010096e-06	-3.847205e-10	-7.047654e+00	-2.908743e+01
1.640000e-06	-9.641767e-07	-3.699929e-10	-6.727264e+00	-2.829037e+01
1.650000e-06	-9.181571e-07	-3.544777e-10	-6.406175e+00	-2.747580e+01
1.660000e-06	-8.720575e-07	-3.366931e-10	-6.084528e+00	-2.664324e+01
1.670000e-06	-8.259538e-07	-3.196029e-10	-5.762853e+00	-2.579224e+01
1.680000e-06	-7.798071e-07	-3.049028e-10	-5.440878e+00	-2.492239e+01
1.690000e-06	-7.335839e-07	-2.928947e-10	-5.118369e+00	-2.403335e+01
1.700000e-06	-6.872620e-07	-2.803995e-10	-4.795172e+00	-2.312480e+01
1.710000e-06	-6.409445e-07	-2.674912e-10	-4.472004e+00	-2.219649e+01
1.720000e-06	-5.946126e-07	-2.537920e-10	-4.148737e+00	-2.124823e+01
1.730000e-06	-5.482128e-07	-2.377789e-10	-3.824996e+00	-2.027989e+01
1.740000e-06	-5.017823e-07	-2.203925e-10	-3.501040e+00	-1.929139e+01
1.750000e-06	-4.553204e-07	-2.033965e-10	-3.176866e+00	-1.828275e+01
1.760000e-06	-4.088313e-07	-1.887171e-10	-2.852502e+00	-1.725402e+01
1.770000e-06	-3.623038e-07	-1.746245e-10	-2.527869e+00	-1.620536e+01
1.780000e-06	-3.157006e-07	-1.597185e-10	-2.202710e+00	-1.513696e+01
1.790000e-06	-2.690392e-07	-1.438343e-10	-1.877143e+00	-1.404912e+01
1.800000e-06	-2.223830e-07	-1.300779e-10	-1.551613e+00	-1.294220e+01
1.810000e-06	-1.757191e-07	-1.180321e-10	-1.226029e+00	-1.181664e+01
1.820000e-06	-1.290580e-07	-1.040593e-10	-9.004646e-01	-1.067295e+01
1.830000e-06	-8.239460e-08	-8.702099e-11	-5.748844e-01	-9.511709e+00
1.840000e-06	-3.579529e-08	-6.937025e-11	-2.497513e-01	-8.333580e+00
1.850000e-06	1.072655e-08	-5.160161e-11	7.484137e-02	-7.139290e+00
1.860000e-06	5.728339e-08	-3.386926e-11	3.996782e-01	-5.929638e+00
1.870000e-06	1.039407e-07	-1.439305e-11	7.252158e-01	-4.705489e+00
1.880000e-06	1.505746e-07	5.508178e-12	1.050591e+00	-3.467769e+00
1.890000e-06	1.971678e-07	2.312586e-11	1.375681e+00	-2.217467e+00
1.900000e-06	2.437820e-07	3.707109e-11	1.700918e+00	-9.556269e-01
1.910000e-06	2.903615e-07	4.971162e-11	2.025913e+00	3.166548e-01
1.920000e-06	3.369187e-07	6.497371e-11	2.350753e+00	1.598234e+00
1.930000e-06	3.834783e-07	8.435091e-11	2.675609e+00	2.887925e+00
1.940000e-06	4.300360e-07	1.050345e-10	3.000451e+00	4.184503e+00
1.950000e-06	4.764976e-07	1.252126e-10	3.324624e+00	5.486712e+00
1.960000e-06	5.228679e-07	1.445880e-10	3.648159e+00	6.793269e+00
1.970000e-06	5.691905e-07	1.626733e-10	3.971361e+00	8.102871e+00
1.980000e-06	6.154127e-07	1.813638e-10	4.293864e+00	9.414199e+00
1.990000e-06	6.616270e-07	2.002511e-10	4.616310e+00	1.072593e+01
2.000000e-06	7.078644e-07	2.161235e-10	4.938919e+00	1.203673e+01
2.010000e-06	7.540230e-07	2.311377e-10	5.260977e+00	1.334527e+01
2.020000e-06	8.000626e-07	2.454031e-10	5.582205e+00	1.465024e+01
2.030000e-06	8.460401e-07	2.622763e-10	5.903000e+00	1.595034e+01
2.040000e-06	8.919973e-07	2.838223e-10	6.223653e+00	1.724429e+01
2.050000e-06	9.379307e-07	3.054685e-10	6.544140e+00	1.853083e+01
2.060000e-06	9.837924e-07	3.271536e-10	6.864126e+00	1.980876e+01
2.070000e-06	1.029549e-06	3.475421e-10	7.183380e+00	2.107688e+01
2.080000e-06	1.075231e-06	3.662465e-10	7.502110e+00	2.233407e+01
2.090000e-06	1.120884e-06	3.819032e-10	7.820642e+00	2.357923e+01
2.100000e-06	1.166485e-06	3.978064e-10	8.138814e+00	2.481132e+01
2.110000e-06	1.211964e-06	4.141921e-10	8.456130e+00	2.602938e+01
2.120000e-06	1.257332e-06	4.294590e-10	8.772667e+00	2.723246e+01
2.130000e-06	1.302635e-06	4.433318e-10	9.088760e+00	2.841974e+01
2.140000e-06	1.347884e-06	4.578640e-10	9.404470e+00	2.959040e+01
2.150000e-06	1.392968e-06	4.730412e-10	9.719032e+00	3.074373e+01
2.160000e-06	1.437928e-06	4.877726e-10	1.003272e+01	3.187908e+01
2.170000e-06	1.482830e-06	5.047191e-10	1.034602e+01	3.299588e+01
2.180000e-06	1.527653e-06	5.232942e-10	1.065875e+01	3.409360e+01
2.190000e-06	1.572331e-06	5.402549e-10	1.097048e+01	3.517183e+01
2.200000e-06	1.616820e-06	5.554091e-10	1.128089e+01	3.623020e+01
2.210000e-06	1.661219e-06	5.679709e-10	1.159067e+01	3.726842e+01
2.220000e-06	1.705506e-06	5.776349e-10	1.189967e+01	3.828628e+01
2.230000e-06	1.749654e-06	5.855610e-10	1.220771e+01	3.928363e+01
2.240000e-06	1.793713e-06	5.968571e-10	1.251511e+01	4.026040e+01
2.250000e-06	1.837703e-06	6.117576e-10	1.282204e+01	4.121658e+01
2.260000e-06	1.881651e-06	6.291566e-10	1.312868e+01	4.215221e+01
2.270000e-06	1.925540e-06	6.479025e-10	1.343490e+01	4.306741e+01
2.280000e-06	1.969342e-06	6.639008e-10	1.374051e+01	4.396236e+01
2.290000e-06	2.013041e-06	6.769294e-10	1.404541e+01	4.483727e+01
2.300000e-06	2.056633e-06	6.864684e-10	1.434956e+01	4.569242e+01
2.310000e-06	2.100131e-06	6.931996e-10	1.465306e+01	4.652813e+01
2.320000e-06	2.143589e-06	6.997813e-10	1.495627e+01	4.734477e+01
2.330000e-06	2.187001e-06	7.100992e-10	1.525916e+01	4.814272e+01
2.340000e-06	2.230243e-06	7.225543e-10	1.556088e+01	4.892242e+01
2.350000e-06	2.273234e-06	7.359526e-10	1.586083e+01	4.968433e+01
2.360000e-06	2.315934e-06	7.509698e-10	1.615876e+01	5.042893e+01
2.370000e-06	2.358376e-06	7.659558e-10	1.645489e+01	5.115672e+01
2.380000e-06	2.400640e-06	7.770372e-10	1.674977e+01	5.186822e+01
2.390000e-06	2.442637e-06	7.854573e-10	1.704279e+01	5.256396e+01
2.400000e-06	2.484263e-06	7.927442e-10	1.733322e+01	5.324445e+01
2.410000e-06	2.525518e-06	7.983605e-10	1.762107e+01	5.391023e+01
2.420000e-06	2.566488e-06	8.041895e-10	1.790692e+01	5.456184e+01
2.430000e-06	2.607275e-06	8.117369e-10	1.819151e+01	5.519979e+01
2.440000e-06	2.647834e-06	8.204646e-10	1.847449e+01	5.582460e+01
2.450000e-06	2.688141e-06	8.278345e-10	1.875573e+01	5.643675e+01
2.460000e-06	2.728252e-06	8.360981e-10	1.903559e+01	5.703675e+01
2.470000e-06	2.768220e-06	8.476091e-10	1.931446e+01	5.762504e+01
2.480000e-06	2.808041e-06	8.589839e-10	1.959229e+01	5.820208e+01
2.490000e-06	2.847708e-06	8.682786e-10	1.986906e+01	5.876827e+01
2.500000e-06	2.887281e-06	8.749173e-10	2.014517e+01	5.932401e+01
2.510000e-06	2.926752e-06	8.799743e-10	2.042056e+01	5.986967e+01
2.520000e-06	2.966090e-06	8.857153e-10	2.069504e+01	6.040559e+01
2.530000e-06	3.005131e-06	8.916733e-10	2.096743e+01	6.093208e+01
2.540000e-06	3.043882e-06	8.983583e-10	2.123781e+01	6.144941e+01
2.550000e-06	3.082491e-06	9.080499e-10	2.150719e+01	6.195785e+01
2.560000e-06	3.120873e-06	9.184969e-10	2.177499e+01	6.245762e+01
2.570000e-06	3.158997e-06	9.273834e-10	2.204099e+01	6.294891e+01
2.580000e-06	3.196953e-06	9.362859e-10	2.230581e+01	6.343191e+01
2.590000e-06	3.234783e-06	9.451288e-10	2.256976e+01	6.390675e+01
2.600000e-06	3.272425e-06	9.506775e-10	2.283239e+01	6.437355e+01
2.610000e-06	3.309818e-06	9.527202e-10	2.309329e+01	6.483242e+01
2.620000e-06	3.346945e-06	9.554341e-10	2.335234e+01	6.528343e+01
2.630000e-06	3.383800e-06	9.590856e-10	2.360948e+01	6.572664e+01
2.640000e-06	3.420381e-06	9.628695e-10	2.386472e+01	6.616210e+01
2.650000e-06	3.456754e-06	9.673953e-10	2.411850e+01	6.658984e+01
2.660000e-06	3.492959e-06	9.748883e-10	2.437111e+01	6.700987e+01
2.670000e-06	3.528929e-06	9.830233e-10	2.462208e+01	6.742219e+01
2.680000e-06	3.564739e-06	9.895107e-10	2.487193e+01	6.782682e+01
2.690000e-06	3.600476e-06	9.954193e-10	2.512128e+01	6.822374e+01
2.700000e-06	3.636063e-06	9.969299e-10	2.536958e+01	6.861295e+01
2.710000e-06	3.671403e-06	9.980840e-10	2.561615e+01	6.899443e+01
2.720000e-06	3.706481e-06	1.001789e-09	2.586090e+01	6.936819e+01
2.730000e-06	3.741271e-06	1.006421e-09	2.610364e+01	6.973421e+01
2.740000e-06	3.775691e-06	1.012459e-09	2.634379e+01	7.009252e+01
2.750000e-06	3.809647e-06	1.019028e-09	2.658071e+01	7.044311e+01
2.760000e-06	3.843135e-06	1.024661e-09	2.681436e+01	7.078600e+01
2.770000e-06	3.876209e-06	1.028927e-09	2.704513e+01	7.112124e+01
2.780000e-06	3.908878e-06	1.032246e-09	2.727306e+01	7.144885e+01
2.790000e-06	3.941218e-06	1.036215e-09	2.749871e+01	7.176891e+01
2.800000e-06	3.973244e-06	1.038905e-09	2.772216e+01	7.208148e+01
2.810000e-06	4.005059e-06	1.040657e-09	2.794414e+01	7.238664e+01
2.820000e-06	4.036784e-06	1.042983e-09	2.816549e+01	7.268450e+01
2.830000e-06	4.068353e-06	1.045205e-09	2.838575e+01	7.297516e+01
2.840000e-06	4.099699e-06	1.048434e-09	2.860446e+01	7.325876e+01
2.850000e-06	4.130735e-06	1.052253e-09	2.882101e+01	7.353545e+01
2.860000e-06	4.161395e-06	1.055707e-09	2.903493e+01	7.380537e+01
2.870000e-06	4.191724e-06	1.059626e-09	2.924654e+01	7.406870e+01
2.880000e-06	4.221781e-06	1.065164e-09	2.945625e+01	7.432563e+01
2.890000e-06	4.251606e-06	1.070607e-09	2.966435e+01	7.457633e+01
2.900000e-06	4.281204e-06	1.073691e-09	2.987086e+01	7.482103e+01
2.910000e-06	4.310478e-06	1.074984e-09	3.007511e+01	7.505992e+01
