# Temperatura_=_6.75
# Concentracion g/m^3_=_1620.0
# C_Vs_to_Am_M_A/Vsm_=_65563218390.804596
# pendiente_HvsI_1/m_=_3716.3
# ordenada_HvsI_A/m_=_1297.0
# frecuencia_Hz_=_135110.16862701846

Tiempo_(s)	Campo_(V.s)	Magnetizacion_(V.s)	Campo_(kA/m)	Magnetizacion_(A/m)
0.000000e+00	-5.512290e-06	-1.329947e-09	-3.836691e+01	-8.682988e+01
1.000000e-08	-5.512357e-06	-1.325003e-09	-3.836738e+01	-8.681340e+01
2.000000e-08	-5.512115e-06	-1.321411e-09	-3.836570e+01	-8.679570e+01
3.000000e-08	-5.511491e-06	-1.320276e-09	-3.836135e+01	-8.677683e+01
4.000000e-08	-5.510421e-06	-1.322340e-09	-3.835390e+01	-8.675677e+01
5.000000e-08	-5.508760e-06	-1.327849e-09	-3.834234e+01	-8.673552e+01
6.000000e-08	-5.506421e-06	-1.337698e-09	-3.832606e+01	-8.671306e+01
7.000000e-08	-5.503527e-06	-1.348313e-09	-3.830592e+01	-8.668934e+01
8.000000e-08	-5.500124e-06	-1.314576e-09	-3.828224e+01	-8.666430e+01
9.000000e-08	-5.496284e-06	-1.268467e-09	-3.825551e+01	-8.663787e+01
1.000000e-07	-5.492146e-06	-1.319995e-09	-3.822671e+01	-8.660995e+01
1.100000e-07	-5.487753e-06	-1.391307e-09	-3.819613e+01	-8.658045e+01
1.200000e-07	-5.483039e-06	-1.357726e-09	-3.816332e+01	-8.654924e+01
1.300000e-07	-5.478075e-06	-1.283439e-09	-3.812877e+01	-8.651619e+01
1.400000e-07	-5.472840e-06	-1.287969e-09	-3.809233e+01	-8.648117e+01
1.500000e-07	-5.467122e-06	-1.378071e-09	-3.805253e+01	-8.644403e+01
1.600000e-07	-5.460952e-06	-1.328402e-09	-3.800959e+01	-8.640460e+01
1.700000e-07	-5.454400e-06	-1.267373e-09	-3.796398e+01	-8.636272e+01
1.800000e-07	-5.447440e-06	-1.278234e-09	-3.791554e+01	-8.631821e+01
1.900000e-07	-5.440126e-06	-1.376070e-09	-3.786463e+01	-8.627091e+01
2.000000e-07	-5.432490e-06	-1.355054e-09	-3.781149e+01	-8.622062e+01
2.100000e-07	-5.424550e-06	-1.306904e-09	-3.775622e+01	-8.616718e+01
2.200000e-07	-5.416282e-06	-1.295656e-09	-3.769868e+01	-8.611039e+01
2.300000e-07	-5.407723e-06	-1.338414e-09	-3.763910e+01	-8.605009e+01
2.400000e-07	-5.398764e-06	-1.329620e-09	-3.757675e+01	-8.598608e+01
2.500000e-07	-5.389163e-06	-1.294843e-09	-3.750992e+01	-8.591820e+01
2.600000e-07	-5.378813e-06	-1.304499e-09	-3.743788e+01	-8.584628e+01
2.700000e-07	-5.367846e-06	-1.323525e-09	-3.736155e+01	-8.577015e+01
2.800000e-07	-5.356466e-06	-1.314925e-09	-3.728234e+01	-8.568967e+01
2.900000e-07	-5.344664e-06	-1.274714e-09	-3.720020e+01	-8.560467e+01
3.000000e-07	-5.332459e-06	-1.285736e-09	-3.711525e+01	-8.551503e+01
3.100000e-07	-5.319935e-06	-1.288256e-09	-3.702807e+01	-8.542062e+01
3.200000e-07	-5.307017e-06	-1.295365e-09	-3.693816e+01	-8.532132e+01
3.300000e-07	-5.293702e-06	-1.255010e-09	-3.684548e+01	-8.521702e+01
3.400000e-07	-5.280009e-06	-1.268170e-09	-3.675018e+01	-8.510763e+01
3.500000e-07	-5.265866e-06	-1.276754e-09	-3.665174e+01	-8.499306e+01
3.600000e-07	-5.251179e-06	-1.275091e-09	-3.654952e+01	-8.487325e+01
3.700000e-07	-5.235977e-06	-1.233396e-09	-3.644371e+01	-8.474813e+01
3.800000e-07	-5.220382e-06	-1.274098e-09	-3.633516e+01	-8.461766e+01
3.900000e-07	-5.204252e-06	-1.284469e-09	-3.622289e+01	-8.448181e+01
4.000000e-07	-5.187624e-06	-1.245683e-09	-3.610716e+01	-8.434055e+01
4.100000e-07	-5.170661e-06	-1.235901e-09	-3.598909e+01	-8.419387e+01
4.200000e-07	-5.153432e-06	-1.294866e-09	-3.586917e+01	-8.404177e+01
4.300000e-07	-5.135991e-06	-1.254666e-09	-3.574778e+01	-8.388426e+01
4.400000e-07	-5.118197e-06	-1.206470e-09	-3.562393e+01	-8.372136e+01
4.500000e-07	-5.099983e-06	-1.256588e-09	-3.549715e+01	-8.355310e+01
4.600000e-07	-5.081387e-06	-1.286135e-09	-3.536772e+01	-8.337953e+01
4.700000e-07	-5.062369e-06	-1.217027e-09	-3.523535e+01	-8.320068e+01
4.800000e-07	-5.043036e-06	-1.227105e-09	-3.510079e+01	-8.301661e+01
4.900000e-07	-5.023498e-06	-1.275627e-09	-3.496480e+01	-8.282739e+01
5.000000e-07	-5.003742e-06	-1.227280e-09	-3.482729e+01	-8.263307e+01
5.100000e-07	-4.983763e-06	-1.202433e-09	-3.468824e+01	-8.243372e+01
5.200000e-07	-4.963503e-06	-1.255339e-09	-3.454722e+01	-8.222943e+01
5.300000e-07	-4.942874e-06	-1.229567e-09	-3.440363e+01	-8.202026e+01
5.400000e-07	-4.921831e-06	-1.173406e-09	-3.425717e+01	-8.180629e+01
5.500000e-07	-4.900471e-06	-1.228812e-09	-3.410850e+01	-8.158762e+01
5.600000e-07	-4.878781e-06	-1.249392e-09	-3.395753e+01	-8.136431e+01
5.700000e-07	-4.856670e-06	-1.193020e-09	-3.380363e+01	-8.113644e+01
5.800000e-07	-4.834196e-06	-1.201699e-09	-3.364721e+01	-8.090410e+01
5.900000e-07	-4.811424e-06	-1.241337e-09	-3.348871e+01	-8.066737e+01
6.000000e-07	-4.788346e-06	-1.194339e-09	-3.332808e+01	-8.042631e+01
6.100000e-07	-4.764956e-06	-1.179319e-09	-3.316528e+01	-8.018101e+01
6.200000e-07	-4.741276e-06	-1.204294e-09	-3.300047e+01	-7.993152e+01
6.300000e-07	-4.717339e-06	-1.189781e-09	-3.283386e+01	-7.967792e+01
6.400000e-07	-4.693159e-06	-1.162381e-09	-3.266556e+01	-7.942026e+01
6.500000e-07	-4.668626e-06	-1.189344e-09	-3.249480e+01	-7.915861e+01
6.600000e-07	-4.643628e-06	-1.184774e-09	-3.232081e+01	-7.889301e+01
6.700000e-07	-4.618118e-06	-1.166414e-09	-3.214325e+01	-7.862351e+01
6.800000e-07	-4.592072e-06	-1.167324e-09	-3.196197e+01	-7.835015e+01
6.900000e-07	-4.565448e-06	-1.166444e-09	-3.177666e+01	-7.807297e+01
7.000000e-07	-4.538368e-06	-1.141222e-09	-3.158817e+01	-7.779200e+01
7.100000e-07	-4.511043e-06	-1.143965e-09	-3.139798e+01	-7.750727e+01
7.200000e-07	-4.483501e-06	-1.146314e-09	-3.120628e+01	-7.721878e+01
7.300000e-07	-4.455728e-06	-1.139726e-09	-3.101298e+01	-7.692657e+01
7.400000e-07	-4.427746e-06	-1.133371e-09	-3.081822e+01	-7.663063e+01
7.500000e-07	-4.399533e-06	-1.133677e-09	-3.062184e+01	-7.633098e+01
7.600000e-07	-4.371046e-06	-1.123390e-09	-3.042357e+01	-7.602762e+01
7.700000e-07	-4.342308e-06	-1.118011e-09	-3.022354e+01	-7.572053e+01
7.800000e-07	-4.313331e-06	-1.114432e-09	-3.002186e+01	-7.540972e+01
7.900000e-07	-4.284016e-06	-1.103883e-09	-2.981782e+01	-7.509517e+01
8.000000e-07	-4.254359e-06	-1.094542e-09	-2.961140e+01	-7.477686e+01
8.100000e-07	-4.224373e-06	-1.089954e-09	-2.940269e+01	-7.445478e+01
8.200000e-07	-4.194120e-06	-1.079273e-09	-2.919212e+01	-7.412891e+01
8.300000e-07	-4.163591e-06	-1.067463e-09	-2.897963e+01	-7.379922e+01
8.400000e-07	-4.132732e-06	-1.068717e-09	-2.876484e+01	-7.346568e+01
8.500000e-07	-4.101681e-06	-1.069596e-09	-2.854872e+01	-7.312828e+01
8.600000e-07	-4.070478e-06	-1.066689e-09	-2.833154e+01	-7.278697e+01
8.700000e-07	-4.039017e-06	-1.063670e-09	-2.811256e+01	-7.244172e+01
8.800000e-07	-4.007284e-06	-1.063883e-09	-2.789170e+01	-7.209251e+01
8.900000e-07	-3.975338e-06	-1.048752e-09	-2.766934e+01	-7.173930e+01
9.000000e-07	-3.943159e-06	-1.036998e-09	-2.744537e+01	-7.138205e+01
9.100000e-07	-3.910691e-06	-1.031604e-09	-2.721938e+01	-7.102074e+01
9.200000e-07	-3.877865e-06	-1.027372e-09	-2.699091e+01	-7.065533e+01
9.300000e-07	-3.844655e-06	-1.019245e-09	-2.675976e+01	-7.028578e+01
9.400000e-07	-3.810925e-06	-1.022795e-09	-2.652499e+01	-6.991207e+01
9.500000e-07	-3.776689e-06	-1.021568e-09	-2.628670e+01	-6.953416e+01
9.600000e-07	-3.742100e-06	-1.014705e-09	-2.604595e+01	-6.915201e+01
9.700000e-07	-3.707220e-06	-1.004941e-09	-2.580318e+01	-6.876560e+01
9.800000e-07	-3.672049e-06	-1.000837e-09	-2.555838e+01	-6.837490e+01
9.900000e-07	-3.636604e-06	-9.920439e-10	-2.531167e+01	-6.797988e+01
1.000000e-06	-3.600984e-06	-9.894975e-10	-2.506375e+01	-6.758051e+01
1.010000e-06	-3.565245e-06	-9.904426e-10	-2.481499e+01	-6.717677e+01
1.020000e-06	-3.529305e-06	-9.865883e-10	-2.456484e+01	-6.676862e+01
1.030000e-06	-3.493167e-06	-9.744355e-10	-2.431331e+01	-6.635606e+01
1.040000e-06	-3.456897e-06	-9.696984e-10	-2.406086e+01	-6.593904e+01
1.050000e-06	-3.420413e-06	-9.671169e-10	-2.380693e+01	-6.551757e+01
1.060000e-06	-3.383657e-06	-9.604130e-10	-2.355109e+01	-6.509160e+01
1.070000e-06	-3.346620e-06	-9.523327e-10	-2.329331e+01	-6.466114e+01
1.080000e-06	-3.309280e-06	-9.459824e-10	-2.303341e+01	-6.422615e+01
1.090000e-06	-3.271710e-06	-9.359450e-10	-2.277192e+01	-6.378663e+01
1.100000e-06	-3.233958e-06	-9.239298e-10	-2.250915e+01	-6.334256e+01
1.110000e-06	-3.195903e-06	-9.169605e-10	-2.224428e+01	-6.289392e+01
1.120000e-06	-3.157576e-06	-9.101895e-10	-2.197752e+01	-6.244071e+01
1.130000e-06	-3.119076e-06	-9.017614e-10	-2.170955e+01	-6.198290e+01
1.140000e-06	-3.080397e-06	-8.943875e-10	-2.144033e+01	-6.152049e+01
1.150000e-06	-3.041515e-06	-8.910282e-10	-2.116970e+01	-6.105347e+01
1.160000e-06	-3.002432e-06	-8.855824e-10	-2.089767e+01	-6.058181e+01
1.170000e-06	-2.963166e-06	-8.779349e-10	-2.062437e+01	-6.010551e+01
1.180000e-06	-2.923753e-06	-8.677309e-10	-2.035005e+01	-5.962454e+01
1.190000e-06	-2.884230e-06	-8.599398e-10	-2.007496e+01	-5.913890e+01
1.200000e-06	-2.844548e-06	-8.518306e-10	-1.979877e+01	-5.864855e+01
1.210000e-06	-2.804696e-06	-8.450589e-10	-1.952138e+01	-5.815348e+01
1.220000e-06	-2.764765e-06	-8.362995e-10	-1.924345e+01	-5.765366e+01
1.230000e-06	-2.724715e-06	-8.270052e-10	-1.896470e+01	-5.714906e+01
1.240000e-06	-2.684472e-06	-8.160617e-10	-1.868459e+01	-5.663964e+01
1.250000e-06	-2.644026e-06	-8.090478e-10	-1.840308e+01	-5.612536e+01
1.260000e-06	-2.603331e-06	-7.997415e-10	-1.811984e+01	-5.560618e+01
1.270000e-06	-2.562369e-06	-7.914874e-10	-1.783473e+01	-5.508204e+01
1.280000e-06	-2.521080e-06	-7.845665e-10	-1.754735e+01	-5.455289e+01
1.290000e-06	-2.479415e-06	-7.768025e-10	-1.725734e+01	-5.401864e+01
1.300000e-06	-2.437416e-06	-7.647115e-10	-1.696502e+01	-5.347922e+01
1.310000e-06	-2.395131e-06	-7.522710e-10	-1.667071e+01	-5.293454e+01
1.320000e-06	-2.352564e-06	-7.394683e-10	-1.637443e+01	-5.238451e+01
1.330000e-06	-2.309729e-06	-7.275179e-10	-1.607629e+01	-5.182900e+01
1.340000e-06	-2.266628e-06	-7.186061e-10	-1.577629e+01	-5.126790e+01
1.350000e-06	-2.223329e-06	-7.135055e-10	-1.547493e+01	-5.070106e+01
1.360000e-06	-2.179918e-06	-7.101834e-10	-1.517277e+01	-5.012834e+01
1.370000e-06	-2.136411e-06	-7.047052e-10	-1.486995e+01	-4.954956e+01
1.380000e-06	-2.092824e-06	-6.945982e-10	-1.456657e+01	-4.896455e+01
1.390000e-06	-2.049127e-06	-6.802716e-10	-1.426244e+01	-4.837310e+01
1.400000e-06	-2.005347e-06	-6.640905e-10	-1.395772e+01	-4.777501e+01
1.410000e-06	-1.961526e-06	-6.497497e-10	-1.365271e+01	-4.717003e+01
1.420000e-06	-1.917631e-06	-6.391201e-10	-1.334719e+01	-4.655793e+01
1.430000e-06	-1.873644e-06	-6.304995e-10	-1.304103e+01	-4.593843e+01
1.440000e-06	-1.829552e-06	-6.236231e-10	-1.273414e+01	-4.531125e+01
1.450000e-06	-1.785367e-06	-6.154479e-10	-1.242660e+01	-4.467609e+01
1.460000e-06	-1.741074e-06	-6.055694e-10	-1.211831e+01	-4.403262e+01
1.470000e-06	-1.696643e-06	-5.925245e-10	-1.180906e+01	-4.338052e+01
1.480000e-06	-1.652128e-06	-5.805273e-10	-1.149923e+01	-4.271943e+01
1.490000e-06	-1.607440e-06	-5.704743e-10	-1.118818e+01	-4.204898e+01
1.500000e-06	-1.562581e-06	-5.599438e-10	-1.087595e+01	-4.136880e+01
1.510000e-06	-1.517614e-06	-5.485998e-10	-1.056297e+01	-4.067847e+01
1.520000e-06	-1.472480e-06	-5.358585e-10	-1.024883e+01	-3.997760e+01
1.530000e-06	-1.427186e-06	-5.241223e-10	-9.933567e+00	-3.926576e+01
1.540000e-06	-1.381813e-06	-5.169611e-10	-9.617765e+00	-3.854252e+01
1.550000e-06	-1.336370e-06	-5.103682e-10	-9.301470e+00	-3.780745e+01
1.560000e-06	-1.290795e-06	-5.024925e-10	-8.984258e+00	-3.706010e+01
1.570000e-06	-1.245137e-06	-4.911276e-10	-8.666466e+00	-3.630002e+01
1.580000e-06	-1.199415e-06	-4.771941e-10	-8.348227e+00	-3.552676e+01
1.590000e-06	-1.153679e-06	-4.606514e-10	-8.029895e+00	-3.473987e+01
1.600000e-06	-1.107948e-06	-4.457260e-10	-7.711592e+00	-3.393892e+01
1.610000e-06	-1.062167e-06	-4.308816e-10	-7.392949e+00	-3.312346e+01
1.620000e-06	-1.016285e-06	-4.168297e-10	-7.073598e+00	-3.229306e+01
1.630000e-06	-9.702657e-07	-4.056244e-10	-6.753291e+00	-3.144730e+01
1.640000e-06	-9.242172e-07	-3.967789e-10	-6.432782e+00	-3.058580e+01
1.650000e-06	-8.780611e-07	-3.872300e-10	-6.111524e+00	-2.970816e+01
1.660000e-06	-8.317479e-07	-3.732772e-10	-5.789173e+00	-2.881402e+01
1.670000e-06	-7.854157e-07	-3.586018e-10	-5.466689e+00	-2.790305e+01
1.680000e-06	-7.390586e-07	-3.436049e-10	-5.144032e+00	-2.697496e+01
1.690000e-06	-6.926673e-07	-3.281927e-10	-4.821137e+00	-2.602945e+01
1.700000e-06	-6.461999e-07	-3.158182e-10	-4.497713e+00	-2.506630e+01
1.710000e-06	-5.996891e-07	-3.030952e-10	-4.173986e+00	-2.408530e+01
1.720000e-06	-5.531513e-07	-2.909407e-10	-3.850071e+00	-2.308630e+01
1.730000e-06	-5.065386e-07	-2.764461e-10	-3.525635e+00	-2.206918e+01
1.740000e-06	-4.599270e-07	-2.578895e-10	-3.201207e+00	-2.103389e+01
1.750000e-06	-4.133417e-07	-2.396432e-10	-2.876962e+00	-1.998039e+01
1.760000e-06	-3.667082e-07	-2.219322e-10	-2.552381e+00	-1.890874e+01
1.770000e-06	-3.199587e-07	-2.064868e-10	-2.226993e+00	-1.781902e+01
1.780000e-06	-2.731928e-07	-1.939187e-10	-1.901490e+00	-1.671138e+01
1.790000e-06	-2.264101e-07	-1.834172e-10	-1.575871e+00	-1.558603e+01
1.800000e-06	-1.795909e-07	-1.704768e-10	-1.249997e+00	-1.444324e+01
1.810000e-06	-1.328453e-07	-1.526125e-10	-9.246366e-01	-1.328334e+01
1.820000e-06	-8.613412e-08	-1.319780e-10	-5.995150e-01	-1.210672e+01
1.830000e-06	-3.943399e-08	-1.096559e-10	-2.744704e-01	-1.091384e+01
1.840000e-06	7.213400e-09	-8.700575e-11	5.020706e-02	-9.705211e+00
1.850000e-06	5.387607e-08	-6.893138e-11	3.749909e-01	-8.481418e+00
1.860000e-06	1.005943e-07	-5.202355e-11	7.001617e-01	-7.243101e+00
1.870000e-06	1.473724e-07	-3.502771e-11	1.025748e+00	-5.990966e+00
1.880000e-06	1.940846e-07	-2.029487e-11	1.350877e+00	-4.725776e+00
1.890000e-06	2.407046e-07	-5.642448e-12	1.675364e+00	-3.448351e+00
1.900000e-06	2.873936e-07	1.259886e-11	2.000331e+00	-2.159570e+00
1.910000e-06	3.341384e-07	3.373791e-11	2.325687e+00	-8.603610e-01
1.920000e-06	3.808847e-07	5.812073e-11	2.651052e+00	4.482942e-01
1.930000e-06	4.275692e-07	8.281319e-11	2.975988e+00	1.765368e+00
1.940000e-06	4.742579e-07	1.043193e-10	3.300953e+00	3.089791e+00
1.950000e-06	5.209671e-07	1.217160e-10	3.626061e+00	4.420451e+00
1.960000e-06	5.676075e-07	1.369305e-10	3.950690e+00	5.756202e+00
1.970000e-06	6.141517e-07	1.523827e-10	4.274649e+00	7.095869e+00
1.980000e-06	6.605228e-07	1.670123e-10	4.597404e+00	8.438249e+00
1.990000e-06	7.067695e-07	1.819827e-10	4.919292e+00	9.782118e+00
2.000000e-06	7.530066e-07	2.027803e-10	5.241114e+00	1.112624e+01
2.010000e-06	7.992239e-07	2.255670e-10	5.562797e+00	1.246935e+01
2.020000e-06	8.454126e-07	2.489925e-10	5.884283e+00	1.381021e+01
2.030000e-06	8.914990e-07	2.738218e-10	6.205055e+00	1.514756e+01
2.040000e-06	9.374559e-07	2.933557e-10	6.524927e+00	1.648014e+01
2.050000e-06	9.834205e-07	3.079392e-10	6.844852e+00	1.780673e+01
2.060000e-06	1.029368e-06	3.219018e-10	7.164655e+00	1.912609e+01
2.070000e-06	1.075181e-06	3.372493e-10	7.483525e+00	2.043703e+01
2.080000e-06	1.120958e-06	3.545135e-10	7.802147e+00	2.173837e+01
2.090000e-06	1.166674e-06	3.771102e-10	8.120342e+00	2.302899e+01
2.100000e-06	1.212228e-06	4.009307e-10	8.437412e+00	2.430777e+01
2.110000e-06	1.257714e-06	4.227951e-10	8.754003e+00	2.557365e+01
2.120000e-06	1.303064e-06	4.409763e-10	9.069648e+00	2.682564e+01
2.130000e-06	1.348249e-06	4.552086e-10	9.384148e+00	2.806275e+01
2.140000e-06	1.393463e-06	4.667629e-10	9.698852e+00	2.928410e+01
2.150000e-06	1.438677e-06	4.776946e-10	1.001355e+01	3.048883e+01
2.160000e-06	1.483755e-06	4.922757e-10	1.032731e+01	3.167616e+01
2.170000e-06	1.528694e-06	5.102536e-10	1.064009e+01	3.284537e+01
2.180000e-06	1.573507e-06	5.287482e-10	1.095200e+01	3.399580e+01
2.190000e-06	1.618247e-06	5.472966e-10	1.126340e+01	3.512688e+01
2.200000e-06	1.662851e-06	5.625598e-10	1.157386e+01	3.623809e+01
2.210000e-06	1.707295e-06	5.735147e-10	1.188320e+01	3.732898e+01
2.220000e-06	1.751639e-06	5.829686e-10	1.219184e+01	3.839920e+01
2.230000e-06	1.795812e-06	5.947488e-10	1.249930e+01	3.944844e+01
2.240000e-06	1.839817e-06	6.082194e-10	1.280559e+01	4.047647e+01
2.250000e-06	1.883736e-06	6.238408e-10	1.311127e+01	4.148316e+01
2.260000e-06	1.927570e-06	6.408126e-10	1.341637e+01	4.246840e+01
2.270000e-06	1.971322e-06	6.543799e-10	1.372089e+01	4.343220e+01
2.280000e-06	2.015047e-06	6.653054e-10	1.402523e+01	4.437460e+01
2.290000e-06	2.058756e-06	6.749689e-10	1.432946e+01	4.529571e+01
2.300000e-06	2.102406e-06	6.825590e-10	1.463327e+01	4.619573e+01
2.310000e-06	2.145986e-06	6.913715e-10	1.493660e+01	4.707487e+01
2.320000e-06	2.189513e-06	7.063392e-10	1.523956e+01	4.793344e+01
2.330000e-06	2.232941e-06	7.229818e-10	1.554183e+01	4.877177e+01
2.340000e-06	2.276183e-06	7.361047e-10	1.584280e+01	4.959026e+01
2.350000e-06	2.319154e-06	7.458708e-10	1.614189e+01	5.038934e+01
2.360000e-06	2.361836e-06	7.535812e-10	1.643897e+01	5.116948e+01
2.370000e-06	2.404289e-06	7.591376e-10	1.673445e+01	5.193118e+01
2.380000e-06	2.446499e-06	7.652351e-10	1.702825e+01	5.267497e+01
2.390000e-06	2.488354e-06	7.734514e-10	1.731956e+01	5.340143e+01
2.400000e-06	2.529753e-06	7.838662e-10	1.760771e+01	5.411112e+01
2.410000e-06	2.570796e-06	7.956455e-10	1.789338e+01	5.480463e+01
2.420000e-06	2.611682e-06	8.082897e-10	1.817796e+01	5.548259e+01
2.430000e-06	2.652332e-06	8.196207e-10	1.846089e+01	5.614559e+01
2.440000e-06	2.692692e-06	8.295544e-10	1.874181e+01	5.679425e+01
2.450000e-06	2.732914e-06	8.383578e-10	1.902176e+01	5.742917e+01
2.460000e-06	2.772982e-06	8.459709e-10	1.930065e+01	5.805098e+01
2.470000e-06	2.812868e-06	8.516890e-10	1.957826e+01	5.866024e+01
2.480000e-06	2.852625e-06	8.569639e-10	1.985498e+01	5.925755e+01
2.490000e-06	2.892290e-06	8.648190e-10	2.013106e+01	5.984347e+01
2.500000e-06	2.931865e-06	8.749952e-10	2.040651e+01	6.041853e+01
2.510000e-06	2.971286e-06	8.859358e-10	2.068089e+01	6.098326e+01
2.520000e-06	3.010472e-06	8.963511e-10	2.095364e+01	6.153814e+01
2.530000e-06	3.049405e-06	9.061984e-10	2.122462e+01	6.208365e+01
2.540000e-06	3.088088e-06	9.144926e-10	2.149386e+01	6.262020e+01
2.550000e-06	3.126538e-06	9.196683e-10	2.176149e+01	6.314820e+01
2.560000e-06	3.164780e-06	9.231366e-10	2.202766e+01	6.366803e+01
2.570000e-06	3.202834e-06	9.289886e-10	2.229252e+01	6.418002e+01
2.580000e-06	3.240726e-06	9.388785e-10	2.255626e+01	6.468448e+01
2.590000e-06	3.278375e-06	9.503997e-10	2.281831e+01	6.518167e+01
2.600000e-06	3.315806e-06	9.593055e-10	2.307884e+01	6.567183e+01
2.610000e-06	3.353070e-06	9.657815e-10	2.333820e+01	6.615517e+01
2.620000e-06	3.390057e-06	9.721022e-10	2.359564e+01	6.663187e+01
2.630000e-06	3.426787e-06	9.785621e-10	2.385129e+01	6.710205e+01
2.640000e-06	3.463236e-06	9.842927e-10	2.410499e+01	6.756585e+01
2.650000e-06	3.499411e-06	9.927316e-10	2.435677e+01	6.802334e+01
2.660000e-06	3.535380e-06	1.001604e-09	2.460713e+01	6.847460e+01
2.670000e-06	3.571232e-06	1.007698e-09	2.485666e+01	6.891965e+01
2.680000e-06	3.606987e-06	1.012305e-09	2.510553e+01	6.935852e+01
2.690000e-06	3.642619e-06	1.013547e-09	2.535354e+01	6.979121e+01
2.700000e-06	3.678142e-06	1.016522e-09	2.560078e+01	7.021769e+01
2.710000e-06	3.713460e-06	1.023576e-09	2.584661e+01	7.063795e+01
2.720000e-06	3.748511e-06	1.032276e-09	2.609057e+01	7.105194e+01
2.730000e-06	3.783217e-06	1.041759e-09	2.633213e+01	7.145961e+01
2.740000e-06	3.817402e-06	1.050175e-09	2.657007e+01	7.186090e+01
2.750000e-06	3.851053e-06	1.056021e-09	2.680429e+01	7.225577e+01
2.760000e-06	3.884232e-06	1.058530e-09	2.703522e+01	7.264414e+01
2.770000e-06	3.916952e-06	1.058590e-09	2.726296e+01	7.302596e+01
2.780000e-06	3.949308e-06	1.060331e-09	2.748817e+01	7.340118e+01
2.790000e-06	3.981404e-06	1.065246e-09	2.771156e+01	7.376974e+01
2.800000e-06	4.013318e-06	1.071580e-09	2.793370e+01	7.413161e+01
2.810000e-06	4.045001e-06	1.077807e-09	2.815422e+01	7.448675e+01
2.820000e-06	4.076477e-06	1.083795e-09	2.837330e+01	7.483515e+01
2.830000e-06	4.107857e-06	1.089543e-09	2.859171e+01	7.517678e+01
2.840000e-06	4.139023e-06	1.093422e-09	2.880863e+01	7.551165e+01
2.850000e-06	4.169863e-06	1.096484e-09	2.902328e+01	7.583979e+01
2.860000e-06	4.200341e-06	1.099036e-09	2.923542e+01	7.616121e+01
2.870000e-06	4.230434e-06	1.100065e-09	2.944487e+01	7.647597e+01
2.880000e-06	4.260250e-06	1.099751e-09	2.965240e+01	7.678412e+01
2.890000e-06	4.289845e-06	1.099212e-09	2.985839e+01	7.708574e+01
2.900000e-06	4.319209e-06	1.102167e-09	3.006277e+01	7.738091e+01
2.910000e-06	4.348361e-06	1.109212e-09	3.026567e+01	7.766974e+01
