# Temperatura_=_-32.32
# Concentracion g/m^3_=_1620.0
# C_Vs_to_Am_M_A/Vsm_=_65563218390.804596
# pendiente_HvsI_1/m_=_3716.3
# ordenada_HvsI_A/m_=_1297.0
# frecuencia_Hz_=_135100.31012990285

Tiempo_(s)	Campo_(V.s)	Magnetizacion_(V.s)	Campo_(kA/m)	Magnetizacion_(A/m)
0.000000e+00	-5.519817e-06	-7.419639e-10	-3.837876e+01	-4.883479e+01
1.000000e-08	-5.520112e-06	-7.402967e-10	-3.838081e+01	-4.884242e+01
2.000000e-08	-5.520108e-06	-7.386578e-10	-3.838078e+01	-4.884627e+01
3.000000e-08	-5.519709e-06	-7.393240e-10	-3.837801e+01	-4.884619e+01
4.000000e-08	-5.518873e-06	-7.394165e-10	-3.837220e+01	-4.884207e+01
5.000000e-08	-5.517531e-06	-7.378411e-10	-3.836287e+01	-4.883383e+01
6.000000e-08	-5.515539e-06	-7.358503e-10	-3.834901e+01	-4.882138e+01
7.000000e-08	-5.512918e-06	-7.396877e-10	-3.833079e+01	-4.880468e+01
8.000000e-08	-5.509842e-06	-7.649193e-10	-3.830940e+01	-4.878371e+01
9.000000e-08	-5.506325e-06	-7.596644e-10	-3.828495e+01	-4.875847e+01
1.000000e-07	-5.502311e-06	-6.947098e-10	-3.825704e+01	-4.872901e+01
1.100000e-07	-5.497941e-06	-6.774626e-10	-3.822665e+01	-4.869537e+01
1.200000e-07	-5.493376e-06	-7.584196e-10	-3.819492e+01	-4.865766e+01
1.300000e-07	-5.488583e-06	-7.845863e-10	-3.816159e+01	-4.861597e+01
1.400000e-07	-5.483450e-06	-7.238479e-10	-3.812590e+01	-4.857045e+01
1.500000e-07	-5.477885e-06	-6.716089e-10	-3.808721e+01	-4.852127e+01
1.600000e-07	-5.471940e-06	-7.609115e-10	-3.804588e+01	-4.846862e+01
1.700000e-07	-5.465651e-06	-7.958244e-10	-3.800215e+01	-4.841270e+01
1.800000e-07	-5.458910e-06	-7.339811e-10	-3.795528e+01	-4.835377e+01
1.900000e-07	-5.451797e-06	-6.572379e-10	-3.790582e+01	-4.829207e+01
2.000000e-07	-5.444377e-06	-7.089490e-10	-3.785423e+01	-4.822788e+01
2.100000e-07	-5.436710e-06	-7.544000e-10	-3.780092e+01	-4.816149e+01
2.200000e-07	-5.428784e-06	-7.316278e-10	-3.774581e+01	-4.809321e+01
2.300000e-07	-5.420486e-06	-6.778611e-10	-3.768812e+01	-4.802336e+01
2.400000e-07	-5.411711e-06	-6.860883e-10	-3.762711e+01	-4.795226e+01
2.500000e-07	-5.402167e-06	-7.125697e-10	-3.756075e+01	-4.788025e+01
2.600000e-07	-5.391925e-06	-6.880050e-10	-3.748954e+01	-4.780767e+01
2.700000e-07	-5.381262e-06	-6.638847e-10	-3.741539e+01	-4.773485e+01
2.800000e-07	-5.370149e-06	-6.668671e-10	-3.733813e+01	-4.766215e+01
2.900000e-07	-5.358612e-06	-6.916301e-10	-3.725791e+01	-4.758989e+01
3.000000e-07	-5.346786e-06	-6.651769e-10	-3.717569e+01	-4.751840e+01
3.100000e-07	-5.334571e-06	-6.472925e-10	-3.709076e+01	-4.744800e+01
3.200000e-07	-5.321782e-06	-6.473879e-10	-3.700184e+01	-4.737901e+01
3.300000e-07	-5.308652e-06	-6.944033e-10	-3.691055e+01	-4.731171e+01
3.400000e-07	-5.295317e-06	-6.678586e-10	-3.681783e+01	-4.724639e+01
3.500000e-07	-5.281471e-06	-6.448568e-10	-3.672156e+01	-4.718330e+01
3.600000e-07	-5.267116e-06	-6.634369e-10	-3.662175e+01	-4.712267e+01
3.700000e-07	-5.252392e-06	-7.020436e-10	-3.651938e+01	-4.706473e+01
3.800000e-07	-5.237040e-06	-6.502550e-10	-3.641264e+01	-4.700967e+01
3.900000e-07	-5.220990e-06	-6.541497e-10	-3.630104e+01	-4.695764e+01
4.000000e-07	-5.204625e-06	-7.032805e-10	-3.618726e+01	-4.690878e+01
4.100000e-07	-5.188005e-06	-6.774417e-10	-3.607170e+01	-4.686321e+01
4.200000e-07	-5.171033e-06	-6.231473e-10	-3.595369e+01	-4.682099e+01
4.300000e-07	-5.153797e-06	-6.921935e-10	-3.583386e+01	-4.678219e+01
4.400000e-07	-5.136182e-06	-7.152179e-10	-3.571138e+01	-4.674682e+01
4.500000e-07	-5.118130e-06	-6.299274e-10	-3.558587e+01	-4.671487e+01
4.600000e-07	-5.099611e-06	-6.399777e-10	-3.545711e+01	-4.668629e+01
4.700000e-07	-5.080629e-06	-7.207340e-10	-3.532513e+01	-4.666102e+01
4.800000e-07	-5.061379e-06	-6.668188e-10	-3.519128e+01	-4.663897e+01
4.900000e-07	-5.041907e-06	-6.252367e-10	-3.505590e+01	-4.662000e+01
5.000000e-07	-5.022211e-06	-7.022473e-10	-3.491895e+01	-4.660396e+01
5.100000e-07	-5.002366e-06	-6.892144e-10	-3.478097e+01	-4.659068e+01
5.200000e-07	-4.982265e-06	-6.204335e-10	-3.464121e+01	-4.657995e+01
5.300000e-07	-4.961715e-06	-6.808574e-10	-3.449832e+01	-4.657156e+01
5.400000e-07	-4.940726e-06	-7.180413e-10	-3.435239e+01	-4.656525e+01
5.500000e-07	-4.919408e-06	-6.346941e-10	-3.420417e+01	-4.656078e+01
5.600000e-07	-4.897801e-06	-6.533068e-10	-3.405394e+01	-4.655787e+01
5.700000e-07	-4.875844e-06	-7.215281e-10	-3.390128e+01	-4.655622e+01
5.800000e-07	-4.853568e-06	-6.716441e-10	-3.374639e+01	-4.655555e+01
5.900000e-07	-4.831005e-06	-6.381546e-10	-3.358951e+01	-4.655553e+01
6.000000e-07	-4.808092e-06	-7.007308e-10	-3.343020e+01	-4.655587e+01
6.100000e-07	-4.784866e-06	-6.819562e-10	-3.326872e+01	-4.655625e+01
6.200000e-07	-4.761388e-06	-6.417286e-10	-3.310548e+01	-4.655634e+01
6.300000e-07	-4.737746e-06	-6.805342e-10	-3.294110e+01	-4.655584e+01
6.400000e-07	-4.713877e-06	-6.947520e-10	-3.277513e+01	-4.655443e+01
6.500000e-07	-4.689612e-06	-6.526071e-10	-3.260642e+01	-4.655181e+01
6.600000e-07	-4.664900e-06	-6.746862e-10	-3.243460e+01	-4.654767e+01
6.700000e-07	-4.639661e-06	-6.898846e-10	-3.225912e+01	-4.654175e+01
6.800000e-07	-4.613856e-06	-6.600418e-10	-3.207970e+01	-4.653375e+01
6.900000e-07	-4.587439e-06	-6.625827e-10	-3.189603e+01	-4.652343e+01
7.000000e-07	-4.560572e-06	-6.867436e-10	-3.170922e+01	-4.651054e+01
7.100000e-07	-4.533413e-06	-6.637353e-10	-3.152039e+01	-4.649484e+01
7.200000e-07	-4.505941e-06	-6.587895e-10	-3.132938e+01	-4.647615e+01
7.300000e-07	-4.478269e-06	-6.779360e-10	-3.113697e+01	-4.645425e+01
7.400000e-07	-4.450419e-06	-6.703774e-10	-3.094334e+01	-4.642899e+01
7.500000e-07	-4.422325e-06	-6.567870e-10	-3.074800e+01	-4.640022e+01
7.600000e-07	-4.393961e-06	-6.724805e-10	-3.055079e+01	-4.636781e+01
7.700000e-07	-4.365284e-06	-6.677126e-10	-3.035140e+01	-4.633166e+01
7.800000e-07	-4.336306e-06	-6.527337e-10	-3.014992e+01	-4.629168e+01
7.900000e-07	-4.307060e-06	-6.614444e-10	-2.994657e+01	-4.624781e+01
8.000000e-07	-4.277543e-06	-6.633128e-10	-2.974134e+01	-4.620000e+01
8.100000e-07	-4.247790e-06	-6.457032e-10	-2.953448e+01	-4.614825e+01
8.200000e-07	-4.217705e-06	-6.471115e-10	-2.932530e+01	-4.609253e+01
8.300000e-07	-4.187192e-06	-6.577031e-10	-2.911314e+01	-4.603288e+01
8.400000e-07	-4.156411e-06	-6.467644e-10	-2.889913e+01	-4.596932e+01
8.500000e-07	-4.125435e-06	-6.458496e-10	-2.868375e+01	-4.590190e+01
8.600000e-07	-4.094220e-06	-6.595171e-10	-2.846672e+01	-4.583069e+01
8.700000e-07	-4.062736e-06	-6.587161e-10	-2.824781e+01	-4.575577e+01
8.800000e-07	-4.031040e-06	-6.472816e-10	-2.802743e+01	-4.567722e+01
8.900000e-07	-3.999217e-06	-6.557612e-10	-2.780617e+01	-4.559514e+01
9.000000e-07	-3.967185e-06	-6.503078e-10	-2.758346e+01	-4.550965e+01
9.100000e-07	-3.934849e-06	-6.325692e-10	-2.735863e+01	-4.542086e+01
9.200000e-07	-3.902184e-06	-6.318358e-10	-2.713151e+01	-4.532889e+01
9.300000e-07	-3.869092e-06	-6.406933e-10	-2.690142e+01	-4.523386e+01
9.400000e-07	-3.835502e-06	-6.352135e-10	-2.666788e+01	-4.513590e+01
9.500000e-07	-3.801544e-06	-6.380930e-10	-2.643177e+01	-4.503514e+01
9.600000e-07	-3.767206e-06	-6.470551e-10	-2.619302e+01	-4.493170e+01
9.700000e-07	-3.732383e-06	-6.418399e-10	-2.595090e+01	-4.482570e+01
9.800000e-07	-3.697202e-06	-6.300111e-10	-2.570629e+01	-4.471726e+01
9.900000e-07	-3.661825e-06	-6.342521e-10	-2.546032e+01	-4.460650e+01
1.000000e-06	-3.626300e-06	-6.312544e-10	-2.521332e+01	-4.449351e+01
1.010000e-06	-3.590616e-06	-6.253225e-10	-2.496521e+01	-4.437839e+01
1.020000e-06	-3.554802e-06	-6.322485e-10	-2.471620e+01	-4.426124e+01
1.030000e-06	-3.518807e-06	-6.393360e-10	-2.446592e+01	-4.414213e+01
1.040000e-06	-3.482610e-06	-6.302465e-10	-2.421425e+01	-4.402112e+01
1.050000e-06	-3.446226e-06	-6.272929e-10	-2.396128e+01	-4.389827e+01
1.060000e-06	-3.409509e-06	-6.313118e-10	-2.370599e+01	-4.377362e+01
1.070000e-06	-3.372477e-06	-6.282187e-10	-2.344851e+01	-4.364721e+01
1.080000e-06	-3.335210e-06	-6.251999e-10	-2.318940e+01	-4.351905e+01
1.090000e-06	-3.297752e-06	-6.291582e-10	-2.292896e+01	-4.338915e+01
1.100000e-06	-3.260085e-06	-6.265216e-10	-2.266706e+01	-4.325749e+01
1.110000e-06	-3.222102e-06	-6.174651e-10	-2.240296e+01	-4.312406e+01
1.120000e-06	-3.183818e-06	-6.171533e-10	-2.213678e+01	-4.298882e+01
1.130000e-06	-3.145361e-06	-6.165361e-10	-2.186939e+01	-4.285174e+01
1.140000e-06	-3.106793e-06	-6.114195e-10	-2.160124e+01	-4.271274e+01
1.150000e-06	-3.068091e-06	-6.100422e-10	-2.133214e+01	-4.257176e+01
1.160000e-06	-3.029138e-06	-6.123244e-10	-2.106130e+01	-4.242872e+01
1.170000e-06	-2.989900e-06	-6.092641e-10	-2.078849e+01	-4.228353e+01
1.180000e-06	-2.950514e-06	-6.060734e-10	-2.051464e+01	-4.213609e+01
1.190000e-06	-2.911042e-06	-6.034499e-10	-2.024019e+01	-4.198628e+01
1.200000e-06	-2.871451e-06	-5.988863e-10	-1.996492e+01	-4.183399e+01
1.210000e-06	-2.831751e-06	-5.925060e-10	-1.968889e+01	-4.167909e+01
1.220000e-06	-2.791934e-06	-5.904098e-10	-1.941205e+01	-4.152145e+01
1.230000e-06	-2.751993e-06	-5.881645e-10	-1.913435e+01	-4.136093e+01
1.240000e-06	-2.711866e-06	-5.852809e-10	-1.885534e+01	-4.119737e+01
1.250000e-06	-2.671527e-06	-5.838695e-10	-1.857487e+01	-4.103063e+01
1.260000e-06	-2.630919e-06	-5.841595e-10	-1.829253e+01	-4.086055e+01
1.270000e-06	-2.590053e-06	-5.819156e-10	-1.800839e+01	-4.068697e+01
1.280000e-06	-2.548991e-06	-5.806558e-10	-1.772289e+01	-4.050972e+01
1.290000e-06	-2.507440e-06	-5.787411e-10	-1.743399e+01	-4.032863e+01
1.300000e-06	-2.465466e-06	-5.745240e-10	-1.714215e+01	-4.014352e+01
1.310000e-06	-2.423301e-06	-5.672831e-10	-1.684898e+01	-3.995424e+01
1.320000e-06	-2.380850e-06	-5.613602e-10	-1.655382e+01	-3.976059e+01
1.330000e-06	-2.338016e-06	-5.571737e-10	-1.625600e+01	-3.956239e+01
1.340000e-06	-2.294909e-06	-5.551103e-10	-1.595628e+01	-3.935947e+01
1.350000e-06	-2.251691e-06	-5.569969e-10	-1.565579e+01	-3.915163e+01
1.360000e-06	-2.208382e-06	-5.603260e-10	-1.535467e+01	-3.893869e+01
1.370000e-06	-2.164920e-06	-5.587032e-10	-1.505248e+01	-3.872046e+01
1.380000e-06	-2.121306e-06	-5.521450e-10	-1.474924e+01	-3.849674e+01
1.390000e-06	-2.077678e-06	-5.432293e-10	-1.444590e+01	-3.826735e+01
1.400000e-06	-2.034012e-06	-5.351254e-10	-1.414229e+01	-3.803207e+01
1.410000e-06	-1.990236e-06	-5.299040e-10	-1.383792e+01	-3.779071e+01
1.420000e-06	-1.946401e-06	-5.280097e-10	-1.353314e+01	-3.754307e+01
1.430000e-06	-1.902426e-06	-5.275936e-10	-1.322739e+01	-3.728893e+01
1.440000e-06	-1.858294e-06	-5.272907e-10	-1.292054e+01	-3.702809e+01
1.450000e-06	-1.814105e-06	-5.249367e-10	-1.261330e+01	-3.676033e+01
1.460000e-06	-1.769832e-06	-5.187976e-10	-1.230547e+01	-3.648543e+01
1.470000e-06	-1.725436e-06	-5.121713e-10	-1.199679e+01	-3.620316e+01
1.480000e-06	-1.680897e-06	-5.042221e-10	-1.168711e+01	-3.591331e+01
1.490000e-06	-1.636156e-06	-4.985908e-10	-1.137604e+01	-3.561564e+01
1.500000e-06	-1.591278e-06	-4.952805e-10	-1.106400e+01	-3.530992e+01
1.510000e-06	-1.546313e-06	-4.933511e-10	-1.075137e+01	-3.499590e+01
1.520000e-06	-1.501235e-06	-4.906639e-10	-1.043794e+01	-3.467336e+01
1.530000e-06	-1.456056e-06	-4.867467e-10	-1.012382e+01	-3.434204e+01
1.540000e-06	-1.410734e-06	-4.824148e-10	-9.808699e+00	-3.400170e+01
1.550000e-06	-1.365326e-06	-4.772596e-10	-9.492984e+00	-3.365210e+01
1.560000e-06	-1.319873e-06	-4.698072e-10	-9.176951e+00	-3.329298e+01
1.570000e-06	-1.274361e-06	-4.632710e-10	-8.860506e+00	-3.292410e+01
1.580000e-06	-1.228728e-06	-4.576523e-10	-8.543227e+00	-3.254520e+01
1.590000e-06	-1.182968e-06	-4.503865e-10	-8.225064e+00	-3.215604e+01
1.600000e-06	-1.137137e-06	-4.453950e-10	-7.906407e+00	-3.175638e+01
1.610000e-06	-1.091239e-06	-4.436200e-10	-7.587278e+00	-3.134598e+01
1.620000e-06	-1.045213e-06	-4.378989e-10	-7.267264e+00	-3.092459e+01
1.630000e-06	-9.990620e-07	-4.274806e-10	-6.946382e+00	-3.049200e+01
1.640000e-06	-9.528456e-07	-4.173294e-10	-6.625044e+00	-3.004797e+01
1.650000e-06	-9.065231e-07	-4.096942e-10	-6.302968e+00	-2.959229e+01
1.660000e-06	-8.601405e-07	-4.025482e-10	-5.980474e+00	-2.912476e+01
1.670000e-06	-8.137658e-07	-3.957147e-10	-5.658036e+00	-2.864520e+01
1.680000e-06	-7.673503e-07	-3.885120e-10	-5.335313e+00	-2.815341e+01
1.690000e-06	-7.209054e-07	-3.823371e-10	-5.012386e+00	-2.764924e+01
1.700000e-06	-6.744695e-07	-3.759914e-10	-4.689521e+00	-2.713254e+01
1.710000e-06	-6.279627e-07	-3.671912e-10	-4.366164e+00	-2.660318e+01
1.720000e-06	-5.813953e-07	-3.567895e-10	-4.042385e+00	-2.606106e+01
1.730000e-06	-5.348246e-07	-3.462610e-10	-3.718584e+00	-2.550608e+01
1.740000e-06	-4.882167e-07	-3.374014e-10	-3.394524e+00	-2.493818e+01
1.750000e-06	-4.416044e-07	-3.284678e-10	-3.070433e+00	-2.435731e+01
1.760000e-06	-3.949829e-07	-3.209596e-10	-2.746278e+00	-2.376346e+01
1.770000e-06	-3.483601e-07	-3.142073e-10	-2.422114e+00	-2.315663e+01
1.780000e-06	-3.017477e-07	-3.044037e-10	-2.098023e+00	-2.253686e+01
1.790000e-06	-2.551056e-07	-2.935330e-10	-1.773725e+00	-2.190422e+01
1.800000e-06	-2.084122e-07	-2.852147e-10	-1.449070e+00	-2.125878e+01
1.810000e-06	-1.615841e-07	-2.768451e-10	-1.123479e+00	-2.060068e+01
1.820000e-06	-1.146500e-07	-2.674432e-10	-7.971503e-01	-1.993006e+01
1.830000e-06	-6.775969e-08	-2.574012e-10	-4.711266e-01	-1.924710e+01
1.840000e-06	-2.094112e-08	-2.451973e-10	-1.456016e-01	-1.855201e+01
1.850000e-06	2.583317e-08	-2.322229e-10	1.796156e-01	-1.784504e+01
1.860000e-06	7.258128e-08	-2.222333e-10	5.046507e-01	-1.712644e+01
1.870000e-06	1.194422e-07	-2.128128e-10	8.304702e-01	-1.639652e+01
1.880000e-06	1.663498e-07	-2.037300e-10	1.156614e+00	-1.565561e+01
1.890000e-06	2.132311e-07	-1.954507e-10	1.482576e+00	-1.490407e+01
1.900000e-06	2.600476e-07	-1.873638e-10	1.808086e+00	-1.414227e+01
1.910000e-06	3.067631e-07	-1.782234e-10	2.132894e+00	-1.337063e+01
1.920000e-06	3.534725e-07	-1.651765e-10	2.457660e+00	-1.258958e+01
1.930000e-06	4.001982e-07	-1.493874e-10	2.782540e+00	-1.179959e+01
1.940000e-06	4.469017e-07	-1.347653e-10	3.107264e+00	-1.100113e+01
1.950000e-06	4.935213e-07	-1.203592e-10	3.431406e+00	-1.019471e+01
1.960000e-06	5.400860e-07	-1.083154e-10	3.755166e+00	-9.380856e+00
1.970000e-06	5.865640e-07	-1.010233e-10	4.078323e+00	-8.560106e+00
1.980000e-06	6.329963e-07	-9.183178e-11	4.401163e+00	-7.733017e+00
1.990000e-06	6.794072e-07	-8.066852e-11	4.723853e+00	-6.900160e+00
2.000000e-06	7.257429e-07	-6.740414e-11	5.046021e+00	-6.062119e+00
2.010000e-06	7.720057e-07	-5.293574e-11	5.367682e+00	-5.219487e+00
2.020000e-06	8.182248e-07	-4.168735e-11	5.689038e+00	-4.372865e+00
2.030000e-06	8.644099e-07	-2.921108e-11	6.010159e+00	-3.522860e+00
2.040000e-06	9.104604e-07	-1.290223e-11	6.330344e+00	-2.670085e+00
2.050000e-06	9.564604e-07	8.404798e-13	6.650177e+00	-1.815153e+00
2.060000e-06	1.002509e-06	1.235489e-11	6.970349e+00	-9.586782e-01
2.070000e-06	1.048436e-06	2.208222e-11	7.289672e+00	-1.012718e-01
2.080000e-06	1.094221e-06	3.009072e-11	7.608011e+00	7.564577e-01
2.090000e-06	1.139956e-06	3.851954e-11	7.926006e+00	1.613907e+00
2.100000e-06	1.185652e-06	5.097239e-11	8.243728e+00	2.470482e+00
2.110000e-06	1.231292e-06	6.663051e-11	8.561054e+00	3.325595e+00
2.120000e-06	1.276855e-06	8.204384e-11	8.877847e+00	4.178670e+00
2.130000e-06	1.322369e-06	9.537198e-11	9.194304e+00	5.029142e+00
2.140000e-06	1.367789e-06	1.077412e-10	9.510105e+00	5.876461e+00
2.150000e-06	1.413021e-06	1.155691e-10	9.824596e+00	6.720090e+00
2.160000e-06	1.458157e-06	1.200941e-10	1.013842e+01	7.559506e+00
2.170000e-06	1.503322e-06	1.295823e-10	1.045245e+01	8.394206e+00
2.180000e-06	1.548460e-06	1.418603e-10	1.076629e+01	9.223700e+00
2.190000e-06	1.593432e-06	1.558183e-10	1.107898e+01	1.004752e+01
2.200000e-06	1.638237e-06	1.688786e-10	1.139051e+01	1.086521e+01
2.210000e-06	1.682937e-06	1.806061e-10	1.170130e+01	1.167635e+01
2.220000e-06	1.727368e-06	1.896062e-10	1.201022e+01	1.248051e+01
2.230000e-06	1.771574e-06	1.964932e-10	1.231758e+01	1.327730e+01
2.240000e-06	1.815712e-06	2.049980e-10	1.262447e+01	1.406636e+01
2.250000e-06	1.859826e-06	2.155519e-10	1.293119e+01	1.484732e+01
2.260000e-06	1.903869e-06	2.288377e-10	1.323742e+01	1.561985e+01
2.270000e-06	1.947755e-06	2.419232e-10	1.354255e+01	1.638364e+01
2.280000e-06	1.991592e-06	2.518975e-10	1.384735e+01	1.713838e+01
2.290000e-06	2.035342e-06	2.619440e-10	1.415154e+01	1.788381e+01
2.300000e-06	2.078964e-06	2.705189e-10	1.445484e+01	1.861966e+01
2.310000e-06	2.122557e-06	2.759575e-10	1.475793e+01	1.934569e+01
2.320000e-06	2.166082e-06	2.830072e-10	1.506056e+01	2.006168e+01
2.330000e-06	2.209510e-06	2.930969e-10	1.536251e+01	2.076742e+01
2.340000e-06	2.252807e-06	3.042377e-10	1.566355e+01	2.146273e+01
2.350000e-06	2.295896e-06	3.142861e-10	1.596315e+01	2.214743e+01
2.360000e-06	2.338829e-06	3.229349e-10	1.626166e+01	2.282136e+01
2.370000e-06	2.381566e-06	3.293482e-10	1.655880e+01	2.348439e+01
2.380000e-06	2.424033e-06	3.334672e-10	1.685407e+01	2.413639e+01
2.390000e-06	2.466211e-06	3.392241e-10	1.714733e+01	2.477725e+01
2.400000e-06	2.508004e-06	3.476882e-10	1.743791e+01	2.540686e+01
2.410000e-06	2.549459e-06	3.582830e-10	1.772614e+01	2.602514e+01
2.420000e-06	2.590587e-06	3.696993e-10	1.801211e+01	2.663202e+01
2.430000e-06	2.631413e-06	3.818650e-10	1.829596e+01	2.722745e+01
2.440000e-06	2.672046e-06	3.917354e-10	1.857848e+01	2.781137e+01
2.450000e-06	2.712507e-06	3.974917e-10	1.885980e+01	2.838375e+01
2.460000e-06	2.752732e-06	4.026020e-10	1.913948e+01	2.894457e+01
2.470000e-06	2.792756e-06	4.074090e-10	1.941777e+01	2.949382e+01
2.480000e-06	2.832644e-06	4.142923e-10	1.969510e+01	3.003150e+01
2.490000e-06	2.872425e-06	4.227412e-10	1.997169e+01	3.055762e+01
2.500000e-06	2.912061e-06	4.320925e-10	2.024728e+01	3.107220e+01
2.510000e-06	2.951484e-06	4.408132e-10	2.052138e+01	3.157529e+01
2.520000e-06	2.990746e-06	4.478056e-10	2.079437e+01	3.206691e+01
2.530000e-06	3.029857e-06	4.544379e-10	2.106631e+01	3.254715e+01
2.540000e-06	3.068857e-06	4.610714e-10	2.133746e+01	3.301605e+01
2.550000e-06	3.107666e-06	4.678657e-10	2.160731e+01	3.347369e+01
2.560000e-06	3.146196e-06	4.712208e-10	2.187520e+01	3.392018e+01
2.570000e-06	3.184477e-06	4.739502e-10	2.214137e+01	3.435560e+01
2.580000e-06	3.222565e-06	4.798137e-10	2.240619e+01	3.478007e+01
2.590000e-06	3.260390e-06	4.865265e-10	2.266918e+01	3.519371e+01
2.600000e-06	3.297948e-06	4.924460e-10	2.293032e+01	3.559664e+01
2.610000e-06	3.335326e-06	4.976607e-10	2.319020e+01	3.598902e+01
2.620000e-06	3.372465e-06	5.030181e-10	2.344843e+01	3.637098e+01
2.630000e-06	3.409349e-06	5.087640e-10	2.370487e+01	3.674270e+01
2.640000e-06	3.445974e-06	5.135226e-10	2.395953e+01	3.710433e+01
2.650000e-06	3.482326e-06	5.179567e-10	2.421228e+01	3.745606e+01
2.660000e-06	3.518431e-06	5.243898e-10	2.446331e+01	3.779808e+01
2.670000e-06	3.554348e-06	5.297232e-10	2.471304e+01	3.813056e+01
2.680000e-06	3.590072e-06	5.351891e-10	2.496143e+01	3.845373e+01
2.690000e-06	3.625675e-06	5.394334e-10	2.520897e+01	3.876778e+01
2.700000e-06	3.661210e-06	5.409089e-10	2.545604e+01	3.907292e+01
2.710000e-06	3.696560e-06	5.438987e-10	2.570183e+01	3.936937e+01
2.720000e-06	3.731664e-06	5.465045e-10	2.594590e+01	3.965736e+01
2.730000e-06	3.766533e-06	5.489891e-10	2.618834e+01	3.993711e+01
2.740000e-06	3.801016e-06	5.526791e-10	2.642810e+01	4.020885e+01
2.750000e-06	3.835010e-06	5.591716e-10	2.666445e+01	4.047279e+01
2.760000e-06	3.868560e-06	5.657902e-10	2.689772e+01	4.072919e+01
2.770000e-06	3.901611e-06	5.709688e-10	2.712753e+01	4.097826e+01
2.780000e-06	3.934203e-06	5.748606e-10	2.735414e+01	4.122023e+01
2.790000e-06	3.966440e-06	5.772753e-10	2.757827e+01	4.145532e+01
2.800000e-06	3.998402e-06	5.767662e-10	2.780050e+01	4.168377e+01
2.810000e-06	4.030162e-06	5.755424e-10	2.802133e+01	4.190578e+01
2.820000e-06	4.061743e-06	5.760788e-10	2.824091e+01	4.212158e+01
2.830000e-06	4.093159e-06	5.803792e-10	2.845934e+01	4.233137e+01
2.840000e-06	4.124412e-06	5.882980e-10	2.867664e+01	4.253534e+01
2.850000e-06	4.155434e-06	5.953089e-10	2.889233e+01	4.273371e+01
2.860000e-06	4.186120e-06	6.008386e-10	2.910569e+01	4.292664e+01
2.870000e-06	4.216483e-06	6.034498e-10	2.931680e+01	4.311432e+01
2.880000e-06	4.246543e-06	6.013627e-10	2.952581e+01	4.329691e+01
2.890000e-06	4.276350e-06	5.967334e-10	2.973305e+01	4.347458e+01
2.900000e-06	4.305876e-06	5.945959e-10	2.993835e+01	4.364747e+01
