# Temperatura_=_-0.4
# Concentracion g/m^3_=_1620.0
# C_Vs_to_Am_M_A/Vsm_=_65563218390.804596
# pendiente_HvsI_1/m_=_3716.3
# ordenada_HvsI_A/m_=_1297.0
# frecuencia_Hz_=_135090.8153998565

Tiempo_(s)	Campo_(V.s)	Magnetizacion_(V.s)	Campo_(kA/m)	Magnetizacion_(A/m)
0.000000e+00	-5.524122e-06	-1.654096e-09	-3.838412e+01	-1.075801e+02
1.000000e-08	-5.524421e-06	-1.651837e-09	-3.838620e+01	-1.075402e+02
2.000000e-08	-5.524513e-06	-1.647959e-09	-3.838683e+01	-1.074973e+02
3.000000e-08	-5.524288e-06	-1.647968e-09	-3.838527e+01	-1.074514e+02
4.000000e-08	-5.523596e-06	-1.647227e-09	-3.838046e+01	-1.074027e+02
5.000000e-08	-5.522218e-06	-1.646371e-09	-3.837088e+01	-1.073513e+02
6.000000e-08	-5.520191e-06	-1.644863e-09	-3.835681e+01	-1.072972e+02
7.000000e-08	-5.517652e-06	-1.640069e-09	-3.833916e+01	-1.072405e+02
8.000000e-08	-5.514524e-06	-1.660711e-09	-3.831742e+01	-1.071813e+02
9.000000e-08	-5.510928e-06	-1.679833e-09	-3.829244e+01	-1.071196e+02
1.000000e-07	-5.507003e-06	-1.639779e-09	-3.826517e+01	-1.070556e+02
1.100000e-07	-5.502753e-06	-1.624634e-09	-3.823564e+01	-1.069892e+02
1.200000e-07	-5.498312e-06	-1.649522e-09	-3.820478e+01	-1.069205e+02
1.300000e-07	-5.493587e-06	-1.652036e-09	-3.817194e+01	-1.068495e+02
1.400000e-07	-5.488456e-06	-1.638064e-09	-3.813629e+01	-1.067763e+02
1.500000e-07	-5.482984e-06	-1.606865e-09	-3.809827e+01	-1.067009e+02
1.600000e-07	-5.477170e-06	-1.681359e-09	-3.805788e+01	-1.066232e+02
1.700000e-07	-5.470975e-06	-1.680607e-09	-3.801483e+01	-1.065433e+02
1.800000e-07	-5.464363e-06	-1.614783e-09	-3.796888e+01	-1.064611e+02
1.900000e-07	-5.457240e-06	-1.561928e-09	-3.791939e+01	-1.063767e+02
2.000000e-07	-5.449749e-06	-1.603887e-09	-3.786734e+01	-1.062898e+02
2.100000e-07	-5.442066e-06	-1.646107e-09	-3.781395e+01	-1.062006e+02
2.200000e-07	-5.434167e-06	-1.620044e-09	-3.775907e+01	-1.061090e+02
2.300000e-07	-5.426036e-06	-1.596072e-09	-3.770257e+01	-1.060148e+02
2.400000e-07	-5.417523e-06	-1.592814e-09	-3.764342e+01	-1.059179e+02
2.500000e-07	-5.408353e-06	-1.591239e-09	-3.757970e+01	-1.058184e+02
2.600000e-07	-5.398404e-06	-1.565607e-09	-3.751057e+01	-1.057160e+02
2.700000e-07	-5.387867e-06	-1.586773e-09	-3.743736e+01	-1.056107e+02
2.800000e-07	-5.376869e-06	-1.597126e-09	-3.736093e+01	-1.055024e+02
2.900000e-07	-5.365418e-06	-1.596506e-09	-3.728137e+01	-1.053909e+02
3.000000e-07	-5.353584e-06	-1.571796e-09	-3.719914e+01	-1.052760e+02
3.100000e-07	-5.341376e-06	-1.588279e-09	-3.711431e+01	-1.051577e+02
3.200000e-07	-5.328744e-06	-1.579222e-09	-3.702654e+01	-1.050358e+02
3.300000e-07	-5.315645e-06	-1.579521e-09	-3.693552e+01	-1.049102e+02
3.400000e-07	-5.302125e-06	-1.568506e-09	-3.684158e+01	-1.047807e+02
3.500000e-07	-5.288296e-06	-1.569823e-09	-3.674549e+01	-1.046471e+02
3.600000e-07	-5.274055e-06	-1.575095e-09	-3.664654e+01	-1.045094e+02
3.700000e-07	-5.259391e-06	-1.584260e-09	-3.654464e+01	-1.043674e+02
3.800000e-07	-5.244221e-06	-1.555055e-09	-3.643924e+01	-1.042209e+02
3.900000e-07	-5.228408e-06	-1.548297e-09	-3.632936e+01	-1.040699e+02
4.000000e-07	-5.212165e-06	-1.563578e-09	-3.621650e+01	-1.039142e+02
4.100000e-07	-5.195627e-06	-1.555143e-09	-3.610158e+01	-1.037537e+02
4.200000e-07	-5.178728e-06	-1.533431e-09	-3.598416e+01	-1.035882e+02
4.300000e-07	-5.161462e-06	-1.560285e-09	-3.586419e+01	-1.034177e+02
4.400000e-07	-5.143964e-06	-1.562426e-09	-3.574261e+01	-1.032421e+02
4.500000e-07	-5.126146e-06	-1.512759e-09	-3.561880e+01	-1.030614e+02
4.600000e-07	-5.107757e-06	-1.519577e-09	-3.549103e+01	-1.028754e+02
4.700000e-07	-5.088914e-06	-1.552669e-09	-3.536009e+01	-1.026841e+02
4.800000e-07	-5.069721e-06	-1.526021e-09	-3.522673e+01	-1.024874e+02
4.900000e-07	-5.050213e-06	-1.509940e-09	-3.509118e+01	-1.022854e+02
5.000000e-07	-5.030498e-06	-1.553345e-09	-3.495419e+01	-1.020781e+02
5.100000e-07	-5.010618e-06	-1.529611e-09	-3.481605e+01	-1.018653e+02
5.200000e-07	-4.990511e-06	-1.491229e-09	-3.467635e+01	-1.016472e+02
5.300000e-07	-4.970042e-06	-1.517080e-09	-3.453412e+01	-1.014238e+02
5.400000e-07	-4.949193e-06	-1.524767e-09	-3.438925e+01	-1.011951e+02
5.500000e-07	-4.927958e-06	-1.470531e-09	-3.424170e+01	-1.009612e+02
5.600000e-07	-4.906400e-06	-1.493660e-09	-3.409190e+01	-1.007221e+02
5.700000e-07	-4.884557e-06	-1.528377e-09	-3.394013e+01	-1.004779e+02
5.800000e-07	-4.862384e-06	-1.492337e-09	-3.378606e+01	-1.002287e+02
5.900000e-07	-4.839770e-06	-1.474086e-09	-3.362893e+01	-9.997462e+01
6.000000e-07	-4.816754e-06	-1.507037e-09	-3.346900e+01	-9.971572e+01
6.100000e-07	-4.793440e-06	-1.486342e-09	-3.330701e+01	-9.945212e+01
6.200000e-07	-4.769898e-06	-1.462279e-09	-3.314343e+01	-9.918394e+01
6.300000e-07	-4.746212e-06	-1.485245e-09	-3.297884e+01	-9.891129e+01
6.400000e-07	-4.722326e-06	-1.489347e-09	-3.281287e+01	-9.863429e+01
6.500000e-07	-4.698123e-06	-1.461081e-09	-3.264470e+01	-9.835305e+01
6.600000e-07	-4.673564e-06	-1.472549e-09	-3.247405e+01	-9.806770e+01
6.700000e-07	-4.648515e-06	-1.476062e-09	-3.230000e+01	-9.777835e+01
6.800000e-07	-4.622739e-06	-1.454412e-09	-3.212089e+01	-9.748511e+01
6.900000e-07	-4.596302e-06	-1.446182e-09	-3.193720e+01	-9.718808e+01
7.000000e-07	-4.569396e-06	-1.451940e-09	-3.175024e+01	-9.688736e+01
7.100000e-07	-4.542127e-06	-1.438331e-09	-3.156077e+01	-9.658304e+01
7.200000e-07	-4.514623e-06	-1.424106e-09	-3.136966e+01	-9.627520e+01
7.300000e-07	-4.486956e-06	-1.428208e-09	-3.117742e+01	-9.596389e+01
7.400000e-07	-4.459137e-06	-1.426546e-09	-3.098412e+01	-9.564918e+01
7.500000e-07	-4.431084e-06	-1.417505e-09	-3.078919e+01	-9.533111e+01
7.600000e-07	-4.402840e-06	-1.415305e-09	-3.059294e+01	-9.500970e+01
7.700000e-07	-4.374281e-06	-1.413801e-09	-3.039450e+01	-9.468496e+01
7.800000e-07	-4.345299e-06	-1.401050e-09	-3.019311e+01	-9.435689e+01
7.900000e-07	-4.316012e-06	-1.391958e-09	-2.998962e+01	-9.402547e+01
8.000000e-07	-4.286453e-06	-1.384771e-09	-2.978423e+01	-9.369066e+01
8.100000e-07	-4.256633e-06	-1.374957e-09	-2.957702e+01	-9.335241e+01
8.200000e-07	-4.226591e-06	-1.363102e-09	-2.936828e+01	-9.301065e+01
8.300000e-07	-4.196309e-06	-1.362717e-09	-2.915786e+01	-9.266530e+01
8.400000e-07	-4.165590e-06	-1.357103e-09	-2.894442e+01	-9.231625e+01
8.500000e-07	-4.134441e-06	-1.352537e-09	-2.872798e+01	-9.196339e+01
8.600000e-07	-4.103090e-06	-1.352151e-09	-2.851014e+01	-9.160660e+01
8.700000e-07	-4.071619e-06	-1.346869e-09	-2.829147e+01	-9.124572e+01
8.800000e-07	-4.040016e-06	-1.331381e-09	-2.807187e+01	-9.088061e+01
8.900000e-07	-4.008288e-06	-1.326039e-09	-2.785141e+01	-9.051111e+01
9.000000e-07	-3.976378e-06	-1.320163e-09	-2.762969e+01	-9.013705e+01
9.100000e-07	-3.944166e-06	-1.310153e-09	-2.740586e+01	-8.975824e+01
9.200000e-07	-3.911557e-06	-1.303414e-09	-2.717928e+01	-8.937450e+01
9.300000e-07	-3.878459e-06	-1.302773e-09	-2.694930e+01	-8.898565e+01
9.400000e-07	-3.844926e-06	-1.294931e-09	-2.671630e+01	-8.859149e+01
9.500000e-07	-3.811003e-06	-1.286457e-09	-2.648058e+01	-8.819184e+01
9.600000e-07	-3.776577e-06	-1.281006e-09	-2.624138e+01	-8.778650e+01
9.700000e-07	-3.741660e-06	-1.271809e-09	-2.599876e+01	-8.737530e+01
9.800000e-07	-3.706425e-06	-1.262768e-09	-2.575393e+01	-8.695804e+01
9.900000e-07	-3.670974e-06	-1.261298e-09	-2.550760e+01	-8.653457e+01
1.000000e-06	-3.635353e-06	-1.256475e-09	-2.526009e+01	-8.610471e+01
1.010000e-06	-3.599689e-06	-1.247877e-09	-2.501228e+01	-8.566831e+01
1.020000e-06	-3.563942e-06	-1.243622e-09	-2.476389e+01	-8.522524e+01
1.030000e-06	-3.527999e-06	-1.238384e-09	-2.451415e+01	-8.477536e+01
1.040000e-06	-3.491802e-06	-1.227135e-09	-2.426263e+01	-8.431856e+01
1.050000e-06	-3.455334e-06	-1.220705e-09	-2.400924e+01	-8.385475e+01
1.060000e-06	-3.418629e-06	-1.220074e-09	-2.375419e+01	-8.338384e+01
1.070000e-06	-3.381731e-06	-1.213133e-09	-2.349781e+01	-8.290577e+01
1.080000e-06	-3.344536e-06	-1.201846e-09	-2.323936e+01	-8.242050e+01
1.090000e-06	-3.306995e-06	-1.193453e-09	-2.297851e+01	-8.192798e+01
1.100000e-06	-3.269196e-06	-1.185229e-09	-2.271586e+01	-8.142823e+01
1.110000e-06	-3.231186e-06	-1.172421e-09	-2.245175e+01	-8.092123e+01
1.120000e-06	-3.193030e-06	-1.165089e-09	-2.218663e+01	-8.040702e+01
1.130000e-06	-3.154685e-06	-1.159178e-09	-2.192019e+01	-7.988563e+01
1.140000e-06	-3.116100e-06	-1.150306e-09	-2.165208e+01	-7.935712e+01
1.150000e-06	-3.077249e-06	-1.141725e-09	-2.138213e+01	-7.882156e+01
1.160000e-06	-3.038172e-06	-1.137118e-09	-2.111060e+01	-7.827904e+01
1.170000e-06	-2.998868e-06	-1.128196e-09	-2.083750e+01	-7.772964e+01
1.180000e-06	-2.959450e-06	-1.117148e-09	-2.056361e+01	-7.717347e+01
1.190000e-06	-2.919932e-06	-1.108791e-09	-2.028902e+01	-7.661063e+01
1.200000e-06	-2.880252e-06	-1.101972e-09	-2.001331e+01	-7.604125e+01
1.210000e-06	-2.840469e-06	-1.091583e-09	-1.973687e+01	-7.546543e+01
1.220000e-06	-2.800534e-06	-1.081505e-09	-1.945939e+01	-7.488329e+01
1.230000e-06	-2.760504e-06	-1.071090e-09	-1.918124e+01	-7.429496e+01
1.240000e-06	-2.720253e-06	-1.058617e-09	-1.890156e+01	-7.370052e+01
1.250000e-06	-2.679697e-06	-1.046927e-09	-1.861976e+01	-7.310009e+01
1.260000e-06	-2.638976e-06	-1.039042e-09	-1.833681e+01	-7.249376e+01
1.270000e-06	-2.597905e-06	-1.031378e-09	-1.805142e+01	-7.188158e+01
1.280000e-06	-2.556413e-06	-1.024909e-09	-1.776312e+01	-7.126363e+01
1.290000e-06	-2.514706e-06	-1.019887e-09	-1.747333e+01	-7.063994e+01
1.300000e-06	-2.472779e-06	-1.013293e-09	-1.718200e+01	-7.001052e+01
1.310000e-06	-2.430528e-06	-9.990319e-10	-1.688842e+01	-6.937536e+01
1.320000e-06	-2.387880e-06	-9.821087e-10	-1.659208e+01	-6.873442e+01
1.330000e-06	-2.345027e-06	-9.674316e-10	-1.629432e+01	-6.808764e+01
1.340000e-06	-2.302065e-06	-9.540663e-10	-1.599580e+01	-6.743492e+01
1.350000e-06	-2.258870e-06	-9.450868e-10	-1.569566e+01	-6.677611e+01
1.360000e-06	-2.215466e-06	-9.399338e-10	-1.539407e+01	-6.611106e+01
1.370000e-06	-2.171925e-06	-9.336533e-10	-1.509152e+01	-6.543955e+01
1.380000e-06	-2.128356e-06	-9.221388e-10	-1.478879e+01	-6.476134e+01
1.390000e-06	-2.084772e-06	-9.053303e-10	-1.448595e+01	-6.407614e+01
1.400000e-06	-2.041099e-06	-8.865737e-10	-1.418249e+01	-6.338363e+01
1.410000e-06	-1.997275e-06	-8.711587e-10	-1.387798e+01	-6.268346e+01
1.420000e-06	-1.953325e-06	-8.581303e-10	-1.357259e+01	-6.197522e+01
1.430000e-06	-1.909350e-06	-8.497608e-10	-1.326703e+01	-6.125846e+01
1.440000e-06	-1.865328e-06	-8.418824e-10	-1.296115e+01	-6.053272e+01
1.450000e-06	-1.821184e-06	-8.329204e-10	-1.265442e+01	-5.979749e+01
1.460000e-06	-1.776918e-06	-8.222173e-10	-1.234684e+01	-5.905220e+01
1.470000e-06	-1.732518e-06	-8.083651e-10	-1.203832e+01	-5.829628e+01
1.480000e-06	-1.687912e-06	-7.898791e-10	-1.172838e+01	-5.752913e+01
1.490000e-06	-1.643196e-06	-7.723682e-10	-1.141767e+01	-5.675010e+01
1.500000e-06	-1.598447e-06	-7.594446e-10	-1.110674e+01	-5.595853e+01
1.510000e-06	-1.553508e-06	-7.506155e-10	-1.079448e+01	-5.515375e+01
1.520000e-06	-1.508374e-06	-7.412117e-10	-1.048087e+01	-5.433504e+01
1.530000e-06	-1.463125e-06	-7.286256e-10	-1.016646e+01	-5.350169e+01
1.540000e-06	-1.417858e-06	-7.140893e-10	-9.851926e+00	-5.265299e+01
1.550000e-06	-1.372469e-06	-7.005109e-10	-9.536538e+00	-5.178819e+01
1.560000e-06	-1.326948e-06	-6.868841e-10	-9.220243e+00	-5.090659e+01
1.570000e-06	-1.281427e-06	-6.721299e-10	-8.903937e+00	-5.000744e+01
1.580000e-06	-1.235774e-06	-6.567892e-10	-8.586724e+00	-4.909003e+01
1.590000e-06	-1.190085e-06	-6.397982e-10	-8.269256e+00	-4.815366e+01
1.600000e-06	-1.144306e-06	-6.234592e-10	-7.951163e+00	-4.719764e+01
1.610000e-06	-1.098389e-06	-6.089068e-10	-7.632105e+00	-4.622132e+01
1.620000e-06	-1.052435e-06	-5.949870e-10	-7.312800e+00	-4.522406e+01
1.630000e-06	-1.006372e-06	-5.807978e-10	-6.992732e+00	-4.420527e+01
1.640000e-06	-9.601548e-07	-5.650795e-10	-6.671593e+00	-4.316437e+01
1.650000e-06	-9.138585e-07	-5.475641e-10	-6.349905e+00	-4.210086e+01
1.660000e-06	-8.675640e-07	-5.300037e-10	-6.028230e+00	-4.101425e+01
1.670000e-06	-8.212678e-07	-5.145321e-10	-5.706543e+00	-3.990413e+01
1.680000e-06	-7.749128e-07	-4.995268e-10	-5.384447e+00	-3.877013e+01
1.690000e-06	-7.284496e-07	-4.830014e-10	-5.061600e+00	-3.761194e+01
1.700000e-06	-6.818824e-07	-4.648341e-10	-4.738029e+00	-3.642932e+01
1.710000e-06	-6.352430e-07	-4.458943e-10	-4.413958e+00	-3.522208e+01
1.720000e-06	-5.886320e-07	-4.271025e-10	-4.090084e+00	-3.399011e+01
1.730000e-06	-5.419905e-07	-4.074156e-10	-3.765997e+00	-3.273337e+01
1.740000e-06	-4.952748e-07	-3.876797e-10	-3.441395e+00	-3.145189e+01
1.750000e-06	-4.485727e-07	-3.670168e-10	-3.116887e+00	-3.014577e+01
1.760000e-06	-4.018547e-07	-3.474322e-10	-2.792270e+00	-2.881518e+01
1.770000e-06	-3.550345e-07	-3.299635e-10	-2.466942e+00	-2.746039e+01
1.780000e-06	-3.081277e-07	-3.107857e-10	-2.141012e+00	-2.608172e+01
1.790000e-06	-2.612846e-07	-2.912206e-10	-1.815524e+00	-2.467957e+01
1.800000e-06	-2.144013e-07	-2.739205e-10	-1.489758e+00	-2.325443e+01
1.810000e-06	-1.674974e-07	-2.539568e-10	-1.163848e+00	-2.180686e+01
1.820000e-06	-1.207108e-07	-2.316238e-10	-8.387539e-01	-2.033749e+01
1.830000e-06	-7.386909e-08	-2.081954e-10	-5.132761e-01	-1.884701e+01
1.840000e-06	-2.701060e-08	-1.852006e-10	-1.876819e-01	-1.733619e+01
1.850000e-06	1.983002e-08	-1.634659e-10	1.377880e-01	-1.580588e+01
1.860000e-06	6.675373e-08	-1.444189e-10	4.638353e-01	-1.425698e+01
1.870000e-06	1.136471e-07	-1.233542e-10	7.896719e-01	-1.269045e+01
1.880000e-06	1.604672e-07	-1.005169e-10	1.114999e+00	-1.110731e+01
1.890000e-06	2.072620e-07	-8.009436e-11	1.440151e+00	-9.508633e+00
1.900000e-06	2.540405e-07	-5.936577e-11	1.765189e+00	-7.895548e+00
1.910000e-06	3.009077e-07	-3.822019e-11	2.090844e+00	-6.269222e+00
1.920000e-06	3.478136e-07	-1.576533e-11	2.416767e+00	-4.630867e+00
1.930000e-06	3.946226e-07	9.314292e-12	2.742018e+00	-2.981729e+00
1.940000e-06	4.413789e-07	3.549841e-11	3.066902e+00	-1.323088e+00
1.950000e-06	4.880275e-07	6.060745e-11	3.391037e+00	3.437519e-01
1.960000e-06	5.346661e-07	8.310852e-11	3.715104e+00	2.017463e+00
1.970000e-06	5.813133e-07	1.048797e-10	4.039230e+00	3.696703e+00
1.980000e-06	6.279164e-07	1.278763e-10	4.363049e+00	5.380116e+00
1.990000e-06	6.744726e-07	1.490874e-10	4.686543e+00	7.066340e+00
2.000000e-06	7.208763e-07	1.684990e-10	5.008977e+00	8.754011e+00
2.010000e-06	7.671812e-07	1.925741e-10	5.330725e+00	1.044177e+01
2.020000e-06	8.133917e-07	2.177915e-10	5.651816e+00	1.212827e+01
2.030000e-06	8.595343e-07	2.426953e-10	5.972436e+00	1.381216e+01
2.040000e-06	9.056657e-07	2.694305e-10	6.292978e+00	1.549213e+01
2.050000e-06	9.518102e-07	2.931963e-10	6.613611e+00	1.716687e+01
2.060000e-06	9.979409e-07	3.163356e-10	6.934148e+00	1.883512e+01
2.070000e-06	1.043942e-06	3.387223e-10	7.253786e+00	2.049562e+01
2.080000e-06	1.089845e-06	3.605958e-10	7.572737e+00	2.214716e+01
2.090000e-06	1.135749e-06	3.821930e-10	7.891704e+00	2.378858e+01
2.100000e-06	1.181547e-06	4.071467e-10	8.209925e+00	2.541873e+01
2.110000e-06	1.227272e-06	4.335517e-10	8.527648e+00	2.703653e+01
2.120000e-06	1.272928e-06	4.570363e-10	8.844886e+00	2.864092e+01
2.130000e-06	1.318364e-06	4.787911e-10	9.160592e+00	3.023091e+01
2.140000e-06	1.363697e-06	5.005263e-10	9.475590e+00	3.180555e+01
2.150000e-06	1.408966e-06	5.204616e-10	9.790139e+00	3.336394e+01
2.160000e-06	1.454153e-06	5.401582e-10	1.010411e+01	3.490524e+01
2.170000e-06	1.499308e-06	5.614461e-10	1.041788e+01	3.642866e+01
2.180000e-06	1.544401e-06	5.822954e-10	1.073120e+01	3.793345e+01
2.190000e-06	1.589338e-06	6.042555e-10	1.104344e+01	3.941894e+01
2.200000e-06	1.634117e-06	6.283808e-10	1.135459e+01	4.088450e+01
2.210000e-06	1.678810e-06	6.501711e-10	1.166514e+01	4.232957e+01
2.220000e-06	1.723293e-06	6.679080e-10	1.197422e+01	4.375363e+01
2.230000e-06	1.767622e-06	6.834789e-10	1.228224e+01	4.515622e+01
2.240000e-06	1.811868e-06	6.993471e-10	1.258969e+01	4.653694e+01
2.250000e-06	1.855961e-06	7.160467e-10	1.289606e+01	4.789543e+01
2.260000e-06	1.899919e-06	7.346842e-10	1.320150e+01	4.923140e+01
2.270000e-06	1.943800e-06	7.546686e-10	1.350641e+01	5.054459e+01
2.280000e-06	1.987644e-06	7.725205e-10	1.381105e+01	5.183482e+01
2.290000e-06	2.031379e-06	7.889507e-10	1.411495e+01	5.310193e+01
2.300000e-06	2.074997e-06	8.047746e-10	1.441802e+01	5.434581e+01
2.310000e-06	2.118556e-06	8.182960e-10	1.472069e+01	5.556642e+01
2.320000e-06	2.162102e-06	8.324519e-10	1.502327e+01	5.676373e+01
2.330000e-06	2.205582e-06	8.506613e-10	1.532539e+01	5.793776e+01
2.340000e-06	2.248954e-06	8.687712e-10	1.562676e+01	5.908859e+01
2.350000e-06	2.292164e-06	8.846613e-10	1.592700e+01	6.021630e+01
2.360000e-06	2.335230e-06	8.996717e-10	1.622624e+01	6.132105e+01
2.370000e-06	2.378105e-06	9.141010e-10	1.652415e+01	6.240298e+01
2.380000e-06	2.420771e-06	9.260233e-10	1.682062e+01	6.346231e+01
2.390000e-06	2.463114e-06	9.391164e-10	1.711484e+01	6.449925e+01
2.400000e-06	2.505018e-06	9.520458e-10	1.740601e+01	6.551407e+01
2.410000e-06	2.546507e-06	9.660051e-10	1.769429e+01	6.650702e+01
2.420000e-06	2.587558e-06	9.822492e-10	1.797953e+01	6.747842e+01
2.430000e-06	2.628455e-06	9.986466e-10	1.826370e+01	6.842858e+01
2.440000e-06	2.669241e-06	1.013444e-09	1.854710e+01	6.935783e+01
2.450000e-06	2.709778e-06	1.024666e-09	1.882877e+01	7.026653e+01
2.460000e-06	2.750041e-06	1.034216e-09	1.910854e+01	7.115505e+01
2.470000e-06	2.790090e-06	1.044502e-09	1.938681e+01	7.202375e+01
2.480000e-06	2.830004e-06	1.054158e-09	1.966416e+01	7.287303e+01
2.490000e-06	2.869797e-06	1.062530e-09	1.994066e+01	7.370330e+01
2.500000e-06	2.909398e-06	1.073750e-09	2.021582e+01	7.451495e+01
2.510000e-06	2.948857e-06	1.087777e-09	2.049000e+01	7.530839e+01
2.520000e-06	2.988181e-06	1.100857e-09	2.076324e+01	7.608405e+01
2.530000e-06	3.027304e-06	1.112605e-09	2.103508e+01	7.684234e+01
2.540000e-06	3.066295e-06	1.124257e-09	2.130601e+01	7.758369e+01
2.550000e-06	3.104993e-06	1.134938e-09	2.157491e+01	7.830851e+01
2.560000e-06	3.143378e-06	1.140988e-09	2.184162e+01	7.901724e+01
2.570000e-06	3.181610e-06	1.146751e-09	2.210727e+01	7.971029e+01
2.580000e-06	3.219665e-06	1.158452e-09	2.237170e+01	8.038809e+01
2.590000e-06	3.257495e-06	1.170911e-09	2.263456e+01	8.105104e+01
2.600000e-06	3.295152e-06	1.181602e-09	2.289622e+01	8.169956e+01
2.610000e-06	3.332625e-06	1.191957e-09	2.315660e+01	8.233406e+01
2.620000e-06	3.369874e-06	1.202597e-09	2.341542e+01	8.295494e+01
2.630000e-06	3.406785e-06	1.212918e-09	2.367189e+01	8.356259e+01
2.640000e-06	3.443369e-06	1.220743e-09	2.392610e+01	8.415740e+01
2.650000e-06	3.479759e-06	1.228587e-09	2.417895e+01	8.473976e+01
2.660000e-06	3.515959e-06	1.239335e-09	2.443049e+01	8.531002e+01
2.670000e-06	3.551930e-06	1.247853e-09	2.468043e+01	8.586857e+01
2.680000e-06	3.587693e-06	1.255642e-09	2.492893e+01	8.641574e+01
2.690000e-06	3.623300e-06	1.263089e-09	2.517634e+01	8.695189e+01
2.700000e-06	3.658783e-06	1.268162e-09	2.542289e+01	8.747734e+01
2.710000e-06	3.694176e-06	1.274179e-09	2.566882e+01	8.799242e+01
2.720000e-06	3.729368e-06	1.283038e-09	2.591335e+01	8.849745e+01
2.730000e-06	3.764332e-06	1.292254e-09	2.615629e+01	8.899272e+01
2.740000e-06	3.798966e-06	1.300324e-09	2.639695e+01	8.947853e+01
2.750000e-06	3.833227e-06	1.306652e-09	2.663501e+01	8.995515e+01
2.760000e-06	3.867050e-06	1.311037e-09	2.687003e+01	9.042285e+01
2.770000e-06	3.900310e-06	1.313596e-09	2.710113e+01	9.088188e+01
2.780000e-06	3.933092e-06	1.316894e-09	2.732892e+01	9.133249e+01
2.790000e-06	3.965410e-06	1.324223e-09	2.755348e+01	9.177492e+01
2.800000e-06	3.997384e-06	1.331902e-09	2.777565e+01	9.220937e+01
2.810000e-06	4.029201e-06	1.339063e-09	2.799672e+01	9.263605e+01
2.820000e-06	4.060873e-06	1.346592e-09	2.821679e+01	9.305517e+01
2.830000e-06	4.092397e-06	1.353231e-09	2.843584e+01	9.346690e+01
2.840000e-06	4.123753e-06	1.359294e-09	2.865372e+01	9.387142e+01
2.850000e-06	4.154822e-06	1.364244e-09	2.886959e+01	9.426888e+01
2.860000e-06	4.185535e-06	1.369607e-09	2.908300e+01	9.465945e+01
2.870000e-06	4.215924e-06	1.373879e-09	2.929416e+01	9.504325e+01
2.880000e-06	4.246022e-06	1.376868e-09	2.950330e+01	9.542041e+01
2.890000e-06	4.275872e-06	1.381575e-09	2.971071e+01	9.579106e+01
2.900000e-06	4.305404e-06	1.387635e-09	2.991591e+01	9.615530e+01
