# Temperatura_=_-0.38
# Concentracion g/m^3_=_1620.0
# C_Vs_to_Am_M_A/Vsm_=_65563218390.804596
# pendiente_HvsI_1/m_=_3716.3
# ordenada_HvsI_A/m_=_1297.0
# frecuencia_Hz_=_135095.82127378424

Tiempo_(s)	Campo_(V.s)	Magnetizacion_(V.s)	Campo_(kA/m)	Magnetizacion_(A/m)
0.000000e+00	-5.514587e-06	-1.754689e-09	-3.837640e+01	-1.137909e+02
1.000000e-08	-5.514871e-06	-1.748682e-09	-3.837837e+01	-1.137300e+02
2.000000e-08	-5.514951e-06	-1.746243e-09	-3.837893e+01	-1.136642e+02
3.000000e-08	-5.514642e-06	-1.748992e-09	-3.837678e+01	-1.135936e+02
4.000000e-08	-5.513842e-06	-1.754172e-09	-3.837122e+01	-1.135184e+02
5.000000e-08	-5.512454e-06	-1.755042e-09	-3.836155e+01	-1.134389e+02
6.000000e-08	-5.510429e-06	-1.748534e-09	-3.834746e+01	-1.133552e+02
7.000000e-08	-5.507844e-06	-1.733625e-09	-3.832947e+01	-1.132677e+02
8.000000e-08	-5.504745e-06	-1.733731e-09	-3.830791e+01	-1.131765e+02
9.000000e-08	-5.501224e-06	-1.783538e-09	-3.828340e+01	-1.130819e+02
1.000000e-07	-5.497227e-06	-1.811280e-09	-3.825559e+01	-1.129841e+02
1.100000e-07	-5.492791e-06	-1.747644e-09	-3.822472e+01	-1.128833e+02
1.200000e-07	-5.488167e-06	-1.683320e-09	-3.819254e+01	-1.127798e+02
1.300000e-07	-5.483384e-06	-1.736855e-09	-3.815926e+01	-1.126737e+02
1.400000e-07	-5.478308e-06	-1.779276e-09	-3.812393e+01	-1.125653e+02
1.500000e-07	-5.472819e-06	-1.743828e-09	-3.808573e+01	-1.124547e+02
1.600000e-07	-5.466933e-06	-1.692818e-09	-3.804477e+01	-1.123421e+02
1.700000e-07	-5.460778e-06	-1.759240e-09	-3.800194e+01	-1.122276e+02
1.800000e-07	-5.454119e-06	-1.778741e-09	-3.795560e+01	-1.121114e+02
1.900000e-07	-5.446927e-06	-1.719983e-09	-3.790555e+01	-1.119935e+02
2.000000e-07	-5.439448e-06	-1.661907e-09	-3.785350e+01	-1.118741e+02
2.100000e-07	-5.431766e-06	-1.698022e-09	-3.780004e+01	-1.117532e+02
2.200000e-07	-5.423745e-06	-1.730144e-09	-3.774422e+01	-1.116309e+02
2.300000e-07	-5.415450e-06	-1.702242e-09	-3.768650e+01	-1.115072e+02
2.400000e-07	-5.407010e-06	-1.676434e-09	-3.762776e+01	-1.113820e+02
2.500000e-07	-5.397938e-06	-1.663483e-09	-3.756463e+01	-1.112553e+02
2.600000e-07	-5.387888e-06	-1.664298e-09	-3.749469e+01	-1.111271e+02
2.700000e-07	-5.377227e-06	-1.654301e-09	-3.742050e+01	-1.109973e+02
2.800000e-07	-5.366215e-06	-1.664252e-09	-3.734387e+01	-1.108657e+02
2.900000e-07	-5.354744e-06	-1.648861e-09	-3.726404e+01	-1.107323e+02
3.000000e-07	-5.342849e-06	-1.655448e-09	-3.718126e+01	-1.105969e+02
3.100000e-07	-5.330545e-06	-1.663701e-09	-3.709564e+01	-1.104593e+02
3.200000e-07	-5.317838e-06	-1.664214e-09	-3.700721e+01	-1.103193e+02
3.300000e-07	-5.304718e-06	-1.627244e-09	-3.691591e+01	-1.101767e+02
3.400000e-07	-5.291220e-06	-1.648787e-09	-3.682197e+01	-1.100314e+02
3.500000e-07	-5.277356e-06	-1.654210e-09	-3.672549e+01	-1.098830e+02
3.600000e-07	-5.262923e-06	-1.640142e-09	-3.662505e+01	-1.097313e+02
3.700000e-07	-5.248115e-06	-1.633068e-09	-3.652200e+01	-1.095760e+02
3.800000e-07	-5.233073e-06	-1.657411e-09	-3.641732e+01	-1.094170e+02
3.900000e-07	-5.217365e-06	-1.628354e-09	-3.630801e+01	-1.092538e+02
4.000000e-07	-5.201083e-06	-1.618301e-09	-3.619470e+01	-1.090863e+02
4.100000e-07	-5.184568e-06	-1.650399e-09	-3.607978e+01	-1.089142e+02
4.200000e-07	-5.167741e-06	-1.635391e-09	-3.596267e+01	-1.087372e+02
4.300000e-07	-5.150543e-06	-1.592998e-09	-3.584299e+01	-1.085550e+02
4.400000e-07	-5.133124e-06	-1.626288e-09	-3.572177e+01	-1.083674e+02
4.500000e-07	-5.115283e-06	-1.644613e-09	-3.559762e+01	-1.081742e+02
4.600000e-07	-5.096877e-06	-1.589516e-09	-3.546953e+01	-1.079751e+02
4.700000e-07	-5.078008e-06	-1.593319e-09	-3.533821e+01	-1.077698e+02
4.800000e-07	-5.058769e-06	-1.634305e-09	-3.520433e+01	-1.075582e+02
4.900000e-07	-5.039351e-06	-1.599463e-09	-3.506920e+01	-1.073401e+02
5.000000e-07	-5.019751e-06	-1.571491e-09	-3.493280e+01	-1.071153e+02
5.100000e-07	-4.999939e-06	-1.611934e-09	-3.479493e+01	-1.068837e+02
5.200000e-07	-4.979815e-06	-1.587955e-09	-3.465488e+01	-1.066450e+02
5.300000e-07	-4.959280e-06	-1.547143e-09	-3.451198e+01	-1.063993e+02
5.400000e-07	-4.938416e-06	-1.582588e-09	-3.436679e+01	-1.061464e+02
5.500000e-07	-4.917217e-06	-1.593899e-09	-3.421926e+01	-1.058862e+02
5.600000e-07	-4.895703e-06	-1.537316e-09	-3.406954e+01	-1.056188e+02
5.700000e-07	-4.873880e-06	-1.555410e-09	-3.391768e+01	-1.053440e+02
5.800000e-07	-4.851736e-06	-1.581846e-09	-3.376357e+01	-1.050619e+02
5.900000e-07	-4.829219e-06	-1.538207e-09	-3.360687e+01	-1.047725e+02
6.000000e-07	-4.806239e-06	-1.520298e-09	-3.344695e+01	-1.044758e+02
6.100000e-07	-4.782997e-06	-1.558823e-09	-3.328521e+01	-1.041718e+02
6.200000e-07	-4.759571e-06	-1.536823e-09	-3.312219e+01	-1.038608e+02
6.300000e-07	-4.735922e-06	-1.514063e-09	-3.295762e+01	-1.035427e+02
6.400000e-07	-4.712015e-06	-1.539353e-09	-3.279124e+01	-1.032176e+02
6.500000e-07	-4.687789e-06	-1.537577e-09	-3.262265e+01	-1.028857e+02
6.600000e-07	-4.663204e-06	-1.506084e-09	-3.245156e+01	-1.025471e+02
6.700000e-07	-4.638037e-06	-1.517175e-09	-3.227643e+01	-1.022019e+02
6.800000e-07	-4.612224e-06	-1.516359e-09	-3.209679e+01	-1.018504e+02
6.900000e-07	-4.585751e-06	-1.485930e-09	-3.191256e+01	-1.014925e+02
7.000000e-07	-4.558807e-06	-1.480544e-09	-3.172506e+01	-1.011286e+02
7.100000e-07	-4.531626e-06	-1.489819e-09	-3.153591e+01	-1.007588e+02
7.200000e-07	-4.504198e-06	-1.473005e-09	-3.134503e+01	-1.003831e+02
7.300000e-07	-4.476575e-06	-1.463347e-09	-3.115280e+01	-1.000019e+02
7.400000e-07	-4.448809e-06	-1.473045e-09	-3.095958e+01	-9.961511e+01
7.500000e-07	-4.420874e-06	-1.465239e-09	-3.076517e+01	-9.922304e+01
7.600000e-07	-4.392624e-06	-1.451931e-09	-3.056858e+01	-9.882578e+01
7.700000e-07	-4.364041e-06	-1.452457e-09	-3.036967e+01	-9.842346e+01
7.800000e-07	-4.335133e-06	-1.445451e-09	-3.016850e+01	-9.801620e+01
7.900000e-07	-4.305902e-06	-1.427566e-09	-2.996507e+01	-9.760410e+01
8.000000e-07	-4.276421e-06	-1.425111e-09	-2.975992e+01	-9.718725e+01
8.100000e-07	-4.246700e-06	-1.420300e-09	-2.955308e+01	-9.676574e+01
8.200000e-07	-4.216689e-06	-1.403591e-09	-2.934423e+01	-9.633962e+01
8.300000e-07	-4.186308e-06	-1.395533e-09	-2.913281e+01	-9.590895e+01
8.400000e-07	-4.155576e-06	-1.395290e-09	-2.891895e+01	-9.547375e+01
8.500000e-07	-4.124558e-06	-1.381534e-09	-2.870309e+01	-9.503404e+01
8.600000e-07	-4.093316e-06	-1.372713e-09	-2.848567e+01	-9.458983e+01
8.700000e-07	-4.061906e-06	-1.372289e-09	-2.826709e+01	-9.414108e+01
8.800000e-07	-4.030324e-06	-1.369776e-09	-2.804730e+01	-9.368779e+01
8.900000e-07	-3.998536e-06	-1.359647e-09	-2.782609e+01	-9.322989e+01
9.000000e-07	-3.966506e-06	-1.355681e-09	-2.760320e+01	-9.276733e+01
9.100000e-07	-3.934159e-06	-1.342257e-09	-2.737809e+01	-9.230004e+01
9.200000e-07	-3.901470e-06	-1.325593e-09	-2.715060e+01	-9.182794e+01
9.300000e-07	-3.868331e-06	-1.319496e-09	-2.691999e+01	-9.135094e+01
9.400000e-07	-3.834699e-06	-1.320835e-09	-2.668594e+01	-9.086894e+01
9.500000e-07	-3.800622e-06	-1.313296e-09	-2.644879e+01	-9.038182e+01
9.600000e-07	-3.766218e-06	-1.307009e-09	-2.620938e+01	-8.988948e+01
9.700000e-07	-3.731493e-06	-1.301913e-09	-2.596772e+01	-8.939180e+01
9.800000e-07	-3.696387e-06	-1.288247e-09	-2.572341e+01	-8.888867e+01
9.900000e-07	-3.661053e-06	-1.273256e-09	-2.547753e+01	-8.837996e+01
1.000000e-06	-3.625519e-06	-1.268950e-09	-2.523024e+01	-8.786557e+01
1.010000e-06	-3.589841e-06	-1.263025e-09	-2.498196e+01	-8.734537e+01
1.020000e-06	-3.554070e-06	-1.254459e-09	-2.473302e+01	-8.681927e+01
1.030000e-06	-3.518198e-06	-1.250166e-09	-2.448339e+01	-8.628716e+01
1.040000e-06	-3.482053e-06	-1.244757e-09	-2.423185e+01	-8.574894e+01
1.050000e-06	-3.445495e-06	-1.236144e-09	-2.397744e+01	-8.520455e+01
1.060000e-06	-3.408729e-06	-1.227305e-09	-2.372159e+01	-8.465390e+01
1.070000e-06	-3.371860e-06	-1.220870e-09	-2.346501e+01	-8.409693e+01
1.080000e-06	-3.334699e-06	-1.208811e-09	-2.320640e+01	-8.353359e+01
1.090000e-06	-3.297231e-06	-1.196539e-09	-2.294567e+01	-8.296386e+01
1.100000e-06	-3.259617e-06	-1.186924e-09	-2.268390e+01	-8.238770e+01
1.110000e-06	-3.221757e-06	-1.174361e-09	-2.242043e+01	-8.180511e+01
1.120000e-06	-3.183634e-06	-1.159223e-09	-2.215513e+01	-8.121608e+01
1.130000e-06	-3.145296e-06	-1.150451e-09	-2.188833e+01	-8.062065e+01
1.140000e-06	-3.106752e-06	-1.145523e-09	-2.162010e+01	-8.001884e+01
1.150000e-06	-3.067973e-06	-1.139815e-09	-2.135024e+01	-7.941068e+01
1.160000e-06	-3.028946e-06	-1.132509e-09	-2.107865e+01	-7.879625e+01
1.170000e-06	-2.989820e-06	-1.125802e-09	-2.080637e+01	-7.817558e+01
1.180000e-06	-2.950590e-06	-1.111109e-09	-2.053336e+01	-7.754877e+01
1.190000e-06	-2.911131e-06	-1.095803e-09	-2.025876e+01	-7.691588e+01
1.200000e-06	-2.871436e-06	-1.081635e-09	-1.998253e+01	-7.627701e+01
1.210000e-06	-2.831622e-06	-1.070725e-09	-1.970545e+01	-7.563222e+01
1.220000e-06	-2.791744e-06	-1.061667e-09	-1.942795e+01	-7.498162e+01
1.230000e-06	-2.751781e-06	-1.056853e-09	-1.914984e+01	-7.432528e+01
1.240000e-06	-2.711570e-06	-1.051812e-09	-1.887001e+01	-7.366330e+01
1.250000e-06	-2.671119e-06	-1.042980e-09	-1.858850e+01	-7.299573e+01
1.260000e-06	-2.630550e-06	-1.032415e-09	-1.830618e+01	-7.232266e+01
1.270000e-06	-2.589705e-06	-1.017925e-09	-1.802194e+01	-7.164412e+01
1.280000e-06	-2.548407e-06	-1.001793e-09	-1.773455e+01	-7.096018e+01
1.290000e-06	-2.506792e-06	-9.870797e-10	-1.744494e+01	-7.027084e+01
1.300000e-06	-2.464996e-06	-9.747106e-10	-1.715408e+01	-6.957612e+01
1.310000e-06	-2.422876e-06	-9.631677e-10	-1.686096e+01	-6.887600e+01
1.320000e-06	-2.380462e-06	-9.512481e-10	-1.656581e+01	-6.817044e+01
1.330000e-06	-2.337894e-06	-9.397078e-10	-1.626957e+01	-6.745937e+01
1.340000e-06	-2.295166e-06	-9.285323e-10	-1.597222e+01	-6.674272e+01
1.350000e-06	-2.252123e-06	-9.172922e-10	-1.567268e+01	-6.602034e+01
1.360000e-06	-2.208815e-06	-9.060366e-10	-1.537130e+01	-6.529209e+01
1.370000e-06	-2.165408e-06	-8.947661e-10	-1.506923e+01	-6.455779e+01
1.380000e-06	-2.121895e-06	-8.834940e-10	-1.476642e+01	-6.381721e+01
1.390000e-06	-2.078276e-06	-8.715433e-10	-1.446287e+01	-6.307011e+01
1.400000e-06	-2.034549e-06	-8.573359e-10	-1.415857e+01	-6.231619e+01
1.410000e-06	-1.990742e-06	-8.409795e-10	-1.385371e+01	-6.155512e+01
1.420000e-06	-1.946892e-06	-8.275970e-10	-1.354856e+01	-6.078656e+01
1.430000e-06	-1.902968e-06	-8.179654e-10	-1.324288e+01	-6.001011e+01
1.440000e-06	-1.858927e-06	-8.089445e-10	-1.293640e+01	-5.922534e+01
1.450000e-06	-1.814816e-06	-7.964297e-10	-1.262943e+01	-5.843178e+01
1.460000e-06	-1.770613e-06	-7.816222e-10	-1.232182e+01	-5.762896e+01
1.470000e-06	-1.726330e-06	-7.670248e-10	-1.201365e+01	-5.681634e+01
1.480000e-06	-1.681933e-06	-7.531703e-10	-1.170469e+01	-5.599337e+01
1.490000e-06	-1.637277e-06	-7.407007e-10	-1.139393e+01	-5.515949e+01
1.500000e-06	-1.592415e-06	-7.300149e-10	-1.108173e+01	-5.431409e+01
1.510000e-06	-1.547485e-06	-7.190931e-10	-1.076906e+01	-5.345655e+01
1.520000e-06	-1.502365e-06	-7.066559e-10	-1.045506e+01	-5.258625e+01
1.530000e-06	-1.457032e-06	-6.928813e-10	-1.013959e+01	-5.170252e+01
1.540000e-06	-1.411640e-06	-6.811794e-10	-9.823699e+00	-5.080471e+01
1.550000e-06	-1.366229e-06	-6.684507e-10	-9.507681e+00	-4.989216e+01
1.560000e-06	-1.320831e-06	-6.548402e-10	-9.191755e+00	-4.896419e+01
1.570000e-06	-1.275412e-06	-6.395975e-10	-8.875681e+00	-4.802015e+01
1.580000e-06	-1.229858e-06	-6.252321e-10	-8.558671e+00	-4.705938e+01
1.590000e-06	-1.184218e-06	-6.075886e-10	-8.241056e+00	-4.608123e+01
1.600000e-06	-1.138514e-06	-5.881137e-10	-7.923001e+00	-4.508506e+01
1.610000e-06	-1.092647e-06	-5.702114e-10	-7.603808e+00	-4.407026e+01
1.620000e-06	-1.046691e-06	-5.530998e-10	-7.283994e+00	-4.303625e+01
1.630000e-06	-1.000716e-06	-5.371238e-10	-6.964055e+00	-4.198246e+01
1.640000e-06	-9.546787e-07	-5.228892e-10	-6.643676e+00	-4.090836e+01
1.650000e-06	-9.085625e-07	-5.101416e-10	-6.322750e+00	-3.981346e+01
1.660000e-06	-8.623557e-07	-4.944701e-10	-6.001194e+00	-3.869731e+01
1.670000e-06	-8.161008e-07	-4.768689e-10	-5.679303e+00	-3.755949e+01
1.680000e-06	-7.697487e-07	-4.583653e-10	-5.356736e+00	-3.639966e+01
1.690000e-06	-7.233277e-07	-4.423712e-10	-5.033688e+00	-3.521751e+01
1.700000e-06	-6.769416e-07	-4.253375e-10	-4.710884e+00	-3.401277e+01
1.710000e-06	-6.304859e-07	-4.067198e-10	-4.387596e+00	-3.278527e+01
1.720000e-06	-5.839625e-07	-3.872451e-10	-4.063836e+00	-3.153485e+01
1.730000e-06	-5.374841e-07	-3.666407e-10	-3.740390e+00	-3.026145e+01
1.740000e-06	-4.908980e-07	-3.474632e-10	-3.416194e+00	-2.896506e+01
1.750000e-06	-4.442686e-07	-3.287562e-10	-3.091696e+00	-2.764575e+01
1.760000e-06	-3.976192e-07	-3.108974e-10	-2.767060e+00	-2.630363e+01
1.770000e-06	-3.508193e-07	-2.917478e-10	-2.441376e+00	-2.493890e+01
1.780000e-06	-3.040046e-07	-2.712472e-10	-2.115589e+00	-2.355183e+01
1.790000e-06	-2.571730e-07	-2.501486e-10	-1.789685e+00	-2.214275e+01
1.800000e-06	-2.103462e-07	-2.295863e-10	-1.463814e+00	-2.071206e+01
1.810000e-06	-1.635613e-07	-2.089860e-10	-1.138235e+00	-1.926024e+01
1.820000e-06	-1.167656e-07	-1.895532e-10	-8.125803e-01	-1.778783e+01
1.830000e-06	-7.003380e-08	-1.706317e-10	-4.873701e-01	-1.629543e+01
1.840000e-06	-2.335197e-08	-1.509980e-10	-1.625080e-01	-1.478371e+01
1.850000e-06	2.344132e-08	-1.321085e-10	1.631298e-01	-1.325341e+01
1.860000e-06	7.026531e-08	-1.124090e-10	4.889812e-01	-1.170533e+01
1.870000e-06	1.170431e-07	-8.779619e-11	8.145113e-01	-1.014032e+01
1.880000e-06	1.638250e-07	-6.109461e-11	1.140070e+00	-8.559301e+00
1.890000e-06	2.106472e-07	-3.824278e-11	1.465909e+00	-6.963227e+00
1.900000e-06	2.574526e-07	-1.745586e-11	1.791630e+00	-5.353115e+00
1.910000e-06	3.041848e-07	5.933035e-13	2.116843e+00	-3.730026e+00
1.920000e-06	3.509934e-07	2.080651e-11	2.442588e+00	-2.095061e+00
1.930000e-06	3.977914e-07	4.534803e-11	2.768258e+00	-4.493624e-01
1.940000e-06	4.444029e-07	7.071064e-11	3.092631e+00	1.205895e+00
1.950000e-06	4.909026e-07	9.719332e-11	3.416226e+00	2.869507e+00
1.960000e-06	5.374788e-07	1.237278e-10	3.740353e+00	4.540240e+00
1.970000e-06	5.839541e-07	1.466605e-10	4.063778e+00	6.216841e+00
1.980000e-06	6.303249e-07	1.681589e-10	4.386476e+00	7.898041e+00
1.990000e-06	6.766493e-07	1.876434e-10	4.708850e+00	9.582555e+00
2.000000e-06	7.228093e-07	2.037238e-10	5.030081e+00	1.126909e+01
2.010000e-06	7.689433e-07	2.230164e-10	5.351131e+00	1.295635e+01
2.020000e-06	8.150699e-07	2.465049e-10	5.672129e+00	1.464305e+01
2.030000e-06	8.611845e-07	2.744665e-10	5.993043e+00	1.632789e+01
2.040000e-06	9.072776e-07	3.061991e-10	6.313809e+00	1.800958e+01
2.050000e-06	9.533782e-07	3.348897e-10	6.634626e+00	1.968687e+01
2.060000e-06	9.993677e-07	3.598215e-10	6.954670e+00	2.135849e+01
2.070000e-06	1.045260e-06	3.794480e-10	7.274039e+00	2.302323e+01
2.080000e-06	1.091142e-06	3.954340e-10	7.593335e+00	2.467986e+01
2.090000e-06	1.136935e-06	4.128073e-10	7.912008e+00	2.632723e+01
2.100000e-06	1.182632e-06	4.342997e-10	8.230017e+00	2.796417e+01
2.110000e-06	1.228251e-06	4.582378e-10	8.547485e+00	2.958958e+01
2.120000e-06	1.273773e-06	4.834770e-10	8.864274e+00	3.120238e+01
2.130000e-06	1.319209e-06	5.085701e-10	9.180469e+00	3.280155e+01
2.140000e-06	1.364568e-06	5.312603e-10	9.496126e+00	3.438609e+01
2.150000e-06	1.409758e-06	5.490004e-10	9.810605e+00	3.595506e+01
2.160000e-06	1.454880e-06	5.630264e-10	1.012462e+01	3.750756e+01
2.170000e-06	1.499898e-06	5.786899e-10	1.043790e+01	3.904274e+01
2.180000e-06	1.544715e-06	5.962351e-10	1.074978e+01	4.055981e+01
2.190000e-06	1.589509e-06	6.185776e-10	1.106150e+01	4.205803e+01
2.200000e-06	1.634294e-06	6.455914e-10	1.137316e+01	4.353671e+01
2.210000e-06	1.678917e-06	6.696430e-10	1.168370e+01	4.499520e+01
2.220000e-06	1.723347e-06	6.887425e-10	1.199290e+01	4.643294e+01
2.230000e-06	1.767596e-06	7.046011e-10	1.230082e+01	4.784939e+01
2.240000e-06	1.811671e-06	7.197014e-10	1.260754e+01	4.924410e+01
2.250000e-06	1.855663e-06	7.365415e-10	1.291369e+01	5.061664e+01
2.260000e-06	1.899571e-06	7.553763e-10	1.321925e+01	5.196666e+01
2.270000e-06	1.943346e-06	7.746218e-10	1.352388e+01	5.329387e+01
2.280000e-06	1.987041e-06	7.927568e-10	1.382795e+01	5.459802e+01
2.290000e-06	2.030710e-06	8.099226e-10	1.413185e+01	5.587891e+01
2.300000e-06	2.074381e-06	8.258674e-10	1.443576e+01	5.713642e+01
2.310000e-06	2.118053e-06	8.398661e-10	1.473968e+01	5.837045e+01
2.320000e-06	2.161649e-06	8.546147e-10	1.504307e+01	5.958098e+01
2.330000e-06	2.205106e-06	8.712056e-10	1.534548e+01	6.076802e+01
2.340000e-06	2.248447e-06	8.889250e-10	1.564710e+01	6.193164e+01
2.350000e-06	2.291631e-06	9.059240e-10	1.594762e+01	6.307194e+01
2.360000e-06	2.334569e-06	9.203582e-10	1.624643e+01	6.418909e+01
2.370000e-06	2.377312e-06	9.355122e-10	1.654388e+01	6.528327e+01
2.380000e-06	2.419775e-06	9.490597e-10	1.683938e+01	6.635474e+01
2.390000e-06	2.461972e-06	9.621336e-10	1.713303e+01	6.740375e+01
2.400000e-06	2.503846e-06	9.757659e-10	1.742444e+01	6.843063e+01
2.410000e-06	2.545261e-06	9.907406e-10	1.771265e+01	6.943572e+01
2.420000e-06	2.586366e-06	1.005780e-09	1.799870e+01	7.041940e+01
2.430000e-06	2.627144e-06	1.018415e-09	1.828248e+01	7.138207e+01
2.440000e-06	2.667618e-06	1.030536e-09	1.856414e+01	7.232416e+01
2.450000e-06	2.707915e-06	1.041182e-09	1.884457e+01	7.324613e+01
2.460000e-06	2.748047e-06	1.050204e-09	1.912385e+01	7.414844e+01
2.470000e-06	2.787997e-06	1.060127e-09	1.940187e+01	7.503160e+01
2.480000e-06	2.827821e-06	1.071772e-09	1.967901e+01	7.589610e+01
2.490000e-06	2.867550e-06	1.083760e-09	1.995548e+01	7.674246e+01
2.500000e-06	2.907127e-06	1.097867e-09	2.023090e+01	7.757122e+01
2.510000e-06	2.946613e-06	1.114007e-09	2.050569e+01	7.838290e+01
2.520000e-06	2.986047e-06	1.128757e-09	2.078011e+01	7.917806e+01
2.530000e-06	3.025370e-06	1.141420e-09	2.105377e+01	7.995722e+01
2.540000e-06	3.064374e-06	1.153201e-09	2.132519e+01	8.072092e+01
2.550000e-06	3.102950e-06	1.163903e-09	2.159365e+01	8.146972e+01
2.560000e-06	3.141293e-06	1.171033e-09	2.186048e+01	8.220412e+01
2.570000e-06	3.179447e-06	1.177592e-09	2.212600e+01	8.292467e+01
2.580000e-06	3.217356e-06	1.187194e-09	2.238981e+01	8.363186e+01
2.590000e-06	3.255057e-06	1.199913e-09	2.265217e+01	8.432620e+01
2.600000e-06	3.292630e-06	1.213453e-09	2.291364e+01	8.500817e+01
2.610000e-06	3.330055e-06	1.225291e-09	2.317409e+01	8.567824e+01
2.620000e-06	3.367255e-06	1.235409e-09	2.343296e+01	8.633686e+01
2.630000e-06	3.404132e-06	1.243888e-09	2.368959e+01	8.698447e+01
2.640000e-06	3.440681e-06	1.252228e-09	2.394394e+01	8.762146e+01
2.650000e-06	3.477002e-06	1.259723e-09	2.419670e+01	8.824823e+01
2.660000e-06	3.513108e-06	1.270425e-09	2.444797e+01	8.886514e+01
2.670000e-06	3.548986e-06	1.279882e-09	2.469765e+01	8.947253e+01
2.680000e-06	3.584711e-06	1.287598e-09	2.494625e+01	9.007071e+01
2.690000e-06	3.620320e-06	1.295056e-09	2.519406e+01	9.065997e+01
2.700000e-06	3.655847e-06	1.302573e-09	2.544129e+01	9.124057e+01
2.710000e-06	3.691299e-06	1.312988e-09	2.568801e+01	9.181275e+01
2.720000e-06	3.726512e-06	1.322750e-09	2.593306e+01	9.237671e+01
2.730000e-06	3.761401e-06	1.330374e-09	2.617586e+01	9.293265e+01
2.740000e-06	3.796009e-06	1.336613e-09	2.641669e+01	9.348071e+01
2.750000e-06	3.830137e-06	1.342414e-09	2.665419e+01	9.402103e+01
2.760000e-06	3.863517e-06	1.347550e-09	2.688649e+01	9.455372e+01
2.770000e-06	3.896413e-06	1.352409e-09	2.711541e+01	9.507886e+01
2.780000e-06	3.928990e-06	1.359107e-09	2.734212e+01	9.559651e+01
2.790000e-06	3.961269e-06	1.368125e-09	2.756675e+01	9.610672e+01
2.800000e-06	3.993343e-06	1.376308e-09	2.778996e+01	9.660951e+01
2.810000e-06	4.025198e-06	1.382852e-09	2.801163e+01	9.710488e+01
2.820000e-06	4.056906e-06	1.389919e-09	2.823229e+01	9.759280e+01
2.830000e-06	4.088470e-06	1.398842e-09	2.845195e+01	9.807327e+01
2.840000e-06	4.119855e-06	1.405749e-09	2.867036e+01	9.854623e+01
2.850000e-06	4.150909e-06	1.410489e-09	2.888647e+01	9.901163e+01
2.860000e-06	4.181618e-06	1.415216e-09	2.910017e+01	9.946940e+01
2.870000e-06	4.212022e-06	1.420456e-09	2.931175e+01	9.991948e+01
2.880000e-06	4.242055e-06	1.424831e-09	2.952076e+01	1.003618e+02
2.890000e-06	4.271812e-06	1.427591e-09	2.972784e+01	1.007962e+02
2.900000e-06	4.301373e-06	1.430148e-09	2.993356e+01	1.012228e+02
