# Temperatura_=_15.42
# Concentracion g/m^3_=_1620.0
# C_Vs_to_Am_M_A/Vsm_=_65563218390.804596
# pendiente_HvsI_1/m_=_3716.3
# ordenada_HvsI_A/m_=_1297.0
# frecuencia_Hz_=_135105.44907783

Tiempo_(s)	Campo_(V.s)	Magnetizacion_(V.s)	Campo_(kA/m)	Magnetizacion_(A/m)
0.000000e+00	-5.515931e-06	-1.179232e-09	-3.836561e+01	-7.501036e+01
1.000000e-08	-5.516287e-06	-1.176996e-09	-3.836809e+01	-7.501245e+01
2.000000e-08	-5.516403e-06	-1.174421e-09	-3.836889e+01	-7.501185e+01
3.000000e-08	-5.516188e-06	-1.172837e-09	-3.836740e+01	-7.500816e+01
4.000000e-08	-5.515471e-06	-1.170752e-09	-3.836241e+01	-7.500099e+01
5.000000e-08	-5.514133e-06	-1.169588e-09	-3.835310e+01	-7.498995e+01
6.000000e-08	-5.512254e-06	-1.172122e-09	-3.834004e+01	-7.497466e+01
7.000000e-08	-5.509757e-06	-1.183491e-09	-3.832266e+01	-7.495475e+01
8.000000e-08	-5.506656e-06	-1.197976e-09	-3.830110e+01	-7.492984e+01
9.000000e-08	-5.503087e-06	-1.166756e-09	-3.827627e+01	-7.489959e+01
1.000000e-07	-5.499078e-06	-1.102865e-09	-3.824839e+01	-7.486366e+01
1.100000e-07	-5.494807e-06	-1.115801e-09	-3.821868e+01	-7.482176e+01
1.200000e-07	-5.490349e-06	-1.204196e-09	-3.818767e+01	-7.477360e+01
1.300000e-07	-5.485590e-06	-1.215824e-09	-3.815458e+01	-7.471893e+01
1.400000e-07	-5.480445e-06	-1.131383e-09	-3.811879e+01	-7.465753e+01
1.500000e-07	-5.474986e-06	-1.091778e-09	-3.808082e+01	-7.458920e+01
1.600000e-07	-5.469227e-06	-1.183790e-09	-3.804076e+01	-7.451381e+01
1.700000e-07	-5.463024e-06	-1.221476e-09	-3.799762e+01	-7.443123e+01
1.800000e-07	-5.456349e-06	-1.160193e-09	-3.795119e+01	-7.434139e+01
1.900000e-07	-5.449299e-06	-1.102433e-09	-3.790216e+01	-7.424425e+01
2.000000e-07	-5.441946e-06	-1.160421e-09	-3.785101e+01	-7.413981e+01
2.100000e-07	-5.434303e-06	-1.182685e-09	-3.779785e+01	-7.402812e+01
2.200000e-07	-5.426431e-06	-1.150181e-09	-3.774310e+01	-7.390926e+01
2.300000e-07	-5.418297e-06	-1.105679e-09	-3.768652e+01	-7.378335e+01
2.400000e-07	-5.409734e-06	-1.132570e-09	-3.762697e+01	-7.365055e+01
2.500000e-07	-5.400600e-06	-1.154164e-09	-3.756343e+01	-7.351106e+01
2.600000e-07	-5.390819e-06	-1.133878e-09	-3.749540e+01	-7.336509e+01
2.700000e-07	-5.380411e-06	-1.098361e-09	-3.742301e+01	-7.321291e+01
2.800000e-07	-5.369451e-06	-1.090014e-09	-3.734678e+01	-7.305482e+01
2.900000e-07	-5.358028e-06	-1.104736e-09	-3.726733e+01	-7.289112e+01
3.000000e-07	-5.346243e-06	-1.092798e-09	-3.718536e+01	-7.272216e+01
3.100000e-07	-5.334081e-06	-1.075321e-09	-3.710077e+01	-7.254830e+01
3.200000e-07	-5.321526e-06	-1.071096e-09	-3.701344e+01	-7.236991e+01
3.300000e-07	-5.308555e-06	-1.112388e-09	-3.692322e+01	-7.218739e+01
3.400000e-07	-5.295227e-06	-1.092205e-09	-3.683052e+01	-7.200114e+01
3.500000e-07	-5.281472e-06	-1.057214e-09	-3.673485e+01	-7.181156e+01
3.600000e-07	-5.267118e-06	-1.051664e-09	-3.663501e+01	-7.161907e+01
3.700000e-07	-5.252214e-06	-1.083415e-09	-3.653135e+01	-7.142407e+01
3.800000e-07	-5.236836e-06	-1.052416e-09	-3.642439e+01	-7.122696e+01
3.900000e-07	-5.220992e-06	-1.065782e-09	-3.631418e+01	-7.102814e+01
4.000000e-07	-5.204759e-06	-1.090323e-09	-3.620128e+01	-7.082799e+01
4.100000e-07	-5.188166e-06	-1.060786e-09	-3.608587e+01	-7.062687e+01
4.200000e-07	-5.171179e-06	-1.021604e-09	-3.596771e+01	-7.042513e+01
4.300000e-07	-5.153848e-06	-1.081538e-09	-3.584717e+01	-7.022310e+01
4.400000e-07	-5.136235e-06	-1.085657e-09	-3.572466e+01	-7.002107e+01
4.500000e-07	-5.118333e-06	-1.016001e-09	-3.560015e+01	-6.981932e+01
4.600000e-07	-5.100076e-06	-1.033533e-09	-3.547317e+01	-6.961809e+01
4.700000e-07	-5.081402e-06	-1.094374e-09	-3.534328e+01	-6.941759e+01
4.800000e-07	-5.062358e-06	-1.035798e-09	-3.521082e+01	-6.921801e+01
4.900000e-07	-5.043033e-06	-1.005813e-09	-3.507641e+01	-6.901949e+01
5.000000e-07	-5.023456e-06	-1.071425e-09	-3.494024e+01	-6.882215e+01
5.100000e-07	-5.003656e-06	-1.051614e-09	-3.480252e+01	-6.862606e+01
5.200000e-07	-4.983575e-06	-9.869031e-10	-3.466285e+01	-6.843127e+01
5.300000e-07	-4.963103e-06	-1.038273e-09	-3.452046e+01	-6.823778e+01
5.400000e-07	-4.942303e-06	-1.065550e-09	-3.437579e+01	-6.804557e+01
5.500000e-07	-4.921281e-06	-9.909633e-10	-3.422957e+01	-6.785458e+01
5.600000e-07	-4.899877e-06	-1.003712e-09	-3.408070e+01	-6.766472e+01
5.700000e-07	-4.877994e-06	-1.061852e-09	-3.392849e+01	-6.747586e+01
5.800000e-07	-4.855713e-06	-1.018144e-09	-3.377352e+01	-6.728786e+01
5.900000e-07	-4.833071e-06	-9.889816e-10	-3.361603e+01	-6.710053e+01
6.000000e-07	-4.810157e-06	-1.042479e-09	-3.345665e+01	-6.691368e+01
6.100000e-07	-4.787003e-06	-1.022642e-09	-3.329561e+01	-6.672709e+01
6.200000e-07	-4.763577e-06	-9.773277e-10	-3.313267e+01	-6.654050e+01
6.300000e-07	-4.739905e-06	-1.005120e-09	-3.296802e+01	-6.635365e+01
6.400000e-07	-4.715962e-06	-1.021949e-09	-3.280149e+01	-6.616628e+01
6.500000e-07	-4.691704e-06	-9.854117e-10	-3.263277e+01	-6.597810e+01
6.600000e-07	-4.667069e-06	-1.001078e-09	-3.246142e+01	-6.578880e+01
6.700000e-07	-4.641958e-06	-1.015503e-09	-3.228676e+01	-6.559809e+01
6.800000e-07	-4.616240e-06	-9.851554e-10	-3.210788e+01	-6.540567e+01
6.900000e-07	-4.589939e-06	-9.744215e-10	-3.192495e+01	-6.521123e+01
7.000000e-07	-4.563177e-06	-9.948943e-10	-3.173881e+01	-6.501447e+01
7.100000e-07	-4.536048e-06	-9.743850e-10	-3.155011e+01	-6.481511e+01
7.200000e-07	-4.508640e-06	-9.597601e-10	-3.135948e+01	-6.461285e+01
7.300000e-07	-4.481038e-06	-9.747396e-10	-3.116749e+01	-6.440742e+01
7.400000e-07	-4.453273e-06	-9.777562e-10	-3.097438e+01	-6.419855e+01
7.500000e-07	-4.425310e-06	-9.618444e-10	-3.077988e+01	-6.398599e+01
7.600000e-07	-4.397066e-06	-9.665110e-10	-3.058344e+01	-6.376953e+01
7.700000e-07	-4.368479e-06	-9.658332e-10	-3.038460e+01	-6.354893e+01
7.800000e-07	-4.339535e-06	-9.510017e-10	-3.018329e+01	-6.332400e+01
7.900000e-07	-4.310277e-06	-9.465293e-10	-2.997978e+01	-6.309457e+01
8.000000e-07	-4.280722e-06	-9.461533e-10	-2.977421e+01	-6.286049e+01
8.100000e-07	-4.250908e-06	-9.300116e-10	-2.956685e+01	-6.262162e+01
8.200000e-07	-4.220854e-06	-9.217992e-10	-2.935781e+01	-6.237784e+01
8.300000e-07	-4.190539e-06	-9.257799e-10	-2.914695e+01	-6.212907e+01
8.400000e-07	-4.159874e-06	-9.149050e-10	-2.893366e+01	-6.187525e+01
8.500000e-07	-4.128886e-06	-9.049238e-10	-2.871813e+01	-6.161632e+01
8.600000e-07	-4.097729e-06	-9.111556e-10	-2.850142e+01	-6.135225e+01
8.700000e-07	-4.066345e-06	-9.114216e-10	-2.828313e+01	-6.108304e+01
8.800000e-07	-4.034717e-06	-8.972559e-10	-2.806315e+01	-6.080871e+01
8.900000e-07	-4.002942e-06	-8.967415e-10	-2.784214e+01	-6.052928e+01
9.000000e-07	-3.970936e-06	-8.920218e-10	-2.761952e+01	-6.024479e+01
9.100000e-07	-3.938604e-06	-8.740369e-10	-2.739464e+01	-5.995532e+01
9.200000e-07	-3.905974e-06	-8.645226e-10	-2.716768e+01	-5.966093e+01
9.300000e-07	-3.873018e-06	-8.649923e-10	-2.693846e+01	-5.936171e+01
9.400000e-07	-3.839650e-06	-8.527847e-10	-2.670637e+01	-5.905776e+01
9.500000e-07	-3.805776e-06	-8.470541e-10	-2.647077e+01	-5.874919e+01
9.600000e-07	-3.771411e-06	-8.530346e-10	-2.623174e+01	-5.843610e+01
9.700000e-07	-3.736676e-06	-8.499275e-10	-2.599014e+01	-5.811862e+01
9.800000e-07	-3.701683e-06	-8.368055e-10	-2.574676e+01	-5.779687e+01
9.900000e-07	-3.666466e-06	-8.367920e-10	-2.550180e+01	-5.747097e+01
1.000000e-06	-3.631015e-06	-8.327568e-10	-2.525523e+01	-5.714105e+01
1.010000e-06	-3.595369e-06	-8.185978e-10	-2.500729e+01	-5.680724e+01
1.020000e-06	-3.559612e-06	-8.118700e-10	-2.475859e+01	-5.646967e+01
1.030000e-06	-3.523712e-06	-8.126616e-10	-2.450889e+01	-5.612844e+01
1.040000e-06	-3.487591e-06	-8.032578e-10	-2.425766e+01	-5.578367e+01
1.050000e-06	-3.451231e-06	-8.013788e-10	-2.400476e+01	-5.543549e+01
1.060000e-06	-3.414606e-06	-8.046324e-10	-2.375002e+01	-5.508399e+01
1.070000e-06	-3.377698e-06	-7.975082e-10	-2.349330e+01	-5.472926e+01
1.080000e-06	-3.340560e-06	-7.847386e-10	-2.323500e+01	-5.437141e+01
1.090000e-06	-3.303208e-06	-7.822279e-10	-2.297519e+01	-5.401051e+01
1.100000e-06	-3.265610e-06	-7.775075e-10	-2.271369e+01	-5.364664e+01
1.110000e-06	-3.227755e-06	-7.649694e-10	-2.245039e+01	-5.327985e+01
1.120000e-06	-3.189660e-06	-7.621844e-10	-2.218542e+01	-5.291021e+01
1.130000e-06	-3.151340e-06	-7.627149e-10	-2.191889e+01	-5.253777e+01
1.140000e-06	-3.112761e-06	-7.547349e-10	-2.165056e+01	-5.216255e+01
1.150000e-06	-3.074043e-06	-7.465773e-10	-2.138125e+01	-5.178459e+01
1.160000e-06	-3.035171e-06	-7.432573e-10	-2.111089e+01	-5.140391e+01
1.170000e-06	-2.996015e-06	-7.352989e-10	-2.083854e+01	-5.102050e+01
1.180000e-06	-2.956654e-06	-7.272611e-10	-2.056477e+01	-5.063438e+01
1.190000e-06	-2.917143e-06	-7.255561e-10	-2.028995e+01	-5.024553e+01
1.200000e-06	-2.877492e-06	-7.218483e-10	-2.001416e+01	-4.985394e+01
1.210000e-06	-2.837744e-06	-7.106538e-10	-1.973770e+01	-4.945957e+01
1.220000e-06	-2.797828e-06	-7.019738e-10	-1.946007e+01	-4.906239e+01
1.230000e-06	-2.757798e-06	-6.933666e-10	-1.918164e+01	-4.866236e+01
1.240000e-06	-2.717654e-06	-6.832841e-10	-1.890242e+01	-4.825942e+01
1.250000e-06	-2.677344e-06	-6.782502e-10	-1.862205e+01	-4.785351e+01
1.260000e-06	-2.636787e-06	-6.790226e-10	-1.833996e+01	-4.744455e+01
1.270000e-06	-2.595884e-06	-6.745399e-10	-1.805546e+01	-4.703246e+01
1.280000e-06	-2.554649e-06	-6.669606e-10	-1.776866e+01	-4.661715e+01
1.290000e-06	-2.513106e-06	-6.591084e-10	-1.747971e+01	-4.619851e+01
1.300000e-06	-2.471359e-06	-6.510081e-10	-1.718934e+01	-4.577644e+01
1.310000e-06	-2.429313e-06	-6.395112e-10	-1.689689e+01	-4.535080e+01
1.320000e-06	-2.386865e-06	-6.290510e-10	-1.660165e+01	-4.492147e+01
1.330000e-06	-2.344128e-06	-6.217828e-10	-1.630439e+01	-4.448828e+01
1.340000e-06	-2.301193e-06	-6.163774e-10	-1.600576e+01	-4.405108e+01
1.350000e-06	-2.258044e-06	-6.117495e-10	-1.570564e+01	-4.360968e+01
1.360000e-06	-2.214708e-06	-6.079902e-10	-1.540422e+01	-4.316389e+01
1.370000e-06	-2.171233e-06	-6.015536e-10	-1.510184e+01	-4.271350e+01
1.380000e-06	-2.127649e-06	-5.937371e-10	-1.479869e+01	-4.225828e+01
1.390000e-06	-2.084015e-06	-5.836075e-10	-1.449519e+01	-4.179799e+01
1.400000e-06	-2.040320e-06	-5.712619e-10	-1.419128e+01	-4.133235e+01
1.410000e-06	-1.996534e-06	-5.590953e-10	-1.388673e+01	-4.086108e+01
1.420000e-06	-1.952712e-06	-5.488026e-10	-1.358193e+01	-4.038389e+01
1.430000e-06	-1.908799e-06	-5.402654e-10	-1.327649e+01	-3.990043e+01
1.440000e-06	-1.864768e-06	-5.327082e-10	-1.297024e+01	-3.941036e+01
1.450000e-06	-1.820618e-06	-5.266778e-10	-1.266316e+01	-3.891331e+01
1.460000e-06	-1.776316e-06	-5.216395e-10	-1.235502e+01	-3.840889e+01
1.470000e-06	-1.731944e-06	-5.149557e-10	-1.204639e+01	-3.789669e+01
1.480000e-06	-1.687474e-06	-5.046777e-10	-1.173709e+01	-3.737626e+01
1.490000e-06	-1.642858e-06	-4.943281e-10	-1.142676e+01	-3.684715e+01
1.500000e-06	-1.598146e-06	-4.866065e-10	-1.111577e+01	-3.630890e+01
1.510000e-06	-1.553320e-06	-4.806635e-10	-1.080399e+01	-3.576099e+01
1.520000e-06	-1.508308e-06	-4.732060e-10	-1.049091e+01	-3.520291e+01
1.530000e-06	-1.463132e-06	-4.631135e-10	-1.017670e+01	-3.463414e+01
1.540000e-06	-1.417860e-06	-4.520433e-10	-9.861808e+00	-3.405413e+01
1.550000e-06	-1.372590e-06	-4.435655e-10	-9.546935e+00	-3.346233e+01
1.560000e-06	-1.327285e-06	-4.341298e-10	-9.231824e+00	-3.285816e+01
1.570000e-06	-1.281807e-06	-4.242297e-10	-8.915507e+00	-3.224105e+01
1.580000e-06	-1.236157e-06	-4.136971e-10	-8.597990e+00	-3.161043e+01
1.590000e-06	-1.190441e-06	-4.022328e-10	-8.280018e+00	-3.096571e+01
1.600000e-06	-1.144634e-06	-3.918808e-10	-7.961411e+00	-3.030631e+01
1.610000e-06	-1.098718e-06	-3.818099e-10	-7.642044e+00	-2.963167e+01
1.620000e-06	-1.052778e-06	-3.686986e-10	-7.322508e+00	-2.894122e+01
1.630000e-06	-1.006752e-06	-3.540751e-10	-7.002380e+00	-2.823442e+01
1.640000e-06	-9.606289e-07	-3.414618e-10	-6.681576e+00	-2.751073e+01
1.650000e-06	-9.144671e-07	-3.308557e-10	-6.360502e+00	-2.676966e+01
1.660000e-06	-8.682173e-07	-3.194015e-10	-6.038815e+00	-2.601071e+01
1.670000e-06	-8.219468e-07	-3.084295e-10	-5.716984e+00	-2.523345e+01
1.680000e-06	-7.757146e-07	-2.982672e-10	-5.395420e+00	-2.443746e+01
1.690000e-06	-7.293955e-07	-2.877334e-10	-5.073251e+00	-2.362237e+01
1.700000e-06	-6.829965e-07	-2.750063e-10	-4.750527e+00	-2.278786e+01
1.710000e-06	-6.365284e-07	-2.599215e-10	-4.427321e+00	-2.193363e+01
1.720000e-06	-5.900056e-07	-2.441718e-10	-4.103736e+00	-2.105948e+01
1.730000e-06	-5.434870e-07	-2.290323e-10	-3.780179e+00	-2.016523e+01
1.740000e-06	-4.968677e-07	-2.138792e-10	-3.455923e+00	-1.925077e+01
1.750000e-06	-4.501820e-07	-1.987998e-10	-3.131204e+00	-1.831606e+01
1.760000e-06	-4.035418e-07	-1.857014e-10	-2.806802e+00	-1.736113e+01
1.770000e-06	-3.569200e-07	-1.736027e-10	-2.482528e+00	-1.638607e+01
1.780000e-06	-3.101776e-07	-1.607715e-10	-2.157415e+00	-1.539105e+01
1.790000e-06	-2.633018e-07	-1.470674e-10	-1.831374e+00	-1.437630e+01
1.800000e-06	-2.164892e-07	-1.332301e-10	-1.505773e+00	-1.334214e+01
1.810000e-06	-1.696541e-07	-1.175348e-10	-1.180015e+00	-1.228897e+01
1.820000e-06	-1.227675e-07	-1.006360e-10	-8.538995e-01	-1.121725e+01
1.830000e-06	-7.594602e-08	-8.270702e-11	-5.282364e-01	-1.012753e+01
1.840000e-06	-2.912750e-08	-6.550353e-11	-2.025939e-01	-9.020430e+00
1.850000e-06	1.770101e-08	-5.188773e-11	1.231179e-01	-7.896657e+00
1.860000e-06	6.446894e-08	-4.038707e-11	4.484085e-01	-6.756978e+00
1.870000e-06	1.112651e-07	-2.579785e-11	7.738951e-01	-5.602240e+00
1.880000e-06	1.581525e-07	-9.745214e-12	1.100017e+00	-4.433355e+00
1.890000e-06	2.050320e-07	4.744702e-12	1.426084e+00	-3.251305e+00
1.900000e-06	2.519086e-07	1.997624e-11	1.752130e+00	-2.057131e+00
1.910000e-06	2.986809e-07	3.693991e-11	2.077451e+00	-8.519340e-01
1.920000e-06	3.454407e-07	5.513586e-11	2.402685e+00	3.631306e-01
1.930000e-06	3.922227e-07	7.600242e-11	2.728073e+00	1.586860e+00
1.940000e-06	4.388615e-07	9.727989e-11	3.052465e+00	2.818006e+00
1.950000e-06	4.854076e-07	1.159265e-10	3.376213e+00	4.055286e+00
1.960000e-06	5.319343e-07	1.313373e-10	3.699826e+00	5.297383e+00
1.970000e-06	5.784952e-07	1.456916e-10	4.023676e+00	6.542956e+00
1.980000e-06	6.250212e-07	1.620808e-10	4.347284e+00	7.790643e+00
1.990000e-06	6.714228e-07	1.786958e-10	4.670027e+00	9.039072e+00
2.000000e-06	7.177611e-07	1.944269e-10	4.992329e+00	1.028686e+01
2.010000e-06	7.641033e-07	2.135564e-10	5.314658e+00	1.153265e+01
2.020000e-06	8.104402e-07	2.333515e-10	5.636951e+00	1.277504e+01
2.030000e-06	8.567185e-07	2.541082e-10	5.958836e+00	1.401271e+01
2.040000e-06	9.028438e-07	2.765238e-10	6.279656e+00	1.524430e+01
2.050000e-06	9.488900e-07	2.951835e-10	6.599927e+00	1.646853e+01
2.060000e-06	9.949635e-07	3.102734e-10	6.920388e+00	1.768412e+01
2.070000e-06	1.040981e-06	3.234955e-10	7.240460e+00	1.888983e+01
2.080000e-06	1.086912e-06	3.371167e-10	7.559931e+00	2.008450e+01
2.090000e-06	1.132801e-06	3.509357e-10	7.879107e+00	2.126698e+01
2.100000e-06	1.178620e-06	3.690554e-10	8.197795e+00	2.243621e+01
2.110000e-06	1.224309e-06	3.899140e-10	8.515580e+00	2.359117e+01
2.120000e-06	1.269878e-06	4.100877e-10	8.832533e+00	2.473092e+01
2.130000e-06	1.315376e-06	4.279777e-10	9.148988e+00	2.585456e+01
2.140000e-06	1.360739e-06	4.440686e-10	9.464509e+00	2.696131e+01
2.150000e-06	1.405883e-06	4.571117e-10	9.778508e+00	2.805043e+01
2.160000e-06	1.450926e-06	4.676171e-10	1.009180e+01	2.912125e+01
2.170000e-06	1.495966e-06	4.794644e-10	1.040507e+01	3.017321e+01
2.180000e-06	1.540969e-06	4.931135e-10	1.071809e+01	3.120581e+01
2.190000e-06	1.585866e-06	5.083236e-10	1.103036e+01	3.221862e+01
2.200000e-06	1.630613e-06	5.249903e-10	1.134159e+01	3.321130e+01
2.210000e-06	1.675162e-06	5.400840e-10	1.165145e+01	3.418360e+01
2.220000e-06	1.719536e-06	5.523775e-10	1.196010e+01	3.513532e+01
2.230000e-06	1.763847e-06	5.626846e-10	1.226829e+01	3.606636e+01
2.240000e-06	1.808043e-06	5.750494e-10	1.257570e+01	3.697667e+01
2.250000e-06	1.852153e-06	5.887787e-10	1.288250e+01	3.786628e+01
2.260000e-06	1.896229e-06	6.011488e-10	1.318907e+01	3.873528e+01
2.270000e-06	1.940207e-06	6.130882e-10	1.349495e+01	3.958385e+01
2.280000e-06	1.984076e-06	6.241575e-10	1.380008e+01	4.041219e+01
2.290000e-06	2.027870e-06	6.342514e-10	1.410468e+01	4.122056e+01
2.300000e-06	2.071596e-06	6.435318e-10	1.440881e+01	4.200931e+01
2.310000e-06	2.115242e-06	6.534146e-10	1.471239e+01	4.277877e+01
2.320000e-06	2.158787e-06	6.642725e-10	1.501527e+01	4.352937e+01
2.330000e-06	2.202219e-06	6.761844e-10	1.531736e+01	4.426154e+01
2.340000e-06	2.245534e-06	6.891061e-10	1.561863e+01	4.497574e+01
2.350000e-06	2.288665e-06	7.015382e-10	1.591862e+01	4.567248e+01
2.360000e-06	2.331604e-06	7.099401e-10	1.621728e+01	4.635226e+01
2.370000e-06	2.374399e-06	7.152039e-10	1.651494e+01	4.701560e+01
2.380000e-06	2.416888e-06	7.203790e-10	1.681047e+01	4.766305e+01
2.390000e-06	2.458949e-06	7.286375e-10	1.710302e+01	4.829513e+01
2.400000e-06	2.500714e-06	7.376823e-10	1.739352e+01	4.891241e+01
2.410000e-06	2.542223e-06	7.463569e-10	1.768223e+01	4.951540e+01
2.420000e-06	2.583456e-06	7.568371e-10	1.796902e+01	5.010464e+01
2.430000e-06	2.624370e-06	7.697648e-10	1.825360e+01	5.068064e+01
2.440000e-06	2.664910e-06	7.793442e-10	1.853556e+01	5.124392e+01
2.450000e-06	2.705154e-06	7.833128e-10	1.881548e+01	5.179494e+01
2.460000e-06	2.745242e-06	7.852026e-10	1.909431e+01	5.233417e+01
2.470000e-06	2.785255e-06	7.891689e-10	1.937261e+01	5.286206e+01
2.480000e-06	2.825136e-06	7.948530e-10	1.965000e+01	5.337901e+01
2.490000e-06	2.864913e-06	8.007263e-10	1.992667e+01	5.388544e+01
2.500000e-06	2.904597e-06	8.076754e-10	2.020268e+01	5.438168e+01
2.510000e-06	2.944131e-06	8.153447e-10	2.047767e+01	5.486809e+01
2.520000e-06	2.983501e-06	8.232429e-10	2.075150e+01	5.534498e+01
2.530000e-06	3.022659e-06	8.300836e-10	2.102386e+01	5.581262e+01
2.540000e-06	3.061528e-06	8.377035e-10	2.129421e+01	5.627128e+01
2.550000e-06	3.100116e-06	8.466015e-10	2.156260e+01	5.672118e+01
2.560000e-06	3.138506e-06	8.533809e-10	2.182963e+01	5.716254e+01
2.570000e-06	3.176779e-06	8.563233e-10	2.209583e+01	5.759553e+01
2.580000e-06	3.214902e-06	8.580727e-10	2.236099e+01	5.802032e+01
2.590000e-06	3.252774e-06	8.615569e-10	2.262441e+01	5.843706e+01
2.600000e-06	3.290464e-06	8.668470e-10	2.288656e+01	5.884587e+01
2.610000e-06	3.327961e-06	8.729106e-10	2.314736e+01	5.924687e+01
2.620000e-06	3.365220e-06	8.793738e-10	2.340651e+01	5.964015e+01
2.630000e-06	3.402178e-06	8.872183e-10	2.366358e+01	6.002580e+01
2.640000e-06	3.438819e-06	8.949392e-10	2.391842e+01	6.040391e+01
2.650000e-06	3.475209e-06	9.010875e-10	2.417153e+01	6.077456e+01
2.660000e-06	3.511390e-06	9.103705e-10	2.442319e+01	6.113781e+01
2.670000e-06	3.547379e-06	9.168254e-10	2.467351e+01	6.149375e+01
2.680000e-06	3.583185e-06	9.192699e-10	2.492255e+01	6.184245e+01
2.690000e-06	3.618871e-06	9.201555e-10	2.517076e+01	6.218399e+01
2.700000e-06	3.654437e-06	9.189353e-10	2.541814e+01	6.251846e+01
2.710000e-06	3.689803e-06	9.221958e-10	2.566412e+01	6.284594e+01
2.720000e-06	3.724890e-06	9.295907e-10	2.590817e+01	6.316654e+01
2.730000e-06	3.759669e-06	9.379606e-10	2.615007e+01	6.348038e+01
2.740000e-06	3.794019e-06	9.460205e-10	2.638899e+01	6.378756e+01
2.750000e-06	3.827925e-06	9.525944e-10	2.662482e+01	6.408823e+01
2.760000e-06	3.861513e-06	9.557681e-10	2.685844e+01	6.438253e+01
2.770000e-06	3.894732e-06	9.549522e-10	2.708949e+01	6.467062e+01
2.780000e-06	3.927514e-06	9.518658e-10	2.731750e+01	6.495267e+01
2.790000e-06	3.959933e-06	9.512751e-10	2.754299e+01	6.522884e+01
2.800000e-06	3.992099e-06	9.529876e-10	2.776672e+01	6.549935e+01
2.810000e-06	4.024055e-06	9.573545e-10	2.798899e+01	6.576437e+01
2.820000e-06	4.055798e-06	9.637712e-10	2.820977e+01	6.602413e+01
2.830000e-06	4.087355e-06	9.688530e-10	2.842927e+01	6.627883e+01
2.840000e-06	4.118692e-06	9.735992e-10	2.864723e+01	6.652869e+01
2.850000e-06	4.149764e-06	9.780506e-10	2.886334e+01	6.677394e+01
2.860000e-06	4.180484e-06	9.814291e-10	2.907702e+01	6.701479e+01
2.870000e-06	4.210871e-06	9.839640e-10	2.928837e+01	6.725148e+01
2.880000e-06	4.241008e-06	9.846865e-10	2.949798e+01	6.748422e+01
2.890000e-06	4.270837e-06	9.849395e-10	2.970546e+01	6.771322e+01
2.900000e-06	4.300350e-06	9.846194e-10	2.991073e+01	6.793870e+01
2.910000e-06	4.329608e-06	9.856547e-10	3.011424e+01	6.816085e+01
