# Temperatura_=_-0.5
# Concentracion g/m^3_=_1620.0
# C_Vs_to_Am_M_A/Vsm_=_65563218390.804596
# pendiente_HvsI_1/m_=_3716.3
# ordenada_HvsI_A/m_=_1297.0
# frecuencia_Hz_=_135097.82389224847

Tiempo_(s)	Campo_(V.s)	Magnetizacion_(V.s)	Campo_(kA/m)	Magnetizacion_(A/m)
0.000000e+00	-5.533392e-06	-1.381223e-09	-3.838072e+01	-8.883446e+01
1.000000e-08	-5.533725e-06	-1.379353e-09	-3.838302e+01	-8.879571e+01
2.000000e-08	-5.533806e-06	-1.377263e-09	-3.838359e+01	-8.875553e+01
3.000000e-08	-5.533513e-06	-1.375923e-09	-3.838156e+01	-8.871390e+01
4.000000e-08	-5.532720e-06	-1.374816e-09	-3.837605e+01	-8.867079e+01
5.000000e-08	-5.531430e-06	-1.373834e-09	-3.836711e+01	-8.862616e+01
6.000000e-08	-5.529616e-06	-1.374985e-09	-3.835452e+01	-8.857997e+01
7.000000e-08	-5.527169e-06	-1.383411e-09	-3.833755e+01	-8.853218e+01
8.000000e-08	-5.524166e-06	-1.398222e-09	-3.831672e+01	-8.848273e+01
9.000000e-08	-5.520699e-06	-1.374484e-09	-3.829267e+01	-8.843158e+01
1.000000e-07	-5.516810e-06	-1.334072e-09	-3.826570e+01	-8.837868e+01
1.100000e-07	-5.512547e-06	-1.350376e-09	-3.823613e+01	-8.832396e+01
1.200000e-07	-5.507970e-06	-1.390199e-09	-3.820438e+01	-8.826737e+01
1.300000e-07	-5.503206e-06	-1.411800e-09	-3.817134e+01	-8.820886e+01
1.400000e-07	-5.498122e-06	-1.354523e-09	-3.813607e+01	-8.814835e+01
1.500000e-07	-5.492634e-06	-1.343824e-09	-3.809801e+01	-8.808579e+01
1.600000e-07	-5.486841e-06	-1.390627e-09	-3.805782e+01	-8.802113e+01
1.700000e-07	-5.480624e-06	-1.390033e-09	-3.801470e+01	-8.795430e+01
1.800000e-07	-5.473908e-06	-1.348345e-09	-3.796812e+01	-8.788524e+01
1.900000e-07	-5.466830e-06	-1.310682e-09	-3.791903e+01	-8.781389e+01
2.000000e-07	-5.459478e-06	-1.381752e-09	-3.786803e+01	-8.774020e+01
2.100000e-07	-5.451823e-06	-1.401520e-09	-3.781493e+01	-8.766411e+01
2.200000e-07	-5.443883e-06	-1.397401e-09	-3.775986e+01	-8.758556e+01
2.300000e-07	-5.435652e-06	-1.350546e-09	-3.770277e+01	-8.750449e+01
2.400000e-07	-5.427021e-06	-1.356359e-09	-3.764291e+01	-8.742085e+01
2.500000e-07	-5.417924e-06	-1.349136e-09	-3.757981e+01	-8.733459e+01
2.600000e-07	-5.408166e-06	-1.351628e-09	-3.751212e+01	-8.724566e+01
2.700000e-07	-5.397736e-06	-1.331538e-09	-3.743978e+01	-8.715400e+01
2.800000e-07	-5.386821e-06	-1.335813e-09	-3.736407e+01	-8.705956e+01
2.900000e-07	-5.375360e-06	-1.338385e-09	-3.728457e+01	-8.696229e+01
3.000000e-07	-5.363508e-06	-1.324625e-09	-3.720236e+01	-8.686214e+01
3.100000e-07	-5.351356e-06	-1.309846e-09	-3.711808e+01	-8.675907e+01
3.200000e-07	-5.338815e-06	-1.306827e-09	-3.703109e+01	-8.665301e+01
3.300000e-07	-5.325830e-06	-1.325671e-09	-3.694102e+01	-8.654394e+01
3.400000e-07	-5.312441e-06	-1.305055e-09	-3.684816e+01	-8.643179e+01
3.500000e-07	-5.298744e-06	-1.296285e-09	-3.675315e+01	-8.631653e+01
3.600000e-07	-5.284584e-06	-1.302562e-09	-3.665493e+01	-8.619810e+01
3.700000e-07	-5.269970e-06	-1.318540e-09	-3.655356e+01	-8.607646e+01
3.800000e-07	-5.254883e-06	-1.287919e-09	-3.644892e+01	-8.595156e+01
3.900000e-07	-5.239021e-06	-1.290881e-09	-3.633890e+01	-8.582337e+01
4.000000e-07	-5.222604e-06	-1.300041e-09	-3.622502e+01	-8.569184e+01
4.100000e-07	-5.206031e-06	-1.291306e-09	-3.611007e+01	-8.555693e+01
4.200000e-07	-5.189187e-06	-1.271491e-09	-3.599324e+01	-8.541860e+01
4.300000e-07	-5.172063e-06	-1.305311e-09	-3.587446e+01	-8.527681e+01
4.400000e-07	-5.154688e-06	-1.297325e-09	-3.575395e+01	-8.513152e+01
4.500000e-07	-5.136867e-06	-1.266934e-09	-3.563034e+01	-8.498271e+01
4.600000e-07	-5.118538e-06	-1.266786e-09	-3.550320e+01	-8.483034e+01
4.700000e-07	-5.099782e-06	-1.299130e-09	-3.537311e+01	-8.467439e+01
4.800000e-07	-5.080727e-06	-1.267566e-09	-3.524094e+01	-8.451483e+01
4.900000e-07	-5.061427e-06	-1.259512e-09	-3.510707e+01	-8.435164e+01
5.000000e-07	-5.041861e-06	-1.278772e-09	-3.497136e+01	-8.418480e+01
5.100000e-07	-5.022094e-06	-1.271252e-09	-3.483425e+01	-8.401431e+01
5.200000e-07	-5.002060e-06	-1.244117e-09	-3.469529e+01	-8.384015e+01
5.300000e-07	-4.981585e-06	-1.269988e-09	-3.455327e+01	-8.366233e+01
5.400000e-07	-4.960717e-06	-1.264342e-09	-3.440853e+01	-8.348084e+01
5.500000e-07	-4.939500e-06	-1.228539e-09	-3.426136e+01	-8.329569e+01
5.600000e-07	-4.917925e-06	-1.237585e-09	-3.411171e+01	-8.310689e+01
5.700000e-07	-4.896068e-06	-1.265162e-09	-3.396011e+01	-8.291446e+01
5.800000e-07	-4.873841e-06	-1.242105e-09	-3.380594e+01	-8.271843e+01
5.900000e-07	-4.851219e-06	-1.235131e-09	-3.364903e+01	-8.251882e+01
6.000000e-07	-4.828280e-06	-1.258522e-09	-3.348992e+01	-8.231566e+01
6.100000e-07	-4.805006e-06	-1.248854e-09	-3.332849e+01	-8.210900e+01
6.200000e-07	-4.781488e-06	-1.232493e-09	-3.316536e+01	-8.189886e+01
6.300000e-07	-4.757823e-06	-1.241470e-09	-3.300121e+01	-8.168531e+01
6.400000e-07	-4.733917e-06	-1.240426e-09	-3.283540e+01	-8.146838e+01
6.500000e-07	-4.709672e-06	-1.222123e-09	-3.266722e+01	-8.124814e+01
6.600000e-07	-4.684933e-06	-1.230173e-09	-3.249563e+01	-8.102463e+01
6.700000e-07	-4.659750e-06	-1.225456e-09	-3.232096e+01	-8.079791e+01
6.800000e-07	-4.634086e-06	-1.213492e-09	-3.214295e+01	-8.056804e+01
6.900000e-07	-4.607831e-06	-1.212456e-09	-3.196084e+01	-8.033508e+01
7.000000e-07	-4.581068e-06	-1.217281e-09	-3.177520e+01	-8.009908e+01
7.100000e-07	-4.553869e-06	-1.200119e-09	-3.158654e+01	-7.986010e+01
7.200000e-07	-4.526421e-06	-1.201044e-09	-3.139616e+01	-7.961819e+01
7.300000e-07	-4.498781e-06	-1.202028e-09	-3.120445e+01	-7.937340e+01
7.400000e-07	-4.470987e-06	-1.193246e-09	-3.101166e+01	-7.912578e+01
7.500000e-07	-4.443032e-06	-1.179178e-09	-3.081776e+01	-7.887536e+01
7.600000e-07	-4.414826e-06	-1.182385e-09	-3.062212e+01	-7.862219e+01
7.700000e-07	-4.386340e-06	-1.176204e-09	-3.042453e+01	-7.836628e+01
7.800000e-07	-4.357539e-06	-1.175021e-09	-3.022476e+01	-7.810766e+01
7.900000e-07	-4.328387e-06	-1.174718e-09	-3.002256e+01	-7.784633e+01
8.000000e-07	-4.298879e-06	-1.168649e-09	-2.981789e+01	-7.758230e+01
8.100000e-07	-4.269003e-06	-1.151267e-09	-2.961066e+01	-7.731555e+01
8.200000e-07	-4.238914e-06	-1.145647e-09	-2.940196e+01	-7.704606e+01
8.300000e-07	-4.208536e-06	-1.137827e-09	-2.919124e+01	-7.677381e+01
8.400000e-07	-4.177828e-06	-1.126074e-09	-2.897825e+01	-7.649875e+01
8.500000e-07	-4.146930e-06	-1.122987e-09	-2.876394e+01	-7.622081e+01
8.600000e-07	-4.115776e-06	-1.127582e-09	-2.854784e+01	-7.593995e+01
8.700000e-07	-4.084355e-06	-1.122578e-09	-2.832990e+01	-7.565606e+01
8.800000e-07	-4.052787e-06	-1.115377e-09	-2.811094e+01	-7.536907e+01
8.900000e-07	-4.021064e-06	-1.114252e-09	-2.789090e+01	-7.507886e+01
9.000000e-07	-3.989032e-06	-1.104899e-09	-2.766872e+01	-7.478533e+01
9.100000e-07	-3.956610e-06	-1.091447e-09	-2.744384e+01	-7.448834e+01
9.200000e-07	-3.923863e-06	-1.088024e-09	-2.721670e+01	-7.418776e+01
9.300000e-07	-3.890850e-06	-1.086548e-09	-2.698771e+01	-7.388345e+01
9.400000e-07	-3.857378e-06	-1.075490e-09	-2.675555e+01	-7.357524e+01
9.500000e-07	-3.823415e-06	-1.071139e-09	-2.651997e+01	-7.326299e+01
9.600000e-07	-3.788956e-06	-1.069535e-09	-2.628095e+01	-7.294651e+01
9.700000e-07	-3.754041e-06	-1.061489e-09	-2.603878e+01	-7.262565e+01
9.800000e-07	-3.718877e-06	-1.050161e-09	-2.579487e+01	-7.230021e+01
9.900000e-07	-3.683517e-06	-1.048840e-09	-2.554961e+01	-7.197003e+01
1.000000e-06	-3.648002e-06	-1.042364e-09	-2.530327e+01	-7.163493e+01
1.010000e-06	-3.612388e-06	-1.038011e-09	-2.505625e+01	-7.129473e+01
1.020000e-06	-3.576635e-06	-1.037884e-09	-2.480826e+01	-7.094926e+01
1.030000e-06	-3.540651e-06	-1.036943e-09	-2.455866e+01	-7.059834e+01
1.040000e-06	-3.504434e-06	-1.025987e-09	-2.430746e+01	-7.024182e+01
1.050000e-06	-3.467977e-06	-1.020219e-09	-2.405458e+01	-6.987953e+01
1.060000e-06	-3.431210e-06	-1.016386e-09	-2.379956e+01	-6.951133e+01
1.070000e-06	-3.394141e-06	-1.009422e-09	-2.354244e+01	-6.913708e+01
1.080000e-06	-3.356852e-06	-9.989022e-10	-2.328380e+01	-6.875666e+01
1.090000e-06	-3.319372e-06	-9.961526e-10	-2.302383e+01	-6.836995e+01
1.100000e-06	-3.281681e-06	-9.901883e-10	-2.276240e+01	-6.797685e+01
1.110000e-06	-3.243711e-06	-9.817529e-10	-2.249903e+01	-6.757728e+01
1.120000e-06	-3.205445e-06	-9.762867e-10	-2.223361e+01	-6.717118e+01
1.130000e-06	-3.167020e-06	-9.717690e-10	-2.196709e+01	-6.675849e+01
1.140000e-06	-3.128453e-06	-9.621223e-10	-2.169958e+01	-6.633917e+01
1.150000e-06	-3.089612e-06	-9.538981e-10	-2.143016e+01	-6.591321e+01
1.160000e-06	-3.050520e-06	-9.478894e-10	-2.115902e+01	-6.548061e+01
1.170000e-06	-3.011305e-06	-9.403455e-10	-2.088702e+01	-6.504138e+01
1.180000e-06	-2.971983e-06	-9.319650e-10	-2.061427e+01	-6.459554e+01
1.190000e-06	-2.932516e-06	-9.266274e-10	-2.034052e+01	-6.414316e+01
1.200000e-06	-2.892909e-06	-9.220412e-10	-2.006580e+01	-6.368428e+01
1.210000e-06	-2.853160e-06	-9.154006e-10	-1.979009e+01	-6.321898e+01
1.220000e-06	-2.813276e-06	-9.078097e-10	-1.951345e+01	-6.274734e+01
1.230000e-06	-2.773278e-06	-8.962635e-10	-1.923601e+01	-6.226945e+01
1.240000e-06	-2.733082e-06	-8.847013e-10	-1.895720e+01	-6.178542e+01
1.250000e-06	-2.692635e-06	-8.762139e-10	-1.867665e+01	-6.129534e+01
1.260000e-06	-2.651899e-06	-8.717247e-10	-1.839411e+01	-6.079934e+01
1.270000e-06	-2.610779e-06	-8.649534e-10	-1.810888e+01	-6.029751e+01
1.280000e-06	-2.569354e-06	-8.592130e-10	-1.782156e+01	-5.978997e+01
1.290000e-06	-2.527673e-06	-8.535385e-10	-1.753245e+01	-5.927682e+01
1.300000e-06	-2.485647e-06	-8.463457e-10	-1.724094e+01	-5.875815e+01
1.310000e-06	-2.443273e-06	-8.347947e-10	-1.694703e+01	-5.823404e+01
1.320000e-06	-2.400615e-06	-8.234475e-10	-1.665115e+01	-5.770457e+01
1.330000e-06	-2.357713e-06	-8.124508e-10	-1.635357e+01	-5.716978e+01
1.340000e-06	-2.314623e-06	-8.031691e-10	-1.605469e+01	-5.662972e+01
1.350000e-06	-2.271337e-06	-7.956846e-10	-1.575445e+01	-5.608440e+01
1.360000e-06	-2.227856e-06	-7.901038e-10	-1.545285e+01	-5.553380e+01
1.370000e-06	-2.184335e-06	-7.820981e-10	-1.515099e+01	-5.497787e+01
1.380000e-06	-2.140765e-06	-7.727139e-10	-1.484877e+01	-5.441656e+01
1.390000e-06	-2.097070e-06	-7.630715e-10	-1.454569e+01	-5.384975e+01
1.400000e-06	-2.053346e-06	-7.518405e-10	-1.424242e+01	-5.327730e+01
1.410000e-06	-2.009568e-06	-7.388364e-10	-1.393877e+01	-5.269905e+01
1.420000e-06	-1.965665e-06	-7.282255e-10	-1.363424e+01	-5.211477e+01
1.430000e-06	-1.921638e-06	-7.193288e-10	-1.332887e+01	-5.152422e+01
1.440000e-06	-1.877476e-06	-7.098088e-10	-1.302255e+01	-5.092711e+01
1.450000e-06	-1.833255e-06	-6.982269e-10	-1.271583e+01	-5.032309e+01
1.460000e-06	-1.788918e-06	-6.859390e-10	-1.240830e+01	-4.971179e+01
1.470000e-06	-1.744385e-06	-6.739342e-10	-1.209940e+01	-4.909281e+01
1.480000e-06	-1.699689e-06	-6.641585e-10	-1.178938e+01	-4.846569e+01
1.490000e-06	-1.654800e-06	-6.565818e-10	-1.147802e+01	-4.782993e+01
1.500000e-06	-1.609755e-06	-6.493116e-10	-1.116558e+01	-4.718501e+01
1.510000e-06	-1.564674e-06	-6.411776e-10	-1.085289e+01	-4.653036e+01
1.520000e-06	-1.519530e-06	-6.304850e-10	-1.053977e+01	-4.586537e+01
1.530000e-06	-1.474320e-06	-6.183964e-10	-1.022618e+01	-4.518943e+01
1.540000e-06	-1.429039e-06	-6.077619e-10	-9.912098e+00	-4.450188e+01
1.550000e-06	-1.383614e-06	-5.970079e-10	-9.597020e+00	-4.380204e+01
1.560000e-06	-1.338067e-06	-5.862092e-10	-9.281102e+00	-4.308921e+01
1.570000e-06	-1.292460e-06	-5.764156e-10	-8.964762e+00	-4.236267e+01
1.580000e-06	-1.246817e-06	-5.657416e-10	-8.648175e+00	-4.162169e+01
1.590000e-06	-1.201031e-06	-5.524840e-10	-8.330589e+00	-4.086556e+01
1.600000e-06	-1.155193e-06	-5.386608e-10	-8.012646e+00	-4.009352e+01
1.610000e-06	-1.109320e-06	-5.271879e-10	-7.694464e+00	-3.930487e+01
1.620000e-06	-1.063356e-06	-5.150093e-10	-7.375647e+00	-3.849886e+01
1.630000e-06	-1.017294e-06	-5.012264e-10	-7.056153e+00	-3.767481e+01
1.640000e-06	-9.710469e-07	-4.855292e-10	-6.735376e+00	-3.683202e+01
1.650000e-06	-9.247095e-07	-4.704285e-10	-6.413970e+00	-3.596984e+01
1.660000e-06	-8.783217e-07	-4.552866e-10	-6.092215e+00	-3.508764e+01
1.670000e-06	-8.319079e-07	-4.420503e-10	-5.770279e+00	-3.418483e+01
1.680000e-06	-7.854108e-07	-4.294922e-10	-5.447766e+00	-3.326088e+01
1.690000e-06	-7.388169e-07	-4.165714e-10	-5.124582e+00	-3.231528e+01
1.700000e-06	-6.922018e-07	-4.010066e-10	-4.801250e+00	-3.134759e+01
1.710000e-06	-6.455556e-07	-3.836231e-10	-4.477703e+00	-3.035743e+01
1.720000e-06	-5.988918e-07	-3.669375e-10	-4.154033e+00	-2.934447e+01
1.730000e-06	-5.521961e-07	-3.513548e-10	-3.830143e+00	-2.830847e+01
1.740000e-06	-5.054553e-07	-3.361785e-10	-3.505939e+00	-2.724924e+01
1.750000e-06	-4.587411e-07	-3.195724e-10	-3.181920e+00	-2.616668e+01
1.760000e-06	-4.119782e-07	-3.023216e-10	-2.857563e+00	-2.506076e+01
1.770000e-06	-3.651002e-07	-2.872167e-10	-2.532408e+00	-2.393153e+01
1.780000e-06	-3.181518e-07	-2.716811e-10	-2.206765e+00	-2.277913e+01
1.790000e-06	-2.711244e-07	-2.539637e-10	-1.880573e+00	-2.160377e+01
1.800000e-06	-2.241048e-07	-2.365313e-10	-1.554436e+00	-2.040578e+01
1.810000e-06	-1.771417e-07	-2.195233e-10	-1.228691e+00	-1.918553e+01
1.820000e-06	-1.302465e-07	-2.024256e-10	-9.034158e-01	-1.794350e+01
1.830000e-06	-8.336199e-08	-1.859341e-10	-5.782155e-01	-1.668027e+01
1.840000e-06	-3.647990e-08	-1.684589e-10	-2.530319e-01	-1.539647e+01
1.850000e-06	1.039585e-08	-1.497525e-10	7.210768e-02	-1.409285e+01
1.860000e-06	5.734520e-08	-1.309327e-10	3.977578e-01	-1.277020e+01
1.870000e-06	1.043551e-07	-1.097964e-10	7.238276e-01	-1.142943e+01
1.880000e-06	1.513503e-07	-8.998012e-11	1.049796e+00	-1.007148e+01
1.890000e-06	1.982687e-07	-7.306239e-11	1.375232e+00	-8.697404e+00
1.900000e-06	2.451992e-07	-5.641382e-11	1.700750e+00	-7.308286e+00
1.910000e-06	2.921286e-07	-3.888742e-11	2.026262e+00	-5.905289e+00
1.920000e-06	3.389953e-07	-2.075643e-11	2.351339e+00	-4.489627e+00
1.930000e-06	3.858000e-07	3.940184e-13	2.675986e+00	-3.062564e+00
1.940000e-06	4.326625e-07	2.343190e-11	3.001033e+00	-1.625408e+00
1.950000e-06	4.795181e-07	4.639700e-11	3.326034e+00	-1.795073e-01
1.960000e-06	5.262612e-07	6.754048e-11	3.650253e+00	1.273762e+00
1.970000e-06	5.729712e-07	8.547131e-11	3.974243e+00	2.732997e+00
1.980000e-06	6.196529e-07	1.014426e-10	4.298037e+00	4.196777e+00
1.990000e-06	6.662430e-07	1.180319e-10	4.621195e+00	5.663670e+00
2.000000e-06	7.127101e-07	1.349298e-10	4.943500e+00	7.132240e+00
2.010000e-06	7.591381e-07	1.553180e-10	5.265534e+00	8.601053e+00
2.020000e-06	8.055126e-07	1.786427e-10	5.587197e+00	1.006868e+01
2.030000e-06	8.517898e-07	2.044062e-10	5.908184e+00	1.153373e+01
2.040000e-06	8.980791e-07	2.299890e-10	6.229257e+00	1.299479e+01
2.050000e-06	9.443481e-07	2.528163e-10	6.550188e+00	1.445052e+01
2.060000e-06	9.904516e-07	2.725395e-10	6.869971e+00	1.589960e+01
2.070000e-06	1.036510e-06	2.898971e-10	7.189442e+00	1.734073e+01
2.080000e-06	1.082549e-06	3.043373e-10	7.508775e+00	1.877268e+01
2.090000e-06	1.128433e-06	3.192038e-10	7.827035e+00	2.019428e+01
2.100000e-06	1.174266e-06	3.401001e-10	8.144946e+00	2.160437e+01
2.110000e-06	1.220032e-06	3.634528e-10	8.462385e+00	2.300190e+01
2.120000e-06	1.265634e-06	3.872337e-10	8.778689e+00	2.438584e+01
2.130000e-06	1.311180e-06	4.092711e-10	9.094604e+00	2.575526e+01
2.140000e-06	1.356647e-06	4.296719e-10	9.409972e+00	2.710928e+01
2.150000e-06	1.402074e-06	4.453951e-10	9.725064e+00	2.844710e+01
2.160000e-06	1.447471e-06	4.594973e-10	1.003995e+01	2.976797e+01
2.170000e-06	1.492727e-06	4.753245e-10	1.035386e+01	3.107125e+01
2.180000e-06	1.537919e-06	4.928756e-10	1.066731e+01	3.235633e+01
2.190000e-06	1.582966e-06	5.127077e-10	1.097977e+01	3.362272e+01
2.200000e-06	1.627784e-06	5.334038e-10	1.129064e+01	3.486996e+01
2.210000e-06	1.672473e-06	5.504822e-10	1.160061e+01	3.609769e+01
2.220000e-06	1.717021e-06	5.643282e-10	1.190960e+01	3.730561e+01
2.230000e-06	1.761343e-06	5.787223e-10	1.221703e+01	3.849349e+01
2.240000e-06	1.805494e-06	5.944406e-10	1.252327e+01	3.966117e+01
2.250000e-06	1.849603e-06	6.099292e-10	1.282922e+01	4.080854e+01
2.260000e-06	1.893652e-06	6.277197e-10	1.313475e+01	4.193556e+01
2.270000e-06	1.937595e-06	6.445999e-10	1.343955e+01	4.304226e+01
2.280000e-06	1.981462e-06	6.593902e-10	1.374382e+01	4.412870e+01
2.290000e-06	2.025268e-06	6.744286e-10	1.404767e+01	4.519500e+01
2.300000e-06	2.069002e-06	6.898020e-10	1.435101e+01	4.624133e+01
2.310000e-06	2.112664e-06	7.021264e-10	1.465386e+01	4.726790e+01
2.320000e-06	2.156224e-06	7.138799e-10	1.495600e+01	4.827493e+01
2.330000e-06	2.199737e-06	7.291984e-10	1.525781e+01	4.926272e+01
2.340000e-06	2.243199e-06	7.451596e-10	1.555928e+01	5.023156e+01
2.350000e-06	2.286490e-06	7.606967e-10	1.585955e+01	5.118178e+01
2.360000e-06	2.329620e-06	7.737126e-10	1.615871e+01	5.211371e+01
2.370000e-06	2.372558e-06	7.859445e-10	1.645653e+01	5.302774e+01
2.380000e-06	2.415118e-06	7.977199e-10	1.675174e+01	5.392421e+01
2.390000e-06	2.457330e-06	8.098570e-10	1.704453e+01	5.480351e+01
2.400000e-06	2.499322e-06	8.222067e-10	1.733579e+01	5.566602e+01
2.410000e-06	2.541122e-06	8.365156e-10	1.762573e+01	5.651211e+01
2.420000e-06	2.582658e-06	8.524481e-10	1.791383e+01	5.734216e+01
2.430000e-06	2.623801e-06	8.655442e-10	1.819921e+01	5.815654e+01
2.440000e-06	2.664635e-06	8.759927e-10	1.848244e+01	5.895559e+01
2.450000e-06	2.705239e-06	8.846367e-10	1.876408e+01	5.973967e+01
2.460000e-06	2.745558e-06	8.923158e-10	1.904374e+01	6.050911e+01
2.470000e-06	2.785632e-06	9.012261e-10	1.932170e+01	6.126420e+01
2.480000e-06	2.825565e-06	9.122188e-10	1.959869e+01	6.200526e+01
2.490000e-06	2.865389e-06	9.232439e-10	1.987491e+01	6.273256e+01
2.500000e-06	2.905118e-06	9.328915e-10	2.015048e+01	6.344634e+01
2.510000e-06	2.944752e-06	9.434967e-10	2.042539e+01	6.414685e+01
2.520000e-06	2.984218e-06	9.537558e-10	2.069913e+01	6.483430e+01
2.530000e-06	3.023462e-06	9.633810e-10	2.097134e+01	6.550889e+01
2.540000e-06	3.062596e-06	9.733539e-10	2.124278e+01	6.617079e+01
2.550000e-06	3.101546e-06	9.848221e-10	2.151294e+01	6.682016e+01
2.560000e-06	3.140159e-06	9.948199e-10	2.178077e+01	6.745713e+01
2.570000e-06	3.178491e-06	1.002893e-09	2.204665e+01	6.808182e+01
2.580000e-06	3.216596e-06	1.009798e-09	2.231095e+01	6.869434e+01
2.590000e-06	3.254489e-06	1.017025e-09	2.257379e+01	6.929478e+01
2.600000e-06	3.292195e-06	1.025475e-09	2.283533e+01	6.988321e+01
2.610000e-06	3.329718e-06	1.033343e-09	2.309559e+01	7.045971e+01
2.620000e-06	3.367043e-06	1.039738e-09	2.335449e+01	7.102433e+01
2.630000e-06	3.404169e-06	1.046039e-09	2.361200e+01	7.157713e+01
2.640000e-06	3.441028e-06	1.054240e-09	2.386766e+01	7.211815e+01
2.650000e-06	3.477534e-06	1.063779e-09	2.412087e+01	7.264744e+01
2.660000e-06	3.513756e-06	1.073824e-09	2.437212e+01	7.316504e+01
2.670000e-06	3.549870e-06	1.080570e-09	2.462261e+01	7.367100e+01
2.680000e-06	3.585795e-06	1.084191e-09	2.487179e+01	7.416537e+01
2.690000e-06	3.621520e-06	1.087988e-09	2.511958e+01	7.464820e+01
2.700000e-06	3.657137e-06	1.091187e-09	2.536663e+01	7.511955e+01
2.710000e-06	3.692601e-06	1.095872e-09	2.561262e+01	7.557949e+01
2.720000e-06	3.727859e-06	1.103380e-09	2.585718e+01	7.602810e+01
2.730000e-06	3.762843e-06	1.110417e-09	2.609983e+01	7.646546e+01
2.740000e-06	3.797534e-06	1.117809e-09	2.634046e+01	7.689169e+01
2.750000e-06	3.831889e-06	1.123744e-09	2.657875e+01	7.730689e+01
2.760000e-06	3.865788e-06	1.127811e-09	2.681388e+01	7.771118e+01
2.770000e-06	3.899269e-06	1.131320e-09	2.704611e+01	7.810471e+01
2.780000e-06	3.932289e-06	1.133121e-09	2.727514e+01	7.848763e+01
2.790000e-06	3.964815e-06	1.135755e-09	2.750075e+01	7.886011e+01
2.800000e-06	3.996971e-06	1.139026e-09	2.772379e+01	7.922233e+01
2.810000e-06	4.028860e-06	1.143936e-09	2.794498e+01	7.957447e+01
2.820000e-06	4.060584e-06	1.151500e-09	2.816502e+01	7.991676e+01
2.830000e-06	4.092114e-06	1.157493e-09	2.838372e+01	8.024940e+01
2.840000e-06	4.123468e-06	1.162711e-09	2.860120e+01	8.057262e+01
2.850000e-06	4.154664e-06	1.168890e-09	2.881758e+01	8.088666e+01
2.860000e-06	4.185575e-06	1.171590e-09	2.903198e+01	8.119176e+01
2.870000e-06	4.216140e-06	1.174042e-09	2.924399e+01	8.148819e+01
2.880000e-06	4.246391e-06	1.175800e-09	2.945382e+01	8.177620e+01
2.890000e-06	4.276361e-06	1.175229e-09	2.966169e+01	8.205604e+01
2.900000e-06	4.306040e-06	1.174693e-09	2.986755e+01	8.232799e+01
