# Temperatura_=_-20.12
# Concentracion g/m^3_=_1620.0
# C_Vs_to_Am_M_A/Vsm_=_65563218390.804596
# pendiente_HvsI_1/m_=_3716.3
# ordenada_HvsI_A/m_=_1297.0
# frecuencia_Hz_=_135101.5128712164

Tiempo_(s)	Campo_(V.s)	Magnetizacion_(V.s)	Campo_(kA/m)	Magnetizacion_(A/m)
0.000000e+00	-5.517337e-06	-7.583076e-10	-3.837148e+01	-4.917796e+01
1.000000e-08	-5.517666e-06	-7.559307e-10	-3.837376e+01	-4.912993e+01
2.000000e-08	-5.517774e-06	-7.554564e-10	-3.837451e+01	-4.907868e+01
3.000000e-08	-5.517653e-06	-7.568526e-10	-3.837368e+01	-4.902435e+01
4.000000e-08	-5.517040e-06	-7.575350e-10	-3.836941e+01	-4.896709e+01
5.000000e-08	-5.515820e-06	-7.574761e-10	-3.836092e+01	-4.890708e+01
6.000000e-08	-5.514063e-06	-7.527657e-10	-3.834870e+01	-4.884450e+01
7.000000e-08	-5.511582e-06	-7.380985e-10	-3.833145e+01	-4.877955e+01
8.000000e-08	-5.508559e-06	-7.451268e-10	-3.831043e+01	-4.871245e+01
9.000000e-08	-5.505217e-06	-7.717144e-10	-3.828719e+01	-4.864344e+01
1.000000e-07	-5.501361e-06	-7.626734e-10	-3.826037e+01	-4.857274e+01
1.100000e-07	-5.497008e-06	-7.128197e-10	-3.823009e+01	-4.850062e+01
1.200000e-07	-5.492415e-06	-7.385938e-10	-3.819815e+01	-4.842732e+01
1.300000e-07	-5.487687e-06	-7.498117e-10	-3.816527e+01	-4.835313e+01
1.400000e-07	-5.482686e-06	-7.748267e-10	-3.813049e+01	-4.827830e+01
1.500000e-07	-5.477268e-06	-7.186563e-10	-3.809281e+01	-4.820311e+01
1.600000e-07	-5.471507e-06	-7.460802e-10	-3.805274e+01	-4.812784e+01
1.700000e-07	-5.465363e-06	-7.693587e-10	-3.801001e+01	-4.805276e+01
1.800000e-07	-5.458706e-06	-7.567071e-10	-3.796371e+01	-4.797816e+01
1.900000e-07	-5.451667e-06	-7.137004e-10	-3.791476e+01	-4.790429e+01
2.000000e-07	-5.444314e-06	-7.076596e-10	-3.786362e+01	-4.783143e+01
2.100000e-07	-5.436672e-06	-7.414920e-10	-3.781047e+01	-4.775983e+01
2.200000e-07	-5.428799e-06	-7.332695e-10	-3.775572e+01	-4.768973e+01
2.300000e-07	-5.420687e-06	-7.250621e-10	-3.769930e+01	-4.762138e+01
2.400000e-07	-5.412235e-06	-7.102352e-10	-3.764052e+01	-4.755500e+01
2.500000e-07	-5.403257e-06	-7.283773e-10	-3.757808e+01	-4.749080e+01
2.600000e-07	-5.393557e-06	-6.990200e-10	-3.751063e+01	-4.742897e+01
2.700000e-07	-5.383116e-06	-7.053296e-10	-3.743801e+01	-4.736969e+01
2.800000e-07	-5.372098e-06	-6.979769e-10	-3.736138e+01	-4.731311e+01
2.900000e-07	-5.360681e-06	-7.184792e-10	-3.728198e+01	-4.725936e+01
3.000000e-07	-5.348948e-06	-6.978901e-10	-3.720038e+01	-4.720858e+01
3.100000e-07	-5.336902e-06	-7.114937e-10	-3.711661e+01	-4.716084e+01
3.200000e-07	-5.324422e-06	-6.992615e-10	-3.702981e+01	-4.711621e+01
3.300000e-07	-5.311470e-06	-7.169843e-10	-3.693973e+01	-4.707476e+01
3.400000e-07	-5.298109e-06	-7.084893e-10	-3.684681e+01	-4.703649e+01
3.500000e-07	-5.284412e-06	-7.063919e-10	-3.675155e+01	-4.700141e+01
3.600000e-07	-5.270352e-06	-6.967755e-10	-3.665377e+01	-4.696950e+01
3.700000e-07	-5.255848e-06	-7.226608e-10	-3.655290e+01	-4.694069e+01
3.800000e-07	-5.240863e-06	-7.026214e-10	-3.644868e+01	-4.691493e+01
3.900000e-07	-5.225304e-06	-6.879655e-10	-3.634047e+01	-4.689212e+01
4.000000e-07	-5.209101e-06	-7.095518e-10	-3.622778e+01	-4.687213e+01
4.100000e-07	-5.192457e-06	-7.204688e-10	-3.611203e+01	-4.685482e+01
4.200000e-07	-5.175553e-06	-6.909284e-10	-3.599447e+01	-4.684005e+01
4.300000e-07	-5.158349e-06	-7.030297e-10	-3.587482e+01	-4.682762e+01
4.400000e-07	-5.140915e-06	-7.392287e-10	-3.575357e+01	-4.681733e+01
4.500000e-07	-5.123155e-06	-6.949055e-10	-3.563006e+01	-4.680898e+01
4.600000e-07	-5.104897e-06	-6.750304e-10	-3.550308e+01	-4.680232e+01
4.700000e-07	-5.086187e-06	-7.121203e-10	-3.537295e+01	-4.679712e+01
4.800000e-07	-5.067106e-06	-7.092482e-10	-3.524025e+01	-4.679313e+01
4.900000e-07	-5.047687e-06	-6.673999e-10	-3.510520e+01	-4.679007e+01
5.000000e-07	-5.028066e-06	-7.167062e-10	-3.496874e+01	-4.678767e+01
5.100000e-07	-5.008268e-06	-7.285462e-10	-3.483105e+01	-4.678566e+01
5.200000e-07	-4.988238e-06	-6.813991e-10	-3.469174e+01	-4.678375e+01
5.300000e-07	-4.967898e-06	-6.890040e-10	-3.455029e+01	-4.678166e+01
5.400000e-07	-4.947159e-06	-7.328311e-10	-3.440606e+01	-4.677911e+01
5.500000e-07	-4.926024e-06	-6.761848e-10	-3.425907e+01	-4.677581e+01
5.600000e-07	-4.904562e-06	-6.646848e-10	-3.410981e+01	-4.677148e+01
5.700000e-07	-4.882757e-06	-7.139484e-10	-3.395815e+01	-4.676587e+01
5.800000e-07	-4.860655e-06	-7.051662e-10	-3.380445e+01	-4.675870e+01
5.900000e-07	-4.838197e-06	-6.660838e-10	-3.364826e+01	-4.674974e+01
6.000000e-07	-4.815366e-06	-7.098907e-10	-3.348947e+01	-4.673873e+01
6.100000e-07	-4.792270e-06	-7.108523e-10	-3.332884e+01	-4.672545e+01
6.200000e-07	-4.768890e-06	-6.757172e-10	-3.316625e+01	-4.670969e+01
6.300000e-07	-4.745292e-06	-6.919320e-10	-3.300213e+01	-4.669126e+01
6.400000e-07	-4.721440e-06	-7.157657e-10	-3.283624e+01	-4.666999e+01
6.500000e-07	-4.697268e-06	-6.830921e-10	-3.266814e+01	-4.664571e+01
6.600000e-07	-4.672788e-06	-6.862806e-10	-3.249788e+01	-4.661828e+01
6.700000e-07	-4.647884e-06	-7.072503e-10	-3.232468e+01	-4.658759e+01
6.800000e-07	-4.622388e-06	-6.908479e-10	-3.214737e+01	-4.655353e+01
6.900000e-07	-4.596253e-06	-6.825987e-10	-3.196560e+01	-4.651603e+01
7.000000e-07	-4.569558e-06	-7.017774e-10	-3.177995e+01	-4.647504e+01
7.100000e-07	-4.542450e-06	-6.939347e-10	-3.159142e+01	-4.643050e+01
7.200000e-07	-4.515056e-06	-6.794292e-10	-3.140091e+01	-4.638241e+01
7.300000e-07	-4.487472e-06	-6.938956e-10	-3.120906e+01	-4.633076e+01
7.400000e-07	-4.459755e-06	-6.959002e-10	-3.101630e+01	-4.627558e+01
7.500000e-07	-4.431844e-06	-6.834435e-10	-3.082219e+01	-4.621690e+01
7.600000e-07	-4.403621e-06	-6.847486e-10	-3.062590e+01	-4.615478e+01
7.700000e-07	-4.375097e-06	-6.910010e-10	-3.042753e+01	-4.608929e+01
7.800000e-07	-4.346278e-06	-6.788626e-10	-3.022710e+01	-4.602051e+01
7.900000e-07	-4.317105e-06	-6.808912e-10	-3.002421e+01	-4.594854e+01
8.000000e-07	-4.287590e-06	-6.864329e-10	-2.981894e+01	-4.587350e+01
8.100000e-07	-4.257811e-06	-6.821898e-10	-2.961184e+01	-4.579549e+01
8.200000e-07	-4.227801e-06	-6.709879e-10	-2.940313e+01	-4.571464e+01
8.300000e-07	-4.197520e-06	-6.774164e-10	-2.919253e+01	-4.563110e+01
8.400000e-07	-4.166922e-06	-6.732379e-10	-2.897973e+01	-4.554498e+01
8.500000e-07	-4.135963e-06	-6.695541e-10	-2.876442e+01	-4.545644e+01
8.600000e-07	-4.104746e-06	-6.711514e-10	-2.854731e+01	-4.536560e+01
8.700000e-07	-4.073356e-06	-6.753101e-10	-2.832901e+01	-4.527261e+01
8.800000e-07	-4.041816e-06	-6.666098e-10	-2.810966e+01	-4.517761e+01
8.900000e-07	-4.010139e-06	-6.700604e-10	-2.788935e+01	-4.508072e+01
9.000000e-07	-3.978330e-06	-6.722467e-10	-2.766813e+01	-4.498206e+01
9.100000e-07	-3.946323e-06	-6.665272e-10	-2.744553e+01	-4.488175e+01
9.200000e-07	-3.913913e-06	-6.620224e-10	-2.722013e+01	-4.477990e+01
9.300000e-07	-3.880997e-06	-6.683150e-10	-2.699121e+01	-4.467660e+01
9.400000e-07	-3.847561e-06	-6.630767e-10	-2.675867e+01	-4.457193e+01
9.500000e-07	-3.813712e-06	-6.557616e-10	-2.652326e+01	-4.446596e+01
9.600000e-07	-3.779504e-06	-6.583475e-10	-2.628535e+01	-4.435875e+01
9.700000e-07	-3.744859e-06	-6.576006e-10	-2.604441e+01	-4.425033e+01
9.800000e-07	-3.709822e-06	-6.490000e-10	-2.580074e+01	-4.414072e+01
9.900000e-07	-3.674524e-06	-6.506529e-10	-2.555525e+01	-4.402995e+01
1.000000e-06	-3.639074e-06	-6.550030e-10	-2.530870e+01	-4.391798e+01
1.010000e-06	-3.603471e-06	-6.502890e-10	-2.506110e+01	-4.380480e+01
1.020000e-06	-3.567717e-06	-6.491050e-10	-2.481244e+01	-4.369037e+01
1.030000e-06	-3.531821e-06	-6.499739e-10	-2.456279e+01	-4.357463e+01
1.040000e-06	-3.495711e-06	-6.439292e-10	-2.431165e+01	-4.345750e+01
1.050000e-06	-3.459247e-06	-6.354372e-10	-2.405806e+01	-4.333888e+01
1.060000e-06	-3.422472e-06	-6.356242e-10	-2.380230e+01	-4.321869e+01
1.070000e-06	-3.385549e-06	-6.323976e-10	-2.354551e+01	-4.309679e+01
1.080000e-06	-3.348445e-06	-6.277850e-10	-2.328746e+01	-4.297305e+01
1.090000e-06	-3.311141e-06	-6.269306e-10	-2.302803e+01	-4.284733e+01
1.100000e-06	-3.273572e-06	-6.294572e-10	-2.276674e+01	-4.271948e+01
1.110000e-06	-3.235672e-06	-6.249715e-10	-2.250316e+01	-4.258932e+01
1.120000e-06	-3.197539e-06	-6.231450e-10	-2.223795e+01	-4.245669e+01
1.130000e-06	-3.159207e-06	-6.205952e-10	-2.197137e+01	-4.232141e+01
1.140000e-06	-3.120679e-06	-6.171066e-10	-2.170342e+01	-4.218329e+01
1.150000e-06	-3.081941e-06	-6.116547e-10	-2.143401e+01	-4.204214e+01
1.160000e-06	-3.043015e-06	-6.112295e-10	-2.116328e+01	-4.189778e+01
1.170000e-06	-3.003913e-06	-6.098000e-10	-2.089135e+01	-4.175000e+01
1.180000e-06	-2.964618e-06	-6.087473e-10	-2.061806e+01	-4.159861e+01
1.190000e-06	-2.925140e-06	-6.084239e-10	-2.034350e+01	-4.144343e+01
1.200000e-06	-2.885531e-06	-6.084833e-10	-2.006803e+01	-4.128427e+01
1.210000e-06	-2.845813e-06	-6.051031e-10	-1.979180e+01	-4.112093e+01
1.220000e-06	-2.805974e-06	-6.029566e-10	-1.951474e+01	-4.095325e+01
1.230000e-06	-2.766025e-06	-6.006557e-10	-1.923690e+01	-4.078104e+01
1.240000e-06	-2.725870e-06	-5.966962e-10	-1.895764e+01	-4.060414e+01
1.250000e-06	-2.685515e-06	-5.924890e-10	-1.867697e+01	-4.042239e+01
1.260000e-06	-2.644957e-06	-5.909939e-10	-1.839491e+01	-4.023564e+01
1.270000e-06	-2.604132e-06	-5.881516e-10	-1.811098e+01	-4.004373e+01
1.280000e-06	-2.563077e-06	-5.834598e-10	-1.782546e+01	-3.984654e+01
1.290000e-06	-2.521742e-06	-5.806460e-10	-1.753798e+01	-3.964395e+01
1.300000e-06	-2.480074e-06	-5.776886e-10	-1.724820e+01	-3.943582e+01
1.310000e-06	-2.438099e-06	-5.726218e-10	-1.695627e+01	-3.922205e+01
1.320000e-06	-2.395753e-06	-5.673037e-10	-1.666177e+01	-3.900254e+01
1.330000e-06	-2.353134e-06	-5.653409e-10	-1.636537e+01	-3.877719e+01
1.340000e-06	-2.310301e-06	-5.623607e-10	-1.606747e+01	-3.854591e+01
1.350000e-06	-2.267205e-06	-5.589764e-10	-1.576775e+01	-3.830862e+01
1.360000e-06	-2.224017e-06	-5.556280e-10	-1.546739e+01	-3.806524e+01
1.370000e-06	-2.180709e-06	-5.517471e-10	-1.516620e+01	-3.781571e+01
1.380000e-06	-2.137211e-06	-5.459239e-10	-1.486368e+01	-3.755993e+01
1.390000e-06	-2.093586e-06	-5.413724e-10	-1.456028e+01	-3.729786e+01
1.400000e-06	-2.049874e-06	-5.362332e-10	-1.425628e+01	-3.702940e+01
1.410000e-06	-2.006095e-06	-5.306149e-10	-1.395181e+01	-3.675451e+01
1.420000e-06	-1.962200e-06	-5.254156e-10	-1.364653e+01	-3.647309e+01
1.430000e-06	-1.918168e-06	-5.235263e-10	-1.334030e+01	-3.618508e+01
1.440000e-06	-1.874075e-06	-5.202031e-10	-1.303365e+01	-3.589038e+01
1.450000e-06	-1.829928e-06	-5.145643e-10	-1.272661e+01	-3.558892e+01
1.460000e-06	-1.785590e-06	-5.084841e-10	-1.241826e+01	-3.528059e+01
1.470000e-06	-1.741162e-06	-5.024180e-10	-1.210928e+01	-3.496530e+01
1.480000e-06	-1.696651e-06	-4.953122e-10	-1.179972e+01	-3.464291e+01
1.490000e-06	-1.651926e-06	-4.900643e-10	-1.148866e+01	-3.431331e+01
1.500000e-06	-1.607032e-06	-4.856888e-10	-1.117644e+01	-3.397636e+01
1.510000e-06	-1.562040e-06	-4.810022e-10	-1.086354e+01	-3.363190e+01
1.520000e-06	-1.516992e-06	-4.752152e-10	-1.055024e+01	-3.327977e+01
1.530000e-06	-1.471802e-06	-4.687112e-10	-1.023596e+01	-3.291980e+01
1.540000e-06	-1.426536e-06	-4.620277e-10	-9.921145e+00	-3.255178e+01
1.550000e-06	-1.381195e-06	-4.568537e-10	-9.605811e+00	-3.217552e+01
1.560000e-06	-1.335735e-06	-4.509906e-10	-9.289652e+00	-3.179080e+01
1.570000e-06	-1.290183e-06	-4.443353e-10	-8.972848e+00	-3.139737e+01
1.580000e-06	-1.244535e-06	-4.382874e-10	-8.655377e+00	-3.099500e+01
1.590000e-06	-1.198824e-06	-4.323347e-10	-8.337473e+00	-3.058343e+01
1.600000e-06	-1.153006e-06	-4.261969e-10	-8.018819e+00	-3.016239e+01
1.610000e-06	-1.107098e-06	-4.199393e-10	-7.699543e+00	-2.973161e+01
1.620000e-06	-1.061130e-06	-4.133996e-10	-7.379849e+00	-2.929079e+01
1.630000e-06	-1.015077e-06	-4.064150e-10	-7.059565e+00	-2.883964e+01
1.640000e-06	-9.689261e-07	-4.000419e-10	-6.738600e+00	-2.837788e+01
1.650000e-06	-9.227660e-07	-3.925158e-10	-6.417569e+00	-2.790518e+01
1.660000e-06	-8.765954e-07	-3.829693e-10	-6.096467e+00	-2.742127e+01
1.670000e-06	-8.303317e-07	-3.719118e-10	-5.774716e+00	-2.692584e+01
1.680000e-06	-7.839596e-07	-3.624724e-10	-5.452211e+00	-2.641859e+01
1.690000e-06	-7.375153e-07	-3.551384e-10	-5.129205e+00	-2.589924e+01
1.700000e-06	-6.910062e-07	-3.493411e-10	-4.805748e+00	-2.536750e+01
1.710000e-06	-6.444626e-07	-3.427728e-10	-4.482050e+00	-2.482313e+01
1.720000e-06	-5.979238e-07	-3.343883e-10	-4.158387e+00	-2.426585e+01
1.730000e-06	-5.513452e-07	-3.245183e-10	-3.834446e+00	-2.369544e+01
1.740000e-06	-5.047735e-07	-3.141671e-10	-3.510553e+00	-2.311170e+01
1.750000e-06	-4.581753e-07	-3.036398e-10	-3.186476e+00	-2.251441e+01
1.760000e-06	-4.115294e-07	-2.945646e-10	-2.862067e+00	-2.190344e+01
1.770000e-06	-3.647951e-07	-2.856918e-10	-2.537044e+00	-2.127863e+01
1.780000e-06	-3.179952e-07	-2.764273e-10	-2.211564e+00	-2.063989e+01
1.790000e-06	-2.711660e-07	-2.656657e-10	-1.885881e+00	-1.998714e+01
1.800000e-06	-2.242851e-07	-2.555738e-10	-1.559838e+00	-1.932035e+01
1.810000e-06	-1.774564e-07	-2.470020e-10	-1.234158e+00	-1.863952e+01
1.820000e-06	-1.307012e-07	-2.378585e-10	-9.089890e-01	-1.794469e+01
1.830000e-06	-8.398667e-08	-2.265018e-10	-5.841029e-01	-1.723594e+01
1.840000e-06	-3.722659e-08	-2.153720e-10	-2.589001e-01	-1.651341e+01
1.850000e-06	9.551711e-09	-2.048598e-10	6.642937e-02	-1.577726e+01
1.860000e-06	5.635393e-08	-1.938901e-10	3.919252e-01	-1.502770e+01
1.870000e-06	1.032203e-07	-1.818359e-10	7.178671e-01	-1.426498e+01
1.880000e-06	1.500289e-07	-1.692427e-10	1.043407e+00	-1.348942e+01
1.890000e-06	1.967868e-07	-1.567989e-10	1.368595e+00	-1.270137e+01
1.900000e-06	2.435338e-07	-1.460707e-10	1.693707e+00	-1.190121e+01
1.910000e-06	2.902224e-07	-1.374056e-10	2.018413e+00	-1.108938e+01
1.920000e-06	3.369871e-07	-1.274800e-10	2.343647e+00	-1.026637e+01
1.930000e-06	3.837204e-07	-1.154354e-10	2.668664e+00	-9.432700e+00
1.940000e-06	4.303032e-07	-1.028352e-10	2.992634e+00	-8.588937e+00
1.950000e-06	4.768887e-07	-8.968490e-11	3.316623e+00	-7.735685e+00
1.960000e-06	5.234898e-07	-7.653319e-11	3.640719e+00	-6.873586e+00
1.970000e-06	5.700990e-07	-6.511845e-11	3.964873e+00	-6.003316e+00
1.980000e-06	6.166387e-07	-5.326619e-11	4.288543e+00	-5.125586e+00
1.990000e-06	6.630507e-07	-4.286342e-11	4.611325e+00	-4.241133e+00
2.000000e-06	7.093726e-07	-3.367332e-11	4.933480e+00	-3.350724e+00
2.010000e-06	7.556629e-07	-2.212626e-11	5.255416e+00	-2.455148e+00
2.020000e-06	8.019157e-07	-1.066393e-11	5.577090e+00	-1.555214e+00
2.030000e-06	8.481369e-07	3.090764e-12	5.898546e+00	-6.517494e-01
2.040000e-06	8.943105e-07	2.019426e-11	6.219670e+00	2.544066e-01
2.050000e-06	9.403790e-07	3.416891e-11	6.540063e+00	1.162405e+00
2.060000e-06	9.864264e-07	4.590181e-11	6.860309e+00	2.071389e+00
2.070000e-06	1.032417e-06	5.687313e-11	7.180162e+00	2.980503e+00
2.080000e-06	1.078290e-06	6.884903e-11	7.499197e+00	3.888890e+00
2.090000e-06	1.124127e-06	8.042669e-11	7.817974e+00	4.795700e+00
2.100000e-06	1.169864e-06	9.493716e-11	8.136064e+00	5.700090e+00
2.110000e-06	1.215456e-06	1.107025e-10	8.453144e+00	6.601231e+00
2.120000e-06	1.260999e-06	1.256216e-10	8.769885e+00	7.498310e+00
2.130000e-06	1.306480e-06	1.386230e-10	9.086188e+00	8.390534e+00
2.140000e-06	1.351871e-06	1.496945e-10	9.401872e+00	9.277131e+00
2.150000e-06	1.397147e-06	1.601023e-10	9.716752e+00	1.015736e+01
2.160000e-06	1.442250e-06	1.698753e-10	1.003043e+01	1.103049e+01
2.170000e-06	1.487286e-06	1.811423e-10	1.034365e+01	1.189585e+01
2.180000e-06	1.532308e-06	1.932993e-10	1.065676e+01	1.275279e+01
2.190000e-06	1.577223e-06	2.067319e-10	1.096913e+01	1.360068e+01
2.200000e-06	1.621970e-06	2.205906e-10	1.128033e+01	1.443894e+01
2.210000e-06	1.666530e-06	2.312555e-10	1.159023e+01	1.526705e+01
2.220000e-06	1.711013e-06	2.393697e-10	1.189960e+01	1.608450e+01
2.230000e-06	1.755427e-06	2.465659e-10	1.220849e+01	1.689083e+01
2.240000e-06	1.799733e-06	2.553769e-10	1.251662e+01	1.768564e+01
2.250000e-06	1.843889e-06	2.672109e-10	1.282371e+01	1.846854e+01
2.260000e-06	1.887873e-06	2.804179e-10	1.312961e+01	1.923922e+01
2.270000e-06	1.931774e-06	2.942022e-10	1.343493e+01	1.999738e+01
2.280000e-06	1.975622e-06	3.060580e-10	1.373988e+01	2.074280e+01
2.290000e-06	2.019425e-06	3.158279e-10	1.404451e+01	2.147526e+01
2.300000e-06	2.063140e-06	3.247991e-10	1.434854e+01	2.219462e+01
2.310000e-06	2.106774e-06	3.334548e-10	1.465200e+01	2.290075e+01
2.320000e-06	2.150356e-06	3.424089e-10	1.495510e+01	2.359359e+01
2.330000e-06	2.193814e-06	3.533369e-10	1.525734e+01	2.427309e+01
2.340000e-06	2.237164e-06	3.631618e-10	1.555883e+01	2.493926e+01
2.350000e-06	2.280415e-06	3.731695e-10	1.585963e+01	2.559211e+01
2.360000e-06	2.323440e-06	3.833473e-10	1.615885e+01	2.623172e+01
2.370000e-06	2.366206e-06	3.916253e-10	1.645627e+01	2.685818e+01
2.380000e-06	2.408739e-06	3.992422e-10	1.675208e+01	2.747160e+01
2.390000e-06	2.450975e-06	4.072734e-10	1.704582e+01	2.807215e+01
2.400000e-06	2.492824e-06	4.151039e-10	1.733687e+01	2.865997e+01
2.410000e-06	2.534260e-06	4.232931e-10	1.762504e+01	2.923527e+01
2.420000e-06	2.575375e-06	4.314393e-10	1.791099e+01	2.979825e+01
2.430000e-06	2.616232e-06	4.389340e-10	1.819513e+01	3.034913e+01
2.440000e-06	2.656790e-06	4.463579e-10	1.847720e+01	3.088814e+01
2.450000e-06	2.697162e-06	4.540502e-10	1.875797e+01	3.141552e+01
2.460000e-06	2.737406e-06	4.629069e-10	1.903787e+01	3.193153e+01
2.470000e-06	2.777496e-06	4.711876e-10	1.931668e+01	3.243642e+01
2.480000e-06	2.817423e-06	4.789302e-10	1.959436e+01	3.293044e+01
2.490000e-06	2.857253e-06	4.843838e-10	1.987136e+01	3.341386e+01
2.500000e-06	2.896954e-06	4.880907e-10	2.014747e+01	3.388693e+01
2.510000e-06	2.936491e-06	4.930229e-10	2.042244e+01	3.434990e+01
2.520000e-06	2.975881e-06	4.998469e-10	2.069639e+01	3.480302e+01
2.530000e-06	3.015087e-06	5.080471e-10	2.096905e+01	3.524653e+01
2.540000e-06	3.054118e-06	5.150837e-10	2.124050e+01	3.568065e+01
2.550000e-06	3.092889e-06	5.233885e-10	2.151014e+01	3.610561e+01
2.560000e-06	3.131387e-06	5.298930e-10	2.177788e+01	3.652161e+01
2.570000e-06	3.169672e-06	5.355128e-10	2.204415e+01	3.692885e+01
2.580000e-06	3.207740e-06	5.398361e-10	2.230890e+01	3.732752e+01
2.590000e-06	3.245678e-06	5.428148e-10	2.257275e+01	3.771778e+01
2.600000e-06	3.283508e-06	5.480023e-10	2.283585e+01	3.809980e+01
2.610000e-06	3.321110e-06	5.559951e-10	2.309736e+01	3.847370e+01
2.620000e-06	3.358440e-06	5.634615e-10	2.335697e+01	3.883962e+01
2.630000e-06	3.395448e-06	5.695345e-10	2.361435e+01	3.919768e+01
2.640000e-06	3.432171e-06	5.741952e-10	2.386975e+01	3.954797e+01
2.650000e-06	3.468651e-06	5.761504e-10	2.412346e+01	3.989058e+01
2.660000e-06	3.504866e-06	5.809278e-10	2.437533e+01	4.022558e+01
2.670000e-06	3.540863e-06	5.873294e-10	2.462567e+01	4.055303e+01
2.680000e-06	3.576740e-06	5.948240e-10	2.487519e+01	4.087299e+01
2.690000e-06	3.612519e-06	6.009896e-10	2.512402e+01	4.118549e+01
2.700000e-06	3.648182e-06	6.045368e-10	2.537204e+01	4.149057e+01
2.710000e-06	3.683645e-06	6.078017e-10	2.561868e+01	4.178825e+01
2.720000e-06	3.718860e-06	6.109692e-10	2.586359e+01	4.207854e+01
2.730000e-06	3.753842e-06	6.123474e-10	2.610688e+01	4.236145e+01
2.740000e-06	3.788455e-06	6.145409e-10	2.634760e+01	4.263700e+01
2.750000e-06	3.822515e-06	6.184714e-10	2.658448e+01	4.290517e+01
2.760000e-06	3.856012e-06	6.243195e-10	2.681744e+01	4.316598e+01
2.770000e-06	3.889075e-06	6.294986e-10	2.704739e+01	4.341943e+01
2.780000e-06	3.921814e-06	6.340756e-10	2.727508e+01	4.366551e+01
2.790000e-06	3.954210e-06	6.388214e-10	2.750038e+01	4.390424e+01
2.800000e-06	3.986281e-06	6.415795e-10	2.772343e+01	4.413561e+01
2.810000e-06	4.018162e-06	6.418810e-10	2.794515e+01	4.435964e+01
2.820000e-06	4.049899e-06	6.433975e-10	2.816587e+01	4.457634e+01
2.830000e-06	4.081470e-06	6.468216e-10	2.838544e+01	4.478575e+01
2.840000e-06	4.112832e-06	6.507208e-10	2.860355e+01	4.498789e+01
2.850000e-06	4.144020e-06	6.538895e-10	2.882046e+01	4.518280e+01
2.860000e-06	4.174921e-06	6.568835e-10	2.903536e+01	4.537053e+01
2.870000e-06	4.205349e-06	6.614571e-10	2.924698e+01	4.555115e+01
2.880000e-06	4.235447e-06	6.649906e-10	2.945631e+01	4.572472e+01
2.890000e-06	4.265315e-06	6.659764e-10	2.966403e+01	4.589132e+01
2.900000e-06	4.294869e-06	6.638918e-10	2.986956e+01	4.605104e+01
