# Temperatura_=_-2.5
# Concentracion g/m^3_=_1620.0
# C_Vs_to_Am_M_A/Vsm_=_65563218390.804596
# pendiente_HvsI_1/m_=_3716.3
# ordenada_HvsI_A/m_=_1297.0
# frecuencia_Hz_=_135101.49781639877

Tiempo_(s)	Campo_(V.s)	Magnetizacion_(V.s)	Campo_(kA/m)	Magnetizacion_(A/m)
0.000000e+00	-5.506882e-06	-1.086193e-09	-3.837954e+01	-7.111653e+01
1.000000e-08	-5.507144e-06	-1.083662e-09	-3.838136e+01	-7.111400e+01
2.000000e-08	-5.507175e-06	-1.082302e-09	-3.838158e+01	-7.110895e+01
3.000000e-08	-5.506775e-06	-1.084242e-09	-3.837879e+01	-7.110105e+01
4.000000e-08	-5.505835e-06	-1.086238e-09	-3.837224e+01	-7.108998e+01
5.000000e-08	-5.504284e-06	-1.083776e-09	-3.836143e+01	-7.107543e+01
6.000000e-08	-5.502088e-06	-1.077441e-09	-3.834612e+01	-7.105707e+01
7.000000e-08	-5.499370e-06	-1.085313e-09	-3.832718e+01	-7.103461e+01
8.000000e-08	-5.496168e-06	-1.118907e-09	-3.830487e+01	-7.100776e+01
9.000000e-08	-5.492444e-06	-1.120417e-09	-3.827891e+01	-7.097627e+01
1.000000e-07	-5.488263e-06	-1.049357e-09	-3.824977e+01	-7.093987e+01
1.100000e-07	-5.483826e-06	-1.037291e-09	-3.821885e+01	-7.089834e+01
1.200000e-07	-5.479269e-06	-1.097249e-09	-3.818709e+01	-7.085148e+01
1.300000e-07	-5.474440e-06	-1.136585e-09	-3.815344e+01	-7.079911e+01
1.400000e-07	-5.469186e-06	-1.064026e-09	-3.811682e+01	-7.074109e+01
1.500000e-07	-5.463549e-06	-1.018490e-09	-3.807753e+01	-7.067730e+01
1.600000e-07	-5.457470e-06	-1.083660e-09	-3.803516e+01	-7.060765e+01
1.700000e-07	-5.450977e-06	-1.145476e-09	-3.798991e+01	-7.053210e+01
1.800000e-07	-5.444133e-06	-1.101680e-09	-3.794221e+01	-7.045062e+01
1.900000e-07	-5.436976e-06	-1.049587e-09	-3.789233e+01	-7.036322e+01
2.000000e-07	-5.429481e-06	-1.070937e-09	-3.784009e+01	-7.026996e+01
2.100000e-07	-5.421664e-06	-1.103417e-09	-3.778562e+01	-7.017091e+01
2.200000e-07	-5.413593e-06	-1.072530e-09	-3.772937e+01	-7.006619e+01
2.300000e-07	-5.405179e-06	-1.031938e-09	-3.767073e+01	-6.995593e+01
2.400000e-07	-5.396288e-06	-1.049820e-09	-3.760876e+01	-6.984032e+01
2.500000e-07	-5.386842e-06	-1.071920e-09	-3.754293e+01	-6.971956e+01
2.600000e-07	-5.376749e-06	-1.054960e-09	-3.747259e+01	-6.959388e+01
2.700000e-07	-5.366083e-06	-1.015829e-09	-3.739825e+01	-6.946354e+01
2.800000e-07	-5.354935e-06	-1.017441e-09	-3.732056e+01	-6.932880e+01
2.900000e-07	-5.343300e-06	-1.027870e-09	-3.723947e+01	-6.918997e+01
3.000000e-07	-5.331257e-06	-1.014109e-09	-3.715554e+01	-6.904737e+01
3.100000e-07	-5.318808e-06	-9.789161e-10	-3.706878e+01	-6.890131e+01
3.200000e-07	-5.305938e-06	-9.940365e-10	-3.697908e+01	-6.875214e+01
3.300000e-07	-5.292724e-06	-1.016904e-09	-3.688699e+01	-6.860021e+01
3.400000e-07	-5.279256e-06	-9.999999e-10	-3.679313e+01	-6.844586e+01
3.500000e-07	-5.265348e-06	-9.615900e-10	-3.669619e+01	-6.828944e+01
3.600000e-07	-5.250832e-06	-9.897552e-10	-3.659503e+01	-6.813131e+01
3.700000e-07	-5.235844e-06	-9.998519e-10	-3.649057e+01	-6.797181e+01
3.800000e-07	-5.220412e-06	-9.682085e-10	-3.638302e+01	-6.781126e+01
3.900000e-07	-5.204499e-06	-9.735270e-10	-3.627211e+01	-6.765001e+01
4.000000e-07	-5.188223e-06	-1.016408e-09	-3.615868e+01	-6.748834e+01
4.100000e-07	-5.171551e-06	-9.761827e-10	-3.604248e+01	-6.732655e+01
4.200000e-07	-5.154498e-06	-9.406520e-10	-3.592364e+01	-6.716491e+01
4.300000e-07	-5.137183e-06	-1.001783e-09	-3.580296e+01	-6.700366e+01
4.400000e-07	-5.119619e-06	-1.012833e-09	-3.568055e+01	-6.684302e+01
4.500000e-07	-5.101659e-06	-9.394186e-10	-3.555539e+01	-6.668319e+01
4.600000e-07	-5.083194e-06	-9.580661e-10	-3.542669e+01	-6.652433e+01
4.700000e-07	-5.064314e-06	-1.015765e-09	-3.529511e+01	-6.636657e+01
4.800000e-07	-5.045170e-06	-9.589964e-10	-3.516169e+01	-6.621002e+01
4.900000e-07	-5.025829e-06	-9.349538e-10	-3.502689e+01	-6.605474e+01
5.000000e-07	-5.006270e-06	-9.999503e-10	-3.489058e+01	-6.590077e+01
5.100000e-07	-4.986464e-06	-9.781631e-10	-3.475255e+01	-6.574813e+01
5.200000e-07	-4.966328e-06	-9.178394e-10	-3.461221e+01	-6.559678e+01
5.300000e-07	-4.945774e-06	-9.748242e-10	-3.446896e+01	-6.544666e+01
5.400000e-07	-4.924847e-06	-9.913992e-10	-3.432311e+01	-6.529768e+01
5.500000e-07	-4.903536e-06	-9.182810e-10	-3.417459e+01	-6.514973e+01
5.600000e-07	-4.881851e-06	-9.338367e-10	-3.402346e+01	-6.500266e+01
5.700000e-07	-4.859876e-06	-9.942096e-10	-3.387030e+01	-6.485629e+01
5.800000e-07	-4.837565e-06	-9.465018e-10	-3.371481e+01	-6.471043e+01
5.900000e-07	-4.814859e-06	-9.272532e-10	-3.355657e+01	-6.456486e+01
6.000000e-07	-4.791869e-06	-9.775241e-10	-3.339634e+01	-6.441933e+01
6.100000e-07	-4.768659e-06	-9.605121e-10	-3.323458e+01	-6.427358e+01
6.200000e-07	-4.745153e-06	-9.174108e-10	-3.307076e+01	-6.412736e+01
6.300000e-07	-4.721462e-06	-9.477747e-10	-3.290564e+01	-6.398036e+01
6.400000e-07	-4.697499e-06	-9.497480e-10	-3.273864e+01	-6.383231e+01
6.500000e-07	-4.673100e-06	-9.160894e-10	-3.256860e+01	-6.368290e+01
6.600000e-07	-4.648291e-06	-9.305227e-10	-3.239569e+01	-6.353183e+01
6.700000e-07	-4.622980e-06	-9.454445e-10	-3.221929e+01	-6.337879e+01
6.800000e-07	-4.597014e-06	-9.156623e-10	-3.203832e+01	-6.322350e+01
6.900000e-07	-4.570450e-06	-9.156855e-10	-3.185319e+01	-6.306565e+01
7.000000e-07	-4.543555e-06	-9.328104e-10	-3.166575e+01	-6.290497e+01
7.100000e-07	-4.516432e-06	-9.171984e-10	-3.147671e+01	-6.274118e+01
7.200000e-07	-4.489062e-06	-9.084419e-10	-3.128596e+01	-6.257402e+01
7.300000e-07	-4.461513e-06	-9.207212e-10	-3.109397e+01	-6.240325e+01
7.400000e-07	-4.433738e-06	-9.120006e-10	-3.090039e+01	-6.222864e+01
7.500000e-07	-4.405706e-06	-9.003008e-10	-3.070502e+01	-6.204999e+01
7.600000e-07	-4.377410e-06	-9.076142e-10	-3.050782e+01	-6.186712e+01
7.700000e-07	-4.348770e-06	-9.033314e-10	-3.030822e+01	-6.167986e+01
7.800000e-07	-4.319823e-06	-8.920998e-10	-3.010647e+01	-6.148807e+01
7.900000e-07	-4.290597e-06	-8.931552e-10	-2.990279e+01	-6.129164e+01
8.000000e-07	-4.261120e-06	-8.877455e-10	-2.969735e+01	-6.109048e+01
8.100000e-07	-4.231399e-06	-8.695974e-10	-2.949021e+01	-6.088453e+01
8.200000e-07	-4.201372e-06	-8.669141e-10	-2.928095e+01	-6.067375e+01
8.300000e-07	-4.171013e-06	-8.695982e-10	-2.906936e+01	-6.045812e+01
8.400000e-07	-4.140328e-06	-8.599416e-10	-2.885550e+01	-6.023766e+01
8.500000e-07	-4.109396e-06	-8.550415e-10	-2.863993e+01	-6.001240e+01
8.600000e-07	-4.078234e-06	-8.647424e-10	-2.842275e+01	-5.978238e+01
8.700000e-07	-4.046845e-06	-8.597657e-10	-2.820398e+01	-5.954770e+01
8.800000e-07	-4.015337e-06	-8.501711e-10	-2.798440e+01	-5.930844e+01
8.900000e-07	-3.983670e-06	-8.512483e-10	-2.776370e+01	-5.906471e+01
9.000000e-07	-3.951698e-06	-8.461264e-10	-2.754087e+01	-5.881665e+01
9.100000e-07	-3.919409e-06	-8.298258e-10	-2.731584e+01	-5.856439e+01
9.200000e-07	-3.886717e-06	-8.307533e-10	-2.708799e+01	-5.830809e+01
9.300000e-07	-3.853534e-06	-8.323583e-10	-2.685673e+01	-5.804790e+01
9.400000e-07	-3.819859e-06	-8.210733e-10	-2.662203e+01	-5.778399e+01
9.500000e-07	-3.785751e-06	-8.155422e-10	-2.638432e+01	-5.751654e+01
9.600000e-07	-3.751198e-06	-8.179827e-10	-2.614351e+01	-5.724572e+01
9.700000e-07	-3.716202e-06	-8.064405e-10	-2.589961e+01	-5.697170e+01
9.800000e-07	-3.680995e-06	-7.957994e-10	-2.565424e+01	-5.669464e+01
9.900000e-07	-3.645698e-06	-7.987649e-10	-2.540824e+01	-5.641473e+01
1.000000e-06	-3.610255e-06	-7.971537e-10	-2.516123e+01	-5.613210e+01
1.010000e-06	-3.574622e-06	-7.877651e-10	-2.491288e+01	-5.584691e+01
1.020000e-06	-3.538822e-06	-7.883051e-10	-2.466338e+01	-5.555930e+01
1.030000e-06	-3.502883e-06	-7.886376e-10	-2.441291e+01	-5.526939e+01
1.040000e-06	-3.466704e-06	-7.804953e-10	-2.416077e+01	-5.497728e+01
1.050000e-06	-3.430191e-06	-7.769519e-10	-2.390629e+01	-5.468307e+01
1.060000e-06	-3.393406e-06	-7.756832e-10	-2.364993e+01	-5.438683e+01
1.070000e-06	-3.356384e-06	-7.682079e-10	-2.339190e+01	-5.408863e+01
1.080000e-06	-3.319107e-06	-7.619143e-10	-2.313211e+01	-5.378848e+01
1.090000e-06	-3.281550e-06	-7.636372e-10	-2.287035e+01	-5.348642e+01
1.100000e-06	-3.243774e-06	-7.595891e-10	-2.260708e+01	-5.318243e+01
1.110000e-06	-3.205832e-06	-7.506493e-10	-2.234265e+01	-5.287649e+01
1.120000e-06	-3.167686e-06	-7.454319e-10	-2.207680e+01	-5.256856e+01
1.130000e-06	-3.129371e-06	-7.405208e-10	-2.180977e+01	-5.225857e+01
1.140000e-06	-3.090860e-06	-7.311303e-10	-2.154137e+01	-5.194644e+01
1.150000e-06	-3.052140e-06	-7.268851e-10	-2.127151e+01	-5.163205e+01
1.160000e-06	-3.013227e-06	-7.257597e-10	-2.100031e+01	-5.131528e+01
1.170000e-06	-2.974102e-06	-7.206462e-10	-2.072764e+01	-5.099600e+01
1.180000e-06	-2.934778e-06	-7.144963e-10	-2.045357e+01	-5.067404e+01
1.190000e-06	-2.895332e-06	-7.125766e-10	-2.017866e+01	-5.034922e+01
1.200000e-06	-2.855789e-06	-7.069028e-10	-1.990307e+01	-5.002135e+01
1.210000e-06	-2.816092e-06	-6.990909e-10	-1.962641e+01	-4.969024e+01
1.220000e-06	-2.776238e-06	-6.918716e-10	-1.934865e+01	-4.935567e+01
1.230000e-06	-2.736269e-06	-6.840452e-10	-1.907009e+01	-4.901740e+01
1.240000e-06	-2.696167e-06	-6.758641e-10	-1.879060e+01	-4.867521e+01
1.250000e-06	-2.655828e-06	-6.721603e-10	-1.850947e+01	-4.832885e+01
1.260000e-06	-2.615151e-06	-6.696009e-10	-1.822597e+01	-4.797806e+01
1.270000e-06	-2.574122e-06	-6.664854e-10	-1.794003e+01	-4.762261e+01
1.280000e-06	-2.532776e-06	-6.636057e-10	-1.765187e+01	-4.726222e+01
1.290000e-06	-2.491179e-06	-6.596825e-10	-1.736196e+01	-4.689663e+01
1.300000e-06	-2.449295e-06	-6.529331e-10	-1.707006e+01	-4.652559e+01
1.310000e-06	-2.407125e-06	-6.445384e-10	-1.677616e+01	-4.614882e+01
1.320000e-06	-2.364677e-06	-6.370722e-10	-1.648033e+01	-4.576606e+01
1.330000e-06	-2.321947e-06	-6.316175e-10	-1.618252e+01	-4.537706e+01
1.340000e-06	-2.279029e-06	-6.265528e-10	-1.588341e+01	-4.498154e+01
1.350000e-06	-2.235928e-06	-6.226104e-10	-1.558302e+01	-4.457925e+01
1.360000e-06	-2.192612e-06	-6.202374e-10	-1.528114e+01	-4.416994e+01
1.370000e-06	-2.149147e-06	-6.160266e-10	-1.497821e+01	-4.375334e+01
1.380000e-06	-2.105635e-06	-6.087118e-10	-1.467497e+01	-4.332922e+01
1.390000e-06	-2.062059e-06	-5.994386e-10	-1.437126e+01	-4.289731e+01
1.400000e-06	-2.018420e-06	-5.891225e-10	-1.406713e+01	-4.245738e+01
1.410000e-06	-1.974715e-06	-5.788600e-10	-1.376253e+01	-4.200919e+01
1.420000e-06	-1.930950e-06	-5.725688e-10	-1.345751e+01	-4.155248e+01
1.430000e-06	-1.887123e-06	-5.677792e-10	-1.315207e+01	-4.108704e+01
1.440000e-06	-1.843142e-06	-5.613640e-10	-1.284555e+01	-4.061261e+01
1.450000e-06	-1.799031e-06	-5.521231e-10	-1.253812e+01	-4.012897e+01
1.460000e-06	-1.754832e-06	-5.424438e-10	-1.223009e+01	-3.963588e+01
1.470000e-06	-1.710498e-06	-5.334112e-10	-1.192111e+01	-3.913311e+01
1.480000e-06	-1.666067e-06	-5.261492e-10	-1.161145e+01	-3.862041e+01
1.490000e-06	-1.621509e-06	-5.199102e-10	-1.130091e+01	-3.809756e+01
1.500000e-06	-1.576795e-06	-5.143266e-10	-1.098928e+01	-3.756432e+01
1.510000e-06	-1.531955e-06	-5.070838e-10	-1.067677e+01	-3.702044e+01
1.520000e-06	-1.486938e-06	-4.991277e-10	-1.036303e+01	-3.646569e+01
1.530000e-06	-1.441735e-06	-4.900990e-10	-1.004800e+01	-3.589982e+01
1.540000e-06	-1.396490e-06	-4.801646e-10	-9.732668e+00	-3.532258e+01
1.550000e-06	-1.351191e-06	-4.699007e-10	-9.416956e+00	-3.473373e+01
1.560000e-06	-1.305712e-06	-4.598659e-10	-9.100001e+00	-3.413302e+01
1.570000e-06	-1.260137e-06	-4.509814e-10	-8.782371e+00	-3.352019e+01
1.580000e-06	-1.214591e-06	-4.428420e-10	-8.464945e+00	-3.289499e+01
1.590000e-06	-1.169020e-06	-4.339295e-10	-8.147342e+00	-3.225717e+01
1.600000e-06	-1.123371e-06	-4.242449e-10	-7.829199e+00	-3.160647e+01
1.610000e-06	-1.077656e-06	-4.144896e-10	-7.510594e+00	-3.094263e+01
1.620000e-06	-1.031778e-06	-4.026119e-10	-7.190851e+00	-3.026542e+01
1.630000e-06	-9.857498e-07	-3.898176e-10	-6.870061e+00	-2.957458e+01
1.640000e-06	-9.396653e-07	-3.789115e-10	-6.548882e+00	-2.886987e+01
1.650000e-06	-8.935301e-07	-3.692562e-10	-6.227348e+00	-2.815106e+01
1.660000e-06	-8.473174e-07	-3.588364e-10	-5.905274e+00	-2.741792e+01
1.670000e-06	-8.011074e-07	-3.482261e-10	-5.583219e+00	-2.667025e+01
1.680000e-06	-7.548669e-07	-3.385644e-10	-5.260951e+00	-2.590784e+01
1.690000e-06	-7.085701e-07	-3.279538e-10	-4.938292e+00	-2.513050e+01
1.700000e-06	-6.622343e-07	-3.148813e-10	-4.615360e+00	-2.433809e+01
1.710000e-06	-6.158309e-07	-3.010372e-10	-4.291957e+00	-2.353044e+01
1.720000e-06	-5.693836e-07	-2.872421e-10	-3.968248e+00	-2.270744e+01
1.730000e-06	-5.228127e-07	-2.742850e-10	-3.643679e+00	-2.186899e+01
1.740000e-06	-4.762208e-07	-2.613993e-10	-3.318962e+00	-2.101502e+01
1.750000e-06	-4.296734e-07	-2.473519e-10	-2.994556e+00	-2.014550e+01
1.760000e-06	-3.831447e-07	-2.332470e-10	-2.670280e+00	-1.926042e+01
1.770000e-06	-3.365641e-07	-2.198582e-10	-2.345642e+00	-1.835980e+01
1.780000e-06	-2.898802e-07	-2.065671e-10	-2.020284e+00	-1.744373e+01
1.790000e-06	-2.430959e-07	-1.950626e-10	-1.694227e+00	-1.651229e+01
1.800000e-06	-1.961855e-07	-1.838735e-10	-1.367290e+00	-1.556565e+01
1.810000e-06	-1.493453e-07	-1.696058e-10	-1.040844e+00	-1.460398e+01
1.820000e-06	-1.025933e-07	-1.532069e-10	-7.150116e-01	-1.362754e+01
1.830000e-06	-5.588385e-08	-1.381907e-10	-3.894756e-01	-1.263658e+01
1.840000e-06	-9.219559e-09	-1.247914e-10	-6.425458e-02	-1.163145e+01
1.850000e-06	3.742286e-08	-1.114982e-10	2.608140e-01	-1.061252e+01
1.860000e-06	8.405184e-08	-9.776403e-11	5.857889e-01	-9.580205e+00
1.870000e-06	1.307194e-07	-8.186238e-11	9.110324e-01	-8.534976e+00
1.880000e-06	1.774103e-07	-6.473314e-11	1.236439e+00	-7.477349e+00
1.890000e-06	2.240079e-07	-4.910628e-11	1.561196e+00	-6.407887e+00
1.900000e-06	2.705718e-07	-3.849904e-11	1.885717e+00	-5.327199e+00
1.910000e-06	3.172052e-07	-2.607458e-11	2.210722e+00	-4.235937e+00
1.920000e-06	3.638058e-07	-9.347580e-12	2.535499e+00	-3.134796e+00
1.930000e-06	4.103922e-07	6.704376e-12	2.860178e+00	-2.024515e+00
1.940000e-06	4.569310e-07	2.457515e-11	3.184524e+00	-9.058681e-01
1.950000e-06	5.033473e-07	4.190791e-11	3.508017e+00	2.203328e-01
1.960000e-06	5.497139e-07	5.891025e-11	3.831163e+00	1.353243e+00
1.970000e-06	5.960561e-07	7.306769e-11	4.154139e+00	2.491986e+00
1.980000e-06	6.423326e-07	8.617591e-11	4.476658e+00	3.635659e+00
1.990000e-06	6.885802e-07	9.704001e-11	4.798975e+00	4.783338e+00
2.000000e-06	7.347246e-07	1.091135e-10	5.120572e+00	5.934076e+00
2.010000e-06	7.808284e-07	1.258338e-10	5.441887e+00	7.086911e+00
2.020000e-06	8.269848e-07	1.444916e-10	5.763569e+00	8.240871e+00
2.030000e-06	8.730813e-07	1.658688e-10	6.084832e+00	9.394975e+00
2.040000e-06	9.190438e-07	1.866943e-10	6.405162e+00	1.054824e+01
2.050000e-06	9.648911e-07	2.053774e-10	6.724689e+00	1.169968e+01
2.060000e-06	1.010735e-06	2.216235e-10	7.044192e+00	1.284832e+01
2.070000e-06	1.056541e-06	2.343657e-10	7.363431e+00	1.399319e+01
2.080000e-06	1.102256e-06	2.456123e-10	7.682037e+00	1.513333e+01
2.090000e-06	1.147892e-06	2.573455e-10	8.000094e+00	1.626782e+01
2.100000e-06	1.193450e-06	2.720527e-10	8.317602e+00	1.739573e+01
2.110000e-06	1.238985e-06	2.883793e-10	8.634950e+00	1.851618e+01
2.120000e-06	1.284460e-06	3.054285e-10	8.951883e+00	1.962831e+01
2.130000e-06	1.329845e-06	3.230547e-10	9.268190e+00	2.073128e+01
2.140000e-06	1.375153e-06	3.380046e-10	9.583959e+00	2.182432e+01
2.150000e-06	1.420322e-06	3.512539e-10	9.898760e+00	2.290666e+01
2.160000e-06	1.465349e-06	3.628118e-10	1.021257e+01	2.397760e+01
2.170000e-06	1.510326e-06	3.769052e-10	1.052603e+01	2.503647e+01
2.180000e-06	1.555335e-06	3.911695e-10	1.083972e+01	2.608264e+01
2.190000e-06	1.600308e-06	4.053020e-10	1.115315e+01	2.711555e+01
2.200000e-06	1.645058e-06	4.197648e-10	1.146503e+01	2.813468e+01
2.210000e-06	1.689532e-06	4.332355e-10	1.177499e+01	2.913953e+01
2.220000e-06	1.733760e-06	4.456945e-10	1.208322e+01	3.012970e+01
2.230000e-06	1.777757e-06	4.566713e-10	1.238986e+01	3.110480e+01
2.240000e-06	1.821633e-06	4.696357e-10	1.269564e+01	3.206451e+01
2.250000e-06	1.865467e-06	4.834252e-10	1.300114e+01	3.300856e+01
2.260000e-06	1.909259e-06	4.951480e-10	1.330635e+01	3.393672e+01
2.270000e-06	1.952983e-06	5.070851e-10	1.361108e+01	3.484881e+01
2.280000e-06	1.996647e-06	5.185782e-10	1.391538e+01	3.574470e+01
2.290000e-06	2.040271e-06	5.297163e-10	1.421942e+01	3.662432e+01
2.300000e-06	2.083819e-06	5.398588e-10	1.452292e+01	3.748761e+01
2.310000e-06	2.127324e-06	5.509393e-10	1.482612e+01	3.833457e+01
2.320000e-06	2.170755e-06	5.642081e-10	1.512881e+01	3.916525e+01
2.330000e-06	2.214076e-06	5.789654e-10	1.543073e+01	3.997971e+01
2.340000e-06	2.257283e-06	5.936062e-10	1.573186e+01	4.077806e+01
2.350000e-06	2.300379e-06	6.066841e-10	1.603221e+01	4.156043e+01
2.360000e-06	2.343254e-06	6.178373e-10	1.633102e+01	4.232700e+01
2.370000e-06	2.385868e-06	6.263828e-10	1.662802e+01	4.307796e+01
2.380000e-06	2.428231e-06	6.336986e-10	1.692326e+01	4.381350e+01
2.390000e-06	2.470235e-06	6.418019e-10	1.721600e+01	4.453386e+01
2.400000e-06	2.511912e-06	6.501557e-10	1.750646e+01	4.523929e+01
2.410000e-06	2.553119e-06	6.587933e-10	1.779365e+01	4.593004e+01
2.420000e-06	2.593944e-06	6.694609e-10	1.807818e+01	4.660639e+01
2.430000e-06	2.634584e-06	6.806212e-10	1.836140e+01	4.726859e+01
2.440000e-06	2.675057e-06	6.903891e-10	1.864348e+01	4.791694e+01
2.450000e-06	2.715340e-06	6.973669e-10	1.892423e+01	4.855172e+01
2.460000e-06	2.755398e-06	7.037140e-10	1.920341e+01	4.917320e+01
2.470000e-06	2.795245e-06	7.103125e-10	1.948112e+01	4.978166e+01
2.480000e-06	2.834930e-06	7.160692e-10	1.975769e+01	5.037738e+01
2.490000e-06	2.874508e-06	7.224177e-10	2.003353e+01	5.096062e+01
2.500000e-06	2.913985e-06	7.318196e-10	2.030866e+01	5.153165e+01
2.510000e-06	2.953329e-06	7.429344e-10	2.058286e+01	5.209072e+01
2.520000e-06	2.992504e-06	7.525918e-10	2.085589e+01	5.263806e+01
2.530000e-06	3.031492e-06	7.605100e-10	2.112761e+01	5.317392e+01
2.540000e-06	3.070290e-06	7.686375e-10	2.139801e+01	5.369851e+01
2.550000e-06	3.108856e-06	7.750231e-10	2.166679e+01	5.421205e+01
2.560000e-06	3.147146e-06	7.774524e-10	2.193365e+01	5.471472e+01
2.570000e-06	3.185198e-06	7.808803e-10	2.219884e+01	5.520673e+01
2.580000e-06	3.223042e-06	7.888366e-10	2.246260e+01	5.568824e+01
2.590000e-06	3.260703e-06	7.978078e-10	2.272506e+01	5.615942e+01
2.600000e-06	3.298177e-06	8.052994e-10	2.298623e+01	5.662043e+01
2.610000e-06	3.335459e-06	8.111806e-10	2.324607e+01	5.707142e+01
2.620000e-06	3.372543e-06	8.170328e-10	2.350452e+01	5.751251e+01
2.630000e-06	3.409279e-06	8.226002e-10	2.376055e+01	5.794385e+01
2.640000e-06	3.445672e-06	8.283642e-10	2.401419e+01	5.836556e+01
2.650000e-06	3.481855e-06	8.363674e-10	2.426636e+01	5.877775e+01
2.660000e-06	3.517832e-06	8.461557e-10	2.451710e+01	5.918055e+01
2.670000e-06	3.553624e-06	8.549067e-10	2.476655e+01	5.957406e+01
2.680000e-06	3.589273e-06	8.606556e-10	2.501500e+01	5.995840e+01
2.690000e-06	3.624866e-06	8.622058e-10	2.526306e+01	6.033367e+01
2.700000e-06	3.660392e-06	8.624103e-10	2.551065e+01	6.069999e+01
2.710000e-06	3.695754e-06	8.655843e-10	2.575710e+01	6.105746e+01
2.720000e-06	3.730813e-06	8.711292e-10	2.600144e+01	6.140621e+01
2.730000e-06	3.765540e-06	8.770365e-10	2.624346e+01	6.174634e+01
2.740000e-06	3.799883e-06	8.821167e-10	2.648281e+01	6.207798e+01
2.750000e-06	3.833759e-06	8.862592e-10	2.671891e+01	6.240125e+01
2.760000e-06	3.867123e-06	8.904468e-10	2.695144e+01	6.271628e+01
2.770000e-06	3.900032e-06	8.935939e-10	2.718079e+01	6.302320e+01
2.780000e-06	3.932499e-06	8.958635e-10	2.740707e+01	6.332216e+01
2.790000e-06	3.964538e-06	8.986824e-10	2.763035e+01	6.361330e+01
2.800000e-06	3.996390e-06	9.016538e-10	2.785235e+01	6.389677e+01
2.810000e-06	4.028110e-06	9.050500e-10	2.807341e+01	6.417272e+01
2.820000e-06	4.059661e-06	9.088370e-10	2.829331e+01	6.444132e+01
2.830000e-06	4.091037e-06	9.155056e-10	2.851198e+01	6.470272e+01
2.840000e-06	4.122225e-06	9.227925e-10	2.872934e+01	6.495708e+01
2.850000e-06	4.153200e-06	9.272828e-10	2.894521e+01	6.520459e+01
2.860000e-06	4.183860e-06	9.287784e-10	2.915890e+01	6.544541e+01
2.870000e-06	4.214091e-06	9.280115e-10	2.936959e+01	6.567971e+01
2.880000e-06	4.243952e-06	9.256853e-10	2.957770e+01	6.590766e+01
2.890000e-06	4.273625e-06	9.243650e-10	2.978450e+01	6.612943e+01
2.900000e-06	4.302976e-06	9.257284e-10	2.998906e+01	6.634519e+01
