# Temperatura_=_-7.63
# Concentracion g/m^3_=_1620.0
# C_Vs_to_Am_M_A/Vsm_=_65563218390.804596
# pendiente_HvsI_1/m_=_3716.3
# ordenada_HvsI_A/m_=_1297.0
# frecuencia_Hz_=_135104.25203191317

Tiempo_(s)	Campo_(V.s)	Magnetizacion_(V.s)	Campo_(kA/m)	Magnetizacion_(A/m)
0.000000e+00	-5.521176e-06	-8.953620e-10	-3.836813e+01	-5.815835e+01
1.000000e-08	-5.521389e-06	-8.930631e-10	-3.836962e+01	-5.811551e+01
2.000000e-08	-5.521403e-06	-8.917350e-10	-3.836971e+01	-5.806732e+01
3.000000e-08	-5.521032e-06	-8.914710e-10	-3.836713e+01	-5.801368e+01
4.000000e-08	-5.520244e-06	-8.919886e-10	-3.836166e+01	-5.795454e+01
5.000000e-08	-5.518895e-06	-8.920752e-10	-3.835228e+01	-5.788992e+01
6.000000e-08	-5.516815e-06	-8.851924e-10	-3.833783e+01	-5.781983e+01
7.000000e-08	-5.514096e-06	-8.762003e-10	-3.831893e+01	-5.774434e+01
8.000000e-08	-5.510823e-06	-8.819384e-10	-3.829619e+01	-5.766357e+01
9.000000e-08	-5.507183e-06	-9.060850e-10	-3.827090e+01	-5.757767e+01
1.000000e-07	-5.503165e-06	-9.340903e-10	-3.824297e+01	-5.748681e+01
1.100000e-07	-5.498752e-06	-9.104258e-10	-3.821230e+01	-5.739124e+01
1.200000e-07	-5.494187e-06	-8.339473e-10	-3.818058e+01	-5.729120e+01
1.300000e-07	-5.489506e-06	-8.447624e-10	-3.814805e+01	-5.718699e+01
1.400000e-07	-5.484461e-06	-9.065347e-10	-3.811300e+01	-5.707893e+01
1.500000e-07	-5.478898e-06	-9.158600e-10	-3.807434e+01	-5.696738e+01
1.600000e-07	-5.472923e-06	-8.681356e-10	-3.803281e+01	-5.685271e+01
1.700000e-07	-5.466665e-06	-8.563528e-10	-3.798932e+01	-5.673534e+01
1.800000e-07	-5.460006e-06	-9.245974e-10	-3.794305e+01	-5.661568e+01
1.900000e-07	-5.452833e-06	-8.829992e-10	-3.789320e+01	-5.649416e+01
2.000000e-07	-5.445277e-06	-8.152434e-10	-3.784069e+01	-5.637125e+01
2.100000e-07	-5.437514e-06	-7.892159e-10	-3.778674e+01	-5.624739e+01
2.200000e-07	-5.429530e-06	-8.582968e-10	-3.773126e+01	-5.612305e+01
2.300000e-07	-5.421279e-06	-8.556470e-10	-3.767393e+01	-5.599869e+01
2.400000e-07	-5.412633e-06	-8.250436e-10	-3.761384e+01	-5.587477e+01
2.500000e-07	-5.403390e-06	-7.930058e-10	-3.754961e+01	-5.575173e+01
2.600000e-07	-5.393395e-06	-8.022274e-10	-3.748015e+01	-5.563002e+01
2.700000e-07	-5.382634e-06	-7.957327e-10	-3.740537e+01	-5.551006e+01
2.800000e-07	-5.371480e-06	-7.889388e-10	-3.732786e+01	-5.539223e+01
2.900000e-07	-5.360012e-06	-7.896759e-10	-3.724816e+01	-5.527693e+01
3.000000e-07	-5.348109e-06	-7.894498e-10	-3.716545e+01	-5.516450e+01
3.100000e-07	-5.335847e-06	-7.949762e-10	-3.708024e+01	-5.505525e+01
3.200000e-07	-5.323232e-06	-7.871427e-10	-3.699257e+01	-5.494948e+01
3.300000e-07	-5.310169e-06	-7.862700e-10	-3.690179e+01	-5.484742e+01
3.400000e-07	-5.296632e-06	-7.691816e-10	-3.680772e+01	-5.474929e+01
3.500000e-07	-5.282744e-06	-7.877928e-10	-3.671121e+01	-5.465527e+01
3.600000e-07	-5.268463e-06	-7.761777e-10	-3.661196e+01	-5.456546e+01
3.700000e-07	-5.253587e-06	-7.776192e-10	-3.650859e+01	-5.447997e+01
3.800000e-07	-5.238086e-06	-7.800575e-10	-3.640086e+01	-5.439883e+01
3.900000e-07	-5.222068e-06	-7.940653e-10	-3.628956e+01	-5.432205e+01
4.000000e-07	-5.205603e-06	-7.629937e-10	-3.617513e+01	-5.424956e+01
4.100000e-07	-5.188781e-06	-7.786302e-10	-3.605823e+01	-5.418128e+01
4.200000e-07	-5.171674e-06	-7.943153e-10	-3.593935e+01	-5.411709e+01
4.300000e-07	-5.154267e-06	-7.755095e-10	-3.581839e+01	-5.405680e+01
4.400000e-07	-5.136568e-06	-7.541073e-10	-3.569539e+01	-5.400020e+01
4.500000e-07	-5.118523e-06	-8.024048e-10	-3.556999e+01	-5.394705e+01
4.600000e-07	-5.100053e-06	-7.921567e-10	-3.544163e+01	-5.389706e+01
4.700000e-07	-5.081102e-06	-7.473166e-10	-3.530994e+01	-5.384990e+01
4.800000e-07	-5.061806e-06	-7.667071e-10	-3.517585e+01	-5.380525e+01
4.900000e-07	-5.042329e-06	-8.064572e-10	-3.504050e+01	-5.376272e+01
5.000000e-07	-5.022658e-06	-7.649685e-10	-3.490380e+01	-5.372193e+01
5.100000e-07	-5.002810e-06	-7.567325e-10	-3.476587e+01	-5.368246e+01
5.200000e-07	-4.982682e-06	-7.931999e-10	-3.462600e+01	-5.364388e+01
5.300000e-07	-4.962154e-06	-7.761612e-10	-3.448334e+01	-5.360577e+01
5.400000e-07	-4.941254e-06	-7.494729e-10	-3.433810e+01	-5.356768e+01
5.500000e-07	-4.920002e-06	-7.861338e-10	-3.419041e+01	-5.352916e+01
5.600000e-07	-4.898376e-06	-7.846741e-10	-3.404013e+01	-5.348978e+01
5.700000e-07	-4.876411e-06	-7.441230e-10	-3.388749e+01	-5.344909e+01
5.800000e-07	-4.854098e-06	-7.692410e-10	-3.373243e+01	-5.340668e+01
5.900000e-07	-4.831460e-06	-7.939764e-10	-3.357511e+01	-5.336212e+01
6.000000e-07	-4.808494e-06	-7.608630e-10	-3.341552e+01	-5.331502e+01
6.100000e-07	-4.785218e-06	-7.563502e-10	-3.325377e+01	-5.326502e+01
6.200000e-07	-4.761709e-06	-7.882371e-10	-3.309039e+01	-5.321174e+01
6.300000e-07	-4.737937e-06	-7.648772e-10	-3.292519e+01	-5.315488e+01
6.400000e-07	-4.713892e-06	-7.506938e-10	-3.275810e+01	-5.309412e+01
6.500000e-07	-4.689572e-06	-7.727618e-10	-3.258910e+01	-5.302921e+01
6.600000e-07	-4.664860e-06	-7.732830e-10	-3.241736e+01	-5.295992e+01
6.700000e-07	-4.639626e-06	-7.494478e-10	-3.224201e+01	-5.288604e+01
6.800000e-07	-4.613881e-06	-7.639342e-10	-3.206310e+01	-5.280741e+01
6.900000e-07	-4.587599e-06	-7.639933e-10	-3.188046e+01	-5.272391e+01
7.000000e-07	-4.560788e-06	-7.485843e-10	-3.169414e+01	-5.263544e+01
7.100000e-07	-4.533551e-06	-7.489280e-10	-3.150487e+01	-5.254195e+01
7.200000e-07	-4.506018e-06	-7.626077e-10	-3.131353e+01	-5.244341e+01
7.300000e-07	-4.478328e-06	-7.506445e-10	-3.112110e+01	-5.233986e+01
7.400000e-07	-4.450486e-06	-7.498995e-10	-3.092762e+01	-5.223133e+01
7.500000e-07	-4.422491e-06	-7.520994e-10	-3.073308e+01	-5.211791e+01
7.600000e-07	-4.394241e-06	-7.473714e-10	-3.053676e+01	-5.199971e+01
7.700000e-07	-4.365690e-06	-7.392611e-10	-3.033835e+01	-5.187687e+01
7.800000e-07	-4.336823e-06	-7.440225e-10	-3.013775e+01	-5.174956e+01
7.900000e-07	-4.307580e-06	-7.411011e-10	-2.993453e+01	-5.161797e+01
8.000000e-07	-4.278012e-06	-7.357893e-10	-2.972905e+01	-5.148229e+01
8.100000e-07	-4.248148e-06	-7.335019e-10	-2.952152e+01	-5.134277e+01
8.200000e-07	-4.217988e-06	-7.289355e-10	-2.931193e+01	-5.119964e+01
8.300000e-07	-4.187441e-06	-7.216510e-10	-2.909965e+01	-5.105314e+01
8.400000e-07	-4.156501e-06	-7.237385e-10	-2.888464e+01	-5.090353e+01
8.500000e-07	-4.125315e-06	-7.281580e-10	-2.866792e+01	-5.075107e+01
8.600000e-07	-4.093951e-06	-7.268219e-10	-2.844997e+01	-5.059602e+01
8.700000e-07	-4.062437e-06	-7.266763e-10	-2.823096e+01	-5.043863e+01
8.800000e-07	-4.030798e-06	-7.281188e-10	-2.801110e+01	-5.027916e+01
8.900000e-07	-3.999027e-06	-7.227278e-10	-2.779031e+01	-5.011783e+01
9.000000e-07	-3.967038e-06	-7.136145e-10	-2.756802e+01	-4.995488e+01
9.100000e-07	-3.934710e-06	-7.142823e-10	-2.734336e+01	-4.979051e+01
9.200000e-07	-3.901933e-06	-7.135189e-10	-2.711558e+01	-4.962491e+01
9.300000e-07	-3.868687e-06	-7.125611e-10	-2.688454e+01	-4.945826e+01
9.400000e-07	-3.834985e-06	-7.146161e-10	-2.665034e+01	-4.929068e+01
9.500000e-07	-3.800842e-06	-7.175866e-10	-2.641307e+01	-4.912232e+01
9.600000e-07	-3.766305e-06	-7.110350e-10	-2.617306e+01	-4.895326e+01
9.700000e-07	-3.731421e-06	-7.075124e-10	-2.593064e+01	-4.878357e+01
9.800000e-07	-3.696313e-06	-7.043939e-10	-2.568667e+01	-4.861328e+01
9.900000e-07	-3.660980e-06	-7.027959e-10	-2.544114e+01	-4.844241e+01
1.000000e-06	-3.625401e-06	-6.995601e-10	-2.519388e+01	-4.827093e+01
1.010000e-06	-3.589706e-06	-7.040697e-10	-2.494583e+01	-4.809880e+01
1.020000e-06	-3.553873e-06	-7.044197e-10	-2.469682e+01	-4.792594e+01
1.030000e-06	-3.517831e-06	-7.008589e-10	-2.444635e+01	-4.775224e+01
1.040000e-06	-3.481589e-06	-6.978512e-10	-2.419450e+01	-4.757756e+01
1.050000e-06	-3.445114e-06	-6.979134e-10	-2.394102e+01	-4.740175e+01
1.060000e-06	-3.408348e-06	-6.917001e-10	-2.368553e+01	-4.722463e+01
1.070000e-06	-3.371320e-06	-6.885896e-10	-2.342820e+01	-4.704598e+01
1.080000e-06	-3.334029e-06	-6.884844e-10	-2.316906e+01	-4.686559e+01
1.090000e-06	-3.296434e-06	-6.873029e-10	-2.290780e+01	-4.668321e+01
1.100000e-06	-3.258663e-06	-6.820993e-10	-2.264532e+01	-4.649857e+01
1.110000e-06	-3.220740e-06	-6.785339e-10	-2.238179e+01	-4.631141e+01
1.120000e-06	-3.182614e-06	-6.747246e-10	-2.211684e+01	-4.612145e+01
1.130000e-06	-3.144285e-06	-6.697892e-10	-2.185048e+01	-4.592839e+01
1.140000e-06	-3.105701e-06	-6.659433e-10	-2.158235e+01	-4.573193e+01
1.150000e-06	-3.066815e-06	-6.632673e-10	-2.131212e+01	-4.553177e+01
1.160000e-06	-3.027745e-06	-6.597891e-10	-2.104062e+01	-4.532762e+01
1.170000e-06	-2.988546e-06	-6.572127e-10	-2.076821e+01	-4.511917e+01
1.180000e-06	-2.949166e-06	-6.574020e-10	-2.049455e+01	-4.490614e+01
1.190000e-06	-2.909618e-06	-6.551260e-10	-2.021972e+01	-4.468823e+01
1.200000e-06	-2.869947e-06	-6.499187e-10	-1.994403e+01	-4.446518e+01
1.210000e-06	-2.830199e-06	-6.435350e-10	-1.966781e+01	-4.423670e+01
1.220000e-06	-2.790263e-06	-6.374739e-10	-1.939029e+01	-4.400255e+01
1.230000e-06	-2.750134e-06	-6.301638e-10	-1.911142e+01	-4.376249e+01
1.240000e-06	-2.709842e-06	-6.253397e-10	-1.883142e+01	-4.351629e+01
1.250000e-06	-2.669431e-06	-6.200560e-10	-1.855059e+01	-4.326375e+01
1.260000e-06	-2.628805e-06	-6.163798e-10	-1.826827e+01	-4.300466e+01
1.270000e-06	-2.587768e-06	-6.132433e-10	-1.798310e+01	-4.273885e+01
1.280000e-06	-2.546381e-06	-6.133046e-10	-1.769549e+01	-4.246617e+01
1.290000e-06	-2.504790e-06	-6.099354e-10	-1.740646e+01	-4.218647e+01
1.300000e-06	-2.462976e-06	-6.033709e-10	-1.711588e+01	-4.189962e+01
1.310000e-06	-2.420877e-06	-5.950031e-10	-1.682332e+01	-4.160551e+01
1.320000e-06	-2.378460e-06	-5.878800e-10	-1.652856e+01	-4.130405e+01
1.330000e-06	-2.335709e-06	-5.805875e-10	-1.623147e+01	-4.099516e+01
1.340000e-06	-2.292699e-06	-5.749371e-10	-1.593258e+01	-4.067875e+01
1.350000e-06	-2.249407e-06	-5.723316e-10	-1.563173e+01	-4.035477e+01
1.360000e-06	-2.205928e-06	-5.707569e-10	-1.532959e+01	-4.002318e+01
1.370000e-06	-2.162441e-06	-5.679647e-10	-1.502738e+01	-3.968391e+01
1.380000e-06	-2.118919e-06	-5.643522e-10	-1.472494e+01	-3.933693e+01
1.390000e-06	-2.075305e-06	-5.556560e-10	-1.442185e+01	-3.898219e+01
1.400000e-06	-2.031582e-06	-5.450141e-10	-1.411801e+01	-3.861967e+01
1.410000e-06	-1.987775e-06	-5.379125e-10	-1.381358e+01	-3.824931e+01
1.420000e-06	-1.943884e-06	-5.340843e-10	-1.350857e+01	-3.787106e+01
1.430000e-06	-1.899895e-06	-5.304120e-10	-1.320288e+01	-3.748488e+01
1.440000e-06	-1.855787e-06	-5.262817e-10	-1.289636e+01	-3.709070e+01
1.450000e-06	-1.811591e-06	-5.214004e-10	-1.258923e+01	-3.668845e+01
1.460000e-06	-1.767300e-06	-5.155653e-10	-1.228144e+01	-3.627803e+01
1.470000e-06	-1.722874e-06	-5.073786e-10	-1.197271e+01	-3.585936e+01
1.480000e-06	-1.678282e-06	-4.992281e-10	-1.166283e+01	-3.543231e+01
1.490000e-06	-1.633489e-06	-4.941041e-10	-1.135155e+01	-3.499676e+01
1.500000e-06	-1.588590e-06	-4.895548e-10	-1.103954e+01	-3.455255e+01
1.510000e-06	-1.543613e-06	-4.841623e-10	-1.072698e+01	-3.409951e+01
1.520000e-06	-1.498559e-06	-4.761306e-10	-1.041389e+01	-3.363745e+01
1.530000e-06	-1.453402e-06	-4.671426e-10	-1.010008e+01	-3.316618e+01
1.540000e-06	-1.408078e-06	-4.567174e-10	-9.785114e+00	-3.268545e+01
1.550000e-06	-1.362642e-06	-4.461852e-10	-9.469363e+00	-3.219504e+01
1.560000e-06	-1.317159e-06	-4.362198e-10	-9.153291e+00	-3.169467e+01
1.570000e-06	-1.271629e-06	-4.284296e-10	-8.836892e+00	-3.118406e+01
1.580000e-06	-1.225989e-06	-4.222018e-10	-8.519728e+00	-3.066293e+01
1.590000e-06	-1.180270e-06	-4.149281e-10	-8.202012e+00	-3.013097e+01
1.600000e-06	-1.134441e-06	-4.056813e-10	-7.883538e+00	-2.958786e+01
1.610000e-06	-1.088498e-06	-3.968186e-10	-7.564267e+00	-2.903326e+01
1.620000e-06	-1.042538e-06	-3.864808e-10	-7.244878e+00	-2.846686e+01
1.630000e-06	-9.965973e-07	-3.762506e-10	-6.925622e+00	-2.788831e+01
1.640000e-06	-9.506218e-07	-3.674383e-10	-6.606126e+00	-2.729728e+01
1.650000e-06	-9.045995e-07	-3.589364e-10	-6.286305e+00	-2.669343e+01
1.660000e-06	-8.584179e-07	-3.499425e-10	-5.965376e+00	-2.607644e+01
1.670000e-06	-8.120187e-07	-3.414143e-10	-5.642936e+00	-2.544598e+01
1.680000e-06	-7.655251e-07	-3.322464e-10	-5.319840e+00	-2.480175e+01
1.690000e-06	-7.189876e-07	-3.228836e-10	-4.996438e+00	-2.414346e+01
1.700000e-06	-6.724891e-07	-3.125476e-10	-4.673307e+00	-2.347084e+01
1.710000e-06	-6.259452e-07	-3.018976e-10	-4.349861e+00	-2.278365e+01
1.720000e-06	-5.793230e-07	-2.912750e-10	-4.025871e+00	-2.208168e+01
1.730000e-06	-5.327113e-07	-2.823615e-10	-3.701954e+00	-2.136473e+01
1.740000e-06	-4.861516e-07	-2.736664e-10	-3.378398e+00	-2.063265e+01
1.750000e-06	-4.395585e-07	-2.614299e-10	-3.054610e+00	-1.988534e+01
1.760000e-06	-3.928634e-07	-2.482140e-10	-2.730113e+00	-1.912271e+01
1.770000e-06	-3.460347e-07	-2.366328e-10	-2.404688e+00	-1.834473e+01
1.780000e-06	-2.991171e-07	-2.256035e-10	-2.078645e+00	-1.755142e+01
1.790000e-06	-2.521881e-07	-2.134702e-10	-1.752523e+00	-1.674283e+01
1.800000e-06	-2.053607e-07	-2.001211e-10	-1.427106e+00	-1.591909e+01
1.810000e-06	-1.586217e-07	-1.852753e-10	-1.102305e+00	-1.508035e+01
1.820000e-06	-1.117170e-07	-1.713683e-10	-7.763514e-01	-1.422682e+01
1.830000e-06	-6.471530e-08	-1.582981e-10	-4.497240e-01	-1.335877e+01
1.840000e-06	-1.781575e-08	-1.447153e-10	-1.238064e-01	-1.247653e+01
1.850000e-06	2.904935e-08	-1.308771e-10	2.018717e-01	-1.158045e+01
1.860000e-06	7.593525e-08	-1.172677e-10	5.276944e-01	-1.067098e+01
1.870000e-06	1.227486e-07	-1.020193e-10	8.530127e-01	-9.748583e+00
1.880000e-06	1.695304e-07	-8.716584e-11	1.178112e+00	-8.813789e+00
1.890000e-06	2.163306e-07	-7.455945e-11	1.503340e+00	-7.867178e+00
1.900000e-06	2.631539e-07	-6.358721e-11	1.828727e+00	-6.909375e+00
1.910000e-06	3.099366e-07	-5.185256e-11	2.153832e+00	-5.941051e+00
1.920000e-06	3.567076e-07	-3.789568e-11	2.478857e+00	-4.962919e+00
1.930000e-06	4.034957e-07	-2.174289e-11	2.804000e+00	-3.975732e+00
1.940000e-06	4.501248e-07	-4.246931e-12	3.128038e+00	-2.980280e+00
1.950000e-06	4.966646e-07	1.308024e-11	3.451456e+00	-1.977388e+00
1.960000e-06	5.433002e-07	2.711307e-11	3.775539e+00	-9.679073e-01
1.970000e-06	5.899066e-07	3.846768e-11	4.099419e+00	4.728205e-02
1.980000e-06	6.364403e-07	5.015525e-11	4.422795e+00	1.067279e+00
1.990000e-06	6.829345e-07	6.070376e-11	4.745896e+00	2.091166e+00
2.000000e-06	7.292883e-07	7.108005e-11	5.068020e+00	3.118010e+00
2.010000e-06	7.755820e-07	8.623431e-11	5.389727e+00	4.146869e+00
2.020000e-06	8.218725e-07	1.031320e-10	5.711413e+00	5.176797e+00
2.030000e-06	8.681209e-07	1.214995e-10	6.032805e+00	6.206846e+00
2.040000e-06	9.143141e-07	1.400709e-10	6.353814e+00	7.236074e+00
2.050000e-06	9.604249e-07	1.545990e-10	6.674250e+00	8.263543e+00
2.060000e-06	1.006418e-06	1.663207e-10	6.993872e+00	9.288331e+00
2.070000e-06	1.052302e-06	1.764628e-10	7.312726e+00	1.030953e+01
2.080000e-06	1.098215e-06	1.882875e-10	7.631792e+00	1.132624e+01
2.090000e-06	1.144076e-06	2.024580e-10	7.950489e+00	1.233761e+01
2.100000e-06	1.189784e-06	2.188135e-10	8.268127e+00	1.334280e+01
2.110000e-06	1.235416e-06	2.345366e-10	8.585241e+00	1.434099e+01
2.120000e-06	1.280972e-06	2.496525e-10	8.901817e+00	1.533140e+01
2.130000e-06	1.326427e-06	2.640264e-10	9.217699e+00	1.631329e+01
2.140000e-06	1.371764e-06	2.761345e-10	9.532754e+00	1.728596e+01
2.150000e-06	1.417037e-06	2.863642e-10	9.847369e+00	1.824874e+01
2.160000e-06	1.462252e-06	2.963441e-10	1.016158e+01	1.920099e+01
2.170000e-06	1.507334e-06	3.075906e-10	1.047487e+01	2.014214e+01
2.180000e-06	1.552246e-06	3.204601e-10	1.078698e+01	2.107163e+01
2.190000e-06	1.597084e-06	3.355080e-10	1.109857e+01	2.198898e+01
2.200000e-06	1.641848e-06	3.509823e-10	1.140964e+01	2.289372e+01
2.210000e-06	1.686459e-06	3.631467e-10	1.171965e+01	2.378545e+01
2.220000e-06	1.730923e-06	3.723117e-10	1.202865e+01	2.466378e+01
2.230000e-06	1.775235e-06	3.803699e-10	1.233659e+01	2.552841e+01
2.240000e-06	1.819350e-06	3.905737e-10	1.264315e+01	2.637904e+01
2.250000e-06	1.863336e-06	4.040000e-10	1.294882e+01	2.721544e+01
2.260000e-06	1.907259e-06	4.190119e-10	1.325405e+01	2.803741e+01
2.270000e-06	1.951082e-06	4.321907e-10	1.355859e+01	2.884477e+01
2.280000e-06	1.994876e-06	4.426099e-10	1.386293e+01	2.963742e+01
2.290000e-06	2.038668e-06	4.523660e-10	1.416725e+01	3.041525e+01
2.300000e-06	2.082380e-06	4.608603e-10	1.447102e+01	3.117821e+01
2.310000e-06	2.126019e-06	4.684891e-10	1.477427e+01	3.192629e+01
2.320000e-06	2.169592e-06	4.763286e-10	1.507708e+01	3.265947e+01
2.330000e-06	2.213111e-06	4.859288e-10	1.537950e+01	3.337781e+01
2.340000e-06	2.256574e-06	4.976409e-10	1.568154e+01	3.408136e+01
2.350000e-06	2.299853e-06	5.102965e-10	1.598230e+01	3.477019e+01
2.360000e-06	2.342851e-06	5.215031e-10	1.628110e+01	3.544442e+01
2.370000e-06	2.385568e-06	5.302761e-10	1.657796e+01	3.610416e+01
2.380000e-06	2.427925e-06	5.362616e-10	1.687230e+01	3.674956e+01
2.390000e-06	2.469975e-06	5.416708e-10	1.716452e+01	3.738076e+01
2.400000e-06	2.511788e-06	5.486221e-10	1.745509e+01	3.799795e+01
2.410000e-06	2.553235e-06	5.589284e-10	1.774311e+01	3.860128e+01
2.420000e-06	2.594419e-06	5.716903e-10	1.802931e+01	3.919097e+01
2.430000e-06	2.635346e-06	5.836689e-10	1.831372e+01	3.976719e+01
2.440000e-06	2.675832e-06	5.931880e-10	1.859508e+01	4.033016e+01
2.450000e-06	2.716088e-06	5.992818e-10	1.887482e+01	4.088008e+01
2.460000e-06	2.756227e-06	6.035949e-10	1.915376e+01	4.141716e+01
2.470000e-06	2.796210e-06	6.084321e-10	1.943162e+01	4.194162e+01
2.480000e-06	2.836096e-06	6.120211e-10	1.970880e+01	4.245368e+01
2.490000e-06	2.875895e-06	6.162975e-10	1.998537e+01	4.295355e+01
2.500000e-06	2.915587e-06	6.255402e-10	2.026120e+01	4.344146e+01
2.510000e-06	2.955102e-06	6.368563e-10	2.053580e+01	4.391761e+01
2.520000e-06	2.994368e-06	6.472806e-10	2.080867e+01	4.438224e+01
2.530000e-06	3.033417e-06	6.561358e-10	2.108003e+01	4.483556e+01
2.540000e-06	3.072361e-06	6.635118e-10	2.135066e+01	4.527778e+01
2.550000e-06	3.111140e-06	6.693279e-10	2.162015e+01	4.570912e+01
2.560000e-06	3.149659e-06	6.727899e-10	2.188782e+01	4.612979e+01
2.570000e-06	3.187827e-06	6.758159e-10	2.215306e+01	4.654000e+01
2.580000e-06	3.225696e-06	6.811039e-10	2.241623e+01	4.693997e+01
2.590000e-06	3.263472e-06	6.889899e-10	2.267874e+01	4.732991e+01
2.600000e-06	3.301181e-06	6.973856e-10	2.294079e+01	4.771001e+01
2.610000e-06	3.338688e-06	7.045365e-10	2.320144e+01	4.808050e+01
2.620000e-06	3.375926e-06	7.101616e-10	2.346022e+01	4.844156e+01
2.630000e-06	3.412853e-06	7.134168e-10	2.371683e+01	4.879341e+01
2.640000e-06	3.449479e-06	7.161280e-10	2.397136e+01	4.913625e+01
2.650000e-06	3.485904e-06	7.205307e-10	2.422448e+01	4.947027e+01
2.660000e-06	3.522096e-06	7.267977e-10	2.447599e+01	4.979568e+01
2.670000e-06	3.558038e-06	7.314594e-10	2.472576e+01	5.011267e+01
2.680000e-06	3.593871e-06	7.343659e-10	2.497477e+01	5.042145e+01
2.690000e-06	3.629625e-06	7.375445e-10	2.522324e+01	5.072219e+01
2.700000e-06	3.665240e-06	7.397419e-10	2.547074e+01	5.101509e+01
2.710000e-06	3.700699e-06	7.433795e-10	2.571715e+01	5.130035e+01
2.720000e-06	3.735865e-06	7.486298e-10	2.596153e+01	5.157814e+01
2.730000e-06	3.770652e-06	7.533499e-10	2.620327e+01	5.184865e+01
2.740000e-06	3.805164e-06	7.569725e-10	2.644311e+01	5.211205e+01
2.750000e-06	3.839360e-06	7.599650e-10	2.668074e+01	5.236852e+01
2.760000e-06	3.873002e-06	7.622172e-10	2.691453e+01	5.261823e+01
2.770000e-06	3.906049e-06	7.637116e-10	2.714419e+01	5.286134e+01
2.780000e-06	3.938705e-06	7.649509e-10	2.737112e+01	5.309800e+01
2.790000e-06	3.970989e-06	7.665788e-10	2.759547e+01	5.332837e+01
2.800000e-06	4.002929e-06	7.693961e-10	2.781743e+01	5.355258e+01
2.810000e-06	4.034744e-06	7.726511e-10	2.803852e+01	5.377078e+01
2.820000e-06	4.066423e-06	7.754821e-10	2.825867e+01	5.398310e+01
2.830000e-06	4.097895e-06	7.797026e-10	2.847737e+01	5.418964e+01
2.840000e-06	4.129172e-06	7.848727e-10	2.869472e+01	5.439051e+01
2.850000e-06	4.160225e-06	7.882359e-10	2.891052e+01	5.458583e+01
2.860000e-06	4.190928e-06	7.894758e-10	2.912389e+01	5.477568e+01
2.870000e-06	4.221256e-06	7.887690e-10	2.933464e+01	5.496014e+01
2.880000e-06	4.251298e-06	7.860079e-10	2.954341e+01	5.513928e+01
2.890000e-06	4.281060e-06	7.830661e-10	2.975024e+01	5.531316e+01
2.900000e-06	4.310550e-06	7.828739e-10	2.995517e+01	5.548185e+01
