# Temperatura_=_6.5
# Concentracion g/m^3_=_1620.0
# C_Vs_to_Am_M_A/Vsm_=_65563218390.804596
# pendiente_HvsI_1/m_=_3716.3
# ordenada_HvsI_A/m_=_1297.0
# frecuencia_Hz_=_135107.8025160689

Tiempo_(s)	Campo_(V.s)	Magnetizacion_(V.s)	Campo_(kA/m)	Magnetizacion_(A/m)
0.000000e+00	-5.508522e-06	-1.351413e-09	-3.836868e+01	-8.602628e+01
1.000000e-08	-5.508882e-06	-1.347875e-09	-3.837119e+01	-8.597004e+01
2.000000e-08	-5.509008e-06	-1.344138e-09	-3.837207e+01	-8.590860e+01
3.000000e-08	-5.508693e-06	-1.341159e-09	-3.836988e+01	-8.584194e+01
4.000000e-08	-5.507924e-06	-1.338607e-09	-3.836452e+01	-8.577008e+01
5.000000e-08	-5.506711e-06	-1.335154e-09	-3.835607e+01	-8.569304e+01
6.000000e-08	-5.504892e-06	-1.333826e-09	-3.834340e+01	-8.561087e+01
7.000000e-08	-5.502409e-06	-1.340501e-09	-3.832611e+01	-8.552366e+01
8.000000e-08	-5.499420e-06	-1.361365e-09	-3.830529e+01	-8.543150e+01
9.000000e-08	-5.495956e-06	-1.352787e-09	-3.828116e+01	-8.533451e+01
1.000000e-07	-5.491976e-06	-1.286128e-09	-3.825343e+01	-8.523283e+01
1.100000e-07	-5.487624e-06	-1.268789e-09	-3.822312e+01	-8.512662e+01
1.200000e-07	-5.483082e-06	-1.375186e-09	-3.819149e+01	-8.501607e+01
1.300000e-07	-5.478389e-06	-1.416163e-09	-3.815880e+01	-8.490136e+01
1.400000e-07	-5.473331e-06	-1.317726e-09	-3.812357e+01	-8.478271e+01
1.500000e-07	-5.467910e-06	-1.243455e-09	-3.808581e+01	-8.466034e+01
1.600000e-07	-5.462169e-06	-1.330966e-09	-3.804582e+01	-8.453448e+01
1.700000e-07	-5.455991e-06	-1.398673e-09	-3.800279e+01	-8.440539e+01
1.800000e-07	-5.449248e-06	-1.311752e-09	-3.795583e+01	-8.427330e+01
1.900000e-07	-5.442120e-06	-1.228834e-09	-3.790618e+01	-8.413848e+01
2.000000e-07	-5.434804e-06	-1.299361e-09	-3.785522e+01	-8.400117e+01
2.100000e-07	-5.427212e-06	-1.348898e-09	-3.780233e+01	-8.386163e+01
2.200000e-07	-5.419307e-06	-1.291619e-09	-3.774728e+01	-8.372012e+01
2.300000e-07	-5.411099e-06	-1.216177e-09	-3.769010e+01	-8.357687e+01
2.400000e-07	-5.402538e-06	-1.249087e-09	-3.763047e+01	-8.343212e+01
2.500000e-07	-5.393412e-06	-1.275350e-09	-3.756691e+01	-8.328610e+01
2.600000e-07	-5.383594e-06	-1.248879e-09	-3.749852e+01	-8.313901e+01
2.700000e-07	-5.373183e-06	-1.222674e-09	-3.742601e+01	-8.299105e+01
2.800000e-07	-5.362288e-06	-1.237330e-09	-3.735012e+01	-8.284239e+01
2.900000e-07	-5.350936e-06	-1.246463e-09	-3.727105e+01	-8.269319e+01
3.000000e-07	-5.339201e-06	-1.226374e-09	-3.718931e+01	-8.254358e+01
3.100000e-07	-5.327146e-06	-1.221264e-09	-3.710534e+01	-8.239367e+01
3.200000e-07	-5.314655e-06	-1.224039e-09	-3.701834e+01	-8.224355e+01
3.300000e-07	-5.301696e-06	-1.241776e-09	-3.692808e+01	-8.209327e+01
3.400000e-07	-5.288424e-06	-1.224369e-09	-3.683563e+01	-8.194287e+01
3.500000e-07	-5.274722e-06	-1.200106e-09	-3.674019e+01	-8.179235e+01
3.600000e-07	-5.260582e-06	-1.190234e-09	-3.664170e+01	-8.164170e+01
3.700000e-07	-5.246099e-06	-1.217948e-09	-3.654083e+01	-8.149086e+01
3.800000e-07	-5.231014e-06	-1.195286e-09	-3.643575e+01	-8.133975e+01
3.900000e-07	-5.215243e-06	-1.194735e-09	-3.632590e+01	-8.118828e+01
4.000000e-07	-5.199028e-06	-1.227534e-09	-3.621296e+01	-8.103631e+01
4.100000e-07	-5.182540e-06	-1.218848e-09	-3.609811e+01	-8.088369e+01
4.200000e-07	-5.165695e-06	-1.162897e-09	-3.598078e+01	-8.073025e+01
4.300000e-07	-5.148447e-06	-1.202375e-09	-3.586064e+01	-8.057578e+01
4.400000e-07	-5.130883e-06	-1.233280e-09	-3.573831e+01	-8.042007e+01
4.500000e-07	-5.112931e-06	-1.157517e-09	-3.561326e+01	-8.026289e+01
4.600000e-07	-5.094568e-06	-1.138505e-09	-3.548536e+01	-8.010398e+01
4.700000e-07	-5.075843e-06	-1.228503e-09	-3.535493e+01	-7.994309e+01
4.800000e-07	-5.056811e-06	-1.200311e-09	-3.522237e+01	-7.977992e+01
4.900000e-07	-5.037518e-06	-1.132065e-09	-3.508799e+01	-7.961421e+01
5.000000e-07	-5.017963e-06	-1.192116e-09	-3.495178e+01	-7.944566e+01
5.100000e-07	-4.998214e-06	-1.215016e-09	-3.481422e+01	-7.927399e+01
5.200000e-07	-4.978187e-06	-1.128257e-09	-3.467473e+01	-7.909889e+01
5.300000e-07	-4.957816e-06	-1.152373e-09	-3.453284e+01	-7.892010e+01
5.400000e-07	-4.937167e-06	-1.208867e-09	-3.438901e+01	-7.873731e+01
5.500000e-07	-4.916203e-06	-1.130449e-09	-3.424298e+01	-7.855026e+01
5.600000e-07	-4.894850e-06	-1.109249e-09	-3.409426e+01	-7.835868e+01
5.700000e-07	-4.873069e-06	-1.195346e-09	-3.394254e+01	-7.816232e+01
5.800000e-07	-4.850931e-06	-1.165976e-09	-3.378834e+01	-7.796095e+01
5.900000e-07	-4.828407e-06	-1.103002e-09	-3.363146e+01	-7.775434e+01
6.000000e-07	-4.805477e-06	-1.166027e-09	-3.347175e+01	-7.754230e+01
6.100000e-07	-4.782313e-06	-1.179691e-09	-3.331040e+01	-7.732464e+01
6.200000e-07	-4.758923e-06	-1.112970e-09	-3.314748e+01	-7.710120e+01
6.300000e-07	-4.735313e-06	-1.131923e-09	-3.298303e+01	-7.687187e+01
6.400000e-07	-4.711431e-06	-1.166683e-09	-3.281668e+01	-7.663651e+01
6.500000e-07	-4.687163e-06	-1.111376e-09	-3.264765e+01	-7.639504e+01
6.600000e-07	-4.662472e-06	-1.103917e-09	-3.247566e+01	-7.614741e+01
6.700000e-07	-4.637339e-06	-1.136480e-09	-3.230060e+01	-7.589358e+01
6.800000e-07	-4.611752e-06	-1.109746e-09	-3.212238e+01	-7.563352e+01
6.900000e-07	-4.585592e-06	-1.086905e-09	-3.194017e+01	-7.536727e+01
7.000000e-07	-4.558845e-06	-1.118572e-09	-3.175387e+01	-7.509484e+01
7.100000e-07	-4.531693e-06	-1.106244e-09	-3.156475e+01	-7.481631e+01
7.200000e-07	-4.504257e-06	-1.076794e-09	-3.137364e+01	-7.453174e+01
7.300000e-07	-4.476642e-06	-1.084824e-09	-3.118130e+01	-7.424123e+01
7.400000e-07	-4.448915e-06	-1.086665e-09	-3.098817e+01	-7.394491e+01
7.500000e-07	-4.421032e-06	-1.058691e-09	-3.079396e+01	-7.364291e+01
7.600000e-07	-4.392922e-06	-1.058805e-09	-3.059816e+01	-7.333536e+01
7.700000e-07	-4.364484e-06	-1.064841e-09	-3.040008e+01	-7.302244e+01
7.800000e-07	-4.335650e-06	-1.049766e-09	-3.019924e+01	-7.270430e+01
7.900000e-07	-4.306458e-06	-1.042399e-09	-2.999591e+01	-7.238112e+01
8.000000e-07	-4.277005e-06	-1.047218e-09	-2.979076e+01	-7.205309e+01
8.100000e-07	-4.247252e-06	-1.031630e-09	-2.958352e+01	-7.172039e+01
8.200000e-07	-4.217106e-06	-1.018023e-09	-2.937355e+01	-7.138319e+01
8.300000e-07	-4.186770e-06	-1.019173e-09	-2.916224e+01	-7.104169e+01
8.400000e-07	-4.156283e-06	-1.008862e-09	-2.894989e+01	-7.069605e+01
8.500000e-07	-4.125444e-06	-9.913164e-10	-2.873509e+01	-7.034646e+01
8.600000e-07	-4.094250e-06	-9.904080e-10	-2.851781e+01	-6.999305e+01
8.700000e-07	-4.062785e-06	-9.905268e-10	-2.829865e+01	-6.963600e+01
8.800000e-07	-4.031186e-06	-9.797771e-10	-2.807855e+01	-6.927543e+01
8.900000e-07	-3.999487e-06	-9.849091e-10	-2.785776e+01	-6.891147e+01
9.000000e-07	-3.967632e-06	-9.885237e-10	-2.763587e+01	-6.854423e+01
9.100000e-07	-3.935484e-06	-9.722433e-10	-2.741195e+01	-6.817379e+01
9.200000e-07	-3.902933e-06	-9.578895e-10	-2.718523e+01	-6.780024e+01
9.300000e-07	-3.869981e-06	-9.547997e-10	-2.695570e+01	-6.742362e+01
9.400000e-07	-3.836620e-06	-9.394860e-10	-2.672333e+01	-6.704398e+01
9.500000e-07	-3.802862e-06	-9.275038e-10	-2.648820e+01	-6.666132e+01
9.600000e-07	-3.768659e-06	-9.356272e-10	-2.624996e+01	-6.627565e+01
9.700000e-07	-3.734022e-06	-9.396156e-10	-2.600871e+01	-6.588695e+01
9.800000e-07	-3.699036e-06	-9.286836e-10	-2.576501e+01	-6.549518e+01
9.900000e-07	-3.663738e-06	-9.274236e-10	-2.551915e+01	-6.510029e+01
1.000000e-06	-3.628243e-06	-9.247123e-10	-2.527192e+01	-6.470219e+01
1.010000e-06	-3.592634e-06	-9.101586e-10	-2.502389e+01	-6.430081e+01
1.020000e-06	-3.556880e-06	-9.008895e-10	-2.477485e+01	-6.389605e+01
1.030000e-06	-3.520967e-06	-9.031516e-10	-2.452470e+01	-6.348778e+01
1.040000e-06	-3.484901e-06	-8.943751e-10	-2.427349e+01	-6.307589e+01
1.050000e-06	-3.448591e-06	-8.862060e-10	-2.402058e+01	-6.266025e+01
1.060000e-06	-3.412007e-06	-8.861571e-10	-2.376576e+01	-6.224071e+01
1.070000e-06	-3.375204e-06	-8.798614e-10	-2.350942e+01	-6.181713e+01
1.080000e-06	-3.338148e-06	-8.636053e-10	-2.325131e+01	-6.138937e+01
1.090000e-06	-3.300843e-06	-8.571619e-10	-2.299147e+01	-6.095728e+01
1.100000e-06	-3.263220e-06	-8.550961e-10	-2.272941e+01	-6.052071e+01
1.110000e-06	-3.225315e-06	-8.457606e-10	-2.246539e+01	-6.007953e+01
1.120000e-06	-3.187215e-06	-8.395322e-10	-2.220001e+01	-5.963359e+01
1.130000e-06	-3.148922e-06	-8.372318e-10	-2.193329e+01	-5.918276e+01
1.140000e-06	-3.110420e-06	-8.274810e-10	-2.166511e+01	-5.872692e+01
1.150000e-06	-3.071745e-06	-8.156856e-10	-2.139572e+01	-5.826597e+01
1.160000e-06	-3.032867e-06	-8.088342e-10	-2.112493e+01	-5.779979e+01
1.170000e-06	-2.993775e-06	-8.005283e-10	-2.085264e+01	-5.732831e+01
1.180000e-06	-2.954518e-06	-7.896204e-10	-2.057920e+01	-5.685145e+01
1.190000e-06	-2.915092e-06	-7.851359e-10	-2.030458e+01	-5.636914e+01
1.200000e-06	-2.875536e-06	-7.836951e-10	-2.002906e+01	-5.588135e+01
1.210000e-06	-2.835819e-06	-7.756741e-10	-1.975242e+01	-5.538803e+01
1.220000e-06	-2.795994e-06	-7.689666e-10	-1.947503e+01	-5.488918e+01
1.230000e-06	-2.756107e-06	-7.634647e-10	-1.919720e+01	-5.438478e+01
1.240000e-06	-2.716050e-06	-7.520321e-10	-1.891819e+01	-5.387485e+01
1.250000e-06	-2.675791e-06	-7.376042e-10	-1.863777e+01	-5.335940e+01
1.260000e-06	-2.635327e-06	-7.281937e-10	-1.835593e+01	-5.283848e+01
1.270000e-06	-2.594597e-06	-7.201562e-10	-1.807223e+01	-5.231211e+01
1.280000e-06	-2.553601e-06	-7.144366e-10	-1.778668e+01	-5.178035e+01
1.290000e-06	-2.512367e-06	-7.106972e-10	-1.749947e+01	-5.124326e+01
1.300000e-06	-2.470812e-06	-7.073171e-10	-1.721003e+01	-5.070089e+01
1.310000e-06	-2.428875e-06	-6.974247e-10	-1.691792e+01	-5.015329e+01
1.320000e-06	-2.386605e-06	-6.823428e-10	-1.662349e+01	-4.960054e+01
1.330000e-06	-2.344043e-06	-6.688562e-10	-1.632704e+01	-4.904268e+01
1.340000e-06	-2.301206e-06	-6.565750e-10	-1.602866e+01	-4.847975e+01
1.350000e-06	-2.258031e-06	-6.449519e-10	-1.572794e+01	-4.791181e+01
1.360000e-06	-2.214683e-06	-6.381378e-10	-1.542601e+01	-4.733886e+01
1.370000e-06	-2.171276e-06	-6.329256e-10	-1.512366e+01	-4.676093e+01
1.380000e-06	-2.127767e-06	-6.266999e-10	-1.482060e+01	-4.617801e+01
1.390000e-06	-2.084169e-06	-6.176486e-10	-1.451693e+01	-4.559007e+01
1.400000e-06	-2.040500e-06	-6.056176e-10	-1.421276e+01	-4.499706e+01
1.410000e-06	-1.996770e-06	-5.924011e-10	-1.390817e+01	-4.439891e+01
1.420000e-06	-1.952979e-06	-5.801663e-10	-1.360315e+01	-4.379552e+01
1.430000e-06	-1.909118e-06	-5.707685e-10	-1.329764e+01	-4.318675e+01
1.440000e-06	-1.865155e-06	-5.622730e-10	-1.299143e+01	-4.257246e+01
1.450000e-06	-1.821084e-06	-5.518357e-10	-1.268446e+01	-4.195244e+01
1.460000e-06	-1.776941e-06	-5.403187e-10	-1.237699e+01	-4.132647e+01
1.470000e-06	-1.732647e-06	-5.286920e-10	-1.206846e+01	-4.069429e+01
1.480000e-06	-1.688121e-06	-5.169488e-10	-1.175832e+01	-4.005561e+01
1.490000e-06	-1.643536e-06	-5.071912e-10	-1.144777e+01	-3.941010e+01
1.500000e-06	-1.598886e-06	-4.989678e-10	-1.113677e+01	-3.875740e+01
1.510000e-06	-1.554015e-06	-4.906710e-10	-1.082423e+01	-3.809712e+01
1.520000e-06	-1.508968e-06	-4.815141e-10	-1.051047e+01	-3.742883e+01
1.530000e-06	-1.463783e-06	-4.720085e-10	-1.019574e+01	-3.675208e+01
1.540000e-06	-1.418444e-06	-4.622501e-10	-9.879937e+00	-3.606638e+01
1.550000e-06	-1.373072e-06	-4.526514e-10	-9.563902e+00	-3.537122e+01
1.560000e-06	-1.327731e-06	-4.419102e-10	-9.248086e+00	-3.466607e+01
1.570000e-06	-1.282302e-06	-4.311815e-10	-8.931661e+00	-3.395038e+01
1.580000e-06	-1.236741e-06	-4.217571e-10	-8.614312e+00	-3.322357e+01
1.590000e-06	-1.191049e-06	-4.115781e-10	-8.296050e+00	-3.248506e+01
1.600000e-06	-1.145308e-06	-4.025109e-10	-7.977451e+00	-3.173427e+01
1.610000e-06	-1.099540e-06	-3.959385e-10	-7.658660e+00	-3.097059e+01
1.620000e-06	-1.053662e-06	-3.857923e-10	-7.339107e+00	-3.019342e+01
1.630000e-06	-1.007675e-06	-3.709627e-10	-7.018789e+00	-2.940219e+01
1.640000e-06	-9.615888e-07	-3.563053e-10	-6.697785e+00	-2.859629e+01
1.650000e-06	-9.154842e-07	-3.425401e-10	-6.376651e+00	-2.777517e+01
1.660000e-06	-8.693522e-07	-3.270649e-10	-6.055327e+00	-2.693828e+01
1.670000e-06	-8.231520e-07	-3.121050e-10	-5.733527e+00	-2.608509e+01
1.680000e-06	-7.768581e-07	-3.004447e-10	-5.411075e+00	-2.521511e+01
1.690000e-06	-7.305234e-07	-2.909264e-10	-5.088338e+00	-2.432788e+01
1.700000e-06	-6.842357e-07	-2.804956e-10	-4.765929e+00	-2.342297e+01
1.710000e-06	-6.378892e-07	-2.694309e-10	-4.443110e+00	-2.250002e+01
1.720000e-06	-5.914698e-07	-2.569731e-10	-4.119784e+00	-2.155868e+01
1.730000e-06	-5.449833e-07	-2.423430e-10	-3.795990e+00	-2.059870e+01
1.740000e-06	-4.984366e-07	-2.243899e-10	-3.471776e+00	-1.961984e+01
1.750000e-06	-4.518544e-07	-2.054651e-10	-3.147316e+00	-1.862196e+01
1.760000e-06	-4.052120e-07	-1.880363e-10	-2.822436e+00	-1.760495e+01
1.770000e-06	-3.585730e-07	-1.727672e-10	-2.497580e+00	-1.656880e+01
1.780000e-06	-3.118782e-07	-1.598280e-10	-2.172335e+00	-1.551353e+01
1.790000e-06	-2.650942e-07	-1.478896e-10	-1.846469e+00	-1.443928e+01
1.800000e-06	-2.182794e-07	-1.366477e-10	-1.520388e+00	-1.334622e+01
1.810000e-06	-1.713890e-07	-1.227584e-10	-1.193781e+00	-1.223462e+01
1.820000e-06	-1.245165e-07	-1.053597e-10	-8.672985e-01	-1.110481e+01
1.830000e-06	-7.772876e-08	-8.507935e-11	-5.414066e-01	-9.957205e+00
1.840000e-06	-3.090194e-08	-6.392481e-11	-2.152423e-01	-8.792287e+00
1.850000e-06	1.590222e-08	-4.421976e-11	1.107642e-01	-7.610616e+00
1.860000e-06	6.267057e-08	-2.677042e-11	4.365213e-01	-6.412824e+00
1.870000e-06	1.093884e-07	-9.246490e-12	7.619264e-01	-5.199613e+00
1.880000e-06	1.560588e-07	7.320660e-12	1.087001e+00	-3.971753e+00
1.890000e-06	2.027494e-07	2.209308e-11	1.412217e+00	-2.730079e+00
1.900000e-06	2.494195e-07	3.654301e-11	1.737290e+00	-1.475489e+00
1.910000e-06	2.960516e-07	5.067297e-11	2.062098e+00	-2.089368e-01
1.920000e-06	3.426871e-07	6.702335e-11	2.386930e+00	1.068567e+00
1.930000e-06	3.893226e-07	8.866176e-11	2.711761e+00	2.355962e+00
1.940000e-06	4.358697e-07	1.130349e-10	3.035977e+00	3.652147e+00
1.950000e-06	4.823826e-07	1.364108e-10	3.359955e+00	4.955975e+00
1.960000e-06	5.288732e-07	1.567218e-10	3.683778e+00	6.266269e+00
1.970000e-06	5.753402e-07	1.737032e-10	4.007436e+00	7.581821e+00
1.980000e-06	6.217780e-07	1.892907e-10	4.330890e+00	8.901400e+00
1.990000e-06	6.680547e-07	2.035527e-10	4.653223e+00	1.022376e+01
2.000000e-06	7.142803e-07	2.169522e-10	4.975200e+00	1.154763e+01
2.010000e-06	7.605092e-07	2.351697e-10	5.297199e+00	1.287176e+01
2.020000e-06	8.066966e-07	2.554127e-10	5.618910e+00	1.419488e+01
2.030000e-06	8.528995e-07	2.775940e-10	5.940728e+00	1.551572e+01
2.040000e-06	8.990545e-07	3.020736e-10	6.262213e+00	1.683304e+01
2.050000e-06	9.450889e-07	3.224465e-10	6.582859e+00	1.814562e+01
2.060000e-06	9.909940e-07	3.387997e-10	6.902602e+00	1.945223e+01
2.070000e-06	1.036872e-06	3.535782e-10	7.222158e+00	2.075170e+01
2.080000e-06	1.082689e-06	3.682040e-10	7.541289e+00	2.204289e+01
2.090000e-06	1.128341e-06	3.834985e-10	7.859267e+00	2.332467e+01
2.100000e-06	1.173925e-06	4.039478e-10	8.176780e+00	2.459600e+01
2.110000e-06	1.219529e-06	4.254379e-10	8.494428e+00	2.585584e+01
2.120000e-06	1.265096e-06	4.440446e-10	8.811814e+00	2.710322e+01
2.130000e-06	1.310560e-06	4.588003e-10	9.128489e+00	2.833723e+01
2.140000e-06	1.355922e-06	4.723490e-10	9.444446e+00	2.955699e+01
2.150000e-06	1.401244e-06	4.848968e-10	9.760133e+00	3.076171e+01
2.160000e-06	1.446460e-06	4.985680e-10	1.007507e+01	3.195064e+01
2.170000e-06	1.491476e-06	5.161290e-10	1.038863e+01	3.312308e+01
2.180000e-06	1.536442e-06	5.361343e-10	1.070183e+01	3.427843e+01
2.190000e-06	1.581299e-06	5.547786e-10	1.101428e+01	3.541613e+01
2.200000e-06	1.625912e-06	5.686896e-10	1.132502e+01	3.653567e+01
2.210000e-06	1.670376e-06	5.781919e-10	1.163472e+01	3.763664e+01
2.220000e-06	1.714783e-06	5.856500e-10	1.194403e+01	3.871866e+01
2.230000e-06	1.759074e-06	5.944079e-10	1.225253e+01	3.978143e+01
2.240000e-06	1.803193e-06	6.077464e-10	1.255984e+01	4.082472e+01
2.250000e-06	1.847244e-06	6.273207e-10	1.286667e+01	4.184833e+01
2.260000e-06	1.891249e-06	6.488794e-10	1.317318e+01	4.285214e+01
2.270000e-06	1.935097e-06	6.677168e-10	1.347860e+01	4.383609e+01
2.280000e-06	1.978793e-06	6.793768e-10	1.378295e+01	4.480017e+01
2.290000e-06	2.022494e-06	6.869822e-10	1.408734e+01	4.574440e+01
2.300000e-06	2.066199e-06	6.933704e-10	1.439177e+01	4.666888e+01
2.310000e-06	2.109829e-06	6.994191e-10	1.469566e+01	4.757374e+01
2.320000e-06	2.153350e-06	7.082589e-10	1.499880e+01	4.845915e+01
2.330000e-06	2.196728e-06	7.228987e-10	1.530094e+01	4.932532e+01
2.340000e-06	2.239996e-06	7.397490e-10	1.560232e+01	5.017252e+01
2.350000e-06	2.283136e-06	7.542909e-10	1.590280e+01	5.100100e+01
2.360000e-06	2.325998e-06	7.660211e-10	1.620135e+01	5.181110e+01
2.370000e-06	2.368572e-06	7.753882e-10	1.649789e+01	5.260314e+01
2.380000e-06	2.410947e-06	7.814059e-10	1.679305e+01	5.337750e+01
2.390000e-06	2.452975e-06	7.879524e-10	1.708578e+01	5.413454e+01
2.400000e-06	2.494607e-06	7.963270e-10	1.737577e+01	5.487467e+01
2.410000e-06	2.535907e-06	8.058064e-10	1.766343e+01	5.559829e+01
2.420000e-06	2.576905e-06	8.171930e-10	1.794900e+01	5.630584e+01
2.430000e-06	2.617702e-06	8.284436e-10	1.823317e+01	5.699774e+01
2.440000e-06	2.658274e-06	8.383810e-10	1.851576e+01	5.767442e+01
2.450000e-06	2.698651e-06	8.471406e-10	1.879700e+01	5.833632e+01
2.460000e-06	2.738815e-06	8.570274e-10	1.907676e+01	5.898389e+01
2.470000e-06	2.778791e-06	8.650192e-10	1.935520e+01	5.961755e+01
2.480000e-06	2.818601e-06	8.719799e-10	1.963249e+01	6.023775e+01
2.490000e-06	2.858242e-06	8.789818e-10	1.990860e+01	6.084491e+01
2.500000e-06	2.897774e-06	8.857069e-10	2.018396e+01	6.143946e+01
2.510000e-06	2.937201e-06	8.938812e-10	2.045858e+01	6.202180e+01
2.520000e-06	2.976497e-06	9.031307e-10	2.073229e+01	6.259234e+01
2.530000e-06	3.015577e-06	9.112974e-10	2.100449e+01	6.315149e+01
2.540000e-06	3.054452e-06	9.200757e-10	2.127527e+01	6.369961e+01
2.550000e-06	3.093151e-06	9.290669e-10	2.154482e+01	6.423708e+01
2.560000e-06	3.131598e-06	9.365240e-10	2.181262e+01	6.476427e+01
2.570000e-06	3.169808e-06	9.436914e-10	2.207877e+01	6.528151e+01
2.580000e-06	3.207807e-06	9.521478e-10	2.234345e+01	6.578914e+01
2.590000e-06	3.245581e-06	9.606052e-10	2.260655e+01	6.628747e+01
2.600000e-06	3.283177e-06	9.656112e-10	2.286842e+01	6.677682e+01
2.610000e-06	3.320532e-06	9.690087e-10	2.312861e+01	6.725748e+01
2.620000e-06	3.357644e-06	9.710145e-10	2.338710e+01	6.772971e+01
2.630000e-06	3.394555e-06	9.763030e-10	2.364420e+01	6.819380e+01
2.640000e-06	3.431239e-06	9.845657e-10	2.389972e+01	6.864998e+01
2.650000e-06	3.467712e-06	9.939865e-10	2.415377e+01	6.909850e+01
2.660000e-06	3.503918e-06	1.006905e-09	2.440595e+01	6.953958e+01
2.670000e-06	3.539848e-06	1.017580e-09	2.465622e+01	6.997343e+01
2.680000e-06	3.575627e-06	1.023145e-09	2.490543e+01	7.040026e+01
2.690000e-06	3.611312e-06	1.025667e-09	2.515399e+01	7.082025e+01
2.700000e-06	3.646917e-06	1.024426e-09	2.540199e+01	7.123358e+01
2.710000e-06	3.682332e-06	1.024250e-09	2.564867e+01	7.164041e+01
2.720000e-06	3.717448e-06	1.028430e-09	2.589326e+01	7.204089e+01
2.730000e-06	3.752251e-06	1.035136e-09	2.613568e+01	7.243517e+01
2.740000e-06	3.786758e-06	1.042654e-09	2.637603e+01	7.282337e+01
2.750000e-06	3.820872e-06	1.050746e-09	2.661364e+01	7.320561e+01
2.760000e-06	3.854464e-06	1.058030e-09	2.684762e+01	7.358200e+01
2.770000e-06	3.887487e-06	1.062892e-09	2.707764e+01	7.395264e+01
2.780000e-06	3.920025e-06	1.065986e-09	2.730428e+01	7.431761e+01
2.790000e-06	3.952244e-06	1.070418e-09	2.752869e+01	7.467700e+01
2.800000e-06	3.984168e-06	1.076353e-09	2.775105e+01	7.503085e+01
2.810000e-06	4.015928e-06	1.078773e-09	2.797227e+01	7.537924e+01
2.820000e-06	4.047582e-06	1.081430e-09	2.819275e+01	7.572221e+01
2.830000e-06	4.079068e-06	1.083933e-09	2.841206e+01	7.605979e+01
2.840000e-06	4.110403e-06	1.087639e-09	2.863032e+01	7.639201e+01
2.850000e-06	4.141461e-06	1.092779e-09	2.884665e+01	7.671888e+01
2.860000e-06	4.172220e-06	1.101293e-09	2.906090e+01	7.704042e+01
2.870000e-06	4.202705e-06	1.111319e-09	2.927323e+01	7.735662e+01
2.880000e-06	4.232858e-06	1.118567e-09	2.948326e+01	7.766748e+01
2.890000e-06	4.262691e-06	1.123381e-09	2.969106e+01	7.797297e+01
2.900000e-06	4.292203e-06	1.122067e-09	2.989662e+01	7.827308e+01
2.910000e-06	4.321469e-06	1.118459e-09	3.010047e+01	7.856776e+01
