# Temperatura_=_-0.3
# Concentracion g/m^3_=_1620.0
# C_Vs_to_Am_M_A/Vsm_=_65563218390.804596
# pendiente_HvsI_1/m_=_3716.3
# ordenada_HvsI_A/m_=_1297.0
# frecuencia_Hz_=_135090.5416662051

Tiempo_(s)	Campo_(V.s)	Magnetizacion_(V.s)	Campo_(kA/m)	Magnetizacion_(A/m)
0.000000e+00	-5.508745e-06	-1.705383e-09	-3.837743e+01	-1.095497e+02
1.000000e-08	-5.508893e-06	-1.699932e-09	-3.837845e+01	-1.095027e+02
2.000000e-08	-5.508825e-06	-1.696349e-09	-3.837798e+01	-1.094533e+02
3.000000e-08	-5.508410e-06	-1.699016e-09	-3.837509e+01	-1.094014e+02
4.000000e-08	-5.507429e-06	-1.702663e-09	-3.836826e+01	-1.093473e+02
5.000000e-08	-5.505903e-06	-1.702889e-09	-3.835763e+01	-1.092908e+02
6.000000e-08	-5.503866e-06	-1.696164e-09	-3.834343e+01	-1.092320e+02
7.000000e-08	-5.501254e-06	-1.688311e-09	-3.832524e+01	-1.091709e+02
8.000000e-08	-5.498093e-06	-1.721322e-09	-3.830322e+01	-1.091076e+02
9.000000e-08	-5.494378e-06	-1.751910e-09	-3.827734e+01	-1.090419e+02
1.000000e-07	-5.490120e-06	-1.711597e-09	-3.824767e+01	-1.089740e+02
1.100000e-07	-5.485589e-06	-1.665767e-09	-3.821611e+01	-1.089038e+02
1.200000e-07	-5.480977e-06	-1.690792e-09	-3.818397e+01	-1.088313e+02
1.300000e-07	-5.476082e-06	-1.717872e-09	-3.814988e+01	-1.087564e+02
1.400000e-07	-5.470736e-06	-1.700345e-09	-3.811263e+01	-1.086792e+02
1.500000e-07	-5.465029e-06	-1.661797e-09	-3.807287e+01	-1.085996e+02
1.600000e-07	-5.459014e-06	-1.717579e-09	-3.803097e+01	-1.085176e+02
1.700000e-07	-5.452563e-06	-1.723742e-09	-3.798603e+01	-1.084330e+02
1.800000e-07	-5.445706e-06	-1.693977e-09	-3.793826e+01	-1.083459e+02
1.900000e-07	-5.438522e-06	-1.630188e-09	-3.788821e+01	-1.082562e+02
2.000000e-07	-5.431047e-06	-1.666223e-09	-3.783613e+01	-1.081638e+02
2.100000e-07	-5.423369e-06	-1.677629e-09	-3.778264e+01	-1.080687e+02
2.200000e-07	-5.415510e-06	-1.662760e-09	-3.772789e+01	-1.079706e+02
2.300000e-07	-5.407303e-06	-1.616326e-09	-3.767072e+01	-1.078695e+02
2.400000e-07	-5.398642e-06	-1.617199e-09	-3.761038e+01	-1.077654e+02
2.500000e-07	-5.389336e-06	-1.612062e-09	-3.754555e+01	-1.076581e+02
2.600000e-07	-5.379186e-06	-1.594688e-09	-3.747483e+01	-1.075474e+02
2.700000e-07	-5.368377e-06	-1.604795e-09	-3.739953e+01	-1.074333e+02
2.800000e-07	-5.357083e-06	-1.603922e-09	-3.732085e+01	-1.073155e+02
2.900000e-07	-5.345509e-06	-1.593638e-09	-3.724022e+01	-1.071940e+02
3.000000e-07	-5.333655e-06	-1.578949e-09	-3.715764e+01	-1.070686e+02
3.100000e-07	-5.321307e-06	-1.601558e-09	-3.707161e+01	-1.069392e+02
3.200000e-07	-5.308511e-06	-1.567933e-09	-3.698246e+01	-1.068056e+02
3.300000e-07	-5.295392e-06	-1.571657e-09	-3.689107e+01	-1.066675e+02
3.400000e-07	-5.281956e-06	-1.564955e-09	-3.679747e+01	-1.065250e+02
3.500000e-07	-5.268137e-06	-1.577359e-09	-3.670120e+01	-1.063777e+02
3.600000e-07	-5.253849e-06	-1.554177e-09	-3.660165e+01	-1.062256e+02
3.700000e-07	-5.238906e-06	-1.578172e-09	-3.649755e+01	-1.060685e+02
3.800000e-07	-5.223471e-06	-1.552398e-09	-3.639003e+01	-1.059062e+02
3.900000e-07	-5.207642e-06	-1.548662e-09	-3.627975e+01	-1.057385e+02
4.000000e-07	-5.191251e-06	-1.562415e-09	-3.616556e+01	-1.055654e+02
4.100000e-07	-5.174528e-06	-1.572586e-09	-3.604905e+01	-1.053866e+02
4.200000e-07	-5.157621e-06	-1.530441e-09	-3.593127e+01	-1.052021e+02
4.300000e-07	-5.140391e-06	-1.547929e-09	-3.581124e+01	-1.050116e+02
4.400000e-07	-5.122761e-06	-1.566953e-09	-3.568841e+01	-1.048151e+02
4.500000e-07	-5.104706e-06	-1.530740e-09	-3.556263e+01	-1.046125e+02
4.600000e-07	-5.086224e-06	-1.515390e-09	-3.543388e+01	-1.044036e+02
4.700000e-07	-5.067307e-06	-1.564835e-09	-3.530208e+01	-1.041884e+02
4.800000e-07	-5.047968e-06	-1.546195e-09	-3.516736e+01	-1.039668e+02
4.900000e-07	-5.028380e-06	-1.507945e-09	-3.503090e+01	-1.037388e+02
5.000000e-07	-5.008685e-06	-1.534809e-09	-3.489369e+01	-1.035042e+02
5.100000e-07	-4.988868e-06	-1.534684e-09	-3.475563e+01	-1.032632e+02
5.200000e-07	-4.968686e-06	-1.485758e-09	-3.461503e+01	-1.030155e+02
5.300000e-07	-4.948091e-06	-1.501585e-09	-3.447155e+01	-1.027613e+02
5.400000e-07	-4.927158e-06	-1.529845e-09	-3.432572e+01	-1.025006e+02
5.500000e-07	-4.905845e-06	-1.484163e-09	-3.417724e+01	-1.022334e+02
5.600000e-07	-4.884197e-06	-1.483001e-09	-3.402642e+01	-1.019597e+02
5.700000e-07	-4.862254e-06	-1.520396e-09	-3.387356e+01	-1.016796e+02
5.800000e-07	-4.840029e-06	-1.495615e-09	-3.371872e+01	-1.013932e+02
5.900000e-07	-4.817399e-06	-1.461568e-09	-3.356107e+01	-1.011006e+02
6.000000e-07	-4.794314e-06	-1.496067e-09	-3.340024e+01	-1.008018e+02
6.100000e-07	-4.770884e-06	-1.490253e-09	-3.323702e+01	-1.004970e+02
6.200000e-07	-4.747295e-06	-1.466246e-09	-3.307268e+01	-1.001863e+02
6.300000e-07	-4.723578e-06	-1.480770e-09	-3.290745e+01	-9.986992e+01
6.400000e-07	-4.699581e-06	-1.493520e-09	-3.274027e+01	-9.954787e+01
6.500000e-07	-4.675242e-06	-1.458541e-09	-3.257071e+01	-9.922037e+01
6.600000e-07	-4.650536e-06	-1.458572e-09	-3.239860e+01	-9.888756e+01
6.700000e-07	-4.625326e-06	-1.462197e-09	-3.222297e+01	-9.854960e+01
6.800000e-07	-4.599552e-06	-1.444155e-09	-3.204341e+01	-9.820665e+01
6.900000e-07	-4.573221e-06	-1.427599e-09	-3.185997e+01	-9.785888e+01
7.000000e-07	-4.546349e-06	-1.440318e-09	-3.167276e+01	-9.750644e+01
7.100000e-07	-4.519049e-06	-1.428989e-09	-3.148257e+01	-9.714949e+01
7.200000e-07	-4.491452e-06	-1.418185e-09	-3.129032e+01	-9.678819e+01
7.300000e-07	-4.463790e-06	-1.416653e-09	-3.109760e+01	-9.642268e+01
7.400000e-07	-4.436043e-06	-1.413016e-09	-3.090430e+01	-9.605309e+01
7.500000e-07	-4.408060e-06	-1.398099e-09	-3.070935e+01	-9.567956e+01
7.600000e-07	-4.379744e-06	-1.397342e-09	-3.051208e+01	-9.530221e+01
7.700000e-07	-4.351166e-06	-1.394379e-09	-3.031299e+01	-9.492114e+01
7.800000e-07	-4.322273e-06	-1.381707e-09	-3.011170e+01	-9.453643e+01
7.900000e-07	-4.292934e-06	-1.371912e-09	-2.990731e+01	-9.414817e+01
8.000000e-07	-4.263340e-06	-1.368249e-09	-2.970114e+01	-9.375642e+01
8.100000e-07	-4.233518e-06	-1.355746e-09	-2.949338e+01	-9.336123e+01
8.200000e-07	-4.203394e-06	-1.341294e-09	-2.928352e+01	-9.296261e+01
8.300000e-07	-4.172909e-06	-1.336395e-09	-2.907114e+01	-9.256058e+01
8.400000e-07	-4.142090e-06	-1.328243e-09	-2.885643e+01	-9.215513e+01
8.500000e-07	-4.111012e-06	-1.319777e-09	-2.863993e+01	-9.174624e+01
8.600000e-07	-4.079683e-06	-1.316650e-09	-2.842167e+01	-9.133387e+01
8.700000e-07	-4.048188e-06	-1.314964e-09	-2.820225e+01	-9.091795e+01
8.800000e-07	-4.016537e-06	-1.302727e-09	-2.798176e+01	-9.049840e+01
8.900000e-07	-3.984776e-06	-1.297053e-09	-2.776049e+01	-9.007514e+01
9.000000e-07	-3.952957e-06	-1.285909e-09	-2.753882e+01	-8.964805e+01
9.100000e-07	-3.920881e-06	-1.273332e-09	-2.731535e+01	-8.921703e+01
9.200000e-07	-3.888435e-06	-1.263549e-09	-2.708932e+01	-8.878192e+01
9.300000e-07	-3.855541e-06	-1.265567e-09	-2.686015e+01	-8.834260e+01
9.400000e-07	-3.822139e-06	-1.259158e-09	-2.662745e+01	-8.789891e+01
9.500000e-07	-3.788227e-06	-1.253113e-09	-2.639120e+01	-8.745068e+01
9.600000e-07	-3.753761e-06	-1.245039e-09	-2.615109e+01	-8.699775e+01
9.700000e-07	-3.718902e-06	-1.236574e-09	-2.590824e+01	-8.653996e+01
9.800000e-07	-3.683721e-06	-1.221615e-09	-2.566315e+01	-8.607712e+01
9.900000e-07	-3.648298e-06	-1.214537e-09	-2.541636e+01	-8.560907e+01
1.000000e-06	-3.612754e-06	-1.209665e-09	-2.516875e+01	-8.513564e+01
1.010000e-06	-3.577071e-06	-1.206871e-09	-2.492015e+01	-8.465667e+01
1.020000e-06	-3.541287e-06	-1.202977e-09	-2.467086e+01	-8.417200e+01
1.030000e-06	-3.505413e-06	-1.197546e-09	-2.442094e+01	-8.368147e+01
1.040000e-06	-3.469338e-06	-1.184519e-09	-2.416962e+01	-8.318494e+01
1.050000e-06	-3.433003e-06	-1.173357e-09	-2.391648e+01	-8.268230e+01
1.060000e-06	-3.396400e-06	-1.166262e-09	-2.366149e+01	-8.217342e+01
1.070000e-06	-3.359391e-06	-1.159254e-09	-2.340366e+01	-8.165820e+01
1.080000e-06	-3.322062e-06	-1.152105e-09	-2.314360e+01	-8.113656e+01
1.090000e-06	-3.284582e-06	-1.147656e-09	-2.288249e+01	-8.060843e+01
1.100000e-06	-3.246938e-06	-1.140303e-09	-2.262024e+01	-8.007375e+01
1.110000e-06	-3.209064e-06	-1.125768e-09	-2.235638e+01	-7.953251e+01
1.120000e-06	-3.170879e-06	-1.113544e-09	-2.209036e+01	-7.898467e+01
1.130000e-06	-3.132429e-06	-1.103180e-09	-2.182249e+01	-7.843026e+01
1.140000e-06	-3.093790e-06	-1.095170e-09	-2.155331e+01	-7.786928e+01
1.150000e-06	-3.055018e-06	-1.087856e-09	-2.128320e+01	-7.730178e+01
1.160000e-06	-3.016063e-06	-1.084854e-09	-2.101181e+01	-7.672782e+01
1.170000e-06	-2.976897e-06	-1.077532e-09	-2.073896e+01	-7.614747e+01
1.180000e-06	-2.937571e-06	-1.066895e-09	-2.046499e+01	-7.556081e+01
1.190000e-06	-2.898046e-06	-1.055564e-09	-2.018964e+01	-7.496795e+01
1.200000e-06	-2.858384e-06	-1.044645e-09	-1.991332e+01	-7.436900e+01
1.210000e-06	-2.818650e-06	-1.032255e-09	-1.963651e+01	-7.376407e+01
1.220000e-06	-2.778819e-06	-1.022876e-09	-1.935903e+01	-7.315328e+01
1.230000e-06	-2.738770e-06	-1.013578e-09	-1.908002e+01	-7.253678e+01
1.240000e-06	-2.698509e-06	-1.006636e-09	-1.879953e+01	-7.191468e+01
1.250000e-06	-2.658171e-06	-9.977812e-10	-1.851851e+01	-7.128712e+01
1.260000e-06	-2.617645e-06	-9.913055e-10	-1.823618e+01	-7.065422e+01
1.270000e-06	-2.576754e-06	-9.827410e-10	-1.795131e+01	-7.001609e+01
1.280000e-06	-2.535621e-06	-9.709067e-10	-1.766475e+01	-6.937284e+01
1.290000e-06	-2.494141e-06	-9.574898e-10	-1.737578e+01	-6.872455e+01
1.300000e-06	-2.452346e-06	-9.453876e-10	-1.708460e+01	-6.807130e+01
1.310000e-06	-2.410339e-06	-9.319571e-10	-1.679196e+01	-6.741314e+01
1.320000e-06	-2.367871e-06	-9.227110e-10	-1.649610e+01	-6.675008e+01
1.330000e-06	-2.325127e-06	-9.158571e-10	-1.619831e+01	-6.608214e+01
1.340000e-06	-2.282248e-06	-9.103424e-10	-1.589959e+01	-6.540928e+01
1.350000e-06	-2.239172e-06	-9.025156e-10	-1.559950e+01	-6.473142e+01
1.360000e-06	-2.195969e-06	-8.935067e-10	-1.529852e+01	-6.404848e+01
1.370000e-06	-2.152619e-06	-8.835410e-10	-1.499651e+01	-6.336032e+01
1.380000e-06	-2.109070e-06	-8.705263e-10	-1.469312e+01	-6.266675e+01
1.390000e-06	-2.065418e-06	-8.556801e-10	-1.438902e+01	-6.196757e+01
1.400000e-06	-2.021684e-06	-8.416465e-10	-1.408434e+01	-6.126250e+01
1.410000e-06	-1.977907e-06	-8.301153e-10	-1.377936e+01	-6.055124e+01
1.420000e-06	-1.934012e-06	-8.195305e-10	-1.347356e+01	-5.983345e+01
1.430000e-06	-1.889975e-06	-8.109105e-10	-1.316677e+01	-5.910873e+01
1.440000e-06	-1.845903e-06	-8.015402e-10	-1.285973e+01	-5.837664e+01
1.450000e-06	-1.801702e-06	-7.909644e-10	-1.255180e+01	-5.763670e+01
1.460000e-06	-1.757378e-06	-7.763903e-10	-1.224302e+01	-5.688838e+01
1.470000e-06	-1.712982e-06	-7.616639e-10	-1.193373e+01	-5.613112e+01
1.480000e-06	-1.668491e-06	-7.480660e-10	-1.162377e+01	-5.536432e+01
1.490000e-06	-1.623797e-06	-7.361573e-10	-1.131241e+01	-5.458733e+01
1.500000e-06	-1.578886e-06	-7.244954e-10	-1.099953e+01	-5.379947e+01
1.510000e-06	-1.533987e-06	-7.126987e-10	-1.068673e+01	-5.300004e+01
1.520000e-06	-1.488964e-06	-6.976518e-10	-1.037307e+01	-5.218831e+01
1.530000e-06	-1.443761e-06	-6.836941e-10	-1.005816e+01	-5.136350e+01
1.540000e-06	-1.398477e-06	-6.719802e-10	-9.742684e+00	-5.052486e+01
1.550000e-06	-1.353071e-06	-6.611287e-10	-9.426356e+00	-4.967158e+01
1.560000e-06	-1.307626e-06	-6.469803e-10	-9.109752e+00	-4.880287e+01
1.570000e-06	-1.262131e-06	-6.346451e-10	-8.792806e+00	-4.791791e+01
1.580000e-06	-1.216606e-06	-6.215995e-10	-8.475654e+00	-4.701591e+01
1.590000e-06	-1.170920e-06	-6.054222e-10	-8.157372e+00	-4.609605e+01
1.600000e-06	-1.125073e-06	-5.899859e-10	-7.837972e+00	-4.515756e+01
1.610000e-06	-1.079200e-06	-5.770645e-10	-7.518394e+00	-4.419966e+01
1.620000e-06	-1.033330e-06	-5.622530e-10	-7.198837e+00	-4.322161e+01
1.630000e-06	-9.874330e-07	-5.475926e-10	-6.879087e+00	-4.222269e+01
1.640000e-06	-9.413929e-07	-5.344792e-10	-6.558342e+00	-4.120222e+01
1.650000e-06	-8.952900e-07	-5.197018e-10	-6.237160e+00	-4.015955e+01
1.660000e-06	-8.491172e-07	-5.032446e-10	-5.915491e+00	-3.909410e+01
1.670000e-06	-8.027559e-07	-4.865216e-10	-5.592509e+00	-3.800531e+01
1.680000e-06	-7.563781e-07	-4.699460e-10	-5.269412e+00	-3.689270e+01
1.690000e-06	-7.100601e-07	-4.535559e-10	-4.946731e+00	-3.575585e+01
1.700000e-06	-6.637583e-07	-4.364256e-10	-4.624163e+00	-3.459439e+01
1.710000e-06	-6.173857e-07	-4.174058e-10	-4.301102e+00	-3.340803e+01
1.720000e-06	-5.708636e-07	-3.986460e-10	-3.976999e+00	-3.219657e+01
1.730000e-06	-5.243540e-07	-3.781702e-10	-3.652984e+00	-3.095985e+01
1.740000e-06	-4.778120e-07	-3.584229e-10	-3.328743e+00	-2.969783e+01
1.750000e-06	-4.311673e-07	-3.377114e-10	-3.003786e+00	-2.841052e+01
1.760000e-06	-3.845062e-07	-3.180164e-10	-2.678715e+00	-2.709804e+01
1.770000e-06	-3.377918e-07	-3.000066e-10	-2.353273e+00	-2.576058e+01
1.780000e-06	-2.910346e-07	-2.817920e-10	-2.027532e+00	-2.439842e+01
1.790000e-06	-2.443348e-07	-2.631875e-10	-1.702192e+00	-2.301194e+01
1.800000e-06	-1.975767e-07	-2.449227e-10	-1.376445e+00	-2.160158e+01
1.810000e-06	-1.507580e-07	-2.238481e-10	-1.050276e+00	-2.016789e+01
1.820000e-06	-1.039983e-07	-2.017916e-10	-7.245185e-01	-1.871150e+01
1.830000e-06	-5.719605e-08	-1.816161e-10	-3.984641e-01	-1.723312e+01
1.840000e-06	-1.038337e-08	-1.621582e-10	-7.233717e-02	-1.573354e+01
1.850000e-06	3.635182e-08	-1.432290e-10	2.532499e-01	-1.421362e+01
1.860000e-06	8.307861e-08	-1.239657e-10	5.787785e-01	-1.267432e+01
1.870000e-06	1.297232e-07	-1.025792e-10	9.037347e-01	-1.111665e+01
1.880000e-06	1.763644e-07	-8.119218e-11	1.228666e+00	-9.541685e+00
1.890000e-06	2.230546e-07	-5.997309e-11	1.553941e+00	-7.950578e+00
1.900000e-06	2.697594e-07	-3.853589e-11	1.879315e+00	-6.344526e+00
1.910000e-06	3.165073e-07	-1.713477e-11	2.204991e+00	-4.724785e+00
1.920000e-06	3.631665e-07	3.546380e-12	2.530049e+00	-3.092653e+00
1.930000e-06	4.097197e-07	2.532606e-11	2.854368e+00	-1.449473e+00
1.940000e-06	4.562166e-07	4.943038e-11	3.178296e+00	2.033821e-01
1.950000e-06	5.027359e-07	7.376372e-11	3.502378e+00	1.864507e+00
1.960000e-06	5.492154e-07	9.771476e-11	3.826184e+00	3.532475e+00
1.970000e-06	5.956291e-07	1.194248e-10	4.149532e+00	5.205845e+00
1.980000e-06	6.420354e-07	1.381118e-10	4.472827e+00	6.883164e+00
1.990000e-06	6.883015e-07	1.561455e-10	4.795146e+00	8.562977e+00
2.000000e-06	7.345321e-07	1.772111e-10	5.117218e+00	1.024383e+01
2.010000e-06	7.808049e-07	2.029975e-10	5.439584e+00	1.192428e+01
2.020000e-06	8.270093e-07	2.301059e-10	5.761474e+00	1.360291e+01
2.030000e-06	8.731676e-07	2.585792e-10	6.083041e+00	1.527829e+01
2.040000e-06	9.192495e-07	2.869220e-10	6.404077e+00	1.694906e+01
2.050000e-06	9.652234e-07	3.108591e-10	6.724360e+00	1.861385e+01
2.060000e-06	1.011135e-06	3.317668e-10	7.044211e+00	2.027136e+01
2.070000e-06	1.057016e-06	3.506396e-10	7.363849e+00	2.192031e+01
2.080000e-06	1.102807e-06	3.730999e-10	7.682856e+00	2.355947e+01
2.090000e-06	1.148471e-06	3.982648e-10	8.000978e+00	2.518767e+01
2.100000e-06	1.194098e-06	4.249076e-10	8.318848e+00	2.680378e+01
2.110000e-06	1.239666e-06	4.519963e-10	8.636304e+00	2.840672e+01
2.120000e-06	1.285123e-06	4.772847e-10	8.952984e+00	2.999549e+01
2.130000e-06	1.330429e-06	5.000829e-10	9.268613e+00	3.156913e+01
2.140000e-06	1.375604e-06	5.197404e-10	9.583330e+00	3.312676e+01
2.150000e-06	1.420719e-06	5.373432e-10	9.897634e+00	3.466754e+01
2.160000e-06	1.465791e-06	5.550358e-10	1.021164e+01	3.619071e+01
2.170000e-06	1.510811e-06	5.750788e-10	1.052527e+01	3.769559e+01
2.180000e-06	1.555738e-06	5.958331e-10	1.083826e+01	3.918153e+01
2.190000e-06	1.600523e-06	6.183907e-10	1.115026e+01	4.064797e+01
2.200000e-06	1.645130e-06	6.432993e-10	1.146102e+01	4.209440e+01
2.210000e-06	1.689554e-06	6.653725e-10	1.177051e+01	4.352039e+01
2.220000e-06	1.733779e-06	6.827808e-10	1.207861e+01	4.492556e+01
2.230000e-06	1.777892e-06	6.983317e-10	1.238593e+01	4.630960e+01
2.240000e-06	1.821922e-06	7.149529e-10	1.269267e+01	4.767223e+01
2.250000e-06	1.865894e-06	7.333173e-10	1.299900e+01	4.901326e+01
2.260000e-06	1.909838e-06	7.524684e-10	1.330515e+01	5.033253e+01
2.270000e-06	1.953685e-06	7.708445e-10	1.361062e+01	5.162995e+01
2.280000e-06	1.997454e-06	7.888480e-10	1.391553e+01	5.290547e+01
2.290000e-06	2.041154e-06	8.060892e-10	1.421998e+01	5.415907e+01
2.300000e-06	2.084756e-06	8.214541e-10	1.452373e+01	5.539080e+01
2.310000e-06	2.128300e-06	8.349154e-10	1.482709e+01	5.660072e+01
2.320000e-06	2.171762e-06	8.512024e-10	1.512988e+01	5.778895e+01
2.330000e-06	2.215057e-06	8.699323e-10	1.543150e+01	5.895564e+01
2.340000e-06	2.258203e-06	8.865479e-10	1.573208e+01	6.010094e+01
2.350000e-06	2.301260e-06	9.023164e-10	1.603204e+01	6.122506e+01
2.360000e-06	2.344044e-06	9.158241e-10	1.633010e+01	6.232822e+01
2.370000e-06	2.386563e-06	9.275848e-10	1.662632e+01	6.341067e+01
2.380000e-06	2.428844e-06	9.399470e-10	1.692088e+01	6.447266e+01
2.390000e-06	2.470705e-06	9.530951e-10	1.721250e+01	6.551447e+01
2.400000e-06	2.512221e-06	9.671742e-10	1.750173e+01	6.653638e+01
2.410000e-06	2.553496e-06	9.835531e-10	1.778928e+01	6.753869e+01
2.420000e-06	2.594436e-06	1.000909e-09	1.807449e+01	6.852170e+01
2.430000e-06	2.635061e-06	1.014612e-09	1.835751e+01	6.948572e+01
2.440000e-06	2.675489e-06	1.025395e-09	1.863916e+01	7.043108e+01
2.450000e-06	2.715758e-06	1.035235e-09	1.891970e+01	7.135807e+01
2.460000e-06	2.755906e-06	1.045792e-09	1.919940e+01	7.226703e+01
2.470000e-06	2.795833e-06	1.058464e-09	1.947755e+01	7.315825e+01
2.480000e-06	2.835550e-06	1.071884e-09	1.975425e+01	7.403207e+01
2.490000e-06	2.875154e-06	1.085452e-09	2.003016e+01	7.488878e+01
2.500000e-06	2.914682e-06	1.098553e-09	2.030553e+01	7.572870e+01
2.510000e-06	2.954032e-06	1.110919e-09	2.057967e+01	7.655213e+01
2.520000e-06	2.993154e-06	1.120993e-09	2.085222e+01	7.735937e+01
2.530000e-06	3.032179e-06	1.129365e-09	2.112409e+01	7.815071e+01
2.540000e-06	3.071014e-06	1.138772e-09	2.139464e+01	7.892645e+01
2.550000e-06	3.109495e-06	1.150095e-09	2.166272e+01	7.968687e+01
2.560000e-06	3.147691e-06	1.160233e-09	2.192882e+01	8.043226e+01
2.570000e-06	3.185758e-06	1.169925e-09	2.219402e+01	8.116288e+01
2.580000e-06	3.223668e-06	1.182238e-09	2.245812e+01	8.187901e+01
2.590000e-06	3.261328e-06	1.193863e-09	2.272049e+01	8.258093e+01
2.600000e-06	3.298833e-06	1.203002e-09	2.298177e+01	8.326889e+01
2.610000e-06	3.336114e-06	1.209720e-09	2.324149e+01	8.394317e+01
2.620000e-06	3.373099e-06	1.216670e-09	2.349915e+01	8.460401e+01
2.630000e-06	3.409923e-06	1.226380e-09	2.375569e+01	8.525169e+01
2.640000e-06	3.446496e-06	1.236007e-09	2.401049e+01	8.588645e+01
2.650000e-06	3.482796e-06	1.246214e-09	2.426337e+01	8.650855e+01
2.660000e-06	3.518904e-06	1.256605e-09	2.451492e+01	8.711824e+01
2.670000e-06	3.554842e-06	1.264434e-09	2.476529e+01	8.771578e+01
2.680000e-06	3.590573e-06	1.270449e-09	2.501422e+01	8.830142e+01
2.690000e-06	3.626156e-06	1.275438e-09	2.526211e+01	8.887540e+01
2.700000e-06	3.661686e-06	1.281047e-09	2.550964e+01	8.943799e+01
2.710000e-06	3.696961e-06	1.288595e-09	2.575538e+01	8.998944e+01
2.720000e-06	3.731969e-06	1.299508e-09	2.599927e+01	9.052998e+01
2.730000e-06	3.766747e-06	1.309872e-09	2.624156e+01	9.105988e+01
2.740000e-06	3.801106e-06	1.316841e-09	2.648093e+01	9.157937e+01
2.750000e-06	3.834924e-06	1.321560e-09	2.671652e+01	9.208871e+01
2.760000e-06	3.868158e-06	1.325489e-09	2.694805e+01	9.258815e+01
2.770000e-06	3.900971e-06	1.328110e-09	2.717665e+01	9.307792e+01
2.780000e-06	3.933468e-06	1.331100e-09	2.740304e+01	9.355826e+01
2.790000e-06	3.965573e-06	1.339323e-09	2.762671e+01	9.402941e+01
2.800000e-06	3.997422e-06	1.347811e-09	2.784859e+01	9.449160e+01
2.810000e-06	4.029122e-06	1.355247e-09	2.806943e+01	9.494507e+01
2.820000e-06	4.060623e-06	1.363607e-09	2.828889e+01	9.539003e+01
2.830000e-06	4.091990e-06	1.371554e-09	2.850741e+01	9.582670e+01
2.840000e-06	4.123142e-06	1.378266e-09	2.872443e+01	9.625528e+01
2.850000e-06	4.154036e-06	1.381739e-09	2.893966e+01	9.667599e+01
2.860000e-06	4.184631e-06	1.385245e-09	2.915280e+01	9.708901e+01
2.870000e-06	4.214990e-06	1.390099e-09	2.936430e+01	9.749454e+01
2.880000e-06	4.245102e-06	1.394179e-09	2.957408e+01	9.789273e+01
2.890000e-06	4.274743e-06	1.397609e-09	2.978058e+01	9.828377e+01
2.900000e-06	4.304121e-06	1.401722e-09	2.998525e+01	9.866779e+01
