# Temperatura_=_-0.6
# Concentracion g/m^3_=_1620.0
# C_Vs_to_Am_M_A/Vsm_=_65563218390.804596
# pendiente_HvsI_1/m_=_3716.3
# ordenada_HvsI_A/m_=_1297.0
# frecuencia_Hz_=_135097.01921625782

Tiempo_(s)	Campo_(V.s)	Magnetizacion_(V.s)	Campo_(kA/m)	Magnetizacion_(A/m)
0.000000e+00	-5.495532e-06	-1.355152e-09	-3.838053e+01	-8.798028e+01
1.000000e-08	-5.495617e-06	-1.350859e-09	-3.838112e+01	-8.796343e+01
2.000000e-08	-5.495361e-06	-1.348022e-09	-3.837933e+01	-8.794477e+01
3.000000e-08	-5.494682e-06	-1.345541e-09	-3.837459e+01	-8.792417e+01
4.000000e-08	-5.493448e-06	-1.346955e-09	-3.836597e+01	-8.790146e+01
5.000000e-08	-5.491540e-06	-1.352950e-09	-3.835265e+01	-8.787648e+01
6.000000e-08	-5.489081e-06	-1.368200e-09	-3.833547e+01	-8.784906e+01
7.000000e-08	-5.486174e-06	-1.394547e-09	-3.831517e+01	-8.781903e+01
8.000000e-08	-5.482779e-06	-1.349801e-09	-3.829146e+01	-8.778622e+01
9.000000e-08	-5.478927e-06	-1.275222e-09	-3.826456e+01	-8.775046e+01
1.000000e-07	-5.474807e-06	-1.318026e-09	-3.823579e+01	-8.771157e+01
1.100000e-07	-5.470401e-06	-1.401856e-09	-3.820501e+01	-8.766940e+01
1.200000e-07	-5.465691e-06	-1.396196e-09	-3.817212e+01	-8.762378e+01
1.300000e-07	-5.460698e-06	-1.322769e-09	-3.813725e+01	-8.757455e+01
1.400000e-07	-5.455252e-06	-1.303274e-09	-3.809921e+01	-8.752156e+01
1.500000e-07	-5.449409e-06	-1.415564e-09	-3.805841e+01	-8.746467e+01
1.600000e-07	-5.443203e-06	-1.366393e-09	-3.801506e+01	-8.740377e+01
1.700000e-07	-5.436628e-06	-1.322883e-09	-3.796914e+01	-8.733871e+01
1.800000e-07	-5.429605e-06	-1.273669e-09	-3.792009e+01	-8.726941e+01
1.900000e-07	-5.422250e-06	-1.387861e-09	-3.786873e+01	-8.719577e+01
2.000000e-07	-5.414675e-06	-1.383417e-09	-3.781582e+01	-8.711771e+01
2.100000e-07	-5.406822e-06	-1.364159e-09	-3.776098e+01	-8.703517e+01
2.200000e-07	-5.398657e-06	-1.315688e-09	-3.770396e+01	-8.694810e+01
2.300000e-07	-5.390155e-06	-1.345198e-09	-3.764458e+01	-8.685646e+01
2.400000e-07	-5.381171e-06	-1.343296e-09	-3.758183e+01	-8.676025e+01
2.500000e-07	-5.371568e-06	-1.317897e-09	-3.751477e+01	-8.665946e+01
2.600000e-07	-5.361267e-06	-1.310871e-09	-3.744283e+01	-8.655411e+01
2.700000e-07	-5.350356e-06	-1.318203e-09	-3.736662e+01	-8.644422e+01
2.800000e-07	-5.339014e-06	-1.325274e-09	-3.728741e+01	-8.632984e+01
2.900000e-07	-5.327296e-06	-1.272152e-09	-3.720557e+01	-8.621104e+01
3.000000e-07	-5.315216e-06	-1.281014e-09	-3.712121e+01	-8.608788e+01
3.100000e-07	-5.302679e-06	-1.268884e-09	-3.703365e+01	-8.596044e+01
3.200000e-07	-5.289700e-06	-1.306195e-09	-3.694301e+01	-8.582883e+01
3.300000e-07	-5.276286e-06	-1.249673e-09	-3.684932e+01	-8.569316e+01
3.400000e-07	-5.262538e-06	-1.279474e-09	-3.675331e+01	-8.555353e+01
3.500000e-07	-5.248427e-06	-1.277288e-09	-3.665475e+01	-8.541007e+01
3.600000e-07	-5.233850e-06	-1.290587e-09	-3.655295e+01	-8.526291e+01
3.700000e-07	-5.218756e-06	-1.230466e-09	-3.644754e+01	-8.511218e+01
3.800000e-07	-5.203182e-06	-1.280986e-09	-3.633877e+01	-8.495802e+01
3.900000e-07	-5.187010e-06	-1.272731e-09	-3.622582e+01	-8.480058e+01
4.000000e-07	-5.170416e-06	-1.240954e-09	-3.610993e+01	-8.463998e+01
4.100000e-07	-5.153603e-06	-1.234581e-09	-3.599251e+01	-8.447637e+01
4.200000e-07	-5.136458e-06	-1.303397e-09	-3.587277e+01	-8.430987e+01
4.300000e-07	-5.118958e-06	-1.248633e-09	-3.575055e+01	-8.414063e+01
4.400000e-07	-5.101094e-06	-1.210253e-09	-3.562579e+01	-8.396876e+01
4.500000e-07	-5.082895e-06	-1.255162e-09	-3.549869e+01	-8.379438e+01
4.600000e-07	-5.064292e-06	-1.272099e-09	-3.536877e+01	-8.361760e+01
4.700000e-07	-5.045302e-06	-1.205988e-09	-3.523614e+01	-8.343852e+01
4.800000e-07	-5.026055e-06	-1.238201e-09	-3.510172e+01	-8.325723e+01
4.900000e-07	-5.006605e-06	-1.271782e-09	-3.496589e+01	-8.307380e+01
5.000000e-07	-4.986963e-06	-1.212414e-09	-3.482870e+01	-8.288829e+01
5.100000e-07	-4.967060e-06	-1.207515e-09	-3.468970e+01	-8.270077e+01
5.200000e-07	-4.946821e-06	-1.261252e-09	-3.454836e+01	-8.251127e+01
5.300000e-07	-4.926173e-06	-1.217863e-09	-3.440415e+01	-8.231981e+01
5.400000e-07	-4.905145e-06	-1.173779e-09	-3.425729e+01	-8.212640e+01
5.500000e-07	-4.883798e-06	-1.241156e-09	-3.410821e+01	-8.193105e+01
5.600000e-07	-4.862060e-06	-1.239131e-09	-3.395639e+01	-8.173373e+01
5.700000e-07	-4.839993e-06	-1.188552e-09	-3.380227e+01	-8.153442e+01
5.800000e-07	-4.817647e-06	-1.208225e-09	-3.364621e+01	-8.133308e+01
5.900000e-07	-4.794919e-06	-1.233940e-09	-3.348748e+01	-8.112964e+01
6.000000e-07	-4.771852e-06	-1.176733e-09	-3.332638e+01	-8.092405e+01
6.100000e-07	-4.748513e-06	-1.188908e-09	-3.316338e+01	-8.071622e+01
6.200000e-07	-4.724896e-06	-1.213344e-09	-3.299844e+01	-8.050607e+01
6.300000e-07	-4.701100e-06	-1.195131e-09	-3.283225e+01	-8.029349e+01
6.400000e-07	-4.677050e-06	-1.176083e-09	-3.266429e+01	-8.007840e+01
6.500000e-07	-4.652675e-06	-1.210377e-09	-3.249406e+01	-7.986067e+01
6.600000e-07	-4.627857e-06	-1.183316e-09	-3.232072e+01	-7.964018e+01
6.700000e-07	-4.602433e-06	-1.167179e-09	-3.214317e+01	-7.941682e+01
6.800000e-07	-4.576501e-06	-1.175819e-09	-3.196206e+01	-7.919046e+01
6.900000e-07	-4.550053e-06	-1.179973e-09	-3.177735e+01	-7.896097e+01
7.000000e-07	-4.523072e-06	-1.151055e-09	-3.158892e+01	-7.872823e+01
7.100000e-07	-4.495782e-06	-1.163330e-09	-3.139832e+01	-7.849210e+01
7.200000e-07	-4.468297e-06	-1.160313e-09	-3.120636e+01	-7.825247e+01
7.300000e-07	-4.440643e-06	-1.146109e-09	-3.101323e+01	-7.800921e+01
7.400000e-07	-4.412864e-06	-1.135786e-09	-3.081923e+01	-7.776220e+01
7.500000e-07	-4.384825e-06	-1.143487e-09	-3.062341e+01	-7.751133e+01
7.600000e-07	-4.356435e-06	-1.134259e-09	-3.042513e+01	-7.725649e+01
7.700000e-07	-4.327761e-06	-1.132232e-09	-3.022487e+01	-7.699758e+01
7.800000e-07	-4.298772e-06	-1.132235e-09	-3.002241e+01	-7.673451e+01
7.900000e-07	-4.269484e-06	-1.121028e-09	-2.981787e+01	-7.646718e+01
8.000000e-07	-4.239955e-06	-1.106988e-09	-2.961164e+01	-7.619553e+01
8.100000e-07	-4.210057e-06	-1.103064e-09	-2.940283e+01	-7.591947e+01
8.200000e-07	-4.179813e-06	-1.095982e-09	-2.919161e+01	-7.563897e+01
8.300000e-07	-4.149396e-06	-1.085706e-09	-2.897918e+01	-7.535395e+01
8.400000e-07	-4.118759e-06	-1.092167e-09	-2.876521e+01	-7.506439e+01
8.500000e-07	-4.087812e-06	-1.094881e-09	-2.854908e+01	-7.477024e+01
8.600000e-07	-4.056584e-06	-1.086690e-09	-2.833098e+01	-7.447149e+01
8.700000e-07	-4.025157e-06	-1.077005e-09	-2.811150e+01	-7.416812e+01
8.800000e-07	-3.993589e-06	-1.078388e-09	-2.789103e+01	-7.386013e+01
8.900000e-07	-3.961785e-06	-1.062121e-09	-2.766891e+01	-7.354750e+01
9.000000e-07	-3.929711e-06	-1.054389e-09	-2.744491e+01	-7.323026e+01
9.100000e-07	-3.897407e-06	-1.051015e-09	-2.721930e+01	-7.290841e+01
9.200000e-07	-3.864750e-06	-1.047681e-09	-2.699123e+01	-7.258197e+01
9.300000e-07	-3.831690e-06	-1.032102e-09	-2.676034e+01	-7.225097e+01
9.400000e-07	-3.798178e-06	-1.034747e-09	-2.652629e+01	-7.191544e+01
9.500000e-07	-3.764111e-06	-1.032579e-09	-2.628836e+01	-7.157539e+01
9.600000e-07	-3.729524e-06	-1.030754e-09	-2.604681e+01	-7.123087e+01
9.700000e-07	-3.694561e-06	-1.023642e-09	-2.580263e+01	-7.088191e+01
9.800000e-07	-3.659364e-06	-1.024044e-09	-2.555682e+01	-7.052854e+01
9.900000e-07	-3.624019e-06	-1.011071e-09	-2.530997e+01	-7.017079e+01
1.000000e-06	-3.588527e-06	-1.004992e-09	-2.506209e+01	-6.980869e+01
1.010000e-06	-3.552861e-06	-1.001699e-09	-2.481301e+01	-6.944227e+01
1.020000e-06	-3.517099e-06	-9.956587e-10	-2.456325e+01	-6.907156e+01
1.030000e-06	-3.481165e-06	-9.847685e-10	-2.431229e+01	-6.869657e+01
1.040000e-06	-3.444994e-06	-9.857838e-10	-2.405967e+01	-6.831732e+01
1.050000e-06	-3.408570e-06	-9.822664e-10	-2.380529e+01	-6.793383e+01
1.060000e-06	-3.371894e-06	-9.731016e-10	-2.354914e+01	-6.754608e+01
1.070000e-06	-3.335004e-06	-9.635968e-10	-2.329150e+01	-6.715410e+01
1.080000e-06	-3.297796e-06	-9.583692e-10	-2.303164e+01	-6.675786e+01
1.090000e-06	-3.260305e-06	-9.488107e-10	-2.276981e+01	-6.635735e+01
1.100000e-06	-3.222664e-06	-9.393085e-10	-2.250693e+01	-6.595254e+01
1.110000e-06	-3.184849e-06	-9.365841e-10	-2.224283e+01	-6.554341e+01
1.120000e-06	-3.146793e-06	-9.308139e-10	-2.197705e+01	-6.512992e+01
1.130000e-06	-3.108534e-06	-9.235947e-10	-2.170985e+01	-6.471203e+01
1.140000e-06	-3.069948e-06	-9.152873e-10	-2.144036e+01	-6.428968e+01
1.150000e-06	-3.031069e-06	-9.084830e-10	-2.116884e+01	-6.386281e+01
1.160000e-06	-2.992047e-06	-8.994796e-10	-2.089631e+01	-6.343135e+01
1.170000e-06	-2.952850e-06	-8.937608e-10	-2.062256e+01	-6.299523e+01
1.180000e-06	-2.913499e-06	-8.879430e-10	-2.034773e+01	-6.255438e+01
1.190000e-06	-2.873972e-06	-8.846484e-10	-2.007168e+01	-6.210869e+01
1.200000e-06	-2.834358e-06	-8.765528e-10	-1.979502e+01	-6.165809e+01
1.210000e-06	-2.794689e-06	-8.706772e-10	-1.951797e+01	-6.120246e+01
1.220000e-06	-2.754909e-06	-8.596577e-10	-1.924015e+01	-6.074170e+01
1.230000e-06	-2.714950e-06	-8.503742e-10	-1.896108e+01	-6.027571e+01
1.240000e-06	-2.674814e-06	-8.394968e-10	-1.868077e+01	-5.980437e+01
1.250000e-06	-2.634494e-06	-8.349251e-10	-1.839917e+01	-5.932755e+01
1.260000e-06	-2.593932e-06	-8.301229e-10	-1.811589e+01	-5.884512e+01
1.270000e-06	-2.552995e-06	-8.267112e-10	-1.782999e+01	-5.835697e+01
1.280000e-06	-2.511840e-06	-8.207278e-10	-1.754256e+01	-5.786294e+01
1.290000e-06	-2.470580e-06	-8.127043e-10	-1.725441e+01	-5.736291e+01
1.300000e-06	-2.428962e-06	-7.992111e-10	-1.696375e+01	-5.685672e+01
1.310000e-06	-2.386890e-06	-7.871943e-10	-1.666992e+01	-5.634421e+01
1.320000e-06	-2.344315e-06	-7.758314e-10	-1.637258e+01	-5.582524e+01
1.330000e-06	-2.301521e-06	-7.653624e-10	-1.607371e+01	-5.529965e+01
1.340000e-06	-2.258621e-06	-7.579476e-10	-1.577410e+01	-5.476725e+01
1.350000e-06	-2.215443e-06	-7.557576e-10	-1.547254e+01	-5.422788e+01
1.360000e-06	-2.172014e-06	-7.518578e-10	-1.516924e+01	-5.368135e+01
1.370000e-06	-2.128487e-06	-7.451003e-10	-1.486525e+01	-5.312747e+01
1.380000e-06	-2.084919e-06	-7.349881e-10	-1.456097e+01	-5.256605e+01
1.390000e-06	-2.041304e-06	-7.225143e-10	-1.425637e+01	-5.199686e+01
1.400000e-06	-1.997616e-06	-7.082223e-10	-1.395126e+01	-5.141971e+01
1.410000e-06	-1.953822e-06	-6.948166e-10	-1.364540e+01	-5.083435e+01
1.420000e-06	-1.910016e-06	-6.866049e-10	-1.333946e+01	-5.024055e+01
1.430000e-06	-1.866150e-06	-6.788468e-10	-1.303310e+01	-4.963807e+01
1.440000e-06	-1.822187e-06	-6.717506e-10	-1.272607e+01	-4.902662e+01
1.450000e-06	-1.778173e-06	-6.645177e-10	-1.241867e+01	-4.840596e+01
1.460000e-06	-1.734080e-06	-6.558088e-10	-1.211073e+01	-4.777577e+01
1.470000e-06	-1.689861e-06	-6.428954e-10	-1.180191e+01	-4.713577e+01
1.480000e-06	-1.645425e-06	-6.298372e-10	-1.149157e+01	-4.648564e+01
1.490000e-06	-1.600852e-06	-6.172786e-10	-1.118027e+01	-4.582505e+01
1.500000e-06	-1.556222e-06	-6.068978e-10	-1.086858e+01	-4.515366e+01
1.510000e-06	-1.511451e-06	-5.978975e-10	-1.055590e+01	-4.447112e+01
1.520000e-06	-1.466514e-06	-5.901268e-10	-1.024206e+01	-4.377704e+01
1.530000e-06	-1.421377e-06	-5.818040e-10	-9.926826e+00	-4.307106e+01
1.540000e-06	-1.376133e-06	-5.748901e-10	-9.610848e+00	-4.235277e+01
1.550000e-06	-1.330910e-06	-5.653085e-10	-9.295008e+00	-4.162178e+01
1.560000e-06	-1.285626e-06	-5.546856e-10	-8.978747e+00	-4.087766e+01
1.570000e-06	-1.240200e-06	-5.426420e-10	-8.661493e+00	-4.012000e+01
1.580000e-06	-1.194693e-06	-5.298865e-10	-8.343678e+00	-3.934836e+01
1.590000e-06	-1.149097e-06	-5.168630e-10	-8.025234e+00	-3.856231e+01
1.600000e-06	-1.103370e-06	-5.070975e-10	-7.705879e+00	-3.776140e+01
1.610000e-06	-1.057570e-06	-4.953649e-10	-7.386017e+00	-3.694519e+01
1.620000e-06	-1.011717e-06	-4.819109e-10	-7.065784e+00	-3.611325e+01
1.630000e-06	-9.658521e-07	-4.684274e-10	-6.745463e+00	-3.526513e+01
1.640000e-06	-9.199526e-07	-4.556186e-10	-6.424904e+00	-3.440040e+01
1.650000e-06	-8.739806e-07	-4.426573e-10	-6.103838e+00	-3.351865e+01
1.660000e-06	-8.279136e-07	-4.280127e-10	-5.782108e+00	-3.261947e+01
1.670000e-06	-7.816794e-07	-4.139809e-10	-5.459210e+00	-3.170245e+01
1.680000e-06	-7.354121e-07	-4.012615e-10	-5.136082e+00	-3.076724e+01
1.690000e-06	-6.892789e-07	-3.873211e-10	-4.813890e+00	-2.981347e+01
1.700000e-06	-6.431118e-07	-3.726882e-10	-4.491461e+00	-2.884082e+01
1.710000e-06	-5.967866e-07	-3.559707e-10	-4.167928e+00	-2.784899e+01
1.720000e-06	-5.505105e-07	-3.387322e-10	-3.844738e+00	-2.683773e+01
1.730000e-06	-5.041974e-07	-3.205314e-10	-3.521290e+00	-2.580681e+01
1.740000e-06	-4.577276e-07	-3.025891e-10	-3.196747e+00	-2.475604e+01
1.750000e-06	-4.112603e-07	-2.873183e-10	-2.872222e+00	-2.368529e+01
1.760000e-06	-3.648102e-07	-2.731665e-10	-2.547817e+00	-2.259445e+01
1.770000e-06	-3.183481e-07	-2.589546e-10	-2.223328e+00	-2.148348e+01
1.780000e-06	-2.718034e-07	-2.437593e-10	-1.898262e+00	-2.035240e+01
1.790000e-06	-2.251650e-07	-2.294138e-10	-1.572541e+00	-1.920127e+01
1.800000e-06	-1.785324e-07	-2.118379e-10	-1.246861e+00	-1.803021e+01
1.810000e-06	-1.319856e-07	-1.923960e-10	-9.217810e-01	-1.683942e+01
1.820000e-06	-8.551196e-08	-1.724586e-10	-5.972113e-01	-1.562913e+01
1.830000e-06	-3.899927e-08	-1.533429e-10	-2.723690e-01	-1.439967e+01
1.840000e-06	7.593986e-09	-1.359115e-10	5.303602e-02	-1.315141e+01
1.850000e-06	5.419218e-08	-1.197232e-10	3.784755e-01	-1.188480e+01
1.860000e-06	1.008143e-07	-1.009296e-10	7.040825e-01	-1.060035e+01
1.870000e-06	1.474157e-07	-8.205396e-11	1.029544e+00	-9.298653e+00
1.880000e-06	1.940003e-07	-6.436676e-11	1.354889e+00	-7.980350e+00
1.890000e-06	2.406343e-07	-4.729863e-11	1.680578e+00	-6.646161e+00
1.900000e-06	2.871916e-07	-2.837100e-11	2.005732e+00	-5.296868e+00
1.910000e-06	3.336781e-07	-7.041674e-12	2.330391e+00	-3.933318e+00
1.920000e-06	3.801600e-07	1.593888e-11	2.655018e+00	-2.556420e+00
1.930000e-06	4.266054e-07	3.721629e-11	2.979391e+00	-1.167143e+00
1.940000e-06	4.730263e-07	5.633560e-11	3.303593e+00	2.334855e-01
1.950000e-06	5.194260e-07	7.459019e-11	3.627646e+00	1.644387e+00
1.960000e-06	5.656830e-07	9.208397e-11	3.950702e+00	3.064430e+00
1.970000e-06	6.118273e-07	1.100427e-10	4.272972e+00	4.492438e+00
1.980000e-06	6.579862e-07	1.295978e-10	4.595344e+00	5.927193e+00
1.990000e-06	7.041298e-07	1.495177e-10	4.917608e+00	7.367440e+00
2.000000e-06	7.502782e-07	1.710483e-10	5.239906e+00	8.811890e+00
2.010000e-06	7.964286e-07	1.924022e-10	5.562218e+00	1.025923e+01
2.020000e-06	8.424740e-07	2.131121e-10	5.883797e+00	1.170812e+01
2.030000e-06	8.883918e-07	2.359247e-10	6.204485e+00	1.315721e+01
2.040000e-06	9.342639e-07	2.593027e-10	6.524853e+00	1.460513e+01
2.050000e-06	9.800437e-07	2.815694e-10	6.844577e+00	1.605053e+01
2.060000e-06	1.025748e-06	3.008077e-10	7.163772e+00	1.749203e+01
2.070000e-06	1.071392e-06	3.187378e-10	7.482547e+00	1.892828e+01
2.080000e-06	1.117001e-06	3.356011e-10	7.801082e+00	2.035794e+01
2.090000e-06	1.162660e-06	3.550849e-10	8.119959e+00	2.177967e+01
2.100000e-06	1.208189e-06	3.774752e-10	8.437930e+00	2.319219e+01
2.110000e-06	1.253549e-06	4.007916e-10	8.754725e+00	2.459422e+01
2.120000e-06	1.298885e-06	4.222324e-10	9.071348e+00	2.598454e+01
2.130000e-06	1.344117e-06	4.425403e-10	9.387249e+00	2.736196e+01
2.140000e-06	1.389207e-06	4.595240e-10	9.702153e+00	2.872533e+01
2.150000e-06	1.434199e-06	4.727113e-10	1.001638e+01	3.007357e+01
2.160000e-06	1.479017e-06	4.860799e-10	1.032939e+01	3.140563e+01
2.170000e-06	1.523810e-06	5.003586e-10	1.064221e+01	3.272056e+01
2.180000e-06	1.568576e-06	5.162622e-10	1.095486e+01	3.401743e+01
2.190000e-06	1.613092e-06	5.361954e-10	1.126576e+01	3.529541e+01
2.200000e-06	1.657442e-06	5.569559e-10	1.157549e+01	3.655371e+01
2.210000e-06	1.701703e-06	5.759397e-10	1.188461e+01	3.779165e+01
2.220000e-06	1.745820e-06	5.925980e-10	1.219272e+01	3.900858e+01
2.230000e-06	1.789805e-06	6.079875e-10	1.249991e+01	4.020395e+01
2.240000e-06	1.833695e-06	6.212440e-10	1.280644e+01	4.137729e+01
2.250000e-06	1.877528e-06	6.338227e-10	1.311257e+01	4.252819e+01
2.260000e-06	1.921346e-06	6.478298e-10	1.341859e+01	4.365633e+01
2.270000e-06	1.965130e-06	6.613608e-10	1.372437e+01	4.476146e+01
2.280000e-06	2.008848e-06	6.766808e-10	1.402969e+01	4.584339e+01
2.290000e-06	2.052488e-06	6.935543e-10	1.433447e+01	4.690203e+01
2.300000e-06	2.096035e-06	7.084569e-10	1.463861e+01	4.793734e+01
2.310000e-06	2.139539e-06	7.218591e-10	1.494243e+01	4.894936e+01
2.320000e-06	2.182934e-06	7.352094e-10	1.524550e+01	4.993819e+01
2.330000e-06	2.226139e-06	7.482500e-10	1.554724e+01	5.090399e+01
2.340000e-06	2.269201e-06	7.619541e-10	1.584799e+01	5.184698e+01
2.350000e-06	2.312117e-06	7.749966e-10	1.614771e+01	5.276745e+01
2.360000e-06	2.354714e-06	7.887579e-10	1.644521e+01	5.366572e+01
2.370000e-06	2.396913e-06	8.008890e-10	1.673992e+01	5.454216e+01
2.380000e-06	2.438901e-06	8.117854e-10	1.703316e+01	5.539721e+01
2.390000e-06	2.480689e-06	8.217908e-10	1.732501e+01	5.623131e+01
2.400000e-06	2.522139e-06	8.313416e-10	1.761450e+01	5.704496e+01
2.410000e-06	2.563196e-06	8.435491e-10	1.790124e+01	5.783867e+01
2.420000e-06	2.603946e-06	8.573800e-10	1.818583e+01	5.861300e+01
2.430000e-06	2.644462e-06	8.693904e-10	1.846879e+01	5.936850e+01
2.440000e-06	2.684737e-06	8.788989e-10	1.875007e+01	6.010576e+01
2.450000e-06	2.724788e-06	8.873864e-10	1.902979e+01	6.082537e+01
2.460000e-06	2.764652e-06	8.968227e-10	1.930819e+01	6.152792e+01
2.470000e-06	2.804382e-06	9.060264e-10	1.958567e+01	6.221400e+01
2.480000e-06	2.844012e-06	9.158509e-10	1.986244e+01	6.288421e+01
2.490000e-06	2.883488e-06	9.259971e-10	2.013814e+01	6.353915e+01
2.500000e-06	2.922784e-06	9.354279e-10	2.041258e+01	6.417938e+01
2.510000e-06	2.961999e-06	9.460747e-10	2.068645e+01	6.480548e+01
2.520000e-06	3.001084e-06	9.578939e-10	2.095942e+01	6.541798e+01
2.530000e-06	3.039857e-06	9.698969e-10	2.123022e+01	6.601743e+01
2.540000e-06	3.078359e-06	9.808596e-10	2.149911e+01	6.660432e+01
2.550000e-06	3.116690e-06	9.897089e-10	2.176681e+01	6.717914e+01
2.560000e-06	3.154843e-06	9.956102e-10	2.203327e+01	6.774235e+01
2.570000e-06	3.192826e-06	1.001158e-09	2.229854e+01	6.829438e+01
2.580000e-06	3.230602e-06	1.007699e-09	2.256237e+01	6.883563e+01
2.590000e-06	3.268090e-06	1.014678e-09	2.282418e+01	6.936647e+01
2.600000e-06	3.305364e-06	1.022989e-09	2.308450e+01	6.988725e+01
2.610000e-06	3.342487e-06	1.033102e-09	2.334376e+01	7.039828e+01
2.620000e-06	3.379308e-06	1.043219e-09	2.360092e+01	7.089985e+01
2.630000e-06	3.415858e-06	1.050497e-09	2.385619e+01	7.139222e+01
2.640000e-06	3.452217e-06	1.053993e-09	2.411012e+01	7.187560e+01
2.650000e-06	3.488296e-06	1.058359e-09	2.436209e+01	7.235021e+01
2.660000e-06	3.524146e-06	1.063246e-09	2.461246e+01	7.281621e+01
2.670000e-06	3.559866e-06	1.068473e-09	2.486193e+01	7.327376e+01
2.680000e-06	3.595455e-06	1.073617e-09	2.511048e+01	7.372298e+01
2.690000e-06	3.630962e-06	1.077799e-09	2.535846e+01	7.416398e+01
2.700000e-06	3.666323e-06	1.082942e-09	2.560542e+01	7.459684e+01
2.710000e-06	3.701401e-06	1.090259e-09	2.585040e+01	7.502162e+01
2.720000e-06	3.736203e-06	1.098981e-09	2.609346e+01	7.543840e+01
2.730000e-06	3.770648e-06	1.106800e-09	2.633402e+01	7.584719e+01
2.740000e-06	3.804602e-06	1.111736e-09	2.657116e+01	7.624803e+01
2.750000e-06	3.838067e-06	1.116457e-09	2.680487e+01	7.664094e+01
2.760000e-06	3.871120e-06	1.121433e-09	2.703571e+01	7.702593e+01
2.770000e-06	3.903771e-06	1.124436e-09	2.726374e+01	7.740301e+01
2.780000e-06	3.936092e-06	1.128401e-09	2.748947e+01	7.777217e+01
2.790000e-06	3.968162e-06	1.134301e-09	2.771345e+01	7.813342e+01
2.800000e-06	3.999904e-06	1.139984e-09	2.793513e+01	7.848677e+01
2.810000e-06	4.031454e-06	1.144702e-09	2.815547e+01	7.883221e+01
2.820000e-06	4.062923e-06	1.150486e-09	2.837526e+01	7.916975e+01
2.830000e-06	4.094200e-06	1.156425e-09	2.859369e+01	7.949941e+01
2.840000e-06	4.125215e-06	1.160805e-09	2.881030e+01	7.982121e+01
2.850000e-06	4.155920e-06	1.164134e-09	2.902474e+01	8.013516e+01
2.860000e-06	4.186244e-06	1.165551e-09	2.923652e+01	8.044130e+01
2.870000e-06	4.216278e-06	1.166805e-09	2.944628e+01	8.073968e+01
2.880000e-06	4.246032e-06	1.168846e-09	2.965408e+01	8.103034e+01
2.890000e-06	4.275463e-06	1.168777e-09	2.985962e+01	8.131334e+01
2.900000e-06	4.304649e-06	1.169823e-09	3.006346e+01	8.158875e+01
