# Temperatura_=_-2.31
# Concentracion g/m^3_=_1620.0
# C_Vs_to_Am_M_A/Vsm_=_65563218390.804596
# pendiente_HvsI_1/m_=_3716.3
# ordenada_HvsI_A/m_=_1297.0
# frecuencia_Hz_=_135100.92821813468

Tiempo_(s)	Campo_(V.s)	Magnetizacion_(V.s)	Campo_(kA/m)	Magnetizacion_(A/m)
0.000000e+00	-5.525411e-06	-1.011291e-09	-3.837061e+01	-6.733954e+01
1.000000e-08	-5.525619e-06	-1.007478e-09	-3.837205e+01	-6.731748e+01
2.000000e-08	-5.525427e-06	-1.007122e-09	-3.837072e+01	-6.729541e+01
3.000000e-08	-5.524665e-06	-1.007825e-09	-3.836543e+01	-6.727317e+01
4.000000e-08	-5.523391e-06	-1.005794e-09	-3.835658e+01	-6.725060e+01
5.000000e-08	-5.521608e-06	-1.002611e-09	-3.834420e+01	-6.722752e+01
6.000000e-08	-5.519228e-06	-9.983269e-10	-3.832768e+01	-6.720374e+01
7.000000e-08	-5.516308e-06	-1.023202e-09	-3.830740e+01	-6.717905e+01
8.000000e-08	-5.512987e-06	-1.052901e-09	-3.828433e+01	-6.715324e+01
9.000000e-08	-5.509155e-06	-9.859006e-10	-3.825772e+01	-6.712609e+01
1.000000e-07	-5.504934e-06	-8.955670e-10	-3.822841e+01	-6.709737e+01
1.100000e-07	-5.500550e-06	-1.005744e-09	-3.819796e+01	-6.706685e+01
1.200000e-07	-5.495937e-06	-1.082855e-09	-3.816593e+01	-6.703430e+01
1.300000e-07	-5.490959e-06	-1.053805e-09	-3.813136e+01	-6.699948e+01
1.400000e-07	-5.485572e-06	-9.014097e-10	-3.809395e+01	-6.696217e+01
1.500000e-07	-5.479888e-06	-9.612197e-10	-3.805448e+01	-6.692213e+01
1.600000e-07	-5.473883e-06	-1.088210e-09	-3.801278e+01	-6.687915e+01
1.700000e-07	-5.467375e-06	-1.039348e-09	-3.796759e+01	-6.683301e+01
1.800000e-07	-5.460470e-06	-9.462561e-10	-3.791964e+01	-6.678352e+01
1.900000e-07	-5.453292e-06	-9.480318e-10	-3.786979e+01	-6.673048e+01
2.000000e-07	-5.445781e-06	-1.069266e-09	-3.781763e+01	-6.667371e+01
2.100000e-07	-5.437948e-06	-1.043875e-09	-3.776323e+01	-6.661305e+01
2.200000e-07	-5.429877e-06	-9.923434e-10	-3.770718e+01	-6.654836e+01
2.300000e-07	-5.421439e-06	-9.638611e-10	-3.764859e+01	-6.647951e+01
2.400000e-07	-5.412418e-06	-1.044248e-09	-3.758595e+01	-6.640640e+01
2.500000e-07	-5.402742e-06	-1.021913e-09	-3.751875e+01	-6.632893e+01
2.600000e-07	-5.392447e-06	-9.922676e-10	-3.744726e+01	-6.624705e+01
2.700000e-07	-5.381571e-06	-9.587296e-10	-3.737173e+01	-6.616070e+01
2.800000e-07	-5.370225e-06	-1.008523e-09	-3.729294e+01	-6.606987e+01
2.900000e-07	-5.358593e-06	-9.968809e-10	-3.721216e+01	-6.597456e+01
3.000000e-07	-5.346603e-06	-9.657421e-10	-3.712890e+01	-6.587479e+01
3.100000e-07	-5.334096e-06	-9.560768e-10	-3.704204e+01	-6.577061e+01
3.200000e-07	-5.321232e-06	-1.013097e-09	-3.695271e+01	-6.566210e+01
3.300000e-07	-5.308058e-06	-1.015414e-09	-3.686123e+01	-6.554934e+01
3.400000e-07	-5.294409e-06	-9.514091e-10	-3.676644e+01	-6.543245e+01
3.500000e-07	-5.280206e-06	-9.544135e-10	-3.666781e+01	-6.531156e+01
3.600000e-07	-5.265579e-06	-1.002112e-09	-3.656623e+01	-6.518684e+01
3.700000e-07	-5.250470e-06	-9.631332e-10	-3.646131e+01	-6.505844e+01
3.800000e-07	-5.234785e-06	-9.284624e-10	-3.635239e+01	-6.492656e+01
3.900000e-07	-5.218702e-06	-1.015444e-09	-3.624070e+01	-6.479141e+01
4.000000e-07	-5.202250e-06	-1.004828e-09	-3.612645e+01	-6.465320e+01
4.100000e-07	-5.185320e-06	-9.084116e-10	-3.600889e+01	-6.451215e+01
4.200000e-07	-5.168103e-06	-9.520237e-10	-3.588932e+01	-6.436852e+01
4.300000e-07	-5.150713e-06	-1.053132e-09	-3.576856e+01	-6.422254e+01
4.400000e-07	-5.132813e-06	-9.285604e-10	-3.564426e+01	-6.407447e+01
4.500000e-07	-5.114400e-06	-8.879730e-10	-3.551639e+01	-6.392456e+01
4.600000e-07	-5.095688e-06	-1.009179e-09	-3.538645e+01	-6.377307e+01
4.700000e-07	-5.076746e-06	-9.986299e-10	-3.525490e+01	-6.362024e+01
4.800000e-07	-5.057582e-06	-8.740733e-10	-3.512182e+01	-6.346634e+01
4.900000e-07	-5.038185e-06	-9.779724e-10	-3.498713e+01	-6.331159e+01
5.000000e-07	-5.018538e-06	-1.019148e-09	-3.485069e+01	-6.315624e+01
5.100000e-07	-4.998549e-06	-8.979913e-10	-3.471188e+01	-6.300051e+01
5.200000e-07	-4.978178e-06	-9.140470e-10	-3.457041e+01	-6.284462e+01
5.300000e-07	-4.957474e-06	-1.030483e-09	-3.442663e+01	-6.268875e+01
5.400000e-07	-4.936429e-06	-9.241011e-10	-3.428049e+01	-6.253310e+01
5.500000e-07	-4.914976e-06	-8.767125e-10	-3.413151e+01	-6.237781e+01
5.600000e-07	-4.893206e-06	-9.866609e-10	-3.398033e+01	-6.222305e+01
5.700000e-07	-4.871157e-06	-9.699701e-10	-3.382722e+01	-6.206892e+01
5.800000e-07	-4.848688e-06	-8.775182e-10	-3.367118e+01	-6.191552e+01
5.900000e-07	-4.825925e-06	-9.571699e-10	-3.351311e+01	-6.176293e+01
6.000000e-07	-4.802910e-06	-9.865377e-10	-3.335328e+01	-6.161121e+01
6.100000e-07	-4.779588e-06	-9.034815e-10	-3.319132e+01	-6.146037e+01
6.200000e-07	-4.756047e-06	-9.231536e-10	-3.302785e+01	-6.131042e+01
6.300000e-07	-4.732335e-06	-9.706419e-10	-3.286318e+01	-6.116133e+01
6.400000e-07	-4.708301e-06	-9.121382e-10	-3.269628e+01	-6.101305e+01
6.500000e-07	-4.683810e-06	-8.999585e-10	-3.252621e+01	-6.086551e+01
6.600000e-07	-4.658809e-06	-9.470196e-10	-3.235259e+01	-6.071859e+01
6.700000e-07	-4.633179e-06	-9.137392e-10	-3.217460e+01	-6.057219e+01
6.800000e-07	-4.606966e-06	-8.910153e-10	-3.199257e+01	-6.042614e+01
6.900000e-07	-4.580293e-06	-9.232072e-10	-3.180734e+01	-6.028027e+01
7.000000e-07	-4.553284e-06	-9.190432e-10	-3.161978e+01	-6.013440e+01
7.100000e-07	-4.526027e-06	-8.852379e-10	-3.143050e+01	-5.998831e+01
7.200000e-07	-4.498545e-06	-9.065221e-10	-3.123965e+01	-5.984178e+01
7.300000e-07	-4.470886e-06	-9.067708e-10	-3.104757e+01	-5.969454e+01
7.400000e-07	-4.443007e-06	-8.878877e-10	-3.085397e+01	-5.954636e+01
7.500000e-07	-4.414890e-06	-8.877795e-10	-3.065872e+01	-5.939694e+01
7.600000e-07	-4.386491e-06	-8.978857e-10	-3.046150e+01	-5.924601e+01
7.700000e-07	-4.357728e-06	-8.757955e-10	-3.026176e+01	-5.909329e+01
7.800000e-07	-4.328662e-06	-8.820116e-10	-3.005992e+01	-5.893847e+01
7.900000e-07	-4.299322e-06	-8.874190e-10	-2.985617e+01	-5.878125e+01
8.000000e-07	-4.269727e-06	-8.725110e-10	-2.965065e+01	-5.862135e+01
8.100000e-07	-4.239871e-06	-8.575040e-10	-2.944332e+01	-5.845845e+01
8.200000e-07	-4.209623e-06	-8.696753e-10	-2.923326e+01	-5.829227e+01
8.300000e-07	-4.178983e-06	-8.562663e-10	-2.902049e+01	-5.812251e+01
8.400000e-07	-4.148109e-06	-8.435113e-10	-2.880609e+01	-5.794891e+01
8.500000e-07	-4.117081e-06	-8.517614e-10	-2.859062e+01	-5.777119e+01
8.600000e-07	-4.085853e-06	-8.559781e-10	-2.837376e+01	-5.758910e+01
8.700000e-07	-4.054388e-06	-8.372546e-10	-2.815525e+01	-5.740239e+01
8.800000e-07	-4.022719e-06	-8.395393e-10	-2.793533e+01	-5.721085e+01
8.900000e-07	-3.990821e-06	-8.419132e-10	-2.771382e+01	-5.701427e+01
9.000000e-07	-3.958607e-06	-8.237186e-10	-2.749011e+01	-5.681246e+01
9.100000e-07	-3.925960e-06	-8.164280e-10	-2.726340e+01	-5.660526e+01
9.200000e-07	-3.892911e-06	-8.254839e-10	-2.703390e+01	-5.639253e+01
9.300000e-07	-3.859395e-06	-8.161483e-10	-2.680115e+01	-5.617415e+01
9.400000e-07	-3.825359e-06	-8.025260e-10	-2.656478e+01	-5.595002e+01
9.500000e-07	-3.790967e-06	-8.128787e-10	-2.632595e+01	-5.572007e+01
9.600000e-07	-3.756283e-06	-8.115866e-10	-2.608509e+01	-5.548426e+01
9.700000e-07	-3.721306e-06	-7.953204e-10	-2.584220e+01	-5.524256e+01
9.800000e-07	-3.686083e-06	-7.928024e-10	-2.559760e+01	-5.499497e+01
9.900000e-07	-3.650676e-06	-7.993087e-10	-2.535172e+01	-5.474153e+01
1.000000e-06	-3.615148e-06	-7.880769e-10	-2.510500e+01	-5.448228e+01
1.010000e-06	-3.579524e-06	-7.861101e-10	-2.485761e+01	-5.421729e+01
1.020000e-06	-3.543684e-06	-7.905119e-10	-2.460872e+01	-5.394665e+01
1.030000e-06	-3.507485e-06	-7.841619e-10	-2.435735e+01	-5.367048e+01
1.040000e-06	-3.471016e-06	-7.716077e-10	-2.410409e+01	-5.338891e+01
1.050000e-06	-3.434348e-06	-7.749177e-10	-2.384946e+01	-5.310209e+01
1.060000e-06	-3.397465e-06	-7.680761e-10	-2.359332e+01	-5.281017e+01
1.070000e-06	-3.360323e-06	-7.581231e-10	-2.333539e+01	-5.251334e+01
1.080000e-06	-3.322914e-06	-7.573081e-10	-2.307561e+01	-5.221178e+01
1.090000e-06	-3.285314e-06	-7.610413e-10	-2.281450e+01	-5.190568e+01
1.100000e-06	-3.247494e-06	-7.515878e-10	-2.255186e+01	-5.159525e+01
1.110000e-06	-3.209401e-06	-7.481857e-10	-2.228733e+01	-5.128069e+01
1.120000e-06	-3.171060e-06	-7.468516e-10	-2.202108e+01	-5.096221e+01
1.130000e-06	-3.132539e-06	-7.395974e-10	-2.175358e+01	-5.064001e+01
1.140000e-06	-3.093853e-06	-7.283729e-10	-2.148492e+01	-5.031429e+01
1.150000e-06	-3.054933e-06	-7.250149e-10	-2.121465e+01	-4.998525e+01
1.160000e-06	-3.015756e-06	-7.211838e-10	-2.094259e+01	-4.965307e+01
1.170000e-06	-2.976497e-06	-7.160145e-10	-2.066996e+01	-4.931793e+01
1.180000e-06	-2.937157e-06	-7.123451e-10	-2.039677e+01	-4.897999e+01
1.190000e-06	-2.897636e-06	-7.091353e-10	-2.012231e+01	-4.863939e+01
1.200000e-06	-2.857977e-06	-7.020037e-10	-1.984691e+01	-4.829626e+01
1.210000e-06	-2.818200e-06	-6.966857e-10	-1.957068e+01	-4.795071e+01
1.220000e-06	-2.778154e-06	-6.946745e-10	-1.929258e+01	-4.760283e+01
1.230000e-06	-2.737818e-06	-6.879737e-10	-1.901248e+01	-4.725266e+01
1.240000e-06	-2.697358e-06	-6.812686e-10	-1.873151e+01	-4.690025e+01
1.250000e-06	-2.656630e-06	-6.765951e-10	-1.844868e+01	-4.654560e+01
1.260000e-06	-2.615552e-06	-6.724658e-10	-1.816341e+01	-4.618869e+01
1.270000e-06	-2.574203e-06	-6.649941e-10	-1.787627e+01	-4.582947e+01
1.280000e-06	-2.532542e-06	-6.601811e-10	-1.758696e+01	-4.546786e+01
1.290000e-06	-2.490593e-06	-6.546102e-10	-1.729565e+01	-4.510375e+01
1.300000e-06	-2.448391e-06	-6.470305e-10	-1.700258e+01	-4.473699e+01
1.310000e-06	-2.405961e-06	-6.398857e-10	-1.670793e+01	-4.436740e+01
1.320000e-06	-2.363277e-06	-6.366358e-10	-1.641152e+01	-4.399479e+01
1.330000e-06	-2.320303e-06	-6.300998e-10	-1.611309e+01	-4.361891e+01
1.340000e-06	-2.277146e-06	-6.219572e-10	-1.581339e+01	-4.323949e+01
1.350000e-06	-2.233901e-06	-6.148977e-10	-1.551308e+01	-4.285623e+01
1.360000e-06	-2.190548e-06	-6.106505e-10	-1.521202e+01	-4.246881e+01
1.370000e-06	-2.147071e-06	-6.035025e-10	-1.491010e+01	-4.207687e+01
1.380000e-06	-2.103513e-06	-5.973489e-10	-1.460762e+01	-4.168003e+01
1.390000e-06	-2.059860e-06	-5.899458e-10	-1.430447e+01	-4.127788e+01
1.400000e-06	-2.016089e-06	-5.816645e-10	-1.400051e+01	-4.086998e+01
1.410000e-06	-1.972242e-06	-5.730017e-10	-1.369602e+01	-4.045590e+01
1.420000e-06	-1.928374e-06	-5.674608e-10	-1.339138e+01	-4.003515e+01
1.430000e-06	-1.884414e-06	-5.620568e-10	-1.308611e+01	-3.960725e+01
1.440000e-06	-1.840296e-06	-5.551699e-10	-1.277973e+01	-3.917169e+01
1.450000e-06	-1.796053e-06	-5.465222e-10	-1.247250e+01	-3.872797e+01
1.460000e-06	-1.751641e-06	-5.373681e-10	-1.216408e+01	-3.827556e+01
1.470000e-06	-1.707111e-06	-5.267387e-10	-1.185484e+01	-3.781393e+01
1.480000e-06	-1.662541e-06	-5.164206e-10	-1.154533e+01	-3.734255e+01
1.490000e-06	-1.617793e-06	-5.087475e-10	-1.123459e+01	-3.686087e+01
1.500000e-06	-1.572807e-06	-5.038816e-10	-1.092219e+01	-3.636838e+01
1.510000e-06	-1.527692e-06	-4.991565e-10	-1.060889e+01	-3.586454e+01
1.520000e-06	-1.482509e-06	-4.922289e-10	-1.029512e+01	-3.534882e+01
1.530000e-06	-1.437283e-06	-4.822644e-10	-9.981056e+00	-3.482073e+01
1.540000e-06	-1.391972e-06	-4.723383e-10	-9.666396e+00	-3.427976e+01
1.550000e-06	-1.346507e-06	-4.604603e-10	-9.350671e+00	-3.372543e+01
1.560000e-06	-1.300958e-06	-4.466905e-10	-9.034360e+00	-3.315729e+01
1.570000e-06	-1.255362e-06	-4.370505e-10	-8.717727e+00	-3.257489e+01
1.580000e-06	-1.209692e-06	-4.295315e-10	-8.400577e+00	-3.197781e+01
1.590000e-06	-1.163876e-06	-4.206810e-10	-8.082412e+00	-3.136566e+01
1.600000e-06	-1.117928e-06	-4.114880e-10	-7.763326e+00	-3.073810e+01
1.610000e-06	-1.071933e-06	-4.032662e-10	-7.443924e+00	-3.009477e+01
1.620000e-06	-1.025956e-06	-3.922841e-10	-7.124637e+00	-2.943539e+01
1.630000e-06	-9.799286e-07	-3.821870e-10	-6.805006e+00	-2.875969e+01
1.640000e-06	-9.337555e-07	-3.717109e-10	-6.484362e+00	-2.806744e+01
1.650000e-06	-8.874697e-07	-3.601614e-10	-6.162936e+00	-2.735846e+01
1.660000e-06	-8.410855e-07	-3.470365e-10	-5.840826e+00	-2.663260e+01
1.670000e-06	-7.946416e-07	-3.357203e-10	-5.518302e+00	-2.588975e+01
1.680000e-06	-7.481465e-07	-3.238721e-10	-5.195421e+00	-2.512983e+01
1.690000e-06	-7.016032e-07	-3.127568e-10	-4.872206e+00	-2.435283e+01
1.700000e-06	-6.549940e-07	-3.010559e-10	-4.548534e+00	-2.355875e+01
1.710000e-06	-6.083666e-07	-2.892453e-10	-4.224735e+00	-2.274767e+01
1.720000e-06	-5.617148e-07	-2.763116e-10	-3.900767e+00	-2.191968e+01
1.730000e-06	-5.149166e-07	-2.625420e-10	-3.575782e+00	-2.107492e+01
1.740000e-06	-4.680640e-07	-2.489453e-10	-3.250419e+00	-2.021360e+01
1.750000e-06	-4.212292e-07	-2.361930e-10	-2.925180e+00	-1.933593e+01
1.760000e-06	-3.743794e-07	-2.234879e-10	-2.599837e+00	-1.844219e+01
1.770000e-06	-3.274900e-07	-2.103054e-10	-2.274218e+00	-1.753271e+01
1.780000e-06	-2.805582e-07	-1.972695e-10	-1.948306e+00	-1.660783e+01
1.790000e-06	-2.335831e-07	-1.851265e-10	-1.622092e+00	-1.566795e+01
1.800000e-06	-1.865872e-07	-1.735279e-10	-1.295734e+00	-1.471350e+01
1.810000e-06	-1.396842e-07	-1.615905e-10	-9.700217e-01	-1.374496e+01
1.820000e-06	-9.279434e-08	-1.479575e-10	-6.444001e-01	-1.276283e+01
1.830000e-06	-4.584622e-08	-1.340920e-10	-3.183741e-01	-1.176765e+01
1.840000e-06	1.045003e-09	-1.204716e-10	7.256909e-03	-1.075999e+01
1.850000e-06	4.795866e-08	-1.064577e-10	3.330437e-01	-9.740454e+00
1.860000e-06	9.493552e-08	-9.139721e-11	6.592693e-01	-8.709675e+00
1.870000e-06	1.419188e-07	-7.462239e-11	9.855394e-01	-7.668309e+00
1.880000e-06	1.888400e-07	-5.934512e-11	1.311379e+00	-6.617035e+00
1.890000e-06	2.356804e-07	-4.476307e-11	1.636657e+00	-5.556557e+00
1.900000e-06	2.825444e-07	-3.313600e-11	1.962099e+00	-4.487597e+00
1.910000e-06	3.294569e-07	-2.150051e-11	2.287877e+00	-3.410896e+00
1.920000e-06	3.763084e-07	-6.732202e-12	2.613233e+00	-2.327209e+00
1.930000e-06	4.230872e-07	1.143588e-11	2.938083e+00	-1.237305e+00
1.940000e-06	4.699060e-07	3.092725e-11	3.263211e+00	-1.419618e-01
1.950000e-06	5.166948e-07	5.013998e-11	3.588130e+00	9.580320e-01
1.960000e-06	5.633756e-07	6.801100e-11	3.912300e+00	2.061883e+00
1.970000e-06	6.099535e-07	8.408716e-11	4.235755e+00	3.168795e+00
1.980000e-06	6.564485e-07	9.490110e-11	4.558634e+00	4.277969e+00
1.990000e-06	7.028946e-07	1.028094e-10	4.881175e+00	5.388606e+00
2.000000e-06	7.492532e-07	1.132937e-10	5.203107e+00	6.499912e+00
2.010000e-06	7.955512e-07	1.285613e-10	5.524618e+00	7.611097e+00
2.020000e-06	8.418565e-07	1.473619e-10	5.846180e+00	8.721377e+00
2.030000e-06	8.881447e-07	1.687047e-10	6.167623e+00	9.829979e+00
2.040000e-06	9.343566e-07	1.887498e-10	6.488537e+00	1.093614e+01
2.050000e-06	9.804634e-07	2.054055e-10	6.808720e+00	1.203911e+01
2.060000e-06	1.026534e-06	2.196044e-10	7.128654e+00	1.313814e+01
2.070000e-06	1.072532e-06	2.309552e-10	7.448078e+00	1.423254e+01
2.080000e-06	1.118428e-06	2.409525e-10	7.766803e+00	1.532157e+01
2.090000e-06	1.164238e-06	2.550745e-10	8.084926e+00	1.640458e+01
2.100000e-06	1.209901e-06	2.731839e-10	8.402024e+00	1.748088e+01
2.110000e-06	1.255433e-06	2.926182e-10	8.718216e+00	1.854985e+01
2.120000e-06	1.300881e-06	3.107075e-10	9.033824e+00	1.961085e+01
2.130000e-06	1.346285e-06	3.268348e-10	9.349128e+00	2.066329e+01
2.140000e-06	1.391634e-06	3.399495e-10	9.664049e+00	2.170661e+01
2.150000e-06	1.436850e-06	3.507812e-10	9.978050e+00	2.274026e+01
2.160000e-06	1.481948e-06	3.633498e-10	1.029122e+01	2.376370e+01
2.170000e-06	1.526964e-06	3.764382e-10	1.060383e+01	2.477646e+01
2.180000e-06	1.571887e-06	3.913277e-10	1.091579e+01	2.577806e+01
2.190000e-06	1.616745e-06	4.092145e-10	1.122731e+01	2.676806e+01
2.200000e-06	1.661483e-06	4.267227e-10	1.153798e+01	2.774605e+01
2.210000e-06	1.706028e-06	4.401217e-10	1.184732e+01	2.871164e+01
2.220000e-06	1.750445e-06	4.495036e-10	1.215577e+01	2.966447e+01
2.230000e-06	1.794748e-06	4.582228e-10	1.246343e+01	3.060421e+01
2.240000e-06	1.838892e-06	4.692437e-10	1.276999e+01	3.153056e+01
2.250000e-06	1.882950e-06	4.833425e-10	1.307594e+01	3.244324e+01
2.260000e-06	1.926896e-06	5.000850e-10	1.338112e+01	3.334200e+01
2.270000e-06	1.970688e-06	5.158587e-10	1.368523e+01	3.422660e+01
2.280000e-06	2.014350e-06	5.297161e-10	1.398843e+01	3.509687e+01
2.290000e-06	2.057901e-06	5.405364e-10	1.429087e+01	3.595261e+01
2.300000e-06	2.101414e-06	5.490053e-10	1.459304e+01	3.679368e+01
2.310000e-06	2.144901e-06	5.565875e-10	1.489503e+01	3.761995e+01
2.320000e-06	2.188338e-06	5.662977e-10	1.519667e+01	3.843133e+01
2.330000e-06	2.231728e-06	5.784533e-10	1.549799e+01	3.922772e+01
2.340000e-06	2.275041e-06	5.923041e-10	1.579877e+01	4.000908e+01
2.350000e-06	2.318186e-06	6.057479e-10	1.609839e+01	4.077536e+01
2.360000e-06	2.361157e-06	6.177634e-10	1.639679e+01	4.152654e+01
2.370000e-06	2.403961e-06	6.285973e-10	1.669404e+01	4.226263e+01
2.380000e-06	2.446498e-06	6.378382e-10	1.698943e+01	4.298364e+01
2.390000e-06	2.488741e-06	6.451107e-10	1.728279e+01	4.368962e+01
2.400000e-06	2.530696e-06	6.523617e-10	1.757414e+01	4.438061e+01
2.410000e-06	2.572257e-06	6.608771e-10	1.786276e+01	4.505668e+01
2.420000e-06	2.613406e-06	6.702385e-10	1.814851e+01	4.571792e+01
2.430000e-06	2.654254e-06	6.816557e-10	1.843218e+01	4.636442e+01
2.440000e-06	2.694860e-06	6.926723e-10	1.871416e+01	4.699630e+01
2.450000e-06	2.735226e-06	7.018604e-10	1.899448e+01	4.761369e+01
2.460000e-06	2.775405e-06	7.094518e-10	1.927350e+01	4.821670e+01
2.470000e-06	2.815411e-06	7.164680e-10	1.955131e+01	4.880550e+01
2.480000e-06	2.855182e-06	7.232336e-10	1.982749e+01	4.938023e+01
2.490000e-06	2.894775e-06	7.299986e-10	2.010244e+01	4.994107e+01
2.500000e-06	2.934291e-06	7.388672e-10	2.037686e+01	5.048818e+01
2.510000e-06	2.973689e-06	7.484689e-10	2.065045e+01	5.102175e+01
2.520000e-06	3.012913e-06	7.560995e-10	2.092284e+01	5.154197e+01
2.530000e-06	3.051915e-06	7.615393e-10	2.119369e+01	5.204905e+01
2.540000e-06	3.090715e-06	7.679774e-10	2.146313e+01	5.254317e+01
2.550000e-06	3.129372e-06	7.746708e-10	2.173158e+01	5.302456e+01
2.560000e-06	3.167850e-06	7.807168e-10	2.199879e+01	5.349342e+01
2.570000e-06	3.206082e-06	7.892357e-10	2.226428e+01	5.394998e+01
2.580000e-06	3.244052e-06	7.992546e-10	2.252796e+01	5.439447e+01
2.590000e-06	3.281779e-06	8.071183e-10	2.278996e+01	5.482711e+01
2.600000e-06	3.319317e-06	8.098323e-10	2.305063e+01	5.524814e+01
2.610000e-06	3.356573e-06	8.100712e-10	2.330935e+01	5.565779e+01
2.620000e-06	3.393550e-06	8.127650e-10	2.356614e+01	5.605631e+01
2.630000e-06	3.430309e-06	8.191196e-10	2.382141e+01	5.644394e+01
2.640000e-06	3.466802e-06	8.275769e-10	2.407483e+01	5.682092e+01
2.650000e-06	3.503035e-06	8.379656e-10	2.432644e+01	5.718750e+01
2.660000e-06	3.538988e-06	8.476248e-10	2.457611e+01	5.754394e+01
2.670000e-06	3.574745e-06	8.530012e-10	2.482442e+01	5.789048e+01
2.680000e-06	3.610406e-06	8.542781e-10	2.507207e+01	5.822737e+01
2.690000e-06	3.645974e-06	8.530110e-10	2.531907e+01	5.855488e+01
2.700000e-06	3.681437e-06	8.540130e-10	2.556534e+01	5.887325e+01
2.710000e-06	3.716747e-06	8.600438e-10	2.581054e+01	5.918274e+01
2.720000e-06	3.751860e-06	8.676665e-10	2.605438e+01	5.948360e+01
2.730000e-06	3.786706e-06	8.754773e-10	2.629637e+01	5.977608e+01
2.740000e-06	3.821184e-06	8.811451e-10	2.653580e+01	6.006044e+01
2.750000e-06	3.855224e-06	8.851360e-10	2.677218e+01	6.033693e+01
2.760000e-06	3.888719e-06	8.884368e-10	2.700478e+01	6.060580e+01
2.770000e-06	3.921688e-06	8.908292e-10	2.723373e+01	6.086729e+01
2.780000e-06	3.954261e-06	8.946432e-10	2.745993e+01	6.112165e+01
2.790000e-06	3.986464e-06	8.985030e-10	2.768356e+01	6.136912e+01
2.800000e-06	4.018363e-06	9.021659e-10	2.790508e+01	6.160993e+01
2.810000e-06	4.050086e-06	9.067443e-10	2.812538e+01	6.184432e+01
2.820000e-06	4.081659e-06	9.113440e-10	2.834463e+01	6.207251e+01
2.830000e-06	4.113050e-06	9.155683e-10	2.856263e+01	6.229473e+01
2.840000e-06	4.144249e-06	9.196953e-10	2.877928e+01	6.251119e+01
2.850000e-06	4.175161e-06	9.230133e-10	2.899395e+01	6.272210e+01
2.860000e-06	4.205733e-06	9.262557e-10	2.920625e+01	6.292766e+01
2.870000e-06	4.236021e-06	9.300857e-10	2.941659e+01	6.312807e+01
2.880000e-06	4.265992e-06	9.328475e-10	2.962471e+01	6.332351e+01
2.890000e-06	4.295628e-06	9.330758e-10	2.983052e+01	6.351416e+01
2.900000e-06	4.324981e-06	9.340238e-10	3.003436e+01	6.370019e+01
