# Temperatura_=_-0.4
# Concentracion g/m^3_=_1620.0
# C_Vs_to_Am_M_A/Vsm_=_65563218390.804596
# pendiente_HvsI_1/m_=_3716.3
# ordenada_HvsI_A/m_=_1297.0
# frecuencia_Hz_=_135094.33283742808

Tiempo_(s)	Campo_(V.s)	Magnetizacion_(V.s)	Campo_(kA/m)	Magnetizacion_(A/m)
0.000000e+00	-5.515607e-06	-1.475293e-09	-3.838206e+01	-9.521857e+01
1.000000e-08	-5.515711e-06	-1.469297e-09	-3.838278e+01	-9.515540e+01
2.000000e-08	-5.515556e-06	-1.466583e-09	-3.838171e+01	-9.508903e+01
3.000000e-08	-5.514965e-06	-1.468411e-09	-3.837759e+01	-9.501951e+01
4.000000e-08	-5.513710e-06	-1.469794e-09	-3.836886e+01	-9.494688e+01
5.000000e-08	-5.511765e-06	-1.469633e-09	-3.835532e+01	-9.487118e+01
6.000000e-08	-5.509331e-06	-1.467380e-09	-3.833838e+01	-9.479247e+01
7.000000e-08	-5.506495e-06	-1.467660e-09	-3.831865e+01	-9.471080e+01
8.000000e-08	-5.503198e-06	-1.483148e-09	-3.829571e+01	-9.462623e+01
9.000000e-08	-5.499453e-06	-1.489929e-09	-3.826964e+01	-9.453882e+01
1.000000e-07	-5.495205e-06	-1.489347e-09	-3.824008e+01	-9.444864e+01
1.100000e-07	-5.490687e-06	-1.466303e-09	-3.820864e+01	-9.435575e+01
1.200000e-07	-5.486120e-06	-1.441961e-09	-3.817686e+01	-9.426023e+01
1.300000e-07	-5.481326e-06	-1.461408e-09	-3.814350e+01	-9.416216e+01
1.400000e-07	-5.476082e-06	-1.470156e-09	-3.810701e+01	-9.406161e+01
1.500000e-07	-5.470375e-06	-1.463755e-09	-3.806730e+01	-9.395866e+01
1.600000e-07	-5.464299e-06	-1.465097e-09	-3.802502e+01	-9.385339e+01
1.700000e-07	-5.457858e-06	-1.460286e-09	-3.798020e+01	-9.374589e+01
1.800000e-07	-5.451004e-06	-1.472404e-09	-3.793250e+01	-9.363622e+01
1.900000e-07	-5.443739e-06	-1.430789e-09	-3.788194e+01	-9.352447e+01
2.000000e-07	-5.436243e-06	-1.422549e-09	-3.782978e+01	-9.341072e+01
2.100000e-07	-5.428544e-06	-1.414020e-09	-3.777621e+01	-9.329505e+01
2.200000e-07	-5.420558e-06	-1.444255e-09	-3.772063e+01	-9.317752e+01
2.300000e-07	-5.412121e-06	-1.431386e-09	-3.766192e+01	-9.305821e+01
2.400000e-07	-5.403183e-06	-1.411096e-09	-3.759972e+01	-9.293718e+01
2.500000e-07	-5.393580e-06	-1.388413e-09	-3.753289e+01	-9.281450e+01
2.600000e-07	-5.383184e-06	-1.398411e-09	-3.746055e+01	-9.269022e+01
2.700000e-07	-5.372204e-06	-1.395990e-09	-3.738414e+01	-9.256439e+01
2.800000e-07	-5.360831e-06	-1.388739e-09	-3.730500e+01	-9.243705e+01
2.900000e-07	-5.349117e-06	-1.390526e-09	-3.722349e+01	-9.230824e+01
3.000000e-07	-5.337050e-06	-1.389462e-09	-3.713951e+01	-9.217799e+01
3.100000e-07	-5.324622e-06	-1.387488e-09	-3.705303e+01	-9.204632e+01
3.200000e-07	-5.311653e-06	-1.363015e-09	-3.696278e+01	-9.191324e+01
3.300000e-07	-5.298279e-06	-1.370517e-09	-3.686971e+01	-9.177876e+01
3.400000e-07	-5.284695e-06	-1.359793e-09	-3.677519e+01	-9.164287e+01
3.500000e-07	-5.270627e-06	-1.370669e-09	-3.667729e+01	-9.150555e+01
3.600000e-07	-5.255870e-06	-1.366164e-09	-3.657460e+01	-9.136680e+01
3.700000e-07	-5.240713e-06	-1.373999e-09	-3.646912e+01	-9.122657e+01
3.800000e-07	-5.225186e-06	-1.359059e-09	-3.636107e+01	-9.108482e+01
3.900000e-07	-5.209053e-06	-1.363049e-09	-3.624881e+01	-9.094152e+01
4.000000e-07	-5.192443e-06	-1.354219e-09	-3.613322e+01	-9.079659e+01
4.100000e-07	-5.175591e-06	-1.354737e-09	-3.601595e+01	-9.064998e+01
4.200000e-07	-5.158442e-06	-1.352771e-09	-3.589662e+01	-9.050162e+01
4.300000e-07	-5.140936e-06	-1.361008e-09	-3.577479e+01	-9.035142e+01
4.400000e-07	-5.123053e-06	-1.345692e-09	-3.565035e+01	-9.019930e+01
4.500000e-07	-5.104789e-06	-1.350111e-09	-3.552325e+01	-9.004516e+01
4.600000e-07	-5.086173e-06	-1.347071e-09	-3.539371e+01	-8.988892e+01
4.700000e-07	-5.067157e-06	-1.335739e-09	-3.526138e+01	-8.973046e+01
4.800000e-07	-5.047794e-06	-1.326410e-09	-3.512664e+01	-8.956967e+01
4.900000e-07	-5.028217e-06	-1.348270e-09	-3.499040e+01	-8.940646e+01
5.000000e-07	-5.008490e-06	-1.341345e-09	-3.485313e+01	-8.924070e+01
5.100000e-07	-4.988549e-06	-1.323900e-09	-3.471436e+01	-8.907227e+01
5.200000e-07	-4.968300e-06	-1.329129e-09	-3.457345e+01	-8.890107e+01
5.300000e-07	-4.947704e-06	-1.336625e-09	-3.443013e+01	-8.872697e+01
5.400000e-07	-4.926655e-06	-1.317432e-09	-3.428365e+01	-8.854987e+01
5.500000e-07	-4.905203e-06	-1.317851e-09	-3.413437e+01	-8.836963e+01
5.600000e-07	-4.883430e-06	-1.328197e-09	-3.398285e+01	-8.818614e+01
5.700000e-07	-4.861311e-06	-1.313929e-09	-3.382894e+01	-8.799930e+01
5.800000e-07	-4.838879e-06	-1.306886e-09	-3.367284e+01	-8.780899e+01
5.900000e-07	-4.816163e-06	-1.318428e-09	-3.351476e+01	-8.761511e+01
6.000000e-07	-4.793125e-06	-1.317396e-09	-3.335444e+01	-8.741754e+01
6.100000e-07	-4.769754e-06	-1.306560e-09	-3.319181e+01	-8.721620e+01
6.200000e-07	-4.746165e-06	-1.317725e-09	-3.302766e+01	-8.701099e+01
6.300000e-07	-4.722401e-06	-1.310014e-09	-3.286229e+01	-8.680182e+01
6.400000e-07	-4.698394e-06	-1.294182e-09	-3.269523e+01	-8.658859e+01
6.500000e-07	-4.673984e-06	-1.286066e-09	-3.252536e+01	-8.637124e+01
6.600000e-07	-4.648997e-06	-1.287469e-09	-3.235149e+01	-8.614969e+01
6.700000e-07	-4.623535e-06	-1.273893e-09	-3.217430e+01	-8.592387e+01
6.800000e-07	-4.597582e-06	-1.277533e-09	-3.199369e+01	-8.569371e+01
6.900000e-07	-4.570971e-06	-1.280678e-09	-3.180852e+01	-8.545916e+01
7.000000e-07	-4.543872e-06	-1.280101e-09	-3.161994e+01	-8.522017e+01
7.100000e-07	-4.516514e-06	-1.270691e-09	-3.142956e+01	-8.497668e+01
7.200000e-07	-4.489005e-06	-1.266660e-09	-3.123813e+01	-8.472864e+01
7.300000e-07	-4.461365e-06	-1.253610e-09	-3.104579e+01	-8.447603e+01
7.400000e-07	-4.433553e-06	-1.241196e-09	-3.085225e+01	-8.421881e+01
7.500000e-07	-4.405487e-06	-1.234645e-09	-3.065695e+01	-8.395693e+01
7.600000e-07	-4.377205e-06	-1.240275e-09	-3.046013e+01	-8.369038e+01
7.700000e-07	-4.348590e-06	-1.241506e-09	-3.026101e+01	-8.341912e+01
7.800000e-07	-4.319527e-06	-1.243376e-09	-3.005877e+01	-8.314314e+01
7.900000e-07	-4.290202e-06	-1.240194e-09	-2.985470e+01	-8.286240e+01
8.000000e-07	-4.260646e-06	-1.229373e-09	-2.964902e+01	-8.257689e+01
8.100000e-07	-4.230717e-06	-1.206076e-09	-2.944075e+01	-8.228658e+01
8.200000e-07	-4.200449e-06	-1.188535e-09	-2.923012e+01	-8.199146e+01
8.300000e-07	-4.169973e-06	-1.181705e-09	-2.901805e+01	-8.169151e+01
8.400000e-07	-4.139184e-06	-1.181526e-09	-2.880379e+01	-8.138670e+01
8.500000e-07	-4.108057e-06	-1.188120e-09	-2.858718e+01	-8.107701e+01
8.600000e-07	-4.076806e-06	-1.194222e-09	-2.836972e+01	-8.076243e+01
8.700000e-07	-4.045405e-06	-1.194876e-09	-2.815120e+01	-8.044293e+01
8.800000e-07	-4.013787e-06	-1.186061e-09	-2.793118e+01	-8.011849e+01
8.900000e-07	-3.981919e-06	-1.172507e-09	-2.770941e+01	-7.978908e+01
9.000000e-07	-3.949777e-06	-1.152132e-09	-2.748575e+01	-7.945467e+01
9.100000e-07	-3.917318e-06	-1.141230e-09	-2.725987e+01	-7.911524e+01
9.200000e-07	-3.884432e-06	-1.136762e-09	-2.703102e+01	-7.877076e+01
9.300000e-07	-3.851106e-06	-1.137301e-09	-2.679912e+01	-7.842120e+01
9.400000e-07	-3.817268e-06	-1.137508e-09	-2.656364e+01	-7.806653e+01
9.500000e-07	-3.783118e-06	-1.138058e-09	-2.632600e+01	-7.770671e+01
9.600000e-07	-3.748682e-06	-1.128752e-09	-2.608636e+01	-7.734172e+01
9.700000e-07	-3.713767e-06	-1.114217e-09	-2.584340e+01	-7.697152e+01
9.800000e-07	-3.678509e-06	-1.099338e-09	-2.559804e+01	-7.659608e+01
9.900000e-07	-3.643051e-06	-1.090510e-09	-2.535130e+01	-7.621537e+01
1.000000e-06	-3.607456e-06	-1.083441e-09	-2.510360e+01	-7.582937e+01
1.010000e-06	-3.571717e-06	-1.083065e-09	-2.485490e+01	-7.543803e+01
1.020000e-06	-3.535821e-06	-1.082152e-09	-2.460510e+01	-7.504134e+01
1.030000e-06	-3.499765e-06	-1.079005e-09	-2.435420e+01	-7.463927e+01
1.040000e-06	-3.463531e-06	-1.071631e-09	-2.410205e+01	-7.423181e+01
1.050000e-06	-3.427006e-06	-1.064544e-09	-2.384788e+01	-7.381893e+01
1.060000e-06	-3.390150e-06	-1.052308e-09	-2.359141e+01	-7.340062e+01
1.070000e-06	-3.353057e-06	-1.039820e-09	-2.333329e+01	-7.297688e+01
1.080000e-06	-3.315694e-06	-1.030955e-09	-2.307328e+01	-7.254769e+01
1.090000e-06	-3.278109e-06	-1.027070e-09	-2.281174e+01	-7.211305e+01
1.100000e-06	-3.240313e-06	-1.022053e-09	-2.254872e+01	-7.167297e+01
1.110000e-06	-3.202214e-06	-1.015693e-09	-2.228360e+01	-7.122747e+01
1.120000e-06	-3.163932e-06	-1.011421e-09	-2.201720e+01	-7.077654e+01
1.130000e-06	-3.125492e-06	-1.004527e-09	-2.174970e+01	-7.032020e+01
1.140000e-06	-3.086815e-06	-9.946695e-10	-2.148055e+01	-6.985849e+01
1.150000e-06	-3.047969e-06	-9.846520e-10	-2.121024e+01	-6.939141e+01
1.160000e-06	-3.008970e-06	-9.764347e-10	-2.093885e+01	-6.891901e+01
1.170000e-06	-2.969815e-06	-9.677009e-10	-2.066638e+01	-6.844131e+01
1.180000e-06	-2.930509e-06	-9.618436e-10	-2.039286e+01	-6.795834e+01
1.190000e-06	-2.890989e-06	-9.586918e-10	-2.011784e+01	-6.747013e+01
1.200000e-06	-2.851331e-06	-9.534791e-10	-1.984187e+01	-6.697673e+01
1.210000e-06	-2.811544e-06	-9.461489e-10	-1.956500e+01	-6.647815e+01
1.220000e-06	-2.771602e-06	-9.403445e-10	-1.928705e+01	-6.597444e+01
1.230000e-06	-2.731491e-06	-9.294136e-10	-1.900793e+01	-6.546561e+01
1.240000e-06	-2.691025e-06	-9.169224e-10	-1.872633e+01	-6.495169e+01
1.250000e-06	-2.650324e-06	-9.085627e-10	-1.844310e+01	-6.443268e+01
1.260000e-06	-2.609441e-06	-9.030722e-10	-1.815860e+01	-6.390861e+01
1.270000e-06	-2.568242e-06	-8.957357e-10	-1.787190e+01	-6.337946e+01
1.280000e-06	-2.526817e-06	-8.913696e-10	-1.758364e+01	-6.284522e+01
1.290000e-06	-2.485182e-06	-8.852293e-10	-1.729391e+01	-6.230586e+01
1.300000e-06	-2.443176e-06	-8.749225e-10	-1.700159e+01	-6.176134e+01
1.310000e-06	-2.400840e-06	-8.621659e-10	-1.670698e+01	-6.121160e+01
1.320000e-06	-2.358274e-06	-8.508854e-10	-1.641078e+01	-6.065656e+01
1.330000e-06	-2.315453e-06	-8.386569e-10	-1.611280e+01	-6.009613e+01
1.340000e-06	-2.272459e-06	-8.288626e-10	-1.581361e+01	-5.953019e+01
1.350000e-06	-2.229259e-06	-8.221929e-10	-1.551299e+01	-5.895861e+01
1.360000e-06	-2.185877e-06	-8.155920e-10	-1.521110e+01	-5.838121e+01
1.370000e-06	-2.142350e-06	-8.079580e-10	-1.490821e+01	-5.779780e+01
1.380000e-06	-2.098720e-06	-8.005659e-10	-1.460459e+01	-5.720818e+01
1.390000e-06	-2.055044e-06	-7.895031e-10	-1.430066e+01	-5.661210e+01
1.400000e-06	-2.011282e-06	-7.755395e-10	-1.399613e+01	-5.600929e+01
1.410000e-06	-1.967448e-06	-7.638383e-10	-1.369109e+01	-5.539945e+01
1.420000e-06	-1.923540e-06	-7.550150e-10	-1.338555e+01	-5.478225e+01
1.430000e-06	-1.879538e-06	-7.460216e-10	-1.307935e+01	-5.415734e+01
1.440000e-06	-1.835449e-06	-7.375733e-10	-1.277254e+01	-5.352433e+01
1.450000e-06	-1.791232e-06	-7.289455e-10	-1.246484e+01	-5.288281e+01
1.460000e-06	-1.746894e-06	-7.182039e-10	-1.215630e+01	-5.223233e+01
1.470000e-06	-1.702434e-06	-7.071110e-10	-1.184692e+01	-5.157243e+01
1.480000e-06	-1.657842e-06	-6.965990e-10	-1.153660e+01	-5.090261e+01
1.490000e-06	-1.613123e-06	-6.873730e-10	-1.122541e+01	-5.022235e+01
1.500000e-06	-1.568220e-06	-6.770740e-10	-1.091295e+01	-4.953112e+01
1.510000e-06	-1.523188e-06	-6.659949e-10	-1.059958e+01	-4.882834e+01
1.520000e-06	-1.478080e-06	-6.547357e-10	-1.028568e+01	-4.811344e+01
1.530000e-06	-1.432884e-06	-6.438815e-10	-9.971167e+00	-4.738582e+01
1.540000e-06	-1.387602e-06	-6.318598e-10	-9.656057e+00	-4.664487e+01
1.550000e-06	-1.342198e-06	-6.190134e-10	-9.340101e+00	-4.588997e+01
1.560000e-06	-1.296752e-06	-6.054164e-10	-9.023847e+00	-4.512050e+01
1.570000e-06	-1.251200e-06	-5.934354e-10	-8.706860e+00	-4.433581e+01
1.580000e-06	-1.205503e-06	-5.806241e-10	-8.388865e+00	-4.353527e+01
1.590000e-06	-1.159746e-06	-5.693886e-10	-8.070452e+00	-4.271827e+01
1.600000e-06	-1.113917e-06	-5.579513e-10	-7.751537e+00	-4.188417e+01
1.610000e-06	-1.068017e-06	-5.440646e-10	-7.432129e+00	-4.103237e+01
1.620000e-06	-1.022038e-06	-5.286128e-10	-7.112169e+00	-4.016226e+01
1.630000e-06	-9.759298e-07	-5.148739e-10	-6.791309e+00	-3.927329e+01
1.640000e-06	-9.297500e-07	-5.027176e-10	-6.469953e+00	-3.836488e+01
1.650000e-06	-8.835810e-07	-4.904094e-10	-6.148672e+00	-3.743652e+01
1.660000e-06	-8.373449e-07	-4.769378e-10	-5.826923e+00	-3.648772e+01
1.670000e-06	-7.910064e-07	-4.610862e-10	-5.504463e+00	-3.551801e+01
1.680000e-06	-7.446370e-07	-4.455767e-10	-5.181787e+00	-3.452698e+01
1.690000e-06	-6.982869e-07	-4.308129e-10	-4.859245e+00	-3.351425e+01
1.700000e-06	-6.519530e-07	-4.147850e-10	-4.536817e+00	-3.247950e+01
1.710000e-06	-6.055412e-07	-3.980580e-10	-4.213846e+00	-3.142245e+01
1.720000e-06	-5.590446e-07	-3.819542e-10	-3.890285e+00	-3.034288e+01
1.730000e-06	-5.125013e-07	-3.653715e-10	-3.566399e+00	-2.924063e+01
1.740000e-06	-4.658745e-07	-3.474134e-10	-3.241932e+00	-2.811558e+01
1.750000e-06	-4.191751e-07	-3.293793e-10	-2.916960e+00	-2.696769e+01
1.760000e-06	-3.724830e-07	-3.123657e-10	-2.592038e+00	-2.579699e+01
1.770000e-06	-3.257843e-07	-2.952702e-10	-2.267071e+00	-2.460357e+01
1.780000e-06	-2.789673e-07	-2.775855e-10	-1.941280e+00	-2.338758e+01
1.790000e-06	-2.321327e-07	-2.615255e-10	-1.615367e+00	-2.214923e+01
1.800000e-06	-1.853360e-07	-2.457630e-10	-1.289718e+00	-2.088884e+01
1.810000e-06	-1.385424e-07	-2.260727e-10	-9.640900e-01	-1.960677e+01
1.820000e-06	-9.179315e-08	-2.054757e-10	-6.387710e-01	-1.830344e+01
1.830000e-06	-4.501139e-08	-1.840918e-10	-3.132256e-01	-1.697937e+01
1.840000e-06	1.786099e-09	-1.649843e-10	1.242913e-02	-1.563513e+01
1.850000e-06	4.854830e-08	-1.490913e-10	3.378384e-01	-1.427137e+01
1.860000e-06	9.527201e-08	-1.320130e-10	6.629797e-01	-1.288879e+01
1.870000e-06	1.420593e-07	-1.116462e-10	9.885633e-01	-1.148816e+01
1.880000e-06	1.889831e-07	-8.941147e-11	1.315097e+00	-1.007033e+01
1.890000e-06	2.358330e-07	-6.832614e-11	1.641117e+00	-8.636198e+00
1.900000e-06	2.826862e-07	-4.855721e-11	1.967160e+00	-7.186706e+00
1.910000e-06	3.295602e-07	-2.914100e-11	2.293347e+00	-5.722866e+00
1.920000e-06	3.762061e-07	-1.011827e-11	2.617947e+00	-4.245734e+00
1.930000e-06	4.227516e-07	9.190742e-12	2.941848e+00	-2.756415e+00
1.940000e-06	4.693779e-07	3.017638e-11	3.266311e+00	-1.256052e+00
1.950000e-06	5.159525e-07	5.270425e-11	3.590415e+00	2.541709e-01
1.960000e-06	5.623945e-07	7.480091e-11	3.913596e+00	1.773039e+00
1.970000e-06	6.088112e-07	9.615745e-11	4.236601e+00	3.299306e+00
1.980000e-06	6.552452e-07	1.158783e-10	4.559726e+00	4.831706e+00
1.990000e-06	7.015402e-07	1.340042e-10	4.881885e+00	6.368952e+00
2.000000e-06	7.477695e-07	1.506456e-10	5.203585e+00	7.909743e+00
2.010000e-06	7.940479e-07	1.705490e-10	5.525628e+00	9.452769e+00
2.020000e-06	8.403371e-07	1.941323e-10	5.847745e+00	1.099672e+01
2.030000e-06	8.865125e-07	2.179018e-10	6.169071e+00	1.254028e+01
2.040000e-06	9.325395e-07	2.415776e-10	6.489364e+00	1.408215e+01
2.050000e-06	9.785564e-07	2.627164e-10	6.809587e+00	1.562103e+01
2.060000e-06	1.024523e-06	2.842480e-10	7.129462e+00	1.715564e+01
2.070000e-06	1.070422e-06	3.038726e-10	7.448864e+00	1.868473e+01
2.080000e-06	1.116349e-06	3.225383e-10	7.768458e+00	2.020706e+01
2.090000e-06	1.162244e-06	3.422719e-10	8.087834e+00	2.172144e+01
2.100000e-06	1.207991e-06	3.636422e-10	8.406178e+00	2.322668e+01
2.110000e-06	1.253608e-06	3.848359e-10	8.723616e+00	2.472165e+01
2.120000e-06	1.299068e-06	4.066735e-10	9.039967e+00	2.620526e+01
2.130000e-06	1.344454e-06	4.295986e-10	9.355800e+00	2.767647e+01
2.140000e-06	1.389805e-06	4.520379e-10	9.671387e+00	2.913426e+01
2.150000e-06	1.435037e-06	4.713353e-10	9.986151e+00	3.057768e+01
2.160000e-06	1.480202e-06	4.895997e-10	1.030044e+01	3.200583e+01
2.170000e-06	1.525268e-06	5.077759e-10	1.061405e+01	3.341785e+01
2.180000e-06	1.570217e-06	5.240157e-10	1.092684e+01	3.481295e+01
2.190000e-06	1.615038e-06	5.426808e-10	1.123874e+01	3.619040e+01
2.200000e-06	1.659685e-06	5.644773e-10	1.154943e+01	3.754950e+01
2.210000e-06	1.704125e-06	5.831671e-10	1.185868e+01	3.888964e+01
2.220000e-06	1.748318e-06	5.984477e-10	1.216621e+01	4.021024e+01
2.230000e-06	1.792463e-06	6.146955e-10	1.247341e+01	4.151080e+01
2.240000e-06	1.836583e-06	6.322795e-10	1.278043e+01	4.279086e+01
2.250000e-06	1.880549e-06	6.502815e-10	1.308638e+01	4.405004e+01
2.260000e-06	1.924392e-06	6.676301e-10	1.339148e+01	4.528800e+01
2.270000e-06	1.968158e-06	6.841305e-10	1.369604e+01	4.650445e+01
2.280000e-06	2.011874e-06	7.001646e-10	1.400025e+01	4.769916e+01
2.290000e-06	2.055514e-06	7.153337e-10	1.430393e+01	4.887196e+01
2.300000e-06	2.099098e-06	7.303257e-10	1.460722e+01	5.002273e+01
2.310000e-06	2.142646e-06	7.459222e-10	1.491026e+01	5.115138e+01
2.320000e-06	2.186124e-06	7.612878e-10	1.521282e+01	5.225790e+01
2.330000e-06	2.229480e-06	7.772254e-10	1.551453e+01	5.334228e+01
2.340000e-06	2.272684e-06	7.916830e-10	1.581517e+01	5.440460e+01
2.350000e-06	2.315711e-06	8.074682e-10	1.611459e+01	5.544494e+01
2.360000e-06	2.358592e-06	8.229518e-10	1.641299e+01	5.646343e+01
2.370000e-06	2.401283e-06	8.361139e-10	1.671007e+01	5.746025e+01
2.380000e-06	2.443754e-06	8.468692e-10	1.700562e+01	5.843559e+01
2.390000e-06	2.485836e-06	8.591531e-10	1.729846e+01	5.938969e+01
2.400000e-06	2.527390e-06	8.706373e-10	1.758763e+01	6.032278e+01
2.410000e-06	2.568568e-06	8.812794e-10	1.787417e+01	6.123516e+01
2.420000e-06	2.609478e-06	8.940474e-10	1.815886e+01	6.212711e+01
2.430000e-06	2.650212e-06	9.078928e-10	1.844232e+01	6.299897e+01
2.440000e-06	2.690657e-06	9.193055e-10	1.872377e+01	6.385106e+01
2.450000e-06	2.730823e-06	9.301418e-10	1.900328e+01	6.468372e+01
2.460000e-06	2.770844e-06	9.412059e-10	1.928178e+01	6.549733e+01
2.470000e-06	2.810662e-06	9.506524e-10	1.955886e+01	6.629224e+01
2.480000e-06	2.850376e-06	9.593331e-10	1.983523e+01	6.706883e+01
2.490000e-06	2.890028e-06	9.689093e-10	2.011115e+01	6.782749e+01
2.500000e-06	2.929517e-06	9.782191e-10	2.038595e+01	6.856860e+01
2.510000e-06	2.968872e-06	9.888361e-10	2.065981e+01	6.929255e+01
2.520000e-06	3.008063e-06	1.002528e-09	2.093253e+01	6.999973e+01
2.530000e-06	3.047009e-06	1.016642e-09	2.120355e+01	7.069052e+01
2.540000e-06	3.085776e-06	1.027586e-09	2.147332e+01	7.136530e+01
2.550000e-06	3.124404e-06	1.034974e-09	2.174213e+01	7.202447e+01
2.560000e-06	3.162821e-06	1.042391e-09	2.200947e+01	7.266840e+01
2.570000e-06	3.200908e-06	1.048648e-09	2.227451e+01	7.329746e+01
2.580000e-06	3.238763e-06	1.056492e-09	2.253793e+01	7.391201e+01
2.590000e-06	3.276467e-06	1.067257e-09	2.280031e+01	7.451243e+01
2.600000e-06	3.313969e-06	1.078942e-09	2.306128e+01	7.509906e+01
2.610000e-06	3.351314e-06	1.089025e-09	2.332116e+01	7.567224e+01
2.620000e-06	3.388394e-06	1.097458e-09	2.357919e+01	7.623233e+01
2.630000e-06	3.425172e-06	1.102851e-09	2.383512e+01	7.677964e+01
2.640000e-06	3.461653e-06	1.107449e-09	2.408898e+01	7.731450e+01
2.650000e-06	3.497853e-06	1.115409e-09	2.434089e+01	7.783723e+01
2.660000e-06	3.533831e-06	1.124959e-09	2.459126e+01	7.834814e+01
2.670000e-06	3.569603e-06	1.132394e-09	2.484019e+01	7.884751e+01
2.680000e-06	3.605277e-06	1.139840e-09	2.508844e+01	7.933565e+01
2.690000e-06	3.640817e-06	1.144823e-09	2.533575e+01	7.981282e+01
2.700000e-06	3.676182e-06	1.147428e-09	2.558185e+01	8.027932e+01
2.710000e-06	3.711403e-06	1.152649e-09	2.582695e+01	8.073540e+01
2.720000e-06	3.746342e-06	1.160935e-09	2.607008e+01	8.118131e+01
2.730000e-06	3.780929e-06	1.169917e-09	2.631077e+01	8.161733e+01
2.740000e-06	3.815162e-06	1.179079e-09	2.654898e+01	8.204368e+01
2.750000e-06	3.848987e-06	1.187423e-09	2.678437e+01	8.246060e+01
2.760000e-06	3.882279e-06	1.193503e-09	2.701604e+01	8.286832e+01
2.770000e-06	3.915077e-06	1.197777e-09	2.724428e+01	8.326708e+01
2.780000e-06	3.947440e-06	1.201946e-09	2.746948e+01	8.365707e+01
2.790000e-06	3.979418e-06	1.206463e-09	2.769201e+01	8.403851e+01
2.800000e-06	4.011188e-06	1.211842e-09	2.791309e+01	8.441160e+01
2.810000e-06	4.042815e-06	1.218392e-09	2.813318e+01	8.477654e+01
2.820000e-06	4.074345e-06	1.224591e-09	2.835259e+01	8.513352e+01
2.830000e-06	4.105807e-06	1.230352e-09	2.857152e+01	8.548271e+01
2.840000e-06	4.137059e-06	1.235869e-09	2.878900e+01	8.582430e+01
2.850000e-06	4.167937e-06	1.239385e-09	2.900388e+01	8.615846e+01
2.860000e-06	4.198494e-06	1.241299e-09	2.921652e+01	8.648534e+01
2.870000e-06	4.228674e-06	1.244400e-09	2.942654e+01	8.680511e+01
2.880000e-06	4.258458e-06	1.247207e-09	2.963380e+01	8.711791e+01
2.890000e-06	4.288014e-06	1.250189e-09	2.983947e+01	8.742389e+01
2.900000e-06	4.317333e-06	1.254294e-09	3.004350e+01	8.772318e+01
