# Temperatura_=_-46.31
# Concentracion g/m^3_=_1620.0
# C_Vs_to_Am_M_A/Vsm_=_65563218390.804596
# pendiente_HvsI_1/m_=_3716.3
# ordenada_HvsI_A/m_=_1297.0
# frecuencia_Hz_=_135104.04334037687

Tiempo_(s)	Campo_(V.s)	Magnetizacion_(V.s)	Campo_(kA/m)	Magnetizacion_(A/m)
0.000000e+00	-5.518395e-06	-8.809822e-10	-3.836132e+01	-5.688316e+01
1.000000e-08	-5.518613e-06	-8.804619e-10	-3.836284e+01	-5.690385e+01
2.000000e-08	-5.518644e-06	-8.820451e-10	-3.836305e+01	-5.692090e+01
3.000000e-08	-5.518331e-06	-8.857892e-10	-3.836088e+01	-5.693417e+01
4.000000e-08	-5.517564e-06	-8.890496e-10	-3.835554e+01	-5.694353e+01
5.000000e-08	-5.516337e-06	-8.880333e-10	-3.834702e+01	-5.694887e+01
6.000000e-08	-5.514611e-06	-8.824744e-10	-3.833502e+01	-5.695008e+01
7.000000e-08	-5.512219e-06	-8.698221e-10	-3.831839e+01	-5.694710e+01
8.000000e-08	-5.509223e-06	-8.694949e-10	-3.829756e+01	-5.693988e+01
9.000000e-08	-5.505777e-06	-8.862245e-10	-3.827360e+01	-5.692839e+01
1.000000e-07	-5.501917e-06	-8.991446e-10	-3.824678e+01	-5.691264e+01
1.100000e-07	-5.497691e-06	-8.948383e-10	-3.821740e+01	-5.689264e+01
1.200000e-07	-5.493249e-06	-8.718980e-10	-3.818652e+01	-5.686845e+01
1.300000e-07	-5.488606e-06	-8.547123e-10	-3.815424e+01	-5.684013e+01
1.400000e-07	-5.483582e-06	-8.857355e-10	-3.811932e+01	-5.680779e+01
1.500000e-07	-5.478143e-06	-8.710613e-10	-3.808151e+01	-5.677154e+01
1.600000e-07	-5.472323e-06	-8.754394e-10	-3.804105e+01	-5.673153e+01
1.700000e-07	-5.466163e-06	-8.620370e-10	-3.799823e+01	-5.668792e+01
1.800000e-07	-5.459590e-06	-8.901891e-10	-3.795254e+01	-5.664090e+01
1.900000e-07	-5.452508e-06	-8.747976e-10	-3.790331e+01	-5.659068e+01
2.000000e-07	-5.445106e-06	-8.473112e-10	-3.785185e+01	-5.653748e+01
2.100000e-07	-5.437534e-06	-8.409804e-10	-3.779921e+01	-5.648155e+01
2.200000e-07	-5.429734e-06	-8.720079e-10	-3.774499e+01	-5.642313e+01
2.300000e-07	-5.421626e-06	-8.884128e-10	-3.768863e+01	-5.636250e+01
2.400000e-07	-5.413162e-06	-8.658280e-10	-3.762979e+01	-5.629994e+01
2.500000e-07	-5.404223e-06	-8.525909e-10	-3.756765e+01	-5.623574e+01
2.600000e-07	-5.394479e-06	-8.384989e-10	-3.749992e+01	-5.617020e+01
2.700000e-07	-5.383865e-06	-8.370507e-10	-3.742614e+01	-5.610361e+01
2.800000e-07	-5.372721e-06	-8.173032e-10	-3.734866e+01	-5.603628e+01
2.900000e-07	-5.361256e-06	-8.295777e-10	-3.726897e+01	-5.596851e+01
3.000000e-07	-5.349487e-06	-8.221504e-10	-3.718715e+01	-5.590059e+01
3.100000e-07	-5.337380e-06	-8.303173e-10	-3.710299e+01	-5.583282e+01
3.200000e-07	-5.324843e-06	-8.175368e-10	-3.701584e+01	-5.576549e+01
3.300000e-07	-5.311830e-06	-8.346876e-10	-3.692538e+01	-5.569886e+01
3.400000e-07	-5.298403e-06	-8.242201e-10	-3.683204e+01	-5.563320e+01
3.500000e-07	-5.284598e-06	-8.205921e-10	-3.673607e+01	-5.556876e+01
3.600000e-07	-5.270341e-06	-8.132617e-10	-3.663696e+01	-5.550577e+01
3.700000e-07	-5.255697e-06	-8.273005e-10	-3.653517e+01	-5.544443e+01
3.800000e-07	-5.240616e-06	-8.144554e-10	-3.643033e+01	-5.538495e+01
3.900000e-07	-5.224906e-06	-8.194878e-10	-3.632112e+01	-5.532749e+01
4.000000e-07	-5.208647e-06	-8.225979e-10	-3.620810e+01	-5.527219e+01
4.100000e-07	-5.191982e-06	-8.214051e-10	-3.609225e+01	-5.521918e+01
4.200000e-07	-5.175044e-06	-8.156426e-10	-3.597451e+01	-5.516856e+01
4.300000e-07	-5.157792e-06	-8.265216e-10	-3.585458e+01	-5.512038e+01
4.400000e-07	-5.140176e-06	-8.220352e-10	-3.573212e+01	-5.507471e+01
4.500000e-07	-5.122237e-06	-8.121592e-10	-3.560741e+01	-5.503154e+01
4.600000e-07	-5.103845e-06	-8.232746e-10	-3.547956e+01	-5.499087e+01
4.700000e-07	-5.084993e-06	-8.225114e-10	-3.534851e+01	-5.495265e+01
4.800000e-07	-5.065833e-06	-8.054247e-10	-3.521532e+01	-5.491682e+01
4.900000e-07	-5.046428e-06	-8.128097e-10	-3.508043e+01	-5.488329e+01
5.000000e-07	-5.026802e-06	-8.317457e-10	-3.494400e+01	-5.485192e+01
5.100000e-07	-5.007008e-06	-8.045351e-10	-3.480640e+01	-5.482259e+01
5.200000e-07	-4.986959e-06	-7.941202e-10	-3.466702e+01	-5.479511e+01
5.300000e-07	-4.966433e-06	-8.141918e-10	-3.452434e+01	-5.476930e+01
5.400000e-07	-4.945516e-06	-8.157509e-10	-3.437894e+01	-5.474494e+01
5.500000e-07	-4.924244e-06	-7.947979e-10	-3.423106e+01	-5.472180e+01
5.600000e-07	-4.902625e-06	-8.108864e-10	-3.408077e+01	-5.469963e+01
5.700000e-07	-4.880769e-06	-8.083093e-10	-3.392884e+01	-5.467816e+01
5.800000e-07	-4.858655e-06	-7.881632e-10	-3.377512e+01	-5.465712e+01
5.900000e-07	-4.836208e-06	-7.929040e-10	-3.361908e+01	-5.463622e+01
6.000000e-07	-4.813325e-06	-8.092842e-10	-3.346001e+01	-5.461516e+01
6.100000e-07	-4.790043e-06	-7.881737e-10	-3.329816e+01	-5.459364e+01
6.200000e-07	-4.766531e-06	-7.930546e-10	-3.313472e+01	-5.457134e+01
6.300000e-07	-4.742889e-06	-8.083425e-10	-3.297036e+01	-5.454795e+01
6.400000e-07	-4.719023e-06	-7.990842e-10	-3.280446e+01	-5.452317e+01
6.500000e-07	-4.694865e-06	-7.875797e-10	-3.263652e+01	-5.449669e+01
6.600000e-07	-4.670252e-06	-8.027122e-10	-3.246542e+01	-5.446820e+01
6.700000e-07	-4.645173e-06	-7.917303e-10	-3.229108e+01	-5.443741e+01
6.800000e-07	-4.619649e-06	-7.796178e-10	-3.211366e+01	-5.440403e+01
6.900000e-07	-4.593564e-06	-7.906043e-10	-3.193233e+01	-5.436780e+01
7.000000e-07	-4.566958e-06	-7.932776e-10	-3.174737e+01	-5.432845e+01
7.100000e-07	-4.539933e-06	-7.775451e-10	-3.155951e+01	-5.428573e+01
7.200000e-07	-4.512605e-06	-7.816401e-10	-3.136954e+01	-5.423942e+01
7.300000e-07	-4.485034e-06	-7.866545e-10	-3.117788e+01	-5.418930e+01
7.400000e-07	-4.457257e-06	-7.791236e-10	-3.098478e+01	-5.413519e+01
7.500000e-07	-4.429269e-06	-7.791576e-10	-3.079022e+01	-5.407692e+01
7.600000e-07	-4.401010e-06	-7.832188e-10	-3.059378e+01	-5.401432e+01
7.700000e-07	-4.372432e-06	-7.746745e-10	-3.039512e+01	-5.394729e+01
7.800000e-07	-4.343575e-06	-7.654819e-10	-3.019452e+01	-5.387570e+01
7.900000e-07	-4.314430e-06	-7.680535e-10	-2.999192e+01	-5.379949e+01
8.000000e-07	-4.284954e-06	-7.645005e-10	-2.978701e+01	-5.371858e+01
8.100000e-07	-4.255189e-06	-7.598369e-10	-2.958010e+01	-5.363293e+01
8.200000e-07	-4.225137e-06	-7.592772e-10	-2.937120e+01	-5.354254e+01
8.300000e-07	-4.194800e-06	-7.608686e-10	-2.916030e+01	-5.344740e+01
8.400000e-07	-4.164196e-06	-7.565151e-10	-2.894756e+01	-5.334755e+01
8.500000e-07	-4.133282e-06	-7.591607e-10	-2.873266e+01	-5.324302e+01
8.600000e-07	-4.102016e-06	-7.597001e-10	-2.851531e+01	-5.313387e+01
8.700000e-07	-4.070518e-06	-7.582607e-10	-2.829636e+01	-5.302019e+01
8.800000e-07	-4.038871e-06	-7.540003e-10	-2.807636e+01	-5.290207e+01
8.900000e-07	-4.007083e-06	-7.549940e-10	-2.785538e+01	-5.277962e+01
9.000000e-07	-3.975123e-06	-7.488527e-10	-2.763321e+01	-5.265296e+01
9.100000e-07	-3.942876e-06	-7.412338e-10	-2.740905e+01	-5.252222e+01
9.200000e-07	-3.910323e-06	-7.383863e-10	-2.718275e+01	-5.238755e+01
9.300000e-07	-3.877464e-06	-7.404201e-10	-2.695433e+01	-5.224908e+01
9.400000e-07	-3.844103e-06	-7.398671e-10	-2.672242e+01	-5.210697e+01
9.500000e-07	-3.810164e-06	-7.420887e-10	-2.648649e+01	-5.196137e+01
9.600000e-07	-3.775806e-06	-7.444928e-10	-2.624765e+01	-5.181244e+01
9.700000e-07	-3.741042e-06	-7.415858e-10	-2.600599e+01	-5.166033e+01
9.800000e-07	-3.705903e-06	-7.340828e-10	-2.576172e+01	-5.150520e+01
9.900000e-07	-3.670587e-06	-7.325298e-10	-2.551622e+01	-5.134718e+01
1.000000e-06	-3.635149e-06	-7.294033e-10	-2.526987e+01	-5.118641e+01
1.010000e-06	-3.599513e-06	-7.289270e-10	-2.502214e+01	-5.102303e+01
1.020000e-06	-3.563636e-06	-7.342443e-10	-2.477275e+01	-5.085715e+01
1.030000e-06	-3.527614e-06	-7.363487e-10	-2.452234e+01	-5.068889e+01
1.040000e-06	-3.491397e-06	-7.316414e-10	-2.427057e+01	-5.051833e+01
1.050000e-06	-3.454951e-06	-7.294151e-10	-2.401721e+01	-5.034556e+01
1.060000e-06	-3.418281e-06	-7.274564e-10	-2.376230e+01	-5.017064e+01
1.070000e-06	-3.381361e-06	-7.204455e-10	-2.350565e+01	-4.999362e+01
1.080000e-06	-3.344197e-06	-7.148971e-10	-2.324730e+01	-4.981453e+01
1.090000e-06	-3.306766e-06	-7.140656e-10	-2.298710e+01	-4.963339e+01
1.100000e-06	-3.269098e-06	-7.123354e-10	-2.272525e+01	-4.945019e+01
1.110000e-06	-3.231157e-06	-7.093609e-10	-2.246151e+01	-4.926490e+01
1.120000e-06	-3.193006e-06	-7.108376e-10	-2.219629e+01	-4.907750e+01
1.130000e-06	-3.154701e-06	-7.103294e-10	-2.193002e+01	-4.888790e+01
1.140000e-06	-3.116227e-06	-7.084363e-10	-2.166257e+01	-4.869605e+01
1.150000e-06	-3.077501e-06	-7.057612e-10	-2.139336e+01	-4.850183e+01
1.160000e-06	-3.038498e-06	-7.045536e-10	-2.112223e+01	-4.830514e+01
1.170000e-06	-2.999350e-06	-7.009935e-10	-2.085009e+01	-4.810584e+01
1.180000e-06	-2.960076e-06	-6.976741e-10	-2.057708e+01	-4.790379e+01
1.190000e-06	-2.920564e-06	-6.950901e-10	-2.030240e+01	-4.769883e+01
1.200000e-06	-2.880845e-06	-6.910978e-10	-2.002630e+01	-4.749077e+01
1.210000e-06	-2.841028e-06	-6.841561e-10	-1.974951e+01	-4.727943e+01
1.220000e-06	-2.801106e-06	-6.789398e-10	-1.947199e+01	-4.706461e+01
1.230000e-06	-2.761063e-06	-6.762260e-10	-1.919363e+01	-4.684609e+01
1.240000e-06	-2.720823e-06	-6.738413e-10	-1.891390e+01	-4.662365e+01
1.250000e-06	-2.680360e-06	-6.717870e-10	-1.863262e+01	-4.639707e+01
1.260000e-06	-2.639707e-06	-6.714700e-10	-1.835002e+01	-4.616610e+01
1.270000e-06	-2.598824e-06	-6.666761e-10	-1.806582e+01	-4.593051e+01
1.280000e-06	-2.557692e-06	-6.607165e-10	-1.777989e+01	-4.569006e+01
1.290000e-06	-2.516322e-06	-6.558088e-10	-1.749230e+01	-4.544449e+01
1.300000e-06	-2.474664e-06	-6.497925e-10	-1.720272e+01	-4.519356e+01
1.310000e-06	-2.432679e-06	-6.411250e-10	-1.691085e+01	-4.493702e+01
1.320000e-06	-2.390404e-06	-6.351789e-10	-1.661698e+01	-4.467462e+01
1.330000e-06	-2.347843e-06	-6.316380e-10	-1.632112e+01	-4.440613e+01
1.340000e-06	-2.305036e-06	-6.281318e-10	-1.602354e+01	-4.413130e+01
1.350000e-06	-2.262022e-06	-6.264232e-10	-1.572453e+01	-4.384990e+01
1.360000e-06	-2.218753e-06	-6.256530e-10	-1.542374e+01	-4.356171e+01
1.370000e-06	-2.175265e-06	-6.216871e-10	-1.512143e+01	-4.326649e+01
1.380000e-06	-2.131659e-06	-6.148133e-10	-1.481830e+01	-4.296404e+01
1.390000e-06	-2.087985e-06	-6.070761e-10	-1.451470e+01	-4.265415e+01
1.400000e-06	-2.044267e-06	-5.974039e-10	-1.421080e+01	-4.233663e+01
1.410000e-06	-2.000476e-06	-5.882973e-10	-1.390638e+01	-4.201129e+01
1.420000e-06	-1.956605e-06	-5.823653e-10	-1.360141e+01	-4.167795e+01
1.430000e-06	-1.912660e-06	-5.805808e-10	-1.329592e+01	-4.133645e+01
1.440000e-06	-1.868590e-06	-5.800911e-10	-1.298957e+01	-4.098662e+01
1.450000e-06	-1.824406e-06	-5.790674e-10	-1.268243e+01	-4.062831e+01
1.460000e-06	-1.780196e-06	-5.746729e-10	-1.237509e+01	-4.026140e+01
1.470000e-06	-1.735932e-06	-5.656334e-10	-1.206739e+01	-3.988575e+01
1.480000e-06	-1.691496e-06	-5.543486e-10	-1.175850e+01	-3.950124e+01
1.490000e-06	-1.646863e-06	-5.452678e-10	-1.144823e+01	-3.910776e+01
1.500000e-06	-1.602095e-06	-5.384483e-10	-1.113702e+01	-3.870521e+01
1.510000e-06	-1.557123e-06	-5.343660e-10	-1.082440e+01	-3.829349e+01
1.520000e-06	-1.512055e-06	-5.307896e-10	-1.051110e+01	-3.787253e+01
1.530000e-06	-1.466870e-06	-5.260840e-10	-1.019700e+01	-3.744224e+01
1.540000e-06	-1.421487e-06	-5.208242e-10	-9.881521e+00	-3.700255e+01
1.550000e-06	-1.376073e-06	-5.153339e-10	-9.565823e+00	-3.655339e+01
1.560000e-06	-1.330621e-06	-5.065181e-10	-9.249858e+00	-3.609470e+01
1.570000e-06	-1.285076e-06	-4.967607e-10	-8.933254e+00	-3.562643e+01
1.580000e-06	-1.239416e-06	-4.882846e-10	-8.615844e+00	-3.514853e+01
1.590000e-06	-1.193625e-06	-4.801858e-10	-8.297524e+00	-3.466094e+01
1.600000e-06	-1.147780e-06	-4.727529e-10	-7.978835e+00	-3.416362e+01
1.610000e-06	-1.101884e-06	-4.671817e-10	-7.659783e+00	-3.365654e+01
1.620000e-06	-1.055872e-06	-4.595201e-10	-7.339933e+00	-3.313965e+01
1.630000e-06	-1.009835e-06	-4.503626e-10	-7.019905e+00	-3.261291e+01
1.640000e-06	-9.637840e-07	-4.432102e-10	-6.699780e+00	-3.207629e+01
1.650000e-06	-9.176357e-07	-4.353244e-10	-6.378978e+00	-3.152975e+01
1.660000e-06	-8.712832e-07	-4.254641e-10	-6.056757e+00	-3.097327e+01
1.670000e-06	-8.248428e-07	-4.164993e-10	-5.733924e+00	-3.040682e+01
1.680000e-06	-7.784391e-07	-4.090309e-10	-5.411347e+00	-2.983036e+01
1.690000e-06	-7.320820e-07	-4.010126e-10	-5.089094e+00	-2.924387e+01
1.700000e-06	-6.857492e-07	-3.922363e-10	-4.767010e+00	-2.864732e+01
1.710000e-06	-6.393248e-07	-3.826864e-10	-4.444289e+00	-2.804069e+01
1.720000e-06	-5.928381e-07	-3.740127e-10	-4.121136e+00	-2.742397e+01
1.730000e-06	-5.462563e-07	-3.652527e-10	-3.797320e+00	-2.679714e+01
1.740000e-06	-4.995963e-07	-3.562775e-10	-3.472962e+00	-2.616019e+01
1.750000e-06	-4.529537e-07	-3.472192e-10	-3.148724e+00	-2.551311e+01
1.760000e-06	-4.062965e-07	-3.391307e-10	-2.824385e+00	-2.485590e+01
1.770000e-06	-3.596096e-07	-3.321524e-10	-2.499839e+00	-2.418857e+01
1.780000e-06	-3.128772e-07	-3.244369e-10	-2.174977e+00	-2.351113e+01
1.790000e-06	-2.660714e-07	-3.154102e-10	-1.849605e+00	-2.282361e+01
1.800000e-06	-2.192024e-07	-3.045883e-10	-1.523794e+00	-2.212603e+01
1.810000e-06	-1.723580e-07	-2.912183e-10	-1.198153e+00	-2.141843e+01
1.820000e-06	-1.255950e-07	-2.777399e-10	-8.730784e-01	-2.070087e+01
1.830000e-06	-7.880766e-08	-2.652504e-10	-5.478343e-01	-1.997341e+01
1.840000e-06	-3.191494e-08	-2.533323e-10	-2.218579e-01	-1.923613e+01
1.850000e-06	1.498849e-08	-2.433768e-10	1.041930e-01	-1.848912e+01
1.860000e-06	6.185214e-08	-2.356218e-10	4.299674e-01	-1.773249e+01
1.870000e-06	1.087020e-07	-2.245352e-10	7.556456e-01	-1.696636e+01
1.880000e-06	1.554938e-07	-2.099477e-10	1.080921e+00	-1.619087e+01
1.890000e-06	2.022273e-07	-1.950446e-10	1.405790e+00	-1.540617e+01
1.900000e-06	2.489032e-07	-1.817402e-10	1.730260e+00	-1.461246e+01
1.910000e-06	2.955636e-07	-1.714077e-10	2.054621e+00	-1.380991e+01
1.920000e-06	3.422453e-07	-1.622704e-10	2.379130e+00	-1.299874e+01
1.930000e-06	3.890051e-07	-1.510156e-10	2.704183e+00	-1.217920e+01
1.940000e-06	4.357369e-07	-1.384347e-10	3.029041e+00	-1.135153e+01
1.950000e-06	4.823613e-07	-1.262827e-10	3.353152e+00	-1.051601e+01
1.960000e-06	5.289396e-07	-1.138248e-10	3.676943e+00	-9.672947e+00
1.970000e-06	5.754249e-07	-1.017872e-10	4.000087e+00	-8.822651e+00
1.980000e-06	6.218389e-07	-9.073137e-11	4.322736e+00	-7.965464e+00
1.990000e-06	6.682643e-07	-8.003637e-11	4.645463e+00	-7.101747e+00
2.000000e-06	7.146808e-07	-6.914143e-11	4.968129e+00	-6.231882e+00
2.010000e-06	7.610249e-07	-5.522204e-11	5.290292e+00	-5.356269e+00
2.020000e-06	8.073602e-07	-4.191394e-11	5.612393e+00	-4.475329e+00
2.030000e-06	8.536269e-07	-2.815940e-11	5.934018e+00	-3.589502e+00
2.040000e-06	8.998093e-07	-1.220440e-11	6.255057e+00	-2.699245e+00
2.050000e-06	9.459299e-07	2.624582e-13	6.575666e+00	-1.805032e+00
2.060000e-06	9.919788e-07	1.110389e-11	6.895776e+00	-9.073533e-01
2.070000e-06	1.037916e-06	2.144857e-11	7.215108e+00	-6.713755e-03
2.080000e-06	1.083776e-06	3.269631e-11	7.533907e+00	8.963682e-01
2.090000e-06	1.129638e-06	4.464859e-11	7.852716e+00	1.801362e+00
2.100000e-06	1.175404e-06	6.019394e-11	8.170861e+00	2.707727e+00
2.110000e-06	1.221043e-06	7.603198e-11	8.488128e+00	3.614912e+00
2.120000e-06	1.266553e-06	9.051612e-11	8.804486e+00	4.522360e+00
2.130000e-06	1.311964e-06	1.032548e-10	9.120164e+00	5.429507e+00
2.140000e-06	1.357293e-06	1.142343e-10	9.435271e+00	6.335784e+00
2.150000e-06	1.402525e-06	1.242557e-10	9.749702e+00	7.240622e+00
2.160000e-06	1.447667e-06	1.334139e-10	1.006351e+01	8.143450e+00
2.170000e-06	1.492756e-06	1.444835e-10	1.037695e+01	9.043697e+00
2.180000e-06	1.537700e-06	1.565523e-10	1.068938e+01	9.940795e+00
2.190000e-06	1.582526e-06	1.703830e-10	1.100098e+01	1.083418e+01
2.200000e-06	1.627273e-06	1.871402e-10	1.131205e+01	1.172330e+01
2.210000e-06	1.671862e-06	2.017603e-10	1.162201e+01	1.260761e+01
2.220000e-06	1.716332e-06	2.124761e-10	1.193114e+01	1.348656e+01
2.230000e-06	1.760591e-06	2.204235e-10	1.223881e+01	1.435963e+01
2.240000e-06	1.804712e-06	2.286150e-10	1.254552e+01	1.522631e+01
2.250000e-06	1.848820e-06	2.384968e-10	1.285214e+01	1.608610e+01
2.260000e-06	1.892863e-06	2.514334e-10	1.315831e+01	1.693850e+01
2.270000e-06	1.936855e-06	2.654503e-10	1.346412e+01	1.778307e+01
2.280000e-06	1.980750e-06	2.768336e-10	1.376926e+01	1.861934e+01
2.290000e-06	2.024508e-06	2.872069e-10	1.407344e+01	1.944690e+01
2.300000e-06	2.068211e-06	2.969082e-10	1.437725e+01	2.026534e+01
2.310000e-06	2.111892e-06	3.045347e-10	1.468090e+01	2.107427e+01
2.320000e-06	2.155484e-06	3.120479e-10	1.498392e+01	2.187334e+01
2.330000e-06	2.198965e-06	3.236450e-10	1.528619e+01	2.266220e+01
2.340000e-06	2.242372e-06	3.374964e-10	1.558793e+01	2.344055e+01
2.350000e-06	2.285642e-06	3.510127e-10	1.588873e+01	2.420809e+01
2.360000e-06	2.328603e-06	3.626590e-10	1.618737e+01	2.496456e+01
2.370000e-06	2.371213e-06	3.722416e-10	1.648358e+01	2.570973e+01
2.380000e-06	2.413561e-06	3.785311e-10	1.677795e+01	2.644338e+01
2.390000e-06	2.455713e-06	3.864588e-10	1.707098e+01	2.716534e+01
2.400000e-06	2.497545e-06	3.966579e-10	1.736177e+01	2.787543e+01
2.410000e-06	2.538986e-06	4.082885e-10	1.764985e+01	2.857353e+01
2.420000e-06	2.580233e-06	4.219914e-10	1.793658e+01	2.925953e+01
2.430000e-06	2.621251e-06	4.354097e-10	1.822172e+01	2.993335e+01
2.440000e-06	2.661964e-06	4.455698e-10	1.850474e+01	3.059492e+01
2.450000e-06	2.702436e-06	4.515515e-10	1.878608e+01	3.124421e+01
2.460000e-06	2.742716e-06	4.564395e-10	1.906609e+01	3.188122e+01
2.470000e-06	2.782813e-06	4.632835e-10	1.934483e+01	3.250595e+01
2.480000e-06	2.822726e-06	4.717118e-10	1.962228e+01	3.311844e+01
2.490000e-06	2.862511e-06	4.809268e-10	1.989885e+01	3.371873e+01
2.500000e-06	2.902202e-06	4.910819e-10	2.017476e+01	3.430691e+01
2.510000e-06	2.941795e-06	5.027310e-10	2.044999e+01	3.488306e+01
2.520000e-06	2.981288e-06	5.142824e-10	2.072453e+01	3.544730e+01
2.530000e-06	3.020596e-06	5.233114e-10	2.099778e+01	3.599975e+01
2.540000e-06	3.059574e-06	5.295171e-10	2.126874e+01	3.654055e+01
2.550000e-06	3.098309e-06	5.356827e-10	2.153801e+01	3.706986e+01
2.560000e-06	3.136796e-06	5.405378e-10	2.180555e+01	3.758785e+01
2.570000e-06	3.175006e-06	5.448522e-10	2.207117e+01	3.809468e+01
2.580000e-06	3.213024e-06	5.542743e-10	2.233545e+01	3.859056e+01
2.590000e-06	3.250878e-06	5.671070e-10	2.259860e+01	3.907568e+01
2.600000e-06	3.288549e-06	5.788562e-10	2.286047e+01	3.955024e+01
2.610000e-06	3.325986e-06	5.883622e-10	2.312071e+01	4.001446e+01
2.620000e-06	3.363237e-06	5.955648e-10	2.337966e+01	4.046855e+01
2.630000e-06	3.400238e-06	6.005677e-10	2.363688e+01	4.091273e+01
2.640000e-06	3.436921e-06	6.039001e-10	2.389188e+01	4.134722e+01
2.650000e-06	3.473304e-06	6.078339e-10	2.414480e+01	4.177223e+01
2.660000e-06	3.509436e-06	6.159793e-10	2.439597e+01	4.218801e+01
2.670000e-06	3.545427e-06	6.244298e-10	2.464616e+01	4.259475e+01
2.680000e-06	3.581277e-06	6.314130e-10	2.489538e+01	4.299268e+01
2.690000e-06	3.616978e-06	6.356484e-10	2.514355e+01	4.338202e+01
2.700000e-06	3.652603e-06	6.362695e-10	2.539120e+01	4.376297e+01
2.710000e-06	3.688087e-06	6.390048e-10	2.563787e+01	4.413573e+01
2.720000e-06	3.723344e-06	6.470874e-10	2.588296e+01	4.450050e+01
2.730000e-06	3.758300e-06	6.558340e-10	2.612596e+01	4.485747e+01
2.740000e-06	3.792879e-06	6.625995e-10	2.636634e+01	4.520683e+01
2.750000e-06	3.827048e-06	6.665979e-10	2.660386e+01	4.554874e+01
2.760000e-06	3.860695e-06	6.682495e-10	2.683776e+01	4.588338e+01
2.770000e-06	3.893815e-06	6.687975e-10	2.706800e+01	4.621089e+01
2.780000e-06	3.926473e-06	6.688838e-10	2.729502e+01	4.653142e+01
2.790000e-06	3.958715e-06	6.725899e-10	2.751915e+01	4.684511e+01
2.800000e-06	3.990717e-06	6.790951e-10	2.774161e+01	4.715207e+01
2.810000e-06	4.022632e-06	6.862873e-10	2.796347e+01	4.745244e+01
2.820000e-06	4.054449e-06	6.937212e-10	2.818465e+01	4.774630e+01
2.830000e-06	4.086127e-06	7.000601e-10	2.840486e+01	4.803376e+01
2.840000e-06	4.117589e-06	7.039895e-10	2.862357e+01	4.831490e+01
2.850000e-06	4.148761e-06	7.043717e-10	2.884026e+01	4.858980e+01
2.860000e-06	4.179631e-06	7.027516e-10	2.905485e+01	4.885851e+01
2.870000e-06	4.210117e-06	7.017368e-10	2.926678e+01	4.912110e+01
2.880000e-06	4.240266e-06	7.018776e-10	2.947636e+01	4.937762e+01
2.890000e-06	4.270102e-06	7.038467e-10	2.968377e+01	4.962810e+01
2.900000e-06	4.299663e-06	7.087065e-10	2.988926e+01	4.987258e+01
