# Temperatura_=_-3.0
# Concentracion g/m^3_=_1620.0
# C_Vs_to_Am_M_A/Vsm_=_65563218390.804596
# pendiente_HvsI_1/m_=_3716.3
# ordenada_HvsI_A/m_=_1297.0
# frecuencia_Hz_=_135101.80886434743

Tiempo_(s)	Campo_(V.s)	Magnetizacion_(V.s)	Campo_(kA/m)	Magnetizacion_(A/m)
0.000000e+00	-5.499539e-06	-9.931170e-10	-3.836223e+01	-6.448464e+01
1.000000e-08	-5.499811e-06	-9.906081e-10	-3.836413e+01	-6.443033e+01
2.000000e-08	-5.499904e-06	-9.865145e-10	-3.836478e+01	-6.437462e+01
3.000000e-08	-5.499661e-06	-9.847888e-10	-3.836308e+01	-6.431754e+01
4.000000e-08	-5.498872e-06	-9.862173e-10	-3.835758e+01	-6.425915e+01
5.000000e-08	-5.497411e-06	-9.863611e-10	-3.834739e+01	-6.419946e+01
6.000000e-08	-5.495308e-06	-9.828309e-10	-3.833272e+01	-6.413854e+01
7.000000e-08	-5.492677e-06	-9.786096e-10	-3.831437e+01	-6.407641e+01
8.000000e-08	-5.489601e-06	-1.015229e-09	-3.829291e+01	-6.401314e+01
9.000000e-08	-5.486058e-06	-1.060902e-09	-3.826820e+01	-6.394876e+01
1.000000e-07	-5.482091e-06	-9.896952e-10	-3.824052e+01	-6.388334e+01
1.100000e-07	-5.477889e-06	-8.720247e-10	-3.821122e+01	-6.381692e+01
1.200000e-07	-5.473491e-06	-9.719529e-10	-3.818054e+01	-6.374955e+01
1.300000e-07	-5.468739e-06	-1.064430e-09	-3.814739e+01	-6.368130e+01
1.400000e-07	-5.463552e-06	-1.042074e-09	-3.811121e+01	-6.361221e+01
1.500000e-07	-5.457974e-06	-8.836422e-10	-3.807230e+01	-6.354233e+01
1.600000e-07	-5.452140e-06	-9.695279e-10	-3.803160e+01	-6.347172e+01
1.700000e-07	-5.445864e-06	-1.100905e-09	-3.798782e+01	-6.340043e+01
1.800000e-07	-5.438955e-06	-1.027065e-09	-3.793963e+01	-6.332849e+01
1.900000e-07	-5.431750e-06	-8.759992e-10	-3.788937e+01	-6.325597e+01
2.000000e-07	-5.424453e-06	-8.883471e-10	-3.783847e+01	-6.318288e+01
2.100000e-07	-5.416873e-06	-1.029724e-09	-3.778560e+01	-6.310928e+01
2.200000e-07	-5.408903e-06	-1.015488e-09	-3.773000e+01	-6.303518e+01
2.300000e-07	-5.400678e-06	-9.416382e-10	-3.767263e+01	-6.296061e+01
2.400000e-07	-5.392090e-06	-9.106997e-10	-3.761272e+01	-6.288560e+01
2.500000e-07	-5.382768e-06	-9.741949e-10	-3.754770e+01	-6.281014e+01
2.600000e-07	-5.372664e-06	-9.325692e-10	-3.747721e+01	-6.273425e+01
2.700000e-07	-5.361966e-06	-9.138991e-10	-3.740259e+01	-6.265792e+01
2.800000e-07	-5.350796e-06	-9.113968e-10	-3.732468e+01	-6.258115e+01
2.900000e-07	-5.339276e-06	-9.625003e-10	-3.724432e+01	-6.250391e+01
3.000000e-07	-5.327500e-06	-9.335318e-10	-3.716217e+01	-6.242618e+01
3.100000e-07	-5.315363e-06	-9.251611e-10	-3.707751e+01	-6.234793e+01
3.200000e-07	-5.302662e-06	-9.070231e-10	-3.698892e+01	-6.226912e+01
3.300000e-07	-5.289485e-06	-9.385594e-10	-3.689700e+01	-6.218969e+01
3.400000e-07	-5.276041e-06	-9.265639e-10	-3.680321e+01	-6.210959e+01
3.500000e-07	-5.262286e-06	-8.954448e-10	-3.670727e+01	-6.202875e+01
3.600000e-07	-5.248023e-06	-8.918927e-10	-3.660778e+01	-6.194712e+01
3.700000e-07	-5.233374e-06	-9.487253e-10	-3.650559e+01	-6.186460e+01
3.800000e-07	-5.218288e-06	-9.204989e-10	-3.640036e+01	-6.178113e+01
3.900000e-07	-5.202494e-06	-8.825428e-10	-3.629018e+01	-6.169660e+01
4.000000e-07	-5.186238e-06	-9.327514e-10	-3.617680e+01	-6.161093e+01
4.100000e-07	-5.169692e-06	-9.378249e-10	-3.606138e+01	-6.152402e+01
4.200000e-07	-5.152755e-06	-8.590456e-10	-3.594323e+01	-6.143578e+01
4.300000e-07	-5.135428e-06	-8.904044e-10	-3.582237e+01	-6.134609e+01
4.400000e-07	-5.117907e-06	-9.816463e-10	-3.570015e+01	-6.125485e+01
4.500000e-07	-5.100029e-06	-8.872011e-10	-3.557544e+01	-6.116197e+01
4.600000e-07	-5.081509e-06	-8.398001e-10	-3.544625e+01	-6.106733e+01
4.700000e-07	-5.062674e-06	-9.344667e-10	-3.531487e+01	-6.097083e+01
4.800000e-07	-5.043651e-06	-9.343416e-10	-3.518217e+01	-6.087237e+01
4.900000e-07	-5.024269e-06	-8.267768e-10	-3.504697e+01	-6.077184e+01
5.000000e-07	-5.004641e-06	-9.017485e-10	-3.491006e+01	-6.066915e+01
5.100000e-07	-4.984869e-06	-9.330626e-10	-3.477214e+01	-6.056421e+01
5.200000e-07	-4.964813e-06	-8.420749e-10	-3.463224e+01	-6.045692e+01
5.300000e-07	-4.944401e-06	-8.616695e-10	-3.448985e+01	-6.034720e+01
5.400000e-07	-4.923681e-06	-9.594699e-10	-3.434532e+01	-6.023498e+01
5.500000e-07	-4.902605e-06	-8.562019e-10	-3.419830e+01	-6.012018e+01
5.600000e-07	-4.881176e-06	-8.190981e-10	-3.404882e+01	-6.000273e+01
5.700000e-07	-4.859386e-06	-9.206039e-10	-3.389682e+01	-5.988258e+01
5.800000e-07	-4.837242e-06	-9.070946e-10	-3.374236e+01	-5.975968e+01
5.900000e-07	-4.814730e-06	-8.187767e-10	-3.358533e+01	-5.963398e+01
6.000000e-07	-4.791850e-06	-8.922306e-10	-3.342573e+01	-5.950545e+01
6.100000e-07	-4.768589e-06	-9.119560e-10	-3.326347e+01	-5.937406e+01
6.200000e-07	-4.745042e-06	-8.334794e-10	-3.309921e+01	-5.923978e+01
6.300000e-07	-4.721353e-06	-8.522630e-10	-3.293397e+01	-5.910261e+01
6.400000e-07	-4.697524e-06	-9.040352e-10	-3.276775e+01	-5.896254e+01
6.500000e-07	-4.673394e-06	-8.492706e-10	-3.259943e+01	-5.881957e+01
6.600000e-07	-4.648869e-06	-8.441659e-10	-3.242836e+01	-5.867370e+01
6.700000e-07	-4.623855e-06	-8.899296e-10	-3.225387e+01	-5.852495e+01
6.800000e-07	-4.598151e-06	-8.571642e-10	-3.207457e+01	-5.837333e+01
6.900000e-07	-4.571849e-06	-8.326163e-10	-3.189110e+01	-5.821887e+01
7.000000e-07	-4.545097e-06	-8.688909e-10	-3.170449e+01	-5.806159e+01
7.100000e-07	-4.517947e-06	-8.617219e-10	-3.151511e+01	-5.790153e+01
7.200000e-07	-4.490570e-06	-8.288782e-10	-3.132414e+01	-5.773870e+01
7.300000e-07	-4.463046e-06	-8.553175e-10	-3.113214e+01	-5.757315e+01
7.400000e-07	-4.435330e-06	-8.609829e-10	-3.093880e+01	-5.740490e+01
7.500000e-07	-4.407454e-06	-8.352763e-10	-3.074436e+01	-5.723400e+01
7.600000e-07	-4.379383e-06	-8.335788e-10	-3.054854e+01	-5.706046e+01
7.700000e-07	-4.351032e-06	-8.460901e-10	-3.035079e+01	-5.688432e+01
7.800000e-07	-4.322242e-06	-8.228439e-10	-3.014996e+01	-5.670561e+01
7.900000e-07	-4.292994e-06	-8.263320e-10	-2.994593e+01	-5.652435e+01
8.000000e-07	-4.263467e-06	-8.364647e-10	-2.973997e+01	-5.634056e+01
8.100000e-07	-4.233774e-06	-8.239701e-10	-2.953285e+01	-5.615426e+01
8.200000e-07	-4.203871e-06	-8.063045e-10	-2.932425e+01	-5.596545e+01
8.300000e-07	-4.173750e-06	-8.195251e-10	-2.911415e+01	-5.577413e+01
8.400000e-07	-4.143353e-06	-8.061442e-10	-2.890211e+01	-5.558031e+01
8.500000e-07	-4.112528e-06	-7.898090e-10	-2.868709e+01	-5.538397e+01
8.600000e-07	-4.081304e-06	-7.949912e-10	-2.846928e+01	-5.518510e+01
8.700000e-07	-4.049861e-06	-8.032700e-10	-2.824996e+01	-5.498368e+01
8.800000e-07	-4.018323e-06	-7.859691e-10	-2.802996e+01	-5.477967e+01
8.900000e-07	-3.986664e-06	-7.873700e-10	-2.780912e+01	-5.457304e+01
9.000000e-07	-3.954765e-06	-7.858888e-10	-2.758661e+01	-5.436374e+01
9.100000e-07	-3.922561e-06	-7.660709e-10	-2.736197e+01	-5.415172e+01
9.200000e-07	-3.889978e-06	-7.563769e-10	-2.713469e+01	-5.393694e+01
9.300000e-07	-3.857052e-06	-7.680386e-10	-2.690501e+01	-5.371931e+01
9.400000e-07	-3.823763e-06	-7.613802e-10	-2.667280e+01	-5.349879e+01
9.500000e-07	-3.789982e-06	-7.499849e-10	-2.643716e+01	-5.327528e+01
9.600000e-07	-3.755725e-06	-7.578425e-10	-2.619820e+01	-5.304873e+01
9.700000e-07	-3.721024e-06	-7.573071e-10	-2.595614e+01	-5.281905e+01
9.800000e-07	-3.685986e-06	-7.418533e-10	-2.571173e+01	-5.258615e+01
9.900000e-07	-3.650702e-06	-7.404120e-10	-2.546561e+01	-5.234996e+01
1.000000e-06	-3.615223e-06	-7.460026e-10	-2.521812e+01	-5.211039e+01
1.010000e-06	-3.579596e-06	-7.356720e-10	-2.496961e+01	-5.186735e+01
1.020000e-06	-3.543860e-06	-7.340005e-10	-2.472032e+01	-5.162077e+01
1.030000e-06	-3.508038e-06	-7.388300e-10	-2.447045e+01	-5.137057e+01
1.040000e-06	-3.472086e-06	-7.322447e-10	-2.421967e+01	-5.111665e+01
1.050000e-06	-3.435845e-06	-7.208392e-10	-2.396686e+01	-5.085896e+01
1.060000e-06	-3.399246e-06	-7.236657e-10	-2.371157e+01	-5.059742e+01
1.070000e-06	-3.362403e-06	-7.179376e-10	-2.345456e+01	-5.033197e+01
1.080000e-06	-3.325386e-06	-7.092001e-10	-2.319635e+01	-5.006253e+01
1.090000e-06	-3.288146e-06	-7.062957e-10	-2.293658e+01	-4.978907e+01
1.100000e-06	-3.250555e-06	-7.068078e-10	-2.267436e+01	-4.951154e+01
1.110000e-06	-3.212739e-06	-6.944871e-10	-2.241058e+01	-4.922988e+01
1.120000e-06	-3.174759e-06	-6.904137e-10	-2.214565e+01	-4.894407e+01
1.130000e-06	-3.136458e-06	-6.902593e-10	-2.187848e+01	-4.865409e+01
1.140000e-06	-3.097943e-06	-6.854130e-10	-2.160982e+01	-4.835990e+01
1.150000e-06	-3.059226e-06	-6.760751e-10	-2.133974e+01	-4.806151e+01
1.160000e-06	-3.020312e-06	-6.759406e-10	-2.106830e+01	-4.775889e+01
1.170000e-06	-2.981186e-06	-6.724257e-10	-2.079537e+01	-4.745206e+01
1.180000e-06	-2.941857e-06	-6.668009e-10	-2.052103e+01	-4.714101e+01
1.190000e-06	-2.902377e-06	-6.642675e-10	-2.024563e+01	-4.682575e+01
1.200000e-06	-2.862760e-06	-6.614146e-10	-1.996929e+01	-4.650629e+01
1.210000e-06	-2.823128e-06	-6.532993e-10	-1.969283e+01	-4.618266e+01
1.220000e-06	-2.783335e-06	-6.489883e-10	-1.941526e+01	-4.585486e+01
1.230000e-06	-2.743356e-06	-6.444821e-10	-1.913638e+01	-4.552291e+01
1.240000e-06	-2.703342e-06	-6.371674e-10	-1.885726e+01	-4.518683e+01
1.250000e-06	-2.663176e-06	-6.334960e-10	-1.857708e+01	-4.484662e+01
1.260000e-06	-2.622771e-06	-6.319275e-10	-1.829523e+01	-4.450230e+01
1.270000e-06	-2.582087e-06	-6.287920e-10	-1.801144e+01	-4.415386e+01
1.280000e-06	-2.541024e-06	-6.231378e-10	-1.772501e+01	-4.380131e+01
1.290000e-06	-2.499656e-06	-6.195485e-10	-1.743645e+01	-4.344462e+01
1.300000e-06	-2.458027e-06	-6.145947e-10	-1.714606e+01	-4.308377e+01
1.310000e-06	-2.416123e-06	-6.075990e-10	-1.685375e+01	-4.271873e+01
1.320000e-06	-2.373878e-06	-6.008687e-10	-1.655908e+01	-4.234943e+01
1.330000e-06	-2.331259e-06	-5.970777e-10	-1.626178e+01	-4.197582e+01
1.340000e-06	-2.288334e-06	-5.910665e-10	-1.596236e+01	-4.159781e+01
1.350000e-06	-2.245193e-06	-5.852029e-10	-1.566142e+01	-4.121529e+01
1.360000e-06	-2.201935e-06	-5.789110e-10	-1.535968e+01	-4.082814e+01
1.370000e-06	-2.158609e-06	-5.736384e-10	-1.505745e+01	-4.043623e+01
1.380000e-06	-2.115172e-06	-5.678547e-10	-1.475446e+01	-4.003938e+01
1.390000e-06	-2.071599e-06	-5.619498e-10	-1.445052e+01	-3.963740e+01
1.400000e-06	-2.027951e-06	-5.528455e-10	-1.414605e+01	-3.923009e+01
1.410000e-06	-1.984236e-06	-5.451848e-10	-1.384111e+01	-3.881721e+01
1.420000e-06	-1.940430e-06	-5.391611e-10	-1.353554e+01	-3.839850e+01
1.430000e-06	-1.896547e-06	-5.356870e-10	-1.322943e+01	-3.797368e+01
1.440000e-06	-1.852619e-06	-5.313417e-10	-1.292301e+01	-3.754245e+01
1.450000e-06	-1.808655e-06	-5.267335e-10	-1.261634e+01	-3.710447e+01
1.460000e-06	-1.764533e-06	-5.194605e-10	-1.230857e+01	-3.665939e+01
1.470000e-06	-1.720166e-06	-5.121483e-10	-1.199908e+01	-3.620684e+01
1.480000e-06	-1.675629e-06	-5.053120e-10	-1.168841e+01	-3.574642e+01
1.490000e-06	-1.631033e-06	-5.003475e-10	-1.137733e+01	-3.527773e+01
1.500000e-06	-1.586392e-06	-4.959579e-10	-1.106594e+01	-3.480033e+01
1.510000e-06	-1.541637e-06	-4.908171e-10	-1.075375e+01	-3.431378e+01
1.520000e-06	-1.496772e-06	-4.839475e-10	-1.044079e+01	-3.381762e+01
1.530000e-06	-1.451799e-06	-4.747411e-10	-1.012708e+01	-3.331137e+01
1.540000e-06	-1.406741e-06	-4.642424e-10	-9.812777e+00	-3.279457e+01
1.550000e-06	-1.361564e-06	-4.551478e-10	-9.497642e+00	-3.226673e+01
1.560000e-06	-1.316149e-06	-4.460991e-10	-9.180848e+00	-3.172735e+01
1.570000e-06	-1.270674e-06	-4.379662e-10	-8.863630e+00	-3.117597e+01
1.580000e-06	-1.225180e-06	-4.289244e-10	-8.546290e+00	-3.061209e+01
1.590000e-06	-1.179561e-06	-4.188759e-10	-8.228074e+00	-3.003524e+01
1.600000e-06	-1.133902e-06	-4.087951e-10	-7.909578e+00	-2.944495e+01
1.610000e-06	-1.088234e-06	-3.976526e-10	-7.591013e+00	-2.884078e+01
1.620000e-06	-1.042522e-06	-3.869588e-10	-7.272150e+00	-2.822228e+01
1.630000e-06	-9.967214e-07	-3.750870e-10	-6.952667e+00	-2.758904e+01
1.640000e-06	-9.508807e-07	-3.641419e-10	-6.632903e+00	-2.694068e+01
1.650000e-06	-9.049488e-07	-3.524562e-10	-6.312503e+00	-2.627682e+01
1.660000e-06	-8.588299e-07	-3.410290e-10	-5.990800e+00	-2.559713e+01
1.670000e-06	-8.126768e-07	-3.285778e-10	-5.668857e+00	-2.490131e+01
1.680000e-06	-7.665399e-07	-3.171263e-10	-5.347027e+00	-2.418909e+01
1.690000e-06	-7.203344e-07	-3.055913e-10	-5.024719e+00	-2.346026e+01
1.700000e-06	-6.741019e-07	-2.952792e-10	-4.702223e+00	-2.271462e+01
1.710000e-06	-6.278236e-07	-2.847830e-10	-4.379407e+00	-2.195204e+01
1.720000e-06	-5.814896e-07	-2.737240e-10	-4.056202e+00	-2.117242e+01
1.730000e-06	-5.351477e-07	-2.606883e-10	-3.732943e+00	-2.037571e+01
1.740000e-06	-4.887102e-07	-2.462357e-10	-3.409016e+00	-1.956193e+01
1.750000e-06	-4.421664e-07	-2.323329e-10	-3.084348e+00	-1.873112e+01
1.760000e-06	-3.955911e-07	-2.212327e-10	-2.759461e+00	-1.788340e+01
1.770000e-06	-3.490233e-07	-2.111334e-10	-2.434625e+00	-1.701892e+01
1.780000e-06	-3.024919e-07	-2.001131e-10	-2.110043e+00	-1.613790e+01
1.790000e-06	-2.559093e-07	-1.885354e-10	-1.785105e+00	-1.524061e+01
1.800000e-06	-2.092715e-07	-1.774589e-10	-1.459781e+00	-1.432738e+01
1.810000e-06	-1.626720e-07	-1.646631e-10	-1.134725e+00	-1.339857e+01
1.820000e-06	-1.160311e-07	-1.503075e-10	-8.093790e-01	-1.245461e+01
1.830000e-06	-6.939082e-08	-1.356816e-10	-4.840382e-01	-1.149599e+01
1.840000e-06	-2.271809e-08	-1.207514e-10	-1.584709e-01	-1.052323e+01
1.850000e-06	2.399425e-08	-1.060853e-10	1.673728e-01	-9.536899e+00
1.860000e-06	7.063723e-08	-9.240391e-11	4.927326e-01	-8.537632e+00
1.870000e-06	1.173318e-07	-7.817778e-11	8.184521e-01	-7.526090e+00
1.880000e-06	1.640905e-07	-6.418576e-11	1.144619e+00	-6.502978e+00
1.890000e-06	2.107537e-07	-5.242771e-11	1.470120e+00	-5.469042e+00
1.900000e-06	2.573822e-07	-4.057669e-11	1.795379e+00	-4.425061e+00
1.910000e-06	3.040204e-07	-2.826189e-11	2.120705e+00	-3.371846e+00
1.920000e-06	3.505600e-07	-1.544171e-11	2.445344e+00	-2.310239e+00
1.930000e-06	3.971117e-07	-1.470380e-13	2.770067e+00	-1.241103e+00
1.940000e-06	4.436457e-07	1.732002e-11	3.094667e+00	-1.653266e-01
1.950000e-06	4.901855e-07	3.370456e-11	3.419307e+00	9.161873e-01
1.960000e-06	5.367102e-07	4.918309e-11	3.743841e+00	2.002520e+00
1.970000e-06	5.830754e-07	6.347893e-11	4.067264e+00	3.092744e+00
1.980000e-06	6.293818e-07	7.804208e-11	4.390276e+00	4.185925e+00
1.990000e-06	6.756514e-07	9.138789e-11	4.713031e+00	5.281126e+00
2.000000e-06	7.218657e-07	1.042930e-10	5.035401e+00	6.377412e+00
2.010000e-06	7.680773e-07	1.197406e-10	5.357751e+00	7.473852e+00
2.020000e-06	8.142368e-07	1.355556e-10	5.679738e+00	8.569526e+00
2.030000e-06	8.603529e-07	1.521105e-10	6.001423e+00	9.663524e+00
2.040000e-06	9.064383e-07	1.702899e-10	6.322894e+00	1.075495e+01
2.050000e-06	9.524451e-07	1.843404e-10	6.643816e+00	1.184293e+01
2.060000e-06	9.983103e-07	1.963384e-10	6.963750e+00	1.292662e+01
2.070000e-06	1.044052e-06	2.084353e-10	7.282826e+00	1.400518e+01
2.080000e-06	1.089792e-06	2.214628e-10	7.601881e+00	1.507780e+01
2.090000e-06	1.135461e-06	2.358689e-10	7.920448e+00	1.614373e+01
2.100000e-06	1.181063e-06	2.522033e-10	8.238552e+00	1.720221e+01
2.110000e-06	1.226608e-06	2.679515e-10	8.556251e+00	1.825254e+01
2.120000e-06	1.272038e-06	2.826755e-10	8.873147e+00	1.929404e+01
2.130000e-06	1.317320e-06	2.975185e-10	9.189017e+00	2.032608e+01
2.140000e-06	1.362489e-06	3.113355e-10	9.504092e+00	2.134805e+01
2.150000e-06	1.407680e-06	3.241280e-10	9.819323e+00	2.235941e+01
2.160000e-06	1.452756e-06	3.366636e-10	1.013376e+01	2.335961e+01
2.170000e-06	1.497629e-06	3.496527e-10	1.044676e+01	2.434819e+01
2.180000e-06	1.542352e-06	3.632090e-10	1.075873e+01	2.532468e+01
2.190000e-06	1.586970e-06	3.790104e-10	1.106997e+01	2.628869e+01
2.200000e-06	1.631578e-06	3.958390e-10	1.138113e+01	2.723985e+01
2.210000e-06	1.676106e-06	4.095030e-10	1.169174e+01	2.817783e+01
2.220000e-06	1.720454e-06	4.197606e-10	1.200109e+01	2.910233e+01
2.230000e-06	1.764641e-06	4.296925e-10	1.230932e+01	3.001310e+01
2.240000e-06	1.808691e-06	4.413845e-10	1.261659e+01	3.090991e+01
2.250000e-06	1.852640e-06	4.526255e-10	1.292316e+01	3.179258e+01
2.260000e-06	1.896503e-06	4.659466e-10	1.322913e+01	3.266095e+01
2.270000e-06	1.940280e-06	4.829049e-10	1.353450e+01	3.351490e+01
2.280000e-06	1.984011e-06	4.974981e-10	1.383954e+01	3.435432e+01
2.290000e-06	2.027688e-06	5.085063e-10	1.414421e+01	3.517914e+01
2.300000e-06	2.071281e-06	5.186920e-10	1.444829e+01	3.598933e+01
2.310000e-06	2.114801e-06	5.283561e-10	1.475187e+01	3.678486e+01
2.320000e-06	2.158250e-06	5.387228e-10	1.505495e+01	3.756574e+01
2.330000e-06	2.201617e-06	5.517036e-10	1.535746e+01	3.833198e+01
2.340000e-06	2.244887e-06	5.637666e-10	1.565929e+01	3.908362e+01
2.350000e-06	2.287971e-06	5.745689e-10	1.595982e+01	3.982073e+01
2.360000e-06	2.330744e-06	5.849204e-10	1.625819e+01	4.054337e+01
2.370000e-06	2.373147e-06	5.953342e-10	1.655398e+01	4.125163e+01
2.380000e-06	2.415317e-06	6.041383e-10	1.684813e+01	4.194560e+01
2.390000e-06	2.457209e-06	6.130339e-10	1.714035e+01	4.262539e+01
2.400000e-06	2.498704e-06	6.220652e-10	1.742980e+01	4.329111e+01
2.410000e-06	2.539945e-06	6.320821e-10	1.771748e+01	4.394290e+01
2.420000e-06	2.580930e-06	6.431692e-10	1.800337e+01	4.458087e+01
2.430000e-06	2.621608e-06	6.528068e-10	1.828712e+01	4.520516e+01
2.440000e-06	2.661995e-06	6.608463e-10	1.856884e+01	4.581591e+01
2.450000e-06	2.702149e-06	6.690246e-10	1.884894e+01	4.641326e+01
2.460000e-06	2.742195e-06	6.768071e-10	1.912828e+01	4.699736e+01
2.470000e-06	2.782084e-06	6.835412e-10	1.940653e+01	4.756835e+01
2.480000e-06	2.821819e-06	6.906719e-10	1.968370e+01	4.812638e+01
2.490000e-06	2.861460e-06	6.974811e-10	1.996022e+01	4.867160e+01
2.500000e-06	2.900986e-06	7.039975e-10	2.023593e+01	4.920416e+01
2.510000e-06	2.940386e-06	7.114767e-10	2.051077e+01	4.972421e+01
2.520000e-06	2.979590e-06	7.185308e-10	2.078424e+01	5.023190e+01
2.530000e-06	3.018513e-06	7.236488e-10	2.105575e+01	5.072739e+01
2.540000e-06	3.057226e-06	7.296436e-10	2.132579e+01	5.121083e+01
2.550000e-06	3.095770e-06	7.367688e-10	2.159465e+01	5.168237e+01
2.560000e-06	3.134096e-06	7.423492e-10	2.186200e+01	5.214216e+01
2.570000e-06	3.172209e-06	7.477445e-10	2.212786e+01	5.259037e+01
2.580000e-06	3.210119e-06	7.548770e-10	2.239231e+01	5.302715e+01
2.590000e-06	3.247893e-06	7.613938e-10	2.265579e+01	5.345265e+01
2.600000e-06	3.285504e-06	7.680453e-10	2.291816e+01	5.386704e+01
2.610000e-06	3.322848e-06	7.756412e-10	2.317865e+01	5.427049e+01
2.620000e-06	3.359939e-06	7.817888e-10	2.343737e+01	5.466315e+01
2.630000e-06	3.396727e-06	7.872254e-10	2.369400e+01	5.504519e+01
2.640000e-06	3.433228e-06	7.921462e-10	2.394860e+01	5.541679e+01
2.650000e-06	3.469499e-06	7.972825e-10	2.420162e+01	5.577812e+01
2.660000e-06	3.505572e-06	8.039743e-10	2.445325e+01	5.612935e+01
2.670000e-06	3.541480e-06	8.092399e-10	2.470372e+01	5.647067e+01
2.680000e-06	3.577190e-06	8.134360e-10	2.495282e+01	5.680225e+01
2.690000e-06	3.612762e-06	8.162834e-10	2.520095e+01	5.712429e+01
2.700000e-06	3.648257e-06	8.168988e-10	2.544855e+01	5.743698e+01
2.710000e-06	3.683668e-06	8.188773e-10	2.569556e+01	5.774051e+01
2.720000e-06	3.718781e-06	8.225041e-10	2.594050e+01	5.803507e+01
2.730000e-06	3.753424e-06	8.274151e-10	2.618215e+01	5.832086e+01
2.740000e-06	3.787712e-06	8.338487e-10	2.642132e+01	5.859809e+01
2.750000e-06	3.821540e-06	8.392303e-10	2.665729e+01	5.886696e+01
2.760000e-06	3.854822e-06	8.424002e-10	2.688945e+01	5.912767e+01
2.770000e-06	3.887695e-06	8.436416e-10	2.711876e+01	5.938043e+01
2.780000e-06	3.920204e-06	8.439649e-10	2.734553e+01	5.962544e+01
2.790000e-06	3.952409e-06	8.466846e-10	2.757017e+01	5.986292e+01
2.800000e-06	3.984384e-06	8.516628e-10	2.779321e+01	6.009307e+01
2.810000e-06	4.016223e-06	8.564146e-10	2.801531e+01	6.031609e+01
2.820000e-06	4.047912e-06	8.613482e-10	2.823636e+01	6.053220e+01
2.830000e-06	4.079381e-06	8.648129e-10	2.845587e+01	6.074158e+01
2.840000e-06	4.110583e-06	8.659135e-10	2.867352e+01	6.094445e+01
2.850000e-06	4.141453e-06	8.650342e-10	2.888886e+01	6.114099e+01
2.860000e-06	4.172042e-06	8.646681e-10	2.910223e+01	6.133140e+01
2.870000e-06	4.202320e-06	8.659931e-10	2.931344e+01	6.151587e+01
2.880000e-06	4.232232e-06	8.677991e-10	2.952209e+01	6.169458e+01
2.890000e-06	4.261933e-06	8.702728e-10	2.972927e+01	6.186770e+01
2.900000e-06	4.291484e-06	8.730561e-10	2.993540e+01	6.203541e+01
