# Temperatura_=_6.39
# Concentracion g/m^3_=_1620.0
# C_Vs_to_Am_M_A/Vsm_=_65563218390.804596
# pendiente_HvsI_1/m_=_3716.3
# ordenada_HvsI_A/m_=_1297.0
# frecuencia_Hz_=_135106.5036221961

Tiempo_(s)	Campo_(V.s)	Magnetizacion_(V.s)	Campo_(kA/m)	Magnetizacion_(A/m)
0.000000e+00	-5.523020e-06	-1.346639e-09	-3.837338e+01	-8.763147e+01
1.000000e-08	-5.523109e-06	-1.341463e-09	-3.837399e+01	-8.759368e+01
2.000000e-08	-5.522907e-06	-1.340541e-09	-3.837259e+01	-8.755290e+01
3.000000e-08	-5.522296e-06	-1.342140e-09	-3.836834e+01	-8.750911e+01
4.000000e-08	-5.521159e-06	-1.345085e-09	-3.836045e+01	-8.746230e+01
5.000000e-08	-5.519421e-06	-1.346183e-09	-3.834837e+01	-8.741246e+01
6.000000e-08	-5.517081e-06	-1.345545e-09	-3.833212e+01	-8.735960e+01
7.000000e-08	-5.514273e-06	-1.357211e-09	-3.831260e+01	-8.730373e+01
8.000000e-08	-5.510943e-06	-1.349976e-09	-3.828947e+01	-8.724484e+01
9.000000e-08	-5.507130e-06	-1.329427e-09	-3.826297e+01	-8.718297e+01
1.000000e-07	-5.502907e-06	-1.350378e-09	-3.823364e+01	-8.711812e+01
1.100000e-07	-5.498393e-06	-1.376655e-09	-3.820227e+01	-8.705034e+01
1.200000e-07	-5.493726e-06	-1.343441e-09	-3.816985e+01	-8.697964e+01
1.300000e-07	-5.488755e-06	-1.314610e-09	-3.813531e+01	-8.690608e+01
1.400000e-07	-5.483350e-06	-1.304530e-09	-3.809775e+01	-8.682970e+01
1.500000e-07	-5.477537e-06	-1.372673e-09	-3.805737e+01	-8.675053e+01
1.600000e-07	-5.471291e-06	-1.340826e-09	-3.801397e+01	-8.666864e+01
1.700000e-07	-5.464674e-06	-1.325033e-09	-3.796799e+01	-8.658407e+01
1.800000e-07	-5.457649e-06	-1.299925e-09	-3.791918e+01	-8.649689e+01
1.900000e-07	-5.450305e-06	-1.333766e-09	-3.786816e+01	-8.640716e+01
2.000000e-07	-5.442725e-06	-1.306370e-09	-3.781550e+01	-8.631493e+01
2.100000e-07	-5.434881e-06	-1.302985e-09	-3.776099e+01	-8.622027e+01
2.200000e-07	-5.426776e-06	-1.290736e-09	-3.770468e+01	-8.612323e+01
2.300000e-07	-5.418299e-06	-1.297414e-09	-3.764579e+01	-8.602388e+01
2.400000e-07	-5.409263e-06	-1.282399e-09	-3.758300e+01	-8.592226e+01
2.500000e-07	-5.399539e-06	-1.261800e-09	-3.751544e+01	-8.581844e+01
2.600000e-07	-5.389094e-06	-1.268215e-09	-3.744287e+01	-8.571246e+01
2.700000e-07	-5.378045e-06	-1.267359e-09	-3.736610e+01	-8.560436e+01
2.800000e-07	-5.366617e-06	-1.278264e-09	-3.728670e+01	-8.549418e+01
2.900000e-07	-5.354870e-06	-1.256648e-09	-3.720509e+01	-8.538196e+01
3.000000e-07	-5.342751e-06	-1.271291e-09	-3.712088e+01	-8.526771e+01
3.100000e-07	-5.330222e-06	-1.251754e-09	-3.703384e+01	-8.515145e+01
3.200000e-07	-5.317312e-06	-1.273718e-09	-3.694414e+01	-8.503318e+01
3.300000e-07	-5.304009e-06	-1.234108e-09	-3.685171e+01	-8.491290e+01
3.400000e-07	-5.290237e-06	-1.240986e-09	-3.675602e+01	-8.479061e+01
3.500000e-07	-5.276025e-06	-1.242881e-09	-3.665728e+01	-8.466626e+01
3.600000e-07	-5.261383e-06	-1.272192e-09	-3.655555e+01	-8.453985e+01
3.700000e-07	-5.246224e-06	-1.237446e-09	-3.645022e+01	-8.441131e+01
3.800000e-07	-5.230553e-06	-1.263150e-09	-3.634134e+01	-8.428059e+01
3.900000e-07	-5.214309e-06	-1.259578e-09	-3.622848e+01	-8.414764e+01
4.000000e-07	-5.197699e-06	-1.230773e-09	-3.611308e+01	-8.401237e+01
4.100000e-07	-5.180811e-06	-1.214093e-09	-3.599574e+01	-8.387472e+01
4.200000e-07	-5.163592e-06	-1.268211e-09	-3.587611e+01	-8.373457e+01
4.300000e-07	-5.146085e-06	-1.248539e-09	-3.575447e+01	-8.359183e+01
4.400000e-07	-5.128296e-06	-1.214404e-09	-3.563087e+01	-8.344640e+01
4.500000e-07	-5.110123e-06	-1.247328e-09	-3.550461e+01	-8.329815e+01
4.600000e-07	-5.091432e-06	-1.265898e-09	-3.537475e+01	-8.314697e+01
4.700000e-07	-5.072349e-06	-1.206578e-09	-3.524216e+01	-8.299273e+01
4.800000e-07	-5.052966e-06	-1.214095e-09	-3.510749e+01	-8.283529e+01
4.900000e-07	-5.033317e-06	-1.255509e-09	-3.497097e+01	-8.267451e+01
5.000000e-07	-5.013496e-06	-1.214439e-09	-3.483325e+01	-8.251027e+01
5.100000e-07	-4.993487e-06	-1.195191e-09	-3.469423e+01	-8.234242e+01
5.200000e-07	-4.973142e-06	-1.242227e-09	-3.455288e+01	-8.217081e+01
5.300000e-07	-4.952333e-06	-1.232251e-09	-3.440830e+01	-8.199532e+01
5.400000e-07	-4.931086e-06	-1.186702e-09	-3.426068e+01	-8.181580e+01
5.500000e-07	-4.909568e-06	-1.225636e-09	-3.411118e+01	-8.163211e+01
5.600000e-07	-4.887774e-06	-1.232393e-09	-3.395975e+01	-8.144413e+01
5.700000e-07	-4.865608e-06	-1.190615e-09	-3.380575e+01	-8.125173e+01
5.800000e-07	-4.843094e-06	-1.198292e-09	-3.364932e+01	-8.105479e+01
5.900000e-07	-4.820223e-06	-1.231031e-09	-3.349042e+01	-8.085318e+01
6.000000e-07	-4.797017e-06	-1.193130e-09	-3.332918e+01	-8.064682e+01
6.100000e-07	-4.773566e-06	-1.192453e-09	-3.316625e+01	-8.043559e+01
6.200000e-07	-4.749868e-06	-1.212310e-09	-3.300160e+01	-8.021940e+01
6.300000e-07	-4.725928e-06	-1.198326e-09	-3.283526e+01	-7.999817e+01
6.400000e-07	-4.701722e-06	-1.176093e-09	-3.266708e+01	-7.977183e+01
6.500000e-07	-4.677154e-06	-1.199676e-09	-3.249638e+01	-7.954031e+01
6.600000e-07	-4.652111e-06	-1.183350e-09	-3.232239e+01	-7.930356e+01
6.700000e-07	-4.626479e-06	-1.167508e-09	-3.214430e+01	-7.906154e+01
6.800000e-07	-4.600282e-06	-1.174840e-09	-3.196229e+01	-7.881420e+01
6.900000e-07	-4.573625e-06	-1.180030e-09	-3.177708e+01	-7.856152e+01
7.000000e-07	-4.546635e-06	-1.157924e-09	-3.158956e+01	-7.830348e+01
7.100000e-07	-4.519364e-06	-1.162996e-09	-3.140008e+01	-7.804007e+01
7.200000e-07	-4.491761e-06	-1.159942e-09	-3.120830e+01	-7.777130e+01
7.300000e-07	-4.463948e-06	-1.146646e-09	-3.101505e+01	-7.749716e+01
7.400000e-07	-4.435921e-06	-1.140008e-09	-3.082032e+01	-7.721767e+01
7.500000e-07	-4.407615e-06	-1.144026e-09	-3.062366e+01	-7.693285e+01
7.600000e-07	-4.379022e-06	-1.135174e-09	-3.042500e+01	-7.664272e+01
7.700000e-07	-4.350167e-06	-1.131711e-09	-3.022451e+01	-7.634731e+01
7.800000e-07	-4.321057e-06	-1.131161e-09	-3.002226e+01	-7.604664e+01
7.900000e-07	-4.291617e-06	-1.120318e-09	-2.981772e+01	-7.574077e+01
8.000000e-07	-4.261846e-06	-1.108934e-09	-2.961087e+01	-7.542971e+01
8.100000e-07	-4.231786e-06	-1.104238e-09	-2.940202e+01	-7.511351e+01
8.200000e-07	-4.201472e-06	-1.097107e-09	-2.919140e+01	-7.479221e+01
8.300000e-07	-4.170863e-06	-1.084491e-09	-2.897873e+01	-7.446583e+01
8.400000e-07	-4.139988e-06	-1.085109e-09	-2.876421e+01	-7.413442e+01
8.500000e-07	-4.108851e-06	-1.083109e-09	-2.854788e+01	-7.379801e+01
8.600000e-07	-4.077465e-06	-1.076932e-09	-2.832981e+01	-7.345663e+01
8.700000e-07	-4.045911e-06	-1.068393e-09	-2.811058e+01	-7.311030e+01
8.800000e-07	-4.014201e-06	-1.066818e-09	-2.789025e+01	-7.275904e+01
8.900000e-07	-3.982261e-06	-1.050357e-09	-2.766834e+01	-7.240288e+01
9.000000e-07	-3.950019e-06	-1.035710e-09	-2.744433e+01	-7.204183e+01
9.100000e-07	-3.917479e-06	-1.026244e-09	-2.721824e+01	-7.167590e+01
9.200000e-07	-3.884554e-06	-1.023591e-09	-2.698948e+01	-7.130508e+01
9.300000e-07	-3.851097e-06	-1.014189e-09	-2.675702e+01	-7.092939e+01
9.400000e-07	-3.817176e-06	-1.015113e-09	-2.652135e+01	-7.054881e+01
9.500000e-07	-3.782921e-06	-1.013058e-09	-2.628335e+01	-7.016334e+01
9.600000e-07	-3.748321e-06	-1.006441e-09	-2.604295e+01	-6.977296e+01
9.700000e-07	-3.713303e-06	-9.954464e-10	-2.579965e+01	-6.937765e+01
9.800000e-07	-3.677946e-06	-9.926336e-10	-2.555399e+01	-6.897740e+01
9.900000e-07	-3.642414e-06	-9.823029e-10	-2.530712e+01	-6.857218e+01
1.000000e-06	-3.606771e-06	-9.751900e-10	-2.505947e+01	-6.816197e+01
1.010000e-06	-3.571024e-06	-9.740404e-10	-2.481111e+01	-6.774675e+01
1.020000e-06	-3.535137e-06	-9.732481e-10	-2.456177e+01	-6.732648e+01
1.030000e-06	-3.499011e-06	-9.629903e-10	-2.431077e+01	-6.690114e+01
1.040000e-06	-3.462585e-06	-9.569908e-10	-2.405769e+01	-6.647071e+01
1.050000e-06	-3.425947e-06	-9.516108e-10	-2.380313e+01	-6.603517e+01
1.060000e-06	-3.389050e-06	-9.423456e-10	-2.354677e+01	-6.559450e+01
1.070000e-06	-3.351864e-06	-9.338794e-10	-2.328841e+01	-6.514867e+01
1.080000e-06	-3.314468e-06	-9.304825e-10	-2.302859e+01	-6.469769e+01
1.090000e-06	-3.276844e-06	-9.256522e-10	-2.276717e+01	-6.424154e+01
1.100000e-06	-3.238997e-06	-9.165183e-10	-2.250422e+01	-6.378023e+01
1.110000e-06	-3.200914e-06	-9.087703e-10	-2.223962e+01	-6.331376e+01
1.120000e-06	-3.162603e-06	-8.989479e-10	-2.197344e+01	-6.284214e+01
1.130000e-06	-3.124071e-06	-8.910570e-10	-2.170572e+01	-6.236539e+01
1.140000e-06	-3.085336e-06	-8.845624e-10	-2.143660e+01	-6.188354e+01
1.150000e-06	-3.046401e-06	-8.801840e-10	-2.116608e+01	-6.139662e+01
1.160000e-06	-3.007275e-06	-8.726838e-10	-2.089424e+01	-6.090466e+01
1.170000e-06	-2.967972e-06	-8.671397e-10	-2.062116e+01	-6.040773e+01
1.180000e-06	-2.928514e-06	-8.612471e-10	-2.034701e+01	-5.990585e+01
1.190000e-06	-2.888916e-06	-8.549529e-10	-2.007189e+01	-5.939910e+01
1.200000e-06	-2.849153e-06	-8.432047e-10	-1.979562e+01	-5.888753e+01
1.210000e-06	-2.809289e-06	-8.337217e-10	-1.951865e+01	-5.837120e+01
1.220000e-06	-2.769392e-06	-8.226437e-10	-1.924145e+01	-5.785019e+01
1.230000e-06	-2.729305e-06	-8.133592e-10	-1.896293e+01	-5.732455e+01
1.240000e-06	-2.688844e-06	-8.048715e-10	-1.868181e+01	-5.679435e+01
1.250000e-06	-2.648164e-06	-8.008359e-10	-1.839917e+01	-5.625966e+01
1.260000e-06	-2.607232e-06	-7.950491e-10	-1.811478e+01	-5.572054e+01
1.270000e-06	-2.566035e-06	-7.903818e-10	-1.782855e+01	-5.517703e+01
1.280000e-06	-2.524565e-06	-7.834690e-10	-1.754042e+01	-5.462919e+01
1.290000e-06	-2.482718e-06	-7.736190e-10	-1.724967e+01	-5.407705e+01
1.300000e-06	-2.440692e-06	-7.584815e-10	-1.695768e+01	-5.352064e+01
1.310000e-06	-2.398349e-06	-7.448486e-10	-1.666349e+01	-5.295997e+01
1.320000e-06	-2.355690e-06	-7.340433e-10	-1.636709e+01	-5.239502e+01
1.330000e-06	-2.312828e-06	-7.261839e-10	-1.606929e+01	-5.182579e+01
1.340000e-06	-2.269786e-06	-7.235894e-10	-1.577024e+01	-5.125222e+01
1.350000e-06	-2.226550e-06	-7.213074e-10	-1.546984e+01	-5.067425e+01
1.360000e-06	-2.183156e-06	-7.157631e-10	-1.516834e+01	-5.009180e+01
1.370000e-06	-2.139712e-06	-7.060449e-10	-1.486650e+01	-4.950475e+01
1.380000e-06	-2.096136e-06	-6.944212e-10	-1.456374e+01	-4.891295e+01
1.390000e-06	-2.052405e-06	-6.798825e-10	-1.425990e+01	-4.831624e+01
1.400000e-06	-2.008559e-06	-6.651031e-10	-1.395526e+01	-4.771442e+01
1.410000e-06	-1.964683e-06	-6.540634e-10	-1.365041e+01	-4.710727e+01
1.420000e-06	-1.920751e-06	-6.466621e-10	-1.334518e+01	-4.649451e+01
1.430000e-06	-1.876711e-06	-6.386559e-10	-1.303920e+01	-4.587586e+01
1.440000e-06	-1.832613e-06	-6.311819e-10	-1.273280e+01	-4.525099e+01
1.450000e-06	-1.788389e-06	-6.224033e-10	-1.242554e+01	-4.461956e+01
1.460000e-06	-1.743977e-06	-6.108938e-10	-1.211697e+01	-4.398116e+01
1.470000e-06	-1.699378e-06	-5.964416e-10	-1.180711e+01	-4.333538e+01
1.480000e-06	-1.654655e-06	-5.853246e-10	-1.149637e+01	-4.268178e+01
1.490000e-06	-1.609803e-06	-5.762031e-10	-1.118475e+01	-4.201987e+01
1.500000e-06	-1.564750e-06	-5.702321e-10	-1.087172e+01	-4.134915e+01
1.510000e-06	-1.519578e-06	-5.633970e-10	-1.055787e+01	-4.066910e+01
1.520000e-06	-1.474396e-06	-5.519759e-10	-1.024396e+01	-3.997917e+01
1.530000e-06	-1.429142e-06	-5.370842e-10	-9.929533e+00	-3.927879e+01
1.540000e-06	-1.383737e-06	-5.241415e-10	-9.614064e+00	-3.856736e+01
1.550000e-06	-1.338237e-06	-5.106001e-10	-9.297935e+00	-3.784429e+01
1.560000e-06	-1.292634e-06	-4.971854e-10	-8.981090e+00	-3.710898e+01
1.570000e-06	-1.246968e-06	-4.867595e-10	-8.663807e+00	-3.636079e+01
1.580000e-06	-1.201235e-06	-4.765986e-10	-8.346061e+00	-3.559913e+01
1.590000e-06	-1.155417e-06	-4.657325e-10	-8.027716e+00	-3.482337e+01
1.600000e-06	-1.109554e-06	-4.553393e-10	-7.709070e+00	-3.403290e+01
1.610000e-06	-1.063558e-06	-4.420646e-10	-7.389492e+00	-3.322712e+01
1.620000e-06	-1.017470e-06	-4.263644e-10	-7.069277e+00	-3.240546e+01
1.630000e-06	-9.713620e-07	-4.123921e-10	-6.748924e+00	-3.156734e+01
1.640000e-06	-9.251705e-07	-3.994518e-10	-6.427990e+00	-3.071223e+01
1.650000e-06	-8.788824e-07	-3.854385e-10	-6.106385e+00	-2.983963e+01
1.660000e-06	-8.325444e-07	-3.710502e-10	-5.784433e+00	-2.894905e+01
1.670000e-06	-7.862200e-07	-3.593978e-10	-5.462576e+00	-2.804006e+01
1.680000e-06	-7.398207e-07	-3.477140e-10	-5.140199e+00	-2.711228e+01
1.690000e-06	-6.933536e-07	-3.359605e-10	-4.817350e+00	-2.616535e+01
1.700000e-06	-6.468591e-07	-3.222316e-10	-4.494310e+00	-2.519898e+01
1.710000e-06	-6.003242e-07	-3.063885e-10	-4.170991e+00	-2.421294e+01
1.720000e-06	-5.537520e-07	-2.878860e-10	-3.847412e+00	-2.320704e+01
1.730000e-06	-5.070558e-07	-2.687540e-10	-3.522971e+00	-2.218116e+01
1.740000e-06	-4.603190e-07	-2.520374e-10	-3.198249e+00	-2.113526e+01
1.750000e-06	-4.136411e-07	-2.383204e-10	-2.873936e+00	-2.006936e+01
1.760000e-06	-3.668687e-07	-2.259327e-10	-2.548966e+00	-1.898352e+01
1.770000e-06	-3.199336e-07	-2.118490e-10	-2.222866e+00	-1.787792e+01
1.780000e-06	-2.730090e-07	-1.965012e-10	-1.896839e+00	-1.675279e+01
1.790000e-06	-2.261264e-07	-1.812959e-10	-1.571103e+00	-1.560841e+01
1.800000e-06	-1.792604e-07	-1.638040e-10	-1.245483e+00	-1.444519e+01
1.810000e-06	-1.323675e-07	-1.447616e-10	-9.196756e-01	-1.326355e+01
1.820000e-06	-8.545284e-08	-1.263139e-10	-5.937176e-01	-1.206404e+01
1.830000e-06	-3.855387e-08	-1.104295e-10	-2.678683e-01	-1.084724e+01
1.840000e-06	8.336844e-09	-9.611726e-11	5.792354e-02	-9.613837e+00
1.850000e-06	5.519208e-08	-8.360653e-11	3.834689e-01	-8.364557e+00
1.860000e-06	1.021248e-07	-6.772039e-11	7.095530e-01	-7.100207e+00
1.870000e-06	1.490737e-07	-4.762708e-11	1.035749e+00	-5.821657e+00
1.880000e-06	1.958824e-07	-2.800960e-11	1.360971e+00	-4.529837e+00
1.890000e-06	2.426583e-07	-1.108139e-11	1.685965e+00	-3.225734e+00
1.900000e-06	2.894852e-07	3.506765e-12	2.011313e+00	-1.910387e+00
1.910000e-06	3.363836e-07	1.884690e-11	2.337159e+00	-5.848850e-01
1.920000e-06	3.832653e-07	3.699379e-11	2.662888e+00	7.496395e-01
1.930000e-06	4.300098e-07	5.954871e-11	2.987664e+00	2.092015e+00
1.940000e-06	4.767000e-07	8.406502e-11	3.312062e+00	3.441037e+00
1.950000e-06	5.233742e-07	1.063874e-10	3.636350e+00	4.795472e+00
1.960000e-06	5.699687e-07	1.251138e-10	3.960084e+00	6.154063e+00
1.970000e-06	6.164637e-07	1.410893e-10	4.283127e+00	7.515537e+00
1.980000e-06	6.629006e-07	1.544998e-10	4.605765e+00	8.878611e+00
1.990000e-06	7.092394e-07	1.683706e-10	4.927723e+00	1.024199e+01
2.000000e-06	7.554996e-07	1.873417e-10	5.249134e+00	1.160440e+01
2.010000e-06	8.017859e-07	2.088028e-10	5.570726e+00	1.296454e+01
2.020000e-06	8.480086e-07	2.317095e-10	5.891877e+00	1.432114e+01
2.030000e-06	8.941660e-07	2.564637e-10	6.212574e+00	1.567297e+01
2.040000e-06	9.403048e-07	2.775779e-10	6.533141e+00	1.701877e+01
2.050000e-06	9.863553e-07	2.950487e-10	6.853096e+00	1.835736e+01
2.060000e-06	1.032358e-06	3.094937e-10	7.172717e+00	1.968756e+01
2.070000e-06	1.078324e-06	3.242810e-10	7.492086e+00	2.100825e+01
2.080000e-06	1.124287e-06	3.412086e-10	7.811427e+00	2.231833e+01
2.090000e-06	1.170163e-06	3.621787e-10	8.130173e+00	2.361677e+01
2.100000e-06	1.215898e-06	3.850526e-10	8.447933e+00	2.490257e+01
2.110000e-06	1.261523e-06	4.068818e-10	8.764936e+00	2.617481e+01
2.120000e-06	1.307041e-06	4.250783e-10	9.081184e+00	2.743259e+01
2.130000e-06	1.352435e-06	4.406398e-10	9.396583e+00	2.867510e+01
2.140000e-06	1.397733e-06	4.551461e-10	9.711306e+00	2.990158e+01
2.150000e-06	1.442994e-06	4.690624e-10	1.002577e+01	3.111133e+01
2.160000e-06	1.488187e-06	4.842304e-10	1.033977e+01	3.230373e+01
2.170000e-06	1.533294e-06	4.999275e-10	1.065317e+01	3.347820e+01
2.180000e-06	1.578253e-06	5.156775e-10	1.096554e+01	3.463425e+01
2.190000e-06	1.623031e-06	5.327601e-10	1.127665e+01	3.577144e+01
2.200000e-06	1.667692e-06	5.493950e-10	1.158695e+01	3.688940e+01
2.210000e-06	1.712230e-06	5.633088e-10	1.189640e+01	3.798783e+01
2.220000e-06	1.756591e-06	5.759072e-10	1.220461e+01	3.906650e+01
2.230000e-06	1.800797e-06	5.903125e-10	1.251175e+01	4.012521e+01
2.240000e-06	1.844890e-06	6.059787e-10	1.281811e+01	4.116386e+01
2.250000e-06	1.888916e-06	6.219946e-10	1.312400e+01	4.218239e+01
2.260000e-06	1.932863e-06	6.383199e-10	1.342933e+01	4.318078e+01
2.270000e-06	1.976774e-06	6.520579e-10	1.373442e+01	4.415909e+01
2.280000e-06	2.020643e-06	6.633492e-10	1.403922e+01	4.511743e+01
2.290000e-06	2.064384e-06	6.732348e-10	1.434313e+01	4.605592e+01
2.300000e-06	2.108075e-06	6.828127e-10	1.464669e+01	4.697477e+01
2.310000e-06	2.151718e-06	6.933171e-10	1.494992e+01	4.787420e+01
2.320000e-06	2.195277e-06	7.068999e-10	1.525256e+01	4.875448e+01
2.330000e-06	2.238725e-06	7.218563e-10	1.555443e+01	4.961592e+01
2.340000e-06	2.282015e-06	7.348720e-10	1.585521e+01	5.045883e+01
2.350000e-06	2.325155e-06	7.454853e-10	1.615494e+01	5.128357e+01
2.360000e-06	2.368046e-06	7.563446e-10	1.645294e+01	5.209053e+01
2.370000e-06	2.410565e-06	7.670190e-10	1.674836e+01	5.288009e+01
2.380000e-06	2.452775e-06	7.768731e-10	1.704163e+01	5.365267e+01
2.390000e-06	2.494735e-06	7.848894e-10	1.733316e+01	5.440870e+01
2.400000e-06	2.536393e-06	7.930763e-10	1.762260e+01	5.514860e+01
2.410000e-06	2.577761e-06	8.032911e-10	1.791002e+01	5.587282e+01
2.420000e-06	2.618743e-06	8.138010e-10	1.819475e+01	5.658179e+01
2.430000e-06	2.659426e-06	8.240178e-10	1.847742e+01	5.727595e+01
2.440000e-06	2.699902e-06	8.347878e-10	1.875864e+01	5.795575e+01
2.450000e-06	2.740063e-06	8.448037e-10	1.903767e+01	5.862162e+01
2.460000e-06	2.780038e-06	8.526313e-10	1.931542e+01	5.927398e+01
2.470000e-06	2.819942e-06	8.594138e-10	1.959267e+01	5.991326e+01
2.480000e-06	2.859770e-06	8.665908e-10	1.986939e+01	6.053985e+01
2.490000e-06	2.899485e-06	8.738767e-10	2.014532e+01	6.115416e+01
2.500000e-06	2.939080e-06	8.831444e-10	2.042043e+01	6.175657e+01
2.510000e-06	2.978564e-06	8.952838e-10	2.069476e+01	6.234745e+01
2.520000e-06	3.017847e-06	9.077058e-10	2.096769e+01	6.292715e+01
2.530000e-06	3.056942e-06	9.188622e-10	2.123932e+01	6.349601e+01
2.540000e-06	3.095768e-06	9.286302e-10	2.150908e+01	6.405436e+01
2.550000e-06	3.134256e-06	9.359504e-10	2.177649e+01	6.460251e+01
2.560000e-06	3.172516e-06	9.407681e-10	2.204232e+01	6.514075e+01
2.570000e-06	3.210566e-06	9.462250e-10	2.230668e+01	6.566935e+01
2.580000e-06	3.248450e-06	9.530068e-10	2.256990e+01	6.618857e+01
2.590000e-06	3.286171e-06	9.608605e-10	2.283198e+01	6.669868e+01
2.600000e-06	3.323683e-06	9.690394e-10	2.309261e+01	6.719989e+01
2.610000e-06	3.360949e-06	9.772559e-10	2.335153e+01	6.769243e+01
2.620000e-06	3.397999e-06	9.859952e-10	2.360895e+01	6.817651e+01
2.630000e-06	3.434803e-06	9.943925e-10	2.386466e+01	6.865233e+01
2.640000e-06	3.471283e-06	1.000807e-09	2.411812e+01	6.912006e+01
2.650000e-06	3.507500e-06	1.007991e-09	2.436975e+01	6.957989e+01
2.660000e-06	3.543552e-06	1.015359e-09	2.462023e+01	7.003197e+01
2.670000e-06	3.579470e-06	1.021219e-09	2.486979e+01	7.047648e+01
2.680000e-06	3.615282e-06	1.025217e-09	2.511861e+01	7.091355e+01
2.690000e-06	3.650984e-06	1.026951e-09	2.536666e+01	7.134333e+01
2.700000e-06	3.686491e-06	1.029541e-09	2.561336e+01	7.176596e+01
2.710000e-06	3.721841e-06	1.034866e-09	2.585897e+01	7.218157e+01
2.720000e-06	3.756983e-06	1.041948e-09	2.610313e+01	7.259028e+01
2.730000e-06	3.791738e-06	1.049933e-09	2.634460e+01	7.299223e+01
2.740000e-06	3.825950e-06	1.057361e-09	2.658231e+01	7.338752e+01
2.750000e-06	3.859686e-06	1.063141e-09	2.681670e+01	7.377628e+01
2.760000e-06	3.892914e-06	1.066888e-09	2.704757e+01	7.415862e+01
2.770000e-06	3.925597e-06	1.068581e-09	2.727465e+01	7.453465e+01
2.780000e-06	3.957893e-06	1.071305e-09	2.749903e+01	7.490448e+01
2.790000e-06	3.989919e-06	1.074926e-09	2.772155e+01	7.526821e+01
2.800000e-06	4.021791e-06	1.079404e-09	2.794299e+01	7.562595e+01
2.810000e-06	4.053512e-06	1.086783e-09	2.816339e+01	7.597780e+01
2.820000e-06	4.085087e-06	1.096020e-09	2.838276e+01	7.632386e+01
2.830000e-06	4.116527e-06	1.103584e-09	2.860121e+01	7.666422e+01
2.840000e-06	4.147737e-06	1.106689e-09	2.881805e+01	7.699897e+01
2.850000e-06	4.178596e-06	1.108265e-09	2.903245e+01	7.732821e+01
2.860000e-06	4.209094e-06	1.111898e-09	2.924436e+01	7.765201e+01
2.870000e-06	4.239212e-06	1.116625e-09	2.945361e+01	7.797047e+01
2.880000e-06	4.269060e-06	1.120813e-09	2.966099e+01	7.828365e+01
2.890000e-06	4.298707e-06	1.123401e-09	2.986698e+01	7.859163e+01
2.900000e-06	4.328076e-06	1.125129e-09	3.007103e+01	7.889447e+01
2.910000e-06	4.357145e-06	1.128157e-09	3.027300e+01	7.919224e+01
