# Temperatura_=_6.01
# Concentracion g/m^3_=_1620.0
# C_Vs_to_Am_M_A/Vsm_=_65563218390.804596
# pendiente_HvsI_1/m_=_3716.3
# ordenada_HvsI_A/m_=_1297.0
# frecuencia_Hz_=_135106.17431321452

Tiempo_(s)	Campo_(V.s)	Magnetizacion_(V.s)	Campo_(kA/m)	Magnetizacion_(A/m)
0.000000e+00	-5.519321e-06	-1.343863e-09	-3.837191e+01	-8.612920e+01
1.000000e-08	-5.519566e-06	-1.341179e-09	-3.837361e+01	-8.605477e+01
2.000000e-08	-5.519511e-06	-1.338570e-09	-3.837322e+01	-8.597714e+01
3.000000e-08	-5.519049e-06	-1.337389e-09	-3.837002e+01	-8.589646e+01
4.000000e-08	-5.518221e-06	-1.338472e-09	-3.836426e+01	-8.581291e+01
5.000000e-08	-5.516959e-06	-1.339131e-09	-3.835548e+01	-8.572667e+01
6.000000e-08	-5.515115e-06	-1.334484e-09	-3.834266e+01	-8.563791e+01
7.000000e-08	-5.512610e-06	-1.329888e-09	-3.832525e+01	-8.554682e+01
8.000000e-08	-5.509580e-06	-1.351646e-09	-3.830418e+01	-8.545356e+01
9.000000e-08	-5.506096e-06	-1.369965e-09	-3.827996e+01	-8.535832e+01
1.000000e-07	-5.502085e-06	-1.347926e-09	-3.825208e+01	-8.526127e+01
1.100000e-07	-5.497711e-06	-1.320873e-09	-3.822167e+01	-8.516259e+01
1.200000e-07	-5.493144e-06	-1.333811e-09	-3.818991e+01	-8.506242e+01
1.300000e-07	-5.488409e-06	-1.368644e-09	-3.815700e+01	-8.496093e+01
1.400000e-07	-5.483347e-06	-1.352657e-09	-3.812180e+01	-8.485828e+01
1.500000e-07	-5.477893e-06	-1.304317e-09	-3.808388e+01	-8.475460e+01
1.600000e-07	-5.472094e-06	-1.341650e-09	-3.804357e+01	-8.465002e+01
1.700000e-07	-5.465934e-06	-1.358381e-09	-3.800075e+01	-8.454467e+01
1.800000e-07	-5.459297e-06	-1.361488e-09	-3.795460e+01	-8.443866e+01
1.900000e-07	-5.452117e-06	-1.267725e-09	-3.790468e+01	-8.433207e+01
2.000000e-07	-5.444643e-06	-1.297749e-09	-3.785272e+01	-8.422499e+01
2.100000e-07	-5.436967e-06	-1.315779e-09	-3.779936e+01	-8.411749e+01
2.200000e-07	-5.429029e-06	-1.329302e-09	-3.774417e+01	-8.400961e+01
2.300000e-07	-5.420850e-06	-1.266300e-09	-3.768731e+01	-8.390138e+01
2.400000e-07	-5.412270e-06	-1.265870e-09	-3.762766e+01	-8.379282e+01
2.500000e-07	-5.402936e-06	-1.269938e-09	-3.756276e+01	-8.368391e+01
2.600000e-07	-5.392807e-06	-1.269888e-09	-3.749235e+01	-8.357465e+01
2.700000e-07	-5.382174e-06	-1.258613e-09	-3.741842e+01	-8.346498e+01
2.800000e-07	-5.371143e-06	-1.266093e-09	-3.734173e+01	-8.335484e+01
2.900000e-07	-5.359691e-06	-1.276861e-09	-3.726211e+01	-8.324415e+01
3.000000e-07	-5.347876e-06	-1.256218e-09	-3.717997e+01	-8.313280e+01
3.100000e-07	-5.335639e-06	-1.265601e-09	-3.709489e+01	-8.302069e+01
3.200000e-07	-5.322940e-06	-1.248387e-09	-3.700661e+01	-8.290766e+01
3.300000e-07	-5.309815e-06	-1.270775e-09	-3.691536e+01	-8.279356e+01
3.400000e-07	-5.296337e-06	-1.243566e-09	-3.682166e+01	-8.267823e+01
3.500000e-07	-5.282534e-06	-1.262583e-09	-3.672569e+01	-8.256146e+01
3.600000e-07	-5.268316e-06	-1.243689e-09	-3.662685e+01	-8.244306e+01
3.700000e-07	-5.253544e-06	-1.267060e-09	-3.652415e+01	-8.232280e+01
3.800000e-07	-5.238224e-06	-1.234073e-09	-3.641764e+01	-8.220046e+01
3.900000e-07	-5.222470e-06	-1.242807e-09	-3.630811e+01	-8.207580e+01
4.000000e-07	-5.206193e-06	-1.234928e-09	-3.619495e+01	-8.194856e+01
4.100000e-07	-5.189511e-06	-1.245459e-09	-3.607897e+01	-8.181849e+01
4.200000e-07	-5.172566e-06	-1.220601e-09	-3.596116e+01	-8.168532e+01
4.300000e-07	-5.155352e-06	-1.241862e-09	-3.584149e+01	-8.154880e+01
4.400000e-07	-5.137841e-06	-1.237789e-09	-3.571975e+01	-8.140865e+01
4.500000e-07	-5.119949e-06	-1.222692e-09	-3.559536e+01	-8.126460e+01
4.600000e-07	-5.101624e-06	-1.202934e-09	-3.546796e+01	-8.111640e+01
4.700000e-07	-5.082896e-06	-1.226817e-09	-3.533775e+01	-8.096378e+01
4.800000e-07	-5.063756e-06	-1.216261e-09	-3.520468e+01	-8.080649e+01
4.900000e-07	-5.044286e-06	-1.208240e-09	-3.506933e+01	-8.064429e+01
5.000000e-07	-5.024601e-06	-1.216710e-09	-3.493247e+01	-8.047695e+01
5.100000e-07	-5.004745e-06	-1.218572e-09	-3.479443e+01	-8.030424e+01
5.200000e-07	-4.984650e-06	-1.194556e-09	-3.465472e+01	-8.012597e+01
5.300000e-07	-4.964157e-06	-1.200017e-09	-3.451224e+01	-7.994193e+01
5.400000e-07	-4.943243e-06	-1.206590e-09	-3.436684e+01	-7.975198e+01
5.500000e-07	-4.921987e-06	-1.178355e-09	-3.421907e+01	-7.955594e+01
5.600000e-07	-4.900406e-06	-1.170457e-09	-3.406903e+01	-7.935369e+01
5.700000e-07	-4.878571e-06	-1.186818e-09	-3.391723e+01	-7.914513e+01
5.800000e-07	-4.856436e-06	-1.182300e-09	-3.376334e+01	-7.893017e+01
5.900000e-07	-4.833911e-06	-1.159513e-09	-3.360674e+01	-7.870874e+01
6.000000e-07	-4.810966e-06	-1.171634e-09	-3.344722e+01	-7.848080e+01
6.100000e-07	-4.787644e-06	-1.169403e-09	-3.328507e+01	-7.824634e+01
6.200000e-07	-4.764112e-06	-1.159089e-09	-3.312148e+01	-7.800536e+01
6.300000e-07	-4.740436e-06	-1.152177e-09	-3.295688e+01	-7.775790e+01
6.400000e-07	-4.716508e-06	-1.163650e-09	-3.279052e+01	-7.750402e+01
6.500000e-07	-4.692230e-06	-1.145302e-09	-3.262173e+01	-7.724378e+01
6.600000e-07	-4.667551e-06	-1.142579e-09	-3.245015e+01	-7.697729e+01
6.700000e-07	-4.642387e-06	-1.139035e-09	-3.227521e+01	-7.670466e+01
6.800000e-07	-4.616748e-06	-1.139737e-09	-3.209696e+01	-7.642604e+01
6.900000e-07	-4.590550e-06	-1.126761e-09	-3.191482e+01	-7.614157e+01
7.000000e-07	-4.563767e-06	-1.136118e-09	-3.172862e+01	-7.585144e+01
7.100000e-07	-4.536549e-06	-1.128575e-09	-3.153939e+01	-7.555582e+01
7.200000e-07	-4.509100e-06	-1.125102e-09	-3.134856e+01	-7.525492e+01
7.300000e-07	-4.481477e-06	-1.118245e-09	-3.115652e+01	-7.494893e+01
7.400000e-07	-4.453671e-06	-1.120908e-09	-3.096320e+01	-7.463808e+01
7.500000e-07	-4.425641e-06	-1.107795e-09	-3.076833e+01	-7.432258e+01
7.600000e-07	-4.397330e-06	-1.104259e-09	-3.057150e+01	-7.400266e+01
7.700000e-07	-4.368748e-06	-1.097729e-09	-3.037279e+01	-7.367853e+01
7.800000e-07	-4.339818e-06	-1.091793e-09	-3.017166e+01	-7.335043e+01
7.900000e-07	-4.310502e-06	-1.083539e-09	-2.996785e+01	-7.301856e+01
8.000000e-07	-4.280903e-06	-1.080846e-09	-2.976207e+01	-7.268314e+01
8.100000e-07	-4.251103e-06	-1.068947e-09	-2.955489e+01	-7.234436e+01
8.200000e-07	-4.221059e-06	-1.057167e-09	-2.934601e+01	-7.200243e+01
8.300000e-07	-4.190636e-06	-1.052605e-09	-2.913451e+01	-7.165751e+01
8.400000e-07	-4.159804e-06	-1.046133e-09	-2.892016e+01	-7.130976e+01
8.500000e-07	-4.128741e-06	-1.039386e-09	-2.870420e+01	-7.095934e+01
8.600000e-07	-4.097580e-06	-1.035593e-09	-2.848755e+01	-7.060636e+01
8.700000e-07	-4.066245e-06	-1.033214e-09	-2.826971e+01	-7.025094e+01
8.800000e-07	-4.034640e-06	-1.021609e-09	-2.804997e+01	-6.989316e+01
8.900000e-07	-4.002849e-06	-1.016374e-09	-2.782896e+01	-6.953308e+01
9.000000e-07	-3.970854e-06	-1.005340e-09	-2.760652e+01	-6.917075e+01
9.100000e-07	-3.938508e-06	-9.961215e-10	-2.738164e+01	-6.880619e+01
9.200000e-07	-3.905861e-06	-9.892354e-10	-2.715467e+01	-6.843938e+01
9.300000e-07	-3.872935e-06	-9.907989e-10	-2.692576e+01	-6.807031e+01
9.400000e-07	-3.839565e-06	-9.834416e-10	-2.669376e+01	-6.769893e+01
9.500000e-07	-3.805559e-06	-9.796435e-10	-2.645734e+01	-6.732516e+01
9.600000e-07	-3.771064e-06	-9.740330e-10	-2.621752e+01	-6.694891e+01
9.700000e-07	-3.736311e-06	-9.701145e-10	-2.597591e+01	-6.657007e+01
9.800000e-07	-3.701240e-06	-9.571852e-10	-2.573209e+01	-6.618851e+01
9.900000e-07	-3.665868e-06	-9.537350e-10	-2.548617e+01	-6.580408e+01
1.000000e-06	-3.630312e-06	-9.488409e-10	-2.523897e+01	-6.541661e+01
1.010000e-06	-3.594627e-06	-9.467406e-10	-2.499088e+01	-6.502594e+01
1.020000e-06	-3.558800e-06	-9.435484e-10	-2.474180e+01	-6.463187e+01
1.030000e-06	-3.522805e-06	-9.430436e-10	-2.449156e+01	-6.423420e+01
1.040000e-06	-3.486571e-06	-9.338537e-10	-2.423964e+01	-6.383274e+01
1.050000e-06	-3.450049e-06	-9.277026e-10	-2.398574e+01	-6.342727e+01
1.060000e-06	-3.413294e-06	-9.205434e-10	-2.373020e+01	-6.301758e+01
1.070000e-06	-3.376322e-06	-9.119964e-10	-2.347316e+01	-6.260346e+01
1.080000e-06	-3.339057e-06	-9.014592e-10	-2.321408e+01	-6.218471e+01
1.090000e-06	-3.301519e-06	-8.960388e-10	-2.295311e+01	-6.176113e+01
1.100000e-06	-3.263806e-06	-8.895103e-10	-2.269092e+01	-6.133251e+01
1.110000e-06	-3.225892e-06	-8.811211e-10	-2.242733e+01	-6.089868e+01
1.120000e-06	-3.187811e-06	-8.747047e-10	-2.216258e+01	-6.045945e+01
1.130000e-06	-3.149509e-06	-8.677738e-10	-2.189629e+01	-6.001468e+01
1.140000e-06	-3.110934e-06	-8.598607e-10	-2.162810e+01	-5.956420e+01
1.150000e-06	-3.072183e-06	-8.490371e-10	-2.135870e+01	-5.910791e+01
1.160000e-06	-3.033195e-06	-8.417836e-10	-2.108764e+01	-5.864568e+01
1.170000e-06	-2.993942e-06	-8.328153e-10	-2.081474e+01	-5.817742e+01
1.180000e-06	-2.954513e-06	-8.237632e-10	-2.054062e+01	-5.770307e+01
1.190000e-06	-2.914955e-06	-8.154324e-10	-2.026560e+01	-5.722256e+01
1.200000e-06	-2.875272e-06	-8.078945e-10	-1.998972e+01	-5.673587e+01
1.210000e-06	-2.835490e-06	-7.963855e-10	-1.971314e+01	-5.624298e+01
1.220000e-06	-2.795619e-06	-7.886698e-10	-1.943595e+01	-5.574390e+01
1.230000e-06	-2.755596e-06	-7.815653e-10	-1.915770e+01	-5.523866e+01
1.240000e-06	-2.715332e-06	-7.740033e-10	-1.887777e+01	-5.472729e+01
1.250000e-06	-2.674872e-06	-7.650422e-10	-1.859648e+01	-5.420986e+01
1.260000e-06	-2.634286e-06	-7.601528e-10	-1.831431e+01	-5.368644e+01
1.270000e-06	-2.593362e-06	-7.505715e-10	-1.802980e+01	-5.315711e+01
1.280000e-06	-2.552029e-06	-7.410819e-10	-1.774244e+01	-5.262198e+01
1.290000e-06	-2.510489e-06	-7.300661e-10	-1.745364e+01	-5.208113e+01
1.300000e-06	-2.468734e-06	-7.202292e-10	-1.716335e+01	-5.153469e+01
1.310000e-06	-2.426615e-06	-7.101554e-10	-1.687052e+01	-5.098275e+01
1.320000e-06	-2.384188e-06	-7.026704e-10	-1.657556e+01	-5.042544e+01
1.330000e-06	-2.341559e-06	-6.955106e-10	-1.627919e+01	-4.986285e+01
1.340000e-06	-2.298680e-06	-6.869430e-10	-1.598108e+01	-4.929508e+01
1.350000e-06	-2.255548e-06	-6.803354e-10	-1.568122e+01	-4.872222e+01
1.360000e-06	-2.212258e-06	-6.753954e-10	-1.538025e+01	-4.814435e+01
1.370000e-06	-2.168844e-06	-6.672390e-10	-1.507843e+01	-4.756151e+01
1.380000e-06	-2.125281e-06	-6.582780e-10	-1.477556e+01	-4.697375e+01
1.390000e-06	-2.081641e-06	-6.479269e-10	-1.447217e+01	-4.638108e+01
1.400000e-06	-2.037974e-06	-6.373439e-10	-1.416858e+01	-4.578349e+01
1.410000e-06	-1.994173e-06	-6.265413e-10	-1.386406e+01	-4.518093e+01
1.420000e-06	-1.950251e-06	-6.176922e-10	-1.355870e+01	-4.457333e+01
1.430000e-06	-1.906280e-06	-6.125307e-10	-1.325300e+01	-4.396059e+01
1.440000e-06	-1.862172e-06	-6.067681e-10	-1.294636e+01	-4.334256e+01
1.450000e-06	-1.817927e-06	-5.992437e-10	-1.263875e+01	-4.271907e+01
1.460000e-06	-1.773574e-06	-5.901625e-10	-1.233040e+01	-4.208989e+01
1.470000e-06	-1.729097e-06	-5.809137e-10	-1.202118e+01	-4.145476e+01
1.480000e-06	-1.684465e-06	-5.682956e-10	-1.171088e+01	-4.081340e+01
1.490000e-06	-1.639711e-06	-5.559401e-10	-1.139974e+01	-4.016546e+01
1.500000e-06	-1.594862e-06	-5.459441e-10	-1.108794e+01	-3.951057e+01
1.510000e-06	-1.549884e-06	-5.380368e-10	-1.077524e+01	-3.884831e+01
1.520000e-06	-1.504806e-06	-5.295668e-10	-1.046185e+01	-3.817822e+01
1.530000e-06	-1.459614e-06	-5.201663e-10	-1.014766e+01	-3.749983e+01
1.540000e-06	-1.414286e-06	-5.102920e-10	-9.832524e+00	-3.681259e+01
1.550000e-06	-1.368902e-06	-5.007295e-10	-9.516998e+00	-3.611597e+01
1.560000e-06	-1.323458e-06	-4.897082e-10	-9.201059e+00	-3.540937e+01
1.570000e-06	-1.277963e-06	-4.789253e-10	-8.884768e+00	-3.469219e+01
1.580000e-06	-1.232410e-06	-4.675959e-10	-8.568068e+00	-3.396380e+01
1.590000e-06	-1.186708e-06	-4.549595e-10	-8.250337e+00	-3.322356e+01
1.600000e-06	-1.140858e-06	-4.422606e-10	-7.931571e+00	-3.247081e+01
1.610000e-06	-1.094966e-06	-4.305800e-10	-7.612520e+00	-3.170488e+01
1.620000e-06	-1.049053e-06	-4.164748e-10	-7.293318e+00	-3.092510e+01
1.630000e-06	-1.003076e-06	-4.018764e-10	-6.973676e+00	-3.013081e+01
1.640000e-06	-9.570232e-07	-3.890178e-10	-6.653500e+00	-2.932136e+01
1.650000e-06	-9.108710e-07	-3.775330e-10	-6.332637e+00	-2.849611e+01
1.660000e-06	-8.646106e-07	-3.664770e-10	-6.011022e+00	-2.765442e+01
1.670000e-06	-8.182599e-07	-3.553879e-10	-5.688778e+00	-2.679571e+01
1.680000e-06	-7.718164e-07	-3.427149e-10	-5.365890e+00	-2.591941e+01
1.690000e-06	-7.253211e-07	-3.289348e-10	-5.042641e+00	-2.502500e+01
1.700000e-06	-6.788415e-07	-3.135623e-10	-4.719501e+00	-2.411198e+01
1.710000e-06	-6.323049e-07	-2.983051e-10	-4.395965e+00	-2.317992e+01
1.720000e-06	-5.857380e-07	-2.834004e-10	-4.072219e+00	-2.222845e+01
1.730000e-06	-5.391808e-07	-2.680426e-10	-3.748540e+00	-2.125722e+01
1.740000e-06	-4.925559e-07	-2.520335e-10	-3.424390e+00	-2.026600e+01
1.750000e-06	-4.458656e-07	-2.357291e-10	-3.099786e+00	-1.925457e+01
1.760000e-06	-3.990990e-07	-2.201389e-10	-2.774651e+00	-1.822283e+01
1.770000e-06	-3.522961e-07	-2.039680e-10	-2.449264e+00	-1.717071e+01
1.780000e-06	-3.054709e-07	-1.878803e-10	-2.123721e+00	-1.609826e+01
1.790000e-06	-2.585783e-07	-1.723526e-10	-1.797711e+00	-1.500559e+01
1.800000e-06	-2.117697e-07	-1.568864e-10	-1.472284e+00	-1.389289e+01
1.810000e-06	-1.649764e-07	-1.401301e-10	-1.146963e+00	-1.276044e+01
1.820000e-06	-1.180848e-07	-1.231499e-10	-8.209596e-01	-1.160861e+01
1.830000e-06	-7.119833e-08	-1.061291e-10	-4.949913e-01	-1.043785e+01
1.840000e-06	-2.434895e-08	-8.923821e-11	-1.692809e-01	-9.248685e+00
1.850000e-06	2.248277e-08	-7.143892e-11	1.563067e-01	-8.041744e+00
1.860000e-06	6.936680e-08	-5.362064e-11	4.822579e-01	-6.817728e+00
1.870000e-06	1.162608e-07	-3.505894e-11	8.082783e-01	-5.577420e+00
1.880000e-06	1.631138e-07	-1.761204e-11	1.134014e+00	-4.321684e+00
1.890000e-06	2.100025e-07	-1.053071e-12	1.459998e+00	-3.051455e+00
1.900000e-06	2.569337e-07	1.471695e-11	1.786277e+00	-1.767743e+00
1.910000e-06	3.037926e-07	3.126412e-11	2.112053e+00	-4.716232e-01
1.920000e-06	3.505348e-07	4.959379e-11	2.437019e+00	8.357655e-01
1.930000e-06	3.972897e-07	6.914022e-11	2.762072e+00	2.153228e+00
1.940000e-06	4.440408e-07	8.789686e-11	3.087099e+00	3.479517e+00
1.950000e-06	4.907405e-07	1.062277e-10	3.411769e+00	4.813339e+00
1.960000e-06	5.374384e-07	1.245050e-10	3.736426e+00	6.153362e+00
1.970000e-06	5.840289e-07	1.422282e-10	4.060337e+00	7.498221e+00
1.980000e-06	6.305645e-07	1.609331e-10	4.383865e+00	8.846523e+00
1.990000e-06	6.770854e-07	1.781515e-10	4.707292e+00	1.019686e+01
2.000000e-06	7.235051e-07	1.931076e-10	5.030015e+00	1.154781e+01
2.010000e-06	7.698178e-07	2.109659e-10	5.351995e+00	1.289793e+01
2.020000e-06	8.161825e-07	2.300076e-10	5.674336e+00	1.424582e+01
2.030000e-06	8.626206e-07	2.505848e-10	5.997186e+00	1.559005e+01
2.040000e-06	9.088634e-07	2.725921e-10	6.318680e+00	1.692921e+01
2.050000e-06	9.549208e-07	2.920028e-10	6.638884e+00	1.826195e+01
2.060000e-06	1.000869e-06	3.106441e-10	6.958330e+00	1.958689e+01
2.070000e-06	1.046708e-06	3.281020e-10	7.277012e+00	2.090275e+01
2.080000e-06	1.092511e-06	3.449393e-10	7.595450e+00	2.220824e+01
2.090000e-06	1.138276e-06	3.620956e-10	7.913624e+00	2.350214e+01
2.100000e-06	1.183958e-06	3.820588e-10	8.231219e+00	2.478330e+01
2.110000e-06	1.229666e-06	4.027267e-10	8.548994e+00	2.605060e+01
2.120000e-06	1.275374e-06	4.223035e-10	8.866765e+00	2.730299e+01
2.130000e-06	1.320894e-06	4.381138e-10	9.183235e+00	2.853951e+01
2.140000e-06	1.366224e-06	4.511028e-10	9.498383e+00	2.975923e+01
2.150000e-06	1.411520e-06	4.634399e-10	9.813295e+00	3.096134e+01
2.160000e-06	1.456758e-06	4.764877e-10	1.012780e+01	3.214506e+01
2.170000e-06	1.501849e-06	4.909818e-10	1.044128e+01	3.330972e+01
2.180000e-06	1.546906e-06	5.069175e-10	1.075453e+01	3.445472e+01
2.190000e-06	1.591868e-06	5.234252e-10	1.106713e+01	3.557955e+01
2.200000e-06	1.636600e-06	5.400588e-10	1.137812e+01	3.668376e+01
2.210000e-06	1.681178e-06	5.547776e-10	1.168803e+01	3.776699e+01
2.220000e-06	1.725612e-06	5.672076e-10	1.199695e+01	3.882897e+01
2.230000e-06	1.769877e-06	5.781803e-10	1.230470e+01	3.986950e+01
2.240000e-06	1.814065e-06	5.901739e-10	1.261190e+01	4.088845e+01
2.250000e-06	1.858154e-06	6.035832e-10	1.291842e+01	4.188577e+01
2.260000e-06	1.902129e-06	6.192446e-10	1.322415e+01	4.286149e+01
2.270000e-06	1.945996e-06	6.361173e-10	1.352912e+01	4.381569e+01
2.280000e-06	1.989784e-06	6.499892e-10	1.383355e+01	4.474854e+01
2.290000e-06	2.033544e-06	6.608398e-10	1.413778e+01	4.566025e+01
2.300000e-06	2.077273e-06	6.709597e-10	1.444180e+01	4.655109e+01
2.310000e-06	2.120979e-06	6.809057e-10	1.474566e+01	4.742139e+01
2.320000e-06	2.164644e-06	6.908612e-10	1.504923e+01	4.827154e+01
2.330000e-06	2.208226e-06	7.043882e-10	1.535222e+01	4.910193e+01
2.340000e-06	2.251640e-06	7.193956e-10	1.565405e+01	4.991305e+01
2.350000e-06	2.294865e-06	7.342681e-10	1.595456e+01	5.070537e+01
2.360000e-06	2.337810e-06	7.477128e-10	1.625313e+01	5.147942e+01
2.370000e-06	2.380456e-06	7.584113e-10	1.654961e+01	5.223573e+01
2.380000e-06	2.422893e-06	7.666736e-10	1.684465e+01	5.297489e+01
2.390000e-06	2.465055e-06	7.757472e-10	1.713777e+01	5.369745e+01
2.400000e-06	2.506784e-06	7.853794e-10	1.742788e+01	5.440401e+01
2.410000e-06	2.548051e-06	7.960301e-10	1.771479e+01	5.509516e+01
2.420000e-06	2.588999e-06	8.079853e-10	1.799946e+01	5.577149e+01
2.430000e-06	2.629800e-06	8.196763e-10	1.828313e+01	5.643359e+01
2.440000e-06	2.670431e-06	8.298504e-10	1.856561e+01	5.708204e+01
2.450000e-06	2.710791e-06	8.380901e-10	1.884620e+01	5.771741e+01
2.460000e-06	2.750924e-06	8.438980e-10	1.912521e+01	5.834025e+01
2.470000e-06	2.790911e-06	8.491327e-10	1.940321e+01	5.895110e+01
2.480000e-06	2.830790e-06	8.565485e-10	1.968047e+01	5.955048e+01
2.490000e-06	2.870562e-06	8.655244e-10	1.995697e+01	6.013887e+01
2.500000e-06	2.910242e-06	8.764361e-10	2.023284e+01	6.071676e+01
2.510000e-06	2.949797e-06	8.905837e-10	2.050784e+01	6.128458e+01
2.520000e-06	2.989179e-06	9.049224e-10	2.078163e+01	6.184274e+01
2.530000e-06	3.028314e-06	9.158176e-10	2.105371e+01	6.239164e+01
2.540000e-06	3.067247e-06	9.234856e-10	2.132438e+01	6.293163e+01
2.550000e-06	3.106005e-06	9.293217e-10	2.159384e+01	6.346304e+01
2.560000e-06	3.144448e-06	9.336633e-10	2.186111e+01	6.398617e+01
2.570000e-06	3.182618e-06	9.377015e-10	2.212647e+01	6.450128e+01
2.580000e-06	3.220611e-06	9.459590e-10	2.239061e+01	6.500861e+01
2.590000e-06	3.258433e-06	9.581970e-10	2.265356e+01	6.550838e+01
2.600000e-06	3.296139e-06	9.698242e-10	2.291570e+01	6.600077e+01
2.610000e-06	3.333647e-06	9.784136e-10	2.317647e+01	6.648594e+01
2.620000e-06	3.370855e-06	9.846685e-10	2.343515e+01	6.696403e+01
2.630000e-06	3.407797e-06	9.892205e-10	2.369198e+01	6.743514e+01
2.640000e-06	3.444466e-06	9.924296e-10	2.394692e+01	6.789938e+01
2.650000e-06	3.480845e-06	9.965367e-10	2.419984e+01	6.835680e+01
2.660000e-06	3.516943e-06	1.004612e-09	2.445080e+01	6.880747e+01
2.670000e-06	3.552840e-06	1.013366e-09	2.470036e+01	6.925143e+01
2.680000e-06	3.588619e-06	1.020548e-09	2.494911e+01	6.968870e+01
2.690000e-06	3.624324e-06	1.025849e-09	2.519734e+01	7.011931e+01
2.700000e-06	3.659931e-06	1.026634e-09	2.544489e+01	7.054325e+01
2.710000e-06	3.695326e-06	1.028376e-09	2.569097e+01	7.096054e+01
2.720000e-06	3.730464e-06	1.035073e-09	2.593526e+01	7.137118e+01
2.730000e-06	3.765378e-06	1.043263e-09	2.617799e+01	7.177514e+01
2.740000e-06	3.799920e-06	1.050101e-09	2.641814e+01	7.217244e+01
2.750000e-06	3.833929e-06	1.055200e-09	2.665457e+01	7.256306e+01
2.760000e-06	3.867387e-06	1.058791e-09	2.688718e+01	7.294699e+01
2.770000e-06	3.900338e-06	1.059971e-09	2.711627e+01	7.332424e+01
2.780000e-06	3.932888e-06	1.060583e-09	2.734257e+01	7.369482e+01
2.790000e-06	3.965186e-06	1.064003e-09	2.756712e+01	7.405873e+01
2.800000e-06	3.997275e-06	1.069204e-09	2.779020e+01	7.441598e+01
2.810000e-06	4.029153e-06	1.074971e-09	2.801183e+01	7.476662e+01
2.820000e-06	4.060860e-06	1.081682e-09	2.823227e+01	7.511065e+01
2.830000e-06	4.092378e-06	1.087620e-09	2.845139e+01	7.544814e+01
2.840000e-06	4.123735e-06	1.092454e-09	2.866939e+01	7.577912e+01
2.850000e-06	4.154873e-06	1.095297e-09	2.888587e+01	7.610367e+01
2.860000e-06	4.185645e-06	1.096074e-09	2.909981e+01	7.642183e+01
2.870000e-06	4.216075e-06	1.097997e-09	2.931136e+01	7.673370e+01
2.880000e-06	4.246197e-06	1.101222e-09	2.952078e+01	7.703936e+01
2.890000e-06	4.275964e-06	1.103951e-09	2.972773e+01	7.733889e+01
2.900000e-06	4.305464e-06	1.108202e-09	2.993282e+01	7.763240e+01
2.910000e-06	4.334783e-06	1.114509e-09	3.013666e+01	7.792000e+01
