# Temperatura_=_-0.3
# Concentracion g/m^3_=_1620.0
# C_Vs_to_Am_M_A/Vsm_=_65563218390.804596
# pendiente_HvsI_1/m_=_3716.3
# ordenada_HvsI_A/m_=_1297.0
# frecuencia_Hz_=_135091.8428482278

Tiempo_(s)	Campo_(V.s)	Magnetizacion_(V.s)	Campo_(kA/m)	Magnetizacion_(A/m)
0.000000e+00	-5.539164e-06	-1.695321e-09	-3.838444e+01	-1.097138e+02
1.000000e-08	-5.539478e-06	-1.691548e-09	-3.838662e+01	-1.096917e+02
2.000000e-08	-5.539607e-06	-1.688145e-09	-3.838751e+01	-1.096665e+02
3.000000e-08	-5.539403e-06	-1.688328e-09	-3.838610e+01	-1.096384e+02
4.000000e-08	-5.538655e-06	-1.689518e-09	-3.838092e+01	-1.096074e+02
5.000000e-08	-5.537223e-06	-1.690679e-09	-3.837099e+01	-1.095736e+02
6.000000e-08	-5.535216e-06	-1.690054e-09	-3.835708e+01	-1.095370e+02
7.000000e-08	-5.532740e-06	-1.686336e-09	-3.833992e+01	-1.094977e+02
8.000000e-08	-5.529745e-06	-1.699825e-09	-3.831917e+01	-1.094557e+02
9.000000e-08	-5.526228e-06	-1.718690e-09	-3.829480e+01	-1.094110e+02
1.000000e-07	-5.522263e-06	-1.700021e-09	-3.826732e+01	-1.093638e+02
1.100000e-07	-5.517983e-06	-1.686337e-09	-3.823766e+01	-1.093140e+02
1.200000e-07	-5.513498e-06	-1.684885e-09	-3.820659e+01	-1.092617e+02
1.300000e-07	-5.508794e-06	-1.708623e-09	-3.817399e+01	-1.092069e+02
1.400000e-07	-5.503729e-06	-1.669092e-09	-3.813889e+01	-1.091497e+02
1.500000e-07	-5.498313e-06	-1.655252e-09	-3.810136e+01	-1.090899e+02
1.600000e-07	-5.492488e-06	-1.686752e-09	-3.806099e+01	-1.090277e+02
1.700000e-07	-5.486189e-06	-1.726322e-09	-3.801735e+01	-1.089630e+02
1.800000e-07	-5.479537e-06	-1.684310e-09	-3.797124e+01	-1.088958e+02
1.900000e-07	-5.472466e-06	-1.643836e-09	-3.792225e+01	-1.088261e+02
2.000000e-07	-5.465036e-06	-1.658925e-09	-3.787076e+01	-1.087538e+02
2.100000e-07	-5.457388e-06	-1.691404e-09	-3.781776e+01	-1.086789e+02
2.200000e-07	-5.449505e-06	-1.681404e-09	-3.776313e+01	-1.086014e+02
2.300000e-07	-5.441411e-06	-1.655096e-09	-3.770705e+01	-1.085212e+02
2.400000e-07	-5.432990e-06	-1.655179e-09	-3.764869e+01	-1.084382e+02
2.500000e-07	-5.423907e-06	-1.642922e-09	-3.758575e+01	-1.083523e+02
2.600000e-07	-5.414046e-06	-1.627521e-09	-3.751742e+01	-1.082635e+02
2.700000e-07	-5.403520e-06	-1.614095e-09	-3.744448e+01	-1.081716e+02
2.800000e-07	-5.392440e-06	-1.639185e-09	-3.736769e+01	-1.080766e+02
2.900000e-07	-5.380987e-06	-1.631457e-09	-3.728833e+01	-1.079783e+02
3.000000e-07	-5.369181e-06	-1.628273e-09	-3.720652e+01	-1.078766e+02
3.100000e-07	-5.356974e-06	-1.619766e-09	-3.712193e+01	-1.077713e+02
3.200000e-07	-5.344331e-06	-1.626930e-09	-3.703432e+01	-1.076624e+02
3.300000e-07	-5.331243e-06	-1.611369e-09	-3.694362e+01	-1.075497e+02
3.400000e-07	-5.317833e-06	-1.615478e-09	-3.685069e+01	-1.074330e+02
3.500000e-07	-5.304056e-06	-1.603289e-09	-3.675522e+01	-1.073122e+02
3.600000e-07	-5.289893e-06	-1.620616e-09	-3.665708e+01	-1.071872e+02
3.700000e-07	-5.275268e-06	-1.627481e-09	-3.655574e+01	-1.070577e+02
3.800000e-07	-5.260140e-06	-1.623434e-09	-3.645091e+01	-1.069236e+02
3.900000e-07	-5.244516e-06	-1.602471e-09	-3.634263e+01	-1.067848e+02
4.000000e-07	-5.228409e-06	-1.614538e-09	-3.623102e+01	-1.066410e+02
4.100000e-07	-5.211913e-06	-1.601460e-09	-3.611671e+01	-1.064922e+02
4.200000e-07	-5.195096e-06	-1.578744e-09	-3.600017e+01	-1.063382e+02
4.300000e-07	-5.177928e-06	-1.595470e-09	-3.588120e+01	-1.061787e+02
4.400000e-07	-5.160376e-06	-1.612589e-09	-3.575958e+01	-1.060137e+02
4.500000e-07	-5.142475e-06	-1.579919e-09	-3.563553e+01	-1.058429e+02
4.600000e-07	-5.124098e-06	-1.567625e-09	-3.550818e+01	-1.056664e+02
4.700000e-07	-5.105261e-06	-1.608433e-09	-3.537764e+01	-1.054838e+02
4.800000e-07	-5.086113e-06	-1.583660e-09	-3.524496e+01	-1.052951e+02
4.900000e-07	-5.066692e-06	-1.548578e-09	-3.511037e+01	-1.051001e+02
5.000000e-07	-5.047109e-06	-1.577785e-09	-3.497468e+01	-1.048987e+02
5.100000e-07	-5.027390e-06	-1.588174e-09	-3.483803e+01	-1.046909e+02
5.200000e-07	-5.007293e-06	-1.538032e-09	-3.469876e+01	-1.044764e+02
5.300000e-07	-4.986735e-06	-1.555719e-09	-3.455630e+01	-1.042553e+02
5.400000e-07	-4.965882e-06	-1.577782e-09	-3.441180e+01	-1.040274e+02
5.500000e-07	-4.944662e-06	-1.533899e-09	-3.426475e+01	-1.037927e+02
5.600000e-07	-4.923054e-06	-1.516415e-09	-3.411502e+01	-1.035511e+02
5.700000e-07	-4.901174e-06	-1.562701e-09	-3.396340e+01	-1.033025e+02
5.800000e-07	-4.878984e-06	-1.537988e-09	-3.380963e+01	-1.030469e+02
5.900000e-07	-4.856421e-06	-1.507271e-09	-3.365327e+01	-1.027843e+02
6.000000e-07	-4.833426e-06	-1.535670e-09	-3.349393e+01	-1.025147e+02
6.100000e-07	-4.810170e-06	-1.542849e-09	-3.333277e+01	-1.022380e+02
6.200000e-07	-4.786670e-06	-1.505594e-09	-3.316993e+01	-1.019543e+02
6.300000e-07	-4.762932e-06	-1.519758e-09	-3.300543e+01	-1.016635e+02
6.400000e-07	-4.739016e-06	-1.526281e-09	-3.283970e+01	-1.013658e+02
6.500000e-07	-4.714785e-06	-1.494985e-09	-3.267179e+01	-1.010611e+02
6.600000e-07	-4.690178e-06	-1.491069e-09	-3.250127e+01	-1.007495e+02
6.700000e-07	-4.664987e-06	-1.507775e-09	-3.232670e+01	-1.004310e+02
6.800000e-07	-4.639015e-06	-1.490611e-09	-3.214673e+01	-1.001057e+02
6.900000e-07	-4.612440e-06	-1.481549e-09	-3.196257e+01	-9.977371e+01
7.000000e-07	-4.585527e-06	-1.488924e-09	-3.177608e+01	-9.943504e+01
7.100000e-07	-4.558267e-06	-1.474222e-09	-3.158717e+01	-9.908978e+01
7.200000e-07	-4.530778e-06	-1.452876e-09	-3.139668e+01	-9.873804e+01
7.300000e-07	-4.503209e-06	-1.449522e-09	-3.120564e+01	-9.837990e+01
7.400000e-07	-4.475513e-06	-1.440689e-09	-3.101371e+01	-9.801547e+01
7.500000e-07	-4.447569e-06	-1.426537e-09	-3.082008e+01	-9.764483e+01
7.600000e-07	-4.419276e-06	-1.426646e-09	-3.062401e+01	-9.726809e+01
7.700000e-07	-4.390620e-06	-1.426393e-09	-3.042544e+01	-9.688536e+01
7.800000e-07	-4.361578e-06	-1.422119e-09	-3.022419e+01	-9.649674e+01
7.900000e-07	-4.332251e-06	-1.416711e-09	-3.002096e+01	-9.610233e+01
8.000000e-07	-4.302737e-06	-1.411977e-09	-2.981644e+01	-9.570224e+01
8.100000e-07	-4.272925e-06	-1.395356e-09	-2.960985e+01	-9.529656e+01
8.200000e-07	-4.242766e-06	-1.381479e-09	-2.940087e+01	-9.488541e+01
8.300000e-07	-4.212324e-06	-1.369992e-09	-2.918991e+01	-9.446886e+01
8.400000e-07	-4.181496e-06	-1.362163e-09	-2.897628e+01	-9.404703e+01
8.500000e-07	-4.150430e-06	-1.354974e-09	-2.876101e+01	-9.361999e+01
8.600000e-07	-4.119252e-06	-1.356471e-09	-2.854496e+01	-9.318784e+01
8.700000e-07	-4.087837e-06	-1.352000e-09	-2.832726e+01	-9.275064e+01
8.800000e-07	-4.056239e-06	-1.342829e-09	-2.810830e+01	-9.230849e+01
8.900000e-07	-4.024477e-06	-1.334515e-09	-2.788820e+01	-9.186144e+01
9.000000e-07	-3.992469e-06	-1.328724e-09	-2.766639e+01	-9.140956e+01
9.100000e-07	-3.960046e-06	-1.312514e-09	-2.744172e+01	-9.095291e+01
9.200000e-07	-3.927266e-06	-1.304282e-09	-2.721456e+01	-9.049154e+01
9.300000e-07	-3.894105e-06	-1.300453e-09	-2.698476e+01	-9.002549e+01
9.400000e-07	-3.860447e-06	-1.295006e-09	-2.675153e+01	-8.955480e+01
9.500000e-07	-3.826403e-06	-1.285998e-09	-2.651561e+01	-8.907951e+01
9.600000e-07	-3.791877e-06	-1.283771e-09	-2.627636e+01	-8.859965e+01
9.700000e-07	-3.756903e-06	-1.276157e-09	-2.603400e+01	-8.811523e+01
9.800000e-07	-3.721712e-06	-1.263947e-09	-2.579014e+01	-8.762627e+01
9.900000e-07	-3.686354e-06	-1.258238e-09	-2.554512e+01	-8.713277e+01
1.000000e-06	-3.650834e-06	-1.256346e-09	-2.529898e+01	-8.663476e+01
1.010000e-06	-3.615203e-06	-1.248623e-09	-2.505207e+01	-8.613221e+01
1.020000e-06	-3.579426e-06	-1.239684e-09	-2.480415e+01	-8.562514e+01
1.030000e-06	-3.543454e-06	-1.233340e-09	-2.455488e+01	-8.511352e+01
1.040000e-06	-3.507186e-06	-1.222841e-09	-2.430356e+01	-8.459735e+01
1.050000e-06	-3.470581e-06	-1.213164e-09	-2.404990e+01	-8.407661e+01
1.060000e-06	-3.433739e-06	-1.206915e-09	-2.379460e+01	-8.355127e+01
1.070000e-06	-3.396664e-06	-1.201753e-09	-2.353767e+01	-8.302132e+01
1.080000e-06	-3.359237e-06	-1.193165e-09	-2.327832e+01	-8.248673e+01
1.090000e-06	-3.321596e-06	-1.188937e-09	-2.301748e+01	-8.194747e+01
1.100000e-06	-3.283834e-06	-1.182648e-09	-2.275580e+01	-8.140350e+01
1.110000e-06	-3.245809e-06	-1.170419e-09	-2.249231e+01	-8.085479e+01
1.120000e-06	-3.207570e-06	-1.155730e-09	-2.222732e+01	-8.030131e+01
1.130000e-06	-3.169169e-06	-1.146000e-09	-2.196122e+01	-7.974301e+01
1.140000e-06	-3.130437e-06	-1.135945e-09	-2.169282e+01	-7.917986e+01
1.150000e-06	-3.091401e-06	-1.128476e-09	-2.142231e+01	-7.861180e+01
1.160000e-06	-3.052180e-06	-1.122612e-09	-2.115052e+01	-7.803880e+01
1.170000e-06	-3.012900e-06	-1.117229e-09	-2.087833e+01	-7.746080e+01
1.180000e-06	-2.973580e-06	-1.105993e-09	-2.060585e+01	-7.687775e+01
1.190000e-06	-2.934099e-06	-1.095551e-09	-2.033226e+01	-7.628960e+01
1.200000e-06	-2.894463e-06	-1.084347e-09	-2.005760e+01	-7.569627e+01
1.210000e-06	-2.854657e-06	-1.071802e-09	-1.978176e+01	-7.509771e+01
1.220000e-06	-2.814660e-06	-1.059614e-09	-1.950460e+01	-7.449385e+01
1.230000e-06	-2.774555e-06	-1.052053e-09	-1.922668e+01	-7.388460e+01
1.240000e-06	-2.734250e-06	-1.041560e-09	-1.894738e+01	-7.326989e+01
1.250000e-06	-2.693662e-06	-1.030137e-09	-1.866612e+01	-7.264962e+01
1.260000e-06	-2.652837e-06	-1.021686e-09	-1.838322e+01	-7.202369e+01
1.270000e-06	-2.611649e-06	-1.012738e-09	-1.809780e+01	-7.139200e+01
1.280000e-06	-2.570086e-06	-1.004301e-09	-1.780979e+01	-7.075442e+01
1.290000e-06	-2.528207e-06	-9.962155e-10	-1.751958e+01	-7.011082e+01
1.300000e-06	-2.486160e-06	-9.867786e-10	-1.722821e+01	-6.946107e+01
1.310000e-06	-2.443877e-06	-9.745460e-10	-1.693520e+01	-6.880501e+01
1.320000e-06	-2.401207e-06	-9.608100e-10	-1.663951e+01	-6.814246e+01
1.330000e-06	-2.358254e-06	-9.470011e-10	-1.634186e+01	-6.747325e+01
1.340000e-06	-2.315128e-06	-9.321982e-10	-1.604302e+01	-6.679717e+01
1.350000e-06	-2.271821e-06	-9.172627e-10	-1.574291e+01	-6.611402e+01
1.360000e-06	-2.228351e-06	-9.059731e-10	-1.544168e+01	-6.542356e+01
1.370000e-06	-2.184807e-06	-8.987557e-10	-1.513994e+01	-6.472554e+01
1.380000e-06	-2.141219e-06	-8.927821e-10	-1.483789e+01	-6.401969e+01
1.390000e-06	-2.097575e-06	-8.830659e-10	-1.453545e+01	-6.330573e+01
1.400000e-06	-2.053857e-06	-8.705555e-10	-1.423250e+01	-6.258334e+01
1.410000e-06	-2.010063e-06	-8.549736e-10	-1.392903e+01	-6.185221e+01
1.420000e-06	-1.966228e-06	-8.382450e-10	-1.362527e+01	-6.111200e+01
1.430000e-06	-1.922247e-06	-8.227694e-10	-1.332049e+01	-6.036233e+01
1.440000e-06	-1.878127e-06	-8.102427e-10	-1.301475e+01	-5.960283e+01
1.450000e-06	-1.833900e-06	-8.009414e-10	-1.270828e+01	-5.883309e+01
1.460000e-06	-1.789482e-06	-7.931858e-10	-1.240048e+01	-5.805270e+01
1.470000e-06	-1.744943e-06	-7.854512e-10	-1.209184e+01	-5.726122e+01
1.480000e-06	-1.700263e-06	-7.765587e-10	-1.178222e+01	-5.645820e+01
1.490000e-06	-1.655381e-06	-7.633804e-10	-1.147120e+01	-5.564318e+01
1.500000e-06	-1.610314e-06	-7.491295e-10	-1.115891e+01	-5.481566e+01
1.510000e-06	-1.565166e-06	-7.346029e-10	-1.084605e+01	-5.397516e+01
1.520000e-06	-1.519956e-06	-7.195515e-10	-1.053275e+01	-5.312117e+01
1.530000e-06	-1.474644e-06	-7.039613e-10	-1.021876e+01	-5.225318e+01
1.540000e-06	-1.429277e-06	-6.921696e-10	-9.904382e+00	-5.137067e+01
1.550000e-06	-1.383806e-06	-6.817519e-10	-9.589283e+00	-5.047312e+01
1.560000e-06	-1.338259e-06	-6.682398e-10	-9.273661e+00	-4.956000e+01
1.570000e-06	-1.292666e-06	-6.542608e-10	-8.957719e+00	-4.863078e+01
1.580000e-06	-1.246932e-06	-6.416910e-10	-8.640798e+00	-4.768493e+01
1.590000e-06	-1.201069e-06	-6.267049e-10	-8.322982e+00	-4.672196e+01
1.600000e-06	-1.155136e-06	-6.119982e-10	-8.004680e+00	-4.574133e+01
1.610000e-06	-1.109093e-06	-5.984949e-10	-7.685624e+00	-4.474256e+01
1.620000e-06	-1.062935e-06	-5.832862e-10	-7.365761e+00	-4.372517e+01
1.630000e-06	-1.016685e-06	-5.672281e-10	-7.045268e+00	-4.268870e+01
1.640000e-06	-9.703713e-07	-5.533306e-10	-6.724329e+00	-4.163269e+01
1.650000e-06	-9.241149e-07	-5.399629e-10	-6.403788e+00	-4.055674e+01
1.660000e-06	-8.778385e-07	-5.243502e-10	-6.083109e+00	-3.946046e+01
1.670000e-06	-8.313711e-07	-5.085596e-10	-5.761107e+00	-3.834348e+01
1.680000e-06	-7.847802e-07	-4.930409e-10	-5.438248e+00	-3.720549e+01
1.690000e-06	-7.381959e-07	-4.774379e-10	-5.115436e+00	-3.604620e+01
1.700000e-06	-6.916100e-07	-4.611142e-10	-4.792612e+00	-3.486537e+01
1.710000e-06	-6.449373e-07	-4.456112e-10	-4.469187e+00	-3.366279e+01
1.720000e-06	-5.982072e-07	-4.270331e-10	-4.145364e+00	-3.243831e+01
1.730000e-06	-5.514699e-07	-4.062442e-10	-3.821491e+00	-3.119182e+01
1.740000e-06	-5.046583e-07	-3.854188e-10	-3.497103e+00	-2.992328e+01
1.750000e-06	-4.576932e-07	-3.646764e-10	-3.171652e+00	-2.863268e+01
1.760000e-06	-4.107212e-07	-3.459453e-10	-2.846152e+00	-2.732008e+01
1.770000e-06	-3.638340e-07	-3.284756e-10	-2.521241e+00	-2.598559e+01
1.780000e-06	-3.168582e-07	-3.102530e-10	-2.195715e+00	-2.462940e+01
1.790000e-06	-2.698429e-07	-2.914376e-10	-1.869916e+00	-2.325173e+01
1.800000e-06	-2.228877e-07	-2.734686e-10	-1.544533e+00	-2.185289e+01
1.810000e-06	-1.759038e-07	-2.538419e-10	-1.218951e+00	-2.043323e+01
1.820000e-06	-1.288658e-07	-2.310757e-10	-8.929942e-01	-1.899319e+01
1.830000e-06	-8.186073e-08	-2.095042e-10	-5.672658e-01	-1.753326e+01
1.840000e-06	-3.491098e-08	-1.878078e-10	-2.419207e-01	-1.605398e+01
1.850000e-06	1.203930e-08	-1.650497e-10	8.342805e-02	-1.455597e+01
1.860000e-06	5.901591e-08	-1.432986e-10	4.089593e-01	-1.303992e+01
1.870000e-06	1.060715e-07	-1.208183e-10	7.350376e-01	-1.150656e+01
1.880000e-06	1.531426e-07	-9.790560e-11	1.061224e+00	-9.956690e+00
1.890000e-06	2.001704e-07	-7.789554e-11	1.387110e+00	-8.391175e+00
1.900000e-06	2.471787e-07	-6.089800e-11	1.712861e+00	-6.810927e+00
1.910000e-06	2.941213e-07	-4.382448e-11	2.038156e+00	-5.216914e+00
1.920000e-06	3.410887e-07	-2.457898e-11	2.363624e+00	-3.610156e+00
1.930000e-06	3.880643e-07	3.324152e-13	2.689148e+00	-1.991721e+00
1.940000e-06	4.349162e-07	2.976137e-11	3.013815e+00	-3.627207e-01
1.950000e-06	4.816964e-07	5.936607e-11	3.337985e+00	1.275690e+00
1.960000e-06	5.284067e-07	8.631973e-11	3.661671e+00	2.922322e+00
1.970000e-06	5.750576e-07	1.077789e-10	3.984945e+00	4.575948e+00
1.980000e-06	6.216761e-07	1.254118e-10	4.307995e+00	6.235315e+00
1.990000e-06	6.681721e-07	1.419403e-10	4.630195e+00	7.899143e+00
2.000000e-06	7.146203e-07	1.584916e-10	4.952065e+00	9.566133e+00
2.010000e-06	7.610374e-07	1.817102e-10	5.273719e+00	1.123497e+01
2.020000e-06	8.073491e-07	2.103749e-10	5.594643e+00	1.290432e+01
2.030000e-06	8.536460e-07	2.430774e-10	5.915464e+00	1.457287e+01
2.040000e-06	8.999589e-07	2.760155e-10	6.236396e+00	1.623926e+01
2.050000e-06	9.463171e-07	3.029655e-10	6.557642e+00	1.790217e+01
2.060000e-06	9.925807e-07	3.242776e-10	6.878232e+00	1.956028e+01
2.070000e-06	1.038706e-06	3.412924e-10	7.197865e+00	2.121227e+01
2.080000e-06	1.084724e-06	3.576091e-10	7.516752e+00	2.285686e+01
2.090000e-06	1.130641e-06	3.764586e-10	7.834941e+00	2.449277e+01
2.100000e-06	1.176458e-06	4.013140e-10	8.152435e+00	2.611876e+01
2.110000e-06	1.222280e-06	4.278548e-10	8.469964e+00	2.773361e+01
2.120000e-06	1.268047e-06	4.544050e-10	8.787118e+00	2.933616e+01
2.130000e-06	1.313611e-06	4.795453e-10	9.102855e+00	3.092526e+01
2.140000e-06	1.359071e-06	5.026646e-10	9.417879e+00	3.249983e+01
2.150000e-06	1.404495e-06	5.224121e-10	9.732651e+00	3.405880e+01
2.160000e-06	1.449878e-06	5.381100e-10	1.004714e+01	3.560120e+01
2.170000e-06	1.495148e-06	5.544964e-10	1.036085e+01	3.712606e+01
2.180000e-06	1.540342e-06	5.739310e-10	1.067402e+01	3.863251e+01
2.190000e-06	1.585458e-06	5.969648e-10	1.098666e+01	4.011972e+01
2.200000e-06	1.630420e-06	6.222623e-10	1.129823e+01	4.158692e+01
2.210000e-06	1.675132e-06	6.446445e-10	1.160807e+01	4.303340e+01
2.220000e-06	1.719749e-06	6.601731e-10	1.191725e+01	4.445852e+01
2.230000e-06	1.764289e-06	6.723406e-10	1.222589e+01	4.586170e+01
2.240000e-06	1.808671e-06	6.880646e-10	1.253345e+01	4.724243e+01
2.250000e-06	1.852956e-06	7.061900e-10	1.284033e+01	4.860026e+01
2.260000e-06	1.897100e-06	7.267927e-10	1.314623e+01	4.993482e+01
2.270000e-06	1.941113e-06	7.495787e-10	1.345122e+01	5.124578e+01
2.280000e-06	1.985061e-06	7.691177e-10	1.375577e+01	5.253290e+01
2.290000e-06	2.028883e-06	7.840197e-10	1.405944e+01	5.379600e+01
2.300000e-06	2.072576e-06	7.961629e-10	1.436222e+01	5.503495e+01
2.310000e-06	2.116217e-06	8.082503e-10	1.466463e+01	5.624969e+01
2.320000e-06	2.159817e-06	8.222628e-10	1.496677e+01	5.744023e+01
2.330000e-06	2.203367e-06	8.394400e-10	1.526855e+01	5.860661e+01
2.340000e-06	2.246851e-06	8.593498e-10	1.556988e+01	5.974897e+01
2.350000e-06	2.290170e-06	8.796580e-10	1.587007e+01	6.086746e+01
2.360000e-06	2.333315e-06	8.961073e-10	1.616905e+01	6.196229e+01
2.370000e-06	2.376330e-06	9.087613e-10	1.646713e+01	6.303374e+01
2.380000e-06	2.419031e-06	9.179803e-10	1.676303e+01	6.408212e+01
2.390000e-06	2.461500e-06	9.268179e-10	1.705732e+01	6.510776e+01
2.400000e-06	2.503766e-06	9.400610e-10	1.735021e+01	6.611107e+01
2.410000e-06	2.545724e-06	9.577965e-10	1.764096e+01	6.709246e+01
2.420000e-06	2.587336e-06	9.751514e-10	1.792932e+01	6.805238e+01
2.430000e-06	2.628656e-06	9.930959e-10	1.821565e+01	6.899131e+01
2.440000e-06	2.669638e-06	1.009736e-09	1.849964e+01	6.990976e+01
2.450000e-06	2.710229e-06	1.022327e-09	1.878093e+01	7.080825e+01
2.460000e-06	2.750582e-06	1.032023e-09	1.906056e+01	7.168732e+01
2.470000e-06	2.790717e-06	1.039225e-09	1.933868e+01	7.254751e+01
2.480000e-06	2.830664e-06	1.047335e-09	1.961550e+01	7.338940e+01
2.490000e-06	2.870442e-06	1.054840e-09	1.989114e+01	7.421354e+01
2.500000e-06	2.910092e-06	1.065993e-09	2.016590e+01	7.502050e+01
2.510000e-06	2.949678e-06	1.078381e-09	2.044022e+01	7.581086e+01
2.520000e-06	2.989155e-06	1.093635e-09	2.071378e+01	7.658518e+01
2.530000e-06	3.028489e-06	1.109847e-09	2.098636e+01	7.734401e+01
2.540000e-06	3.067648e-06	1.123229e-09	2.125771e+01	7.808790e+01
2.550000e-06	3.106563e-06	1.135123e-09	2.152738e+01	7.881740e+01
2.560000e-06	3.145181e-06	1.141879e-09	2.179499e+01	7.953301e+01
2.570000e-06	3.183588e-06	1.146557e-09	2.206114e+01	8.023526e+01
2.580000e-06	3.221866e-06	1.156019e-09	2.232639e+01	8.092462e+01
2.590000e-06	3.259882e-06	1.169942e-09	2.258982e+01	8.160156e+01
2.600000e-06	3.297619e-06	1.184916e-09	2.285133e+01	8.226653e+01
2.610000e-06	3.335161e-06	1.197705e-09	2.311148e+01	8.291996e+01
2.620000e-06	3.372489e-06	1.207467e-09	2.337015e+01	8.356224e+01
2.630000e-06	3.409534e-06	1.214713e-09	2.362686e+01	8.419374e+01
2.640000e-06	3.446366e-06	1.219709e-09	2.388209e+01	8.481483e+01
2.650000e-06	3.482964e-06	1.227595e-09	2.413570e+01	8.542581e+01
2.660000e-06	3.519273e-06	1.239103e-09	2.438732e+01	8.602699e+01
2.670000e-06	3.555435e-06	1.252618e-09	2.463790e+01	8.661865e+01
2.680000e-06	3.591430e-06	1.263972e-09	2.488734e+01	8.720102e+01
2.690000e-06	3.627199e-06	1.272065e-09	2.513520e+01	8.777433e+01
2.700000e-06	3.662830e-06	1.277106e-09	2.538212e+01	8.833879e+01
2.710000e-06	3.698332e-06	1.282443e-09	2.562813e+01	8.889455e+01
2.720000e-06	3.733632e-06	1.290776e-09	2.587275e+01	8.944178e+01
2.730000e-06	3.768670e-06	1.299369e-09	2.611555e+01	8.998059e+01
2.740000e-06	3.803366e-06	1.306731e-09	2.635598e+01	9.051111e+01
2.750000e-06	3.837697e-06	1.313687e-09	2.659388e+01	9.103342e+01
2.760000e-06	3.871724e-06	1.320999e-09	2.682967e+01	9.154758e+01
2.770000e-06	3.905246e-06	1.328946e-09	2.706197e+01	9.205366e+01
2.780000e-06	3.938144e-06	1.334885e-09	2.728994e+01	9.255169e+01
2.790000e-06	3.970677e-06	1.340356e-09	2.751538e+01	9.304170e+01
2.800000e-06	4.002907e-06	1.344241e-09	2.773873e+01	9.352370e+01
2.810000e-06	4.034820e-06	1.347535e-09	2.795987e+01	9.399769e+01
2.820000e-06	4.066547e-06	1.353270e-09	2.817973e+01	9.446367e+01
2.830000e-06	4.098156e-06	1.363840e-09	2.839877e+01	9.492163e+01
2.840000e-06	4.129646e-06	1.376604e-09	2.861698e+01	9.537155e+01
2.850000e-06	4.160879e-06	1.386833e-09	2.883342e+01	9.581341e+01
2.860000e-06	4.191843e-06	1.394149e-09	2.904798e+01	9.624718e+01
2.870000e-06	4.222453e-06	1.398501e-09	2.926010e+01	9.667283e+01
2.880000e-06	4.252721e-06	1.401420e-09	2.946985e+01	9.709035e+01
2.890000e-06	4.282742e-06	1.403380e-09	2.967788e+01	9.749971e+01
2.900000e-06	4.312450e-06	1.405705e-09	2.988375e+01	9.790088e+01
