# Temperatura_=_-0.2
# Concentracion g/m^3_=_1620.0
# C_Vs_to_Am_M_A/Vsm_=_65563218390.804596
# pendiente_HvsI_1/m_=_3716.3
# ordenada_HvsI_A/m_=_1297.0
# frecuencia_Hz_=_135105.79114624407

Tiempo_(s)	Campo_(V.s)	Magnetizacion_(V.s)	Campo_(kA/m)	Magnetizacion_(A/m)
0.000000e+00	-5.513865e-06	-1.396074e-09	-3.837669e+01	-9.085412e+01
1.000000e-08	-5.514096e-06	-1.394356e-09	-3.837830e+01	-9.083917e+01
2.000000e-08	-5.514055e-06	-1.391877e-09	-3.837802e+01	-9.082184e+01
3.000000e-08	-5.513615e-06	-1.388805e-09	-3.837495e+01	-9.080195e+01
4.000000e-08	-5.512757e-06	-1.384968e-09	-3.836898e+01	-9.077932e+01
5.000000e-08	-5.511378e-06	-1.383541e-09	-3.835938e+01	-9.075375e+01
6.000000e-08	-5.509410e-06	-1.393361e-09	-3.834568e+01	-9.072506e+01
7.000000e-08	-5.506897e-06	-1.409697e-09	-3.832820e+01	-9.069304e+01
8.000000e-08	-5.503776e-06	-1.383110e-09	-3.830647e+01	-9.065751e+01
9.000000e-08	-5.500176e-06	-1.305161e-09	-3.828142e+01	-9.061827e+01
1.000000e-07	-5.496231e-06	-1.319736e-09	-3.825396e+01	-9.057514e+01
1.100000e-07	-5.491870e-06	-1.421172e-09	-3.822361e+01	-9.052793e+01
1.200000e-07	-5.487210e-06	-1.453259e-09	-3.819117e+01	-9.047649e+01
1.300000e-07	-5.482408e-06	-1.342020e-09	-3.815775e+01	-9.042064e+01
1.400000e-07	-5.477352e-06	-1.310864e-09	-3.812256e+01	-9.036023e+01
1.500000e-07	-5.471867e-06	-1.414341e-09	-3.808438e+01	-9.029511e+01
1.600000e-07	-5.465960e-06	-1.457507e-09	-3.804327e+01	-9.022517e+01
1.700000e-07	-5.459746e-06	-1.349762e-09	-3.800002e+01	-9.015027e+01
1.800000e-07	-5.453212e-06	-1.281905e-09	-3.795455e+01	-9.007032e+01
1.900000e-07	-5.446232e-06	-1.352765e-09	-3.790596e+01	-8.998522e+01
2.000000e-07	-5.438821e-06	-1.413592e-09	-3.785438e+01	-8.989490e+01
2.100000e-07	-5.431141e-06	-1.382863e-09	-3.780093e+01	-8.979930e+01
2.200000e-07	-5.423230e-06	-1.343366e-09	-3.774587e+01	-8.969837e+01
2.300000e-07	-5.414913e-06	-1.376969e-09	-3.768799e+01	-8.959207e+01
2.400000e-07	-5.406120e-06	-1.401087e-09	-3.762678e+01	-8.948040e+01
2.500000e-07	-5.396948e-06	-1.370801e-09	-3.756295e+01	-8.936333e+01
2.600000e-07	-5.387120e-06	-1.330424e-09	-3.749455e+01	-8.924090e+01
2.700000e-07	-5.376541e-06	-1.350190e-09	-3.742091e+01	-8.911310e+01
2.800000e-07	-5.365520e-06	-1.365705e-09	-3.734421e+01	-8.897999e+01
2.900000e-07	-5.354054e-06	-1.347930e-09	-3.726441e+01	-8.884161e+01
3.000000e-07	-5.342160e-06	-1.323650e-09	-3.718162e+01	-8.869802e+01
3.100000e-07	-5.329865e-06	-1.343092e-09	-3.709604e+01	-8.854929e+01
3.200000e-07	-5.317158e-06	-1.354919e-09	-3.700761e+01	-8.839549e+01
3.300000e-07	-5.304088e-06	-1.337745e-09	-3.691664e+01	-8.823671e+01
3.400000e-07	-5.290620e-06	-1.313700e-09	-3.682290e+01	-8.807304e+01
3.500000e-07	-5.276821e-06	-1.334080e-09	-3.672686e+01	-8.790460e+01
3.600000e-07	-5.262623e-06	-1.333193e-09	-3.662804e+01	-8.773147e+01
3.700000e-07	-5.247840e-06	-1.307720e-09	-3.652515e+01	-8.755378e+01
3.800000e-07	-5.232429e-06	-1.311149e-09	-3.641789e+01	-8.737164e+01
3.900000e-07	-5.216671e-06	-1.335966e-09	-3.630822e+01	-8.718516e+01
4.000000e-07	-5.200588e-06	-1.293666e-09	-3.619627e+01	-8.699447e+01
4.100000e-07	-5.184004e-06	-1.271951e-09	-3.608085e+01	-8.679968e+01
4.200000e-07	-5.167064e-06	-1.335464e-09	-3.596294e+01	-8.660092e+01
4.300000e-07	-5.149806e-06	-1.336587e-09	-3.584283e+01	-8.639830e+01
4.400000e-07	-5.132248e-06	-1.260333e-09	-3.572062e+01	-8.619195e+01
4.500000e-07	-5.114356e-06	-1.273528e-09	-3.559610e+01	-8.598197e+01
4.600000e-07	-5.096031e-06	-1.331373e-09	-3.546855e+01	-8.576848e+01
4.700000e-07	-5.077212e-06	-1.274650e-09	-3.533757e+01	-8.555159e+01
4.800000e-07	-5.057985e-06	-1.241671e-09	-3.520375e+01	-8.533139e+01
4.900000e-07	-5.038509e-06	-1.301696e-09	-3.506820e+01	-8.510801e+01
5.000000e-07	-5.018828e-06	-1.296870e-09	-3.493122e+01	-8.488151e+01
5.100000e-07	-4.998967e-06	-1.237013e-09	-3.479299e+01	-8.465201e+01
5.200000e-07	-4.978912e-06	-1.277594e-09	-3.465340e+01	-8.441957e+01
5.300000e-07	-4.958445e-06	-1.295296e-09	-3.451095e+01	-8.418428e+01
5.400000e-07	-4.937521e-06	-1.227983e-09	-3.436531e+01	-8.394621e+01
5.500000e-07	-4.916297e-06	-1.228701e-09	-3.421760e+01	-8.370543e+01
5.600000e-07	-4.894760e-06	-1.286269e-09	-3.406770e+01	-8.346198e+01
5.700000e-07	-4.872806e-06	-1.247278e-09	-3.391490e+01	-8.321593e+01
5.800000e-07	-4.850558e-06	-1.215274e-09	-3.376005e+01	-8.296732e+01
5.900000e-07	-4.828066e-06	-1.254895e-09	-3.360351e+01	-8.271619e+01
6.000000e-07	-4.805155e-06	-1.249627e-09	-3.344405e+01	-8.246256e+01
6.100000e-07	-4.781842e-06	-1.206355e-09	-3.328178e+01	-8.220647e+01
6.200000e-07	-4.758240e-06	-1.230783e-09	-3.311752e+01	-8.194793e+01
6.300000e-07	-4.734449e-06	-1.249749e-09	-3.295193e+01	-8.168695e+01
6.400000e-07	-4.710475e-06	-1.221570e-09	-3.278507e+01	-8.142354e+01
6.500000e-07	-4.686175e-06	-1.220386e-09	-3.261594e+01	-8.115768e+01
6.600000e-07	-4.661453e-06	-1.235332e-09	-3.244388e+01	-8.088938e+01
6.700000e-07	-4.636235e-06	-1.209100e-09	-3.226835e+01	-8.061862e+01
6.800000e-07	-4.610514e-06	-1.193456e-09	-3.208934e+01	-8.034537e+01
6.900000e-07	-4.584379e-06	-1.209986e-09	-3.190744e+01	-8.006960e+01
7.000000e-07	-4.557765e-06	-1.206450e-09	-3.172220e+01	-7.979128e+01
7.100000e-07	-4.530685e-06	-1.190576e-09	-3.153373e+01	-7.951036e+01
7.200000e-07	-4.503245e-06	-1.195641e-09	-3.134275e+01	-7.922679e+01
7.300000e-07	-4.475546e-06	-1.195636e-09	-3.114995e+01	-7.894052e+01
7.400000e-07	-4.447693e-06	-1.175958e-09	-3.095610e+01	-7.865149e+01
7.500000e-07	-4.419667e-06	-1.169894e-09	-3.076103e+01	-7.835962e+01
7.600000e-07	-4.391356e-06	-1.171645e-09	-3.056399e+01	-7.806484e+01
7.700000e-07	-4.362746e-06	-1.167965e-09	-3.036486e+01	-7.776707e+01
7.800000e-07	-4.333887e-06	-1.158536e-09	-3.016400e+01	-7.746622e+01
7.900000e-07	-4.304711e-06	-1.151401e-09	-2.996094e+01	-7.716220e+01
8.000000e-07	-4.275174e-06	-1.138872e-09	-2.975536e+01	-7.685491e+01
8.100000e-07	-4.245383e-06	-1.130544e-09	-2.954801e+01	-7.654426e+01
8.200000e-07	-4.215289e-06	-1.126567e-09	-2.933856e+01	-7.623012e+01
8.300000e-07	-4.184884e-06	-1.121200e-09	-2.912694e+01	-7.591239e+01
8.400000e-07	-4.154247e-06	-1.114124e-09	-2.891370e+01	-7.559095e+01
8.500000e-07	-4.123362e-06	-1.115007e-09	-2.869874e+01	-7.526569e+01
8.600000e-07	-4.092172e-06	-1.108767e-09	-2.848166e+01	-7.493647e+01
8.700000e-07	-4.060725e-06	-1.099712e-09	-2.826279e+01	-7.460318e+01
8.800000e-07	-4.029089e-06	-1.093345e-09	-2.804260e+01	-7.426568e+01
8.900000e-07	-3.997298e-06	-1.087190e-09	-2.782133e+01	-7.392385e+01
9.000000e-07	-3.965344e-06	-1.078200e-09	-2.759894e+01	-7.357756e+01
9.100000e-07	-3.933066e-06	-1.074979e-09	-2.737428e+01	-7.322669e+01
9.200000e-07	-3.900456e-06	-1.072321e-09	-2.714731e+01	-7.287109e+01
9.300000e-07	-3.867532e-06	-1.062018e-09	-2.691815e+01	-7.251066e+01
9.400000e-07	-3.834166e-06	-1.051875e-09	-2.668593e+01	-7.214526e+01
9.500000e-07	-3.800362e-06	-1.047834e-09	-2.645065e+01	-7.177478e+01
9.600000e-07	-3.766147e-06	-1.040817e-09	-2.621251e+01	-7.139911e+01
9.700000e-07	-3.731484e-06	-1.031367e-09	-2.597126e+01	-7.101814e+01
9.800000e-07	-3.696417e-06	-1.028998e-09	-2.572719e+01	-7.063178e+01
9.900000e-07	-3.661093e-06	-1.027020e-09	-2.548134e+01	-7.023992e+01
1.000000e-06	-3.625624e-06	-1.017288e-09	-2.523447e+01	-6.984249e+01
1.010000e-06	-3.589981e-06	-1.010546e-09	-2.498639e+01	-6.943941e+01
1.020000e-06	-3.554174e-06	-1.010602e-09	-2.473717e+01	-6.903061e+01
1.030000e-06	-3.518217e-06	-1.005432e-09	-2.448691e+01	-6.861606e+01
1.040000e-06	-3.482080e-06	-9.981988e-10	-2.423540e+01	-6.819570e+01
1.050000e-06	-3.445668e-06	-9.932032e-10	-2.398197e+01	-6.776951e+01
1.060000e-06	-3.408963e-06	-9.866794e-10	-2.372650e+01	-6.733747e+01
1.070000e-06	-3.372002e-06	-9.751447e-10	-2.346925e+01	-6.689959e+01
1.080000e-06	-3.334815e-06	-9.668620e-10	-2.321043e+01	-6.645586e+01
1.090000e-06	-3.297443e-06	-9.611724e-10	-2.295032e+01	-6.600633e+01
1.100000e-06	-3.259776e-06	-9.534867e-10	-2.268816e+01	-6.555103e+01
1.110000e-06	-3.221870e-06	-9.454284e-10	-2.242432e+01	-6.509001e+01
1.120000e-06	-3.183841e-06	-9.411450e-10	-2.215965e+01	-6.462334e+01
1.130000e-06	-3.145549e-06	-9.335914e-10	-2.189313e+01	-6.415110e+01
1.140000e-06	-3.106902e-06	-9.253554e-10	-2.162415e+01	-6.367337e+01
1.150000e-06	-3.068105e-06	-9.194392e-10	-2.135411e+01	-6.319026e+01
1.160000e-06	-3.029169e-06	-9.143543e-10	-2.108312e+01	-6.270188e+01
1.170000e-06	-2.990019e-06	-9.044769e-10	-2.081064e+01	-6.220835e+01
1.180000e-06	-2.950679e-06	-8.948364e-10	-2.053683e+01	-6.170980e+01
1.190000e-06	-2.911178e-06	-8.872612e-10	-2.026190e+01	-6.120636e+01
1.200000e-06	-2.871538e-06	-8.792797e-10	-1.998601e+01	-6.069817e+01
1.210000e-06	-2.831742e-06	-8.696286e-10	-1.970902e+01	-6.018536e+01
1.220000e-06	-2.791811e-06	-8.626907e-10	-1.943110e+01	-5.966808e+01
1.230000e-06	-2.751708e-06	-8.563696e-10	-1.915199e+01	-5.914647e+01
1.240000e-06	-2.711490e-06	-8.469464e-10	-1.887207e+01	-5.862065e+01
1.250000e-06	-2.671067e-06	-8.386075e-10	-1.859072e+01	-5.809075e+01
1.260000e-06	-2.630350e-06	-8.312906e-10	-1.830733e+01	-5.755689e+01
1.270000e-06	-2.589439e-06	-8.224582e-10	-1.802258e+01	-5.701918e+01
1.280000e-06	-2.548297e-06	-8.137700e-10	-1.773624e+01	-5.647770e+01
1.290000e-06	-2.506913e-06	-8.058189e-10	-1.744820e+01	-5.593254e+01
1.300000e-06	-2.465219e-06	-7.965803e-10	-1.715801e+01	-5.538373e+01
1.310000e-06	-2.423174e-06	-7.857025e-10	-1.686538e+01	-5.483133e+01
1.320000e-06	-2.380825e-06	-7.753507e-10	-1.657062e+01	-5.427533e+01
1.330000e-06	-2.338161e-06	-7.661591e-10	-1.627368e+01	-5.371572e+01
1.340000e-06	-2.295165e-06	-7.561968e-10	-1.597443e+01	-5.315246e+01
1.350000e-06	-2.251986e-06	-7.505657e-10	-1.567390e+01	-5.258547e+01
1.360000e-06	-2.208728e-06	-7.447442e-10	-1.537282e+01	-5.201464e+01
1.370000e-06	-2.165363e-06	-7.357056e-10	-1.507100e+01	-5.143982e+01
1.380000e-06	-2.121907e-06	-7.246935e-10	-1.476855e+01	-5.086084e+01
1.390000e-06	-2.078324e-06	-7.129396e-10	-1.446521e+01	-5.027749e+01
1.400000e-06	-2.034638e-06	-6.991702e-10	-1.416115e+01	-4.968951e+01
1.410000e-06	-1.990869e-06	-6.883023e-10	-1.385652e+01	-4.909661e+01
1.420000e-06	-1.946985e-06	-6.822407e-10	-1.355108e+01	-4.849845e+01
1.430000e-06	-1.903014e-06	-6.776055e-10	-1.324504e+01	-4.789469e+01
1.440000e-06	-1.858943e-06	-6.703460e-10	-1.293831e+01	-4.728490e+01
1.450000e-06	-1.814783e-06	-6.615905e-10	-1.263095e+01	-4.666864e+01
1.460000e-06	-1.770529e-06	-6.505565e-10	-1.232295e+01	-4.604544e+01
1.470000e-06	-1.726065e-06	-6.361077e-10	-1.201347e+01	-4.541479e+01
1.480000e-06	-1.681482e-06	-6.198902e-10	-1.170317e+01	-4.477612e+01
1.490000e-06	-1.636826e-06	-6.076406e-10	-1.139236e+01	-4.412887e+01
1.500000e-06	-1.591986e-06	-5.997918e-10	-1.108028e+01	-4.347243e+01
1.510000e-06	-1.547015e-06	-5.940402e-10	-1.076728e+01	-4.280617e+01
1.520000e-06	-1.501982e-06	-5.883478e-10	-1.045385e+01	-4.212943e+01
1.530000e-06	-1.456810e-06	-5.799310e-10	-1.013945e+01	-4.144155e+01
1.540000e-06	-1.411493e-06	-5.681831e-10	-9.824041e+00	-4.074182e+01
1.550000e-06	-1.366163e-06	-5.539010e-10	-9.508544e+00	-4.002955e+01
1.560000e-06	-1.320768e-06	-5.402136e-10	-9.192592e+00	-3.930404e+01
1.570000e-06	-1.275233e-06	-5.278501e-10	-8.875666e+00	-3.856458e+01
1.580000e-06	-1.229591e-06	-5.156853e-10	-8.557997e+00	-3.781046e+01
1.590000e-06	-1.183882e-06	-5.042391e-10	-8.239858e+00	-3.704098e+01
1.600000e-06	-1.138153e-06	-4.955233e-10	-7.921584e+00	-3.625546e+01
1.610000e-06	-1.092313e-06	-4.865314e-10	-7.602535e+00	-3.545322e+01
1.620000e-06	-1.046329e-06	-4.743725e-10	-7.282489e+00	-3.463363e+01
1.630000e-06	-1.000294e-06	-4.611598e-10	-6.962084e+00	-3.379606e+01
1.640000e-06	-9.542661e-07	-4.493058e-10	-6.641725e+00	-3.293993e+01
1.650000e-06	-9.082140e-07	-4.361254e-10	-6.321201e+00	-3.206468e+01
1.660000e-06	-8.620270e-07	-4.224231e-10	-5.999738e+00	-3.116982e+01
1.670000e-06	-8.157635e-07	-4.091199e-10	-5.677742e+00	-3.025488e+01
1.680000e-06	-7.694691e-07	-3.956715e-10	-5.355532e+00	-2.931945e+01
1.690000e-06	-7.230760e-07	-3.803721e-10	-5.032634e+00	-2.836319e+01
1.700000e-06	-6.766762e-07	-3.654383e-10	-4.709690e+00	-2.738580e+01
1.710000e-06	-6.303126e-07	-3.514128e-10	-4.386997e+00	-2.638706e+01
1.720000e-06	-5.839046e-07	-3.366490e-10	-4.063996e+00	-2.536681e+01
1.730000e-06	-5.373447e-07	-3.203295e-10	-3.739938e+00	-2.432495e+01
1.740000e-06	-4.907156e-07	-3.022818e-10	-3.415398e+00	-2.326146e+01
1.750000e-06	-4.440648e-07	-2.835274e-10	-3.090706e+00	-2.217642e+01
1.760000e-06	-3.973223e-07	-2.656704e-10	-2.765377e+00	-2.106993e+01
1.770000e-06	-3.506104e-07	-2.488471e-10	-2.440261e+00	-1.994223e+01
1.780000e-06	-3.039174e-07	-2.319112e-10	-2.115276e+00	-1.879360e+01
1.790000e-06	-2.571548e-07	-2.155655e-10	-1.789806e+00	-1.762440e+01
1.800000e-06	-2.103418e-07	-1.998813e-10	-1.463987e+00	-1.643508e+01
1.810000e-06	-1.635518e-07	-1.825676e-10	-1.138327e+00	-1.522616e+01
1.820000e-06	-1.168206e-07	-1.637680e-10	-8.130753e-01	-1.399825e+01
1.830000e-06	-7.009471e-08	-1.448795e-10	-4.878616e-01	-1.275202e+01
1.840000e-06	-2.332494e-08	-1.263597e-10	-1.623424e-01	-1.148821e+01
1.850000e-06	2.348919e-08	-1.085352e-10	1.634856e-01	-1.020765e+01
1.860000e-06	7.029646e-08	-9.138089e-11	4.892658e-01	-8.911208e+00
1.870000e-06	1.170603e-07	-7.260725e-11	8.147438e-01	-7.599836e+00
1.880000e-06	1.638358e-07	-5.182036e-11	1.140303e+00	-6.274538e+00
1.890000e-06	2.106172e-07	-3.180332e-11	1.465903e+00	-4.936372e+00
1.900000e-06	2.574040e-07	-1.354585e-11	1.791541e+00	-3.586447e+00
1.910000e-06	3.042592e-07	3.999215e-12	2.117655e+00	-2.225917e+00
1.920000e-06	3.510311e-07	2.184238e-11	2.443188e+00	-8.559738e-01
1.930000e-06	3.977184e-07	4.032968e-11	2.768134e+00	5.221547e-01
1.940000e-06	4.444223e-07	6.063606e-11	3.093194e+00	1.907213e+00
1.950000e-06	4.910578e-07	8.151694e-11	3.417779e+00	3.297925e+00
1.960000e-06	5.376212e-07	1.017904e-10	3.741862e+00	4.692994e+00
1.970000e-06	5.841743e-07	1.214464e-10	4.065874e+00	6.091116e+00
1.980000e-06	6.306685e-07	1.415701e-10	4.389475e+00	7.490982e+00
1.990000e-06	6.770820e-07	1.598510e-10	4.712514e+00	8.891283e+00
2.000000e-06	7.234073e-07	1.757601e-10	5.034940e+00	1.029072e+01
2.010000e-06	7.696846e-07	1.926151e-10	5.357031e+00	1.168800e+01
2.020000e-06	8.159566e-07	2.100570e-10	5.679086e+00	1.308186e+01
2.030000e-06	8.621637e-07	2.315313e-10	6.000690e+00	1.447105e+01
2.040000e-06	9.083413e-07	2.556153e-10	6.322087e+00	1.585436e+01
2.050000e-06	9.544599e-07	2.781083e-10	6.643074e+00	1.723060e+01
2.060000e-06	1.000426e-06	2.976411e-10	6.963002e+00	1.859864e+01
2.070000e-06	1.046310e-06	3.158027e-10	7.282352e+00	1.995737e+01
2.080000e-06	1.092145e-06	3.348350e-10	7.601366e+00	2.130574e+01
2.090000e-06	1.137897e-06	3.540307e-10	7.919800e+00	2.264274e+01
2.100000e-06	1.183598e-06	3.745162e-10	8.237885e+00	2.396743e+01
2.110000e-06	1.229252e-06	3.955923e-10	8.555636e+00	2.527892e+01
2.120000e-06	1.274815e-06	4.156155e-10	8.872757e+00	2.657637e+01
2.130000e-06	1.320254e-06	4.343646e-10	9.189015e+00	2.785901e+01
2.140000e-06	1.365627e-06	4.520233e-10	9.504814e+00	2.912612e+01
2.150000e-06	1.410934e-06	4.672027e-10	9.820152e+00	3.037705e+01
2.160000e-06	1.456124e-06	4.829864e-10	1.013467e+01	3.161123e+01
2.170000e-06	1.501187e-06	5.010753e-10	1.044832e+01	3.282812e+01
2.180000e-06	1.546124e-06	5.186857e-10	1.076107e+01	3.402727e+01
2.190000e-06	1.590937e-06	5.358325e-10	1.107298e+01	3.520828e+01
2.200000e-06	1.635667e-06	5.533441e-10	1.138430e+01	3.637081e+01
2.210000e-06	1.680248e-06	5.686209e-10	1.169458e+01	3.751458e+01
2.220000e-06	1.724635e-06	5.813378e-10	1.200352e+01	3.863939e+01
2.230000e-06	1.768941e-06	5.931017e-10	1.231189e+01	3.974505e+01
2.240000e-06	1.813183e-06	6.059712e-10	1.261982e+01	4.083147e+01
2.250000e-06	1.857266e-06	6.188126e-10	1.292663e+01	4.189859e+01
2.260000e-06	1.901218e-06	6.341137e-10	1.323255e+01	4.294639e+01
2.270000e-06	1.945119e-06	6.513983e-10	1.353809e+01	4.397491e+01
2.280000e-06	1.988928e-06	6.666698e-10	1.384301e+01	4.498422e+01
2.290000e-06	2.032669e-06	6.797249e-10	1.414744e+01	4.597444e+01
2.300000e-06	2.076301e-06	6.926455e-10	1.445112e+01	4.694573e+01
2.310000e-06	2.119825e-06	7.044404e-10	1.475406e+01	4.789825e+01
2.320000e-06	2.163296e-06	7.151969e-10	1.505661e+01	4.883222e+01
2.330000e-06	2.206671e-06	7.283646e-10	1.535850e+01	4.974788e+01
2.340000e-06	2.249891e-06	7.425583e-10	1.565932e+01	5.064548e+01
2.350000e-06	2.292938e-06	7.557741e-10	1.595893e+01	5.152529e+01
2.360000e-06	2.335898e-06	7.673636e-10	1.625793e+01	5.238761e+01
2.370000e-06	2.378708e-06	7.792524e-10	1.655589e+01	5.323274e+01
2.380000e-06	2.421070e-06	7.910744e-10	1.685073e+01	5.406099e+01
2.390000e-06	2.462945e-06	8.033199e-10	1.714218e+01	5.487268e+01
2.400000e-06	2.504558e-06	8.148053e-10	1.743181e+01	5.566813e+01
2.410000e-06	2.545965e-06	8.251557e-10	1.772001e+01	5.644766e+01
2.420000e-06	2.587076e-06	8.365203e-10	1.800614e+01	5.721160e+01
2.430000e-06	2.627885e-06	8.483942e-10	1.829017e+01	5.796028e+01
2.440000e-06	2.668441e-06	8.587438e-10	1.857244e+01	5.869400e+01
2.450000e-06	2.708763e-06	8.678257e-10	1.885309e+01	5.941310e+01
2.460000e-06	2.748901e-06	8.755770e-10	1.913244e+01	6.011786e+01
2.470000e-06	2.788868e-06	8.837150e-10	1.941062e+01	6.080860e+01
2.480000e-06	2.828682e-06	8.933040e-10	1.968772e+01	6.148561e+01
2.490000e-06	2.868366e-06	9.038563e-10	1.996393e+01	6.214918e+01
2.500000e-06	2.907926e-06	9.151666e-10	2.023926e+01	6.279958e+01
2.510000e-06	2.947407e-06	9.256261e-10	2.051405e+01	6.343709e+01
2.520000e-06	2.986754e-06	9.343586e-10	2.078791e+01	6.406197e+01
2.530000e-06	3.025882e-06	9.425948e-10	2.106024e+01	6.467447e+01
2.540000e-06	3.064763e-06	9.502269e-10	2.133086e+01	6.527485e+01
2.550000e-06	3.103425e-06	9.577317e-10	2.159994e+01	6.586334e+01
2.560000e-06	3.141890e-06	9.652202e-10	2.186767e+01	6.644019e+01
2.570000e-06	3.180061e-06	9.733210e-10	2.213333e+01	6.700562e+01
2.580000e-06	3.217979e-06	9.833824e-10	2.239725e+01	6.755987e+01
2.590000e-06	3.255705e-06	9.929652e-10	2.265982e+01	6.810316e+01
2.600000e-06	3.293242e-06	1.002062e-09	2.292108e+01	6.863571e+01
2.610000e-06	3.330674e-06	1.010015e-09	2.318161e+01	6.915775e+01
2.620000e-06	3.367842e-06	1.016429e-09	2.344030e+01	6.966950e+01
2.630000e-06	3.404716e-06	1.022846e-09	2.369694e+01	7.017118e+01
2.640000e-06	3.441391e-06	1.029491e-09	2.395220e+01	7.066301e+01
2.650000e-06	3.477800e-06	1.036930e-09	2.420561e+01	7.114523e+01
2.660000e-06	3.513910e-06	1.046554e-09	2.445693e+01	7.161806e+01
2.670000e-06	3.549818e-06	1.054749e-09	2.470686e+01	7.208173e+01
2.680000e-06	3.585615e-06	1.061709e-09	2.495601e+01	7.253647e+01
2.690000e-06	3.621296e-06	1.069311e-09	2.520435e+01	7.298254e+01
2.700000e-06	3.656849e-06	1.073335e-09	2.545179e+01	7.342016e+01
2.710000e-06	3.692199e-06	1.077987e-09	2.569783e+01	7.384959e+01
2.720000e-06	3.727331e-06	1.084644e-09	2.594236e+01	7.427107e+01
2.730000e-06	3.762194e-06	1.091854e-09	2.618500e+01	7.468486e+01
2.740000e-06	3.796662e-06	1.097228e-09	2.642490e+01	7.509122e+01
2.750000e-06	3.830710e-06	1.100336e-09	2.666187e+01	7.549039e+01
2.760000e-06	3.864260e-06	1.104538e-09	2.689538e+01	7.588263e+01
2.770000e-06	3.897221e-06	1.108869e-09	2.712479e+01	7.626821e+01
2.780000e-06	3.929753e-06	1.116178e-09	2.735122e+01	7.664737e+01
2.790000e-06	3.962050e-06	1.125069e-09	2.757601e+01	7.702037e+01
2.800000e-06	3.994168e-06	1.132446e-09	2.779955e+01	7.738747e+01
2.810000e-06	4.026070e-06	1.137692e-09	2.802159e+01	7.774890e+01
2.820000e-06	4.057783e-06	1.141315e-09	2.824231e+01	7.810491e+01
2.830000e-06	4.089276e-06	1.143057e-09	2.846151e+01	7.845572e+01
2.840000e-06	4.120540e-06	1.145341e-09	2.867910e+01	7.880156e+01
2.850000e-06	4.151543e-06	1.148313e-09	2.889488e+01	7.914265e+01
2.860000e-06	4.182270e-06	1.153686e-09	2.910874e+01	7.947917e+01
2.870000e-06	4.212643e-06	1.159979e-09	2.932014e+01	7.981131e+01
2.880000e-06	4.242643e-06	1.166591e-09	2.952894e+01	8.013925e+01
2.890000e-06	4.272421e-06	1.173283e-09	2.973620e+01	8.046314e+01
2.900000e-06	4.301921e-06	1.175274e-09	2.994152e+01	8.078312e+01
