# Temperatura_=_-13.7
# Concentracion g/m^3_=_1620.0
# C_Vs_to_Am_M_A/Vsm_=_65563218390.804596
# pendiente_HvsI_1/m_=_3716.3
# ordenada_HvsI_A/m_=_1297.0
# frecuencia_Hz_=_135102.8749096644

Tiempo_(s)	Campo_(V.s)	Magnetizacion_(V.s)	Campo_(kA/m)	Magnetizacion_(A/m)
0.000000e+00	-5.525943e-06	-7.764291e-10	-3.836847e+01	-5.056147e+01
1.000000e-08	-5.526152e-06	-7.723182e-10	-3.836992e+01	-5.056086e+01
2.000000e-08	-5.526103e-06	-7.702341e-10	-3.836958e+01	-5.055819e+01
3.000000e-08	-5.525742e-06	-7.692418e-10	-3.836708e+01	-5.055331e+01
4.000000e-08	-5.524909e-06	-7.680592e-10	-3.836129e+01	-5.054613e+01
5.000000e-08	-5.523468e-06	-7.658395e-10	-3.835129e+01	-5.053652e+01
6.000000e-08	-5.521388e-06	-7.622913e-10	-3.833684e+01	-5.052440e+01
7.000000e-08	-5.518713e-06	-7.702070e-10	-3.831827e+01	-5.050969e+01
8.000000e-08	-5.515560e-06	-7.991147e-10	-3.829638e+01	-5.049232e+01
9.000000e-08	-5.511961e-06	-8.006341e-10	-3.827139e+01	-5.047224e+01
1.000000e-07	-5.507891e-06	-7.263153e-10	-3.824313e+01	-5.044942e+01
1.100000e-07	-5.503540e-06	-6.865686e-10	-3.821292e+01	-5.042385e+01
1.200000e-07	-5.499102e-06	-7.641769e-10	-3.818210e+01	-5.039552e+01
1.300000e-07	-5.494389e-06	-8.150582e-10	-3.814938e+01	-5.036446e+01
1.400000e-07	-5.489176e-06	-7.639684e-10	-3.811319e+01	-5.033072e+01
1.500000e-07	-5.483560e-06	-6.961522e-10	-3.807419e+01	-5.029434e+01
1.600000e-07	-5.477654e-06	-7.696364e-10	-3.803319e+01	-5.025541e+01
1.700000e-07	-5.471287e-06	-8.210482e-10	-3.798897e+01	-5.021403e+01
1.800000e-07	-5.464381e-06	-7.535695e-10	-3.794102e+01	-5.017030e+01
1.900000e-07	-5.457123e-06	-6.874468e-10	-3.789063e+01	-5.012435e+01
2.000000e-07	-5.449589e-06	-7.309571e-10	-3.783832e+01	-5.007634e+01
2.100000e-07	-5.441787e-06	-7.923816e-10	-3.778414e+01	-5.002642e+01
2.200000e-07	-5.433773e-06	-7.485949e-10	-3.772851e+01	-4.997477e+01
2.300000e-07	-5.425585e-06	-6.942798e-10	-3.767165e+01	-4.992156e+01
2.400000e-07	-5.416955e-06	-6.946195e-10	-3.761173e+01	-4.986701e+01
2.500000e-07	-5.407654e-06	-7.295578e-10	-3.754715e+01	-4.981132e+01
2.600000e-07	-5.397619e-06	-7.183844e-10	-3.747747e+01	-4.975469e+01
2.700000e-07	-5.386956e-06	-7.085279e-10	-3.740344e+01	-4.969735e+01
2.800000e-07	-5.375816e-06	-7.078325e-10	-3.732609e+01	-4.963952e+01
2.900000e-07	-5.364245e-06	-7.180056e-10	-3.724575e+01	-4.958141e+01
3.000000e-07	-5.352361e-06	-7.044312e-10	-3.716323e+01	-4.952327e+01
3.100000e-07	-5.340114e-06	-6.965587e-10	-3.707819e+01	-4.946529e+01
3.200000e-07	-5.327348e-06	-6.949777e-10	-3.698956e+01	-4.940771e+01
3.300000e-07	-5.314131e-06	-7.156744e-10	-3.689779e+01	-4.935072e+01
3.400000e-07	-5.300558e-06	-7.144251e-10	-3.680355e+01	-4.929453e+01
3.500000e-07	-5.286579e-06	-6.990846e-10	-3.670649e+01	-4.923933e+01
3.600000e-07	-5.272257e-06	-7.071254e-10	-3.660704e+01	-4.918530e+01
3.700000e-07	-5.257506e-06	-7.215394e-10	-3.650462e+01	-4.913260e+01
3.800000e-07	-5.242156e-06	-6.910129e-10	-3.639804e+01	-4.908138e+01
3.900000e-07	-5.226185e-06	-6.880160e-10	-3.628715e+01	-4.903177e+01
4.000000e-07	-5.209761e-06	-7.273120e-10	-3.617312e+01	-4.898390e+01
4.100000e-07	-5.193011e-06	-7.129390e-10	-3.605681e+01	-4.893785e+01
4.200000e-07	-5.175869e-06	-6.744045e-10	-3.593779e+01	-4.889371e+01
4.300000e-07	-5.158383e-06	-7.124057e-10	-3.581638e+01	-4.885152e+01
4.400000e-07	-5.140660e-06	-7.363211e-10	-3.569332e+01	-4.881134e+01
4.500000e-07	-5.122594e-06	-6.720135e-10	-3.556788e+01	-4.877315e+01
4.600000e-07	-5.104073e-06	-6.754454e-10	-3.543929e+01	-4.873698e+01
4.700000e-07	-5.085153e-06	-7.347866e-10	-3.530792e+01	-4.870277e+01
4.800000e-07	-5.065924e-06	-7.104683e-10	-3.517441e+01	-4.867049e+01
4.900000e-07	-5.046449e-06	-6.712041e-10	-3.503918e+01	-4.864005e+01
5.000000e-07	-5.026756e-06	-7.248526e-10	-3.490245e+01	-4.861138e+01
5.100000e-07	-5.006832e-06	-7.219330e-10	-3.476411e+01	-4.858436e+01
5.200000e-07	-4.986637e-06	-6.710907e-10	-3.462389e+01	-4.855885e+01
5.300000e-07	-4.966118e-06	-6.994540e-10	-3.448142e+01	-4.853472e+01
5.400000e-07	-4.945233e-06	-7.287959e-10	-3.433640e+01	-4.851181e+01
5.500000e-07	-4.923975e-06	-6.693220e-10	-3.418881e+01	-4.848992e+01
5.600000e-07	-4.902384e-06	-6.762848e-10	-3.403889e+01	-4.846887e+01
5.700000e-07	-4.880407e-06	-7.298488e-10	-3.388630e+01	-4.844847e+01
5.800000e-07	-4.858063e-06	-6.999467e-10	-3.373116e+01	-4.842849e+01
5.900000e-07	-4.835357e-06	-6.642402e-10	-3.357350e+01	-4.840871e+01
6.000000e-07	-4.812316e-06	-7.093914e-10	-3.341352e+01	-4.838891e+01
6.100000e-07	-4.788971e-06	-7.093937e-10	-3.325143e+01	-4.836886e+01
6.200000e-07	-4.765348e-06	-6.747945e-10	-3.308740e+01	-4.834831e+01
6.300000e-07	-4.741490e-06	-6.993880e-10	-3.292175e+01	-4.832703e+01
6.400000e-07	-4.717340e-06	-7.166865e-10	-3.275407e+01	-4.830478e+01
6.500000e-07	-4.692895e-06	-6.816306e-10	-3.258434e+01	-4.828133e+01
6.600000e-07	-4.668068e-06	-6.861821e-10	-3.241196e+01	-4.825644e+01
6.700000e-07	-4.642683e-06	-7.092696e-10	-3.223570e+01	-4.822989e+01
6.800000e-07	-4.616605e-06	-6.870011e-10	-3.205463e+01	-4.820146e+01
6.900000e-07	-4.589992e-06	-6.802290e-10	-3.186985e+01	-4.817094e+01
7.000000e-07	-4.563097e-06	-7.036027e-10	-3.168311e+01	-4.813813e+01
7.100000e-07	-4.535878e-06	-6.950379e-10	-3.149412e+01	-4.810283e+01
7.200000e-07	-4.508335e-06	-6.772160e-10	-3.130288e+01	-4.806486e+01
7.300000e-07	-4.480587e-06	-6.905968e-10	-3.111021e+01	-4.802407e+01
7.400000e-07	-4.452650e-06	-6.897383e-10	-3.091624e+01	-4.798029e+01
7.500000e-07	-4.424461e-06	-6.742111e-10	-3.072051e+01	-4.793338e+01
7.600000e-07	-4.396005e-06	-6.820904e-10	-3.052294e+01	-4.788321e+01
7.700000e-07	-4.367328e-06	-6.933947e-10	-3.032382e+01	-4.782968e+01
7.800000e-07	-4.338397e-06	-6.817443e-10	-3.012294e+01	-4.777269e+01
7.900000e-07	-4.309110e-06	-6.847281e-10	-2.991959e+01	-4.771215e+01
8.000000e-07	-4.279471e-06	-6.915102e-10	-2.971380e+01	-4.764800e+01
8.100000e-07	-4.249475e-06	-6.781105e-10	-2.950553e+01	-4.758017e+01
8.200000e-07	-4.219219e-06	-6.651999e-10	-2.929545e+01	-4.750863e+01
8.300000e-07	-4.188689e-06	-6.722213e-10	-2.908347e+01	-4.743335e+01
8.400000e-07	-4.157857e-06	-6.685414e-10	-2.886939e+01	-4.735432e+01
8.500000e-07	-4.126756e-06	-6.621535e-10	-2.865345e+01	-4.727152e+01
8.600000e-07	-4.095419e-06	-6.689517e-10	-2.843586e+01	-4.718497e+01
8.700000e-07	-4.063920e-06	-6.714342e-10	-2.821715e+01	-4.709467e+01
8.800000e-07	-4.032280e-06	-6.615326e-10	-2.799747e+01	-4.700066e+01
8.900000e-07	-4.000465e-06	-6.629400e-10	-2.777656e+01	-4.690297e+01
9.000000e-07	-3.968355e-06	-6.618437e-10	-2.755361e+01	-4.680164e+01
9.100000e-07	-3.935959e-06	-6.504918e-10	-2.732868e+01	-4.669670e+01
9.200000e-07	-3.903280e-06	-6.476143e-10	-2.710178e+01	-4.658822e+01
9.300000e-07	-3.870167e-06	-6.546277e-10	-2.687186e+01	-4.647623e+01
9.400000e-07	-3.836614e-06	-6.510502e-10	-2.663890e+01	-4.636081e+01
9.500000e-07	-3.802585e-06	-6.481866e-10	-2.640262e+01	-4.624200e+01
9.600000e-07	-3.767996e-06	-6.575344e-10	-2.616245e+01	-4.611986e+01
9.700000e-07	-3.733056e-06	-6.576644e-10	-2.591986e+01	-4.599445e+01
9.800000e-07	-3.697826e-06	-6.473183e-10	-2.567524e+01	-4.586582e+01
9.900000e-07	-3.662361e-06	-6.468259e-10	-2.542900e+01	-4.573402e+01
1.000000e-06	-3.626753e-06	-6.498419e-10	-2.518176e+01	-4.559911e+01
1.010000e-06	-3.590977e-06	-6.446423e-10	-2.493335e+01	-4.546113e+01
1.020000e-06	-3.555049e-06	-6.449652e-10	-2.468389e+01	-4.532011e+01
1.030000e-06	-3.518956e-06	-6.483337e-10	-2.443328e+01	-4.517610e+01
1.040000e-06	-3.482702e-06	-6.438556e-10	-2.418156e+01	-4.502913e+01
1.050000e-06	-3.446207e-06	-6.398865e-10	-2.392817e+01	-4.487922e+01
1.060000e-06	-3.409423e-06	-6.431781e-10	-2.367276e+01	-4.472639e+01
1.070000e-06	-3.372331e-06	-6.410710e-10	-2.341522e+01	-4.457065e+01
1.080000e-06	-3.334956e-06	-6.363650e-10	-2.315571e+01	-4.441201e+01
1.090000e-06	-3.297399e-06	-6.371929e-10	-2.289495e+01	-4.425047e+01
1.100000e-06	-3.259613e-06	-6.366108e-10	-2.263258e+01	-4.408603e+01
1.110000e-06	-3.221590e-06	-6.279872e-10	-2.236858e+01	-4.391866e+01
1.120000e-06	-3.183325e-06	-6.235670e-10	-2.210289e+01	-4.374835e+01
1.130000e-06	-3.144832e-06	-6.215234e-10	-2.183562e+01	-4.357507e+01
1.140000e-06	-3.106120e-06	-6.165204e-10	-2.156683e+01	-4.339879e+01
1.150000e-06	-3.067219e-06	-6.129771e-10	-2.129672e+01	-4.321948e+01
1.160000e-06	-3.028196e-06	-6.161500e-10	-2.102577e+01	-4.303709e+01
1.170000e-06	-2.989033e-06	-6.156038e-10	-2.075386e+01	-4.285157e+01
1.180000e-06	-2.949710e-06	-6.106886e-10	-2.048083e+01	-4.266287e+01
1.190000e-06	-2.910172e-06	-6.077621e-10	-2.020629e+01	-4.247092e+01
1.200000e-06	-2.870488e-06	-6.037349e-10	-1.993075e+01	-4.227566e+01
1.210000e-06	-2.830665e-06	-5.973098e-10	-1.965425e+01	-4.207702e+01
1.220000e-06	-2.790654e-06	-5.951542e-10	-1.937645e+01	-4.187493e+01
1.230000e-06	-2.750537e-06	-5.937105e-10	-1.909790e+01	-4.166930e+01
1.240000e-06	-2.710296e-06	-5.888329e-10	-1.881849e+01	-4.146005e+01
1.250000e-06	-2.669864e-06	-5.847512e-10	-1.853776e+01	-4.124709e+01
1.260000e-06	-2.629191e-06	-5.828042e-10	-1.825535e+01	-4.103032e+01
1.270000e-06	-2.588158e-06	-5.794952e-10	-1.797044e+01	-4.080965e+01
1.280000e-06	-2.546889e-06	-5.742286e-10	-1.768390e+01	-4.058495e+01
1.290000e-06	-2.505379e-06	-5.704943e-10	-1.739568e+01	-4.035613e+01
1.300000e-06	-2.463441e-06	-5.669318e-10	-1.710450e+01	-4.012306e+01
1.310000e-06	-2.421109e-06	-5.600536e-10	-1.681057e+01	-3.988560e+01
1.320000e-06	-2.378512e-06	-5.527467e-10	-1.651480e+01	-3.964364e+01
1.330000e-06	-2.335695e-06	-5.470836e-10	-1.621751e+01	-3.939702e+01
1.340000e-06	-2.292655e-06	-5.425721e-10	-1.591867e+01	-3.914560e+01
1.350000e-06	-2.249403e-06	-5.415070e-10	-1.561835e+01	-3.888921e+01
1.360000e-06	-2.205944e-06	-5.413416e-10	-1.531661e+01	-3.862769e+01
1.370000e-06	-2.162380e-06	-5.402797e-10	-1.501412e+01	-3.836085e+01
1.380000e-06	-2.118750e-06	-5.354144e-10	-1.471119e+01	-3.808851e+01
1.390000e-06	-2.075038e-06	-5.266396e-10	-1.440769e+01	-3.781047e+01
1.400000e-06	-2.031191e-06	-5.172096e-10	-1.410324e+01	-3.752650e+01
1.410000e-06	-1.987187e-06	-5.103033e-10	-1.379770e+01	-3.723639e+01
1.420000e-06	-1.943111e-06	-5.069477e-10	-1.349167e+01	-3.693990e+01
1.430000e-06	-1.899050e-06	-5.075903e-10	-1.318574e+01	-3.663678e+01
1.440000e-06	-1.854915e-06	-5.060439e-10	-1.287929e+01	-3.632677e+01
1.450000e-06	-1.810650e-06	-5.016228e-10	-1.257195e+01	-3.600959e+01
1.460000e-06	-1.766254e-06	-4.966708e-10	-1.226369e+01	-3.568495e+01
1.470000e-06	-1.721713e-06	-4.906659e-10	-1.195443e+01	-3.535256e+01
1.480000e-06	-1.677025e-06	-4.828993e-10	-1.164415e+01	-3.501210e+01
1.490000e-06	-1.632158e-06	-4.756956e-10	-1.133262e+01	-3.466324e+01
1.500000e-06	-1.587164e-06	-4.704581e-10	-1.102021e+01	-3.430566e+01
1.510000e-06	-1.542090e-06	-4.657425e-10	-1.070725e+01	-3.393900e+01
1.520000e-06	-1.496943e-06	-4.595528e-10	-1.039378e+01	-3.356291e+01
1.530000e-06	-1.451680e-06	-4.523557e-10	-1.007950e+01	-3.317702e+01
1.540000e-06	-1.406273e-06	-4.486552e-10	-9.764227e+00	-3.278098e+01
1.550000e-06	-1.360731e-06	-4.457407e-10	-9.448013e+00	-3.237439e+01
1.560000e-06	-1.315072e-06	-4.400935e-10	-9.130982e+00	-3.195689e+01
1.570000e-06	-1.269357e-06	-4.338982e-10	-8.813570e+00	-3.152808e+01
1.580000e-06	-1.223626e-06	-4.260426e-10	-8.496044e+00	-3.108759e+01
1.590000e-06	-1.177900e-06	-4.178620e-10	-8.178554e+00	-3.063504e+01
1.600000e-06	-1.132118e-06	-4.111239e-10	-7.860673e+00	-3.017005e+01
1.610000e-06	-1.086160e-06	-4.066782e-10	-7.541571e+00	-2.969226e+01
1.620000e-06	-1.040021e-06	-4.013077e-10	-7.221216e+00	-2.920129e+01
1.630000e-06	-9.938527e-07	-3.921619e-10	-6.900652e+00	-2.869680e+01
1.640000e-06	-9.477009e-07	-3.828438e-10	-6.580204e+00	-2.817846e+01
1.650000e-06	-9.015348e-07	-3.722189e-10	-6.259657e+00	-2.764595e+01
1.660000e-06	-8.553283e-07	-3.616243e-10	-5.938830e+00	-2.709897e+01
1.670000e-06	-8.089598e-07	-3.521958e-10	-5.616878e+00	-2.653723e+01
1.680000e-06	-7.624659e-07	-3.449450e-10	-5.294056e+00	-2.596048e+01
1.690000e-06	-7.160105e-07	-3.395098e-10	-4.971500e+00	-2.536850e+01
1.700000e-06	-6.694893e-07	-3.340350e-10	-4.648488e+00	-2.476109e+01
1.710000e-06	-6.228009e-07	-3.253891e-10	-4.324315e+00	-2.413808e+01
1.720000e-06	-5.761417e-07	-3.137904e-10	-4.000344e+00	-2.349935e+01
1.730000e-06	-5.294215e-07	-3.010305e-10	-3.675951e+00	-2.284478e+01
1.740000e-06	-4.825525e-07	-2.888467e-10	-3.350524e+00	-2.217434e+01
1.750000e-06	-4.357292e-07	-2.788277e-10	-3.025413e+00	-2.148800e+01
1.760000e-06	-3.889573e-07	-2.697676e-10	-2.700661e+00	-2.078578e+01
1.770000e-06	-3.421196e-07	-2.605811e-10	-2.375451e+00	-2.006776e+01
1.780000e-06	-2.951986e-07	-2.516952e-10	-2.049662e+00	-1.933406e+01
1.790000e-06	-2.482704e-07	-2.431681e-10	-1.723824e+00	-1.858482e+01
1.800000e-06	-2.013171e-07	-2.329225e-10	-1.397812e+00	-1.782026e+01
1.810000e-06	-1.544119e-07	-2.215579e-10	-1.072133e+00	-1.704062e+01
1.820000e-06	-1.075309e-07	-2.087301e-10	-7.466229e-01	-1.624622e+01
1.830000e-06	-6.060687e-08	-1.918788e-10	-4.208138e-01	-1.543740e+01
1.840000e-06	-1.371201e-08	-1.759593e-10	-9.520706e-02	-1.461455e+01
1.850000e-06	3.316176e-08	-1.640216e-10	2.302532e-01	-1.377811e+01
1.860000e-06	8.005075e-08	-1.529308e-10	5.558191e-01	-1.292857e+01
1.870000e-06	1.269743e-07	-1.407434e-10	8.816253e-01	-1.206646e+01
1.880000e-06	1.739443e-07	-1.290839e-10	1.207753e+00	-1.119235e+01
1.890000e-06	2.208116e-07	-1.189919e-10	1.533169e+00	-1.030686e+01
1.900000e-06	2.676080e-07	-1.077254e-10	1.858092e+00	-9.410644e+00
1.910000e-06	3.144053e-07	-9.561717e-11	2.183021e+00	-8.504380e+00
1.920000e-06	3.611696e-07	-8.110161e-11	2.507721e+00	-7.588797e+00
1.930000e-06	4.079061e-07	-6.363351e-11	2.832229e+00	-6.664648e+00
1.940000e-06	4.546262e-07	-4.700992e-11	3.156622e+00	-5.732715e+00
1.950000e-06	5.013987e-07	-3.231484e-11	3.481379e+00	-4.793806e+00
1.960000e-06	5.481548e-07	-1.995844e-11	3.806022e+00	-3.848751e+00
1.970000e-06	5.948099e-07	-1.009024e-11	4.129964e+00	-2.898396e+00
1.980000e-06	6.412917e-07	-5.420607e-13	4.452702e+00	-1.943606e+00
1.990000e-06	6.876835e-07	1.007210e-11	4.774816e+00	-9.852545e-01
2.000000e-06	7.341122e-07	2.278019e-11	5.097186e+00	-2.422372e-02
2.010000e-06	7.805578e-07	3.758149e-11	5.419674e+00	9.385998e-01
2.020000e-06	8.268928e-07	5.393729e-11	5.741393e+00	1.902329e+00
2.030000e-06	8.730469e-07	7.289364e-11	6.061856e+00	2.866080e+00
2.040000e-06	9.191338e-07	9.251303e-11	6.381853e+00	3.828975e+00
2.050000e-06	9.652370e-07	1.065940e-10	6.701963e+00	4.790148e+00
2.060000e-06	1.011380e-06	1.158737e-10	7.022350e+00	5.748744e+00
2.070000e-06	1.057490e-06	1.226214e-10	7.342507e+00	6.703927e+00
2.080000e-06	1.103580e-06	1.321259e-10	7.662524e+00	7.654879e+00
2.090000e-06	1.149534e-06	1.478011e-10	7.981601e+00	8.600806e+00
2.100000e-06	1.195249e-06	1.677214e-10	8.299017e+00	9.540938e+00
2.110000e-06	1.240862e-06	1.855865e-10	8.615721e+00	1.047453e+01
2.120000e-06	1.286394e-06	1.955119e-10	8.931861e+00	1.140088e+01
2.130000e-06	1.331859e-06	2.008479e-10	9.247545e+00	1.231931e+01
2.140000e-06	1.377278e-06	2.062681e-10	9.562901e+00	1.322916e+01
2.150000e-06	1.422666e-06	2.152956e-10	9.878043e+00	1.412983e+01
2.160000e-06	1.467968e-06	2.279604e-10	1.019259e+01	1.502075e+01
2.170000e-06	1.513061e-06	2.444467e-10	1.050569e+01	1.590139e+01
2.180000e-06	1.557997e-06	2.619651e-10	1.081769e+01	1.677123e+01
2.190000e-06	1.602889e-06	2.772386e-10	1.112939e+01	1.762984e+01
2.200000e-06	1.647692e-06	2.875759e-10	1.144048e+01	1.847678e+01
2.210000e-06	1.692287e-06	2.943627e-10	1.175012e+01	1.931169e+01
2.220000e-06	1.736703e-06	3.001364e-10	1.205851e+01	2.013421e+01
2.230000e-06	1.781010e-06	3.081303e-10	1.236615e+01	2.094405e+01
2.240000e-06	1.825201e-06	3.199039e-10	1.267298e+01	2.174093e+01
2.250000e-06	1.869304e-06	3.354386e-10	1.297920e+01	2.252464e+01
2.260000e-06	1.913332e-06	3.529619e-10	1.328491e+01	2.329498e+01
2.270000e-06	1.957271e-06	3.668298e-10	1.358999e+01	2.405178e+01
2.280000e-06	2.001137e-06	3.754892e-10	1.389456e+01	2.479491e+01
2.290000e-06	2.044933e-06	3.804197e-10	1.419865e+01	2.552429e+01
2.300000e-06	2.088663e-06	3.841933e-10	1.450229e+01	2.623984e+01
2.310000e-06	2.132360e-06	3.877618e-10	1.480569e+01	2.694152e+01
2.320000e-06	2.175992e-06	3.946847e-10	1.510864e+01	2.762931e+01
2.330000e-06	2.219493e-06	4.084132e-10	1.541068e+01	2.830322e+01
2.340000e-06	2.262836e-06	4.257229e-10	1.571162e+01	2.896327e+01
2.350000e-06	2.306020e-06	4.401113e-10	1.601146e+01	2.960952e+01
2.360000e-06	2.348988e-06	4.490476e-10	1.630981e+01	3.024203e+01
2.370000e-06	2.391737e-06	4.535445e-10	1.660663e+01	3.086087e+01
2.380000e-06	2.434139e-06	4.552046e-10	1.690104e+01	3.146613e+01
2.390000e-06	2.476215e-06	4.574484e-10	1.719319e+01	3.205793e+01
2.400000e-06	2.517924e-06	4.641859e-10	1.748279e+01	3.263637e+01
2.410000e-06	2.559217e-06	4.751244e-10	1.776950e+01	3.320157e+01
2.420000e-06	2.600223e-06	4.877926e-10	1.805422e+01	3.375366e+01
2.430000e-06	2.641008e-06	4.984317e-10	1.833740e+01	3.429278e+01
2.440000e-06	2.681567e-06	5.052466e-10	1.861902e+01	3.481905e+01
2.450000e-06	2.721902e-06	5.089824e-10	1.889908e+01	3.533263e+01
2.460000e-06	2.762081e-06	5.130724e-10	1.917806e+01	3.583364e+01
2.470000e-06	2.802075e-06	5.154616e-10	1.945574e+01	3.632223e+01
2.480000e-06	2.841889e-06	5.186731e-10	1.973219e+01	3.679854e+01
2.490000e-06	2.881621e-06	5.242258e-10	2.000806e+01	3.726272e+01
2.500000e-06	2.921292e-06	5.298732e-10	2.028351e+01	3.771490e+01
2.510000e-06	2.960822e-06	5.379535e-10	2.055798e+01	3.815523e+01
2.520000e-06	3.000199e-06	5.482202e-10	2.083139e+01	3.858384e+01
2.530000e-06	3.039386e-06	5.561992e-10	2.110347e+01	3.900086e+01
2.540000e-06	3.078443e-06	5.624720e-10	2.137466e+01	3.940645e+01
2.550000e-06	3.117265e-06	5.677618e-10	2.164421e+01	3.980073e+01
2.560000e-06	3.155730e-06	5.697586e-10	2.191129e+01	4.018384e+01
2.570000e-06	3.193928e-06	5.715541e-10	2.217651e+01	4.055591e+01
2.580000e-06	3.231947e-06	5.775973e-10	2.244049e+01	4.091709e+01
2.590000e-06	3.269791e-06	5.871000e-10	2.270325e+01	4.126751e+01
2.600000e-06	3.307377e-06	5.956080e-10	2.296422e+01	4.160732e+01
2.610000e-06	3.344743e-06	6.023740e-10	2.322367e+01	4.193665e+01
2.620000e-06	3.381946e-06	6.059308e-10	2.348198e+01	4.225565e+01
2.630000e-06	3.418948e-06	6.072240e-10	2.373890e+01	4.256447e+01
2.640000e-06	3.455609e-06	6.092492e-10	2.399345e+01	4.286328e+01
2.650000e-06	3.491924e-06	6.147641e-10	2.424559e+01	4.315221e+01
2.660000e-06	3.528066e-06	6.221985e-10	2.449654e+01	4.343145e+01
2.670000e-06	3.564110e-06	6.298122e-10	2.474681e+01	4.370117e+01
2.680000e-06	3.599985e-06	6.360252e-10	2.499590e+01	4.396153e+01
2.690000e-06	3.635706e-06	6.381395e-10	2.524392e+01	4.421272e+01
2.700000e-06	3.671321e-06	6.361634e-10	2.549121e+01	4.445494e+01
2.710000e-06	3.706736e-06	6.350417e-10	2.573710e+01	4.468838e+01
2.720000e-06	3.741820e-06	6.368124e-10	2.598071e+01	4.491324e+01
2.730000e-06	3.776636e-06	6.403189e-10	2.622245e+01	4.512975e+01
2.740000e-06	3.811132e-06	6.451221e-10	2.646196e+01	4.533811e+01
2.750000e-06	3.845074e-06	6.507352e-10	2.669763e+01	4.553856e+01
2.760000e-06	3.878371e-06	6.550478e-10	2.692883e+01	4.573132e+01
2.770000e-06	3.911162e-06	6.570276e-10	2.715650e+01	4.591663e+01
2.780000e-06	3.943618e-06	6.568109e-10	2.738186e+01	4.609473e+01
2.790000e-06	3.975829e-06	6.558665e-10	2.760551e+01	4.626588e+01
2.800000e-06	4.007864e-06	6.547917e-10	2.782794e+01	4.643031e+01
2.810000e-06	4.039777e-06	6.554055e-10	2.804952e+01	4.658828e+01
2.820000e-06	4.071520e-06	6.590375e-10	2.826993e+01	4.674005e+01
2.830000e-06	4.103027e-06	6.631984e-10	2.848869e+01	4.688587e+01
2.840000e-06	4.134343e-06	6.663631e-10	2.870613e+01	4.702599e+01
2.850000e-06	4.165411e-06	6.680512e-10	2.892184e+01	4.716067e+01
2.860000e-06	4.196101e-06	6.691952e-10	2.913493e+01	4.729016e+01
2.870000e-06	4.226432e-06	6.689880e-10	2.934553e+01	4.741470e+01
2.880000e-06	4.256553e-06	6.667510e-10	2.955467e+01	4.753454e+01
2.890000e-06	4.286426e-06	6.643460e-10	2.976209e+01	4.764992e+01
2.900000e-06	4.315962e-06	6.644065e-10	2.996717e+01	4.776107e+01
