# Temperatura_=_-0.3
# Concentracion g/m^3_=_1620.0
# C_Vs_to_Am_M_A/Vsm_=_65563218390.804596
# pendiente_HvsI_1/m_=_3716.3
# ordenada_HvsI_A/m_=_1297.0
# frecuencia_Hz_=_135100.98298438825

Tiempo_(s)	Campo_(V.s)	Magnetizacion_(V.s)	Campo_(kA/m)	Magnetizacion_(A/m)
0.000000e+00	-5.512269e-06	-1.661815e-09	-3.837094e+01	-1.065763e+02
1.000000e-08	-5.512392e-06	-1.659520e-09	-3.837180e+01	-1.065410e+02
2.000000e-08	-5.512178e-06	-1.658897e-09	-3.837031e+01	-1.065051e+02
3.000000e-08	-5.511538e-06	-1.660752e-09	-3.836585e+01	-1.064685e+02
4.000000e-08	-5.510430e-06	-1.661490e-09	-3.835814e+01	-1.064315e+02
5.000000e-08	-5.508787e-06	-1.660608e-09	-3.834670e+01	-1.063939e+02
6.000000e-08	-5.506467e-06	-1.661656e-09	-3.833055e+01	-1.063559e+02
7.000000e-08	-5.503569e-06	-1.668744e-09	-3.831038e+01	-1.063175e+02
8.000000e-08	-5.500202e-06	-1.673598e-09	-3.828694e+01	-1.062785e+02
9.000000e-08	-5.496397e-06	-1.654605e-09	-3.826045e+01	-1.062389e+02
1.000000e-07	-5.492204e-06	-1.615390e-09	-3.823127e+01	-1.061986e+02
1.100000e-07	-5.487732e-06	-1.622943e-09	-3.820014e+01	-1.061576e+02
1.200000e-07	-5.483073e-06	-1.688948e-09	-3.816771e+01	-1.061156e+02
1.300000e-07	-5.478075e-06	-1.666723e-09	-3.813292e+01	-1.060726e+02
1.400000e-07	-5.472748e-06	-1.618852e-09	-3.809583e+01	-1.060282e+02
1.500000e-07	-5.467095e-06	-1.617448e-09	-3.805648e+01	-1.059823e+02
1.600000e-07	-5.461092e-06	-1.693280e-09	-3.801470e+01	-1.059348e+02
1.700000e-07	-5.454669e-06	-1.692094e-09	-3.796999e+01	-1.058852e+02
1.800000e-07	-5.447771e-06	-1.607689e-09	-3.792197e+01	-1.058333e+02
1.900000e-07	-5.440536e-06	-1.591548e-09	-3.787161e+01	-1.057790e+02
2.000000e-07	-5.432960e-06	-1.625707e-09	-3.781887e+01	-1.057218e+02
2.100000e-07	-5.425095e-06	-1.649275e-09	-3.776412e+01	-1.056614e+02
2.200000e-07	-5.417108e-06	-1.604127e-09	-3.770852e+01	-1.055976e+02
2.300000e-07	-5.408841e-06	-1.597466e-09	-3.765098e+01	-1.055300e+02
2.400000e-07	-5.399995e-06	-1.605212e-09	-3.758940e+01	-1.054583e+02
2.500000e-07	-5.390346e-06	-1.621393e-09	-3.752223e+01	-1.053822e+02
2.600000e-07	-5.379984e-06	-1.587884e-09	-3.745010e+01	-1.053012e+02
2.700000e-07	-5.369215e-06	-1.578035e-09	-3.737514e+01	-1.052152e+02
2.800000e-07	-5.357979e-06	-1.570635e-09	-3.729693e+01	-1.051238e+02
2.900000e-07	-5.346300e-06	-1.580281e-09	-3.721563e+01	-1.050266e+02
3.000000e-07	-5.334240e-06	-1.574368e-09	-3.713168e+01	-1.049234e+02
3.100000e-07	-5.321706e-06	-1.572156e-09	-3.704443e+01	-1.048138e+02
3.200000e-07	-5.308730e-06	-1.580391e-09	-3.695410e+01	-1.046977e+02
3.300000e-07	-5.295419e-06	-1.591834e-09	-3.686145e+01	-1.045747e+02
3.400000e-07	-5.281764e-06	-1.571777e-09	-3.676640e+01	-1.044446e+02
3.500000e-07	-5.267663e-06	-1.543900e-09	-3.666824e+01	-1.043072e+02
3.600000e-07	-5.253108e-06	-1.555032e-09	-3.656692e+01	-1.041622e+02
3.700000e-07	-5.238191e-06	-1.556994e-09	-3.646308e+01	-1.040096e+02
3.800000e-07	-5.222860e-06	-1.535009e-09	-3.635636e+01	-1.038492e+02
3.900000e-07	-5.206934e-06	-1.541834e-09	-3.624550e+01	-1.036807e+02
4.000000e-07	-5.190462e-06	-1.569397e-09	-3.613084e+01	-1.035042e+02
4.100000e-07	-5.173600e-06	-1.536514e-09	-3.601346e+01	-1.033196e+02
4.200000e-07	-5.156422e-06	-1.520442e-09	-3.589389e+01	-1.031268e+02
4.300000e-07	-5.139011e-06	-1.552422e-09	-3.577269e+01	-1.029258e+02
4.400000e-07	-5.121297e-06	-1.545539e-09	-3.564938e+01	-1.027167e+02
4.500000e-07	-5.103154e-06	-1.486979e-09	-3.552309e+01	-1.024994e+02
4.600000e-07	-5.084488e-06	-1.517846e-09	-3.539315e+01	-1.022740e+02
4.700000e-07	-5.065370e-06	-1.542335e-09	-3.526008e+01	-1.020407e+02
4.800000e-07	-5.045999e-06	-1.497926e-09	-3.512523e+01	-1.017995e+02
4.900000e-07	-5.026439e-06	-1.486392e-09	-3.498908e+01	-1.015505e+02
5.000000e-07	-5.006714e-06	-1.532651e-09	-3.485177e+01	-1.012940e+02
5.100000e-07	-4.986669e-06	-1.493087e-09	-3.471223e+01	-1.010302e+02
5.200000e-07	-4.966249e-06	-1.461570e-09	-3.457009e+01	-1.007591e+02
5.300000e-07	-4.945585e-06	-1.502755e-09	-3.442625e+01	-1.004811e+02
5.400000e-07	-4.924628e-06	-1.497507e-09	-3.428037e+01	-1.001964e+02
5.500000e-07	-4.903220e-06	-1.440207e-09	-3.413134e+01	-9.990517e+01
5.600000e-07	-4.881394e-06	-1.471260e-09	-3.397941e+01	-9.960774e+01
5.700000e-07	-4.859313e-06	-1.491892e-09	-3.382571e+01	-9.930436e+01
5.800000e-07	-4.836924e-06	-1.439572e-09	-3.366986e+01	-9.899529e+01
5.900000e-07	-4.814205e-06	-1.435121e-09	-3.351171e+01	-9.868082e+01
6.000000e-07	-4.791225e-06	-1.474740e-09	-3.335175e+01	-9.836121e+01
6.100000e-07	-4.767904e-06	-1.446889e-09	-3.318941e+01	-9.803675e+01
6.200000e-07	-4.744278e-06	-1.427157e-09	-3.302495e+01	-9.770770e+01
6.300000e-07	-4.720418e-06	-1.456310e-09	-3.285886e+01	-9.737432e+01
6.400000e-07	-4.696270e-06	-1.443160e-09	-3.269077e+01	-9.703688e+01
6.500000e-07	-4.671777e-06	-1.415712e-09	-3.252027e+01	-9.669561e+01
6.600000e-07	-4.646992e-06	-1.429297e-09	-3.234774e+01	-9.635075e+01
6.700000e-07	-4.621686e-06	-1.426606e-09	-3.217159e+01	-9.600251e+01
6.800000e-07	-4.595558e-06	-1.396384e-09	-3.198971e+01	-9.565109e+01
6.900000e-07	-4.568855e-06	-1.402878e-09	-3.180383e+01	-9.529668e+01
7.000000e-07	-4.541780e-06	-1.406573e-09	-3.161536e+01	-9.493942e+01
7.100000e-07	-4.514335e-06	-1.385568e-09	-3.142431e+01	-9.457946e+01
7.200000e-07	-4.486713e-06	-1.379455e-09	-3.123204e+01	-9.421691e+01
7.300000e-07	-4.458994e-06	-1.388916e-09	-3.103908e+01	-9.385186e+01
7.400000e-07	-4.431098e-06	-1.372393e-09	-3.084490e+01	-9.348438e+01
7.500000e-07	-4.402972e-06	-1.363347e-09	-3.064912e+01	-9.311451e+01
7.600000e-07	-4.374546e-06	-1.363496e-09	-3.045124e+01	-9.274227e+01
7.700000e-07	-4.345765e-06	-1.354579e-09	-3.025090e+01	-9.236764e+01
7.800000e-07	-4.316659e-06	-1.338479e-09	-3.004829e+01	-9.199059e+01
7.900000e-07	-4.287241e-06	-1.338336e-09	-2.984351e+01	-9.161106e+01
8.000000e-07	-4.257509e-06	-1.324984e-09	-2.963654e+01	-9.122896e+01
8.100000e-07	-4.227567e-06	-1.307644e-09	-2.942812e+01	-9.084419e+01
8.200000e-07	-4.197472e-06	-1.305280e-09	-2.921863e+01	-9.045661e+01
8.300000e-07	-4.167047e-06	-1.307090e-09	-2.900684e+01	-9.006608e+01
8.400000e-07	-4.136151e-06	-1.294713e-09	-2.879177e+01	-8.967241e+01
8.500000e-07	-4.104920e-06	-1.292199e-09	-2.857438e+01	-8.927543e+01
8.600000e-07	-4.073561e-06	-1.293500e-09	-2.835608e+01	-8.887491e+01
8.700000e-07	-4.042099e-06	-1.280974e-09	-2.813708e+01	-8.847066e+01
8.800000e-07	-4.010446e-06	-1.268055e-09	-2.791674e+01	-8.806242e+01
8.900000e-07	-3.978594e-06	-1.266115e-09	-2.769502e+01	-8.764996e+01
9.000000e-07	-3.946543e-06	-1.255210e-09	-2.747191e+01	-8.723303e+01
9.100000e-07	-3.914206e-06	-1.241389e-09	-2.724681e+01	-8.681136e+01
9.200000e-07	-3.881487e-06	-1.238541e-09	-2.701906e+01	-8.638471e+01
9.300000e-07	-3.848351e-06	-1.234864e-09	-2.678840e+01	-8.595281e+01
9.400000e-07	-3.814772e-06	-1.223895e-09	-2.655465e+01	-8.551541e+01
9.500000e-07	-3.780719e-06	-1.220506e-09	-2.631761e+01	-8.507224e+01
9.600000e-07	-3.746173e-06	-1.220680e-09	-2.607714e+01	-8.462306e+01
9.700000e-07	-3.711216e-06	-1.206905e-09	-2.583380e+01	-8.416764e+01
9.800000e-07	-3.675961e-06	-1.196741e-09	-2.558839e+01	-8.370574e+01
9.900000e-07	-3.640544e-06	-1.193556e-09	-2.534185e+01	-8.323716e+01
1.000000e-06	-3.604944e-06	-1.184917e-09	-2.509404e+01	-8.276169e+01
1.010000e-06	-3.569130e-06	-1.173223e-09	-2.484474e+01	-8.227915e+01
1.020000e-06	-3.533216e-06	-1.173110e-09	-2.459474e+01	-8.178938e+01
1.030000e-06	-3.497132e-06	-1.167252e-09	-2.434356e+01	-8.129222e+01
1.040000e-06	-3.460812e-06	-1.155718e-09	-2.409073e+01	-8.078757e+01
1.050000e-06	-3.424295e-06	-1.149490e-09	-2.383654e+01	-8.027532e+01
1.060000e-06	-3.387566e-06	-1.146951e-09	-2.358087e+01	-7.975540e+01
1.070000e-06	-3.350586e-06	-1.133335e-09	-2.332345e+01	-7.922774e+01
1.080000e-06	-3.313277e-06	-1.120486e-09	-2.306374e+01	-7.869232e+01
1.090000e-06	-3.275694e-06	-1.110501e-09	-2.280213e+01	-7.814913e+01
1.100000e-06	-3.237919e-06	-1.097496e-09	-2.253918e+01	-7.759819e+01
1.110000e-06	-3.199875e-06	-1.084394e-09	-2.227435e+01	-7.703954e+01
1.120000e-06	-3.161633e-06	-1.080842e-09	-2.200815e+01	-7.647324e+01
1.130000e-06	-3.123289e-06	-1.074742e-09	-2.174123e+01	-7.589937e+01
1.140000e-06	-3.084695e-06	-1.065414e-09	-2.147258e+01	-7.531805e+01
1.150000e-06	-3.045773e-06	-1.059319e-09	-2.120164e+01	-7.472939e+01
1.160000e-06	-3.006657e-06	-1.053982e-09	-2.092936e+01	-7.413352e+01
1.170000e-06	-2.967402e-06	-1.043507e-09	-2.065611e+01	-7.353061e+01
1.180000e-06	-2.927975e-06	-1.032732e-09	-2.038165e+01	-7.292083e+01
1.190000e-06	-2.888439e-06	-1.022678e-09	-2.010644e+01	-7.230433e+01
1.200000e-06	-2.848779e-06	-1.010600e-09	-1.983037e+01	-7.168132e+01
1.210000e-06	-2.808928e-06	-1.000485e-09	-1.955296e+01	-7.105198e+01
1.220000e-06	-2.768985e-06	-9.936232e-10	-1.927492e+01	-7.041650e+01
1.230000e-06	-2.728923e-06	-9.852465e-10	-1.899605e+01	-6.977507e+01
1.240000e-06	-2.688629e-06	-9.739528e-10	-1.871556e+01	-6.912788e+01
1.250000e-06	-2.648127e-06	-9.666337e-10	-1.843363e+01	-6.847510e+01
1.260000e-06	-2.607423e-06	-9.582700e-10	-1.815029e+01	-6.781691e+01
1.270000e-06	-2.566455e-06	-9.466451e-10	-1.786511e+01	-6.715346e+01
1.280000e-06	-2.525158e-06	-9.355095e-10	-1.757764e+01	-6.648490e+01
1.290000e-06	-2.483450e-06	-9.262394e-10	-1.728732e+01	-6.581134e+01
1.300000e-06	-2.441406e-06	-9.142576e-10	-1.699465e+01	-6.513288e+01
1.310000e-06	-2.399121e-06	-9.011000e-10	-1.670030e+01	-6.444960e+01
1.320000e-06	-2.356709e-06	-8.918173e-10	-1.640507e+01	-6.376154e+01
1.330000e-06	-2.314056e-06	-8.836226e-10	-1.610816e+01	-6.306872e+01
1.340000e-06	-2.271046e-06	-8.726851e-10	-1.580877e+01	-6.237113e+01
1.350000e-06	-2.227861e-06	-8.631154e-10	-1.550816e+01	-6.166871e+01
1.360000e-06	-2.184507e-06	-8.533766e-10	-1.520636e+01	-6.096138e+01
1.370000e-06	-2.141014e-06	-8.453299e-10	-1.490361e+01	-6.024902e+01
1.380000e-06	-2.097436e-06	-8.347043e-10	-1.460027e+01	-5.953145e+01
1.390000e-06	-2.053760e-06	-8.233303e-10	-1.429624e+01	-5.880849e+01
1.400000e-06	-2.009956e-06	-8.076312e-10	-1.399132e+01	-5.807988e+01
1.410000e-06	-1.966098e-06	-7.906122e-10	-1.368602e+01	-5.734534e+01
1.420000e-06	-1.922224e-06	-7.768576e-10	-1.338061e+01	-5.660454e+01
1.430000e-06	-1.878224e-06	-7.663716e-10	-1.307433e+01	-5.585713e+01
1.440000e-06	-1.834125e-06	-7.582554e-10	-1.276736e+01	-5.510268e+01
1.450000e-06	-1.790055e-06	-7.499224e-10	-1.246059e+01	-5.434076e+01
1.460000e-06	-1.745908e-06	-7.379820e-10	-1.215327e+01	-5.357088e+01
1.470000e-06	-1.701461e-06	-7.221579e-10	-1.184388e+01	-5.279253e+01
1.480000e-06	-1.656766e-06	-7.059543e-10	-1.153276e+01	-5.200515e+01
1.490000e-06	-1.611967e-06	-6.916648e-10	-1.122091e+01	-5.120817e+01
1.500000e-06	-1.567064e-06	-6.793505e-10	-1.090834e+01	-5.040096e+01
1.510000e-06	-1.522045e-06	-6.686677e-10	-1.059497e+01	-4.958289e+01
1.520000e-06	-1.476944e-06	-6.591335e-10	-1.028101e+01	-4.875331e+01
1.530000e-06	-1.431777e-06	-6.476046e-10	-9.966606e+00	-4.791153e+01
1.540000e-06	-1.386480e-06	-6.340790e-10	-9.651293e+00	-4.705688e+01
1.550000e-06	-1.341065e-06	-6.182902e-10	-9.335165e+00	-4.618864e+01
1.560000e-06	-1.295670e-06	-6.016251e-10	-9.019166e+00	-4.530611e+01
1.570000e-06	-1.250188e-06	-5.851677e-10	-8.702563e+00	-4.440859e+01
1.580000e-06	-1.204549e-06	-5.687369e-10	-8.384876e+00	-4.349536e+01
1.590000e-06	-1.158808e-06	-5.538504e-10	-8.066470e+00	-4.256575e+01
1.600000e-06	-1.112970e-06	-5.395797e-10	-7.747392e+00	-4.161906e+01
1.610000e-06	-1.067069e-06	-5.223676e-10	-7.427873e+00	-4.065463e+01
1.620000e-06	-1.021141e-06	-5.052539e-10	-7.108172e+00	-3.967182e+01
1.630000e-06	-9.751781e-07	-4.908010e-10	-6.788221e+00	-3.867002e+01
1.640000e-06	-9.290940e-07	-4.780047e-10	-6.467429e+00	-3.764866e+01
1.650000e-06	-8.829825e-07	-4.636062e-10	-6.146447e+00	-3.660718e+01
1.660000e-06	-8.368865e-07	-4.489100e-10	-5.825572e+00	-3.554509e+01
1.670000e-06	-7.907141e-07	-4.317576e-10	-5.504166e+00	-3.446194e+01
1.680000e-06	-7.444511e-07	-4.140295e-10	-5.182129e+00	-3.335733e+01
1.690000e-06	-6.980126e-07	-3.965889e-10	-4.858870e+00	-3.223091e+01
1.700000e-06	-6.515538e-07	-3.784466e-10	-4.535470e+00	-3.108239e+01
1.710000e-06	-6.050837e-07	-3.582416e-10	-4.211992e+00	-2.991155e+01
1.720000e-06	-5.584702e-07	-3.391781e-10	-3.887515e+00	-2.871823e+01
1.730000e-06	-5.118435e-07	-3.214736e-10	-3.562946e+00	-2.750235e+01
1.740000e-06	-4.652452e-07	-3.022456e-10	-3.238575e+00	-2.626387e+01
1.750000e-06	-4.186127e-07	-2.838678e-10	-2.913966e+00	-2.500286e+01
1.760000e-06	-3.719041e-07	-2.677590e-10	-2.588827e+00	-2.371944e+01
1.770000e-06	-3.251219e-07	-2.517271e-10	-2.263176e+00	-2.241382e+01
1.780000e-06	-2.783220e-07	-2.340819e-10	-1.937401e+00	-2.108627e+01
1.790000e-06	-2.315193e-07	-2.160067e-10	-1.611608e+00	-1.973716e+01
1.800000e-06	-1.847222e-07	-1.970257e-10	-1.285852e+00	-1.836692e+01
1.810000e-06	-1.379219e-07	-1.766395e-10	-9.600749e-01	-1.697605e+01
1.820000e-06	-9.111067e-08	-1.556740e-10	-6.342219e-01	-1.556515e+01
1.830000e-06	-4.430360e-08	-1.348059e-10	-3.083977e-01	-1.413488e+01
1.840000e-06	2.523674e-09	-1.165382e-10	1.756731e-02	-1.268597e+01
1.850000e-06	4.939849e-08	-1.013565e-10	3.438632e-01	-1.121921e+01
1.860000e-06	9.618776e-08	-8.296738e-11	6.695636e-01	-9.735496e+00
1.870000e-06	1.428756e-07	-6.099611e-11	9.945577e-01	-8.235744e+00
1.880000e-06	1.896871e-07	-3.860585e-11	1.320413e+00	-6.720955e+00
1.890000e-06	2.365029e-07	-1.706003e-11	1.646298e+00	-5.192180e+00
1.900000e-06	2.831938e-07	3.445135e-12	1.971314e+00	-3.650523e+00
1.910000e-06	3.299052e-07	2.245022e-11	2.296472e+00	-2.097139e+00
1.920000e-06	3.765978e-07	4.318880e-11	2.621500e+00	-5.332236e-01
1.930000e-06	4.232108e-07	6.630013e-11	2.945973e+00	1.039988e+00
1.940000e-06	4.697488e-07	8.880413e-11	3.269925e+00	2.621227e+00
1.950000e-06	5.162014e-07	1.089867e-10	3.593281e+00	4.209196e+00
1.960000e-06	5.625892e-07	1.290650e-10	3.916187e+00	5.802576e+00
1.970000e-06	6.089340e-07	1.497472e-10	4.238794e+00	7.400032e+00
1.980000e-06	6.553542e-07	1.694184e-10	4.561925e+00	9.000216e+00
1.990000e-06	7.017378e-07	1.883698e-10	4.884802e+00	1.060178e+01
2.000000e-06	7.479986e-07	2.115313e-10	5.206823e+00	1.220336e+01
2.010000e-06	7.942210e-07	2.359499e-10	5.528578e+00	1.380362e+01
2.020000e-06	8.403945e-07	2.591142e-10	5.849991e+00	1.540121e+01
2.030000e-06	8.864886e-07	2.840203e-10	6.170853e+00	1.699484e+01
2.040000e-06	9.325547e-07	3.089056e-10	6.491520e+00	1.858319e+01
2.050000e-06	9.786377e-07	3.303868e-10	6.812304e+00	2.016499e+01
2.060000e-06	1.024632e-06	3.494004e-10	7.132467e+00	2.173903e+01
2.070000e-06	1.070570e-06	3.688409e-10	7.452241e+00	2.330408e+01
2.080000e-06	1.116423e-06	3.900180e-10	7.771425e+00	2.485900e+01
2.090000e-06	1.162083e-06	4.150351e-10	8.089269e+00	2.640268e+01
2.100000e-06	1.207644e-06	4.406477e-10	8.406419e+00	2.793405e+01
2.110000e-06	1.253223e-06	4.647031e-10	8.723696e+00	2.945211e+01
2.120000e-06	1.298787e-06	4.854761e-10	9.040864e+00	3.095589e+01
2.130000e-06	1.344211e-06	5.031751e-10	9.357064e+00	3.244451e+01
2.140000e-06	1.389486e-06	5.198442e-10	9.672221e+00	3.391712e+01
2.150000e-06	1.434658e-06	5.366120e-10	9.986664e+00	3.537297e+01
2.160000e-06	1.479706e-06	5.547807e-10	1.030024e+01	3.681134e+01
2.170000e-06	1.524671e-06	5.758846e-10	1.061324e+01	3.823158e+01
2.180000e-06	1.569562e-06	5.977732e-10	1.092573e+01	3.963313e+01
2.190000e-06	1.614373e-06	6.201386e-10	1.123766e+01	4.101547e+01
2.200000e-06	1.659028e-06	6.397412e-10	1.154850e+01	4.237817e+01
2.210000e-06	1.703473e-06	6.549142e-10	1.185789e+01	4.372083e+01
2.220000e-06	1.747899e-06	6.686410e-10	1.216714e+01	4.504315e+01
2.230000e-06	1.792166e-06	6.836424e-10	1.247528e+01	4.634489e+01
2.240000e-06	1.836203e-06	7.028110e-10	1.278182e+01	4.762584e+01
2.250000e-06	1.880180e-06	7.243131e-10	1.308795e+01	4.888589e+01
2.260000e-06	1.924079e-06	7.458313e-10	1.339353e+01	5.012495e+01
2.270000e-06	1.967935e-06	7.653043e-10	1.369881e+01	5.134303e+01
2.280000e-06	2.011771e-06	7.792684e-10	1.400395e+01	5.254014e+01
2.290000e-06	2.055502e-06	7.911357e-10	1.430836e+01	5.371638e+01
2.300000e-06	2.099132e-06	8.028179e-10	1.461207e+01	5.487188e+01
2.310000e-06	2.142731e-06	8.182832e-10	1.491556e+01	5.600682e+01
2.320000e-06	2.186213e-06	8.377932e-10	1.521824e+01	5.712139e+01
2.330000e-06	2.229511e-06	8.582262e-10	1.551964e+01	5.821586e+01
2.340000e-06	2.272645e-06	8.777184e-10	1.581990e+01	5.929050e+01
2.350000e-06	2.315592e-06	8.915992e-10	1.611885e+01	6.034561e+01
2.360000e-06	2.358356e-06	9.024821e-10	1.641653e+01	6.138153e+01
2.370000e-06	2.400860e-06	9.117827e-10	1.671240e+01	6.239861e+01
2.380000e-06	2.442989e-06	9.237147e-10	1.700566e+01	6.339721e+01
2.390000e-06	2.484809e-06	9.387658e-10	1.729677e+01	6.437771e+01
2.400000e-06	2.526223e-06	9.551151e-10	1.758506e+01	6.534050e+01
2.410000e-06	2.567338e-06	9.718262e-10	1.787125e+01	6.628597e+01
2.420000e-06	2.608271e-06	9.869165e-10	1.815619e+01	6.721451e+01
2.430000e-06	2.648875e-06	9.986111e-10	1.843884e+01	6.812652e+01
2.440000e-06	2.689236e-06	1.006807e-09	1.871979e+01	6.902238e+01
2.450000e-06	2.729396e-06	1.014109e-09	1.899934e+01	6.990247e+01
2.460000e-06	2.769409e-06	1.024348e-09	1.927787e+01	7.076717e+01
2.470000e-06	2.809316e-06	1.035901e-09	1.955567e+01	7.161684e+01
2.480000e-06	2.849080e-06	1.048450e-09	1.983246e+01	7.245182e+01
2.490000e-06	2.888710e-06	1.061625e-09	2.010833e+01	7.327244e+01
2.500000e-06	2.928247e-06	1.076609e-09	2.038354e+01	7.407901e+01
2.510000e-06	2.967623e-06	1.091362e-09	2.065764e+01	7.487183e+01
2.520000e-06	3.006810e-06	1.102469e-09	2.093042e+01	7.565117e+01
2.530000e-06	3.045818e-06	1.111764e-09	2.120196e+01	7.641728e+01
2.540000e-06	3.084552e-06	1.122233e-09	2.147159e+01	7.717041e+01
2.550000e-06	3.122978e-06	1.132003e-09	2.173907e+01	7.791075e+01
2.560000e-06	3.161219e-06	1.139679e-09	2.200526e+01	7.863851e+01
2.570000e-06	3.199286e-06	1.149852e-09	2.227025e+01	7.935385e+01
2.580000e-06	3.237163e-06	1.161775e-09	2.253391e+01	8.005692e+01
2.590000e-06	3.274901e-06	1.172923e-09	2.279661e+01	8.074787e+01
2.600000e-06	3.312391e-06	1.181766e-09	2.305757e+01	8.142679e+01
2.610000e-06	3.349624e-06	1.188979e-09	2.331675e+01	8.209380e+01
2.620000e-06	3.386570e-06	1.196397e-09	2.357394e+01	8.274898e+01
2.630000e-06	3.423224e-06	1.203785e-09	2.382908e+01	8.339238e+01
2.640000e-06	3.459706e-06	1.210358e-09	2.408303e+01	8.402408e+01
2.650000e-06	3.495975e-06	1.220021e-09	2.433550e+01	8.464411e+01
2.660000e-06	3.531990e-06	1.231823e-09	2.458621e+01	8.525252e+01
2.670000e-06	3.567824e-06	1.241307e-09	2.483564e+01	8.584933e+01
2.680000e-06	3.603535e-06	1.247933e-09	2.508423e+01	8.643457e+01
2.690000e-06	3.639121e-06	1.253115e-09	2.533195e+01	8.700828e+01
2.700000e-06	3.674554e-06	1.258301e-09	2.557859e+01	8.757046e+01
2.710000e-06	3.709841e-06	1.266010e-09	2.582423e+01	8.812114e+01
2.720000e-06	3.744843e-06	1.275286e-09	2.606788e+01	8.866035e+01
2.730000e-06	3.779482e-06	1.285223e-09	2.630900e+01	8.918812e+01
2.740000e-06	3.813678e-06	1.294269e-09	2.654704e+01	8.970450e+01
2.750000e-06	3.847308e-06	1.300160e-09	2.678114e+01	9.020952e+01
2.760000e-06	3.880489e-06	1.303807e-09	2.701211e+01	9.070323e+01
2.770000e-06	3.913259e-06	1.306248e-09	2.724022e+01	9.118572e+01
2.780000e-06	3.945701e-06	1.310474e-09	2.746605e+01	9.165705e+01
2.790000e-06	3.977913e-06	1.317230e-09	2.769028e+01	9.211731e+01
2.800000e-06	4.009906e-06	1.324612e-09	2.791298e+01	9.256662e+01
2.810000e-06	4.041688e-06	1.332820e-09	2.813422e+01	9.300508e+01
2.820000e-06	4.073252e-06	1.340459e-09	2.835393e+01	9.343283e+01
2.830000e-06	4.104646e-06	1.347379e-09	2.857247e+01	9.385002e+01
2.840000e-06	4.135783e-06	1.353021e-09	2.878921e+01	9.425682e+01
2.850000e-06	4.166600e-06	1.356649e-09	2.900373e+01	9.465339e+01
2.860000e-06	4.197087e-06	1.360561e-09	2.921595e+01	9.503994e+01
2.870000e-06	4.227235e-06	1.365194e-09	2.942581e+01	9.541667e+01
2.880000e-06	4.257113e-06	1.370467e-09	2.963379e+01	9.578379e+01
2.890000e-06	4.286730e-06	1.375863e-09	2.983995e+01	9.614155e+01
2.900000e-06	4.316092e-06	1.381564e-09	3.004435e+01	9.649018e+01
2.910000e-06	4.345111e-06	1.387649e-09	3.024634e+01	9.682994e+01
