# Temperatura_=_-0.4
# Concentracion g/m^3_=_1620.0
# C_Vs_to_Am_M_A/Vsm_=_65563218390.804596
# pendiente_HvsI_1/m_=_3716.3
# ordenada_HvsI_A/m_=_1297.0
# frecuencia_Hz_=_135092.7705835989

Tiempo_(s)	Campo_(V.s)	Magnetizacion_(V.s)	Campo_(kA/m)	Magnetizacion_(A/m)
0.000000e+00	-5.512539e-06	-1.617294e-09	-3.838034e+01	-1.036930e+02
1.000000e-08	-5.512690e-06	-1.615978e-09	-3.838139e+01	-1.036521e+02
2.000000e-08	-5.512518e-06	-1.615635e-09	-3.838020e+01	-1.036088e+02
3.000000e-08	-5.511906e-06	-1.616818e-09	-3.837593e+01	-1.035632e+02
4.000000e-08	-5.510780e-06	-1.618848e-09	-3.836809e+01	-1.035155e+02
5.000000e-08	-5.509065e-06	-1.618084e-09	-3.835615e+01	-1.034656e+02
6.000000e-08	-5.506652e-06	-1.612686e-09	-3.833935e+01	-1.034136e+02
7.000000e-08	-5.503672e-06	-1.608243e-09	-3.831861e+01	-1.033597e+02
8.000000e-08	-5.500358e-06	-1.622782e-09	-3.829553e+01	-1.033039e+02
9.000000e-08	-5.496613e-06	-1.656892e-09	-3.826946e+01	-1.032462e+02
1.000000e-07	-5.492312e-06	-1.643114e-09	-3.823951e+01	-1.031868e+02
1.100000e-07	-5.487755e-06	-1.578116e-09	-3.820779e+01	-1.031255e+02
1.200000e-07	-5.483173e-06	-1.579847e-09	-3.817589e+01	-1.030626e+02
1.300000e-07	-5.478299e-06	-1.632194e-09	-3.814195e+01	-1.029979e+02
1.400000e-07	-5.472928e-06	-1.644821e-09	-3.810455e+01	-1.029314e+02
1.500000e-07	-5.467078e-06	-1.594481e-09	-3.806382e+01	-1.028633e+02
1.600000e-07	-5.460935e-06	-1.587589e-09	-3.802106e+01	-1.027933e+02
1.700000e-07	-5.454491e-06	-1.641024e-09	-3.797619e+01	-1.027216e+02
1.800000e-07	-5.447526e-06	-1.616803e-09	-3.792770e+01	-1.026480e+02
1.900000e-07	-5.440177e-06	-1.566425e-09	-3.787653e+01	-1.025725e+02
2.000000e-07	-5.432675e-06	-1.542436e-09	-3.782430e+01	-1.024950e+02
2.100000e-07	-5.424946e-06	-1.590337e-09	-3.777048e+01	-1.024154e+02
2.200000e-07	-5.416848e-06	-1.592329e-09	-3.771410e+01	-1.023337e+02
2.300000e-07	-5.408404e-06	-1.578895e-09	-3.765532e+01	-1.022496e+02
2.400000e-07	-5.399527e-06	-1.561454e-09	-3.759351e+01	-1.021632e+02
2.500000e-07	-5.389888e-06	-1.568255e-09	-3.752640e+01	-1.020742e+02
2.600000e-07	-5.379414e-06	-1.563226e-09	-3.745347e+01	-1.019825e+02
2.700000e-07	-5.368420e-06	-1.563620e-09	-3.737693e+01	-1.018881e+02
2.800000e-07	-5.357077e-06	-1.554772e-09	-3.729796e+01	-1.017906e+02
2.900000e-07	-5.345469e-06	-1.545709e-09	-3.721714e+01	-1.016901e+02
3.000000e-07	-5.333539e-06	-1.557015e-09	-3.713407e+01	-1.015863e+02
3.100000e-07	-5.321133e-06	-1.558840e-09	-3.704770e+01	-1.014790e+02
3.200000e-07	-5.308217e-06	-1.545552e-09	-3.695778e+01	-1.013682e+02
3.300000e-07	-5.294898e-06	-1.530610e-09	-3.686504e+01	-1.012537e+02
3.400000e-07	-5.281229e-06	-1.551234e-09	-3.676988e+01	-1.011352e+02
3.500000e-07	-5.267121e-06	-1.534904e-09	-3.667165e+01	-1.010127e+02
3.600000e-07	-5.252555e-06	-1.519746e-09	-3.657024e+01	-1.008860e+02
3.700000e-07	-5.237560e-06	-1.523720e-09	-3.646583e+01	-1.007549e+02
3.800000e-07	-5.222090e-06	-1.530106e-09	-3.635813e+01	-1.006194e+02
3.900000e-07	-5.205986e-06	-1.500275e-09	-3.624601e+01	-1.004794e+02
4.000000e-07	-5.189484e-06	-1.516220e-09	-3.613111e+01	-1.003346e+02
4.100000e-07	-5.172794e-06	-1.530403e-09	-3.601491e+01	-1.001850e+02
4.200000e-07	-5.155747e-06	-1.501485e-09	-3.589622e+01	-1.000305e+02
4.300000e-07	-5.138354e-06	-1.482952e-09	-3.577512e+01	-9.987098e+01
4.400000e-07	-5.120626e-06	-1.520851e-09	-3.565170e+01	-9.970646e+01
4.500000e-07	-5.102473e-06	-1.502661e-09	-3.552531e+01	-9.953683e+01
4.600000e-07	-5.083881e-06	-1.468162e-09	-3.539587e+01	-9.936206e+01
4.700000e-07	-5.064925e-06	-1.492787e-09	-3.526389e+01	-9.918212e+01
4.800000e-07	-5.045654e-06	-1.511908e-09	-3.512972e+01	-9.899700e+01
4.900000e-07	-5.026115e-06	-1.471294e-09	-3.499368e+01	-9.880669e+01
5.000000e-07	-5.006401e-06	-1.476063e-09	-3.485642e+01	-9.861122e+01
5.100000e-07	-4.986456e-06	-1.496325e-09	-3.471756e+01	-9.841060e+01
5.200000e-07	-4.966130e-06	-1.463581e-09	-3.457604e+01	-9.820487e+01
5.300000e-07	-4.945439e-06	-1.449599e-09	-3.443198e+01	-9.799408e+01
5.400000e-07	-4.924437e-06	-1.483695e-09	-3.428576e+01	-9.777828e+01
5.500000e-07	-4.903077e-06	-1.465704e-09	-3.413704e+01	-9.755755e+01
5.600000e-07	-4.881368e-06	-1.435230e-09	-3.398590e+01	-9.733197e+01
5.700000e-07	-4.859385e-06	-1.462481e-09	-3.383284e+01	-9.710160e+01
5.800000e-07	-4.837068e-06	-1.460220e-09	-3.367746e+01	-9.686655e+01
5.900000e-07	-4.814247e-06	-1.425109e-09	-3.351857e+01	-9.662691e+01
6.000000e-07	-4.791105e-06	-1.437896e-09	-3.335745e+01	-9.638276e+01
6.100000e-07	-4.767784e-06	-1.452878e-09	-3.319508e+01	-9.613420e+01
6.200000e-07	-4.744169e-06	-1.423357e-09	-3.303067e+01	-9.588134e+01
6.300000e-07	-4.720328e-06	-1.421226e-09	-3.286467e+01	-9.562426e+01
6.400000e-07	-4.696191e-06	-1.434182e-09	-3.269662e+01	-9.536305e+01
6.500000e-07	-4.671655e-06	-1.415472e-09	-3.252579e+01	-9.509780e+01
6.600000e-07	-4.646747e-06	-1.404103e-09	-3.235237e+01	-9.482859e+01
6.700000e-07	-4.621349e-06	-1.419115e-09	-3.217555e+01	-9.455549e+01
6.800000e-07	-4.595332e-06	-1.404850e-09	-3.199441e+01	-9.427856e+01
6.900000e-07	-4.568757e-06	-1.389713e-09	-3.180938e+01	-9.399784e+01
7.000000e-07	-4.541748e-06	-1.391787e-09	-3.162134e+01	-9.371339e+01
7.100000e-07	-4.514402e-06	-1.383516e-09	-3.143094e+01	-9.342523e+01
7.200000e-07	-4.486815e-06	-1.362848e-09	-3.123887e+01	-9.313337e+01
7.300000e-07	-4.459135e-06	-1.369681e-09	-3.104615e+01	-9.283781e+01
7.400000e-07	-4.431301e-06	-1.371169e-09	-3.085236e+01	-9.253854e+01
7.500000e-07	-4.403253e-06	-1.362643e-09	-3.065708e+01	-9.223552e+01
7.600000e-07	-4.374900e-06	-1.362437e-09	-3.045967e+01	-9.192872e+01
7.700000e-07	-4.346161e-06	-1.359857e-09	-3.025958e+01	-9.161807e+01
7.800000e-07	-4.317080e-06	-1.342802e-09	-3.005711e+01	-9.130350e+01
7.900000e-07	-4.287704e-06	-1.337116e-09	-2.985259e+01	-9.098491e+01
8.000000e-07	-4.258077e-06	-1.335407e-09	-2.964631e+01	-9.066222e+01
8.100000e-07	-4.228132e-06	-1.322470e-09	-2.943782e+01	-9.033529e+01
8.200000e-07	-4.197892e-06	-1.311867e-09	-2.922728e+01	-9.000400e+01
8.300000e-07	-4.167455e-06	-1.314301e-09	-2.901537e+01	-8.966822e+01
8.400000e-07	-4.136732e-06	-1.310403e-09	-2.880146e+01	-8.932778e+01
8.500000e-07	-4.105706e-06	-1.301709e-09	-2.858545e+01	-8.898253e+01
8.600000e-07	-4.074494e-06	-1.298979e-09	-2.836814e+01	-8.863231e+01
8.700000e-07	-4.043032e-06	-1.292784e-09	-2.814909e+01	-8.827694e+01
8.800000e-07	-4.011319e-06	-1.279309e-09	-2.792829e+01	-8.791624e+01
8.900000e-07	-3.979442e-06	-1.269490e-09	-2.770635e+01	-8.755004e+01
9.000000e-07	-3.947369e-06	-1.262033e-09	-2.748304e+01	-8.717816e+01
9.100000e-07	-3.914928e-06	-1.248697e-09	-2.725718e+01	-8.680042e+01
9.200000e-07	-3.882084e-06	-1.242590e-09	-2.702851e+01	-8.641665e+01
9.300000e-07	-3.848833e-06	-1.242262e-09	-2.679700e+01	-8.602668e+01
9.400000e-07	-3.815135e-06	-1.236434e-09	-2.656239e+01	-8.563034e+01
9.500000e-07	-3.780950e-06	-1.226129e-09	-2.632438e+01	-8.522750e+01
9.600000e-07	-3.746319e-06	-1.221872e-09	-2.608326e+01	-8.481800e+01
9.700000e-07	-3.711309e-06	-1.213157e-09	-2.583951e+01	-8.440171e+01
9.800000e-07	-3.676050e-06	-1.201629e-09	-2.559402e+01	-8.397853e+01
9.900000e-07	-3.640621e-06	-1.195043e-09	-2.534735e+01	-8.354835e+01
1.000000e-06	-3.605018e-06	-1.193184e-09	-2.509948e+01	-8.311109e+01
1.010000e-06	-3.569284e-06	-1.186002e-09	-2.485068e+01	-8.266670e+01
1.020000e-06	-3.533464e-06	-1.178652e-09	-2.460128e+01	-8.221511e+01
1.030000e-06	-3.497495e-06	-1.172768e-09	-2.435086e+01	-8.175631e+01
1.040000e-06	-3.461253e-06	-1.167822e-09	-2.409853e+01	-8.129030e+01
1.050000e-06	-3.424703e-06	-1.160699e-09	-2.384405e+01	-8.081708e+01
1.060000e-06	-3.387853e-06	-1.154127e-09	-2.358749e+01	-8.033669e+01
1.070000e-06	-3.350746e-06	-1.144325e-09	-2.332913e+01	-7.984920e+01
1.080000e-06	-3.313419e-06	-1.133696e-09	-2.306925e+01	-7.935466e+01
1.090000e-06	-3.275858e-06	-1.125387e-09	-2.280774e+01	-7.885319e+01
1.100000e-06	-3.238017e-06	-1.116044e-09	-2.254428e+01	-7.834489e+01
1.110000e-06	-3.199960e-06	-1.105535e-09	-2.227931e+01	-7.782989e+01
1.120000e-06	-3.161747e-06	-1.099788e-09	-2.201325e+01	-7.730834e+01
1.130000e-06	-3.123382e-06	-1.096211e-09	-2.174614e+01	-7.678039e+01
1.140000e-06	-3.084712e-06	-1.088916e-09	-2.147691e+01	-7.624623e+01
1.150000e-06	-3.045795e-06	-1.077577e-09	-2.120595e+01	-7.570602e+01
1.160000e-06	-3.006797e-06	-1.068681e-09	-2.093443e+01	-7.515997e+01
1.170000e-06	-2.967682e-06	-1.059473e-09	-2.066210e+01	-7.460826e+01
1.180000e-06	-2.928348e-06	-1.047484e-09	-2.038825e+01	-7.405109e+01
1.190000e-06	-2.888810e-06	-1.037731e-09	-2.011297e+01	-7.348867e+01
1.200000e-06	-2.849189e-06	-1.030023e-09	-1.983711e+01	-7.292118e+01
1.210000e-06	-2.809414e-06	-1.021918e-09	-1.956019e+01	-7.234881e+01
1.220000e-06	-2.769462e-06	-1.013287e-09	-1.928202e+01	-7.177174e+01
1.230000e-06	-2.729370e-06	-1.005733e-09	-1.900289e+01	-7.119015e+01
1.240000e-06	-2.689086e-06	-9.944896e-10	-1.872242e+01	-7.060418e+01
1.250000e-06	-2.648557e-06	-9.852701e-10	-1.844024e+01	-7.001396e+01
1.260000e-06	-2.607813e-06	-9.802123e-10	-1.815656e+01	-6.941962e+01
1.270000e-06	-2.566853e-06	-9.728721e-10	-1.787138e+01	-6.882124e+01
1.280000e-06	-2.525559e-06	-9.618296e-10	-1.758388e+01	-6.821888e+01
1.290000e-06	-2.483934e-06	-9.507574e-10	-1.729407e+01	-6.761258e+01
1.300000e-06	-2.441998e-06	-9.382802e-10	-1.700210e+01	-6.700234e+01
1.310000e-06	-2.399680e-06	-9.242897e-10	-1.670746e+01	-6.638813e+01
1.320000e-06	-2.357163e-06	-9.137669e-10	-1.641145e+01	-6.576988e+01
1.330000e-06	-2.314581e-06	-9.057660e-10	-1.611497e+01	-6.514748e+01
1.340000e-06	-2.271723e-06	-8.960057e-10	-1.581658e+01	-6.452078e+01
1.350000e-06	-2.228583e-06	-8.880259e-10	-1.551622e+01	-6.388960e+01
1.360000e-06	-2.185296e-06	-8.786630e-10	-1.521484e+01	-6.325371e+01
1.370000e-06	-2.141880e-06	-8.673801e-10	-1.491256e+01	-6.261284e+01
1.380000e-06	-2.098333e-06	-8.538596e-10	-1.460937e+01	-6.196667e+01
1.390000e-06	-2.054641e-06	-8.398070e-10	-1.430517e+01	-6.131484e+01
1.400000e-06	-2.010850e-06	-8.255326e-10	-1.400028e+01	-6.065694e+01
1.410000e-06	-1.967037e-06	-8.136608e-10	-1.369524e+01	-5.999255e+01
1.420000e-06	-1.923164e-06	-8.056016e-10	-1.338978e+01	-5.932116e+01
1.430000e-06	-1.879230e-06	-7.991632e-10	-1.308389e+01	-5.864226e+01
1.440000e-06	-1.835234e-06	-7.921357e-10	-1.277758e+01	-5.795528e+01
1.450000e-06	-1.791067e-06	-7.824687e-10	-1.247007e+01	-5.725962e+01
1.460000e-06	-1.746764e-06	-7.702999e-10	-1.216162e+01	-5.655465e+01
1.470000e-06	-1.702360e-06	-7.568939e-10	-1.185246e+01	-5.583970e+01
1.480000e-06	-1.657759e-06	-7.435862e-10	-1.154194e+01	-5.511409e+01
1.490000e-06	-1.613014e-06	-7.300565e-10	-1.123040e+01	-5.437708e+01
1.500000e-06	-1.568206e-06	-7.167504e-10	-1.091843e+01	-5.362794e+01
1.510000e-06	-1.523341e-06	-7.064334e-10	-1.060606e+01	-5.286592e+01
1.520000e-06	-1.478314e-06	-6.964005e-10	-1.029257e+01	-5.209025e+01
1.530000e-06	-1.433078e-06	-6.877691e-10	-9.977620e+00	-5.130014e+01
1.540000e-06	-1.387787e-06	-6.803508e-10	-9.662285e+00	-5.049481e+01
1.550000e-06	-1.342454e-06	-6.681562e-10	-9.346662e+00	-4.967347e+01
1.560000e-06	-1.297041e-06	-6.537948e-10	-9.030483e+00	-4.883534e+01
1.570000e-06	-1.251560e-06	-6.392716e-10	-8.713824e+00	-4.797965e+01
1.580000e-06	-1.205946e-06	-6.244421e-10	-8.396240e+00	-4.710565e+01
1.590000e-06	-1.160220e-06	-6.098757e-10	-8.077884e+00	-4.621259e+01
1.600000e-06	-1.114390e-06	-5.964323e-10	-7.758793e+00	-4.529974e+01
1.610000e-06	-1.068463e-06	-5.815368e-10	-7.439036e+00	-4.436644e+01
1.620000e-06	-1.022474e-06	-5.667325e-10	-7.118846e+00	-4.341201e+01
1.630000e-06	-9.764152e-07	-5.533391e-10	-6.798165e+00	-4.243584e+01
1.640000e-06	-9.302679e-07	-5.399864e-10	-6.476870e+00	-4.143735e+01
1.650000e-06	-8.840455e-07	-5.254615e-10	-6.155053e+00	-4.041601e+01
1.660000e-06	-8.377643e-07	-5.087741e-10	-5.832826e+00	-3.937134e+01
1.670000e-06	-7.913697e-07	-4.922507e-10	-5.509809e+00	-3.830290e+01
1.680000e-06	-7.450030e-07	-4.758144e-10	-5.186987e+00	-3.721033e+01
1.690000e-06	-6.986372e-07	-4.581970e-10	-4.864171e+00	-3.609331e+01
1.700000e-06	-6.522146e-07	-4.400812e-10	-4.540960e+00	-3.495159e+01
1.710000e-06	-6.058033e-07	-4.229709e-10	-4.217827e+00	-3.378500e+01
1.720000e-06	-5.593402e-07	-4.073884e-10	-3.894334e+00	-3.259342e+01
1.730000e-06	-5.128733e-07	-3.914634e-10	-3.570814e+00	-3.137681e+01
1.740000e-06	-4.663477e-07	-3.743732e-10	-3.246886e+00	-3.013519e+01
1.750000e-06	-4.197518e-07	-3.552358e-10	-2.922467e+00	-2.886866e+01
1.760000e-06	-3.731168e-07	-3.370258e-10	-2.597778e+00	-2.757742e+01
1.770000e-06	-3.264176e-07	-3.186357e-10	-2.272640e+00	-2.626169e+01
1.780000e-06	-2.796600e-07	-2.989217e-10	-1.947097e+00	-2.492182e+01
1.790000e-06	-2.329030e-07	-2.793552e-10	-1.621557e+00	-2.355820e+01
1.800000e-06	-1.862061e-07	-2.598233e-10	-1.296436e+00	-2.217130e+01
1.810000e-06	-1.393685e-07	-2.392787e-10	-9.703350e-01	-2.076168e+01
1.820000e-06	-9.258421e-08	-2.182059e-10	-6.446056e-01	-1.932994e+01
1.830000e-06	-4.596741e-08	-1.981383e-10	-3.200421e-01	-1.787680e+01
1.840000e-06	7.085921e-10	-1.782971e-10	4.933481e-03	-1.640299e+01
1.850000e-06	4.736817e-08	-1.593942e-10	3.297948e-01	-1.490934e+01
1.860000e-06	9.409169e-08	-1.403292e-10	6.551012e-01	-1.339674e+01
1.870000e-06	1.409190e-07	-1.188857e-10	9.811301e-01	-1.186614e+01
1.880000e-06	1.876709e-07	-9.549691e-11	1.306634e+00	-1.031854e+01
1.890000e-06	2.343889e-07	-7.284696e-11	1.631902e+00	-8.754990e+00
1.900000e-06	2.811790e-07	-5.190930e-11	1.957672e+00	-7.176604e+00
1.910000e-06	3.280320e-07	-3.168009e-11	2.283881e+00	-5.584531e+00
1.920000e-06	3.748304e-07	-1.030390e-11	2.609708e+00	-3.979966e+00
1.930000e-06	4.215740e-07	1.217376e-11	2.935154e+00	-2.364140e+00
1.940000e-06	4.681918e-07	3.503426e-11	3.259725e+00	-7.383178e-01
1.950000e-06	5.147254e-07	5.812125e-11	3.583709e+00	8.962079e-01
1.960000e-06	5.613268e-07	8.093497e-11	3.908166e+00	2.538119e+00
1.970000e-06	6.077789e-07	1.044178e-10	4.231582e+00	4.186080e+00
1.980000e-06	6.541232e-07	1.273190e-10	4.554248e+00	5.838739e+00
1.990000e-06	7.004654e-07	1.483458e-10	4.876900e+00	7.494733e+00
2.000000e-06	7.467334e-07	1.706006e-10	5.199035e+00	9.152695e+00
2.010000e-06	7.929667e-07	1.935967e-10	5.520928e+00	1.081126e+01
2.020000e-06	8.391862e-07	2.169151e-10	5.842725e+00	1.246906e+01
2.030000e-06	8.853345e-07	2.417012e-10	6.164027e+00	1.412473e+01
2.040000e-06	9.313722e-07	2.664903e-10	6.484559e+00	1.577695e+01
2.050000e-06	9.773543e-07	2.907166e-10	6.804703e+00	1.742436e+01
2.060000e-06	1.023257e-06	3.139405e-10	7.124292e+00	1.906568e+01
2.070000e-06	1.069052e-06	3.358292e-10	7.443135e+00	2.069962e+01
2.080000e-06	1.114789e-06	3.579018e-10	7.761575e+00	2.232492e+01
2.090000e-06	1.160496e-06	3.826428e-10	8.079806e+00	2.394037e+01
2.100000e-06	1.206088e-06	4.090578e-10	8.397230e+00	2.554477e+01
2.110000e-06	1.251532e-06	4.342546e-10	8.713631e+00	2.713698e+01
2.120000e-06	1.296864e-06	4.566605e-10	9.029246e+00	2.871589e+01
2.130000e-06	1.342041e-06	4.767346e-10	9.343790e+00	3.028044e+01
2.140000e-06	1.387152e-06	4.966068e-10	9.657869e+00	3.182961e+01
2.150000e-06	1.432260e-06	5.164307e-10	9.971928e+00	3.336244e+01
2.160000e-06	1.477298e-06	5.356339e-10	1.028550e+01	3.487802e+01
2.170000e-06	1.522262e-06	5.549387e-10	1.059855e+01	3.637547e+01
2.180000e-06	1.567170e-06	5.758348e-10	1.091122e+01	3.785400e+01
2.190000e-06	1.611897e-06	5.997444e-10	1.122263e+01	3.931284e+01
2.200000e-06	1.656433e-06	6.226140e-10	1.153270e+01	4.075131e+01
2.210000e-06	1.700881e-06	6.413562e-10	1.184216e+01	4.216875e+01
2.220000e-06	1.745200e-06	6.559289e-10	1.215073e+01	4.356460e+01
2.230000e-06	1.789340e-06	6.696141e-10	1.245805e+01	4.493832e+01
2.240000e-06	1.833375e-06	6.858951e-10	1.276464e+01	4.628946e+01
2.250000e-06	1.877386e-06	7.060726e-10	1.307106e+01	4.761760e+01
2.260000e-06	1.921360e-06	7.286762e-10	1.337722e+01	4.892240e+01
2.270000e-06	1.965202e-06	7.501490e-10	1.368247e+01	5.020355e+01
2.280000e-06	2.008916e-06	7.686093e-10	1.398682e+01	5.146084e+01
2.290000e-06	2.052569e-06	7.851891e-10	1.429075e+01	5.269407e+01
2.300000e-06	2.096167e-06	7.993154e-10	1.459429e+01	5.390311e+01
2.310000e-06	2.139725e-06	8.119059e-10	1.489756e+01	5.508791e+01
2.320000e-06	2.183172e-06	8.270592e-10	1.520006e+01	5.624842e+01
2.330000e-06	2.226481e-06	8.439750e-10	1.550159e+01	5.738468e+01
2.340000e-06	2.269721e-06	8.593330e-10	1.580264e+01	5.849677e+01
2.350000e-06	2.312812e-06	8.735460e-10	1.610265e+01	5.958479e+01
2.360000e-06	2.355601e-06	8.874607e-10	1.640057e+01	6.064893e+01
2.370000e-06	2.398133e-06	8.997264e-10	1.669669e+01	6.168938e+01
2.380000e-06	2.440374e-06	9.116746e-10	1.699079e+01	6.270639e+01
2.390000e-06	2.482158e-06	9.251050e-10	1.728170e+01	6.370023e+01
2.400000e-06	2.523615e-06	9.401892e-10	1.757035e+01	6.467124e+01
2.410000e-06	2.564807e-06	9.541345e-10	1.785714e+01	6.561975e+01
2.420000e-06	2.605697e-06	9.682323e-10	1.814183e+01	6.654615e+01
2.430000e-06	2.646305e-06	9.814195e-10	1.842455e+01	6.745085e+01
2.440000e-06	2.686665e-06	9.907645e-10	1.870556e+01	6.833426e+01
2.450000e-06	2.726779e-06	9.990701e-10	1.898485e+01	6.919685e+01
2.460000e-06	2.766711e-06	1.009148e-09	1.926287e+01	7.003908e+01
2.470000e-06	2.806580e-06	1.020083e-09	1.954045e+01	7.086144e+01
2.480000e-06	2.846327e-06	1.030564e-09	1.981718e+01	7.166444e+01
2.490000e-06	2.885906e-06	1.042540e-09	2.009275e+01	7.244859e+01
2.500000e-06	2.925378e-06	1.056203e-09	2.036757e+01	7.321441e+01
2.510000e-06	2.964783e-06	1.068617e-09	2.064192e+01	7.396243e+01
2.520000e-06	3.003997e-06	1.080162e-09	2.091494e+01	7.469317e+01
2.530000e-06	3.042941e-06	1.091045e-09	2.118608e+01	7.540719e+01
2.540000e-06	3.081688e-06	1.099454e-09	2.145586e+01	7.610500e+01
2.550000e-06	3.120207e-06	1.106275e-09	2.172404e+01	7.678714e+01
2.560000e-06	3.158444e-06	1.113690e-09	2.199026e+01	7.745413e+01
2.570000e-06	3.196465e-06	1.121889e-09	2.225498e+01	7.810650e+01
2.580000e-06	3.234380e-06	1.132472e-09	2.251895e+01	7.874475e+01
2.590000e-06	3.272121e-06	1.147671e-09	2.278172e+01	7.936938e+01
2.600000e-06	3.309671e-06	1.160601e-09	2.304315e+01	7.998088e+01
2.610000e-06	3.347017e-06	1.168942e-09	2.330317e+01	8.057972e+01
2.620000e-06	3.384045e-06	1.176754e-09	2.356097e+01	8.116636e+01
2.630000e-06	3.420822e-06	1.182405e-09	2.381703e+01	8.174125e+01
2.640000e-06	3.457269e-06	1.187263e-09	2.407079e+01	8.230480e+01
2.650000e-06	3.493391e-06	1.196126e-09	2.432228e+01	8.285741e+01
2.660000e-06	3.529373e-06	1.207487e-09	2.457281e+01	8.339949e+01
2.670000e-06	3.565255e-06	1.215912e-09	2.482263e+01	8.393138e+01
2.680000e-06	3.600979e-06	1.222443e-09	2.507135e+01	8.445344e+01
2.690000e-06	3.636596e-06	1.228219e-09	2.531933e+01	8.496600e+01
2.700000e-06	3.672096e-06	1.233096e-09	2.556650e+01	8.546934e+01
2.710000e-06	3.707430e-06	1.241138e-09	2.581250e+01	8.596377e+01
2.720000e-06	3.742426e-06	1.251010e-09	2.605616e+01	8.644953e+01
2.730000e-06	3.776967e-06	1.260210e-09	2.629665e+01	8.692686e+01
2.740000e-06	3.811208e-06	1.267295e-09	2.653504e+01	8.739599e+01
2.750000e-06	3.845044e-06	1.272630e-09	2.677063e+01	8.785711e+01
2.760000e-06	3.878287e-06	1.276422e-09	2.700207e+01	8.831040e+01
2.770000e-06	3.910943e-06	1.280023e-09	2.722944e+01	8.875601e+01
2.780000e-06	3.943155e-06	1.286876e-09	2.745371e+01	8.919410e+01
2.790000e-06	3.975169e-06	1.294049e-09	2.767660e+01	8.962478e+01
2.800000e-06	4.007029e-06	1.299839e-09	2.789842e+01	9.004816e+01
2.810000e-06	4.038753e-06	1.306388e-09	2.811930e+01	9.046433e+01
2.820000e-06	4.070305e-06	1.313101e-09	2.833897e+01	9.087336e+01
2.830000e-06	4.101617e-06	1.317986e-09	2.855698e+01	9.127533e+01
2.840000e-06	4.132677e-06	1.322842e-09	2.877323e+01	9.167027e+01
2.850000e-06	4.163404e-06	1.328022e-09	2.898717e+01	9.205824e+01
2.860000e-06	4.193835e-06	1.331850e-09	2.919903e+01	9.243926e+01
2.870000e-06	4.223987e-06	1.335019e-09	2.940896e+01	9.281335e+01
2.880000e-06	4.253867e-06	1.338455e-09	2.961700e+01	9.318053e+01
2.890000e-06	4.283485e-06	1.343223e-09	2.982321e+01	9.354081e+01
2.900000e-06	4.312843e-06	1.349396e-09	3.002761e+01	9.389420e+01
