# Temperatura_=_-1.65
# Concentracion g/m^3_=_1620.0
# C_Vs_to_Am_M_A/Vsm_=_65563218390.804596
# pendiente_HvsI_1/m_=_3716.3
# ordenada_HvsI_A/m_=_1297.0
# frecuencia_Hz_=_135100.52238399742

Tiempo_(s)	Campo_(V.s)	Magnetizacion_(V.s)	Campo_(kA/m)	Magnetizacion_(A/m)
0.000000e+00	-5.521486e-06	-1.099155e-09	-3.836991e+01	-7.189415e+01
1.000000e-08	-5.521877e-06	-1.097128e-09	-3.837262e+01	-7.185563e+01
2.000000e-08	-5.521983e-06	-1.095819e-09	-3.837336e+01	-7.181381e+01
3.000000e-08	-5.521796e-06	-1.096293e-09	-3.837206e+01	-7.176856e+01
4.000000e-08	-5.521130e-06	-1.095893e-09	-3.836743e+01	-7.171974e+01
5.000000e-08	-5.519830e-06	-1.094061e-09	-3.835840e+01	-7.166722e+01
6.000000e-08	-5.517974e-06	-1.089957e-09	-3.834550e+01	-7.161087e+01
7.000000e-08	-5.515524e-06	-1.085739e-09	-3.832847e+01	-7.155058e+01
8.000000e-08	-5.512561e-06	-1.105302e-09	-3.830789e+01	-7.148625e+01
9.000000e-08	-5.509168e-06	-1.112047e-09	-3.828431e+01	-7.141778e+01
1.000000e-07	-5.505374e-06	-1.078270e-09	-3.825794e+01	-7.134511e+01
1.100000e-07	-5.501192e-06	-1.075247e-09	-3.822888e+01	-7.126818e+01
1.200000e-07	-5.496712e-06	-1.118836e-09	-3.819774e+01	-7.118694e+01
1.300000e-07	-5.492048e-06	-1.106790e-09	-3.816533e+01	-7.110138e+01
1.400000e-07	-5.487045e-06	-1.086021e-09	-3.813057e+01	-7.101150e+01
1.500000e-07	-5.481652e-06	-1.045740e-09	-3.809309e+01	-7.091730e+01
1.600000e-07	-5.475917e-06	-1.117058e-09	-3.805323e+01	-7.081883e+01
1.700000e-07	-5.469755e-06	-1.112887e-09	-3.801041e+01	-7.071614e+01
1.800000e-07	-5.463101e-06	-1.097924e-09	-3.796418e+01	-7.060932e+01
1.900000e-07	-5.456064e-06	-1.059272e-09	-3.791527e+01	-7.049847e+01
2.000000e-07	-5.448804e-06	-1.081210e-09	-3.786482e+01	-7.038371e+01
2.100000e-07	-5.441313e-06	-1.088441e-09	-3.781276e+01	-7.026516e+01
2.200000e-07	-5.433481e-06	-1.094052e-09	-3.775834e+01	-7.014301e+01
2.300000e-07	-5.425293e-06	-1.097790e-09	-3.770144e+01	-7.001741e+01
2.400000e-07	-5.416775e-06	-1.099310e-09	-3.764225e+01	-6.988856e+01
2.500000e-07	-5.407692e-06	-1.104733e-09	-3.757913e+01	-6.975668e+01
2.600000e-07	-5.397874e-06	-1.083048e-09	-3.751090e+01	-6.962197e+01
2.700000e-07	-5.387370e-06	-1.074321e-09	-3.743791e+01	-6.948468e+01
2.800000e-07	-5.376300e-06	-1.046064e-09	-3.736098e+01	-6.934503e+01
2.900000e-07	-5.364838e-06	-1.066356e-09	-3.728133e+01	-6.920329e+01
3.000000e-07	-5.353020e-06	-1.050650e-09	-3.719920e+01	-6.905971e+01
3.100000e-07	-5.340869e-06	-1.051514e-09	-3.711476e+01	-6.891454e+01
3.200000e-07	-5.328282e-06	-1.027377e-09	-3.702729e+01	-6.876803e+01
3.300000e-07	-5.315266e-06	-1.073170e-09	-3.693684e+01	-6.862046e+01
3.400000e-07	-5.301933e-06	-1.051639e-09	-3.684419e+01	-6.847205e+01
3.500000e-07	-5.288220e-06	-1.031442e-09	-3.674889e+01	-6.832308e+01
3.600000e-07	-5.274019e-06	-1.018367e-09	-3.665020e+01	-6.817375e+01
3.700000e-07	-5.259309e-06	-1.047569e-09	-3.654798e+01	-6.802431e+01
3.800000e-07	-5.244142e-06	-1.011808e-09	-3.644259e+01	-6.787497e+01
3.900000e-07	-5.228470e-06	-1.025904e-09	-3.633368e+01	-6.772591e+01
4.000000e-07	-5.212191e-06	-1.046180e-09	-3.622056e+01	-6.757733e+01
4.100000e-07	-5.195531e-06	-1.026084e-09	-3.610478e+01	-6.742937e+01
4.200000e-07	-5.178686e-06	-1.002158e-09	-3.598772e+01	-6.728219e+01
4.300000e-07	-5.161612e-06	-1.053546e-09	-3.586907e+01	-6.713588e+01
4.400000e-07	-5.144225e-06	-1.042127e-09	-3.574825e+01	-6.699056e+01
4.500000e-07	-5.126416e-06	-9.820173e-10	-3.562448e+01	-6.684629e+01
4.600000e-07	-5.108167e-06	-1.011729e-09	-3.549767e+01	-6.670312e+01
4.700000e-07	-5.089415e-06	-1.044935e-09	-3.536736e+01	-6.656106e+01
4.800000e-07	-5.070285e-06	-9.884819e-10	-3.523442e+01	-6.642011e+01
4.900000e-07	-5.050948e-06	-9.912006e-10	-3.510004e+01	-6.628024e+01
5.000000e-07	-5.031451e-06	-1.057818e-09	-3.496456e+01	-6.614140e+01
5.100000e-07	-5.011777e-06	-1.005839e-09	-3.482784e+01	-6.600350e+01
5.200000e-07	-4.991780e-06	-9.601316e-10	-3.468887e+01	-6.586643e+01
5.300000e-07	-4.971349e-06	-1.020382e-09	-3.454689e+01	-6.573008e+01
5.400000e-07	-4.950491e-06	-1.027881e-09	-3.440195e+01	-6.559428e+01
5.500000e-07	-4.929274e-06	-9.559761e-10	-3.425450e+01	-6.545888e+01
5.600000e-07	-4.907768e-06	-9.945407e-10	-3.410505e+01	-6.532368e+01
5.700000e-07	-4.886012e-06	-1.022825e-09	-3.395387e+01	-6.518848e+01
5.800000e-07	-4.863940e-06	-9.699992e-10	-3.380049e+01	-6.505306e+01
5.900000e-07	-4.841550e-06	-9.678759e-10	-3.364489e+01	-6.491719e+01
6.000000e-07	-4.818782e-06	-1.023872e-09	-3.348667e+01	-6.478061e+01
6.100000e-07	-4.795654e-06	-9.838766e-10	-3.332595e+01	-6.464309e+01
6.200000e-07	-4.772302e-06	-9.643207e-10	-3.316367e+01	-6.450437e+01
6.300000e-07	-4.748708e-06	-1.000390e-09	-3.299972e+01	-6.436418e+01
6.400000e-07	-4.724920e-06	-9.940927e-10	-3.283441e+01	-6.422226e+01
6.500000e-07	-4.700801e-06	-9.539729e-10	-3.266680e+01	-6.407835e+01
6.600000e-07	-4.676194e-06	-9.795154e-10	-3.249580e+01	-6.393219e+01
6.700000e-07	-4.651053e-06	-9.766355e-10	-3.232109e+01	-6.378353e+01
6.800000e-07	-4.625324e-06	-9.466269e-10	-3.214229e+01	-6.363214e+01
6.900000e-07	-4.599045e-06	-9.542503e-10	-3.195968e+01	-6.347777e+01
7.000000e-07	-4.572330e-06	-9.761245e-10	-3.177403e+01	-6.332020e+01
7.100000e-07	-4.545247e-06	-9.515454e-10	-3.158583e+01	-6.315923e+01
7.200000e-07	-4.517865e-06	-9.445061e-10	-3.139554e+01	-6.299466e+01
7.300000e-07	-4.490331e-06	-9.566103e-10	-3.120421e+01	-6.282631e+01
7.400000e-07	-4.462654e-06	-9.474590e-10	-3.101187e+01	-6.265404e+01
7.500000e-07	-4.434710e-06	-9.354307e-10	-3.081768e+01	-6.247769e+01
7.600000e-07	-4.406484e-06	-9.414371e-10	-3.062154e+01	-6.229715e+01
7.700000e-07	-4.377979e-06	-9.387033e-10	-3.042345e+01	-6.211233e+01
7.800000e-07	-4.349164e-06	-9.279901e-10	-3.022321e+01	-6.192313e+01
7.900000e-07	-4.320032e-06	-9.327685e-10	-3.002076e+01	-6.172950e+01
8.000000e-07	-4.290634e-06	-9.334610e-10	-2.981647e+01	-6.153139e+01
8.100000e-07	-4.260931e-06	-9.194091e-10	-2.961006e+01	-6.132880e+01
8.200000e-07	-4.230892e-06	-9.092471e-10	-2.940131e+01	-6.112172e+01
8.300000e-07	-4.200502e-06	-9.100135e-10	-2.919012e+01	-6.091017e+01
8.400000e-07	-4.169810e-06	-8.970969e-10	-2.897684e+01	-6.069417e+01
8.500000e-07	-4.138913e-06	-8.946007e-10	-2.876213e+01	-6.047379e+01
8.600000e-07	-4.107744e-06	-9.006720e-10	-2.854553e+01	-6.024908e+01
8.700000e-07	-4.076369e-06	-9.007926e-10	-2.832750e+01	-6.002012e+01
8.800000e-07	-4.044862e-06	-8.881362e-10	-2.810855e+01	-5.978700e+01
8.900000e-07	-4.013210e-06	-8.917299e-10	-2.788859e+01	-5.954982e+01
9.000000e-07	-3.981328e-06	-8.842071e-10	-2.766704e+01	-5.930869e+01
9.100000e-07	-3.949144e-06	-8.698973e-10	-2.744339e+01	-5.906370e+01
9.200000e-07	-3.916539e-06	-8.637470e-10	-2.721681e+01	-5.881498e+01
9.300000e-07	-3.883394e-06	-8.666645e-10	-2.698648e+01	-5.856265e+01
9.400000e-07	-3.849822e-06	-8.594256e-10	-2.675318e+01	-5.830680e+01
9.500000e-07	-3.815887e-06	-8.612308e-10	-2.651736e+01	-5.804757e+01
9.600000e-07	-3.781487e-06	-8.650450e-10	-2.627831e+01	-5.778505e+01
9.700000e-07	-3.746635e-06	-8.566359e-10	-2.603611e+01	-5.751936e+01
9.800000e-07	-3.711479e-06	-8.453645e-10	-2.579181e+01	-5.725057e+01
9.900000e-07	-3.676137e-06	-8.468685e-10	-2.554621e+01	-5.697877e+01
1.000000e-06	-3.640705e-06	-8.399009e-10	-2.529998e+01	-5.670405e+01
1.010000e-06	-3.605153e-06	-8.312202e-10	-2.505292e+01	-5.642645e+01
1.020000e-06	-3.569415e-06	-8.338178e-10	-2.480458e+01	-5.614603e+01
1.030000e-06	-3.533480e-06	-8.392148e-10	-2.455485e+01	-5.586282e+01
1.040000e-06	-3.497325e-06	-8.323121e-10	-2.430361e+01	-5.557684e+01
1.050000e-06	-3.460943e-06	-8.278714e-10	-2.405078e+01	-5.528809e+01
1.060000e-06	-3.424319e-06	-8.259341e-10	-2.379627e+01	-5.499655e+01
1.070000e-06	-3.387390e-06	-8.136317e-10	-2.353964e+01	-5.470219e+01
1.080000e-06	-3.350109e-06	-8.033043e-10	-2.328057e+01	-5.440497e+01
1.090000e-06	-3.312573e-06	-8.025685e-10	-2.301973e+01	-5.410483e+01
1.100000e-06	-3.274777e-06	-8.017151e-10	-2.275708e+01	-5.380168e+01
1.110000e-06	-3.236805e-06	-7.944329e-10	-2.249320e+01	-5.349543e+01
1.120000e-06	-3.198729e-06	-7.921551e-10	-2.222860e+01	-5.318597e+01
1.130000e-06	-3.160370e-06	-7.878759e-10	-2.196204e+01	-5.287318e+01
1.140000e-06	-3.121711e-06	-7.791202e-10	-2.169339e+01	-5.255692e+01
1.150000e-06	-3.082858e-06	-7.705115e-10	-2.142340e+01	-5.223705e+01
1.160000e-06	-3.043865e-06	-7.662210e-10	-2.115242e+01	-5.191341e+01
1.170000e-06	-3.004742e-06	-7.587471e-10	-2.088055e+01	-5.158584e+01
1.180000e-06	-2.965427e-06	-7.522276e-10	-2.060734e+01	-5.125415e+01
1.190000e-06	-2.925936e-06	-7.487882e-10	-2.033291e+01	-5.091816e+01
1.200000e-06	-2.886341e-06	-7.467357e-10	-2.005776e+01	-5.057770e+01
1.210000e-06	-2.846605e-06	-7.388666e-10	-1.978162e+01	-5.023258e+01
1.220000e-06	-2.806690e-06	-7.339238e-10	-1.950425e+01	-4.988259e+01
1.230000e-06	-2.766605e-06	-7.271570e-10	-1.922569e+01	-4.952755e+01
1.240000e-06	-2.726382e-06	-7.174213e-10	-1.894617e+01	-4.916727e+01
1.250000e-06	-2.686004e-06	-7.081941e-10	-1.866558e+01	-4.880156e+01
1.260000e-06	-2.645318e-06	-7.045363e-10	-1.838284e+01	-4.843023e+01
1.270000e-06	-2.604255e-06	-6.997072e-10	-1.809749e+01	-4.805309e+01
1.280000e-06	-2.562935e-06	-6.956421e-10	-1.781035e+01	-4.766997e+01
1.290000e-06	-2.521436e-06	-6.927090e-10	-1.752196e+01	-4.728069e+01
1.300000e-06	-2.479676e-06	-6.875957e-10	-1.723176e+01	-4.688509e+01
1.310000e-06	-2.437593e-06	-6.783433e-10	-1.693932e+01	-4.648299e+01
1.320000e-06	-2.395216e-06	-6.696634e-10	-1.664483e+01	-4.607425e+01
1.330000e-06	-2.352543e-06	-6.625437e-10	-1.634829e+01	-4.565870e+01
1.340000e-06	-2.309597e-06	-6.543512e-10	-1.604985e+01	-4.523622e+01
1.350000e-06	-2.266418e-06	-6.472863e-10	-1.574979e+01	-4.480665e+01
1.360000e-06	-2.223083e-06	-6.438666e-10	-1.544865e+01	-4.436987e+01
1.370000e-06	-2.179647e-06	-6.378903e-10	-1.514680e+01	-4.392574e+01
1.380000e-06	-2.136119e-06	-6.294930e-10	-1.484432e+01	-4.347415e+01
1.390000e-06	-2.092499e-06	-6.225553e-10	-1.454120e+01	-4.301496e+01
1.400000e-06	-2.048817e-06	-6.136017e-10	-1.423764e+01	-4.254805e+01
1.410000e-06	-2.005074e-06	-6.031213e-10	-1.393366e+01	-4.207331e+01
1.420000e-06	-1.961231e-06	-5.942267e-10	-1.362898e+01	-4.159062e+01
1.430000e-06	-1.917347e-06	-5.892657e-10	-1.332402e+01	-4.109984e+01
1.440000e-06	-1.873346e-06	-5.821391e-10	-1.301825e+01	-4.060087e+01
1.450000e-06	-1.829178e-06	-5.735348e-10	-1.271132e+01	-4.009355e+01
1.460000e-06	-1.784912e-06	-5.651013e-10	-1.240371e+01	-3.957777e+01
1.470000e-06	-1.740472e-06	-5.574251e-10	-1.209489e+01	-3.905337e+01
1.480000e-06	-1.695849e-06	-5.488365e-10	-1.178479e+01	-3.852021e+01
1.490000e-06	-1.651092e-06	-5.403342e-10	-1.147377e+01	-3.797811e+01
1.500000e-06	-1.606164e-06	-5.309673e-10	-1.116155e+01	-3.742693e+01
1.510000e-06	-1.561152e-06	-5.230697e-10	-1.084876e+01	-3.686646e+01
1.520000e-06	-1.516098e-06	-5.148142e-10	-1.053567e+01	-3.629651e+01
1.530000e-06	-1.470878e-06	-5.070783e-10	-1.022142e+01	-3.571689e+01
1.540000e-06	-1.425556e-06	-5.007514e-10	-9.906470e+00	-3.512736e+01
1.550000e-06	-1.380172e-06	-4.963055e-10	-9.591090e+00	-3.452770e+01
1.560000e-06	-1.334712e-06	-4.879418e-10	-9.275179e+00	-3.391767e+01
1.570000e-06	-1.289180e-06	-4.753645e-10	-8.958768e+00	-3.329699e+01
1.580000e-06	-1.243528e-06	-4.628101e-10	-8.641523e+00	-3.266541e+01
1.590000e-06	-1.197784e-06	-4.509320e-10	-8.323639e+00	-3.202264e+01
1.600000e-06	-1.151918e-06	-4.398346e-10	-8.004905e+00	-3.136840e+01
1.610000e-06	-1.105905e-06	-4.311630e-10	-7.685157e+00	-3.070237e+01
1.620000e-06	-1.059855e-06	-4.212850e-10	-7.365144e+00	-3.002426e+01
1.630000e-06	-1.013823e-06	-4.100745e-10	-7.045258e+00	-2.933376e+01
1.640000e-06	-9.677442e-07	-3.994886e-10	-6.725047e+00	-2.863055e+01
1.650000e-06	-9.215906e-07	-3.871605e-10	-6.404316e+00	-2.791431e+01
1.660000e-06	-8.753533e-07	-3.729658e-10	-6.083004e+00	-2.718474e+01
1.670000e-06	-8.290637e-07	-3.590367e-10	-5.761329e+00	-2.644152e+01
1.680000e-06	-7.827581e-07	-3.470263e-10	-5.439542e+00	-2.568435e+01
1.690000e-06	-7.363134e-07	-3.366532e-10	-5.116788e+00	-2.491296e+01
1.700000e-06	-6.897574e-07	-3.257187e-10	-4.793262e+00	-2.412705e+01
1.710000e-06	-6.432176e-07	-3.121144e-10	-4.469847e+00	-2.332638e+01
1.720000e-06	-5.966086e-07	-2.983892e-10	-4.145952e+00	-2.251070e+01
1.730000e-06	-5.499923e-07	-2.851949e-10	-3.822006e+00	-2.167981e+01
1.740000e-06	-5.034136e-07	-2.729425e-10	-3.498322e+00	-2.083351e+01
1.750000e-06	-4.567203e-07	-2.595207e-10	-3.173841e+00	-1.997166e+01
1.760000e-06	-4.099419e-07	-2.450064e-10	-2.848768e+00	-1.909414e+01
1.770000e-06	-3.631508e-07	-2.307660e-10	-2.523607e+00	-1.820086e+01
1.780000e-06	-3.163574e-07	-2.171570e-10	-2.198431e+00	-1.729177e+01
1.790000e-06	-2.694983e-07	-2.033373e-10	-1.872798e+00	-1.636689e+01
1.800000e-06	-2.225886e-07	-1.907125e-10	-1.546812e+00	-1.542626e+01
1.810000e-06	-1.757308e-07	-1.775729e-10	-1.221188e+00	-1.446998e+01
1.820000e-06	-1.288494e-07	-1.631780e-10	-8.954003e-01	-1.349819e+01
1.830000e-06	-8.196264e-08	-1.479327e-10	-5.695747e-01	-1.251110e+01
1.840000e-06	-3.510684e-08	-1.330986e-10	-2.439644e-01	-1.150895e+01
1.850000e-06	1.172631e-08	-1.179213e-10	8.148845e-02	-1.049206e+01
1.860000e-06	5.853694e-08	-1.025329e-10	4.067848e-01	-9.460798e+00
1.870000e-06	1.054245e-07	-8.567531e-11	7.326160e-01	-8.415580e+00
1.880000e-06	1.523534e-07	-6.806585e-11	1.058734e+00	-7.356886e+00
1.890000e-06	1.991945e-07	-5.182570e-11	1.384242e+00	-6.285253e+00
1.900000e-06	2.459508e-07	-3.773527e-11	1.709161e+00	-5.201270e+00
1.910000e-06	2.926837e-07	-2.339207e-11	2.033917e+00	-4.105584e+00
1.920000e-06	3.394371e-07	-7.034022e-12	2.358816e+00	-2.998892e+00
1.930000e-06	3.861856e-07	1.097976e-11	2.683681e+00	-1.881942e+00
1.940000e-06	4.329218e-07	3.024634e-11	3.008460e+00	-7.555325e-01
1.950000e-06	4.796539e-07	4.861416e-11	3.333210e+00	3.794952e-01
1.960000e-06	5.262781e-07	6.537826e-11	3.657211e+00	1.522256e+00
1.970000e-06	5.728408e-07	7.971889e-11	3.980784e+00	2.671826e+00
1.980000e-06	6.193685e-07	9.486901e-11	4.304115e+00	3.827246e+00
1.990000e-06	6.658103e-07	1.100799e-10	4.626848e+00	4.987527e+00
2.000000e-06	7.122729e-07	1.232296e-10	4.949726e+00	6.151652e+00
2.010000e-06	7.586858e-07	1.403416e-10	5.272259e+00	7.318583e+00
2.020000e-06	8.049873e-07	1.583119e-10	5.594017e+00	8.487264e+00
2.030000e-06	8.511793e-07	1.752109e-10	5.915014e+00	9.656629e+00
2.040000e-06	8.973021e-07	1.927387e-10	6.235531e+00	1.082560e+01
2.050000e-06	9.435034e-07	2.078664e-10	6.556593e+00	1.199310e+01
2.060000e-06	9.897113e-07	2.240986e-10	6.877701e+00	1.315806e+01
2.070000e-06	1.035813e-06	2.410781e-10	7.198073e+00	1.431941e+01
2.080000e-06	1.081726e-06	2.580811e-10	7.517132e+00	1.547610e+01
2.090000e-06	1.127575e-06	2.742004e-10	7.835745e+00	1.662710e+01
2.100000e-06	1.173383e-06	2.912240e-10	8.154072e+00	1.777139e+01
2.110000e-06	1.219027e-06	3.073486e-10	8.471265e+00	1.890798e+01
2.120000e-06	1.264595e-06	3.226084e-10	8.787926e+00	2.003594e+01
2.130000e-06	1.310126e-06	3.368939e-10	9.104324e+00	2.115435e+01
2.140000e-06	1.355564e-06	3.511015e-10	9.420083e+00	2.226232e+01
2.150000e-06	1.400831e-06	3.652852e-10	9.734651e+00	2.335904e+01
2.160000e-06	1.445999e-06	3.794106e-10	1.004854e+01	2.444372e+01
2.170000e-06	1.491119e-06	3.960486e-10	1.036208e+01	2.551563e+01
2.180000e-06	1.536138e-06	4.133882e-10	1.067493e+01	2.657409e+01
2.190000e-06	1.581093e-06	4.301296e-10	1.098733e+01	2.761847e+01
2.200000e-06	1.625973e-06	4.456583e-10	1.129921e+01	2.864821e+01
2.210000e-06	1.670652e-06	4.573802e-10	1.160969e+01	2.966280e+01
2.220000e-06	1.715119e-06	4.668175e-10	1.191870e+01	3.066179e+01
2.230000e-06	1.759436e-06	4.760266e-10	1.222667e+01	3.164479e+01
2.240000e-06	1.803646e-06	4.876051e-10	1.253390e+01	3.261146e+01
2.250000e-06	1.847798e-06	5.019120e-10	1.284072e+01	3.356154e+01
2.260000e-06	1.891828e-06	5.175223e-10	1.314669e+01	3.449481e+01
2.270000e-06	1.935719e-06	5.320752e-10	1.345170e+01	3.541110e+01
2.280000e-06	1.979553e-06	5.436564e-10	1.375631e+01	3.631033e+01
2.290000e-06	2.023333e-06	5.544176e-10	1.406054e+01	3.719243e+01
2.300000e-06	2.066953e-06	5.640030e-10	1.436367e+01	3.805741e+01
2.310000e-06	2.110467e-06	5.723692e-10	1.466606e+01	3.890532e+01
2.320000e-06	2.153955e-06	5.822329e-10	1.496826e+01	3.973625e+01
2.330000e-06	2.197363e-06	5.948948e-10	1.526991e+01	4.055034e+01
2.340000e-06	2.240696e-06	6.077891e-10	1.557104e+01	4.134777e+01
2.350000e-06	2.283883e-06	6.198374e-10	1.587115e+01	4.212874e+01
2.360000e-06	2.326864e-06	6.316856e-10	1.616984e+01	4.289351e+01
2.370000e-06	2.369666e-06	6.442340e-10	1.646728e+01	4.364234e+01
2.380000e-06	2.412220e-06	6.547586e-10	1.676300e+01	4.437552e+01
2.390000e-06	2.454511e-06	6.651638e-10	1.705688e+01	4.509338e+01
2.400000e-06	2.496588e-06	6.747324e-10	1.734928e+01	4.579624e+01
2.410000e-06	2.538296e-06	6.845071e-10	1.763912e+01	4.648445e+01
2.420000e-06	2.579581e-06	6.955000e-10	1.792602e+01	4.715837e+01
2.430000e-06	2.620590e-06	7.046537e-10	1.821100e+01	4.781834e+01
2.440000e-06	2.661377e-06	7.124856e-10	1.849444e+01	4.846474e+01
2.450000e-06	2.701880e-06	7.207260e-10	1.877590e+01	4.909792e+01
2.460000e-06	2.742102e-06	7.297497e-10	1.905542e+01	4.971823e+01
2.470000e-06	2.782156e-06	7.385190e-10	1.933375e+01	5.032603e+01
2.480000e-06	2.822063e-06	7.477727e-10	1.961108e+01	5.092166e+01
2.490000e-06	2.861855e-06	7.568463e-10	1.988760e+01	5.150543e+01
2.500000e-06	2.901539e-06	7.648353e-10	2.016337e+01	5.207765e+01
2.510000e-06	2.941022e-06	7.731473e-10	2.043774e+01	5.263864e+01
2.520000e-06	2.980345e-06	7.819708e-10	2.071101e+01	5.318866e+01
2.530000e-06	3.019559e-06	7.911473e-10	2.098352e+01	5.372796e+01
2.540000e-06	3.058560e-06	8.002127e-10	2.125454e+01	5.425680e+01
2.550000e-06	3.097409e-06	8.094360e-10	2.152451e+01	5.477540e+01
2.560000e-06	3.136034e-06	8.168034e-10	2.179293e+01	5.528394e+01
2.570000e-06	3.174362e-06	8.222206e-10	2.205927e+01	5.578261e+01
2.580000e-06	3.212492e-06	8.298563e-10	2.232425e+01	5.627157e+01
2.590000e-06	3.250412e-06	8.393200e-10	2.258776e+01	5.675096e+01
2.600000e-06	3.288192e-06	8.482696e-10	2.285030e+01	5.722090e+01
2.610000e-06	3.325809e-06	8.551014e-10	2.311171e+01	5.768149e+01
2.620000e-06	3.363077e-06	8.607832e-10	2.337069e+01	5.813282e+01
2.630000e-06	3.399994e-06	8.664900e-10	2.362723e+01	5.857497e+01
2.640000e-06	3.436660e-06	8.727854e-10	2.388204e+01	5.900798e+01
2.650000e-06	3.473105e-06	8.799086e-10	2.413530e+01	5.943191e+01
2.660000e-06	3.509291e-06	8.879241e-10	2.438676e+01	5.984680e+01
2.670000e-06	3.545292e-06	8.955710e-10	2.463694e+01	6.025267e+01
2.680000e-06	3.581175e-06	9.004772e-10	2.488630e+01	6.064955e+01
2.690000e-06	3.616895e-06	9.034154e-10	2.513453e+01	6.103746e+01
2.700000e-06	3.652474e-06	9.059951e-10	2.538177e+01	6.141640e+01
2.710000e-06	3.687889e-06	9.101945e-10	2.562788e+01	6.178641e+01
2.720000e-06	3.723087e-06	9.171861e-10	2.587247e+01	6.214749e+01
2.730000e-06	3.758035e-06	9.239635e-10	2.611533e+01	6.249966e+01
2.740000e-06	3.792647e-06	9.295437e-10	2.635586e+01	6.284296e+01
2.750000e-06	3.826834e-06	9.335146e-10	2.659343e+01	6.317741e+01
2.760000e-06	3.860626e-06	9.363191e-10	2.682826e+01	6.350306e+01
2.770000e-06	3.893994e-06	9.381984e-10	2.706014e+01	6.381994e+01
2.780000e-06	3.926835e-06	9.400143e-10	2.728836e+01	6.412813e+01
2.790000e-06	3.959261e-06	9.440698e-10	2.751369e+01	6.442768e+01
2.800000e-06	3.991390e-06	9.482168e-10	2.773696e+01	6.471868e+01
2.810000e-06	4.023237e-06	9.519140e-10	2.795827e+01	6.500123e+01
2.820000e-06	4.054936e-06	9.551554e-10	2.817856e+01	6.527541e+01
2.830000e-06	4.086537e-06	9.563692e-10	2.839816e+01	6.554137e+01
2.840000e-06	4.117907e-06	9.592678e-10	2.861615e+01	6.579921e+01
2.850000e-06	4.149004e-06	9.611887e-10	2.883225e+01	6.604910e+01
2.860000e-06	4.179812e-06	9.621775e-10	2.904635e+01	6.629117e+01
2.870000e-06	4.210276e-06	9.635816e-10	2.925805e+01	6.652559e+01
2.880000e-06	4.240419e-06	9.671615e-10	2.946752e+01	6.675254e+01
2.890000e-06	4.270320e-06	9.714592e-10	2.967531e+01	6.697220e+01
2.900000e-06	4.299968e-06	9.745604e-10	2.988133e+01	6.718477e+01
