# Temperatura_=_-0.4
# Concentracion g/m^3_=_1620.0
# C_Vs_to_Am_M_A/Vsm_=_65563218390.804596
# pendiente_HvsI_1/m_=_3716.3
# ordenada_HvsI_A/m_=_1297.0
# frecuencia_Hz_=_135093.7072798728

Tiempo_(s)	Campo_(V.s)	Magnetizacion_(V.s)	Campo_(kA/m)	Magnetizacion_(A/m)
0.000000e+00	-5.521057e-06	-1.412541e-09	-3.837438e+01	-9.189515e+01
1.000000e-08	-5.521212e-06	-1.412176e-09	-3.837546e+01	-9.182559e+01
2.000000e-08	-5.521008e-06	-1.412962e-09	-3.837405e+01	-9.175151e+01
3.000000e-08	-5.520337e-06	-1.414026e-09	-3.836938e+01	-9.167304e+01
4.000000e-08	-5.519127e-06	-1.412816e-09	-3.836097e+01	-9.159033e+01
5.000000e-08	-5.517299e-06	-1.409467e-09	-3.834826e+01	-9.150355e+01
6.000000e-08	-5.514897e-06	-1.402330e-09	-3.833157e+01	-9.141290e+01
7.000000e-08	-5.512065e-06	-1.400957e-09	-3.831188e+01	-9.131858e+01
8.000000e-08	-5.508716e-06	-1.423876e-09	-3.828861e+01	-9.122081e+01
9.000000e-08	-5.504866e-06	-1.456060e-09	-3.826185e+01	-9.111984e+01
1.000000e-07	-5.500574e-06	-1.438624e-09	-3.823202e+01	-9.101591e+01
1.100000e-07	-5.496038e-06	-1.371645e-09	-3.820049e+01	-9.090929e+01
1.200000e-07	-5.491448e-06	-1.372566e-09	-3.816858e+01	-9.080025e+01
1.300000e-07	-5.486488e-06	-1.415439e-09	-3.813411e+01	-9.068906e+01
1.400000e-07	-5.481019e-06	-1.426327e-09	-3.809610e+01	-9.057600e+01
1.500000e-07	-5.475195e-06	-1.383411e-09	-3.805562e+01	-9.046136e+01
1.600000e-07	-5.469103e-06	-1.384788e-09	-3.801327e+01	-9.034541e+01
1.700000e-07	-5.462499e-06	-1.442310e-09	-3.796737e+01	-9.022842e+01
1.800000e-07	-5.455356e-06	-1.428999e-09	-3.791773e+01	-9.011067e+01
1.900000e-07	-5.448023e-06	-1.372127e-09	-3.786676e+01	-8.999241e+01
2.000000e-07	-5.440482e-06	-1.343270e-09	-3.781434e+01	-8.987388e+01
2.100000e-07	-5.432658e-06	-1.382819e-09	-3.775996e+01	-8.975532e+01
2.200000e-07	-5.424644e-06	-1.384120e-09	-3.770426e+01	-8.963693e+01
2.300000e-07	-5.416330e-06	-1.361268e-09	-3.764648e+01	-8.951891e+01
2.400000e-07	-5.407408e-06	-1.342957e-09	-3.758446e+01	-8.940142e+01
2.500000e-07	-5.397667e-06	-1.356819e-09	-3.751676e+01	-8.928461e+01
2.600000e-07	-5.387145e-06	-1.340437e-09	-3.744363e+01	-8.916860e+01
2.700000e-07	-5.376184e-06	-1.330527e-09	-3.736744e+01	-8.905347e+01
2.800000e-07	-5.364880e-06	-1.326693e-09	-3.728887e+01	-8.893929e+01
2.900000e-07	-5.353125e-06	-1.337175e-09	-3.720717e+01	-8.882609e+01
3.000000e-07	-5.340990e-06	-1.344417e-09	-3.712282e+01	-8.871387e+01
3.100000e-07	-5.328456e-06	-1.342962e-09	-3.703570e+01	-8.860260e+01
3.200000e-07	-5.315432e-06	-1.340329e-09	-3.694518e+01	-8.849221e+01
3.300000e-07	-5.302030e-06	-1.336934e-09	-3.685203e+01	-8.838262e+01
3.400000e-07	-5.288311e-06	-1.339710e-09	-3.675667e+01	-8.827369e+01
3.500000e-07	-5.274204e-06	-1.326616e-09	-3.665862e+01	-8.816528e+01
3.600000e-07	-5.259642e-06	-1.324425e-09	-3.655741e+01	-8.805719e+01
3.700000e-07	-5.244652e-06	-1.331985e-09	-3.645322e+01	-8.794923e+01
3.800000e-07	-5.229054e-06	-1.333227e-09	-3.634480e+01	-8.784115e+01
3.900000e-07	-5.212725e-06	-1.313836e-09	-3.623131e+01	-8.773270e+01
4.000000e-07	-5.196057e-06	-1.322127e-09	-3.611545e+01	-8.762359e+01
4.100000e-07	-5.179181e-06	-1.324574e-09	-3.599816e+01	-8.751353e+01
4.200000e-07	-5.161990e-06	-1.304189e-09	-3.587867e+01	-8.740220e+01
4.300000e-07	-5.144496e-06	-1.294007e-09	-3.575708e+01	-8.728928e+01
4.400000e-07	-5.126664e-06	-1.321413e-09	-3.563313e+01	-8.717442e+01
4.500000e-07	-5.108429e-06	-1.305742e-09	-3.550639e+01	-8.705729e+01
4.600000e-07	-5.089769e-06	-1.283964e-09	-3.537670e+01	-8.693753e+01
4.700000e-07	-5.070700e-06	-1.297369e-09	-3.524416e+01	-8.681479e+01
4.800000e-07	-5.051318e-06	-1.311730e-09	-3.510944e+01	-8.668874e+01
4.900000e-07	-5.031739e-06	-1.286044e-09	-3.497335e+01	-8.655904e+01
5.000000e-07	-5.012018e-06	-1.289431e-09	-3.483629e+01	-8.642534e+01
5.100000e-07	-4.992033e-06	-1.293569e-09	-3.469738e+01	-8.628735e+01
5.200000e-07	-4.971639e-06	-1.271424e-09	-3.455563e+01	-8.614475e+01
5.300000e-07	-4.950869e-06	-1.266884e-09	-3.441127e+01	-8.599726e+01
5.400000e-07	-4.929811e-06	-1.289909e-09	-3.426490e+01	-8.584463e+01
5.500000e-07	-4.908384e-06	-1.271110e-09	-3.411597e+01	-8.568662e+01
5.600000e-07	-4.886535e-06	-1.255160e-09	-3.396410e+01	-8.552300e+01
5.700000e-07	-4.864447e-06	-1.274565e-09	-3.381058e+01	-8.535361e+01
5.800000e-07	-4.841962e-06	-1.272889e-09	-3.365430e+01	-8.517828e+01
5.900000e-07	-4.818988e-06	-1.248154e-09	-3.349462e+01	-8.499689e+01
6.000000e-07	-4.795781e-06	-1.256146e-09	-3.333332e+01	-8.480935e+01
6.100000e-07	-4.772396e-06	-1.264760e-09	-3.317078e+01	-8.461558e+01
6.200000e-07	-4.748757e-06	-1.244679e-09	-3.300648e+01	-8.441557e+01
6.300000e-07	-4.724951e-06	-1.244797e-09	-3.284101e+01	-8.420932e+01
6.400000e-07	-4.700952e-06	-1.254986e-09	-3.267420e+01	-8.399685e+01
6.500000e-07	-4.676431e-06	-1.242282e-09	-3.250377e+01	-8.377823e+01
6.600000e-07	-4.651360e-06	-1.228778e-09	-3.232951e+01	-8.355356e+01
6.700000e-07	-4.625663e-06	-1.237328e-09	-3.215090e+01	-8.332294e+01
6.800000e-07	-4.599353e-06	-1.229777e-09	-3.196803e+01	-8.308653e+01
6.900000e-07	-4.572569e-06	-1.220329e-09	-3.178187e+01	-8.284450e+01
7.000000e-07	-4.545367e-06	-1.223190e-09	-3.159280e+01	-8.259703e+01
7.100000e-07	-4.517947e-06	-1.222779e-09	-3.140222e+01	-8.234433e+01
7.200000e-07	-4.490402e-06	-1.208952e-09	-3.121076e+01	-8.208663e+01
7.300000e-07	-4.462726e-06	-1.209367e-09	-3.101840e+01	-8.182416e+01
7.400000e-07	-4.434821e-06	-1.207291e-09	-3.082445e+01	-8.155716e+01
7.500000e-07	-4.406679e-06	-1.199502e-09	-3.062884e+01	-8.128589e+01
7.600000e-07	-4.378211e-06	-1.194751e-09	-3.043098e+01	-8.101059e+01
7.700000e-07	-4.349360e-06	-1.196830e-09	-3.023044e+01	-8.073152e+01
7.800000e-07	-4.320211e-06	-1.188716e-09	-3.002785e+01	-8.044892e+01
7.900000e-07	-4.290772e-06	-1.184020e-09	-2.982323e+01	-8.016304e+01
8.000000e-07	-4.261098e-06	-1.180273e-09	-2.961698e+01	-7.987409e+01
8.100000e-07	-4.231152e-06	-1.171980e-09	-2.940883e+01	-7.958230e+01
8.200000e-07	-4.200911e-06	-1.162962e-09	-2.919865e+01	-7.928785e+01
8.300000e-07	-4.170356e-06	-1.162808e-09	-2.898627e+01	-7.899092e+01
8.400000e-07	-4.139422e-06	-1.156719e-09	-2.877126e+01	-7.869167e+01
8.500000e-07	-4.108252e-06	-1.146901e-09	-2.855461e+01	-7.839021e+01
8.600000e-07	-4.076932e-06	-1.143247e-09	-2.833692e+01	-7.808666e+01
8.700000e-07	-4.045458e-06	-1.142045e-09	-2.811816e+01	-7.778108e+01
8.800000e-07	-4.013789e-06	-1.137229e-09	-2.789804e+01	-7.747351e+01
8.900000e-07	-3.981898e-06	-1.132823e-09	-2.767638e+01	-7.716397e+01
9.000000e-07	-3.949741e-06	-1.128379e-09	-2.745287e+01	-7.685242e+01
9.100000e-07	-3.917239e-06	-1.118740e-09	-2.722697e+01	-7.653883e+01
9.200000e-07	-3.884317e-06	-1.111268e-09	-2.699814e+01	-7.622310e+01
9.300000e-07	-3.850910e-06	-1.107923e-09	-2.676594e+01	-7.590511e+01
9.400000e-07	-3.817007e-06	-1.101271e-09	-2.653030e+01	-7.558473e+01
9.500000e-07	-3.782743e-06	-1.094145e-09	-2.629215e+01	-7.526177e+01
9.600000e-07	-3.748089e-06	-1.093423e-09	-2.605128e+01	-7.493604e+01
9.700000e-07	-3.713088e-06	-1.087809e-09	-2.580801e+01	-7.460730e+01
9.800000e-07	-3.677830e-06	-1.080180e-09	-2.556294e+01	-7.427531e+01
9.900000e-07	-3.642301e-06	-1.074035e-09	-2.531600e+01	-7.393979e+01
1.000000e-06	-3.606691e-06	-1.071250e-09	-2.506849e+01	-7.360045e+01
1.010000e-06	-3.571032e-06	-1.065101e-09	-2.482064e+01	-7.325700e+01
1.020000e-06	-3.535188e-06	-1.058212e-09	-2.457150e+01	-7.290910e+01
1.030000e-06	-3.499075e-06	-1.053232e-09	-2.432049e+01	-7.255645e+01
1.040000e-06	-3.462722e-06	-1.046028e-09	-2.406782e+01	-7.219871e+01
1.050000e-06	-3.426137e-06	-1.038317e-09	-2.381354e+01	-7.183556e+01
1.060000e-06	-3.389227e-06	-1.036977e-09	-2.355699e+01	-7.146666e+01
1.070000e-06	-3.352018e-06	-1.033975e-09	-2.329837e+01	-7.109169e+01
1.080000e-06	-3.314622e-06	-1.028801e-09	-2.303845e+01	-7.071034e+01
1.090000e-06	-3.277084e-06	-1.019950e-09	-2.277753e+01	-7.032232e+01
1.100000e-06	-3.239301e-06	-1.010849e-09	-2.251492e+01	-6.992734e+01
1.110000e-06	-3.201109e-06	-9.984001e-10	-2.224947e+01	-6.952513e+01
1.120000e-06	-3.162686e-06	-9.914710e-10	-2.198241e+01	-6.911545e+01
1.130000e-06	-3.124167e-06	-9.877750e-10	-2.171468e+01	-6.869807e+01
1.140000e-06	-3.085439e-06	-9.834502e-10	-2.144550e+01	-6.827281e+01
1.150000e-06	-3.046495e-06	-9.755914e-10	-2.117481e+01	-6.783950e+01
1.160000e-06	-3.007351e-06	-9.683170e-10	-2.090274e+01	-6.739799e+01
1.170000e-06	-2.967998e-06	-9.569374e-10	-2.062922e+01	-6.694819e+01
1.180000e-06	-2.928455e-06	-9.423244e-10	-2.035438e+01	-6.649001e+01
1.190000e-06	-2.888833e-06	-9.316849e-10	-2.007898e+01	-6.602340e+01
1.200000e-06	-2.849139e-06	-9.237920e-10	-1.980309e+01	-6.554835e+01
1.210000e-06	-2.809297e-06	-9.204991e-10	-1.952616e+01	-6.506488e+01
1.220000e-06	-2.769270e-06	-9.179673e-10	-1.924795e+01	-6.457302e+01
1.230000e-06	-2.729160e-06	-9.114127e-10	-1.896917e+01	-6.407284e+01
1.240000e-06	-2.688815e-06	-8.995765e-10	-1.868874e+01	-6.356444e+01
1.250000e-06	-2.648189e-06	-8.880497e-10	-1.840637e+01	-6.304793e+01
1.260000e-06	-2.607339e-06	-8.764616e-10	-1.812244e+01	-6.252345e+01
1.270000e-06	-2.566206e-06	-8.644279e-10	-1.783654e+01	-6.199115e+01
1.280000e-06	-2.524705e-06	-8.554789e-10	-1.754809e+01	-6.145120e+01
1.290000e-06	-2.482704e-06	-8.509331e-10	-1.725616e+01	-6.090378e+01
1.300000e-06	-2.440449e-06	-8.459607e-10	-1.696246e+01	-6.034905e+01
1.310000e-06	-2.397986e-06	-8.387316e-10	-1.666732e+01	-5.978722e+01
1.320000e-06	-2.355280e-06	-8.286935e-10	-1.637049e+01	-5.921845e+01
1.330000e-06	-2.312417e-06	-8.200342e-10	-1.607257e+01	-5.864291e+01
1.340000e-06	-2.269368e-06	-8.095971e-10	-1.577336e+01	-5.806078e+01
1.350000e-06	-2.226172e-06	-7.971311e-10	-1.547312e+01	-5.747220e+01
1.360000e-06	-2.182826e-06	-7.864872e-10	-1.517184e+01	-5.687728e+01
1.370000e-06	-2.139356e-06	-7.783514e-10	-1.486970e+01	-5.627613e+01
1.380000e-06	-2.095787e-06	-7.684079e-10	-1.456687e+01	-5.566881e+01
1.390000e-06	-2.052119e-06	-7.572819e-10	-1.426335e+01	-5.505537e+01
1.400000e-06	-2.008360e-06	-7.469015e-10	-1.395921e+01	-5.443580e+01
1.410000e-06	-1.964553e-06	-7.398542e-10	-1.365472e+01	-5.381006e+01
1.420000e-06	-1.920646e-06	-7.323155e-10	-1.334954e+01	-5.317806e+01
1.430000e-06	-1.876533e-06	-7.212060e-10	-1.304294e+01	-5.253969e+01
1.440000e-06	-1.832332e-06	-7.072996e-10	-1.273572e+01	-5.189475e+01
1.450000e-06	-1.788077e-06	-6.940393e-10	-1.242812e+01	-5.124303e+01
1.460000e-06	-1.743675e-06	-6.834912e-10	-1.211950e+01	-5.058424e+01
1.470000e-06	-1.699145e-06	-6.744332e-10	-1.181000e+01	-4.991805e+01
1.480000e-06	-1.654516e-06	-6.664142e-10	-1.149980e+01	-4.924408e+01
1.490000e-06	-1.609790e-06	-6.588099e-10	-1.118893e+01	-4.856189e+01
1.500000e-06	-1.564861e-06	-6.508606e-10	-1.087664e+01	-4.787101e+01
1.510000e-06	-1.519751e-06	-6.402518e-10	-1.056310e+01	-4.717089e+01
1.520000e-06	-1.474609e-06	-6.261095e-10	-1.024934e+01	-4.646095e+01
1.530000e-06	-1.429368e-06	-6.107948e-10	-9.934892e+00	-4.574058e+01
1.540000e-06	-1.383930e-06	-5.979945e-10	-9.619078e+00	-4.500910e+01
1.550000e-06	-1.338337e-06	-5.865272e-10	-9.302177e+00	-4.426582e+01
1.560000e-06	-1.292731e-06	-5.768222e-10	-8.985189e+00	-4.351000e+01
1.570000e-06	-1.247109e-06	-5.683233e-10	-8.668091e+00	-4.274087e+01
1.580000e-06	-1.201429e-06	-5.578430e-10	-8.350593e+00	-4.195766e+01
1.590000e-06	-1.155631e-06	-5.461377e-10	-8.032269e+00	-4.115956e+01
1.600000e-06	-1.109663e-06	-5.329857e-10	-7.712771e+00	-4.034575e+01
1.610000e-06	-1.063690e-06	-5.189275e-10	-7.393234e+00	-3.951543e+01
1.620000e-06	-1.017653e-06	-5.055230e-10	-7.073248e+00	-3.866777e+01
1.630000e-06	-9.715310e-07	-4.928272e-10	-6.752675e+00	-3.780197e+01
1.640000e-06	-9.254024e-07	-4.801841e-10	-6.432056e+00	-3.691724e+01
1.650000e-06	-8.792195e-07	-4.655678e-10	-6.111059e+00	-3.601282e+01
1.660000e-06	-8.329565e-07	-4.499320e-10	-5.789506e+00	-3.508796e+01
1.670000e-06	-7.866008e-07	-4.341370e-10	-5.467308e+00	-3.414197e+01
1.680000e-06	-7.401425e-07	-4.190452e-10	-5.144398e+00	-3.317419e+01
1.690000e-06	-6.935784e-07	-4.057419e-10	-4.820751e+00	-3.218402e+01
1.700000e-06	-6.470345e-07	-3.923077e-10	-4.497246e+00	-3.117090e+01
1.710000e-06	-6.005480e-07	-3.761634e-10	-4.174139e+00	-3.013436e+01
1.720000e-06	-5.540775e-07	-3.585530e-10	-3.851144e+00	-2.907398e+01
1.730000e-06	-5.075427e-07	-3.407731e-10	-3.527701e+00	-2.798941e+01
1.740000e-06	-4.609156e-07	-3.234190e-10	-3.203617e+00	-2.688040e+01
1.750000e-06	-4.142336e-07	-3.061720e-10	-2.879151e+00	-2.574676e+01
1.760000e-06	-3.674611e-07	-2.903738e-10	-2.554057e+00	-2.458841e+01
1.770000e-06	-3.206694e-07	-2.744334e-10	-2.228829e+00	-2.340536e+01
1.780000e-06	-2.738810e-07	-2.573179e-10	-1.903624e+00	-2.219769e+01
1.790000e-06	-2.270235e-07	-2.413532e-10	-1.577938e+00	-2.096559e+01
1.800000e-06	-1.801057e-07	-2.243647e-10	-1.251834e+00	-1.970937e+01
1.810000e-06	-1.332029e-07	-2.054133e-10	-9.258336e-01	-1.842941e+01
1.820000e-06	-8.636347e-08	-1.862872e-10	-6.002737e-01	-1.712618e+01
1.830000e-06	-3.955943e-08	-1.667689e-10	-2.749598e-01	-1.580029e+01
1.840000e-06	7.211177e-09	-1.470404e-10	5.012165e-02	-1.445241e+01
1.850000e-06	5.400776e-08	-1.287091e-10	3.753836e-01	-1.308331e+01
1.860000e-06	1.008572e-07	-1.090572e-10	7.010129e-01	-1.169387e+01
1.870000e-06	1.477144e-07	-8.784021e-11	1.026696e+00	-1.028503e+01
1.880000e-06	1.946051e-07	-6.811690e-11	1.352613e+00	-8.857849e+00
1.890000e-06	2.414470e-07	-5.069016e-11	1.678190e+00	-7.413436e+00
1.900000e-06	2.882783e-07	-3.325273e-11	2.003693e+00	-5.952989e+00
1.910000e-06	3.350998e-07	-1.420642e-11	2.329128e+00	-4.477774e+00
1.920000e-06	3.818094e-07	6.266929e-12	2.653785e+00	-2.989119e+00
1.930000e-06	4.285318e-07	2.812013e-11	2.978532e+00	-1.488409e+00
1.940000e-06	4.752425e-07	5.088427e-11	3.303197e+00	2.291999e-02
1.950000e-06	5.219025e-07	7.284849e-11	3.627509e+00	1.543390e+00
1.960000e-06	5.684527e-07	9.291763e-11	3.951059e+00	3.071488e+00
1.970000e-06	6.148923e-07	1.122370e-10	4.273840e+00	4.605671e+00
1.980000e-06	6.614037e-07	1.318030e-10	4.597120e+00	6.144377e+00
1.990000e-06	7.079874e-07	1.498068e-10	4.920902e+00	7.686031e+00
2.000000e-06	7.544691e-07	1.687376e-10	5.243976e+00	9.229053e+00
2.010000e-06	8.008281e-07	1.893915e-10	5.566196e+00	1.077186e+01
2.020000e-06	8.471263e-07	2.110098e-10	5.887994e+00	1.231290e+01
2.030000e-06	8.933514e-07	2.345984e-10	6.209284e+00	1.385061e+01
2.040000e-06	9.395454e-07	2.585367e-10	6.530358e+00	1.538347e+01
2.050000e-06	9.856634e-07	2.818167e-10	6.850903e+00	1.690999e+01
2.060000e-06	1.031661e-06	3.023736e-10	7.170611e+00	1.842871e+01
2.070000e-06	1.077608e-06	3.222825e-10	7.489972e+00	1.993823e+01
2.080000e-06	1.123495e-06	3.381732e-10	7.808906e+00	2.143717e+01
2.090000e-06	1.169315e-06	3.575148e-10	8.127383e+00	2.292425e+01
2.100000e-06	1.215023e-06	3.788498e-10	8.445081e+00	2.439820e+01
2.110000e-06	1.260596e-06	3.979774e-10	8.761835e+00	2.585787e+01
2.120000e-06	1.306021e-06	4.187300e-10	9.077561e+00	2.730212e+01
2.130000e-06	1.351238e-06	4.403792e-10	9.391849e+00	2.872993e+01
2.140000e-06	1.396454e-06	4.626000e-10	9.706126e+00	3.014032e+01
2.150000e-06	1.441736e-06	4.805895e-10	1.002086e+01	3.153241e+01
2.160000e-06	1.486878e-06	4.995052e-10	1.033462e+01	3.290538e+01
2.170000e-06	1.531862e-06	5.167594e-10	1.064728e+01	3.425850e+01
2.180000e-06	1.576714e-06	5.342176e-10	1.095903e+01	3.559112e+01
2.190000e-06	1.621477e-06	5.523269e-10	1.127015e+01	3.690266e+01
2.200000e-06	1.666134e-06	5.704768e-10	1.158055e+01	3.819262e+01
2.210000e-06	1.710604e-06	5.875703e-10	1.188964e+01	3.946059e+01
2.220000e-06	1.754999e-06	6.031316e-10	1.219821e+01	4.070622e+01
2.230000e-06	1.799300e-06	6.191065e-10	1.250613e+01	4.192924e+01
2.240000e-06	1.843406e-06	6.345848e-10	1.281269e+01	4.312945e+01
2.250000e-06	1.887397e-06	6.508070e-10	1.311845e+01	4.430672e+01
2.260000e-06	1.931289e-06	6.678406e-10	1.342352e+01	4.546098e+01
2.270000e-06	1.975052e-06	6.857798e-10	1.372770e+01	4.659222e+01
2.280000e-06	2.018717e-06	7.021395e-10	1.403119e+01	4.770051e+01
2.290000e-06	2.062345e-06	7.162853e-10	1.433444e+01	4.878594e+01
2.300000e-06	2.105951e-06	7.270694e-10	1.463752e+01	4.984867e+01
2.310000e-06	2.149531e-06	7.351501e-10	1.494042e+01	5.088891e+01
2.320000e-06	2.193028e-06	7.472354e-10	1.524275e+01	5.190690e+01
2.330000e-06	2.236347e-06	7.625297e-10	1.554385e+01	5.290292e+01
2.340000e-06	2.279485e-06	7.788794e-10	1.584368e+01	5.387728e+01
2.350000e-06	2.322589e-06	7.951080e-10	1.614327e+01	5.483032e+01
2.360000e-06	2.365512e-06	8.097568e-10	1.644161e+01	5.576241e+01
2.370000e-06	2.408073e-06	8.219668e-10	1.673743e+01	5.667395e+01
2.380000e-06	2.450362e-06	8.312669e-10	1.703136e+01	5.756532e+01
2.390000e-06	2.492354e-06	8.416690e-10	1.732323e+01	5.843695e+01
2.400000e-06	2.534053e-06	8.529457e-10	1.761307e+01	5.928925e+01
2.410000e-06	2.575495e-06	8.658539e-10	1.790111e+01	6.012267e+01
2.420000e-06	2.616667e-06	8.789373e-10	1.818727e+01	6.093763e+01
2.430000e-06	2.657449e-06	8.923020e-10	1.847073e+01	6.173456e+01
2.440000e-06	2.697932e-06	9.033601e-10	1.875212e+01	6.251390e+01
2.450000e-06	2.738190e-06	9.109075e-10	1.903193e+01	6.327607e+01
2.460000e-06	2.778192e-06	9.183202e-10	1.930997e+01	6.402148e+01
2.470000e-06	2.818059e-06	9.286907e-10	1.958706e+01	6.475055e+01
2.480000e-06	2.857784e-06	9.388467e-10	1.986317e+01	6.546367e+01
2.490000e-06	2.897379e-06	9.469535e-10	2.013838e+01	6.616123e+01
2.500000e-06	2.936877e-06	9.563650e-10	2.041291e+01	6.684361e+01
2.510000e-06	2.976248e-06	9.666767e-10	2.068656e+01	6.751116e+01
2.520000e-06	3.015417e-06	9.753251e-10	2.095881e+01	6.816423e+01
2.530000e-06	3.054393e-06	9.827864e-10	2.122971e+01	6.880317e+01
2.540000e-06	3.093173e-06	9.911438e-10	2.149926e+01	6.942829e+01
2.550000e-06	3.131715e-06	1.000498e-09	2.176715e+01	7.003989e+01
2.560000e-06	3.170094e-06	1.009979e-09	2.203390e+01	7.063827e+01
2.570000e-06	3.208249e-06	1.020429e-09	2.229910e+01	7.122372e+01
2.580000e-06	3.246107e-06	1.030669e-09	2.256223e+01	7.179650e+01
2.590000e-06	3.283768e-06	1.037840e-09	2.282399e+01	7.235688e+01
2.600000e-06	3.321241e-06	1.043172e-09	2.308445e+01	7.290509e+01
2.610000e-06	3.358490e-06	1.049889e-09	2.334335e+01	7.344139e+01
2.620000e-06	3.395563e-06	1.058011e-09	2.360103e+01	7.396600e+01
2.630000e-06	3.432366e-06	1.064337e-09	2.385683e+01	7.447914e+01
2.640000e-06	3.468809e-06	1.069936e-09	2.411013e+01	7.498104e+01
2.650000e-06	3.505027e-06	1.077480e-09	2.436187e+01	7.547190e+01
2.660000e-06	3.541088e-06	1.085451e-09	2.461251e+01	7.595193e+01
2.670000e-06	3.576903e-06	1.092256e-09	2.486145e+01	7.642133e+01
2.680000e-06	3.612535e-06	1.097475e-09	2.510911e+01	7.688030e+01
2.690000e-06	3.648118e-06	1.099273e-09	2.535643e+01	7.732904e+01
2.700000e-06	3.683584e-06	1.101683e-09	2.560294e+01	7.776775e+01
2.710000e-06	3.718831e-06	1.108164e-09	2.584792e+01	7.819661e+01
2.720000e-06	3.753893e-06	1.115490e-09	2.609162e+01	7.861581e+01
2.730000e-06	3.788614e-06	1.121243e-09	2.633296e+01	7.902556e+01
2.740000e-06	3.822957e-06	1.127314e-09	2.657166e+01	7.942603e+01
2.750000e-06	3.856968e-06	1.133589e-09	2.680805e+01	7.981742e+01
2.760000e-06	3.890369e-06	1.138282e-09	2.704021e+01	8.019992e+01
2.770000e-06	3.923135e-06	1.142343e-09	2.726795e+01	8.057371e+01
2.780000e-06	3.955498e-06	1.147279e-09	2.749289e+01	8.093899e+01
2.790000e-06	3.987617e-06	1.151633e-09	2.771613e+01	8.129594e+01
2.800000e-06	4.019532e-06	1.155482e-09	2.793796e+01	8.164475e+01
2.810000e-06	4.051222e-06	1.160359e-09	2.815822e+01	8.198559e+01
2.820000e-06	4.082769e-06	1.164723e-09	2.837749e+01	8.231865e+01
2.830000e-06	4.114167e-06	1.169054e-09	2.859572e+01	8.264410e+01
2.840000e-06	4.145326e-06	1.173566e-09	2.881230e+01	8.296212e+01
2.850000e-06	4.176176e-06	1.177440e-09	2.902672e+01	8.327289e+01
2.860000e-06	4.206622e-06	1.182043e-09	2.923834e+01	8.357656e+01
2.870000e-06	4.236716e-06	1.187366e-09	2.944751e+01	8.387329e+01
2.880000e-06	4.266529e-06	1.190495e-09	2.965472e+01	8.416325e+01
2.890000e-06	4.296042e-06	1.191782e-09	2.985986e+01	8.444657e+01
2.900000e-06	4.325360e-06	1.195282e-09	3.006363e+01	8.472342e+01
2.910000e-06	4.354444e-06	1.200509e-09	3.026578e+01	8.499391e+01
