# Temperatura_=_-0.4
# Concentracion g/m^3_=_1620.0
# C_Vs_to_Am_M_A/Vsm_=_65563218390.804596
# pendiente_HvsI_1/m_=_3716.3
# ordenada_HvsI_A/m_=_1297.0
# frecuencia_Hz_=_135092.76839509467

Tiempo_(s)	Campo_(V.s)	Magnetizacion_(V.s)	Campo_(kA/m)	Magnetizacion_(A/m)
0.000000e+00	-5.527555e-06	-1.535873e-09	-3.837458e+01	-9.815734e+01
1.000000e-08	-5.527898e-06	-1.534063e-09	-3.837696e+01	-9.813208e+01
2.000000e-08	-5.528015e-06	-1.531121e-09	-3.837777e+01	-9.810615e+01
3.000000e-08	-5.527758e-06	-1.528799e-09	-3.837599e+01	-9.807958e+01
4.000000e-08	-5.526977e-06	-1.529064e-09	-3.837057e+01	-9.805240e+01
5.000000e-08	-5.525645e-06	-1.527977e-09	-3.836132e+01	-9.802463e+01
6.000000e-08	-5.523753e-06	-1.524104e-09	-3.834818e+01	-9.799626e+01
7.000000e-08	-5.521263e-06	-1.517461e-09	-3.833090e+01	-9.796728e+01
8.000000e-08	-5.518259e-06	-1.528683e-09	-3.831004e+01	-9.793765e+01
9.000000e-08	-5.514860e-06	-1.547057e-09	-3.828645e+01	-9.790732e+01
1.000000e-07	-5.511004e-06	-1.537954e-09	-3.825968e+01	-9.787624e+01
1.100000e-07	-5.506708e-06	-1.520920e-09	-3.822985e+01	-9.784434e+01
1.200000e-07	-5.502163e-06	-1.502317e-09	-3.819830e+01	-9.781152e+01
1.300000e-07	-5.497436e-06	-1.518134e-09	-3.816548e+01	-9.777768e+01
1.400000e-07	-5.492447e-06	-1.519054e-09	-3.813085e+01	-9.774273e+01
1.500000e-07	-5.487026e-06	-1.496575e-09	-3.809321e+01	-9.770653e+01
1.600000e-07	-5.481240e-06	-1.512436e-09	-3.805304e+01	-9.766895e+01
1.700000e-07	-5.475080e-06	-1.528880e-09	-3.801028e+01	-9.762985e+01
1.800000e-07	-5.468450e-06	-1.534161e-09	-3.796425e+01	-9.758909e+01
1.900000e-07	-5.461461e-06	-1.482517e-09	-3.791573e+01	-9.754650e+01
2.000000e-07	-5.454170e-06	-1.482460e-09	-3.786511e+01	-9.750193e+01
2.100000e-07	-5.446584e-06	-1.481257e-09	-3.781244e+01	-9.745520e+01
2.200000e-07	-5.438674e-06	-1.501860e-09	-3.775753e+01	-9.740615e+01
2.300000e-07	-5.430449e-06	-1.491475e-09	-3.770043e+01	-9.735460e+01
2.400000e-07	-5.421848e-06	-1.489501e-09	-3.764072e+01	-9.730038e+01
2.500000e-07	-5.412621e-06	-1.470394e-09	-3.757666e+01	-9.724331e+01
2.600000e-07	-5.402578e-06	-1.458746e-09	-3.750694e+01	-9.718321e+01
2.700000e-07	-5.391905e-06	-1.454999e-09	-3.743284e+01	-9.711991e+01
2.800000e-07	-5.380801e-06	-1.454867e-09	-3.735575e+01	-9.705325e+01
2.900000e-07	-5.369197e-06	-1.445418e-09	-3.727519e+01	-9.698305e+01
3.000000e-07	-5.357249e-06	-1.443503e-09	-3.719225e+01	-9.690916e+01
3.100000e-07	-5.345023e-06	-1.462805e-09	-3.710737e+01	-9.683141e+01
3.200000e-07	-5.332426e-06	-1.454031e-09	-3.701991e+01	-9.674967e+01
3.300000e-07	-5.319426e-06	-1.448066e-09	-3.692966e+01	-9.666379e+01
3.400000e-07	-5.305991e-06	-1.433542e-09	-3.683639e+01	-9.657363e+01
3.500000e-07	-5.292169e-06	-1.432976e-09	-3.674043e+01	-9.647908e+01
3.600000e-07	-5.277903e-06	-1.422751e-09	-3.664139e+01	-9.638002e+01
3.700000e-07	-5.263163e-06	-1.432533e-09	-3.653906e+01	-9.627635e+01
3.800000e-07	-5.247971e-06	-1.420578e-09	-3.643359e+01	-9.616798e+01
3.900000e-07	-5.232142e-06	-1.426275e-09	-3.632370e+01	-9.605482e+01
4.000000e-07	-5.215874e-06	-1.431133e-09	-3.621076e+01	-9.593679e+01
4.100000e-07	-5.199332e-06	-1.427781e-09	-3.609592e+01	-9.581385e+01
4.200000e-07	-5.182445e-06	-1.403116e-09	-3.597868e+01	-9.568595e+01
4.300000e-07	-5.165188e-06	-1.418812e-09	-3.585888e+01	-9.555303e+01
4.400000e-07	-5.147517e-06	-1.419729e-09	-3.573620e+01	-9.541509e+01
4.500000e-07	-5.129476e-06	-1.400311e-09	-3.561095e+01	-9.527209e+01
4.600000e-07	-5.111008e-06	-1.396245e-09	-3.548274e+01	-9.512404e+01
4.700000e-07	-5.092138e-06	-1.419572e-09	-3.535174e+01	-9.497093e+01
4.800000e-07	-5.072981e-06	-1.393577e-09	-3.521874e+01	-9.481279e+01
4.900000e-07	-5.053637e-06	-1.383357e-09	-3.508445e+01	-9.464963e+01
5.000000e-07	-5.034042e-06	-1.405628e-09	-3.494841e+01	-9.448147e+01
5.100000e-07	-5.014213e-06	-1.398916e-09	-3.481074e+01	-9.430837e+01
5.200000e-07	-4.994137e-06	-1.369141e-09	-3.467137e+01	-9.413035e+01
5.300000e-07	-4.973622e-06	-1.388770e-09	-3.452895e+01	-9.394748e+01
5.400000e-07	-4.952663e-06	-1.393046e-09	-3.438344e+01	-9.375980e+01
5.500000e-07	-4.931432e-06	-1.361657e-09	-3.423605e+01	-9.356738e+01
5.600000e-07	-4.909873e-06	-1.362142e-09	-3.408638e+01	-9.337027e+01
5.700000e-07	-4.887907e-06	-1.380437e-09	-3.393388e+01	-9.316853e+01
5.800000e-07	-4.865601e-06	-1.360230e-09	-3.377902e+01	-9.296224e+01
5.900000e-07	-4.842948e-06	-1.353630e-09	-3.362176e+01	-9.275146e+01
6.000000e-07	-4.819894e-06	-1.373571e-09	-3.346170e+01	-9.253624e+01
6.100000e-07	-4.796579e-06	-1.363078e-09	-3.329984e+01	-9.231667e+01
6.200000e-07	-4.773107e-06	-1.352433e-09	-3.313689e+01	-9.209279e+01
6.300000e-07	-4.749408e-06	-1.357930e-09	-3.297236e+01	-9.186467e+01
6.400000e-07	-4.725446e-06	-1.351017e-09	-3.280601e+01	-9.163236e+01
6.500000e-07	-4.701175e-06	-1.333984e-09	-3.263751e+01	-9.139591e+01
6.600000e-07	-4.676521e-06	-1.343233e-09	-3.246635e+01	-9.115537e+01
6.700000e-07	-4.651373e-06	-1.339125e-09	-3.229176e+01	-9.091077e+01
6.800000e-07	-4.625680e-06	-1.330491e-09	-3.211339e+01	-9.066214e+01
6.900000e-07	-4.599475e-06	-1.328973e-09	-3.193146e+01	-9.040952e+01
7.000000e-07	-4.572807e-06	-1.328472e-09	-3.174633e+01	-9.015291e+01
7.100000e-07	-4.545743e-06	-1.313708e-09	-3.155843e+01	-8.989233e+01
7.200000e-07	-4.518388e-06	-1.315724e-09	-3.136852e+01	-8.962779e+01
7.300000e-07	-4.490816e-06	-1.310382e-09	-3.117711e+01	-8.935926e+01
7.400000e-07	-4.463062e-06	-1.302705e-09	-3.098443e+01	-8.908675e+01
7.500000e-07	-4.435098e-06	-1.298364e-09	-3.079029e+01	-8.881023e+01
7.600000e-07	-4.406895e-06	-1.298794e-09	-3.059449e+01	-8.852967e+01
7.700000e-07	-4.378382e-06	-1.287127e-09	-3.039654e+01	-8.824503e+01
7.800000e-07	-4.349467e-06	-1.281162e-09	-3.019580e+01	-8.795626e+01
7.900000e-07	-4.320241e-06	-1.277430e-09	-2.999291e+01	-8.766331e+01
8.000000e-07	-4.290798e-06	-1.266960e-09	-2.978850e+01	-8.736612e+01
8.100000e-07	-4.261017e-06	-1.255197e-09	-2.958175e+01	-8.706463e+01
8.200000e-07	-4.230877e-06	-1.249769e-09	-2.937250e+01	-8.675875e+01
8.300000e-07	-4.200458e-06	-1.241761e-09	-2.916132e+01	-8.644841e+01
8.400000e-07	-4.169719e-06	-1.235438e-09	-2.894792e+01	-8.613353e+01
8.500000e-07	-4.138692e-06	-1.234485e-09	-2.873252e+01	-8.581402e+01
8.600000e-07	-4.107443e-06	-1.232935e-09	-2.851558e+01	-8.548979e+01
8.700000e-07	-4.076024e-06	-1.228938e-09	-2.829745e+01	-8.516075e+01
8.800000e-07	-4.044465e-06	-1.223643e-09	-2.807836e+01	-8.482680e+01
8.900000e-07	-4.012682e-06	-1.218034e-09	-2.785770e+01	-8.448785e+01
9.000000e-07	-3.980653e-06	-1.206233e-09	-2.763535e+01	-8.414379e+01
9.100000e-07	-3.948357e-06	-1.194708e-09	-2.741113e+01	-8.379455e+01
9.200000e-07	-3.915706e-06	-1.188315e-09	-2.718446e+01	-8.344002e+01
9.300000e-07	-3.882610e-06	-1.184800e-09	-2.695469e+01	-8.308012e+01
9.400000e-07	-3.849091e-06	-1.179337e-09	-2.672199e+01	-8.271476e+01
9.500000e-07	-3.815129e-06	-1.177684e-09	-2.648621e+01	-8.234386e+01
9.600000e-07	-3.780630e-06	-1.174648e-09	-2.624670e+01	-8.196735e+01
9.700000e-07	-3.745622e-06	-1.166166e-09	-2.600367e+01	-8.158515e+01
9.800000e-07	-3.710448e-06	-1.151571e-09	-2.575947e+01	-8.119720e+01
9.900000e-07	-3.675235e-06	-1.143525e-09	-2.551501e+01	-8.080344e+01
1.000000e-06	-3.639768e-06	-1.136338e-09	-2.526878e+01	-8.040383e+01
1.010000e-06	-3.604105e-06	-1.133660e-09	-2.502119e+01	-7.999832e+01
1.020000e-06	-3.568349e-06	-1.134486e-09	-2.477296e+01	-7.958689e+01
1.030000e-06	-3.532453e-06	-1.133691e-09	-2.452375e+01	-7.916951e+01
1.040000e-06	-3.496259e-06	-1.124670e-09	-2.427248e+01	-7.874617e+01
1.050000e-06	-3.459767e-06	-1.116810e-09	-2.401914e+01	-7.831686e+01
1.060000e-06	-3.422992e-06	-1.106848e-09	-2.376383e+01	-7.788159e+01
1.070000e-06	-3.385973e-06	-1.096177e-09	-2.350683e+01	-7.744037e+01
1.080000e-06	-3.348709e-06	-1.085833e-09	-2.324813e+01	-7.699322e+01
1.090000e-06	-3.311139e-06	-1.080732e-09	-2.298730e+01	-7.654018e+01
1.100000e-06	-3.273372e-06	-1.076485e-09	-2.272511e+01	-7.608127e+01
1.110000e-06	-3.235425e-06	-1.072568e-09	-2.246166e+01	-7.561655e+01
1.120000e-06	-3.197269e-06	-1.069339e-09	-2.219677e+01	-7.514607e+01
1.130000e-06	-3.158862e-06	-1.062360e-09	-2.193013e+01	-7.466988e+01
1.140000e-06	-3.120218e-06	-1.049526e-09	-2.166185e+01	-7.418805e+01
1.150000e-06	-3.081415e-06	-1.037444e-09	-2.139246e+01	-7.370063e+01
1.160000e-06	-3.042477e-06	-1.029040e-09	-2.112214e+01	-7.320770e+01
1.170000e-06	-3.003291e-06	-1.023577e-09	-2.085009e+01	-7.270933e+01
1.180000e-06	-2.963871e-06	-1.019273e-09	-2.057642e+01	-7.220558e+01
1.190000e-06	-2.924408e-06	-1.014693e-09	-2.030245e+01	-7.169651e+01
1.200000e-06	-2.884852e-06	-1.008169e-09	-2.002784e+01	-7.118219e+01
1.210000e-06	-2.845079e-06	-9.969277e-10	-1.975172e+01	-7.066268e+01
1.220000e-06	-2.805124e-06	-9.853074e-10	-1.947433e+01	-7.013802e+01
1.230000e-06	-2.765014e-06	-9.730178e-10	-1.919588e+01	-6.960827e+01
1.240000e-06	-2.724685e-06	-9.613727e-10	-1.891589e+01	-6.907344e+01
1.250000e-06	-2.684146e-06	-9.524504e-10	-1.863445e+01	-6.853357e+01
1.260000e-06	-2.643384e-06	-9.499625e-10	-1.835147e+01	-6.798865e+01
1.270000e-06	-2.602411e-06	-9.472671e-10	-1.806702e+01	-6.743868e+01
1.280000e-06	-2.561081e-06	-9.420943e-10	-1.778009e+01	-6.688364e+01
1.290000e-06	-2.519315e-06	-9.314056e-10	-1.749013e+01	-6.632349e+01
1.300000e-06	-2.477272e-06	-9.181908e-10	-1.719825e+01	-6.575815e+01
1.310000e-06	-2.435048e-06	-9.041984e-10	-1.690511e+01	-6.518754e+01
1.320000e-06	-2.392616e-06	-8.921620e-10	-1.661053e+01	-6.461156e+01
1.330000e-06	-2.349830e-06	-8.820976e-10	-1.631350e+01	-6.403007e+01
1.340000e-06	-2.306823e-06	-8.736278e-10	-1.601493e+01	-6.344292e+01
1.350000e-06	-2.263737e-06	-8.653655e-10	-1.571580e+01	-6.284992e+01
1.360000e-06	-2.220450e-06	-8.577160e-10	-1.541529e+01	-6.225086e+01
1.370000e-06	-2.176985e-06	-8.482966e-10	-1.511353e+01	-6.164551e+01
1.380000e-06	-2.133398e-06	-8.380031e-10	-1.481094e+01	-6.103358e+01
1.390000e-06	-2.089736e-06	-8.239502e-10	-1.450781e+01	-6.041480e+01
1.400000e-06	-2.045982e-06	-8.080196e-10	-1.420405e+01	-5.978882e+01
1.410000e-06	-2.002119e-06	-7.957735e-10	-1.389954e+01	-5.915529e+01
1.420000e-06	-1.958243e-06	-7.852769e-10	-1.359494e+01	-5.851384e+01
1.430000e-06	-1.914341e-06	-7.767450e-10	-1.329015e+01	-5.786404e+01
1.440000e-06	-1.870252e-06	-7.696471e-10	-1.298407e+01	-5.720546e+01
1.450000e-06	-1.825946e-06	-7.606755e-10	-1.267648e+01	-5.653763e+01
1.460000e-06	-1.781596e-06	-7.485232e-10	-1.236858e+01	-5.586005e+01
1.470000e-06	-1.737180e-06	-7.351022e-10	-1.206023e+01	-5.517220e+01
1.480000e-06	-1.692598e-06	-7.202734e-10	-1.175072e+01	-5.447355e+01
1.490000e-06	-1.647848e-06	-7.065178e-10	-1.144005e+01	-5.376353e+01
1.500000e-06	-1.602959e-06	-6.965976e-10	-1.112840e+01	-5.304157e+01
1.510000e-06	-1.558025e-06	-6.903268e-10	-1.081646e+01	-5.230706e+01
1.520000e-06	-1.512994e-06	-6.809080e-10	-1.050384e+01	-5.155939e+01
1.530000e-06	-1.467780e-06	-6.677515e-10	-1.018994e+01	-5.079793e+01
1.540000e-06	-1.422389e-06	-6.550064e-10	-9.874817e+00	-5.002207e+01
1.550000e-06	-1.376838e-06	-6.407719e-10	-9.558583e+00	-4.923115e+01
1.560000e-06	-1.331276e-06	-6.260958e-10	-9.242274e+00	-4.842455e+01
1.570000e-06	-1.285752e-06	-6.124795e-10	-8.926223e+00	-4.760161e+01
1.580000e-06	-1.240140e-06	-5.979471e-10	-8.609567e+00	-4.676171e+01
1.590000e-06	-1.194390e-06	-5.815455e-10	-8.291954e+00	-4.590421e+01
1.600000e-06	-1.148537e-06	-5.664708e-10	-7.973623e+00	-4.502852e+01
1.610000e-06	-1.102652e-06	-5.537041e-10	-7.655069e+00	-4.413401e+01
1.620000e-06	-1.056627e-06	-5.392958e-10	-7.335541e+00	-4.322013e+01
1.630000e-06	-1.010460e-06	-5.242404e-10	-7.015031e+00	-4.228630e+01
1.640000e-06	-9.643058e-07	-5.118820e-10	-6.694611e+00	-4.133201e+01
1.650000e-06	-9.181834e-07	-5.014372e-10	-6.374410e+00	-4.035674e+01
1.660000e-06	-8.719641e-07	-4.865470e-10	-6.053536e+00	-3.936005e+01
1.670000e-06	-8.255818e-07	-4.702975e-10	-5.731532e+00	-3.834150e+01
1.680000e-06	-7.791523e-07	-4.550076e-10	-5.409199e+00	-3.730070e+01
1.690000e-06	-7.327146e-07	-4.410091e-10	-5.086809e+00	-3.623733e+01
1.700000e-06	-6.862138e-07	-4.291238e-10	-4.763981e+00	-3.515110e+01
1.710000e-06	-6.396052e-07	-4.166267e-10	-4.440404e+00	-3.404176e+01
1.720000e-06	-5.929971e-07	-3.999752e-10	-4.116832e+00	-3.290913e+01
1.730000e-06	-5.462752e-07	-3.797355e-10	-3.792469e+00	-3.175310e+01
1.740000e-06	-4.994407e-07	-3.594120e-10	-3.467324e+00	-3.057358e+01
1.750000e-06	-4.526480e-07	-3.395230e-10	-3.142470e+00	-2.937060e+01
1.760000e-06	-4.058140e-07	-3.218464e-10	-2.817329e+00	-2.814419e+01
1.770000e-06	-3.589740e-07	-3.059317e-10	-2.492146e+00	-2.689450e+01
1.780000e-06	-3.122234e-07	-2.885753e-10	-2.167585e+00	-2.562172e+01
1.790000e-06	-2.653912e-07	-2.699629e-10	-1.842456e+00	-2.432612e+01
1.800000e-06	-2.183921e-07	-2.523155e-10	-1.516169e+00	-2.300802e+01
1.810000e-06	-1.714040e-07	-2.330542e-10	-1.189958e+00	-2.166783e+01
1.820000e-06	-1.244647e-07	-2.120171e-10	-8.640857e-01	-2.030603e+01
1.830000e-06	-7.754159e-08	-1.913910e-10	-5.383259e-01	-1.892315e+01
1.840000e-06	-3.063902e-08	-1.717319e-10	-2.127088e-01	-1.751981e+01
1.850000e-06	1.632852e-08	-1.522580e-10	1.133593e-01	-1.609668e+01
1.860000e-06	6.326392e-08	-1.349296e-10	4.392044e-01	-1.465451e+01
1.870000e-06	1.101104e-07	-1.157302e-10	7.644323e-01	-1.319411e+01
1.880000e-06	1.569863e-07	-9.398471e-11	1.089864e+00	-1.171634e+01
1.890000e-06	2.038253e-07	-7.310910e-11	1.415040e+00	-1.022214e+01
1.900000e-06	2.507373e-07	-5.203113e-11	1.740723e+00	-8.712502e+00
1.910000e-06	2.976859e-07	-3.216957e-11	2.066659e+00	-7.188457e+00
1.920000e-06	3.445405e-07	-1.346734e-11	2.391943e+00	-5.651101e+00
1.930000e-06	3.913452e-07	7.693960e-12	2.716881e+00	-4.101572e+00
1.940000e-06	4.380997e-07	3.075587e-11	3.041470e+00	-2.541054e+00
1.950000e-06	4.848220e-07	5.252534e-11	3.365836e+00	-9.707670e-01
1.960000e-06	5.315459e-07	7.644103e-11	3.690212e+00	6.080335e-01
1.970000e-06	5.782457e-07	9.861795e-11	4.014422e+00	2.194062e+00
1.980000e-06	6.248757e-07	1.210712e-10	4.338146e+00	3.786007e+00
1.990000e-06	6.713588e-07	1.419545e-10	4.660851e+00	5.382537e+00
2.000000e-06	7.177286e-07	1.557530e-10	4.982769e+00	6.982306e+00
2.010000e-06	7.640002e-07	1.735753e-10	5.304006e+00	8.583955e+00
2.020000e-06	8.101871e-07	1.938129e-10	5.624655e+00	1.018612e+01
2.030000e-06	8.563854e-07	2.199796e-10	5.945383e+00	1.178744e+01
2.040000e-06	9.025894e-07	2.490672e-10	6.266150e+00	1.338656e+01
2.050000e-06	9.487341e-07	2.755257e-10	6.586506e+00	1.498212e+01
2.060000e-06	9.947599e-07	3.006783e-10	6.906036e+00	1.657278e+01
2.070000e-06	1.040723e-06	3.217842e-10	7.225132e+00	1.815725e+01
2.080000e-06	1.086654e-06	3.406842e-10	7.544001e+00	1.973421e+01
2.090000e-06	1.132505e-06	3.601416e-10	7.862321e+00	2.130241e+01
2.100000e-06	1.178312e-06	3.809871e-10	8.180329e+00	2.286062e+01
2.110000e-06	1.224058e-06	4.025047e-10	8.497915e+00	2.440764e+01
2.120000e-06	1.269655e-06	4.258675e-10	8.814471e+00	2.594232e+01
2.130000e-06	1.315120e-06	4.497879e-10	9.130112e+00	2.746356e+01
2.140000e-06	1.360529e-06	4.729845e-10	9.445359e+00	2.897028e+01
2.150000e-06	1.405910e-06	4.935063e-10	9.760408e+00	3.046149e+01
2.160000e-06	1.451182e-06	5.097872e-10	1.007470e+01	3.193622e+01
2.170000e-06	1.496449e-06	5.249831e-10	1.038897e+01	3.339358e+01
2.180000e-06	1.541661e-06	5.403273e-10	1.070285e+01	3.483273e+01
2.190000e-06	1.586676e-06	5.576131e-10	1.101536e+01	3.625288e+01
2.200000e-06	1.631541e-06	5.791247e-10	1.132684e+01	3.765332e+01
2.210000e-06	1.676183e-06	6.014924e-10	1.163676e+01	3.903338e+01
2.220000e-06	1.720620e-06	6.220471e-10	1.194526e+01	4.039248e+01
2.230000e-06	1.764935e-06	6.391318e-10	1.225291e+01	4.173008e+01
2.240000e-06	1.809137e-06	6.562190e-10	1.255978e+01	4.304573e+01
2.250000e-06	1.853233e-06	6.709401e-10	1.286591e+01	4.433901e+01
2.260000e-06	1.897202e-06	6.848088e-10	1.317116e+01	4.560960e+01
2.270000e-06	1.941077e-06	6.996379e-10	1.347576e+01	4.685721e+01
2.280000e-06	1.984869e-06	7.147309e-10	1.377978e+01	4.808163e+01
2.290000e-06	2.028568e-06	7.316388e-10	1.408316e+01	4.928270e+01
2.300000e-06	2.072228e-06	7.504520e-10	1.438626e+01	5.046033e+01
2.310000e-06	2.115874e-06	7.665323e-10	1.468928e+01	5.161447e+01
2.320000e-06	2.159472e-06	7.811832e-10	1.499195e+01	5.274514e+01
2.330000e-06	2.203031e-06	7.963149e-10	1.529436e+01	5.385240e+01
2.340000e-06	2.246471e-06	8.090516e-10	1.559593e+01	5.493635e+01
2.350000e-06	2.289795e-06	8.198946e-10	1.589671e+01	5.599717e+01
2.360000e-06	2.332983e-06	8.309749e-10	1.619654e+01	5.703504e+01
2.370000e-06	2.375962e-06	8.431307e-10	1.649492e+01	5.805021e+01
2.380000e-06	2.418667e-06	8.566415e-10	1.679139e+01	5.904296e+01
2.390000e-06	2.460953e-06	8.725997e-10	1.708496e+01	6.001358e+01
2.400000e-06	2.502923e-06	8.880792e-10	1.737633e+01	6.096243e+01
2.410000e-06	2.544722e-06	9.016479e-10	1.766652e+01	6.188987e+01
2.420000e-06	2.586228e-06	9.126068e-10	1.795467e+01	6.279628e+01
2.430000e-06	2.627321e-06	9.205818e-10	1.823996e+01	6.368208e+01
2.440000e-06	2.668012e-06	9.281252e-10	1.852245e+01	6.454770e+01
2.450000e-06	2.708397e-06	9.359043e-10	1.880282e+01	6.539357e+01
2.460000e-06	2.748562e-06	9.442586e-10	1.908166e+01	6.622015e+01
2.470000e-06	2.788561e-06	9.552895e-10	1.935935e+01	6.702790e+01
2.480000e-06	2.828400e-06	9.676563e-10	1.963593e+01	6.781728e+01
2.490000e-06	2.868137e-06	9.786194e-10	1.991180e+01	6.858875e+01
2.500000e-06	2.907833e-06	9.884174e-10	2.018738e+01	6.934280e+01
2.510000e-06	2.947390e-06	9.974263e-10	2.046201e+01	7.007987e+01
2.520000e-06	2.986798e-06	1.004333e-09	2.073559e+01	7.080043e+01
2.530000e-06	3.026049e-06	1.010393e-09	2.100809e+01	7.150493e+01
2.540000e-06	3.065173e-06	1.018165e-09	2.127970e+01	7.219382e+01
2.550000e-06	3.104072e-06	1.029479e-09	2.154976e+01	7.286754e+01
2.560000e-06	3.142631e-06	1.039527e-09	2.181745e+01	7.352650e+01
2.570000e-06	3.180911e-06	1.048389e-09	2.208320e+01	7.417112e+01
2.580000e-06	3.218934e-06	1.058787e-09	2.234717e+01	7.480179e+01
2.590000e-06	3.256710e-06	1.069389e-09	2.260943e+01	7.541890e+01
2.600000e-06	3.294386e-06	1.077051e-09	2.287099e+01	7.602281e+01
2.610000e-06	3.331969e-06	1.082211e-09	2.313191e+01	7.661389e+01
2.620000e-06	3.369286e-06	1.087033e-09	2.339098e+01	7.719245e+01
2.630000e-06	3.406364e-06	1.093266e-09	2.364839e+01	7.775884e+01
2.640000e-06	3.443107e-06	1.100892e-09	2.390348e+01	7.831335e+01
2.650000e-06	3.479457e-06	1.111016e-09	2.415584e+01	7.885627e+01
2.660000e-06	3.515592e-06	1.124521e-09	2.440670e+01	7.938788e+01
2.670000e-06	3.551547e-06	1.135506e-09	2.465632e+01	7.990844e+01
2.680000e-06	3.587323e-06	1.141953e-09	2.490468e+01	8.041820e+01
2.690000e-06	3.623016e-06	1.143994e-09	2.515248e+01	8.091739e+01
2.700000e-06	3.658657e-06	1.144360e-09	2.539991e+01	8.140623e+01
2.710000e-06	3.694177e-06	1.148813e-09	2.564651e+01	8.188494e+01
2.720000e-06	3.729462e-06	1.158150e-09	2.589147e+01	8.235371e+01
2.730000e-06	3.764525e-06	1.168963e-09	2.613490e+01	8.281274e+01
2.740000e-06	3.799298e-06	1.178989e-09	2.637630e+01	8.326220e+01
2.750000e-06	3.833553e-06	1.185826e-09	2.661411e+01	8.370227e+01
2.760000e-06	3.867283e-06	1.189769e-09	2.684829e+01	8.413312e+01
2.770000e-06	3.900441e-06	1.192112e-09	2.707848e+01	8.455490e+01
2.780000e-06	3.933094e-06	1.194277e-09	2.730517e+01	8.496778e+01
2.790000e-06	3.965346e-06	1.198699e-09	2.752908e+01	8.537190e+01
2.800000e-06	3.997303e-06	1.204796e-09	2.775093e+01	8.576742e+01
2.810000e-06	4.029076e-06	1.212350e-09	2.797152e+01	8.615447e+01
2.820000e-06	4.060710e-06	1.220328e-09	2.819113e+01	8.653321e+01
2.830000e-06	4.092289e-06	1.226776e-09	2.841037e+01	8.690377e+01
2.840000e-06	4.123717e-06	1.232844e-09	2.862855e+01	8.726630e+01
2.850000e-06	4.154939e-06	1.237736e-09	2.884531e+01	8.762094e+01
2.860000e-06	4.185935e-06	1.241699e-09	2.906050e+01	8.796784e+01
2.870000e-06	4.216551e-06	1.246502e-09	2.927305e+01	8.830712e+01
2.880000e-06	4.246722e-06	1.251344e-09	2.948250e+01	8.863894e+01
2.890000e-06	4.276573e-06	1.254491e-09	2.968975e+01	8.896343e+01
2.900000e-06	4.306145e-06	1.257221e-09	2.989504e+01	8.928075e+01
