# Temperatura_=_4.03
# Concentracion g/m^3_=_1620.0
# C_Vs_to_Am_M_A/Vsm_=_65563218390.804596
# pendiente_HvsI_1/m_=_3716.3
# ordenada_HvsI_A/m_=_1297.0
# frecuencia_Hz_=_135106.71417395584

Tiempo_(s)	Campo_(V.s)	Magnetizacion_(V.s)	Campo_(kA/m)	Magnetizacion_(A/m)
0.000000e+00	-5.516190e-06	-1.401671e-09	-3.836456e+01	-9.088362e+01
1.000000e-08	-5.516235e-06	-1.397097e-09	-3.836487e+01	-9.085802e+01
2.000000e-08	-5.516051e-06	-1.394858e-09	-3.836359e+01	-9.082885e+01
3.000000e-08	-5.515488e-06	-1.395524e-09	-3.835968e+01	-9.079604e+01
4.000000e-08	-5.514382e-06	-1.396023e-09	-3.835199e+01	-9.075948e+01
5.000000e-08	-5.512727e-06	-1.394731e-09	-3.834048e+01	-9.071909e+01
6.000000e-08	-5.510513e-06	-1.384559e-09	-3.832508e+01	-9.067479e+01
7.000000e-08	-5.507737e-06	-1.387205e-09	-3.830577e+01	-9.062649e+01
8.000000e-08	-5.504474e-06	-1.422327e-09	-3.828308e+01	-9.057411e+01
9.000000e-08	-5.500711e-06	-1.440774e-09	-3.825691e+01	-9.051759e+01
1.000000e-07	-5.496484e-06	-1.397074e-09	-3.822751e+01	-9.045686e+01
1.100000e-07	-5.492024e-06	-1.381017e-09	-3.819649e+01	-9.039186e+01
1.200000e-07	-5.487470e-06	-1.392651e-09	-3.816482e+01	-9.032255e+01
1.300000e-07	-5.482538e-06	-1.418744e-09	-3.813051e+01	-9.024889e+01
1.400000e-07	-5.477070e-06	-1.386712e-09	-3.809248e+01	-9.017085e+01
1.500000e-07	-5.471292e-06	-1.376172e-09	-3.805230e+01	-9.008840e+01
1.600000e-07	-5.465261e-06	-1.410677e-09	-3.801035e+01	-9.000154e+01
1.700000e-07	-5.458766e-06	-1.412455e-09	-3.796518e+01	-8.991028e+01
1.800000e-07	-5.451838e-06	-1.383216e-09	-3.791700e+01	-8.981461e+01
1.900000e-07	-5.444549e-06	-1.356869e-09	-3.786631e+01	-8.971456e+01
2.000000e-07	-5.436954e-06	-1.387534e-09	-3.781348e+01	-8.961016e+01
2.100000e-07	-5.429118e-06	-1.410640e-09	-3.775898e+01	-8.950146e+01
2.200000e-07	-5.421014e-06	-1.407971e-09	-3.770262e+01	-8.938849e+01
2.300000e-07	-5.412613e-06	-1.376715e-09	-3.764419e+01	-8.927133e+01
2.400000e-07	-5.403692e-06	-1.381539e-09	-3.758215e+01	-8.915002e+01
2.500000e-07	-5.393977e-06	-1.381364e-09	-3.751458e+01	-8.902466e+01
2.600000e-07	-5.383525e-06	-1.378229e-09	-3.744189e+01	-8.889531e+01
2.700000e-07	-5.372603e-06	-1.359744e-09	-3.736592e+01	-8.876206e+01
2.800000e-07	-5.361289e-06	-1.368931e-09	-3.728724e+01	-8.862499e+01
2.900000e-07	-5.349559e-06	-1.373276e-09	-3.720566e+01	-8.848420e+01
3.000000e-07	-5.337502e-06	-1.362208e-09	-3.712180e+01	-8.833977e+01
3.100000e-07	-5.325085e-06	-1.339366e-09	-3.703544e+01	-8.819181e+01
3.200000e-07	-5.312176e-06	-1.346940e-09	-3.694566e+01	-8.804040e+01
3.300000e-07	-5.298868e-06	-1.358081e-09	-3.685311e+01	-8.788563e+01
3.400000e-07	-5.285222e-06	-1.330290e-09	-3.675820e+01	-8.772759e+01
3.500000e-07	-5.271103e-06	-1.315801e-09	-3.666001e+01	-8.756637e+01
3.600000e-07	-5.256459e-06	-1.346659e-09	-3.655816e+01	-8.740203e+01
3.700000e-07	-5.241331e-06	-1.349580e-09	-3.645294e+01	-8.723465e+01
3.800000e-07	-5.225770e-06	-1.311126e-09	-3.634471e+01	-8.706430e+01
3.900000e-07	-5.209724e-06	-1.325103e-09	-3.623312e+01	-8.689103e+01
4.000000e-07	-5.193171e-06	-1.345262e-09	-3.611800e+01	-8.671488e+01
4.100000e-07	-5.176257e-06	-1.307427e-09	-3.600036e+01	-8.653590e+01
4.200000e-07	-5.159008e-06	-1.292122e-09	-3.588039e+01	-8.635411e+01
4.300000e-07	-5.141473e-06	-1.337037e-09	-3.575844e+01	-8.616953e+01
4.400000e-07	-5.123667e-06	-1.313340e-09	-3.563460e+01	-8.598215e+01
4.500000e-07	-5.105423e-06	-1.273411e-09	-3.550772e+01	-8.579199e+01
4.600000e-07	-5.086685e-06	-1.305712e-09	-3.537740e+01	-8.559901e+01
4.700000e-07	-5.067544e-06	-1.323435e-09	-3.524427e+01	-8.540319e+01
4.800000e-07	-5.048160e-06	-1.278244e-09	-3.510946e+01	-8.520449e+01
4.900000e-07	-5.028567e-06	-1.297860e-09	-3.497319e+01	-8.500287e+01
5.000000e-07	-5.008770e-06	-1.322267e-09	-3.483550e+01	-8.479825e+01
5.100000e-07	-4.988772e-06	-1.273603e-09	-3.469642e+01	-8.459057e+01
5.200000e-07	-4.968399e-06	-1.258554e-09	-3.455473e+01	-8.437975e+01
5.300000e-07	-4.947658e-06	-1.303862e-09	-3.441047e+01	-8.416571e+01
5.400000e-07	-4.926538e-06	-1.273696e-09	-3.426359e+01	-8.394835e+01
5.500000e-07	-4.905023e-06	-1.238638e-09	-3.411396e+01	-8.372756e+01
5.600000e-07	-4.883202e-06	-1.278284e-09	-3.396219e+01	-8.350325e+01
5.700000e-07	-4.861040e-06	-1.285280e-09	-3.380805e+01	-8.327531e+01
5.800000e-07	-4.838459e-06	-1.242861e-09	-3.365101e+01	-8.304362e+01
5.900000e-07	-4.815499e-06	-1.259082e-09	-3.349132e+01	-8.280807e+01
6.000000e-07	-4.792288e-06	-1.273295e-09	-3.332989e+01	-8.256855e+01
6.100000e-07	-4.768893e-06	-1.235846e-09	-3.316718e+01	-8.232494e+01
6.200000e-07	-4.745298e-06	-1.232142e-09	-3.300308e+01	-8.207713e+01
6.300000e-07	-4.721458e-06	-1.251971e-09	-3.283728e+01	-8.182502e+01
6.400000e-07	-4.697367e-06	-1.227455e-09	-3.266972e+01	-8.156849e+01
6.500000e-07	-4.672908e-06	-1.212132e-09	-3.249962e+01	-8.130746e+01
6.600000e-07	-4.647925e-06	-1.229292e-09	-3.232586e+01	-8.104184e+01
6.700000e-07	-4.622442e-06	-1.217653e-09	-3.214863e+01	-8.077153e+01
6.800000e-07	-4.596408e-06	-1.201756e-09	-3.196756e+01	-8.049646e+01
6.900000e-07	-4.569812e-06	-1.212670e-09	-3.178260e+01	-8.021657e+01
7.000000e-07	-4.542772e-06	-1.209898e-09	-3.159454e+01	-7.993179e+01
7.100000e-07	-4.515377e-06	-1.187739e-09	-3.140400e+01	-7.964208e+01
7.200000e-07	-4.487800e-06	-1.188573e-09	-3.121221e+01	-7.934741e+01
7.300000e-07	-4.460085e-06	-1.188093e-09	-3.101945e+01	-7.904775e+01
7.400000e-07	-4.432177e-06	-1.171011e-09	-3.082536e+01	-7.874307e+01
7.500000e-07	-4.403985e-06	-1.164908e-09	-3.062928e+01	-7.843338e+01
7.600000e-07	-4.375458e-06	-1.173407e-09	-3.043088e+01	-7.811868e+01
7.700000e-07	-4.346651e-06	-1.164688e-09	-3.023053e+01	-7.779899e+01
7.800000e-07	-4.317548e-06	-1.159258e-09	-3.002812e+01	-7.747433e+01
7.900000e-07	-4.288151e-06	-1.162324e-09	-2.982367e+01	-7.714474e+01
8.000000e-07	-4.258478e-06	-1.151969e-09	-2.961730e+01	-7.681025e+01
8.100000e-07	-4.228509e-06	-1.132014e-09	-2.940886e+01	-7.647092e+01
8.200000e-07	-4.198239e-06	-1.130185e-09	-2.919834e+01	-7.612681e+01
8.300000e-07	-4.167670e-06	-1.124582e-09	-2.898574e+01	-7.577798e+01
8.400000e-07	-4.136794e-06	-1.110893e-09	-2.877099e+01	-7.542450e+01
8.500000e-07	-4.105619e-06	-1.108426e-09	-2.855418e+01	-7.506643e+01
8.600000e-07	-4.074217e-06	-1.111640e-09	-2.833578e+01	-7.470387e+01
8.700000e-07	-4.042662e-06	-1.102245e-09	-2.811632e+01	-7.433687e+01
8.800000e-07	-4.010946e-06	-1.098027e-09	-2.789573e+01	-7.396553e+01
8.900000e-07	-3.979076e-06	-1.101311e-09	-2.767408e+01	-7.358991e+01
9.000000e-07	-3.946972e-06	-1.087827e-09	-2.745080e+01	-7.321010e+01
9.100000e-07	-3.914508e-06	-1.070848e-09	-2.722502e+01	-7.282615e+01
9.200000e-07	-3.881664e-06	-1.065907e-09	-2.699659e+01	-7.243815e+01
9.300000e-07	-3.848461e-06	-1.058103e-09	-2.676567e+01	-7.204616e+01
9.400000e-07	-3.814687e-06	-1.046584e-09	-2.653077e+01	-7.165023e+01
9.500000e-07	-3.780363e-06	-1.047186e-09	-2.629206e+01	-7.125042e+01
9.600000e-07	-3.745747e-06	-1.047478e-09	-2.605130e+01	-7.084677e+01
9.700000e-07	-3.710781e-06	-1.037902e-09	-2.580811e+01	-7.043932e+01
9.800000e-07	-3.675440e-06	-1.032450e-09	-2.556232e+01	-7.002810e+01
9.900000e-07	-3.639827e-06	-1.032208e-09	-2.531464e+01	-6.961312e+01
1.000000e-06	-3.604108e-06	-1.020686e-09	-2.506622e+01	-6.919439e+01
1.010000e-06	-3.568332e-06	-1.009077e-09	-2.481740e+01	-6.877193e+01
1.020000e-06	-3.532444e-06	-1.004303e-09	-2.456780e+01	-6.834572e+01
1.030000e-06	-3.496362e-06	-9.967558e-10	-2.431685e+01	-6.791574e+01
1.040000e-06	-3.460045e-06	-9.884246e-10	-2.406427e+01	-6.748198e+01
1.050000e-06	-3.423482e-06	-9.869117e-10	-2.380998e+01	-6.704439e+01
1.060000e-06	-3.386654e-06	-9.812314e-10	-2.355384e+01	-6.660293e+01
1.070000e-06	-3.349516e-06	-9.700476e-10	-2.329555e+01	-6.615756e+01
1.080000e-06	-3.312112e-06	-9.639037e-10	-2.303541e+01	-6.570821e+01
1.090000e-06	-3.274520e-06	-9.593737e-10	-2.277396e+01	-6.525483e+01
1.100000e-06	-3.236723e-06	-9.473940e-10	-2.251109e+01	-6.479734e+01
1.110000e-06	-3.198652e-06	-9.364724e-10	-2.224631e+01	-6.433567e+01
1.120000e-06	-3.160310e-06	-9.299920e-10	-2.197965e+01	-6.386975e+01
1.130000e-06	-3.121783e-06	-9.214802e-10	-2.171169e+01	-6.339948e+01
1.140000e-06	-3.083085e-06	-9.113061e-10	-2.144256e+01	-6.292479e+01
1.150000e-06	-3.044153e-06	-9.063283e-10	-2.117179e+01	-6.244559e+01
1.160000e-06	-3.005019e-06	-9.009422e-10	-2.089961e+01	-6.196179e+01
1.170000e-06	-2.965751e-06	-8.921917e-10	-2.062650e+01	-6.147330e+01
1.180000e-06	-2.926334e-06	-8.852357e-10	-2.035236e+01	-6.098005e+01
1.190000e-06	-2.886759e-06	-8.787506e-10	-2.007712e+01	-6.048193e+01
1.200000e-06	-2.846972e-06	-8.675705e-10	-1.980041e+01	-5.997887e+01
1.210000e-06	-2.807078e-06	-8.554113e-10	-1.952295e+01	-5.947078e+01
1.220000e-06	-2.767122e-06	-8.453782e-10	-1.924506e+01	-5.895758e+01
1.230000e-06	-2.726993e-06	-8.312049e-10	-1.896597e+01	-5.843919e+01
1.240000e-06	-2.686686e-06	-8.201260e-10	-1.868564e+01	-5.791553e+01
1.250000e-06	-2.646115e-06	-8.163385e-10	-1.840347e+01	-5.738653e+01
1.260000e-06	-2.605295e-06	-8.122009e-10	-1.811957e+01	-5.685212e+01
1.270000e-06	-2.564293e-06	-8.047176e-10	-1.783441e+01	-5.631221e+01
1.280000e-06	-2.523041e-06	-7.986272e-10	-1.754750e+01	-5.576674e+01
1.290000e-06	-2.481453e-06	-7.912099e-10	-1.725826e+01	-5.521564e+01
1.300000e-06	-2.439481e-06	-7.794550e-10	-1.696635e+01	-5.465882e+01
1.310000e-06	-2.397129e-06	-7.673397e-10	-1.667180e+01	-5.409623e+01
1.320000e-06	-2.354430e-06	-7.581479e-10	-1.637483e+01	-5.352777e+01
1.330000e-06	-2.311508e-06	-7.491316e-10	-1.607631e+01	-5.295337e+01
1.340000e-06	-2.268381e-06	-7.413708e-10	-1.577637e+01	-5.237294e+01
1.350000e-06	-2.225066e-06	-7.348317e-10	-1.547511e+01	-5.178638e+01
1.360000e-06	-2.181665e-06	-7.257598e-10	-1.517327e+01	-5.119360e+01
1.370000e-06	-2.138201e-06	-7.131558e-10	-1.487098e+01	-5.059447e+01
1.380000e-06	-2.094587e-06	-6.989845e-10	-1.456765e+01	-4.998888e+01
1.390000e-06	-2.050823e-06	-6.872815e-10	-1.426327e+01	-4.937669e+01
1.400000e-06	-2.007031e-06	-6.787459e-10	-1.395870e+01	-4.875775e+01
1.410000e-06	-1.963225e-06	-6.706382e-10	-1.365404e+01	-4.813190e+01
1.420000e-06	-1.919290e-06	-6.612270e-10	-1.334847e+01	-4.749895e+01
1.430000e-06	-1.875187e-06	-6.496044e-10	-1.304174e+01	-4.685870e+01
1.440000e-06	-1.831067e-06	-6.369599e-10	-1.273489e+01	-4.621093e+01
1.450000e-06	-1.786908e-06	-6.239960e-10	-1.242777e+01	-4.555541e+01
1.460000e-06	-1.742596e-06	-6.121371e-10	-1.211959e+01	-4.489188e+01
1.470000e-06	-1.698073e-06	-6.017633e-10	-1.180993e+01	-4.422005e+01
1.480000e-06	-1.653398e-06	-5.931316e-10	-1.149922e+01	-4.353963e+01
1.490000e-06	-1.608662e-06	-5.854830e-10	-1.118809e+01	-4.285028e+01
1.500000e-06	-1.563772e-06	-5.772362e-10	-1.087588e+01	-4.215167e+01
1.510000e-06	-1.518675e-06	-5.665398e-10	-1.056224e+01	-4.144343e+01
1.520000e-06	-1.473492e-06	-5.513635e-10	-1.024799e+01	-4.072516e+01
1.530000e-06	-1.428259e-06	-5.343172e-10	-9.933404e+00	-3.999647e+01
1.540000e-06	-1.382920e-06	-5.202059e-10	-9.618071e+00	-3.925692e+01
1.550000e-06	-1.337471e-06	-5.101075e-10	-9.301982e+00	-3.850608e+01
1.560000e-06	-1.291928e-06	-5.034532e-10	-8.985229e+00	-3.774349e+01
1.570000e-06	-1.246340e-06	-4.977289e-10	-8.668175e+00	-3.696867e+01
1.580000e-06	-1.200713e-06	-4.876011e-10	-8.350839e+00	-3.618115e+01
1.590000e-06	-1.154967e-06	-4.744808e-10	-8.032684e+00	-3.538044e+01
1.600000e-06	-1.109109e-06	-4.610012e-10	-7.713744e+00	-3.456604e+01
1.610000e-06	-1.063237e-06	-4.460870e-10	-7.394707e+00	-3.373747e+01
1.620000e-06	-1.017283e-06	-4.289008e-10	-7.075105e+00	-3.289422e+01
1.630000e-06	-9.711688e-07	-4.121607e-10	-6.754384e+00	-3.203582e+01
1.640000e-06	-9.249578e-07	-3.969665e-10	-6.432990e+00	-3.116178e+01
1.650000e-06	-8.787268e-07	-3.821269e-10	-6.111458e+00	-3.027163e+01
1.660000e-06	-8.324352e-07	-3.688181e-10	-5.789505e+00	-2.936494e+01
1.670000e-06	-7.860095e-07	-3.577559e-10	-5.466619e+00	-2.844127e+01
1.680000e-06	-7.395790e-07	-3.465137e-10	-5.143699e+00	-2.750023e+01
1.690000e-06	-6.931211e-07	-3.336335e-10	-4.820589e+00	-2.654144e+01
1.700000e-06	-6.465845e-07	-3.179526e-10	-4.496932e+00	-2.556458e+01
1.710000e-06	-5.999494e-07	-3.001428e-10	-4.172589e+00	-2.456934e+01
1.720000e-06	-5.532820e-07	-2.820788e-10	-3.848022e+00	-2.355548e+01
1.730000e-06	-5.066188e-07	-2.635255e-10	-3.523484e+00	-2.252279e+01
1.740000e-06	-4.599270e-07	-2.451062e-10	-3.198747e+00	-2.147111e+01
1.750000e-06	-4.131610e-07	-2.294981e-10	-2.873494e+00	-2.040034e+01
1.760000e-06	-3.663385e-07	-2.153263e-10	-2.547848e+00	-1.931044e+01
1.770000e-06	-3.194732e-07	-2.000997e-10	-2.221905e+00	-1.820144e+01
1.780000e-06	-2.725919e-07	-1.848499e-10	-1.895850e+00	-1.707340e+01
1.790000e-06	-2.257438e-07	-1.706174e-10	-1.570026e+00	-1.592649e+01
1.800000e-06	-1.788389e-07	-1.555273e-10	-1.243807e+00	-1.476091e+01
1.810000e-06	-1.319941e-07	-1.378627e-10	-9.180063e-01	-1.357696e+01
1.820000e-06	-8.514925e-08	-1.170137e-10	-5.922047e-01	-1.237499e+01
1.830000e-06	-3.821024e-08	-9.391878e-11	-2.657485e-01	-1.115543e+01
1.840000e-06	8.666686e-09	-7.230361e-11	6.027595e-02	-9.918793e+00
1.850000e-06	5.547869e-08	-5.362448e-11	3.858489e-01	-8.665648e+00
1.860000e-06	1.023071e-07	-3.517557e-11	7.115358e-01	-7.396643e+00
1.870000e-06	1.492073e-07	-1.714483e-11	1.037722e+00	-6.112496e+00
1.880000e-06	1.961466e-07	-3.291105e-12	1.364180e+00	-4.813993e+00
1.890000e-06	2.429669e-07	8.033549e-12	1.689811e+00	-3.501988e+00
1.900000e-06	2.896348e-07	2.225828e-11	2.014381e+00	-2.177398e+00
1.910000e-06	3.362958e-07	4.115265e-11	2.338904e+00	-8.412020e-01
1.920000e-06	3.829978e-07	6.396132e-11	2.663712e+00	5.055636e-01
1.930000e-06	4.296462e-07	8.955464e-11	2.988147e+00	1.861809e+00
1.940000e-06	4.762827e-07	1.143022e-10	3.312499e+00	3.226394e+00
1.950000e-06	5.229764e-07	1.355526e-10	3.637250e+00	4.598136e+00
1.960000e-06	5.696201e-07	1.524971e-10	3.961652e+00	5.975812e+00
1.970000e-06	6.160656e-07	1.671409e-10	4.284676e+00	7.358163e+00
1.980000e-06	6.623879e-07	1.812790e-10	4.606843e+00	8.743905e+00
1.990000e-06	7.087127e-07	1.959515e-10	4.929027e+00	1.013173e+01
2.000000e-06	7.550071e-07	2.170650e-10	5.251000e+00	1.152031e+01
2.010000e-06	8.012872e-07	2.411106e-10	5.572874e+00	1.290831e+01
2.020000e-06	8.475680e-07	2.650393e-10	5.894752e+00	1.429440e+01
2.030000e-06	8.937536e-07	2.905165e-10	6.215968e+00	1.567724e+01
2.040000e-06	9.398650e-07	3.126670e-10	6.536669e+00	1.705551e+01
2.050000e-06	9.859430e-07	3.299912e-10	6.857137e+00	1.842788e+01
2.060000e-06	1.031958e-06	3.434848e-10	7.177167e+00	1.979308e+01
2.070000e-06	1.077931e-06	3.562811e-10	7.496901e+00	2.114984e+01
2.080000e-06	1.123835e-06	3.718895e-10	7.816159e+00	2.249693e+01
2.090000e-06	1.169618e-06	3.927422e-10	8.134577e+00	2.383317e+01
2.100000e-06	1.215298e-06	4.153858e-10	8.452279e+00	2.515740e+01
2.110000e-06	1.260876e-06	4.375255e-10	8.769267e+00	2.646855e+01
2.120000e-06	1.306341e-06	4.569235e-10	9.085474e+00	2.776557e+01
2.130000e-06	1.351650e-06	4.736523e-10	9.400593e+00	2.904748e+01
2.140000e-06	1.396850e-06	4.880396e-10	9.714952e+00	3.031336e+01
2.150000e-06	1.441999e-06	5.005589e-10	1.002896e+01	3.156236e+01
2.160000e-06	1.487123e-06	5.148471e-10	1.034279e+01	3.279371e+01
2.170000e-06	1.532182e-06	5.318086e-10	1.065617e+01	3.400669e+01
2.180000e-06	1.577062e-06	5.502178e-10	1.096831e+01	3.520068e+01
2.190000e-06	1.621801e-06	5.684784e-10	1.127946e+01	3.637510e+01
2.200000e-06	1.666354e-06	5.854770e-10	1.158933e+01	3.752949e+01
2.210000e-06	1.710766e-06	5.990053e-10	1.189821e+01	3.866344e+01
2.220000e-06	1.755152e-06	6.093267e-10	1.220691e+01	3.977661e+01
2.230000e-06	1.799401e-06	6.216673e-10	1.251466e+01	4.086876e+01
2.240000e-06	1.843511e-06	6.376930e-10	1.282144e+01	4.193972e+01
2.250000e-06	1.887528e-06	6.552538e-10	1.312757e+01	4.298937e+01
2.260000e-06	1.931469e-06	6.727698e-10	1.343318e+01	4.401770e+01
2.270000e-06	1.975367e-06	6.873706e-10	1.373848e+01	4.502473e+01
2.280000e-06	2.019217e-06	6.985314e-10	1.404346e+01	4.601059e+01
2.290000e-06	2.063030e-06	7.078150e-10	1.434817e+01	4.697543e+01
2.300000e-06	2.106774e-06	7.157421e-10	1.465241e+01	4.791949e+01
2.310000e-06	2.150430e-06	7.246928e-10	1.495603e+01	4.884305e+01
2.320000e-06	2.193965e-06	7.389533e-10	1.525881e+01	4.974645e+01
2.330000e-06	2.237389e-06	7.567143e-10	1.556082e+01	5.063007e+01
2.340000e-06	2.280594e-06	7.739503e-10	1.586131e+01	5.149433e+01
2.350000e-06	2.323503e-06	7.878869e-10	1.615973e+01	5.233971e+01
2.360000e-06	2.366209e-06	7.990825e-10	1.645675e+01	5.316670e+01
2.370000e-06	2.408622e-06	8.079086e-10	1.675173e+01	5.397582e+01
2.380000e-06	2.450658e-06	8.157406e-10	1.704409e+01	5.476762e+01
2.390000e-06	2.492471e-06	8.240781e-10	1.733489e+01	5.554267e+01
2.400000e-06	2.534017e-06	8.333495e-10	1.762384e+01	5.630154e+01
2.410000e-06	2.575170e-06	8.450280e-10	1.791005e+01	5.704483e+01
2.420000e-06	2.616041e-06	8.590239e-10	1.819431e+01	5.777311e+01
2.430000e-06	2.656677e-06	8.730896e-10	1.847693e+01	5.848698e+01
2.440000e-06	2.697086e-06	8.846224e-10	1.875797e+01	5.918703e+01
2.450000e-06	2.737310e-06	8.945565e-10	1.903772e+01	5.987382e+01
2.460000e-06	2.777397e-06	9.040030e-10	1.931652e+01	6.054792e+01
2.470000e-06	2.817305e-06	9.112599e-10	1.959408e+01	6.120987e+01
2.480000e-06	2.857043e-06	9.168171e-10	1.987045e+01	6.186021e+01
2.490000e-06	2.896730e-06	9.229570e-10	2.014647e+01	6.249942e+01
2.500000e-06	2.936353e-06	9.313441e-10	2.042204e+01	6.312799e+01
2.510000e-06	2.975775e-06	9.414136e-10	2.069622e+01	6.374637e+01
2.520000e-06	3.014941e-06	9.532552e-10	2.096862e+01	6.435498e+01
2.530000e-06	3.053852e-06	9.667767e-10	2.123924e+01	6.495421e+01
2.540000e-06	3.092518e-06	9.786191e-10	2.150816e+01	6.554441e+01
2.550000e-06	3.130965e-06	9.869373e-10	2.177555e+01	6.612592e+01
2.560000e-06	3.169196e-06	9.933741e-10	2.204145e+01	6.669903e+01
2.570000e-06	3.207211e-06	9.991784e-10	2.230584e+01	6.726400e+01
2.580000e-06	3.245087e-06	1.005843e-09	2.256926e+01	6.782107e+01
2.590000e-06	3.282794e-06	1.013858e-09	2.283151e+01	6.837042e+01
2.600000e-06	3.320249e-06	1.021356e-09	2.309200e+01	6.891223e+01
2.610000e-06	3.357480e-06	1.028650e-09	2.335094e+01	6.944663e+01
2.620000e-06	3.394465e-06	1.038841e-09	2.360817e+01	6.997374e+01
2.630000e-06	3.431183e-06	1.049800e-09	2.386354e+01	7.049364e+01
2.640000e-06	3.467602e-06	1.057892e-09	2.411683e+01	7.100639e+01
2.650000e-06	3.503770e-06	1.067351e-09	2.436838e+01	7.151202e+01
2.660000e-06	3.539788e-06	1.076752e-09	2.461888e+01	7.201055e+01
2.670000e-06	3.575683e-06	1.082154e-09	2.486853e+01	7.250199e+01
2.680000e-06	3.611453e-06	1.086084e-09	2.511730e+01	7.298630e+01
2.690000e-06	3.647102e-06	1.088959e-09	2.536524e+01	7.346348e+01
2.700000e-06	3.682597e-06	1.092383e-09	2.561210e+01	7.393346e+01
2.710000e-06	3.717906e-06	1.098422e-09	2.585767e+01	7.439620e+01
2.720000e-06	3.752875e-06	1.106790e-09	2.610088e+01	7.485166e+01
2.730000e-06	3.787385e-06	1.116370e-09	2.634089e+01	7.529975e+01
2.740000e-06	3.821493e-06	1.123724e-09	2.657811e+01	7.574044e+01
2.750000e-06	3.855161e-06	1.128522e-09	2.681226e+01	7.617364e+01
2.760000e-06	3.888289e-06	1.132765e-09	2.704267e+01	7.659931e+01
2.770000e-06	3.920970e-06	1.135420e-09	2.726996e+01	7.701740e+01
2.780000e-06	3.953338e-06	1.138465e-09	2.749508e+01	7.742784e+01
2.790000e-06	3.985445e-06	1.142633e-09	2.771838e+01	7.783060e+01
2.800000e-06	4.017375e-06	1.145571e-09	2.794045e+01	7.822564e+01
2.810000e-06	4.049175e-06	1.149827e-09	2.816162e+01	7.861295e+01
2.820000e-06	4.080819e-06	1.154786e-09	2.838169e+01	7.899250e+01
2.830000e-06	4.112296e-06	1.161413e-09	2.860061e+01	7.936431e+01
2.840000e-06	4.143588e-06	1.168113e-09	2.881825e+01	7.972837e+01
2.850000e-06	4.174525e-06	1.174342e-09	2.903341e+01	8.008470e+01
2.860000e-06	4.205053e-06	1.181668e-09	2.924573e+01	8.043336e+01
2.870000e-06	4.235273e-06	1.185979e-09	2.945591e+01	8.077436e+01
2.880000e-06	4.265183e-06	1.186869e-09	2.966393e+01	8.110779e+01
2.890000e-06	4.294809e-06	1.184215e-09	2.986997e+01	8.143370e+01
2.900000e-06	4.324242e-06	1.181818e-09	3.007468e+01	8.175218e+01
2.910000e-06	4.353377e-06	1.184481e-09	3.027731e+01	8.206332e+01
