# Temperatura_=_7.5
# Concentracion g/m^3_=_1620.0
# C_Vs_to_Am_M_A/Vsm_=_65563218390.804596
# pendiente_HvsI_1/m_=_3716.3
# ordenada_HvsI_A/m_=_1297.0
# frecuencia_Hz_=_135108.7522555892

Tiempo_(s)	Campo_(V.s)	Magnetizacion_(V.s)	Campo_(kA/m)	Magnetizacion_(A/m)
0.000000e+00	-5.515763e-06	-1.276251e-09	-3.836834e+01	-8.181564e+01
1.000000e-08	-5.516041e-06	-1.273306e-09	-3.837027e+01	-8.183192e+01
2.000000e-08	-5.516111e-06	-1.271626e-09	-3.837076e+01	-8.184771e+01
3.000000e-08	-5.515907e-06	-1.272744e-09	-3.836934e+01	-8.186280e+01
4.000000e-08	-5.515220e-06	-1.274992e-09	-3.836456e+01	-8.187695e+01
5.000000e-08	-5.513950e-06	-1.276948e-09	-3.835573e+01	-8.188992e+01
6.000000e-08	-5.512082e-06	-1.273810e-09	-3.834274e+01	-8.190146e+01
7.000000e-08	-5.509529e-06	-1.263250e-09	-3.832497e+01	-8.191132e+01
8.000000e-08	-5.506462e-06	-1.268214e-09	-3.830364e+01	-8.191922e+01
9.000000e-08	-5.503003e-06	-1.282909e-09	-3.827958e+01	-8.192490e+01
1.000000e-07	-5.499089e-06	-1.291535e-09	-3.825235e+01	-8.192810e+01
1.100000e-07	-5.494744e-06	-1.281520e-09	-3.822213e+01	-8.192854e+01
1.200000e-07	-5.490072e-06	-1.270174e-09	-3.818963e+01	-8.192597e+01
1.300000e-07	-5.485246e-06	-1.233697e-09	-3.815606e+01	-8.192010e+01
1.400000e-07	-5.480283e-06	-1.262004e-09	-3.812154e+01	-8.191070e+01
1.500000e-07	-5.474895e-06	-1.251626e-09	-3.808406e+01	-8.189750e+01
1.600000e-07	-5.469025e-06	-1.272551e-09	-3.804323e+01	-8.188027e+01
1.700000e-07	-5.462804e-06	-1.240117e-09	-3.799995e+01	-8.185876e+01
1.800000e-07	-5.456199e-06	-1.270869e-09	-3.795401e+01	-8.183275e+01
1.900000e-07	-5.449162e-06	-1.283938e-09	-3.790506e+01	-8.180204e+01
2.000000e-07	-5.441761e-06	-1.272562e-09	-3.785357e+01	-8.176642e+01
2.100000e-07	-5.434090e-06	-1.228948e-09	-3.780021e+01	-8.172569e+01
2.200000e-07	-5.426217e-06	-1.235719e-09	-3.774545e+01	-8.167970e+01
2.300000e-07	-5.418126e-06	-1.265818e-09	-3.768917e+01	-8.162828e+01
2.400000e-07	-5.409700e-06	-1.259732e-09	-3.763055e+01	-8.157128e+01
2.500000e-07	-5.400722e-06	-1.239661e-09	-3.756810e+01	-8.150857e+01
2.600000e-07	-5.391022e-06	-1.216317e-09	-3.750063e+01	-8.144005e+01
2.700000e-07	-5.380646e-06	-1.237584e-09	-3.742845e+01	-8.136561e+01
2.800000e-07	-5.369744e-06	-1.209700e-09	-3.735261e+01	-8.128517e+01
2.900000e-07	-5.358361e-06	-1.211277e-09	-3.727344e+01	-8.119867e+01
3.000000e-07	-5.346538e-06	-1.202486e-09	-3.719119e+01	-8.110605e+01
3.100000e-07	-5.334389e-06	-1.228396e-09	-3.710668e+01	-8.100728e+01
3.200000e-07	-5.321825e-06	-1.192628e-09	-3.701928e+01	-8.090234e+01
3.300000e-07	-5.308787e-06	-1.205394e-09	-3.692859e+01	-8.079121e+01
3.400000e-07	-5.295338e-06	-1.195470e-09	-3.683504e+01	-8.067391e+01
3.500000e-07	-5.281559e-06	-1.208435e-09	-3.673919e+01	-8.055046e+01
3.600000e-07	-5.267327e-06	-1.188281e-09	-3.664019e+01	-8.042088e+01
3.700000e-07	-5.252638e-06	-1.206811e-09	-3.653801e+01	-8.028523e+01
3.800000e-07	-5.237570e-06	-1.190616e-09	-3.643320e+01	-8.014357e+01
3.900000e-07	-5.221863e-06	-1.197099e-09	-3.632394e+01	-7.999596e+01
4.000000e-07	-5.205545e-06	-1.185813e-09	-3.621043e+01	-7.984248e+01
4.100000e-07	-5.188884e-06	-1.180256e-09	-3.609453e+01	-7.968322e+01
4.200000e-07	-5.171941e-06	-1.170988e-09	-3.597667e+01	-7.951828e+01
4.300000e-07	-5.154733e-06	-1.182370e-09	-3.585697e+01	-7.934776e+01
4.400000e-07	-5.137205e-06	-1.177316e-09	-3.573504e+01	-7.917179e+01
4.500000e-07	-5.119353e-06	-1.167377e-09	-3.561086e+01	-7.899048e+01
4.600000e-07	-5.101080e-06	-1.182021e-09	-3.548375e+01	-7.880396e+01
4.700000e-07	-5.082233e-06	-1.176874e-09	-3.535265e+01	-7.861236e+01
4.800000e-07	-5.063030e-06	-1.152045e-09	-3.521908e+01	-7.841582e+01
4.900000e-07	-5.043648e-06	-1.150565e-09	-3.508425e+01	-7.821449e+01
5.000000e-07	-5.024056e-06	-1.172194e-09	-3.494797e+01	-7.800851e+01
5.100000e-07	-5.004260e-06	-1.144465e-09	-3.481026e+01	-7.779803e+01
5.200000e-07	-4.984195e-06	-1.137274e-09	-3.467068e+01	-7.758321e+01
5.300000e-07	-4.963763e-06	-1.152618e-09	-3.452856e+01	-7.736420e+01
5.400000e-07	-4.942953e-06	-1.152524e-09	-3.438380e+01	-7.714115e+01
5.500000e-07	-4.921746e-06	-1.126650e-09	-3.423629e+01	-7.691423e+01
5.600000e-07	-4.900214e-06	-1.147688e-09	-3.408650e+01	-7.668358e+01
5.700000e-07	-4.878328e-06	-1.141869e-09	-3.393426e+01	-7.644938e+01
5.800000e-07	-4.856156e-06	-1.122521e-09	-3.378003e+01	-7.621176e+01
5.900000e-07	-4.833689e-06	-1.122111e-09	-3.362375e+01	-7.597088e+01
6.000000e-07	-4.810735e-06	-1.138822e-09	-3.346408e+01	-7.572690e+01
6.100000e-07	-4.787481e-06	-1.113354e-09	-3.330232e+01	-7.547996e+01
6.200000e-07	-4.764087e-06	-1.113139e-09	-3.313959e+01	-7.523021e+01
6.300000e-07	-4.740433e-06	-1.118963e-09	-3.297505e+01	-7.497777e+01
6.400000e-07	-4.716489e-06	-1.113909e-09	-3.280849e+01	-7.472280e+01
6.500000e-07	-4.692315e-06	-1.100281e-09	-3.264033e+01	-7.446540e+01
6.600000e-07	-4.667812e-06	-1.112118e-09	-3.246989e+01	-7.420571e+01
6.700000e-07	-4.642710e-06	-1.105199e-09	-3.229528e+01	-7.394384e+01
6.800000e-07	-4.616978e-06	-1.095747e-09	-3.211628e+01	-7.367989e+01
6.900000e-07	-4.590720e-06	-1.091780e-09	-3.193363e+01	-7.341396e+01
7.000000e-07	-4.564011e-06	-1.089655e-09	-3.174784e+01	-7.314614e+01
7.100000e-07	-4.536908e-06	-1.076399e-09	-3.155930e+01	-7.287650e+01
7.200000e-07	-4.509466e-06	-1.072311e-09	-3.136841e+01	-7.260511e+01
7.300000e-07	-4.481827e-06	-1.071555e-09	-3.117615e+01	-7.233203e+01
7.400000e-07	-4.454052e-06	-1.069757e-09	-3.098295e+01	-7.205729e+01
7.500000e-07	-4.426122e-06	-1.065158e-09	-3.078866e+01	-7.178093e+01
7.600000e-07	-4.397952e-06	-1.061503e-09	-3.059271e+01	-7.150296e+01
7.700000e-07	-4.369441e-06	-1.059616e-09	-3.039438e+01	-7.122340e+01
7.800000e-07	-4.340506e-06	-1.047904e-09	-3.019310e+01	-7.094222e+01
7.900000e-07	-4.311195e-06	-1.039935e-09	-2.998922e+01	-7.065940e+01
8.000000e-07	-4.281638e-06	-1.035422e-09	-2.978361e+01	-7.037492e+01
8.100000e-07	-4.251890e-06	-1.029281e-09	-2.957668e+01	-7.008871e+01
8.200000e-07	-4.221887e-06	-1.012297e-09	-2.936798e+01	-6.980070e+01
8.300000e-07	-4.191537e-06	-1.008897e-09	-2.915686e+01	-6.951083e+01
8.400000e-07	-4.160850e-06	-1.003849e-09	-2.894340e+01	-6.921899e+01
8.500000e-07	-4.129857e-06	-1.000967e-09	-2.872780e+01	-6.892507e+01
8.600000e-07	-4.098571e-06	-9.965752e-10	-2.851017e+01	-6.862896e+01
8.700000e-07	-4.067104e-06	-9.987454e-10	-2.829129e+01	-6.833052e+01
8.800000e-07	-4.035541e-06	-9.897777e-10	-2.807173e+01	-6.802960e+01
8.900000e-07	-4.003816e-06	-9.849365e-10	-2.785105e+01	-6.772606e+01
9.000000e-07	-3.971873e-06	-9.736902e-10	-2.762885e+01	-6.741972e+01
9.100000e-07	-3.939698e-06	-9.617476e-10	-2.740504e+01	-6.711040e+01
9.200000e-07	-3.907170e-06	-9.489973e-10	-2.717877e+01	-6.679793e+01
9.300000e-07	-3.874204e-06	-9.483993e-10	-2.694945e+01	-6.648211e+01
9.400000e-07	-3.840776e-06	-9.464933e-10	-2.671692e+01	-6.616276e+01
9.500000e-07	-3.806840e-06	-9.460601e-10	-2.648086e+01	-6.583966e+01
9.600000e-07	-3.772546e-06	-9.445946e-10	-2.624231e+01	-6.551263e+01
9.700000e-07	-3.737882e-06	-9.422252e-10	-2.600118e+01	-6.518146e+01
9.800000e-07	-3.702721e-06	-9.313828e-10	-2.575660e+01	-6.484595e+01
9.900000e-07	-3.667276e-06	-9.240216e-10	-2.551003e+01	-6.450590e+01
1.000000e-06	-3.631730e-06	-9.183529e-10	-2.526277e+01	-6.416111e+01
1.010000e-06	-3.596060e-06	-9.118469e-10	-2.501465e+01	-6.381141e+01
1.020000e-06	-3.560301e-06	-9.080921e-10	-2.476590e+01	-6.345662e+01
1.030000e-06	-3.524434e-06	-9.075297e-10	-2.451640e+01	-6.309655e+01
1.040000e-06	-3.488339e-06	-9.033619e-10	-2.426533e+01	-6.273106e+01
1.050000e-06	-3.451999e-06	-8.958753e-10	-2.401254e+01	-6.236000e+01
1.060000e-06	-3.415355e-06	-8.910275e-10	-2.375764e+01	-6.198323e+01
1.070000e-06	-3.378420e-06	-8.823086e-10	-2.350072e+01	-6.160063e+01
1.080000e-06	-3.341295e-06	-8.728497e-10	-2.324247e+01	-6.121211e+01
1.090000e-06	-3.303831e-06	-8.668079e-10	-2.298186e+01	-6.081758e+01
1.100000e-06	-3.266039e-06	-8.647992e-10	-2.271898e+01	-6.041697e+01
1.110000e-06	-3.228065e-06	-8.572914e-10	-2.245483e+01	-6.001024e+01
1.120000e-06	-3.189960e-06	-8.526229e-10	-2.218977e+01	-5.959735e+01
1.130000e-06	-3.151724e-06	-8.480430e-10	-2.192379e+01	-5.917829e+01
1.140000e-06	-3.113214e-06	-8.425616e-10	-2.165591e+01	-5.875308e+01
1.150000e-06	-3.074513e-06	-8.337366e-10	-2.138670e+01	-5.832175e+01
1.160000e-06	-3.035667e-06	-8.299365e-10	-2.111648e+01	-5.788433e+01
1.170000e-06	-2.996579e-06	-8.227869e-10	-2.084458e+01	-5.744091e+01
1.180000e-06	-2.957255e-06	-8.151548e-10	-2.057104e+01	-5.699155e+01
1.190000e-06	-2.917768e-06	-8.096151e-10	-2.029636e+01	-5.653636e+01
1.200000e-06	-2.878187e-06	-8.047958e-10	-2.002103e+01	-5.607544e+01
1.210000e-06	-2.838463e-06	-7.937093e-10	-1.974471e+01	-5.560893e+01
1.220000e-06	-2.798547e-06	-7.839974e-10	-1.946704e+01	-5.513696e+01
1.230000e-06	-2.758460e-06	-7.758175e-10	-1.918820e+01	-5.465967e+01
1.240000e-06	-2.718297e-06	-7.681840e-10	-1.890882e+01	-5.417723e+01
1.250000e-06	-2.678025e-06	-7.612909e-10	-1.862868e+01	-5.368977e+01
1.260000e-06	-2.637452e-06	-7.596294e-10	-1.834645e+01	-5.319746e+01
1.270000e-06	-2.596527e-06	-7.555190e-10	-1.806177e+01	-5.270045e+01
1.280000e-06	-2.555442e-06	-7.478554e-10	-1.777598e+01	-5.219890e+01
1.290000e-06	-2.514114e-06	-7.414004e-10	-1.748850e+01	-5.169295e+01
1.300000e-06	-2.472366e-06	-7.328011e-10	-1.719809e+01	-5.118273e+01
1.310000e-06	-2.430338e-06	-7.196870e-10	-1.690574e+01	-5.066836e+01
1.320000e-06	-2.388095e-06	-7.083208e-10	-1.661189e+01	-5.014995e+01
1.330000e-06	-2.345556e-06	-7.007125e-10	-1.631598e+01	-4.962759e+01
1.340000e-06	-2.302615e-06	-6.926141e-10	-1.601728e+01	-4.910134e+01
1.350000e-06	-2.259437e-06	-6.885271e-10	-1.571693e+01	-4.857123e+01
1.360000e-06	-2.216149e-06	-6.872506e-10	-1.541581e+01	-4.803728e+01
1.370000e-06	-2.172643e-06	-6.839368e-10	-1.511318e+01	-4.749946e+01
1.380000e-06	-2.129014e-06	-6.759671e-10	-1.480969e+01	-4.695773e+01
1.390000e-06	-2.085346e-06	-6.648318e-10	-1.450593e+01	-4.641199e+01
1.400000e-06	-2.041580e-06	-6.505065e-10	-1.420149e+01	-4.586213e+01
1.410000e-06	-1.997739e-06	-6.367469e-10	-1.389653e+01	-4.530798e+01
1.420000e-06	-1.953918e-06	-6.253529e-10	-1.359170e+01	-4.474933e+01
1.430000e-06	-1.910092e-06	-6.188395e-10	-1.328684e+01	-4.418596e+01
1.440000e-06	-1.866176e-06	-6.127725e-10	-1.298135e+01	-4.361757e+01
1.450000e-06	-1.822109e-06	-6.078937e-10	-1.267482e+01	-4.304384e+01
1.460000e-06	-1.777870e-06	-6.013308e-10	-1.236709e+01	-4.246440e+01
1.470000e-06	-1.733496e-06	-5.921261e-10	-1.205841e+01	-4.187885e+01
1.480000e-06	-1.688990e-06	-5.801635e-10	-1.174883e+01	-4.128675e+01
1.490000e-06	-1.644358e-06	-5.686124e-10	-1.143836e+01	-4.068761e+01
1.500000e-06	-1.599502e-06	-5.577306e-10	-1.112634e+01	-4.008091e+01
1.510000e-06	-1.554437e-06	-5.474031e-10	-1.081286e+01	-3.946609e+01
1.520000e-06	-1.509293e-06	-5.375559e-10	-1.049883e+01	-3.884257e+01
1.530000e-06	-1.464029e-06	-5.263349e-10	-1.018397e+01	-3.820975e+01
1.540000e-06	-1.418681e-06	-5.145176e-10	-9.868527e+00	-3.756697e+01
1.550000e-06	-1.373276e-06	-5.053921e-10	-9.552683e+00	-3.691358e+01
1.560000e-06	-1.327767e-06	-4.967438e-10	-9.236112e+00	-3.624890e+01
1.570000e-06	-1.282232e-06	-4.860126e-10	-8.919370e+00	-3.557225e+01
1.580000e-06	-1.236673e-06	-4.744701e-10	-8.602452e+00	-3.488292e+01
1.590000e-06	-1.191047e-06	-4.622651e-10	-8.285072e+00	-3.418021e+01
1.600000e-06	-1.145370e-06	-4.489096e-10	-7.967335e+00	-3.346343e+01
1.610000e-06	-1.099634e-06	-4.367288e-10	-7.649195e+00	-3.273187e+01
1.620000e-06	-1.053807e-06	-4.252389e-10	-7.330412e+00	-3.198487e+01
1.630000e-06	-1.007849e-06	-4.112317e-10	-7.010722e+00	-3.122176e+01
1.640000e-06	-9.617635e-07	-3.963693e-10	-6.690148e+00	-3.044190e+01
1.650000e-06	-9.155746e-07	-3.855136e-10	-6.368852e+00	-2.964469e+01
1.660000e-06	-8.693768e-07	-3.747100e-10	-6.047494e+00	-2.882954e+01
1.670000e-06	-8.232096e-07	-3.634261e-10	-5.726349e+00	-2.799594e+01
1.680000e-06	-7.769919e-07	-3.530341e-10	-5.404853e+00	-2.714338e+01
1.690000e-06	-7.307093e-07	-3.435778e-10	-5.082906e+00	-2.627143e+01
1.700000e-06	-6.843884e-07	-3.337073e-10	-4.760692e+00	-2.537972e+01
1.710000e-06	-6.380202e-07	-3.195359e-10	-4.438149e+00	-2.446791e+01
1.720000e-06	-5.915613e-07	-3.016943e-10	-4.114975e+00	-2.353574e+01
1.730000e-06	-5.450042e-07	-2.806322e-10	-3.791118e+00	-2.258304e+01
1.740000e-06	-4.984319e-07	-2.636139e-10	-3.467155e+00	-2.160967e+01
1.750000e-06	-4.518633e-07	-2.508922e-10	-3.143218e+00	-2.061560e+01
1.760000e-06	-4.052434e-07	-2.414671e-10	-2.818924e+00	-1.960086e+01
1.770000e-06	-3.585638e-07	-2.329299e-10	-2.494215e+00	-1.856555e+01
1.780000e-06	-3.118557e-07	-2.225425e-10	-2.169308e+00	-1.750987e+01
1.790000e-06	-2.651377e-07	-2.068804e-10	-1.844331e+00	-1.643410e+01
1.800000e-06	-2.184100e-07	-1.893913e-10	-1.519287e+00	-1.533859e+01
1.810000e-06	-1.716425e-07	-1.696891e-10	-1.193967e+00	-1.422378e+01
1.820000e-06	-1.248127e-07	-1.494043e-10	-8.682132e-01	-1.309018e+01
1.830000e-06	-7.792295e-08	-1.319187e-10	-5.420419e-01	-1.193841e+01
1.840000e-06	-3.106669e-08	-1.165287e-10	-2.161038e-01	-1.076913e+01
1.850000e-06	1.567137e-08	-1.025096e-10	1.090120e-01	-9.583103e+00
1.860000e-06	6.242429e-08	-9.101069e-11	4.342312e-01	-8.381161e+00
1.870000e-06	1.092831e-07	-7.699893e-11	7.601868e-01	-7.164202e+00
1.880000e-06	1.561398e-07	-6.100525e-11	1.086128e+00	-5.933190e+00
1.890000e-06	2.028412e-07	-4.267703e-11	1.410989e+00	-4.689154e+00
1.900000e-06	2.495018e-07	-2.241236e-11	1.735566e+00	-3.433180e+00
1.910000e-06	2.962457e-07	-2.806125e-12	2.060722e+00	-2.166407e+00
1.920000e-06	3.429688e-07	1.695117e-11	2.385734e+00	-8.900181e-01
1.930000e-06	3.896643e-07	3.640650e-11	2.710554e+00	3.947584e-01
1.940000e-06	4.363280e-07	5.514092e-11	3.035152e+00	1.686661e+00
1.950000e-06	4.829357e-07	7.164913e-11	3.359361e+00	2.984399e+00
1.960000e-06	5.295405e-07	8.831798e-11	3.683550e+00	4.286659e+00
1.970000e-06	5.760775e-07	1.047066e-10	4.007268e+00	5.592111e+00
1.980000e-06	6.224731e-07	1.222857e-10	4.330001e+00	6.899416e+00
1.990000e-06	6.687467e-07	1.403451e-10	4.651886e+00	8.207232e+00
2.000000e-06	7.150150e-07	1.578271e-10	4.973734e+00	9.514221e+00
2.010000e-06	7.612962e-07	1.779318e-10	5.295672e+00	1.081905e+01
2.020000e-06	8.074479e-07	1.976042e-10	5.616709e+00	1.212042e+01
2.030000e-06	8.535632e-07	2.169594e-10	5.937493e+00	1.341704e+01
2.040000e-06	8.996795e-07	2.378688e-10	6.258284e+00	1.470764e+01
2.050000e-06	9.457735e-07	2.563855e-10	6.578920e+00	1.599100e+01
2.060000e-06	9.918198e-07	2.748165e-10	6.899224e+00	1.726594e+01
2.070000e-06	1.037705e-06	2.909637e-10	7.218410e+00	1.853132e+01
2.080000e-06	1.083532e-06	3.061341e-10	7.537185e+00	1.978605e+01
2.090000e-06	1.129271e-06	3.221552e-10	7.855354e+00	2.102910e+01
2.100000e-06	1.174893e-06	3.418774e-10	8.172702e+00	2.225948e+01
2.110000e-06	1.220498e-06	3.613400e-10	8.489939e+00	2.347628e+01
2.120000e-06	1.266057e-06	3.813758e-10	8.806855e+00	2.467865e+01
2.130000e-06	1.311581e-06	4.012922e-10	9.123522e+00	2.586581e+01
2.140000e-06	1.357036e-06	4.196551e-10	9.439712e+00	2.703704e+01
2.150000e-06	1.402385e-06	4.362566e-10	9.755168e+00	2.819170e+01
2.160000e-06	1.447629e-06	4.501794e-10	1.006989e+01	2.932920e+01
2.170000e-06	1.492739e-06	4.625160e-10	1.038368e+01	3.044906e+01
2.180000e-06	1.537714e-06	4.748905e-10	1.069653e+01	3.155082e+01
2.190000e-06	1.582462e-06	4.887267e-10	1.100781e+01	3.263414e+01
2.200000e-06	1.627025e-06	5.049813e-10	1.131779e+01	3.369872e+01
2.210000e-06	1.671515e-06	5.209317e-10	1.162727e+01	3.474433e+01
2.220000e-06	1.715915e-06	5.363311e-10	1.193612e+01	3.577082e+01
2.230000e-06	1.760220e-06	5.510241e-10	1.224431e+01	3.677809e+01
2.240000e-06	1.804393e-06	5.657509e-10	1.255158e+01	3.776611e+01
2.250000e-06	1.848446e-06	5.807622e-10	1.285802e+01	3.873491e+01
2.260000e-06	1.892431e-06	5.936705e-10	1.316399e+01	3.968455e+01
2.270000e-06	1.936323e-06	6.046136e-10	1.346931e+01	4.061518e+01
2.280000e-06	1.980114e-06	6.131242e-10	1.377392e+01	4.152696e+01
2.290000e-06	2.023842e-06	6.237091e-10	1.407810e+01	4.242012e+01
2.300000e-06	2.067519e-06	6.351477e-10	1.438193e+01	4.329492e+01
2.310000e-06	2.111142e-06	6.463458e-10	1.468537e+01	4.415164e+01
2.320000e-06	2.154725e-06	6.593352e-10	1.498854e+01	4.499062e+01
2.330000e-06	2.198269e-06	6.754282e-10	1.529143e+01	4.581220e+01
2.340000e-06	2.241666e-06	6.905799e-10	1.559331e+01	4.661676e+01
2.350000e-06	2.284854e-06	7.025995e-10	1.589373e+01	4.740468e+01
2.360000e-06	2.327853e-06	7.104158e-10	1.619284e+01	4.817637e+01
2.370000e-06	2.370644e-06	7.163570e-10	1.649050e+01	4.893225e+01
2.380000e-06	2.413166e-06	7.215193e-10	1.678628e+01	4.967272e+01
2.390000e-06	2.455352e-06	7.300276e-10	1.707974e+01	5.039821e+01
2.400000e-06	2.497207e-06	7.405385e-10	1.737089e+01	5.110914e+01
2.410000e-06	2.538652e-06	7.518655e-10	1.765919e+01	5.180593e+01
2.420000e-06	2.579684e-06	7.653713e-10	1.794461e+01	5.248898e+01
2.430000e-06	2.620496e-06	7.796993e-10	1.822850e+01	5.315869e+01
2.440000e-06	2.661109e-06	7.909785e-10	1.851101e+01	5.381546e+01
2.450000e-06	2.701484e-06	7.972587e-10	1.879186e+01	5.445964e+01
2.460000e-06	2.741688e-06	8.017319e-10	1.907152e+01	5.509161e+01
2.470000e-06	2.781733e-06	8.057709e-10	1.935009e+01	5.571169e+01
2.480000e-06	2.821592e-06	8.101285e-10	1.962735e+01	5.632022e+01
2.490000e-06	2.861331e-06	8.165552e-10	1.990378e+01	5.691749e+01
2.500000e-06	2.901022e-06	8.269707e-10	2.017987e+01	5.750380e+01
2.510000e-06	2.940607e-06	8.410153e-10	2.045523e+01	5.807940e+01
2.520000e-06	2.980020e-06	8.549573e-10	2.072939e+01	5.864454e+01
2.530000e-06	3.019247e-06	8.654721e-10	2.100227e+01	5.919945e+01
2.540000e-06	3.058310e-06	8.736263e-10	2.127399e+01	5.974434e+01
2.550000e-06	3.097101e-06	8.813545e-10	2.154383e+01	6.027941e+01
2.560000e-06	3.135577e-06	8.867833e-10	2.181147e+01	6.080482e+01
2.570000e-06	3.173884e-06	8.899978e-10	2.207794e+01	6.132075e+01
2.580000e-06	3.212009e-06	8.962144e-10	2.234314e+01	6.182733e+01
2.590000e-06	3.249873e-06	9.052215e-10	2.260652e+01	6.232472e+01
2.600000e-06	3.287504e-06	9.135674e-10	2.286829e+01	6.281302e+01
2.610000e-06	3.324960e-06	9.195417e-10	2.312884e+01	6.329237e+01
2.620000e-06	3.362267e-06	9.263732e-10	2.338836e+01	6.376287e+01
2.630000e-06	3.399348e-06	9.345570e-10	2.364629e+01	6.422463e+01
2.640000e-06	3.436042e-06	9.422432e-10	2.390154e+01	6.467774e+01
2.650000e-06	3.472411e-06	9.487229e-10	2.415453e+01	6.512232e+01
2.660000e-06	3.508615e-06	9.565801e-10	2.440637e+01	6.555845e+01
2.670000e-06	3.544654e-06	9.621715e-10	2.465706e+01	6.598623e+01
2.680000e-06	3.580549e-06	9.641952e-10	2.490675e+01	6.640577e+01
2.690000e-06	3.616346e-06	9.669460e-10	2.515575e+01	6.681717e+01
2.700000e-06	3.651998e-06	9.693304e-10	2.540376e+01	6.722055e+01
2.710000e-06	3.687460e-06	9.728357e-10	2.565043e+01	6.761601e+01
2.720000e-06	3.722730e-06	9.800938e-10	2.589578e+01	6.800367e+01
2.730000e-06	3.757706e-06	9.899919e-10	2.613907e+01	6.838367e+01
2.740000e-06	3.792291e-06	1.000420e-09	2.637965e+01	6.875613e+01
2.750000e-06	3.826408e-06	1.008303e-09	2.661698e+01	6.912119e+01
2.760000e-06	3.860000e-06	1.010234e-09	2.685065e+01	6.947901e+01
2.770000e-06	3.893065e-06	1.009334e-09	2.708065e+01	6.982974e+01
2.780000e-06	3.925721e-06	1.008600e-09	2.730781e+01	7.017353e+01
2.790000e-06	3.958037e-06	1.010110e-09	2.753261e+01	7.051055e+01
2.800000e-06	3.990053e-06	1.013539e-09	2.775531e+01	7.084097e+01
2.810000e-06	4.021917e-06	1.019465e-09	2.797696e+01	7.116496e+01
2.820000e-06	4.053649e-06	1.029597e-09	2.819770e+01	7.148271e+01
2.830000e-06	4.085193e-06	1.041449e-09	2.841712e+01	7.179438e+01
2.840000e-06	4.116529e-06	1.051424e-09	2.863510e+01	7.210017e+01
2.850000e-06	4.147636e-06	1.056601e-09	2.885148e+01	7.240024e+01
2.860000e-06	4.178431e-06	1.057065e-09	2.906569e+01	7.269477e+01
2.870000e-06	4.208929e-06	1.054821e-09	2.927784e+01	7.298395e+01
2.880000e-06	4.239082e-06	1.053728e-09	2.948759e+01	7.326792e+01
2.890000e-06	4.268880e-06	1.054547e-09	2.969487e+01	7.354686e+01
2.900000e-06	4.298471e-06	1.055776e-09	2.990070e+01	7.382092e+01
2.910000e-06	4.327809e-06	1.060114e-09	3.010478e+01	7.409024e+01
