# Temperatura_=_-0.3
# Concentracion g/m^3_=_1620.0
# C_Vs_to_Am_M_A/Vsm_=_65563218390.804596
# pendiente_HvsI_1/m_=_3716.3
# ordenada_HvsI_A/m_=_1297.0
# frecuencia_Hz_=_135093.464674492

Tiempo_(s)	Campo_(V.s)	Magnetizacion_(V.s)	Campo_(kA/m)	Magnetizacion_(A/m)
0.000000e+00	-5.497360e-06	-1.727755e-09	-3.838325e+01	-1.117741e+02
1.000000e-08	-5.497465e-06	-1.723393e-09	-3.838399e+01	-1.117025e+02
2.000000e-08	-5.497194e-06	-1.720743e-09	-3.838210e+01	-1.116274e+02
3.000000e-08	-5.496503e-06	-1.718095e-09	-3.837727e+01	-1.115490e+02
4.000000e-08	-5.495432e-06	-1.716978e-09	-3.836980e+01	-1.114676e+02
5.000000e-08	-5.493772e-06	-1.721997e-09	-3.835821e+01	-1.113832e+02
6.000000e-08	-5.491414e-06	-1.727832e-09	-3.834174e+01	-1.112961e+02
7.000000e-08	-5.488548e-06	-1.730897e-09	-3.832173e+01	-1.112066e+02
8.000000e-08	-5.485262e-06	-1.709653e-09	-3.829879e+01	-1.111148e+02
9.000000e-08	-5.481518e-06	-1.718617e-09	-3.827264e+01	-1.110208e+02
1.000000e-07	-5.477275e-06	-1.719127e-09	-3.824302e+01	-1.109249e+02
1.100000e-07	-5.472763e-06	-1.704943e-09	-3.821152e+01	-1.108273e+02
1.200000e-07	-5.468098e-06	-1.700214e-09	-3.817894e+01	-1.107279e+02
1.300000e-07	-5.463115e-06	-1.725422e-09	-3.814416e+01	-1.106271e+02
1.400000e-07	-5.457674e-06	-1.726615e-09	-3.810616e+01	-1.105249e+02
1.500000e-07	-5.451812e-06	-1.747069e-09	-3.806524e+01	-1.104214e+02
1.600000e-07	-5.445687e-06	-1.712323e-09	-3.802247e+01	-1.103167e+02
1.700000e-07	-5.439187e-06	-1.728364e-09	-3.797709e+01	-1.102109e+02
1.800000e-07	-5.432184e-06	-1.674964e-09	-3.792819e+01	-1.101040e+02
1.900000e-07	-5.424858e-06	-1.663636e-09	-3.787704e+01	-1.099961e+02
2.000000e-07	-5.417342e-06	-1.656104e-09	-3.782456e+01	-1.098872e+02
2.100000e-07	-5.409540e-06	-1.690461e-09	-3.777009e+01	-1.097772e+02
2.200000e-07	-5.401408e-06	-1.689094e-09	-3.771331e+01	-1.096663e+02
2.300000e-07	-5.392989e-06	-1.671872e-09	-3.765453e+01	-1.095542e+02
2.400000e-07	-5.383909e-06	-1.666298e-09	-3.759113e+01	-1.094410e+02
2.500000e-07	-5.374098e-06	-1.656908e-09	-3.752262e+01	-1.093266e+02
2.600000e-07	-5.363707e-06	-1.659388e-09	-3.745008e+01	-1.092109e+02
2.700000e-07	-5.352762e-06	-1.651796e-09	-3.737366e+01	-1.090937e+02
2.800000e-07	-5.341498e-06	-1.661266e-09	-3.729501e+01	-1.089749e+02
2.900000e-07	-5.329808e-06	-1.627119e-09	-3.721339e+01	-1.088544e+02
3.000000e-07	-5.317656e-06	-1.654135e-09	-3.712854e+01	-1.087320e+02
3.100000e-07	-5.305162e-06	-1.654144e-09	-3.704130e+01	-1.086075e+02
3.200000e-07	-5.292269e-06	-1.665070e-09	-3.695128e+01	-1.084807e+02
3.300000e-07	-5.278938e-06	-1.622097e-09	-3.685820e+01	-1.083514e+02
3.400000e-07	-5.265346e-06	-1.647397e-09	-3.676330e+01	-1.082193e+02
3.500000e-07	-5.251376e-06	-1.627816e-09	-3.666577e+01	-1.080841e+02
3.600000e-07	-5.236871e-06	-1.620900e-09	-3.656449e+01	-1.079457e+02
3.700000e-07	-5.221874e-06	-1.606055e-09	-3.645978e+01	-1.078038e+02
3.800000e-07	-5.206340e-06	-1.626503e-09	-3.635132e+01	-1.076580e+02
3.900000e-07	-5.190268e-06	-1.593544e-09	-3.623910e+01	-1.075082e+02
4.000000e-07	-5.173824e-06	-1.597482e-09	-3.612429e+01	-1.073539e+02
4.100000e-07	-5.157144e-06	-1.619022e-09	-3.600783e+01	-1.071950e+02
4.200000e-07	-5.140146e-06	-1.609705e-09	-3.588914e+01	-1.070311e+02
4.300000e-07	-5.122734e-06	-1.571026e-09	-3.576757e+01	-1.068619e+02
4.400000e-07	-5.104958e-06	-1.590893e-09	-3.564346e+01	-1.066872e+02
4.500000e-07	-5.086741e-06	-1.592616e-09	-3.551626e+01	-1.065068e+02
4.600000e-07	-5.068029e-06	-1.551782e-09	-3.538561e+01	-1.063202e+02
4.700000e-07	-5.049043e-06	-1.557194e-09	-3.525305e+01	-1.061273e+02
4.800000e-07	-5.029759e-06	-1.588737e-09	-3.511841e+01	-1.059278e+02
4.900000e-07	-5.010172e-06	-1.560149e-09	-3.498165e+01	-1.057215e+02
5.000000e-07	-4.990446e-06	-1.536383e-09	-3.484392e+01	-1.055081e+02
5.100000e-07	-4.970555e-06	-1.569694e-09	-3.470504e+01	-1.052875e+02
5.200000e-07	-4.950373e-06	-1.555657e-09	-3.456412e+01	-1.050595e+02
5.300000e-07	-4.929745e-06	-1.524138e-09	-3.442010e+01	-1.048239e+02
5.400000e-07	-4.908769e-06	-1.537924e-09	-3.427364e+01	-1.045805e+02
5.500000e-07	-4.887490e-06	-1.550273e-09	-3.412507e+01	-1.043294e+02
5.600000e-07	-4.865794e-06	-1.513764e-09	-3.397359e+01	-1.040702e+02
5.700000e-07	-4.843727e-06	-1.527520e-09	-3.381951e+01	-1.038030e+02
5.800000e-07	-4.821343e-06	-1.541273e-09	-3.366322e+01	-1.035278e+02
5.900000e-07	-4.798566e-06	-1.516821e-09	-3.350419e+01	-1.032444e+02
6.000000e-07	-4.775407e-06	-1.499778e-09	-3.334249e+01	-1.029530e+02
6.100000e-07	-4.752049e-06	-1.526219e-09	-3.317941e+01	-1.026535e+02
6.200000e-07	-4.728550e-06	-1.505990e-09	-3.301533e+01	-1.023460e+02
6.300000e-07	-4.704872e-06	-1.491750e-09	-3.285001e+01	-1.020306e+02
6.400000e-07	-4.680901e-06	-1.502002e-09	-3.268264e+01	-1.017073e+02
6.500000e-07	-4.656544e-06	-1.502542e-09	-3.251258e+01	-1.013763e+02
6.600000e-07	-4.631700e-06	-1.473844e-09	-3.233911e+01	-1.010378e+02
6.700000e-07	-4.606322e-06	-1.480809e-09	-3.216192e+01	-1.006918e+02
6.800000e-07	-4.580374e-06	-1.478623e-09	-3.198074e+01	-1.003386e+02
6.900000e-07	-4.553888e-06	-1.461446e-09	-3.179582e+01	-9.997845e+01
7.000000e-07	-4.526908e-06	-1.452211e-09	-3.160744e+01	-9.961146e+01
7.100000e-07	-4.499596e-06	-1.460177e-09	-3.141674e+01	-9.923790e+01
7.200000e-07	-4.472142e-06	-1.448596e-09	-3.122505e+01	-9.885801e+01
7.300000e-07	-4.444498e-06	-1.443419e-09	-3.103204e+01	-9.847205e+01
7.400000e-07	-4.416680e-06	-1.445574e-09	-3.083781e+01	-9.808026e+01
7.500000e-07	-4.388572e-06	-1.438390e-09	-3.064156e+01	-9.768290e+01
7.600000e-07	-4.360126e-06	-1.426144e-09	-3.044295e+01	-9.728024e+01
7.700000e-07	-4.331466e-06	-1.422343e-09	-3.024284e+01	-9.687254e+01
7.800000e-07	-4.302513e-06	-1.414525e-09	-3.004068e+01	-9.646005e+01
7.900000e-07	-4.273214e-06	-1.402253e-09	-2.983612e+01	-9.604302e+01
8.000000e-07	-4.243651e-06	-1.400081e-09	-2.962970e+01	-9.562170e+01
8.100000e-07	-4.213829e-06	-1.394833e-09	-2.942148e+01	-9.519630e+01
8.200000e-07	-4.183688e-06	-1.385973e-09	-2.921104e+01	-9.476706e+01
8.300000e-07	-4.153222e-06	-1.377193e-09	-2.899831e+01	-9.433416e+01
8.400000e-07	-4.122449e-06	-1.375430e-09	-2.878345e+01	-9.389780e+01
8.500000e-07	-4.091377e-06	-1.365983e-09	-2.856650e+01	-9.345813e+01
8.600000e-07	-4.060119e-06	-1.363867e-09	-2.834826e+01	-9.301530e+01
8.700000e-07	-4.028682e-06	-1.362357e-09	-2.812876e+01	-9.256943e+01
8.800000e-07	-3.997035e-06	-1.358804e-09	-2.790780e+01	-9.212061e+01
8.900000e-07	-3.965258e-06	-1.344762e-09	-2.768593e+01	-9.166891e+01
9.000000e-07	-3.933214e-06	-1.338214e-09	-2.746219e+01	-9.121438e+01
9.100000e-07	-3.900771e-06	-1.327486e-09	-2.723567e+01	-9.075704e+01
9.200000e-07	-3.867924e-06	-1.319904e-09	-2.700633e+01	-9.029688e+01
9.300000e-07	-3.834613e-06	-1.314665e-09	-2.677375e+01	-8.983385e+01
9.400000e-07	-3.800933e-06	-1.315409e-09	-2.653859e+01	-8.936791e+01
9.500000e-07	-3.766918e-06	-1.306557e-09	-2.630109e+01	-8.889897e+01
9.600000e-07	-3.732439e-06	-1.298713e-09	-2.606036e+01	-8.842690e+01
9.700000e-07	-3.697494e-06	-1.290471e-09	-2.581637e+01	-8.795159e+01
9.800000e-07	-3.662308e-06	-1.281249e-09	-2.557069e+01	-8.747286e+01
9.900000e-07	-3.626961e-06	-1.266486e-09	-2.532389e+01	-8.699053e+01
1.000000e-06	-3.591457e-06	-1.260821e-09	-2.507601e+01	-8.650442e+01
1.010000e-06	-3.555857e-06	-1.259141e-09	-2.482744e+01	-8.601430e+01
1.020000e-06	-3.520067e-06	-1.255896e-09	-2.457755e+01	-8.551994e+01
1.030000e-06	-3.484044e-06	-1.251053e-09	-2.432603e+01	-8.502110e+01
1.040000e-06	-3.447753e-06	-1.247149e-09	-2.407264e+01	-8.451752e+01
1.050000e-06	-3.411215e-06	-1.236346e-09	-2.381753e+01	-8.400894e+01
1.060000e-06	-3.374440e-06	-1.222300e-09	-2.356077e+01	-8.349509e+01
1.070000e-06	-3.337366e-06	-1.211990e-09	-2.330191e+01	-8.297570e+01
1.080000e-06	-3.300043e-06	-1.201188e-09	-2.304132e+01	-8.245050e+01
1.090000e-06	-3.262576e-06	-1.189798e-09	-2.277972e+01	-8.191923e+01
1.100000e-06	-3.224954e-06	-1.181216e-09	-2.251703e+01	-8.138161e+01
1.110000e-06	-3.187115e-06	-1.176633e-09	-2.225284e+01	-8.083740e+01
1.120000e-06	-3.148901e-06	-1.167716e-09	-2.198602e+01	-8.028635e+01
1.130000e-06	-3.110374e-06	-1.159507e-09	-2.171702e+01	-7.972822e+01
1.140000e-06	-3.071725e-06	-1.150067e-09	-2.144717e+01	-7.916281e+01
1.150000e-06	-3.032865e-06	-1.138471e-09	-2.117585e+01	-7.858989e+01
1.160000e-06	-2.993791e-06	-1.124183e-09	-2.090302e+01	-7.800930e+01
1.170000e-06	-2.954578e-06	-1.114943e-09	-2.062923e+01	-7.742087e+01
1.180000e-06	-2.915298e-06	-1.104804e-09	-2.035498e+01	-7.682444e+01
1.190000e-06	-2.875890e-06	-1.096212e-09	-2.007982e+01	-7.621991e+01
1.200000e-06	-2.836299e-06	-1.087688e-09	-1.980339e+01	-7.560716e+01
1.210000e-06	-2.796635e-06	-1.080357e-09	-1.952646e+01	-7.498612e+01
1.220000e-06	-2.756844e-06	-1.068294e-09	-1.924863e+01	-7.435674e+01
1.230000e-06	-2.716936e-06	-1.056600e-09	-1.896999e+01	-7.371897e+01
1.240000e-06	-2.676833e-06	-1.044849e-09	-1.868998e+01	-7.307280e+01
1.250000e-06	-2.636468e-06	-1.033755e-09	-1.840815e+01	-7.241823e+01
1.260000e-06	-2.595871e-06	-1.022591e-09	-1.812470e+01	-7.175529e+01
1.270000e-06	-2.555021e-06	-1.014393e-09	-1.783947e+01	-7.108402e+01
1.280000e-06	-2.513864e-06	-1.005287e-09	-1.755211e+01	-7.040448e+01
1.290000e-06	-2.472270e-06	-9.951749e-10	-1.726170e+01	-6.971672e+01
1.300000e-06	-2.430412e-06	-9.831158e-10	-1.696944e+01	-6.902083e+01
1.310000e-06	-2.388256e-06	-9.724660e-10	-1.667511e+01	-6.831688e+01
1.320000e-06	-2.345825e-06	-9.614576e-10	-1.637884e+01	-6.760497e+01
1.330000e-06	-2.303195e-06	-9.509938e-10	-1.608119e+01	-6.688518e+01
1.340000e-06	-2.260333e-06	-9.424768e-10	-1.578193e+01	-6.615760e+01
1.350000e-06	-2.217272e-06	-9.329626e-10	-1.548127e+01	-6.542230e+01
1.360000e-06	-2.173998e-06	-9.224720e-10	-1.517913e+01	-6.467937e+01
1.370000e-06	-2.130643e-06	-9.120915e-10	-1.487641e+01	-6.392885e+01
1.380000e-06	-2.087197e-06	-8.993692e-10	-1.457307e+01	-6.317078e+01
1.390000e-06	-2.043665e-06	-8.832337e-10	-1.426912e+01	-6.240519e+01
1.400000e-06	-2.000076e-06	-8.669020e-10	-1.396478e+01	-6.163207e+01
1.410000e-06	-1.956400e-06	-8.529454e-10	-1.365983e+01	-6.085139e+01
1.420000e-06	-1.912633e-06	-8.414055e-10	-1.335425e+01	-6.006310e+01
1.430000e-06	-1.868797e-06	-8.293616e-10	-1.304817e+01	-5.926711e+01
1.440000e-06	-1.824859e-06	-8.192122e-10	-1.274139e+01	-5.846329e+01
1.450000e-06	-1.780774e-06	-8.088689e-10	-1.243358e+01	-5.765148e+01
1.460000e-06	-1.736528e-06	-7.965903e-10	-1.212466e+01	-5.683147e+01
1.470000e-06	-1.692198e-06	-7.822689e-10	-1.181514e+01	-5.600304e+01
1.480000e-06	-1.647826e-06	-7.691829e-10	-1.150533e+01	-5.516589e+01
1.490000e-06	-1.603338e-06	-7.563933e-10	-1.119471e+01	-5.431970e+01
1.500000e-06	-1.558595e-06	-7.460352e-10	-1.088231e+01	-5.346410e+01
1.510000e-06	-1.513709e-06	-7.344141e-10	-1.056890e+01	-5.259869e+01
1.520000e-06	-1.468827e-06	-7.213640e-10	-1.025553e+01	-5.172301e+01
1.530000e-06	-1.423787e-06	-7.077382e-10	-9.941058e+00	-5.083657e+01
1.540000e-06	-1.378589e-06	-6.978051e-10	-9.625481e+00	-4.993884e+01
1.550000e-06	-1.333291e-06	-6.881744e-10	-9.309205e+00	-4.902926e+01
1.560000e-06	-1.287914e-06	-6.776729e-10	-8.992375e+00	-4.810722e+01
1.570000e-06	-1.242445e-06	-6.634309e-10	-8.674908e+00	-4.717209e+01
1.580000e-06	-1.196843e-06	-6.449430e-10	-8.356509e+00	-4.622322e+01
1.590000e-06	-1.151156e-06	-6.257434e-10	-8.037514e+00	-4.525991e+01
1.600000e-06	-1.105464e-06	-6.083725e-10	-7.718489e+00	-4.428148e+01
1.610000e-06	-1.059722e-06	-5.927893e-10	-7.399113e+00	-4.328720e+01
1.620000e-06	-1.013893e-06	-5.771402e-10	-7.079128e+00	-4.227635e+01
1.630000e-06	-9.681169e-07	-5.631360e-10	-6.759513e+00	-4.124820e+01
1.640000e-06	-9.222890e-07	-5.502965e-10	-6.439537e+00	-4.020203e+01
1.650000e-06	-8.762744e-07	-5.359064e-10	-6.118258e+00	-3.913711e+01
1.660000e-06	-8.301310e-07	-5.200168e-10	-5.796079e+00	-3.805276e+01
1.670000e-06	-7.838820e-07	-5.029219e-10	-5.473162e+00	-3.694829e+01
1.680000e-06	-7.376381e-07	-4.849758e-10	-5.150281e+00	-3.582304e+01
1.690000e-06	-6.913866e-07	-4.665926e-10	-4.827348e+00	-3.467640e+01
1.700000e-06	-6.451246e-07	-4.477362e-10	-4.504341e+00	-3.350778e+01
1.710000e-06	-5.988724e-07	-4.300336e-10	-4.181402e+00	-3.231665e+01
1.720000e-06	-5.524706e-07	-4.113812e-10	-3.857419e+00	-3.110254e+01
1.730000e-06	-5.060558e-07	-3.916463e-10	-3.533345e+00	-2.986502e+01
1.740000e-06	-4.596963e-07	-3.708570e-10	-3.209657e+00	-2.860374e+01
1.750000e-06	-4.132469e-07	-3.483506e-10	-2.885342e+00	-2.731840e+01
1.760000e-06	-3.667094e-07	-3.262447e-10	-2.560411e+00	-2.600880e+01
1.770000e-06	-3.200996e-07	-3.043860e-10	-2.234976e+00	-2.467481e+01
1.780000e-06	-2.734717e-07	-2.818464e-10	-1.909414e+00	-2.331638e+01
1.790000e-06	-2.267873e-07	-2.618753e-10	-1.583458e+00	-2.193354e+01
1.800000e-06	-1.801077e-07	-2.420598e-10	-1.257535e+00	-2.052644e+01
1.810000e-06	-1.334805e-07	-2.215313e-10	-9.319777e-01	-1.909528e+01
1.820000e-06	-8.684013e-08	-1.997450e-10	-6.063287e-01	-1.764041e+01
1.830000e-06	-4.023637e-08	-1.776154e-10	-2.809354e-01	-1.616222e+01
1.840000e-06	6.357327e-09	-1.537096e-10	4.438766e-02	-1.466125e+01
1.850000e-06	5.295093e-08	-1.309226e-10	3.697101e-01	-1.313809e+01
1.860000e-06	9.959411e-08	-1.077170e-10	6.953785e-01	-1.159347e+01
1.870000e-06	1.462548e-07	-8.420788e-11	1.021170e+00	-1.002819e+01
1.880000e-06	1.928386e-07	-6.282051e-11	1.346423e+00	-8.443141e+00
1.890000e-06	2.394259e-07	-4.144048e-11	1.671701e+00	-6.839326e+00
1.900000e-06	2.860364e-07	-1.980295e-11	1.997142e+00	-5.217822e+00
1.910000e-06	3.326473e-07	2.145059e-12	2.322585e+00	-3.579796e+00
1.920000e-06	3.792485e-07	2.604292e-11	2.647961e+00	-1.926491e+00
1.930000e-06	4.257177e-07	5.077897e-11	2.972415e+00	-2.592273e-01
1.940000e-06	4.721143e-07	7.510315e-11	3.296361e+00	1.420606e+00
1.950000e-06	5.185689e-07	9.762232e-11	3.620713e+00	3.111556e+00
1.960000e-06	5.649566e-07	1.171445e-10	3.944598e+00	4.812114e+00
1.970000e-06	6.112407e-07	1.378171e-10	4.267759e+00	6.520723e+00
1.980000e-06	6.574598e-07	1.602577e-10	4.590467e+00	8.235781e+00
1.990000e-06	7.036670e-07	1.833060e-10	4.913091e+00	9.955652e+00
2.000000e-06	7.499533e-07	2.081740e-10	5.236268e+00	1.167868e+01
2.010000e-06	7.961162e-07	2.325919e-10	5.558583e+00	1.340317e+01
2.020000e-06	8.421077e-07	2.575429e-10	5.879702e+00	1.512744e+01
2.030000e-06	8.880049e-07	2.853986e-10	6.200161e+00	1.684981e+01
2.040000e-06	9.338599e-07	3.102241e-10	6.520327e+00	1.856857e+01
2.050000e-06	9.797626e-07	3.311890e-10	6.840826e+00	2.028205e+01
2.060000e-06	1.025584e-06	3.503122e-10	7.160758e+00	2.198862e+01
2.070000e-06	1.071338e-06	3.706272e-10	7.480215e+00	2.368664e+01
2.080000e-06	1.116991e-06	3.919593e-10	7.798974e+00	2.537453e+01
2.090000e-06	1.162527e-06	4.162665e-10	8.116909e+00	2.705076e+01
2.100000e-06	1.208044e-06	4.411400e-10	8.434714e+00	2.871385e+01
2.110000e-06	1.253575e-06	4.654453e-10	8.752621e+00	3.036237e+01
2.120000e-06	1.298995e-06	4.871348e-10	9.069749e+00	3.199495e+01
2.130000e-06	1.344241e-06	5.077293e-10	9.385659e+00	3.361031e+01
2.140000e-06	1.389411e-06	5.277279e-10	9.701043e+00	3.520725e+01
2.150000e-06	1.434535e-06	5.443590e-10	1.001611e+01	3.678461e+01
2.160000e-06	1.479514e-06	5.613043e-10	1.033015e+01	3.834137e+01
2.170000e-06	1.524290e-06	5.809745e-10	1.064278e+01	3.987655e+01
2.180000e-06	1.568931e-06	6.049138e-10	1.095448e+01	4.138930e+01
2.190000e-06	1.613505e-06	6.312623e-10	1.126570e+01	4.287882e+01
2.200000e-06	1.657988e-06	6.538094e-10	1.157628e+01	4.434445e+01
2.210000e-06	1.702312e-06	6.709071e-10	1.188576e+01	4.578560e+01
2.220000e-06	1.746512e-06	6.840000e-10	1.219436e+01	4.720177e+01
2.230000e-06	1.790581e-06	6.980128e-10	1.250206e+01	4.859257e+01
2.240000e-06	1.834537e-06	7.154650e-10	1.280897e+01	4.995769e+01
2.250000e-06	1.878402e-06	7.347641e-10	1.311524e+01	5.129693e+01
2.260000e-06	1.922210e-06	7.552740e-10	1.342111e+01	5.261017e+01
2.270000e-06	1.965935e-06	7.759584e-10	1.372640e+01	5.389736e+01
2.280000e-06	2.009575e-06	7.955738e-10	1.403110e+01	5.515856e+01
2.290000e-06	2.053155e-06	8.131736e-10	1.433538e+01	5.639389e+01
2.300000e-06	2.096626e-06	8.281938e-10	1.463891e+01	5.760357e+01
2.310000e-06	2.140018e-06	8.421076e-10	1.494187e+01	5.878785e+01
2.320000e-06	2.183366e-06	8.597545e-10	1.524454e+01	5.994709e+01
2.330000e-06	2.226656e-06	8.789248e-10	1.554679e+01	6.108167e+01
2.340000e-06	2.269750e-06	8.970835e-10	1.584768e+01	6.219206e+01
2.350000e-06	2.312601e-06	9.141271e-10	1.614687e+01	6.327875e+01
2.360000e-06	2.355281e-06	9.290498e-10	1.644486e+01	6.434230e+01
2.370000e-06	2.397721e-06	9.413561e-10	1.674119e+01	6.538327e+01
2.380000e-06	2.439862e-06	9.541949e-10	1.703542e+01	6.640229e+01
2.390000e-06	2.481642e-06	9.683537e-10	1.732714e+01	6.739998e+01
2.400000e-06	2.522955e-06	9.818413e-10	1.761559e+01	6.837701e+01
2.410000e-06	2.563956e-06	9.962150e-10	1.790186e+01	6.933404e+01
2.420000e-06	2.604845e-06	1.010627e-09	1.818735e+01	7.027175e+01
2.430000e-06	2.645466e-06	1.022307e-09	1.847097e+01	7.119081e+01
2.440000e-06	2.685793e-06	1.031901e-09	1.875254e+01	7.209189e+01
2.450000e-06	2.725887e-06	1.040713e-09	1.903248e+01	7.297566e+01
2.460000e-06	2.765714e-06	1.051050e-09	1.931056e+01	7.384277e+01
2.470000e-06	2.805385e-06	1.062828e-09	1.958755e+01	7.469385e+01
2.480000e-06	2.845017e-06	1.075503e-09	1.986427e+01	7.552951e+01
2.490000e-06	2.884597e-06	1.089282e-09	2.014062e+01	7.635035e+01
2.500000e-06	2.923983e-06	1.104120e-09	2.041561e+01	7.715690e+01
2.510000e-06	2.963206e-06	1.118263e-09	2.068948e+01	7.794971e+01
2.520000e-06	3.002271e-06	1.131527e-09	2.096223e+01	7.872926e+01
2.530000e-06	3.041094e-06	1.144289e-09	2.123330e+01	7.949601e+01
2.540000e-06	3.079656e-06	1.155290e-09	2.150255e+01	8.025039e+01
2.550000e-06	3.118058e-06	1.162755e-09	2.177067e+01	8.099277e+01
2.560000e-06	3.156263e-06	1.168470e-09	2.203743e+01	8.172351e+01
2.570000e-06	3.194210e-06	1.176312e-09	2.230237e+01	8.244292e+01
2.580000e-06	3.231989e-06	1.188324e-09	2.256616e+01	8.315125e+01
2.590000e-06	3.269553e-06	1.203030e-09	2.282843e+01	8.384876e+01
2.600000e-06	3.306901e-06	1.215266e-09	2.308920e+01	8.453564e+01
2.610000e-06	3.344052e-06	1.224062e-09	2.334859e+01	8.521205e+01
2.620000e-06	3.380967e-06	1.232596e-09	2.360634e+01	8.587813e+01
2.630000e-06	3.417591e-06	1.239795e-09	2.386205e+01	8.653397e+01
2.640000e-06	3.453950e-06	1.246425e-09	2.411591e+01	8.717965e+01
2.650000e-06	3.490011e-06	1.256856e-09	2.436769e+01	8.781522e+01
2.660000e-06	3.525814e-06	1.268479e-09	2.461768e+01	8.844070e+01
2.670000e-06	3.561504e-06	1.279432e-09	2.486687e+01	8.905611e+01
2.680000e-06	3.597077e-06	1.287968e-09	2.511524e+01	8.966141e+01
2.690000e-06	3.632543e-06	1.294094e-09	2.536287e+01	9.025660e+01
2.700000e-06	3.667946e-06	1.299760e-09	2.561006e+01	9.084162e+01
2.710000e-06	3.703108e-06	1.307425e-09	2.585556e+01	9.141644e+01
2.720000e-06	3.737935e-06	1.315841e-09	2.609873e+01	9.198101e+01
2.730000e-06	3.772475e-06	1.322729e-09	2.633989e+01	9.253526e+01
2.740000e-06	3.806588e-06	1.329188e-09	2.657807e+01	9.307915e+01
2.750000e-06	3.840177e-06	1.335739e-09	2.681260e+01	9.361263e+01
2.760000e-06	3.873223e-06	1.340498e-09	2.704333e+01	9.413565e+01
2.770000e-06	3.905812e-06	1.344538e-09	2.727087e+01	9.464818e+01
2.780000e-06	3.938074e-06	1.350442e-09	2.749612e+01	9.515019e+01
2.790000e-06	3.970057e-06	1.356078e-09	2.771944e+01	9.564168e+01
2.800000e-06	4.001779e-06	1.361949e-09	2.794092e+01	9.612265e+01
2.810000e-06	4.033289e-06	1.368607e-09	2.816093e+01	9.659310e+01
2.820000e-06	4.064666e-06	1.376011e-09	2.838001e+01	9.705309e+01
2.830000e-06	4.095879e-06	1.383077e-09	2.859794e+01	9.750266e+01
2.840000e-06	4.126885e-06	1.387903e-09	2.881443e+01	9.794188e+01
2.850000e-06	4.157644e-06	1.390964e-09	2.902919e+01	9.837085e+01
2.860000e-06	4.188068e-06	1.394885e-09	2.924162e+01	9.878968e+01
2.870000e-06	4.218163e-06	1.400055e-09	2.945174e+01	9.919850e+01
2.880000e-06	4.247900e-06	1.405700e-09	2.965937e+01	9.959745e+01
2.890000e-06	4.277375e-06	1.411286e-09	2.986517e+01	9.998671e+01
2.900000e-06	4.306609e-06	1.416656e-09	3.006929e+01	1.003665e+02
2.910000e-06	4.335552e-06	1.423302e-09	3.027137e+01	1.007369e+02
