# Temperatura_=_12.27
# Concentracion g/m^3_=_1620.0
# C_Vs_to_Am_M_A/Vsm_=_65563218390.804596
# pendiente_HvsI_1/m_=_3716.3
# ordenada_HvsI_A/m_=_1297.0
# frecuencia_Hz_=_135109.30510984056

Tiempo_(s)	Campo_(V.s)	Magnetizacion_(V.s)	Campo_(kA/m)	Magnetizacion_(A/m)
0.000000e+00	-5.502418e-06	-1.206786e-09	-3.836603e+01	-7.922097e+01
1.000000e-08	-5.502693e-06	-1.205387e-09	-3.836794e+01	-7.920874e+01
2.000000e-08	-5.502749e-06	-1.205142e-09	-3.836834e+01	-7.919359e+01
3.000000e-08	-5.502392e-06	-1.206745e-09	-3.836584e+01	-7.917534e+01
4.000000e-08	-5.501498e-06	-1.209460e-09	-3.835962e+01	-7.915380e+01
5.000000e-08	-5.500087e-06	-1.211261e-09	-3.834978e+01	-7.912879e+01
6.000000e-08	-5.498112e-06	-1.212028e-09	-3.833601e+01	-7.910013e+01
7.000000e-08	-5.495583e-06	-1.222861e-09	-3.831837e+01	-7.906766e+01
8.000000e-08	-5.492563e-06	-1.221380e-09	-3.829731e+01	-7.903122e+01
9.000000e-08	-5.489111e-06	-1.175185e-09	-3.827324e+01	-7.899066e+01
1.000000e-07	-5.485186e-06	-1.153477e-09	-3.824588e+01	-7.894584e+01
1.100000e-07	-5.480728e-06	-1.219669e-09	-3.821479e+01	-7.889663e+01
1.200000e-07	-5.476010e-06	-1.241857e-09	-3.818190e+01	-7.884293e+01
1.300000e-07	-5.471226e-06	-1.233982e-09	-3.814854e+01	-7.878464e+01
1.400000e-07	-5.466139e-06	-1.152187e-09	-3.811307e+01	-7.872168e+01
1.500000e-07	-5.460619e-06	-1.202735e-09	-3.807458e+01	-7.865399e+01
1.600000e-07	-5.454743e-06	-1.224480e-09	-3.803361e+01	-7.858151e+01
1.700000e-07	-5.448523e-06	-1.194313e-09	-3.799024e+01	-7.850422e+01
1.800000e-07	-5.441840e-06	-1.154915e-09	-3.794364e+01	-7.842211e+01
1.900000e-07	-5.434726e-06	-1.162678e-09	-3.789404e+01	-7.833518e+01
2.000000e-07	-5.427330e-06	-1.247829e-09	-3.784247e+01	-7.824346e+01
2.100000e-07	-5.419685e-06	-1.217746e-09	-3.778917e+01	-7.814697e+01
2.200000e-07	-5.411812e-06	-1.187556e-09	-3.773427e+01	-7.804578e+01
2.300000e-07	-5.403624e-06	-1.142487e-09	-3.767718e+01	-7.793995e+01
2.400000e-07	-5.394979e-06	-1.202174e-09	-3.761690e+01	-7.782957e+01
2.500000e-07	-5.385792e-06	-1.182878e-09	-3.755284e+01	-7.771474e+01
2.600000e-07	-5.375980e-06	-1.182842e-09	-3.748443e+01	-7.759555e+01
2.700000e-07	-5.365518e-06	-1.150856e-09	-3.741148e+01	-7.747214e+01
2.800000e-07	-5.354500e-06	-1.171930e-09	-3.733466e+01	-7.734462e+01
2.900000e-07	-5.343035e-06	-1.142121e-09	-3.725472e+01	-7.721314e+01
3.000000e-07	-5.331199e-06	-1.143074e-09	-3.717219e+01	-7.707784e+01
3.100000e-07	-5.318948e-06	-1.133531e-09	-3.708677e+01	-7.693886e+01
3.200000e-07	-5.306263e-06	-1.142900e-09	-3.699832e+01	-7.679636e+01
3.300000e-07	-5.293144e-06	-1.130952e-09	-3.690685e+01	-7.665049e+01
3.400000e-07	-5.279640e-06	-1.118955e-09	-3.681269e+01	-7.650140e+01
3.500000e-07	-5.265694e-06	-1.125942e-09	-3.671545e+01	-7.634925e+01
3.600000e-07	-5.251279e-06	-1.122207e-09	-3.661494e+01	-7.619419e+01
3.700000e-07	-5.236362e-06	-1.112329e-09	-3.651093e+01	-7.603635e+01
3.800000e-07	-5.221056e-06	-1.109681e-09	-3.640421e+01	-7.587589e+01
3.900000e-07	-5.205268e-06	-1.133799e-09	-3.629413e+01	-7.571294e+01
4.000000e-07	-5.188953e-06	-1.108251e-09	-3.618037e+01	-7.554763e+01
4.100000e-07	-5.172335e-06	-1.095929e-09	-3.606450e+01	-7.538006e+01
4.200000e-07	-5.155410e-06	-1.110722e-09	-3.594649e+01	-7.521036e+01
4.300000e-07	-5.138225e-06	-1.133485e-09	-3.582667e+01	-7.503863e+01
4.400000e-07	-5.120743e-06	-1.090296e-09	-3.570477e+01	-7.486494e+01
4.500000e-07	-5.102862e-06	-1.102239e-09	-3.558009e+01	-7.468938e+01
4.600000e-07	-5.084531e-06	-1.114089e-09	-3.545228e+01	-7.451201e+01
4.700000e-07	-5.065787e-06	-1.112291e-09	-3.532159e+01	-7.433289e+01
4.800000e-07	-5.046721e-06	-1.082151e-09	-3.518865e+01	-7.415206e+01
4.900000e-07	-5.027423e-06	-1.106256e-09	-3.505409e+01	-7.396954e+01
5.000000e-07	-5.007868e-06	-1.087380e-09	-3.491774e+01	-7.378536e+01
5.100000e-07	-4.988056e-06	-1.080334e-09	-3.477960e+01	-7.359952e+01
5.200000e-07	-4.967965e-06	-1.083206e-09	-3.463952e+01	-7.341201e+01
5.300000e-07	-4.947518e-06	-1.098073e-09	-3.449695e+01	-7.322282e+01
5.400000e-07	-4.926700e-06	-1.069307e-09	-3.435179e+01	-7.303193e+01
5.500000e-07	-4.905560e-06	-1.079562e-09	-3.420439e+01	-7.283929e+01
5.600000e-07	-4.884043e-06	-1.085494e-09	-3.405436e+01	-7.264487e+01
5.700000e-07	-4.862182e-06	-1.078428e-09	-3.390193e+01	-7.244860e+01
5.800000e-07	-4.840045e-06	-1.063986e-09	-3.374758e+01	-7.225044e+01
5.900000e-07	-4.817505e-06	-1.072250e-09	-3.359042e+01	-7.205030e+01
6.000000e-07	-4.794519e-06	-1.063782e-09	-3.343015e+01	-7.184813e+01
6.100000e-07	-4.771280e-06	-1.064941e-09	-3.326811e+01	-7.164383e+01
6.200000e-07	-4.747804e-06	-1.069624e-09	-3.310442e+01	-7.143734e+01
6.300000e-07	-4.724061e-06	-1.065930e-09	-3.293888e+01	-7.122857e+01
6.400000e-07	-4.700131e-06	-1.063323e-09	-3.277202e+01	-7.101742e+01
6.500000e-07	-4.675832e-06	-1.059323e-09	-3.260259e+01	-7.080382e+01
6.600000e-07	-4.651072e-06	-1.048291e-09	-3.242995e+01	-7.058767e+01
6.700000e-07	-4.625878e-06	-1.038896e-09	-3.225429e+01	-7.036888e+01
6.800000e-07	-4.600130e-06	-1.042178e-09	-3.207476e+01	-7.014737e+01
6.900000e-07	-4.573814e-06	-1.030051e-09	-3.189126e+01	-6.992304e+01
7.000000e-07	-4.547093e-06	-1.031933e-09	-3.170495e+01	-6.969582e+01
7.100000e-07	-4.520000e-06	-1.032149e-09	-3.151604e+01	-6.946561e+01
7.200000e-07	-4.492593e-06	-1.028707e-09	-3.132494e+01	-6.923234e+01
7.300000e-07	-4.465018e-06	-1.017270e-09	-3.113268e+01	-6.899592e+01
7.400000e-07	-4.437285e-06	-1.025538e-09	-3.093930e+01	-6.875628e+01
7.500000e-07	-4.409345e-06	-1.013301e-09	-3.074449e+01	-6.851334e+01
7.600000e-07	-4.381142e-06	-1.008830e-09	-3.054785e+01	-6.826704e+01
7.700000e-07	-4.352649e-06	-1.007186e-09	-3.034917e+01	-6.801730e+01
7.800000e-07	-4.323883e-06	-1.007023e-09	-3.014860e+01	-6.776407e+01
7.900000e-07	-4.294761e-06	-9.881936e-10	-2.994554e+01	-6.750727e+01
8.000000e-07	-4.265312e-06	-9.895876e-10	-2.974021e+01	-6.724684e+01
8.100000e-07	-4.235590e-06	-9.824055e-10	-2.953298e+01	-6.698274e+01
8.200000e-07	-4.205579e-06	-9.720803e-10	-2.932372e+01	-6.671491e+01
8.300000e-07	-4.175284e-06	-9.622816e-10	-2.911249e+01	-6.644329e+01
8.400000e-07	-4.144732e-06	-9.659835e-10	-2.889946e+01	-6.616782e+01
8.500000e-07	-4.113930e-06	-9.566869e-10	-2.868469e+01	-6.588847e+01
8.600000e-07	-4.082826e-06	-9.535719e-10	-2.846781e+01	-6.560518e+01
8.700000e-07	-4.051464e-06	-9.522369e-10	-2.824914e+01	-6.531791e+01
8.800000e-07	-4.019903e-06	-9.469795e-10	-2.802908e+01	-6.502660e+01
8.900000e-07	-3.988167e-06	-9.360583e-10	-2.780780e+01	-6.473122e+01
9.000000e-07	-3.956283e-06	-9.308951e-10	-2.758548e+01	-6.443172e+01
9.100000e-07	-3.924123e-06	-9.236176e-10	-2.736124e+01	-6.412805e+01
9.200000e-07	-3.891560e-06	-9.150510e-10	-2.713420e+01	-6.382017e+01
9.300000e-07	-3.858554e-06	-9.118618e-10	-2.690406e+01	-6.350804e+01
9.400000e-07	-3.825138e-06	-9.106873e-10	-2.667106e+01	-6.319162e+01
9.500000e-07	-3.791255e-06	-9.074997e-10	-2.643481e+01	-6.287086e+01
9.600000e-07	-3.756906e-06	-9.026307e-10	-2.619531e+01	-6.254573e+01
9.700000e-07	-3.722115e-06	-8.982919e-10	-2.595273e+01	-6.221618e+01
9.800000e-07	-3.686889e-06	-8.853196e-10	-2.570711e+01	-6.188219e+01
9.900000e-07	-3.651500e-06	-8.773807e-10	-2.546036e+01	-6.154371e+01
1.000000e-06	-3.616072e-06	-8.719762e-10	-2.521334e+01	-6.120071e+01
1.010000e-06	-3.580563e-06	-8.724855e-10	-2.496575e+01	-6.085317e+01
1.020000e-06	-3.544862e-06	-8.696374e-10	-2.471682e+01	-6.050105e+01
1.030000e-06	-3.508959e-06	-8.711586e-10	-2.446648e+01	-6.014435e+01
1.040000e-06	-3.472817e-06	-8.644672e-10	-2.421448e+01	-5.978302e+01
1.050000e-06	-3.436392e-06	-8.588069e-10	-2.396050e+01	-5.941707e+01
1.060000e-06	-3.399742e-06	-8.507666e-10	-2.370496e+01	-5.904649e+01
1.070000e-06	-3.362844e-06	-8.457288e-10	-2.344769e+01	-5.867126e+01
1.080000e-06	-3.325679e-06	-8.348446e-10	-2.318855e+01	-5.829140e+01
1.090000e-06	-3.288318e-06	-8.301497e-10	-2.292805e+01	-5.790691e+01
1.100000e-06	-3.250780e-06	-8.242472e-10	-2.266631e+01	-5.751780e+01
1.110000e-06	-3.213029e-06	-8.194820e-10	-2.240309e+01	-5.712409e+01
1.120000e-06	-3.175022e-06	-8.132167e-10	-2.213808e+01	-5.672581e+01
1.130000e-06	-3.136740e-06	-8.094963e-10	-2.187116e+01	-5.632300e+01
1.140000e-06	-3.098222e-06	-8.012897e-10	-2.160259e+01	-5.591568e+01
1.150000e-06	-3.059500e-06	-7.973036e-10	-2.133259e+01	-5.550391e+01
1.160000e-06	-3.020589e-06	-7.951761e-10	-2.106128e+01	-5.508773e+01
1.170000e-06	-2.981429e-06	-7.907227e-10	-2.078824e+01	-5.466719e+01
1.180000e-06	-2.942071e-06	-7.809381e-10	-2.051381e+01	-5.424236e+01
1.190000e-06	-2.902646e-06	-7.724919e-10	-2.023892e+01	-5.381328e+01
1.200000e-06	-2.863158e-06	-7.648250e-10	-1.996359e+01	-5.338002e+01
1.210000e-06	-2.823507e-06	-7.570408e-10	-1.968712e+01	-5.294264e+01
1.220000e-06	-2.783665e-06	-7.510408e-10	-1.940931e+01	-5.250120e+01
1.230000e-06	-2.743724e-06	-7.455351e-10	-1.913082e+01	-5.205577e+01
1.240000e-06	-2.703733e-06	-7.386953e-10	-1.885199e+01	-5.160638e+01
1.250000e-06	-2.663597e-06	-7.327536e-10	-1.857213e+01	-5.115310e+01
1.260000e-06	-2.623115e-06	-7.278189e-10	-1.828987e+01	-5.069596e+01
1.270000e-06	-2.582329e-06	-7.189987e-10	-1.800548e+01	-5.023500e+01
1.280000e-06	-2.541287e-06	-7.121962e-10	-1.771932e+01	-4.977023e+01
1.290000e-06	-2.499963e-06	-7.055568e-10	-1.743118e+01	-4.930167e+01
1.300000e-06	-2.458372e-06	-6.991664e-10	-1.714118e+01	-4.882930e+01
1.310000e-06	-2.416433e-06	-6.878501e-10	-1.684876e+01	-4.835311e+01
1.320000e-06	-2.374124e-06	-6.803647e-10	-1.655376e+01	-4.787305e+01
1.330000e-06	-2.331485e-06	-6.732738e-10	-1.625646e+01	-4.738905e+01
1.340000e-06	-2.288660e-06	-6.666440e-10	-1.595785e+01	-4.690103e+01
1.350000e-06	-2.245646e-06	-6.582642e-10	-1.565794e+01	-4.640888e+01
1.360000e-06	-2.202399e-06	-6.522914e-10	-1.535640e+01	-4.591246e+01
1.370000e-06	-2.159017e-06	-6.428160e-10	-1.505391e+01	-4.541160e+01
1.380000e-06	-2.115535e-06	-6.327415e-10	-1.475073e+01	-4.490611e+01
1.390000e-06	-2.071944e-06	-6.188662e-10	-1.444679e+01	-4.439576e+01
1.400000e-06	-2.028276e-06	-6.068236e-10	-1.414231e+01	-4.388029e+01
1.410000e-06	-1.984556e-06	-5.959991e-10	-1.383747e+01	-4.335941e+01
1.420000e-06	-1.940805e-06	-5.877487e-10	-1.353241e+01	-4.283281e+01
1.430000e-06	-1.896986e-06	-5.806537e-10	-1.322688e+01	-4.230012e+01
1.440000e-06	-1.853070e-06	-5.742320e-10	-1.292067e+01	-4.176097e+01
1.450000e-06	-1.809093e-06	-5.664030e-10	-1.261404e+01	-4.121492e+01
1.460000e-06	-1.764995e-06	-5.582039e-10	-1.230656e+01	-4.066153e+01
1.470000e-06	-1.720682e-06	-5.475137e-10	-1.199759e+01	-4.010031e+01
1.480000e-06	-1.676192e-06	-5.348484e-10	-1.168738e+01	-3.953076e+01
1.490000e-06	-1.631550e-06	-5.233129e-10	-1.137611e+01	-3.895234e+01
1.500000e-06	-1.586795e-06	-5.146843e-10	-1.106405e+01	-3.836448e+01
1.510000e-06	-1.541936e-06	-5.090603e-10	-1.075127e+01	-3.776659e+01
1.520000e-06	-1.496938e-06	-5.032164e-10	-1.043751e+01	-3.715807e+01
1.530000e-06	-1.451882e-06	-4.949595e-10	-1.012336e+01	-3.653830e+01
1.540000e-06	-1.406722e-06	-4.834165e-10	-9.808477e+00	-3.590664e+01
1.550000e-06	-1.361452e-06	-4.719595e-10	-9.492825e+00	-3.526244e+01
1.560000e-06	-1.316086e-06	-4.559096e-10	-9.176509e+00	-3.460504e+01
1.570000e-06	-1.270664e-06	-4.390722e-10	-8.859801e+00	-3.393380e+01
1.580000e-06	-1.225201e-06	-4.226735e-10	-8.542808e+00	-3.324806e+01
1.590000e-06	-1.179599e-06	-4.088883e-10	-8.224841e+00	-3.254718e+01
1.600000e-06	-1.133829e-06	-3.962640e-10	-7.905707e+00	-3.183051e+01
1.610000e-06	-1.088003e-06	-3.848146e-10	-7.586184e+00	-3.109746e+01
1.620000e-06	-1.042155e-06	-3.721855e-10	-7.266507e+00	-3.034741e+01
1.630000e-06	-9.962510e-07	-3.588694e-10	-6.946436e+00	-2.957980e+01
1.640000e-06	-9.503005e-07	-3.466130e-10	-6.626042e+00	-2.879410e+01
1.650000e-06	-9.042429e-07	-3.354784e-10	-6.304902e+00	-2.798980e+01
1.660000e-06	-8.581914e-07	-3.245401e-10	-5.983805e+00	-2.716644e+01
1.670000e-06	-8.121130e-07	-3.140405e-10	-5.662519e+00	-2.632362e+01
1.680000e-06	-7.658904e-07	-3.038606e-10	-5.340229e+00	-2.546096e+01
1.690000e-06	-7.195574e-07	-2.917492e-10	-5.017168e+00	-2.457817e+01
1.700000e-06	-6.732251e-07	-2.780230e-10	-4.694113e+00	-2.367498e+01
1.710000e-06	-6.268242e-07	-2.650870e-10	-4.370580e+00	-2.275122e+01
1.720000e-06	-5.803478e-07	-2.520367e-10	-4.046519e+00	-2.180677e+01
1.730000e-06	-5.338871e-07	-2.399225e-10	-3.722568e+00	-2.084158e+01
1.740000e-06	-4.873900e-07	-2.269996e-10	-3.398364e+00	-1.985566e+01
1.750000e-06	-4.408886e-07	-2.121983e-10	-3.074129e+00	-1.884913e+01
1.760000e-06	-3.942947e-07	-1.956792e-10	-2.749250e+00	-1.782214e+01
1.770000e-06	-3.475644e-07	-1.782375e-10	-2.423419e+00	-1.677495e+01
1.780000e-06	-3.008404e-07	-1.606852e-10	-2.097633e+00	-1.570789e+01
1.790000e-06	-2.541279e-07	-1.466872e-10	-1.771926e+00	-1.462138e+01
1.800000e-06	-2.074438e-07	-1.355828e-10	-1.446417e+00	-1.351589e+01
1.810000e-06	-1.607553e-07	-1.226405e-10	-1.120879e+00	-1.239200e+01
1.820000e-06	-1.139438e-07	-1.061961e-10	-7.944821e-01	-1.125034e+01
1.830000e-06	-6.717515e-08	-8.829664e-11	-4.683839e-01	-1.009165e+01
1.840000e-06	-2.047316e-08	-7.077550e-11	-1.427506e-01	-8.916700e+00
1.850000e-06	2.628813e-08	-5.464286e-11	1.832960e-01	-7.726368e+00
1.860000e-06	7.308679e-08	-3.984304e-11	5.096032e-01	-6.521582e+00
1.870000e-06	1.198004e-07	-2.338598e-11	8.353174e-01	-5.303334e+00
1.880000e-06	1.664520e-07	-5.474235e-12	1.160599e+00	-4.072680e+00
1.890000e-06	2.131569e-07	1.217768e-11	1.486253e+00	-2.830728e+00
1.900000e-06	2.597527e-07	2.973118e-11	1.811145e+00	-1.578638e+00
1.910000e-06	3.063028e-07	4.604521e-11	2.135719e+00	-3.176128e-01
1.920000e-06	3.528951e-07	6.221624e-11	2.460588e+00	9.511035e-01
1.930000e-06	3.994253e-07	8.165899e-11	2.785023e+00	2.226235e+00
1.940000e-06	4.459411e-07	1.009672e-10	3.109358e+00	3.506477e+00
1.950000e-06	4.924069e-07	1.204994e-10	3.433344e+00	4.790505e+00
1.960000e-06	5.388404e-07	1.378107e-10	3.757106e+00	6.076980e+00
1.970000e-06	5.852149e-07	1.522845e-10	4.080455e+00	7.364555e+00
1.980000e-06	6.315732e-07	1.673753e-10	4.403692e+00	8.651881e+00
1.990000e-06	6.779216e-07	1.821069e-10	4.726860e+00	9.937613e+00
2.000000e-06	7.241691e-07	1.985564e-10	5.049324e+00	1.122042e+01
2.010000e-06	7.703461e-07	2.181983e-10	5.371297e+00	1.249899e+01
2.020000e-06	8.164204e-07	2.391050e-10	5.692554e+00	1.377202e+01
2.030000e-06	8.623833e-07	2.601707e-10	6.013033e+00	1.503827e+01
2.040000e-06	9.083113e-07	2.819407e-10	6.333270e+00	1.629650e+01
2.050000e-06	9.542710e-07	2.999982e-10	6.653727e+00	1.754553e+01
2.060000e-06	1.000219e-06	3.142435e-10	6.974105e+00	1.878422e+01
2.070000e-06	1.046098e-06	3.270967e-10	7.294001e+00	2.001149e+01
2.080000e-06	1.091828e-06	3.418413e-10	7.612854e+00	2.122631e+01
2.090000e-06	1.137444e-06	3.603448e-10	7.930913e+00	2.242770e+01
2.100000e-06	1.183013e-06	3.828157e-10	8.248648e+00	2.361476e+01
2.110000e-06	1.228517e-06	4.062097e-10	8.565931e+00	2.478665e+01
2.120000e-06	1.273924e-06	4.281294e-10	8.882533e+00	2.594258e+01
2.130000e-06	1.319267e-06	4.423665e-10	9.198687e+00	2.708185e+01
2.140000e-06	1.364513e-06	4.524573e-10	9.514169e+00	2.820384e+01
2.150000e-06	1.409655e-06	4.611153e-10	9.828926e+00	2.930798e+01
2.160000e-06	1.454704e-06	4.694921e-10	1.014303e+01	3.039378e+01
2.170000e-06	1.499699e-06	4.824541e-10	1.045677e+01	3.146083e+01
2.180000e-06	1.544658e-06	5.017979e-10	1.077024e+01	3.250878e+01
2.190000e-06	1.589412e-06	5.257086e-10	1.108230e+01	3.353738e+01
2.200000e-06	1.633985e-06	5.468578e-10	1.139309e+01	3.454641e+01
2.210000e-06	1.678405e-06	5.637219e-10	1.170281e+01	3.553575e+01
2.220000e-06	1.722653e-06	5.721871e-10	1.201133e+01	3.650532e+01
2.230000e-06	1.766832e-06	5.761412e-10	1.231937e+01	3.745513e+01
2.240000e-06	1.810913e-06	5.817878e-10	1.262673e+01	3.838523e+01
2.250000e-06	1.854825e-06	5.931364e-10	1.293291e+01	3.929573e+01
2.260000e-06	1.898611e-06	6.079041e-10	1.323821e+01	4.018680e+01
2.270000e-06	1.942343e-06	6.234190e-10	1.354313e+01	4.105864e+01
2.280000e-06	1.986040e-06	6.382626e-10	1.384782e+01	4.191153e+01
2.290000e-06	2.029662e-06	6.508749e-10	1.415197e+01	4.274576e+01
2.300000e-06	2.073225e-06	6.608089e-10	1.445572e+01	4.356166e+01
2.310000e-06	2.116733e-06	6.681075e-10	1.475908e+01	4.435960e+01
2.320000e-06	2.160155e-06	6.731504e-10	1.506184e+01	4.513998e+01
2.330000e-06	2.203472e-06	6.815411e-10	1.536388e+01	4.590321e+01
2.340000e-06	2.246660e-06	6.917286e-10	1.566501e+01	4.664972e+01
2.350000e-06	2.289694e-06	7.025646e-10	1.596507e+01	4.737996e+01
2.360000e-06	2.332492e-06	7.116373e-10	1.626348e+01	4.809440e+01
2.370000e-06	2.375050e-06	7.215053e-10	1.656022e+01	4.879349e+01
2.380000e-06	2.417261e-06	7.317928e-10	1.685454e+01	4.947771e+01
2.390000e-06	2.459096e-06	7.409799e-10	1.714623e+01	5.014751e+01
2.400000e-06	2.500711e-06	7.516367e-10	1.743640e+01	5.080335e+01
2.410000e-06	2.542044e-06	7.619516e-10	1.772459e+01	5.144569e+01
2.420000e-06	2.583125e-06	7.695749e-10	1.801104e+01	5.207496e+01
2.430000e-06	2.623965e-06	7.741700e-10	1.829579e+01	5.269159e+01
2.440000e-06	2.664492e-06	7.800163e-10	1.857837e+01	5.329599e+01
2.450000e-06	2.704792e-06	7.859443e-10	1.885937e+01	5.388855e+01
2.460000e-06	2.744903e-06	7.926392e-10	1.913904e+01	5.446965e+01
2.470000e-06	2.784852e-06	8.021044e-10	1.941759e+01	5.503963e+01
2.480000e-06	2.824690e-06	8.115661e-10	1.969537e+01	5.559883e+01
2.490000e-06	2.864365e-06	8.193516e-10	1.997200e+01	5.614756e+01
2.500000e-06	2.903898e-06	8.286048e-10	2.024765e+01	5.668611e+01
2.510000e-06	2.943311e-06	8.373566e-10	2.052246e+01	5.721473e+01
2.520000e-06	2.982501e-06	8.441187e-10	2.079571e+01	5.773369e+01
2.530000e-06	3.021478e-06	8.495739e-10	2.106749e+01	5.824319e+01
2.540000e-06	3.060294e-06	8.558089e-10	2.133813e+01	5.874344e+01
2.550000e-06	3.098864e-06	8.619045e-10	2.160706e+01	5.923464e+01
2.560000e-06	3.137189e-06	8.664962e-10	2.187429e+01	5.971693e+01
2.570000e-06	3.175348e-06	8.710583e-10	2.214036e+01	6.019048e+01
2.580000e-06	3.213292e-06	8.777540e-10	2.240492e+01	6.065541e+01
2.590000e-06	3.250977e-06	8.871582e-10	2.266768e+01	6.111186e+01
2.600000e-06	3.288470e-06	8.978406e-10	2.292910e+01	6.155993e+01
2.610000e-06	3.325743e-06	9.054893e-10	2.318900e+01	6.199972e+01
2.620000e-06	3.362723e-06	9.110622e-10	2.344684e+01	6.243132e+01
2.630000e-06	3.399417e-06	9.156977e-10	2.370269e+01	6.285484e+01
2.640000e-06	3.435892e-06	9.176864e-10	2.395701e+01	6.327034e+01
2.650000e-06	3.472201e-06	9.196988e-10	2.421019e+01	6.367791e+01
2.660000e-06	3.508294e-06	9.259604e-10	2.446184e+01	6.407763e+01
2.670000e-06	3.544125e-06	9.347509e-10	2.471168e+01	6.446959e+01
2.680000e-06	3.579794e-06	9.425266e-10	2.496039e+01	6.485387e+01
2.690000e-06	3.615340e-06	9.480559e-10	2.520823e+01	6.523056e+01
2.700000e-06	3.650727e-06	9.508279e-10	2.545497e+01	6.559976e+01
2.710000e-06	3.685933e-06	9.549484e-10	2.570045e+01	6.596155e+01
2.720000e-06	3.720878e-06	9.615433e-10	2.594411e+01	6.631605e+01
2.730000e-06	3.755559e-06	9.677438e-10	2.618592e+01	6.666338e+01
2.740000e-06	3.789974e-06	9.716377e-10	2.642588e+01	6.700365e+01
2.750000e-06	3.823931e-06	9.746664e-10	2.666265e+01	6.733699e+01
2.760000e-06	3.857368e-06	9.753392e-10	2.689579e+01	6.766354e+01
2.770000e-06	3.890377e-06	9.752403e-10	2.712595e+01	6.798345e+01
2.780000e-06	3.922982e-06	9.775821e-10	2.735329e+01	6.829686e+01
2.790000e-06	3.955205e-06	9.834284e-10	2.757797e+01	6.860394e+01
2.800000e-06	3.987123e-06	9.917887e-10	2.780052e+01	6.890484e+01
2.810000e-06	4.018864e-06	1.000006e-09	2.802183e+01	6.919975e+01
2.820000e-06	4.050495e-06	1.006741e-09	2.824238e+01	6.948883e+01
2.830000e-06	4.081938e-06	1.009479e-09	2.846162e+01	6.977226e+01
2.840000e-06	4.113123e-06	1.009031e-09	2.867907e+01	7.005021e+01
2.850000e-06	4.144066e-06	1.007740e-09	2.889482e+01	7.032288e+01
2.860000e-06	4.174711e-06	1.008194e-09	2.910849e+01	7.059042e+01
2.870000e-06	4.205027e-06	1.011722e-09	2.931987e+01	7.085303e+01
2.880000e-06	4.234994e-06	1.017313e-09	2.952882e+01	7.111087e+01
2.890000e-06	4.264642e-06	1.023538e-09	2.973554e+01	7.136411e+01
2.900000e-06	4.294054e-06	1.028621e-09	2.994062e+01	7.161290e+01
2.910000e-06	4.323168e-06	1.032995e-09	3.014361e+01	7.185741e+01
