# Temperatura_=_-2.42
# Concentracion g/m^3_=_1620.0
# C_Vs_to_Am_M_A/Vsm_=_65563218390.804596
# pendiente_HvsI_1/m_=_3716.3
# ordenada_HvsI_A/m_=_1297.0
# frecuencia_Hz_=_135103.73098407028

Tiempo_(s)	Campo_(V.s)	Magnetizacion_(V.s)	Campo_(kA/m)	Magnetizacion_(A/m)
0.000000e+00	-5.509331e-06	-1.044755e-09	-3.836667e+01	-6.834803e+01
1.000000e-08	-5.509622e-06	-1.045368e-09	-3.836870e+01	-6.833419e+01
2.000000e-08	-5.509645e-06	-1.043897e-09	-3.836886e+01	-6.831899e+01
3.000000e-08	-5.509305e-06	-1.042382e-09	-3.836649e+01	-6.830221e+01
4.000000e-08	-5.508426e-06	-1.040747e-09	-3.836037e+01	-6.828360e+01
5.000000e-08	-5.506985e-06	-1.037809e-09	-3.835033e+01	-6.826294e+01
6.000000e-08	-5.504932e-06	-1.035531e-09	-3.833603e+01	-6.823999e+01
7.000000e-08	-5.502328e-06	-1.037972e-09	-3.831790e+01	-6.821453e+01
8.000000e-08	-5.499277e-06	-1.061409e-09	-3.829666e+01	-6.818634e+01
9.000000e-08	-5.495768e-06	-1.056769e-09	-3.827222e+01	-6.815522e+01
1.000000e-07	-5.491804e-06	-9.941050e-10	-3.824461e+01	-6.812096e+01
1.100000e-07	-5.487423e-06	-9.778996e-10	-3.821410e+01	-6.808338e+01
1.200000e-07	-5.482863e-06	-1.053624e-09	-3.818235e+01	-6.804232e+01
1.300000e-07	-5.478068e-06	-1.080073e-09	-3.814896e+01	-6.799763e+01
1.400000e-07	-5.472905e-06	-1.017935e-09	-3.811300e+01	-6.794918e+01
1.500000e-07	-5.467432e-06	-9.654430e-10	-3.807489e+01	-6.789687e+01
1.600000e-07	-5.461620e-06	-1.041777e-09	-3.803441e+01	-6.784060e+01
1.700000e-07	-5.455343e-06	-1.067553e-09	-3.799070e+01	-6.778031e+01
1.800000e-07	-5.448576e-06	-1.006205e-09	-3.794358e+01	-6.771597e+01
1.900000e-07	-5.441467e-06	-9.717513e-10	-3.789407e+01	-6.764756e+01
2.000000e-07	-5.434094e-06	-1.038986e-09	-3.784272e+01	-6.757508e+01
2.100000e-07	-5.426448e-06	-1.077896e-09	-3.778948e+01	-6.749857e+01
2.200000e-07	-5.418498e-06	-1.034141e-09	-3.773411e+01	-6.741809e+01
2.300000e-07	-5.410280e-06	-9.962639e-10	-3.767689e+01	-6.733372e+01
2.400000e-07	-5.401659e-06	-1.016446e-09	-3.761685e+01	-6.724556e+01
2.500000e-07	-5.392377e-06	-1.036400e-09	-3.755221e+01	-6.715374e+01
2.600000e-07	-5.382404e-06	-1.010418e-09	-3.748276e+01	-6.705841e+01
2.700000e-07	-5.371835e-06	-1.000235e-09	-3.740916e+01	-6.695974e+01
2.800000e-07	-5.360739e-06	-1.002941e-09	-3.733189e+01	-6.685790e+01
2.900000e-07	-5.349149e-06	-1.003797e-09	-3.725117e+01	-6.675310e+01
3.000000e-07	-5.337197e-06	-9.715350e-10	-3.716794e+01	-6.664555e+01
3.100000e-07	-5.324948e-06	-9.672305e-10	-3.708264e+01	-6.653548e+01
3.200000e-07	-5.312282e-06	-9.729887e-10	-3.699443e+01	-6.642313e+01
3.300000e-07	-5.299259e-06	-9.950822e-10	-3.690374e+01	-6.630874e+01
3.400000e-07	-5.285913e-06	-9.744390e-10	-3.681080e+01	-6.619255e+01
3.500000e-07	-5.272129e-06	-9.585868e-10	-3.671481e+01	-6.607481e+01
3.600000e-07	-5.257894e-06	-9.719638e-10	-3.661568e+01	-6.595577e+01
3.700000e-07	-5.243382e-06	-9.855423e-10	-3.651462e+01	-6.583569e+01
3.800000e-07	-5.228300e-06	-9.425963e-10	-3.640959e+01	-6.571479e+01
3.900000e-07	-5.212461e-06	-9.482048e-10	-3.629929e+01	-6.559331e+01
4.000000e-07	-5.196221e-06	-9.966053e-10	-3.618619e+01	-6.547148e+01
4.100000e-07	-5.179632e-06	-9.665025e-10	-3.607066e+01	-6.534949e+01
4.200000e-07	-5.162644e-06	-9.146921e-10	-3.595236e+01	-6.522755e+01
4.300000e-07	-5.145306e-06	-9.755443e-10	-3.583162e+01	-6.510582e+01
4.400000e-07	-5.127740e-06	-1.004769e-09	-3.570929e+01	-6.498448e+01
4.500000e-07	-5.109846e-06	-9.212536e-10	-3.558468e+01	-6.486364e+01
4.600000e-07	-5.091485e-06	-9.260097e-10	-3.545682e+01	-6.474343e+01
4.700000e-07	-5.072703e-06	-1.003358e-09	-3.532602e+01	-6.462394e+01
4.800000e-07	-5.053552e-06	-9.527334e-10	-3.519265e+01	-6.450522e+01
4.900000e-07	-5.034147e-06	-8.983578e-10	-3.505751e+01	-6.438733e+01
5.000000e-07	-5.014594e-06	-9.687538e-10	-3.492135e+01	-6.427026e+01
5.100000e-07	-4.994830e-06	-9.694458e-10	-3.478372e+01	-6.415402e+01
5.200000e-07	-4.974690e-06	-9.005591e-10	-3.464346e+01	-6.403855e+01
5.300000e-07	-4.954212e-06	-9.420302e-10	-3.450085e+01	-6.392379e+01
5.400000e-07	-4.933437e-06	-9.777470e-10	-3.435618e+01	-6.380966e+01
5.500000e-07	-4.912235e-06	-9.021633e-10	-3.420853e+01	-6.369602e+01
5.600000e-07	-4.890684e-06	-9.116617e-10	-3.405845e+01	-6.358274e+01
5.700000e-07	-4.868856e-06	-9.738658e-10	-3.390644e+01	-6.346966e+01
5.800000e-07	-4.846614e-06	-9.306479e-10	-3.375154e+01	-6.335658e+01
5.900000e-07	-4.823944e-06	-8.994989e-10	-3.359367e+01	-6.324329e+01
6.000000e-07	-4.800942e-06	-9.544062e-10	-3.343349e+01	-6.312958e+01
6.100000e-07	-4.777699e-06	-9.393901e-10	-3.327163e+01	-6.301520e+01
6.200000e-07	-4.754202e-06	-8.997290e-10	-3.310799e+01	-6.289989e+01
6.300000e-07	-4.730522e-06	-9.347490e-10	-3.294309e+01	-6.278339e+01
6.400000e-07	-4.706630e-06	-9.473076e-10	-3.277671e+01	-6.266541e+01
6.500000e-07	-4.682398e-06	-9.098996e-10	-3.260796e+01	-6.254567e+01
6.600000e-07	-4.657788e-06	-9.225946e-10	-3.243658e+01	-6.242388e+01
6.700000e-07	-4.632633e-06	-9.300452e-10	-3.226139e+01	-6.229975e+01
6.800000e-07	-4.606904e-06	-9.002877e-10	-3.208222e+01	-6.217298e+01
6.900000e-07	-4.580661e-06	-9.018111e-10	-3.189946e+01	-6.204330e+01
7.000000e-07	-4.553942e-06	-9.191916e-10	-3.171340e+01	-6.191040e+01
7.100000e-07	-4.526816e-06	-9.018903e-10	-3.152450e+01	-6.177402e+01
7.200000e-07	-4.499419e-06	-8.997731e-10	-3.133370e+01	-6.163389e+01
7.300000e-07	-4.471888e-06	-9.103889e-10	-3.114198e+01	-6.148976e+01
7.400000e-07	-4.444191e-06	-8.956096e-10	-3.094910e+01	-6.134139e+01
7.500000e-07	-4.416245e-06	-8.888781e-10	-3.075448e+01	-6.118855e+01
7.600000e-07	-4.387973e-06	-9.023214e-10	-3.055760e+01	-6.103104e+01
7.700000e-07	-4.359360e-06	-8.958009e-10	-3.035834e+01	-6.086867e+01
7.800000e-07	-4.330428e-06	-8.837853e-10	-3.015686e+01	-6.070128e+01
7.900000e-07	-4.301224e-06	-8.898428e-10	-2.995348e+01	-6.052873e+01
8.000000e-07	-4.271747e-06	-8.820428e-10	-2.974820e+01	-6.035089e+01
8.100000e-07	-4.241997e-06	-8.633726e-10	-2.954103e+01	-6.016767e+01
8.200000e-07	-4.212032e-06	-8.628741e-10	-2.933235e+01	-5.997900e+01
8.300000e-07	-4.181708e-06	-8.644006e-10	-2.912118e+01	-5.978482e+01
8.400000e-07	-4.151009e-06	-8.535366e-10	-2.890739e+01	-5.958511e+01
8.500000e-07	-4.120065e-06	-8.571285e-10	-2.869190e+01	-5.937986e+01
8.600000e-07	-4.088923e-06	-8.646230e-10	-2.847503e+01	-5.916911e+01
8.700000e-07	-4.057580e-06	-8.555677e-10	-2.825676e+01	-5.895288e+01
8.800000e-07	-4.026053e-06	-8.428563e-10	-2.803721e+01	-5.873126e+01
8.900000e-07	-3.994336e-06	-8.430802e-10	-2.781633e+01	-5.850431e+01
9.000000e-07	-3.962407e-06	-8.342972e-10	-2.759398e+01	-5.827215e+01
9.100000e-07	-3.930193e-06	-8.228189e-10	-2.736964e+01	-5.803490e+01
9.200000e-07	-3.897657e-06	-8.239893e-10	-2.714307e+01	-5.779268e+01
9.300000e-07	-3.864729e-06	-8.241730e-10	-2.691376e+01	-5.754566e+01
9.400000e-07	-3.831298e-06	-8.129529e-10	-2.668094e+01	-5.729398e+01
9.500000e-07	-3.797404e-06	-8.108840e-10	-2.644491e+01	-5.703783e+01
9.600000e-07	-3.763038e-06	-8.144790e-10	-2.620558e+01	-5.677739e+01
9.700000e-07	-3.728248e-06	-8.064076e-10	-2.596331e+01	-5.651282e+01
9.800000e-07	-3.693211e-06	-7.962860e-10	-2.571931e+01	-5.624433e+01
9.900000e-07	-3.657967e-06	-7.950433e-10	-2.547387e+01	-5.597210e+01
1.000000e-06	-3.622468e-06	-7.904800e-10	-2.522666e+01	-5.569631e+01
1.010000e-06	-3.586821e-06	-7.841873e-10	-2.497842e+01	-5.541715e+01
1.020000e-06	-3.551084e-06	-7.873238e-10	-2.472955e+01	-5.513480e+01
1.030000e-06	-3.515188e-06	-7.883918e-10	-2.447957e+01	-5.484942e+01
1.040000e-06	-3.479050e-06	-7.834001e-10	-2.422791e+01	-5.456118e+01
1.050000e-06	-3.442637e-06	-7.839465e-10	-2.397433e+01	-5.427022e+01
1.060000e-06	-3.405993e-06	-7.844299e-10	-2.371914e+01	-5.397668e+01
1.070000e-06	-3.369071e-06	-7.778995e-10	-2.346202e+01	-5.368068e+01
1.080000e-06	-3.331863e-06	-7.676434e-10	-2.320291e+01	-5.338233e+01
1.090000e-06	-3.294449e-06	-7.633451e-10	-2.294236e+01	-5.308171e+01
1.100000e-06	-3.256810e-06	-7.593509e-10	-2.268024e+01	-5.277889e+01
1.110000e-06	-3.219008e-06	-7.549613e-10	-2.241699e+01	-5.247391e+01
1.120000e-06	-3.181033e-06	-7.535686e-10	-2.215253e+01	-5.216682e+01
1.130000e-06	-3.142797e-06	-7.513257e-10	-2.188626e+01	-5.185761e+01
1.140000e-06	-3.104313e-06	-7.473154e-10	-2.161826e+01	-5.154628e+01
1.150000e-06	-3.065557e-06	-7.405179e-10	-2.134837e+01	-5.123278e+01
1.160000e-06	-3.026600e-06	-7.360404e-10	-2.107707e+01	-5.091707e+01
1.170000e-06	-2.987524e-06	-7.298557e-10	-2.080495e+01	-5.059906e+01
1.180000e-06	-2.948239e-06	-7.228328e-10	-2.053137e+01	-5.027865e+01
1.190000e-06	-2.908766e-06	-7.163548e-10	-2.025648e+01	-4.995573e+01
1.200000e-06	-2.869210e-06	-7.115380e-10	-1.998102e+01	-4.963016e+01
1.210000e-06	-2.829532e-06	-7.076325e-10	-1.970470e+01	-4.930178e+01
1.220000e-06	-2.789701e-06	-7.036136e-10	-1.942732e+01	-4.897041e+01
1.230000e-06	-2.749742e-06	-6.992040e-10	-1.914905e+01	-4.863585e+01
1.240000e-06	-2.709590e-06	-6.921217e-10	-1.886943e+01	-4.829791e+01
1.250000e-06	-2.669165e-06	-6.860367e-10	-1.858791e+01	-4.795634e+01
1.260000e-06	-2.628489e-06	-6.815507e-10	-1.830465e+01	-4.761090e+01
1.270000e-06	-2.587647e-06	-6.758057e-10	-1.802022e+01	-4.726136e+01
1.280000e-06	-2.546514e-06	-6.704849e-10	-1.773378e+01	-4.690743e+01
1.290000e-06	-2.504971e-06	-6.629959e-10	-1.744448e+01	-4.654884e+01
1.300000e-06	-2.463169e-06	-6.561802e-10	-1.715337e+01	-4.618532e+01
1.310000e-06	-2.421174e-06	-6.476661e-10	-1.686092e+01	-4.581656e+01
1.320000e-06	-2.378816e-06	-6.402457e-10	-1.656594e+01	-4.544226e+01
1.330000e-06	-2.336137e-06	-6.350580e-10	-1.626873e+01	-4.506213e+01
1.340000e-06	-2.293256e-06	-6.290636e-10	-1.597011e+01	-4.467584e+01
1.350000e-06	-2.250136e-06	-6.243693e-10	-1.566982e+01	-4.428310e+01
1.360000e-06	-2.206852e-06	-6.205363e-10	-1.536839e+01	-4.388359e+01
1.370000e-06	-2.163491e-06	-6.171258e-10	-1.506643e+01	-4.347698e+01
1.380000e-06	-2.120032e-06	-6.102164e-10	-1.476378e+01	-4.306298e+01
1.390000e-06	-2.076439e-06	-6.019732e-10	-1.446021e+01	-4.264125e+01
1.400000e-06	-2.032779e-06	-5.946351e-10	-1.415616e+01	-4.221150e+01
1.410000e-06	-1.989088e-06	-5.863501e-10	-1.385190e+01	-4.177341e+01
1.420000e-06	-1.945327e-06	-5.764593e-10	-1.354715e+01	-4.132667e+01
1.430000e-06	-1.901478e-06	-5.698056e-10	-1.324178e+01	-4.087099e+01
1.440000e-06	-1.857544e-06	-5.648592e-10	-1.293583e+01	-4.040605e+01
1.450000e-06	-1.813528e-06	-5.581911e-10	-1.262931e+01	-3.993157e+01
1.460000e-06	-1.769413e-06	-5.524660e-10	-1.232210e+01	-3.944727e+01
1.470000e-06	-1.725109e-06	-5.440106e-10	-1.201356e+01	-3.895284e+01
1.480000e-06	-1.680621e-06	-5.342895e-10	-1.170375e+01	-3.844803e+01
1.490000e-06	-1.635952e-06	-5.262721e-10	-1.139268e+01	-3.793254e+01
1.500000e-06	-1.591101e-06	-5.194314e-10	-1.108033e+01	-3.740612e+01
1.510000e-06	-1.546138e-06	-5.129425e-10	-1.076722e+01	-3.686851e+01
1.520000e-06	-1.501136e-06	-5.024997e-10	-1.045382e+01	-3.631945e+01
1.530000e-06	-1.456037e-06	-4.910012e-10	-1.013976e+01	-3.575869e+01
1.540000e-06	-1.410787e-06	-4.825891e-10	-9.824643e+00	-3.518599e+01
1.550000e-06	-1.365442e-06	-4.791074e-10	-9.508861e+00	-3.460113e+01
1.560000e-06	-1.320014e-06	-4.761365e-10	-9.192501e+00	-3.400387e+01
1.570000e-06	-1.274490e-06	-4.706288e-10	-8.875478e+00	-3.339399e+01
1.580000e-06	-1.228884e-06	-4.625404e-10	-8.557879e+00	-3.277129e+01
1.590000e-06	-1.183254e-06	-4.491815e-10	-8.240111e+00	-3.213556e+01
1.600000e-06	-1.137569e-06	-4.355551e-10	-7.921963e+00	-3.148662e+01
1.610000e-06	-1.091786e-06	-4.243185e-10	-7.603139e+00	-3.082427e+01
1.620000e-06	-1.045940e-06	-4.134542e-10	-7.283867e+00	-3.014835e+01
1.630000e-06	-9.999838e-07	-4.043282e-10	-6.963831e+00	-2.945869e+01
1.640000e-06	-9.539619e-07	-3.969482e-10	-6.643337e+00	-2.875515e+01
1.650000e-06	-9.078816e-07	-3.880151e-10	-6.322436e+00	-2.803758e+01
1.660000e-06	-8.617243e-07	-3.771004e-10	-6.000999e+00	-2.730587e+01
1.670000e-06	-8.155033e-07	-3.651747e-10	-5.679119e+00	-2.655991e+01
1.680000e-06	-7.691891e-07	-3.523474e-10	-5.356589e+00	-2.579960e+01
1.690000e-06	-7.228706e-07	-3.388692e-10	-5.034030e+00	-2.502486e+01
1.700000e-06	-6.765317e-07	-3.266115e-10	-4.711328e+00	-2.423565e+01
1.710000e-06	-6.300861e-07	-3.158455e-10	-4.387884e+00	-2.343192e+01
1.720000e-06	-5.835295e-07	-3.038678e-10	-4.063666e+00	-2.261365e+01
1.730000e-06	-5.369370e-07	-2.910526e-10	-3.739199e+00	-2.178085e+01
1.740000e-06	-4.903734e-07	-2.785033e-10	-3.414933e+00	-2.093355e+01
1.750000e-06	-4.437184e-07	-2.652116e-10	-3.090030e+00	-2.007180e+01
1.760000e-06	-3.970509e-07	-2.520787e-10	-2.765040e+00	-1.919569e+01
1.770000e-06	-3.503902e-07	-2.393086e-10	-2.440098e+00	-1.830530e+01
1.780000e-06	-3.036645e-07	-2.235917e-10	-2.114702e+00	-1.740079e+01
1.790000e-06	-2.569649e-07	-2.071884e-10	-1.789489e+00	-1.648231e+01
1.800000e-06	-2.102049e-07	-1.937638e-10	-1.463855e+00	-1.555006e+01
1.810000e-06	-1.634151e-07	-1.804922e-10	-1.138014e+00	-1.460426e+01
1.820000e-06	-1.166267e-07	-1.662524e-10	-8.121814e-01	-1.364518e+01
1.830000e-06	-6.978190e-08	-1.525188e-10	-4.859572e-01	-1.267311e+01
1.840000e-06	-2.292222e-08	-1.386811e-10	-1.596291e-01	-1.168837e+01
1.850000e-06	2.389788e-08	-1.249248e-10	1.664235e-01	-1.069132e+01
1.860000e-06	7.068839e-08	-1.117332e-10	4.922699e-01	-9.682353e+00
1.870000e-06	1.174126e-07	-9.590257e-11	8.176549e-01	-8.661903e+00
1.880000e-06	1.641725e-07	-7.924032e-11	1.143288e+00	-7.630432e+00
1.890000e-06	2.109705e-07	-6.410377e-11	1.469187e+00	-6.588435e+00
1.900000e-06	2.576849e-07	-5.005213e-11	1.794503e+00	-5.536443e+00
1.910000e-06	3.044305e-07	-3.727636e-11	2.120037e+00	-4.475021e+00
1.920000e-06	3.511928e-07	-2.329026e-11	2.445687e+00	-3.404763e+00
1.930000e-06	3.979494e-07	-6.179078e-12	2.771297e+00	-2.326295e+00
1.940000e-06	4.447111e-07	1.122504e-11	3.096943e+00	-1.240273e+00
1.950000e-06	4.912784e-07	2.649490e-11	3.421235e+00	-1.473813e-01
1.960000e-06	5.376176e-07	4.140828e-11	3.743939e+00	9.516712e-01
1.970000e-06	5.839355e-07	5.488548e-11	4.066494e+00	2.056150e+00
1.980000e-06	6.303037e-07	6.718608e-11	4.389400e+00	3.165299e+00
1.990000e-06	6.767133e-07	7.980811e-11	4.712593e+00	4.278343e+00
2.000000e-06	7.230906e-07	9.389470e-11	5.035562e+00	5.394487e+00
2.010000e-06	7.693890e-07	1.126631e-10	5.357982e+00	6.512922e+00
2.020000e-06	8.156620e-07	1.305254e-10	5.680224e+00	7.632829e+00
2.030000e-06	8.618420e-07	1.492141e-10	6.001819e+00	8.753376e+00
2.040000e-06	9.078870e-07	1.682206e-10	6.322474e+00	9.873726e+00
2.050000e-06	9.538416e-07	1.831976e-10	6.642499e+00	1.099304e+01
2.060000e-06	9.997701e-07	1.965405e-10	6.962343e+00	1.211047e+01
2.070000e-06	1.045764e-06	2.098852e-10	7.282642e+00	1.322519e+01
2.080000e-06	1.091727e-06	2.252586e-10	7.602728e+00	1.433635e+01
2.090000e-06	1.137501e-06	2.423254e-10	7.921493e+00	1.544314e+01
2.100000e-06	1.183167e-06	2.611236e-10	8.239507e+00	1.654473e+01
2.110000e-06	1.228786e-06	2.794628e-10	8.557194e+00	1.764033e+01
2.120000e-06	1.274289e-06	2.954293e-10	8.874079e+00	1.872916e+01
2.130000e-06	1.319654e-06	3.088983e-10	9.189996e+00	1.981045e+01
2.140000e-06	1.364865e-06	3.216551e-10	9.504843e+00	2.088347e+01
2.150000e-06	1.410002e-06	3.343934e-10	9.819176e+00	2.194748e+01
2.160000e-06	1.455150e-06	3.482771e-10	1.013358e+01	2.300182e+01
2.170000e-06	1.500228e-06	3.634568e-10	1.044751e+01	2.404581e+01
2.180000e-06	1.545136e-06	3.794569e-10	1.076024e+01	2.507883e+01
2.190000e-06	1.589892e-06	3.958234e-10	1.107192e+01	2.610028e+01
2.200000e-06	1.634577e-06	4.117678e-10	1.138310e+01	2.710961e+01
2.210000e-06	1.679189e-06	4.248819e-10	1.169378e+01	2.810628e+01
2.220000e-06	1.723605e-06	4.347989e-10	1.200309e+01	2.908981e+01
2.230000e-06	1.767843e-06	4.443274e-10	1.231116e+01	3.005975e+01
2.240000e-06	1.811972e-06	4.569720e-10	1.261847e+01	3.101569e+01
2.250000e-06	1.855985e-06	4.709382e-10	1.292497e+01	3.195726e+01
2.260000e-06	1.899917e-06	4.852293e-10	1.323092e+01	3.288412e+01
2.270000e-06	1.943759e-06	4.990616e-10	1.353623e+01	3.379597e+01
2.280000e-06	1.987466e-06	5.113460e-10	1.384060e+01	3.469257e+01
2.290000e-06	2.031110e-06	5.231665e-10	1.414454e+01	3.557369e+01
2.300000e-06	2.074763e-06	5.355685e-10	1.444853e+01	3.643915e+01
2.310000e-06	2.118358e-06	5.479261e-10	1.475213e+01	3.728882e+01
2.320000e-06	2.161842e-06	5.591194e-10	1.505494e+01	3.812259e+01
2.330000e-06	2.205217e-06	5.710070e-10	1.535701e+01	3.894038e+01
2.340000e-06	2.248504e-06	5.820166e-10	1.565846e+01	3.974215e+01
2.350000e-06	2.291667e-06	5.914328e-10	1.595904e+01	4.052790e+01
2.360000e-06	2.334641e-06	6.013496e-10	1.625831e+01	4.129766e+01
2.370000e-06	2.377377e-06	6.130580e-10	1.655592e+01	4.205147e+01
2.380000e-06	2.419748e-06	6.251135e-10	1.685099e+01	4.278941e+01
2.390000e-06	2.461849e-06	6.367701e-10	1.714418e+01	4.351158e+01
2.400000e-06	2.503686e-06	6.467325e-10	1.743553e+01	4.421812e+01
2.410000e-06	2.545124e-06	6.549724e-10	1.772410e+01	4.490916e+01
2.420000e-06	2.586221e-06	6.626072e-10	1.801030e+01	4.558488e+01
2.430000e-06	2.627047e-06	6.704983e-10	1.829461e+01	4.624546e+01
2.440000e-06	2.667574e-06	6.782909e-10	1.857684e+01	4.689109e+01
2.450000e-06	2.707767e-06	6.868348e-10	1.885674e+01	4.752198e+01
2.460000e-06	2.747785e-06	6.976802e-10	1.913542e+01	4.813837e+01
2.470000e-06	2.787704e-06	7.085360e-10	1.941342e+01	4.874048e+01
2.480000e-06	2.827454e-06	7.178974e-10	1.969023e+01	4.932856e+01
2.490000e-06	2.867054e-06	7.242720e-10	1.996600e+01	4.990284e+01
2.500000e-06	2.906532e-06	7.286039e-10	2.024093e+01	5.046359e+01
2.510000e-06	2.945869e-06	7.353185e-10	2.051487e+01	5.101105e+01
2.520000e-06	2.985068e-06	7.435704e-10	2.078785e+01	5.154550e+01
2.530000e-06	3.024129e-06	7.527681e-10	2.105987e+01	5.206717e+01
2.540000e-06	3.063022e-06	7.637043e-10	2.133071e+01	5.257634e+01
2.550000e-06	3.101609e-06	7.738274e-10	2.159943e+01	5.307327e+01
2.560000e-06	3.139895e-06	7.798557e-10	2.186605e+01	5.355820e+01
2.570000e-06	3.178059e-06	7.836607e-10	2.213183e+01	5.403140e+01
2.580000e-06	3.216024e-06	7.896371e-10	2.239621e+01	5.449311e+01
2.590000e-06	3.253726e-06	7.972231e-10	2.265876e+01	5.494358e+01
2.600000e-06	3.291221e-06	8.054436e-10	2.291988e+01	5.538306e+01
2.610000e-06	3.328504e-06	8.131027e-10	2.317952e+01	5.581179e+01
2.620000e-06	3.365602e-06	8.203117e-10	2.343787e+01	5.623000e+01
2.630000e-06	3.402486e-06	8.270731e-10	2.369472e+01	5.663792e+01
2.640000e-06	3.439068e-06	8.329571e-10	2.394948e+01	5.703578e+01
2.650000e-06	3.475316e-06	8.394770e-10	2.420190e+01	5.742381e+01
2.660000e-06	3.511352e-06	8.468428e-10	2.445286e+01	5.780222e+01
2.670000e-06	3.547245e-06	8.515783e-10	2.470282e+01	5.817123e+01
2.680000e-06	3.583043e-06	8.534687e-10	2.495211e+01	5.853105e+01
2.690000e-06	3.618746e-06	8.558291e-10	2.520074e+01	5.888188e+01
2.700000e-06	3.654282e-06	8.600119e-10	2.544821e+01	5.922393e+01
2.710000e-06	3.689630e-06	8.672606e-10	2.569437e+01	5.955741e+01
2.720000e-06	3.724771e-06	8.752605e-10	2.593910e+01	5.988250e+01
2.730000e-06	3.759621e-06	8.816443e-10	2.618179e+01	6.019941e+01
2.740000e-06	3.794070e-06	8.849155e-10	2.642169e+01	6.050832e+01
2.750000e-06	3.828015e-06	8.854357e-10	2.665808e+01	6.080942e+01
2.760000e-06	3.861436e-06	8.850069e-10	2.689082e+01	6.110290e+01
2.770000e-06	3.894392e-06	8.834480e-10	2.712032e+01	6.138895e+01
2.780000e-06	3.926967e-06	8.836759e-10	2.734718e+01	6.166773e+01
2.790000e-06	3.959241e-06	8.894935e-10	2.757193e+01	6.193944e+01
2.800000e-06	3.991205e-06	8.977257e-10	2.779453e+01	6.220424e+01
2.810000e-06	4.022924e-06	9.042697e-10	2.801542e+01	6.246231e+01
2.820000e-06	4.054499e-06	9.075564e-10	2.823530e+01	6.271382e+01
2.830000e-06	4.085906e-06	9.075832e-10	2.845402e+01	6.295892e+01
2.840000e-06	4.117183e-06	9.058295e-10	2.867183e+01	6.319779e+01
2.850000e-06	4.148254e-06	9.043525e-10	2.888820e+01	6.343057e+01
2.860000e-06	4.178972e-06	9.064544e-10	2.910212e+01	6.365742e+01
2.870000e-06	4.209391e-06	9.108175e-10	2.931396e+01	6.387848e+01
2.880000e-06	4.239487e-06	9.151577e-10	2.952355e+01	6.409390e+01
2.890000e-06	4.269250e-06	9.184377e-10	2.973082e+01	6.430381e+01
2.900000e-06	4.298705e-06	9.195447e-10	2.993594e+01	6.450833e+01
