# Temperatura_=_-0.3
# Concentracion g/m^3_=_1620.0
# C_Vs_to_Am_M_A/Vsm_=_65563218390.804596
# pendiente_HvsI_1/m_=_3716.3
# ordenada_HvsI_A/m_=_1297.0
# frecuencia_Hz_=_135106.64257285075

Tiempo_(s)	Campo_(V.s)	Magnetizacion_(V.s)	Campo_(kA/m)	Magnetizacion_(A/m)
0.000000e+00	-5.519412e-06	-1.475466e-09	-3.836811e+01	-9.416844e+01
1.000000e-08	-5.519657e-06	-1.472275e-09	-3.836981e+01	-9.415238e+01
2.000000e-08	-5.519630e-06	-1.470620e-09	-3.836963e+01	-9.413720e+01
3.000000e-08	-5.519142e-06	-1.470590e-09	-3.836623e+01	-9.412298e+01
4.000000e-08	-5.518094e-06	-1.472438e-09	-3.835895e+01	-9.410975e+01
5.000000e-08	-5.516589e-06	-1.472225e-09	-3.834849e+01	-9.409751e+01
6.000000e-08	-5.514555e-06	-1.462174e-09	-3.833435e+01	-9.408623e+01
7.000000e-08	-5.511873e-06	-1.446128e-09	-3.831570e+01	-9.407586e+01
8.000000e-08	-5.508727e-06	-1.465430e-09	-3.829383e+01	-9.406628e+01
9.000000e-08	-5.505123e-06	-1.534270e-09	-3.826878e+01	-9.405738e+01
1.000000e-07	-5.501010e-06	-1.554576e-09	-3.824019e+01	-9.404898e+01
1.100000e-07	-5.496577e-06	-1.460303e-09	-3.820937e+01	-9.404090e+01
1.200000e-07	-5.491983e-06	-1.397610e-09	-3.817743e+01	-9.403292e+01
1.300000e-07	-5.487193e-06	-1.452091e-09	-3.814414e+01	-9.402479e+01
1.400000e-07	-5.481978e-06	-1.523043e-09	-3.810789e+01	-9.401623e+01
1.500000e-07	-5.476264e-06	-1.456999e-09	-3.806816e+01	-9.400696e+01
1.600000e-07	-5.470258e-06	-1.395316e-09	-3.802641e+01	-9.399666e+01
1.700000e-07	-5.463965e-06	-1.452490e-09	-3.798267e+01	-9.398500e+01
1.800000e-07	-5.457177e-06	-1.540622e-09	-3.793548e+01	-9.397162e+01
1.900000e-07	-5.449925e-06	-1.506656e-09	-3.788507e+01	-9.395618e+01
2.000000e-07	-5.442457e-06	-1.431844e-09	-3.783315e+01	-9.393831e+01
2.100000e-07	-5.434792e-06	-1.445177e-09	-3.777987e+01	-9.391764e+01
2.200000e-07	-5.426844e-06	-1.501186e-09	-3.772462e+01	-9.389378e+01
2.300000e-07	-5.418556e-06	-1.496846e-09	-3.766701e+01	-9.386636e+01
2.400000e-07	-5.409828e-06	-1.444410e-09	-3.760634e+01	-9.383502e+01
2.500000e-07	-5.400376e-06	-1.440205e-09	-3.754063e+01	-9.379937e+01
2.600000e-07	-5.390055e-06	-1.465770e-09	-3.746888e+01	-9.375906e+01
2.700000e-07	-5.379184e-06	-1.456801e-09	-3.739331e+01	-9.371374e+01
2.800000e-07	-5.367982e-06	-1.412061e-09	-3.731545e+01	-9.366307e+01
2.900000e-07	-5.356377e-06	-1.413761e-09	-3.723477e+01	-9.360673e+01
3.000000e-07	-5.344316e-06	-1.436604e-09	-3.715093e+01	-9.354442e+01
3.100000e-07	-5.331864e-06	-1.429671e-09	-3.706437e+01	-9.347586e+01
3.200000e-07	-5.318981e-06	-1.387137e-09	-3.697482e+01	-9.340077e+01
3.300000e-07	-5.305718e-06	-1.401745e-09	-3.688262e+01	-9.331893e+01
3.400000e-07	-5.292217e-06	-1.423098e-09	-3.678876e+01	-9.323011e+01
3.500000e-07	-5.278309e-06	-1.400598e-09	-3.669208e+01	-9.313412e+01
3.600000e-07	-5.263821e-06	-1.369954e-09	-3.659137e+01	-9.303081e+01
3.700000e-07	-5.248841e-06	-1.400908e-09	-3.648724e+01	-9.292002e+01
3.800000e-07	-5.233426e-06	-1.401642e-09	-3.638008e+01	-9.280166e+01
3.900000e-07	-5.217513e-06	-1.368759e-09	-3.626946e+01	-9.267564e+01
4.000000e-07	-5.201101e-06	-1.383374e-09	-3.615537e+01	-9.254190e+01
4.100000e-07	-5.184329e-06	-1.416134e-09	-3.603878e+01	-9.240041e+01
4.200000e-07	-5.167236e-06	-1.368587e-09	-3.591996e+01	-9.225116e+01
4.300000e-07	-5.149850e-06	-1.346249e-09	-3.579910e+01	-9.209419e+01
4.400000e-07	-5.132214e-06	-1.407523e-09	-3.567650e+01	-9.192953e+01
4.500000e-07	-5.114169e-06	-1.407208e-09	-3.555107e+01	-9.175726e+01
4.600000e-07	-5.095608e-06	-1.343511e-09	-3.542204e+01	-9.157747e+01
4.700000e-07	-5.076601e-06	-1.357518e-09	-3.528991e+01	-9.139026e+01
4.800000e-07	-5.057327e-06	-1.390368e-09	-3.515593e+01	-9.119577e+01
4.900000e-07	-5.037853e-06	-1.343180e-09	-3.502056e+01	-9.099414e+01
5.000000e-07	-5.018160e-06	-1.340028e-09	-3.488366e+01	-9.078554e+01
5.100000e-07	-4.998300e-06	-1.386254e-09	-3.474561e+01	-9.057015e+01
5.200000e-07	-4.978132e-06	-1.360438e-09	-3.460541e+01	-9.034814e+01
5.300000e-07	-4.957535e-06	-1.327019e-09	-3.446223e+01	-9.011971e+01
5.400000e-07	-4.936576e-06	-1.375289e-09	-3.431653e+01	-8.988507e+01
5.500000e-07	-4.915232e-06	-1.367600e-09	-3.416816e+01	-8.964442e+01
5.600000e-07	-4.893492e-06	-1.303320e-09	-3.401704e+01	-8.939797e+01
5.700000e-07	-4.871502e-06	-1.313674e-09	-3.386418e+01	-8.914594e+01
5.800000e-07	-4.849284e-06	-1.348087e-09	-3.370972e+01	-8.888853e+01
5.900000e-07	-4.826688e-06	-1.315041e-09	-3.355265e+01	-8.862595e+01
6.000000e-07	-4.803675e-06	-1.316993e-09	-3.339267e+01	-8.835839e+01
6.100000e-07	-4.780323e-06	-1.354107e-09	-3.323034e+01	-8.808607e+01
6.200000e-07	-4.756732e-06	-1.333539e-09	-3.306635e+01	-8.780916e+01
6.300000e-07	-4.732999e-06	-1.299283e-09	-3.290137e+01	-8.752783e+01
6.400000e-07	-4.709005e-06	-1.314538e-09	-3.273458e+01	-8.724226e+01
6.500000e-07	-4.684594e-06	-1.304692e-09	-3.256488e+01	-8.695260e+01
6.600000e-07	-4.659738e-06	-1.277889e-09	-3.239210e+01	-8.665899e+01
6.700000e-07	-4.634432e-06	-1.293698e-09	-3.221619e+01	-8.636155e+01
6.800000e-07	-4.608545e-06	-1.308432e-09	-3.203623e+01	-8.606040e+01
6.900000e-07	-4.582034e-06	-1.286339e-09	-3.185194e+01	-8.575563e+01
7.000000e-07	-4.555075e-06	-1.283848e-09	-3.166453e+01	-8.544732e+01
7.100000e-07	-4.527770e-06	-1.290120e-09	-3.147472e+01	-8.513554e+01
7.200000e-07	-4.500245e-06	-1.268435e-09	-3.128338e+01	-8.482033e+01
7.300000e-07	-4.472590e-06	-1.254434e-09	-3.109114e+01	-8.450172e+01
7.400000e-07	-4.444749e-06	-1.261001e-09	-3.089761e+01	-8.417973e+01
7.500000e-07	-4.416622e-06	-1.252887e-09	-3.070208e+01	-8.385435e+01
7.600000e-07	-4.388261e-06	-1.242674e-09	-3.050493e+01	-8.352558e+01
7.700000e-07	-4.359619e-06	-1.248346e-09	-3.030582e+01	-8.319337e+01
7.800000e-07	-4.330607e-06	-1.240390e-09	-3.010415e+01	-8.285770e+01
7.900000e-07	-4.301312e-06	-1.226003e-09	-2.990051e+01	-8.251849e+01
8.000000e-07	-4.271749e-06	-1.225905e-09	-2.969500e+01	-8.217569e+01
8.100000e-07	-4.241885e-06	-1.217658e-09	-2.948740e+01	-8.182921e+01
8.200000e-07	-4.211734e-06	-1.195448e-09	-2.927780e+01	-8.147897e+01
8.300000e-07	-4.181282e-06	-1.193331e-09	-2.906612e+01	-8.112487e+01
8.400000e-07	-4.150489e-06	-1.194725e-09	-2.885206e+01	-8.076680e+01
8.500000e-07	-4.119511e-06	-1.183833e-09	-2.863672e+01	-8.040465e+01
8.600000e-07	-4.088378e-06	-1.179382e-09	-2.842030e+01	-8.003832e+01
8.700000e-07	-4.056996e-06	-1.183476e-09	-2.820215e+01	-7.966768e+01
8.800000e-07	-4.025383e-06	-1.171606e-09	-2.798239e+01	-7.929261e+01
8.900000e-07	-3.993574e-06	-1.159643e-09	-2.776127e+01	-7.891300e+01
9.000000e-07	-3.961528e-06	-1.155260e-09	-2.753850e+01	-7.852873e+01
9.100000e-07	-3.929115e-06	-1.143834e-09	-2.731318e+01	-7.813968e+01
9.200000e-07	-3.896294e-06	-1.130161e-09	-2.708503e+01	-7.774574e+01
9.300000e-07	-3.863150e-06	-1.132412e-09	-2.685463e+01	-7.734680e+01
9.400000e-07	-3.829566e-06	-1.131078e-09	-2.662117e+01	-7.694276e+01
9.500000e-07	-3.795426e-06	-1.118469e-09	-2.638384e+01	-7.653352e+01
9.600000e-07	-3.760871e-06	-1.111983e-09	-2.614364e+01	-7.611900e+01
9.700000e-07	-3.725942e-06	-1.108416e-09	-2.590083e+01	-7.569911e+01
9.800000e-07	-3.690712e-06	-1.093807e-09	-2.565593e+01	-7.527379e+01
9.900000e-07	-3.655289e-06	-1.082767e-09	-2.540968e+01	-7.484297e+01
1.000000e-06	-3.619694e-06	-1.082293e-09	-2.516225e+01	-7.440661e+01
1.010000e-06	-3.583981e-06	-1.078907e-09	-2.491399e+01	-7.396467e+01
1.020000e-06	-3.548164e-06	-1.072989e-09	-2.466501e+01	-7.351713e+01
1.030000e-06	-3.512176e-06	-1.072987e-09	-2.441484e+01	-7.306395e+01
1.040000e-06	-3.475970e-06	-1.068604e-09	-2.416315e+01	-7.260515e+01
1.050000e-06	-3.439531e-06	-1.054819e-09	-2.390985e+01	-7.214073e+01
1.060000e-06	-3.402824e-06	-1.044338e-09	-2.365468e+01	-7.167071e+01
1.070000e-06	-3.365809e-06	-1.033673e-09	-2.339737e+01	-7.119511e+01
1.080000e-06	-3.328488e-06	-1.020409e-09	-2.313793e+01	-7.071399e+01
1.090000e-06	-3.290893e-06	-1.013426e-09	-2.287659e+01	-7.022738e+01
1.100000e-06	-3.253124e-06	-1.013275e-09	-2.261404e+01	-6.973535e+01
1.110000e-06	-3.215137e-06	-1.005590e-09	-2.234998e+01	-6.923796e+01
1.120000e-06	-3.176849e-06	-9.961482e-10	-2.208382e+01	-6.873530e+01
1.130000e-06	-3.138321e-06	-9.905819e-10	-2.181599e+01	-6.822745e+01
1.140000e-06	-3.099627e-06	-9.819085e-10	-2.154701e+01	-6.771448e+01
1.150000e-06	-3.060719e-06	-9.693775e-10	-2.127654e+01	-6.719651e+01
1.160000e-06	-3.021679e-06	-9.612035e-10	-2.100515e+01	-6.667362e+01
1.170000e-06	-2.982553e-06	-9.559342e-10	-2.073317e+01	-6.614591e+01
1.180000e-06	-2.943166e-06	-9.477526e-10	-2.045937e+01	-6.561347e+01
1.190000e-06	-2.903633e-06	-9.392076e-10	-2.018456e+01	-6.507642e+01
1.200000e-06	-2.864000e-06	-9.320789e-10	-1.990905e+01	-6.453483e+01
1.210000e-06	-2.824235e-06	-9.208240e-10	-1.963262e+01	-6.398881e+01
1.220000e-06	-2.784386e-06	-9.108430e-10	-1.935562e+01	-6.343843e+01
1.230000e-06	-2.744354e-06	-9.043243e-10	-1.907734e+01	-6.288378e+01
1.240000e-06	-2.704032e-06	-8.968920e-10	-1.879704e+01	-6.232491e+01
1.250000e-06	-2.663479e-06	-8.890283e-10	-1.851513e+01	-6.176189e+01
1.260000e-06	-2.622743e-06	-8.816722e-10	-1.823196e+01	-6.119477e+01
1.270000e-06	-2.581721e-06	-8.748592e-10	-1.794679e+01	-6.062356e+01
1.280000e-06	-2.540276e-06	-8.675388e-10	-1.765869e+01	-6.004829e+01
1.290000e-06	-2.498464e-06	-8.591936e-10	-1.736804e+01	-5.946895e+01
1.300000e-06	-2.456358e-06	-8.489377e-10	-1.707533e+01	-5.888552e+01
1.310000e-06	-2.414006e-06	-8.381762e-10	-1.678093e+01	-5.829796e+01
1.320000e-06	-2.371490e-06	-8.281348e-10	-1.648538e+01	-5.770620e+01
1.330000e-06	-2.328750e-06	-8.182333e-10	-1.618827e+01	-5.711015e+01
1.340000e-06	-2.285781e-06	-8.096987e-10	-1.588957e+01	-5.650971e+01
1.350000e-06	-2.242570e-06	-8.026673e-10	-1.558919e+01	-5.590473e+01
1.360000e-06	-2.199142e-06	-7.954862e-10	-1.528730e+01	-5.529506e+01
1.370000e-06	-2.155628e-06	-7.869244e-10	-1.498482e+01	-5.468050e+01
1.380000e-06	-2.112066e-06	-7.763019e-10	-1.468199e+01	-5.406083e+01
1.390000e-06	-2.068427e-06	-7.655827e-10	-1.437864e+01	-5.343581e+01
1.400000e-06	-2.024704e-06	-7.546822e-10	-1.407470e+01	-5.280517e+01
1.410000e-06	-1.980844e-06	-7.440265e-10	-1.376980e+01	-5.216859e+01
1.420000e-06	-1.936921e-06	-7.348130e-10	-1.346448e+01	-5.152576e+01
1.430000e-06	-1.893010e-06	-7.269422e-10	-1.315923e+01	-5.087630e+01
1.440000e-06	-1.848961e-06	-7.193608e-10	-1.285303e+01	-5.021983e+01
1.450000e-06	-1.804725e-06	-7.114773e-10	-1.254552e+01	-4.955593e+01
1.460000e-06	-1.760391e-06	-7.010210e-10	-1.223733e+01	-4.888418e+01
1.470000e-06	-1.715891e-06	-6.885571e-10	-1.192799e+01	-4.820408e+01
1.480000e-06	-1.671258e-06	-6.762603e-10	-1.161772e+01	-4.751517e+01
1.490000e-06	-1.626525e-06	-6.648669e-10	-1.130676e+01	-4.681693e+01
1.500000e-06	-1.581636e-06	-6.552289e-10	-1.099472e+01	-4.610881e+01
1.510000e-06	-1.536643e-06	-6.458385e-10	-1.068195e+01	-4.539029e+01
1.520000e-06	-1.491577e-06	-6.353094e-10	-1.036867e+01	-4.466078e+01
1.530000e-06	-1.446401e-06	-6.238556e-10	-1.005463e+01	-4.391971e+01
1.540000e-06	-1.401064e-06	-6.114029e-10	-9.739473e+00	-4.316649e+01
1.550000e-06	-1.355595e-06	-5.987424e-10	-9.423396e+00	-4.240052e+01
1.560000e-06	-1.310082e-06	-5.843239e-10	-9.107014e+00	-4.162120e+01
1.570000e-06	-1.264510e-06	-5.697518e-10	-8.790219e+00	-4.082792e+01
1.580000e-06	-1.218832e-06	-5.563229e-10	-8.472691e+00	-4.002008e+01
1.590000e-06	-1.173052e-06	-5.425216e-10	-8.154456e+00	-3.919709e+01
1.600000e-06	-1.127193e-06	-5.292757e-10	-7.835668e+00	-3.835835e+01
1.610000e-06	-1.081315e-06	-5.149745e-10	-7.516745e+00	-3.750329e+01
1.620000e-06	-1.035347e-06	-4.998367e-10	-7.197196e+00	-3.663136e+01
1.630000e-06	-9.892301e-07	-4.857636e-10	-6.876618e+00	-3.574200e+01
1.640000e-06	-9.430258e-07	-4.721985e-10	-6.555429e+00	-3.483472e+01
1.650000e-06	-8.967946e-07	-4.588639e-10	-6.234054e+00	-3.390903e+01
1.660000e-06	-8.504869e-07	-4.443902e-10	-5.912146e+00	-3.296447e+01
1.670000e-06	-8.041570e-07	-4.258997e-10	-5.590085e+00	-3.200063e+01
1.680000e-06	-7.578083e-07	-4.068702e-10	-5.267893e+00	-3.101714e+01
1.690000e-06	-7.113560e-07	-3.887944e-10	-4.944980e+00	-3.001366e+01
1.700000e-06	-6.648271e-07	-3.734667e-10	-4.621536e+00	-2.898990e+01
1.710000e-06	-6.181876e-07	-3.607172e-10	-4.297322e+00	-2.794565e+01
1.720000e-06	-5.714707e-07	-3.473465e-10	-3.972570e+00	-2.688071e+01
1.730000e-06	-5.248084e-07	-3.320524e-10	-3.648197e+00	-2.579497e+01
1.740000e-06	-4.781264e-07	-3.141396e-10	-3.323688e+00	-2.468837e+01
1.750000e-06	-4.312828e-07	-2.942380e-10	-2.998056e+00	-2.356091e+01
1.760000e-06	-3.843783e-07	-2.731907e-10	-2.672000e+00	-2.241267e+01
1.770000e-06	-3.375000e-07	-2.554563e-10	-2.346126e+00	-2.124377e+01
1.780000e-06	-2.905880e-07	-2.421514e-10	-2.020018e+00	-2.005443e+01
1.790000e-06	-2.436774e-07	-2.303277e-10	-1.693920e+00	-1.884491e+01
1.800000e-06	-1.968460e-07	-2.163601e-10	-1.368372e+00	-1.761556e+01
1.810000e-06	-1.499660e-07	-1.981268e-10	-1.042486e+00	-1.636681e+01
1.820000e-06	-1.030533e-07	-1.763351e-10	-7.163731e-01	-1.509914e+01
1.830000e-06	-5.621978e-08	-1.537649e-10	-3.908109e-01	-1.381311e+01
1.840000e-06	-9.374480e-09	-1.340992e-10	-6.516656e-02	-1.250936e+01
1.850000e-06	3.751292e-08	-1.191264e-10	2.607705e-01	-1.118859e+01
1.860000e-06	8.435867e-08	-1.061804e-10	5.864180e-01	-9.851572e+00
1.870000e-06	1.311393e-07	-9.159611e-11	9.116127e-01	-8.499139e+00
1.880000e-06	1.780238e-07	-7.391173e-11	1.237530e+00	-7.132195e+00
1.890000e-06	2.249665e-07	-5.355585e-11	1.563851e+00	-5.751702e+00
1.900000e-06	2.717896e-07	-3.203634e-11	1.889341e+00	-4.358682e+00
1.910000e-06	3.185940e-07	-1.248763e-11	2.214701e+00	-2.954208e+00
1.920000e-06	3.653792e-07	6.494801e-12	2.539928e+00	-1.539407e+00
1.930000e-06	4.121381e-07	2.594030e-11	2.864971e+00	-1.154507e-01
1.940000e-06	4.588424e-07	4.500778e-11	3.189636e+00	1.316448e+00
1.950000e-06	5.054873e-07	6.561666e-11	3.513888e+00	2.755039e+00
1.960000e-06	5.520818e-07	8.711441e-11	3.837788e+00	4.199040e+00
1.970000e-06	5.986023e-07	1.082369e-10	4.161175e+00	5.647143e+00
1.980000e-06	6.451312e-07	1.285340e-10	4.484620e+00	7.098022e+00
1.990000e-06	6.916429e-07	1.465479e-10	4.807945e+00	8.550331e+00
2.000000e-06	7.379861e-07	1.648531e-10	5.130099e+00	1.000272e+01
2.010000e-06	7.841908e-07	1.853048e-10	5.451291e+00	1.145384e+01
2.020000e-06	8.303882e-07	2.058847e-10	5.772431e+00	1.290232e+01
2.030000e-06	8.765556e-07	2.288501e-10	6.093363e+00	1.434684e+01
2.040000e-06	9.226915e-07	2.532394e-10	6.414076e+00	1.578607e+01
2.050000e-06	9.688037e-07	2.760184e-10	6.734624e+00	1.721870e+01
2.060000e-06	1.014868e-06	2.970385e-10	7.054841e+00	1.864344e+01
2.070000e-06	1.060819e-06	3.161241e-10	7.374269e+00	2.005907e+01
2.080000e-06	1.106666e-06	3.345025e-10	7.692972e+00	2.146436e+01
2.090000e-06	1.152406e-06	3.544064e-10	8.010932e+00	2.285815e+01
2.100000e-06	1.198099e-06	3.753217e-10	8.328569e+00	2.423934e+01
2.110000e-06	1.243744e-06	3.963204e-10	8.645866e+00	2.560685e+01
2.120000e-06	1.289287e-06	4.168940e-10	8.962459e+00	2.695969e+01
2.130000e-06	1.334738e-06	4.363833e-10	9.278414e+00	2.829690e+01
2.140000e-06	1.380096e-06	4.544126e-10	9.593715e+00	2.961762e+01
2.150000e-06	1.425340e-06	4.701417e-10	9.908227e+00	3.092101e+01
2.160000e-06	1.470423e-06	4.854808e-10	1.022162e+01	3.220636e+01
2.170000e-06	1.515437e-06	5.019854e-10	1.053453e+01	3.347299e+01
2.180000e-06	1.560409e-06	5.200453e-10	1.084716e+01	3.472030e+01
2.190000e-06	1.605249e-06	5.401566e-10	1.115886e+01	3.594777e+01
2.200000e-06	1.649953e-06	5.611569e-10	1.146962e+01	3.715497e+01
2.210000e-06	1.694552e-06	5.788878e-10	1.177965e+01	3.834153e+01
2.220000e-06	1.739012e-06	5.930224e-10	1.208872e+01	3.950716e+01
2.230000e-06	1.783286e-06	6.067411e-10	1.239649e+01	4.065164e+01
2.240000e-06	1.827381e-06	6.205600e-10	1.270301e+01	4.177483e+01
2.250000e-06	1.871363e-06	6.346758e-10	1.300875e+01	4.287666e+01
2.260000e-06	1.915283e-06	6.499892e-10	1.331406e+01	4.395715e+01
2.270000e-06	1.959137e-06	6.660631e-10	1.361891e+01	4.501634e+01
2.280000e-06	2.002884e-06	6.815226e-10	1.392302e+01	4.605438e+01
2.290000e-06	2.046565e-06	6.970005e-10	1.422667e+01	4.707147e+01
2.300000e-06	2.090243e-06	7.109098e-10	1.453029e+01	4.806784e+01
2.310000e-06	2.133892e-06	7.228151e-10	1.483372e+01	4.904381e+01
2.320000e-06	2.177440e-06	7.350674e-10	1.513644e+01	4.999973e+01
2.330000e-06	2.220879e-06	7.484327e-10	1.543840e+01	5.093599e+01
2.340000e-06	2.264202e-06	7.615739e-10	1.573956e+01	5.185304e+01
2.350000e-06	2.307340e-06	7.735317e-10	1.603944e+01	5.275133e+01
2.360000e-06	2.350244e-06	7.853467e-10	1.633769e+01	5.363137e+01
2.370000e-06	2.392915e-06	7.977935e-10	1.663431e+01	5.449369e+01
2.380000e-06	2.435273e-06	8.110633e-10	1.692876e+01	5.533883e+01
2.390000e-06	2.477273e-06	8.247511e-10	1.722072e+01	5.616734e+01
2.400000e-06	2.518956e-06	8.367484e-10	1.751048e+01	5.697978e+01
2.410000e-06	2.560335e-06	8.473248e-10	1.779813e+01	5.777674e+01
2.420000e-06	2.601377e-06	8.587739e-10	1.808343e+01	5.855877e+01
2.430000e-06	2.642049e-06	8.698642e-10	1.836617e+01	5.932645e+01
2.440000e-06	2.682470e-06	8.793047e-10	1.864715e+01	6.008031e+01
2.450000e-06	2.722766e-06	8.882582e-10	1.892727e+01	6.082092e+01
2.460000e-06	2.762942e-06	8.978739e-10	1.920655e+01	6.154877e+01
2.470000e-06	2.802903e-06	9.079024e-10	1.948434e+01	6.226439e+01
2.480000e-06	2.842669e-06	9.182792e-10	1.976077e+01	6.296823e+01
2.490000e-06	2.882329e-06	9.297926e-10	2.003647e+01	6.366076e+01
2.500000e-06	2.921849e-06	9.417559e-10	2.031119e+01	6.434239e+01
2.510000e-06	2.961186e-06	9.518227e-10	2.058464e+01	6.501351e+01
2.520000e-06	3.000373e-06	9.596941e-10	2.085705e+01	6.567447e+01
2.530000e-06	3.039534e-06	9.683528e-10	2.112927e+01	6.632559e+01
2.540000e-06	3.078505e-06	9.792643e-10	2.140018e+01	6.696716e+01
2.550000e-06	3.117146e-06	9.881531e-10	2.166880e+01	6.759942e+01
2.560000e-06	3.155570e-06	9.938440e-10	2.193589e+01	6.822259e+01
2.570000e-06	3.193749e-06	1.001630e-09	2.220130e+01	6.883684e+01
2.580000e-06	3.231731e-06	1.012482e-09	2.246533e+01	6.944233e+01
2.590000e-06	3.269473e-06	1.022393e-09	2.272769e+01	7.003915e+01
2.600000e-06	3.306975e-06	1.029943e-09	2.298839e+01	7.062739e+01
2.610000e-06	3.344336e-06	1.036437e-09	2.324810e+01	7.120709e+01
2.620000e-06	3.381468e-06	1.042461e-09	2.350622e+01	7.177828e+01
2.630000e-06	3.418353e-06	1.049011e-09	2.376263e+01	7.234095e+01
2.640000e-06	3.455011e-06	1.056960e-09	2.401746e+01	7.289507e+01
2.650000e-06	3.491376e-06	1.066181e-09	2.427025e+01	7.344059e+01
2.660000e-06	3.527433e-06	1.075344e-09	2.452090e+01	7.397745e+01
2.670000e-06	3.563279e-06	1.082436e-09	2.477008e+01	7.450558e+01
2.680000e-06	3.599011e-06	1.088167e-09	2.501847e+01	7.502487e+01
2.690000e-06	3.634640e-06	1.093185e-09	2.526615e+01	7.553524e+01
2.700000e-06	3.670167e-06	1.097549e-09	2.551311e+01	7.603659e+01
2.710000e-06	3.705575e-06	1.104098e-09	2.575925e+01	7.652881e+01
2.720000e-06	3.740786e-06	1.111377e-09	2.600402e+01	7.701180e+01
2.730000e-06	3.775590e-06	1.117108e-09	2.624596e+01	7.748547e+01
2.740000e-06	3.809962e-06	1.122436e-09	2.648489e+01	7.794974e+01
2.750000e-06	3.843939e-06	1.127565e-09	2.672109e+01	7.840452e+01
2.760000e-06	3.877406e-06	1.132343e-09	2.695373e+01	7.884977e+01
2.770000e-06	3.910333e-06	1.136664e-09	2.718262e+01	7.928543e+01
2.780000e-06	3.942860e-06	1.142483e-09	2.740873e+01	7.971147e+01
2.790000e-06	3.975099e-06	1.150461e-09	2.763284e+01	8.012791e+01
2.800000e-06	4.007048e-06	1.157882e-09	2.785493e+01	8.053474e+01
2.810000e-06	4.038788e-06	1.163763e-09	2.807557e+01	8.093200e+01
2.820000e-06	4.070406e-06	1.168987e-09	2.829537e+01	8.131977e+01
2.830000e-06	4.101874e-06	1.174407e-09	2.851411e+01	8.169812e+01
2.840000e-06	4.133138e-06	1.179132e-09	2.873145e+01	8.206717e+01
2.850000e-06	4.164137e-06	1.183494e-09	2.894694e+01	8.242706e+01
2.860000e-06	4.194740e-06	1.187501e-09	2.915967e+01	8.277794e+01
2.870000e-06	4.224997e-06	1.191424e-09	2.937000e+01	8.312001e+01
2.880000e-06	4.254996e-06	1.197198e-09	2.957854e+01	8.345346e+01
2.890000e-06	4.284687e-06	1.200697e-09	2.978494e+01	8.377853e+01
2.900000e-06	4.314064e-06	1.204638e-09	2.998915e+01	8.409547e+01
