# Temperatura_=_-0.3
# Concentracion g/m^3_=_1620.0
# C_Vs_to_Am_M_A/Vsm_=_65563218390.804596
# pendiente_HvsI_1/m_=_3716.3
# ordenada_HvsI_A/m_=_1297.0
# frecuencia_Hz_=_135102.54098723878

Tiempo_(s)	Campo_(V.s)	Magnetizacion_(V.s)	Campo_(kA/m)	Magnetizacion_(A/m)
0.000000e+00	-5.515610e-06	-1.523373e-09	-3.837292e+01	-9.834242e+01
1.000000e-08	-5.515923e-06	-1.520490e-09	-3.837510e+01	-9.830368e+01
2.000000e-08	-5.515926e-06	-1.517417e-09	-3.837512e+01	-9.826119e+01
3.000000e-08	-5.515608e-06	-1.516120e-09	-3.837291e+01	-9.821500e+01
4.000000e-08	-5.514876e-06	-1.513895e-09	-3.836782e+01	-9.816518e+01
5.000000e-08	-5.513567e-06	-1.510611e-09	-3.835871e+01	-9.811177e+01
6.000000e-08	-5.511647e-06	-1.512072e-09	-3.834536e+01	-9.805487e+01
7.000000e-08	-5.509108e-06	-1.519015e-09	-3.832769e+01	-9.799454e+01
8.000000e-08	-5.506082e-06	-1.536919e-09	-3.830664e+01	-9.793087e+01
9.000000e-08	-5.502605e-06	-1.515648e-09	-3.828245e+01	-9.786393e+01
1.000000e-07	-5.498682e-06	-1.465314e-09	-3.825515e+01	-9.779383e+01
1.100000e-07	-5.494400e-06	-1.472728e-09	-3.822536e+01	-9.772066e+01
1.200000e-07	-5.489878e-06	-1.564496e-09	-3.819390e+01	-9.764450e+01
1.300000e-07	-5.485078e-06	-1.539945e-09	-3.816051e+01	-9.756546e+01
1.400000e-07	-5.479899e-06	-1.473603e-09	-3.812448e+01	-9.748363e+01
1.500000e-07	-5.474364e-06	-1.428420e-09	-3.808597e+01	-9.739910e+01
1.600000e-07	-5.468541e-06	-1.546845e-09	-3.804546e+01	-9.731197e+01
1.700000e-07	-5.462366e-06	-1.546433e-09	-3.800250e+01	-9.722233e+01
1.800000e-07	-5.455730e-06	-1.471774e-09	-3.795633e+01	-9.713025e+01
1.900000e-07	-5.448697e-06	-1.429049e-09	-3.790740e+01	-9.703583e+01
2.000000e-07	-5.441369e-06	-1.500200e-09	-3.785642e+01	-9.693914e+01
2.100000e-07	-5.433725e-06	-1.517784e-09	-3.780324e+01	-9.684024e+01
2.200000e-07	-5.425701e-06	-1.461009e-09	-3.774742e+01	-9.673919e+01
2.300000e-07	-5.417457e-06	-1.428336e-09	-3.769006e+01	-9.663605e+01
2.400000e-07	-5.408946e-06	-1.440406e-09	-3.763085e+01	-9.653085e+01
2.500000e-07	-5.399789e-06	-1.459393e-09	-3.756714e+01	-9.642364e+01
2.600000e-07	-5.389853e-06	-1.419451e-09	-3.749802e+01	-9.631442e+01
2.700000e-07	-5.379325e-06	-1.429491e-09	-3.742477e+01	-9.620321e+01
2.800000e-07	-5.368307e-06	-1.430880e-09	-3.734812e+01	-9.609001e+01
2.900000e-07	-5.356884e-06	-1.448746e-09	-3.726864e+01	-9.597480e+01
3.000000e-07	-5.345137e-06	-1.407409e-09	-3.718692e+01	-9.585756e+01
3.100000e-07	-5.332992e-06	-1.418292e-09	-3.710243e+01	-9.573823e+01
3.200000e-07	-5.320362e-06	-1.405564e-09	-3.701455e+01	-9.561678e+01
3.300000e-07	-5.307264e-06	-1.438855e-09	-3.692343e+01	-9.549313e+01
3.400000e-07	-5.293807e-06	-1.404425e-09	-3.682981e+01	-9.536720e+01
3.500000e-07	-5.279957e-06	-1.402729e-09	-3.673345e+01	-9.523891e+01
3.600000e-07	-5.265665e-06	-1.405331e-09	-3.663402e+01	-9.510814e+01
3.700000e-07	-5.250956e-06	-1.432210e-09	-3.653169e+01	-9.497480e+01
3.800000e-07	-5.235793e-06	-1.384781e-09	-3.642620e+01	-9.483874e+01
3.900000e-07	-5.220091e-06	-1.399813e-09	-3.631696e+01	-9.469984e+01
4.000000e-07	-5.203843e-06	-1.424047e-09	-3.620391e+01	-9.455795e+01
4.100000e-07	-5.187252e-06	-1.393089e-09	-3.608849e+01	-9.441291e+01
4.200000e-07	-5.170357e-06	-1.363577e-09	-3.597095e+01	-9.426457e+01
4.300000e-07	-5.153110e-06	-1.421491e-09	-3.585096e+01	-9.411276e+01
4.400000e-07	-5.135581e-06	-1.417479e-09	-3.572901e+01	-9.395730e+01
4.500000e-07	-5.117690e-06	-1.341835e-09	-3.560453e+01	-9.379801e+01
4.600000e-07	-5.099384e-06	-1.377184e-09	-3.547718e+01	-9.363473e+01
4.700000e-07	-5.080738e-06	-1.430912e-09	-3.534746e+01	-9.346726e+01
4.800000e-07	-5.061749e-06	-1.368540e-09	-3.521535e+01	-9.329543e+01
4.900000e-07	-5.042426e-06	-1.340768e-09	-3.508091e+01	-9.311904e+01
5.000000e-07	-5.022808e-06	-1.411639e-09	-3.494443e+01	-9.293794e+01
5.100000e-07	-5.002976e-06	-1.372439e-09	-3.480645e+01	-9.275193e+01
5.200000e-07	-4.982953e-06	-1.322409e-09	-3.466715e+01	-9.256085e+01
5.300000e-07	-4.962537e-06	-1.379873e-09	-3.452512e+01	-9.236454e+01
5.400000e-07	-4.941697e-06	-1.393795e-09	-3.438013e+01	-9.216283e+01
5.500000e-07	-4.920521e-06	-1.307753e-09	-3.423280e+01	-9.195559e+01
5.600000e-07	-4.898963e-06	-1.342446e-09	-3.408282e+01	-9.174267e+01
5.700000e-07	-4.876990e-06	-1.383506e-09	-3.392995e+01	-9.152393e+01
5.800000e-07	-4.854635e-06	-1.326866e-09	-3.377443e+01	-9.129927e+01
5.900000e-07	-4.832017e-06	-1.307382e-09	-3.361707e+01	-9.106858e+01
6.000000e-07	-4.809169e-06	-1.371310e-09	-3.345811e+01	-9.083176e+01
6.100000e-07	-4.785994e-06	-1.341419e-09	-3.329688e+01	-9.058874e+01
6.200000e-07	-4.762499e-06	-1.313087e-09	-3.313342e+01	-9.033945e+01
6.300000e-07	-4.738828e-06	-1.345473e-09	-3.296873e+01	-9.008383e+01
6.400000e-07	-4.714953e-06	-1.346171e-09	-3.280264e+01	-8.982185e+01
6.500000e-07	-4.690746e-06	-1.300028e-09	-3.263422e+01	-8.955349e+01
6.600000e-07	-4.666180e-06	-1.313281e-09	-3.246332e+01	-8.927873e+01
6.700000e-07	-4.641136e-06	-1.313543e-09	-3.228908e+01	-8.899757e+01
6.800000e-07	-4.615454e-06	-1.288196e-09	-3.211040e+01	-8.871004e+01
6.900000e-07	-4.589199e-06	-1.292245e-09	-3.192774e+01	-8.841617e+01
7.000000e-07	-4.562472e-06	-1.315777e-09	-3.174180e+01	-8.811600e+01
7.100000e-07	-4.535406e-06	-1.299866e-09	-3.155350e+01	-8.780958e+01
7.200000e-07	-4.508120e-06	-1.287817e-09	-3.136367e+01	-8.749698e+01
7.300000e-07	-4.480587e-06	-1.287066e-09	-3.117211e+01	-8.717829e+01
7.400000e-07	-4.452823e-06	-1.270807e-09	-3.097896e+01	-8.685357e+01
7.500000e-07	-4.424808e-06	-1.250461e-09	-3.078405e+01	-8.652293e+01
7.600000e-07	-4.396509e-06	-1.246170e-09	-3.058717e+01	-8.618648e+01
7.700000e-07	-4.367877e-06	-1.249936e-09	-3.038797e+01	-8.584431e+01
7.800000e-07	-4.338936e-06	-1.248356e-09	-3.018663e+01	-8.549654e+01
7.900000e-07	-4.309773e-06	-1.252336e-09	-2.998374e+01	-8.514330e+01
8.000000e-07	-4.280344e-06	-1.246719e-09	-2.977900e+01	-8.478469e+01
8.100000e-07	-4.250603e-06	-1.231732e-09	-2.957208e+01	-8.442084e+01
8.200000e-07	-4.220591e-06	-1.211335e-09	-2.936328e+01	-8.405187e+01
8.300000e-07	-4.190324e-06	-1.201621e-09	-2.915271e+01	-8.367790e+01
8.400000e-07	-4.159754e-06	-1.187622e-09	-2.894003e+01	-8.329905e+01
8.500000e-07	-4.128913e-06	-1.186287e-09	-2.872547e+01	-8.291543e+01
8.600000e-07	-4.097762e-06	-1.189773e-09	-2.850874e+01	-8.252716e+01
8.700000e-07	-4.066301e-06	-1.191249e-09	-2.828987e+01	-8.213434e+01
8.800000e-07	-4.034768e-06	-1.179521e-09	-2.807049e+01	-8.173707e+01
8.900000e-07	-4.003152e-06	-1.179485e-09	-2.785053e+01	-8.133544e+01
9.000000e-07	-3.971283e-06	-1.168988e-09	-2.762881e+01	-8.092955e+01
9.100000e-07	-3.939102e-06	-1.153859e-09	-2.740493e+01	-8.051946e+01
9.200000e-07	-3.906569e-06	-1.143728e-09	-2.717859e+01	-8.010525e+01
9.300000e-07	-3.873642e-06	-1.140430e-09	-2.694951e+01	-7.968697e+01
9.400000e-07	-3.840164e-06	-1.126066e-09	-2.671660e+01	-7.926468e+01
9.500000e-07	-3.806144e-06	-1.120071e-09	-2.647992e+01	-7.883842e+01
9.600000e-07	-3.771737e-06	-1.119796e-09	-2.624054e+01	-7.840822e+01
9.700000e-07	-3.736966e-06	-1.113595e-09	-2.599863e+01	-7.797410e+01
9.800000e-07	-3.701888e-06	-1.101004e-09	-2.575459e+01	-7.753607e+01
9.900000e-07	-3.666599e-06	-1.099205e-09	-2.550908e+01	-7.709414e+01
1.000000e-06	-3.631091e-06	-1.093566e-09	-2.526204e+01	-7.664830e+01
1.010000e-06	-3.595388e-06	-1.081791e-09	-2.501365e+01	-7.619854e+01
1.020000e-06	-3.559525e-06	-1.077872e-09	-2.476415e+01	-7.574483e+01
1.030000e-06	-3.523544e-06	-1.076857e-09	-2.451383e+01	-7.528715e+01
1.040000e-06	-3.487393e-06	-1.066701e-09	-2.426231e+01	-7.482546e+01
1.050000e-06	-3.451016e-06	-1.058301e-09	-2.400924e+01	-7.435972e+01
1.060000e-06	-3.414404e-06	-1.056886e-09	-2.375452e+01	-7.388988e+01
1.070000e-06	-3.377468e-06	-1.048354e-09	-2.349755e+01	-7.341588e+01
1.080000e-06	-3.340222e-06	-1.037568e-09	-2.323843e+01	-7.293767e+01
1.090000e-06	-3.302805e-06	-1.031688e-09	-2.297811e+01	-7.245519e+01
1.100000e-06	-3.265174e-06	-1.026954e-09	-2.271630e+01	-7.196837e+01
1.110000e-06	-3.227276e-06	-1.015807e-09	-2.245265e+01	-7.147715e+01
1.120000e-06	-3.189154e-06	-1.011601e-09	-2.218742e+01	-7.098146e+01
1.130000e-06	-3.150794e-06	-1.006880e-09	-2.192054e+01	-7.048122e+01
1.140000e-06	-3.112220e-06	-9.969329e-10	-2.165218e+01	-6.997638e+01
1.150000e-06	-3.073356e-06	-9.846688e-10	-2.138180e+01	-6.946685e+01
1.160000e-06	-3.034298e-06	-9.792361e-10	-2.111006e+01	-6.895257e+01
1.170000e-06	-2.995156e-06	-9.692016e-10	-2.083775e+01	-6.843347e+01
1.180000e-06	-2.955875e-06	-9.572763e-10	-2.056446e+01	-6.790947e+01
1.190000e-06	-2.916402e-06	-9.508689e-10	-2.028985e+01	-6.738051e+01
1.200000e-06	-2.876794e-06	-9.470744e-10	-2.001429e+01	-6.684651e+01
1.210000e-06	-2.837050e-06	-9.366681e-10	-1.973778e+01	-6.630741e+01
1.220000e-06	-2.797172e-06	-9.270317e-10	-1.946035e+01	-6.576312e+01
1.230000e-06	-2.757139e-06	-9.165649e-10	-1.918183e+01	-6.521358e+01
1.240000e-06	-2.716916e-06	-9.039100e-10	-1.890199e+01	-6.465871e+01
1.250000e-06	-2.676463e-06	-8.913411e-10	-1.862055e+01	-6.409843e+01
1.260000e-06	-2.635770e-06	-8.855694e-10	-1.833745e+01	-6.353267e+01
1.270000e-06	-2.594801e-06	-8.773779e-10	-1.805242e+01	-6.296133e+01
1.280000e-06	-2.553517e-06	-8.687817e-10	-1.776520e+01	-6.238433e+01
1.290000e-06	-2.512010e-06	-8.611879e-10	-1.747643e+01	-6.180156e+01
1.300000e-06	-2.470196e-06	-8.527561e-10	-1.718553e+01	-6.121293e+01
1.310000e-06	-2.428050e-06	-8.402371e-10	-1.689231e+01	-6.061832e+01
1.320000e-06	-2.385638e-06	-8.270168e-10	-1.659724e+01	-6.001760e+01
1.330000e-06	-2.343038e-06	-8.165897e-10	-1.630087e+01	-5.941064e+01
1.340000e-06	-2.300238e-06	-8.057533e-10	-1.600310e+01	-5.879730e+01
1.350000e-06	-2.257177e-06	-7.952930e-10	-1.570352e+01	-5.817740e+01
1.360000e-06	-2.213919e-06	-7.868443e-10	-1.540257e+01	-5.755078e+01
1.370000e-06	-2.170490e-06	-7.777748e-10	-1.510043e+01	-5.691725e+01
1.380000e-06	-2.126944e-06	-7.679805e-10	-1.479747e+01	-5.627659e+01
1.390000e-06	-2.083365e-06	-7.590278e-10	-1.449428e+01	-5.562858e+01
1.400000e-06	-2.039707e-06	-7.495042e-10	-1.419055e+01	-5.497297e+01
1.410000e-06	-1.995916e-06	-7.392655e-10	-1.388589e+01	-5.430950e+01
1.420000e-06	-1.952008e-06	-7.282085e-10	-1.358041e+01	-5.363788e+01
1.430000e-06	-1.908058e-06	-7.186690e-10	-1.327465e+01	-5.295780e+01
1.440000e-06	-1.864034e-06	-7.060357e-10	-1.296836e+01	-5.226893e+01
1.450000e-06	-1.819915e-06	-6.931228e-10	-1.266142e+01	-5.157094e+01
1.460000e-06	-1.775685e-06	-6.813625e-10	-1.235371e+01	-5.086344e+01
1.470000e-06	-1.731277e-06	-6.716285e-10	-1.204475e+01	-5.014605e+01
1.480000e-06	-1.686755e-06	-6.612786e-10	-1.173500e+01	-4.941836e+01
1.490000e-06	-1.642141e-06	-6.512922e-10	-1.142462e+01	-4.867994e+01
1.500000e-06	-1.597397e-06	-6.383151e-10	-1.111333e+01	-4.793034e+01
1.510000e-06	-1.552457e-06	-6.260716e-10	-1.080068e+01	-4.716911e+01
1.520000e-06	-1.507344e-06	-6.134859e-10	-1.048682e+01	-4.639575e+01
1.530000e-06	-1.462195e-06	-6.005331e-10	-1.017271e+01	-4.560978e+01
1.540000e-06	-1.416974e-06	-5.884862e-10	-9.858100e+00	-4.481070e+01
1.550000e-06	-1.371646e-06	-5.789419e-10	-9.542749e+00	-4.399800e+01
1.560000e-06	-1.326252e-06	-5.667727e-10	-9.226931e+00	-4.317115e+01
1.570000e-06	-1.280774e-06	-5.527014e-10	-8.910533e+00	-4.232963e+01
1.580000e-06	-1.235237e-06	-5.371964e-10	-8.593730e+00	-4.147292e+01
1.590000e-06	-1.189607e-06	-5.204696e-10	-8.276277e+00	-4.060049e+01
1.600000e-06	-1.143886e-06	-5.070062e-10	-7.958188e+00	-3.971184e+01
1.610000e-06	-1.098099e-06	-4.958330e-10	-7.639643e+00	-3.880645e+01
1.620000e-06	-1.052171e-06	-4.819305e-10	-7.320110e+00	-3.788383e+01
1.630000e-06	-1.006131e-06	-4.652409e-10	-6.999803e+00	-3.694350e+01
1.640000e-06	-9.600368e-07	-4.507431e-10	-6.679120e+00	-3.598501e+01
1.650000e-06	-9.138867e-07	-4.373235e-10	-6.358047e+00	-3.500790e+01
1.660000e-06	-8.677386e-07	-4.221897e-10	-6.036987e+00	-3.401178e+01
1.670000e-06	-8.214644e-07	-4.078746e-10	-5.715051e+00	-3.299627e+01
1.680000e-06	-7.750773e-07	-3.934705e-10	-5.392329e+00	-3.196102e+01
1.690000e-06	-7.287158e-07	-3.810865e-10	-5.069785e+00	-3.090573e+01
1.700000e-06	-6.822948e-07	-3.694625e-10	-4.746827e+00	-2.983013e+01
1.710000e-06	-6.358190e-07	-3.566343e-10	-4.423488e+00	-2.873402e+01
1.720000e-06	-5.892915e-07	-3.392023e-10	-4.099789e+00	-2.761721e+01
1.730000e-06	-5.426425e-07	-3.180371e-10	-3.775245e+00	-2.647960e+01
1.740000e-06	-4.959033e-07	-2.977993e-10	-3.450074e+00	-2.532111e+01
1.750000e-06	-4.491872e-07	-2.776241e-10	-3.125063e+00	-2.414175e+01
1.760000e-06	-4.024879e-07	-2.604774e-10	-2.800169e+00	-2.294156e+01
1.770000e-06	-3.557969e-07	-2.469576e-10	-2.475333e+00	-2.172067e+01
1.780000e-06	-3.090869e-07	-2.344025e-10	-2.150364e+00	-2.047926e+01
1.790000e-06	-2.623233e-07	-2.198750e-10	-1.825022e+00	-1.921757e+01
1.800000e-06	-2.155513e-07	-2.041360e-10	-1.499622e+00	-1.793590e+01
1.810000e-06	-1.687958e-07	-1.861437e-10	-1.174337e+00	-1.663465e+01
1.820000e-06	-1.220303e-07	-1.653519e-10	-8.489830e-01	-1.531426e+01
1.830000e-06	-7.520256e-08	-1.400018e-10	-5.231955e-01	-1.397523e+01
1.840000e-06	-2.837645e-08	-1.175134e-10	-1.974192e-01	-1.261816e+01
1.850000e-06	1.839012e-08	-9.999794e-11	1.279428e-01	-1.124369e+01
1.860000e-06	6.513877e-08	-8.614208e-11	4.531802e-01	-9.852528e+00
1.870000e-06	1.118928e-07	-6.940232e-11	7.784551e-01	-8.445458e+00
1.880000e-06	1.586299e-07	-5.037701e-11	1.103612e+00	-7.023315e+00
1.890000e-06	2.054254e-07	-2.999054e-11	1.429176e+00	-5.586998e+00
1.900000e-06	2.522491e-07	-7.197767e-12	1.754935e+00	-4.137462e+00
1.910000e-06	2.990414e-07	1.444359e-11	2.080476e+00	-2.675717e+00
1.920000e-06	3.457863e-07	3.516251e-11	2.405687e+00	-1.202822e+00
1.930000e-06	3.924159e-07	5.843714e-11	2.730096e+00	2.801170e-01
1.940000e-06	4.389891e-07	8.067310e-11	3.054113e+00	1.771950e+00
1.950000e-06	4.855706e-07	1.018938e-10	3.378187e+00	3.271488e+00
1.960000e-06	5.321222e-07	1.231924e-10	3.702054e+00	4.777510e+00
1.970000e-06	5.786635e-07	1.430511e-10	4.025849e+00	6.288764e+00
1.980000e-06	6.251894e-07	1.628578e-10	4.349536e+00	7.803972e+00
1.990000e-06	6.716847e-07	1.838027e-10	4.673011e+00	9.321840e+00
2.000000e-06	7.180757e-07	2.041756e-10	4.995760e+00	1.084106e+01
2.010000e-06	7.642744e-07	2.265352e-10	5.317171e+00	1.236030e+01
2.020000e-06	8.104270e-07	2.473684e-10	5.638262e+00	1.387825e+01
2.030000e-06	8.566323e-07	2.677714e-10	5.959719e+00	1.539359e+01
2.040000e-06	9.027618e-07	2.907482e-10	6.280649e+00	1.690500e+01
2.050000e-06	9.488051e-07	3.117651e-10	6.600980e+00	1.841117e+01
2.060000e-06	9.948175e-07	3.334051e-10	6.921095e+00	1.991082e+01
2.070000e-06	1.040807e-06	3.551393e-10	7.241048e+00	2.140270e+01
2.080000e-06	1.086680e-06	3.769469e-10	7.560193e+00	2.288555e+01
2.090000e-06	1.132401e-06	3.959473e-10	7.878283e+00	2.435819e+01
2.100000e-06	1.178040e-06	4.152443e-10	8.195803e+00	2.581944e+01
2.110000e-06	1.223554e-06	4.347424e-10	8.512449e+00	2.726818e+01
2.120000e-06	1.268977e-06	4.544994e-10	8.828464e+00	2.870333e+01
2.130000e-06	1.314324e-06	4.721548e-10	9.143948e+00	3.012385e+01
2.140000e-06	1.359609e-06	4.898984e-10	9.459001e+00	3.152878e+01
2.150000e-06	1.404842e-06	5.094630e-10	9.773695e+00	3.291718e+01
2.160000e-06	1.449981e-06	5.284996e-10	1.008774e+01	3.428820e+01
2.170000e-06	1.495030e-06	5.462301e-10	1.040115e+01	3.564103e+01
2.180000e-06	1.539984e-06	5.633254e-10	1.071390e+01	3.697493e+01
2.190000e-06	1.584787e-06	5.808249e-10	1.102560e+01	3.828922e+01
2.200000e-06	1.629467e-06	5.981616e-10	1.133645e+01	3.958330e+01
2.210000e-06	1.674065e-06	6.132618e-10	1.164672e+01	4.085662e+01
2.220000e-06	1.718563e-06	6.279342e-10	1.195630e+01	4.210872e+01
2.230000e-06	1.762919e-06	6.422929e-10	1.226489e+01	4.333918e+01
2.240000e-06	1.807050e-06	6.585338e-10	1.257191e+01	4.454766e+01
2.250000e-06	1.851020e-06	6.777469e-10	1.287782e+01	4.573390e+01
2.260000e-06	1.894943e-06	6.973674e-10	1.318340e+01	4.689770e+01
2.270000e-06	1.938834e-06	7.144087e-10	1.348876e+01	4.803890e+01
2.280000e-06	1.982640e-06	7.281735e-10	1.379352e+01	4.915744e+01
2.290000e-06	2.026370e-06	7.407870e-10	1.409776e+01	5.025331e+01
2.300000e-06	2.070066e-06	7.522593e-10	1.440176e+01	5.132654e+01
2.310000e-06	2.113697e-06	7.632295e-10	1.470531e+01	5.237724e+01
2.320000e-06	2.157217e-06	7.753282e-10	1.500808e+01	5.340557e+01
2.330000e-06	2.200646e-06	7.904986e-10	1.531022e+01	5.441174e+01
2.340000e-06	2.244034e-06	8.070898e-10	1.561208e+01	5.539600e+01
2.350000e-06	2.287285e-06	8.228819e-10	1.591299e+01	5.635866e+01
2.360000e-06	2.330290e-06	8.358777e-10	1.621218e+01	5.730006e+01
2.370000e-06	2.373000e-06	8.475510e-10	1.650932e+01	5.822059e+01
2.380000e-06	2.415415e-06	8.573366e-10	1.680441e+01	5.912065e+01
2.390000e-06	2.457553e-06	8.674064e-10	1.709757e+01	6.000071e+01
2.400000e-06	2.499351e-06	8.762311e-10	1.738836e+01	6.086122e+01
2.410000e-06	2.540813e-06	8.858516e-10	1.767682e+01	6.170270e+01
2.420000e-06	2.582012e-06	8.999153e-10	1.796345e+01	6.252565e+01
2.430000e-06	2.622932e-06	9.149110e-10	1.824813e+01	6.333061e+01
2.440000e-06	2.663539e-06	9.285026e-10	1.853064e+01	6.411813e+01
2.450000e-06	2.703922e-06	9.400304e-10	1.881159e+01	6.488876e+01
2.460000e-06	2.744127e-06	9.469563e-10	1.909130e+01	6.564306e+01
2.470000e-06	2.784138e-06	9.537292e-10	1.936966e+01	6.638158e+01
2.480000e-06	2.824002e-06	9.613476e-10	1.964701e+01	6.710489e+01
2.490000e-06	2.863732e-06	9.688992e-10	1.992341e+01	6.781355e+01
2.500000e-06	2.903304e-06	9.780560e-10	2.019872e+01	6.850809e+01
2.510000e-06	2.942753e-06	9.894479e-10	2.047317e+01	6.918906e+01
2.520000e-06	2.982094e-06	1.002201e-09	2.074688e+01	6.985698e+01
2.530000e-06	3.021234e-06	1.013765e-09	2.101918e+01	7.051235e+01
2.540000e-06	3.060135e-06	1.024904e-09	2.128982e+01	7.115567e+01
2.550000e-06	3.098883e-06	1.034921e-09	2.155939e+01	7.178742e+01
2.560000e-06	3.137464e-06	1.042180e-09	2.182781e+01	7.240803e+01
2.570000e-06	3.175842e-06	1.049026e-09	2.209481e+01	7.301796e+01
2.580000e-06	3.213958e-06	1.059904e-09	2.235999e+01	7.361759e+01
2.590000e-06	3.251822e-06	1.072929e-09	2.262341e+01	7.420732e+01
2.600000e-06	3.289490e-06	1.084772e-09	2.288547e+01	7.478750e+01
2.610000e-06	3.326900e-06	1.094268e-09	2.314574e+01	7.535846e+01
2.620000e-06	3.364095e-06	1.100357e-09	2.340451e+01	7.592052e+01
2.630000e-06	3.401083e-06	1.105048e-09	2.366185e+01	7.647394e+01
2.640000e-06	3.437759e-06	1.110113e-09	2.391700e+01	7.701900e+01
2.650000e-06	3.474123e-06	1.117155e-09	2.417000e+01	7.755592e+01
2.660000e-06	3.510207e-06	1.129918e-09	2.442104e+01	7.808490e+01
2.670000e-06	3.546081e-06	1.143029e-09	2.467062e+01	7.860612e+01
2.680000e-06	3.581860e-06	1.152656e-09	2.491953e+01	7.911974e+01
2.690000e-06	3.617533e-06	1.157059e-09	2.516772e+01	7.962590e+01
2.700000e-06	3.653107e-06	1.157550e-09	2.541521e+01	8.012471e+01
2.710000e-06	3.688537e-06	1.158820e-09	2.566171e+01	8.061626e+01
2.720000e-06	3.723724e-06	1.164049e-09	2.590651e+01	8.110063e+01
2.730000e-06	3.758625e-06	1.172447e-09	2.614931e+01	8.157787e+01
2.740000e-06	3.793161e-06	1.182756e-09	2.638959e+01	8.204801e+01
2.750000e-06	3.827218e-06	1.192187e-09	2.662653e+01	8.251108e+01
2.760000e-06	3.860791e-06	1.199455e-09	2.686010e+01	8.296710e+01
2.770000e-06	3.894009e-06	1.203193e-09	2.709120e+01	8.341605e+01
2.780000e-06	3.926867e-06	1.203910e-09	2.731980e+01	8.385793e+01
2.790000e-06	3.959334e-06	1.207074e-09	2.754568e+01	8.429271e+01
2.800000e-06	3.991445e-06	1.211524e-09	2.776908e+01	8.472036e+01
2.810000e-06	4.023270e-06	1.217769e-09	2.799050e+01	8.514085e+01
2.820000e-06	4.054933e-06	1.225662e-09	2.821078e+01	8.555414e+01
2.830000e-06	4.086449e-06	1.233287e-09	2.843004e+01	8.596017e+01
2.840000e-06	4.117765e-06	1.240600e-09	2.864791e+01	8.635891e+01
2.850000e-06	4.148831e-06	1.245950e-09	2.886404e+01	8.675030e+01
2.860000e-06	4.179576e-06	1.250320e-09	2.907794e+01	8.713431e+01
2.870000e-06	4.209988e-06	1.255593e-09	2.928952e+01	8.751088e+01
2.880000e-06	4.240103e-06	1.259627e-09	2.949903e+01	8.787998e+01
2.890000e-06	4.269972e-06	1.262095e-09	2.970684e+01	8.824156e+01
2.900000e-06	4.299642e-06	1.263292e-09	2.991325e+01	8.859560e+01
