# Temperatura_=_-0.4
# Concentracion g/m^3_=_1620.0
# C_Vs_to_Am_M_A/Vsm_=_65563218390.804596
# pendiente_HvsI_1/m_=_3716.3
# ordenada_HvsI_A/m_=_1297.0
# frecuencia_Hz_=_135090.11330480757

Tiempo_(s)	Campo_(V.s)	Magnetizacion_(V.s)	Campo_(kA/m)	Magnetizacion_(A/m)
0.000000e+00	-5.522217e-06	-1.608149e-09	-3.837233e+01	-1.026571e+02
1.000000e-08	-5.522516e-06	-1.605434e-09	-3.837440e+01	-1.026149e+02
2.000000e-08	-5.522493e-06	-1.604617e-09	-3.837424e+01	-1.025692e+02
3.000000e-08	-5.522137e-06	-1.606889e-09	-3.837177e+01	-1.025200e+02
4.000000e-08	-5.521482e-06	-1.607576e-09	-3.836722e+01	-1.024676e+02
5.000000e-08	-5.520344e-06	-1.603705e-09	-3.835931e+01	-1.024121e+02
6.000000e-08	-5.518508e-06	-1.602669e-09	-3.834656e+01	-1.023534e+02
7.000000e-08	-5.516099e-06	-1.615522e-09	-3.832981e+01	-1.022919e+02
8.000000e-08	-5.513209e-06	-1.651644e-09	-3.830974e+01	-1.022275e+02
9.000000e-08	-5.509812e-06	-1.629409e-09	-3.828613e+01	-1.021605e+02
1.000000e-07	-5.505934e-06	-1.520088e-09	-3.825918e+01	-1.020908e+02
1.100000e-07	-5.501694e-06	-1.514253e-09	-3.822972e+01	-1.020186e+02
1.200000e-07	-5.497284e-06	-1.643821e-09	-3.819908e+01	-1.019441e+02
1.300000e-07	-5.492621e-06	-1.675059e-09	-3.816667e+01	-1.018673e+02
1.400000e-07	-5.487547e-06	-1.602627e-09	-3.813142e+01	-1.017882e+02
1.500000e-07	-5.482161e-06	-1.509424e-09	-3.809399e+01	-1.017069e+02
1.600000e-07	-5.476493e-06	-1.655961e-09	-3.805460e+01	-1.016236e+02
1.700000e-07	-5.470345e-06	-1.678465e-09	-3.801188e+01	-1.015382e+02
1.800000e-07	-5.463733e-06	-1.582132e-09	-3.796594e+01	-1.014508e+02
1.900000e-07	-5.456743e-06	-1.500848e-09	-3.791737e+01	-1.013615e+02
2.000000e-07	-5.449422e-06	-1.581692e-09	-3.786650e+01	-1.012701e+02
2.100000e-07	-5.441833e-06	-1.624077e-09	-3.781376e+01	-1.011769e+02
2.200000e-07	-5.433975e-06	-1.559584e-09	-3.775916e+01	-1.010816e+02
2.300000e-07	-5.425869e-06	-1.511226e-09	-3.770284e+01	-1.009844e+02
2.400000e-07	-5.417280e-06	-1.528536e-09	-3.764315e+01	-1.008852e+02
2.500000e-07	-5.408114e-06	-1.565667e-09	-3.757946e+01	-1.007839e+02
2.600000e-07	-5.398421e-06	-1.524307e-09	-3.751210e+01	-1.006805e+02
2.700000e-07	-5.388093e-06	-1.535664e-09	-3.744034e+01	-1.005749e+02
2.800000e-07	-5.377138e-06	-1.520712e-09	-3.736422e+01	-1.004671e+02
2.900000e-07	-5.365683e-06	-1.547659e-09	-3.728462e+01	-1.003570e+02
3.000000e-07	-5.353913e-06	-1.516445e-09	-3.720283e+01	-1.002445e+02
3.100000e-07	-5.341805e-06	-1.523929e-09	-3.711870e+01	-1.001295e+02
3.200000e-07	-5.329190e-06	-1.510276e-09	-3.703104e+01	-1.000118e+02
3.300000e-07	-5.316173e-06	-1.551777e-09	-3.694058e+01	-9.989147e+01
3.400000e-07	-5.302835e-06	-1.518457e-09	-3.684791e+01	-9.976825e+01
3.500000e-07	-5.289015e-06	-1.501538e-09	-3.675187e+01	-9.964207e+01
3.600000e-07	-5.274778e-06	-1.501252e-09	-3.665295e+01	-9.951278e+01
3.700000e-07	-5.260181e-06	-1.535099e-09	-3.655151e+01	-9.938027e+01
3.800000e-07	-5.245008e-06	-1.489498e-09	-3.644608e+01	-9.924440e+01
3.900000e-07	-5.229131e-06	-1.512455e-09	-3.633575e+01	-9.910505e+01
4.000000e-07	-5.212839e-06	-1.547300e-09	-3.622255e+01	-9.896207e+01
4.100000e-07	-5.196355e-06	-1.508711e-09	-3.610801e+01	-9.881535e+01
4.200000e-07	-5.179465e-06	-1.457542e-09	-3.599064e+01	-9.866475e+01
4.300000e-07	-5.162301e-06	-1.521000e-09	-3.587138e+01	-9.851014e+01
4.400000e-07	-5.144884e-06	-1.523645e-09	-3.575035e+01	-9.835142e+01
4.500000e-07	-5.126942e-06	-1.429713e-09	-3.562567e+01	-9.818846e+01
4.600000e-07	-5.108546e-06	-1.462756e-09	-3.549784e+01	-9.802115e+01
4.700000e-07	-5.089800e-06	-1.529603e-09	-3.536759e+01	-9.784939e+01
4.800000e-07	-5.070691e-06	-1.475114e-09	-3.523480e+01	-9.767309e+01
4.900000e-07	-5.051271e-06	-1.434110e-09	-3.509985e+01	-9.749216e+01
5.000000e-07	-5.031672e-06	-1.508381e-09	-3.496367e+01	-9.730653e+01
5.100000e-07	-5.011882e-06	-1.468103e-09	-3.482615e+01	-9.711611e+01
5.200000e-07	-4.991785e-06	-1.413015e-09	-3.468650e+01	-9.692085e+01
5.300000e-07	-4.971346e-06	-1.468774e-09	-3.454448e+01	-9.672069e+01
5.400000e-07	-4.950540e-06	-1.491563e-09	-3.439991e+01	-9.651561e+01
5.500000e-07	-4.929382e-06	-1.399404e-09	-3.425289e+01	-9.630555e+01
5.600000e-07	-4.907936e-06	-1.435983e-09	-3.410387e+01	-9.609051e+01
5.700000e-07	-4.886212e-06	-1.487646e-09	-3.395291e+01	-9.587047e+01
5.800000e-07	-4.864105e-06	-1.434703e-09	-3.379929e+01	-9.564542e+01
5.900000e-07	-4.841559e-06	-1.398597e-09	-3.364263e+01	-9.541538e+01
6.000000e-07	-4.818713e-06	-1.456641e-09	-3.348388e+01	-9.518035e+01
6.100000e-07	-4.795587e-06	-1.424759e-09	-3.332318e+01	-9.494036e+01
6.200000e-07	-4.772107e-06	-1.392553e-09	-3.316003e+01	-9.469544e+01
6.300000e-07	-4.748459e-06	-1.425949e-09	-3.299570e+01	-9.444562e+01
6.400000e-07	-4.724660e-06	-1.436651e-09	-3.283033e+01	-9.419096e+01
6.500000e-07	-4.700501e-06	-1.394015e-09	-3.266245e+01	-9.393150e+01
6.600000e-07	-4.675870e-06	-1.408028e-09	-3.249130e+01	-9.366730e+01
6.700000e-07	-4.650779e-06	-1.410306e-09	-3.231695e+01	-9.339842e+01
6.800000e-07	-4.625088e-06	-1.377479e-09	-3.213843e+01	-9.312491e+01
6.900000e-07	-4.598717e-06	-1.371867e-09	-3.195519e+01	-9.284685e+01
7.000000e-07	-4.571893e-06	-1.391691e-09	-3.176879e+01	-9.256431e+01
7.100000e-07	-4.544782e-06	-1.376845e-09	-3.158041e+01	-9.227734e+01
7.200000e-07	-4.517441e-06	-1.366454e-09	-3.139042e+01	-9.198602e+01
7.300000e-07	-4.489898e-06	-1.378548e-09	-3.119903e+01	-9.169041e+01
7.400000e-07	-4.462186e-06	-1.370496e-09	-3.100647e+01	-9.139057e+01
7.500000e-07	-4.434260e-06	-1.351107e-09	-3.081242e+01	-9.108658e+01
7.600000e-07	-4.406048e-06	-1.346493e-09	-3.061638e+01	-9.077848e+01
7.700000e-07	-4.377493e-06	-1.347396e-09	-3.041796e+01	-9.046632e+01
7.800000e-07	-4.348587e-06	-1.333315e-09	-3.021711e+01	-9.015016e+01
7.900000e-07	-4.319393e-06	-1.334854e-09	-3.001424e+01	-8.983003e+01
8.000000e-07	-4.289981e-06	-1.330874e-09	-2.980987e+01	-8.950597e+01
8.100000e-07	-4.260316e-06	-1.319283e-09	-2.960373e+01	-8.917800e+01
8.200000e-07	-4.230274e-06	-1.308133e-09	-2.939498e+01	-8.884615e+01
8.300000e-07	-4.199970e-06	-1.313361e-09	-2.918441e+01	-8.851041e+01
8.400000e-07	-4.169427e-06	-1.298139e-09	-2.897217e+01	-8.817081e+01
8.500000e-07	-4.138572e-06	-1.288366e-09	-2.875777e+01	-8.782732e+01
8.600000e-07	-4.107405e-06	-1.286967e-09	-2.854120e+01	-8.747994e+01
8.700000e-07	-4.076000e-06	-1.288018e-09	-2.832297e+01	-8.712864e+01
8.800000e-07	-4.044506e-06	-1.275875e-09	-2.810413e+01	-8.677338e+01
8.900000e-07	-4.012840e-06	-1.279703e-09	-2.788409e+01	-8.641412e+01
9.000000e-07	-3.980925e-06	-1.272699e-09	-2.766232e+01	-8.605081e+01
9.100000e-07	-3.948753e-06	-1.258472e-09	-2.743877e+01	-8.568339e+01
9.200000e-07	-3.916252e-06	-1.249477e-09	-2.721293e+01	-8.531180e+01
9.300000e-07	-3.883246e-06	-1.248766e-09	-2.698358e+01	-8.493595e+01
9.400000e-07	-3.849766e-06	-1.233711e-09	-2.675094e+01	-8.455576e+01
9.500000e-07	-3.815923e-06	-1.226639e-09	-2.651578e+01	-8.417115e+01
9.600000e-07	-3.781662e-06	-1.229396e-09	-2.627770e+01	-8.378203e+01
9.700000e-07	-3.746941e-06	-1.226326e-09	-2.603644e+01	-8.338828e+01
9.800000e-07	-3.711828e-06	-1.216103e-09	-2.579245e+01	-8.298981e+01
9.900000e-07	-3.676513e-06	-1.216245e-09	-2.554705e+01	-8.258651e+01
1.000000e-06	-3.641017e-06	-1.210595e-09	-2.530040e+01	-8.217827e+01
1.010000e-06	-3.605361e-06	-1.196275e-09	-2.505264e+01	-8.176498e+01
1.020000e-06	-3.569605e-06	-1.192025e-09	-2.480418e+01	-8.134653e+01
1.030000e-06	-3.533646e-06	-1.190914e-09	-2.455431e+01	-8.092280e+01
1.040000e-06	-3.497487e-06	-1.181239e-09	-2.430305e+01	-8.049368e+01
1.050000e-06	-3.461053e-06	-1.173604e-09	-2.404988e+01	-8.005906e+01
1.060000e-06	-3.424368e-06	-1.176089e-09	-2.379497e+01	-7.961883e+01
1.070000e-06	-3.387474e-06	-1.169100e-09	-2.353860e+01	-7.917289e+01
1.080000e-06	-3.350325e-06	-1.157475e-09	-2.328046e+01	-7.872114e+01
1.090000e-06	-3.312933e-06	-1.150339e-09	-2.302063e+01	-7.826349e+01
1.100000e-06	-3.275271e-06	-1.145052e-09	-2.275893e+01	-7.779983e+01
1.110000e-06	-3.237369e-06	-1.130620e-09	-2.249557e+01	-7.733008e+01
1.120000e-06	-3.199253e-06	-1.124795e-09	-2.223070e+01	-7.685417e+01
1.130000e-06	-3.160917e-06	-1.118382e-09	-2.196432e+01	-7.637202e+01
1.140000e-06	-3.122339e-06	-1.107835e-09	-2.169625e+01	-7.588356e+01
1.150000e-06	-3.083486e-06	-1.093919e-09	-2.142627e+01	-7.538874e+01
1.160000e-06	-3.044420e-06	-1.087768e-09	-2.115481e+01	-7.488749e+01
1.170000e-06	-3.005247e-06	-1.078961e-09	-2.088262e+01	-7.437976e+01
1.180000e-06	-2.965920e-06	-1.070513e-09	-2.060934e+01	-7.386552e+01
1.190000e-06	-2.926467e-06	-1.064079e-09	-2.033519e+01	-7.334472e+01
1.200000e-06	-2.886864e-06	-1.059454e-09	-2.006001e+01	-7.281734e+01
1.210000e-06	-2.847107e-06	-1.047611e-09	-1.978375e+01	-7.228333e+01
1.220000e-06	-2.807210e-06	-1.039063e-09	-1.950651e+01	-7.174268e+01
1.230000e-06	-2.767158e-06	-1.029206e-09	-1.922820e+01	-7.119536e+01
1.240000e-06	-2.726948e-06	-1.016170e-09	-1.894879e+01	-7.064135e+01
1.250000e-06	-2.686516e-06	-1.005192e-09	-1.866784e+01	-7.008062e+01
1.260000e-06	-2.645883e-06	-9.992053e-10	-1.838549e+01	-6.951314e+01
1.270000e-06	-2.604904e-06	-9.913063e-10	-1.810074e+01	-6.893890e+01
1.280000e-06	-2.563652e-06	-9.803533e-10	-1.781410e+01	-6.835785e+01
1.290000e-06	-2.522121e-06	-9.709785e-10	-1.752550e+01	-6.776996e+01
1.300000e-06	-2.480154e-06	-9.619152e-10	-1.723389e+01	-6.717519e+01
1.310000e-06	-2.437972e-06	-9.490417e-10	-1.694078e+01	-6.657348e+01
1.320000e-06	-2.395522e-06	-9.375249e-10	-1.664580e+01	-6.596477e+01
1.330000e-06	-2.352686e-06	-9.301737e-10	-1.634815e+01	-6.534899e+01
1.340000e-06	-2.309630e-06	-9.200352e-10	-1.604897e+01	-6.472603e+01
1.350000e-06	-2.266419e-06	-9.074728e-10	-1.574871e+01	-6.409580e+01
1.360000e-06	-2.223102e-06	-8.958145e-10	-1.544771e+01	-6.345818e+01
1.370000e-06	-2.179709e-06	-8.832686e-10	-1.514618e+01	-6.281302e+01
1.380000e-06	-2.136180e-06	-8.675539e-10	-1.484371e+01	-6.216017e+01
1.390000e-06	-2.092559e-06	-8.553785e-10	-1.454060e+01	-6.149945e+01
1.400000e-06	-2.048879e-06	-8.437954e-10	-1.423708e+01	-6.083065e+01
1.410000e-06	-2.005136e-06	-8.338249e-10	-1.393312e+01	-6.015355e+01
1.420000e-06	-1.961394e-06	-8.228649e-10	-1.362917e+01	-5.946790e+01
1.430000e-06	-1.917593e-06	-8.118288e-10	-1.332482e+01	-5.877342e+01
1.440000e-06	-1.873560e-06	-7.966787e-10	-1.301884e+01	-5.806982e+01
1.450000e-06	-1.829429e-06	-7.813192e-10	-1.271219e+01	-5.735677e+01
1.460000e-06	-1.785226e-06	-7.663647e-10	-1.240503e+01	-5.663391e+01
1.470000e-06	-1.740780e-06	-7.556570e-10	-1.209619e+01	-5.590088e+01
1.480000e-06	-1.696196e-06	-7.450036e-10	-1.178639e+01	-5.515726e+01
1.490000e-06	-1.651520e-06	-7.370693e-10	-1.147595e+01	-5.440264e+01
1.500000e-06	-1.606645e-06	-7.300925e-10	-1.116412e+01	-5.363656e+01
1.510000e-06	-1.561695e-06	-7.216106e-10	-1.085178e+01	-5.285854e+01
1.520000e-06	-1.516697e-06	-7.098215e-10	-1.053910e+01	-5.206810e+01
1.530000e-06	-1.471463e-06	-6.948278e-10	-1.022478e+01	-5.126471e+01
1.540000e-06	-1.426093e-06	-6.782444e-10	-9.909521e+00	-5.044785e+01
1.550000e-06	-1.380684e-06	-6.663103e-10	-9.593982e+00	-4.961695e+01
1.560000e-06	-1.335232e-06	-6.586083e-10	-9.278153e+00	-4.877146e+01
1.570000e-06	-1.289692e-06	-6.510022e-10	-8.961704e+00	-4.791081e+01
1.580000e-06	-1.244038e-06	-6.399248e-10	-8.644469e+00	-4.703441e+01
1.590000e-06	-1.198357e-06	-6.241042e-10	-8.327047e+00	-4.614167e+01
1.600000e-06	-1.152587e-06	-6.062283e-10	-8.009005e+00	-4.523199e+01
1.610000e-06	-1.106659e-06	-5.905694e-10	-7.689862e+00	-4.430480e+01
1.620000e-06	-1.060704e-06	-5.756614e-10	-7.370536e+00	-4.335950e+01
1.630000e-06	-1.014772e-06	-5.591383e-10	-7.051361e+00	-4.239553e+01
1.640000e-06	-9.687197e-07	-5.435726e-10	-6.731360e+00	-4.141230e+01
1.650000e-06	-9.225889e-07	-5.303313e-10	-6.410810e+00	-4.040929e+01
1.660000e-06	-8.763722e-07	-5.194842e-10	-6.089663e+00	-3.938596e+01
1.670000e-06	-8.300645e-07	-5.064827e-10	-5.767884e+00	-3.834180e+01
1.680000e-06	-7.836964e-07	-4.929771e-10	-5.445685e+00	-3.727636e+01
1.690000e-06	-7.372680e-07	-4.800485e-10	-5.123067e+00	-3.618918e+01
1.700000e-06	-6.908136e-07	-4.638619e-10	-4.800269e+00	-3.507986e+01
1.710000e-06	-6.442523e-07	-4.427986e-10	-4.476727e+00	-3.394804e+01
1.720000e-06	-5.977353e-07	-4.226019e-10	-4.153494e+00	-3.279341e+01
1.730000e-06	-5.512392e-07	-4.038087e-10	-3.830406e+00	-3.161570e+01
1.740000e-06	-5.046144e-07	-3.868337e-10	-3.506423e+00	-3.041468e+01
1.750000e-06	-4.579221e-07	-3.689536e-10	-3.181971e+00	-2.919021e+01
1.760000e-06	-4.112374e-07	-3.523806e-10	-2.857572e+00	-2.794217e+01
1.770000e-06	-3.646079e-07	-3.349794e-10	-2.533558e+00	-2.667055e+01
1.780000e-06	-3.179558e-07	-3.153326e-10	-2.209385e+00	-2.537535e+01
1.790000e-06	-2.712520e-07	-2.941837e-10	-1.884854e+00	-2.405669e+01
1.800000e-06	-2.244480e-07	-2.734080e-10	-1.559626e+00	-2.271472e+01
1.810000e-06	-1.776361e-07	-2.547671e-10	-1.234343e+00	-2.134968e+01
1.820000e-06	-1.308519e-07	-2.373265e-10	-9.092531e-01	-1.996190e+01
1.830000e-06	-8.393995e-08	-2.167139e-10	-5.832750e-01	-1.855175e+01
1.840000e-06	-3.698169e-08	-1.944299e-10	-2.569754e-01	-1.711969e+01
1.850000e-06	9.924823e-09	-1.720285e-10	6.896479e-02	-1.566627e+01
1.860000e-06	5.670350e-08	-1.514842e-10	3.940166e-01	-1.419211e+01
1.870000e-06	1.034287e-07	-1.298355e-10	7.186969e-01	-1.269788e+01
1.880000e-06	1.502372e-07	-1.058398e-10	1.043956e+00	-1.118437e+01
1.890000e-06	1.970860e-07	-8.396915e-11	1.369495e+00	-9.652395e+00
1.900000e-06	2.439388e-07	-6.392357e-11	1.695062e+00	-8.102878e+00
1.910000e-06	2.907925e-07	-4.518729e-11	2.020635e+00	-6.536797e+00
1.920000e-06	3.375821e-07	-2.458867e-11	2.345763e+00	-4.955199e+00
1.930000e-06	3.843442e-07	-8.312620e-13	2.670700e+00	-3.359193e+00
1.940000e-06	4.310530e-07	2.410863e-11	2.995266e+00	-1.749953e+00
1.950000e-06	4.776622e-07	4.865245e-11	3.319140e+00	-1.287058e-01
1.960000e-06	5.242467e-07	7.220900e-11	3.642843e+00	1.503266e+00
1.970000e-06	5.708242e-07	9.366727e-11	3.966496e+00	3.144632e+00
1.980000e-06	6.173639e-07	1.152409e-10	4.289888e+00	4.794019e+00
1.990000e-06	6.638187e-07	1.367181e-10	4.612689e+00	6.450014e+00
2.000000e-06	7.101722e-07	1.574569e-10	4.934787e+00	8.111170e+00
2.010000e-06	7.564554e-07	1.794189e-10	5.256395e+00	9.776013e+00
2.020000e-06	8.026516e-07	1.998752e-10	5.577399e+00	1.144305e+01
2.030000e-06	8.488807e-07	2.210729e-10	5.898633e+00	1.311076e+01
2.040000e-06	8.951368e-07	2.482302e-10	6.220053e+00	1.477762e+01
2.050000e-06	9.412629e-07	2.754619e-10	6.540570e+00	1.644211e+01
2.060000e-06	9.872927e-07	3.005835e-10	6.860419e+00	1.810269e+01
2.070000e-06	1.033264e-06	3.227153e-10	7.179863e+00	1.975785e+01
2.080000e-06	1.079129e-06	3.417412e-10	7.498565e+00	2.140609e+01
2.090000e-06	1.124869e-06	3.603629e-10	7.816395e+00	2.304591e+01
2.100000e-06	1.170535e-06	3.833222e-10	8.133714e+00	2.467587e+01
2.110000e-06	1.216198e-06	4.073104e-10	8.451016e+00	2.629452e+01
2.120000e-06	1.261848e-06	4.312503e-10	8.768228e+00	2.790048e+01
2.130000e-06	1.307393e-06	4.550169e-10	9.084702e+00	2.949240e+01
2.140000e-06	1.352780e-06	4.771891e-10	9.400089e+00	3.106897e+01
2.150000e-06	1.398084e-06	4.977201e-10	9.714891e+00	3.262897e+01
2.160000e-06	1.443332e-06	5.162948e-10	1.002930e+01	3.417118e+01
2.170000e-06	1.488462e-06	5.352149e-10	1.034290e+01	3.569449e+01
2.180000e-06	1.533418e-06	5.546467e-10	1.065529e+01	3.719783e+01
2.190000e-06	1.578243e-06	5.744469e-10	1.096677e+01	3.868020e+01
2.200000e-06	1.623099e-06	5.951729e-10	1.127846e+01	4.014069e+01
2.210000e-06	1.667895e-06	6.153455e-10	1.158973e+01	4.157845e+01
2.220000e-06	1.712490e-06	6.335668e-10	1.189961e+01	4.299270e+01
2.230000e-06	1.756832e-06	6.493996e-10	1.220773e+01	4.438276e+01
2.240000e-06	1.801036e-06	6.660571e-10	1.251489e+01	4.574802e+01
2.250000e-06	1.845132e-06	6.843042e-10	1.282130e+01	4.708795e+01
2.260000e-06	1.889125e-06	7.033794e-10	1.312700e+01	4.840209e+01
2.270000e-06	1.933047e-06	7.238458e-10	1.343220e+01	4.969010e+01
2.280000e-06	1.976868e-06	7.420873e-10	1.373670e+01	5.095168e+01
2.290000e-06	2.020607e-06	7.569193e-10	1.404063e+01	5.218662e+01
2.300000e-06	2.064282e-06	7.705405e-10	1.434411e+01	5.339482e+01
2.310000e-06	2.107952e-06	7.847295e-10	1.464757e+01	5.457621e+01
2.320000e-06	2.151585e-06	8.001097e-10	1.495076e+01	5.573084e+01
2.330000e-06	2.195122e-06	8.174288e-10	1.525328e+01	5.685879e+01
2.340000e-06	2.238521e-06	8.339824e-10	1.555485e+01	5.796025e+01
2.350000e-06	2.281734e-06	8.494328e-10	1.585512e+01	5.903545e+01
2.360000e-06	2.324841e-06	8.642281e-10	1.615466e+01	6.008470e+01
2.370000e-06	2.367724e-06	8.780391e-10	1.645265e+01	6.110835e+01
2.380000e-06	2.410240e-06	8.901554e-10	1.674808e+01	6.210683e+01
2.390000e-06	2.452527e-06	9.023517e-10	1.704192e+01	6.308059e+01
2.400000e-06	2.494481e-06	9.140486e-10	1.733344e+01	6.403016e+01
2.410000e-06	2.536056e-06	9.266322e-10	1.762234e+01	6.495609e+01
2.420000e-06	2.577421e-06	9.407027e-10	1.790977e+01	6.585897e+01
2.430000e-06	2.618550e-06	9.554005e-10	1.819556e+01	6.673943e+01
2.440000e-06	2.659299e-06	9.677135e-10	1.847872e+01	6.759812e+01
2.450000e-06	2.699808e-06	9.770626e-10	1.876020e+01	6.843572e+01
2.460000e-06	2.740138e-06	9.866588e-10	1.904044e+01	6.925291e+01
2.470000e-06	2.780250e-06	9.989542e-10	1.931917e+01	7.005042e+01
2.480000e-06	2.820188e-06	1.012694e-09	1.959669e+01	7.082894e+01
2.490000e-06	2.859927e-06	1.024148e-09	1.987282e+01	7.158919e+01
2.500000e-06	2.899512e-06	1.034026e-09	2.014789e+01	7.233190e+01
2.510000e-06	2.938954e-06	1.043010e-09	2.042196e+01	7.305777e+01
2.520000e-06	2.978264e-06	1.052633e-09	2.069511e+01	7.376751e+01
2.530000e-06	3.017398e-06	1.062934e-09	2.096704e+01	7.446179e+01
2.540000e-06	3.056299e-06	1.074364e-09	2.123736e+01	7.514130e+01
2.550000e-06	3.095042e-06	1.088254e-09	2.150657e+01	7.580667e+01
2.560000e-06	3.133629e-06	1.099409e-09	2.177470e+01	7.645855e+01
2.570000e-06	3.171959e-06	1.107492e-09	2.204105e+01	7.709753e+01
2.580000e-06	3.210061e-06	1.116800e-09	2.230581e+01	7.772417e+01
2.590000e-06	3.247968e-06	1.126269e-09	2.256921e+01	7.833903e+01
2.600000e-06	3.285637e-06	1.135055e-09	2.283096e+01	7.894262e+01
2.610000e-06	3.323044e-06	1.143723e-09	2.309089e+01	7.953540e+01
2.620000e-06	3.360257e-06	1.151614e-09	2.334948e+01	8.011781e+01
2.630000e-06	3.397205e-06	1.160569e-09	2.360622e+01	8.069026e+01
2.640000e-06	3.433895e-06	1.170016e-09	2.386117e+01	8.125313e+01
2.650000e-06	3.470355e-06	1.178176e-09	2.411452e+01	8.180673e+01
2.660000e-06	3.506536e-06	1.188851e-09	2.436593e+01	8.235136e+01
2.670000e-06	3.542559e-06	1.198017e-09	2.461624e+01	8.288729e+01
2.680000e-06	3.578465e-06	1.205233e-09	2.486574e+01	8.341473e+01
2.690000e-06	3.614198e-06	1.211906e-09	2.511404e+01	8.393388e+01
2.700000e-06	3.649759e-06	1.216809e-09	2.536115e+01	8.444489e+01
2.710000e-06	3.685153e-06	1.224380e-09	2.560709e+01	8.494789e+01
2.720000e-06	3.720317e-06	1.234702e-09	2.585143e+01	8.544298e+01
2.730000e-06	3.755196e-06	1.243847e-09	2.609380e+01	8.593022e+01
2.740000e-06	3.789734e-06	1.251795e-09	2.633379e+01	8.640966e+01
2.750000e-06	3.823977e-06	1.259423e-09	2.657174e+01	8.688131e+01
2.760000e-06	3.857764e-06	1.265580e-09	2.680652e+01	8.734519e+01
2.770000e-06	3.891068e-06	1.269685e-09	2.703793e+01	8.780127e+01
2.780000e-06	3.923906e-06	1.273424e-09	2.726612e+01	8.824951e+01
2.790000e-06	3.956271e-06	1.279508e-09	2.749101e+01	8.868987e+01
2.800000e-06	3.988421e-06	1.285626e-09	2.771441e+01	8.912230e+01
2.810000e-06	4.020318e-06	1.290715e-09	2.793606e+01	8.954672e+01
2.820000e-06	4.051972e-06	1.296690e-09	2.815601e+01	8.996306e+01
2.830000e-06	4.083490e-06	1.303015e-09	2.837502e+01	9.037126e+01
2.840000e-06	4.114766e-06	1.309747e-09	2.859235e+01	9.077123e+01
2.850000e-06	4.145817e-06	1.315251e-09	2.880812e+01	9.116291e+01
2.860000e-06	4.176699e-06	1.319050e-09	2.902271e+01	9.154622e+01
2.870000e-06	4.207300e-06	1.323097e-09	2.923534e+01	9.192110e+01
2.880000e-06	4.237487e-06	1.326795e-09	2.944510e+01	9.228750e+01
2.890000e-06	4.267389e-06	1.328945e-09	2.965288e+01	9.264537e+01
2.900000e-06	4.297066e-06	1.331364e-09	2.985910e+01	9.299469e+01
