# Temperatura_=_-0.4
# Concentracion g/m^3_=_1620.0
# C_Vs_to_Am_M_A/Vsm_=_65563218390.804596
# pendiente_HvsI_1/m_=_3716.3
# ordenada_HvsI_A/m_=_1297.0
# frecuencia_Hz_=_135095.1968369226

Tiempo_(s)	Campo_(V.s)	Magnetizacion_(V.s)	Campo_(kA/m)	Magnetizacion_(A/m)
0.000000e+00	-5.537890e-06	-1.448255e-09	-3.837058e+01	-9.316700e+01
1.000000e-08	-5.538038e-06	-1.445800e-09	-3.837160e+01	-9.313948e+01
2.000000e-08	-5.537827e-06	-1.444940e-09	-3.837014e+01	-9.311007e+01
3.000000e-08	-5.537160e-06	-1.444997e-09	-3.836552e+01	-9.307865e+01
4.000000e-08	-5.535830e-06	-1.442498e-09	-3.835630e+01	-9.304504e+01
5.000000e-08	-5.533831e-06	-1.438919e-09	-3.834245e+01	-9.300907e+01
6.000000e-08	-5.531349e-06	-1.436438e-09	-3.832526e+01	-9.297057e+01
7.000000e-08	-5.528446e-06	-1.455852e-09	-3.830514e+01	-9.292934e+01
8.000000e-08	-5.525087e-06	-1.474151e-09	-3.828186e+01	-9.288521e+01
9.000000e-08	-5.521216e-06	-1.442908e-09	-3.825504e+01	-9.283797e+01
1.000000e-07	-5.516982e-06	-1.412519e-09	-3.822571e+01	-9.278743e+01
1.100000e-07	-5.512610e-06	-1.438734e-09	-3.819541e+01	-9.273341e+01
1.200000e-07	-5.508023e-06	-1.504272e-09	-3.816363e+01	-9.267572e+01
1.300000e-07	-5.503053e-06	-1.468391e-09	-3.812920e+01	-9.261417e+01
1.400000e-07	-5.497705e-06	-1.398871e-09	-3.809214e+01	-9.254859e+01
1.500000e-07	-5.491945e-06	-1.416795e-09	-3.805223e+01	-9.247883e+01
1.600000e-07	-5.485771e-06	-1.477373e-09	-3.800946e+01	-9.240473e+01
1.700000e-07	-5.479182e-06	-1.478752e-09	-3.796380e+01	-9.232616e+01
1.800000e-07	-5.472164e-06	-1.387551e-09	-3.791518e+01	-9.224299e+01
1.900000e-07	-5.464831e-06	-1.401239e-09	-3.786436e+01	-9.215513e+01
2.000000e-07	-5.457186e-06	-1.451770e-09	-3.781140e+01	-9.206249e+01
2.100000e-07	-5.449225e-06	-1.491524e-09	-3.775624e+01	-9.196500e+01
2.200000e-07	-5.440975e-06	-1.432889e-09	-3.769907e+01	-9.186262e+01
2.300000e-07	-5.432430e-06	-1.418805e-09	-3.763987e+01	-9.175531e+01
2.400000e-07	-5.423262e-06	-1.432120e-09	-3.757635e+01	-9.164309e+01
2.500000e-07	-5.413261e-06	-1.450091e-09	-3.750705e+01	-9.152595e+01
2.600000e-07	-5.402683e-06	-1.417831e-09	-3.743376e+01	-9.140394e+01
2.700000e-07	-5.391653e-06	-1.400980e-09	-3.735734e+01	-9.127712e+01
2.800000e-07	-5.380236e-06	-1.410702e-09	-3.727823e+01	-9.114556e+01
2.900000e-07	-5.368478e-06	-1.418118e-09	-3.719676e+01	-9.100936e+01
3.000000e-07	-5.356367e-06	-1.400981e-09	-3.711285e+01	-9.086863e+01
3.100000e-07	-5.343779e-06	-1.386289e-09	-3.702563e+01	-9.072352e+01
3.200000e-07	-5.330749e-06	-1.417633e-09	-3.693535e+01	-9.057416e+01
3.300000e-07	-5.317484e-06	-1.413981e-09	-3.684344e+01	-9.042073e+01
3.400000e-07	-5.303820e-06	-1.375950e-09	-3.674877e+01	-9.026339e+01
3.500000e-07	-5.289640e-06	-1.350178e-09	-3.665052e+01	-9.010233e+01
3.600000e-07	-5.274994e-06	-1.388969e-09	-3.654904e+01	-8.993776e+01
3.700000e-07	-5.259864e-06	-1.375955e-09	-3.644421e+01	-8.976986e+01
3.800000e-07	-5.244218e-06	-1.358648e-09	-3.633580e+01	-8.959885e+01
3.900000e-07	-5.228102e-06	-1.384709e-09	-3.622414e+01	-8.942495e+01
4.000000e-07	-5.211614e-06	-1.406026e-09	-3.610990e+01	-8.924835e+01
4.100000e-07	-5.194736e-06	-1.346200e-09	-3.599295e+01	-8.906927e+01
4.200000e-07	-5.177511e-06	-1.356248e-09	-3.587360e+01	-8.888791e+01
4.300000e-07	-5.159984e-06	-1.393912e-09	-3.575217e+01	-8.870447e+01
4.400000e-07	-5.142169e-06	-1.358100e-09	-3.562873e+01	-8.851915e+01
4.500000e-07	-5.123904e-06	-1.307186e-09	-3.550217e+01	-8.833212e+01
4.600000e-07	-5.105122e-06	-1.368469e-09	-3.537204e+01	-8.814355e+01
4.700000e-07	-5.086039e-06	-1.371939e-09	-3.523982e+01	-8.795360e+01
4.800000e-07	-5.066681e-06	-1.321812e-09	-3.510569e+01	-8.776242e+01
4.900000e-07	-5.047111e-06	-1.343499e-09	-3.497010e+01	-8.757011e+01
5.000000e-07	-5.027401e-06	-1.378505e-09	-3.483353e+01	-8.737679e+01
5.100000e-07	-5.007373e-06	-1.313997e-09	-3.469476e+01	-8.718255e+01
5.200000e-07	-4.986931e-06	-1.312200e-09	-3.455313e+01	-8.698745e+01
5.300000e-07	-4.966118e-06	-1.362360e-09	-3.440891e+01	-8.679154e+01
5.400000e-07	-4.944888e-06	-1.325953e-09	-3.426182e+01	-8.659484e+01
5.500000e-07	-4.923228e-06	-1.284664e-09	-3.411175e+01	-8.639736e+01
5.600000e-07	-4.901271e-06	-1.337958e-09	-3.395961e+01	-8.619907e+01
5.700000e-07	-4.879019e-06	-1.339158e-09	-3.380543e+01	-8.599995e+01
5.800000e-07	-4.856371e-06	-1.292029e-09	-3.364851e+01	-8.579992e+01
5.900000e-07	-4.833425e-06	-1.317884e-09	-3.348953e+01	-8.559892e+01
6.000000e-07	-4.810208e-06	-1.334780e-09	-3.332866e+01	-8.539683e+01
6.100000e-07	-4.786727e-06	-1.291064e-09	-3.316597e+01	-8.519353e+01
6.200000e-07	-4.763129e-06	-1.291721e-09	-3.300246e+01	-8.498890e+01
6.300000e-07	-4.739252e-06	-1.320954e-09	-3.283702e+01	-8.478278e+01
6.400000e-07	-4.714931e-06	-1.286950e-09	-3.266851e+01	-8.457499e+01
6.500000e-07	-4.690278e-06	-1.277215e-09	-3.249769e+01	-8.436536e+01
6.600000e-07	-4.665209e-06	-1.297224e-09	-3.232400e+01	-8.415368e+01
6.700000e-07	-4.639500e-06	-1.280460e-09	-3.214587e+01	-8.393976e+01
6.800000e-07	-4.613222e-06	-1.257762e-09	-3.196379e+01	-8.372337e+01
6.900000e-07	-4.586517e-06	-1.283716e-09	-3.177876e+01	-8.350430e+01
7.000000e-07	-4.559393e-06	-1.275958e-09	-3.159083e+01	-8.328231e+01
7.100000e-07	-4.531974e-06	-1.255443e-09	-3.140085e+01	-8.305719e+01
7.200000e-07	-4.504433e-06	-1.264144e-09	-3.121003e+01	-8.282869e+01
7.300000e-07	-4.476743e-06	-1.270836e-09	-3.101817e+01	-8.259658e+01
7.400000e-07	-4.448780e-06	-1.243235e-09	-3.082442e+01	-8.236063e+01
7.500000e-07	-4.420444e-06	-1.244720e-09	-3.062809e+01	-8.212062e+01
7.600000e-07	-4.391693e-06	-1.245685e-09	-3.042888e+01	-8.187632e+01
7.700000e-07	-4.362696e-06	-1.226226e-09	-3.022797e+01	-8.162752e+01
7.800000e-07	-4.333568e-06	-1.219135e-09	-3.002615e+01	-8.137401e+01
7.900000e-07	-4.304179e-06	-1.232459e-09	-2.982252e+01	-8.111560e+01
8.000000e-07	-4.274474e-06	-1.217392e-09	-2.961670e+01	-8.085209e+01
8.100000e-07	-4.244369e-06	-1.204478e-09	-2.940811e+01	-8.058331e+01
8.200000e-07	-4.213975e-06	-1.211304e-09	-2.919752e+01	-8.030910e+01
8.300000e-07	-4.183315e-06	-1.203460e-09	-2.898508e+01	-8.002930e+01
8.400000e-07	-4.152343e-06	-1.181503e-09	-2.877048e+01	-7.974379e+01
8.500000e-07	-4.121176e-06	-1.181595e-09	-2.855454e+01	-7.945243e+01
8.600000e-07	-4.089827e-06	-1.181843e-09	-2.833733e+01	-7.915512e+01
8.700000e-07	-4.058279e-06	-1.167306e-09	-2.811874e+01	-7.885176e+01
8.800000e-07	-4.026501e-06	-1.167240e-09	-2.789856e+01	-7.854229e+01
8.900000e-07	-3.994539e-06	-1.171711e-09	-2.767710e+01	-7.822662e+01
9.000000e-07	-3.962302e-06	-1.158098e-09	-2.745374e+01	-7.790472e+01
9.100000e-07	-3.929629e-06	-1.145204e-09	-2.722736e+01	-7.757655e+01
9.200000e-07	-3.896486e-06	-1.145881e-09	-2.699772e+01	-7.724207e+01
9.300000e-07	-3.862869e-06	-1.134236e-09	-2.676480e+01	-7.690129e+01
9.400000e-07	-3.828796e-06	-1.121178e-09	-2.652872e+01	-7.655421e+01
9.500000e-07	-3.794325e-06	-1.119311e-09	-2.628987e+01	-7.620083e+01
9.600000e-07	-3.759470e-06	-1.115625e-09	-2.604838e+01	-7.584118e+01
9.700000e-07	-3.724274e-06	-1.100171e-09	-2.580451e+01	-7.547529e+01
9.800000e-07	-3.688933e-06	-1.097750e-09	-2.555964e+01	-7.510320e+01
9.900000e-07	-3.653494e-06	-1.097120e-09	-2.531410e+01	-7.472497e+01
1.000000e-06	-3.617882e-06	-1.087682e-09	-2.506735e+01	-7.434064e+01
1.010000e-06	-3.582113e-06	-1.079817e-09	-2.481951e+01	-7.395027e+01
1.020000e-06	-3.546151e-06	-1.083423e-09	-2.457034e+01	-7.355394e+01
1.030000e-06	-3.509976e-06	-1.076449e-09	-2.431970e+01	-7.315170e+01
1.040000e-06	-3.473449e-06	-1.068431e-09	-2.406661e+01	-7.274363e+01
1.050000e-06	-3.436577e-06	-1.063851e-09	-2.381113e+01	-7.232980e+01
1.060000e-06	-3.399459e-06	-1.054352e-09	-2.355395e+01	-7.191027e+01
1.070000e-06	-3.362074e-06	-1.036870e-09	-2.329492e+01	-7.148513e+01
1.080000e-06	-3.324562e-06	-1.031700e-09	-2.303501e+01	-7.105444e+01
1.090000e-06	-3.286892e-06	-1.029537e-09	-2.277400e+01	-7.061826e+01
1.100000e-06	-3.248972e-06	-1.021293e-09	-2.251126e+01	-7.017666e+01
1.110000e-06	-3.210771e-06	-1.016335e-09	-2.224658e+01	-6.972971e+01
1.120000e-06	-3.172223e-06	-1.016721e-09	-2.197949e+01	-6.927745e+01
1.130000e-06	-3.133472e-06	-1.007010e-09	-2.171100e+01	-6.881993e+01
1.140000e-06	-3.094616e-06	-9.919366e-10	-2.144178e+01	-6.835721e+01
1.150000e-06	-3.055591e-06	-9.822345e-10	-2.117138e+01	-6.788932e+01
1.160000e-06	-3.016405e-06	-9.715922e-10	-2.089987e+01	-6.741628e+01
1.170000e-06	-2.977070e-06	-9.603973e-10	-2.062733e+01	-6.693814e+01
1.180000e-06	-2.937581e-06	-9.562834e-10	-2.035372e+01	-6.645489e+01
1.190000e-06	-2.897973e-06	-9.540053e-10	-2.007929e+01	-6.596655e+01
1.200000e-06	-2.858202e-06	-9.462480e-10	-1.980373e+01	-6.547313e+01
1.210000e-06	-2.818276e-06	-9.395003e-10	-1.952709e+01	-6.497460e+01
1.220000e-06	-2.778201e-06	-9.323069e-10	-1.924942e+01	-6.447096e+01
1.230000e-06	-2.737870e-06	-9.215218e-10	-1.896998e+01	-6.396217e+01
1.240000e-06	-2.697281e-06	-9.098980e-10	-1.868874e+01	-6.344820e+01
1.250000e-06	-2.656391e-06	-9.024557e-10	-1.840543e+01	-6.292900e+01
1.260000e-06	-2.615261e-06	-8.925915e-10	-1.812045e+01	-6.240450e+01
1.270000e-06	-2.573864e-06	-8.839848e-10	-1.783362e+01	-6.187465e+01
1.280000e-06	-2.532026e-06	-8.781374e-10	-1.754374e+01	-6.133935e+01
1.290000e-06	-2.489832e-06	-8.700458e-10	-1.725139e+01	-6.079851e+01
1.300000e-06	-2.447424e-06	-8.577609e-10	-1.695755e+01	-6.025203e+01
1.310000e-06	-2.404810e-06	-8.478533e-10	-1.666230e+01	-5.969978e+01
1.320000e-06	-2.361971e-06	-8.382353e-10	-1.636547e+01	-5.914163e+01
1.330000e-06	-2.318966e-06	-8.274156e-10	-1.606750e+01	-5.857743e+01
1.340000e-06	-2.275819e-06	-8.167218e-10	-1.576855e+01	-5.800702e+01
1.350000e-06	-2.232481e-06	-8.074500e-10	-1.546827e+01	-5.743023e+01
1.360000e-06	-2.188966e-06	-7.964013e-10	-1.516676e+01	-5.684685e+01
1.370000e-06	-2.145377e-06	-7.866797e-10	-1.486475e+01	-5.625668e+01
1.380000e-06	-2.101722e-06	-7.755814e-10	-1.456228e+01	-5.565948e+01
1.390000e-06	-2.057966e-06	-7.625772e-10	-1.425910e+01	-5.505502e+01
1.400000e-06	-2.014137e-06	-7.486745e-10	-1.395542e+01	-5.444303e+01
1.410000e-06	-1.970247e-06	-7.382428e-10	-1.365132e+01	-5.382323e+01
1.420000e-06	-1.926239e-06	-7.320612e-10	-1.334640e+01	-5.319532e+01
1.430000e-06	-1.882145e-06	-7.252228e-10	-1.304089e+01	-5.255899e+01
1.440000e-06	-1.837973e-06	-7.159942e-10	-1.273483e+01	-5.191388e+01
1.450000e-06	-1.793629e-06	-7.034635e-10	-1.242758e+01	-5.125965e+01
1.460000e-06	-1.749133e-06	-6.885418e-10	-1.211928e+01	-5.059592e+01
1.470000e-06	-1.704492e-06	-6.741670e-10	-1.180997e+01	-4.992230e+01
1.480000e-06	-1.659680e-06	-6.613081e-10	-1.149948e+01	-4.923837e+01
1.490000e-06	-1.614743e-06	-6.522859e-10	-1.118813e+01	-4.854371e+01
1.500000e-06	-1.569611e-06	-6.456067e-10	-1.087542e+01	-4.783786e+01
1.510000e-06	-1.524310e-06	-6.377436e-10	-1.056154e+01	-4.712036e+01
1.520000e-06	-1.478998e-06	-6.276431e-10	-1.024759e+01	-4.639074e+01
1.530000e-06	-1.433679e-06	-6.173418e-10	-9.933585e+00	-4.564850e+01
1.540000e-06	-1.388231e-06	-6.067345e-10	-9.618685e+00	-4.489313e+01
1.550000e-06	-1.342617e-06	-5.941846e-10	-9.302640e+00	-4.412413e+01
1.560000e-06	-1.296958e-06	-5.807478e-10	-8.986279e+00	-4.334097e+01
1.570000e-06	-1.251156e-06	-5.669447e-10	-8.668927e+00	-4.254311e+01
1.580000e-06	-1.205258e-06	-5.533921e-10	-8.350913e+00	-4.173004e+01
1.590000e-06	-1.159389e-06	-5.400322e-10	-8.033097e+00	-4.090121e+01
1.600000e-06	-1.113398e-06	-5.292164e-10	-7.714443e+00	-4.005609e+01
1.610000e-06	-1.067247e-06	-5.181063e-10	-7.394669e+00	-3.919416e+01
1.620000e-06	-1.021008e-06	-5.046495e-10	-7.074295e+00	-3.831489e+01
1.630000e-06	-9.747689e-07	-4.906533e-10	-6.753916e+00	-3.741778e+01
1.640000e-06	-9.284764e-07	-4.776816e-10	-6.433167e+00	-3.650233e+01
1.650000e-06	-8.819992e-07	-4.624902e-10	-6.111139e+00	-3.556808e+01
1.660000e-06	-8.354271e-07	-4.466464e-10	-5.788453e+00	-3.461456e+01
1.670000e-06	-7.888939e-07	-4.318962e-10	-5.466037e+00	-3.364135e+01
1.680000e-06	-7.423466e-07	-4.196338e-10	-5.143523e+00	-3.264806e+01
1.690000e-06	-6.957371e-07	-4.058621e-10	-4.820578e+00	-3.163432e+01
1.700000e-06	-6.491102e-07	-3.909895e-10	-4.497513e+00	-3.059980e+01
1.710000e-06	-6.024123e-07	-3.759220e-10	-4.173955e+00	-2.954423e+01
1.720000e-06	-5.555912e-07	-3.608419e-10	-3.849545e+00	-2.846736e+01
1.730000e-06	-5.087200e-07	-3.442241e-10	-3.524786e+00	-2.736901e+01
1.740000e-06	-4.618598e-07	-3.258904e-10	-3.200104e+00	-2.624904e+01
1.750000e-06	-4.149811e-07	-3.070562e-10	-2.875294e+00	-2.510736e+01
1.760000e-06	-3.680111e-07	-2.878548e-10	-2.549851e+00	-2.394396e+01
1.770000e-06	-3.209725e-07	-2.702057e-10	-2.223933e+00	-2.275887e+01
1.780000e-06	-2.739383e-07	-2.552071e-10	-1.898046e+00	-2.155220e+01
1.790000e-06	-2.268955e-07	-2.405805e-10	-1.572099e+00	-2.032411e+01
1.800000e-06	-1.798099e-07	-2.241919e-10	-1.245855e+00	-1.907485e+01
1.810000e-06	-1.327819e-07	-2.055955e-10	-9.200110e-01	-1.780473e+01
1.820000e-06	-8.584500e-08	-1.859219e-10	-5.947973e-01	-1.651413e+01
1.830000e-06	-3.888491e-08	-1.666295e-10	-2.694233e-01	-1.520350e+01
1.840000e-06	8.106445e-09	-1.469511e-10	5.616742e-02	-1.387337e+01
1.850000e-06	5.509816e-08	-1.289305e-10	3.817605e-01	-1.252433e+01
1.860000e-06	1.021405e-07	-1.098032e-10	7.077048e-01	-1.115707e+01
1.870000e-06	1.491616e-07	-9.015263e-11	1.033501e+00	-9.772321e+00
1.880000e-06	1.961391e-07	-7.095972e-11	1.358996e+00	-8.370901e+00
1.890000e-06	2.430922e-07	-5.227922e-11	1.684321e+00	-6.953692e+00
1.900000e-06	2.900336e-07	-3.491208e-11	2.009566e+00	-5.521644e+00
1.910000e-06	3.369956e-07	-1.677200e-11	2.334953e+00	-4.075768e+00
1.920000e-06	3.840016e-07	5.048411e-12	2.660645e+00	-2.617138e+00
1.930000e-06	4.309871e-07	2.818520e-11	2.986196e+00	-1.146883e+00
1.940000e-06	4.777996e-07	5.138550e-11	3.310547e+00	3.338153e-01
1.950000e-06	5.245565e-07	7.417077e-11	3.634513e+00	1.823726e+00
1.960000e-06	5.713297e-07	9.553651e-11	3.958592e+00	3.321574e+00
1.970000e-06	6.179749e-07	1.165460e-10	4.281784e+00	4.826048e+00
1.980000e-06	6.645467e-07	1.373804e-10	4.604468e+00	6.335802e+00
1.990000e-06	7.111154e-07	1.553697e-10	4.927131e+00	7.849463e+00
2.000000e-06	7.576142e-07	1.739332e-10	5.249308e+00	9.365636e+00
2.010000e-06	8.040096e-07	1.939091e-10	5.570770e+00	1.088291e+01
2.020000e-06	8.503431e-07	2.162147e-10	5.891802e+00	1.239987e+01
2.030000e-06	8.967026e-07	2.416952e-10	6.213015e+00	1.391508e+01
2.040000e-06	9.430447e-07	2.659989e-10	6.534108e+00	1.542714e+01
2.050000e-06	9.892957e-07	2.885050e-10	6.854568e+00	1.693462e+01
2.060000e-06	1.035429e-06	3.085450e-10	7.174210e+00	1.843614e+01
2.070000e-06	1.081501e-06	3.280232e-10	7.493436e+00	1.993032e+01
2.080000e-06	1.127511e-06	3.474131e-10	7.812226e+00	2.141582e+01
2.090000e-06	1.173434e-06	3.678989e-10	8.130414e+00	2.289133e+01
2.100000e-06	1.219234e-06	3.881406e-10	8.447747e+00	2.435557e+01
2.110000e-06	1.264995e-06	4.077857e-10	8.764815e+00	2.580734e+01
2.120000e-06	1.310640e-06	4.282182e-10	9.081081e+00	2.724543e+01
2.130000e-06	1.356099e-06	4.494817e-10	9.396048e+00	2.866875e+01
2.140000e-06	1.401496e-06	4.683526e-10	9.710597e+00	3.007622e+01
2.150000e-06	1.446883e-06	4.841731e-10	1.002507e+01	3.146686e+01
2.160000e-06	1.492208e-06	5.004222e-10	1.033912e+01	3.283972e+01
2.170000e-06	1.537417e-06	5.191246e-10	1.065236e+01	3.419396e+01
2.180000e-06	1.582525e-06	5.385728e-10	1.096490e+01	3.552877e+01
2.190000e-06	1.627517e-06	5.582362e-10	1.127663e+01	3.684345e+01
2.200000e-06	1.672359e-06	5.777729e-10	1.158734e+01	3.813736e+01
2.210000e-06	1.717036e-06	5.949195e-10	1.189689e+01	3.940993e+01
2.220000e-06	1.761588e-06	6.069407e-10	1.220557e+01	4.066070e+01
2.230000e-06	1.805954e-06	6.182177e-10	1.251298e+01	4.188924e+01
2.240000e-06	1.850218e-06	6.343699e-10	1.281967e+01	4.309524e+01
2.250000e-06	1.894394e-06	6.533520e-10	1.312576e+01	4.427844e+01
2.260000e-06	1.938418e-06	6.745643e-10	1.343079e+01	4.543866e+01
2.270000e-06	1.982378e-06	6.952648e-10	1.373538e+01	4.657581e+01
2.280000e-06	2.026241e-06	7.127749e-10	1.403929e+01	4.768984e+01
2.290000e-06	2.069988e-06	7.261724e-10	1.434240e+01	4.878080e+01
2.300000e-06	2.113669e-06	7.353319e-10	1.464506e+01	4.984878e+01
2.310000e-06	2.157252e-06	7.442085e-10	1.494703e+01	5.089394e+01
2.320000e-06	2.200745e-06	7.559454e-10	1.524838e+01	5.191649e+01
2.330000e-06	2.244150e-06	7.721076e-10	1.554912e+01	5.291672e+01
2.340000e-06	2.287485e-06	7.900337e-10	1.584938e+01	5.389493e+01
2.350000e-06	2.330684e-06	8.065841e-10	1.614869e+01	5.485148e+01
2.360000e-06	2.373666e-06	8.223497e-10	1.644650e+01	5.578679e+01
2.370000e-06	2.416444e-06	8.343641e-10	1.674290e+01	5.670128e+01
2.380000e-06	2.458994e-06	8.435851e-10	1.703772e+01	5.759543e+01
2.390000e-06	2.501176e-06	8.527696e-10	1.732998e+01	5.846971e+01
2.400000e-06	2.542961e-06	8.647160e-10	1.761950e+01	5.932465e+01
2.410000e-06	2.584536e-06	8.797419e-10	1.790756e+01	6.016076e+01
2.420000e-06	2.625951e-06	8.935061e-10	1.819452e+01	6.097858e+01
2.430000e-06	2.666958e-06	9.060247e-10	1.847865e+01	6.177866e+01
2.440000e-06	2.707551e-06	9.171718e-10	1.875990e+01	6.256152e+01
2.450000e-06	2.747947e-06	9.275910e-10	1.903980e+01	6.332772e+01
2.460000e-06	2.788114e-06	9.382997e-10	1.931810e+01	6.407778e+01
2.470000e-06	2.828073e-06	9.478152e-10	1.959497e+01	6.481223e+01
2.480000e-06	2.867957e-06	9.581425e-10	1.987132e+01	6.553157e+01
2.490000e-06	2.907706e-06	9.690105e-10	2.014673e+01	6.623629e+01
2.500000e-06	2.947286e-06	9.803283e-10	2.042096e+01	6.692686e+01
2.510000e-06	2.986786e-06	9.910510e-10	2.069465e+01	6.760374e+01
2.520000e-06	3.026160e-06	1.000514e-09	2.096746e+01	6.826734e+01
2.530000e-06	3.065321e-06	1.009929e-09	2.123879e+01	6.891806e+01
2.540000e-06	3.104217e-06	1.019461e-09	2.150829e+01	6.955629e+01
2.550000e-06	3.142948e-06	1.028780e-09	2.177665e+01	7.018236e+01
2.560000e-06	3.181419e-06	1.038935e-09	2.204321e+01	7.079658e+01
2.570000e-06	3.219593e-06	1.049923e-09	2.230771e+01	7.139926e+01
2.580000e-06	3.257604e-06	1.062241e-09	2.257108e+01	7.199065e+01
2.590000e-06	3.295386e-06	1.073695e-09	2.283286e+01	7.257099e+01
2.600000e-06	3.332924e-06	1.083659e-09	2.309295e+01	7.314047e+01
2.610000e-06	3.370280e-06	1.092337e-09	2.335178e+01	7.369929e+01
2.620000e-06	3.407450e-06	1.097530e-09	2.360932e+01	7.424760e+01
2.630000e-06	3.444367e-06	1.100456e-09	2.386511e+01	7.478555e+01
2.640000e-06	3.481033e-06	1.105477e-09	2.411916e+01	7.531323e+01
2.650000e-06	3.517432e-06	1.116585e-09	2.437136e+01	7.583076e+01
2.660000e-06	3.553519e-06	1.129782e-09	2.462139e+01	7.633822e+01
2.670000e-06	3.589330e-06	1.141829e-09	2.486952e+01	7.683567e+01
2.680000e-06	3.625002e-06	1.148479e-09	2.511668e+01	7.732316e+01
2.690000e-06	3.660610e-06	1.151192e-09	2.536340e+01	7.780075e+01
2.700000e-06	3.696137e-06	1.151776e-09	2.560956e+01	7.826848e+01
2.710000e-06	3.731481e-06	1.154984e-09	2.585445e+01	7.872638e+01
2.720000e-06	3.766612e-06	1.161232e-09	2.609786e+01	7.917449e+01
2.730000e-06	3.801458e-06	1.166954e-09	2.633930e+01	7.961285e+01
2.740000e-06	3.835878e-06	1.173795e-09	2.657778e+01	8.004148e+01
2.750000e-06	3.869835e-06	1.181377e-09	2.681306e+01	8.046044e+01
2.760000e-06	3.903339e-06	1.188505e-09	2.704521e+01	8.086978e+01
2.770000e-06	3.936391e-06	1.192789e-09	2.727422e+01	8.126954e+01
2.780000e-06	3.968976e-06	1.198525e-09	2.749998e+01	8.165980e+01
2.790000e-06	4.001183e-06	1.203991e-09	2.772314e+01	8.204063e+01
2.800000e-06	4.033120e-06	1.207049e-09	2.794442e+01	8.241212e+01
2.810000e-06	4.064890e-06	1.210128e-09	2.816454e+01	8.277439e+01
2.820000e-06	4.096500e-06	1.214330e-09	2.838356e+01	8.312753e+01
2.830000e-06	4.127894e-06	1.219197e-09	2.860108e+01	8.347168e+01
2.840000e-06	4.159110e-06	1.224142e-09	2.881737e+01	8.380698e+01
2.850000e-06	4.190122e-06	1.229701e-09	2.903225e+01	8.413359e+01
2.860000e-06	4.220802e-06	1.236314e-09	2.924482e+01	8.445167e+01
2.870000e-06	4.251081e-06	1.241931e-09	2.945462e+01	8.476141e+01
2.880000e-06	4.281115e-06	1.245784e-09	2.966271e+01	8.506300e+01
2.890000e-06	4.310893e-06	1.247940e-09	2.986904e+01	8.535665e+01
2.900000e-06	4.340239e-06	1.249503e-09	3.007237e+01	8.564256e+01
2.910000e-06	4.369354e-06	1.251841e-09	3.027409e+01	8.592095e+01
