# Temperatura_=_12.7
# Concentracion g/m^3_=_1620.0
# C_Vs_to_Am_M_A/Vsm_=_65563218390.804596
# pendiente_HvsI_1/m_=_3716.3
# ordenada_HvsI_A/m_=_1297.0
# frecuencia_Hz_=_135105.3538972775

Tiempo_(s)	Campo_(V.s)	Magnetizacion_(V.s)	Campo_(kA/m)	Magnetizacion_(A/m)
0.000000e+00	-5.513782e-06	-1.211999e-09	-3.836604e+01	-7.787117e+01
1.000000e-08	-5.513897e-06	-1.209704e-09	-3.836684e+01	-7.785376e+01
2.000000e-08	-5.513667e-06	-1.209231e-09	-3.836524e+01	-7.783424e+01
3.000000e-08	-5.512948e-06	-1.210483e-09	-3.836023e+01	-7.781242e+01
4.000000e-08	-5.511724e-06	-1.212079e-09	-3.835171e+01	-7.778810e+01
5.000000e-08	-5.509916e-06	-1.212102e-09	-3.833914e+01	-7.776109e+01
6.000000e-08	-5.507487e-06	-1.204663e-09	-3.832224e+01	-7.773122e+01
7.000000e-08	-5.504553e-06	-1.187721e-09	-3.830182e+01	-7.769831e+01
8.000000e-08	-5.501168e-06	-1.192925e-09	-3.827826e+01	-7.766218e+01
9.000000e-08	-5.497345e-06	-1.256980e-09	-3.825167e+01	-7.762268e+01
1.000000e-07	-5.493123e-06	-1.284253e-09	-3.822229e+01	-7.757966e+01
1.100000e-07	-5.488598e-06	-1.189378e-09	-3.819080e+01	-7.753298e+01
1.200000e-07	-5.483917e-06	-1.149099e-09	-3.815823e+01	-7.748252e+01
1.300000e-07	-5.478978e-06	-1.196969e-09	-3.812386e+01	-7.742818e+01
1.400000e-07	-5.473600e-06	-1.262986e-09	-3.808645e+01	-7.736985e+01
1.500000e-07	-5.467822e-06	-1.192009e-09	-3.804624e+01	-7.730747e+01
1.600000e-07	-5.461772e-06	-1.124753e-09	-3.800414e+01	-7.724096e+01
1.700000e-07	-5.455271e-06	-1.195045e-09	-3.795891e+01	-7.717028e+01
1.800000e-07	-5.448194e-06	-1.248376e-09	-3.790966e+01	-7.709540e+01
1.900000e-07	-5.440815e-06	-1.226013e-09	-3.785832e+01	-7.701631e+01
2.000000e-07	-5.433281e-06	-1.153827e-09	-3.780589e+01	-7.693299e+01
2.100000e-07	-5.425480e-06	-1.195600e-09	-3.775161e+01	-7.684547e+01
2.200000e-07	-5.417292e-06	-1.222518e-09	-3.769464e+01	-7.675377e+01
2.300000e-07	-5.408716e-06	-1.213521e-09	-3.763496e+01	-7.665793e+01
2.400000e-07	-5.399712e-06	-1.159347e-09	-3.757232e+01	-7.655799e+01
2.500000e-07	-5.389913e-06	-1.178871e-09	-3.750413e+01	-7.645402e+01
2.600000e-07	-5.379359e-06	-1.194068e-09	-3.743070e+01	-7.634608e+01
2.700000e-07	-5.368464e-06	-1.176339e-09	-3.735489e+01	-7.623425e+01
2.800000e-07	-5.357169e-06	-1.136715e-09	-3.727629e+01	-7.611861e+01
2.900000e-07	-5.345406e-06	-1.154222e-09	-3.719444e+01	-7.599924e+01
3.000000e-07	-5.333258e-06	-1.174311e-09	-3.710991e+01	-7.587624e+01
3.100000e-07	-5.320793e-06	-1.145974e-09	-3.702318e+01	-7.574969e+01
3.200000e-07	-5.307845e-06	-1.115486e-09	-3.693308e+01	-7.561968e+01
3.300000e-07	-5.294447e-06	-1.131524e-09	-3.683986e+01	-7.548630e+01
3.400000e-07	-5.280807e-06	-1.158740e-09	-3.674495e+01	-7.534964e+01
3.500000e-07	-5.266833e-06	-1.120563e-09	-3.664771e+01	-7.520978e+01
3.600000e-07	-5.252286e-06	-1.109230e-09	-3.654650e+01	-7.506679e+01
3.700000e-07	-5.237278e-06	-1.141881e-09	-3.644206e+01	-7.492074e+01
3.800000e-07	-5.221798e-06	-1.143374e-09	-3.633435e+01	-7.477171e+01
3.900000e-07	-5.205606e-06	-1.090979e-09	-3.622169e+01	-7.461973e+01
4.000000e-07	-5.188966e-06	-1.128060e-09	-3.610590e+01	-7.446487e+01
4.100000e-07	-5.172099e-06	-1.163649e-09	-3.598854e+01	-7.430715e+01
4.200000e-07	-5.154902e-06	-1.110333e-09	-3.586887e+01	-7.414661e+01
4.300000e-07	-5.137366e-06	-1.076500e-09	-3.574686e+01	-7.398327e+01
4.400000e-07	-5.119605e-06	-1.154704e-09	-3.562327e+01	-7.381714e+01
4.500000e-07	-5.101487e-06	-1.136277e-09	-3.549721e+01	-7.364821e+01
4.600000e-07	-5.082851e-06	-1.070434e-09	-3.536753e+01	-7.347648e+01
4.700000e-07	-5.063743e-06	-1.107496e-09	-3.523457e+01	-7.330192e+01
4.800000e-07	-5.044313e-06	-1.153008e-09	-3.509937e+01	-7.312453e+01
4.900000e-07	-5.024671e-06	-1.081556e-09	-3.496270e+01	-7.294425e+01
5.000000e-07	-5.004870e-06	-1.085347e-09	-3.482492e+01	-7.276106e+01
5.100000e-07	-4.984866e-06	-1.133754e-09	-3.468573e+01	-7.257490e+01
5.200000e-07	-4.964558e-06	-1.085858e-09	-3.454442e+01	-7.238572e+01
5.300000e-07	-4.943875e-06	-1.050055e-09	-3.440051e+01	-7.219347e+01
5.400000e-07	-4.922869e-06	-1.120342e-09	-3.425434e+01	-7.199810e+01
5.500000e-07	-4.901458e-06	-1.108310e-09	-3.410536e+01	-7.179954e+01
5.600000e-07	-4.879668e-06	-1.049226e-09	-3.395374e+01	-7.159773e+01
5.700000e-07	-4.857599e-06	-1.086824e-09	-3.380018e+01	-7.139261e+01
5.800000e-07	-4.835209e-06	-1.113952e-09	-3.364439e+01	-7.118412e+01
5.900000e-07	-4.812433e-06	-1.060533e-09	-3.348591e+01	-7.097221e+01
6.000000e-07	-4.789255e-06	-1.066571e-09	-3.332463e+01	-7.075683e+01
6.100000e-07	-4.765797e-06	-1.100250e-09	-3.316140e+01	-7.053792e+01
6.200000e-07	-4.742108e-06	-1.063693e-09	-3.299657e+01	-7.031543e+01
6.300000e-07	-4.718232e-06	-1.051904e-09	-3.283044e+01	-7.008934e+01
6.400000e-07	-4.694126e-06	-1.076785e-09	-3.266270e+01	-6.985962e+01
6.500000e-07	-4.669605e-06	-1.058478e-09	-3.249208e+01	-6.962622e+01
6.600000e-07	-4.644574e-06	-1.037500e-09	-3.231790e+01	-6.938914e+01
6.700000e-07	-4.619045e-06	-1.060984e-09	-3.214027e+01	-6.914837e+01
6.800000e-07	-4.592965e-06	-1.050989e-09	-3.195880e+01	-6.890390e+01
6.900000e-07	-4.566291e-06	-1.034552e-09	-3.177320e+01	-6.865573e+01
7.000000e-07	-4.539202e-06	-1.044011e-09	-3.158471e+01	-6.840388e+01
7.100000e-07	-4.511836e-06	-1.041709e-09	-3.139429e+01	-6.814837e+01
7.200000e-07	-4.484240e-06	-1.017926e-09	-3.120227e+01	-6.788921e+01
7.300000e-07	-4.456473e-06	-1.023365e-09	-3.100906e+01	-6.762644e+01
7.400000e-07	-4.428582e-06	-1.016399e-09	-3.081499e+01	-6.736008e+01
7.500000e-07	-4.400490e-06	-1.003796e-09	-3.061952e+01	-6.709019e+01
7.600000e-07	-4.372025e-06	-1.009840e-09	-3.042145e+01	-6.681680e+01
7.700000e-07	-4.343162e-06	-1.014423e-09	-3.022062e+01	-6.653996e+01
7.800000e-07	-4.313988e-06	-9.930807e-10	-3.001762e+01	-6.625970e+01
7.900000e-07	-4.284549e-06	-9.938591e-10	-2.981278e+01	-6.597609e+01
8.000000e-07	-4.254814e-06	-9.955376e-10	-2.960588e+01	-6.568915e+01
8.100000e-07	-4.224799e-06	-9.736632e-10	-2.939703e+01	-6.539895e+01
8.200000e-07	-4.194470e-06	-9.579798e-10	-2.918599e+01	-6.510550e+01
8.300000e-07	-4.163825e-06	-9.675884e-10	-2.897276e+01	-6.480887e+01
8.400000e-07	-4.132919e-06	-9.622361e-10	-2.875771e+01	-6.450906e+01
8.500000e-07	-4.101736e-06	-9.515635e-10	-2.854073e+01	-6.420612e+01
8.600000e-07	-4.070303e-06	-9.575807e-10	-2.832201e+01	-6.390006e+01
8.700000e-07	-4.038737e-06	-9.572798e-10	-2.810237e+01	-6.359089e+01
8.800000e-07	-4.007033e-06	-9.413423e-10	-2.788176e+01	-6.327862e+01
8.900000e-07	-3.975176e-06	-9.350487e-10	-2.766010e+01	-6.296323e+01
9.000000e-07	-3.943123e-06	-9.304398e-10	-2.743707e+01	-6.264472e+01
9.100000e-07	-3.910703e-06	-9.125133e-10	-2.721148e+01	-6.232307e+01
9.200000e-07	-3.877889e-06	-9.046711e-10	-2.698316e+01	-6.199823e+01
9.300000e-07	-3.844664e-06	-9.099931e-10	-2.675197e+01	-6.167018e+01
9.400000e-07	-3.810925e-06	-9.044183e-10	-2.651721e+01	-6.133885e+01
9.500000e-07	-3.776651e-06	-8.913657e-10	-2.627872e+01	-6.100418e+01
9.600000e-07	-3.741996e-06	-8.904026e-10	-2.603758e+01	-6.066612e+01
9.700000e-07	-3.707039e-06	-8.826146e-10	-2.579435e+01	-6.032458e+01
9.800000e-07	-3.671743e-06	-8.695837e-10	-2.554875e+01	-5.997949e+01
9.900000e-07	-3.636215e-06	-8.640916e-10	-2.530153e+01	-5.963075e+01
1.000000e-06	-3.600536e-06	-8.663301e-10	-2.505328e+01	-5.927827e+01
1.010000e-06	-3.564773e-06	-8.616485e-10	-2.480443e+01	-5.892195e+01
1.020000e-06	-3.528925e-06	-8.611632e-10	-2.455499e+01	-5.856171e+01
1.030000e-06	-3.492825e-06	-8.590585e-10	-2.430380e+01	-5.819743e+01
1.040000e-06	-3.456444e-06	-8.519472e-10	-2.405065e+01	-5.782902e+01
1.050000e-06	-3.419854e-06	-8.419012e-10	-2.379605e+01	-5.745638e+01
1.060000e-06	-3.383010e-06	-8.373941e-10	-2.353969e+01	-5.707942e+01
1.070000e-06	-3.345913e-06	-8.280859e-10	-2.328156e+01	-5.669805e+01
1.080000e-06	-3.308516e-06	-8.212425e-10	-2.302134e+01	-5.631218e+01
1.090000e-06	-3.270790e-06	-8.180282e-10	-2.275884e+01	-5.592175e+01
1.100000e-06	-3.232943e-06	-8.130812e-10	-2.249549e+01	-5.552667e+01
1.110000e-06	-3.194961e-06	-8.037905e-10	-2.223120e+01	-5.512690e+01
1.120000e-06	-3.156663e-06	-7.989101e-10	-2.196472e+01	-5.472239e+01
1.130000e-06	-3.118123e-06	-7.942040e-10	-2.169655e+01	-5.431309e+01
1.140000e-06	-3.079384e-06	-7.849163e-10	-2.142699e+01	-5.389899e+01
1.150000e-06	-3.040455e-06	-7.757576e-10	-2.115611e+01	-5.348006e+01
1.160000e-06	-3.001256e-06	-7.700169e-10	-2.088336e+01	-5.305633e+01
1.170000e-06	-2.961828e-06	-7.626563e-10	-2.060901e+01	-5.262778e+01
1.180000e-06	-2.922310e-06	-7.567051e-10	-2.033404e+01	-5.219446e+01
1.190000e-06	-2.882706e-06	-7.530447e-10	-2.005846e+01	-5.175639e+01
1.200000e-06	-2.842968e-06	-7.475506e-10	-1.978196e+01	-5.131363e+01
1.210000e-06	-2.803103e-06	-7.415977e-10	-1.950457e+01	-5.086623e+01
1.220000e-06	-2.763188e-06	-7.352991e-10	-1.922683e+01	-5.041427e+01
1.230000e-06	-2.723135e-06	-7.261870e-10	-1.894814e+01	-4.995781e+01
1.240000e-06	-2.682900e-06	-7.150459e-10	-1.866818e+01	-4.949693e+01
1.250000e-06	-2.642408e-06	-7.065750e-10	-1.838642e+01	-4.903173e+01
1.260000e-06	-2.601633e-06	-6.990112e-10	-1.810270e+01	-4.856229e+01
1.270000e-06	-2.560623e-06	-6.946373e-10	-1.781734e+01	-4.808870e+01
1.280000e-06	-2.519296e-06	-6.889516e-10	-1.752978e+01	-4.761104e+01
1.290000e-06	-2.477606e-06	-6.827176e-10	-1.723970e+01	-4.712939e+01
1.300000e-06	-2.435630e-06	-6.728416e-10	-1.694761e+01	-4.664382e+01
1.310000e-06	-2.393394e-06	-6.608534e-10	-1.665373e+01	-4.615439e+01
1.320000e-06	-2.350800e-06	-6.484057e-10	-1.635735e+01	-4.566114e+01
1.330000e-06	-2.307922e-06	-6.392289e-10	-1.605900e+01	-4.516412e+01
1.340000e-06	-2.264838e-06	-6.327657e-10	-1.575921e+01	-4.466332e+01
1.350000e-06	-2.221610e-06	-6.298045e-10	-1.545842e+01	-4.415874e+01
1.360000e-06	-2.178276e-06	-6.233953e-10	-1.515690e+01	-4.365034e+01
1.370000e-06	-2.134762e-06	-6.134769e-10	-1.485412e+01	-4.313806e+01
1.380000e-06	-2.091148e-06	-6.016815e-10	-1.455064e+01	-4.262181e+01
1.390000e-06	-2.047466e-06	-5.912090e-10	-1.424669e+01	-4.210145e+01
1.400000e-06	-2.003687e-06	-5.803890e-10	-1.394207e+01	-4.157683e+01
1.410000e-06	-1.959812e-06	-5.701487e-10	-1.363678e+01	-4.104775e+01
1.420000e-06	-1.915868e-06	-5.608795e-10	-1.333101e+01	-4.051399e+01
1.430000e-06	-1.871877e-06	-5.529338e-10	-1.302491e+01	-3.997526e+01
1.440000e-06	-1.827760e-06	-5.452088e-10	-1.271793e+01	-3.943127e+01
1.450000e-06	-1.783530e-06	-5.368965e-10	-1.241017e+01	-3.888165e+01
1.460000e-06	-1.739202e-06	-5.270577e-10	-1.210173e+01	-3.832603e+01
1.470000e-06	-1.694744e-06	-5.172973e-10	-1.179238e+01	-3.776397e+01
1.480000e-06	-1.650122e-06	-5.094425e-10	-1.148189e+01	-3.719501e+01
1.490000e-06	-1.605347e-06	-5.013159e-10	-1.117034e+01	-3.661863e+01
1.500000e-06	-1.560474e-06	-4.915454e-10	-1.085810e+01	-3.603432e+01
1.510000e-06	-1.515451e-06	-4.799181e-10	-1.054482e+01	-3.544148e+01
1.520000e-06	-1.470296e-06	-4.688479e-10	-1.023063e+01	-3.483952e+01
1.530000e-06	-1.425037e-06	-4.565092e-10	-9.915705e+00	-3.422782e+01
1.540000e-06	-1.379679e-06	-4.452136e-10	-9.600094e+00	-3.360571e+01
1.550000e-06	-1.334177e-06	-4.349401e-10	-9.283477e+00	-3.297252e+01
1.560000e-06	-1.288592e-06	-4.249188e-10	-8.966287e+00	-3.232757e+01
1.570000e-06	-1.243016e-06	-4.132188e-10	-8.649163e+00	-3.167015e+01
1.580000e-06	-1.197360e-06	-3.996060e-10	-8.331477e+00	-3.099955e+01
1.590000e-06	-1.151597e-06	-3.840499e-10	-8.013050e+00	-3.031507e+01
1.600000e-06	-1.105704e-06	-3.720294e-10	-7.693716e+00	-2.961600e+01
1.610000e-06	-1.059733e-06	-3.604304e-10	-7.373842e+00	-2.890165e+01
1.620000e-06	-1.013705e-06	-3.470920e-10	-7.053569e+00	-2.817134e+01
1.630000e-06	-9.676140e-07	-3.351715e-10	-6.732859e+00	-2.742440e+01
1.640000e-06	-9.214590e-07	-3.227585e-10	-6.411702e+00	-2.666022e+01
1.650000e-06	-8.752579e-07	-3.094159e-10	-6.090226e+00	-2.587819e+01
1.660000e-06	-8.289896e-07	-2.977391e-10	-5.768281e+00	-2.507775e+01
1.670000e-06	-7.826540e-07	-2.886619e-10	-5.445868e+00	-2.425839e+01
1.680000e-06	-7.362803e-07	-2.798105e-10	-5.123191e+00	-2.341965e+01
1.690000e-06	-6.898572e-07	-2.690652e-10	-4.800169e+00	-2.256112e+01
1.700000e-06	-6.434825e-07	-2.561767e-10	-4.477484e+00	-2.168244e+01
1.710000e-06	-5.970920e-07	-2.402264e-10	-4.154690e+00	-2.078335e+01
1.720000e-06	-5.506179e-07	-2.247003e-10	-3.831314e+00	-1.986362e+01
1.730000e-06	-5.040310e-07	-2.105966e-10	-3.507152e+00	-1.892312e+01
1.740000e-06	-4.573373e-07	-1.959717e-10	-3.182248e+00	-1.796180e+01
1.750000e-06	-4.106247e-07	-1.829267e-10	-2.857211e+00	-1.697966e+01
1.760000e-06	-3.639636e-07	-1.716646e-10	-2.532534e+00	-1.597682e+01
1.770000e-06	-3.172442e-07	-1.588689e-10	-2.207451e+00	-1.495346e+01
1.780000e-06	-2.704592e-07	-1.437324e-10	-1.881911e+00	-1.390986e+01
1.790000e-06	-2.236814e-07	-1.280107e-10	-1.556422e+00	-1.284638e+01
1.800000e-06	-1.768835e-07	-1.111843e-10	-1.230792e+00	-1.176348e+01
1.810000e-06	-1.300965e-07	-9.475071e-11	-9.052387e-01	-1.066168e+01
1.820000e-06	-8.328283e-08	-7.960990e-11	-5.794992e-01	-9.541624e+00
1.830000e-06	-3.647531e-08	-6.367082e-11	-2.538028e-01	-8.404009e+00
1.840000e-06	1.026595e-08	-4.671181e-11	7.143258e-02	-7.249628e+00
1.850000e-06	5.711542e-08	-3.126993e-11	3.974209e-01	-6.079352e+00
1.860000e-06	1.040545e-07	-1.490989e-11	7.240326e-01	-4.894125e+00
1.870000e-06	1.508834e-07	2.842847e-12	1.049878e+00	-3.694967e+00
1.880000e-06	1.976945e-07	1.944641e-11	1.375600e+00	-2.482961e+00
1.890000e-06	2.445330e-07	3.420462e-11	1.701511e+00	-1.259253e+00
1.900000e-06	2.913405e-07	4.834560e-11	2.027208e+00	-2.504769e-02
1.910000e-06	3.380725e-07	6.348339e-11	2.352379e+00	1.218403e+00
1.920000e-06	3.847568e-07	8.199473e-11	2.677218e+00	2.469801e+00
1.930000e-06	4.314248e-07	1.015496e-10	3.001943e+00	3.727812e+00
1.940000e-06	4.779836e-07	1.207241e-10	3.325909e+00	4.991071e+00
1.950000e-06	5.244629e-07	1.393832e-10	3.649321e+00	6.258189e+00
1.960000e-06	5.709197e-07	1.568996e-10	3.972578e+00	7.527763e+00
1.970000e-06	6.173782e-07	1.750867e-10	4.295845e+00	8.798381e+00
1.980000e-06	6.637848e-07	1.926557e-10	4.618752e+00	1.006863e+01
1.990000e-06	7.100981e-07	2.083587e-10	4.941009e+00	1.133710e+01
2.000000e-06	7.564153e-07	2.246441e-10	5.263294e+00	1.260240e+01
2.010000e-06	8.026929e-07	2.396718e-10	5.585303e+00	1.386316e+01
2.020000e-06	8.488876e-07	2.571472e-10	5.906736e+00	1.511803e+01
2.030000e-06	8.950675e-07	2.799944e-10	6.228065e+00	1.636570e+01
2.040000e-06	9.412515e-07	3.018564e-10	6.549423e+00	1.760492e+01
2.050000e-06	9.873768e-07	3.208170e-10	6.870372e+00	1.883444e+01
2.060000e-06	1.033399e-06	3.368724e-10	7.190604e+00	2.005312e+01
2.070000e-06	1.079371e-06	3.513974e-10	7.510484e+00	2.125983e+01
2.080000e-06	1.125247e-06	3.641020e-10	7.829703e+00	2.245354e+01
2.090000e-06	1.170924e-06	3.802268e-10	8.147528e+00	2.363325e+01
2.100000e-06	1.216505e-06	3.999577e-10	8.464696e+00	2.479807e+01
2.110000e-06	1.262052e-06	4.191999e-10	8.781622e+00	2.594716e+01
2.120000e-06	1.307465e-06	4.363197e-10	9.097612e+00	2.707976e+01
2.130000e-06	1.352778e-06	4.519637e-10	9.412913e+00	2.819518e+01
2.140000e-06	1.398070e-06	4.667114e-10	9.728061e+00	2.929283e+01
2.150000e-06	1.443298e-06	4.788862e-10	1.004277e+01	3.037218e+01
2.160000e-06	1.488407e-06	4.900911e-10	1.035665e+01	3.143280e+01
2.170000e-06	1.533367e-06	5.026347e-10	1.066949e+01	3.247433e+01
2.180000e-06	1.578189e-06	5.168110e-10	1.098136e+01	3.349647e+01
2.190000e-06	1.622876e-06	5.339339e-10	1.129231e+01	3.449903e+01
2.200000e-06	1.667459e-06	5.496678e-10	1.160252e+01	3.548186e+01
2.210000e-06	1.711953e-06	5.614469e-10	1.191212e+01	3.644493e+01
2.220000e-06	1.756319e-06	5.720324e-10	1.222083e+01	3.738823e+01
2.230000e-06	1.800539e-06	5.839734e-10	1.252852e+01	3.831183e+01
2.240000e-06	1.844623e-06	5.961778e-10	1.283527e+01	3.921588e+01
2.250000e-06	1.888574e-06	6.086017e-10	1.314109e+01	4.010057e+01
2.260000e-06	1.932410e-06	6.225463e-10	1.344611e+01	4.096614e+01
2.270000e-06	1.976183e-06	6.352156e-10	1.375069e+01	4.181289e+01
2.280000e-06	2.019888e-06	6.455937e-10	1.405480e+01	4.264116e+01
2.290000e-06	2.063551e-06	6.556441e-10	1.435861e+01	4.345131e+01
2.300000e-06	2.107160e-06	6.646995e-10	1.466205e+01	4.424376e+01
2.310000e-06	2.150675e-06	6.739766e-10	1.496484e+01	4.501893e+01
2.320000e-06	2.194102e-06	6.857621e-10	1.526702e+01	4.577729e+01
2.330000e-06	2.237441e-06	6.970649e-10	1.556857e+01	4.651930e+01
2.340000e-06	2.280669e-06	7.066251e-10	1.586937e+01	4.724545e+01
2.350000e-06	2.323644e-06	7.154600e-10	1.616840e+01	4.795623e+01
2.360000e-06	2.366400e-06	7.251840e-10	1.646590e+01	4.865214e+01
2.370000e-06	2.408901e-06	7.326531e-10	1.676163e+01	4.933366e+01
2.380000e-06	2.450979e-06	7.393185e-10	1.705442e+01	5.000127e+01
2.390000e-06	2.492717e-06	7.479126e-10	1.734484e+01	5.065546e+01
2.400000e-06	2.534238e-06	7.585665e-10	1.763375e+01	5.129668e+01
2.410000e-06	2.575524e-06	7.706166e-10	1.792103e+01	5.192537e+01
2.420000e-06	2.616472e-06	7.825594e-10	1.820596e+01	5.254196e+01
2.430000e-06	2.657066e-06	7.919692e-10	1.848842e+01	5.314686e+01
2.440000e-06	2.697460e-06	7.981059e-10	1.876949e+01	5.374044e+01
2.450000e-06	2.737764e-06	8.038183e-10	1.904993e+01	5.432304e+01
2.460000e-06	2.777809e-06	8.110539e-10	1.932857e+01	5.489501e+01
2.470000e-06	2.817594e-06	8.196201e-10	1.960541e+01	5.545664e+01
2.480000e-06	2.857301e-06	8.275156e-10	1.988169e+01	5.600820e+01
2.490000e-06	2.896935e-06	8.354070e-10	2.015748e+01	5.654994e+01
2.500000e-06	2.936409e-06	8.436713e-10	2.043214e+01	5.708207e+01
2.510000e-06	2.975719e-06	8.503802e-10	2.070567e+01	5.760479e+01
2.520000e-06	3.014929e-06	8.563538e-10	2.097850e+01	5.811826e+01
2.530000e-06	3.053922e-06	8.640247e-10	2.124983e+01	5.862263e+01
2.540000e-06	3.092634e-06	8.736022e-10	2.151919e+01	5.911801e+01
2.550000e-06	3.131150e-06	8.808478e-10	2.178719e+01	5.960452e+01
2.560000e-06	3.169432e-06	8.858663e-10	2.205357e+01	6.008223e+01
2.570000e-06	3.207470e-06	8.919088e-10	2.231824e+01	6.055121e+01
2.580000e-06	3.245323e-06	9.006479e-10	2.258163e+01	6.101152e+01
2.590000e-06	3.282989e-06	9.096902e-10	2.284372e+01	6.146320e+01
2.600000e-06	3.320442e-06	9.153435e-10	2.310432e+01	6.190630e+01
2.610000e-06	3.357574e-06	9.193880e-10	2.336270e+01	6.234083e+01
2.620000e-06	3.394385e-06	9.238150e-10	2.361883e+01	6.276683e+01
2.630000e-06	3.430960e-06	9.288037e-10	2.387333e+01	6.318433e+01
2.640000e-06	3.467322e-06	9.347505e-10	2.412635e+01	6.359335e+01
2.650000e-06	3.503473e-06	9.440988e-10	2.437789e+01	6.399393e+01
2.660000e-06	3.539502e-06	9.529065e-10	2.462859e+01	6.438611e+01
2.670000e-06	3.575440e-06	9.580130e-10	2.487865e+01	6.476994e+01
2.680000e-06	3.611207e-06	9.610199e-10	2.512753e+01	6.514547e+01
2.690000e-06	3.646805e-06	9.608312e-10	2.537522e+01	6.551277e+01
2.700000e-06	3.682219e-06	9.614454e-10	2.562164e+01	6.587192e+01
2.710000e-06	3.717436e-06	9.669165e-10	2.586669e+01	6.622301e+01
2.720000e-06	3.752412e-06	9.745320e-10	2.611006e+01	6.656616e+01
2.730000e-06	3.787039e-06	9.825946e-10	2.635100e+01	6.690148e+01
2.740000e-06	3.821190e-06	9.899157e-10	2.658863e+01	6.722911e+01
2.750000e-06	3.854755e-06	9.948007e-10	2.682218e+01	6.754921e+01
2.760000e-06	3.887834e-06	9.972793e-10	2.705236e+01	6.786193e+01
2.770000e-06	3.920530e-06	9.992460e-10	2.727986e+01	6.816745e+01
2.780000e-06	3.952874e-06	1.002113e-09	2.750492e+01	6.846597e+01
2.790000e-06	3.984961e-06	1.005457e-09	2.772819e+01	6.875769e+01
2.800000e-06	4.016837e-06	1.009644e-09	2.794999e+01	6.904282e+01
2.810000e-06	4.048538e-06	1.013666e-09	2.817056e+01	6.932157e+01
2.820000e-06	4.080100e-06	1.016946e-09	2.839018e+01	6.959418e+01
2.830000e-06	4.111519e-06	1.020588e-09	2.860880e+01	6.986088e+01
2.840000e-06	4.142633e-06	1.023250e-09	2.882530e+01	7.012190e+01
2.850000e-06	4.173421e-06	1.025320e-09	2.903953e+01	7.037747e+01
2.860000e-06	4.203933e-06	1.027460e-09	2.925184e+01	7.062783e+01
2.870000e-06	4.234139e-06	1.029681e-09	2.946202e+01	7.087322e+01
2.880000e-06	4.264056e-06	1.031414e-09	2.967018e+01	7.111385e+01
2.890000e-06	4.293667e-06	1.031673e-09	2.987623e+01	7.134994e+01
2.900000e-06	4.322977e-06	1.034336e-09	3.008017e+01	7.158170e+01
2.910000e-06	4.352019e-06	1.039536e-09	3.028225e+01	7.180933e+01
