# Temperatura_=_-0.3
# Concentracion g/m^3_=_1620.0
# C_Vs_to_Am_M_A/Vsm_=_65563218390.804596
# pendiente_HvsI_1/m_=_3716.3
# ordenada_HvsI_A/m_=_1297.0
# frecuencia_Hz_=_135090.17439779858

Tiempo_(s)	Campo_(V.s)	Magnetizacion_(V.s)	Campo_(kA/m)	Magnetizacion_(A/m)
0.000000e+00	-5.502387e-06	-1.731426e-09	-3.837359e+01	-1.107261e+02
1.000000e-08	-5.502565e-06	-1.729136e-09	-3.837483e+01	-1.106587e+02
2.000000e-08	-5.502334e-06	-1.726266e-09	-3.837321e+01	-1.105896e+02
3.000000e-08	-5.501782e-06	-1.723597e-09	-3.836936e+01	-1.105192e+02
4.000000e-08	-5.500782e-06	-1.721853e-09	-3.836240e+01	-1.104476e+02
5.000000e-08	-5.499194e-06	-1.720923e-09	-3.835132e+01	-1.103752e+02
6.000000e-08	-5.496978e-06	-1.731591e-09	-3.833586e+01	-1.103020e+02
7.000000e-08	-5.494110e-06	-1.751630e-09	-3.831586e+01	-1.102282e+02
8.000000e-08	-5.490817e-06	-1.732190e-09	-3.829290e+01	-1.101540e+02
9.000000e-08	-5.487129e-06	-1.653952e-09	-3.826717e+01	-1.100795e+02
1.000000e-07	-5.483107e-06	-1.672024e-09	-3.823913e+01	-1.100049e+02
1.100000e-07	-5.478721e-06	-1.765949e-09	-3.820854e+01	-1.099302e+02
1.200000e-07	-5.473958e-06	-1.794481e-09	-3.817532e+01	-1.098554e+02
1.300000e-07	-5.468909e-06	-1.704005e-09	-3.814011e+01	-1.097805e+02
1.400000e-07	-5.463557e-06	-1.664026e-09	-3.810278e+01	-1.097057e+02
1.500000e-07	-5.457911e-06	-1.749364e-09	-3.806341e+01	-1.096308e+02
1.600000e-07	-5.451851e-06	-1.791041e-09	-3.802115e+01	-1.095559e+02
1.700000e-07	-5.445385e-06	-1.685546e-09	-3.797605e+01	-1.094807e+02
1.800000e-07	-5.438553e-06	-1.632645e-09	-3.792841e+01	-1.094053e+02
1.900000e-07	-5.431416e-06	-1.699270e-09	-3.787863e+01	-1.093295e+02
2.000000e-07	-5.423988e-06	-1.743249e-09	-3.782683e+01	-1.092531e+02
2.100000e-07	-5.416173e-06	-1.683531e-09	-3.777233e+01	-1.091759e+02
2.200000e-07	-5.408062e-06	-1.634605e-09	-3.771577e+01	-1.090978e+02
2.300000e-07	-5.399615e-06	-1.671050e-09	-3.765686e+01	-1.090185e+02
2.400000e-07	-5.390714e-06	-1.687198e-09	-3.759478e+01	-1.089378e+02
2.500000e-07	-5.381245e-06	-1.659145e-09	-3.752875e+01	-1.088554e+02
2.600000e-07	-5.371115e-06	-1.641679e-09	-3.745810e+01	-1.087711e+02
2.700000e-07	-5.360372e-06	-1.654038e-09	-3.738318e+01	-1.086844e+02
2.800000e-07	-5.349135e-06	-1.650685e-09	-3.730481e+01	-1.085952e+02
2.900000e-07	-5.337438e-06	-1.633833e-09	-3.722324e+01	-1.085031e+02
3.000000e-07	-5.325337e-06	-1.615449e-09	-3.713884e+01	-1.084078e+02
3.100000e-07	-5.312945e-06	-1.634935e-09	-3.705242e+01	-1.083089e+02
3.200000e-07	-5.300175e-06	-1.643977e-09	-3.696336e+01	-1.082061e+02
3.300000e-07	-5.287077e-06	-1.637584e-09	-3.687201e+01	-1.080991e+02
3.400000e-07	-5.273559e-06	-1.604177e-09	-3.677774e+01	-1.079875e+02
3.500000e-07	-5.259667e-06	-1.616805e-09	-3.668086e+01	-1.078711e+02
3.600000e-07	-5.245431e-06	-1.617339e-09	-3.658157e+01	-1.077494e+02
3.700000e-07	-5.230561e-06	-1.583738e-09	-3.647787e+01	-1.076222e+02
3.800000e-07	-5.215097e-06	-1.577134e-09	-3.637003e+01	-1.074892e+02
3.900000e-07	-5.199224e-06	-1.612947e-09	-3.625933e+01	-1.073500e+02
4.000000e-07	-5.182962e-06	-1.588437e-09	-3.614592e+01	-1.072044e+02
4.100000e-07	-5.166298e-06	-1.556278e-09	-3.602970e+01	-1.070522e+02
4.200000e-07	-5.149292e-06	-1.606511e-09	-3.591111e+01	-1.068931e+02
4.300000e-07	-5.131926e-06	-1.617826e-09	-3.579000e+01	-1.067269e+02
4.400000e-07	-5.114216e-06	-1.538993e-09	-3.566649e+01	-1.065535e+02
4.500000e-07	-5.096117e-06	-1.540798e-09	-3.554027e+01	-1.063726e+02
4.600000e-07	-5.077563e-06	-1.603761e-09	-3.541087e+01	-1.061841e+02
4.700000e-07	-5.058687e-06	-1.561688e-09	-3.527923e+01	-1.059879e+02
4.800000e-07	-5.039531e-06	-1.520988e-09	-3.514564e+01	-1.057839e+02
4.900000e-07	-5.020082e-06	-1.579009e-09	-3.501000e+01	-1.055720e+02
5.000000e-07	-5.000377e-06	-1.579813e-09	-3.487258e+01	-1.053523e+02
5.100000e-07	-4.980427e-06	-1.519769e-09	-3.473344e+01	-1.051247e+02
5.200000e-07	-4.960158e-06	-1.554688e-09	-3.459209e+01	-1.048893e+02
5.300000e-07	-4.939528e-06	-1.574004e-09	-3.444821e+01	-1.046460e+02
5.400000e-07	-4.918566e-06	-1.505352e-09	-3.430202e+01	-1.043950e+02
5.500000e-07	-4.897248e-06	-1.504861e-09	-3.415336e+01	-1.041364e+02
5.600000e-07	-4.875589e-06	-1.561914e-09	-3.400230e+01	-1.038703e+02
5.700000e-07	-4.853657e-06	-1.525934e-09	-3.384935e+01	-1.035969e+02
5.800000e-07	-4.831416e-06	-1.496001e-09	-3.369424e+01	-1.033162e+02
5.900000e-07	-4.808736e-06	-1.536458e-09	-3.353607e+01	-1.030286e+02
6.000000e-07	-4.785774e-06	-1.532380e-09	-3.337594e+01	-1.027341e+02
6.100000e-07	-4.762536e-06	-1.491931e-09	-3.321387e+01	-1.024331e+02
6.200000e-07	-4.738983e-06	-1.513500e-09	-3.304961e+01	-1.021258e+02
6.300000e-07	-4.715240e-06	-1.521664e-09	-3.288403e+01	-1.018123e+02
6.400000e-07	-4.691250e-06	-1.487072e-09	-3.271673e+01	-1.014929e+02
6.500000e-07	-4.666953e-06	-1.482922e-09	-3.254728e+01	-1.011680e+02
6.600000e-07	-4.642144e-06	-1.492357e-09	-3.237426e+01	-1.008376e+02
6.700000e-07	-4.616767e-06	-1.469087e-09	-3.219728e+01	-1.005022e+02
6.800000e-07	-4.590958e-06	-1.465104e-09	-3.201729e+01	-1.001619e+02
6.900000e-07	-4.564650e-06	-1.477543e-09	-3.183382e+01	-9.981698e+01
7.000000e-07	-4.537878e-06	-1.468042e-09	-3.164711e+01	-9.946768e+01
7.100000e-07	-4.510783e-06	-1.457244e-09	-3.145815e+01	-9.911421e+01
7.200000e-07	-4.483408e-06	-1.462616e-09	-3.126724e+01	-9.875680e+01
7.300000e-07	-4.455778e-06	-1.457000e-09	-3.107454e+01	-9.839563e+01
7.400000e-07	-4.427968e-06	-1.445454e-09	-3.088060e+01	-9.803088e+01
7.500000e-07	-4.399953e-06	-1.442515e-09	-3.068522e+01	-9.766272e+01
7.600000e-07	-4.371690e-06	-1.436352e-09	-3.048811e+01	-9.729128e+01
7.700000e-07	-4.343097e-06	-1.426284e-09	-3.028871e+01	-9.691668e+01
7.800000e-07	-4.314134e-06	-1.419025e-09	-3.008672e+01	-9.653902e+01
7.900000e-07	-4.284841e-06	-1.410097e-09	-2.988243e+01	-9.615835e+01
8.000000e-07	-4.255217e-06	-1.400562e-09	-2.967584e+01	-9.577472e+01
8.100000e-07	-4.225368e-06	-1.400326e-09	-2.946767e+01	-9.538816e+01
8.200000e-07	-4.195310e-06	-1.396511e-09	-2.925805e+01	-9.499864e+01
8.300000e-07	-4.164935e-06	-1.385833e-09	-2.904621e+01	-9.460615e+01
8.400000e-07	-4.134161e-06	-1.377124e-09	-2.883159e+01	-9.421061e+01
8.500000e-07	-4.103149e-06	-1.373892e-09	-2.861532e+01	-9.381194e+01
8.600000e-07	-4.071914e-06	-1.363875e-09	-2.839748e+01	-9.341003e+01
8.700000e-07	-4.040465e-06	-1.353612e-09	-2.817816e+01	-9.300476e+01
8.800000e-07	-4.008899e-06	-1.351476e-09	-2.795802e+01	-9.259595e+01
8.900000e-07	-3.977129e-06	-1.348140e-09	-2.773645e+01	-9.218345e+01
9.000000e-07	-3.945109e-06	-1.335870e-09	-2.751315e+01	-9.176705e+01
9.100000e-07	-3.912737e-06	-1.330501e-09	-2.728738e+01	-9.134654e+01
9.200000e-07	-3.880040e-06	-1.325512e-09	-2.705936e+01	-9.092170e+01
9.300000e-07	-3.846994e-06	-1.312831e-09	-2.682889e+01	-9.049228e+01
9.400000e-07	-3.813523e-06	-1.301895e-09	-2.659546e+01	-9.005804e+01
9.500000e-07	-3.779670e-06	-1.297752e-09	-2.635938e+01	-8.961873e+01
9.600000e-07	-3.745388e-06	-1.286030e-09	-2.612029e+01	-8.917407e+01
9.700000e-07	-3.710662e-06	-1.273446e-09	-2.587812e+01	-8.872380e+01
9.800000e-07	-3.675544e-06	-1.267428e-09	-2.563320e+01	-8.826767e+01
9.900000e-07	-3.640168e-06	-1.262415e-09	-2.538649e+01	-8.780540e+01
1.000000e-06	-3.604656e-06	-1.251861e-09	-2.513883e+01	-8.733674e+01
1.010000e-06	-3.569018e-06	-1.245935e-09	-2.489029e+01	-8.686144e+01
1.020000e-06	-3.533236e-06	-1.246667e-09	-2.464075e+01	-8.637927e+01
1.030000e-06	-3.497185e-06	-1.240368e-09	-2.438933e+01	-8.588999e+01
1.040000e-06	-3.460985e-06	-1.229761e-09	-2.413687e+01	-8.539339e+01
1.050000e-06	-3.424584e-06	-1.223992e-09	-2.388301e+01	-8.488929e+01
1.060000e-06	-3.387938e-06	-1.214515e-09	-2.362744e+01	-8.437749e+01
1.070000e-06	-3.351130e-06	-1.201397e-09	-2.337074e+01	-8.385786e+01
1.080000e-06	-3.314017e-06	-1.194891e-09	-2.311191e+01	-8.333024e+01
1.090000e-06	-3.276587e-06	-1.188914e-09	-2.285088e+01	-8.279454e+01
1.100000e-06	-3.238861e-06	-1.181124e-09	-2.258778e+01	-8.225066e+01
1.110000e-06	-3.200939e-06	-1.174309e-09	-2.232331e+01	-8.169854e+01
1.120000e-06	-3.162925e-06	-1.170587e-09	-2.205820e+01	-8.113815e+01
1.130000e-06	-3.124731e-06	-1.158026e-09	-2.179184e+01	-8.056946e+01
1.140000e-06	-3.086151e-06	-1.143232e-09	-2.152278e+01	-7.999248e+01
1.150000e-06	-3.047366e-06	-1.130305e-09	-2.125230e+01	-7.940726e+01
1.160000e-06	-3.008422e-06	-1.119367e-09	-2.098070e+01	-7.881384e+01
1.170000e-06	-2.969200e-06	-1.108488e-09	-2.070717e+01	-7.821231e+01
1.180000e-06	-2.929853e-06	-1.101164e-09	-2.043277e+01	-7.760276e+01
1.190000e-06	-2.890389e-06	-1.097088e-09	-2.015754e+01	-7.698531e+01
1.200000e-06	-2.850773e-06	-1.088829e-09	-1.988126e+01	-7.636009e+01
1.210000e-06	-2.810997e-06	-1.078621e-09	-1.960386e+01	-7.572725e+01
1.220000e-06	-2.771095e-06	-1.068031e-09	-1.932559e+01	-7.508695e+01
1.230000e-06	-2.731009e-06	-1.053755e-09	-1.904603e+01	-7.443934e+01
1.240000e-06	-2.690803e-06	-1.040921e-09	-1.876563e+01	-7.378461e+01
1.250000e-06	-2.650499e-06	-1.030959e-09	-1.848455e+01	-7.312293e+01
1.260000e-06	-2.609858e-06	-1.022178e-09	-1.820112e+01	-7.245447e+01
1.270000e-06	-2.568845e-06	-1.012640e-09	-1.791510e+01	-7.177940e+01
1.280000e-06	-2.527541e-06	-1.003098e-09	-1.762704e+01	-7.109788e+01
1.290000e-06	-2.486028e-06	-9.962836e-10	-1.733753e+01	-7.041006e+01
1.300000e-06	-2.444169e-06	-9.857184e-10	-1.704561e+01	-6.971608e+01
1.310000e-06	-2.402019e-06	-9.705967e-10	-1.675165e+01	-6.901606e+01
1.320000e-06	-2.359722e-06	-9.573856e-10	-1.645668e+01	-6.831009e+01
1.330000e-06	-2.317160e-06	-9.448176e-10	-1.615985e+01	-6.759825e+01
1.340000e-06	-2.274369e-06	-9.320773e-10	-1.586142e+01	-6.688058e+01
1.350000e-06	-2.231379e-06	-9.229694e-10	-1.556161e+01	-6.615709e+01
1.360000e-06	-2.188155e-06	-9.147351e-10	-1.526017e+01	-6.542777e+01
1.370000e-06	-2.144793e-06	-9.046045e-10	-1.495776e+01	-6.469255e+01
1.380000e-06	-2.101375e-06	-8.907684e-10	-1.465496e+01	-6.395135e+01
1.390000e-06	-2.057820e-06	-8.743984e-10	-1.435121e+01	-6.320403e+01
1.400000e-06	-2.014109e-06	-8.594328e-10	-1.404637e+01	-6.245041e+01
1.410000e-06	-1.970320e-06	-8.471273e-10	-1.374099e+01	-6.169028e+01
1.420000e-06	-1.926486e-06	-8.366883e-10	-1.343529e+01	-6.092336e+01
1.430000e-06	-1.882588e-06	-8.289016e-10	-1.312915e+01	-6.014935e+01
1.440000e-06	-1.838590e-06	-8.176886e-10	-1.282231e+01	-5.936790e+01
1.450000e-06	-1.794509e-06	-8.050544e-10	-1.251489e+01	-5.857860e+01
1.460000e-06	-1.750366e-06	-7.905886e-10	-1.220704e+01	-5.778102e+01
1.470000e-06	-1.706093e-06	-7.752203e-10	-1.189827e+01	-5.697467e+01
1.480000e-06	-1.661651e-06	-7.585354e-10	-1.158834e+01	-5.615902e+01
1.490000e-06	-1.617014e-06	-7.443293e-10	-1.127703e+01	-5.533351e+01
1.500000e-06	-1.572276e-06	-7.333306e-10	-1.096503e+01	-5.449752e+01
1.510000e-06	-1.527459e-06	-7.238229e-10	-1.065248e+01	-5.365043e+01
1.520000e-06	-1.482477e-06	-7.120412e-10	-1.033878e+01	-5.279156e+01
1.530000e-06	-1.437398e-06	-6.986578e-10	-1.002440e+01	-5.192021e+01
1.540000e-06	-1.392128e-06	-6.856774e-10	-9.708683e+00	-5.103567e+01
1.550000e-06	-1.346729e-06	-6.703326e-10	-9.392075e+00	-5.013718e+01
1.560000e-06	-1.301291e-06	-6.533865e-10	-9.075190e+00	-4.922400e+01
1.570000e-06	-1.255767e-06	-6.370012e-10	-8.757706e+00	-4.829536e+01
1.580000e-06	-1.210240e-06	-6.192888e-10	-8.440198e+00	-4.735047e+01
1.590000e-06	-1.164673e-06	-6.015772e-10	-8.122415e+00	-4.638858e+01
1.600000e-06	-1.119032e-06	-5.876633e-10	-7.804119e+00	-4.540891e+01
1.610000e-06	-1.073284e-06	-5.757196e-10	-7.485074e+00	-4.441070e+01
1.620000e-06	-1.027293e-06	-5.604891e-10	-7.164328e+00	-4.339322e+01
1.630000e-06	-9.813324e-07	-5.435502e-10	-6.843801e+00	-4.235574e+01
1.640000e-06	-9.354727e-07	-5.287222e-10	-6.523976e+00	-4.129757e+01
1.650000e-06	-8.894297e-07	-5.108715e-10	-6.202873e+00	-4.021805e+01
1.660000e-06	-8.432973e-07	-4.917931e-10	-5.881146e+00	-3.911657e+01
1.670000e-06	-7.971608e-07	-4.759064e-10	-5.559391e+00	-3.799255e+01
1.680000e-06	-7.509246e-07	-4.606003e-10	-5.236940e+00	-3.684545e+01
1.690000e-06	-7.046013e-07	-4.424135e-10	-4.913882e+00	-3.567482e+01
1.700000e-06	-6.583416e-07	-4.224792e-10	-4.591267e+00	-3.448024e+01
1.710000e-06	-6.120327e-07	-4.008743e-10	-4.268309e+00	-3.326136e+01
1.720000e-06	-5.656570e-07	-3.794799e-10	-3.944885e+00	-3.201791e+01
1.730000e-06	-5.192370e-07	-3.586201e-10	-3.621153e+00	-3.074966e+01
1.740000e-06	-4.727974e-07	-3.383261e-10	-3.297284e+00	-2.945650e+01
1.750000e-06	-4.263180e-07	-3.165150e-10	-2.973137e+00	-2.813838e+01
1.760000e-06	-3.797462e-07	-2.958440e-10	-2.648346e+00	-2.679531e+01
1.770000e-06	-3.331586e-07	-2.765588e-10	-2.323444e+00	-2.542741e+01
1.780000e-06	-2.865001e-07	-2.556925e-10	-1.998049e+00	-2.403487e+01
1.790000e-06	-2.398519e-07	-2.351880e-10	-1.672724e+00	-2.261799e+01
1.800000e-06	-1.932917e-07	-2.170637e-10	-1.348014e+00	-2.117713e+01
1.810000e-06	-1.467439e-07	-1.963067e-10	-1.023390e+00	-1.971276e+01
1.820000e-06	-1.001226e-07	-1.738416e-10	-6.982541e-01	-1.822540e+01
1.830000e-06	-5.344107e-08	-1.497939e-10	-3.726974e-01	-1.671570e+01
1.840000e-06	-6.654592e-09	-1.280081e-10	-4.640905e-02	-1.518437e+01
1.850000e-06	4.007996e-08	-1.077776e-10	2.795172e-01	-1.363222e+01
1.860000e-06	8.676842e-08	-8.460069e-11	6.051220e-01	-1.206011e+01
1.870000e-06	1.335782e-07	-6.001822e-11	9.315730e-01	-1.046901e+01
1.880000e-06	1.803271e-07	-3.435361e-11	1.257599e+00	-8.859941e+00
1.890000e-06	2.269494e-07	-1.558530e-11	1.582743e+00	-7.234013e+00
1.900000e-06	2.735247e-07	3.699315e-12	1.907558e+00	-5.592391e+00
1.910000e-06	3.201732e-07	2.251866e-11	2.232885e+00	-3.936303e+00
1.920000e-06	3.668926e-07	4.257863e-11	2.558705e+00	-2.267035e+00
1.930000e-06	4.135263e-07	6.680589e-11	2.883928e+00	-5.859248e-01
1.940000e-06	4.600379e-07	9.495054e-11	3.208299e+00	1.105645e+00
1.950000e-06	5.065115e-07	1.218876e-10	3.532405e+00	2.806251e+00
1.960000e-06	5.529020e-07	1.430606e-10	3.855933e+00	4.514437e+00
1.970000e-06	5.993128e-07	1.638646e-10	4.179601e+00	6.228717e+00
1.980000e-06	6.457075e-07	1.848520e-10	4.503157e+00	7.947585e+00
1.990000e-06	6.919072e-07	2.044624e-10	4.825353e+00	9.669520e+00
2.000000e-06	7.380026e-07	2.264137e-10	5.146822e+00	1.139299e+01
2.010000e-06	7.840778e-07	2.520830e-10	5.468150e+00	1.311647e+01
2.020000e-06	8.301218e-07	2.781238e-10	5.789260e+00	1.483842e+01
2.030000e-06	8.760594e-07	3.074608e-10	6.109628e+00	1.655734e+01
2.040000e-06	9.219694e-07	3.340825e-10	6.429805e+00	1.827172e+01
2.050000e-06	9.678959e-07	3.552217e-10	6.750095e+00	1.998008e+01
2.060000e-06	1.013796e-06	3.759195e-10	7.070205e+00	2.168098e+01
2.070000e-06	1.059563e-06	3.985190e-10	7.389382e+00	2.337300e+01
2.080000e-06	1.105177e-06	4.212460e-10	7.707491e+00	2.505477e+01
2.090000e-06	1.150750e-06	4.451858e-10	8.025315e+00	2.672496e+01
2.100000e-06	1.196272e-06	4.703143e-10	8.342789e+00	2.838230e+01
2.110000e-06	1.241763e-06	4.944238e-10	8.660040e+00	3.002555e+01
2.120000e-06	1.287232e-06	5.166534e-10	8.977143e+00	3.165355e+01
2.130000e-06	1.332627e-06	5.362512e-10	9.293725e+00	3.326520e+01
2.140000e-06	1.377893e-06	5.544386e-10	9.609410e+00	3.485946e+01
2.150000e-06	1.422954e-06	5.721099e-10	9.923669e+00	3.643535e+01
2.160000e-06	1.467919e-06	5.906698e-10	1.023725e+01	3.799197e+01
2.170000e-06	1.512814e-06	6.129257e-10	1.055035e+01	3.952849e+01
2.180000e-06	1.557605e-06	6.361963e-10	1.086272e+01	4.104416e+01
2.190000e-06	1.602301e-06	6.601194e-10	1.117443e+01	4.253830e+01
2.200000e-06	1.646766e-06	6.823568e-10	1.148453e+01	4.401028e+01
2.210000e-06	1.691017e-06	7.002697e-10	1.179314e+01	4.545959e+01
2.220000e-06	1.735219e-06	7.151661e-10	1.210140e+01	4.688577e+01
2.230000e-06	1.779300e-06	7.297845e-10	1.240882e+01	4.828842e+01
2.240000e-06	1.823205e-06	7.457482e-10	1.271501e+01	4.966725e+01
2.250000e-06	1.867060e-06	7.645869e-10	1.302085e+01	5.102200e+01
2.260000e-06	1.910845e-06	7.864360e-10	1.332621e+01	5.235251e+01
2.270000e-06	1.954535e-06	8.079806e-10	1.363091e+01	5.365867e+01
2.280000e-06	1.998168e-06	8.262075e-10	1.393520e+01	5.494045e+01
2.290000e-06	2.041839e-06	8.431226e-10	1.423976e+01	5.619787e+01
2.300000e-06	2.085494e-06	8.578249e-10	1.454422e+01	5.743101e+01
2.310000e-06	2.129054e-06	8.716014e-10	1.484800e+01	5.864000e+01
2.320000e-06	2.172516e-06	8.866087e-10	1.515110e+01	5.982504e+01
2.330000e-06	2.215861e-06	9.033652e-10	1.545339e+01	6.098636e+01
2.340000e-06	2.259120e-06	9.216795e-10	1.575508e+01	6.212424e+01
2.350000e-06	2.302176e-06	9.396684e-10	1.605535e+01	6.323900e+01
2.360000e-06	2.344962e-06	9.569512e-10	1.635374e+01	6.433099e+01
2.370000e-06	2.387492e-06	9.715279e-10	1.665034e+01	6.540062e+01
2.380000e-06	2.429773e-06	9.849131e-10	1.694521e+01	6.644829e+01
2.390000e-06	2.471730e-06	9.994248e-10	1.723782e+01	6.747444e+01
2.400000e-06	2.513268e-06	1.014056e-09	1.752750e+01	6.847954e+01
2.410000e-06	2.554524e-06	1.028331e-09	1.781522e+01	6.946406e+01
2.420000e-06	2.595524e-06	1.042048e-09	1.810116e+01	7.042850e+01
2.430000e-06	2.636205e-06	1.053618e-09	1.838486e+01	7.137334e+01
2.440000e-06	2.676622e-06	1.062316e-09	1.866673e+01	7.229909e+01
2.450000e-06	2.716901e-06	1.070148e-09	1.894764e+01	7.320625e+01
2.460000e-06	2.756942e-06	1.080573e-09	1.922688e+01	7.409533e+01
2.470000e-06	2.796695e-06	1.092933e-09	1.950412e+01	7.496682e+01
2.480000e-06	2.836325e-06	1.105885e-09	1.978050e+01	7.582121e+01
2.490000e-06	2.875899e-06	1.118331e-09	2.005649e+01	7.665898e+01
2.500000e-06	2.915389e-06	1.130476e-09	2.033189e+01	7.748060e+01
2.510000e-06	2.954766e-06	1.141898e-09	2.060650e+01	7.828650e+01
2.520000e-06	2.994044e-06	1.150584e-09	2.088043e+01	7.907714e+01
2.530000e-06	3.033019e-06	1.157992e-09	2.115224e+01	7.985293e+01
2.540000e-06	3.071778e-06	1.167129e-09	2.142255e+01	8.061427e+01
2.550000e-06	3.110281e-06	1.175963e-09	2.169107e+01	8.136152e+01
2.560000e-06	3.148486e-06	1.184255e-09	2.195750e+01	8.209506e+01
2.570000e-06	3.186543e-06	1.193413e-09	2.222292e+01	8.281521e+01
2.580000e-06	3.224347e-06	1.204075e-09	2.248656e+01	8.352228e+01
2.590000e-06	3.261866e-06	1.216596e-09	2.274822e+01	8.421658e+01
2.600000e-06	3.299218e-06	1.226677e-09	2.300871e+01	8.489836e+01
2.610000e-06	3.336472e-06	1.232385e-09	2.326852e+01	8.556789e+01
2.620000e-06	3.373425e-06	1.239337e-09	2.352623e+01	8.622537e+01
2.630000e-06	3.410132e-06	1.247867e-09	2.378223e+01	8.687104e+01
2.640000e-06	3.446656e-06	1.255754e-09	2.403694e+01	8.750506e+01
2.650000e-06	3.482801e-06	1.266197e-09	2.428902e+01	8.812762e+01
2.660000e-06	3.518696e-06	1.277639e-09	2.453935e+01	8.873887e+01
2.670000e-06	3.554500e-06	1.286879e-09	2.478904e+01	8.933895e+01
2.680000e-06	3.590190e-06	1.294717e-09	2.503794e+01	8.992799e+01
2.690000e-06	3.625806e-06	1.301778e-09	2.528633e+01	9.050610e+01
2.700000e-06	3.661286e-06	1.308101e-09	2.553377e+01	9.107339e+01
2.710000e-06	3.696549e-06	1.314988e-09	2.577969e+01	9.162995e+01
2.720000e-06	3.731537e-06	1.322026e-09	2.602370e+01	9.217587e+01
2.730000e-06	3.766255e-06	1.327023e-09	2.626582e+01	9.271124e+01
2.740000e-06	3.800666e-06	1.331140e-09	2.650580e+01	9.323612e+01
2.750000e-06	3.834532e-06	1.336265e-09	2.674198e+01	9.375061e+01
2.760000e-06	3.867843e-06	1.341673e-09	2.697430e+01	9.425477e+01
2.770000e-06	3.900598e-06	1.346415e-09	2.720272e+01	9.474867e+01
2.780000e-06	3.932867e-06	1.353483e-09	2.742777e+01	9.523241e+01
2.790000e-06	3.964910e-06	1.362596e-09	2.765124e+01	9.570605e+01
2.800000e-06	3.996857e-06	1.369326e-09	2.787403e+01	9.616969e+01
2.810000e-06	4.028626e-06	1.375069e-09	2.809559e+01	9.662342e+01
2.820000e-06	4.060150e-06	1.381286e-09	2.831544e+01	9.706732e+01
2.830000e-06	4.091475e-06	1.386812e-09	2.853390e+01	9.750152e+01
2.840000e-06	4.122523e-06	1.391243e-09	2.875043e+01	9.792611e+01
2.850000e-06	4.153271e-06	1.394863e-09	2.896486e+01	9.834123e+01
2.860000e-06	4.183633e-06	1.399653e-09	2.917661e+01	9.874700e+01
2.870000e-06	4.213633e-06	1.406467e-09	2.938583e+01	9.914355e+01
2.880000e-06	4.243407e-06	1.412622e-09	2.959348e+01	9.953105e+01
2.890000e-06	4.272949e-06	1.416768e-09	2.979950e+01	9.990963e+01
2.900000e-06	4.302317e-06	1.421286e-09	3.000431e+01	1.002795e+02
